Name
Date of Birth,"Mar 27, 1959"
Recorded Date,2020-06-27 23:18:47 -0500
Classification,Sinus Rhythm
Symptoms,
Software Version,1.80
Device,"Watch4,2"
Sample Rate,510.227 hertz


Lead,Lead I
Unit,µV

-24.011
-26.114
-28.321
-30.622
-33
-35.397
-37.739
-39.958
-41.986
-43.775
-45.3
-46.508
-47.335
-47.726
-47.624
-47.029
-45.937
-44.245
-41.928
-39.066
-35.879
-32.824
-30.379
-28.845
-28.413
-29.186
-30.918
-33.17
-35.249
-35.996
-34.282
-29.196
-20.281
-7.753
7.461
23.966
40.079
53.779
63.001
65.606
60.216
46.58
25.387
-1.553
-32.024
-63.778
-94.014
-119.145
-135.977
-141.866
-134.59
-113.419
-78.044
-27.608
37.954
117.483
209.766
310.96
414.482
515.81
610.17
696.992
781.754
863.232
936.186
988.373
998.021
955.461
860.546
719.843
555.269
385.307
225.551
96.156
6.828
-39.259
-42.546
-12.918
38.072
100.683
162.03
206.875
224.676
211.753
174.601
130.97
96.85
79.656
78.434
84.36
89.789
92.517
93.605
96.033
100.977
107.294
113.439
118.009
120.682
121.804
121.57
120.195
117.847
114.656
110.847
106.582
101.924
96.957
91.776
86.511
81.328
76.384
71.825
67.768
64.274
61.373
59.074
57.362
56.221
55.623
55.522
55.876
56.642
57.771
59.216
60.922
62.823
64.857
66.967
69.111
71.268
73.43
75.596
77.774
79.973
82.208
84.498
86.858
89.298
91.829
94.458
97.194
100.05
103.036
106.16
109.428
112.845
116.411
120.13
123.998
128.014
132.174
136.471
140.901
145.458
150.139
154.936
159.841
164.847
169.944
175.124
180.378
185.693
191.051
196.433
201.819
207.186
212.511
217.769
222.935
227.982
232.888
237.632
242.198
246.565
250.712
254.614
258.243
261.579
264.607
267.316
269.692
271.722
273.392
274.691
275.612
276.148
276.288
276.016
275.312
274.162
272.556
270.503
268.029
265.141
261.833
258.077
253.841
249.127
243.988
238.493
232.693
226.616
220.249
213.643
206.938
200.191
193.308
186.009
177.969
169.097
159.656
149.987
140.202
130.427
120.994
112.619
106.202
102.111
99.87
98.548
97.529
96.398
94.645
91.391
85.453
76.27
64.397
51.137
37.526
24.229
11.836
1.09
-6.934
-11.523
-12.879
-11.843
-9.118
-5.085
0.024
5.975
12.252
18.38
24.331
30.407
36.83
43.615
50.579
57.44
64.106
70.589
76.752
82.296
86.944
90.555
93.334
95.8
98.243
100.643
102.829
104.597
105.835
106.38
105.565
102.164
95.268
84.71
71.147
55.775
39.734
24.252
10.949
2.032
-0.402
4.641
16.686
34.305
55.64
78.418
100.392
118.901
131.005
134.872
129.977
116.635
96.345
71.393
43.75
15.718
-10.011
-31.427
-46.815
-54.898
-55.889
-50.73
-40.111
-25.018
-6.549
14.137
35.156
54.726
71.999
86.254
96.64
102.319
102.237
95.994
84.245
67.895
48.016
26.339
4.942
-13.867
-27.126
-32.181
-27.466
-11.871
13.611
44.984
80.034
117.801
158.144
204.621
253.392
293.533
315.188
306.18
266.016
207.805
143.255
85.531
41.036
5.192
-23.918
-47.098
-64.702
-73.343
-72.404
-63.99
-49.377
-30.567
-9.53
13.365
36.313
57.374
77.966
97.758
118.651
143.694
167.24
184.929
190.818
177.604
150.997
117.641
83.96
57.846
37.486
20.975
9.294
1.834
0.677
6.202
15.307
26.087
36.908
46.266
53.513
57.637
57.932
55.091
50.707
45.999
41.618
37.779
34.454
31.952
30.595
30.231
30.353
30.522
30.543
30.455
30.427
30.482
30.544
30.592
30.664
30.835
31.159
31.644
32.249
32.946
33.735
34.621
35.618
36.723
37.913
39.16
40.442
41.743
43.058
44.385
45.723
47.068
48.41
49.74
51.05
52.33
53.568
54.748
55.85
56.856
57.754
58.535
59.187
59.698
60.055
60.244
60.25
60.059
59.656
59.028
58.169
57.075
55.746
54.179
52.366
50.302
47.983
45.408
42.585
39.52
36.219
32.697
28.986
25.122
21.15
17.105
13.008
8.885
4.754
0.648
-3.389
-7.314
-11.079
-14.656
-18.029
-21.196
-24.164
-26.942
-29.557
-32.074
-34.581
-37.156
-39.881
-42.769
-45.758
-48.986
-52.743
-57.302
-62.964
-69.803
-77.641
-86.445
-96.268
-106.59
-116.334
-124.232
-128.879
-129.581
-126.374
-119.269
-108.521
-95.304
-81.873
-71.053
-65.657
-67.398
-76.861
-93.959
-117.308
-144.145
-169.957
-188.684
-194.249
-181.346
-144.888
-82.822
2.06
106.251
224.266
352.656
495.243
650.917
809.112
951.409
1049.01
1078.036
1032.999
920.269
755.591
559.705
347.923
136.888
-50.618
-195.346
-285.044
-317.743
-305.846
-266.504
-212.267
-154.734
-104.064
-66.33
-46.916
-44.633
-49.17
-52.407
-50.665
-44.298
-39.555
-39.85
-43.279
-47.12
-47.762
-43.023
-32.971
-18.208
0.269
21.063
42.47
63.141
82.277
99.49
114.552
127.01
136.577
143.193
147.122
149.236
150.261
150.394
149.819
148.97
148.159
147.959
148.92
150.528
152.309
154.306
156.43
158.622
160.89
162.822
164.057
165.054
166.054
166.806
167.138
166.826
165.973
165.19
164.75
164.492
164.619
165.813
169.08
175.319
184.25
194.654
205.63
216.388
225.948
233.082
235.661
231.643
220.826
204.348
183.72
160.895
137.603
115.518
97.445
86.205
83.043
88.207
100.666
118.375
139.818
163.293
186.203
206.044
220.716
228.372
228.858
222.935
210.768
193.537
172.936
150.535
128.886
110.538
96.464
87.461
84.776
88.156
97.167
111.206
127.764
144.643
160.892
175.19
186.114
193.316
196.256
194.815
190.787
185.459
179.261
172.939
166.97
161.485
157.062
153.965
151.277
148.403
145.184
141.365
137.066
132.408
127.134
121.075
114.485
107.539
100.308
92.919
85.29
77.357
69.226
60.992
52.688
44.357
36.014
27.635
19.259
10.94
2.699
-5.404
-13.306
-20.941
-28.204
-35.01
-41.321
-47.108
-52.368
-57.128
-61.416
-65.283
-68.805
-72.022
-74.966
-77.667
-80.136
-82.407
-84.53
-86.56
-88.57
-90.623
-92.756
-95.004
-97.387
-99.903
-102.541
-105.264
-108.011
-110.739
-113.427
-116.059
-118.637
-121.155
-123.598
-125.953
-128.209
-130.351
-132.371
-134.26
-136.01
-137.623
-139.109
-140.49
-141.801
-143.067
-144.303
-145.519
-146.717
-147.899
-149.067
-150.22
-151.35
-152.454
-153.53
-154.577
-155.599
-156.595
-157.562
-158.493
-159.382
-160.221
-161.006
-161.733
-162.398
-163
-163.536
-164.007
-164.416
-164.766
-165.056
-165.288
-165.462
-165.578
-165.637
-165.639
-165.586
-165.479
-165.32
-165.112
-164.858
-164.563
-164.23
-163.862
-163.463
-163.036
-162.585
-162.113
-161.621
-161.115
-160.595
-160.067
-159.534
-158.999
-158.466
-157.941
-157.425
-156.925
-156.443
-155.984
-155.551
-155.148
-154.779
-154.448
-154.158
-153.914
-153.717
-153.572
-153.48
-153.445
-153.467
-153.549
-153.69
-153.891
-154.154
-154.479
-154.867
-155.318
-155.833
-156.412
-157.054
-157.76
-158.527
-159.355
-160.24
-161.181
-162.175
-163.217
-164.304
-165.432
-166.596
-167.792
-169.016
-170.261
-171.522
-172.792
-174.066
-175.337
-176.601
-177.85
-179.08
-180.286
-181.465
-182.612
-183.724
-184.795
-185.82
-186.793
-187.709
-188.561
-189.343
-190.048
-190.67
-191.206
-191.655
-192.016
-192.293
-192.48
-192.571
-192.565
-192.459
-192.248
-191.93
-191.497
-190.94
-190.265
-189.473
-188.568
-187.562
-186.449
-185.227
-183.89
-182.428
-180.845
-179.156
-177.363
-175.474
-173.511
-171.489
-169.441
-167.415
-165.418
-163.459
-161.547
-159.668
-157.829
-156.042
-154.304
-152.623
-150.99
-149.374
-147.752
-146.114
-144.418
-142.635
-140.713
-138.572
-136.188
-133.554
-130.664
-127.547
-124.225
-120.715
-117.055
-113.298
-109.503
-105.762
-102.169
-98.793
-95.727
-93.056
-90.875
-89.315
-88.45
-88.324
-88.978
-90.419
-92.649
-95.672
-99.463
-103.963
-109.105
-114.784
-120.871
-127.261
-133.836
-140.475
-147.062
-153.46
-159.555
-165.265
-170.506
-175.204
-179.289
-182.693
-185.369
-187.308
-188.526
-189.091
-189.11
-188.699
-187.967
-187.001
-185.895
-184.778
-183.783
-183.04
-182.686
-182.813
-183.565
-185.181
-187.751
-191.188
-195.201
-199.169
-202.458
-204.656
-205.275
-203.737
-199.875
-193.898
-186.557
-179.495
-174.233
-171.649
-172.488
-177.256
-185.687
-196.762
-208.365
-216.775
-218.052
-209.03
-186.986
-149.561
-95.103
-23.148
65.14
164.816
268.153
367.98
458.726
539.554
611.83
674.155
720.999
738.76
713.68
638.488
511.717
346.788
165.129
-11.226
-156.741
-256.019
-306.372
-312.318
-287.107
-244.546
-194.268
-145.605
-108.744
-91.602
-97.445
-121.85
-151.874
-175.323
-186.252
-185.636
-180.569
-176.461
-174.577
-173.838
-171.537
-166.797
-160.728
-154.451
-149.084
-145.202
-142.695
-141.511
-141.587
-142.657
-144.503
-146.94
-149.789
-152.923
-156.232
-159.568
-162.764
-165.686
-168.196
-170.189
-171.601
-172.393
-172.561
-172.118
-171.095
-169.532
-167.472
-164.963
-162.048
-158.76
-155.145
-151.262
-147.188
-143.014
-138.833
-134.705
-130.67
-126.744
-122.932
-119.247
-115.695
-112.28
-109.014
-105.909
-102.986
-100.288
-97.841
-95.639
-93.658
-91.835
-90.098
-88.395
-86.691
-84.958
-83.18
-81.322
-79.352
-77.245
-74.963
-72.464
-69.697
-66.579
-63.049
-59.089
-54.706
-49.948
-44.891
-39.584
-34.069
-28.387
-22.565
-16.64
-10.65
-4.614
1.44
7.472
13.431
19.24
24.83
30.17
35.246
40.072
44.685
49.102
53.334
57.397
61.293
65.023
68.586
71.962
75.133
78.09
80.835
83.383
85.75
87.934
89.926
91.71
93.258
94.554
95.582
96.325
96.773
96.921
96.77
96.33
95.617
94.641
93.411
91.933
90.212
88.258
86.086
83.708
81.142
78.403
75.51
72.481
69.337
66.093
62.766
59.369
55.915
52.417
48.889
45.344
41.795
38.256
34.739
31.257
27.824
24.45
21.145
17.92
14.781
11.738
8.796
5.962
3.241
0.639
-1.841
-4.195
-6.42
-8.515
-10.477
-12.307
-14.002
-15.564
-16.993
-18.29
-19.454
-20.489
-21.394
-22.17
-22.82
-23.344
-23.745
-24.023
-24.18
-24.218
-24.139
-23.945
-23.638
-23.22
-22.693
-22.059
-21.321
-20.479
-19.535
-18.493
-17.353
-16.119
-14.792
-13.374
-11.869
-10.278
-8.603
-6.846
-5.011
-3.097
-1.109
0.952
3.082
5.279
7.538
9.855
12.226
14.646
17.112
19.617
22.157
24.727
27.325
29.944
32.58
35.229
37.886
40.546
43.204
45.857
48.5
51.129
53.741
56.333
58.902
61.447
63.965
66.453
68.909
71.331
73.715
76.058
78.355
80.604
82.804
84.951
87.047
89.09
91.083
93.026
94.923
96.778
98.589
100.356
102.079
103.754
105.381
106.956
108.478
109.944
111.352
112.704
114.004
115.254
116.45
117.59
118.663
119.664
120.594
121.45
122.23
122.94
123.59
124.199
124.798
125.407
126.036
126.69
127.359
128.035
128.71
129.371
130
130.585
131.106
131.556
131.936
132.231
132.411
132.433
132.222
131.724
130.908
129.742
128.217
126.34
124.128
121.628
118.918
116.062
113.128
110.176
107.232
104.347
101.591
99.036
96.789
94.95
93.589
92.789
92.63
93.144
94.349
96.216
98.643
101.54
104.809
108.334
112.039
115.839
119.625
123.317
126.812
129.998
132.791
135.081
136.734
137.667
137.809
137.12
135.653
133.472
130.653
127.332
123.615
119.606
115.436
111.19
106.941
102.782
98.778
95.01
91.597
88.631
86.198
84.388
83.213
82.66
82.698
83.232
84.162
85.395
86.807
88.307
89.839
91.333
92.743
94.028
95.116
95.939
96.437
96.526
96.162
95.323
93.994
92.2
89.981
87.384
84.477
81.319
77.943
74.388
70.686
66.872
62.992
59.092
55.213
51.403
47.711
44.176
40.843
37.753
34.931
32.389
30.137
28.179
26.52
25.153
24.026
23.053
22.152
21.252
20.314
19.298
18.12
16.677
14.857
12.563
9.752
6.334
2.123
-2.95
-8.802
-15.125
-21.257
-26.589
-30.705
-33.046
-32.986
-30.298
-25.083
-18.114
-11.143
-5.522
-2.103
-2.286
-7.019
-16.117
-29.148
-42.707
-51.509
-53.291
-44.835
-24.999
4.571
47.7
106.572
183.259
283.68
406.527
544.869
686.847
809.482
889.523
916.177
889.06
820.734
731.468
628.978
512.431
381.253
237.184
97.484
-13.686
-81.926
-106.199
-101.747
-87.501
-74.523
-64.979
-53.051
-35.546
-14.711
5.63
20.506
28.011
29.501
26.591
21.165
15.319
10.689
8.207
8.183
10.189
13.377
17.061
20.707
23.63
25.136
24.851
22.643
18.697
13.44
7.206
0.251
-7.155
-14.754
-22.318
-29.622
-36.502
-42.885
-48.709
-53.931
-58.52
-62.431
-65.644
-68.163
-70.042
-71.367
-72.22
-72.669
-72.775
-72.597
-72.21
-71.701
-71.138
-70.561
-69.989
-69.432
-68.902
-68.421
-67.998
-67.633
-67.306
-66.986
-66.652
-66.29
-65.886
-65.425
-64.886
-64.245
-63.485
-62.604
-61.596
-60.459
-59.187
-57.769
-56.2
-54.479
-52.603
-50.575
-48.393
-46.053
-43.555
-40.9
-38.09
-35.13
-32.021
-28.764
-25.365
-21.828
-18.161
-14.373
-10.472
-6.468
-2.371
1.805
6.049
10.346
14.683
19.045
23.418
27.785
32.131
36.44
40.695
44.879
48.975
52.967
56.838
60.572
64.154
67.569
70.8
73.836
76.662
79.265
81.635
83.761
85.634
87.245
88.588
89.658
90.451
90.965
91.197
91.147
90.817
90.209
89.326
88.172
86.753
85.074
83.144
80.97
78.562
75.93
73.084
70.036
66.799
63.383
59.804
56.073
52.206
48.217
44.12
39.93
35.665
31.339
26.969
22.57
18.159
13.75
9.359
5
0.686
-3.57
-7.755
-11.859
-15.869
-19.777
-23.572
-27.245
-30.788
-34.196
-37.46
-40.576
-43.54
-46.348
-49
-51.493
-53.827
-56.002
-58.019
-59.879
-61.584
-63.138
-64.544
-65.808
-66.935
-67.933
-68.81
-69.578
-70.245
-70.822
-71.314
-71.728
-72.068
-72.343
-72.558
-72.72
-72.836
-72.912
-72.96
-72.993
-73.026
-73.072
-73.142
-73.238
-73.365
-73.535
-73.759
-74.054
-74.432
-74.897
-75.449
-76.094
-76.835
-77.68
-78.622
-79.639
-80.703
-81.782
-82.858
-83.929
-84.986
-86.005
-86.941
-87.722
-88.316
-88.747
-89.061
-89.327
-89.57
-89.735
-89.837
-89.975
-90.182
-90.463
-90.627
-90.229
-89.069
-87.26
-84.96
-82.446
-80.012
-77.769
-76.356
-76.992
-80.36
-86.663
-95.64
-106.301
-117.736
-129.349
-139.565
-146.026
-147.046
-141.276
-128.372
-109.401
-85.223
-56.657
-26.054
3.38
28.745
46.919
56.111
56.146
46.415
26.756
-1.2
-34.971
-71.45
-106.477
-137.085
-161.63
-177.885
-184.301
-180.65
-167.296
-146.114
-120.695
-93.987
-68.004
-45.069
-26.86
-14.591
-9.409
-10.846
-16.717
-24.877
-33.785
-42.13
-49.179
-54.169
-56.027
-54.642
-50.994
-46.325
-41.593
-37.297
-33.496
-30.296
-28.1
-27.073
-26.981
-27.371
-27.836
-28.233
-28.634
-29.146
-29.751
-30.372
-30.979
-31.611
-32.34
-33.196
-34.163
-35.189
-36.235
-37.313
-38.437
-39.618
-40.856
-42.124
-43.397
-44.655
-45.885
-47.074
-48.217
-49.302
-50.312
-51.242
-52.089
-52.853
-53.535
-54.134
-54.649
-55.088
-55.471
-55.815
-56.129
-56.416
-56.669
-56.885
-57.064
-57.204
-57.302
-57.352
-57.345
-57.278
-57.157
-56.968
-56.692
-56.292
-55.707
-54.904
-53.877
-52.634
-51.203
-49.618
-47.918
-46.161
-44.421
-42.76
-41.233
-39.878
-38.718
-37.798
-37.187
-36.97
-37.254
-38.113
-39.583
-41.682
-44.406
-47.723
-51.576
-55.874
-60.487
-65.305
-70.241
-75.22
-80.18
-85.038
-89.674
-93.967
-97.788
-101.032
-103.625
-105.529
-106.716
-107.208
-107.068
-106.376
-105.273
-103.91
-102.414
-100.933
-99.604
-98.536
-97.914
-97.983
-98.863
-100.574
-102.967
-105.641
-108.232
-110.486
-112.004
-112.3
-111.088
-108.282
-104.314
-100.237
-97.03
-95.359
-95.77
-98.678
-104.198
-111.998
-120.71
-127.792
-130.295
-125.46
-111.007
-84.73
-44.41
11.532
83.255
167.525
258.164
349.556
437.653
522.912
607.977
689.394
758.628
801.017
800.216
751.301
657.677
528.99
382.523
232.87
95.257
-11.661
-78.971
-105.85
-101.244
-84.946
-70.167
-62.215
-60.089
-56.435
-49.146
-40.381
-32.697
-29.785
-32.144
-37.757
-45.103
-52.251
-57.472
-60.269
-60.49
-58.314
-54.517
-49.85
-44.875
-40.257
-36.659
-34.392
-33.581
-34.17
-35.878
-38.468
-41.751
-45.499
-49.487
-53.534
-57.47
-61.155
-64.486
-67.348
-69.648
-71.331
-72.361
-72.738
-72.479
-71.616
-70.2
-68.291
-65.954
-63.246
-60.226
-56.953
-53.489
-49.902
-46.257
-42.615
-39.021
-35.504
-32.089
-28.785
-25.597
-22.52
-19.543
-16.65
-13.83
-11.073
-8.372
-5.718
-3.101
-0.507
2.074
4.657
7.252
9.87
12.52
15.211
17.95
20.744
23.598
26.516
29.502
32.564
35.706
38.934
42.253
45.665
49.173
52.778
56.481
60.277
64.164
68.135
72.184
76.302
80.481
84.709
88.975
93.267
97.571
101.873
106.157
110.408
114.609
118.741
122.789
126.732
130.553
134.233
137.754
141.099
144.25
147.189
149.902
152.372
154.585
156.528
158.188
159.554
160.617
161.368
161.802
161.914
161.703
161.167
160.308
159.13
157.635
155.832
153.726
151.327
148.644
145.689
142.474
139.014
135.322
131.415
127.309
123.022
118.572
113.977
109.257
104.43
99.516
94.534
89.503
84.444
79.374
74.314
69.28
64.292
59.364
54.513
49.752
45.096
40.555
36.14
31.86
27.724
23.738
19.908
16.239
12.734
9.397
6.228
3.228
0.397
-2.268
-4.769
-7.109
-9.294
-11.327
-13.215
-14.965
-16.583
-18.076
-19.454
-20.724
-21.897
-22.98
-23.983
-24.917
-25.789
-26.609
-27.386
-28.126
-28.837
-29.526
-30.199
-30.861
-31.518
-32.174
-32.832
-33.497
-34.172
-34.858
-35.558
-36.273
-37.004
-37.751
-38.513
-39.291
-40.084
-40.889
-41.705
-42.53
-43.361
-44.196
-45.03
-45.861
-46.683
-47.493
-48.287
-49.061
-49.809
-50.529
-51.217
-51.87
-52.485
-53.059
-53.59
-54.076
-54.516
-54.909
-55.252
-55.547
-55.792
-55.988
-56.136
-56.236
-56.29
-56.3
-56.266
-56.192
-56.079
-55.93
-55.748
-55.537
-55.298
-55.037
-54.757
-54.463
-54.158
-53.846
-53.533
-53.223
-52.919
-52.626
-52.348
-52.089
-51.852
-51.64
-51.458
-51.308
-51.193
-51.116
-51.078
-51.084
-51.132
-51.226
-51.366
-51.553
-51.787
-52.069
-52.397
-52.773
-53.195
-53.662
-54.173
-54.726
-55.319
-55.951
-56.619
-57.321
-58.054
-58.816
-59.604
-60.417
-61.25
-62.103
-62.971
-63.852
-64.743
-65.641
-66.543
-67.444
-68.344
-69.237
-70.121
-70.994
-71.852
-72.692
-73.511
-74.308
-75.078
-75.821
-76.532
-77.211
-77.854
-78.46
-79.028
-79.555
-80.039
-80.479
-80.873
-81.217
-81.511
-81.75
-81.932
-82.055
-82.116
-82.111
-82.04
-81.898
-81.684
-81.397
-81.033
-80.592
-80.072
-79.471
-78.788
-78.022
-77.173
-76.239
-75.222
-74.121
-72.936
-71.669
-70.32
-68.892
-67.384
-65.801
-64.143
-62.415
-60.621
-58.766
-56.856
-54.899
-52.903
-50.877
-48.834
-46.783
-44.737
-42.709
-40.711
-38.755
-36.852
-35.015
-33.256
-31.587
-30.02
-28.567
-27.24
-26.053
-25.018
-24.147
-23.448
-22.926
-22.587
-22.434
-22.472
-22.709
-23.151
-23.8
-24.66
-25.734
-27.021
-28.516
-30.201
-32.043
-34.007
-36.058
-38.161
-40.292
-42.419
-44.508
-46.525
-48.429
-50.184
-51.759
-53.121
-54.232
-55.073
-55.629
-55.924
-56.038
-56.057
-56.06
-56.123
-56.281
-56.587
-57.138
-58.032
-59.366
-61.24
-63.683
-66.772
-70.696
-75.491
-81.024
-86.952
-92.589
-97.275
-100.599
-102.067
-101.061
-97.33
-91.002
-82.789
-74.304
-67.061
-61.971
-59.918
-61.701
-67.359
-76.062
-85.736
-92.718
-93.329
-84.371
-62.511
-24.638
31.752
105.67
192.247
286.068
380.97
476.805
579.468
686.344
790.437
876.025
914.953
894.237
811.277
671.691
502.658
326.166
162.064
34.571
-50.971
-94.838
-104.235
-100.589
-95.107
-92.054
-92.127
-87.034
-75.067
-60.479
-46.607
-38.294
-37.145
-41.114
-48.421
-57.269
-65.585
-71.839
-75.245
-75.496
-72.946
-68.449
-62.756
-56.496
-50.436
-45.267
-41.319
-38.717
-37.368
-37.024
-37.514
-38.684
-40.331
-42.242
-44.246
-46.215
-48.057
-49.706
-51.056
-51.995
-52.466
-52.468
-52.039
-51.22
-50.017
-48.411
-46.4
-44.022
-41.32
-38.349
-35.155
-31.771
-28.242
-24.63
-21.001
-17.412
-13.887
-10.413
-6.959
-3.512
-0.085
3.285
6.564
9.743
12.819
15.794
18.666
21.429
24.091
26.675
29.212
31.73
34.235
36.71
39.125
41.461
43.722
45.928
48.109
50.286
52.467
54.654
56.847
59.054
61.272
63.485
65.663
67.769
69.794
71.76
73.715
75.703
77.748
79.855
82.018
84.236
86.52
88.885
91.34
93.883
96.517
99.261
102.154
105.242
108.538
112.009
115.59
119.217
122.846
126.449
130.001
133.469
136.814
140.002
143.012
145.83
148.437
150.795
152.848
154.535
155.825
156.722
157.256
157.452
157.323
156.875
156.116
155.064
153.737
152.144
150.28
148.142
145.733
143.073
140.193
137.126
133.891
130.496
126.94
123.226
119.364
115.366
111.243
107.001
102.65
98.211
93.71
89.175
84.628
80.087
75.565
71.077
66.642
62.279
58.006
53.839
49.796
45.891
42.141
38.563
35.169
31.968
28.967
26.171
23.585
21.213
19.059
17.123
15.405
13.906
12.623
11.556
10.699
10.049
9.599
9.34
9.265
9.365
9.629
10.049
10.612
11.309
12.127
13.056
14.083
15.198
16.388
17.642
18.947
20.293
21.667
23.059
24.458
25.856
27.242
28.608
29.947
31.252
32.516
33.733
34.899
36.01
37.061
38.05
38.975
39.834
40.628
41.357
42.022
42.625
43.168
43.653
44.083
44.462
44.793
45.079
45.324
45.531
45.705
45.85
45.971
46.071
46.155
46.227
46.29
46.35
46.408
46.469
46.535
46.608
46.692
46.788
46.9
47.027
47.17
47.332
47.51
47.707
47.919
48.147
48.387
48.638
48.899
49.166
49.439
49.714
49.991
50.269
50.546
50.823
51.099
51.371
51.64
51.905
52.164
52.416
52.658
52.89
53.112
53.325
53.53
53.729
53.923
54.115
54.309
54.51
54.72
54.941
55.174
55.424
55.697
56.005
56.356
56.749
57.186
57.665
58.18
58.722
59.27
59.794
60.264
60.655
60.945
61.123
61.172
61.07
60.796
60.333
59.678
58.838
57.825
56.649
55.337
53.938
52.524
51.188
50.014
49.068
48.409
48.089
48.157
48.653
49.596
50.971
52.739
54.839
57.203
59.753
62.367
64.88
67.089
68.777
69.741
69.801
68.778
66.488
62.775
57.52
50.654
42.174
32.11
20.515
7.473
-6.899
-22.422
-38.854
-55.921
-73.347
-90.857
-108.191
-125.071
-141.201
-156.333
-170.273
-182.881
-194.079
-203.811
-212.039
-218.77
-224.052
-227.983
-230.704
-232.367
-233.109
-233.082
-232.435
-231.33
-229.954
-228.441
-226.89
-225.381
-223.961
-222.677
-221.569
-220.64
-219.874
-219.253
-218.748
-218.353
-218.087
-217.952
-217.972
-218.176
-218.571
-219.199
-220.095
-221.267
-222.737
-224.513
-226.599
-229.023
-231.799
-234.914
-238.341
-242.025
-245.876
-249.808
-253.705
-257.425
-260.859
-263.902
-266.499
-268.652
-270.367
-271.642
-272.472
-272.854
-272.822
-272.451
-271.83
-271.056
-270.226
-269.487
-269.09
-269.195
-269.788
-270.658
-271.334
-271.34
-270.387
-268.131
-264.069
-257.961
-249.965
-240.76
-231.707
-224.051
-218.39
-215.166
-214.947
-217.887
-223.365
-229.693
-233.769
-232.39
-223.39
-204.669
-173.846
-128.879
-68.261
6.305
89.363
175.902
261.398
345.529
432.229
518.65
597.857
657.383
678.255
652.475
580.365
467.165
328.249
177.874
30.336
-94.946
-183.929
-231.032
-240.74
-229.632
-213.944
-202.551
-196.636
-190.338
-180.412
-168.041
-156.108
-148.953
-147.867
-151.056
-156.574
-162.056
-165.295
-165.492
-162.394
-156.024
-147.185
-136.821
-125.705
-114.752
-104.845
-96.424
-89.714
-84.796
-81.492
-79.681
-79.267
-80.048
-81.816
-84.395
-87.603
-91.266
-95.21
-99.196
-102.998
-106.454
-109.451
-111.94
-113.886
-115.251
-116.005
-116.118
-115.595
-114.463
-112.749
-110.489
-107.741
-104.585
-101.133
-97.526
-93.879
-90.273
-86.761
-83.364
-80.102
-76.99
-74.037
-71.243
-68.602
-66.105
-63.75
-61.534
-59.446
-57.462
-55.542
-53.637
-51.703
-49.714
-47.645
-45.483
-43.214
-40.828
-38.319
-35.688
-32.934
-30.055
-27.043
-23.892
-20.596
-17.157
-13.575
-9.859
-6.013
-2.044
2.042
6.236
10.53
14.915
19.381
23.923
28.529
33.188
37.885
42.607
47.336
52.057
56.753
61.404
65.994
70.503
74.915
79.213
83.378
87.395
91.247
94.919
98.395
101.662
104.707
107.516
110.078
112.384
114.424
116.191
117.679
118.883
119.8
120.428
120.767
120.82
120.587
120.073
119.283
118.223
116.9
115.325
113.505
111.454
109.181
106.702
104.029
101.178
98.162
94.998
91.7
88.286
84.772
81.173
77.506
73.787
70.032
66.258
62.48
58.713
54.971
51.27
47.621
44.038
40.533
37.115
33.796
30.584
27.487
24.513
21.668
18.956
16.384
13.952
11.665
9.523
7.525
5.673
3.963
2.394
0.962
-0.336
-1.504
-2.549
-3.474
-4.286
-4.992
-5.597
-6.108
-6.533
-6.878
-7.15
-7.357
-7.505
-7.6
-7.649
-7.658
-7.633
-7.579
-7.501
-7.404
-7.291
-7.165
-7.031
-6.89
-6.744
-6.595
-6.442
-6.287
-6.129
-5.966
-5.798
-5.622
-5.438
-5.242
-5.033
-4.809
-4.566
-4.303
-4.018
-3.708
-3.372
-3.007
-2.613
-2.188
-1.732
-1.243
-0.721
-0.168
0.417
1.033
1.677
2.35
3.047
3.768
4.509
5.268
6.039
6.821
7.608
8.396
9.179
9.953
10.713
11.452
12.166
12.85
13.498
14.106
14.67
15.186
15.65
16.059
16.409
16.7
16.928
17.093
17.194
17.229
17.2
17.107
16.951
16.733
16.454
16.117
15.722
15.274
14.773
14.223
13.627
12.988
12.308
11.593
10.845
10.068
9.267
8.445
7.605
6.751
5.886
5.013
4.135
3.254
2.373
1.493
0.616
-0.256
-1.122
-1.982
-2.834
-3.677
-4.511
-5.336
-6.151
-6.955
-7.746
-8.525
-9.29
-10.039
-10.77
-11.483
-12.174
-12.841
-13.483
-14.096
-14.678
-15.226
-15.735
-16.203
-16.625
-16.998
-17.316
-17.576
-17.773
-17.902
-17.959
-17.937
-17.834
-17.645
-17.364
-16.989
-16.515
-15.94
-15.262
-14.478
-13.588
-12.591
-11.489
-10.282
-8.974
-7.567
-6.065
-4.474
-2.801
-1.052
0.764
2.638
4.56
6.518
8.498
10.487
12.471
14.432
16.357
18.227
20.027
21.741
23.355
24.854
26.224
27.449
28.517
29.413
30.125
30.639
30.947
31.038
30.905
30.548
29.966
29.16
28.129
26.868
25.372
23.647
21.693
19.515
17.125
14.538
11.785
8.911
5.959
2.974
-0.003
-2.942
-5.806
-8.552
-11.14
-13.516
-15.631
-17.455
-18.947
-20.074
-20.82
-21.194
-21.257
-21.106
-20.839
-20.535
-20.251
-20.045
-20.002
-20.218
-20.781
-21.786
-23.266
-25.291
-28.025
-31.482
-35.531
-39.871
-43.892
-47.01
-48.843
-48.859
-46.45
-41.477
-34.063
-24.884
-15.424
-6.83
0.152
4.499
5.472
3.269
-1.298
-6.208
-8.146
-4.096
8.749
33.73
73.975
129.486
197.34
273.871
353.32
435.405
526.049
623.464
722.242
808.177
853.39
842.837
770.916
640.747
477.893
304.614
142.02
14.87
-71.188
-116.151
-126.898
-123.793
-117.108
-110.869
-106.102
-95.268
-77.179
-56.395
-36.477
-22.435
-16.15
-15.736
-19.376
-25.163
-30.89
-34.884
-36.279
-34.733
-30.58
-24.71
-17.898
-10.776
-4.131
1.331
5.239
7.429
7.975
7.116
5.038
1.907
-2.071
-6.69
-11.751
-17.063
-22.436
-27.688
-32.664
-37.248
-41.361
-44.966
-48.033
-50.536
-52.465
-53.806
-54.561
-54.754
-54.403
-53.538
-52.218
-50.518
-48.54
-46.415
-44.234
-42.06
-39.936
-37.882
-35.912
-34.044
-32.284
-30.628
-29.078
-27.63
-26.283
-25.035
-23.871
-22.764
-21.678
-20.561
-19.375
-18.094
-16.699
-15.18
-13.528
-11.73
-9.781
-7.676
-5.41
-2.981
-0.383
2.386
5.32
8.403
11.61
14.908
18.275
21.696
25.164
28.683
32.255
35.884
39.579
43.336
47.152
51.028
54.952
58.921
62.942
67.033
71.227
75.571
80.082
84.762
89.601
94.556
99.578
104.611
109.571
114.398
119.037
123.434
127.554
131.361
134.797
137.801
140.289
142.164
143.361
143.837
143.563
142.554
140.842
138.48
135.559
132.157
128.334
124.146
119.632
114.824
109.777
104.547
99.2
93.822
88.48
83.228
78.116
73.161
68.366
63.714
59.159
54.66
50.198
45.761
41.349
36.975
32.638
28.343
24.097
19.893
15.728
11.602
7.511
3.463
-0.524
-4.425
-8.203
-11.823
-15.263
-18.507
-21.543
-24.37
-26.986
-29.393
-31.599
-33.612
-35.433
-37.068
-38.518
-39.786
-40.882
-41.816
-42.598
-43.243
-43.763
-44.169
-44.472
-44.682
-44.809
-44.859
-44.84
-44.758
-44.62
-44.435
-44.212
-43.959
-43.684
-43.394
-43.098
-42.8
-42.506
-42.22
-41.944
-41.679
-41.428
-41.19
-40.964
-40.75
-40.546
-40.351
-40.162
-39.977
-39.794
-39.61
-39.424
-39.232
-39.031
-38.819
-38.594
-38.352
-38.092
-37.811
-37.507
-37.178
-36.824
-36.442
-36.033
-35.594
-35.126
-34.63
-34.105
-33.553
-32.976
-32.377
-31.759
-31.125
-30.481
-29.83
-29.178
-28.53
-27.891
-27.267
-26.664
-26.086
-25.538
-25.026
-24.555
-24.127
-23.748
-23.42
-23.147
-22.931
-22.774
-22.678
-22.644
-22.674
-22.766
-22.921
-23.139
-23.417
-23.754
-24.147
-24.594
-25.092
-25.635
-26.221
-26.845
-27.501
-28.184
-28.89
-29.613
-30.347
-31.088
-31.83
-32.568
-33.297
-34.013
-34.712
-35.389
-36.042
-36.668
-37.263
-37.827
-38.358
-38.854
-39.314
-39.739
-40.128
-40.481
-40.799
-41.083
-41.332
-41.55
-41.737
-41.896
-42.027
-42.135
-42.22
-42.284
-42.331
-42.361
-42.376
-42.377
-42.365
-42.34
-42.304
-42.254
-42.192
-42.116
-42.024
-41.915
-41.788
-41.639
-41.465
-41.264
-41.032
-40.766
-40.462
-40.117
-39.728
-39.292
-38.806
-38.268
-37.675
-37.025
-36.318
-35.55
-34.722
-33.833
-32.883
-31.872
-30.803
-29.678
-28.5
-27.274
-26.004
-24.697
-23.362
-22.009
-20.646
-19.286
-17.94
-16.621
-15.343
-14.118
-12.957
-11.872
-10.873
-9.972
-9.18
-8.509
-7.971
-7.577
-7.336
-7.256
-7.346
-7.611
-8.05
-8.664
-9.449
-10.411
-11.56
-12.902
-14.444
-16.187
-18.13
-20.265
-22.576
-25.033
-27.596
-30.219
-32.855
-35.465
-38.015
-40.469
-42.792
-44.936
-46.84
-48.453
-49.727
-50.621
-51.103
-51.166
-50.832
-50.164
-49.265
-48.237
-47.168
-46.147
-45.275
-44.652
-44.389
-44.615
-45.416
-46.909
-49.278
-52.559
-56.661
-61.357
-66.13
-70.441
-73.907
-75.968
-75.971
-73.766
-69.441
-63.516
-57.327
-51.89
-47.713
-45.648
-46.352
-49.489
-54.31
-59.021
-60.269
-55.266
-41.898
-17.565
20.113
72.188
138.765
218.547
306.133
395.961
485.024
567.639
640.806
702.406
742.157
754.689
737.454
686.649
611.197
515.551
397.765
264.932
121.504
-17.387
-123.616
-183.297
-193.076
-163.698
-122.214
-86.279
-62.619
-51.253
-43.527
-35.129
-27.335
-21.927
-21.672
-26.609
-34.318
-42.298
-48.27
-51.276
-51.358
-48.866
-44.527
-39.139
-33.435
-28.23
-24.198
-21.61
-20.514
-20.783
-22.156
-24.409
-27.342
-30.72
-34.333
-38.027
-41.661
-45.126
-48.332
-51.167
-53.542
-55.409
-56.738
-57.527
-57.8
-57.585
-56.924
-55.873
-54.483
-52.802
-50.878
-48.757
-46.492
-44.143
-41.766
-39.416
-37.135
-34.948
-32.872
-30.915
-29.072
-27.335
-25.69
-24.116
-22.598
-21.125
-19.685
-18.268
-16.86
-15.446
-14.012
-12.543
-11.026
-9.45
-7.804
-6.081
-4.273
-2.375
-0.384
1.704
3.891
6.182
8.581
11.093
13.719
16.463
19.326
22.307
25.407
28.622
31.948
35.381
38.915
42.541
46.252
50.038
53.888
57.789
61.729
65.692
69.663
73.626
77.564
81.459
85.291
89.044
92.698
96.234
99.634
102.88
105.954
108.84
111.521
113.981
116.206
118.182
119.896
121.336
122.492
123.354
123.915
124.168
124.107
123.73
123.033
122.017
120.682
119.031
117.069
114.801
112.235
109.382
106.251
102.855
99.209
95.328
91.229
86.928
82.446
77.8
73.011
68.099
63.085
57.988
52.83
47.63
42.408
37.185
31.978
26.807
21.69
16.644
11.685
6.83
2.093
-2.513
-6.973
-11.277
-15.414
-19.375
-23.151
-26.735
-30.123
-33.311
-36.295
-39.074
-41.65
-44.023
-46.197
-48.175
-49.964
-51.569
-52.997
-54.255
-55.353
-56.297
-57.098
-57.763
-58.301
-58.721
-59.032
-59.243
-59.361
-59.394
-59.351
-59.239
-59.065
-58.836
-58.558
-58.238
-57.881
-57.492
-57.078
-56.642
-56.19
-55.724
-55.248
-54.764
-54.275
-53.781
-53.284
-52.783
-52.278
-51.768
-51.252
-50.728
-50.195
-49.653
-49.099
-48.533
-47.953
-47.36
-46.753
-46.132
-45.498
-44.852
-44.194
-43.526
-42.851
-42.169
-41.484
-40.798
-40.112
-39.428
-38.749
-38.076
-37.411
-36.755
-36.11
-35.477
-34.859
-34.257
-33.674
-33.113
-32.575
-32.063
-31.581
-31.131
-30.715
-30.335
-29.995
-29.695
-29.438
-29.224
-29.054
-28.929
-28.848
-28.811
-28.818
-28.866
-28.954
-29.081
-29.243
-29.441
-29.671
-29.934
-30.226
-30.548
-30.9
-31.28
-31.689
-32.126
-32.591
-33.083
-33.603
-34.148
-34.718
-35.311
-35.927
-36.563
-37.217
-37.888
-38.573
-39.27
-39.977
-40.69
-41.407
-42.126
-42.843
-43.558
-44.267
-44.969
-45.661
-46.341
-47.007
-47.656
-48.286
-48.891
-49.469
-50.015
-50.524
-50.99
-51.409
-51.775
-52.082
-52.325
-52.499
-52.599
-52.62
-52.558
-52.408
-52.167
-51.832
-51.401
-50.872
-50.246
-49.521
-48.699
-47.78
-46.768
-45.665
-44.473
-43.198
-41.842
-40.412
-38.912
-37.349
-35.731
-34.066
-32.365
-30.641
-28.906
-27.174
-25.46
-23.779
-22.148
-20.581
-19.092
-17.693
-16.397
-15.218
-14.17
-13.269
-12.526
-11.954
-11.562
-11.359
-11.355
-11.554
-11.956
-12.559
-13.363
-14.373
-15.598
-17.053
-18.74
-20.663
-22.82
-25.2
-27.793
-30.576
-33.514
-36.563
-39.681
-42.825
-45.963
-49.061
-52.076
-54.951
-57.614
-60.001
-62.06
-63.749
-65.038
-65.921
-66.406
-66.539
-66.395
-66.048
-65.596
-65.149
-64.819
-64.737
-65.031
-65.815
-67.253
-69.561
-72.827
-77
-81.864
-86.984
-91.964
-96.525
-100.273
-102.644
-103.29
-102.231
-99.963
-97.576
-96.026
-95.686
-96.847
-99.989
-105.271
-112.149
-119.105
-123.307
-121.83
-112.789
-94.304
-64.124
-20.284
38.78
111.446
192.229
276.138
358.908
440.888
527.174
616.159
701.063
767.993
795.536
773.183
700.447
584.555
443.893
294.586
150.749
28.894
-60.399
-112.694
-131.345
-130.328
-123.175
-117.116
-113.389
-106.896
-94.867
-79.605
-64.701
-54.424
-50.476
-51.546
-55.899
-61.818
-67.557
-71.714
-73.541
-72.794
-69.839
-65.495
-60.471
-55.32
-50.687
-47.194
-45.171
-44.736
-45.766
-47.948
-51.028
-54.806
-59.056
-63.562
-68.129
-72.576
-76.752
-80.545
-83.86
-86.628
-88.806
-90.375
-91.332
-91.697
-91.511
-90.83
-89.712
-88.212
-86.382
-84.27
-81.937
-79.452
-76.884
-74.301
-71.75
-69.265
-66.868
-64.576
-62.394
-60.322
-58.347
-56.451
-54.621
-52.848
-51.123
-49.442
-47.793
-46.162
-44.537
-42.905
-41.255
-39.577
-37.863
-36.104
-34.293
-32.426
-30.5
-28.512
-26.459
-24.334
-22.132
-19.848
-17.477
-15.013
-12.453
-9.793
-7.03
-4.163
-1.194
1.877
5.046
8.312
11.669
15.111
18.634
22.227
25.884
29.594
33.346
37.129
40.928
44.73
48.52
52.283
56.002
59.662
63.246
66.737
70.119
73.375
76.49
79.446
82.228
84.82
87.208
89.378
91.315
93.007
94.443
95.611
96.503
97.11
97.426
97.443
97.158
96.567
95.668
94.461
92.948
91.129
89.011
86.598
83.897
80.919
77.672
74.169
70.423
66.447
62.258
57.87
53.301
48.567
43.689
38.683
33.57
28.368
23.098
17.779
12.431
7.073
1.726
-3.592
-8.863
-14.067
-19.186
-24.205
-29.105
-33.871
-38.488
-42.942
-47.22
-51.309
-55.2
-58.882
-62.35
-65.595
-68.613
-71.402
-73.958
-76.281
-78.373
-80.234
-81.869
-83.281
-84.477
-85.462
-86.243
-86.83
-87.23
-87.453
-87.509
-87.408
-87.16
-86.775
-86.266
-85.642
-84.916
-84.097
-83.199
-82.231
-81.205
-80.133
-79.024
-77.89
-76.74
-75.584
-74.43
-73.286
-72.158
-71.054
-69.978
-68.935
-67.928
-66.96
-66.032
-65.145
-64.299
-63.493
-62.725
-61.994
-61.297
-60.63
-59.992
-59.377
-58.784
-58.207
-57.645
-57.094
-56.549
-56.008
-55.467
-54.923
-54.373
-53.813
-53.24
-52.652
-52.045
-51.418
-50.768
-50.095
-49.397
-48.673
-47.925
-47.152
-46.357
-45.542
-44.71
-43.864
-43.011
-42.154
-41.3
-40.455
-39.626
-38.821
-38.045
-37.307
-36.612
-35.969
-35.384
-34.862
-34.41
-34.033
-33.735
-33.522
-33.398
-33.366
-33.429
-33.59
-33.851
-34.214
-34.679
-35.247
-35.916
-36.688
-37.558
-38.525
-39.586
-40.735
-41.967
-43.276
-44.653
-46.091
-47.58
-49.108
-50.666
-52.241
-53.82
-55.393
-56.945
-58.465
-59.939
-61.356
-62.704
-63.97
-65.144
-66.215
-67.174
-68.01
-68.716
-69.284
-69.707
-69.978
-70.094
-70.049
-69.84
-69.464
-68.921
-68.21
-67.332
-66.29
-65.087
-63.729
-62.222
-60.576
-58.8
-56.906
-54.909
-52.823
-50.665
-48.452
-46.204
-43.939
-41.678
-39.437
-37.236
-35.092
-33.023
-31.046
-29.179
-27.439
-25.843
-24.407
-23.147
-22.075
-21.202
-20.535
-20.077
-19.834
-19.808
-20.009
-20.445
-21.119
-22.038
-23.205
-24.614
-26.259
-28.115
-30.146
-32.318
-34.59
-36.925
-39.295
-41.667
-44.005
-46.273
-48.421
-50.394
-52.152
-53.641
-54.818
-55.653
-56.135
-56.297
-56.212
-55.953
-55.589
-55.167
-54.724
-54.34
-54.098
-54.088
-54.432
-55.198
-56.493
-58.525
-61.339
-64.827
-68.728
-72.462
-75.431
-77.275
-77.475
-75.435
-71.122
-64.78
-57.152
-49.833
-44.02
-40.349
-39.706
-42.677
-48.762
-56.881
-64.74
-68.542
-65.241
-52.385
-27.114
12.695
67.838
137.981
220.591
311.013
404.837
497.077
581.38
651.572
701.868
729.154
734.199
718.423
681.866
620.972
530.808
413.242
280.008
152.599
54.032
-3.666
-23.625
-22.316
-17.296
-17.788
-23.853
-28.124
-25.941
-18.528
-9.359
-3.18
-2.082
-5.054
-10.636
-17.373
-23.804
-28.71
-31.405
-31.593
-29.503
-25.828
-21.187
-16.071
-11.087
-6.872
-3.792
-2.028
-1.54
-2.09
-3.498
-5.617
-8.262
-11.238
-14.372
-17.518
-20.557
-23.404
-25.956
-28.1
-29.759
-30.885
-31.462
-31.501
-31.025
-30.068
-28.681
-26.925
-24.862
-22.55
-20.049
-17.411
-14.698
-11.969
-9.281
-6.688
-4.226
-1.919
0.218
2.182
3.975
5.607
7.091
8.446
9.685
10.821
11.868
12.841
13.757
14.636
15.499
16.366
17.257
18.192
19.19
20.265
21.429
22.693
24.067
25.565
27.203
28.996
30.951
33.076
35.376
37.85
40.498
43.31
46.264
49.338
52.511
55.768
59.109
62.529
66.021
69.578
73.188
76.851
80.584
84.394
88.288
92.272
96.349
100.541
104.886
109.415
114.153
119.106
124.255
129.579
135.056
140.65
146.325
152.014
157.616
163.039
168.196
173.004
177.398
181.292
184.582
187.18
189.009
190.012
190.168
189.457
187.865
185.399
182.069
177.939
173.124
167.739
161.908
155.742
149.324
142.753
136.14
129.582
123.167
116.966
111.026
105.401
100.144
95.301
90.922
87.002
83.489
80.318
77.404
74.681
72.115
69.662
67.275
64.922
62.575
60.217
57.851
55.464
53.033
50.529
47.912
45.174
42.343
39.457
36.573
33.733
30.96
28.277
25.708
23.268
20.962
18.787
16.728
14.779
12.946
11.242
9.689
8.295
7.054
5.952
4.967
4.081
3.283
2.559
1.895
1.281
0.712
0.19
-0.276
-0.682
-1.031
-1.326
-1.573
-1.778
-1.941
-2.061
-2.139
-2.172
-2.158
-2.096
-1.978
-1.805
-1.573
-1.284
-0.941
-0.548
-0.105
0.385
0.92
1.499
2.119
2.78
3.48
4.22
4.997
5.81
6.657
7.537
8.447
9.386
10.352
11.344
12.358
13.394
14.45
15.523
16.611
17.711
18.82
19.935
21.052
22.166
23.275
24.373
25.456
26.521
27.563
28.579
29.565
30.517
31.432
32.305
33.133
33.912
34.636
35.3
35.901
36.433
36.891
37.271
37.567
37.775
37.889
37.906
37.821
37.629
37.328
36.913
36.382
35.733
34.966
34.079
33.073
31.949
30.709
29.354
27.887
26.312
24.633
22.853
20.978
19.014
16.966
14.841
12.648
10.396
8.092
5.747
3.372
0.976
-1.428
-3.83
-6.217
-8.577
-10.898
-13.166
-15.371
-17.498
-19.536
-21.473
-23.299
-25.005
-26.581
-28.019
-29.312
-30.456
-31.445
-32.275
-32.945
-33.454
-33.8
-33.986
-34.015
-33.89
-33.618
-33.206
-32.661
-31.996
-31.223
-30.357
-29.413
-28.408
-27.361
-26.291
-25.218
-24.162
-23.14
-22.173
-21.278
-20.476
-19.786
-19.228
-18.822
-18.585
-18.532
-18.679
-19.034
-19.604
-20.391
-21.398
-22.627
-24.087
-25.786
-27.732
-29.934
-32.396
-35.116
-38.084
-41.279
-44.668
-48.218
-51.891
-55.652
-59.472
-63.318
-67.157
-70.951
-74.644
-78.177
-81.489
-84.515
-87.193
-89.486
-91.386
-92.918
-94.141
-95.113
-95.867
-96.457
-96.949
-97.426
-97.985
-98.736
-99.772
-101.234
-103.375
-106.342
-110.11
-114.458
-118.824
-122.556
-125.131
-125.951
-124.29
-119.855
-112.914
-104.306
-95.844
-89.508
-86.739
-88.916
-97.219
-111.651
-130.849
-152.265
-171.636
-183.762
-183.866
-167.533
-130.504
-71.577
6.572
102.105
211.96
332.771
464.155
596.957
714.522
801.044
840.936
832.319
786.327
714.401
625.129
516.5
385.263
236.507
86.006
-38.466
-118.206
-149.675
-142.962
-121.353
-101.013
-87.941
-82.146
-77.471
-71.703
-66.678
-64.492
-67.855
-76.604
-88.373
-100.766
-111.006
-117.638
-120.522
-119.73
-115.944
-110.085
-102.961
-95.61
-89.077
-83.895
-80.277
-78.25
-77.597
-78.15
-79.785
-82.27
-85.371
-88.907
-92.711
-96.677
-100.709
-104.663
-108.371
-111.674
-114.451
-116.65
-118.255
-119.272
-119.717
-119.612
-118.999
-117.936
-116.472
-114.652
-112.513
-110.084
-107.417
-104.574
-101.626
-98.651
-95.709
-92.836
-90.064
-87.402
-84.853
-82.422
-80.098
-77.868
-75.74
-73.732
-71.88
-70.234
-68.813
-67.619
-66.642
-65.842
-65.178
-64.6
-64.035
-63.431
-62.744
-61.931
-60.966
-59.827
-58.467
-56.835
-54.859
-52.454
-49.565
-46.159
-42.214
-37.75
-32.799
-27.414
-21.687
-15.697
-9.503
-3.165
3.281
9.799
16.334
22.827
29.21
35.396
41.32
46.928
52.168
57.019
61.476
65.551
69.288
72.725
75.879
78.758
81.351
83.646
85.65
87.37
88.815
90.007
90.961
91.695
92.237
92.596
92.767
92.726
92.424
91.824
90.911
89.68
88.149
86.328
84.213
81.803
79.099
76.099
72.802
69.196
65.245
60.942
56.306
51.382
46.251
40.977
35.599
30.15
24.647
19.119
13.609
8.153
2.777
-2.482
-7.59
-12.489
-17.094
-21.356
-25.263
-28.833
-32.129
-35.19
-38.035
-40.681
-43.141
-45.433
-47.583
-49.603
-51.492
-53.263
-54.934
-56.548
-58.168
-59.83
-61.538
-63.278
-65.004
-66.687
-68.31
-69.854
-71.299
-72.625
-73.824
-74.898
-75.864
-76.727
-77.484
-78.123
-78.62
-78.97
-79.168
-79.219
-79.14
-78.938
-78.628
-78.228
-77.757
-77.23
-76.649
-76.003
-75.287
-74.498
-73.63
-72.683
-71.651
-70.524
-69.32
-68.057
-66.749
-65.413
-64.049
-62.653
-61.231
-59.785
-58.327
-56.875
-55.434
-54.007
-52.616
-51.276
-50.012
-48.852
-47.781
-46.778
-45.837
-44.941
-44.093
-43.299
-42.549
-41.835
-41.156
-40.506
-39.89
-39.312
-38.757
-38.213
-37.665
-37.09
-36.506
-35.927
-35.358
-34.809
-34.281
-33.77
-33.288
-32.844
-32.435
-32.058
-31.71
-31.385
-31.09
-30.833
-30.619
-30.454
-30.332
-30.243
-30.188
-30.16
-30.159
-30.184
-30.229
-30.287
-30.362
-30.459
-30.578
-30.723
-30.892
-31.083
-31.298
-31.535
-31.796
-32.082
-32.394
-32.732
-33.097
-33.49
-33.912
-34.361
-34.837
-35.336
-35.855
-36.39
-36.938
-37.494
-38.057
-38.621
-39.187
-39.75
-40.311
-40.867
-41.419
-41.965
-42.502
-43.027
-43.535
-44.02
-44.477
-44.899
-45.28
-45.611
-45.885
-46.096
-46.242
-46.317
-46.316
-46.229
-46.045
-45.756
-45.361
-44.861
-44.258
-43.557
-42.764
-41.899
-40.988
-40.055
-39.118
-38.18
-37.235
-36.281
-35.315
-34.34
-33.356
-32.352
-31.312
-30.227
-29.095
-27.911
-26.661
-25.31
-23.801
-22.09
-20.159
-18.013
-15.679
-13.181
-10.554
-7.841
-5.102
-2.42
0.129
2.489
4.621
6.488
8.04
9.197
9.848
9.907
9.32
8.059
6.119
3.502
0.232
-3.634
-7.996
-12.723
-17.697
-22.828
-28.046
-33.286
-38.462
-43.463
-48.149
-52.4
-56.123
-59.242
-61.693
-63.431
-64.456
-64.816
-64.634
-64.05
-63.171
-62.108
-60.96
-59.849
-58.926
-58.349
-58.274
-58.876
-60.393
-62.959
-66.545
-70.924
-75.599
-80.004
-83.66
-86.036
-86.445
-84.482
-80.3
-74.579
-68.725
-64.293
-62.2
-63.177
-68.155
-77.424
-90.107
-104.215
-116.14
-121.517
-117.105
-100.148
-67.312
-15.994
54.892
144.829
248.93
358.982
468.577
572.398
668.249
756.633
832.732
887.993
910.696
888.291
817.973
703.45
553.273
383.757
210.005
50.405
-72.302
-147.297
-173.446
-161.868
-136.905
-114.663
-101.894
-98.265
-95.092
-89.167
-82.52
-77.418
-77.431
-82.846
-90.936
-99.431
-106.168
-109.488
-109.074
-105.131
-98.104
-88.983
-78.863
-68.611
-59.06
-50.961
-44.659
-40.306
-37.956
-37.439
-38.578
-41.222
-45.121
-50.033
-55.759
-62.057
-68.691
-75.424
-81.967
-88.102
-93.694
-98.625
-102.828
-106.241
-108.778
-110.408
-111.15
-111.028
-110.092
-108.396
-105.989
-102.968
-99.46
-95.602
-91.542
-87.381
-83.172
-78.965
-74.792
-70.686
-66.688
-62.809
-59.037
-55.377
-51.848
-48.475
-45.301
-42.341
-39.595
-37.065
-34.757
-32.69
-30.89
-29.374
-28.148
-27.214
-26.571
-26.225
-26.187
-26.426
-26.88
-27.462
-28.056
-28.558
-28.875
-28.895
-28.506
-27.607
-26.104
-23.936
-21.06
-17.434
-13.025
-7.794
-1.707
5.213
12.899
21.251
30.119
39.36
48.829
58.351
67.763
76.921
85.691
93.978
101.711
108.802
115.169
120.719
125.358
129.043
131.767
133.551
134.468
134.594
134.013
132.847
131.202
129.159
126.793
124.142
121.229
118.098
114.794
111.37
107.894
104.41
100.939
97.501
94.079
90.65
87.184
83.62
79.911
76.033
71.972
67.734
63.341
58.8
54.123
49.325
44.404
39.368
34.228
28.992
23.68
18.322
12.952
7.617
2.363
-2.779
-7.782
-12.626
-17.3
-21.792
-26.091
-30.197
-34.102
-37.798
-41.281
-44.54
-47.569
-50.369
-52.941
-55.29
-57.424
-59.35
-61.075
-62.607
-63.952
-65.117
-66.11
-66.934
-67.595
-68.102
-68.462
-68.685
-68.782
-68.761
-68.632
-68.408
-68.097
-67.709
-67.255
-66.741
-66.177
-65.57
-64.927
-64.255
-63.559
-62.847
-62.123
-61.392
-60.659
-59.929
-59.205
-58.491
-57.789
-57.101
-56.428
-55.773
-55.135
-54.515
-53.913
-53.329
-52.763
-52.215
-51.683
-51.168
-50.669
-50.183
-49.709
-49.246
-48.791
-48.343
-47.9
-47.46
-47.024
-46.591
-46.16
-45.732
-45.308
-44.888
-44.474
-44.066
-43.664
-43.271
-42.886
-42.511
-42.146
-41.793
-41.452
-41.125
-40.813
-40.518
-40.239
-39.978
-39.736
-39.513
-39.31
-39.129
-38.97
-38.834
-38.724
-38.64
-38.585
-38.56
-38.567
-38.606
-38.68
-38.787
-38.929
-39.104
-39.312
-39.553
-39.825
-40.127
-40.459
-40.818
-41.205
-41.617
-42.055
-42.516
-42.999
-43.504
-44.03
-44.575
-45.139
-45.721
-46.32
-46.936
-47.568
-48.215
-48.875
-49.547
-50.227
-50.914
-51.603
-52.291
-52.974
-53.65
-54.313
-54.961
-55.589
-56.196
-56.777
-57.329
-57.85
-58.336
-58.784
-59.191
-59.553
-59.868
-60.131
-60.34
-60.491
-60.582
-60.608
-60.566
-60.453
-60.264
-59.997
-59.646
-59.21
-58.684
-58.066
-57.355
-56.55
-55.65
-54.657
-53.571
-52.396
-51.134
-49.788
-48.363
-46.862
-45.291
-43.655
-41.961
-40.214
-38.422
-36.593
-34.734
-32.856
-30.969
-29.084
-27.212
-25.366
-23.559
-21.804
-20.114
-18.501
-16.976
-15.552
-14.237
-13.043
-11.982
-11.064
-10.3
-9.698
-9.266
-9.008
-8.929
-9.025
-9.292
-9.725
-10.32
-11.079
-12.005
-13.1
-14.367
-15.805
-17.411
-19.173
-21.07
-23.07
-25.136
-27.233
-29.324
-31.382
-33.378
-35.28
-37.052
-38.646
-40.013
-41.102
-41.866
-42.253
-42.235
-41.825
-41.062
-40.024
-38.787
-37.401
-35.932
-34.477
-33.13
-31.973
-31.109
-30.609
-30.595
-31.338
-32.982
-35.469
-38.615
-41.974
-44.975
-47.173
-48.007
-46.637
-42.652
-36.301
-28.169
-19.48
-12.018
-7.341
-6.728
-11.894
-22.222
-33.821
-44.889
-53.897
-60.536
-68.921
-74.15
-63.395
-24.819
53.204
166.661
297.687
430.03
552.114
665.222
773.346
871.434
945.378
972.127
938.222
846.245
707.48
540.695
363.128
186.756
28.07
-92.672
-164.05
-182.812
-158.926
-116.742
-73.674
-38.975
-15.259
4.749
24.199
41.067
52.602
54.231
45.276
29.327
10.755
-6.434
-20.128
-29.767
-34.976
-35.41
-31.306
-23.841
-15.02
-6.641
0.377
5.73
9.367
11.162
10.995
9.098
6.096
2.606
-0.999
-4.559
-8.049
-11.381
-14.372
-16.876
-18.851
-20.299
-21.237
-21.666
-21.553
-20.882
-19.685
-18.015
-15.937
-13.512
-10.793
-7.829
-4.679
-1.408
1.92
5.242
8.509
11.69
14.765
17.725
20.565
23.285
25.891
28.398
30.822
33.18
35.483
37.744
39.976
42.196
44.423
46.673
48.96
51.296
53.691
56.152
58.686
61.302
64.01
66.819
69.74
72.779
75.938
79.219
82.613
86.11
89.695
93.35
97.065
100.83
104.646
108.522
112.465
116.485
120.584
124.751
128.977
133.253
137.577
141.945
146.368
150.863
155.455
160.172
165.03
170.028
175.145
180.336
185.545
190.702
195.752
200.651
205.363
209.852
214.086
218.027
221.629
224.839
227.592
229.811
231.439
232.44
232.804
232.557
231.743
230.434
228.688
226.554
224.075
221.285
218.214
214.894
211.363
207.658
203.835
199.964
196.101
192.296
188.572
184.932
181.358
177.815
174.271
170.703
167.093
163.436
159.73
155.977
152.182
148.351
144.481
140.558
136.573
132.512
128.377
124.176
119.927
115.654
111.381
107.128
102.913
98.744
94.627
90.564
86.551
82.582
78.652
74.762
70.912
67.104
63.34
59.617
55.933
52.284
48.667
45.077
41.511
37.968
34.447
30.949
27.478
24.038
20.633
17.267
13.945
10.668
7.439
4.262
1.139
-1.928
-4.936
-7.882
-10.763
-13.574
-16.311
-18.97
-21.546
-24.035
-26.433
-28.734
-30.936
-33.033
-35.024
-36.904
-38.672
-40.325
-41.862
-43.28
-44.58
-45.762
-46.825
-47.771
-48.602
-49.32
-49.928
-50.428
-50.826
-51.123
-51.325
-51.437
-51.461
-51.403
-51.268
-51.06
-50.786
-50.451
-50.06
-49.621
-49.14
-48.623
-48.077
-47.51
-46.926
-46.334
-45.74
-45.15
-44.569
-44.005
-43.461
-42.944
-42.457
-42.006
-41.593
-41.222
-40.895
-40.615
-40.384
-40.201
-40.069
-39.987
-39.956
-39.975
-40.043
-40.161
-40.325
-40.537
-40.792
-41.091
-41.431
-41.808
-42.222
-42.669
-43.147
-43.651
-44.18
-44.731
-45.299
-45.883
-46.479
-47.084
-47.696
-48.311
-48.927
-49.543
-50.155
-50.763
-51.366
-51.961
-52.549
-53.13
-53.703
-54.269
-54.829
-55.382
-55.929
-56.472
-57.011
-57.546
-58.079
-58.61
-59.139
-59.668
-60.197
-60.725
-61.253
-61.781
-62.308
-62.834
-63.359
-63.88
-64.397
-64.908
-65.412
-65.907
-66.392
-66.864
-67.321
-67.761
-68.179
-68.573
-68.94
-69.274
-69.573
-69.831
-70.045
-70.21
-70.322
-70.377
-70.371
-70.302
-70.165
-69.958
-69.68
-69.329
-68.903
-68.405
-67.833
-67.191
-66.48
-65.705
-64.87
-63.981
-63.045
-62.069
-61.064
-60.037
-59
-57.963
-56.938
-55.935
-54.965
-54.039
-53.168
-52.363
-51.636
-50.999
-50.467
-50.052
-49.765
-49.617
-49.617
-49.769
-50.077
-50.545
-51.174
-51.973
-52.948
-54.104
-55.448
-56.985
-58.714
-60.631
-62.715
-64.939
-67.273
-69.685
-72.144
-74.628
-77.107
-79.551
-81.931
-84.2
-86.316
-88.239
-89.919
-91.313
-92.389
-93.131
-93.574
-93.785
-93.832
-93.778
-93.662
-93.524
-93.449
-93.536
-93.887
-94.618
-95.793
-97.52
-100.025
-103.397
-107.548
-112.195
-116.709
-120.458
-123.045
-123.972
-122.626
-118.818
-112.749
-105.229
-97.989
-92.586
-89.98
-91.147
-96.854
-106.979
-120.497
-134.995
-146.442
-150.976
-145.21
-125.493
-88.615
-32.454
41.945
129.842
225.425
323.98
425.427
531.543
638.004
732.821
797.352
814.365
777.97
696.163
584.165
453.211
312.509
167.93
28.057
-86.458
-161.598
-193.277
-187.528
-165.571
-142.74
-124.83
-112.785
-100.718
-86.769
-73.593
-63.971
-61.15
-65.754
-76.079
-89.57
-103.218
-114.923
-123.697
-129.109
-131.455
-131.077
-128.257
-124.128
-119.854
-116.23
-113.857
-112.808
-112.853
-113.945
-116.04
-118.733
-121.673
-124.574
-127.141
-129.357
-131.233
-132.678
-133.625
-134.025
-133.84
-133.094
-131.828
-130.049
-127.806
-125.176
-122.259
-119.212
-116.148
-113.15
-110.296
-107.614
-105.127
-102.85
-100.756
-98.833
-97.076
-95.467
-93.998
-92.659
-91.413
-90.219
-89.023
-87.741
-86.314
-84.701
-82.862
-80.794
-78.505
-76.015
-73.376
-70.635
-67.816
-64.943
-62.023
-59.057
-56.054
-53.023
-49.968
-46.908
-43.856
-40.819
-37.809
-34.823
-31.849
-28.87
-25.855
-22.776
-19.616
-16.364
-13.016
-9.576
-6.045
-2.431
1.252
4.992
8.782
12.611
16.472
20.354
24.241
28.118
31.965
35.762
39.491
43.134
46.672
50.089
53.371
56.502
59.47
62.263
64.865
67.264
69.443
71.388
73.088
74.528
75.698
76.586
77.187
77.492
77.499
77.206
76.611
75.716
74.525
73.04
71.268
69.213
66.884
64.289
61.439
58.343
55.014
51.467
47.718
43.786
39.69
35.448
31.08
26.603
22.04
17.409
12.731
8.024
3.307
-1.398
-6.065
-10.666
-15.175
-19.578
-23.861
-28.021
-32.049
-35.937
-39.681
-43.286
-46.748
-50.06
-53.204
-56.148
-58.873
-61.37
-63.639
-65.693
-67.534
-69.149
-70.528
-71.656
-72.518
-73.106
-73.399
-73.357
-72.969
-72.244
-71.218
-69.961
-68.526
-66.943
-65.239
-63.425
-61.527
-59.586
-57.637
-55.708
-53.837
-52.059
-50.431
-49.036
-47.92
-47.094
-46.539
-46.191
-46.009
-45.976
-46.07
-46.281
-46.591
-46.972
-47.41
-47.906
-48.444
-49.004
-49.544
-49.997
-50.326
-50.525
-50.605
-50.611
-50.569
-50.49
-50.389
-50.279
-50.172
-50.077
-49.991
-49.894
-49.78
-49.649
-49.512
-49.396
-49.312
-49.255
-49.217
-49.176
-49.117
-49.031
-48.906
-48.727
-48.486
-48.176
-47.801
-47.372
-46.896
-46.375
-45.811
-45.2
-44.544
-43.847
-43.113
-42.347
-41.554
-40.741
-39.914
-39.08
-38.249
-37.423
-36.608
-35.803
-35.011
-34.235
-33.476
-32.738
-32.022
-31.331
-30.666
-30.032
-29.431
-28.865
-28.337
-27.847
-27.396
-26.985
-26.615
-26.285
-25.994
-25.742
-25.527
-25.35
-25.207
-25.098
-25.021
-24.975
-24.958
-24.968
-25.003
-25.06
-25.139
-25.236
-25.351
-25.482
-25.628
-25.788
-25.962
-26.149
-26.348
-26.56
-26.784
-27.017
-27.261
-27.513
-27.772
-28.038
-28.31
-28.586
-28.867
-29.15
-29.437
-29.726
-30.017
-30.309
-30.601
-30.893
-31.183
-31.472
-31.759
-32.042
-32.321
-32.594
-32.861
-33.12
-33.368
-33.603
-33.822
-34.023
-34.201
-34.354
-34.477
-34.566
-34.62
-34.632
-34.601
-34.523
-34.395
-34.214
-33.976
-33.678
-33.319
-32.896
-32.407
-31.851
-31.225
-30.529
-29.762
-28.924
-28.016
-27.037
-25.988
-24.871
-23.69
-22.445
-21.141
-19.783
-18.375
-16.926
-15.444
-13.939
-12.423
-10.905
-9.4
-7.918
-6.473
-5.075
-3.735
-2.461
-1.264
-0.154
0.856
1.755
2.532
3.176
3.68
4.036
4.239
4.289
4.186
3.932
3.524
2.952
2.207
1.28
0.163
-1.145
-2.642
-4.314
-6.137
-8.078
-10.098
-12.16
-14.231
-16.283
-18.285
-20.21
-22.015
-23.646
-25.049
-26.168
-26.96
-27.383
-27.424
-27.105
-26.48
-25.638
-24.665
-23.619
-22.567
-21.599
-20.821
-20.352
-20.328
-20.838
-22.023
-24.124
-27.231
-31.266
-35.941
-40.611
-44.614
-47.487
-48.686
-47.576
-43.98
-38.123
-30.812
-23.827
-18.804
-16.752
-18.618
-25.038
-35.69
-49.417
-63.817
-74.693
-77.817
-69.664
-46.81
-6.574
52.407
130.06
224.226
330.009
441.367
551.953
654.513
741.593
806.245
842.638
848.452
825.602
776.965
705.156
609.823
489.15
347.694
198.254
61.154
-42.517
-100.839
-117.315
-105.424
-79.599
-54.791
-35.674
-21.932
-16.799
-15.614
-16.307
-19.481
-20.802
-22.299
-25.978
-30.232
-35.226
-38.912
-39.28
-36.791
-32.037
-25.954
-19.588
-13.572
-8.534
-4.924
-2.92
-2.462
-3.276
-5.15
-7.907
-11.339
-15.244
-19.412
-23.662
-27.856
-31.89
-35.637
-38.96
-41.761
-43.978
-45.587
-46.601
-47.043
-46.95
-46.367
-45.359
-43.982
-42.292
-40.349
-38.204
-35.92
-33.562
-31.19
-28.86
-26.614
-24.478
-22.464
-20.576
-18.806
-17.143
-15.571
-14.068
-12.619
-11.211
-9.829
-8.461
-7.095
-5.714
-4.303
-2.847
-1.333
0.252
1.917
3.67
5.519
7.468
9.522
11.683
13.955
16.342
18.847
21.473
24.222
27.095
30.091
33.208
36.445
39.796
43.256
46.817
50.471
54.209
58.022
61.898
65.825
69.791
73.781
77.782
81.778
85.753
89.691
93.575
97.388
101.111
104.728
108.221
111.573
114.766
117.784
120.612
123.234
125.637
127.807
129.733
131.404
132.811
133.945
134.799
135.369
135.651
135.641
135.34
134.747
133.863
132.693
131.239
129.507
127.504
125.237
122.716
119.949
116.947
113.724
110.292
106.665
102.857
98.885
94.765
90.513
86.148
81.686
77.146
72.545
67.902
63.234
58.559
53.893
49.254
44.656
40.115
35.646
31.262
26.975
22.799
18.744
14.82
11.036
7.403
3.926
0.612
-2.532
-5.501
-8.292
-10.901
-13.327
-15.568
-17.624
-19.496
-21.185
-22.695
-24.028
-25.191
-26.187
-27.023
-27.706
-28.243
-28.642
-28.911
-29.058
-29.092
-29.021
-28.854
-28.6
-28.267
-27.863
-27.396
-26.875
-26.306
-25.699
-25.059
-24.393
-23.709
-23.012
-22.309
-21.606
-20.908
-20.22
-19.549
-18.899
-18.274
-17.677
-17.113
-16.584
-16.092
-15.64
-15.227
-14.857
-14.528
-14.241
-13.996
-13.793
-13.63
-13.506
-13.422
-13.374
-13.363
-13.387
-13.444
-13.534
-13.656
-13.808
-13.99
-14.201
-14.44
-14.707
-14.999
-15.317
-15.658
-16.022
-16.407
-16.811
-17.233
-17.671
-18.124
-18.591
-19.07
-19.561
-20.062
-20.574
-21.095
-21.624
-22.162
-22.708
-23.262
-23.823
-24.393
-24.97
-25.555
-26.147
-26.746
-27.352
-27.963
-28.579
-29.198
-29.82
-30.441
-31.063
-31.682
-32.299
-32.912
-33.519
-34.121
-34.717
-35.305
-35.885
-36.456
-37.018
-37.57
-38.11
-38.638
-39.153
-39.655
-40.142
-40.614
-41.069
-41.508
-41.928
-42.329
-42.71
-43.071
-43.411
-43.729
-44.027
-44.304
-44.561
-44.799
-45.02
-45.224
-45.413
-45.588
-45.751
-45.903
-46.046
-46.18
-46.309
-46.432
-46.552
-46.671
-46.79
-46.911
-47.035
-47.164
-47.301
-47.445
-47.6
-47.765
-47.943
-48.134
-48.34
-48.56
-48.796
-49.047
-49.314
-49.596
-49.892
-50.2
-50.52
-50.848
-51.183
-51.522
-51.861
-52.197
-52.526
-52.846
-53.151
-53.438
-53.702
-53.939
-54.145
-54.314
-54.442
-54.523
-54.553
-54.527
-54.44
-54.286
-54.063
-53.765
-53.39
-52.934
-52.394
-51.769
-51.056
-50.256
-49.367
-48.389
-47.325
-46.176
-44.945
-43.635
-42.252
-40.8
-39.288
-37.724
-36.119
-34.484
-32.829
-31.168
-29.514
-27.879
-26.276
-24.716
-23.211
-21.772
-20.414
-19.149
-17.993
-16.959
-16.061
-15.31
-14.717
-14.293
-14.039
-13.96
-14.057
-14.336
-14.81
-15.492
-16.391
-17.517
-18.874
-20.459
-22.263
-24.264
-26.425
-28.706
-31.067
-33.466
-35.873
-38.254
-40.572
-42.784
-44.83
-46.648
-48.19
-49.407
-50.257
-50.728
-50.839
-50.638
-50.227
-49.704
-49.152
-48.67
-48.357
-48.326
-48.714
-49.645
-51.23
-53.62
-57.007
-61.494
-67.03
-73.351
-79.932
-86.205
-91.674
-95.801
-97.922
-97.59
-94.844
-90.286
-85.155
-80.785
-77.997
-77.443
-79.979
-85.97
-94.695
-104.272
-111.458
-112.594
-104.931
-85.806
-51.91
-0.527
69.75
156.774
254.471
356.837
458.094
557.075
656.688
753.126
840.366
905.494
926.06
891.067
796.846
649.641
475.456
299.609
145.782
33.127
-36.552
-70.118
-81.253
-83.904
-84.108
-82.92
-76.376
-62.845
-45.869
-29.739
-19.447
-17.462
-22.657
-32.997
-46.244
-59.887
-71.727
-80.539
-85.719
-87.293
-85.968
-82.518
-77.646
-72.313
-67.524
-63.801
-61.366
-60.182
-59.949
-60.482
-61.682
-63.37
-65.371
-67.546
-69.759
-71.934
-74.047
-76.023
-77.765
-79.194
-80.234
-80.879
-81.184
-81.2
-80.978
-80.545
-79.905
-79.06
-78
-76.725
-75.247
-73.582
-71.752
-69.788
-67.728
-65.601
-63.437
-61.228
-58.933
-56.518
-53.95
-51.218
-48.33
-45.309
-42.186
-38.994
-35.76
-32.507
-29.247
-25.985
-22.72
-19.445
-16.156
-12.858
-9.567
-6.299
-3.067
0.126
3.284
6.42
9.554
12.704
15.891
19.128
22.425
25.787
29.213
32.7
36.241
39.831
43.467
47.147
50.866
54.62
58.4
62.197
65.996
69.784
73.545
77.267
80.936
84.54
88.067
91.508
94.852
98.092
101.215
104.21
107.061
109.753
112.272
114.607
116.744
118.673
120.381
121.858
123.096
124.091
124.836
125.322
125.537
125.469
125.113
124.473
123.558
122.376
120.933
119.237
117.302
115.147
112.783
110.216
107.435
104.43
101.202
97.762
94.134
90.34
86.391
82.286
78.022
73.604
69.04
64.332
59.466
54.422
49.201
43.835
38.386
32.914
27.46
22.049
16.694
11.412
6.236
1.201
-3.659
-8.325
-12.774
-16.969
-20.852
-24.359
-27.456
-30.158
-32.513
-34.567
-36.346
-37.863
-39.124
-40.149
-40.965
-41.593
-42.044
-42.323
-42.443
-42.436
-42.356
-42.261
-42.183
-42.119
-42.042
-41.93
-41.777
-41.585
-41.352
-41.072
-40.736
-40.349
-39.929
-39.494
-39.057
-38.613
-38.15
-37.652
-37.119
-36.563
-36.004
-35.458
-34.938
-34.45
-34.007
-33.622
-33.304
-33.056
-32.868
-32.732
-32.644
-32.603
-32.611
-32.668
-32.77
-32.912
-33.087
-33.29
-33.516
-33.758
-34.008
-34.258
-34.502
-34.734
-34.954
-35.158
-35.343
-35.507
-35.647
-35.759
-35.844
-35.897
-35.917
-35.901
-35.846
-35.753
-35.621
-35.45
-35.24
-34.991
-34.707
-34.388
-34.038
-33.66
-33.256
-32.831
-32.39
-31.935
-31.474
-31.009
-30.546
-30.091
-29.649
-29.225
-28.825
-28.452
-28.112
-27.809
-27.547
-27.331
-27.162
-27.046
-26.984
-26.98
-27.036
-27.156
-27.341
-27.592
-27.913
-28.302
-28.761
-29.289
-29.887
-30.552
-31.284
-32.079
-32.936
-33.851
-34.822
-35.843
-36.909
-38.017
-39.161
-40.335
-41.533
-42.751
-43.982
-45.221
-46.462
-47.701
-48.932
-50.15
-51.349
-52.525
-53.672
-54.786
-55.862
-56.895
-57.882
-58.818
-59.7
-60.526
-61.293
-62
-62.645
-63.226
-63.744
-64.197
-64.587
-64.914
-65.179
-65.385
-65.534
-65.631
-65.677
-65.676
-65.632
-65.548
-65.426
-65.27
-65.08
-64.859
-64.609
-64.332
-64.031
-63.708
-63.368
-63.013
-62.649
-62.279
-61.907
-61.532
-61.156
-60.776
-60.392
-60.002
-59.601
-59.187
-58.754
-58.302
-57.829
-57.335
-56.817
-56.267
-55.675
-55.036
-54.348
-53.613
-52.832
-52.008
-51.148
-50.269
-49.397
-48.558
-47.767
-47.032
-46.349
-45.718
-45.141
-44.62
-44.156
-43.736
-43.344
-42.969
-42.604
-42.244
-41.871
-41.45
-40.926
-40.255
-39.419
-38.421
-37.281
-36.015
-34.647
-33.208
-31.75
-30.348
-29.079
-28
-27.151
-26.575
-26.326
-26.477
-27.119
-28.306
-30.05
-32.341
-35.147
-38.44
-42.181
-46.304
-50.708
-55.262
-59.84
-64.343
-68.692
-72.807
-76.603
-79.988
-82.882
-85.278
-87.222
-88.775
-90.004
-90.948
-91.664
-92.27
-92.92
-93.795
-95.067
-96.841
-99.239
-102.477
-106.646
-111.683
-117.345
-123.046
-128.153
-132.234
-134.787
-135.18
-133.127
-128.675
-122.325
-115.456
-109.463
-105.157
-103.295
-104.604
-109.125
-116.193
-124.185
-129.737
-129.02
-119.116
-97.374
-60.969
-7.768
63.023
150.889
251.075
355.367
458.82
557.333
647.683
730.738
798.925
839.784
845.335
805.195
719.742
599.265
450.781
288.374
127.232
-18.916
-132.801
-205.732
-239.666
-244.657
-234.102
-216.602
-194.671
-166.001
-129.974
-90.54
-53.275
-24.203
-6.86
-1.25
-5.757
-17.806
-34.334
-52.07
-68.123
-80.472
-87.695
-89.292
-85.549
-77.164
-65.406
-52.027
-38.686
-26.531
-16.382
-8.652
-3.423
-0.661
-0.09
-1.178
-3.337
-6.156
-9.382
-12.874
-16.577
-20.4
-24.263
-28.149
-32.061
-35.955
-39.731
-43.235
-46.306
-48.847
-50.815
-52.198
-53.002
-53.237
-52.921
-52.097
-50.828
-49.166
-47.15
-44.806
-42.16
-39.256
-36.159
-32.953
-29.707
-26.465
-23.258
-20.101
-17.005
-13.976
-11.01
-8.087
-5.183
-2.28
0.632
3.556
6.499
9.479
12.516
15.642
18.875
22.228
25.71
29.324
33.073
36.955
40.963
45.079
49.29
53.583
57.946
62.37
66.844
71.353
75.88
80.408
84.922
89.407
93.846
98.222
102.519
106.72
110.811
114.779
118.608
122.284
125.791
129.114
132.239
135.153
137.841
140.292
142.495
144.439
146.116
147.518
148.639
149.474
150.019
150.272
150.231
149.896
149.27
148.353
147.152
145.67
143.913
141.89
139.607
137.075
134.305
131.307
128.094
124.68
121.079
117.306
113.375
109.305
105.109
100.805
96.409
91.936
87.405
82.83
78.228
73.614
69.004
64.411
59.85
55.334
50.876
46.487
42.178
37.96
33.842
29.832
25.939
22.17
18.531
15.028
11.664
8.445
5.372
2.448
-0.327
-2.952
-5.427
-7.755
-9.937
-11.975
-13.873
-15.633
-17.26
-18.758
-20.131
-21.384
-22.522
-23.551
-24.475
-25.299
-26.028
-26.668
-27.222
-27.696
-28.093
-28.419
-28.676
-28.87
-29.003
-29.08
-29.103
-29.076
-29.002
-28.883
-28.723
-28.522
-28.283
-28.008
-27.698
-27.354
-26.978
-26.57
-26.133
-25.666
-25.171
-24.649
-24.101
-23.528
-22.93
-22.31
-21.667
-21.004
-20.322
-19.623
-18.909
-18.182
-17.445
-16.7
-15.95
-15.197
-14.445
-13.695
-12.951
-12.216
-11.493
-10.785
-10.095
-9.428
-8.785
-8.171
-7.59
-7.043
-6.535
-6.068
-5.645
-5.27
-4.944
-4.671
-4.452
-4.289
-4.186
-4.142
-4.16
-4.241
-4.384
-4.591
-4.86
-5.192
-5.586
-6.041
-6.556
-7.13
-7.76
-8.445
-9.183
-9.971
-10.807
-11.686
-12.606
-13.564
-14.554
-15.574
-16.619
-17.684
-18.766
-19.86
-20.961
-22.064
-23.164
-24.257
-25.338
-26.402
-27.443
-28.46
-29.446
-30.399
-31.316
-32.194
-33.03
-33.821
-34.566
-35.263
-35.908
-36.501
-37.041
-37.527
-37.958
-38.335
-38.659
-38.931
-39.152
-39.324
-39.448
-39.528
-39.565
-39.563
-39.525
-39.454
-39.355
-39.232
-39.09
-38.935
-38.77
-38.601
-38.431
-38.264
-38.103
-37.951
-37.809
-37.678
-37.56
-37.455
-37.366
-37.294
-37.241
-37.207
-37.193
-37.2
-37.227
-37.272
-37.331
-37.399
-37.47
-37.54
-37.606
-37.663
-37.707
-37.734
-37.739
-37.72
-37.674
-37.595
-37.474
-37.294
-37.049
-36.736
-36.361
-35.932
-35.458
-34.944
-34.403
-33.854
-33.307
-32.77
-32.237
-31.689
-31.118
-30.527
-29.923
-29.33
-28.757
-28.2
-27.652
-27.105
-26.548
-25.977
-25.373
-24.701
-23.95
-23.126
-22.262
-21.421
-20.651
-19.977
-19.425
-19.001
-18.721
-18.621
-18.727
-19.058
-19.635
-20.467
-21.564
-22.964
-24.671
-26.654
-28.861
-31.193
-33.566
-35.922
-38.199
-40.348
-42.325
-44.073
-45.544
-46.721
-47.586
-48.156
-48.49
-48.617
-48.596
-48.503
-48.392
-48.377
-48.596
-49.149
-50.155
-51.725
-53.886
-56.737
-60.448
-64.999
-70.234
-75.776
-80.885
-84.909
-87.403
-87.799
-85.547
-80.522
-72.887
-63.509
-54.124
-46.22
-40.85
-38.988
-41.08
-46.601
-54.362
-61.854
-65.122
-60.356
-44.131
-13.379
33.82
97.648
176.905
268.543
367.296
466.911
560.52
641.007
701.964
738.714
748.069
728.226
679.892
606.225
512.356
405.029
291.76
179.381
74.271
-17.026
-89.577
-141.086
-171.451
-182.714
-178.423
-162.198
-138.042
-111.091
-86.006
-65.717
-51.724
-44.029
-41.602
-43.429
-48.228
-53.928
-58.505
-60.8
-60.388
-57.576
-53.104
-47.554
-41.478
-35.64
-30.798
-27.396
-25.568
-25.168
-25.869
-27.408
-29.593
-32.217
-35.067
-37.974
-40.808
-43.488
-45.996
-48.315
-50.4
-52.21
-53.688
-54.774
-55.459
-55.758
-55.7
-55.328
-54.677
-53.772
-52.652
-51.361
-49.932
-48.392
-46.74
-44.966
-43.082
-41.108
-39.085
-37.063
-35.069
-33.112
-31.203
-29.342
-27.533
-25.778
-24.062
-22.368
-20.686
-19.015
-17.367
-15.752
-14.169
-12.608
-11.049
-9.467
-7.841
-6.156
-4.392
-2.534
-0.571
1.507
3.699
6.003
8.419
10.951
13.604
16.385
19.295
22.334
25.499
28.786
32.187
35.697
39.302
42.993
46.759
50.586
54.464
58.382
62.326
66.284
70.24
74.181
78.091
81.956
85.759
89.484
93.115
96.635
100.026
103.27
106.349
109.244
111.937
114.414
116.658
118.657
120.397
121.87
123.065
123.972
124.579
124.872
124.841
124.481
123.792
122.779
121.455
119.837
117.946
115.805
113.434
110.847
108.049
105.038
101.812
98.366
94.705
90.846
86.803
82.589
78.211
73.674
68.972
64.089
59.003
53.687
48.125
42.32
36.296
30.1
23.792
17.441
11.105
4.829
-1.35
-7.394
-13.268
-18.935
-24.348
-29.451
-34.178
-38.453
-42.216
-45.429
-48.085
-50.209
-51.848
-53.07
-53.934
-54.488
-54.775
-54.825
-54.67
-54.339
-53.865
-53.288
-52.659
-52.046
-51.505
-51.081
-50.796
-50.647
-50.614
-50.659
-50.748
-50.856
-50.962
-51.058
-51.141
-51.21
-51.269
-51.321
-51.36
-51.37
-51.334
-51.241
-51.085
-50.874
-50.62
-50.344
-50.067
-49.804
-49.569
-49.365
-49.195
-49.056
-48.939
-48.835
-48.735
-48.635
-48.534
-48.429
-48.318
-48.196
-48.057
-47.895
-47.702
-47.471
-47.197
-46.874
-46.5
-46.074
-45.595
-45.067
-44.493
-43.874
-43.213
-42.512
-41.773
-40.999
-40.193
-39.356
-38.493
-37.607
-36.703
-35.788
-34.868
-33.948
-33.035
-32.137
-31.259
-30.409
-29.592
-28.815
-28.083
-27.4
-26.772
-26.203
-25.697
-25.256
-24.884
-24.583
-24.354
-24.199
-24.117
-24.109
-24.174
-24.309
-24.515
-24.788
-25.127
-25.529
-25.992
-26.513
-27.09
-27.718
-28.394
-29.114
-29.873
-30.666
-31.489
-32.336
-33.203
-34.084
-34.975
-35.871
-36.768
-37.662
-38.549
-39.427
-40.292
-41.141
-41.973
-42.785
-43.577
-44.346
-45.093
-45.816
-46.516
-47.193
-47.846
-48.476
-49.082
-49.665
-50.225
-50.761
-51.274
-51.762
-52.226
-52.665
-53.08
-53.468
-53.83
-54.165
-54.472
-54.75
-54.999
-55.217
-55.403
-55.555
-55.67
-55.748
-55.786
-55.781
-55.73
-55.632
-55.483
-55.28
-55.023
-54.706
-54.33
-53.891
-53.388
-52.821
-52.188
-51.491
-50.729
-49.904
-49.02
-48.081
-47.089
-46.052
-44.975
-43.866
-42.733
-41.584
-40.429
-39.279
-38.143
-37.034
-35.962
-34.938
-33.973
-33.078
-32.266
-31.545
-30.929
-30.426
-30.05
-29.812
-29.723
-29.79
-30.019
-30.412
-30.973
-31.705
-32.612
-33.696
-34.957
-36.392
-38.002
-39.784
-41.732
-43.83
-46.046
-48.346
-50.698
-53.069
-55.435
-57.769
-60.039
-62.211
-64.249
-66.119
-67.795
-69.247
-70.44
-71.342
-71.93
-72.22
-72.286
-72.204
-72.047
-71.877
-71.709
-71.592
-71.624
-71.87
-72.385
-73.235
-74.412
-76.008
-78.269
-81.238
-84.763
-88.559
-92.034
-94.613
-95.948
-95.452
-92.354
-86.484
-78.195
-68.276
-58.137
-49.298
-43.056
-40.675
-43.563
-50.559
-57.512
-62.282
-63.341
-60.841
-59.397
-54.803
-34.906
8.684
84.692
190.464
308.344
427.74
542.722
646.744
738.929
809.058
837.483
815.093
741.431
624.313
480.818
325.235
167.704
21.991
-94.864
-171.307
-202.543
-195.83
-171.073
-142.965
-119.314
-101.593
-83.764
-64.518
-46.341
-31.587
-23.936
-23.79
-28.77
-36.846
-45.431
-52.275
-56.612
-58.214
-57.302
-54.677
-51.117
-47.263
-43.87
-41.64
-40.874
-41.616
-43.715
-46.823
-50.653
-54.991
-59.597
-64.232
-68.714
-72.875
-76.581
-79.778
-82.415
-84.446
-85.856
-86.634
-86.79
-86.369
-85.437
-84.056
-82.288
-80.181
-77.771
-75.107
-72.243
-69.241
-66.158
-63.026
-59.871
-56.718
-53.595
-50.539
-47.566
-44.674
-41.842
-39.042
-36.265
-33.518
-30.812
-28.155
-25.556
-23.017
-20.557
-18.215
-16.005
-13.918
-11.922
-9.949
-7.959
-5.928
-3.845
-1.707
0.497
2.802
5.229
7.796
10.531
13.456
16.618
20.089
23.902
28.055
32.513
37.198
42.054
47.048
52.145
57.319
62.539
67.762
72.961
78.123
83.219
88.216
93.06
97.669
101.994
106.016
109.737
113.19
116.392
119.344
122.052
124.526
126.77
128.79
130.581
132.119
133.396
134.413
135.18
135.723
136.052
136.163
136.048
135.688
135.072
134.199
133.059
131.644
129.953
127.99
125.766
123.299
120.599
117.667
114.512
111.147
107.593
103.871
100.001
96.003
91.904
87.732
83.511
79.257
74.969
70.643
66.284
61.903
57.522
53.164
48.839
44.544
40.271
36.02
31.794
27.589
23.385
19.153
14.885
10.601
6.351
2.185
-1.869
-5.799
-9.604
-13.279
-16.806
-20.161
-23.324
-26.289
-29.043
-31.562
-33.802
-35.706
-37.255
-38.468
-39.403
-40.115
-40.634
-40.98
-41.165
-41.212
-41.15
-41.003
-40.782
-40.492
-40.146
-39.771
-39.419
-39.144
-38.97
-38.892
-38.877
-38.897
-38.938
-38.993
-39.057
-39.112
-39.142
-39.143
-39.124
-39.097
-39.063
-39.013
-38.925
-38.777
-38.562
-38.283
-37.957
-37.592
-37.195
-36.77
-36.322
-35.863
-35.4
-34.933
-34.452
-33.95
-33.424
-32.876
-32.31
-31.73
-31.136
-30.529
-29.907
-29.271
-28.622
-27.961
-27.288
-26.603
-25.905
-25.199
-24.491
-23.786
-23.089
-22.403
-21.733
-21.082
-20.456
-19.858
-19.29
-18.755
-18.257
-17.797
-17.379
-17.005
-16.676
-16.396
-16.164
-15.981
-15.85
-15.769
-15.738
-15.758
-15.828
-15.946
-16.111
-16.321
-16.575
-16.869
-17.201
-17.567
-17.964
-18.388
-18.834
-19.3
-19.78
-20.271
-20.769
-21.268
-21.765
-22.257
-22.74
-23.212
-23.668
-24.108
-24.529
-24.93
-25.309
-25.667
-26.002
-26.315
-26.605
-26.873
-27.12
-27.347
-27.555
-27.746
-27.92
-28.079
-28.226
-28.363
-28.492
-28.615
-28.735
-28.854
-28.975
-29.1
-29.231
-29.372
-29.523
-29.686
-29.863
-30.055
-30.263
-30.486
-30.724
-30.976
-31.24
-31.513
-31.793
-32.076
-32.358
-32.635
-32.903
-33.156
-33.389
-33.597
-33.775
-33.917
-34.017
-34.069
-34.068
-34.008
-33.884
-33.69
-33.422
-33.074
-32.642
-32.123
-31.512
-30.808
-30.006
-29.106
-28.106
-27.006
-25.809
-24.514
-23.127
-21.652
-20.095
-18.464
-16.769
-15.021
-13.23
-11.409
-9.573
-7.734
-5.906
-4.102
-2.335
-0.621
1.027
2.594
4.064
5.422
6.653
7.742
8.676
9.445
10.038
10.45
10.673
10.7
10.517
10.114
9.481
8.609
7.495
6.139
4.549
2.745
0.757
-1.38
-3.629
-5.953
-8.322
-10.699
-13.048
-15.329
-17.489
-19.476
-21.241
-22.736
-23.928
-24.795
-25.335
-25.593
-25.64
-25.563
-25.45
-25.369
-25.388
-25.604
-26.121
-27.05
-28.504
-30.563
-33.337
-36.989
-41.569
-46.977
-52.944
-58.959
-64.492
-69.155
-72.479
-73.858
-72.932
-69.695
-64.61
-58.739
-53.104
-48.238
-44.625
-43.008
-43.746
-46.378
-49.478
-50.363
-46.13
-34.773
-14.239
18.383
65.567
128.491
205.34
290.599
378.606
466.125
553.774
642.882
730.252
805.807
852.627
856.293
809.929
717.618
594.947
455.897
315.583
187.795
78.345
-2.917
-53.608
-81.874
-92.852
-96.276
-97.86
-93.747
-83.554
-67.723
-47.964
-29.865
-16.557
-8.531
-5.305
-5.388
-7.616
-11.601
-17.027
-23.413
-30.043
-36.043
-41.162
-45.534
-49.266
-52.321
-54.341
-55.097
-54.922
-54.58
-54.561
-55.02
-55.966
-57.341
-59.324
-62.076
-65.395
-68.817
-71.927
-74.467
-76.361
-77.662
-78.34
-78.343
-77.701
-76.501
-74.861
-72.886
-70.621
-68.071
-65.252
-62.202
-58.982
-55.667
-52.32
-48.995
-45.73
-42.549
-39.475
-36.521
-33.692
-30.987
-28.397
-25.907
-23.512
-21.208
-18.992
-16.861
-14.8
-12.791
-10.817
-8.86
-6.908
-4.95
-2.972
-0.964
1.086
3.183
5.336
7.55
9.833
12.194
14.642
17.184
19.828
22.577
25.437
28.412
31.503
34.712
38.036
41.473
45.019
48.667
52.411
56.24
60.145
64.113
68.134
72.192
76.272
80.358
84.433
88.48
92.477
96.405
100.239
103.958
107.541
110.967
114.218
117.274
120.115
122.726
125.094
127.203
129.039
130.584
131.817
132.721
133.293
133.531
133.439
133.024
132.287
131.239
129.896
128.268
126.363
124.176
121.69
118.899
115.81
112.439
108.814
104.952
100.858
96.534
91.98
87.197
82.19
76.951
71.451
65.692
59.694
53.504
47.204
40.854
34.494
28.158
21.863
15.641
9.538
3.594
-2.159
-7.679
-12.93
-17.851
-22.356
-26.4
-29.969
-33.087
-35.818
-38.207
-40.276
-42.047
-43.538
-44.77
-45.777
-46.579
-47.182
-47.606
-47.88
-48.052
-48.198
-48.363
-48.56
-48.785
-49.001
-49.185
-49.336
-49.445
-49.504
-49.509
-49.457
-49.357
-49.234
-49.103
-48.968
-48.822
-48.646
-48.432
-48.189
-47.931
-47.683
-47.465
-47.287
-47.164
-47.114
-47.147
-47.27
-47.482
-47.77
-48.129
-48.555
-49.047
-49.606
-50.23
-50.913
-51.648
-52.427
-53.241
-54.084
-54.946
-55.814
-56.678
-57.531
-58.366
-59.179
-59.965
-60.718
-61.432
-62.104
-62.729
-63.303
-63.821
-64.279
-64.673
-65.001
-65.26
-65.449
-65.568
-65.617
-65.596
-65.507
-65.352
-65.135
-64.858
-64.525
-64.141
-63.71
-63.238
-62.731
-62.193
-61.632
-61.053
-60.463
-59.867
-59.273
-58.685
-58.109
-57.551
-57.013
-56.501
-56.018
-55.567
-55.15
-54.771
-54.43
-54.13
-53.873
-53.658
-53.487
-53.36
-53.276
-53.234
-53.233
-53.271
-53.346
-53.455
-53.596
-53.765
-53.96
-54.177
-54.411
-54.66
-54.92
-55.185
-55.454
-55.722
-55.987
-56.244
-56.492
-56.729
-56.954
-57.164
-57.36
-57.542
-57.709
-57.863
-58.002
-58.129
-58.245
-58.35
-58.446
-58.535
-58.618
-58.698
-58.775
-58.852
-58.931
-59.012
-59.099
-59.192
-59.292
-59.401
-59.519
-59.646
-59.784
-59.933
-60.09
-60.257
-60.43
-60.608
-60.788
-60.968
-61.142
-61.306
-61.456
-61.586
-61.691
-61.766
-61.803
-61.798
-61.744
-61.635
-61.465
-61.227
-60.915
-60.524
-60.048
-59.48
-58.818
-58.056
-57.19
-56.218
-55.137
-53.945
-52.644
-51.231
-49.71
-48.081
-46.348
-44.516
-42.591
-40.578
-38.485
-36.324
-34.104
-31.84
-29.545
-27.234
-24.922
-22.627
-20.365
-18.153
-16.005
-13.936
-11.961
-10.095
-8.354
-6.756
-5.317
-4.05
-2.97
-2.087
-1.414
-0.957
-0.719
-0.702
-0.906
-1.336
-2.005
-2.925
-4.102
-5.541
-7.243
-9.199
-11.396
-13.815
-16.422
-19.181
-22.053
-25.002
-27.999
-31.013
-34.004
-36.926
-39.711
-42.288
-44.599
-46.587
-48.21
-49.457
-50.324
-50.838
-51.057
-51.026
-50.81
-50.501
-50.187
-49.982
-50.01
-50.369
-51.228
-52.825
-55.289
-58.636
-62.696
-67.019
-71.152
-74.73
-77.272
-78.239
-77.308
-74.435
-70.183
-65.783
-62.5
-61.355
-63.163
-68.529
-77.667
-90.118
-104.162
-116.815
-124.549
-123.75
-111.321
-84.692
-41.37
20.317
99.785
194.697
299.902
407.415
511.668
608.096
693.107
767.211
826.096
861.594
866.143
828.236
743.225
617.103
461.188
297.493
150.923
38.209
-31.993
-64.551
-76.201
-81.146
-87.341
-95.331
-97.957
-91.296
-77.315
-60.634
-47.281
-40.136
-38.607
-41.243
-46.401
-52.745
-59.031
-63.753
-65.949
-65.505
-62.827
-58.67
-53.731
-48.549
-43.783
-40.152
-38.073
-37.643
-38.75
-41.097
-44.421
-48.539
-53.215
-58.193
-63.275
-68.274
-73.041
-77.472
-81.439
-84.839
-87.611
-89.713
-91.135
-91.896
-92.026
-91.571
-90.602
-89.179
-87.364
-85.219
-82.802
-80.179
-77.42
-74.591
-71.753
-68.952
-66.216
-63.564
-61.006
-58.54
-56.158
-53.844
-51.576
-49.34
-47.126
-44.925
-42.729
-40.528
-38.312
-36.073
-33.801
-31.488
-29.124
-26.701
-24.21
-21.644
-18.999
-16.269
-13.448
-10.531
-7.516
-4.401
-1.183
2.145
5.592
9.163
12.859
16.675
20.606
24.641
28.772
32.978
37.228
41.488
45.729
49.927
54.079
58.173
62.196
66.138
69.984
73.734
77.409
81.02
84.567
88.057
91.487
94.882
98.299
101.779
105.352
109.031
112.803
116.665
120.625
124.661
128.736
132.78
136.685
140.367
143.764
146.804
149.422
151.525
152.982
153.696
153.6
152.637
150.774
147.963
144.137
139.286
133.455
126.726
119.235
111.099
102.41
93.289
83.871
74.3
64.741
55.322
46.127
37.254
28.794
20.857
13.579
7.034
1.235
-3.831
-8.217
-11.978
-15.153
-17.822
-20.093
-22.062
-23.816
-25.415
-26.878
-28.243
-29.564
-30.901
-32.332
-33.902
-35.617
-37.479
-39.475
-41.581
-43.772
-45.994
-48.166
-50.229
-52.145
-53.892
-55.476
-56.89
-58.118
-59.147
-59.966
-60.566
-60.952
-61.126
-61.087
-60.848
-60.426
-59.852
-59.173
-58.422
-57.619
-56.782
-55.917
-55.034
-54.142
-53.249
-52.355
-51.462
-50.577
-49.707
-48.862
-48.048
-47.269
-46.523
-45.806
-45.118
-44.456
-43.82
-43.208
-42.62
-42.054
-41.513
-40.998
-40.511
-40.051
-39.617
-39.206
-38.815
-38.443
-38.089
-37.747
-37.417
-37.096
-36.784
-36.479
-36.181
-35.889
-35.602
-35.318
-35.037
-34.758
-34.478
-34.196
-33.909
-33.618
-33.32
-33.014
-32.701
-32.379
-32.049
-31.711
-31.367
-31.018
-30.664
-30.307
-29.949
-29.591
-29.236
-28.886
-28.542
-28.206
-27.88
-27.567
-27.267
-26.982
-26.714
-26.462
-26.227
-26.009
-25.81
-25.629
-25.467
-25.323
-25.2
-25.096
-25.014
-24.953
-24.915
-24.9
-24.909
-24.941
-24.997
-25.075
-25.177
-25.299
-25.442
-25.605
-25.784
-25.98
-26.191
-26.414
-26.649
-26.893
-27.145
-27.404
-27.669
-27.939
-28.213
-28.491
-28.772
-29.056
-29.343
-29.632
-29.925
-30.22
-30.517
-30.817
-31.119
-31.423
-31.727
-32.032
-32.338
-32.643
-32.949
-33.254
-33.56
-33.866
-34.173
-34.481
-34.792
-35.105
-35.422
-35.743
-36.068
-36.399
-36.734
-37.075
-37.42
-37.771
-38.125
-38.483
-38.843
-39.203
-39.562
-39.917
-40.266
-40.606
-40.935
-41.249
-41.546
-41.822
-42.073
-42.297
-42.49
-42.648
-42.768
-42.844
-42.874
-42.853
-42.777
-42.64
-42.439
-42.169
-41.827
-41.408
-40.909
-40.327
-39.658
-38.901
-38.053
-37.112
-36.077
-34.949
-33.728
-32.417
-31.018
-29.534
-27.972
-26.337
-24.637
-22.881
-21.078
-19.239
-17.375
-15.499
-13.625
-11.765
-9.932
-8.139
-6.402
-4.735
-3.151
-1.666
-0.293
0.953
2.056
3
3.772
4.362
4.761
4.962
4.961
4.747
4.313
3.651
2.756
1.626
0.26
-1.34
-3.168
-5.203
-7.411
-9.752
-12.192
-14.696
-17.239
-19.791
-22.32
-24.786
-27.148
-29.361
-31.387
-33.191
-34.734
-35.992
-36.952
-37.639
-38.134
-38.521
-38.885
-39.289
-39.753
-40.319
-41.063
-42.066
-43.421
-45.227
-47.525
-50.406
-54.066
-58.513
-63.587
-68.92
-73.79
-77.531
-79.713
-79.748
-76.984
-71.326
-63.064
-53.094
-43.219
-34.847
-28.823
-26.339
-28.308
-34.405
-43.466
-52.859
-58.368
-56.671
-44.707
-18.385
25.304
87.788
167.672
259.082
356.825
457.707
559.623
662.186
756.671
828.225
864.893
855.713
802.312
717.202
607.255
479.827
341.583
197.521
64.972
-36.3
-96.467
-115.883
-109.397
-95.735
-84.995
-78.61
-71.471
-59.861
-45.386
-32.035
-24.175
-23.133
-27.373
-35.025
-44.049
-52.656
-59.482
-63.574
-64.665
-63.132
-59.726
-55.156
-50.018
-44.943
-40.555
-37.234
-35.098
-34.055
-33.857
-34.294
-35.236
-36.546
-38.076
-39.713
-41.355
-42.926
-44.402
-45.753
-46.963
-48.035
-48.969
-49.768
-50.451
-51.046
-51.569
-52.037
-52.44
-52.736
-52.904
-52.94
-52.856
-52.673
-52.398
-52.018
-51.507
-50.846
-50.023
-49.028
-47.849
-46.466
-44.87
-43.071
-41.105
-39.026
-36.874
-34.67
-32.422
-30.137
-27.822
-25.496
-23.174
-20.858
-18.545
-16.237
-13.934
-11.642
-9.358
-7.067
-4.74
-2.345
0.144
2.739
5.453
8.291
11.26
14.366
17.61
20.981
24.474
28.082
31.799
35.621
39.539
43.54
47.606
51.72
55.864
60.023
64.179
68.314
72.413
76.457
80.431
84.322
88.113
91.787
95.327
98.714
101.931
104.961
107.788
110.395
112.766
114.888
116.747
118.333
119.634
120.641
121.345
121.741
121.822
121.586
121.03
120.153
118.958
117.446
115.624
113.496
111.07
108.356
105.364
102.107
98.596
94.848
90.877
86.7
82.336
77.802
73.118
68.305
63.383
58.372
53.294
48.17
43.021
37.867
32.729
27.627
22.579
17.604
12.72
7.944
3.291
-1.223
-5.586
-9.785
-13.809
-17.649
-21.295
-24.741
-27.982
-31.014
-33.832
-36.438
-38.829
-41.009
-42.98
-44.746
-46.314
-47.69
-48.881
-49.898
-50.748
-51.443
-51.993
-52.41
-52.704
-52.888
-52.973
-52.971
-52.894
-52.752
-52.558
-52.321
-52.052
-51.761
-51.455
-51.143
-50.832
-50.53
-50.242
-49.972
-49.727
-49.509
-49.321
-49.164
-49.041
-48.951
-48.893
-48.866
-48.867
-48.893
-48.941
-49.007
-49.085
-49.171
-49.26
-49.345
-49.422
-49.485
-49.528
-49.545
-49.532
-49.483
-49.394
-49.262
-49.081
-48.851
-48.568
-48.23
-47.837
-47.388
-46.882
-46.32
-45.703
-45.032
-44.309
-43.537
-42.718
-41.855
-40.953
-40.015
-39.046
-38.05
-37.033
-36.001
-34.958
-33.909
-32.862
-31.821
-30.792
-29.782
-28.795
-27.838
-26.915
-26.031
-25.192
-24.402
-23.663
-22.98
-22.356
-21.792
-21.291
-20.854
-20.483
-20.178
-19.939
-19.768
-19.663
-19.624
-19.65
-19.741
-19.894
-20.109
-20.385
-20.718
-21.108
-21.552
-22.048
-22.595
-23.189
-23.828
-24.51
-25.232
-25.99
-26.782
-27.604
-28.452
-29.324
-30.217
-31.126
-32.049
-32.982
-33.924
-34.87
-35.817
-36.763
-37.705
-38.641
-39.566
-40.479
-41.378
-42.259
-43.12
-43.959
-44.774
-45.56
-46.317
-47.041
-47.729
-48.379
-48.987
-49.552
-50.07
-50.539
-50.958
-51.324
-51.635
-51.891
-52.091
-52.232
-52.316
-52.34
-52.305
-52.21
-52.056
-51.841
-51.567
-51.234
-50.843
-50.395
-49.889
-49.328
-48.711
-48.04
-47.316
-46.539
-45.711
-44.832
-43.905
-42.933
-41.916
-40.858
-39.761
-38.627
-37.462
-36.266
-35.043
-33.797
-32.531
-31.249
-29.955
-28.653
-27.348
-26.045
-24.75
-23.471
-22.213
-20.983
-19.789
-18.638
-17.537
-16.494
-15.516
-14.607
-13.777
-13.032
-12.379
-11.827
-11.383
-11.054
-10.85
-10.777
-10.845
-11.058
-11.416
-11.921
-12.575
-13.379
-14.342
-15.468
-16.759
-18.211
-19.825
-21.595
-23.511
-25.553
-27.682
-29.857
-32.04
-34.197
-36.304
-38.333
-40.251
-42.022
-43.605
-44.965
-46.079
-46.925
-47.481
-47.738
-47.701
-47.416
-46.988
-46.523
-46.125
-45.881
-45.84
-46.074
-46.681
-47.754
-49.386
-51.671
-54.631
-58.325
-62.885
-68.285
-74.363
-80.789
-86.909
-92.079
-95.855
-97.672
-96.916
-93.445
-87.372
-79.212
-70.325
-61.906
-54.696
-49.733
-47.835
-48.724
-51.578
-54.716
-54.888
-48.988
-34.546
-8.605
31.575
87.155
157.925
242.195
334.485
427.114
514.979
592.947
657.306
708.969
743.466
753.106
732.018
672.353
572.562
438.759
282.315
120.166
-27.296
-138.383
-201.95
-218.028
-197.549
-163.142
-130.74
-107.207
-93.537
-82.718
-71.27
-60.43
-51.914
-48.699
-50.904
-56.134
-61.89
-65.594
-66.096
-63.423
-57.852
-50.111
-41.079
-31.528
-22.39
-14.56
-8.459
-4.27
-2.017
-1.5
-2.545
-4.978
-8.533
-12.947
-18.002
-23.469
-29.132
-34.79
-40.231
-45.294
-49.876
-53.891
-57.282
-59.995
-61.97
-63.19
-63.667
-63.426
-62.51
-60.959
-58.835
-56.233
-53.28
-50.115
-46.857
-43.583
-40.341
-37.17
-34.101
-31.162
-28.376
-25.742
-23.252
-20.904
-18.697
-16.631
-14.693
-12.856
-11.075
-9.3
-7.494
-5.63
-3.689
-1.657
0.48
2.729
5.092
7.56
10.133
12.814
15.618
18.556
21.628
24.833
28.166
31.614
35.166
38.8
42.481
46.183
49.887
53.586
57.283
60.983
64.682
68.379
72.074
75.765
79.461
83.159
86.847
90.52
94.186
97.874
101.645
105.539
109.568
113.73
118.001
122.356
126.769
131.191
135.54
139.734
143.692
147.356
150.7
153.684
156.255
158.331
159.795
160.557
160.572
159.805
158.239
155.864
152.672
148.714
144.105
138.97
133.419
127.533
121.352
114.924
108.32
101.627
94.955
88.393
81.994
75.813
69.91
64.346
59.178
54.404
49.949
45.722
41.655
37.71
33.879
30.157
26.516
22.927
19.368
15.829
12.314
8.814
5.304
1.747
-1.89
-5.601
-9.336
-13.029
-16.63
-20.11
-23.456
-26.655
-29.682
-32.523
-35.178
-37.661
-39.986
-42.155
-44.156
-45.971
-47.583
-48.992
-50.216
-51.28
-52.202
-52.997
-53.678
-54.258
-54.757
-55.186
-55.548
-55.837
-56.049
-56.187
-56.261
-56.283
-56.262
-56.202
-56.105
-55.973
-55.808
-55.613
-55.386
-55.121
-54.813
-54.461
-54.073
-53.66
-53.23
-52.787
-52.328
-51.852
-51.363
-50.872
-50.39
-49.918
-49.455
-49
-48.559
-48.147
-47.774
-47.436
-47.115
-46.785
-46.423
-46.025
-45.599
-45.154
-44.68
-44.149
-43.513
-42.736
-41.818
-40.796
-39.704
-38.544
-37.299
-35.946
-34.555
-33.317
-32.314
-31.423
-30.338
-28.704
-26.419
-23.807
-21.207
-18.6
-16.115
-14.176
-13.676
-15.972
-21.771
-30.495
-41.083
-52.719
-64.352
-74.908
-82.814
-85.471
-81.171
-70.092
-53.404
-32.8
-10.589
11.328
30.984
45.276
51.897
50.084
40.011
23.277
2.678
-19.443
-41.176
-60.07
-74.249
-82.442
-83.697
-78.624
-69.265
-57.625
-45.179
-33.215
-22.575
-14.112
-8.912
-7.161
-8.007
-10.298
-13.142
-16.072
-18.979
-21.695
-23.748
-24.866
-25.189
-25.121
-25.048
-25.124
-25.293
-25.439
-25.557
-25.706
-25.91
-26.132
-26.307
-26.414
-26.488
-26.614
-26.892
-27.371
-28.055
-28.922
-29.92
-31.003
-32.141
-33.313
-34.499
-35.681
-36.818
-37.874
-38.825
-39.633
-40.254
-40.634
-40.688
-40.356
-39.625
-38.508
-37.057
-35.347
-33.422
-31.321
-29.08
-26.725
-24.287
-21.801
-19.278
-16.741
-14.225
-11.776
-9.466
-7.356
-5.474
-3.83
-2.405
-1.162
-0.082
0.849
1.654
2.338
2.909
3.369
3.702
3.893
3.938
3.843
3.626
3.307
2.891
2.377
1.758
1.019
0.145
-0.882
-2.085
-3.479
-5.071
-6.864
-8.846
-10.993
-13.278
-15.668
-18.125
-20.609
-23.084
-25.517
-27.871
-30.111
-32.187
-34.037
-35.604
-36.836
-37.692
-38.142
-38.173
-37.811
-37.108
-36.154
-35.043
-33.859
-32.687
-31.635
-30.811
-30.331
-30.338
-30.929
-32.235
-34.457
-37.635
-41.685
-46.386
-51.238
-55.762
-59.646
-62.394
-63.412
-62.563
-59.918
-56.011
-52.118
-49.073
-47.202
-47.111
-49.265
-53.36
-58.705
-63.476
-64.425
-59.143
-45.941
-22.56
12.933
61.755
124.789
199.408
279.339
359.854
436.257
507.631
578.436
647.473
710.809
758.434
770.632
736.049
649.755
516.277
358.79
201.206
67.236
-24.207
-72.737
-87.358
-84.318
-79.742
-79.337
-82.205
-82.424
-76.218
-65.57
-54.165
-46.418
-44.321
-46.769
-52.031
-58.339
-63.963
-67.541
-68.36
-66.17
-61.271
-54.429
-46.384
-37.746
-29.234
-21.589
-15.25
-10.452
-7.205
-5.309
-4.63
-5.098
-6.59
-8.958
-12.067
-15.757
-19.877
-24.31
-28.908
-33.525
-38.041
-42.327
-46.269
-49.802
-52.882
-55.484
-57.597
-59.186
-60.227
-60.718
-60.677
-60.143
-59.173
-57.821
-56.142
-54.204
-52.067
-49.803
-47.485
-45.154
-42.837
-40.553
-38.311
-36.135
-34.046
-32.05
-30.142
-28.313
-26.55
-24.847
-23.193
-21.568
-19.944
-18.295
-16.586
-14.797
-12.915
-10.926
-8.821
-6.592
-4.231
-1.737
0.886
3.636
6.51
9.509
12.631
15.872
19.222
22.673
26.214
29.835
33.527
37.279
41.08
44.92
48.787
52.671
56.562
60.448
64.316
68.149
71.933
75.65
79.285
82.82
86.237
89.518
92.648
95.609
98.386
100.964
103.329
105.467
107.366
109.014
110.402
111.52
112.359
112.914
113.179
113.15
112.824
112.2
111.278
110.059
108.546
106.743
104.654
102.287
99.648
96.746
93.593
90.2
86.578
82.743
78.708
74.49
70.105
65.571
60.905
56.125
51.249
46.297
41.286
36.235
31.162
26.086
21.023
15.992
11.009
6.09
1.252
-3.492
-8.126
-12.638
-17.016
-21.248
-25.324
-29.235
-32.973
-36.532
-39.906
-43.091
-46.083
-48.88
-51.481
-53.887
-56.096
-58.113
-59.94
-61.58
-63.039
-64.322
-65.434
-66.383
-67.176
-67.82
-68.324
-68.695
-68.943
-69.076
-69.104
-69.037
-68.883
-68.651
-68.352
-67.993
-67.584
-67.132
-66.646
-66.131
-65.596
-65.045
-64.485
-63.92
-63.356
-62.795
-62.242
-61.7
-61.171
-60.657
-60.161
-59.683
-59.224
-58.786
-58.368
-57.971
-57.594
-57.238
-56.901
-56.582
-56.281
-55.995
-55.724
-55.466
-55.219
-54.981
-54.749
-54.523
-54.3
-54.078
-53.857
-53.636
-53.412
-53.186
-52.956
-52.723
-52.484
-52.241
-51.993
-51.739
-51.479
-51.213
-50.942
-50.664
-50.379
-50.088
-49.789
-49.484
-49.17
-48.848
-48.516
-48.176
-47.826
-47.466
-47.095
-46.714
-46.323
-45.921
-45.507
-45.084
-44.649
-44.203
-43.747
-43.28
-42.802
-42.314
-41.816
-41.309
-40.793
-40.269
-39.739
-39.203
-38.664
-38.123
-37.582
-37.043
-36.509
-35.983
-35.466
-34.964
-34.478
-34.013
-33.571
-33.157
-32.773
-32.423
-32.111
-31.84
-31.614
-31.434
-31.304
-31.228
-31.207
-31.243
-31.339
-31.496
-31.715
-31.996
-32.339
-32.745
-33.211
-33.737
-34.32
-34.959
-35.649
-36.387
-37.17
-37.991
-38.847
-39.731
-40.637
-41.557
-42.485
-43.413
-44.334
-45.24
-46.124
-46.977
-47.791
-48.56
-49.274
-49.927
-50.511
-51.017
-51.441
-51.774
-52.011
-52.148
-52.179
-52.101
-51.911
-51.606
-51.184
-50.647
-49.992
-49.222
-48.337
-47.343
-46.241
-45.039
-43.743
-42.359
-40.9
-39.374
-37.795
-36.174
-34.525
-32.863
-31.2
-29.551
-27.928
-26.344
-24.812
-23.344
-21.953
-20.653
-19.458
-18.382
-17.438
-16.638
-15.993
-15.512
-15.199
-15.056
-15.088
-15.299
-15.702
-16.308
-17.121
-18.147
-19.386
-20.833
-22.474
-24.283
-26.212
-28.216
-30.249
-32.268
-34.242
-36.137
-37.912
-39.527
-40.926
-42.058
-42.889
-43.382
-43.511
-43.266
-42.667
-41.79
-40.755
-39.689
-38.706
-37.888
-37.317
-37.108
-37.371
-38.222
-39.782
-42.111
-45.297
-49.509
-54.75
-60.857
-67.517
-74.096
-79.953
-84.662
-87.628
-88.133
-85.992
-81.327
-74.669
-67.378
-60.503
-54.549
-50.463
-49.144
-50.368
-53.257
-56.023
-55.468
-48.758
-33.555
-6.609
35.53
93.534
164.971
246.254
332.163
421.109
517.865
623.316
731.443
828.623
891.33
900.464
850.811
749.394
612.386
455.738
292.318
131.873
-12.453
-121.209
-183.397
-197.092
-172.147
-132.244
-93.986
-64.78
-46.058
-30.534
-14.973
-1.589
6.704
5.791
-4.742
-21.532
-40.414
-57.731
-71.69
-81.685
-87.26
-88.034
-84.191
-76.897
-68.187
-59.808
-52.625
-46.99
-42.985
-40.805
-40.644
-42.26
-45.015
-48.302
-51.753
-55.23
-58.741
-62.2
-65.426
-68.283
-70.707
-72.69
-74.243
-75.341
-75.938
-76.007
-75.559
-74.64
-73.32
-71.656
-69.699
-67.497
-65.094
-62.547
-59.918
-57.265
-54.645
-52.096
-49.637
-47.282
-45.035
-42.898
-40.865
-38.921
-37.04
-35.203
-33.395
-31.604
-29.82
-28.03
-26.218
-24.369
-22.469
-20.505
-18.47
-16.353
-14.147
-11.843
-9.436
-6.922
-4.299
-1.563
1.29
4.264
7.362
10.587
13.94
17.419
21.023
24.749
28.591
32.542
36.594
40.737
44.96
49.251
53.597
57.983
62.395
66.818
71.233
75.625
79.976
84.268
88.482
92.602
96.607
100.482
104.208
107.767
111.144
114.321
117.282
120.014
122.501
124.731
126.691
128.37
129.76
130.852
131.64
132.118
132.284
132.136
131.673
130.896
129.809
128.416
126.722
124.734
122.46
119.911
117.095
114.026
110.715
107.177
103.427
99.478
95.346
91.049
86.602
82.022
77.327
72.534
67.66
62.725
57.744
52.736
47.718
42.706
37.718
32.769
27.874
23.047
18.303
13.654
9.112
4.688
0.394
-3.762
-7.77
-11.624
-15.316
-18.842
-22.196
-25.375
-28.377
-31.199
-33.842
-36.304
-38.587
-40.691
-42.618
-44.372
-45.955
-47.373
-48.629
-49.729
-50.679
-51.485
-52.154
-52.693
-53.108
-53.406
-53.594
-53.681
-53.672
-53.575
-53.397
-53.144
-52.825
-52.444
-52.009
-51.523
-50.992
-50.421
-49.814
-49.174
-48.504
-47.808
-47.089
-46.35
-45.593
-44.822
-44.038
-43.243
-42.438
-41.625
-40.803
-39.973
-39.136
-38.292
-37.44
-36.582
-35.717
-34.847
-33.972
-33.092
-32.206
-31.316
-30.422
-29.523
-28.622
-27.718
-26.814
-25.912
-25.018
-24.133
-23.262
-22.409
-21.577
-20.772
-19.995
-19.249
-18.535
-17.856
-17.215
-16.615
-16.058
-15.549
-15.09
-14.687
-14.344
-14.065
-13.851
-13.703
-13.618
-13.597
-13.636
-13.734
-13.888
-14.096
-14.357
-14.673
-15.047
-15.477
-15.962
-16.495
-17.064
-17.661
-18.282
-18.918
-19.566
-20.23
-20.916
-21.645
-22.437
-23.305
-24.254
-25.282
-26.377
-27.524
-28.708
-29.908
-31.113
-32.312
-33.491
-34.65
-35.783
-36.865
-37.861
-38.716
-39.362
-39.749
-39.844
-39.615
-39.061
-38.196
-37.055
-35.703
-34.2
-32.595
-30.938
-29.268
-27.613
-26.029
-24.58
-23.343
-22.421
-21.896
-21.838
-22.325
-23.4
-25.065
-27.285
-29.973
-33.029
-36.371
-39.907
-43.547
-47.223
-50.852
-54.35
-57.646
-60.643
-63.245
-65.366
-66.902
-67.764
-67.916
-67.359
-66.138
-64.328
-61.999
-59.23
-56.121
-52.752
-49.192
-45.505
-41.73
-37.914
-34.121
-30.414
-26.868
-23.565
-20.555
-17.866
-15.515
-13.486
-11.762
-10.316
-9.093
-8.051
-7.167
-6.426
-5.834
-5.401
-5.123
-5
-5.032
-5.204
-5.51
-5.946
-6.5
-7.174
-7.975
-8.917
-10.034
-11.357
-12.901
-14.679
-16.695
-18.942
-21.412
-24.077
-26.89
-29.81
-32.795
-35.808
-38.825
-41.812
-44.732
-47.544
-50.189
-52.609
-54.761
-56.588
-58.043
-59.092
-59.724
-59.99
-59.983
-59.794
-59.507
-59.175
-58.847
-58.627
-58.625
-58.955
-59.761
-61.117
-63.141
-66.089
-70.014
-74.783
-80.096
-85.245
-89.519
-92.507
-93.59
-92.033
-87.811
-81.257
-73.227
-65.653
-60.02
-57.102
-58.131
-64.017
-74.122
-86.952
-99.825
-108.292
-108.492
-97.332
-70.71
-24.813
40.24
121.173
214.117
312.804
415.888
527.588
643.644
754.773
846.055
894.84
890.101
833.223
731.339
599.03
450.006
295.053
149.067
30.082
-49.854
-87.017
-90.011
-78.521
-66.884
-61.655
-61.921
-60.231
-54.572
-47.236
-41.116
-40.269
-45.201
-53.627
-63.769
-73.453
-80.689
-84.857
-85.732
-83.412
-78.701
-72.466
-65.415
-58.423
-52.353
-47.642
-44.497
-42.941
-42.742
-43.719
-45.731
-48.559
-51.972
-55.779
-59.802
-63.905
-67.98
-71.89
-75.484
-78.625
-81.214
-83.203
-84.58
-85.35
-85.534
-85.157
-84.267
-82.923
-81.186
-79.117
-76.778
-74.228
-71.532
-68.76
-65.975
-63.237
-60.589
-58.053
-55.64
-53.352
-51.184
-49.127
-47.166
-45.284
-43.463
-41.692
-39.956
-38.245
-36.545
-34.838
-33.109
-31.343
-29.525
-27.645
-25.693
-23.661
-21.541
-19.327
-17.014
-14.598
-12.072
-9.432
-6.67
-3.781
-0.76
2.397
5.692
9.128
12.705
16.421
20.272
24.254
28.36
32.583
36.912
41.339
45.849
50.431
55.07
59.749
64.453
69.163
73.86
78.525
83.14
87.683
92.134
96.474
100.682
104.738
108.624
112.319
115.806
119.065
122.081
124.836
127.314
129.502
131.386
132.955
134.197
135.104
135.669
135.887
135.754
135.268
134.43
133.242
131.707
129.831
127.622
125.087
122.239
119.089
115.65
111.939
107.97
103.762
99.333
94.702
89.889
84.914
79.8
74.566
69.235
63.83
58.372
52.884
47.387
41.903
36.453
31.057
25.735
20.505
15.386
10.393
5.543
0.85
-3.673
-8.015
-12.165
-16.115
-19.857
-23.386
-26.698
-29.788
-32.657
-35.303
-37.728
-39.934
-41.925
-43.705
-45.28
-46.657
-47.845
-48.851
-49.685
-50.357
-50.879
-51.26
-51.512
-51.647
-51.676
-51.611
-51.462
-51.241
-50.959
-50.625
-50.25
-49.844
-49.414
-48.97
-48.517
-48.065
-47.617
-47.18
-46.758
-46.354
-45.973
-45.616
-45.286
-44.984
-44.71
-44.465
-44.247
-44.055
-43.887
-43.74
-43.613
-43.5
-43.399
-43.305
-43.216
-43.127
-43.034
-42.934
-42.823
-42.697
-42.554
-42.39
-42.204
-41.991
-41.751
-41.482
-41.183
-40.853
-40.492
-40.101
-39.679
-39.228
-38.748
-38.241
-37.708
-37.15
-36.57
-35.971
-35.353
-34.721
-34.079
-33.428
-32.774
-32.119
-31.469
-30.826
-30.194
-29.577
-28.978
-28.401
-27.849
-27.326
-26.835
-26.378
-25.959
-25.58
-25.243
-24.949
-24.702
-24.5
-24.346
-24.239
-24.181
-24.171
-24.209
-24.297
-24.434
-24.619
-24.852
-25.133
-25.461
-25.834
-26.25
-26.709
-27.207
-27.743
-28.314
-28.918
-29.554
-30.218
-30.908
-31.62
-32.353
-33.103
-33.866
-34.638
-35.417
-36.199
-36.979
-37.756
-38.525
-39.282
-40.025
-40.751
-41.455
-42.135
-42.786
-43.404
-43.986
-44.527
-45.023
-45.47
-45.865
-46.204
-46.484
-46.701
-46.852
-46.935
-46.946
-46.882
-46.741
-46.521
-46.219
-45.834
-45.363
-44.808
-44.166
-43.439
-42.627
-41.73
-40.749
-39.687
-38.544
-37.324
-36.028
-34.66
-33.226
-31.728
-30.173
-28.568
-26.919
-25.234
-23.523
-21.797
-20.066
-18.342
-16.639
-14.967
-13.342
-11.775
-10.278
-8.863
-7.539
-6.319
-5.212
-4.232
-3.39
-2.698
-2.165
-1.8
-1.611
-1.603
-1.778
-2.134
-2.67
-3.387
-4.294
-5.401
-6.714
-8.237
-9.972
-11.912
-14.046
-16.351
-18.793
-21.333
-23.933
-26.555
-29.175
-31.764
-34.29
-36.717
-38.988
-41.043
-42.833
-44.308
-45.427
-46.17
-46.544
-46.587
-46.381
-46.006
-45.521
-45.001
-44.517
-44.164
-44.058
-44.312
-45.036
-46.377
-48.544
-51.651
-55.654
-60.303
-65.089
-69.443
-72.902
-74.989
-75.09
-72.875
-68.537
-62.768
-56.979
-52.692
-50.786
-51.905
-56.772
-65.46
-77.003
-89.409
-99.209
-102.356
-95.868
-77.336
-44.062
6.047
73.736
158.226
254.916
356.08
455.452
548.47
634.279
714.651
786.941
843.636
871.561
856.662
793.132
683.076
538.576
378.908
223.028
90.608
-4.366
-58.706
-78.129
-77.664
-71.87
-68.665
-69.415
-69.152
-65.323
-59.194
-53.327
-51.832
-56.046
-64.272
-74.605
-84.677
-92.189
-96.309
-96.847
-93.832
-88.047
-80.416
-71.697
-62.855
-54.876
-48.29
-43.362
-40.183
-38.551
-38.298
-39.347
-41.533
-44.665
-48.557
-52.995
-57.768
-62.707
-67.628
-72.335
-76.652
-80.44
-83.607
-86.117
-87.966
-89.162
-89.715
-89.632
-88.914
-87.588
-85.711
-83.366
-80.662
-77.705
-74.584
-71.393
-68.22
-65.132
-62.172
-59.358
-56.679
-54.126
-51.697
-49.391
-47.216
-45.169
-43.234
-41.39
-39.605
-37.848
-36.094
-34.316
-32.48
-30.564
-28.549
-26.427
-24.201
-21.867
-19.421
-16.856
-14.164
-11.338
-8.376
-5.273
-2.028
1.359
4.888
8.557
12.358
16.285
20.332
24.493
28.76
33.125
37.576
42.1
46.681
51.305
55.953
60.606
65.244
69.846
74.39
78.855
83.22
87.464
91.566
95.505
99.26
102.813
106.144
109.235
112.07
114.633
116.909
118.885
120.55
121.893
122.905
123.579
123.911
123.896
123.534
122.824
121.769
120.373
118.643
116.586
114.214
111.536
108.566
105.32
101.814
98.064
94.09
89.91
85.545
81.015
76.342
71.546
66.65
61.674
56.639
51.566
46.475
41.385
36.317
31.286
26.312
21.409
16.594
11.881
7.283
2.813
-1.519
-5.702
-9.73
-13.594
-17.289
-20.812
-24.159
-27.33
-30.323
-33.141
-35.784
-38.257
-40.563
-42.707
-44.696
-46.536
-48.235
-49.799
-51.237
-52.556
-53.766
-54.872
-55.883
-56.807
-57.649
-58.417
-59.116
-59.752
-60.332
-60.859
-61.338
-61.773
-62.168
-62.525
-62.847
-63.135
-63.391
-63.615
-63.808
-63.968
-64.096
-64.191
-64.25
-64.272
-64.255
-64.197
-64.096
-63.948
-63.751
-63.502
-63.2
-62.842
-62.427
-61.955
-61.424
-60.836
-60.191
-59.49
-58.738
-57.934
-57.084
-56.191
-55.259
-54.292
-53.296
-52.276
-51.237
-50.185
-49.127
-48.069
-47.016
-45.975
-44.953
-43.954
-42.986
-42.054
-41.163
-40.319
-39.528
-38.793
-38.121
-37.515
-36.979
-36.516
-36.128
-35.817
-35.584
-35.43
-35.353
-35.353
-35.428
-35.574
-35.79
-36.072
-36.414
-36.814
-37.265
-37.764
-38.303
-38.879
-39.485
-40.116
-40.766
-41.43
-42.104
-42.781
-43.458
-44.13
-44.793
-45.443
-46.076
-46.689
-47.279
-47.843
-48.379
-48.884
-49.358
-49.797
-50.202
-50.571
-50.904
-51.201
-51.463
-51.69
-51.882
-52.042
-52.17
-52.267
-52.335
-52.376
-52.39
-52.38
-52.346
-52.29
-52.211
-52.112
-51.992
-51.853
-51.693
-51.514
-51.313
-51.091
-50.846
-50.577
-50.282
-49.961
-49.61
-49.23
-48.818
-48.374
-47.897
-47.385
-46.838
-46.256
-45.637
-44.981
-44.29
-43.561
-42.797
-41.996
-41.159
-40.289
-39.386
-38.453
-37.494
-36.512
-35.513
-34.501
-33.483
-32.463
-31.447
-30.44
-29.448
-28.478
-27.535
-26.629
-25.769
-24.965
-24.225
-23.558
-22.974
-22.476
-22.068
-21.752
-21.525
-21.386
-21.341
-21.396
-21.564
-21.86
-22.296
-22.88
-23.622
-24.524
-25.581
-26.789
-28.137
-29.613
-31.211
-32.929
-34.775
-36.743
-38.809
-40.934
-43.054
-45.094
-46.982
-48.643
-49.998
-50.984
-51.55
-51.66
-51.3
-50.466
-49.155
-47.353
-45.048
-42.27
-39.086
-35.602
-31.957
-28.287
-24.736
-21.495
-18.766
-16.746
-15.618
-15.469
-16.411
-18.624
-22.131
-26.846
-32.497
-38.446
-44.072
-48.952
-52.458
-53.923
-53.172
-50.252
-45.89
-41.804
-39.368
-39.467
-43.134
-50.929
-62.379
-76.404
-90.32
-99.596
-100.304
-89.284
-63
-18.771
44.169
125.631
221.516
323.171
424.495
520.728
607.905
685.921
749.232
787.931
793.444
756.64
675.596
555.078
405.087
242.866
88.596
-35.071
-113.529
-145.187
-140.604
-120.893
-101.32
-88.176
-79.802
-67.875
-50.198
-29.129
-8.064
7.363
15.434
17.363
13.319
4.69
-6.509
-19.453
-32.833
-44.944
-55.332
-63.645
-69.008
-71.344
-71.088
-68.482
-64.346
-59.807
-55.296
-51.183
-47.992
-45.81
-44.613
-44.403
-44.819
-45.362
-45.802
-45.959
-45.679
-44.986
-43.89
-42.402
-40.665
-38.864
-37.112
-35.485
-34.02
-32.699
-31.518
-30.488
-29.587
-28.779
-28.048
-27.38
-26.782
-26.272
-25.838
-25.446
-25.046
-24.567
-23.953
-23.17
-22.182
-20.965
-19.514
-17.832
-15.948
-13.916
-11.769
-9.527
-7.198
-4.777
-2.267
0.322
2.98
5.696
8.463
11.277
14.132
17.023
19.954
22.937
25.995
29.163
32.465
35.914
39.517
43.274
47.182
51.238
55.432
59.746
64.167
68.679
73.267
77.918
82.615
87.337
92.06
96.757
101.402
105.974
110.447
114.801
119.012
123.06
126.926
130.594
134.047
137.268
140.239
142.943
145.364
147.487
149.299
150.787
151.941
152.752
153.212
153.319
153.07
152.464
151.504
150.191
148.532
146.535
144.207
141.56
138.606
135.357
131.828
128.036
123.996
119.728
115.248
110.576
105.731
100.734
95.604
90.363
85.029
79.626
74.172
68.69
63.199
57.721
52.274
46.879
41.554
36.317
31.183
26.169
21.288
16.553
11.976
7.566
3.334
-0.714
-4.57
-8.231
-11.693
-14.952
-18.007
-20.858
-23.506
-25.951
-28.197
-30.247
-32.104
-33.774
-35.262
-36.575
-37.718
-38.701
-39.53
-40.214
-40.763
-41.185
-41.491
-41.69
-41.791
-41.804
-41.738
-41.603
-41.406
-41.156
-40.86
-40.526
-40.161
-39.77
-39.359
-38.933
-38.498
-38.056
-37.612
-37.169
-36.729
-36.295
-35.87
-35.455
-35.051
-34.661
-34.286
-33.927
-33.584
-33.259
-32.95
-32.657
-32.38
-32.118
-31.868
-31.629
-31.4
-31.178
-30.963
-30.754
-30.549
-30.348
-30.151
-29.957
-29.766
-29.58
-29.397
-29.219
-29.045
-28.878
-28.716
-28.563
-28.417
-28.281
-28.153
-28.035
-27.926
-27.825
-27.731
-27.642
-27.557
-27.476
-27.396
-27.318
-27.242
-27.168
-27.097
-27.03
-26.971
-26.918
-26.872
-26.834
-26.803
-26.779
-26.761
-26.745
-26.73
-26.713
-26.695
-26.676
-26.657
-26.638
-26.619
-26.604
-26.595
-26.596
-26.609
-26.632
-26.667
-26.718
-26.792
-26.9
-27.049
-27.241
-27.475
-27.75
-28.065
-28.412
-28.775
-29.129
-29.454
-29.734
-29.969
-30.166
-30.331
-30.472
-30.592
-30.696
-30.799
-30.923
-31.083
-31.289
-31.557
-31.91
-32.392
-33.068
-33.993
-35.199
-36.692
-38.455
-40.466
-42.691
-45.091
-47.618
-50.201
-52.775
-55.289
-57.705
-59.993
-62.109
-63.978
-65.493
-66.554
-67.091
-67.068
-66.481
-65.341
-63.676
-61.527
-58.953
-56.04
-52.866
-49.488
-45.941
-42.24
-38.404
-34.501
-30.638
-26.933
-23.49
-20.371
-17.616
-15.252
-13.293
-11.748
-10.609
-9.835
-9.388
-9.256
-9.449
-10.009
-10.98
-12.352
-14.066
-16.038
-18.189
-20.477
-22.872
-25.349
-27.891
-30.465
-33.04
-35.62
-38.185
-40.717
-43.216
-45.618
-47.853
-49.902
-51.741
-53.441
-55.192
-56.978
-58.622
-59.951
-60.696
-60.833
-60.682
-60.3
-59.488
-58.434
-57.707
-58.196
-61.105
-66.856
-74.856
-84.548
-95.671
-107.759
-119.343
-127.931
-130.829
-125.944
-114.224
-99.082
-80.878
-58.805
-31.199
6.119
47.807
81.922
98.016
83.978
40.326
-20.415
-86.666
-144.556
-187.336
-216.844
-232.306
-233.446
-218.618
-182.989
-125.166
-46.559
50.173
159.85
275.4
389.37
494.637
585.492
661.21
723.644
772.872
805.217
808.674
770.464
682.436
542.932
368.004
180.318
5.252
-127.896
-207.866
-235.541
-221.2
-188.226
-150.873
-115.288
-83.11
-48.892
-12.969
19.878
44.817
55.984
51.871
35.081
8.969
-21.518
-51.473
-77.939
-98.483
-111.548
-117.021
-115.475
-108.178
-97.362
-85.482
-74.174
-64.604
-57.436
-52.719
-50.399
-50.217
-51.532
-53.586
-55.888
-58.155
-60.27
-62.271
-64.109
-65.691
-66.985
-67.998
-68.729
-69.157
-69.242
-68.927
-68.196
-67.084
-65.638
-63.914
-61.958
-59.806
-57.495
-55.072
-52.591
-50.107
-47.677
-45.34
-43.122
-41.045
-39.122
-37.355
-35.742
-34.265
-32.902
-31.631
-30.439
-29.313
-28.24
-27.207
-26.194
-25.184
-24.161
-23.111
-22.018
-20.863
-19.629
-18.304
-16.876
-15.338
-13.684
-11.895
-9.949
-7.833
-5.536
-3.056
-0.401
2.423
5.404
8.527
11.774
15.122
18.543
22.028
25.571
29.18
32.872
36.627
40.408
44.184
47.906
51.58
55.265
59.002
62.825
66.76
70.781
74.935
79.393
84.143
88.99
93.711
97.96
101.647
105.087
108.411
111.447
114.27
117.202
120.653
125.466
131.992
139.468
147.257
155.044
162.122
167.678
170.827
169.857
163.487
152.221
136.682
117.409
95.862
73.393
51.329
32.204
18.398
10.469
8.815
13.72
23.893
38.22
55.728
73.869
90.067
102.986
110.948
112.358
107.375
95.956
77.895
54.878
28.599
0.181
-28.094
-53.936
-76.286
-93.581
-104.16
-108.21
-105.837
-96.94
-83.079
-65.784
-46.178
-26.534
-9.225
4.617
13.748
16.912
14.281
5.863
-8.185
-26.082
-45.728
-65.373
-83.252
-97.877
-108.536
-114.277
-114.337
-109.396
-100.747
-90.005
-78.66
-67.681
-57.731
-49.644
-44.292
-41.806
-41.681
-42.936
-44.727
-46.69
-48.639
-50.368
-51.512
-51.834
-51.446
-50.737
-50.046
-49.482
-49.016
-48.553
-48.098
-47.724
-47.43
-47.154
-46.823
-46.397
-45.894
-45.376
-44.887
-44.441
-44.036
-43.66
-43.311
-42.999
-42.729
-42.502
-42.312
-42.147
-41.999
-41.861
-41.729
-41.598
-41.461
-41.307
-41.126
-40.914
-40.669
-40.396
-40.096
-39.771
-39.419
-39.038
-38.629
-38.194
-37.734
-37.249
-36.74
-36.207
-35.651
-35.076
-34.484
-33.877
-33.258
-32.629
-31.993
-31.353
-30.714
-30.08
-29.455
-28.843
-28.248
-27.675
-27.127
-26.609
-26.124
-25.674
-25.262
-24.892
-24.566
-24.286
-24.054
-23.871
-23.739
-23.659
-23.632
-23.66
-23.743
-23.88
-24.074
-24.322
-24.627
-24.985
-25.397
-25.859
-26.369
-26.924
-27.52
-28.151
-28.811
-29.497
-30.202
-30.922
-31.653
-32.388
-33.124
-33.856
-34.583
-35.298
-35.996
-36.669
-37.31
-37.914
-38.471
-38.974
-39.414
-39.782
-40.072
-40.282
-40.406
-40.439
-40.372
-40.196
-39.903
-39.495
-38.973
-38.34
-37.602
-36.767
-35.853
-34.888
-33.898
-32.901
-31.902
-30.899
-29.894
-28.889
-27.892
-26.908
-25.928
-24.939
-23.937
-22.92
-21.889
-20.828
-19.705
-18.463
-17.063
-15.488
-13.746
-11.861
-9.855
-7.752
-5.59
-3.422
-1.324
0.636
2.415
3.982
5.301
6.317
6.939
7.062
6.607
5.532
3.821
1.477
-1.491
-5.049
-9.122
-13.602
-18.358
-23.276
-28.28
-33.304
-38.262
-43.042
-47.502
-51.498
-54.926
-57.714
-59.811
-61.188
-61.834
-61.78
-61.112
-59.964
-58.494
-56.848
-55.149
-53.514
-52.07
-51.008
-50.595
-51.002
-52.227
-54.102
-56.282
-58.423
-60.283
-61.515
-61.523
-59.89
-56.646
-52.294
-47.964
-44.807
-43.4
-44.212
-47.938
-54.902
-64.589
-75.523
-84.877
-89.339
-86.399
-73.741
-48.753
-9.236
46
116.673
200.352
292.908
390.091
487.158
578.059
655.998
714.327
747.384
753.193
733.933
691.943
628.796
542.343
428.845
292.068
145.269
12.178
-82.615
-127.848
-128.565
-104.288
-76.112
-55.823
-44.854
-37.025
-28.003
-18.035
-9.837
-7.511
-12.012
-21.338
-33.244
-44.963
-54.405
-60.962
-64.367
-64.776
-62.959
-59.711
-55.778
-52.006
-49.082
-47.309
-46.798
-47.48
-49.113
-51.504
-54.482
-57.852
-61.434
-65.095
-68.731
-72.251
-75.58
-78.618
-81.252
-83.402
-85.027
-86.112
-86.668
-86.719
-86.296
-85.438
-84.201
-82.633
-80.777
-78.68
-76.384
-73.937
-71.395
-68.81
-66.237
-63.714
-61.265
-58.904
-56.633
-54.447
-52.339
-50.293
-48.292
-46.32
-44.367
-42.421
-40.473
-38.512
-36.526
-34.501
-32.424
-30.283
-28.066
-25.766
-23.372
-20.877
-18.277
-15.565
-12.74
-9.798
-6.733
-3.544
-0.228
3.218
6.791
10.492
14.317
18.261
22.319
26.481
30.738
35.078
39.491
43.963
48.48
53.028
57.59
62.153
66.699
71.211
75.675
80.071
84.382
88.592
92.682
96.634
100.43
104.053
107.485
110.709
113.709
116.47
118.977
121.217
123.178
124.85
126.224
127.292
128.048
128.489
128.611
128.415
127.901
127.072
125.932
124.486
122.743
120.708
118.393
115.807
112.961
109.867
106.538
102.988
99.231
95.283
91.16
86.879
82.457
77.912
73.263
68.529
63.728
58.879
54.002
49.114
44.233
39.377
34.561
29.803
25.116
20.515
16.013
11.623
7.354
3.217
-0.779
-4.626
-8.318
-11.849
-15.214
-18.41
-21.433
-24.283
-26.957
-29.455
-31.778
-33.928
-35.907
-37.717
-39.365
-40.853
-42.19
-43.379
-44.43
-45.348
-46.142
-46.82
-47.388
-47.856
-48.23
-48.519
-48.73
-48.87
-48.947
-48.968
-48.94
-48.868
-48.758
-48.616
-48.447
-48.254
-48.041
-47.813
-47.572
-47.321
-47.063
-46.799
-46.531
-46.262
-45.991
-45.719
-45.447
-45.173
-44.898
-44.62
-44.338
-44.051
-43.757
-43.457
-43.148
-42.83
-42.502
-42.163
-41.811
-41.447
-41.07
-40.678
-40.271
-39.85
-39.414
-38.963
-38.499
-38.022
-37.533
-37.033
-36.524
-36.008
-35.484
-34.956
-34.425
-33.892
-33.359
-32.829
-32.304
-31.785
-31.276
-30.778
-30.293
-29.824
-29.372
-28.938
-28.524
-28.131
-27.76
-27.411
-27.087
-26.788
-26.515
-26.269
-26.051
-25.862
-25.701
-25.571
-25.469
-25.397
-25.355
-25.342
-25.358
-25.403
-25.478
-25.583
-25.717
-25.879
-26.071
-26.291
-26.539
-26.815
-27.117
-27.447
-27.803
-28.186
-28.597
-29.035
-29.501
-29.995
-30.516
-31.065
-31.641
-32.243
-32.868
-33.517
-34.187
-34.876
-35.581
-36.302
-37.035
-37.777
-38.526
-39.277
-40.027
-40.771
-41.505
-42.224
-42.923
-43.596
-44.238
-44.845
-45.412
-45.931
-46.398
-46.807
-47.151
-47.425
-47.621
-47.734
-47.756
-47.684
-47.511
-47.233
-46.848
-46.351
-45.74
-45.016
-44.176
-43.221
-42.151
-40.97
-39.679
-38.282
-36.786
-35.195
-33.516
-31.76
-29.936
-28.056
-26.134
-24.182
-22.217
-20.252
-18.304
-16.388
-14.52
-12.713
-10.983
-9.343
-7.81
-6.399
-5.129
-4.013
-3.067
-2.303
-1.734
-1.367
-1.207
-1.258
-1.519
-1.996
-2.701
-3.642
-4.829
-6.267
-7.957
-9.894
-12.062
-14.437
-16.977
-19.641
-22.382
-25.159
-27.935
-30.673
-33.335
-35.87
-38.218
-40.319
-42.119
-43.57
-44.631
-45.282
-45.542
-45.461
-45.132
-44.65
-44.088
-43.527
-43.062
-42.807
-42.888
-43.442
-44.558
-46.364
-49.068
-52.742
-57.327
-62.568
-67.875
-72.629
-76.361
-78.493
-78.378
-75.763
-70.728
-63.899
-56.836
-50.983
-47.277
-46.721
-50.032
-57.045
-66.857
-77.332
-84.503
-84.476
-74.164
-50.019
-8.963
50.365
128.309
221.728
322.869
426.237
527.72
624.128
716.38
797.302
853.351
872.893
843.387
766.511
658.266
534.016
411.129
299.291
197.464
107.458
31.294
-29.197
-69.996
-90.965
-95.416
-87.366
-71.601
-53.155
-36.275
-23.672
-16.814
-15.922
-20.015
-27.716
-37.61
-47.715
-56.023
-61.51
-63.785
-63.059
-60.113
-55.709
-50.538
-45.473
-41.354
-38.616
-37.427
-37.718
-39.22
-41.729
-45.072
-49.026
-53.357
-57.876
-62.433
-66.899
-71.18
-75.147
-78.659
-81.619
-83.964
-85.67
-86.742
-87.203
-87.084
-86.432
-85.313
-83.786
-81.909
-79.742
-77.338
-74.76
-72.076
-69.351
-66.646
-64.009
-61.469
-59.043
-56.739
-54.552
-52.475
-50.491
-48.581
-46.728
-44.918
-43.137
-41.373
-39.612
-37.836
-36.028
-34.172
-32.252
-30.255
-28.169
-25.983
-23.688
-21.276
-18.74
-16.076
-13.277
-10.337
-7.249
-4.007
-0.607
2.953
6.676
10.562
14.608
18.81
23.163
27.657
32.282
37.028
41.88
46.824
51.844
56.921
62.037
67.171
72.304
77.412
82.474
87.466
92.365
97.148
101.791
106.272
110.566
114.652
118.508
122.111
125.443
128.484
131.215
133.622
135.688
137.4
138.747
139.72
140.311
140.516
140.33
139.755
138.791
137.441
135.712
133.612
131.151
128.34
125.192
121.723
117.949
113.888
109.559
104.983
100.18
95.174
89.985
84.639
79.159
73.57
67.895
62.159
56.387
50.601
44.827
39.085
33.399
27.789
22.275
16.876
11.609
6.491
1.536
-3.242
-7.833
-12.225
-16.41
-20.382
-24.136
-27.666
-30.972
-34.051
-36.904
-39.532
-41.939
-44.127
-46.102
-47.87
-49.437
-50.812
-52.003
-53.019
-53.87
-54.566
-55.119
-55.538
-55.835
-56.021
-56.106
-56.102
-56.019
-55.867
-55.657
-55.398
-55.098
-54.766
-54.41
-54.037
-53.653
-53.264
-52.875
-52.49
-52.113
-51.748
-51.398
-51.064
-50.749
-50.454
-50.18
-49.928
-49.696
-49.485
-49.294
-49.121
-48.965
-48.825
-48.699
-48.585
-48.481
-48.384
-48.294
-48.206
-48.121
-48.034
-47.945
-47.852
-47.753
-47.647
-47.533
-47.409
-47.277
-47.134
-46.981
-46.818
-46.645
-46.462
-46.27
-46.069
-45.859
-45.642
-45.418
-45.188
-44.952
-44.712
-44.469
-44.223
-43.975
-43.727
-43.48
-43.234
-42.99
-42.75
-42.515
-42.286
-42.064
-41.851
-41.648
-41.456
-41.276
-41.11
-40.958
-40.822
-40.702
-40.599
-40.514
-40.448
-40.402
-40.375
-40.37
-40.386
-40.424
-40.486
-40.57
-40.679
-40.813
-40.973
-41.16
-41.375
-41.618
-41.891
-42.194
-42.529
-42.895
-43.294
-43.725
-44.188
-44.683
-45.209
-45.766
-46.353
-46.968
-47.609
-48.276
-48.965
-49.675
-50.403
-51.146
-51.902
-52.668
-53.439
-54.214
-54.988
-55.759
-56.52
-57.269
-58.001
-58.711
-59.393
-60.043
-60.656
-61.225
-61.745
-62.21
-62.615
-62.955
-63.224
-63.416
-63.526
-63.551
-63.484
-63.323
-63.065
-62.706
-62.243
-61.677
-61.004
-60.225
-59.341
-58.351
-57.258
-56.064
-54.771
-53.384
-51.907
-50.346
-48.706
-46.997
-45.227
-43.406
-41.544
-39.654
-37.748
-35.841
-33.945
-32.076
-30.246
-28.47
-26.762
-25.138
-23.61
-22.192
-20.899
-19.745
-18.746
-17.914
-17.261
-16.791
-16.511
-16.425
-16.538
-16.856
-17.384
-18.123
-19.074
-20.242
-21.626
-23.225
-25.026
-26.998
-29.109
-31.325
-33.614
-35.95
-38.304
-40.64
-42.921
-45.104
-47.15
-49.025
-50.697
-52.119
-53.262
-54.098
-54.636
-54.944
-55.1
-55.18
-55.254
-55.353
-55.526
-55.866
-56.48
-57.484
-59.002
-61.089
-63.848
-67.492
-72.084
-77.519
-83.474
-89.219
-93.989
-97.236
-98.329
-96.586
-91.832
-84.297
-74.804
-65.246
-57.5
-52.935
-52.988
-58.645
-69.647
-84.72
-101.209
-114.488
-119.773
-112.783
-88.957
-44.785
21.277
108.909
215.089
333.804
458.04
579.884
689.87
779.043
839.6
867.126
861.885
825.566
760.098
664.588
537.536
385.153
222.023
71.261
-43.383
-111.254
-136.26
-134.405
-123.826
-113.997
-106.205
-96.28
-81.599
-64.596
-49.399
-40.092
-38.09
-41.93
-49.405
-58.237
-66.42
-72.371
-75.268
-75.012
-72.016
-67.131
-61.235
-55.051
-49.356
-44.88
-41.973
-40.722
-41.012
-42.542
-45.067
-48.4
-52.302
-56.541
-60.929
-65.285
-69.47
-73.372
-76.853
-79.803
-82.158
-83.868
-84.929
-85.363
-85.195
-84.472
-83.254
-81.597
-79.559
-77.198
-74.569
-71.739
-68.777
-65.751
-62.728
-59.756
-56.866
-54.08
-51.407
-48.845
-46.387
-44.017
-41.715
-39.467
-37.26
-35.084
-32.93
-30.784
-28.633
-26.462
-24.259
-22.011
-19.71
-17.348
-14.918
-12.416
-9.84
-7.188
-4.459
-1.65
1.242
4.221
7.29
10.452
13.709
17.062
20.511
24.057
27.696
31.425
35.238
39.131
43.099
47.132
51.224
55.363
59.539
63.741
67.955
72.166
76.359
80.518
84.629
88.675
92.641
96.513
100.276
103.916
107.421
110.777
113.968
116.98
119.796
122.4
124.777
126.909
128.784
130.388
131.708
132.737
133.47
133.898
134.017
133.816
133.286
132.422
131.223
129.693
127.837
125.67
123.209
120.486
117.533
114.373
111.026
107.504
103.804
99.933
95.891
91.678
87.307
82.785
78.118
73.32
68.398
63.348
58.156
52.79
47.206
41.388
35.337
29.066
22.618
16.039
9.387
2.739
-3.843
-10.308
-16.602
-22.695
-28.553
-34.122
-39.345
-44.143
-48.422
-52.123
-55.209
-57.654
-59.477
-60.707
-61.396
-61.633
-61.496
-61.043
-60.328
-59.386
-58.248
-56.964
-55.587
-54.178
-52.818
-51.567
-50.472
-49.575
-48.889
-48.41
-48.118
-47.96
-47.891
-47.883
-47.915
-47.98
-48.079
-48.201
-48.34
-48.49
-48.633
-48.754
-48.843
-48.883
-48.873
-48.817
-48.729
-48.635
-48.56
-48.516
-48.512
-48.55
-48.625
-48.736
-48.874
-49.026
-49.186
-49.345
-49.498
-49.644
-49.778
-49.893
-49.98
-50.032
-50.038
-49.991
-49.886
-49.72
-49.49
-49.196
-48.839
-48.424
-47.954
-47.433
-46.864
-46.249
-45.592
-44.896
-44.164
-43.4
-42.608
-41.792
-40.958
-40.111
-39.257
-38.402
-37.553
-36.715
-35.895
-35.099
-34.332
-33.6
-32.908
-32.261
-31.664
-31.119
-30.631
-30.203
-29.836
-29.533
-29.294
-29.12
-29.012
-28.968
-28.987
-29.069
-29.211
-29.412
-29.669
-29.981
-30.346
-30.76
-31.221
-31.727
-32.274
-32.858
-33.476
-34.124
-34.799
-35.495
-36.21
-36.938
-37.676
-38.419
-39.163
-39.903
-40.636
-41.358
-42.064
-42.752
-43.416
-44.054
-44.662
-45.236
-45.775
-46.273
-46.728
-47.137
-47.495
-47.802
-48.052
-48.243
-48.373
-48.439
-48.438
-48.367
-48.224
-48.006
-47.712
-47.338
-46.884
-46.347
-45.728
-45.024
-44.236
-43.363
-42.407
-41.368
-40.248
-39.049
-37.773
-36.423
-35.004
-33.52
-31.976
-30.378
-28.734
-27.052
-25.342
-23.615
-21.883
-20.157
-18.449
-16.773
-15.141
-13.563
-12.052
-10.619
-9.274
-8.031
-6.903
-5.904
-5.045
-4.338
-3.794
-3.423
-3.234
-3.229
-3.41
-3.779
-4.34
-5.103
-6.079
-7.274
-8.693
-10.335
-12.194
-14.259
-16.509
-18.911
-21.428
-24.023
-26.657
-29.306
-31.939
-34.525
-37.023
-39.378
-41.536
-43.451
-45.085
-46.402
-47.388
-48.049
-48.419
-48.573
-48.586
-48.518
-48.447
-48.445
-48.607
-49.044
-49.858
-51.148
-53.044
-55.714
-59.236
-63.557
-68.451
-73.502
-78.268
-82.366
-85.382
-86.757
-86.125
-83.556
-79.513
-74.993
-71.058
-68.307
-67.187
-68.326
-71.993
-77.62
-83.837
-88.141
-87.52
-79.601
-62.355
-33.727
8.273
64.87
135.641
218.624
308.831
399.233
485.761
565.059
635.027
697.577
746.644
771.909
766.584
720.574
635.185
520.675
383.669
238.666
99.561
-21.288
-107.355
-152.801
-162.704
-149.266
-128.436
-109.981
-95.328
-81.177
-65.486
-49.12
-34.839
-26.334
-24.473
-27.624
-33.991
-41.117
-46.784
-50.227
-51.142
-49.585
-46.301
-42.01
-37.262
-32.828
-29.469
-27.535
-27.156
-28.25
-30.485
-33.592
-37.374
-41.578
-45.964
-50.335
-54.51
-58.347
-61.757
-64.658
-66.989
-68.715
-69.817
-70.3
-70.191
-69.537
-68.399
-66.836
-64.904
-62.657
-60.143
-57.424
-54.566
-51.637
-48.702
-45.81
-42.994
-40.278
-37.682
-35.213
-32.87
-30.64
-28.504
-26.45
-24.469
-22.552
-20.694
-18.884
-17.112
-15.364
-13.631
-11.903
-10.169
-8.42
-6.646
-4.838
-2.989
-1.093
0.854
2.862
4.938
7.09
9.324
11.648
14.069
16.602
19.255
22.029
24.925
27.938
31.062
34.289
37.603
40.98
44.398
47.833
51.266
54.685
58.076
61.426
64.72
67.938
71.076
74.142
77.146
80.102
83.024
85.927
88.838
91.808
94.876
98.073
101.426
104.943
108.633
112.504
116.547
120.743
125.048
129.39
133.692
137.871
141.84
145.52
148.811
151.587
153.735
155.154
155.74
155.408
154.076
151.663
148.13
143.47
137.708
130.906
123.149
114.533
105.164
95.145
84.59
73.64
62.445
51.156
39.953
29.016
18.522
8.656
-0.441
-8.66
-15.916
-22.168
-27.405
-31.633
-34.863
-37.109
-38.372
-38.674
-38.079
-36.673
-34.587
-31.974
-28.989
-25.802
-22.574
-19.451
-16.56
-13.994
-11.806
-10.038
-8.733
-7.943
-7.746
-8.199
-9.315
-11.076
-13.427
-16.291
-19.584
-23.201
-27.02
-30.911
-34.765
-38.507
-42.092
-45.489
-48.655
-51.537
-54.064
-56.184
-57.872
-59.119
-59.934
-60.335
-60.35
-60.026
-59.435
-58.66
-57.764
-56.787
-55.75
-54.666
-53.554
-52.443
-51.36
-50.322
-49.34
-48.423
-47.578
-46.814
-46.132
-45.52
-44.953
-44.403
-43.85
-43.287
-42.711
-42.124
-41.526
-40.914
-40.294
-39.672
-39.054
-38.442
-37.837
-37.234
-36.635
-36.043
-35.466
-34.909
-34.376
-33.868
-33.388
-32.936
-32.513
-32.116
-31.743
-31.389
-31.052
-30.728
-30.417
-30.118
-29.831
-29.554
-29.287
-29.03
-28.783
-28.545
-28.318
-28.101
-27.894
-27.697
-27.513
-27.343
-27.187
-27.048
-26.928
-26.83
-26.756
-26.708
-26.69
-26.703
-26.75
-26.834
-26.958
-27.122
-27.33
-27.584
-27.885
-28.235
-28.635
-29.085
-29.587
-30.141
-30.744
-31.397
-32.097
-32.842
-33.629
-34.454
-35.313
-36.199
-37.109
-38.036
-38.974
-39.915
-40.854
-41.783
-42.696
-43.585
-44.442
-45.261
-46.034
-46.752
-47.408
-47.996
-48.509
-48.94
-49.282
-49.532
-49.683
-49.732
-49.675
-49.507
-49.227
-48.832
-48.32
-47.691
-46.944
-46.079
-45.099
-44.008
-42.81
-41.512
-40.12
-38.644
-37.095
-35.483
-33.82
-32.115
-30.378
-28.62
-26.853
-25.087
-23.335
-21.608
-19.921
-18.285
-16.717
-15.234
-13.847
-12.563
-11.39
-10.329
-9.388
-8.577
-7.906
-7.386
-7.036
-6.873
-6.928
-7.227
-7.781
-8.594
-9.661
-10.969
-12.514
-14.291
-16.284
-18.49
-20.896
-23.475
-26.206
-29.05
-31.934
-34.774
-37.463
-39.883
-41.954
-43.614
-44.807
-45.502
-45.663
-45.269
-44.335
-42.87
-40.889
-38.448
-35.597
-32.426
-29.087
-25.733
-22.565
-19.83
-17.736
-16.477
-16.239
-17.128
-19.278
-22.878
-27.926
-34.29
-41.69
-49.565
-57.393
-64.799
-71.224
-75.976
-78.686
-79.268
-78.148
-76.529
-75.472
-75.577
-77.52
-81.876
-88.584
-96.929
-105.15
-110.015
-108.207
-96.944
-73.446
-35.317
18.898
89.447
174.854
271.282
373.698
476.667
573.847
658.336
723.395
763.272
775.09
759.753
719.67
657.027
571.087
460.248
328.468
187.196
56.966
-41.043
-96.292
-111.684
-102.785
-86.657
-73.606
-65.749
-58.567
-49.515
-39.37
-30.452
-26.545
-28.609
-34.954
-43.86
-52.893
-59.853
-64.007
-65.028
-62.939
-58.477
-52.397
-45.341
-38.182
-31.761
-26.515
-22.689
-20.321
-19.193
-19.135
-19.991
-21.543
-23.58
-25.939
-28.488
-31.124
-33.775
-36.351
-38.768
-40.956
-42.854
-44.406
-45.546
-46.235
-46.469
-46.258
-45.644
-44.666
-43.354
-41.748
-39.893
-37.842
-35.642
-33.331
-30.921
-28.417
-25.838
-23.215
-20.597
-18.018
-15.489
-13.013
-10.588
-8.215
-5.9
-3.638
-1.411
0.798
3.001
5.2
7.386
9.548
11.69
13.824
15.972
18.152
20.374
22.649
24.987
27.403
29.909
32.513
35.21
37.999
40.882
43.864
46.95
50.147
53.45
56.858
60.363
63.96
67.642
71.401
75.228
79.11
83.039
87.007
91.004
95.023
99.05
103.071
107.069
111.03
114.936
118.769
122.508
126.133
129.628
132.976
136.158
139.156
141.945
144.504
146.818
148.875
150.665
152.182
153.423
154.391
155.099
155.563
155.796
155.812
155.608
155.18
154.529
153.652
152.553
151.225
149.645
147.786
145.629
143.151
140.331
137.141
133.523
129.432
124.835
119.707
114.058
107.908
101.282
94.212
86.751
78.966
70.957
62.837
54.7
46.633
38.726
31.074
23.803
17.031
10.846
5.324
0.503
-3.595
-6.954
-9.573
-11.488
-12.759
-13.475
-13.751
-13.67
-13.305
-12.732
-12.026
-11.285
-10.604
-10.048
-9.667
-9.496
-9.556
-9.873
-10.459
-11.291
-12.333
-13.53
-14.808
-16.123
-17.442
-18.73
-19.96
-21.097
-22.108
-22.98
-23.711
-24.298
-24.741
-25.036
-25.181
-25.194
-25.098
-24.919
-24.694
-24.441
-24.175
-23.909
-23.65
-23.405
-23.178
-22.966
-22.758
-22.55
-22.34
-22.124
-21.904
-21.675
-21.429
-21.161
-20.866
-20.538
-20.176
-19.778
-19.343
-18.871
-18.365
-17.828
-17.264
-16.678
-16.073
-15.449
-14.81
-14.158
-13.493
-12.82
-12.139
-11.453
-10.765
-10.079
-9.397
-8.725
-8.067
-7.424
-6.803
-6.205
-5.636
-5.097
-4.591
-4.122
-3.691
-3.301
-2.952
-2.647
-2.387
-2.171
-2
-1.873
-1.79
-1.75
-1.751
-1.794
-1.877
-1.998
-2.156
-2.352
-2.583
-2.849
-3.15
-3.485
-3.851
-4.25
-4.679
-5.137
-5.623
-6.137
-6.677
-7.243
-7.833
-8.446
-9.084
-9.744
-10.427
-11.132
-11.858
-12.605
-13.374
-14.163
-14.972
-15.801
-16.649
-17.517
-18.402
-19.305
-20.224
-21.156
-22.101
-23.055
-24.016
-24.979
-25.941
-26.898
-27.845
-28.779
-29.692
-30.581
-31.44
-32.263
-33.044
-33.776
-34.454
-35.071
-35.62
-36.095
-36.491
-36.801
-37.021
-37.145
-37.169
-37.089
-36.902
-36.606
-36.198
-35.676
-35.042
-34.296
-33.439
-32.476
-31.409
-30.245
-28.993
-27.66
-26.258
-24.797
-23.29
-21.752
-20.195
-18.636
-17.087
-15.564
-14.082
-12.656
-11.303
-10.04
-8.883
-7.85
-6.957
-6.221
-5.656
-5.276
-5.088
-5.1
-5.319
-5.752
-6.413
-7.31
-8.449
-9.834
-11.469
-13.351
-15.472
-17.81
-20.329
-22.993
-25.763
-28.604
-31.485
-34.372
-37.224
-40.003
-42.655
-45.136
-47.412
-49.441
-51.191
-52.635
-53.768
-54.633
-55.309
-55.876
-56.411
-56.968
-57.599
-58.397
-59.464
-60.895
-62.791
-65.198
-68.18
-71.887
-76.367
-81.528
-87.119
-92.607
-97.426
-101.171
-103.345
-103.338
-100.839
-95.846
-88.85
-81.098
-73.79
-67.745
-63.894
-63.105
-65.623
-70.917
-77.259
-81.587
-80.816
-72.096
-52.218
-18.112
32.491
98.959
177.367
262.886
351.402
442.951
538.871
634.513
718.89
775.232
788.312
753.464
676.449
568.882
441.06
302.452
163.546
38.186
-56.216
-110.237
-127.171
-120.597
-107.234
-97.401
-92.141
-86.439
-77.623
-66.804
-57.07
-52.792
-55.184
-62.579
-73.182
-84.671
-94.72
-102.356
-107.171
-109.023
-108.585
-106.666
-103.878
-101.003
-98.862
-97.852
-98.115
-99.649
-102.14
-105.291
-108.902
-112.706
-116.462
-120.029
-123.276
-126.1
-128.456
-130.269
-131.469
-132.059
-132.047
-131.459
-130.361
-128.821
-126.942
-124.875
-122.757
-120.699
-118.789
-117.077
-115.609
-114.443
-113.608
-113.112
-112.939
-113.026
-113.324
-113.8
-114.407
-115.094
-115.788
-116.384
-116.798
-116.975
-116.874
-116.472
-115.752
-114.687
-113.281
-111.562
-109.574
-107.381
-105.025
-102.529
-99.916
-97.209
-94.439
-91.646
-88.856
-86.077
-83.318
-80.586
-77.888
-75.235
-72.624
-70.035
-67.445
-64.83
-62.175
-59.479
-56.742
-53.966
-51.159
-48.33
-45.492
-42.668
-39.873
-37.121
-34.423
-31.79
-29.238
-26.789
-24.465
