Name
Date of Birth,"Mar 27, 1959"
Recorded Date,2020-07-19 18:10:26 -0500
Classification,Sinus Rhythm
Symptoms,
Software Version,1.90
Device,"Watch4,2"
Sample Rate,510.227 hertz


Lead,Lead I
Unit,µV

-259.876
-346.324
-337.122
-304.026
-297.747
-299.501
-300.036
-312.992
-336.232
-358.728
-375.786
-386.347
-391.78
-394.471
-395.199
-393.961
-390.737
-385.489
-378.638
-370.792
-362.343
-353.594
-344.838
-336.283
-328.055
-320.224
-312.818
-305.857
-299.395
-293.5
-288.188
-283.438
-279.212
-275.443
-272.045
-268.915
-265.921
-262.913
-259.76
-256.34
-252.567
-248.391
-243.771
-238.684
-233.107
-227.01
-220.383
-213.234
-205.583
-197.466
-188.93
-180.022
-170.817
-161.404
-151.874
-142.314
-132.795
-123.357
-114.04
-104.875
-95.892
-87.125
-78.598
-70.321
-62.309
-54.57
-47.111
-39.94
-33.049
-26.421
-20.037
-13.872
-7.911
-2.147
3.427
8.817
14.027
19.062
23.926
28.615
33.133
37.486
41.68
45.725
49.625
53.385
57.008
60.498
63.86
67.1
70.225
73.242
76.16
78.987
81.733
84.41
87.027
89.593
92.115
94.602
97.062
99.503
101.933
104.36
106.791
109.233
111.693
114.178
116.694
119.244
121.833
124.463
127.138
129.862
132.638
135.47
138.36
141.313
144.333
147.421
150.584
153.823
157.139
160.533
164.009
167.568
171.216
174.955
178.781
182.689
186.674
190.723
194.825
198.96
203.107
207.24
211.34
215.389
219.374
223.281
227.099
230.815
234.415
237.892
241.25
244.496
247.642
250.702
253.692
256.64
259.579
262.538
265.534
268.576
271.66
274.78
277.921
281.063
284.185
287.243
290.188
292.963
295.503
297.742
299.622
301.072
302.022
302.421
302.234
301.45
300.074
298.115
295.6
292.571
289.077
285.195
281.007
276.599
272.073
267.526
263.041
258.716
254.626
250.814
247.296
244.047
241.022
238.185
235.491
232.901
230.365
227.801
225.14
222.319
219.253
215.897
212.154
207.846
202.954
197.589
192.027
186.839
182.558
179.59
178.521
179.923
183.952
190.634
199.263
208.22
216.208
221.881
224.401
224.569
223.545
222.469
221.494
218.462
212.268
205.225
204.868
224.082
272.413
351.898
456.279
571.635
686.37
794.916
893.72
978.882
1042.507
1070.554
1050.614
979.039
859.128
703.837
532.954
364.869
218.028
107.691
40.23
15.735
28.31
65.088
112.73
158.925
191.4
205.804
203.819
191.154
178.986
173.116
173.777
178.932
182.804
183.333
182.202
180.876
181.483
184.587
189.072
194.144
199.157
203.488
206.787
208.917
209.858
209.801
209.065
207.864
206.332
204.642
202.967
201.456
200.253
199.441
199.054
199.142
199.737
200.838
202.412
204.376
206.632
209.088
211.659
214.266
216.84
219.305
221.603
223.687
225.524
227.096
228.388
229.388
230.1
230.54
230.753
230.821
230.822
230.827
230.909
231.128
231.557
232.284
233.378
234.881
236.824
239.217
242.073
245.421
249.277
253.643
258.499
263.795
269.492
275.561
281.971
288.681
295.626
302.71
309.848
316.98
324.056
331.041
337.893
344.544
350.941
357.051
362.854
368.352
373.53
378.345
382.75
386.711
390.22
393.293
395.95
398.196
400.011
401.373
402.271
402.714
402.716
402.287
401.391
399.972
398.043
395.638
392.807
389.599
385.995
381.939
377.445
372.559
367.183
361.2
354.695
347.649
340.029
332.119
323.161
312.44
301.091
289.474
279.617
273.956
269.88
265.686
258.797
245.634
229.458
213.032
198.287
188.387
181.205
174.597
168.121
160.444
152.387
144.993
138.087
131.803
126.05
120.569
115.455
110.791
106.522
102.631
99.1
95.881
92.92
90.158
87.536
85.007
82.556
80.169
77.836
75.556
73.351
71.262
69.317
67.532
65.91
64.442
63.129
61.978
60.991
60.17
59.514
59.018
58.679
58.494
58.453
58.539
58.728
58.985
59.283
59.606
59.939
60.273
60.602
60.916
61.211
61.488
61.745
61.979
62.187
62.362
62.502
62.605
62.673
62.708
62.712
62.685
62.627
62.54
62.42
62.269
62.083
61.858
61.593
61.286
60.935
60.539
60.098
59.611
59.076
58.494
57.861
57.178
56.441
55.649
54.8
53.894
52.93
51.907
50.826
49.69
48.501
47.26
45.97
44.635
43.258
41.844
40.395
38.914
37.408
35.881
34.341
32.793
31.244
29.702
28.174
26.668
25.193
23.757
22.365
21.025
19.747
18.541
17.422
16.4
15.479
14.661
13.946
13.329
12.803
12.354
11.958
11.594
11.245
10.898
10.545
10.177
9.777
9.326
8.806
8.209
7.537
6.796
5.994
5.15
4.293
3.47
2.741
2.154
1.74
1.515
1.48
1.634
1.977
2.509
3.217
4.066
5.012
6.008
7.002
7.933
8.72
9.252
9.419
9.13
8.324
6.971
5.054
2.57
-0.479
-4.082
-8.203
-12.783
-17.767
-23.1
-28.725
-34.594
-40.633
-46.756
-52.909
-59.06
-65.206
-71.36
-77.512
-83.686
-89.937
-96.309
-102.878
-109.715
-116.799
-124.185
-131.99
-140.121
-148.408
-156.55
-163.976
-170.276
-175.176
-178.146
-178.735
-176.903
-172.856
-167.299
-161.259
-155.389
-150.27
-146.736
-145.418
-145.179
-143.284
-137.143
-124.042
-105.106
-84.968
-63.483
-38.765
-5.303
47.903
123.156
217.675
326.075
435.319
536.156
620.645
678.702
702.43
683.126
616.592
504.609
356.214
189.899
25.386
-115.926
-217.19
-275.622
-296.504
-294.076
-285.335
-277.838
-273.614
-269.861
-261.775
-250.277
-238.486
-229.291
-225.604
-227.295
-232.388
-239.205
-245.548
-249.474
-250.304
-247.86
-242.389
-234.689
-225.555
-215.684
-205.933
-197.127
-189.707
-183.884
-179.701
-177.005
-175.668
-175.582
-176.562
-178.406
-180.954
-184.06
-187.59
-191.438
-195.457
-199.484
-203.404
-207.115
-210.529
-213.566
-216.122
-218.096
-219.432
-220.108
-220.122
-219.491
-218.235
-216.377
-213.972
-211.081
-207.769
-204.098
-200.108
-195.827
-191.295
-186.557
-181.671
-176.704
-171.693
-166.657
-161.611
-156.569
-151.544
-146.546
-141.572
-136.612
-131.663
-126.733
-121.837
-116.989
-112.197
-107.454
-102.748
-98.07
-93.417
-88.797
-84.211
-79.648
-75.097
-70.554
-66.014
-61.48
-56.942
-52.371
-47.749
-43.068
-38.329
-33.558
-28.781
-24.019
-19.296
-14.64
-10.085
-5.687
-1.507
2.403
5.988
9.191
11.938
14.135
15.698
16.57
16.717
16.124
14.79
12.706
9.87
6.298
2.01
-2.957
-8.551
-14.732
-21.448
-28.626
-36.175
-43.974
-51.9
-59.861
-67.788
-75.623
-83.319
-90.825
-98.093
-105.088
-111.777
-118.129
-124.116
-129.706
-134.876
-139.632
-143.999
-148.028
-151.785
-155.311
-158.634
-161.772
-164.738
-167.546
-170.207
-172.728
-175.111
-177.374
-179.539
-181.631
-183.669
-185.655
-187.574
-189.4
-191.093
-192.624
-193.975
-195.131
-196.088
-196.844
-197.4
-197.763
-197.944
-197.945
-197.762
-197.389
-196.823
-196.07
-195.142
-194.059
-192.846
-191.525
-190.117
-188.641
-187.109
-185.532
-183.917
-182.269
-180.588
-178.879
-177.146
-175.398
-173.642
-171.882
-170.122
-168.364
-166.607
-164.853
-163.099
-161.346
-159.594
-157.844
-156.099
-154.362
-152.637
-150.928
-149.237
-147.568
-145.924
-144.305
-142.715
-141.156
-139.63
-138.139
-136.686
-135.274
-133.906
-132.586
-131.315
-130.097
-128.935
-127.832
-126.791
-125.815
-124.906
-124.067
-123.301
-122.61
-121.994
-121.455
-120.993
-120.608
-120.299
-120.063
-119.9
-119.805
-119.778
-119.815
-119.912
-120.066
-120.276
-120.537
-120.845
-121.195
-121.579
-121.99
-122.42
-122.859
-123.298
-123.726
-124.134
-124.512
-124.851
-125.145
-125.385
-125.561
-125.66
-125.67
-125.579
-125.381
-125.069
-124.641
-124.097
-123.442
-122.689
-121.855
-120.948
-119.971
-118.924
-117.799
-116.59
-115.292
-113.897
-112.407
-110.823
-109.144
-107.375
-105.521
-103.574
-101.524
-99.346
-97.006
-94.494
-91.809
-88.962
-85.987
-82.92
-79.802
-76.697
-73.654
-70.716
-67.931
-65.326
-62.931
-60.786
-58.935
-57.438
-56.368
-55.775
-55.691
-56.137
-57.107
-58.584
-60.536
-62.892
-65.585
-68.537
-71.674
-74.937
-78.27
-81.61
-84.889
-88.027
-90.933
-93.526
-95.74
-97.517
-98.819
-99.612
-99.893
-99.695
-99.091
-98.203
-97.159
-96.078
-95.066
-94.193
-93.55
-93.267
-93.457
-94.237
-95.706
-97.866
-100.806
-104.724
-109.606
-115.293
-121.405
-127.188
-132
-135.459
-136.968
-135.88
-132.067
-125.668
-117.433
-108.934
-101.448
-95.827
-93.129
-94.238
-97.998
-101.831
-102.89
-96.896
-83.225
-65.159
-41.8
-11.626
29.748
93.007
180.584
289.8
416.429
547.263
671.602
779.19
854.726
885.977
861.437
776.247
637.478
460.637
271.493
95.862
-46.567
-142.238
-193.117
-207.839
-195.226
-168.505
-134.973
-101.287
-78.457
-70.224
-77.553
-96.504
-115.293
-127.989
-132.932
-131.452
-129.751
-129.728
-130.371
-130.785
-128.65
-123.537
-116.637
-108.676
-100.63
-93.439
-87.34
-82.43
-78.738
-75.987
-73.97
-72.597
-71.714
-71.155
-70.796
-70.514
-70.236
-69.96
-69.651
-69.247
-68.676
-67.877
-66.836
-65.575
-64.127
-62.533
-60.827
-59.046
-57.24
-55.454
-53.722
-52.072
-50.512
-49.027
-47.609
-46.25
-44.946
-43.699
-42.489
-41.285
-40.058
-38.77
-37.38
-35.854
-34.153
-32.226
-30.034
-27.537
-24.695
-21.5
-17.939
-13.994
-9.658
-4.91
0.262
5.855
11.863
18.268
25.041
32.165
39.617
47.357
55.345
63.536
71.876
80.349
88.937
97.602
106.31
115.009
123.639
132.16
140.54
148.748
156.762
164.543
172.044
179.24
186.101
192.593
198.676
204.262
209.255
213.588
217.21
220.092
222.216
223.556
224.078
223.756
222.57
220.513
217.582
213.767
209.059
203.469
197.041
189.868
182.068
173.738
164.957
155.795
146.319
136.607
126.742
116.804
106.868
97.017
87.348
77.963
68.963
60.439
52.44
44.979
38.052
31.651
25.779
20.439
15.62
11.304
7.471
4.093
1.141
-1.43
-3.696
-5.733
-7.614
-9.413
-11.174
-12.926
-14.69
-16.478
-18.298
-20.158
-22.053
-23.977
-25.926
-27.89
-29.856
-31.799
-33.674
-35.441
-37.068
-38.523
-39.786
-40.848
-41.696
-42.332
-42.765
-43.004
-43.06
-42.948
-42.677
-42.259
-41.713
-41.057
-40.318
-39.52
-38.678
-37.81
-36.926
-36.038
-35.152
-34.275
-33.404
-32.539
-31.682
-30.833
-29.995
-29.171
-28.36
-27.562
-26.778
-26.007
-25.251
-24.513
-23.794
-23.097
-22.426
-21.783
-21.175
-20.605
-20.077
-19.592
-19.154
-18.763
-18.423
-18.134
-17.897
-17.714
-17.584
-17.509
-17.49
-17.527
-17.62
-17.768
-17.972
-18.231
-18.543
-18.907
-19.321
-19.783
-20.292
-20.845
-21.44
-22.073
-22.743
-23.446
-24.179
-24.938
-25.719
-26.517
-27.329
-28.147
-28.969
-29.787
-30.596
-31.389
-32.161
-32.906
-33.619
-34.294
-34.926
-35.51
-36.042
-36.518
-36.935
-37.287
-37.569
-37.778
-37.909
-37.958
-37.923
-37.797
-37.578
-37.26
-36.844
-36.326
-35.702
-34.967
-34.111
-33.132
-32.032
-30.815
-29.487
-28.058
-26.543
-24.961
-23.337
-21.698
-20.065
-18.453
-16.873
-15.338
-13.867
-12.481
-11.199
-10.031
-8.977
-8.032
-7.19
-6.43
-5.728
-5.037
-4.3
-3.475
-2.53
-1.449
-0.23
1.133
2.641
4.294
6.087
7.992
9.968
11.978
13.969
15.881
17.639
19.144
20.293
21.011
21.242
20.953
20.137
18.785
16.905
14.519
11.659
8.382
4.759
0.85
-3.269
-7.514
-11.805
-16.05
-20.184
-24.18
-28.027
-31.72
-35.245
-38.613
-41.885
-45.132
-48.427
-51.862
-55.463
-59.31
-63.631
-68.447
-73.601
-78.82
-83.497
-87.087
-89.345
-89.76
-87.624
-82.902
-75.913
-67.352
-58.804
-51.505
-46.05
-43.633
-45.577
-50.663
-56.025
-58.996
-55.42
-45.223
-32.738
-16.624
6.631
43.181
104.688
193.95
306.483
435.392
567.567
692.801
801.893
883.877
928.562
924.177
865.664
755.782
604.373
430.805
255.636
96.956
-30.648
-119.122
-168.947
-184.577
-171.417
-140.14
-99.192
-57.862
-30.378
-22.197
-33.852
-59.964
-86.145
-104.357
-112.145
-110.979
-107.951
-106.055
-104.848
-103.463
-99.515
-92.547
-83.834
-74.269
-64.912
-56.57
-49.362
-43.384
-38.664
-35.033
-32.417
-30.781
-30.062
-30.189
-31.068
-32.593
-34.65
-37.134
-39.928
-42.895
-45.894
-48.821
-51.614
-54.213
-56.581
-58.676
-60.417
-61.738
-62.578
-62.862
-62.558
-61.666
-60.189
-58.164
-55.636
-52.642
-49.238
-45.484
-41.416
-37.066
-32.464
-27.631
-22.621
-17.514
-12.384
-7.316
-2.367
2.444
7.092
11.561
15.85
19.963
23.931
27.819
31.675
35.528
39.41
43.341
47.364
51.555
55.983
60.703
65.758
71.17
76.968
83.197
89.894
97.072
104.711
112.751
121.132
129.812
138.744
147.876
157.141
166.442
175.692
184.822
193.77
202.457
210.788
218.636
225.854
232.323
237.946
242.645
246.368
249.059
250.666
251.158
250.519
248.743
245.822
241.732
236.439
229.946
222.288
213.543
203.834
193.286
182.022
170.174
157.857
145.175
132.245
119.169
106.039
92.96
80.048
67.436
55.288
43.752
32.934
22.909
13.703
5.318
-2.248
-9.021
-15.024
-20.281
-24.824
-28.689
-31.901
-34.506
-36.568
-38.171
-39.442
-40.51
-41.477
-42.421
-43.395
-44.427
-45.541
-46.751
-48.053
-49.444
-50.916
-52.461
-54.078
-55.764
-57.494
-59.236
-60.932
-62.512
-63.928
-65.146
-66.141
-66.905
-67.431
-67.718
-67.78
-67.638
-67.31
-66.813
-66.158
-65.353
-64.417
-63.372
-62.246
-61.073
-59.879
-58.68
-57.494
-56.331
-55.2
-54.106
-53.05
-52.024
-51.026
-50.055
-49.111
-48.196
-47.31
-46.451
-45.618
-44.809
-44.021
-43.257
-42.515
-41.795
-41.099
-40.427
-39.783
-39.169
-38.589
-38.042
-37.53
-37.054
-36.613
-36.207
-35.838
-35.503
-35.204
-34.939
-34.71
-34.515
-34.355
-34.231
-34.141
-34.087
-34.069
-34.088
-34.145
-34.24
-34.374
-34.547
-34.76
-35.013
-35.305
-35.637
-36.006
-36.413
-36.855
-37.331
-37.839
-38.375
-38.936
-39.52
-40.123
-40.741
-41.372
-42.011
-42.655
-43.302
-43.948
-44.59
-45.224
-45.844
-46.446
-47.026
-47.577
-48.094
-48.57
-48.996
-49.367
-49.677
-49.919
-50.083
-50.161
-50.139
-50.011
-49.772
-49.422
-48.959
-48.387
-47.71
-46.937
-46.088
-45.175
-44.207
-43.192
-42.133
-41.04
-39.926
-38.806
-37.692
-36.59
-35.497
-34.408
-33.319
-32.209
-31.053
-29.816
-28.453
-26.935
-25.251
-23.396
-21.374
-19.191
-16.846
-14.352
-11.731
-9.014
-6.238
-3.45
-0.7
1.938
4.363
6.473
8.161
9.34
9.956
9.965
9.339
8.072
6.169
3.655
0.578
-3.011
-7.058
-11.491
-16.227
-21.158
-26.132
-31.006
-35.643
-39.917
-43.737
-47.029
-49.746
-51.901
-53.55
-54.769
-55.65
-56.26
-56.673
-57.01
-57.4
-57.983
-58.922
-60.315
-62.29
-65.087
-68.807
-73.371
-78.57
-83.91
-88.859
-93.103
-96.195
-97.442
-96.508
-93.484
-88.786
-83.497
-78.775
-75.256
-73.657
-75.187
-79.592
-84.576
-87.797
-86.033
-77.939
-66.792
-54.151
-37.482
-11.697
32.694
103.759
200.698
318.412
448.557
579.306
701.481
804.643
876.074
904.145
878.896
798.089
666.4
496.791
310.976
130.202
-23.399
-133.055
-196.843
-219.167
-211.346
-189.432
-161.503
-134.706
-116.63
-107.95
-110.237
-121.392
-132.455
-139.699
-141.873
-139.463
-137.687
-138.054
-138.842
-138.855
-136.03
-129.807
-121.402
-111.719
-101.514
-91.599
-82.583
-74.831
-68.577
-63.848
-60.463
-58.328
-57.415
-57.604
-58.731
-60.641
-63.158
-66.137
-69.481
-73.052
-76.697
-80.3
-83.749
-86.96
-89.873
-92.395
-94.435
-95.907
-96.731
-96.861
-96.288
-95.021
-93.092
-90.552
-87.449
-83.842
-79.801
-75.385
-70.644
-65.615
-60.33
-54.841
-49.222
-43.57
-37.983
-32.527
-27.239
-22.139
-17.241
-12.548
-8.054
-3.73
0.482
4.635
8.767
12.898
17.044
21.232
25.521
30.002
34.756
39.842
45.3
51.158
57.456
64.238
71.519
79.271
87.43
95.92
104.682
113.675
122.851
132.15
141.492
150.761
159.852
168.678
177.144
185.154
192.592
199.315
205.206
210.199
214.261
217.379
219.539
220.712
220.882
220.052
218.231
215.451
211.739
207.107
201.586
195.228
188.101
180.318
171.996
163.212
154.035
144.517
134.708
124.681
114.5
104.219
93.903
83.616
73.434
63.46
53.784
44.473
35.594
27.167
19.198
11.709
4.716
-1.762
-7.707
-13.123
-18.02
-22.397
-26.276
-29.691
-32.691
-35.36
-37.775
-39.997
-42.092
-44.099
-46.042
-47.955
-49.856
-51.76
-53.68
-55.619
-57.573
-59.545
-61.528
-63.503
-65.441
-67.292
-69.013
-70.573
-71.941
-73.1
-74.04
-74.749
-75.227
-75.485
-75.531
-75.376
-75.035
-74.517
-73.836
-73.011
-72.066
-71.03
-69.929
-68.782
-67.605
-66.412
-65.214
-64.021
-62.838
-61.664
-60.5
-59.348
-58.209
-57.088
-55.988
-54.908
-53.85
-52.814
-51.8
-50.811
-49.849
-48.917
-48.016
-47.149
-46.32
-45.533
-44.791
-44.097
-43.453
-42.861
-42.32
-41.834
-41.401
-41.024
-40.7
-40.431
-40.216
-40.056
-39.95
-39.897
-39.898
-39.952
-40.059
-40.218
-40.428
-40.687
-40.993
-41.346
-41.742
-42.18
-42.656
-43.167
-43.712
-44.286
-44.887
-45.511
-46.155
-46.814
-47.484
-48.161
-48.839
-49.512
-50.175
-50.821
-51.447
-52.047
-52.616
-53.15
-53.645
-54.098
-54.506
-54.866
-55.173
-55.423
-55.61
-55.728
-55.772
-55.737
-55.618
-55.411
-55.112
-54.72
-54.236
-53.659
-52.989
-52.222
-51.354
-50.384
-49.316
-48.152
-46.9
-45.573
-44.185
-42.761
-41.33
-39.908
-38.514
-37.156
-35.837
-34.561
-33.329
-32.138
-30.997
-29.911
-28.88
-27.914
-27.015
-26.176
-25.386
-24.618
-23.834
-23.018
-22.161
-21.26
-20.339
-19.423
-18.548
-17.769
-17.124
-16.644
-16.365
-16.303
-16.472
-16.893
-17.576
-18.545
-19.838
-21.468
-23.437
-25.738
-28.329
-31.153
-34.139
-37.181
-40.189
-43.088
-45.801
-48.279
-50.491
-52.421
-54.109
-55.595
-56.909
-58.086
-59.141
-60.112
-61.104
-62.223
-63.584
-65.334
-67.54
-70.31
-73.883
-78.296
-83.4
-88.919
-94.265
-98.916
-102.655
-105.044
-105.415
-103.654
-99.998
-95.022
-90.054
-86.066
-83.415
-82.932
-85.785
-91.211
-96.528
-98.829
-94.405
-82.746
-68.377
-53.223
-34.812
-7.948
37.748
110.36
207.684
323.695
449.522
572.174
683.292
774.615
832.45
845.399
803.733
703.983
555.949
377.755
193.789
27.089
-106.303
-196.153
-243.883
-256.026
-239.829
-208.191
-169.394
-130.863
-103.494
-89.884
-90.537
-102.195
-114.021
-120.903
-121.677
-117.483
-114.064
-113.466
-114.278
-115.181
-114.044
-110.274
-104.968
-98.927
-92.807
-87.205
-82.481
-78.822
-76.278
-74.714
-73.84
-73.449
-73.434
-73.638
-73.888
-74.064
-74.048
-73.801
-73.354
-72.685
-71.767
-70.6
-69.173
-67.523
-65.705
-63.762
-61.738
-59.673
-57.595
-55.544
-53.565
-51.675
-49.891
-48.203
-46.572
-44.998
-43.475
-41.983
-40.511
-39.019
-37.465
-35.823
-34.064
-32.163
-30.099
-27.832
-25.32
-22.546
-19.473
-16.086
-12.381
-8.312
-3.852
1.014
6.298
11.988
18.074
24.568
31.469
38.766
46.451
54.499
62.889
71.62
80.649
89.931
99.412
109.003
118.634
128.252
137.796
147.224
156.481
165.489
174.182
182.512
190.407
197.801
204.612
210.727
216.088
220.664
224.431
227.401
229.57
230.92
231.449
231.16
230.058
228.179
225.542
222.149
218.035
213.243
207.842
201.936
195.588
188.824
181.672
174.145
166.271
158.094
149.647
140.957
132.062
122.992
113.799
104.561
95.339
86.194
77.167
68.27
59.548
51.069
42.898
35.095
27.711
20.774
14.316
8.372
2.956
-1.925
-6.29
-10.183
-13.653
-16.754
-19.531
-22.017
-24.254
-26.301
-28.208
-30.02
-31.771
-33.479
-35.165
-36.85
-38.546
-40.252
-41.956
-43.631
-45.243
-46.753
-48.13
-49.351
-50.394
-51.237
-51.865
-52.266
-52.441
-52.398
-52.146
-51.69
-51.043
-50.217
-49.232
-48.114
-46.89
-45.59
-44.24
-42.862
-41.475
-40.094
-38.734
-37.406
-36.116
-34.867
-33.662
-32.505
-31.403
-30.359
-29.377
-28.458
-27.604
-26.814
-26.091
-25.435
-24.85
-24.336
-23.896
-23.531
-23.246
-23.042
-22.921
-22.885
-22.933
-23.063
-23.276
-23.568
-23.939
-24.385
-24.904
-25.493
-26.149
-26.87
-27.652
-28.492
-29.386
-30.33
-31.321
-32.352
-33.421
-34.523
-35.652
-36.804
-37.974
-39.157
-40.348
-41.54
-42.728
-43.907
-45.07
-46.211
-47.324
-48.403
-49.443
-50.437
-51.381
-52.269
-53.095
-53.855
-54.544
-55.156
-55.688
-56.134
-56.492
-56.756
-56.926
-56.998
-56.971
-56.843
-56.613
-56.283
-55.852
-55.322
-54.694
-53.971
-53.158
-52.257
-51.276
-50.22
-49.096
-47.913
-46.681
-45.409
-44.107
-42.786
-41.459
-40.139
-38.837
-37.566
-36.339
-35.168
-34.068
-33.052
-32.132
-31.32
-30.628
-30.069
-29.656
-29.401
-29.313
-29.4
-29.664
-30.111
-30.745
-31.574
-32.601
-33.827
-35.251
-36.871
-38.684
-40.686
-42.863
-45.187
-47.621
-50.129
-52.68
-55.247
-57.802
-60.312
-62.741
-65.045
-67.19
-69.147
-70.887
-72.385
-73.612
-74.554
-75.221
-75.672
-75.993
-76.272
-76.591
-77.005
-77.553
-78.301
-79.333
-80.733
-82.603
-85.006
-87.95
-91.518
-95.83
-100.841
-106.384
-112.028
-117.053
-120.907
-123.194
-123.38
-121.088
-116.335
-109.315
-100.962
-92.824
-85.86
-80.897
-79.02
-80.351
-84.13
-89.468
-93.132
-91.057
-81.514
-61.58
-29.771
12.514
66.279
130.597
203.518
285.681
375.444
470.637
566.433
651.917
714.472
738.324
710.914
629.984
498.127
329.52
148.106
-25.285
-167.284
-260.318
-304.056
-302.959
-268.538
-220.269
-169.429
-125.771
-99.83
-91.093
-97.269
-113.193
-127.253
-134.985
-136.05
-131.901
-128.087
-126.186
-124.995
-123.622
-120.249
-114.66
-108.039
-101.116
-94.672
-89.358
-85.243
-82.317
-80.526
-79.636
-79.478
-79.938
-80.851
-82.029
-83.337
-84.652
-85.863
-86.903
-87.68
-88.123
-88.214
-87.974
-87.448
-86.672
-85.66
-84.41
-82.93
-81.236
-79.351
-77.287
-75.029
-72.57
-69.931
-67.15
-64.278
-61.342
-58.339
-55.25
-52.072
-48.822
-45.519
-42.183
-38.814
-35.415
-32.006
-28.629
-25.346
-22.204
-19.215
-16.363
-13.625
-10.967
-8.356
-5.743
-3.04
-0.154
2.988
6.445
10.25
14.438
19.069
24.214
29.953
36.36
43.476
51.322
59.912
69.219
79.187
89.722
100.674
111.898
123.275
134.692
146.056
157.272
168.211
178.75
188.763
198.101
206.625
214.199
220.675
225.962
230.013
232.82
234.43
234.884
234.201
232.41
229.536
225.602
220.654
214.728
207.846
200.086
191.546
182.346
172.645
162.557
152.159
141.518
130.668
119.655
108.554
97.426
86.33
75.35
64.571
54.106
44.104
34.655
25.812
17.598
9.996
3.007
-3.345
-9.047
-14.089
-18.47
-22.211
-25.33
-27.837
-29.781
-31.233
-32.297
-33.118
-33.801
-34.414
-35.011
-35.615
-36.255
-36.97
-37.779
-38.685
-39.694
-40.801
-42.007
-43.323
-44.73
-46.193
-47.656
-49.04
-50.29
-51.372
-52.261
-52.945
-53.414
-53.659
-53.687
-53.518
-53.166
-52.645
-51.965
-51.129
-50.153
-49.058
-47.873
-46.632
-45.36
-44.072
-42.785
-41.509
-40.252
-39.02
-37.813
-36.623
-35.449
-34.29
-33.147
-32.026
-30.929
-29.854
-28.803
-27.778
-26.779
-25.81
-24.872
-23.97
-23.105
-22.281
-21.504
-20.779
-20.11
-19.5
-18.951
-18.466
-18.046
-17.693
-17.409
-17.193
-17.047
-16.971
-16.967
-17.034
-17.174
-17.386
-17.67
-18.026
-18.45
-18.943
-19.501
-20.121
-20.799
-21.532
-22.314
-23.141
-24.005
-24.901
-25.823
-26.764
-27.717
-28.674
-29.629
-30.574
-31.501
-32.404
-33.274
-34.106
-34.892
-35.626
-36.3
-36.909
-37.447
-37.907
-38.284
-38.573
-38.767
-38.863
-38.856
-38.743
-38.522
-38.191
-37.748
-37.193
-36.526
-35.75
-34.866
-33.877
-32.786
-31.6
-30.323
-28.962
-27.525
-26.019
-24.454
-22.839
-21.185
-19.504
-17.808
-16.11
-14.423
-12.762
-11.139
-9.568
-8.062
-6.633
-5.293
-4.054
-2.929
-1.928
-1.065
-0.352
0.204
0.591
0.803
0.839
0.696
0.374
-0.126
-0.811
-1.684
-2.747
-4.005
-5.458
-7.104
-8.934
-10.93
-13.062
-15.3
-17.611
-19.958
-22.319
-24.663
-26.957
-29.172
-31.263
-33.18
-34.885
-36.329
-37.472
-38.288
-38.768
-38.94
-38.871
-38.636
-38.307
-37.944
-37.602
-37.369
-37.336
-37.604
-38.29
-39.457
-41.206
-43.735
-47.095
-51.195
-55.804
-60.371
-64.376
-67.552
-69.428
-69.399
-67.372
-63.484
-58.358
-53.514
-49.941
-47.881
-48.138
-51.529
-57.696
-65.96
-73.823
-76.327
-70.997
-56.988
-33.824
-3.274
35.586
85.756
148.883
226.757
317.719
416.824
518.543
614.384
695.001
751.647
773.993
754.342
690.863
584.806
444.748
287.276
129.515
-8.665
-110.702
-172.472
-196.55
-192.664
-173.87
-147.632
-119.925
-96.309
-80.208
-74.801
-79.259
-87.447
-93.888
-95.624
-92.892
-89.599
-88.043
-87.633
-87.065
-84.464
-79.216
-72.255
-64.525
-56.785
-49.687
-43.717
-39.186
-36.291
-34.994
-35.05
-36.253
-38.459
-41.496
-45.168
-49.269
-53.561
-57.828
-61.918
-65.684
-69.011
-71.815
-74.017
-75.553
-76.373
-76.452
-75.788
-74.397
-72.307
-69.543
-66.151
-62.201
-57.793
-53.049
-48.067
-42.925
-37.683
-32.393
-27.11
-21.89
-16.783
-11.822
-7.037
-2.461
1.878
5.952
9.746
13.264
16.529
19.572
22.423
25.099
27.622
30.028
32.37
34.713
37.126
39.663
42.382
45.35
48.62
52.239
56.255
60.695
65.579
70.922
76.738
83.051
89.884
97.236
105.072
113.324
121.906
130.743
139.759
148.872
158.004
167.077
176.007
184.718
193.149
201.22
208.842
215.896
222.235
227.727
232.291
235.88
238.47
240.039
240.547
239.975
238.322
235.591
231.804
226.969
221.078
214.155
206.262
197.507
188.051
178.058
167.652
156.943
146.032
135.025
124.054
113.225
102.61
92.276
82.286
72.717
63.678
55.245
47.451
40.295
33.727
27.691
22.154
17.075
12.404
8.081
4.024
0.176
-3.481
-6.966
-10.298
-13.516
-16.681
-19.837
-22.997
-26.164
-29.318
-32.44
-35.523
-38.542
-41.461
-44.237
-46.816
-49.166
-51.281
-53.157
-54.792
-56.177
-57.293
-58.133
-58.708
-59.027
-59.103
-58.946
-58.567
-57.983
-57.226
-56.329
-55.329
-54.254
-53.121
-51.947
-50.748
-49.54
-48.337
-47.148
-45.979
-44.835
-43.725
-42.656
-41.639
-40.677
-39.771
-38.922
-38.129
-37.391
-36.709
-36.082
-35.509
-34.989
-34.524
-34.114
-33.76
-33.464
-33.223
-33.037
-32.903
-32.819
-32.784
-32.793
-32.843
-32.933
-33.059
-33.22
-33.414
-33.64
-33.895
-34.178
-34.489
-34.825
-35.186
-35.57
-35.977
-36.405
-36.856
-37.328
-37.823
-38.341
-38.883
-39.449
-40.04
-40.657
-41.301
-41.971
-42.668
-43.392
-44.142
-44.919
-45.722
-46.55
-47.404
-48.281
-49.181
-50.103
-51.043
-51.999
-52.967
-53.945
-54.929
-55.913
-56.892
-57.863
-58.819
-59.756
-60.667
-61.546
-62.388
-63.185
-63.932
-64.622
-65.247
-65.802
-66.279
-66.674
-66.98
-67.192
-67.306
-67.317
-67.221
-67.016
-66.699
-66.269
-65.723
-65.062
-64.286
-63.397
-62.398
-61.292
-60.085
-58.782
-57.392
-55.923
-54.385
-52.791
-51.153
-49.483
-47.796
-46.105
-44.425
-42.769
-41.15
-39.582
-38.079
-36.656
-35.327
-34.108
-33.014
-32.057
-31.25
-30.605
-30.126
-29.818
-29.687
-29.736
-29.978
-30.422
-31.074
-31.942
-33.031
-34.339
-35.861
-37.576
-39.448
-41.443
-43.522
-45.647
-47.791
-49.923
-52.007
-54.01
-55.88
-57.569
-59.039
-60.246
-61.151
-61.734
-61.992
-61.97
-61.761
-61.458
-61.15
-60.907
-60.79
-60.898
-61.343
-62.219
-63.637
-65.657
-68.363
-71.949
-76.471
-81.793
-87.617
-93.371
-98.495
-102.644
-105.299
-105.78
-103.915
-99.885
-94.405
-88.901
-84.254
-80.979
-80.091
-82.307
-87.49
-94.092
-98.479
-97.468
-89.532
-74.616
-54.106
-24.934
17.904
77.161
155.833
248.961
347.606
447.685
543.807
632.643
711.699
771.071
797.392
779.252
710.016
590.755
434.954
264.169
100.182
-33.634
-123.66
-172.181
-186.984
-183.279
-174.731
-162.287
-146.743
-128.94
-109.451
-96.635
-94.106
-98.35
-106.796
-113.672
-116.29
-117.858
-119.253
-120.738
-122.28
-121.829
-118.853
-114.161
-108.339
-102.232
-96.599
-91.842
-88.215
-85.84
-84.584
-84.146
-84.297
-84.878
-85.726
-86.689
-87.629
-88.42
-88.984
-89.318
-89.425
-89.269
-88.833
-88.106
-87.089
-85.826
-84.374
-82.772
-81.065
-79.292
-77.481
-75.675
-73.922
-72.241
-70.647
-69.134
-67.677
-66.285
-64.965
-63.705
-62.487
-61.277
-60.039
-58.757
-57.424
-56.027
-54.545
-52.95
-51.212
-49.318
-47.245
-44.967
-42.439
-39.594
-36.378
-32.763
-28.738
-24.297
-19.423
-14.086
-8.257
-1.924
4.917
12.271
20.16
28.597
37.564
47.003
56.815
66.883
77.116
87.443
97.8
108.121
118.316
128.286
137.949
147.225
156.027
164.249
171.748
178.393
184.106
188.855
192.653
195.525
197.473
198.494
198.595
197.791
196.115
193.613
190.304
186.212
181.388
175.904
169.876
163.42
156.609
149.474
142.03
134.289
126.279
118.04
109.596
100.972
92.194
83.293
74.327
65.366
56.463
47.664
38.991
30.452
22.089
13.969
6.157
-1.289
-8.323
-14.913
-21.024
-26.623
-31.696
-36.239
-40.278
-43.855
-47.017
-49.817
-52.299
-54.493
-56.448
-58.221
-59.863
-61.419
-62.923
-64.394
-65.855
-67.327
-68.818
-70.328
-71.843
-73.335
-74.77
-76.109
-77.318
-78.374
-79.255
-79.935
-80.398
-80.634
-80.64
-80.424
-79.994
-79.356
-78.519
-77.496
-76.308
-74.977
-73.53
-71.995
-70.397
-68.756
-67.089
-65.413
-63.74
-62.079
-60.436
-58.813
-57.213
-55.639
-54.096
-52.588
-51.119
-49.689
-48.3
-46.955
-45.654
-44.401
-43.198
-42.047
-40.953
-39.916
-38.942
-38.032
-37.191
-36.418
-35.716
-35.083
-34.52
-34.026
-33.6
-33.241
-32.946
-32.716
-32.548
-32.441
-32.394
-32.406
-32.475
-32.6
-32.779
-33.011
-33.294
-33.626
-34.005
-34.43
-34.898
-35.406
-35.952
-36.534
-37.149
-37.793
-38.465
-39.161
-39.878
-40.614
-41.365
-42.129
-42.903
-43.684
-44.469
-45.257
-46.043
-46.826
-47.603
-48.37
-49.124
-49.863
-50.582
-51.278
-51.947
-52.584
-53.187
-53.749
-54.268
-54.738
-55.155
-55.514
-55.811
-56.04
-56.199
-56.281
-56.283
-56.2
-56.03
-55.769
-55.412
-54.959
-54.407
-53.753
-52.996
-52.136
-51.172
-50.104
-48.933
-47.66
-46.288
-44.819
-43.258
-41.61
-39.881
-38.077
-36.208
-34.282
-32.311
-30.305
-28.278
-26.241
-24.207
-22.191
-20.204
-18.262
-16.379
-14.567
-12.841
-11.215
-9.705
-8.326
-7.091
-6.013
-5.098
-4.356
-3.793
-3.418
-3.24
-3.265
-3.501
-3.954
-4.631
-5.535
-6.666
-8.013
-9.551
-11.251
-13.084
-15.018
-17.028
-19.081
-21.142
-23.174
-25.142
-27.002
-28.72
-30.256
-31.567
-32.622
-33.405
-33.927
-34.252
-34.454
-34.616
-34.818
-35.114
-35.572
-36.294
-37.387
-38.95
-41.074
-43.789
-47.165
-51.383
-56.498
-62.4
-68.788
-75.066
-80.676
-85.28
-88.426
-89.495
-88.166
-84.487
-79.045
-73.164
-67.936
-63.997
-62.184
-63.356
-67.815
-74.211
-79.447
-79.902
-72.851
-58.934
-40.135
-15.215
19.318
69.54
141.455
234.024
341.638
457.053
572.33
681.068
775.559
845.087
875.748
855.796
782.26
659.292
500.371
325.672
153.852
3.543
-109.587
-178.83
-204.564
-192.725
-155.41
-106.784
-58.411
-22.281
-6.681
-10.959
-30.803
-56.889
-78.691
-92.57
-98.583
-99.673
-100.144
-101.104
-102.021
-101.969
-99.716
-95.413
-89.975
-84.265
-79.284
-75.425
-72.62
-70.776
-69.641
-69.04
-68.903
-69.107
-69.555
-70.188
-70.932
-71.744
-72.605
-73.466
-74.287
-75.021
-75.597
-75.992
-76.196
-76.206
-76.038
-75.695
-75.16
-74.422
-73.452
-72.216
-70.708
-68.921
-66.848
-64.487
-61.826
-58.87
-55.652
-52.19
-48.503
-44.608
-40.513
-36.249
-31.863
-27.401
-22.913
-18.449
-14.036
-9.7
-5.469
-1.365
2.603
6.452
10.229
13.983
17.753
21.579
25.495
29.555
33.826
38.373
43.248
48.491
54.132
60.206
66.755
73.819
81.404
89.477
97.966
106.799
115.911
125.242
134.725
144.27
153.77
163.122
172.236
181.034
189.423
197.295
204.519
210.96
216.53
221.183
224.901
227.673
229.474
230.28
230.09
228.923
226.81
223.784
219.865
215.076
209.477
203.153
196.209
188.767
180.897
172.644
164.058
155.189
146.103
136.868
127.535
118.15
108.765
99.451
90.283
81.323
72.6
64.127
55.908
47.949
40.292
32.983
26.05
19.511
13.372
7.639
2.319
-2.587
-7.109
-11.3
-15.205
-18.857
-22.269
-25.442
-28.389
-31.132
-33.71
-36.153
-38.479
-40.701
-42.828
-44.873
-46.843
-48.734
-50.516
-52.148
-53.599
-54.855
-55.912
-56.772
-57.431
-57.883
-58.118
-58.142
-57.961
-57.584
-57.02
-56.273
-55.355
-54.288
-53.103
-51.837
-50.516
-49.163
-47.792
-46.418
-45.054
-43.714
-42.406
-41.133
-39.897
-38.705
-37.561
-36.472
-35.442
-34.47
-33.554
-32.692
-31.882
-31.124
-30.417
-29.759
-29.15
-28.591
-28.081
-27.623
-27.217
-26.862
-26.555
-26.294
-26.077
-25.899
-25.759
-25.653
-25.576
-25.527
-25.504
-25.503
-25.525
-25.567
-25.629
-25.709
-25.808
-25.925
-26.06
-26.213
-26.384
-26.574
-26.783
-27.011
-27.26
-27.53
-27.821
-28.133
-28.468
-28.825
-29.205
-29.607
-30.034
-30.483
-30.957
-31.456
-31.98
-32.53
-33.106
-33.709
-34.339
-34.994
-35.674
-36.377
-37.1
-37.84
-38.593
-39.355
-40.121
-40.887
-41.647
-42.398
-43.134
-43.851
-44.547
-45.214
-45.849
-46.445
-46.997
-47.5
-47.946
-48.328
-48.641
-48.876
-49.028
-49.092
-49.061
-48.93
-48.691
-48.334
-47.854
-47.249
-46.519
-45.666
-44.698
-43.623
-42.455
-41.217
-39.925
-38.599
-37.253
-35.898
-34.55
-33.225
-31.934
-30.694
-29.513
-28.386
-27.31
-26.274
-25.255
-24.233
-23.176
-22.041
-20.803
-19.442
-17.947
-16.319
-14.556
-12.661
-10.652
-8.546
-6.372
-4.18
-2.025
0.025
1.882
3.461
4.675
5.429
5.655
5.314
4.382
2.858
0.748
-1.93
-5.143
-8.841
-12.966
-17.437
-22.15
-26.992
-31.822
-36.502
-40.907
-44.914
-48.438
-51.455
-53.975
-56.032
-57.676
-58.936
-59.863
-60.553
-61.117
-61.691
-62.426
-63.425
-64.843
-66.928
-69.809
-73.465
-77.683
-81.905
-85.561
-88.307
-89.73
-89.278
-86.71
-82.099
-76.039
-70.028
-65.441
-62.929
-63.145
-66.797
-73.997
-84.184
-94.922
-101.497
-99.719
-87.132
-64.18
-32.732
7.148
57.001
121.656
205.021
306.494
422.825
546.024
666.14
772.263
851.891
892.387
882.133
817.042
700.857
544.942
368.359
190.645
29.468
-100.37
-189.648
-237.515
-248.345
-229.184
-192.647
-148.379
-105.307
-75.597
-62.78
-66.835
-83.626
-101.34
-114.048
-120.011
-119.936
-119.253
-119.711
-120.395
-120.559
-118.22
-113.074
-106.335
-98.813
-91.482
-85.163
-80.006
-76.047
-73.24
-71.327
-70.134
-69.58
-69.586
-70.067
-70.943
-72.125
-73.51
-75.034
-76.619
-78.164
-79.594
-80.844
-81.879
-82.69
-83.282
-83.646
-83.753
-83.563
-83.003
-82.015
-80.578
-78.686
-76.358
-73.623
-70.508
-67.058
-63.322
-59.341
-55.144
-50.748
-46.167
-41.435
-36.612
-31.764
-26.962
-22.261
-17.683
-13.249
-8.963
-4.818
-0.8
3.13
7.02
10.903
14.805
18.751
22.771
26.916
31.258
35.853
40.742
45.957
51.51
57.416
63.681
70.297
77.243
84.492
92.014
99.787
107.789
115.982
124.311
132.708
141.088
149.384
157.542
165.498
173.188
180.548
187.514
194.025
200.028
205.446
210.192
214.189
217.369
219.689
221.127
221.665
221.3
220.022
217.82
214.7
210.675
205.758
199.972
193.35
185.929
177.79
169.04
159.771
150.069
140.011
129.665
119.104
108.402
97.633
86.877
76.216
65.738
55.533
45.682
36.259
27.33
18.928
11.06
3.738
-3.032
-9.245
-14.898
-19.996
-24.554
-28.591
-32.138
-35.243
-37.971
-40.386
-42.547
-44.511
-46.334
-48.055
-49.701
-51.294
-52.844
-54.362
-55.855
-57.328
-58.779
-60.203
-61.586
-62.902
-64.114
-65.191
-66.107
-66.842
-67.378
-67.7
-67.802
-67.687
-67.369
-66.859
-66.17
-65.317
-64.313
-63.178
-61.934
-60.608
-59.229
-57.822
-56.408
-55.005
-53.628
-52.29
-51.001
-49.766
-48.585
-47.459
-46.388
-45.373
-44.417
-43.518
-42.675
-41.883
-41.141
-40.447
-39.797
-39.192
-38.629
-38.108
-37.628
-37.189
-36.792
-36.436
-36.122
-35.846
-35.607
-35.404
-35.234
-35.096
-34.987
-34.905
-34.85
-34.821
-34.816
-34.835
-34.879
-34.947
-35.039
-35.156
-35.3
-35.471
-35.67
-35.899
-36.159
-36.45
-36.775
-37.133
-37.525
-37.952
-38.414
-38.909
-39.438
-40
-40.594
-41.219
-41.873
-42.554
-43.261
-43.992
-44.744
-45.513
-46.297
-47.092
-47.894
-48.698
-49.5
-50.294
-51.075
-51.837
-52.574
-53.279
-53.945
-54.565
-55.133
-55.641
-56.082
-56.45
-56.739
-56.942
-57.055
-57.072
-56.99
-56.804
-56.513
-56.113
-55.605
-54.986
-54.258
-53.423
-52.482
-51.438
-50.298
-49.067
-47.751
-46.36
-44.902
-43.388
-41.831
-40.241
-38.634
-37.021
-35.415
-33.832
-32.285
-30.788
-29.357
-28.006
-26.75
-25.605
-24.587
-23.71
-22.985
-22.423
-22.031
-21.814
-21.78
-21.937
-22.296
-22.86
-23.635
-24.626
-25.834
-27.259
-28.888
-30.695
-32.646
-34.71
-36.855
-39.053
-41.277
-43.496
-45.672
-47.766
-49.737
-51.549
-53.168
-54.558
-55.691
-56.546
-57.145
-57.559
-57.874
-58.184
-58.567
-59.066
-59.748
-60.706
-62.021
-63.785
-66.08
-68.927
-72.419
-76.742
-81.889
-87.755
-94.084
-100.272
-105.785
-110.281
-113.145
-113.684
-111.839
-107.707
-101.708
-95.297
-89.576
-85.118
-83.48
-85.307
-88.761
-92.248
-93.661
-91.054
-86.997
-83.458
-77.504
-63.396
-31.428
27.704
115.08
225.81
351.042
479.241
601.225
706.845
785.537
826.96
819.215
757.843
644.324
486.776
304.891
120.986
-42.233
-165.529
-240.801
-271.49
-268.179
-242.633
-207.06
-168.643
-132.837
-108.738
-99.595
-105.456
-122.29
-139.129
-150.166
-154.038
-152.159
-149.872
-148.905
-148.344
-147.288
-143.951
-138.175
-131.109
-123.492
-116.156
-109.802
-104.548
-100.412
-97.32
-94.995
-93.242
-91.953
-90.999
-90.243
-89.588
-88.961
-88.329
-87.705
-87.055
-86.305
-85.391
-84.271
-82.943
-81.44
-79.797
-78.042
-76.195
-74.284
-72.334
-70.37
-68.401
-66.414
-64.372
-62.243
-60.033
-57.773
-55.505
-53.257
-51.028
-48.811
-46.594
-44.373
-42.14
-39.873
-37.539
-35.108
-32.563
-29.894
-27.11
-24.205
-21.142
-17.874
-14.335
-10.474
-6.264
-1.67
3.334
8.765
14.632
20.915
27.58
34.602
41.961
49.627
57.584
65.798
74.219
82.818
91.546
100.353
109.197
118.015
126.752
135.365
143.817
152.081
160.133
167.923
175.397
182.512
189.203
195.412
201.066
206.054
210.285
213.696
216.23
217.86
218.561
218.297
217.047
214.801
211.565
207.371
202.262
196.272
189.47
181.939
173.792
165.186
156.253
147.098
137.816
128.479
119.157
109.929
100.855
91.974
83.32
74.917
66.785
58.954
51.428
44.193
37.219
30.449
23.846
17.392
11.077
4.901
-1.135
-7.031
-12.774
-18.338
-23.702
-28.846
-33.758
-38.43
-42.848
-46.99
-50.83
-54.342
-57.506
-60.314
-62.763
-64.854
-66.591
-67.983
-69.047
-69.805
-70.278
-70.485
-70.443
-70.167
-69.675
-68.987
-68.124
-67.104
-65.946
-64.669
-63.289
-61.825
-60.291
-58.702
-57.071
-55.41
-53.729
-52.042
-50.36
-48.694
-47.055
-45.454
-43.899
-42.399
-40.961
-39.593
-38.297
-37.079
-35.939
-34.881
-33.905
-33.01
-32.197
-31.463
-30.807
-30.228
-29.722
-29.287
-28.919
-28.616
-28.374
-28.192
-28.064
-27.99
-27.965
-27.988
-28.057
-28.169
-28.323
-28.515
-28.743
-29.004
-29.297
-29.618
-29.964
-30.333
-30.723
-31.131
-31.555
-31.996
-32.45
-32.917
-33.396
-33.886
-34.386
-34.896
-35.416
-35.944
-36.48
-37.025
-37.579
-38.14
-38.709
-39.284
-39.864
-40.446
-41.027
-41.603
-42.171
-42.724
-43.26
-43.774
-44.262
-44.722
-45.149
-45.541
-45.897
-46.216
-46.493
-46.725
-46.907
-47.034
-47.103
-47.108
-47.043
-46.905
-46.688
-46.391
-46.014
-45.555
-45.012
-44.38
-43.652
-42.825
-41.902
-40.885
-39.777
-38.589
-37.331
-36.026
-34.702
-33.383
-32.083
-30.813
-29.576
-28.376
-27.217
-26.102
-25.033
-24.009
-23.026
-22.085
-21.192
-20.341
-19.519
-18.7
-17.84
-16.913
-15.911
-14.835
-13.697
-12.518
-11.324
-10.155
-9.069
-8.111
-7.322
-6.736
-6.366
-6.241
-6.39
-6.838
-7.629
-8.782
-10.292
-12.152
-14.339
-16.807
-19.502
-22.336
-25.198
-27.999
-30.664
-33.128
-35.353
-37.295
-38.941
-40.327
-41.486
-42.474
-43.346
-44.12
-44.847
-45.629
-46.569
-47.795
-49.454
-51.597
-54.322
-57.837
-62.147
-67.121
-72.492
-77.65
-82.057
-85.427
-87.225
-86.784
-84.022
-79.136
-72.659
-65.919
-59.945
-55.239
-52.94
-54.357
-58.507
-62.995
-65.599
-62.45
-53.365
-42.243
-27.728
-7.284
23.791
76.081
152.486
250.654
366.961
490.617
611.864
719.97
801.04
842.691
833.201
768.739
653.501
498.946
325.069
152.487
0.734
-114.848
-187.643
-219.53
-218.812
-196.337
-163.843
-130.29
-102.654
-86.563
-82.83
-88.965
-98.964
-106.802
-110.45
-110.553
-110.455
-112.188
-114.739
-116.591
-115.881
-111.923
-105.584
-97.804
-89.407
-81.154
-73.613
-67.099
-61.768
-57.559
-54.239
-51.667
-49.786
-48.531
-47.82
-47.583
-47.731
-48.188
-48.911
-49.809
-50.771
-51.717
-52.575
-53.308
-53.907
-54.363
-54.666
-54.811
-54.774
-54.502
-53.935
-53.017
-51.721
-50.06
-48.064
-45.778
-43.254
-40.541
-37.697
-34.772
-31.795
-28.779
-25.727
-22.631
-19.494
-16.343
-13.21
-10.123
-7.084
-4.067
-1.033
2.056
5.246
8.597
12.187
16.093
20.367
25.034
30.105
35.575
41.444
47.719
54.404
61.488
68.953
76.766
84.887
93.288
101.927
110.737
119.635
128.532
137.355
146.053
154.581
162.891
170.932
178.647
185.979
192.881
199.284
205.114
210.31
214.794
218.511
221.445
223.582
224.921
225.469
225.218
224.166
222.326
219.706
216.316
212.189
207.362
201.909
195.931
189.509
182.731
175.669
168.358
160.837
153.139
145.269
137.245
129.099
120.856
112.571
104.311
96.116
88.013
80.004
72.064
64.19
56.386
48.658
41.037
33.556
26.258
19.213
12.486
6.11
0.107
-5.538
-10.868
-15.897
-20.634
-25.078
-29.215
-33.04
-36.56
-39.767
-42.668
-45.281
-47.631
-49.771
-51.75
-53.592
-55.307
-56.881
-58.284
-59.498
-60.517
-61.328
-61.932
-62.33
-62.525
-62.531
-62.367
-62.042
-61.558
-60.909
-60.085
-59.093
-57.947
-56.666
-55.28
-53.812
-52.285
-50.722
-49.144
-47.566
-46.001
-44.455
-42.928
-41.425
-39.955
-38.524
-37.144
-35.82
-34.556
-33.356
-32.223
-31.158
-30.161
-29.232
-28.37
-27.575
-26.849
-26.194
-25.612
-25.104
-24.672
-24.315
-24.032
-23.823
-23.685
-23.616
-23.612
-23.67
-23.787
-23.962
-24.19
-24.47
-24.8
-25.177
-25.599
-26.064
-26.569
-27.112
-27.69
-28.3
-28.94
-29.608
-30.3
-31.015
-31.75
-32.504
-33.273
-34.056
-34.849
-35.649
-36.456
-37.264
-38.073
-38.88
-39.682
-40.478
-41.267
-42.046
-42.816
-43.573
-44.316
-45.044
-45.753
-46.439
-47.098
-47.729
-48.327
-48.89
-49.415
-49.9
-50.343
-50.744
-51.102
-51.414
-51.678
-51.89
-52.046
-52.143
-52.177
-52.144
-52.04
-51.863
-51.609
-51.282
-50.881
-50.406
-49.855
-49.221
-48.503
-47.704
-46.828
-45.88
-44.867
-43.799
-42.694
-41.58
-40.484
-39.425
-38.415
-37.456
-36.554
-35.715
-34.945
-34.249
-33.619
-33.045
-32.522
-32.048
-31.621
-31.23
-30.847
-30.428
-29.933
-29.345
-28.661
-27.89
-27.041
-26.127
-25.177
-24.239
-23.377
-22.654
-22.114
-21.79
-21.708
-21.9
-22.409
-23.287
-24.562
-26.238
-28.299
-30.722
-33.476
-36.515
-39.765
-43.114
-46.432
-49.604
-52.544
-55.178
-57.462
-59.375
-60.911
-62.093
-62.962
-63.554
-63.931
-64.193
-64.443
-64.804
-65.42
-66.399
-67.919
-70.254
-73.515
-77.645
-82.432
-87.381
-92.028
-96.11
-99.177
-100.572
-100.014
-97.614
-93.884
-90.029
-87.154
-85.788
-86.634
-90.751
-97.615
-104.998
-110.609
-110.984
-105.381
-96.934
-85.349
-67.678
-37.411
15.551
94.442
195.419
310.256
427.372
539.926
643.791
732.789
799.905
832.764
818.543
752.758
636.219
479.83
304.466
130.823
-18.59
-126.895
-190.368
-212.665
-206.631
-186.46
-161.46
-139.5
-122.796
-112.956
-110.879
-112.468
-115.132
-116.238
-114.755
-113.954
-115.43
-119.135
-123.736
-126.42
-126.038
-122.906
-117.75
-111.668
-105.379
-99.402
-94.434
-90.889
-88.862
-88.247
-88.732
-90.062
-92.065
-94.525
-97.198
-99.873
-102.38
-104.608
-106.502
-107.984
-108.966
-109.394
-109.236
-108.49
-107.206
-105.436
-103.254
-100.767
-98.063
-95.229
-92.348
-89.479
-86.669
-83.956
-81.348
-78.833
-76.41
-74.063
-71.774
-69.53
-67.293
-65.018
-62.649
-60.114
-57.352
-54.314
-50.96
-47.263
-43.218
-38.828
-34.122
-29.156
-23.979
-18.635
-13.157
-7.565
-1.879
3.875
9.669
15.471
21.246
26.968
32.624
38.204
43.711
49.163
54.593
60.064
65.649
71.407
77.38
83.584
90.019
96.68
103.564
110.658
117.95
125.419
133.024
140.722
148.458
156.159
163.725
171.026
177.899
184.184
189.75
194.498
198.347
201.226
203.063
203.8
203.394
201.817
199.057
195.109
189.979
183.7
176.349
168.037
158.923
149.178
138.95
128.367
117.554
106.631
95.729
84.977
74.481
64.329
54.614
45.426
36.849
28.942
21.731
15.202
9.314
4.005
-0.773
-5.065
-8.922
-12.4
-15.569
-18.503
-21.258
-23.875
-26.402
-28.895
-31.404
-33.969
-36.607
-39.314
-42.074
-44.866
-47.667
-50.46
-53.214
-55.896
-58.466
-60.88
-63.105
-65.124
-66.915
-68.456
-69.73
-70.722
-71.43
-71.866
-72.039
-71.96
-71.644
-71.103
-70.357
-69.431
-68.349
-67.141
-65.829
-64.431
-62.963
-61.443
-59.883
-58.296
-56.692
-55.073
-53.446
-51.818
-50.196
-48.588
-46.998
-45.43
-43.887
-42.371
-40.887
-39.436
-38.024
-36.654
-35.329
-34.054
-32.833
-31.671
-30.572
-29.539
-28.572
-27.673
-26.843
-26.082
-25.389
-24.763
-24.204
-23.71
-23.279
-22.912
-22.606
-22.359
-22.169
-22.033
-21.949
-21.914
-21.925
-21.98
-22.075
-22.208
-22.376
-22.576
-22.807
-23.065
-23.349
-23.655
-23.981
-24.325
-24.686
-25.06
-25.448
-25.848
-26.259
-26.682
-27.116
-27.561
-28.018
-28.487
-28.97
-29.466
-29.976
-30.501
-31.041
-31.596
-32.166
-32.75
-33.347
-33.956
-34.577
-35.207
-35.845
-36.489
-37.138
-37.791
-38.446
-39.101
-39.753
-40.398
-41.032
-41.65
-42.248
-42.82
-43.359
-43.857
-44.309
-44.707
-45.045
-45.314
-45.502
-45.596
-45.585
-45.464
-45.229
-44.878
-44.412
-43.835
-43.156
-42.393
-41.561
-40.671
-39.732
-38.747
-37.725
-36.678
-35.622
-34.573
-33.537
-32.51
-31.487
-30.458
-29.403
-28.298
-27.097
-25.748
-24.209
-22.459
-20.489
-18.301
-15.898
-13.279
-10.443
-7.405
-4.195
-0.861
2.546
5.963
9.312
12.492
15.376
17.836
19.769
21.115
21.842
21.934
21.382
20.182
18.339
15.888
12.88
9.382
5.468
1.234
-3.203
-7.703
-12.096
-16.229
-20
-23.365
-26.329
-28.919
-31.161
-33.075
-34.712
-36.165
-37.544
-38.978
-40.593
-42.499
-44.855
-47.901
-51.791
-56.499
-61.79
-67.164
-72.077
-76.163
-79.038
-80.18
-79.299
-76.539
-72.542
-68.56
-65.89
-65.152
-66.62
-70.845
-78.01
-87.348
-97.165
-103.892
-102.935
-91.188
-66.988
-30.75
15.461
69.852
131.653
203.579
288.298
386.78
498.802
616.339
728.44
823.715
886.596
904.466
868.227
774.347
630.085
452.001
264.853
92.983
-44.041
-133.398
-176.08
-179.098
-152.881
-113.383
-72.592
-41.044
-27.139
-30.434
-46.092
-65.087
-78.862
-85.154
-85.634
-85.379
-87.799
-92.165
-96.706
-98.979
-97.916
-94.371
-89.298
-83.54
-77.874
-72.858
-68.819
-65.953
-64.195
-63.273
-63.009
-63.287
-63.963
-64.874
-65.861
-66.778
-67.557
-68.199
-68.7
-69.04
-69.18
-69.088
-68.763
-68.229
-67.524
-66.679
-65.722
-64.675
-63.565
-62.422
-61.277
-60.141
-59.004
-57.83
-56.568
-55.176
-53.636
-51.929
-50.043
-47.958
-45.664
-43.168
-40.485
-37.629
-34.604
-31.397
-27.998
-24.417
-20.674
-16.802
-12.841
-8.798
-4.675
-0.478
3.807
8.191
12.706
17.41
22.352
27.565
33.073
38.876
44.977
51.395
58.141
65.229
72.677
80.467
88.59
97.036
105.767
114.74
123.888
133.117
142.349
151.521
160.565
169.423
178.031
186.305
194.178
201.566
208.368
214.497
219.853
224.35
227.932
230.557
232.202
232.865
232.53
231.184
228.825
225.449
221.068
215.706
209.381
202.15
194.104
185.345
175.999
166.177
155.966
145.457
134.729
123.86
112.94
102.056
91.294
80.757
70.54
60.732
51.432
42.694
34.54
26.98
19.994
13.572
7.712
2.399
-2.384
-6.652
-10.439
-13.779
-16.715
-19.322
-21.67
-23.825
-25.866
-27.839
-29.774
-31.699
-33.618
-35.533
-37.453
-39.374
-41.287
-43.194
-45.082
-46.936
-48.734
-50.433
-51.996
-53.394
-54.596
-55.584
-56.35
-56.885
-57.194
-57.291
-57.187
-56.897
-56.44
-55.826
-55.073
-54.202
-53.234
-52.2
-51.124
-50.025
-48.923
-47.829
-46.755
-45.71
-44.7
-43.723
-42.778
-41.867
-40.991
-40.151
-39.35
-38.585
-37.857
-37.165
-36.506
-35.883
-35.294
-34.741
-34.225
-33.745
-33.304
-32.903
-32.545
-32.228
-31.953
-31.718
-31.521
-31.362
-31.239
-31.151
-31.094
-31.07
-31.077
-31.115
-31.184
-31.283
-31.414
-31.575
-31.767
-31.989
-32.241
-32.523
-32.834
-33.174
-33.542
-33.937
-34.358
-34.804
-35.274
-35.767
-36.279
-36.811
-37.359
-37.922
-38.5
-39.09
-39.691
-40.303
-40.925
-41.555
-42.193
-42.838
-43.488
-44.14
-44.791
-45.439
-46.08
-46.708
-47.321
-47.916
-48.487
-49.034
-49.552
-50.04
-50.494
-50.911
-51.288
-51.62
-51.902
-52.128
-52.293
-52.393
-52.424
-52.383
-52.268
-52.076
-51.808
-51.461
-51.033
-50.52
-49.915
-49.21
-48.407
-47.509
-46.523
-45.462
-44.338
-43.161
-41.952
-40.725
-39.487
-38.243
-36.988
-35.714
-34.423
-33.124
-31.833
-30.566
-29.326
-28.115
-26.934
-25.77
-24.614
-23.456
-22.268
-21.038
-19.774
-18.495
-17.242
-16.067
-15.001
-14.07
-13.289
-12.673
-12.247
-12.037
-12.062
-12.355
-12.947
-13.87
-15.169
-16.856
-18.909
-21.291
-23.931
-26.746
-29.67
-32.64
-35.596
-38.482
-41.237
-43.807
-46.145
-48.199
-49.917
-51.254
-52.188
-52.762
-53.058
-53.174
-53.221
-53.284
-53.471
-53.909
-54.708
-55.979
-57.815
-60.238
-63.365
-67.406
-72.37
-78.166
-84.508
-90.735
-96.283
-100.789
-103.597
-104.019
-101.949
-97.425
-91.028
-84.407
-78.852
-75.146
-74.734
-77.846
-82.362
-86.624
-88.294
-85.677
-81.532
-76.931
-68.28
-48.942
-8.332
61.58
159.381
277.724
406.214
534.391
655.762
762.458
843.721
885.952
874.614
804.26
678.177
509.529
320.986
134.287
-30.046
-155.074
-233.752
-265.686
-256.79
-221.145
-173.885
-129.052
-99.878
-90.034
-96.447
-112.309
-125.852
-131.682
-130.491
-124.825
-120.678
-119.997
-120.61
-120.78
-118.357
-112.792
-105.364
-97.067
-88.65
-80.882
-74.331
-69.296
-65.959
-64.288
-64.043
-65.055
-67.208
-70.301
-74.118
-78.456
-83.089
-87.815
-92.457
-96.814
-100.73
-104.105
-106.852
-108.915
-110.239
-110.768
-110.485
-109.415
-107.598
-105.084
-101.92
-98.168
-93.917
-89.292
-84.432
-79.454
-74.436
-69.431
-64.491
-59.673
-55.05
-50.68
-46.581
-42.745
-39.152
-35.783
-32.618
-29.628
-26.756
-23.916
-21.027
-18.031
-14.897
-11.606
-8.124
-4.399
-0.361
4.042
8.831
14.008
19.565
25.491
31.772
38.382
45.271
52.368
59.619
66.991
74.47
82.056
89.725
97.429
105.105
112.697
120.159
127.449
134.527
141.348
147.863
154.032
159.824
165.212
170.156
174.605
178.491
181.736
184.282
186.094
187.147
187.427
186.926
185.646
183.599
180.809
177.315
173.158
168.387
163.064
157.251
151.016
144.436
137.594
130.566
123.415
116.197
108.957
101.734
94.562
87.465
80.462
73.559
66.759
60.055
53.43
46.873
40.379
33.942
27.553
21.213
14.922
8.69
2.533
-3.532
-9.491
-15.325
-21.017
-26.546
-31.888
-37.018
-41.908
-46.536
-50.887
-54.947
-58.707
-62.163
-65.309
-68.151
-70.694
-72.946
-74.914
-76.604
-78.023
-79.18
-80.086
-80.752
-81.19
-81.411
-81.428
-81.252
-80.895
-80.367
-79.679
-78.842
-77.865
-76.757
-75.531
-74.196
-72.765
-71.249
-69.658
-68.004
-66.297
-64.548
-62.766
-60.959
-59.137
-57.306
-55.474
-53.648
-51.836
-50.042
-48.275
-46.54
-44.842
-43.188
-41.582
-40.03
-38.537
-37.106
-35.742
-34.448
-33.229
-32.088
-31.026
-30.048
-29.154
-28.348
-27.631
-27.004
-26.468
-26.023
-25.67
-25.41
-25.241
-25.163
-25.176
-25.279
-25.472
-25.751
-26.118
-26.568
-27.101
-27.713
-28.4
-29.161
-29.99
-30.882
-31.834
-32.839
-33.893
-34.99
-36.124
-37.288
-38.477
-39.684
-40.902
-42.124
-43.343
-44.553
-45.745
-46.913
-48.048
-49.145
-50.196
-51.194
-52.133
-53.005
-53.804
-54.524
-55.158
-55.7
-56.146
-56.489
-56.726
-56.852
-56.864
-56.761
-56.539
-56.199
-55.74
-55.163
-54.469
-53.659
-52.738
-51.708
-50.574
-49.342
-48.019
-46.61
-45.125
-43.574
-41.967
-40.317
-38.635
-36.935
-35.23
-33.535
-31.863
-30.228
-28.643
-27.12
-25.674
-24.317
-23.062
-21.924
-20.916
-20.05
-19.339
-18.793
-18.421
-18.226
-18.211
-18.379
-18.731
-19.276
-20.022
-20.972
-22.13
-23.5
-25.076
-26.852
-28.808
-30.909
-33.122
-35.412
-37.74
-40.084
-42.413
-44.694
-46.898
-48.976
-50.882
-52.581
-54.032
-55.198
-56.059
-56.61
-56.89
-56.981
-56.97
-56.943
-56.966
-57.097
-57.431
-58.067
-59.092
-60.612
-62.674
-65.34
-68.791
-73.073
-78.067
-83.516
-88.899
-93.698
-97.648
-100.317
-101.055
-99.683
-96.342
-91.656
-86.973
-83.123
-80.434
-79.673
-81.69
-86.719
-93.286
-97.773
-96.35
-86.19
-68.52
-47.729
-23.76
4.697
42.521
100.3
179.926
279.718
396.208
516.011
627.894
720.992
780.949
798.058
765.768
683.006
555.603
396.014
222.975
54.951
-88.166
-190.449
-248.858
-265.861
-251.231
-220.827
-183.606
-147.816
-121.827
-106.334
-102.357
-107.44
-112.744
-114.836
-112.865
-107.583
-104.042
-103.56
-104.358
-105.204
-104.104
-100.546
-95.673
-90.235
-84.824
-80.094
-76.473
-74.169
-73.259
-73.571
-74.755
-76.555
-78.787
-81.236
-83.691
-85.964
-87.889
-89.356
-90.314
-90.729
-90.57
-89.819
-88.472
-86.54
-84.06
-81.085
-77.689
-73.961
-69.999
-65.905
-61.764
-57.654
-53.644
-49.789
-46.132
-42.675
-39.418
-36.363
-33.517
-30.902
-28.526
-26.385
-24.454
-22.692
-21.038
-19.424
-17.787
-16.068
-14.211
-12.162
-9.875
-7.338
-4.541
-1.478
1.867
5.544
9.598
14.059
18.952
24.273
29.998
36.094
42.523
49.24
56.201
63.35
70.632
78.026
85.528
93.157
100.924
108.797
116.735
124.692
132.619
140.485
148.27
155.947
163.492
170.882
178.089
185.101
191.908
198.452
204.643
210.348
215.426
219.78
223.342
226.063
227.907
228.824
228.77
227.722
225.666
222.589
218.48
213.312
207.058
199.746
191.457
182.324
172.507
162.13
151.293
140.085
128.593
116.918
105.163
93.406
81.723
70.205
58.958
48.125
37.846
28.21
19.262
11.002
3.403
-3.54
-9.821
-15.445
-20.422
-24.78
-28.546
-31.734
-34.363
-36.481
-38.165
-39.532
-40.696
-41.738
-42.71
-43.64
-44.545
-45.448
-46.373
-47.324
-48.3
-49.296
-50.309
-51.351
-52.424
-53.51
-54.571
-55.547
-56.383
-57.047
-57.518
-57.786
-57.846
-57.695
-57.336
-56.789
-56.075
-55.213
-54.217
-53.093
-51.853
-50.518
-49.114
-47.674
-46.224
-44.784
-43.368
-41.989
-40.656
-39.378
-38.155
-36.983
-35.856
-34.774
-33.736
-32.743
-31.798
-30.897
-30.039
-29.221
-28.444
-27.707
-27.011
-26.356
-25.744
-25.175
-24.652
-24.18
-23.76
-23.393
-23.082
-22.827
-22.628
-22.488
-22.406
-22.383
-22.42
-22.517
-22.676
-22.896
-23.179
-23.523
-23.93
-24.399
-24.929
-25.52
-26.172
-26.882
-27.649
-28.471
-29.345
-30.268
-31.236
-32.243
-33.283
-34.352
-35.441
-36.544
-37.653
-38.76
-39.859
-40.942
-42.003
-43.034
-44.028
-44.979
-45.88
-46.721
-47.496
-48.193
-48.805
-49.321
-49.735
-50.041
-50.232
-50.304
-50.252
-50.076
-49.774
-49.343
-48.782
-48.083
-47.244
-46.268
-45.164
-43.941
-42.618
-41.21
-39.734
-38.215
-36.672
-35.12
-33.567
-32.012
-30.455
-28.902
-27.363
-25.857
-24.405
-23.012
-21.681
-20.418
-19.212
-18.06
-16.95
-15.855
-14.76
-13.67
-12.596
-11.574
-10.649
-9.849
-9.203
-8.729
-8.439
-8.355
-8.504
-8.896
-9.551
-10.484
-11.705
-13.246
-15.122
-17.316
-19.801
-22.518
-25.382
-28.325
-31.27
-34.139
-36.871
-39.397
-41.649
-43.589
-45.202
-46.485
-47.466
-48.15
-48.531
-48.643
-48.555
-48.372
-48.236
-48.266
-48.557
-49.244
-50.535
-52.57
-55.332
-58.6
-61.945
-64.93
-67.264
-68.637
-68.518
-66.536
-62.852
-58.171
-53.68
-50.547
-49.457
-50.953
-56.04
-65.575
-78.126
-90.252
-98.502
-99.093
-92.256
-82.048
-67.411
-45.555
-11.117
46.446
129.414
234.505
356.215
481.856
601.037
703.947
779.425
818.386
810.535
751.131
641.664
490.393
316.236
140.78
-14.611
-132.777
-206.706
-239.601
-240.985
-221.049
-190.477
-155.722
-121.706
-96.94
-84.94
-86.369
-98.194
-110.822
-118.955
-121.044
-117.976
-114.342
-111.548
-108.774
-105.323
-99.622
-91.614
-82.464
-72.917
-63.869
-56.125
-49.9
-45.315
-42.397
-40.926
-40.728
-41.691
-43.645
-46.398
-49.782
-53.61
-57.712
-61.951
-66.157
-70.164
-73.829
-77.025
-79.669
-81.69
-83.016
-83.609
-83.459
-82.578
-81.005
-78.786
-75.97
-72.625
-68.829
-64.671
-60.25
-55.652
-50.949
-46.213
-41.501
-36.876
-32.415
-28.16
-24.125
-20.305
-16.671
-13.19
-9.839
-6.57
-3.323
-0.045
3.318
6.801
10.417
14.197
18.177
22.409
26.967
31.894
37.199
42.876
48.903
55.255
61.912
68.827
75.931
83.175
90.528
97.986
105.576
113.295
121.112
128.976
136.815
144.576
152.228
159.739
167.069
174.173
180.999
187.52
193.73
199.593
205.047
209.989
214.294
217.879
220.696
222.712
223.907
224.246
223.685
222.211
219.834
216.583
212.5
207.61
201.925
195.494
188.395
180.742
172.659
164.23
155.504
146.538
137.399
128.173
118.966
109.844
100.844
91.996
83.322
74.856
66.639
58.688
50.992
43.533
36.293
29.291
22.575
16.174
10.089
4.301
-1.236
-6.537
-11.595
-16.41
-20.978
-25.307
-29.406
-33.268
-36.871
-40.2
-43.251
-46.045
-48.626
-51.019
-53.227
-55.243
-57.037
-58.601
-59.939
-61.047
-61.924
-62.566
-62.975
-63.162
-63.155
-62.971
-62.619
-62.101
-61.408
-60.541
-59.515
-58.347
-57.062
-55.683
-54.224
-52.706
-51.151
-49.576
-47.997
-46.422
-44.852
-43.293
-41.752
-40.239
-38.763
-37.333
-35.953
-34.626
-33.356
-32.146
-30.998
-29.912
-28.888
-27.926
-27.028
-26.196
-25.433
-24.742
-24.125
-23.582
-23.115
-22.723
-22.406
-22.163
-21.993
-21.892
-21.86
-21.895
-21.995
-22.159
-22.384
-22.669
-23.011
-23.408
-23.858
-24.358
-24.907
-25.5
-26.136
-26.811
-27.522
-28.266
-29.04
-29.839
-30.662
-31.503
-32.358
-33.224
-34.097
-34.973
-35.847
-36.716
-37.577
-38.426
-39.259
-40.075
-40.871
-41.642
-42.388
-43.103
-43.786
-44.432
-45.038
-45.6
-46.115
-46.579
-46.991
-47.349
-47.649
-47.893
-48.079
-48.206
-48.274
-48.281
-48.226
-48.109
-47.927
-47.681
-47.368
-46.988
-46.54
-46.025
-45.443
-44.795
-44.079
-43.293
-42.435
-41.51
-40.522
-39.48
-38.394
-37.277
-36.147
-35.029
-33.943
-32.913
-31.955
-31.08
-30.301
-29.625
-29.06
-28.616
-28.295
-28.088
-27.983
-27.963
-28.007
-28.093
-28.188
-28.246
-28.228
-28.101
-27.841
-27.441
-26.9
-26.225
-25.428
-24.531
-23.566
-22.579
-21.618
-20.727
-19.95
-19.325
-18.9
-18.737
-18.885
-19.375
-20.226
-21.433
-22.978
-24.834
-26.956
-29.284
-31.754
-34.292
-36.839
-39.37
-41.873
-44.351
-46.804
-49.201
-51.528
-53.823
-56.142
-58.554
-61.138
-63.925
-66.989
-70.525
-74.632
-79.26
-84.186
-88.924
-92.985
-96.087
-97.894
-97.876
-95.735
-91.546
-85.897
-80.061
-75.199
-71.994
-71.071
-73.182
-78.885
-86.976
-94.37
-97.563
-92.852
-80.114
-62.697
-40.122
-10.517
30.812
93.184
178.022
281.999
399.818
520.395
635.945
738.634
817.956
862.313
857.709
796.676
678.382
513.098
325.174
139.201
-19.17
-130.192
-192.546
-211.391
-198.556
-171.888
-139.842
-110.043
-91.255
-83.817
-89.123
-104.632
-119.773
-130.042
-133.814
-131.541
-129.486
-129.922
-131.394
-132.78
-131.615
-127.04
-120.243
-112.104
-103.387
-94.88
-87.102
-80.346
-74.829
-70.559
-67.365
-65.2
-64.08
-63.928
-64.619
-66.023
-67.986
-70.4
-73.188
-76.225
-79.363
-82.485
-85.495
-88.34
-90.99
-93.391
-95.474
-97.15
-98.337
-98.985
-99.07
-98.589
-97.551
-95.978
-93.898
-91.364
-88.43
-85.138
-81.518
-77.583
-73.34
-68.809
-64.027
-59.045
-53.918
-48.686
-43.374
-38
-32.572
-27.103
-21.597
-16.048
-10.447
-4.794
0.903
6.628
12.36
18.089
23.814
29.542
35.283
41.044
46.821
52.607
58.398
64.196
70.005
75.825
81.656
87.498
93.362
99.271
105.24
111.273
117.362
123.488
129.622
135.734
141.798
147.78
153.636
159.313
164.75
169.883
174.663
179.034
182.925
186.253
188.943
190.933
192.18
192.653
192.33
191.2
189.253
186.498
182.965
178.692
173.721
168.1
161.856
155.027
147.681
139.896
131.758
123.352
114.748
106.02
97.255
88.527
79.902
71.43
63.135
55.05
47.207
39.643
32.416
25.572
19.128
13.094
7.47
2.246
-2.59
-7.065
-11.236
-15.146
-18.824
-22.291
-25.545
-28.595
-31.46
-34.161
-36.734
-39.208
-41.595
-43.91
-46.164
-48.354
-50.476
-52.506
-54.397
-56.115
-57.643
-58.97
-60.098
-61.029
-61.757
-62.28
-62.597
-62.709
-62.621
-62.336
-61.856
-61.192
-60.359
-59.382
-58.298
-57.136
-55.918
-54.661
-53.38
-52.086
-50.793
-49.509
-48.239
-46.989
-45.764
-44.57
-43.419
-42.313
-41.258
-40.253
-39.297
-38.389
-37.531
-36.722
-35.963
-35.254
-34.596
-33.991
-33.442
-32.949
-32.515
-32.137
-31.814
-31.546
-31.329
-31.161
-31.04
-30.961
-30.923
-30.922
-30.956
-31.022
-31.118
-31.242
-31.391
-31.565
-31.76
-31.976
-32.211
-32.463
-32.732
-33.016
-33.314
-33.626
-33.951
-34.288
-34.637
-34.997
-35.367
-35.747
-36.136
-36.534
-36.94
-37.354
-37.776
-38.206
-38.644
-39.091
-39.547
-40.012
-40.488
-40.974
-41.47
-41.975
-42.49
-43.011
-43.536
-44.063
-44.589
-45.111
-45.626
-46.13
-46.62
-47.094
-47.55
-47.983
-48.391
-48.77
-49.116
-49.423
-49.689
-49.906
-50.072
-50.179
-50.222
-50.197
-50.1
-49.926
-49.67
-49.326
-48.884
-48.341
-47.696
-46.948
-46.101
-45.162
-44.14
-43.052
-41.918
-40.759
-39.592
-38.435
-37.298
-36.199
-35.153
-34.168
-33.259
-32.431
-31.679
-30.997
-30.372
-29.78
-29.197
-28.593
-27.923
-27.159
-26.277
-25.254
-24.083
-22.754
-21.268
-19.642
-17.9
-16.07
-14.203
-12.356
-10.593
-9
-7.646
-6.589
-5.898
-5.615
-5.774
-6.404
-7.514
-9.096
-11.136
-13.59
-16.398
-19.501
-22.816
-26.245
-29.688
-33.03
-36.2
-39.184
-41.973
-44.583
-47.034
-49.319
-51.469
-53.569
-55.695
-57.929
-60.374
-63.074
-66.151
-69.865
-74.288
-79.321
-84.722
-89.95
-94.523
-98.171
-100.356
-100.338
-97.949
-93.425
-87.4
-81.187
-75.755
-71.655
-69.964
-71.841
-76.343
-80.822
-82.486
-78.551
-70.013
-60.139
-48.008
-27.847
9.667
72.566
161.609
268.441
380.763
490.346
592.635
685.552
766.392
825.615
849.685
827.746
755.365
635.296
479.839
308.375
139.576
-5.909
-111.231
-173.08
-193.475
-181.727
-154.435
-121.412
-91.793
-74.94
-70.964
-79.287
-95.748
-109.873
-117.85
-119.539
-116.61
-114.934
-116.192
-118.53
-120.563
-120.248
-117.088
-112.235
-106.47
-100.383
-94.597
-89.566
-85.539
-82.623
-80.71
-79.524
-78.885
-78.705
-78.852
-79.167
-79.518
-79.795
-79.947
-79.998
-79.944
-79.74
-79.36
-78.789
-78.036
-77.147
-76.168
-75.136
-74.094
-73.084
-72.13
-71.263
-70.498
-69.82
-69.201
-68.577
-67.878
-67.059
-66.082
-64.911
-63.513
-61.849
-59.881
-57.587
-54.945
-51.934
-48.54
-44.748
-40.557
-35.986
-31.072
-25.873
-20.456
-14.878
-9.189
-3.428
2.372
8.187
13.996
19.79
25.561
31.304
37.007
42.662
48.275
53.856
59.427
65.025
70.69
76.461
82.383
88.479
94.757
101.219
107.848
114.624
121.52
128.499
135.52
142.537
149.481
156.278
162.848
169.088
174.901
180.189
184.848
188.803
192.004
194.411
196.001
196.754
196.652
195.693
193.888
191.252
187.818
183.638
178.774
173.315
167.352
160.967
154.244
147.24
139.986
132.504
124.818
116.956
108.952
100.849
92.684
84.507
76.367
68.3
60.324
52.441
44.646
36.942
29.349
21.9
14.649
7.666
1.002
-5.295
-11.192
-16.68
-21.757
-26.441
-30.775
-34.789
-38.496
-41.905
-45.009
-47.809
-50.323
-52.574
-54.594
-56.433
-58.128
-59.715
-61.224
-62.665
-64.036
-65.323
-66.491
-67.509
-68.367
-69.054
-69.576
-69.939
-70.146
-70.199
-70.104
-69.857
-69.457
-68.905
-68.199
-67.348
-66.369
-65.284
-64.124
-62.919
-61.692
-60.461
-59.239
-58.035
-56.859
-55.714
-54.601
-53.524
-52.488
-51.496
-50.554
-49.666
-48.834
-48.055
-47.329
-46.651
-46.02
-45.432
-44.885
-44.379
-43.912
-43.486
-43.1
-42.755
-42.451
-42.186
-41.959
-41.765
-41.603
-41.469
-41.36
-41.272
-41.203
-41.152
-41.115
-41.092
-41.082
-41.083
-41.096
-41.12
-41.154
-41.198
-41.251
-41.314
-41.386
-41.468
-41.56
-41.662
-41.776
-41.901
-42.038
-42.187
-42.348
-42.522
-42.707
-42.905
-43.115
-43.337
-43.572
-43.821
-44.084
-44.363
-44.656
-44.965
-45.29
-45.63
-45.983
-46.347
-46.718
-47.095
-47.473
-47.85
-48.223
-48.586
-48.939
-49.276
-49.596
-49.897
-50.173
-50.42
-50.636
-50.813
-50.949
-51.038
-51.074
-51.053
-50.968
-50.815
-50.591
-50.291
-49.912
-49.448
-48.889
-48.233
-47.479
-46.63
-45.689
-44.666
-43.571
-42.423
-41.242
-40.05
-38.87
-37.717
-36.606
-35.548
-34.553
-33.629
-32.791
-32.04
-31.372
-30.774
-30.231
-29.721
-29.229
-28.725
-28.17
-27.528
-26.771
-25.875
-24.835
-23.653
-22.343
-20.923
-19.414
-17.855
-16.303
-14.821
-13.482
-12.344
-11.444
-10.826
-10.548
-10.657
-11.193
-12.179
-13.611
-15.469
-17.722
-20.319
-23.21
-26.318
-29.542
-32.777
-35.921
-38.917
-41.776
-44.515
-47.137
-49.643
-52.012
-54.264
-56.477
-58.725
-61.087
-63.654
-66.472
-69.681
-73.555
-78.16
-83.408
-89.025
-94.377
-98.909
-102.306
-103.994
-103.283
-100.139
-94.795
-87.887
-81.104
-75.702
-72.347
-72.498
-76.484
-82.366
-88.403
-92.042
-91.921
-90.488
-87.446
-78.898
-56.283
-8.006
69.398
172.386
289.793
406.628
517.312
619.647
711.854
792.045
848.793
866.309
833.69
746.863
610.52
440.641
258.173
82.219
-67.642
-176.894
-240.732
-259.432
-239.087
-193.484
-137.097
-83.68
-48.156
-36.1
-44.735
-66.764
-88.796
-103.133
-108.86
-108.206
-107.148
-107.946
-109.661
-111.109
-110.153
-106.494
-101.304
-95.403
-89.804
-85.325
-82.064
-80.038
-79.168
-79.132
-79.721
-80.788
-82.144
-83.6
-85.002
-86.224
-87.161
-87.763
-87.968
-87.712
-86.969
-85.748
-84.108
-82.116
-79.842
-77.356
-74.718
-72.003
-69.273
-66.574
-63.944
-61.416
-59.007
-56.734
-54.597
-52.564
-50.595
-48.643
-46.636
-44.517
-42.233
-39.725
-36.954
-33.884
-30.485
-26.744
-22.652
-18.196
-13.381
-8.224
-2.751
2.986
8.941
15.07
21.318
27.635
33.98
40.312
46.611
52.864
59.058
65.176
71.203
77.117
82.913
88.599
94.187
99.699
105.162
110.604
116.073
121.623
127.288
133.087
139.013
145.048
151.18
157.402
163.702
170.06
176.439
182.791
189.071
195.221
201.165
206.805
212.01
216.64
220.584
223.757
226.103
227.57
228.104
227.652
226.173
223.648
220.078
215.466
209.813
203.138
195.498
186.987
177.742
167.909
157.613
146.964
136.058
124.998
113.899
102.877
92.039
81.476
71.268
61.5
52.27
43.65
35.683
28.377
21.703
15.628
10.129
5.18
0.758
-3.176
-6.676
-9.804
-12.619
-15.177
-17.525
-19.72
-21.827
-23.9
-25.972
-28.059
-30.156
-32.258
-34.364
-36.47
-38.568
-40.638
-42.656
-44.589
-46.402
-48.069
-49.567
-50.873
-51.965
-52.826
-53.449
-53.834
-53.995
-53.944
-53.691
-53.249
-52.633
-51.863
-50.963
-49.957
-48.874
-47.738
-46.568
-45.381
-44.195
-43.022
-41.871
-40.751
-39.661
-38.606
-37.587
-36.609
-35.675
-34.787
-33.944
-33.146
-32.393
-31.684
-31.019
-30.398
-29.823
-29.293
-28.809
-28.374
-27.989
-27.656
-27.376
-27.148
-26.972
-26.846
-26.769
-26.74
-26.756
-26.816
-26.918
-27.061
-27.243
-27.464
-27.722
-28.017
-28.347
-28.711
-29.108
-29.538
-29.999
-30.491
-31.013
-31.564
-32.144
-32.753
-33.389
-34.051
-34.739
-35.45
-36.183
-36.936
-37.706
-38.488
-39.28
-40.078
-40.879
-41.679
-42.475
-43.263
-44.041
-44.808
-45.559
-46.292
-47.003
-47.688
-48.341
-48.957
-49.53
-50.055
-50.525
-50.932
-51.273
-51.54
-51.728
-51.832
-51.843
-51.753
-51.553
-51.242
-50.819
-50.287
-49.65
-48.916
-48.097
-47.21
-46.274
-45.304
-44.314
-43.312
-42.308
-41.311
-40.33
-39.376
-38.453
-37.554
-36.671
-35.787
-34.888
-33.957
-32.967
-31.886
-30.686
-29.351
-27.871
-26.25
-24.491
-22.609
-20.621
-18.549
-16.434
-14.327
-12.287
-10.383
-8.682
-7.243
-6.137
-5.433
-5.179
-5.408
-6.132
-7.347
-9.047
-11.21
-13.8
-16.774
-20.06
-23.58
-27.252
-30.973
-34.647
-38.197
-41.532
-44.588
-47.335
-49.768
-51.923
-53.855
-55.617
-57.263
-58.837
-60.396
-62.041
-63.873
-65.99
-68.496
-71.414
-74.814
-78.866
-83.564
-88.745
-94.043
-98.796
-102.457
-104.742
-105.194
-103.259
-98.809
-91.954
-83.501
-75.042
-67.59
-61.759
-58.506
-58.507
-61.707
-66.692
-69.793
-66.654
-54.87
-35.692
-11.663
16.648
51.353
99.914
168.986
258.919
366.286
481.239
592.409
690.923
766.867
810.085
809.172
753.856
640.7
476.219
279.898
80.074
-94.945
-222.395
-292.858
-312.129
-292.67
-250.812
-202.047
-155.697
-120.553
-102.632
-101.612
-114.538
-133.009
-147.486
-154.532
-154
-149.328
-145.188
-142.207
-139.504
-135.972
-130.107
-122.168
-113.246
-104.005
-95.263
-87.647
-81.266
-76.18
-72.388
-69.705
-68.01
-67.274
-67.392
-68.241
-69.724
-71.702
-74.038
-76.636
-79.373
-82.142
-84.876
-87.496
-89.944
-92.174
-94.115
-95.704
-96.892
-97.612
-97.825
-97.518
-96.683
-95.348
-93.556
-91.344
-88.758
-85.833
-82.587
-79.043
-75.22
-71.127
-66.798
-62.263
-57.557
-52.727
-47.806
-42.807
-37.744
-32.619
-27.426
-22.167
-16.838
-11.434
-5.964
-0.443
5.115
10.697
16.299
21.927
27.586
33.282
39.009
44.756
50.517
56.294
62.081
67.881
73.7
79.548
85.456
91.467
97.609
103.898
110.328
116.882
123.54
130.28
137.083
143.923
150.761
157.548
164.234
170.758
177.045
183.008
188.518
193.441
197.657
201.066
203.599
205.212
205.866
205.542
204.226
201.915
198.624
194.375
189.193
183.121
176.216
168.55
160.248
151.455
142.305
132.943
123.474
113.982
104.545
95.22
86.054
77.096
68.382
59.944
51.825
44.055
36.663
29.683
23.097
16.868
10.952
5.283
-0.181
-5.457
-10.563
-15.5
-20.263
-24.852
-29.26
-33.472
-37.491
-41.321
-44.974
-48.481
-51.84
-55.036
-58.045
-60.822
-63.338
-65.583
-67.544
-69.215
-70.601
-71.703
-72.535
-73.12
-73.47
-73.594
-73.496
-73.166
-72.611
-71.844
-70.886
-69.768
-68.515
-67.146
-65.685
-64.153
-62.57
-60.95
-59.305
-57.637
-55.953
-54.265
-52.582
-50.92
-49.289
-47.697
-46.149
-44.652
-43.209
-41.824
-40.499
-39.235
-38.032
-36.892
-35.818
-34.813
-33.882
-33.024
-32.242
-31.534
-30.903
-30.347
-29.866
-29.457
-29.118
-28.849
-28.645
-28.507
-28.431
-28.415
-28.456
-28.554
-28.705
-28.906
-29.157
-29.453
-29.793
-30.174
-30.595
-31.052
-31.543
-32.067
-32.62
-33.201
-33.808
-34.437
-35.087
-35.755
-36.437
-37.131
-37.834
-38.543
-39.252
-39.96
-40.663
-41.356
-42.038
-42.703
-43.348
-43.971
-44.565
-45.129
-45.657
-46.145
-46.589
-46.985
-47.328
-47.613
-47.837
-47.996
-48.086
-48.104
-48.046
-47.91
-47.693
-47.394
-47.01
-46.542
-45.988
-45.349
-44.627
-43.824
-42.943
-41.989
-40.966
-39.881
-38.742
-37.555
-36.331
-35.078
-33.807
-32.528
-31.251
-29.987
-28.745
-27.539
-26.378
-25.274
-24.24
-23.287
-22.429
-21.679
-21.048
-20.547
-20.181
-19.955
-19.876
-19.95
-20.185
-20.591
-21.171
-21.928
-22.868
-23.989
-25.29
-26.755
-28.355
-30.057
-31.828
-33.638
-35.464
-37.279
-39.055
-40.756
-42.342
-43.777
-45.03
-46.073
-46.877
-47.42
-47.691
-47.718
-47.584
-47.381
-47.204
-47.13
-47.194
-47.462
-48.034
-49.004
-50.467
-52.508
-55.127
-58.39
-62.474
-67.369
-72.925
-78.844
-84.491
-89.327
-93.075
-95.213
-95.088
-92.617
-87.99
-81.738
-75.194
-69.332
-64.596
-62.097
-63.092
-66.641
-70.425
-72.099
-67.723
-57.115
-44.348
-28.753
-8.499
20.811
70.149
143.494
239.496
354.888
478.238
598.631
704.702
782.746
821.216
809.311
743.637
627.928
472.939
298.657
125.137
-28.209
-144.671
-217.59
-247.092
-238.954
-206.2
-162.096
-119.053
-89.627
-78.055
-82.881
-98.368
-112.679
-119.754
-119.088
-112.662
-106.991
-104.658
-104.145
-104.061
-102.027
-97.284
-90.987
-83.98
-76.959
-70.616
-65.378
-61.459
-58.987
-57.861
-57.802
-58.634
-60.217
-62.358
-64.856
-67.529
-70.19
-72.705
-74.976
-76.881
-78.325
-79.244
-79.593
-79.365
-78.556
-77.176
-75.247
-72.805
-69.917
-66.642
-63.028
-59.123
-54.978
-50.653
-46.224
-41.763
-37.321
-32.943
-28.677
-24.575
-20.701
-17.094
-13.771
-10.727
-7.943
-5.409
-3.122
-1.079
0.733
2.342
3.788
5.102
6.319
7.493
8.704
10.064
11.695
13.688
16.103
18.975
22.326
26.189
30.593
35.559
41.096
47.2
53.878
61.151
69.024
77.475
86.433
95.78
105.387
115.147
124.973
134.798
144.552
154.158
163.541
172.634
181.374
189.692
197.489
204.635
211.005
216.494
221.041
224.633
227.267
228.937
229.634
229.341
228.048
225.754
222.461
218.17
212.89
206.638
199.478
191.516
182.872
173.677
164.039
154.039
143.757
133.268
122.657
112.015
101.435
91.012
80.837
71.003
61.599
52.716
44.408
36.696
29.581
23.035
17.039
11.581
6.642
2.207
-1.757
-5.291
-8.448
-11.286
-13.865
-16.239
-18.466
-20.613
-22.727
-24.84
-26.969
-29.109
-31.256
-33.411
-35.569
-37.723
-39.857
-41.946
-43.96
-45.863
-47.624
-49.222
-50.631
-51.829
-52.799
-53.531
-54.026
-54.296
-54.354
-54.207
-53.87
-53.356
-52.684
-51.877
-50.961
-49.962
-48.904
-47.805
-46.681
-45.547
-44.414
-43.291
-42.182
-41.087
-40.006
-38.941
-37.895
-36.868
-35.86
-34.871
-33.896
-32.936
-31.986
-31.046
-30.116
-29.195
-28.284
-27.383
-26.494
-25.621
-24.765
-23.928
-23.11
-22.313
-21.537
-20.783
-20.053
-19.347
-18.666
-18.013
-17.388
-16.795
-16.236
-15.713
-15.229
-14.787
-14.389
-14.039
-13.738
-13.49
-13.298
-13.165
-13.093
-13.085
-13.144
-13.272
-13.471
-13.742
-14.085
-14.501
-14.99
-15.551
-16.182
-16.88
-17.643
-18.466
-19.347
-20.281
-21.263
-22.289
-23.354
-24.454
-25.584
-26.739
-27.911
-29.093
-30.278
-31.458
-32.623
-33.766
-34.874
-35.939
-36.95
-37.898
-38.775
-39.569
-40.267
-40.857
-41.327
-41.671
-41.886
-41.968
-41.92
-41.744
-41.451
-41.057
-40.576
-40.019
-39.396
-38.711
-37.976
-37.201
-36.393
-35.563
-34.716
-33.846
-32.946
-32.005
-30.998
-29.905
-28.691
-27.315
-25.749
-23.976
-21.983
-19.774
-17.355
-14.734
-11.937
-8.992
-5.932
-2.812
0.311
3.368
6.267
8.917
11.226
13.089
14.426
15.172
15.276
14.719
13.499
11.632
9.154
6.115
2.568
-1.412
-5.733
-10.293
-14.959
-19.599
-24.091
-28.303
-32.123
-35.467
-38.264
-40.496
-42.205
-43.451
-44.316
-44.89
-45.235
-45.44
-45.647
-46.001
-46.666
-47.8
-49.483
-51.845
-55.122
-59.365
-64.45
-70.073
-75.61
-80.537
-84.602
-87.327
-88.049
-86.603
-83.127
-78.304
-73.588
-69.778
-67.108
-66.376
-68.391
-73.082
-78.873
-82.194
-78.933
-67.055
-48.235
-25.149
2.773
38.581
88.607
159.169
249.274
354.072
466.48
577.212
678.825
763.561
821.647
842.011
815.866
740.68
619.267
463.863
294.089
128.881
-10.996
-110.197
-167.111
-185.503
-175.859
-153.321
-125.527
-99.394
-82.448
-75.438
-79.553
-92.339
-104.746
-112.915
-115.781
-114.183
-113.455
-115.233
-117.968
-120.516
-120.874
-118.509
-114.519
-109.618
-104.395
-99.479
-95.292
-92.072
-89.92
-88.706
-88.142
-88.03
-88.261
-88.704
-89.21
-89.645
-89.9
-89.919
-89.721
-89.332
-88.741
-87.95
-86.972
-85.828
-84.575
-83.279
-81.994
-80.772
-79.66
-78.677
-77.848
-77.191
-76.696
-76.334
-76.049
-75.748
-75.365
-74.848
-74.146
-73.217
-72.015
-70.485
-68.596
-66.325
-63.652
-60.567
-57.06
-53.12
-48.768
-44.042
-38.997
-33.712
-28.249
-22.659
-16.993
-11.292
-5.588
0.092
5.741
11.358
16.933
22.453
27.899
33.26
38.543
43.764
48.944
54.118
59.325
64.61
70.031
75.627
81.416
87.395
93.542
99.831
106.241
112.758
119.354
125.987
132.605
139.155
145.583
151.827
157.795
163.36
168.382
172.74
176.346
179.137
181.064
182.078
182.138
181.215
179.304
176.427
172.602
167.844
162.167
155.591
148.188
140.081
131.405
122.283
112.823
103.117
93.265
83.382
73.564
63.888
54.405
45.146
36.158
27.505
19.253
11.469
4.177
-2.642
-9.012
-14.949
-20.477
-25.617
-30.414
-34.938
-39.237
-43.33
-47.228
-50.925
-54.431
-57.779
-60.998
-64.122
-67.168
-70.128
-73.003
-75.794
-78.493
-81.083
-83.531
-85.781
-87.8
-89.575
-91.1
-92.381
-93.417
-94.199
-94.723
-94.992
-95.006
-94.775
-94.303
-93.595
-92.663
-91.528
-90.219
-88.775
-87.228
-85.597
-83.904
-82.162
-80.385
-78.591
-76.789
-74.986
-73.19
-71.411
-69.658
-67.943
-66.276
-64.66
-63.099
-61.593
-60.144
-58.754
-57.425
-56.158
-54.956
-53.82
-52.752
-51.757
-50.838
-49.994
-49.226
-48.532
-47.91
-47.36
-46.877
-46.46
-46.104
-45.807
-45.566
-45.378
-45.242
-45.154
-45.112
-45.113
-45.154
-45.232
-45.345
-45.489
-45.663
-45.863
-46.088
-46.335
-46.603
-46.891
-47.196
-47.517
-47.854
-48.205
-48.57
-48.946
-49.334
-49.732
-50.142
-50.562
-50.993
-51.436
-51.889
-52.354
-52.83
-53.316
-53.811
-54.312
-54.818
-55.326
-55.833
-56.337
-56.835
-57.325
-57.804
-58.27
-58.721
-59.154
-59.565
-59.949
-60.303
-60.621
-60.898
-61.129
-61.306
-61.424
-61.477
-61.461
-61.369
-61.194
-60.928
-60.559
-60.083
-59.497
-58.799
-57.991
-57.077
-56.064
-54.965
-53.798
-52.578
-51.32
-50.033
-48.725
-47.41
-46.102
-44.81
-43.549
-42.325
-41.133
-39.97
-38.826
-37.683
-36.521
-35.31
-34.014
-32.612
-31.093
-29.452
-27.694
-25.818
-23.827
-21.739
-19.573
-17.362
-15.152
-12.991
-10.935
-9.066
-7.46
-6.192
-5.344
-4.957
-5.052
-5.644
-6.731
-8.313
-10.378
-12.891
-15.805
-19.063
-22.596
-26.326
-30.161
-33.98
-37.669
-41.133
-44.287
-47.112
-49.623
-51.846
-53.825
-55.597
-57.184
-58.639
-60.057
-61.528
-63.149
-65.033
-67.239
-69.888
-73.208
-77.245
-81.87
-86.765
-91.318
-94.973
-97.454
-98.324
-96.958
-93.238
-87.384
-80.112
-72.976
-67.033
-62.714
-60.854
-62.301
-67.068
-73.63
-78.512
-77.437
-66.854
-47.055
-21.124
10.951
48.995
96.16
161.554
246.705
350.994
472.665
598.43
716.972
817.44
882.526
900.443
861.77
761.566
609.004
423.115
231.041
60.631
-68.567
-147.41
-180.847
-180.735
-159.581
-130.471
-101.554
-78.956
-68.041
-69.347
-80.351
-94.68
-105.973
-112.059
-113.636
-114.611
-117.462
-121.239
-124.396
-124.829
-121.637
-115.696
-107.969
-99.296
-90.522
-82.312
-75.058
-69.008
-64.164
-60.314
-57.344
-55.218
-53.867
-53.193
-53.1
-53.472
-54.222
-55.299
-56.611
-58.043
-59.482
-60.835
-62.054
-63.118
-64.018
-64.742
-65.264
-65.544
-65.529
-65.16
-64.384
-63.182
-61.551
-59.502
-57.066
-54.273
-51.167
-47.799
-44.204
-40.402
-36.413
-32.25
-27.945
-23.56
-19.153
-14.789
-10.531
-6.41
-2.444
1.35
4.978
8.45
11.793
15.063
18.306
21.552
24.841
28.208
31.696
35.382
39.322
43.56
48.145
53.099
58.436
64.183
70.342
76.91
83.885
91.226
98.896
106.871
115.1
123.532
132.106
140.731
149.334
157.86
166.236
174.396
182.278
189.797
196.881
203.46
209.439
214.738
219.291
223.023
225.89
227.865
228.922
229.059
228.272
226.543
223.87
220.273
215.765
210.383
204.172
197.173
189.469
181.164
172.343
163.102
153.527
143.683
133.646
123.492
113.295
103.143
93.132
83.327
73.804
64.627
55.851
47.54
39.727
32.411
25.599
19.288
13.47
8.15
3.32
-1.046
-4.975
-8.512
-11.719
-14.636
-17.306
-19.774
-22.079
-24.271
-26.389
-28.446
-30.452
-32.413
-34.33
-36.212
-38.062
-39.864
-41.6
-43.245
-44.76
-46.123
-47.318
-48.326
-49.137
-49.733
-50.104
-50.251
-50.187
-49.921
-49.466
-48.833
-48.032
-47.085
-46.017
-44.855
-43.63
-42.365
-41.077
-39.784
-38.503
-37.245
-36.022
-34.842
-33.704
-32.613
-31.571
-30.583
-29.652
-28.779
-27.961
-27.197
-26.485
-25.822
-25.208
-24.642
-24.121
-23.645
-23.214
-22.828
-22.486
-22.189
-21.933
-21.718
-21.539
-21.396
-21.284
-21.203
-21.15
-21.123
-21.121
-21.142
-21.187
-21.254
-21.343
-21.453
-21.583
-21.733
-21.902
-22.091
-22.299
-22.525
-22.772
-23.038
-23.324
-23.631
-23.958
-24.305
-24.673
-25.061
-25.469
-25.898
-26.346
-26.815
-27.304
-27.813
-28.341
-28.889
-29.454
-30.035
-30.628
-31.232
-31.841
-32.452
-33.059
-33.659
-34.246
-34.816
-35.365
-35.888
-36.381
-36.842
-37.266
-37.65
-37.986
-38.27
-38.495
-38.656
-38.748
-38.762
-38.694
-38.538
-38.292
-37.955
-37.525
-36.999
-36.375
-35.645
-34.808
-33.869
-32.831
-31.7
-30.488
-29.206
-27.878
-26.534
-25.197
-23.885
-22.607
-21.369
-20.174
-19.03
-17.943
-16.916
-15.953
-15.049
-14.208
-13.439
-12.74
-12.103
-11.502
-10.89
-10.242
-9.552
-8.821
-8.07
-7.321
-6.593
-5.925
-5.366
-4.956
-4.733
-4.716
-4.896
-5.277
-5.87
-6.702
-7.825
-9.264
-11.013
-13.058
-15.362
-17.88
-20.563
-23.333
-26.091
-28.757
-31.269
-33.596
-35.768
-37.831
-39.822
-41.782
-43.715
-45.611
-47.513
-49.496
-51.633
-54.013
-56.72
-59.789
-63.351
-67.633
-72.65
-78.244
-84.08
-89.522
-94.05
-97.42
-99.139
-98.538
-95.526
-90.339
-83.602
-76.743
-70.815
-66.257
-64.118
-65.692
-70.025
-74.611
-76.995
-73.236
-63.281
-51.535
-37.313
-17.854
12.46
65.047
143.416
244.45
362.744
486.974
608.047
716.828
801.455
849.235
846.059
785.613
670.132
511.398
331.577
152.913
-3.819
-123.334
-200.768
-238.858
-247.064
-235.724
-212.3
-182.077
-148.429
-117.295
-95.865
-87.809
-92.172
-102.71
-112.178
-116.749
-116.696
-115.077
-113.833
-113.057
-111.787
-108.472
-102.919
-96.042
-88.68
-81.845
-76.334
-72.321
-69.861
-68.891
-69.113
-70.288
-72.245
-74.752
-77.571
-80.539
-83.482
-86.252
-88.764
-90.907
-92.578
-93.729
-94.335
-94.41
-94.007
-93.178
-91.956
-90.393
-88.538
-86.437
-84.145
-81.687
-79.087
-76.385
-73.622
-70.842
-68.076
-65.331
-62.589
-59.825
-57.002
-54.074
-51.011
-47.775
-44.338
-40.683
-36.795
-32.685
-28.367
-23.85
-19.136
-14.227
-9.127
-3.854
1.562
7.094
12.717
18.401
24.128
29.874
35.613
41.329
47.009
52.659
58.294
63.928
69.571
75.238
80.952
86.752
92.691
98.798
105.088
111.565
118.217
125.04
132.026
139.157
146.398
153.693
160.97
168.161
175.197
181.988
188.422
194.362
199.663
204.213
207.934
210.76
212.634
213.503
213.322
212.074
209.776
206.462
202.181
196.978
190.902
184.036
176.497
168.428
159.966
151.219
142.263
133.18
124.07
115.022
106.118
97.406
88.903
80.625
72.592
64.827
57.351
50.157
43.21
36.472
29.92
23.554
17.395
11.441
5.658
0.021
-5.483
-10.844
-16.036
-21.042
-25.862
-30.495
-34.931
-39.153
-43.129
-46.838
-50.284
-53.476
-56.435
-59.163
-61.634
-63.835
-65.764
-67.426
-68.836
-70.002
-70.919
-71.59
-72.033
-72.263
-72.304
-72.168
-71.856
-71.371
-70.715
-69.898
-68.945
-67.875
-66.701
-65.437
-64.096
-62.692
-61.246
-59.771
-58.271
-56.755
-55.226
-53.694
-52.171
-50.666
-49.188
-47.742
-46.333
-44.966
-43.647
-42.379
-41.165
-40.008
-38.909
-37.871
-36.899
-35.998
-35.171
-34.421
-33.751
-33.163
-32.66
-32.244
-31.914
-31.67
-31.512
-31.439
-31.45
-31.546
-31.723
-31.981
-32.319
-32.734
-33.225
-33.789
-34.423
-35.123
-35.886
-36.71
-37.589
-38.521
-39.501
-40.526
-41.591
-42.691
-43.822
-44.978
-46.153
-47.341
-48.533
-49.723
-50.903
-52.065
-53.199
-54.299
-55.359
-56.372
-57.333
-58.235
-59.073
-59.842
-60.537
-61.152
-61.681
-62.116
-62.45
-62.677
-62.794
-62.795
-62.679
-62.443
-62.084
-61.605
-61.006
-60.287
-59.446
-58.478
-57.382
-56.165
-54.834
-53.403
-51.891
-50.315
-48.695
-47.055
-45.415
-43.789
-42.188
-40.61
-39.052
-37.52
-36.024
-34.583
-33.216
-31.929
-30.726
-29.61
-28.569
-27.601
-26.694
-25.824
-24.975
-24.151
-23.364
-22.654
-22.07
-21.648
-21.413
-21.38
-21.556
-21.963
-22.618
-23.532
-24.715
-26.166
-27.885
-29.899
-32.216
-34.823
-37.687
-40.738
-43.887
-47.06
-50.189
-53.216
-56.093
-58.766
-61.189
-63.337
-65.216
-66.878
-68.371
-69.734
-70.995
-72.173
-73.326
-74.57
-76.024
-77.795
-79.982
-82.614
-85.773
-89.659
-94.29
-99.526
-105.088
-110.402
-114.971
-118.549
-120.655
-120.621
-118.301
-113.887
-107.901
-101.596
-95.95
-91.43
-89.091
-90.298
-94.278
-98.537
-100.677
-97.218
-88.392
-78.673
-67.702
-51.866
-24.332
25.991
102.64
200.573
311.423
424.304
531.328
628.272
709.534
764.906
780.493
743.348
647.935
500.242
318.069
128.013
-44.59
-179.664
-264.86
-302.177
-299.789
-268.91
-225.345
-180.253
-143.007
-121.274
-114.961
-120.299
-129.721
-135.816
-136.547
-133.146
-129.841
-129.295
-130.479
-131.622
-130.473
-126.089
-119.329
-111.165
-102.452
-93.992
-86.393
-80.003
-75.027
-71.458
-69.107
-67.852
-67.615
-68.25
-69.573
-71.423
-73.633
-76.082
-78.701
-81.372
-83.982
-86.453
-88.722
-90.742
-92.478
-93.865
-94.812
-95.269
-95.213
-94.635
-93.552
-91.982
-89.947
-87.489
-84.666
-81.532
-78.13
-74.487
-70.611
-66.519
-62.233
-57.794
-53.254
-48.644
-43.978
-39.265
-34.502
-29.696
-24.848
-19.952
-14.992
-9.959
-4.856
0.3
5.487
10.692
15.914
21.165
26.457
31.792
37.161
42.552
47.957
53.381
58.828
64.299
69.799
75.344
80.967
86.727
92.672
98.828
105.205
111.787
118.555
125.5
132.606
139.858
147.218
154.631
162.039
169.388
176.609
183.617
190.29
196.467
202.003
206.789
210.738
213.793
215.907
217.02
217.084
216.076
213.995
210.859
206.694
201.511
195.335
188.226
180.285
171.669
162.526
152.976
143.121
133.054
122.867
112.673
102.585
92.679
83.012
73.637
64.604
55.989
47.868
40.281
33.232
26.685
20.6
14.956
9.74
4.926
0.476
-3.667
-7.571
-11.268
-14.775
-18.113
-21.306
-24.395
-27.437
-30.459
-33.465
-36.449
-39.397
-42.307
-45.181
-48.002
-50.74
-53.356
-55.802
-58.056
-60.11
-61.952
-63.571
-64.954
-66.078
-66.938
-67.543
-67.899
-68.014
-67.896
-67.548
-66.987
-66.24
-65.335
-64.305
-63.171
-61.951
-60.661
-59.317
-57.932
-56.521
-55.093
-53.652
-52.203
-50.754
-49.314
-47.89
-46.49
-45.113
-43.763
-42.44
-41.148
-39.888
-38.665
-37.479
-36.334
-35.233
-34.182
-33.185
-32.246
-31.367
-30.55
-29.797
-29.109
-28.487
-27.929
-27.437
-27.008
-26.642
-26.34
-26.099
-25.919
-25.799
-25.737
-25.732
-25.782
-25.885
-26.038
-26.24
-26.488
-26.779
-27.112
-27.484
-27.891
-28.333
-28.806
-29.308
-29.836
-30.387
-30.959
-31.547
-32.149
-32.759
-33.374
-33.987
-34.596
-35.195
-35.78
-36.347
-36.892
-37.412
-37.904
-38.365
-38.794
-39.186
-39.539
-39.848
-40.108
-40.316
-40.467
-40.557
-40.581
-40.535
-40.413
-40.217
-39.944
-39.593
-39.159
-38.636
-38.02
-37.316
-36.525
-35.654
-34.713
-33.709
-32.66
-31.589
-30.521
-29.476
-28.47
-27.504
-26.586
-25.721
-24.915
-24.179
-23.512
-22.899
-22.33
-21.8
-21.299
-20.821
-20.342
-19.823
-19.228
-18.533
-17.728
-16.826
-15.84
-14.784
-13.682
-12.561
-11.468
-10.472
-9.623
-8.959
-8.51
-8.293
-8.339
-8.701
-9.415
-10.504
-11.969
-13.785
-15.922
-18.344
-20.998
-23.816
-26.708
-29.566
-32.304
-34.867
-37.212
-39.347
-41.295
-43.063
-44.682
-46.178
-47.553
-48.862
-50.192
-51.627
-53.267
-55.217
-57.532
-60.345
-63.884
-68.164
-73.011
-78.082
-82.746
-86.487
-89.033
-89.904
-88.464
-84.646
-78.766
-71.515
-64.313
-58.202
-53.727
-51.934
-53.824
-58.326
-62.885
-64.796
-61.151
-52.437
-41.274
-26.482
-2.734
37.818
101.51
188.529
290.563
395.841
498.363
594.204
680.532
755.357
805.099
812.71
768.724
668.119
520.929
349.867
177.072
24.602
-92.056
-167.77
-204.235
-208.721
-190.859
-161.398
-129.35
-102.319
-86.514
-82.799
-88.371
-97.182
-103.215
-104.807
-103.175
-101.84
-102.963
-105.518
-107.803
-107.929
-105.155
-100.222
-93.991
-87.189
-80.52
-74.59
-69.733
-66.098
-63.6
-61.949
-60.944
-60.468
-60.37
-60.473
-60.624
-60.697
-60.634
-60.463
-60.183
-59.753
-59.139
-58.301
-57.235
-55.983
-54.589
-53.1
-51.55
-49.964
-48.363
-46.772
-45.211
-43.684
-42.177
-40.644
-39.054
-37.406
-35.716
-34.017
-32.323
-30.615
-28.872
-27.071
-25.202
-23.266
-21.255
-19.149
-16.935
-14.608
-12.178
-9.677
-7.105
-4.418
-1.559
1.558
4.991
8.767
12.909
17.435
22.359
27.707
33.484
39.673
46.272
53.282
60.718
68.616
76.974
85.735
94.831
104.164
113.649
123.237
132.871
142.494
152.056
161.493
170.748
179.792
188.566
196.988
204.953
212.314
218.944
224.772
229.742
233.821
236.976
239.148
240.296
240.401
239.444
237.421
234.327
230.135
224.85
218.527
211.257
203.194
194.497
185.283
175.666
165.756
155.661
145.519
135.443
125.507
115.786
106.349
97.275
88.673
80.622
73.158
66.283
59.95
54.101
48.701
43.705
39.058
34.698
30.539
26.522
22.626
18.832
15.12
11.455
7.778
4.046
0.246
-3.621
-7.535
-11.469
-15.412
-19.336
-23.195
-26.941
-30.513
-33.871
-37.002
-39.896
-42.544
-44.933
-47.037
-48.844
-50.358
-51.585
-52.529
-53.2
-53.601
-53.748
-53.669
-53.394
-52.958
-52.388
-51.699
-50.907
-50.026
-49.072
-48.058
-46.995
-45.887
-44.741
-43.567
-42.375
-41.175
-39.975
-38.779
-37.589
-36.408
-35.238
-34.085
-32.953
-31.844
-30.763
-29.714
-28.705
-27.741
-26.827
-25.967
-25.164
-24.42
-23.737
-23.116
-22.559
-22.066
-21.637
-21.272
-20.972
-20.736
-20.565
-20.458
-20.414
-20.432
-20.511
-20.649
-20.846
-21.099
-21.406
-21.768
-22.18
-22.643
-23.153
-23.709
-24.311
-24.955
-25.639
-26.362
-27.121
-27.913
-28.736
-29.587
-30.462
-31.36
-32.276
-33.208
-34.153
-35.108
-36.071
-37.038
-38.006
-38.973
-39.936
-40.891
-41.835
-42.763
-43.673
-44.56
-45.421
-46.251
-47.046
-47.803
-48.518
-49.188
-49.809
-50.377
-50.888
-51.339
-51.728
-52.048
-52.294
-52.463
-52.549
-52.55
-52.464
-52.29
-52.025
-51.669
-51.222
-50.687
-50.066
-49.358
-48.561
-47.672
-46.692
-45.631
-44.503
-43.319
-42.091
-40.83
-39.553
-38.281
-37.028
-35.802
-34.6
-33.417
-32.257
-31.133
-30.062
-29.067
-28.156
-27.332
-26.593
-25.945
-25.389
-24.922
-24.527
-24.179
-23.872
-23.625
-23.479
-23.475
-23.636
-23.976
-24.495
-25.195
-26.078
-27.138
-28.361
-29.723
-31.204
-32.798
-34.515
-36.365
-38.334
-40.371
-42.391
-44.318
-46.094
-47.665
-48.995
-50.055
-50.84
-51.405
-51.826
-52.193
-52.578
-53.015
-53.541
-54.23
-55.169
-56.464
-58.248
-60.58
-63.566
-67.436
-72.219
-77.787
-83.872
-89.879
-95.27
-99.771
-102.866
-103.848
-102.575
-99.238
-94.377
-89.295
-84.947
-81.693
-80.452
-82.421
-86.766
-91.123
-93.113
-89.086
-78.867
-66.23
-50.51
-28.535
5.544
61.419
141.628
241.272
352.803
466.374
575.248
675.642
761.97
824.223
847.97
819.336
732.018
591.013
413.818
227.495
57.64
-75.71
-160.678
-199.945
-202.174
-178.46
-143.748
-108.288
-80.42
-66.976
-67.773
-79.124
-93.707
-104.444
-109.421
-109.951
-110.365
-113.458
-118.284
-123.126
-125.746
-125.145
-122.137
-117.649
-112.479
-107.407
-103.028
-99.637
-97.392
-96.21
-95.797
-95.972
-96.613
-97.538
-98.549
-99.46
-100.103
-100.394
-100.3
-99.75
-98.682
-97.047
-94.85
-92.185
-89.152
-85.847
-82.363
-78.768
-75.143
-71.584
-68.161
-64.943
-61.991
-59.345
-57.043
-55.131
-53.62
-52.508
-51.765
-51.302
-51.037
-50.903
-50.821
-50.727
-50.559
-50.245
-49.721
-48.935
-47.821
-46.316
-44.376
-41.949
-39.011
-35.549
-31.552
-27.051
-22.078
-16.65
-10.801
-4.557
2.059
9.009
16.241
23.703
31.324
39.031
46.767
54.48
62.131
69.698
77.156
84.518
91.795
98.986
106.085
113.069
119.913
126.601
133.138
139.528
145.778
151.893
157.86
163.664
169.277
174.649
179.705
184.334
188.43
191.906
194.697
196.765
198.079
198.594
198.264
197.044
194.911
191.849
187.854
182.917
177.044
170.269
162.673
154.38
145.515
136.187
126.488
116.495
106.291
95.975
85.651
75.419
65.359
55.545
46.052
36.965
28.373
20.335
12.869
5.959
-0.417
-6.277
-11.63
-16.486
-20.876
-24.843
-28.44
-31.724
-34.734
-37.506
-40.084
-42.516
-44.863
-47.17
-49.458
-51.728
-53.98
-56.211
-58.425
-60.622
-62.781
-64.875
-66.873
-68.737
-70.445
-71.983
-73.332
-74.477
-75.396
-76.077
-76.519
-76.731
-76.722
-76.5
-76.074
-75.453
-74.659
-73.715
-72.648
-71.486
-70.25
-68.957
-67.624
-66.266
-64.894
-63.521
-62.151
-60.788
-59.435
-58.096
-56.777
-55.483
-54.217
-52.978
-51.767
-50.584
-49.43
-48.306
-47.215
-46.156
-45.133
-44.148
-43.205
-42.307
-41.458
-40.66
-39.913
-39.219
-38.578
-37.993
-37.462
-36.987
-36.569
-36.209
-35.907
-35.664
-35.481
-35.359
-35.297
-35.297
-35.357
-35.477
-35.657
-35.897
-36.195
-36.552
-36.966
-37.437
-37.961
-38.539
-39.168
-39.845
-40.568
-41.335
-42.142
-42.987
-43.867
-44.779
-45.718
-46.682
-47.666
-48.664
-49.673
-50.685
-51.695
-52.695
-53.681
-54.647
-55.585
-56.492
-57.362
-58.191
-58.975
-59.709
-60.388
-61.004
-61.551
-62.023
-62.413
-62.715
-62.92
-63.023
-63.019
-62.906
-62.683
-62.345
-61.887
-61.302
-60.586
-59.741
-58.769
-57.675
-56.464
-55.145
-53.736
-52.261
-50.746
-49.208
-47.658
-46.101
-44.541
-42.988
-41.449
-39.933
-38.438
-36.955
-35.484
-34.026
-32.582
-31.146
-29.693
-28.184
-26.591
-24.903
-23.125
-21.277
-19.376
-17.44
-15.495
-13.584
-11.764
-10.096
-8.625
-7.383
-6.405
-5.738
-5.443
-5.596
-6.242
-7.392
-9.039
-11.157
-13.72
-16.693
-20.018
-23.61
-27.36
-31.167
-34.942
-38.611
-42.095
-45.306
-48.147
-50.539
-52.461
-53.938
-55.02
-55.755
-56.172
-56.327
-56.329
-56.319
-56.448
-56.852
-57.607
-58.841
-60.8
-63.633
-67.315
-71.649
-76.137
-80.26
-83.694
-85.996
-86.502
-84.853
-81.152
-75.944
-70.502
-66.215
-63.926
-64.507
-69.224
-77.74
-87.783
-96.997
-101.769
-100.935
-97.274
-90.061
-75.652
-46.755
7.361
89.955
196.697
318.536
443.044
563.27
675.559
773.853
851.029
894.157
888.912
829.541
716.83
561.781
385.156
208.429
52.787
-65.978
-141.764
-176.833
-179.637
-160.424
-129.946
-97.192
-70.342
-56.586
-57.74
-70.816
-87.962
-101.394
-108.272
-109.596
-109.972
-112.436
-116.343
-120.116
-121.51
-119.63
-115.373
-109.688
-103.415
-97.307
-91.889
-87.473
-84.24
-82.119
-80.849
-80.25
-80.195
-80.533
-81.097
-81.727
-82.29
-82.708
-82.959
-83.018
-82.837
-82.39
-81.662
-80.659
-79.407
-77.938
-76.279
-74.47
-72.554
-70.565
-68.539
-66.502
-64.467
-62.441
-60.409
-58.334
-56.193
-53.96
-51.614
-49.159
-46.595
-43.925
-41.169
-38.33
-35.406
-32.408
-29.337
-26.201
-23.016
-19.794
-16.562
-13.365
-10.228
-7.164
-4.164
-1.175
1.864
5.009
8.337
11.899
15.734
19.888
24.397
29.291
34.599
40.341
46.544
53.255
60.515
68.334
76.686
85.493
94.666
104.118
113.752
123.481
133.223
142.886
152.376
161.615
170.524
179.015
186.993
194.332
200.896
206.586
211.344
215.148
217.99
219.861
220.755
220.677
219.644
217.681
214.81
211.052
206.43
200.996
194.823
188.005
180.655
172.86
164.68
156.175
147.404
138.428
129.309
120.102
110.851
101.616
92.474
83.496
74.744
66.258
58.058
50.164
42.597
35.383
28.548
22.11
16.072
10.438
5.215
0.398
-4.019
-8.07
-11.815
-15.299
-18.553
-21.602
-24.459
-27.149
-29.711
-32.174
-34.556
-36.87
-39.12
-41.311
-43.459
-45.56
-47.601
-49.552
-51.368
-53.02
-54.495
-55.781
-56.872
-57.758
-58.42
-58.854
-59.067
-59.066
-58.859
-58.454
-57.855
-57.074
-56.138
-55.072
-53.911
-52.679
-51.393
-50.07
-48.724
-47.369
-46.019
-44.681
-43.356
-42.05
-40.767
-39.512
-38.294
-37.116
-35.977
-34.878
-33.819
-32.798
-31.819
-30.882
-29.988
-29.137
-28.332
-27.576
-26.871
-26.22
-25.623
-25.08
-24.59
-24.154
-23.771
-23.442
-23.163
-22.936
-22.759
-22.633
-22.558
-22.533
-22.558
-22.632
-22.756
-22.929
-23.15
-23.42
-23.737
-24.102
-24.513
-24.971
-25.474
-26.022
-26.614
-27.249
-27.925
-28.641
-29.397
-30.191
-31.021
-31.886
-32.783
-33.71
-34.665
-35.644
-36.642
-37.655
-38.679
-39.707
-40.736
-41.759
-42.771
-43.767
-44.742
-45.692
-46.611
-47.492
-48.33
-49.118
-49.848
-50.514
-51.108
-51.623
-52.05
-52.383
-52.616
-52.743
-52.759
-52.655
-52.423
-52.057
-51.554
-50.916
-50.145
-49.246
-48.229
-47.106
-45.897
-44.621
-43.297
-41.94
-40.563
-39.18
-37.8
-36.438
-35.108
-33.815
-32.556
-31.324
-30.107
-28.891
-27.66
-26.393
-25.057
-23.629
-22.09
-20.431
-18.652
-16.757
-14.756
-12.665
-10.506
-8.317
-6.152
-4.069
-2.143
-0.443
0.967
2.017
2.641
2.795
2.447
1.579
0.192
-1.708
-4.102
-6.953
-10.214
-13.816
-17.671
-21.684
-25.739
-29.722
-33.539
-37.097
-40.334
-43.243
-45.831
-48.125
-50.163
-51.956
-53.548
-55.021
-56.459
-57.96
-59.619
-61.492
-63.703
-66.49
-69.957
-74.042
-78.534
-82.94
-86.777
-89.762
-91.449
-91.175
-88.613
-83.874
-77.447
-70.498
-64.3
-59.635
-57.452
-59.167
-64.389
-70.705
-75.938
-76.812
-72.969
-68.413
-62.829
-52.342
-29
19.284
96.78
199.301
317.57
438.891
555.576
662.825
753.91
820.644
849.319
827.163
750.625
621.987
454.533
271.115
92.871
-57.651
-163.406
-222.9
-240.417
-226.853
-198.514
-163.706
-130.207
-107.066
-95.685
-97.616
-110.089
-122.559
-130.23
-131.529
-127.176
-123.245
-121.826
-121.427
-120.898
-117.99
-112.084
-104.466
-96.07
-87.642
-79.916
-73.355
-68.21
-64.65
-62.637
-61.935
-62.378
-63.868
-66.228
-69.275
-72.843
-76.714
-80.706
-84.66
-88.376
-91.701
-94.54
-96.802
-98.442
-99.421
-99.688
-99.229
-98.058
-96.191
-93.663
-90.519
-86.809
-82.628
-78.081
-73.276
-68.326
-63.297
-58.235
-53.186
-48.185
-43.262
-38.454
-33.771
-29.223
-24.837
-20.618
-16.557
-12.625
-8.755
-4.889
-0.983
3.004
7.087
11.279
15.6
20.053
24.641
29.373
34.253
39.301
44.557
50.035
55.729
61.605
67.599
73.67
79.8
85.973
92.191
98.455
104.762
111.133
117.583
124.109
130.698
137.31
143.884
150.38
156.762
163.01
169.122
175.061
180.775
186.207
191.274
195.896
199.994
203.466
206.224
208.207
209.366
209.681
209.151
207.773
205.554
202.508
198.644
194.001
188.632
182.602
176.006
168.934
161.476
153.74
145.815
137.778
129.7
121.631
113.611
105.679
97.864
90.184
82.664
75.312
68.128
61.106
54.218
47.443
40.768
34.174
27.655
21.209
14.835
8.544
2.353
-3.722
-9.665
-15.453
-21.074
-26.508
-31.734
-36.729
-41.466
-45.922
-50.082
-53.934
-57.47
-60.687
-63.582
-66.161
-68.432
-70.405
-72.09
-73.495
-74.629
-75.503
-76.128
-76.517
-76.684
-76.644
-76.407
-75.987
-75.397
-74.648
-73.754
-72.724
-71.57
-70.301
-68.929
-67.466
-65.925
-64.317
-62.654
-60.948
-59.21
-57.452
-55.685
-53.918
-52.16
-50.421
-48.708
-47.031
-45.395
-43.809
-42.278
-40.809
-39.407
-38.078
-36.826
-35.654
-34.568
-33.57
-32.662
-31.848
-31.129
-30.506
-29.982
-29.556
-29.229
-29
-28.87
-28.838
-28.901
-29.059
-29.309
-29.648
-30.074
-30.581
-31.168
-31.828
-32.558
-33.353
-34.207
-35.116
-36.073
-37.073
-38.11
-39.178
-40.268
-41.376
-42.493
-43.613
-44.729
-45.833
-46.918
-47.978
-49.005
-49.993
-50.935
-51.823
-52.652
-53.414
-54.104
-54.715
-55.241
-55.677
-56.017
-56.257
-56.392
-56.42
-56.337
-56.14
-55.828
-55.399
-54.853
-54.19
-53.41
-52.515
-51.508
-50.392
-49.172
-47.854
-46.443
-44.948
-43.378
-41.743
-40.051
-38.314
-36.544
-34.752
-32.951
-31.156
-29.379
-27.633
-25.932
-24.292
-22.728
-21.253
-19.881
-18.625
-17.498
-16.513
-15.686
-15.028
-14.548
-14.255
-14.156
-14.257
-14.569
-15.099
-15.845
-16.81
-17.99
-19.379
-20.975
-22.763
-24.721
-26.82
-29.025
-31.301
-33.622
-35.956
-38.27
-40.532
-42.701
-44.741
-46.629
-48.333
-49.832
-51.111
-52.155
-52.975
-53.608
-54.109
-54.573
-55.089
-55.737
-56.588
-57.677
-59.058
-60.817
-63.017
-65.728
-68.998
-72.81
-77.218
-82.337
-88.081
-94.213
-100.317
-105.712
-109.871
-112.411
-112.754
-110.453
-105.503
-98.194
-89.434
-80.494
-72.257
-65.675
-61.89
-61.4
-63.073
-64.336
-62.074
-53.853
-40.628
-24.432
-4.009
24.27
67.091
130.722
214.127
311.563
415.07
516.649
611.159
693.008
754.186
781.621
761.347
686.434
555.898
382.417
190.883
4.9
-149.981
-255.283
-310.185
-318.358
-290.776
-246.328
-195.915
-150.888
-123.162
-112.607
-117.354
-131.289
-141.635
-144.011
-138.978
-129.111
-121.056
-116.892
-114.64
-112.63
-108.803
-102.68
-95.464
-88.046
-81.015
-74.918
-70.153
-66.911
-65.21
-64.892
-65.645
-67.246
-69.573
-72.435
-75.605
-78.856
-81.975
-84.82
-87.314
-89.394
-90.989
-92.055
-92.561
-92.51
-91.95
-90.934
-89.506
-87.714
-85.597
-83.204
-80.601
-77.858
-75.033
-72.175
-69.309
-66.449
-63.615
-60.814
-58.043
-55.296
-52.54
-49.747
-46.909
-44.016
-41.055
-38.01
-34.842
-31.517
-28.024
-24.357
-20.53
-16.553
-12.42
-8.127
-3.668
0.964
5.768
10.749
15.932
21.339
26.98
32.854
38.935
45.197
51.639
58.278
65.152
72.287
79.687
87.34
95.223
103.309
111.566
119.948
128.384
136.799
145.118
153.278
161.233
168.931
176.292
183.205
189.527
195.14
199.949
203.885
206.893
208.925
209.945
209.94
208.925
206.933
204.005
200.18
195.488
189.984
183.748
176.895
169.572
161.904
153.992
145.927
137.781
129.628
121.537
113.554
105.703
98.002
90.462
83.102
75.942
68.985
62.218
55.611
49.112
42.69
36.33
30.021
23.763
17.557
11.405
5.322
-0.661
-6.522
-12.236
-17.786
-23.159
-28.338
-33.295
-38.005
-42.437
-46.569
-50.39
-53.889
-57.063
-59.911
-62.434
-64.64
-66.546
-68.163
-69.503
-70.576
-71.39
-71.957
-72.29
-72.402
-72.307
-72.018
-71.546
-70.906
-70.109
-69.167
-68.092
-66.894
-65.583
-64.168
-62.661
-61.075
-59.419
-57.707
-55.949
-54.156
-52.338
-50.507
-48.672
-46.841
-45.022
-43.224
-41.454
-39.719
-38.025
-36.381
-34.791
-33.262
-31.799
-30.408
-29.093
-27.86
-26.713
-25.657
-24.696
-23.833
-23.072
-22.416
-21.867
-21.428
-21.099
-20.882
-20.778
-20.785
-20.903
-21.131
-21.467
-21.909
-22.452
-23.094
-23.831
-24.658
-25.57
-26.562
-27.628
-28.762
-29.957
-31.207
-32.504
-33.84
-35.208
-36.6
-38.006
-39.418
-40.827
-42.224
-43.598
-44.941
-46.242
-47.493
-48.685
-49.806
-50.85
-51.807
-52.669
-53.428
-54.077
-54.608
-55.015
-55.294
-55.439
-55.446
-55.313
-55.038
-54.618
-54.055
-53.348
-52.498
-51.509
-50.382
-49.123
-47.737
-46.229
-44.607
-42.88
-41.058
-39.15
-37.171
-35.131
-33.046
-30.931
-28.8
-26.67
-24.554
-22.469
-20.43
-18.453
-16.553
-14.745
-13.045
-11.468
-10.032
-8.75
-7.637
-6.703
-5.956
-5.403
-5.049
-4.901
-4.968
-5.259
-5.778
-6.53
-7.52
-8.747
-10.207
-11.883
-13.744
-15.755
-17.881
-20.088
-22.349
-24.633
-26.907
-29.131
-31.262
-33.258
-35.08
-36.693
-38.061
-39.16
-39.976
-40.536
-40.923
-41.226
-41.541
-41.95
-42.494
-43.241
-44.295
-45.764
-47.758
-50.376
-53.636
-57.601
-62.442
-68.153
-74.58
-81.376
-87.869
-93.503
-97.993
-100.883
-101.601
-100.039
-96.353
-91.181
-85.928
-81.429
-77.975
-76.394
-77.418
-80.831
-85.137
-87.163
-83.044
-70.767
-51.66
-27.574
2.113
39.79
90.969
160.784
247.536
346.202
450.191
551.127
643.493
721.806
775.778
792.482
759.309
669.663
528.083
351.513
166.641
-1.158
-132.197
-214.938
-253.179
-255.555
-230.732
-192.353
-148.458
-106.781
-79.556
-70.121
-77.845
-97.428
-116.056
-127.35
-130.181
-126.573
-122.777
-120.982
-120.298
-119.607
-116.804
-111.561
-104.994
-97.858
-91.012
-85.153
-80.376
-76.694
-74.04
-72.146
-70.826
-69.976
-69.46
-69.136
-68.903
-68.688
-68.461
-68.248
-68.028
-67.738
-67.331
-66.773
-66.069
-65.25
-64.338
-63.342
-62.27
-61.143
-59.994
-58.84
-57.677
-56.472
-55.166
-53.711
-52.099
-50.335
-48.423
-46.363
-44.144
-41.768
-39.271
-36.681
-34.019
-31.282
-28.439
-25.477
-22.408
-19.251
-16.039
-12.783
-9.453
-6.035
-2.526
1.086
4.808
8.683
12.795
17.209
21.961
27.067
32.505
38.264
44.356
50.776
57.506
64.517
71.753
79.188
86.838
94.7
102.761
110.977
119.257
127.527
135.738
143.841
151.806
159.6
167.162
174.448
181.434
188.094
194.403
200.31
205.706
210.49
214.583
217.918
220.471
222.221
223.127
223.168
222.327
220.581
217.938
214.413
210
204.716
198.58
191.627
183.947
175.646
166.819
157.568
147.974
138.106
128.056
117.907
107.742
97.66
87.737
78.03
68.612
59.541
50.88
42.698
35.023
27.855
21.195
15.03
9.353
4.166
-0.552
-4.838
-8.735
-12.304
-15.592
-18.621
-21.429
-24.047
-26.516
-28.892
-31.207
-33.469
-35.687
-37.863
-40.001
-42.112
-44.188
-46.202
-48.125
-49.914
-51.543
-53.002
-54.28
-55.367
-56.249
-56.909
-57.34
-57.552
-57.554
-57.352
-56.956
-56.37
-55.609
-54.701
-53.674
-52.56
-51.383
-50.158
-48.901
-47.627
-46.347
-45.075
-43.816
-42.572
-41.346
-40.142
-38.966
-37.823
-36.716
-35.644
-34.605
-33.598
-32.622
-31.68
-30.769
-29.892
-29.049
-28.243
-27.476
-26.753
-26.076
-25.446
-24.866
-24.336
-23.856
-23.428
-23.052
-22.729
-22.459
-22.244
-22.085
-21.983
-21.941
-21.959
-22.039
-22.18
-22.383
-22.648
-22.975
-23.364
-23.813
-24.321
-24.887
-25.509
-26.185
-26.911
-27.685
-28.503
-29.36
-30.251
-31.172
-32.116
-33.079
-34.053
-35.031
-36.008
-36.977
-37.929
-38.858
-39.757
-40.616
-41.428
-42.185
-42.878
-43.499
-44.039
-44.491
-44.848
-45.102
-45.248
-45.281
-45.196
-44.99
-44.659
-44.202
-43.618
-42.907
-42.07
-41.11
-40.031
-38.836
-37.533
-36.128
-34.63
-33.048
-31.393
-29.677
-27.912
-26.112
-24.292
-22.468
-20.655
-18.869
-17.126
-15.442
-13.834
-12.316
-10.905
-9.616
-8.464
-7.466
-6.637
-5.988
-5.532
-5.273
-5.219
-5.373
-5.74
-6.323
-7.129
-8.155
-9.403
-10.876
-12.57
-14.478
-16.583
-18.852
-21.249
-23.742
-26.296
-28.882
-31.467
-34.012
-36.48
-38.83
-41.02
-43.014
-44.773
-46.251
-47.416
-48.248
-48.763
-49.035
-49.139
-49.151
-49.138
-49.134
-49.2
-49.442
-49.947
-50.805
-52.099
-53.836
-56.115
-59.152
-62.966
-67.417
-72.18
-76.611
-80.192
-82.635
-83.436
-82.005
-78.236
-72.327
-65.032
-57.79
-51.69
-47.473
-46.102
-48.315
-53.076
-58.03
-60.439
-57.298
-48.797
-37.019
-20.702
4.109
44.039
105.938
189.899
290.113
398.199
505.762
606.641
693.896
758.949
790.374
777.062
715.899
609.973
469.546
311.414
151.836
7.934
-105.125
-180.17
-216.673
-221.962
-208.018
-183.929
-157.157
-132.88
-113.259
-102.197
-100.33
-103.659
-109.509
-113.964
-115.214
-115.974
-116.894
-117.67
-117.945
-115.759
-110.511
-102.992
-93.905
-84.191
-74.765
-66.228
-58.944
-53.156
-48.895
-45.989
-44.342
-43.882
-44.456
-45.918
-48.128
-50.923
-54.183
-57.824
-61.718
-65.73
-69.748
-73.665
-77.404
-80.891
-84.03
-86.726
-88.894
-90.478
-91.457
-91.822
-91.581
-90.752
-89.37
-87.48
-85.134
-82.381
-79.259
-75.798
-72.022
-67.964
-63.673
-59.202
-54.605
-49.918
-45.16
-40.342
-35.47
-30.549
-25.575
-20.541
-15.434
-10.25
-4.997
0.31
5.658
11.042
16.463
21.93
27.451
33.026
38.652
44.322
50.033
55.786
61.579
67.41
73.285
79.212
85.208
91.302
97.503
103.814
110.23
116.735
123.314
129.946
136.595
143.221
149.78
156.213
162.46
168.454
174.105
179.334
184.063
188.211
191.719
194.535
196.607
197.899
198.378
198.025
196.839
194.825
191.996
188.381
184.022
178.981
173.342
167.174
160.528
153.451
145.984
138.178
130.093
121.786
113.312
104.725
96.083
87.45
78.89
70.449
62.154
54.014
46.028
38.219
30.629
23.316
16.327
9.689
3.421
-2.462
-7.952
-13.053
-17.79
-22.212
-26.363
-30.268
-33.941
-37.373
-40.567
-43.539
-46.318
-48.947
-51.455
-53.861
-56.181
-58.432
-60.618
-62.737
-64.762
-66.646
-68.353
-69.863
-71.168
-72.27
-73.168
-73.857
-74.331
-74.586
-74.622
-74.442
-74.048
-73.442
-72.63
-71.629
-70.465
-69.173
-67.784
-66.318
-64.794
-63.224
-61.622
-60.002
-58.373
-56.74
-55.108
-53.486
-51.882
-50.307
-48.768
-47.269
-45.814
-44.405
-43.042
-41.729
-40.469
-39.266
-38.122
-37.041
-36.028
-35.088
-34.225
-33.443
-32.742
-32.124
-31.589
-31.137
-30.767
-30.478
-30.269
-30.138
-30.083
-30.103
-30.195
-30.357
-30.587
-30.882
-31.238
-31.653
-32.124
-32.648
-33.22
-33.839
-34.501
-35.203
-35.941
-36.711
-37.511
-38.338
-39.187
-40.055
-40.938
-41.831
-42.731
-43.634
-44.534
-45.425
-46.304
-47.165
-48.005
-48.82
-49.604
-50.356
-51.073
-51.751
-52.388
-52.981
-53.524
-54.015
-54.45
-54.826
-55.137
-55.38
-55.55
-55.642
-55.655
-55.584
-55.424
-55.169
-54.807
-54.336
-53.753
-53.062
-52.264
-51.366
-50.376
-49.311
-48.192
-47.039
-45.867
-44.687
-43.505
-42.335
-41.193
-40.095
-39.056
-38.08
-37.163
-36.3
-35.485
-34.696
-33.905
-33.075
-32.154
-31.11
-29.931
-28.606
-27.14
-25.529
-23.766
-21.86
-19.831
-17.714
-15.55
-13.385
-11.267
-9.269
-7.487
-6.017
-4.955
-4.362
-4.261
-4.673
-5.605
-7.063
-9.049
-11.535
-14.472
-17.801
-21.462
-25.389
-29.511
-33.721
-37.891
-41.906
-45.667
-49.143
-52.351
-55.311
-58.056
-60.605
-62.965
-65.187
-67.363
-69.581
-71.918
-74.443
-77.178
-80.222
-83.799
-87.993
-92.704
-97.647
-102.251
-105.968
-108.467
-109.312
-107.876
-103.88
-97.488
-89.229
-80.386
-72.357
-66.01
-62.363
-62.718
-66.573
-71.661
-75.911
-75.969
-70.789
-63.042
-51.495
-32.346
0.554
56.326
137.455
239.306
353.631
470.164
581.854
683.184
767.031
824.227
841.562
808.588
723.619
590.094
422.035
241.716
68.692
-75.213
-173.338
-224.669
-233.259
-209.743
-171.634
-128.98
-90.666
-67.081
-59.418
-67.217
-86.173
-104.74
-117.501
-122.896
-121.987
-120.571
-120.56
-121.12
-121.424
-119.403
-114.736
-108.6
-101.753
-95.096
-89.399
-84.799
-81.358
-79.074
-77.704
-77.06
-77.022
-77.446
-78.188
-79.144
-80.215
-81.3
-82.34
-83.265
-84.005
-84.52
-84.785
-84.801
-84.583
-84.151
-83.534
-82.764
-81.869
-80.862
-79.734
-78.461
-77.039
-75.474
-73.775
-71.951
-69.99
-67.876
-65.594
-63.13
-60.468
-57.593
-54.481
-51.111
-47.479
-43.59
-39.464
-35.134
-30.619
-25.935
-21.098
-16.126
-11.045
-5.881
-0.653
4.618
9.914
15.22
20.522
25.812
31.09
36.353
41.599
46.829
52.047
57.262
62.482
67.717
72.982
78.299
83.703
89.232
94.918
100.771
106.788
112.953
119.245
125.649
132.152
138.73
145.341
151.934
158.461
164.869
171.101
177.074
182.67
187.757
192.222
195.981
198.972
201.153
202.476
202.894
202.369
200.89
198.467
195.119
190.86
185.7
179.661
172.8
165.232
157.086
148.484
139.524
130.292
120.876
111.375
101.9
92.539
83.352
74.384
65.681
57.304
49.325
41.812
34.801
28.279
22.221
16.604
11.414
6.635
2.233
-1.847
-5.674
-9.291
-12.719
-15.97
-19.06
-22.019
-24.894
-27.729
-30.547
-33.35
-36.135
-38.902
-41.653
-44.381
-47.062
-49.655
-52.11
-54.4
-56.512
-58.44
-60.182
-61.726
-63.056
-64.162
-65.044
-65.707
-66.156
-66.395
-66.425
-66.258
-65.915
-65.425
-64.82
-64.124
-63.352
-62.517
-61.63
-60.703
-59.748
-58.77
-57.772
-56.758
-55.732
-54.702
-53.674
-52.653
-51.639
-50.632
-49.63
-48.634
-47.645
-46.665
-45.693
-44.733
-43.787
-42.859
-41.953
-41.074
-40.223
-39.403
-38.615
-37.86
-37.139
-36.452
-35.802
-35.188
-34.611
-34.073
-33.577
-33.122
-32.712
-32.348
-32.029
-31.758
-31.535
-31.361
-31.236
-31.161
-31.136
-31.162
-31.239
-31.367
-31.546
-31.777
-32.058
-32.387
-32.765
-33.19
-33.658
-34.169
-34.72
-35.309
-35.935
-36.593
-37.283
-38
-38.741
-39.503
-40.28
-41.068
-41.86
-42.65
-43.432
-44.2
-44.949
-45.672
-46.364
-47.021
-47.638
-48.21
-48.734
-49.203
-49.611
-49.952
-50.218
-50.404
-50.505
-50.513
-50.421
-50.226
-49.925
-49.517
-48.999
-48.367
-47.614
-46.739
-45.742
-44.629
-43.405
-42.081
-40.665
-39.176
-37.639
-36.078
-34.52
-32.981
-31.466
-29.986
-28.551
-27.17
-25.856
-24.611
-23.423
-22.286
-21.198
-20.152
-19.145
-18.159
-17.154
-16.102
-14.98
-13.779
-12.512
-11.194
-9.835
-8.461
-7.103
-5.81
-4.654
-3.696
-2.974
-2.531
-2.393
-2.593
-3.186
-4.209
-5.678
-7.597
-9.937
-12.666
-15.75
-19.13
-22.724
-26.434
-30.136
-33.715
-37.096
-40.21
-43.026
-45.551
-47.778
-49.732
-51.449
-52.946
-54.281
-55.553
-56.855
-58.303
-60.029
-62.109
-64.7
-68.073
-72.308
-77.302
-82.784
-88.152
-92.862
-96.617
-98.93
-99.113
-96.922
-92.536
-86.559
-80.387
-75.331
-72.08
-71.514
-74.799
-81.267
-88.512
-94.19
-94.553
-88.524
-78.875
-64.556
-42.221
-5.893
53.71
139.15
246.172
367.218
491.728
611.904
721.451
811.541
872.655
893.473
865.119
787.508
664.821
507.266
332.389
156.767
0.53
-116.245
-185.918
-207.58
-190.875
-155.413
-116.012
-85.964
-72.947
-74.188
-85.287
-98.022
-104.728
-104.832
-100.614
-96.862
-97.41
-101.572
-106.688
-109.949
-110.046
-107.47
-103.267
-98.384
-93.326
-88.508
-84.521
-81.704
-80.116
-79.629
-79.942
-80.831
-82.165
-83.77
-85.434
-86.983
-88.284
-89.254
-89.874
-90.122
-89.97
-89.441
-88.568
-87.393
-85.985
-84.407
-82.724
-81.01
-79.329
-77.72
-76.22
-74.857
-73.642
-72.584
-71.663
-70.827
-70.022
-69.183
-68.248
-67.172
-65.9
-64.38
-62.569
-60.43
-57.934
-55.072
-51.833
-48.201
-44.18
-39.781
-35.039
-30.009
-24.745
-19.293
-13.701
-8.013
-2.265
3.505
9.276
15.042
20.798
26.538
32.249
37.909
43.506
49.046
54.544
60.022
65.508
71.029
76.624
82.352
88.262
94.381
100.718
107.251
113.957
120.822
127.831
134.969
142.212
149.514
156.825
164.098
171.266
178.24
184.906
191.107
196.693
201.555
205.603
208.778
211.032
212.305
212.548
211.729
209.818
206.798
202.661
197.385
190.983
183.516
175.077
165.813
155.877
145.389
134.461
123.2
111.704
100.084
88.45
76.895
65.524
54.457
43.812
33.719
24.281
15.546
7.541
0.258
-6.335
-12.248
-17.502
-22.129
-26.159
-29.628
-32.583
-35.065
-37.132
-38.878
-40.39
-41.764
-43.078
-44.376
-45.693
-47.05
-48.452
-49.903
-51.401
-52.931
-54.479
-56.04
-57.595
-59.128
-60.609
-61.986
-63.216
-64.263
-65.095
-65.7
-66.069
-66.197
-66.089
-65.761
-65.229
-64.515
-63.639
-62.613
-61.457
-60.193
-58.845
-57.447
-56.024
-54.596
-53.181
-51.791
-50.437
-49.127
-47.865
-46.65
-45.479
-44.352
-43.267
-42.228
-41.234
-40.281
-39.368
-38.492
-37.648
-36.838
-36.058
-35.307
-34.584
-33.887
-33.216
-32.572
-31.954
-31.361
-30.79
-30.239
-29.706
-29.189
-28.687
-28.196
-27.717
-27.249
-26.791
-26.344
-25.908
-25.484
-25.074
-24.677
-24.297
-23.934
-23.592
-23.271
-22.976
-22.707
-22.469
-22.265
-22.095
-21.964
-21.875
-21.829
-21.831
-21.881
-21.984
-22.141
-22.355
-22.628
-22.962
-23.358
-23.817
-24.339
-24.924
-25.57
-26.275
-27.035
-27.848
-28.708
-29.612
-30.554
-31.529
-32.531
-33.556
-34.597
-35.648
-36.702
-37.75
-38.783
-39.795
-40.775
-41.714
-42.602
-43.428
-44.184
-44.861
-45.449
-45.939
-46.318
-46.573
-46.693
-46.675
-46.516
-46.214
-45.774
-45.2
-44.505
-43.709
-42.829
-41.878
-40.869
-39.808
-38.71
-37.592
-36.471
-35.363
-34.276
-33.21
-32.163
-31.132
-30.102
-29.048
-27.938
-26.73
-25.397
-23.928
-22.318
-20.571
-18.686
-16.662
-14.507
-12.246
-9.911
-7.543
-5.189
-2.898
-0.746
1.175
2.769
3.942
4.632
4.807
4.445
3.534
2.066
0.041
-2.516
-5.556
-9.022
-12.856
-16.989
-21.34
-25.801
-30.238
-34.529
-38.571
-42.314
-45.756
-48.905
-51.779
-54.399
-56.775
-58.956
-61.035
-63.096
-65.219
-67.476
-69.905
-72.617
-75.846
-79.695
-84.087
-88.779
-93.264
-97.043
-99.821
-101.157
-100.388
-97.192
-91.676
-84.331
-76.367
-69.104
-63.349
-60.076
-60.66
-64.715
-70.062
-74.7
-75.298
-71.113
-65.319
-56.972
-42.407
-14.818
36.253
113.913
213.887
328.258
446.566
562.556
672.318
768.624
839.976
870.328
844.805
758.592
618.74
442.747
256.474
83.832
-57.513
-155.772
-212.019
-233.111
-226.884
-205.501
-176.034
-145.143
-122.542
-111.25
-112.75
-123.963
-134.737
-140.338
-139.678
-134.19
-129.665
-127.88
-127.151
-126.006
-122.25
-115.35
-106.489
-96.541
-86.234
-76.312
-67.329
-59.646
-53.485
-48.867
-45.629
-43.658
-42.897
-43.208
-44.407
-46.341
-48.846
-51.775
-55.031
-58.477
-61.961
-65.385
-68.661
-71.699
-74.425
-76.734
-78.515
-79.708
-80.281
-80.215
-79.524
-78.224
-76.35
-73.97
-71.161
-67.995
-64.539
-60.83
-56.895
-52.777
-48.523
-44.198
-39.88
-35.632
-31.502
-27.537
-23.76
-20.173
-16.765
-13.492
-10.3
-7.13
-3.94
-0.708
2.576
5.918
9.332
12.842
16.49
20.322
24.383
28.724
33.373
38.34
43.621
49.192
55.014
61.033
67.218
73.556
80.061
86.765
93.688
100.834
108.184
115.702
123.341
131.047
138.772
146.466
154.075
161.552
168.865
175.993
182.896
189.506
195.71
201.368
206.362
210.595
213.998
216.513
218.095
218.702
218.308
216.915
214.543
211.215
206.941
201.73
195.597
188.602
180.862
172.515
163.689
154.492
145.021
135.376
125.668
116.012
106.498
97.183
88.109
79.317
70.865
62.82
55.246
48.17
41.577
35.435
29.72
24.418
19.508
14.954
10.699
6.67
2.825
-0.857
-4.384
-7.77
-11.043
-14.242
-17.407
-20.555
-23.683
-26.787
-29.863
-32.915
-35.935
-38.901
-41.77
-44.493
-47.041
-49.401
-51.569
-53.538
-55.299
-56.836
-58.138
-59.209
-60.053
-60.676
-61.082
-61.273
-61.259
-61.06
-60.707
-60.232
-59.658
-59.003
-58.279
-57.501
-56.681
-55.831
-54.96
-54.069
-53.164
-52.25
-51.334
-50.424
-49.525
-48.637
-47.76
-46.894
-46.038
-45.195
-44.364
-43.548
-42.748
-41.965
-41.204
-40.47
-39.765
-39.091
-38.451
-37.846
-37.276
-36.744
-36.249
-35.791
-35.37
-34.988
-34.643
-34.337
-34.07
-33.842
-33.653
-33.503
-33.393
-33.322
-33.292
-33.301
-33.349
-33.438
-33.567
-33.736
-33.945
-34.194
-34.483
-34.812
-35.181
-35.587
-36.032
-36.512
-37.026
-37.571
-38.145
-38.743
-39.362
-39.997
-40.645
-41.3
-41.96
-42.619
-43.274
-43.921
-44.557
-45.18
-45.784
-46.366
-46.918
-47.436
-47.914
-48.345
-48.723
-49.041
-49.291
-49.467
-49.566
-49.585
-49.519
-49.362
-49.105
-48.742
-48.275
-47.705
-47.038
-46.28
-45.44
-44.535
-43.588
-42.623
-41.662
-40.721
-39.801
-38.909
-38.049
-37.23
-36.46
-35.738
-35.051
-34.386
-33.739
-33.1
-32.461
-31.8
-31.074
-30.247
-29.291
-28.197
-26.981
-25.658
-24.245
-22.768
-21.257
-19.76
-18.352
-17.088
-16.008
-15.147
-14.521
-14.165
-14.141
-14.492
-15.248
-16.417
-17.973
-19.887
-22.127
-24.643
-27.371
-30.228
-33.099
-35.895
-38.562
-41.061
-43.404
-45.615
-47.694
-49.658
-51.527
-53.3
-55.026
-56.788
-58.649
-60.689
-62.991
-65.585
-68.608
-72.288
-76.635
-81.491
-86.49
-90.988
-94.478
-96.686
-97.122
-95.205
-90.851
-84.308
-76.395
-68.618
-62.153
-57.829
-56.637
-59.343
-64.791
-70.401
-73.414
-70.815
-62.977
-52.409
-37.657
-14.255
25.04
87.918
174.168
276.62
385.518
491.516
588.907
672.717
736.355
768.533
756.38
693.838
581.193
429.227
258.139
88.703
-58.359
-167.964
-234.755
-261.354
-256.448
-230.437
-193.912
-155.42
-122.695
-102.564
-96.615
-102.129
-111.958
-118.852
-120.217
-116.966
-113.123
-111.315
-110.912
-110.497
-108.168
-103.297
-96.821
-89.662
-82.603
-76.328
-71.288
-67.755
-65.882
-65.559
-66.502
-68.493
-71.369
-74.94
-79.004
-83.335
-87.677
-91.837
-95.679
-99.085
-101.977
-104.285
-105.948
-106.93
-107.206
-106.779
-105.675
-103.923
-101.556
-98.617
-95.16
-91.256
-87.012
-82.515
-77.841
-73.051
-68.181
-63.263
-58.326
-53.384
-48.456
-43.561
-38.715
-33.931
-29.229
-24.616
-20.104
-15.72
-11.471
-7.367
-3.422
0.365
3.99
7.44
10.712
13.811
16.755
19.601
22.408
25.222
28.086
31.034
34.116
37.418
41.017
44.971
49.341
54.168
59.501
65.412
71.947
79.109
86.873
95.162
103.882
112.962
122.329
131.904
141.593
151.257
160.767
170.016
178.889
187.268
195.014
201.944
207.908
212.811
216.584
219.207
220.674
220.967
220.092
218.074
214.952
210.794
205.666
199.612
192.694
184.994
176.621
167.741
158.496
149
139.363
129.676
120.027
110.508
101.178
92.073
83.224
74.651
66.382
58.465
50.93
43.799
37.082
30.75
24.78
19.153
13.832
8.781
3.949
-0.706
-5.204
-9.544
-13.721
-17.734
-21.582
-25.281
-28.835
-32.256
-35.56
-38.752
-41.834
-44.804
-47.644
-50.325
-52.812
-55.073
-57.092
-58.864
-60.394
-61.685
-62.743
-63.576
-64.193
-64.603
-64.802
-64.793
-64.575
-64.157
-63.556
-62.795
-61.902
-60.904
-59.826
-58.686
-57.502
-56.285
-55.048
-53.798
-52.538
-51.277
-50.022
-48.784
-47.572
-46.396
-45.259
-44.166
-43.119
-42.12
-41.169
-40.265
-39.409
-38.602
-37.846
-37.141
-36.492
-35.901
-35.369
-34.899
-34.49
-34.143
-33.858
-33.635
-33.472
-33.367
-33.32
-33.329
-33.393
-33.51
-33.678
-33.896
-34.162
-34.475
-34.831
-35.23
-35.668
-36.144
-36.654
-37.196
-37.768
-38.366
-38.987
-39.631
-40.293
-40.972
-41.665
-42.369
-43.08
-43.794
-44.508
-45.216
-45.913
-46.595
-47.254
-47.886
-48.486
-49.047
-49.565
-50.036
-50.456
-50.82
-51.126
-51.37
-51.548
-51.657
-51.692
-51.648
-51.52
-51.305
-50.997
-50.594
-50.094
-49.495
-48.798
-48.003
-47.113
-46.128
-45.047
-43.868
-42.592
-41.223
-39.769
-38.243
-36.661
-35.045
-33.42
-31.81
-30.238
-28.719
-27.263
-25.87
-24.541
-23.275
-22.076
-20.957
-19.929
-19.002
-18.181
-17.469
-16.858
-16.329
-15.857
-15.408
-14.961
-14.508
-14.059
-13.644
-13.3
-13.074
-13.005
-13.114
-13.418
-13.919
-14.607
-15.472
-16.513
-17.734
-19.157
-20.812
-22.709
-24.844
-27.186
-29.672
-32.228
-34.764
-37.188
-39.438
-41.468
-43.274
-44.901
-46.408
-47.851
-49.282
-50.714
-52.159
-53.673
-55.318
-57.184
-59.391
-62.005
-65.149
-69.049
-73.746
-79.123
-84.893
-90.415
-95.111
-98.702
-100.729
-100.608
-98.29
-93.965
-88.324
-83.002
-79.079
-76.809
-76.861
-79.889
-85.557
-93.159
-100.032
-101.135
-93.092
-74.416
-45.895
-10.109
31.897
81.334
142.69
219.669
312.763
419.613
531.973
639.712
732.563
799.014
827.983
809.79
740.118
620.804
462.631
285.186
108.649
-46.593
-163.81
-236.578
-264.731
-253.924
-217.383
-168.562
-120.481
-86.912
-72.923
-77.117
-93.439
-109.173
-117.408
-117.437
-111.322
-105.816
-103.72
-103.561
-103.896
-102.261
-97.895
-91.987
-85.403
-78.892
-73.158
-68.586
-65.363
-63.583
-63.115
-63.68
-65.107
-67.265
-69.945
-72.937
-76.054
-79.103
-81.96
-84.536
-86.704
-88.368
-89.467
-89.96
-89.849
-89.144
-87.84
-85.947
-83.482
-80.484
-77.03
-73.191
-69.03
-64.617
-60.011
-55.28
-50.511
-45.766
-41.084
-36.498
-32.027
-27.697
-23.561
-19.653
-15.997
-12.602
-9.447
-6.503
-3.744
-1.136
1.362
3.794
6.231
8.744
11.382
14.192
17.217
20.502
24.126
28.16
32.66
37.671
43.202
49.242
55.776
62.774
70.19
77.973
86.052
94.334
102.751
111.24
119.748
128.227
136.59
144.738
152.572
160.003
166.973
173.441
179.376
184.751
189.554
193.776
197.424
200.53
203.098
205.122
206.578
207.435
207.697
207.395
206.579
205.287
203.542
201.358
198.747
195.729
192.319
188.526
184.349
179.779
174.825
169.516
163.899
158.027
151.938
145.642
139.141
132.442
125.564
118.532
111.367
104.086
96.708
89.264
81.793
74.337
66.929
59.589
52.33
45.162
38.104
31.182
24.43
17.873
11.536
5.438
-0.399
-5.952
-11.202
-16.138
-20.758
-25.061
-29.043
-32.701
-36.032
-39.033
-41.708
-44.063
-46.106
-47.845
-49.29
-50.451
-51.344
-51.984
-52.385
-52.562
-52.528
-52.297
-51.883
-51.302
-50.571
-49.703
-48.714
-47.618
-46.432
-45.172
-43.85
-42.483
-41.082
-39.661
-38.232
-36.807
-35.397
-34.011
-32.659
-31.349
-30.087
-28.881
-27.736
-26.656
-25.645
-24.707
-23.843
-23.055
-22.344
-21.709
-21.15
-20.665
-20.253
-19.912
-19.64
-19.434
-19.292
-19.211
-19.19
-19.225
-19.312
-19.45
-19.633
-19.859
-20.124
-20.425
-20.758
-21.12
-21.508
-21.919
-22.352
-22.803
-23.271
-23.753
-24.248
-24.755
-25.271
-25.795
-26.327
-26.864
-27.408
-27.958
-28.513
-29.073
-29.638
-30.207
-30.78
-31.355
-31.929
-32.5
-33.066
-33.623
-34.169
-34.703
-35.223
-35.726
-36.212
-36.68
-37.129
-37.559
-37.967
-38.348
-38.701
-39.02
-39.302
-39.542
-39.737
-39.879
-39.966
-39.997
-39.969
-39.879
-39.724
-39.494
-39.186
-38.8
-38.34
-37.81
-37.217
-36.569
-35.881
-35.177
-34.482
-33.815
-33.192
-32.614
-32.087
-31.619
-31.217
-30.889
-30.633
-30.435
-30.284
-30.177
-30.105
-30.061
-30.021
-29.942
-29.794
-29.556
-29.219
-28.796
-28.301
-27.742
-27.144
-26.541
-25.981
-25.534
-25.253
-25.173
-25.333
-25.767
-26.518
-27.644
-29.181
-31.141
-33.524
-36.311
-39.475
-42.992
-46.807
-50.843
-55.006
-59.185
-63.284
-67.236
-70.972
-74.438
-77.582
-80.375
-82.828
-84.981
-86.88
-88.565
-90.051
-91.373
-92.614
-93.884
-95.302
-96.993
-99.008
-101.428
-104.428
-108.025
-112.094
-116.328
-120.122
-122.94
-124.489
-124.307
-121.807
-116.902
-109.776
-101.103
-92.384
-84.608
-78.271
-74.481
-74.234
-77.393
-82.51
-86.341
-84.566
-74.784
-58.19
-36.233
-8.786
25.754
73.955
141.949
230.776
338.742
457.944
576.763
682.747
763.158
806.45
802.392
747.514
643.945
500.85
336.852
172.077
26.121
-85.904
-158.011
-192.312
-196.621
-180.413
-154.067
-126.159
-103.798
-93.182
-95.379
-107.205
-121.852
-132.601
-137.33
-137.397
-136.941
-138.653
-141.772
-144.609
-145.122
-142.491
-137.502
-131.068
-123.936
-116.803
-110.231
-104.555
-99.972
-96.446
-93.75
-91.747
-90.367
-89.511
-89.077
-88.99
-89.18
-89.625
-90.318
-91.203
-92.199
-93.227
-94.233
-95.203
-96.136
-97.046
-97.941
-98.822
-99.687
-100.527
-101.295
-101.932
-102.372
-102.546
-102.42
-101.988
-101.247
-100.214
-98.887
-97.258
-95.328
-93.089
-90.535
-87.671
-84.509
-81.069
-77.411
-73.597
-69.689
-65.753
-61.821
-57.907
-54.017
-50.138
-46.262
-42.383
-38.482
-34.539
-30.542
-26.468
-22.295
-17.996
-13.508
-8.776
-3.752
1.61
7.332
13.426
19.906
26.774
34.024
41.647
49.614
57.885
66.428
75.196
84.139
93.204
102.302
111.336
120.222
128.871
137.199
145.124
152.546
159.346
165.436
170.732
175.167
178.701
181.29
182.899
183.509
183.099
181.677
179.274
175.918
171.641
166.493
160.522
153.81
146.482
138.635
130.368
121.777
112.93
103.907
94.793
85.665
76.604
67.696
58.996
50.566
42.467
34.743
27.449
20.61
14.209
8.243
2.7
-2.434
-7.162
-11.493
-15.458
-19.087
-22.42
-25.517
-28.415
-31.151
-33.771
-36.31
-38.813
-41.315
-43.825
-46.348
-48.886
-51.439
-54.01
-56.603
-59.198
-61.776
-64.311
-66.762
-69.104
-71.317
-73.379
-75.273
-76.979
-78.477
-79.766
-80.848
-81.728
-82.41
-82.898
-83.194
-83.312
-83.27
-83.085
-82.781
-82.374
-81.877
-81.3
-80.656
-79.951
-79.193
-78.387
-77.53
-76.623
-75.668
-74.668
-73.626
-72.544
-71.42
-70.255
-69.05
-67.806
-66.526
-65.213
-63.872
-62.508
-61.126
-59.734
-58.339
-56.95
-55.572
-54.213
-52.877
-51.572
-50.303
-49.078
-47.901
-46.78
-45.721
-44.73
-43.814
-42.979
-42.23
-41.573
-41.013
-40.553
-40.199
-39.955
-39.822
-39.805
-39.905
-40.123
-40.46
-40.916
-41.489
-42.178
-42.979
-43.889
-44.904
-46.017
-47.224
-48.517
-49.89
-51.334
-52.842
-54.403
-56.009
-57.648
-59.311
-60.986
-62.661
-64.325
-65.965
-67.571
-69.13
-70.63
-72.058
-73.405
-74.656
-75.802
-76.832
-77.734
-78.5
-79.12
-79.586
-79.892
-80.03
-79.996
-79.785
-79.395
-78.823
-78.07
-77.134
-76.019
-74.728
-73.266
-71.639
-69.856
-67.926
-65.861
-63.673
-61.376
-58.987
-56.52
-53.995
-51.428
-48.837
-46.242
-43.661
-41.114
-38.621
-36.201
-33.874
-31.659
-29.578
-27.651
-25.895
-24.327
-22.959
-21.802
-20.867
-20.164
-19.705
-19.5
-19.554
-19.872
-20.463
-21.327
-22.462
-23.856
-25.478
-27.299
-29.287
-31.409
-33.642
-35.952
-38.306
-40.666
-42.992
-45.245
-47.389
-49.388
-51.195
-52.778
-54.113
-55.213
-56.141
-56.969
-57.773
-58.619
-59.544
-60.602
-61.888
-63.486
-65.479
-67.941
-70.88
-74.372
-78.616
-83.662
-89.395
-95.543
-101.514
-106.752
-110.925
-113.531
-113.895
-111.758
-107.251
-100.91
-94.028
-87.904
-83.358
-81.445
-83.459
-88.728
-94.788
-99.385
-98.963
-93.047
-85.388
-75.131
-59.203
-31.155
21.06
101.425
207.254
332.15
462.091
586.986
698.698
786.29
842.1
855.89
818.681
730.781
597.595
432.552
257.835
94.447
-39.363
-130.186
-178.068
-190.301
-177.262
-153.14
-127.623
-107.822
-99.104
-101.154
-111.104
-123.013
-131.247
-134.761
-134.835
-134.976
-137.433
-140.835
-143.318
-143.081
-139.33
-132.951
-124.987
-116.24
-107.536
-99.642
-93.016
-87.913
-84.356
-82.095
-80.955
-80.856
-81.654
-83.194
-85.304
-87.78
-90.444
-93.161
-95.781
-98.142
-100.104
-101.546
-102.402
-102.646
-102.28
-101.323
-99.795
-97.713
-95.087
-91.923
-88.251
-84.13
-79.644
-74.882
-69.923
-64.838
-59.691
-54.544
-49.452
-44.452
-39.556
-34.771
-30.109
-25.589
-21.252
-17.133
-13.248
-9.6
-6.167
-2.921
0.158
3.091
5.908
8.642
11.348
14.086
16.893
19.815
22.897
26.191
29.772
33.697
38.005
42.727
47.874
53.451
59.473
65.951
72.882
80.269
88.086
96.289
104.841
113.69
122.771
132.014
141.324
150.623
159.847
168.931
177.817
186.446
194.745
202.643
210.067
216.917
223.108
228.558
233.196
236.978
239.879
241.891
243.017
243.256
242.601
241.05
238.605
235.269
231.05
225.949
219.992
213.249
205.812
197.792
189.297
180.404
171.185
161.702
152.016
142.2
132.329
122.476
112.719
103.157
93.905
85.104
76.875
69.287
62.375
56.131
50.544
45.611
41.318
37.64
34.549
32.001
29.956
28.378
27.213
26.378
25.759
25.205
24.58
23.793
22.791
21.562
20.112
18.45
16.623
14.708
12.78
10.904
9.119
7.448
5.926
4.648
3.729
3.267
3.365
4.112
5.546
7.671
10.431
