Name
Date of Birth,"Mar 27, 1959"
Recorded Date,2020-07-21 10:44:07 -0500
Classification,Sinus Rhythm
Symptoms,
Software Version,1.90
Device,"Watch4,2"
Sample Rate,510.227 hertz


Lead,Lead I
Unit,µV

34.882
37.749
40.139
42.657
48.172
56.126
64.641
68.838
57.748
30.562
-3.952
-32.041
-32.06
1.992
58.511
114.442
146.991
163.467
139.559
27.656
-80.886
-41.305
88.115
131.927
68.087
14.977
24.048
44.546
45.899
41.902
37.322
28.975
19.242
9.674
0.339
-9.018
-18.774
-28.832
-39.134
-49.616
-60.433
-71.734
-83.35
-95.237
-106.35
-115.726
-123.426
-128.825
-134.056
-138.463
-143.433
-163.514
-171.105
-117.965
-67.055
-96.896
-140.015
-122.064
-79.87
-71.123
-114.996
-158.133
-90.836
67.556
132.937
39.192
-70.593
-73.683
-1.191
52.78
152.723
202.282
1202.417
963.634
617.09
877.005
1075.109
1213.912
1158.361
935.338
661.533
419.096
196.681
-0.119
-133.423
-200.487
-216.09
-201.935
-184.489
-157.921
-120.517
-147.59
-244.779
-194.262
82.611
597.697
-35.797
-366.253
-357.511
-57.224
182.836
151.645
-52.106
-225.391
-268.145
-200.284
-124.01
-77.873
55.024
276.841
330.302
136.469
-3.394
71.712
160.532
130.113
65.266
18.526
-33.646
-91.349
-141.558
-185.564
-228.404
-271.206
-308.981
-327.762
-311.608
-249.815
-143.008
-8.903
126.304
234.091
293.81
302.015
269.158
217.493
166.643
124.2
85.414
33.847
-40.575
-131.353
-214.109
-258.711
-262.254
-214.378
-55.826
164.935
226.016
83.019
-9.47
64.552
144.974
138.327
105.653
81.198
49.638
13.859
-16.417
-41.282
-64.785
-93.484
-124.823
-150.8
-163.645
-150.403
-108.35
-46.185
25.619
89.738
131.416
145.977
132.738
94.962
40.516
-22.489
-84.475
-131.541
-153.577
-148.235
-121.75
-89.984
-67.228
-59.811
-65.557
-74.859
-80.291
-79.506
-73.355
-65.168
-56.279
-45.987
-34.547
-22.237
-9.087
4.36
19.188
35.179
49.275
60.65
67.862
78.259
98.82
115.753
159.253
274.525
367.286
329.301
245.215
209.825
180.416
152.42
157.531
109.962
4.64
91.189
418.886
918.244
307.314
26.579
39.495
165.438
160.363
96.788
136.75
211.785
155.905
8.274
-49.332
16.229
65.911
32.178
-18.782
-45.606
-65.568
-84.67
-99.59
-112.996
-125.796
-138.063
-149.933
-160.777
-170.556
-179.307
-185.868
-190.672
-196.659
-203.185
-207.693
-205.175
-184.56
-144.356
-95.533
-54.547
-43.895
-72.998
-127.409
-179.265
-199.764
-171.698
-102.305
-21.198
46.24
83.433
87.313
77.495
68.16
65.466
72.822
80.234
81.207
75.869
63.32
46.976
29.641
11.47
-6.042
-21.964
-36.133
-48.368
-59.29
-69.449
-78.909
-87.718
-95.896
-103.546
-110.801
-117.462
-123.073
-127.249
-129.596
-129.95
-128.527
-125.223
-119.549
-111.637
-101.872
-90.259
-78.035
-64.617
-46.281
-24.18
-1.208
17.956
20.881
6.702
-15.14
-33.471
-31.687
-18.416
14.845
100.88
162.007
113.128
40.174
25.096
30.201
27.644
25.768
24.282
19.931
12.304
3.963
-2.991
-9.552
-16.061
-22.337
-28.609
-34.588
-39.943
-44.682
-48.77
-52.077
-54.562
-56.295
-57.352
-57.858
-58.008
-57.929
-57.708
-57.449
-57.21
-57.031
-56.973
-57.066
-57.314
-57.727
-58.312
-59.085
-60.091
-61.346
-62.826
-64.48
-66.223
-67.975
-69.692
-71.33
-72.855
-74.238
-75.453
-76.492
-77.367
-78.085
-78.643
-79.027
-79.206
-79.162
-78.898
-78.426
-77.771
-76.954
-75.986
-74.884
-73.668
-72.351
-70.947
-69.458
-67.878
-66.208
-64.453
-62.626
-60.742
-58.817
-56.861
-54.891
-52.92
-50.966
-49.044
-47.169
-45.355
-43.618
-41.972
-40.434
-39.021
-37.749
-36.631
-35.685
-34.926
-34.369
-34.025
-33.904
-34.013
-34.357
-34.939
-35.755
-36.799
-38.067
-39.555
-41.269
-43.216
-45.398
-47.818
-50.475
-53.356
-56.449
-59.733
-63.171
-66.725
-70.355
-74.021
-77.694
-81.343
-84.929
-88.403
-91.702
-94.758
-97.507
-99.882
-101.835
-103.348
-104.415
-105.058
-105.324
-105.241
-104.865
-104.291
-103.592
-102.839
-102.131
-101.538
-101.213
-101.462
-102.431
-104.062
-106.209
-108.457
-110.336
-111.53
-111.495
-109.417
-104.988
-98.555
-90.788
-83.017
-76.959
-73.995
-75.414
-82.886
-95.58
-109.604
-123.136
-134.383
-142.518
-150.725
-153.813
-139.61
-99.762
-26.842
76.344
194.486
318.711
445.298
569.097
687.312
786.859
845.332
850.546
799.268
698.831
569.034
426.421
285.047
160.348
61.29
-7.311
-46.987
-69.397
-85.736
-101.686
-117.425
-127.017
-126.404
-116.905
-102.184
-87.189
-74.696
-64.892
-57.643
-52.383
-48.69
-46.402
-45.318
-45.373
-46.653
-48.905
-51.41
-53.857
-56.184
-58.299
-60.06
-61.029
-60.83
-59.7
-58.41
-57.473
-57.089
-57.294
-57.997
-59.336
-61.45
-64.139
-66.924
-69.363
-71.174
-72.236
-72.627
-72.456
-71.74
-70.431
-68.366
-65.346
-61.348
-56.65
-51.586
-46.3
-40.942
-35.833
-31.752
-29.797
-30.686
-34.282
-39.753
-46.234
-52.935
-59.16
-63.833
-65.299
-62.035
-53.531
-40.558
-24.477
-6.98
10.644
27.369
41.637
51.585
56.017
54.878
49.105
40.794
31.588
22.236
13.732
7.397
4.365
5.44
10.586
18.167
26.818
36.089
45.501
54.653
63.106
70.076
75.166
79.169
82.786
86.263
89.835
93.38
96.809
100.434
104.476
108.714
112.956
117.082
120.965
124.747
128.576
132.446
136.378
140.406
144.545
148.838
153.317
157.952
162.708
167.541
172.4
177.248
182.033
186.695
191.167
195.345
199.13
202.423
205.106
207.101
208.342
208.768
208.344
207.037
204.811
201.66
197.582
192.57
186.647
179.839
172.175
163.741
154.621
144.893
134.665
124.018
113.027
101.777
90.334
78.765
67.164
55.622
44.245
33.154
22.453
12.231
2.574
-6.485
-14.924
-22.704
-29.808
-36.216
-41.898
-46.838
-51.012
-54.379
-56.94
-58.746
-59.888
-60.496
-60.711
-60.646
-60.409
-60.08
-59.713
-59.379
-59.137
-59.029
-59.117
-59.475
-60.198
-61.427
-63.275
-65.765
-68.859
-72.463
-76.437
-80.661
-85.017
-89.373
-93.629
-97.698
-101.502
-105
-108.135
-110.803
-112.866
-114.129
-114.399
-113.573
-111.627
-108.596
-104.591
-99.744
-94.2
-88.157
-81.797
-75.257
-68.654
-62.073
-55.595
-49.355
-43.522
-38.305
-33.924
-30.549
-28.267
-27.113
-27.047
-27.96
-29.726
-32.163
-35.079
-38.344
-41.841
-45.475
-49.165
-52.797
-56.222
-59.294
-61.852
-63.744
-64.892
-65.259
-64.868
-63.824
-62.228
-60.207
-57.907
-55.426
-52.851
-50.273
-47.76
-45.397
-43.3
-41.563
-40.285
-39.576
-39.468
-39.953
-40.978
-42.422
-44.181
-46.162
-48.256
-50.37
-52.423
-54.322
-55.99
-57.352
-58.29
-58.7
-58.481
-57.532
-55.827
-53.392
-50.29
-46.632
-42.515
-38.016
-33.23
-28.264
-23.216
-18.185
-13.264
-8.54
-4.146
-0.227
3.075
5.638
7.4
8.354
8.523
7.947
6.673
4.737
2.19
-0.873
-4.372
-8.234
-12.375
-16.715
-21.128
-25.449
-29.526
-33.243
-36.517
-39.31
-41.604
-43.375
-44.62
-45.343
-45.55
-45.291
-44.598
-43.487
-42
-40.19
-38.142
-35.994
-33.858
-31.793
-29.852
-28.057
-26.411
-24.932
-23.601
-22.365
-21.199
-20.07
-18.965
-17.911
-16.907
-15.93
-14.945
-13.888
-12.725
-11.475
-10.158
-8.795
-7.434
-6.127
-4.969
-4.116
-3.679
-3.732
-4.325
-5.456
-7.136
-9.397
-12.263
-15.747
-19.836
-24.482
-29.643
-35.305
-41.442
-48
-54.898
-61.995
-69.179
-76.389
-83.561
-90.666
-97.695
-104.62
-111.438
-118.178
-124.852
-131.506
-138.233
-144.978
-151.553
-157.661
-162.835
-166.644
-168.813
-168.983
-166.692
-161.75
-154.347
-145.118
-135.227
-125.825
-117.557
-110.943
-106.664
-104.932
-105.136
-105.842
-104.562
-98.304
-84.876
-62.561
-28.947
17.785
78.16
152.097
236.012
322.987
407.517
484.081
551.501
615.2
677.589
738.723
787.879
802.354
763.21
655.106
483.941
279.994
79.81
-67.874
-135.712
-139.769
-71.588
78.311
195.435
168.168
84.053
49.524
34.361
9.835
-10.139
-27.209
-47.127
-65.35
-70.182
-57.927
-36.402
-14.363
-2.665
-4.392
-12.95
-23.452
-31.268
-35.229
-38.92
-43.524
-48.755
-54.136
-58.008
-60.092
-61.525
-62.72
-63.791
-64.855
-65.7
-66.389
-67.288
-68.307
-68.974
-68.975
-68.097
-66.316
-63.847
-60.794
-57.154
-53.018
-48.542
-43.934
-39.415
-35.127
-31.135
-27.483
-24.213
-21.378
-19.037
-17.205
-15.853
-14.906
-14.262
-13.845
-13.584
-13.404
-13.226
-12.931
-12.415
-11.605
-10.447
-8.909
-6.972
-4.613
-1.813
1.411
5.028
8.991
13.23
17.7
22.367
27.19
32.132
37.14
42.162
47.16
52.108
56.985
61.776
66.469
71.057
75.553
79.973
84.335
88.671
93.012
97.385
101.821
106.352
111.006
115.821
120.839
126.088
131.589
137.352
143.369
149.624
156.085
162.709
169.449
176.236
182.983
189.595
195.963
201.98
207.55
212.564
216.903
220.463
223.157
224.918
225.705
225.492
224.271
222.05
218.854
214.735
209.768
204.046
197.683
190.783
183.444
175.772
167.878
159.867
151.826
143.829
135.926
128.159
120.563
113.16
105.961
98.959
92.133
85.453
78.873
72.362
65.899
59.46
53.026
46.583
40.123
33.651
27.185
20.741
14.336
7.99
1.727
-4.426
-10.433
-16.259
-21.867
-27.225
-32.314
-37.115
-41.614
-45.804
-49.678
-53.239
-56.496
-59.452
-62.108
-64.466
-66.527
-68.3
-69.795
-71.024
-71.999
-72.733
-73.243
-73.546
-73.661
-73.603
-73.379
-72.994
-72.454
-71.775
-70.983
-70.104
-69.162
-68.173
-67.154
-66.121
-65.092
-64.069
-63.041
-61.983
-60.875
-59.716
-58.519
-57.312
-56.131
-54.983
-53.859
-52.748
-51.628
-50.519
-49.469
-48.496
-47.619
-46.868
-46.25
-45.871
-45.923
-46.377
-47.042
-47.728
-48.159
-48.33
-48.594
-49.027
-49.444
-50.017
-51.11
-53.173
-56.936
-62.326
-68.348
-74.422
-80.349
-85.652
-89.889
-92.397
-92.027
-88.747
-83.718
-77.688
-71.13
-64.563
-58.192
-52.538
-48.652
-46.691
-45.948
-45.999
-46.479
-47.145
-48.127
-49.276
-50.106
-50.54
-50.82
-51.081
-51.508
-52.155
-52.859
-53.592
-54.424
-55.339
-56.298
-57.251
-58.117
-58.875
-59.562
-60.191
-60.78
-61.342
-61.878
-62.41
-62.958
-63.532
-64.136
-64.77
-65.426
-66.1
-66.778
-67.448
-68.097
-68.714
-69.287
-69.809
-70.264
-70.642
-70.933
-71.127
-71.215
-71.19
-71.043
-70.767
-70.358
-69.816
-69.139
-68.331
-67.394
-66.33
-65.141
-63.833
-62.41
-60.879
-59.244
-57.515
-55.7
-53.811
-51.862
-49.868
-47.843
-45.805
-43.769
-41.754
-39.776
-37.852
-35.999
-34.233
-32.571
-31.032
-29.633
-28.39
-27.321
-26.439
-25.76
-25.293
-25.044
-25.019
-25.222
-25.656
-26.332
-27.258
-28.437
-29.872
-31.562
-33.501
-35.682
-38.078
-40.655
-43.377
-46.208
-49.115
-52.075
-55.057
-58.029
-60.957
-63.786
-66.47
-68.972
-71.245
-73.254
-74.97
-76.382
-77.528
-78.482
-79.311
-80.076
-80.809
-81.54
-82.344
-83.302
-84.493
-86.023
-87.94
-90.322
-93.358
-97.083
-101.386
-106.008
-110.393
-113.988
-116.476
-117.392
-116.141
-112.613
-106.976
-99.89
-92.818
-86.873
-82.622
-80.915
-82.508
-87.171
-94.003
-100.943
-104.542
-102.051
-91.138
-68.776
-32.216
20.266
87.27
163.691
244.105
323.639
403.036
488.116
577.327
665.041
736.963
767.514
743.422
661.273
528.876
373.702
220.727
90.963
-0.185
-53.976
-78.178
-86.077
-91.138
-97.844
-105.356
-108.186
-102.358
-89.926
-75.341
-63.044
-54.491
-48.54
-43.751
-39.273
-35.182
-31.23
-26.582
-21.446
-17.222
-15.126
-15.996
-19.732
-25.138
-31.556
-38.937
-46.643
-53.551
-58.82
-61.87
-62.882
-62.933
-62.671
-62.263
-61.994
-62.115
-62.788
-64.164
-66.035
-67.814
-69.156
-69.943
-70.121
-69.78
-68.973
-67.69
-66.01
-64.08
-61.99
-59.804
-57.552
-55.214
-52.804
-50.368
-47.94
-45.557
-43.241
-40.997
-38.824
-36.715
-34.658
-32.635
-30.634
-28.641
-26.647
-24.644
-22.624
-20.581
-18.507
-16.388
-14.214
-11.966
-9.631
-7.197
-4.653
-1.991
0.796
3.716
6.777
9.986
13.352
16.881
20.573
24.431
28.457
32.652
37.021
41.562
46.267
51.127
56.126
61.25
66.481
71.792
77.144
82.502
87.826
93.09
98.281
103.382
108.373
113.236
117.948
122.498
126.895
131.141
135.232
139.168
142.948
146.588
150.137
153.632
157.104
160.563
163.992
167.376
170.709
173.97
177.133
180.142
182.913
185.376
187.482
189.175
190.404
191.098
191.141
190.432
188.89
186.451
183.084
178.763
173.453
167.144
159.857
151.654
142.637
132.899
122.513
111.565
100.145
88.364
76.382
64.353
52.418
40.724
29.393
18.541
8.296
-1.233
-9.981
-17.914
-25.035
-31.351
-36.858
-41.565
-45.494
-48.682
-51.202
-53.134
-54.557
-55.575
-56.277
-56.748
-57.081
-57.36
-57.643
-57.97
-58.36
-58.818
-59.358
-59.986
-60.702
-61.498
-62.352
-63.234
-64.111
-64.933
-65.658
-66.254
-66.686
-66.926
-66.958
-66.773
-66.372
-65.772
-64.986
-64.026
-62.909
-61.651
-60.275
-58.806
-57.274
-55.712
-54.148
-52.606
-51.106
-49.668
-48.305
-47.03
-45.849
-44.763
-43.774
-42.883
-42.092
-41.404
-40.818
-40.331
-39.94
-39.641
-39.43
-39.306
-39.265
-39.304
-39.419
-39.609
-39.869
-40.2
-40.596
-41.053
-41.566
-42.129
-42.736
-43.382
-44.061
-44.765
-45.489
-46.228
-46.975
-47.725
-48.474
-49.216
-49.946
-50.66
-51.355
-52.027
-52.674
-53.293
-53.885
-54.447
-54.979
-55.482
-55.955
-56.401
-56.819
-57.211
-57.58
-57.927
-58.255
-58.568
-58.866
-59.155
-59.436
-59.713
-59.989
-60.265
-60.545
-60.83
-61.122
-61.424
-61.736
-62.06
-62.397
-62.746
-63.108
-63.483
-63.868
-64.261
-64.661
-65.062
-65.461
-65.854
-66.235
-66.599
-66.938
-67.247
-67.519
-67.746
-67.922
-68.038
-68.087
-68.061
-67.954
-67.76
-67.472
-67.086
-66.595
-65.997
-65.289
-64.467
-63.531
-62.479
-61.311
-60.028
-58.63
-57.119
-55.501
-53.778
-51.958
-50.049
-48.062
-46.009
-43.902
-41.754
-39.583
-37.402
-35.227
-33.072
-30.953
-28.884
-26.882
-24.962
-23.144
-21.443
-19.875
-18.454
-17.195
-16.108
-15.202
-14.481
-13.95
-13.616
-13.492
-13.593
-13.93
-14.513
-15.35
-16.443
-17.785
-19.36
-21.139
-23.087
-25.165
-27.334
-29.561
-31.811
-34.045
-36.216
-38.264
-40.131
-41.764
-43.118
-44.148
-44.832
-45.184
-45.253
-45.131
-44.916
-44.69
-44.536
-44.559
-44.888
-45.647
-46.951
-48.86
-51.464
-54.958
-59.452
-64.914
-71.11
-77.543
-83.725
-89.346
-93.983
-96.964
-97.854
-96.592
-93.656
-90.238
-87.248
-85.131
-84.717
-87.105
-92.932
-100.674
-106.33
-105.533
-95.952
-80.647
-65.129
-49.76
-28.937
8.932
76.582
176.745
302.196
441.264
579.703
704.356
805.711
872.313
891.137
857.709
772.394
640.784
479.537
305.155
135.966
-3.727
-97.907
-141.128
-138.628
-110.497
-78.371
-54.229
-42.124
-37.602
-33.479
-28.324
-23.864
-22.863
-28.205
-39.235
-53.314
-67.824
-80.069
-88.761
-93.804
-95.331
-93.866
-90.119
-84.781
-78.723
-72.863
-67.703
-63.398
-59.918
-57.043
-54.6
-52.496
-50.597
-48.774
-46.964
-45.16
-43.423
-41.856
-40.529
-39.458
-38.634
-38.021
-37.593
-37.372
-37.398
-37.729
-38.425
-39.521
-41.03
-42.947
-45.232
-47.799
-50.514
-53.218
-55.76
-58.017
-59.91
-61.393
-62.428
-62.958
-62.916
-62.215
-60.756
-58.465
-55.279
-51.154
-46.091
-40.139
-33.411
-26.067
-18.275
-10.196
-1.952
6.377
14.717
22.998
31.137
39.031
46.564
53.635
60.14
65.968
71.032
75.264
78.658
81.271
83.188
84.516
85.331
85.685
85.639
85.26
84.632
83.866
83.059
82.296
81.677
81.325
81.374
81.976
83.226
85.174
87.843
91.219
95.314
100.135
105.645
111.787
118.468
125.571
133.004
140.691
148.528
156.394
164.136
171.569
178.549
184.945
190.63
195.5
199.431
202.312
204.087
204.734
204.261
202.703
200.074
196.374
191.636
185.908
179.263
171.803
163.611
154.765
145.364
135.504
125.305
114.894
104.361
93.777
83.211
72.717
62.37
52.264
42.465
33.025
23.981
15.355
7.185
-0.486
-7.621
-14.197
-20.214
-25.686
-30.622
-35.026
-38.917
-42.325
-45.3
-47.922
-50.247
-52.31
-54.141
-55.76
-57.202
-58.514
-59.745
-60.927
-62.085
-63.23
-64.375
-65.534
-66.705
-67.871
-68.992
-70.012
-70.891
-71.611
-72.161
-72.536
-72.729
-72.723
-72.507
-72.082
-71.453
-70.623
-69.598
-68.38
-66.98
-65.423
-63.744
-61.984
-60.177
-58.344
-56.505
-54.675
-52.87
-51.103
-49.384
-47.716
-46.101
-44.546
-43.057
-41.643
-40.309
-39.056
-37.883
-36.785
-35.763
-34.817
-33.945
-33.147
-32.423
-31.772
-31.196
-30.697
-30.276
-29.932
-29.663
-29.465
-29.335
-29.269
-29.262
-29.309
-29.404
-29.542
-29.717
-29.925
-30.162
-30.423
-30.703
-30.999
-31.306
-31.622
-31.943
-32.267
-32.589
-32.909
-33.224
-33.532
-33.833
-34.125
-34.408
-34.683
-34.949
-35.207
-35.457
-35.702
-35.941
-36.176
-36.41
-36.645
-36.882
-37.125
-37.376
-37.64
-37.919
-38.218
-38.538
-38.883
-39.255
-39.655
-40.086
-40.547
-41.04
-41.564
-42.119
-42.703
-43.315
-43.954
-44.615
-45.297
-45.994
-46.703
-47.418
-48.132
-48.841
-49.536
-50.212
-50.86
-51.473
-52.045
-52.568
-53.035
-53.438
-53.77
-54.023
-54.191
-54.267
-54.245
-54.12
-53.887
-53.545
-53.089
-52.521
-51.839
-51.048
-50.149
-49.148
-48.05
-46.862
-45.593
-44.253
-42.852
-41.401
-39.912
-38.398
-36.873
-35.351
-33.845
-32.371
-30.944
-29.582
-28.299
-27.113
-26.038
-25.086
-24.267
-23.592
-23.073
-22.723
-22.556
-22.581
-22.807
-23.245
-23.901
-24.775
-25.859
-27.127
-28.55
-30.099
-31.742
-33.454
-35.21
-36.977
-38.722
-40.407
-41.993
-43.446
-44.73
-45.806
-46.65
-47.244
-47.611
-47.827
-47.979
-48.156
-48.444
-48.887
-49.549
-50.526
-51.901
-53.769
-56.228
-59.308
-63.107
-67.813
-73.442
-79.868
-86.766
-93.454
-99.278
-103.781
-106.32
-106.197
-103.231
-97.541
-89.89
-81.936
-75.072
-70.289
-68.82
-71.587
-78.377
-88.172
-98.557
-105.619
-105.65
-95.061
-69.886
-26.383
36.091
114.437
204.092
298.37
394.388
496.443
604.761
714.486
815.31
882.33
892.392
834.57
703.321
514.216
299.346
87.61
-87.491
-201.261
-253.384
-248.864
-201.536
-136.781
-69.006
-12.707
15.592
16.656
-5.483
-41.479
-72.007
-89.572
-93.851
-87.687
-80.849
-77.163
-75.464
-74.64
-71.847
-66.402
-59.842
-53.163
-47.269
-42.806
-39.755
-38.04
-37.616
-38.256
-39.75
-41.983
-44.827
-48.128
-51.745
-55.509
-59.239
-62.791
-66.018
-68.786
-71.011
-72.63
-73.626
-74.01
-73.808
-73.06
-71.82
-70.136
-68.056
-65.631
-62.913
-59.972
-56.89
-53.742
-50.603
-47.524
-44.537
-41.66
-38.902
-36.248
-33.67
-31.131
-28.591
-26.027
-23.437
-20.815
-18.157
-15.454
-12.691
-9.868
-6.999
-4.101
-1.179
1.755
4.692
7.603
10.426
13.107
15.6
17.887
19.977
21.88
23.596
25.138
26.53
27.827
29.115
30.466
31.922
33.526
35.315
37.357
39.762
42.626
46.022
50.003
54.599
59.85
65.801
72.474
79.847
87.848
96.366
105.301
114.585
124.148
133.91
143.76
153.549
163.138
172.402
181.215
189.448
196.95
203.567
209.169
213.685
217.098
219.427
220.698
220.918
220.103
218.278
215.484
211.786
207.241
201.909
195.862
189.196
182.027
174.478
166.662
158.647
150.471
142.14
133.636
124.954
116.09
107.048
97.847
88.507
79.059
69.542
59.994
50.45
40.944
31.503
22.146
12.913
3.856
-4.944
-13.376
-21.34
-28.75
-35.542
-41.679
-47.137
-51.9
-55.98
-59.409
-62.233
-64.524
-66.335
-67.699
-68.66
-69.26
-69.566
-69.669
-69.644
-69.551
-69.439
-69.338
-69.276
-69.279
-69.35
-69.465
-69.59
-69.673
-69.683
-69.609
-69.441
-69.173
-68.794
-68.28
-67.625
-66.836
-65.919
-64.884
-63.738
-62.485
-61.143
-59.744
-58.323
-56.918
-55.557
-54.256
-53.03
-51.89
-50.844
-49.903
-49.065
-48.325
-47.679
-47.126
-46.665
-46.297
-46.017
-45.818
-45.692
-45.63
-45.624
-45.67
-45.759
-45.886
-46.044
-46.229
-46.437
-46.664
-46.908
-47.161
-47.42
-47.679
-47.932
-48.176
-48.406
-48.618
-48.809
-48.977
-49.121
-49.241
-49.338
-49.41
-49.46
-49.488
-49.497
-49.487
-49.46
-49.418
-49.363
-49.296
-49.22
-49.137
-49.049
-48.96
-48.872
-48.788
-48.711
-48.645
-48.592
-48.555
-48.538
-48.543
-48.573
-48.631
-48.718
-48.837
-48.987
-49.172
-49.391
-49.643
-49.929
-50.246
-50.593
-50.969
-51.37
-51.793
-52.236
-52.694
-53.165
-53.643
-54.126
-54.608
-55.087
-55.558
-56.017
-56.458
-56.876
-57.267
-57.624
-57.941
-58.211
-58.427
-58.583
-58.673
-58.694
-58.642
-58.511
-58.297
-57.992
-57.592
-57.091
-56.486
-55.774
-54.949
-54.012
-52.966
-51.823
-50.595
-49.294
-47.933
-46.519
-45.062
-43.579
-42.087
-40.606
-39.158
-37.757
-36.421
-35.17
-34.025
-33.004
-32.113
-31.341
-30.672
-30.09
-29.587
-29.167
-28.83
-28.56
-28.331
-28.095
-27.819
-27.507
-27.183
-26.884
-26.635
-26.414
-26.239
-26.228
-26.437
-26.824
-27.232
-27.26
-26.551
-25.115
-23.048
-20.432
-17.638
-15.123
-13.6
-14.49
-19.099
-27.807
-40.506
-56.595
-74.713
-93.433
-110.89
-124.094
-130.311
-128.143
-117.173
-98.145
-72.992
-43.924
-13.847
13.114
33.201
43.937
43.917
33.023
12.297
-16.557
-50.939
-87.214
-122.057
-153.064
-178.346
-196.606
-207.204
-210.151
-206.039
-195.976
-180.577
-159.432
-132.209
-98.733
-58.219
-9.377
48.972
117.835
195.353
276.297
356.592
433.682
508.983
586.41
663.624
730.656
769.67
762.513
703.066
599.793
473.785
347.455
234.156
137.554
54.133
-18.63
-78.895
-123.585
-149.927
-158.572
-153.435
-138.897
-119.536
-99.521
-82.075
-69.29
-61.927
-59.565
-61.025
-64.942
-69.827
-74.049
-76.128
-75.269
-71.416
-65.007
-56.81
-47.593
-38.037
-28.882
-20.838
-14.308
-9.421
-6.131
-4.257
-3.649
-4.206
-5.764
-8.138
-11.174
-14.715
-18.622
-22.784
-27.061
-31.317
-35.441
-39.321
-42.855
-45.979
-48.643
-50.809
-52.448
-53.54
-54.078
-54.076
-53.563
-52.583
-51.191
-49.44
-47.39
-45.097
-42.614
-40.001
-37.317
-34.606
-31.898
-29.217
-26.582
-24.01
-21.514
-19.093
-16.736
-14.43
-12.157
-9.901
-7.644
-5.359
-3.024
-0.611
1.912
4.57
7.385
10.378
13.563
16.945
20.528
24.308
28.27
32.402
36.68
41.078
45.573
50.143
54.768
59.435
64.121
68.804
73.467
78.091
82.663
87.188
91.669
96.117
100.562
105.035
109.576
114.241
119.057
124.04
129.198
134.527
140.023
145.676
151.456
157.331
163.262
169.194
175.066
180.8
186.277
191.37
195.95
199.871
203.024
205.324
206.681
207.02
206.287
204.442
201.479
197.407
192.226
185.943
178.593
170.238
161.003
151.033
140.467
129.457
118.14
106.647
95.126
83.731
72.579
61.763
51.359
41.426
32.051
23.33
15.324
8.061
1.52
-4.344
-9.562
-14.171
-18.223
-21.779
-24.929
-27.776
-30.385
-32.797
-35.051
-37.178
-39.234
-41.292
-43.397
-45.568
-47.803
-50.09
-52.426
-54.815
-57.236
-59.647
-61.998
-64.224
-66.29
-68.183
-69.886
-71.388
-72.669
-73.702
-74.478
-75.006
-75.292
-75.347
-75.178
-74.789
-74.198
-73.438
-72.543
-71.552
-70.491
-69.379
-68.234
-67.072
-65.908
-64.757
-63.628
-62.521
-61.442
-60.398
-59.395
-58.442
-57.542
-56.694
-55.898
-55.152
-54.457
-53.812
-53.218
-52.675
-52.182
-51.743
-51.358
-51.029
-50.756
-50.539
-50.374
-50.26
-50.191
-50.166
-50.179
-50.225
-50.302
-50.404
-50.528
-50.67
-50.827
-50.995
-51.171
-51.352
-51.533
-51.713
-51.888
-52.056
-52.215
-52.361
-52.494
-52.61
-52.709
-52.788
-52.846
-52.882
-52.896
-52.887
-52.856
-52.803
-52.73
-52.639
-52.532
-52.412
-52.282
-52.144
-52.002
-51.859
-51.719
-51.585
-51.461
-51.348
-51.25
-51.168
-51.103
-51.059
-51.033
-51.028
-51.04
-51.071
-51.118
-51.181
-51.26
-51.354
-51.461
-51.584
-51.722
-51.873
-52.037
-52.208
-52.382
-52.553
-52.713
-52.854
-52.969
-53.05
-53.088
-53.08
-53.022
-52.908
-52.731
-52.483
-52.151
-51.73
-51.214
-50.602
-49.895
-49.098
-48.224
-47.294
-46.333
-45.354
-44.369
-43.381
-42.383
-41.371
-40.342
-39.286
-38.208
-37.109
-35.987
-34.846
-33.688
-32.498
-31.258
-29.93
-28.466
-26.846
-25.064
-23.129
-21.078
-18.951
-16.796
-14.682
-12.658
-10.767
-9.055
-7.553
-6.292
-5.322
-4.697
-4.489
-4.783
-5.628
-7.043
-9.018
-11.503
-14.431
-17.72
-21.257
-24.941
-28.688
-32.412
-36.043
-39.518
-42.763
-45.708
-48.277
-50.387
-51.988
-53.085
-53.738
-54.049
-54.144
-54.151
-54.195
-54.416
-54.959
-55.954
-57.518
-59.757
-62.721
-66.487
-71.207
-76.879
-83.348
-90.31
-97.157
-103.286
-108.27
-111.501
-112.24
-110.259
-105.661
-98.894
-91.218
-83.653
-76.743
-71.566
-69.17
-69.388
-71.356
-73.478
-72.756
-66.446
-52.215
-26.555
14.281
70.605
139.278
216.784
298.165
382.972
477.931
583.631
692.378
789.732
850.718
854.89
798.578
687.348
535.657
365.545
193.505
33.702
-95.876
-183.548
-224.384
-216.702
-170.589
-105.069
-37.664
11.986
30.055
18.485
-13.329
-49.4
-74.52
-84.568
-82.879
-77.228
-73.55
-72.748
-72.985
-71.152
-66.32
-59.568
-52.102
-45.25
-39.763
-35.615
-32.812
-31.353
-30.96
-31.446
-32.694
-34.518
-36.796
-39.436
-42.297
-45.238
-48.144
-50.876
-53.284
-55.258
-56.721
-57.635
-58.003
-57.839
-57.173
-56.047
-54.514
-52.63
-50.443
-48.004
-45.363
-42.58
-39.723
-36.861
-34.059
-31.365
-28.811
-26.412
-24.174
-22.091
-20.153
-18.344
-16.641
-15.024
-13.48
-11.993
-10.552
-9.139
-7.733
-6.312
-4.853
-3.335
-1.741
-0.055
1.739
3.652
5.697
7.881
10.21
12.69
15.332
18.15
21.161
24.372
27.782
31.382
35.168
39.134
43.271
47.563
51.988
56.53
61.18
65.941
70.816
75.796
80.864
85.987
91.135
96.288
101.436
106.571
111.678
116.738
121.738
126.682
131.577
136.414
141.153
145.726
150.066
154.128
157.88
161.305
164.38
167.071
169.341
171.156
172.497
173.342
173.66
173.4
172.504
170.948
168.752
165.973
162.667
158.868
154.602
149.89
144.764
139.265
133.432
127.292
120.866
114.187
107.302
100.283
93.204
86.113
79.027
71.938
64.841
57.75
50.683
43.656
36.679
29.761
22.92
16.188
9.599
3.174
-3.077
-9.157
-15.069
-20.807
-26.352
-31.676
-36.758
-41.582
-46.138
-50.411
-54.388
-58.058
-61.421
-64.486
-67.266
-69.766
-71.992
-73.946
-75.633
-77.063
-78.246
-79.195
-79.922
-80.44
-80.762
-80.906
-80.888
-80.724
-80.427
-80.01
-79.482
-78.857
-78.145
-77.36
-76.513
-75.612
-74.671
-73.7
-72.71
-71.713
-70.718
-69.732
-68.762
-67.813
-66.89
-65.998
-65.142
-64.325
-63.549
-62.813
-62.12
-61.471
-60.866
-60.305
-59.784
-59.296
-58.841
-58.419
-58.033
-57.687
-57.382
-57.114
-56.883
-56.686
-56.525
-56.408
-56.331
-56.288
-56.274
-56.284
-56.323
-56.4
-56.507
-56.625
-56.731
-56.793
-56.798
-56.742
-56.62
-56.439
-56.185
-55.831
-55.371
-54.792
-54.114
-53.395
-52.637
-51.826
-50.979
-50.118
-49.399
-49.104
-49.239
-49.586
-49.925
-49.975
-49.769
-49.628
-49.386
-48.596
-47.367
-46.297
-46.452
-49.106
-54.379
-61.553
-70.333
-80.412
-90.851
-99.737
-105.347
-107.536
-107.307
-106.179
-100.084
-78.813
-36.952
23.607
87.323
126.524
124.717
80.332
7.366
-66.414
-122.915
-156.609
-170.163
-173.972
-173.677
-169.348
-160.316
-145.057
-124.452
-101.661
-79.527
-60.514
-46.186
-36.971
-32.509
-31.774
-33.409
-35.994
-38.527
-40.39
-41.121
-40.555
-38.778
-36.056
-32.872
-29.775
-27.042
-24.769
-22.968
-21.537
-20.406
-19.522
-18.786
-18.109
-17.461
-16.848
-16.306
-15.888
-15.61
-15.476
-15.482
-15.614
-15.875
-16.275
-16.835
-17.582
-18.542
-19.741
-21.194
-22.9
-24.845
-26.999
-29.32
-31.76
-34.273
-36.815
-39.354
-41.864
-44.31
-46.652
-48.831
-50.792
-52.482
-53.861
-54.893
-55.564
-55.895
-55.939
-55.793
-55.554
-55.304
-55.127
-55.113
-55.36
-55.976
-57.083
-58.763
-61.123
-64.333
-68.448
-73.405
-78.989
-84.708
-90.005
-94.438
-97.484
-98.529
-97.295
-93.812
-88.521
-82.65
-77.456
-73.761
-72.392
-74.058
-78.747
-85.78
-93.572
-98.964
-98.411
-89.039
-68.155
-33.114
17.848
85.031
167.484
260.352
355.748
448.753
534.947
611.17
678.687
731.187
758.473
754.671
710.153
626.111
514.575
383.165
248.946
128.306
28.392
-38.956
-73.65
-86.351
-83.402
-75.464
-68.333
-58.676
-47.265
-35.418
-24.41
-18.533
-19.314
-25.509
-35.609
-47.427
-58.665
-67.748
-73.847
-76.53
-75.945
-72.771
-67.685
-61.356
-54.626
-48.237
-42.584
-37.879
-34.099
-31.066
-28.696
-26.937
-25.703
-24.915
-24.513
-24.473
-24.821
-25.592
-26.768
-28.297
-30.103
-32.105
-34.25
-36.502
-38.831
-41.195
-43.539
-45.798
-47.9
-49.796
-51.447
-52.81
-53.838
-54.491
-54.743
-54.586
-54.032
-53.09
-51.765
-50.059
-47.971
-45.52
-42.744
-39.696
-36.45
-33.066
-29.585
-26.044
-22.471
-18.887
-15.32
-11.787
-8.293
-4.858
-1.5
1.759
4.881
7.853
10.693
13.435
16.15
18.913
21.771
24.76
27.904
31.213
34.714
38.425
42.352
46.518
50.948
55.673
60.751
66.219
72.069
78.274
84.762
91.439
98.239
105.102
111.97
118.801
125.543
132.146
138.578
144.799
150.758
156.394
161.622
166.369
170.596
174.283
177.438
180.092
182.261
183.953
185.188
185.972
186.309
186.205
185.651
184.637
183.169
181.26
178.937
176.231
173.156
169.721
165.928
161.771
157.252
152.378
147.151
141.583
135.691
129.496
123.028
116.325
109.415
102.327
95.088
87.72
80.252
72.713
65.133
57.543
49.973
42.453
35.013
27.683
20.489
13.454
6.6
-0.056
-6.494
-12.699
-18.654
-24.346
-29.759
-34.884
-39.71
-44.227
-48.43
-52.315
-55.879
-59.124
-62.05
-64.661
-66.961
-68.957
-70.657
-72.067
-73.198
-74.06
-74.663
-75.021
-75.144
-75.048
-74.746
-74.251
-73.581
-72.748
-71.769
-70.659
-69.433
-68.107
-66.695
-65.214
-63.678
-62.101
-60.499
-58.885
-57.272
-55.673
-54.099
-52.559
-51.064
-49.622
-48.241
-46.927
-45.686
-44.524
-43.446
-42.456
-41.556
-40.751
-40.041
-39.428
-38.913
-38.494
-38.171
-37.943
-37.808
-37.762
-37.803
-37.928
-38.132
-38.41
-38.758
-39.169
-39.637
-40.156
-40.72
-41.321
-41.955
-42.613
-43.292
-43.986
-44.689
-45.396
-46.104
-46.806
-47.5
-48.181
-48.845
-49.488
-50.108
-50.701
-51.264
-51.796
-52.296
-52.762
-53.194
-53.591
-53.953
-54.281
-54.575
-54.837
-55.067
-55.268
-55.442
-55.591
-55.719
-55.829
-55.923
-56.005
-56.078
-56.143
-56.203
-56.259
-56.313
-56.367
-56.421
-56.475
-56.532
-56.59
-56.649
-56.71
-56.772
-56.834
-56.894
-56.949
-56.997
-57.036
-57.062
-57.071
-57.06
-57.024
-56.96
-56.862
-56.727
-56.55
-56.325
-56.049
-55.716
-55.322
-54.863
-54.334
-53.734
-53.059
-52.308
-51.481
-50.577
-49.598
-48.544
-47.42
-46.228
-44.974
-43.662
-42.3
-40.895
-39.456
-37.992
-36.514
-35.031
-33.553
-32.091
-30.659
-29.266
-27.925
-26.647
-25.445
-24.329
-23.316
-22.419
-21.649
-21.018
-20.531
-20.198
-20.027
-20.031
-20.218
-20.595
-21.164
-21.924
-22.879
-24.026
-25.352
-26.83
-28.424
-30.093
-31.801
-33.517
-35.207
-36.837
-38.364
-39.742
-40.931
-41.899
-42.625
-43.089
-43.274
-43.177
-42.818
-42.277
-41.665
-41.096
-40.68
-40.499
-40.607
-41.093
-42.063
-43.596
-45.784
-48.698
-52.339
-56.787
-62.163
-68.384
-75.225
-82.286
-88.86
-94.273
-97.979
-99.278
-97.608
-92.951
-85.626
-76.336
-66.32
-57.03
-49.785
-45.775
-45.805
-47.867
-49.097
-48.555
-43.544
-34.057
-19.973
6.793
51.195
116.798
205.143
306.656
413.387
519.39
618.052
704.299
767.802
797.934
786.686
732.711
645.06
532.736
404.264
270.795
141.305
27.351
-56.595
-107.396
-130.556
-132.816
-125.72
-114.589
-97.24
-75.829
-52.64
-30.113
-13.786
-6.092
-6.621
-14.978
-28.971
-44.92
-60.128
-72.994
-82.338
-87.977
-90.098
-88.381
-83.365
-76.727
-69.813
-63.467
-58.185
-53.814
-50.246
-47.803
-46.43
-45.681
-45.22
-44.737
-44.116
-43.516
-42.996
-42.478
-41.946
-41.401
-40.871
-40.449
-40.173
-40.032
-40.026
-40.151
-40.418
-40.842
-41.4
-42.043
-42.706
-43.323
-43.853
-44.261
-44.503
-44.552
-44.377
-43.945
-43.238
-42.238
-40.929
-39.306
-37.367
-35.119
-32.591
-29.83
-26.895
-23.84
-20.705
-17.523
-14.326
-11.138
-7.975
-4.844
-1.737
1.351
4.426
7.498
10.577
13.682
16.832
20.058
23.391
26.86
30.488
34.293
38.28
42.454
46.809
51.331
55.998
60.787
65.661
70.592
75.549
80.502
85.433
90.324
95.152
99.894
104.528
109.04
113.432
117.714
121.89
125.971
129.969
133.905
137.822
141.75
145.704
149.691
153.692
157.683
161.642
165.549
169.369
173.058
176.547
179.749
182.592
185.001
186.888
188.164
188.702
188.401
187.199
185.049
181.932
177.848
172.791
166.763
159.792
151.919
143.209
133.76
123.659
113.007
101.931
90.57
79.1
67.676
56.408
45.394
34.707
24.412
14.577
5.271
-3.464
-11.586
-19.06
-25.881
-32.041
-37.551
-42.457
-46.816
-50.721
-54.248
-57.445
-60.345
-62.971
-65.343
-67.484
-69.42
-71.167
-72.748
-74.202
-75.549
-76.815
-78.009
-79.119
-80.12
-80.974
-81.648
-82.125
-82.4
-82.479
-82.368
-82.079
-81.625
-81.023
-80.287
-79.417
-78.417
-77.291
-76.048
-74.712
-73.309
-71.874
-70.439
-69.031
-67.672
-66.38
-65.166
-64.04
-63.005
-62.062
-61.21
-60.455
-59.799
-59.248
-58.802
-58.459
-58.212
-58.056
-57.983
-57.982
-58.046
-58.166
-58.334
-58.542
-58.787
-59.062
-59.364
-59.688
-60.027
-60.377
-60.731
-61.084
-61.429
-61.763
-62.079
-62.373
-62.642
-62.882
-63.091
-63.267
-63.409
-63.517
-63.591
-63.633
-63.645
-63.628
-63.585
-63.521
-63.437
-63.337
-63.226
-63.107
-62.984
-62.863
-62.747
-62.64
-62.547
-62.472
-62.419
-62.39
-62.389
-62.417
-62.477
-62.57
-62.7
-62.866
-63.069
-63.313
-63.595
-63.918
-64.28
-64.679
-65.112
-65.577
-66.069
-66.582
-67.109
-67.645
-68.182
-68.715
-69.237
-69.741
-70.223
-70.676
-71.096
-71.48
-71.82
-72.11
-72.342
-72.508
-72.601
-72.615
-72.542
-72.374
-72.104
-71.726
-71.241
-70.646
-69.94
-69.115
-68.163
-67.081
-65.874
-64.548
-63.111
-61.574
-59.951
-58.264
-56.551
-54.846
-53.177
-51.558
-49.995
-48.493
-47.062
-45.71
-44.446
-43.262
-42.144
-41.081
-40.071
-39.11
-38.189
-37.279
-36.324
-35.274
-34.102
-32.799
-31.383
-29.871
-28.287
-26.668
-25.064
-23.553
-22.212
-21.104
-20.266
-19.727
-19.506
-19.628
-20.158
-21.147
-22.648
-24.7
-27.286
-30.347
-33.791
-37.505
-41.378
-45.316
-49.181
-52.779
-56.037
-59.048
-62.095
-65.52
-69.414
-73.562
-77.697
-81.781
-85.742
-89.27
-91.685
-92.17
-90.507
-87.35
-83.747
-80.347
-77.608
-76.123
-76.758
-80.565
-87.791
-97.32
-107.338
-116.438
-123.598
-127.916
-128.587
-124.691
-116.024
-103.721
-89.543
-74.953
-60.825
-47.477
-34.613
-21.682
-7.62
9.758
33.168
65.343
108.578
162.579
224.342
290.82
358.228
426.787
501.62
581.73
661.682
728.531
760.353
745.16
682.408
578.763
449.896
310.897
172.255
48.144
-44.511
-97.159
-109.056
-90.7
-63.893
-43.115
-33.23
-32.645
-33.452
-32.135
-30.081
-29.52
-33.256
-41.188
-51.338
-61.752
-70.209
-75.728
-78.197
-77.601
-74.506
-69.639
-63.587
-57.134
-51.088
-45.857
-41.672
-38.626
-36.563
-35.365
-34.936
-35.101
-35.704
-36.63
-37.797
-39.169
-40.754
-42.529
-44.443
-46.421
-48.362
-50.183
-51.811
-53.167
-54.208
-54.904
-55.248
-55.258
-54.96
-54.382
-53.545
-52.464
-51.137
-49.557
-47.724
-45.654
-43.385
-40.956
-38.416
-35.819
-33.208
-30.613
-28.055
-25.534
-23.041
-20.569
-18.104
-15.637
-13.166
-10.698
-8.237
-5.782
-3.326
-0.85
1.668
4.261
6.957
9.783
12.758
15.895
19.203
22.685
26.342
30.171
34.171
38.344
42.69
47.211
51.905
56.764
61.78
66.938
72.222
77.614
83.095
88.644
94.242
99.867
105.501
111.121
116.708
122.238
127.687
133.03
138.24
143.292
148.159
152.814
157.231
161.384
165.25
168.804
172.025
174.891
177.383
179.481
181.169
182.433
183.259
183.635
183.554
183.008
181.994
180.509
178.555
176.136
173.258
169.928
166.158
161.961
157.352
152.347
146.966
141.229
135.158
128.778
122.114
115.193
108.044
100.696
93.18
85.527
77.769
69.936
62.061
54.175
46.309
38.494
30.759
23.134
15.646
8.322
1.187
-5.735
-12.423
-18.856
-25.017
-30.889
-36.458
-41.713
-46.643
-51.242
-55.502
-59.421
-62.996
-66.228
-69.117
-71.669
-73.889
-75.785
-77.366
-78.643
-79.629
-80.338
-80.785
-80.985
-80.956
-80.714
-80.279
-79.667
-78.897
-77.988
-76.958
-75.825
-74.607
-73.322
-71.985
-70.613
-69.22
-67.82
-66.427
-65.052
-63.706
-62.399
-61.139
-59.935
-58.793
-57.719
-56.717
-55.791
-54.942
-54.173
-53.482
-52.869
-52.333
-51.87
-51.477
-51.151
-50.886
-50.679
-50.524
-50.417
-50.351
-50.321
-50.321
-50.347
-50.391
-50.45
-50.517
-50.589
-50.661
-50.728
-50.789
-50.84
-50.879
-50.904
-50.914
-50.909
-50.888
-50.852
-50.802
-50.738
-50.662
-50.577
-50.485
-50.389
-50.291
-50.195
-50.104
-50.022
-49.95
-49.893
-49.853
-49.833
-49.834
-49.862
-49.916
-50.001
-50.117
-50.267
-50.453
-50.676
-50.937
-51.236
-51.573
-51.947
-52.357
-52.8
-53.274
-53.773
-54.293
-54.83
-55.378
-55.931
-56.484
-57.031
-57.567
-58.089
-58.589
-59.065
-59.508
-59.914
-60.275
-60.587
-60.841
-61.032
-61.152
-61.193
-61.15
-61.018
-60.792
-60.464
-60.027
-59.469
-58.784
-57.973
-57.036
-55.977
-54.806
-53.535
-52.183
-50.781
-49.352
-47.917
-46.496
-45.1
-43.747
-42.455
-41.235
-40.102
-39.061
-38.104
-37.225
-36.409
-35.624
-34.839
-34.011
-33.08
-32.009
-30.769
-29.339
-27.713
-25.884
-23.855
-21.651
-19.304
-16.854
-14.358
-11.878
-9.486
-7.282
-5.362
-3.82
-2.754
-2.231
-2.295
-2.985
-4.317
-6.292
-8.895
-12.076
-15.765
-19.892
-24.373
-29.107
-33.99
-38.888
-43.679
-48.269
-52.582
-56.583
-60.297
-63.752
-66.972
-70.003
-72.863
-75.576
-78.243
-80.932
-83.626
-86.364
-89.185
-92.166
-95.525
-99.371
-103.571
-107.815
-111.806
-115.193
-117.284
-117.413
-115.038
-109.401
-101.699
-93.863
-85.429
-77.354
-68.058
-53.529
-36.268
-17.94
-2.337
0.155
-13.52
-40.129
-70.664
-82.636
-53.274
24.6
145.654
289.942
427.425
544.349
641.221
719.7
787.632
839.991
854.825
819.403
725.759
577.161
400.244
222.433
69.329
-39.584
-102.583
-127.018
-126.694
-112.015
-90.192
-68.576
-48.692
-37.696
-39.148
-46.678
-56.972
-63.494
-62.903
-60.898
-60.392
-62.626
-67.27
-70.425
-70.243
-67.153
-61.848
-55.585
-49.201
-43.054
-37.751
-33.77
-31.276
-30.188
-30.257
-31.295
-33.161
-35.709
-38.734
-42.007
-45.357
-48.647
-51.773
-54.613
-57.026
-58.914
-60.215
-60.909
-61.003
-60.52
-59.493
-57.974
-56.029
-53.714
-51.085
-48.199
-45.104
-41.854
-38.502
-35.091
-31.659
-28.233
-24.829
-21.459
-18.13
-14.839
-11.579
-8.335
-5.097
-1.873
1.321
4.463
7.528
10.492
13.317
15.95
18.344
20.466
22.297
23.839
25.101
26.095
26.843
27.369
27.72
27.958
28.154
28.377
28.699
29.195
29.961
31.118
32.771
35.003
37.876
41.422
45.67
50.637
56.316
62.677
69.664
77.21
85.25
93.723
102.564
111.696
121.009
130.369
139.654
148.749
157.547
165.949
173.84
181.12
187.723
193.606
198.749
203.128
206.71
209.449
211.312
212.287
212.388
211.644
210.084
207.745
204.679
200.954
196.67
191.91
186.731
181.171
175.261
169.041
162.57
155.913
149.123
142.241
135.299
128.324
121.35
114.396
107.465
100.539
93.58
86.569
79.504
72.397
65.263
58.113
50.951
43.78
36.618
29.487
22.406
15.392
8.458
1.624
-5.076
-11.603
-17.91
-23.962
-29.735
-35.208
-40.366
-45.196
-49.685
-53.827
-57.624
-61.078
-64.191
-66.965
-69.399
-71.499
-73.277
-74.746
-75.921
-76.817
-77.449
-77.83
-77.978
-77.907
-77.633
-77.171
-76.533
-75.735
-74.793
-73.724
-72.546
-71.276
-69.93
-68.526
-67.079
-65.606
-64.122
-62.639
-61.171
-59.729
-58.324
-56.968
-55.669
-54.434
-53.272
-52.188
-51.186
-50.272
-49.446
-48.711
-48.066
-47.512
-47.047
-46.668
-46.372
-46.155
-46.013
-45.94
-45.931
-45.979
-46.079
-46.224
-46.405
-46.618
-46.854
-47.107
-47.371
-47.64
-47.906
-48.167
-48.416
-48.649
-48.863
-49.054
-49.219
-49.357
-49.466
-49.545
-49.594
-49.614
-49.606
-49.571
-49.514
-49.436
-49.342
-49.236
-49.123
-49.008
-48.896
-48.794
-48.708
-48.642
-48.604
-48.6
-48.634
-48.712
-48.838
-49.016
-49.25
-49.541
-49.893
-50.307
-50.783
-51.322
-51.922
-52.584
-53.304
-54.08
-54.909
-55.786
-56.705
-57.663
-58.651
-59.664
-60.692
-61.728
-62.763
-63.788
-64.792
-65.767
-66.7
-67.58
-68.399
-69.146
-69.811
-70.385
-70.859
-71.223
-71.47
-71.593
-71.585
-71.443
-71.162
-70.739
-70.174
-69.468
-68.623
-67.643
-66.531
-65.289
-63.921
-62.431
-60.83
-59.134
-57.353
-55.505
-53.604
-51.667
-49.714
-47.768
-45.842
-43.955
-42.115
-40.333
-38.629
-37.019
-35.527
-34.18
-32.979
-31.925
-31.016
-30.241
-29.625
-29.194
-28.94
-28.864
-28.96
-29.196
-29.648
-30.404
-31.354
-32.43
-33.543
-34.539
-35.574
-36.857
-38.274
-39.742
-41.481
-43.583
-46.342
-50.151
-54.555
-59.027
-63.509
-67.81
-71.572
-74.635
-76.431
-76.338
-74.886
-72.652
-69.804
-66.688
-63.545
-60.471
-58.054
-56.917
-56.803
-57.467
-58.92
-61.128
-64.23
-68.293
-72.888
-77.306
-81.171
-84.218
-86.049
-86.176
-84.216
-80.199
-74.815
-69.601
-66.092
-65.273
-68.031
-75.167
-86.767
-101.947
-118.568
-132.812
-140.536
-138.201
-122.308
-89.476
-37.056
34.433
120.905
216.752
314.859
413.545
516.919
622.588
725.708
813.388
859.864
851.712
783.008
655.07
492.191
316.865
152.407
27.554
-49.712
-80.262
-74.303
-56.998
-42.013
-34.625
-34.928
-33.27
-27.013
-19.064
-11.921
-10.441
-15.873
-25.725
-37.975
-50.231
-60.132
-66.854
-70.162
-69.993
-67.031
-62.155
-56.077
-49.683
-43.906
-39.221
-35.84
-33.836
-33.006
-33.184
-34.281
-36.106
-38.474
-41.245
-44.279
-47.486
-50.805
-54.126
-57.321
-60.265
-62.833
-64.957
-66.611
-67.776
-68.456
-68.666
-68.423
-67.769
-66.753
-65.423
-63.828
-62.015
-60.026
-57.915
-55.734
-53.535
-51.367
-49.257
-47.219
-45.257
-43.369
-41.547
-39.784
-38.064
-36.365
-34.669
-32.959
-31.219
-29.433
-27.583
-25.648
-23.608
-21.441
-19.131
-16.667
-14.038
-11.234
-8.242
-5.049
-1.644
1.973
5.802
9.844
14.092
18.544
23.183
27.982
32.916
37.959
43.093
48.315
53.615
58.982
64.404
69.864
75.356
80.893
86.477
92.106
97.779
103.492
109.264
115.135
121.133
127.273
133.551
139.93
146.376
152.856
159.319
165.709
171.945
177.918
183.54
188.743
193.457
197.618
201.138
203.898
205.807
206.797
206.823
205.88
203.965
201.076
197.246
192.532
187.02
180.83
174.058
166.772
159.048
150.955
142.585
134.055
125.459
116.869
108.344
99.928
91.663
83.595
75.74
68.09
60.621
53.288
46.07
38.966
31.976
25.101
18.337
11.667
5.092
-1.374
-7.718
-13.928
-19.992
-25.905
-31.648
-37.188
-42.493
-47.523
-52.253
-56.669
-60.761
-64.521
-67.944
-71.028
-73.778
-76.208
-78.328
-80.148
-81.676
-82.921
-83.894
-84.616
-85.102
-85.372
-85.444
-85.332
-85.053
-84.624
-84.059
-83.371
-82.573
-81.675
-80.689
-79.628
-78.507
-77.337
-76.133
-74.905
-73.665
-72.425
-71.194
-69.981
-68.793
-67.636
-66.516
-65.438
-64.406
-63.424
-62.495
-61.622
-60.806
-60.049
-59.351
-58.712
-58.132
-57.61
-57.145
-56.735
-56.381
-56.079
-55.828
-55.628
-55.476
-55.37
-55.308
-55.287
-55.303
-55.354
-55.437
-55.549
-55.687
-55.849
-56.031
-56.233
-56.453
-56.69
-56.941
-57.206
-57.481
-57.766
-58.059
-58.359
-58.665
-58.975
-59.289
-59.607
-59.929
-60.255
-60.584
-60.917
-61.252
-61.589
-61.929
-62.269
-62.611
-62.954
-63.299
-63.645
-63.994
-64.346
-64.701
-65.058
-65.416
-65.773
-66.129
-66.478
-66.819
-67.149
-67.467
-67.77
-68.058
-68.329
-68.583
-68.822
-69.044
-69.248
-69.431
-69.587
-69.713
-69.805
-69.855
-69.859
-69.811
-69.705
-69.54
-69.315
-69.028
-68.676
-68.252
-67.746
-67.155
-66.478
-65.717
-64.874
-63.958
-62.979
-61.959
-60.932
-59.921
-58.941
-58.001
-57.098
-56.232
-55.406
-54.62
-53.87
-53.151
-52.454
-51.773
-51.116
-50.471
-49.822
-49.133
-48.345
-47.425
-46.363
-45.162
-43.84
-42.42
-40.927
-39.408
-37.931
-36.56
-35.356
-34.363
-33.601
-33.112
-32.945
-33.159
-33.829
-34.988
-36.634
-38.759
-41.335
-44.326
-47.683
-51.316
-55.096
-58.899
-62.62
-66.172
-69.499
-72.526
-75.19
-77.45
-79.276
-80.698
-81.769
-82.52
-83.004
-83.301
-83.505
-83.77
-84.278
-85.161
-86.56
-88.646
-91.491
-95.085
-99.252
-103.58
-107.601
-110.894
-113.035
-113.545
-112.08
-108.554
-103.366
-97.444
-91.864
-87.544
-85.013
-84.78
-87.529
-93.184
-100.44
-107.267
-109.376
-102.754
-86.544
-58.215
-18.027
32.736
97.333
173.094
259.03
355.321
457.171
567.426
681.187
786.958
872.022
908.768
881.903
787.44
628.115
434.642
236.08
59.127
-67.397
-143.072
-174.361
-171.689
-156.487
-132.172
-101.159
-71.032
-41.856
-24.108
-23.215
-31.32
-44.113
-53.325
-54.533
-53.742
-53.533
-54.933
-58.213
-59.772
-58.159
-54.254
-48.761
-42.89
-37.632
-33.397
-30.471
-29.064
-29.099
-30.246
-32.258
-34.966
-38.168
-41.695
-45.387
-49.042
-52.513
-55.71
-58.511
-60.811
-62.548
-63.664
-64.152
-64.03
-63.328
-62.092
-60.378
-58.243
-55.74
-52.922
-49.839
-46.553
-43.133
-39.645
-36.158
-32.723
-29.375
-26.142
-23.038
-20.067
-17.228
-14.507
-11.886
-9.351
-6.892
-4.499
-2.164
0.125
2.383
4.624
6.86
9.105
11.368
13.663
16.002
18.393
20.846
23.366
25.961
28.64
31.415
34.295
37.288
40.403
43.651
47.046
50.604
54.333
58.236
62.312
66.556
70.961
75.517
80.204
84.993
89.859
94.779
99.736
104.718
109.703
114.665
119.571
124.392
129.109
133.717
138.208
142.581
146.847
151.027
155.162
159.302
163.474
167.693
171.961
176.273
180.629
185.038
189.503
194.021
198.574
203.125
207.631
212.031
216.229
220.116
223.548
226.382
228.517
229.867
230.359
229.931
228.52
226.052
222.467
217.702
211.696
204.418
195.869
186.087
175.17
163.238
150.446
136.961
122.908
108.413
93.6
78.58
63.477
48.443
33.639
19.258
5.529
-7.361
-19.258
-30.047
-39.678
-48.122
-55.377
-61.468
-66.404
-70.192
-72.847
-74.358
-74.738
-74.063
-72.433
-70.007
-67.008
-63.621
-60.022
-56.374
-52.788
-49.36
-46.168
-43.249
-40.644
-38.406
-36.597
-35.307
-34.605
-34.498
-34.969
-35.954
-37.336
-39.012
-40.875
-42.794
-44.681
-46.467
-48.101
-49.571
-50.866
-51.959
-52.81
-53.366
-53.58
-53.442
-52.953
-52.132
-51.029
-49.693
-48.191
-46.615
-45.031
-43.484
-42.007
-40.606
-39.285
-38.06
-36.947
-35.962
-35.124
-34.439
-33.913
-33.555
-33.357
-33.307
-33.382
-33.544
-33.765
-34.029
-34.325
-34.65
-35.002
-35.376
-35.771
-36.191
-36.634
-37.098
-37.58
-38.072
-38.568
-39.068
-39.574
-40.09
-40.618
-41.158
-41.712
-42.278
-42.856
-43.445
-44.042
-44.642
-45.24
-45.836
-46.429
-47.017
-47.601
-48.18
-48.752
-49.319
-49.879
-50.43
-50.972
-51.501
-52.017
-52.516
-52.998
-53.461
-53.904
-54.324
-54.722
-55.095
-55.444
-55.765
-56.058
-56.321
-56.551
-56.747
-56.907
-57.027
-57.106
-57.142
-57.133
-57.076
-56.968
-56.809
-56.594
-56.322
-55.992
-55.602
-55.151
-54.641
-54.071
-53.447
-52.77
-52.044
-51.274
-50.464
-49.621
-48.748
-47.852
-46.939
-46.014
-45.084
-44.158
-43.244
-42.351
-41.489
-40.668
-39.895
-39.183
-38.541
-37.983
-37.515
-37.148
-36.892
-36.756
-36.756
-36.902
-37.201
-37.655
-38.267
-39.033
-39.949
-41.005
-42.181
-43.452
-44.794
-46.177
-47.577
-48.974
-50.342
-51.654
-52.882
-53.996
-54.984
-55.834
-56.535
-57.092
-57.517
-57.827
-58.072
-58.311
-58.612
-59.067
-59.749
-60.722
-62.04
-63.729
-65.827
-68.391
-71.448
-75.035
-79.177
-83.821
-88.968
-94.659
-100.74
-106.945
-112.838
-117.731
-121.079
-122.522
-121.564
-117.821
-111.341
-102.39
-91.86
-81.186
-71.371
-63.273
-57.827
-55.241
-54.995
-55.993
-55.898
-51.906
-41.57
-21.951
9.826
55.645
114.469
182.098
253.999
325.203
396.355
472.81
552.166
629.468
691.822
715.024
688.681
608.963
478.1
320.829
158.567
12.64
-89.899
-144.074
-154.258
-132.082
-102.697
-79.842
-67.456
-64.666
-62.66
-57.674
-51.383
-46.164
-45.742
-50.64
-58.606
-67.393
-74.484
-78.688
-80.016
-78.517
-74.693
-69.264
-62.893
-56.424
-50.711
-46.175
-42.956
-41.072
-40.336
-40.587
-41.706
-43.486
-45.715
-48.241
-50.93
-53.677
-56.393
-58.95
-61.205
-63.059
-64.441
-65.319
-65.691
-65.563
-64.951
-63.892
-62.428
-60.608
-58.477
-56.078
-53.454
-50.659
-47.751
-44.793
-41.846
-38.955
-36.15
-33.45
-30.861
-28.382
-26.005
-23.716
-21.497
-19.33
-17.204
-15.107
-13.03
-10.958
-8.876
-6.77
-4.623
-2.421
-0.153
2.195
4.63
7.161
9.795
12.537
15.391
18.362
21.456
24.677
28.033
31.526
35.159
38.935
42.854
46.914
51.113
55.442
59.896
64.463
69.133
73.891
78.724
83.616
88.547
93.501
98.456
103.392
108.288
113.122
117.87
122.509
127.016
131.368
135.54
139.511
143.257
146.756
149.986
152.927
155.558
157.861
159.816
161.409
162.623
163.446
163.865
163.871
163.457
162.62
161.357
159.668
157.556
155.028
152.09
148.754
145.03
140.934
136.481
131.689
126.578
121.169
115.484
109.546
103.38
97.012
90.468
83.774
76.959
70.048
63.071
56.055
49.027
42.017
35.051
28.156
21.359
14.684
8.157
1.799
-4.367
-10.321
-16.047
-21.527
-26.748
-31.698
-36.365
-40.743
-44.823
-48.603
-52.079
-55.249
-58.115
-60.678
-62.943
-64.913
-66.596
-67.999
-69.13
-70
-70.619
-70.998
-71.151
-71.09
-70.83
-70.386
-69.772
-69.005
-68.102
-67.077
-65.948
-64.73
-63.44
-62.093
-60.703
-59.284
-57.85
-56.413
-54.986
-53.578
-52.2
-50.861
-49.569
-48.333
-47.158
-46.052
-45.02
-44.065
-43.193
-42.406
-41.707
-41.098
-40.58
-40.154
-39.819
-39.574
-39.419
-39.35
-39.365
-39.46
-39.63
-39.872
-40.179
-40.546
-40.968
-41.439
-41.954
-42.507
-43.092
-43.705
-44.341
-44.994
-45.661
-46.336
-47.016
-47.696
-48.372
-49.042
-49.701
-50.345
-50.973
-51.581
-52.166
-52.726
-53.258
-53.761
-54.233
-54.672
-55.077
-55.45
-55.788
-56.095
-56.369
-56.613
-56.828
-57.016
-57.178
-57.315
-57.43
-57.522
-57.593
-57.644
-57.675
-57.685
-57.676
-57.646
-57.595
-57.523
-57.428
-57.31
-57.166
-56.995
-56.797
-56.569
-56.311
-56.021
-55.698
-55.34
-54.946
-54.516
-54.046
-53.536
-52.984
-52.388
-51.747
-51.059
-50.324
-49.543
-48.718
-47.85
-46.943
-45.999
-45.024
-44.023
-43.002
-41.967
-40.924
-39.881
-38.844
-37.822
-36.826
-35.866
-34.95
-34.088
-33.292
-32.571
-31.939
-31.406
-30.98
-30.669
-30.479
-30.421
-30.511
-30.76
-31.174
-31.757
-32.51
-33.431
-34.52
-35.763
-37.135
-38.603
-40.13
-41.681
-43.228
-44.743
-46.19
-47.532
-48.724
-49.728
-50.523
-51.096
-51.44
-51.553
-51.44
-51.139
-50.729
-50.305
-49.981
-49.866
-50.046
-50.608
-51.621
-53.153
-55.28
-58.065
-61.544
-65.74
-70.636
-76.196
-82.414
-89.162
-96.152
-102.962
-108.979
-113.539
-116.098
-116.247
-113.618
-108.104
-99.94
-89.618
-78.122
-66.789
-56.747
-48.509
-42.116
-37.058
-32.205
-26.039
-16.235
0.65
28.325
67.592
116.439
172.723
232.891
298.576
376.981
467.255
564.474
655.017
711.678
718.752
669.135
563.999
426.741
279.038
141.605
37.925
-27.784
-57.87
-60.807
-56.282
-53.314
-54.658
-59.973
-61.334
-56.986
-49.819
-42.167
-38.361
-39.949
-45.232
-52.724
-60.581
-66.762
-70.481
-71.521
-69.737
-65.594
-59.751
-52.742
-45.313
-38.358
-32.376
-27.595
-24.124
-21.798
-20.477
-20.104
-20.515
-21.525
-22.993
-24.779
-26.787
-28.963
-31.206
-33.399
-35.425
-37.163
-38.543
-39.536
-40.122
-40.308
-40.107
-39.534
-38.627
-37.431
-35.989
-34.346
-32.545
-30.622
-28.626
-26.602
-24.597
-22.656
-20.803
-19.049
-17.395
-15.834
-14.356
-12.95
-11.598
-10.279
-8.974
-7.669
-6.348
-4.999
-3.604
-2.146
-0.607
1.031
2.785
4.665
6.684
8.849
11.168
13.646
16.29
19.109
22.107
25.288
28.651
32.193
35.906
39.779
43.791
47.918
52.135
56.413
60.728
65.062
69.398
73.723
78.023
82.279
86.483
90.637
94.75
98.839
102.922
107.015
111.145
115.353
119.672
124.133
128.756
133.541
138.476
143.539
148.698
153.924
159.164
164.336
169.346
174.087
178.454
182.363
185.717
188.407
190.337
191.417
191.575
190.779
189.012
186.266
182.557
177.903
172.351
166.002
158.977
151.408
143.424
135.123
126.61
118.007
109.422
100.958
92.703
84.707
77.011
69.667
62.704
56.155
50.033
44.292
38.873
33.718
28.77
24.004
19.397
14.91
10.513
6.187
1.922
-2.27
-6.378
-10.411
-14.371
-18.262
-22.085
-25.8
-29.365
-32.748
-35.916
-38.857
-41.563
-44.017
-46.209
-48.144
-49.829
-51.282
-52.521
-53.546
-54.361
-54.97
-55.378
-55.604
-55.671
-55.594
-55.39
-55.073
-54.655
-54.152
-53.582
-52.951
-52.265
-51.53
-50.753
-49.943
-49.114
-48.274
-47.433
-46.598
-45.775
-44.973
-44.197
-43.453
-42.743
-42.071
-41.437
-40.844
-40.296
-39.795
-39.34
-38.933
-38.571
-38.256
-37.988
-37.765
-37.586
-37.45
-37.355
-37.3
-37.285
-37.309
-37.366
-37.456
-37.574
-37.718
-37.885
-38.072
-38.275
-38.492
-38.723
-38.966
-39.222
-39.49
-39.766
-40.051
-40.342
-40.64
-40.943
-41.249
-41.553
-41.855
-42.162
-42.476
-42.806
-43.152
-43.506
-43.863
-44.222
-44.579
-44.93
-45.263
-45.563
-45.828
-46.067
-46.287
-46.503
-46.717
-46.917
-47.1
-47.259
-47.395
-47.521
-47.638
-47.736
-47.824
-47.919
-48.045
-48.247
-48.536
-48.887
-49.29
-49.725
-50.181
-50.661
-51.143
-51.6
-52.01
-52.349
-52.614
-52.82
-52.946
-52.957
-52.814
-52.446
-51.833
-50.997
-49.926
-48.624
-47.107
-45.387
-43.519
-41.589
-39.65
-37.746
-35.904
-34.13
-32.466
-30.976
-29.709
-28.736
-28.095
-27.798
-27.896
-28.435
-29.427
-30.875
-32.732
-34.913
-37.365
-40.052
-42.924
-45.947
-49.06
-52.189
-55.286
-58.299
-61.178
-63.883
-66.329
-68.43
-70.135
-71.4
-72.223
-72.622
-72.613
-72.235
-71.553
-70.651
-69.605
-68.474
-67.302
-66.156
-65.115
-64.287
-63.811
-63.771
-64.306
-65.636
-67.817
-70.773
-74.218
-77.518
-80.036
-81.338
-80.893
-78.17
-73.191
-66.303
-58.531
-51.861
-48.008
-48.172
-53.453
-64.277
-79.814
-98.49
-117.274
-131.346
-136.265
-128.099
-103.162
-59.545
2.639
81.947
174.589
274.249
373.936
465.828
542.024
596.377
626.049
631.299
611.718
567.887
499.711
404.802
291.71
175.992
72.609
0.374
-36.555
-49.535
-48.381
-45.91
-48.021
-48.895
-46.551
-41.365
-34.663
-31.448
-34.018
-41.326
-51.897
-63.932
-75.693
-85.742
-93.157
-97.33
-98.095
-96.03
-91.897
-86.258
-79.691
-73.013
-67.117
-62.432
-58.938
-56.61
-54.946
-54.735
-58.772
-66.524
-75.165
-80.43
-74.091
-56.089
-34.734
-18.089
-17.669
-34.903
-58.647
-80.225
-90.506
-87.248
-78.637
-69.895
-64.377
-63.36
-63.525
-63.229
-62.635
-61.634
-60.738
-60.125
-59.346
-58.233
-56.858
-55.219
-53.305
-51.166
-48.87
-46.482
-44.095
-41.752
-39.414
-37.068
-34.721
-32.355
-29.959
-27.524
-25.037
-22.504
-19.939
-17.338
-14.689
-11.972
-9.156
-6.22
-3.152
0.067
3.449
7.006
10.749
14.677
18.777
23.045
27.473
32.053
36.773
41.608
46.518
51.47
56.441
61.41
66.368
71.299
76.186
81.017
85.783
90.475
95.095
99.632
104.07
108.408
112.651
116.825
120.975
125.124
129.268
133.392
137.466
141.451
145.307
148.975
152.378
155.453
158.138
160.389
162.182
163.473
164.204
164.306
163.686
162.281
160.067
157.029
153.171
148.522
143.121
137.042
130.394
123.268
115.742
107.88
99.725
91.338
82.795
74.179
65.585
57.093
48.759
40.639
32.78
25.208
17.937
10.951
4.205
-2.327
-8.658
-14.791
-20.712
-26.417
-31.912
-37.199
-42.28
-47.159
-51.833
-56.306
-60.582
-64.659
-68.526
-72.162
-75.533
-78.618
-81.408
-83.896
-86.085
-87.979
-89.583
-90.906
-91.967
-92.778
-93.355
-93.709
-93.849
-93.79
-93.547
-93.14
-92.588
-91.911
-91.125
-90.247
-89.29
-88.27
-87.198
-86.084
-84.935
-83.758
-82.561
-81.353
-80.14
-78.932
-77.732
-76.548
-75.384
-74.246
-73.137
-72.058
-71.012
-69.998
-69.018
-68.071
-67.157
-66.275
-65.425
-64.605
-63.815
-63.055
-62.324
-61.619
-60.941
-60.287
-59.657
-59.051
-58.467
-57.905
-57.367
-56.852
-56.363
-55.902
-55.469
-55.067
-54.699
-54.364
-54.067
-53.809
-53.591
-53.416
-53.286
-53.203
-53.17
-53.188
-53.259
-53.384
-53.563
-53.795
-54.078
-54.409
-54.785
-55.202
-55.656
-56.141
-56.655
-57.191
-57.746
-58.314
-58.891
-59.473
-60.052
-60.623
-61.174
-61.698
-62.184
-62.622
-63.002
-63.313
-63.542
-63.68
-63.721
-63.657
-63.481
-63.183
-62.75
-62.174
-61.455
-60.593
-59.593
-58.464
-57.215
-55.866
-54.447
-52.988
-51.518
-50.054
-48.602
-47.169
-45.764
-44.396
-43.077
-41.809
-40.573
-39.362
-38.171
-36.993
-35.824
-34.636
-33.376
-32.004
-30.485
-28.809
-26.994
-25.06
-23.026
-20.928
-18.806
-16.727
-14.785
-13.045
-11.554
-10.351
-9.457
-8.926
-8.841
-9.264
-10.243
-11.797
-13.909
-16.556
-19.713
-23.316
-27.282
-31.492
-35.793
-40.079
-44.278
-48.339
-52.265
-56.032
-59.591
-62.913
-65.958
-68.708
-71.193
-73.451
-75.533
-77.523
-79.504
-81.627
-84.139
-87.156
-90.624
-94.291
-97.641
-100.174
-101.56
-101.419
-99.248
-94.761
-88.088
-79.922
-71.606
-64.495
-59.406
-56.931
-57.829
-62.487
-70.326
-79.631
-87.35
-90.019
-85.075
-70.125
-42.138
1.507
62.33
138.324
223.61
312.714
400.571
487.129
576.492
664.77
745.637
806.502
825.267
793.523
709.328
575.657
415.187
247.475
91.979
-25.801
-98.639
-127.93
-123.022
-106.53
-91.642
-83.197
-80.707
-76.048
-66.903
-55.749
-45.308
-39.823
-40.107
-43.952
-49.601
-54.848
-57.711
-57.613
-54.358
-48.078
-39.588
-29.787
-19.415
-9.337
-0.428
6.854
12.249
15.642
17.196
17.061
15.362
12.329
8.214
3.218
-2.447
-8.568
-14.95
-21.349
-27.527
-33.323
-38.604
-43.275
-47.263
-50.482
-52.879
-54.448
-55.203
-55.182
-54.431
-52.997
-50.949
-48.392
-45.443
-42.231
-38.875
-35.453
-32.026
-28.64
-25.33
-22.136
-19.079
-16.162
-13.379
-10.727
-8.199
-5.793
-3.497
-1.28
0.893
3.061
5.264
7.527
9.868
12.306
14.851
17.508
20.285
23.181
26.197
29.341
32.619
36.037
39.594
43.284
47.09
50.994
54.972
59
63.059
67.136
71.227
75.34
79.482
83.663
87.885
92.135
96.405
100.684
104.968
109.256
113.557
117.889
122.276
126.748
131.322
135.995
140.743
145.516
150.254
154.882
159.34
163.582
167.566
171.251
174.6
177.57
180.111
182.164
183.658
184.511
184.66
184.065
182.72
180.649
177.902
174.55
170.655
166.267
161.432
156.187
150.565
144.603
138.339
131.819
125.106
118.278
111.403
104.538
97.715
90.945
84.22
77.514
70.81
64.095
57.365
50.63
43.902
37.201
30.545
23.959
17.453
11.028
4.686
-1.57
-7.727
-13.762
-19.645
-25.339
-30.809
-36.025
-40.96
-45.596
-49.921
-53.927
-57.614
-60.983
-64.038
-66.777
-69.2
-71.308
-73.104
-74.597
-75.795
-76.713
-77.365
-77.768
-77.937
-77.89
-77.643
-77.21
-76.605
-75.843
-74.935
-73.897
-72.743
-71.489
-70.148
-68.738
-67.271
-65.763
-64.227
-62.678
-61.126
-59.584
-58.061
-56.569
-55.115
-53.709
-52.358
-51.069
-49.847
-48.698
-47.624
-46.63
-45.716
-44.885
-44.135
-43.467
-42.879
-42.368
-41.933
-41.572
-41.281
-41.057
-40.897
-40.799
-40.759
-40.774
-40.841
-40.957
-41.118
-41.322
-41.566
-41.848
-42.164
-42.513
-42.892
-43.299
-43.731
-44.186
-44.661
-45.153
-45.66
-46.179
-46.706
-47.24
-47.777
-48.317
-48.86
-49.403
-49.946
-50.488
-51.027
-51.561
-52.089
-52.606
-53.104
-53.58
-54.028
-54.443
-54.821
-55.158
-55.446
-55.683
-55.865
-55.987
-56.046
-56.031
-55.928
-55.729
-55.434
-55.047
-54.575
-54.027
-53.405
-52.719
-51.983
-51.205
-50.388
-49.522
-48.586
-47.567
-46.467
-45.294
-44.07
-42.806
-41.496
-40.137
-38.722
-37.242
-35.697
-34.066
-32.316
-30.438
-28.445
-26.379
-24.312
-22.297
-20.367
-18.549
-16.856
-15.315
-13.966
-12.839
-11.958
-11.358
-11.071
-11.159
-11.703
-12.74
-14.275
-16.275
-18.661
-21.376
-24.376
-27.599
-30.988
-34.475
-37.987
-41.475
-44.897
-48.197
-51.311
-54.147
-56.603
-58.623
-60.186
-61.301
-62.016
-62.371
-62.421
-62.269
-62.032
-61.844
-61.831
-62.079
-62.664
-63.647
-65.109
-67.146
-69.814
-73.143
-77.129
-81.711
-86.87
-92.623
-98.793
-105.042
-110.961
-115.908
-119.29
-120.668
-119.427
-115.036
-107.449
-96.953
-84.13
-70.072
-56.155
-43.467
-32.939
-25.357
-18.927
-11.311
-2.318
10.437
26.802
46.047
75.398
117.476
173.577
246.652
328.457
415.502
507.584
596.136
673.999
726.755
737.504
700.213
618.887
508.523
384.309
260.866
149.808
55.101
-14.381
-56.508
-79.044
-86.464
-87.89
-89.162
-86.474
-79.51
-69.753
-58.807
-51.302
-49.586
-52.793
-59.516
-68.135
-76.883
-84.153
-89.061
-91.041
-89.939
-86.396
-81.133
-74.728
-68.011
-61.82
-56.594
-52.611
-49.923
-48.302
-47.609
-47.739
-48.508
-49.747
-51.322
-53.123
-55.109
-57.28
-59.568
-61.852
-63.986
-65.815
-67.255
-68.268
-68.838
-68.967
-68.658
-67.926
-66.816
-65.376
-63.645
-61.651
-59.398
-56.872
-54.1
-51.131
-48.039
-44.913
-41.806
-38.75
-35.771
-32.889
-30.116
-27.456
-24.894
-22.401
-19.962
-17.571
-15.23
-12.956
-10.741
-8.569
-6.415
-4.246
-2.031
0.252
2.634
5.144
7.798
10.607
13.57
16.673
19.909
23.27
26.737
30.298
33.941
37.649
41.425
45.268
49.171
53.131
57.136
61.181
65.279
69.449
73.703
78.061
82.541
87.168
91.991
97.047
102.356
107.927
113.736
119.745
125.92
132.217
138.579
144.936
151.19
157.231
162.972
168.325
173.202
177.509
181.119
183.924
185.846
186.825
186.837
185.876
183.94
181.044
177.234
172.576
167.162
161.106
154.493
147.404
139.923
132.14
124.167
116.111
108.046
100.036
92.127
84.354
76.755
69.355
62.152
55.132
48.267
41.516
34.863
28.302
21.822
15.419
9.078
2.79
-3.439
-9.592
-15.653
-21.606
-27.435
-33.127
-38.651
-43.975
-49.064
-53.881
-58.405
-62.618
-66.507
-70.065
-73.286
-76.168
-78.717
-80.947
-82.868
-84.489
-85.821
-86.873
-87.66
-88.201
-88.511
-88.61
-88.514
-88.24
-87.804
-87.222
-86.51
-85.68
-84.749
-83.726
-82.627
-81.465
-80.253
-79.007
-77.739
-76.462
-75.185
-73.917
-72.665
-71.436
-70.239
-69.082
-67.969
-66.905
-65.892
-64.933
-64.031
-63.187
-62.398
-61.656
-60.959
-60.305
-59.697
-59.143
-58.645
-58.198
-57.793
-57.414
-57.048
-56.687
-56.317
-55.922
-55.492
-55.021
-54.511
-53.982
-53.444
-52.904
-52.358
-51.784
-51.177
-50.55
-49.94
-49.416
-49.022
-48.77
-48.661
-48.674
-48.809
-49.114
-49.568
-50.067
-50.593
-51.182
-52.045
-53.626
-56.11
-59.352
-63.139
-67.171
-71.095
-74.635
-77.071
-77.17
-74.331
-68.641
-60.664
-51.535
-42.223
-33.337
-26.041
-22.041
-22.273
-26.908
-35.272
-45.717
-57
-68.441
-79.003
-87.423
-92.909
-95.098
-94.413
-92.117
-89.051
-85.568
-82.058
-78.83
-76.119
-74.128
-72.678
-71.235
-69.49
-67.353
-64.831
-62.047
-59.057
-55.837
-52.418
-48.88
-45.262
-41.584
-37.856
-34.077
-30.273
-26.494
-22.802
-19.253
-15.9
-12.791
-9.943
-7.358
-5.047
-3.029
-1.348
-0.072
0.719
0.962
0.615
-0.342
-1.911
-4.091
-6.856
-10.162
-13.94
-18.098
-22.568
-27.291
-32.213
-37.272
-42.393
-47.484
-52.443
-57.18
-61.603
-65.625
-69.164
-72.144
-74.51
-76.241
-77.368
-77.95
-78.059
-77.767
-77.124
-76.194
-75.074
-73.873
-72.722
-71.76
-71.091
-70.875
-71.375
-72.732
-74.93
-77.76
-80.649
-82.994
-84.366
-84.241
-81.996
-77.425
-70.747
-62.78
-55.368
-50.349
-48.966
-52.408
-61.573
-76.298
-95.404
-116.391
-134.697
-145.5
-144.876
-128.768
-93.6
-37.514
39.694
134.695
239.789
347.025
450.077
546.827
638.026
721.914
792.282
833.484
827.629
763.223
639.057
473.361
295.854
138.174
24.578
-39.643
-64.467
-69.983
-74.19
-83.596
-96.204
-103.428
-99.328
-85.554
-67.034
-50.124
-38.844
-33.271
-32.006
-33.753
-37.771
-43.373
-49.951
-56.579
-61.94
-65.676
-68.13
-69.468
-69.952
-69.747
-68.619
-66.87
-65.382
-64.538
-64.436
-65.104
-66.265
-67.828
-69.989
-72.607
-75.235
-77.552
-79.275
-80.24
-80.534
-80.185
-79.121
-77.366
-74.996
-72.087
-68.771
-65.161
-61.319
-57.344
-53.358
-49.461
-45.763
-42.358
-39.295
-36.604
-34.279
-32.267
-30.522
-29.009
-27.688
-26.529
-25.5
-24.544
-23.612
-22.65
-21.588
-20.37
-18.949
-17.275
-15.334
-13.127
-10.673
-8.02
-5.207
-2.257
0.812
3.994
7.29
10.692
14.198
17.809
21.512
25.297
29.158
33.088
37.094
41.19
45.389
49.706
54.158
58.754
63.49
68.362
73.352
78.436
83.6
88.832
94.123
99.467
104.849
110.24
115.615
120.942
126.195
131.362
136.42
141.336
146.092
150.673
155.067
159.277
163.272
166.995
170.402
173.447
176.1
178.359
180.212
181.653
182.68
183.277
183.438
183.173
182.467
181.303
179.66
177.5
174.83
171.699
168.128
164.136
159.727
154.866
149.539
143.73
137.404
130.546
123.145
115.184
106.688
97.696
88.254
78.44
68.302
57.866
47.197
36.37
25.479
14.665
4.049
-6.258
-16.111
-25.393
-34.003
-41.841
-48.851
-55
-60.261
-64.643
-68.157
-70.804
-72.627
-73.687
-74.062
-73.878
-73.241
-72.249
-71.02
-69.653
-68.229
-66.832
-65.514
-64.31
-63.254
-62.36
-61.634
-61.089
-60.711
-60.476
-60.348
-60.267
-60.183
-60.063
-59.865
-59.564
-59.143
-58.586
-57.892
-57.075
-56.143
-55.11
-53.991
-52.797
-51.547
-50.265
-48.977
-47.719
-46.518
-45.393
-44.36
-43.43
-42.61
-41.903
-41.307
-40.812
-40.411
-40.098
-39.865
-39.71
-39.631
-39.62
-39.67
-39.772
-39.916
-40.098
-40.312
-40.553
-40.818
-41.1
-41.399
-41.714
-42.049
-42.404
-42.778
-43.163
-43.554
-43.945
-44.333
-44.725
-45.125
-45.534
-45.955
-46.39
-46.843
-47.323
-47.831
-48.363
-48.911
-49.465
-50.023
-50.592
-51.18
-51.806
-52.461
-53.118
-53.746
-54.305
-54.786
-55.219
-55.608
-55.945
-56.224
-56.401
-56.505
-56.679
-56.875
-56.894
-56.562
-55.629
-54.113
-52.409
-50.66
-48.731
-46.841
-45.389
-44.844
-45.97
-48.764
-52.315
-56.142
-60.121
-63.812
-66.795
-68.415
-67.512
-64.02
-59.042
-53.245
-47.046
-40.926
-35.071
-29.993
-26.715
-25.35
-25.134
-25.565
-26.217
-26.815
-27.47
-28.023
-28.001
-27.34
-26.32
-25.134
-23.996
-22.967
-21.871
-20.664
-19.422
-18.168
-16.916
-15.678
-14.444
-13.249
-12.175
-11.288
-10.641
-10.272
-10.194
-10.437
-11.043
-12.061
-13.551
-15.535
-18.01
-20.944
-24.276
-27.934
-31.825
-35.852
-39.918
-43.917
-47.755
-51.356
-54.656
-57.595
-60.132
-62.221
-63.831
-64.973
-65.663
-65.956
-65.938
-65.72
-65.446
-65.262
-65.304
-65.75
-66.825
-68.654
-71.223
-74.347
-77.631
-80.686
-83.235
-84.918
-85.211
-83.767
-80.649
-76.392
-72.142
-69.078
-67.809
-68.784
-72.646
-79.683
-89.368
-100.206
-109.273
-113.214
-109.685
-96.451
-70.884
-30.72
25.777
97.367
178.935
265.091
351.043
436.718
526.289
617.692
704.461
771.489
796.632
771.609
696.857
583.152
452.924
317.326
186.176
70.326
-26.689
-94.632
-130.18
-141.605
-134.761
-119.812
-102.827
-81.456
-57.676
-33.706
-11.334
4.596
12.163
12.01
4.575
-7.899
-21.891
-35.012
-45.908
-53.691
-58.429
-60.402
-59.357
-55.856
-51.449
-47.301
-44.135
-42.333
-41.673
-42.014
-43.609
-46.343
-49.733
-53.399
-56.975
-60.249
-63.277
-66.021
-68.315
-70.083
-71.309
-71.999
-72.226
-72.027
-71.385
-70.32
-68.867
-67.066
-64.981
-62.662
-60.15
-57.494
-54.745
-51.955
-49.176
-46.447
-43.798
-41.248
-38.801
-36.458
-34.214
-32.056
-29.973
-27.951
-25.973
-24.025
-22.094
-20.166
-18.228
-16.264
-14.254
-12.183
-10.031
-7.782
-5.422
-2.937
-0.315
2.452
5.372
8.45
11.688
15.09
18.662
22.411
26.346
30.473
34.792
39.299
43.988
48.842
53.838
58.949
64.144
69.395
74.68
79.984
85.298
90.613
95.921
101.208
106.45
111.625
116.71
121.682
126.521
131.222
135.793
140.252
144.626
148.928
153.161
157.315
161.369
165.286
169.011
172.49
175.675
178.521
180.994
183.056
184.67
185.776
186.302
186.171
185.302
183.629
181.095
177.659
173.288
167.985
161.799
154.796
147.048
138.627
129.602
120.051
110.068
99.775
89.294
78.746
68.249
57.91
47.838
38.142
28.935
20.291
12.236
4.774
-2.104
-8.405
-14.133
-19.31
-23.988
-28.245
-32.153
-35.769
-39.139
-42.293
-45.269
-48.114
-50.89
-53.635
-56.357
-59.052
-61.712
-64.347
-66.981
-69.626
-72.261
-74.837
-77.299
-79.591
-81.69
-83.593
-85.313
-86.892
-88.327
-89.594
-90.678
-91.526
-92.114
-92.477
-92.541
-92.136
-91.215
-89.813
-88.201
-86.965
-86.409
-86.421
-86.809
-87.319
-87.679
-87.743
-86.785
-83.316
-76.375
-65.882
-52.584
-37.862
-22.892
-8.584
3.669
11.708
13.318
8.806
-0.039
-12.672
-27.348
-46.075
-71.316
-96.685
-117.375
-127.288
-120.207
-103.353
-83.393
-64.772
-53.665
-47.32
-43.039
-41.348
-40.493
-40.933
-43.102
-45.771
-48.673
-51.593
-54.055
-55.809
-56.749
-57.006
-57.006
-57.171
-57.663
-58.39
-59.208
-60.069
-60.965
-61.907
-62.851
-63.703
-64.421
-65.012
-65.525
-66.012
-66.496
-66.973
-67.43
-67.86
-68.266
-68.658
-69.047
-69.437
-69.829
-70.216
-70.592
-70.954
-71.299
-71.618
-71.902
-72.133
-72.298
-72.391
-72.407
-72.346
-72.204
-71.976
-71.654
-71.232
-70.702
-70.057
-69.299
-68.427
-67.443
-66.355
-65.172
-63.911
-62.594
-61.242
-59.874
-58.506
-57.147
-55.808
-54.496
-53.22
-51.994
-50.819
-49.683
-48.572
-47.461
-46.325
-45.138
-43.861
-42.446
-40.849
-39.039
-36.996
-34.716
-32.206
-29.483
-26.571
-23.499
-20.315
-17.087
-13.896
-10.838
-8.007
-5.493
-3.396
-1.823
-0.87
-0.614
-1.111
-2.386
-4.438
-7.238
-10.738
-14.881
-19.583
-24.743
-30.237
-35.917
-41.643
-47.286
-52.709
-57.786
-62.395
-66.426
-69.8
-72.474
-74.457
-75.825
-76.664
-77.065
-77.128
-76.929
-76.584
-76.267
-76.113
-76.233
-76.742
-77.675
-79.156
-81.423
-84.493
-88.205
-92.246
-96.004
-98.898
-100.539
-100.312
-97.532
-92.081
-84.19
-74.547
-64.427
-55.146
-48.04
-44.354
-45.077
-48.802
-51.875
-52.444
-48.89
-41.458
-33.629
-20.523
6.448
52.385
125.847
223.468
333.985
454.169
572.661
679.007
765.368
812.582
810.419
759.268
663.726
538.345
397.74
252.717
117.431
8.261
-64.076
-95.63
-94.337
-79.333
-64.348
-56.152
-54.22
-50.894
-44.089
-35.901
-28.85
-27.06
-31.199
-39.083
-49.158
-59.36
-67.674
-73.461
-76.395
-76.411
-74.146
-70.278
-65.316
-59.981
-55.039
-50.87
-47.664
-45.462
-44.066
-43.353
-43.265
-43.652
-44.35
-45.234
-46.2
-47.19
-48.195
-49.179
-50.095
-50.916
-51.614
-52.191
-52.658
-53.008
-53.231
-53.296
-53.164
-52.823
-52.276
-51.531
-50.612
-49.538
-48.322
-46.98
-45.518
-43.925
-42.196
-40.317
-38.271
-36.062
-33.704
-31.223
-28.668
-26.073
-23.461
-20.848
-18.238
-15.629
-13.024
-10.418
-7.804
-5.189
-2.573
0.045
2.662
5.289
7.945
10.65
13.443
16.356
19.418
22.654
26.082
29.703
33.523
37.538
41.734
46.101
50.621
55.269
60.027
64.878
69.803
74.787
79.805
84.831
89.841
94.812
99.727
104.582
109.376
114.111
118.809
123.486
128.174
132.91
137.709
142.577
147.507
152.479
157.485
162.511
167.527
172.507
177.414
182.196
186.806
191.177
195.212
198.818
201.891
204.318
206.023
206.941
207.02
206.226
204.516
201.859
198.243
193.654
188.085
181.547
174.047
165.633
156.398
146.434
135.85
124.763
113.268
101.469
89.469
77.361
65.251
53.247
41.453
29.993
18.987
8.542
-1.227
-10.252
-18.507
-25.964
-32.616
-38.465
-43.513
-47.779
-51.301
-54.105
-56.24
-57.767
-58.759
-59.324
-59.567
-59.581
-59.466
-59.292
-59.106
-58.956
-58.874
-58.882
-59
-59.232
-59.571
-60.023
-60.575
-61.208
-61.887
-62.555
-63.164
-63.676
-64.055
-64.278
-64.335
-64.212
-63.91
-63.441
-62.816
-62.05
-61.16
-60.159
-59.062
-57.892
-56.676
-55.447
-54.234
-53.056
-51.929
-50.867
-49.879
-48.97
-48.143
-47.389
-46.706
-46.089
-45.536
-45.045
-44.614
-44.238
-43.912
-43.631
-43.391
-43.188
-43.02
-42.886
-42.782
-42.709
-42.667
-42.657
-42.68
-42.736
-42.822
-42.938
-43.082
-43.253
-43.449
-43.669
-43.912
-44.176
-44.462
-44.77
-45.099
-45.451
-45.824
-46.22
-46.637
-47.075
-47.535
-48.015
-48.514
-49.032
-49.567
-50.118
-50.682
-51.259
-51.845
-52.437
-53.034
-53.632
-54.227
-54.816
-55.396
-55.962
-56.513
-57.044
-57.552
-58.033
-58.484
-58.9
-59.277
-59.612
-59.898
-60.133
-60.31
-60.425
-60.475
-60.455
-60.363
-60.193
-59.945
-59.616
-59.204
-58.708
-58.127
-57.459
-56.706
-55.867
-54.943
-53.936
-52.848
-51.684
-50.447
-49.144
-47.78
-46.363
-44.899
-43.397
-41.866
-40.315
-38.753
-37.187
-35.63
-34.091
-32.585
-31.124
-29.717
-28.376
-27.113
-25.939
-24.863
-23.896
-23.037
-22.29
-21.664
-21.171
-20.827
-20.651
-20.653
-20.84
-21.231
-21.838
-22.675
-23.75
-25.052
-26.565
-28.28
-30.189
-32.29
-34.574
-36.997
-39.506
-42.042
-44.534
-46.919
-49.137
-51.093
-52.7
-53.886
-54.596
-54.819
-54.573
-53.858
-52.696
-51.117
-49.179
-46.988
-44.654
-42.298
-40.076
-38.156
-36.726
-36.013
-36.202
-37.471
-40.051
-44.011
-49.249
-55.518
-62.293
-69.027
-75.313
-80.631
-84.343
-86.114
-85.95
-84.359
-82.654
-82.09
-83.423
-87.366
-94.492
-104.777
-117.486
-130.717
-140.909
-144.285
-137.841
-118.593
-83.856
-31.797
38.658
124.969
220.332
318.273
412.41
501.374
589.579
674.712
751.852
809.339
824.95
789.17
698.967
557.286
388.655
215.2
59.596
-50.154
-108.448
-120.234
-99.013
-71.651
-52.085
-43.664
-44.408
-44.556
-40.975
-36.14
-32.534
-33.846
-40.424
-49.808
-60.108
-69.289
-75.79
-79.283
-79.721
-77.386
-73.052
-67.484
-61.332
-55.285
-49.952
-45.638
-42.483
-40.49
-39.508
-39.406
-40.059
-41.297
-42.944
-44.867
-46.963
-49.152
-51.379
-53.567
-55.636
-57.542
-59.26
-60.773
-62.057
-63.072
-63.762
-64.102
-64.101
-63.778
-63.162
-62.281
-61.156
-59.821
-58.315
-56.666
-54.892
-52.982
-50.921
-48.708
-46.357
-43.895
-41.37
-38.807
-36.218
-33.617
-31.006
-28.39
-25.77
-23.132
-20.459
-17.741
-14.976
-12.175
-9.351
-6.5
-3.612
-0.669
2.357
5.485
8.733
12.12
15.661
19.367
23.244
27.291
31.499
35.864
40.384
45.058
49.883
54.853
59.957
65.184
70.518
75.945
81.448
87.009
92.608
98.227
103.846
109.445
115.003
120.496
125.901
131.192
136.34
141.318
146.099
150.654
154.962
158.996
162.731
166.137
169.187
171.854
174.121
175.972
177.391
178.372
178.911
179.016
178.707
177.998
176.893
175.393
173.489
171.177
168.456
165.325
161.782
157.827
153.455
148.672
143.49
137.91
131.926
125.515
118.634
111.266
103.419
95.117
86.402
77.327
67.944
58.33
48.579
38.773
28.995
19.309
9.762
0.422
-8.631
-17.302
-25.473
-33.055
-39.995
-46.252
-51.802
-56.648
-60.8
-64.305
-67.246
-69.686
-71.678
-73.261
-74.456
-75.3
-75.848
-76.161
-76.316
-76.376
-76.38
-76.367
-76.372
-76.408
-76.477
-76.557
-76.594
-76.556
-76.427
-76.201
-75.887
-75.49
-75.004
-74.429
-73.763
-73.007
-72.167
-71.246
-70.244
-69.174
-68.053
-66.912
-65.792
-64.724
-63.727
-62.818
-62.003
-61.288
-60.678
-60.173
-59.766
-59.451
-59.225
-59.084
-59.026
-59.046
-59.136
-59.283
-59.474
-59.695
-59.934
-60.183
-60.43
-60.666
-60.886
-61.083
-61.257
-61.406
-61.526
-61.612
-61.661
-61.669
-61.631
-61.544
-61.404
-61.205
-60.948
-60.633
-60.261
-59.837
-59.366
-58.853
-58.305
-57.732
-57.141
-56.54
-55.936
-55.335
-54.745
-54.176
-53.644
-53.159
-52.728
-52.356
-52.043
-51.788
-51.585
-51.422
-51.275
-51.123
-50.945
-50.728
-50.466
-50.157
-49.8
-49.392
-48.931
-48.426
-47.897
-47.369
-46.869
-46.421
-46.06
-45.835
-45.818
-46.071
-46.649
-47.596
-48.939
-50.699
-52.882
-55.476
-58.455
-61.761
-65.317
-69.038
-72.834
-76.616
-80.286
-83.719
-86.773
-89.311
-91.208
-92.348
-92.625
-91.936
-90.219
-87.453
-83.654
-78.889
-73.244
-66.823
-59.748
-52.146
-44.157
-35.945
-27.687
-19.557
-11.739
-4.422
2.193
7.906
12.568
16.082
18.397
19.506
19.42
18.165
15.8
12.4
8.046
2.832
-3.142
-9.768
-16.9
-24.358
-31.941
-39.445
-46.706
-53.607
-60.048
-65.956
-71.264
-75.917
-79.893
-83.186
-85.779
-87.651
-88.785
-89.206
-89.004
-88.318
-87.303
-86.089
-84.765
-83.429
-82.198
-81.154
-80.367
-79.896
-79.751
-80.041
-80.982
-82.615
-84.874
-87.566
-90.212
-92.322
-93.528
-93.167
-90.517
-85.493
-78.189
-69.033
-59.402
-50.672
-44.095
-41.521
-43.05
-46.026
-48.199
-48.35
-48.859
-54.966
-66.91
-76.371
-65.849
-19.845
64.949
179.645
302.281
417.527
524.959
623.756
716.967
796.822
836.146
819.459
737.741
591.276
408.088
214.361
36.883
-92.854
-168.189
-193.314
-181.283
-158.76
-138.533
-122.834
-109.82
-90.764
-64.586
-36.381
-10.788
6.813
14.244
12.26
2.423
-12.448
-29.089
-44.865
-58.164
-68.356
-75.059
-77.742
-76.433
-71.827
-65.332
-58.665
-52.799
-48.028
-44.528
-42.513
-42.112
-43.292
-45.648
-48.475
-51.347
-54.088
-56.601
-58.857
-60.749
-62.147
-63.034
-63.488
-63.567
-63.303
-62.695
-61.706
-60.345
-58.65
-56.663
-54.441
-52.026
-49.457
-46.782
-44.048
-41.306
-38.596
-35.944
-33.363
-30.859
-28.429
-26.071
-23.78
-21.543
-19.344
-17.169
-14.997
-12.816
-10.61
-8.366
-6.07
-3.708
-1.27
1.257
3.881
6.612
9.459
12.43
15.534
18.776
22.164
25.702
29.396
33.247
37.254
41.419
45.741
50.223
54.865
59.664
64.611
69.694
74.9
80.204
85.583
90.998
96.412
101.796
107.123
112.377
117.548
122.623
127.589
132.439
137.152
141.71
146.102
150.304
154.304
158.101
161.702
165.134
168.431
171.596
174.626
177.51
180.213
182.698
184.928
186.841
188.402
189.592
190.385
190.776
190.755
190.286
189.329
187.824
185.698
182.915
179.447
175.267
170.381
164.799
158.549
151.696
144.278
136.308
127.806
118.78
109.25
99.268
88.897
78.215
67.326
56.316
45.28
34.33
23.561
13.066
2.922
-6.83
-16.133
-24.899
-33.052
-40.519
-47.242
-53.195
-58.361
-62.734
-66.336
-69.194
-71.359
-72.906
-73.917
-74.481
-74.676
-74.559
-74.193
-73.662
-73.038
-72.385
-71.759
-71.188
-70.703
-70.332
-70.088
-69.974
-69.977
-70.068
-70.207
-70.348
-70.453
-70.496
-70.452
-70.295
-70.005
-69.568
-68.982
-68.255
-67.396
-66.408
-65.301
-64.085
-62.781
-61.411
-60.005
-58.591
-57.196
-55.837
-54.534
-53.297
-52.139
-51.065
-50.077
-49.17
-48.343
-47.594
-46.924
-46.331
-45.814
-45.369
-44.992
-44.682
-44.434
-44.247
-44.121
-44.055
-44.049
-44.102
-44.217
-44.394
-44.633
-44.933
-45.293
-45.71
-46.182
-46.705
-47.276
-47.892
-48.547
-49.238
-49.96
-50.71
-51.482
-52.274
-53.079
-53.894
-54.714
-55.536
-56.355
-57.168
-57.97
-58.758
-59.526
-60.271
-60.987
-61.669
-62.314
-62.914
-63.466
-63.965
-64.408
-64.79
-65.108
-65.359
-65.54
-65.649
-65.683
-65.642
-65.523
-65.327
-65.053
-64.701
-64.273
-63.771
-63.195
-62.549
-61.834
-61.054
-60.211
-59.308
-58.347
-57.334
-56.272
-55.165
-54.018
-52.838
-51.63
-50.402
-49.162
-47.919
-46.681
-45.459
-44.261
-43.098
-41.979
-40.911
-39.903
-38.962
-38.096
-37.312
-36.618
-36.022
-35.53
-35.152
-34.893
-34.757
-34.748
-34.864
-35.103
-35.466
-35.95
-36.563
-37.311
-38.195
-39.221
-40.388
-41.695
-43.133
-44.68
-46.302
-47.966
-49.637
-51.285
-52.89
-54.431
-55.879
-57.207
-58.372
-59.335
-60.063
-60.526
-60.695
-60.554
-60.11
-59.419
-58.575
-57.676
-56.804
-56.006
-55.327
-54.843
-54.64
-54.82
-55.499
-56.734
-58.616
-61.332
-64.908
-69.228
-74.011
-78.609
-82.38
-84.92
-85.675
-84.058
-80.044
-73.878
-66.305
-59.013
-53.316
-49.943
-50.005
-54.254
-62.189
-72.732
-83.602
-90.713
-90.768
-81.346
-58.836
-20.149
35.518
108.141
194.216
285.63
377.396
466.117
548.115
623.892
688.427
730.98
742.122
710.139
630.986
512.2
366.524
215.438
81.195
-22.196
-87.45
-119.088
-130.738
-132.914
-131.948
-128.579
-117.298
-96.667
-70.072
-41.822
-18.007
-2.079
5.886
5.876
-1.44
-14.148
-30.148
-47.304
-63.225
-76.635
-86.996
-93.368
-95.312
-93.223
-87.864
-80.46
-72.518
-64.792
-57.608
-51.479
-46.577
-42.889
-40.355
-38.524
-36.789
-34.876
-32.695
-30.215
-27.584
-24.899
-22.166
-19.509
-17.063
-14.911
-13.138
-11.768
-10.775
-10.175
-10.005
-10.318
-11.198
-12.678
-14.715
-17.235
-20.099
-23.167
-26.331
-29.469
-32.455
-35.183
-37.55
-39.484
-40.958
-41.929
-42.342
-42.122
-41.168
-39.423
-36.892
-33.607
-29.645
-25.097
-20.042
-14.582
-8.842
-2.916
3.117
9.206
15.339
21.488
27.61
33.655
39.559
45.273
50.777
56.06
61.122
65.981
70.652
75.167
79.576
83.903
88.162
92.361
96.494
100.556
104.557
108.5
112.392
116.25
120.085
123.908
127.723
131.526
135.316
139.098
142.885
146.689
150.511
154.333
158.127
161.866
165.514
169.029
172.358
175.423
178.15
180.482
182.373
183.783
184.66
184.931
184.506
183.317
181.323
178.511
174.886
170.459
165.256
159.33
152.759
145.656
138.116
130.213
122.006
113.554
104.926
96.217
87.53
78.947
70.533
62.339
54.404
46.771
39.462
32.477
25.786
19.342
13.116
7.099
1.29
-4.307
-9.695
-14.889
-19.9
-24.728
-29.37
-33.824
-38.09
-42.172
-46.066
-49.754
-53.209
-56.4
-59.307
-61.922
-64.243
-66.271
-68.009
-69.46
-70.637
-71.557
-72.236
-72.688
-72.928
-72.965
-72.817
-72.501
-72.038
-71.45
-70.754
-69.968
-69.107
-68.187
-67.223
-66.225
-65.205
-64.169
-63.125
-62.083
-61.051
-60.036
-59.046
-58.088
-57.167
-56.289
-55.459
-54.68
-53.954
-53.283
-52.668
-52.107
-51.601
-51.148
-50.745
-50.39
-50.08
-49.811
-49.579
-49.381
-49.213
-49.069
-48.948
-48.845
-48.757
-48.683
-48.619
-48.564
-48.518
-48.48
-48.45
-48.428
-48.414
-48.409
-48.415
-48.431
-48.459
-48.499
-48.553
-48.621
-48.704
-48.803
-48.918
-49.049
-49.198
-49.364
-49.549
-49.752
-49.974
-50.217
-50.481
-50.766
-51.072
-51.399
-51.748
-52.116
-52.502
-52.903
-53.316
-53.737
-54.162
-54.587
-55.006
-55.413
-55.802
-56.168
-56.502
-56.8
-57.054
-57.257
-57.404
-57.489
-57.508
-57.457
-57.332
-57.13
-56.849
-56.487
-56.044
-55.517
-54.907
-54.213
-53.435
-52.573
-51.63
-50.607
-49.506
-48.332
-47.091
-45.789
-44.435
-43.038
-41.609
-40.16
-38.701
-37.247
-35.809
-34.398
-33.026
-31.705
-30.448
-29.267
-28.177
-27.189
-26.316
-25.566
-24.95
-24.473
-24.138
-23.945
-23.895
-23.99
-24.24
-24.655
-25.244
-26.016
-26.976
-28.126
-29.459
-30.958
-32.592
-34.33
-36.137
-37.983
-39.842
-41.688
-43.493
-45.217
-46.816
-48.241
-49.449
-50.397
-51.043
-51.369
-51.4
-51.186
-50.82
-50.387
-49.947
-49.571
-49.356
-49.389
-49.751
-50.542
-51.819
-53.691
-56.398
-60.029
-64.496
-69.609
-74.924
-79.895
-84.101
-86.962
-87.669
-85.937
-82.069
-76.564
-70.514
-65.416
-62.541
-63.161
-68.868
-78.725
-88.814
-97.571
-103.753
-107.198
-112.041
-113.532
-99.359
-61.133
9.448
110.209
224.933
343.882
462.5
574.741
678.799
763.748
808.964
803.662
746.175
643.657
512.576
367.757
220.245
83.429
-27.158
-99.639
-127.511
-115.177
-77.204
-30.654
8.242
30.686
33.416
19.623
-0.813
-21.286
-36.26
-44.286
-50.692
-57.916
-66.552
-76.193
-83.512
-87.057
-87.405
-85.191
-81.596
-77.602
-73.635
-70.008
-66.96
-64.515
-62.514
-60.848
-59.459
-58.237
-57.103
-55.99
-54.8
-53.485
-52.052
-50.486
-48.767
-46.893
-44.876
-42.743
-40.544
-38.337
-36.169
-34.093
-32.165
-30.434
-28.949
-27.751
-26.867
-26.323
-26.135
-26.291
-26.765
-27.506
-28.429
-29.46
-30.524
-31.532
-32.414
-33.108
-33.548
-33.692
-33.507
-32.962
-32.043
-30.743
-29.056
-26.996
-24.589
-21.87
-18.902
-15.731
-12.396
-8.936
-5.378
-1.738
1.964
5.719
9.53
13.399
17.333
21.347
25.445
29.635
33.928
38.336
42.876
47.556
52.366
57.285
62.284
67.333
72.407
77.493
82.565
87.603
92.586
97.49
102.309
107.052
111.721
116.31
120.818
125.24
129.591
133.914
138.247
142.619
147.042
151.502
155.982
160.47
164.936
169.339
173.604
177.621
181.291
184.532
187.269
189.44
190.966
191.738
191.659
190.654
188.671
185.684
181.675
176.624
170.531
163.436
155.435
146.669
137.286
127.419
117.184
106.685
96.033
85.361
74.793
64.427
54.348
44.633
35.358
26.61
18.47
10.974
4.103
-2.202
-8.02
-13.426
-18.477
-23.212
-27.677
-31.918
-35.968
-39.849
-43.566
-47.134
-50.573
-53.923
-57.231
-60.519
-63.776
-66.966
-70.04
-72.938
-75.623
-78.065
-80.233
-82.11
-83.691
-84.979
-85.993
-86.749
-87.255
-87.509
-87.503
-87.231
-86.707
-85.952
-84.993
-83.87
-82.613
-81.25
-79.813
-78.326
-76.807
-75.27
-73.719
-72.158
-70.594
-69.04
-67.508
-66.012
-64.563
-63.17
-61.841
-60.578
-59.387
-58.27
-57.225
-56.252
-55.352
-54.526
-53.774
-53.099
-52.502
-51.982
-51.538
-51.168
-50.869
-50.638
-50.47
-50.362
-50.308
-50.305
-50.349
-50.437
-50.568
-50.737
-50.944
-51.186
-51.462
-51.769
-52.106
-52.471
-52.863
-53.278
-53.715
-54.173
-54.65
-55.144
-55.655
-56.182
-56.723
-57.278
-57.845
-58.425
-59.017
-59.618
-60.229
-60.848
-61.475
-62.107
-62.744
-63.383
-64.023
-64.661
-65.294
-65.917
-66.527
-67.118
-67.685
-68.221
-68.721
-69.177
-69.583
-69.932
-70.218
-70.434
-70.574
-70.631
-70.6
-70.475
-70.251
-69.925
-69.492
-68.95
-68.296
-67.527
-66.644
-65.647
-64.535
-63.31
-61.975
-60.533
-58.991
-57.354
-55.632
-53.833
-51.968
-50.049
-48.09
-46.104
-44.105
-42.106
-40.121
-38.167
-36.259
-34.414
-32.65
-30.984
-29.432
-28.009
-26.729
-25.605
-24.645
-23.857
-23.246
-22.821
-22.596
-22.583
-22.792
-23.234
-23.911
-24.824
-25.966
-27.325
-28.878
-30.6
-32.466
-34.448
-36.528
-38.682
-40.884
-43.103
-45.286
-47.38
-49.337
-51.11
-52.658
-53.962
-55.018
-55.84
-56.476
-56.969
-57.348
-57.663
-57.959
-58.302
-58.776
-59.46
-60.44
-61.848
-63.868
-66.598
-70.002
-73.873
-77.804
-81.393
-84.328
-86.243
-86.628
-85.179
-82.016
-77.7
-73.353
-70.089
-68.485
-69.001
-72.264
-78.473
-87.008
-96.335
-103.713
-106.066
-101.114
-86.709
-60.45
-20.483
33.981
102.234
181.57
268.025
357.555
445.389
525.805
592.967
641.481
667.365
668.571
644.815
597.295
529.11
445.134
351.504
255.128
162.412
79.074
9.801
-42.679
-77.637
-95.975
-100.173
-93.82
-80.566
-64.433
-49.315
-37.577
-30.367
-27.93
-29.498
-33.871
-39.89
-45.97
-50.476
-52.665
-52.361
-49.83
-45.805
-40.951
-35.807
-31.054
-27.345
-25.009
-24.17
-24.746
-26.479
-29.164
-32.622
-36.637
-40.992
-45.476
-49.903
-54.108
-57.954
-61.335
-64.165
-66.389
-67.98
-68.932
-69.253
-68.981
-68.17
-66.874
-65.158
-63.082
-60.692
-58.056
-55.24
-52.313
-49.342
-46.364
-43.387
-40.417
-37.449
-34.48
-31.518
-28.555
-25.575
-22.574
-19.545
-16.501
-13.47
-10.469
-7.508
-4.602
-1.76
0.981
3.56
5.929
8.053
9.915
11.531
12.913
14.071
15.041
15.867
16.623
17.408
18.295
19.336
20.587
22.093
23.925
26.182
28.93
32.215
36.06
40.452
45.382
50.838
56.777
63.127
69.789
76.641
83.597
90.611
97.64
104.649
111.582
118.364
124.952
131.322
137.459
143.356
148.996
154.354
159.426
164.24
168.843
173.278
177.549
181.606
185.376
188.786
191.776
194.29
196.245
197.546
198.098
197.831
196.706
194.694
191.77
187.883
182.97
177.002
169.992
162.011
153.176
143.599
133.386
122.664
111.584
100.312
89.029
77.874
66.945
56.339
46.142
36.463
27.433
19.138
11.627
4.908
-1.055
-6.291
-10.821
-14.702
-18.013
-20.854
-23.345
-25.57
-27.57
-29.394
-31.088
-32.712
-34.353
-36.063
-37.866
-39.777
-41.785
-43.886
-46.089
-48.37
-50.686
-52.987
-55.205
-57.299
-59.261
-61.074
-62.727
-64.201
-65.469
-66.519
-67.359
-67.995
-68.434
-68.683
-68.742
-68.628
-68.37
-68
-67.552
-67.052
-66.512
-65.944
-65.362
-64.774
-64.192
-63.62
-63.054
-62.494
-61.944
-61.406
-60.885
-60.38
-59.885
-59.397
-58.911
-58.423
-57.931
-57.434
-56.93
-56.418
-55.9
-55.378
-54.855
-54.335
-53.818
-53.306
-52.8
-52.303
-51.816
-51.342
-50.882
-50.439
-50.016
-49.615
-49.239
-48.892
-48.576
-48.293
-48.045
-47.836
-47.666
-47.538
-47.453
-47.413
-47.418
-47.47
-47.57
-47.717
-47.913
-48.156
-48.446
-48.781
-49.16
-49.581
-50.04
-50.533
-51.058
-51.61
-52.183
-52.773
-53.373
-53.977
-54.578
-55.17
-55.745
-56.297
-56.818
-57.301
-57.739
-58.125
-58.454
-58.717
-58.911
-59.029
-59.066
-59.017
-58.88
-58.65
-58.325
-57.902
-57.38
-56.759
-56.038
-55.216
-54.294
-53.274
-52.159
-50.953
-49.661
-48.288
-46.841
-45.331
-43.767
-42.164
-40.532
-38.885
-37.235
-35.596
-33.985
-32.421
-30.918
-29.491
-28.151
-26.915
-25.798
-24.817
-23.982
-23.301
-22.778
-22.418
-22.23
-22.222
-22.401
-22.764
-23.306
-24.02
-24.911
-25.986
-27.249
-28.698
-30.323
-32.11
-34.051
-36.138
-38.359
-40.69
-43.098
-45.539
-47.972
-50.372
-52.728
-55.033
-57.271
-59.398
-61.34
-63.022
-64.399
-65.472
-66.276
-66.815
-67.023
-66.91
-66.666
-66.663
-67.309
-68.784
-70.929
-73.509
-76.591
-80.29
-84.361
-88.004
-90.053
-89.649
-86.832
-82.265
-76.209
-68.571
-59.666
-50.707
-43.771
-41.027
-43.44
-50.413
-61.355
-76.205
-94.43
-114.412
-133.185
-146.617
-151.009
-144.696
-126.558
-94.549
-46.915
16.738
95.491
184.673
276.65
367.883
456.32
540.208
621.081
692.417
741.548
759.286
736.885
674.883
584.983
476.852
358.525
239.176
125.69
27.247
-43.426
-83.399
-99.332
-99.176
-94.667
-91.444
-86.105
-78.241
-68.325
-57.655
-50.733
-49.242
-52.125
-58.151
-65.496
-72.254
-77.125
-79.418
-78.784
-75.491
-70.324
-64.017
-57.229
-50.728
-45.192
-40.987
-38.299
-37.085
-37.104
-38.176
-40.134
-42.77
-45.876
-49.269
-52.788
-56.298
-59.687
-62.824
-65.57
-67.827
-69.534
-70.665
-71.218
-71.212
-70.673
-69.642
-68.178
-66.336
-64.167
-61.73
-59.074
-56.261
-53.355
-50.417
-47.502
-44.652
-41.893
-39.237
-36.688
-34.24
-31.882
-29.595
-27.361
-25.161
-22.982
-20.811
-18.637
-16.447
-14.227
-11.965
-9.648
-7.262
-4.795
-2.236
0.424
3.194
6.08
9.09
12.229
15.502
18.911
22.458
26.147
29.982
33.972
38.117
42.414
46.858
51.441
56.149
60.97
65.878
70.841
75.825
80.798
85.736
90.626
95.454
100.2
104.849
109.382
113.793
118.09
122.275
126.344
130.302
134.149
137.903
141.603
145.274
148.933
152.589
156.225
159.822
163.364
166.817
170.144
173.289
176.163
178.689
180.799
182.417
183.483
183.924
183.645
182.582
180.679
177.892
174.209
169.627
164.145
157.792
150.607
142.648
134.023
124.845
115.232
105.305
95.163
84.907
74.654
64.498
54.524
44.815
35.43
26.418
17.834
9.716
2.096
-4.997
-11.586
-17.715
-23.442
-28.823
-33.891
-38.672
-43.196
-47.487
-51.563
-55.439
-59.118
-62.596
-65.887
-69.003
-71.966
-74.801
-77.501
-80.039
-82.374
-84.472
-86.316
-87.9
-89.218
-90.264
-91.039
-91.552
-91.826
-91.882
-91.733
-91.387
-90.84
-90.092
-89.154
-88.051
-86.813
-85.47
-84.042
-82.55
-81.014
-79.455
-77.892
-76.333
-74.783
-73.243
-71.72
-70.225
-68.77
-67.365
-66.018
-64.734
-63.514
-62.363
-61.281
-60.27
-59.328
-58.452
-57.643
-56.899
-56.224
-55.618
-55.08
-54.611
-54.209
-53.871
-53.598
-53.385
-53.23
-53.129
-53.079
-53.078
-53.123
-53.213
-53.345
-53.518
-53.73
-53.978
-54.263
-54.582
-54.934
-55.317
-55.73
-56.173
-56.643
-57.139
-57.66
-58.204
-58.77
-59.356
-59.96
-60.58
-61.213
-61.856
-62.507
-63.163
-63.821
-64.477
-65.127
-65.769
-66.398
-67.01
-67.602
-68.168
-68.704
-69.205
-69.667
-70.082
-70.446
-70.753
-70.997
-71.172
-71.271
-71.289
-71.22
-71.06
-70.803
-70.445
-69.984
-69.415
-68.738
-67.95
-67.052
-66.043
-64.924
-63.698
-62.365
-60.931
-59.398
-57.773
-56.06
-54.268
-52.406
-50.484
-48.513
-46.505
-44.474
-42.434
-40.398
-38.382
-36.399
-34.462
-32.586
-30.784
-29.073
-27.47
-25.988
-24.645
-23.454
-22.427
-21.576
-20.912
-20.437
-20.156
-20.072
-20.19
-20.523
-21.082
-21.875
-22.907
-24.179
-25.685
-27.412
-29.34
-31.433
-33.655
-35.968
-38.335
-40.727
-43.111
-45.451
-47.707
-49.821
-51.737
-53.409
-54.794
-55.854
-56.581
-56.99
-57.123
-57.059
-56.874
-56.629
-56.402
-56.282
-56.367
-56.766
-57.579
-58.892
-60.83
-63.564
-67.164
-71.559
-76.499
-81.521
-86.161
-90.057
-92.779
-93.757
-92.657
-89.537
-84.903
-79.824
-75.357
-72.085
-70.522
-71.378
-74.873
-80.377
-86.374
-90.253
-89.047
-80.358
-61.921
-31.12
14.037
74.017
147.865
232.943
324.963
419.209
510.623
592.553
657.98
701.818
719.858
710.583
677.089
621.298
544.797
450.045
337.149
213.616
94.326
-6
-71.978
-101.108
-104.113
-91.943
-77.807
-67.296
-56.987
-47.177
-37.878
-29.871
-27.302
-30.823
-38.688
-49.621
-61.154
-70.768
-77.615
-81.262
-81.513
-79.071
-74.742
-69.114
-63.028
-57.347
-52.446
-48.519
-45.633
-43.564
-42.152
-41.312
-40.875
-40.708
-40.75
-40.935
-41.22
-41.594
-42
-42.377
-42.691
-42.914
-43.054
-43.127
-43.149
-43.141
-43.125
-43.106
-43.082
-43.023
-42.88
-42.629
-42.259
-41.766
-41.155
-40.417
-39.54
-38.519
-37.346
-36.018
-34.518
-32.813
-30.889
-28.769
-26.51
-24.218
-21.962
-19.759
-17.606
-15.47
-13.353
-11.325
-9.367
-7.371
-5.306
-3.167
-1.163
0.259
0.926
0.985
0.671
0.344
0.344
0.872
2.665
6.98
14.594
25.812
40.201
56.515
73.633
90.683
106.198
118.243
125.186
125.665
119.764
109.147
95.564
80.759
66.653
55.094
48.011
47.432
53.89
66.29
83.075
102.233
122.069
141.509
159.255
173.8
184.511
191.592
195.77
198.379
200.291
201.731
203.014
204.482
206.231
208.269
210.337
211.811
212.347
211.887
210.366
207.826
204.297
199.717
194.122
187.645
180.353
172.308
163.592
154.236
144.334
134.011
123.347
112.432
101.362
90.206
79.061
68.039
57.212
46.653
36.449
26.659
17.367
8.658
0.565
-6.886
-13.687
-19.859
-25.406
-30.335
-34.684
-38.495
-41.826
-44.764
-47.363
-49.659
-51.704
-53.532
-55.198
-56.772
-58.294
-59.786
-61.269
-62.749
-64.233
-65.739
-67.251
-68.74
-70.169
-71.48
-72.638
-73.631
-74.441
-75.058
-75.47
-75.654
-75.603
-75.33
-74.839
-74.141
-73.246
-72.155
-70.89
-69.484
-67.971
-66.393
-64.782
-63.159
-61.545
-59.958
-58.415
-56.93
-55.513
-54.163
-52.885
-51.683
-50.562
-49.531
-48.59
-47.736
-46.967
-46.277
-45.663
-45.124
-44.656
-44.254
-43.918
-43.646
-43.437
-43.292
-43.211
-43.192
-43.233
-43.33
-43.482
-43.685
-43.935
-44.23
-44.566
-44.939
-45.349
-45.791
-46.264
-46.767
-47.295
-47.849
-48.424
-49.021
-49.638
-50.271
-50.921
-51.586
-52.264
-52.955
-53.657
-54.368
-55.088
-55.816
-56.549
-57.286
-58.026
-58.766
-59.503
-60.235
-60.958
-61.67
-62.366
-63.042
-63.695
-64.319
-64.911
-65.465
-65.977
-66.44
-66.851
-67.204
-67.493
-67.714
-67.86
-67.927
-67.911
-67.806
-67.609
-67.315
-66.923
-66.429
-65.832
-65.13
-64.321
-63.407
-62.387
-61.262
-60.035
-58.707
-57.283
-55.768
-54.165
-52.483
-50.729
-48.913
-47.047
-45.143
-43.214
-41.274
-39.338
-37.422
-35.541
-33.709
-31.94
-30.246
-28.642
-27.141
-25.761
-24.514
-23.412
-22.467
-21.689
-21.088
-20.672
-20.446
-20.41
-20.564
-20.91
-21.458
-22.225
-23.221
-24.45
-25.915
-27.609
-29.527
-31.66
-33.986
-36.467
-39.064
-41.733
-44.437
-47.15
-49.833
-52.441
-54.91
-57.164
-59.141
-60.796
-62.094
-63.016
-63.552
-63.703
-63.508
-63.032
-62.362
-61.615
-60.896
-60.308
-59.976
-59.996
-60.517
-61.757
-63.801
-66.635
-70.108
-73.855
-77.567
-81.052
-84.009
-86.024
-86.807
-86.15
-84.378
-82.408
-80.92
-80.443
-81.168
-83.028
-86.536
-91.994
-98.305
-103.739
-104.93
-98.407
-83.996
-60.611
-28.976
9.982
60.609
122.163
195.284
281.55
374.412
474.86
581.268
682.536
771.788
832.263
843.733
801.535
703.934
557.654
386.208
209.286
48.121
-72.536
-144.309
-166.627
-147.692
-106.833
-60.53
-22.634
-0.512
4.09
-5.713
-20.655
-34.39
-41.601
-41.512
-40.268
-41.147
-45.489
-52.452
-58.035
-60.525
-60.233
-57.786
-54.479
-51.079
-47.822
-45.22
-43.647
-43.173
-43.7
-44.97
-46.77
-48.95
-51.352
-53.782
-56.053
-58.054
-59.739
-61.097
-62.086
-62.626
-62.659
-62.156
-61.138
-59.648
-57.732
-55.456
-52.895
-50.153
-47.351
-44.595
-41.95
-39.454
-37.114
-34.915
-32.864
-30.978
-29.259
-27.711
-26.319
-25.062
-23.924
-22.882
-21.896
-20.914
-19.863
-18.678
-17.33
-15.807
-14.122
-12.307
-10.374
-8.331
-6.188
-3.944
-1.599
0.847
3.413
6.119
8.975
11.988
15.146
18.43
21.84
25.379
29.054
32.879
36.852
40.958
45.194
49.554
54.027
58.609
63.278
68.002
72.758
77.525
82.29
87.06
91.833
96.612
101.412
106.262
111.198
116.271
121.51
126.916
132.493
138.228
144.113
150.144
156.304
162.555
168.859
175.166
181.409
187.52
193.392
198.891
203.882
208.217
211.775
214.475
216.24
216.996
216.685
215.251
212.651
208.877
203.917
197.762
190.439
181.994
172.515
162.144
151.015
139.272
127.059
114.492
101.695
88.806
75.955
63.271
50.898
38.947
27.534
16.794
6.811
-2.351
-10.659
-18.132
-24.783
-30.629
-35.709
-40.055
-43.708
-46.736
-49.209
-51.2
-52.819
-54.156
-55.3
-56.357
-57.398
-58.476
-59.636
-60.89
-62.244
-63.711
-65.284
-66.953
-68.709
-70.524
-72.367
-74.201
-75.965
-77.608
-79.091
-80.369
-81.416
-82.218
-82.762
-83.049
-83.095
-82.909
-82.506
-81.908
-81.128
-80.189
-79.118
-77.943
-76.701
-75.424
-74.136
-72.857
-71.605
-70.39
-69.224
-68.111
-67.049
-66.037
-65.075
-64.161
-63.299
-62.488
-61.725
-61.007
-60.332
-59.697
-59.101
-58.545
-58.027
-57.548
-57.107
-56.706
-56.344
-56.024
-55.744
-55.501
-55.292
-55.116
-54.97
-54.852
-54.76
-54.69
-54.641
-54.612
-54.601
-54.61
-54.636
-54.68
-54.743
-54.826
-54.932
-55.063
-55.221
-55.407
-55.623
-55.871
-56.151
-56.462
-56.803
-57.171
-57.565
-57.984
-58.427
-58.892
-59.38
-59.89
-60.424
-60.983
-61.565
-62.169
-62.789
-63.424
-64.068
-64.717
-65.365
-66.004
-66.628
-67.234
-67.818
-68.375
-68.898
-69.374
-69.789
-70.129
-70.391
-70.566
-70.649
-70.64
-70.543
-70.371
-70.15
-69.895
-69.608
-69.29
-68.927
-68.508
-68.027
-67.471
-66.83
-66.092
-65.242
-64.272
-63.178
-61.943
-60.54
-58.924
-57.033
-54.831
-52.31
-49.478
-46.363
-43.005
-39.448
-35.754
-32.002
-28.258
-24.582
-21.021
-17.609
-14.403
-11.478
-8.927
-6.86
-5.352
-4.438
-4.139
-4.452
-5.351
-6.803
-8.745
-11.092
-13.786
-16.784
-20.058
-23.595
-27.353
-31.255
-35.202
-39.082
-42.814
-46.371
-49.742
-52.906
-55.823
-58.43
-60.694
-62.628
-64.258
-65.549
-66.376
-66.695
-66.641
-66.563
-66.86
-67.714
-68.97
-70.391
-71.995
-73.758
-75.399
-76.236
-75.446
-72.844
-69.061
-65.05
-61.261
-57.776
-54.833
-53.211
-53.939
-57.133
-61.863
-66.832
-71.488
-76.331
-81.939
-88.075
-94.019
-99.741
-105.839
-112.831
-120.123
-125.249
-125.172
-117.897
-101.699
-74.147
-32.754
24.446
96.379
177.951
263.708
350.361
438.955
532.212
627.346
713.89
773.251
787.045
748.1
662.778
550.387
431.811
320.315
220.928
131.03
49.35
-21.157
-76.643
-113.177
-130.314
-131.359
-120.703
-102.92
-82.743
-64.324
-50.316
-42.094
-39.807
-42.487
-48.77
-57.281
-66.133
-73.344
-77.879
-79.349
-77.943
-74.389
-69.387
-63.54
-57.606
-52.359
-48.214
-45.352
-43.76
-43.208
-43.514
-44.533
-46.065
-47.923
-49.97
-52.1
-54.221
-56.282
-58.207
-59.927
-61.435
-62.711
-63.73
-64.462
-64.856
-64.902
-64.628
-64.086
-63.305
-62.286
-61.02
-59.497
-57.761
-55.887
-53.915
-51.853
-49.67
-47.314
-44.825
-42.367
-39.945
-37.384
-34.511
-31.079
-27.105
-22.992
-18.903
-14.696
-10.561
-6.888
-4.138
-3.08
-3.758
-5.254
-7.054
-9.02
-10.689
-11.605
-11.111
-8.024
-2.218
5.212
13.591
22.515
31.491
40.325
48.513
55.023
59.705
63.319
66.365
69.251
72.255
75.264
78.429
82.234
86.761
91.732
96.951
102.195
107.395
112.725
118.241
123.873
129.619
135.495
141.512
147.701
154.033
160.407
166.726
172.891
178.806
184.39
189.564
194.243
198.335
201.743
204.377
206.162
207.035
206.944
205.851
203.742
200.629
196.549
191.57
185.766
179.224
172.045
164.308
156.088
147.464
138.505
129.285
119.888
110.401
100.919
91.545
82.352
73.395
64.706
56.293
48.163
40.315
32.727
25.401
18.352
11.599
5.192
-0.83
-6.465
-11.719
-16.621
-21.232
-25.584
-29.699
-33.598
-37.282
-40.751
-44.008
-47.034
-49.823
-52.389
-54.756
-56.978
-59.102
-61.145
-63.113
-64.994
-66.75
-68.362
-69.815
-71.089
-72.178
-73.082
-73.802
-74.355
-74.759
-75.021
-75.14
-75.103
-74.896
-74.523
-73.992
-73.321
-72.537
-71.662
-70.717
-69.728
-68.713
-67.684
-66.654
-65.624
-64.592
-63.561
-62.534
-61.518
-60.52
-59.546
-58.596
-57.673
-56.777
-55.906
-55.062
-54.241
-53.442
-52.665
-51.912
-51.185
-50.489
-49.827
-49.201
-48.615
-48.068
-47.563
-47.099
-46.677
-46.295
-45.953
-45.651
-45.387
-45.162
-44.976
-44.829
-44.721
-44.653
-44.625
-44.637
-44.69
-44.785
-44.922
-45.101
-45.323
-45.587
-45.894
-46.244
-46.635
-47.067
-47.539
-48.048
-48.593
-49.171
-49.779
-50.416
-51.077
-51.76
-52.461
-53.178
-53.908
-54.648
-55.394
-56.144
-56.894
-57.64
-58.378
-59.103
-59.812
-60.499
-61.158
-61.785
-62.373
-62.918
-63.412
-63.851
-64.228
-64.537
-64.772
-64.928
-64.999
-64.979
-64.865
-64.653
-64.338
-63.918
-63.391
-62.754
-62.007
-61.148
-60.178
-59.098
-57.907
-56.608
-55.204
-53.698
-52.094
-50.397
-48.612
-46.748
-44.813
-42.818
-40.775
-38.694
-36.591
-34.479
-32.372
-30.286
-28.233
-26.226
-24.279
-22.408
-20.628
-18.957
-17.41
-16.001
-14.742
-13.646
-12.723
-11.982
-11.426
-11.058
-10.88
-10.904
-11.146
-11.623
-12.346
-13.318
-14.538
-16
-17.691
-19.597
-21.683
-23.916
-26.262
-28.69
-31.181
-33.712
-36.247
-38.733
-41.099
-43.272
-45.199
-46.839
-48.164
-49.171
-49.867
-50.286
-50.494
-50.547
-50.517
-50.486
-50.531
-50.745
-51.234
-52.097
-53.502
-55.691
-58.743
-62.589
-66.985
-71.461
-75.644
-79.307
-82.097
-83.528
-83.375
-81.771
-79.389
-77.47
-76.853
-77.78
-80.326
-84.546
-90.368
-97.17
-103.226
-105.813
-102.542
-91.716
-72.194
-43.161
-3.159
48.972
112.728
186.301
265.661
345.001
420.03
488.195
550.693
611.284
670.019
721.161
749.185
736.916
674.233
559.817
411.16
251.934
105.166
-5.237
-72.835
-100.905
-99.382
-88.832
-80.264
-77.113
-78.894
-77.484
-70.026
-58.713
-45.521
-34.427
-27.346
-23.46
-21.902
-21.529
-21.382
-21.419
-22.318
-24.546
-27.9
-31.817
-35.92
-40.078
-44.363
-48.627
-52.091
-54.178
-55.024
-55.251
-55.405
-55.721
-56.158
-56.671
-57.524
-58.943
-60.805
-62.697
-64.208
-65.116
-65.395
-65.143
-64.385
-63.114
-61.377
-59.298
-57.026
-54.701
-52.414
-50.18
-47.989
-45.833
-43.717
-41.679
-39.748
-37.938
-36.245
-34.653
-33.142
-31.704
-30.33
-28.996
-27.662
-26.273
-24.77
-23.127
-21.347
-19.453
-17.459
-15.355
-13.127
-10.769
-8.283
-5.671
-2.922
-0.011
3.093
6.4
9.908
13.6
17.456
21.467
25.635
29.961
34.433
39.036
43.758
48.595
53.55
58.618
63.776
68.99
74.223
79.459
84.693
89.926
95.163
100.416
105.709
111.085
116.601
122.291
128.168
134.231
140.463
146.854
153.404
160.107
166.952
173.907
180.925
187.955
194.931
201.754
208.297
214.39
219.856
224.557
228.376
231.216
232.995
233.625
233.029
231.151
227.949
223.395
217.479
210.204
201.608
191.779
180.854
169.024
156.49
143.424
129.995
116.37
102.717
89.214
76.021
63.268
51.079
39.583
28.896
19.121
10.323
2.519
-4.317
-10.253
-15.364
-19.716
-23.393
-26.488
-29.106
-31.368
-33.368
-35.177
-36.868
-38.525
-40.225
-42.039
-44.013
-46.159
-48.473
-50.937
-53.527
-56.218
-58.969
-61.728
-64.435
-67.024
-69.446
-71.674
-73.68
-75.434
-76.909
-78.086
-78.959
-79.539
-79.838
-79.868
-79.645
-79.187
-78.524
-77.69
-76.722
-75.661
-74.536
-73.37
-72.185
-70.999
-69.827
-68.682
-67.57
-66.492
-65.45
-64.449
-63.494
-62.589
-61.733
-60.925
-60.163
-59.444
-58.767
-58.13
-57.533
-56.975
-56.458
-55.983
-55.55
-55.163
-54.822
-54.527
-54.276
-54.067
-53.896
-53.761
-53.659
-53.585
-53.535
-53.509
-53.502
-53.512
-53.539
-53.581
-53.635
-53.701
-53.777
-53.863
-53.958
-54.061
-54.173
-54.294
-54.425
-54.567
-54.719
-54.884
-55.06
-55.25
-55.453
-55.668
-55.897
-56.139
-56.395
-56.665
-56.95
-57.25
-57.568
-57.903
-58.256
-58.627
-59.016
-59.421
-59.841
-60.273
-60.716
-61.167
-61.623
-62.082
-62.542
-63.002
-63.458
-63.907
-64.347
-64.771
-65.173
-65.547
-65.884
-66.179
-66.422
-66.605
-66.721
-66.765
-66.732
-66.616
-66.411
-66.104
-65.689
-65.162
-64.525
-63.781
-62.936
-61.997
-60.978
-59.903
-58.795
-57.672
-56.552
-55.439
-54.332
-53.24
-52.169
-51.128
-50.118
-49.123
-48.124
-47.106
-46.05
-44.934
-43.728
-42.376
-40.833
-39.069
-37.065
-34.833
-32.392
-29.76
-26.963
-24.04
-21.041
-18.042
-15.132
-12.382
-9.865
-7.665
-5.872
-4.607
-3.972
-4.038
-4.849
-6.416
-8.723
-11.74
-15.423
-19.692
-24.453
-29.593
-34.974
-40.484
-46.002
-51.392
-56.514
-61.216
-65.36
-68.854
-71.658
-73.76
-75.188
-76.001
-76.249
-76.035
-75.499
-74.794
-74.101
-73.594
-73.403
-73.713
-74.798
-76.803
-79.718
-83.346
-87.167
-90.659
-93.478
-95.168
-95.18
-93.303
-89.666
-84.911
-80.505
-77.855
-77.787
-81.013
-88.03
-98.574
-111.651
-125.236
-135.742
-139.273
-132.697
-113.296
-78.639
-27.113
41.651
126.507
222.394
321.29
416.216
501.78
577.485
646.217
707.571
755.617
775.538
750.417
670.052
535.869
368.226
196.729
50.899
-47.606
-96.517
-107.167
-98.368
-87.051
-79.553
-75.088
-68.028
-55.461
-40.077
-25.835
-17.204
-16.008
-20.801
-29.483
-39.851
-49.746
-57.611
-62.662
-64.567
-63.616
-60.568
-56.174
-51.163
-46.334
-42.372
-39.629
-38.237
-38.106
-38.995
-40.721
-43.116
-45.984
-49.141
-52.435
-55.753
-58.999
-62.094
-64.932
-67.393
-69.395
-70.892
-71.865
-72.323
-72.282
-71.768
-70.818
-69.487
-67.822
-65.871
-63.684
-61.303
-58.781
-56.173
-53.536
-50.923
-48.371
-45.903
-43.53
-41.255
-39.073
-36.972
-34.939
-32.953
-30.999
-29.065
-27.139
-25.21
-23.264
-21.284
-19.255
-17.158
-14.979
-12.703
-10.314
-7.799
-5.146
-2.347
0.607
3.725
7.017
10.5
14.179
18.059
22.141
26.421
30.892
35.545
40.358
45.303
50.355
55.491
60.688
65.93
71.192
76.45
81.686
86.874
92.002
97.068
102.07
107.012
111.914
116.796
121.687
126.629
131.642
136.736
141.916
147.176
152.512
157.916
163.359
168.811
174.236
179.577
184.766
189.725
194.338
198.495
202.091
204.999
207.13
208.41
208.769
208.148
206.501
203.787
199.982
195.08
189.076
181.985
173.858
164.771
154.847
144.212
132.984
121.298
109.277
97.032
84.682
72.346
60.134
48.163
36.561
25.434
14.894
5.048
-4.048
-12.362
-19.896
-26.669
-32.689
-37.976
-42.56
-46.474
-49.753
-52.447
-54.604
-56.29
-57.607
-58.639
-59.476
-60.208
-60.892
-61.565
-62.258
-62.981
-63.745
-64.563
-65.434
-66.354
-67.326
-68.34
-69.385
-70.437
-71.444
-72.363
-73.161
-73.801
-74.266
-74.547
-74.635
-74.536
-74.264
-73.83
-73.249
-72.54
-71.711
-70.778
-69.761
-68.68
-67.57
-66.459
-65.367
-64.315
-63.317
-62.385
-61.528
-60.75
-60.047
-59.417
-58.857
-58.365
-57.94
-57.582
-57.285
-57.045
-56.858
-56.718
-56.623
-56.571
-56.558
-56.583
-56.643
-56.738
-56.87
-57.038
-57.242
-57.479
-57.749
-58.047
-58.373
-58.723
-59.095
-59.483
-59.885
-60.296
-60.713
-61.134
-61.554
-61.97
-62.38
-62.782
-63.175
-63.558
-63.929
-64.289
-64.637
-64.973
-65.297
-65.608
-65.907
-66.192
-66.462
-66.717
-66.957
-67.181
-67.388
-67.576
-67.743
-67.89
-68.014
-68.113
-68.186
-68.232
-68.249
-68.237
-68.195
-68.125
-68.025
-67.896
-67.738
-67.55
-67.331
-67.08
-66.796
-66.475
-66.116
-65.718
-65.277
-64.791
-64.258
-63.674
-63.039
-62.352
-61.612
-60.817
-59.966
-59.061
-58.103
-57.093
-56.031
-54.92
-53.763
-52.563
-51.328
-50.063
-48.775
-47.47
-46.156
-44.841
-43.537
-42.248
-40.978
-39.732
-38.511
-37.325
-36.192
-35.125
-34.137
-33.243
-32.459
-31.802
-31.293
-30.937
-30.728
-30.663
-30.735
-30.952
-31.333
-31.886
-32.623
-33.544
-34.631
-35.87
-37.244
-38.703
-40.192
-41.654
-43.02
-44.265
-45.392
-46.391
-47.257
-47.964
-48.472
-48.767
-48.835
-48.657
-48.245
-47.617
-46.824
-45.998
-45.292
-44.848
-44.808
-45.242
-46.187
-47.701
-49.83
-52.638
-56.198
-60.511
-65.646
-71.719
-78.675
-86.41
-94.584
-102.432
-109.216
-114.307
-116.893
-116.387
-112.79
-106.021
-96.678
-86.701
-77.653
-70.863
-68.281
-69.172
-71.612
-76.387
-81.59
-86.367
-90.794
-86.176
-64.846
-20.814
49.854
139.403
238.996
342.28
446.816
555.031
662.448
757.841
822.872
836.831
793.001
694.475
552.143
388.705
222.756
72.401
-41.262
-112.116
-141.264
-137.833
-122.403
-106.336
-94.135
-86.059
-75.539
-61.826
-48.101
-36.842
-31.761
-33.353
-39.256
-47.661
-56.277
-62.917
-66.825
-67.671
-65.497
-61.02
-55.024
-48.2
-41.397
-35.45
-30.775
-27.537
-25.718
-25.074
-25.412
-26.573
-28.344
-30.502
-32.88
-35.355
-37.827
-40.226
-42.454
-44.381
-45.923
-47.026
-47.669
-47.859
-47.61
-46.947
-45.903
-44.535
-42.891
-41.022
-38.975
-36.793
-34.525
-32.224
-29.945
-27.738
-25.638
-23.667
-21.833
-20.132
-18.555
-17.086
-15.706
-14.389
-13.114
-11.859
-10.606
-9.335
-8.027
-6.657
-5.204
-3.644
-1.955
-0.114
1.895
4.09
6.482
9.083
11.903
14.952
18.237
21.762
25.53
29.547
33.811
38.317
43.058
48.018
53.174
58.503
63.975
69.561
75.241
80.996
86.811
92.674
98.573
104.496
110.432
116.364
122.275
128.149
133.962
139.695
145.348
150.933
156.492
162.071
167.662
173.202
178.602
183.782
188.708
193.353
197.587
201.192
204.079
206.366
208.413
210.576
212.847
214.906
216.507
217.711
218.509
218.497
216.55
211.233
202.137
189.826
175.019
158.528
141.256
124.014
109.207
98.683
90.887
86.136
85.584
92.031
113.232
147.208
182.162
204.859
198.768
162.571
110.991
57.207
14.958
-11.922
-31.131
-45.562
-56.297
-63.323
-63.465
-57.453
-48.272
-37.524
-26.899
-18.035
-12.098
-9.983
-11.875
-16.638
-22.539
-28.626
-34.595
-40.204
-45.189
-49.229
-52.052
-53.888
-55.35
-56.76
-58.179
-59.558
-60.755
-61.75
-62.623
-63.372
-63.91
-64.181
-64.146
-63.811
-63.248
-62.5
-61.588
-60.534
-59.353
-58.076
-56.754
-55.428
-54.129
-52.877
-51.675
-50.522
-49.42
-48.364
-47.357
-46.4
-45.487
-44.621
-43.804
-43.042
-42.341
-41.705
-41.13
-40.612
-40.148
-39.734
-39.371
-39.058
-38.795
-38.583
-38.423
-38.315
-38.259
-38.254
-38.296
-38.384
-38.512
-38.677
-38.875
-39.103
-39.359
-39.641
-39.948
-40.277
-40.627
-40.998
-41.386
-41.79
-42.207
-42.633
-43.066
-43.503
-43.941
-44.378
-44.812
-45.241
-45.664
-46.081
-46.492
-46.895
-47.291
-47.68
-48.06
-48.433
-48.799
-49.158
-49.51
-49.858
-50.201
-50.541
-50.877
-51.209
-51.536
-51.855
-52.166
-52.464
-52.747
-53.01
-53.252
-53.471
-53.664
-53.83
-53.968
-54.077
-54.16
-54.214
-54.238
-54.23
-54.185
-54.1
-53.971
-53.792
-53.558
-53.265
-52.908
-52.484
-51.996
-51.442
-50.818
-50.122
-49.344
-48.482
-47.542
-46.531
-45.453
-44.325
-43.162
-41.992
-40.853
-39.772
-38.764
-37.839
-36.992
-36.223
-35.534
-34.926
-34.397
-33.945
-33.562
-33.242
-32.99
-32.789
-32.612
-32.415
-32.128
-31.709
-31.154
-30.47
-29.683
-28.827
-27.934
-27.048
-26.225
-25.504
-24.908
-24.448
-24.112
-23.91
-23.881
-24.074
-24.565
-25.394
-26.544
-27.985
-29.673
-31.543
-33.534
-35.575
-37.581
-39.513
-41.389
-43.237
-45.099
-47.015
-49.006
-51.097
-53.318
-55.707
-58.333
-61.31
-64.815
-68.95
-73.685
-78.836
-84.034
-88.87
-93.01
-96.059
-97.458
-96.878
-94.442
-90.716
-86.879
-84.138
-83.102
-84.211
-88.052
-94.748
-103.609
-113.053
-120.201
-121.728
-115.288
-99.003
-70.626
-28.263
29.081
101.44
185.192
273.511
360.949
442.361
517.716
592.668
667.817
740.606
798.001
815.932
779.104
679.628
525.695
346.524
170.729
25.479
-70.292
-116.617
-122.713
-103.504
-76.165
-53.528
-39.98
-35.952
-40.155
-45.904
-50.718
-53.828
-53.021
-52.349
-53.801
-56.766
-61.808
-66.03
-67.338
-66.118
-62.48
-57.345
-51.833
-46.275
-41.127
-37.052
-34.33
-33.034
-33.1
-34.288
-36.389
-39.257
-42.722
-46.563
-50.59
-54.644
-58.573
-62.254
-65.556
-68.372
-70.632
-72.295
-73.351
-73.808
-73.69
-73.045
-71.935
-70.423
-68.563
-66.406
-64.004
-61.416
-58.705
-55.922
-53.108
-50.286
-47.473
-44.691
-41.957
-39.279
-36.658
-34.085
-31.545
-29.044
-26.593
-24.201
-21.87
-19.601
-17.4
-15.294
-13.33
-11.548
-9.96
-8.558
-7.313
-6.196
-5.181
-4.235
-3.313
-2.344
-1.266
-0.032
1.38
2.987
4.824
6.953
9.465
12.433
15.89
19.838
24.259
29.132
34.438
40.144
46.189
52.488
58.988
65.67
72.55
79.656
86.981
94.478
102.08
109.726
117.384
125.036
132.665
140.245
147.747
155.147
162.442
169.627
176.642
183.379
189.686
195.397
200.391
204.579
207.882
210.218
211.512
211.692
210.711
208.542
205.151
200.514
194.616
187.466
179.146
169.793
159.587
148.716
137.347
125.637
113.75
101.861
90.116
78.649
67.565
56.955
46.939
37.622
29.088
21.388
14.517
8.428
3.055
-1.676
-5.846
-9.539
-12.856
-15.912
-18.789
-21.55
-24.24
-26.903
-29.609
-32.423
-35.386
-38.519
-41.815
-45.254
-48.809
-52.457
-56.15
-59.838
-63.457
-66.935
-70.226
-73.305
-76.148
-78.74
-81.05
-83.055
-84.746
-86.125
-87.202
-87.986
-88.488
-88.715
-88.694
-88.456
-88.034
-87.468
-86.784
-86.003
-85.143
-84.222
-83.256
-82.261
-81.245
-80.212
-79.169
-78.122
-77.082
-76.057
-75.051
-74.064
-73.099
-72.156
-71.237
-70.344
-69.478
-68.642
-67.838
-67.069
-66.339
-65.651
-65.008
-64.411
-63.862
-63.359
-62.903
-62.493
-62.129
-61.808
-61.529
-61.29
-61.088
-60.924
-60.793
-60.695
-60.626
-60.586
-60.571
-60.58
-60.611
-60.662
-60.731
-60.816
-60.916
-61.03
-61.156
-61.294
-61.442
-61.6
-61.766
-61.941
-62.123
-62.31
-62.502
-62.697
-62.894
-63.092
-63.288
-63.481
-63.671
-63.855
-64.032
-64.202
-64.364
-64.515
-64.656
-64.784
-64.898
-64.997
-65.079
-65.141
-65.181
-65.198
-65.189
-65.152
-65.084
-64.983
-64.846
-64.671
-64.454
-64.193
-63.884
-63.524
-63.111
-62.643
-62.118
-61.535
-60.895
-60.197
-59.442
-58.632
-57.767
-56.85
-55.879
-54.854
-53.776
-52.65
-51.481
-50.275
-49.037
-47.773
-46.489
-45.196
-43.902
-42.616
-41.344
-40.089
-38.86
-37.669
-36.529
-35.457
-34.461
-33.543
-32.702
-31.94
-31.261
-30.67
-30.171
-29.763
-29.449
-29.235
-29.13
-29.151
-29.302
-29.586
-29.994
-30.514
-31.149
-31.927
-32.899
-34.116
-35.593
-37.295
-39.159
-41.139
-43.204
-45.35
-47.522
-49.57
-51.444
-53.256
-55.257
-57.723
-60.702
-63.903
-66.99
-69.875
-72.413
-74.246
-74.719
-73.055
-68.996
-63.054
-56.14
-48.859
-41.74
-35.57
-31.476
-30.697
-34.062
-41.672
-52.474
-65.267
-79.187
-92.559
-104.766
-117.064
-127.717
-133.719
-131.725
-114.706
-84.184
-50.578
-23.892
-17.311
-33.717
-62.652
-94.492
-118.254
-128.671
-129.326
-121.062
-103.182
-72.874
-23.853
44.732
128.927
224.181
322.952
422.454
525.668
628.705
725.627
804.509
842.481
826.75
752.031
622.201
460.707
292.466
143.045
33.466
-32.865
-62.418
-70.891
-74.251
-78.589
-83.435
-82.716
-72.493
-55.418
-36.891
-22.909
-16.459
-17.068
-23.101
-32.521
-43.668
-54.837
-64.191
-70.694
-74.051
-74.544
-72.879
-69.69
-65.532
-61.136
-57.216
-54.156
-52.084
-50.904
-50.39
-50.417
-50.906
-51.736
-52.778
-53.93
-55.112
-56.288
-57.445
-58.551
-59.574
-60.494
-61.298
-61.988
-62.578
-63.062
-63.432
-63.664
-63.714
-63.56
-63.196
-62.621
-61.851
-60.906
-59.792
-58.517
-57.081
-55.466
-53.66
-51.652
-49.422
-46.974
-44.323
-41.496
-38.546
-35.515
-32.426
-29.3
-26.142
-22.95
-19.732
-16.485
-13.206
-9.902
-6.578
-3.234
0.124
3.501
6.911
10.376
13.932
17.614
21.443
25.433
29.589
33.908
38.384
43.006
47.749
52.589
57.503
62.473
67.485
72.528
77.586
82.646
87.687
92.687
97.632
102.522
107.357
112.149
116.911
121.658
126.419
131.23
136.118
141.096
146.163
151.306
156.507
161.742
166.979
172.189
177.325
182.328
187.133
191.661
195.832
199.571
202.784
205.369
207.237
208.315
208.55
207.906
206.348
203.85
200.397
195.982
190.623
184.348
177.195
169.226
160.512
151.119
141.141
130.682
119.848
108.741
97.451
86.069
74.697
63.444
52.422
41.735
31.46
21.675
12.454
3.843
-4.114
-11.385
-17.959
-23.837
-29.029
-33.554
-37.432
-40.698
-43.406
-45.631
-47.463
-48.986
-50.262
-51.361
-52.349
-53.279
-54.2
-55.149
-56.145
-57.205
-58.341
-59.555
-60.849
-62.21
-63.613
-65.016
-66.365
-67.615
-68.737
-69.7
-70.479
-71.054
-71.411
-71.547
-71.471
-71.194
-70.722
-70.066
-69.24
-68.262
-67.157
-65.955
-64.691
-63.395
-62.087
-60.789
-59.517
-58.284
-57.102
-55.974
-54.9
-53.88
-52.914
-52.007
-51.159
-50.371
-49.641
-48.967
-48.346
-47.775
-47.255
-46.783
-46.359
-45.982
-45.653
-45.372
-45.141
-44.96
-44.829
-44.747
-44.711
-44.719
-44.771
-44.862
-44.99
-45.153
-45.348
-45.573
-45.826
-46.106
-46.41
-46.736
-47.083
-47.449
-47.832
-48.231
-48.645
-49.071
-49.509
-49.956
-50.412
-50.874
-51.341
-51.813
-52.288
-52.763
-53.24
-53.715
-54.189
-54.66
-55.127
-55.588
-56.043
-56.489
-56.924
-57.348
-57.756
-58.149
-58.521
-58.872
-59.198
-59.496
-59.762
-59.994
-60.187
-60.338
-60.444
-60.5
-60.503
-60.449
-60.336
-60.159
-59.917
-59.605
-59.222
-58.765
-58.23
-57.616
-56.92
-56.14
-55.276
-54.328
-53.295
-52.178
-50.98
-49.703
-48.353
-46.934
-45.453
-43.917
-42.335
-40.716
-39.072
-37.412
-35.75
-34.095
-32.461
-30.861
-29.307
-27.812
-26.39
-25.052
-23.814
-22.689
-21.692
-20.835
-20.131
-19.585
-19.207
-19.005
-18.986
-19.162
-19.541
-20.13
-20.933
-21.955
-23.196
-24.652
-26.308
-28.132
-30.094
-32.158
-34.297
-36.485
-38.696
-40.899
-43.06
-45.139
-47.1
-48.91
-50.536
-51.947
-53.121
-54.047
-54.75
-55.31
-55.808
-56.333
-56.956
-57.706
-58.63
-59.801
-61.298
-63.21
-65.615
-68.538
-72.041
-76.27
-81.253
-86.863
-92.773
-98.327
-102.876
-105.953
-107.048
-105.574
-101.277
-94.289
-85.254
-75.648
-66.944
-60.12
-56.201
-56.076
-59.859
-66.832
-75.122
-81.331
-82.016
-74.103
-54.047
-18.635
34.669
105.572
189.536
280.666
372.721
463.804
558.353
656.72
754.5
840.309
889.059
880.71
804.905
658.539
463.788
252.642
57.253
-85.837
-163.45
-182.332
-159.205
-124.175
-95.194
-76.234
-65.489
-53.142
-36.116
-17.94
-2.183
6.042
5.483
-1.373
-12.149
-23.868
-33.928
-41.407
-45.965
-47.67
-47.24
-45.412
-42.829
-40.325
-38.728
-38.43
-39.527
-41.913
-45.241
-49.234
-53.698
-58.395
-63.094
-67.618
-71.824
-75.603
-78.894
-81.638
-83.779
-85.283
-86.136
-86.351
-85.96
-85.022
-83.599
-81.746
-79.522
-76.972
-74.137
-71.065
-67.795
-64.367
-60.83
-57.223
-53.581
-49.945
-46.344
-42.799
-39.33
-35.936
-32.611
-29.361
-26.18
-23.07
-20.046
-17.127
-14.351
-11.771
-9.406
-7.266
-5.346
-3.612
-2.033
-0.563
0.867
2.312
3.819
5.44
7.197
9.117
11.243
13.62
16.333
19.485
23.145
27.37
32.169
37.507
43.362
49.681
56.377
63.408
70.645
77.952
85.41
93.058
100.933
109.121
117.387
125.413
133.207
140.758
147.745
154.002
159.185
162.871
165.509
167.612
169.192
170.378
171.458
172.517
174.072
176.732
179.97
183.256
186.498
189.409
191.84
193.799
194.803
194.342
192.773
190.414
187.368
183.896
179.992
175.597
170.981
166.37
161.566
156.362
150.63
144.238
137.315
130.025
122.317
114.134
105.642
97.146
88.906
81.051
73.289
65.043
56.171
46.737
36.54
25.574
14.106
2.438
-8.176
-17.27
-26.777
-37.671
-48.626
-53.903
-44.29
-15.884
24.831
60.679
72.496
51.418
3.759
-51.328
-95.283
-119.952
-127.565
-127.296
-125.914
-124.497
-121.598
-115.313
-105.931
-95.056
-84.055
-74.186
-66.309
-61.277
-59.486
-60.174
-62.048
-64.164
-66.065
-67.702
-69.039
-69.665
-69.281
-68.04
-66.4
-64.794
-63.406
-62.144
-60.872
-59.633
-58.475
-57.348
-56.152
-54.746
-53.082
-51.288
-49.456
-47.52
-45.619
-44.176
-43.266
-42.759
-42.718
-42.697
-43.554
-47.911
-55.175
-62.933
-67.191
-60.473
-43.28
-23.088
-7.36
-6.696
-21.69
-42.32
-60.845
-68.884
-65.025
-56.758
-48.661
-43.88
-43.341
-43.982
-44.424
-44.762
-44.89
-45.268
-46.007
-46.696
-47.211
-47.623
-47.922
-48.09
-48.145
-48.107
-48.019
-47.953
-47.936
-47.937
-47.95
-47.983
-48.035
-48.113
-48.216
-48.334
-48.465
-48.612
-48.775
-48.954
-49.148
-49.354
-49.572
-49.801
-50.04
-50.292
-50.557
-50.832
-51.117
-51.41
-51.706
-52.002
-52.291
-52.567
-52.823
-53.049
-53.237
-53.382
-53.475
-53.507
-53.469
-53.345
-53.128
-52.814
-52.401
-51.89
-51.286
-50.6
-49.846
-49.045
-48.218
-47.383
-46.557
-45.75
-44.971
-44.225
-43.52
-42.864
-42.261
-41.701
-41.168
-40.641
-40.094
-39.502
-38.83
-38.033
-37.075
-35.927
-34.568
-32.996
-31.219
-29.256
-27.134
-24.881
-22.534
-20.152
-17.805
-15.581
-13.566
-11.836
-10.475
-9.573
-9.205
-9.431
-10.296
-11.815
-13.986
-16.783
-20.154
-24.057
-28.432
-33.215
-38.346
-43.708
-49.163
-54.575
-59.783
-64.663
-69.184
-73.263
-76.79
-79.768
-82.233
-84.429
-86.848
-89.721
-93.012
-96.65
-100.455
-104.28
-108.111
-111.371
-112.911
-112.006
-108.34
-102.094
-94.106
-84.954
-74.837
-64.664
-56.049
-50.488
-49.34
-52.941
-60.396
-70.946
-84.15
-99.124
-114.395
-127.743
-136.274
-137.797
-131.034
-114.853
-87.989
-48.963
3.301
68.405
144.387
228.652
318.082
409.201
497.711
577.964
644.039
690.987
715.33
714.98
689.251
638.684
565.854
475.646
374.259
268.312
163.969
66.88
-17.714
-85.597
-134.643
-164.708
-177.315
-175.055
-160.505
-136.847
-108.301
-79.014
-52.171
-30.161
-14.023
-4.021
-0.788
-4.177
-12.73
-24.604
-37.851
-50.497
-61.606
-70.721
-76.913
-79.774
-79.612
-76.989
-72.99
-68.937
-65.447
-62.806
-61.451
-61.486
-62.86
-65.48
-68.853
-72.337
-75.58
-78.363
-80.55
-82.172
-83.218
-83.647
-83.54
-83.002
-82.11
-80.938
-79.506
-77.803
-75.85
-73.688
-71.371
-68.969
-66.537
-64.121
-61.755
-59.458
-57.246
-55.129
-53.107
-51.174
-49.316
-47.515
-45.758
-44.039
-42.345
-40.661
-38.968
-37.238
-35.449
-33.582
-31.616
-29.539
-27.332
-24.98
-22.472
-19.796
-16.942
-13.904
-10.673
-7.239
-3.596
0.262
4.338
8.632
13.145
17.874
22.815
27.96
33.3
38.823
44.516
50.363
56.346
62.447
68.643
74.911
81.228
87.567
93.902
100.205
106.446
112.597
118.628
124.508
130.209
135.701
140.954
145.941
150.633
155.005
159.032
162.688
165.953
168.805
171.225
173.198
174.709
175.747
176.301
176.364
175.934
175.007
173.584
171.669
169.268
166.388
163.041
159.239
154.999
150.337
145.274
139.831
134.031
127.9
121.463
114.747
107.781
100.592
93.212
85.668
77.992
70.214
62.366
54.477
46.579
38.7
30.871
23.118
15.471
7.953
0.591
-6.593
-13.575
-20.337
-26.857
-33.118
-39.105
-44.802
-50.198
-55.283
-60.049
-64.49
-68.602
-72.383
-75.835
-78.958
-81.756
-84.234
-86.395
-88.247
-89.795
-91.047
-92.013
-92.702
-93.125
-93.294
-93.225
-92.933
-92.437
-91.753
-90.896
-89.884
-88.732
-87.456
-86.072
-84.592
-83.032
-81.407
-79.735
-78.04
-76.34
-74.646
-72.965
-71.301
-69.649
-68.007
-66.373
-64.737
-63.095
-61.45
-59.814
-58.211
-56.667
-55.194
-53.801
-52.483
-51.235
-50.068
-48.996
-48.035
-47.213
-46.556
-46.09
-45.866
-45.912
-46.233
-46.814
-47.61
-48.56
-49.627
-50.782
-52.007
-53.291
-54.607
-55.925
-57.224
-58.467
-59.617
-60.628
-61.423
-61.946
-62.184
-62.141
-61.864
-61.422
-60.86
-60.21
-59.506
-58.767
-58.017
-57.282
-56.57
-55.895
-55.282
-54.765
-54.402
-54.241
-54.296
-54.563
-55.009
-55.583
-56.249
-56.978
-57.735
-58.499
-59.249
-59.967
-60.652
-61.305
-61.913
-62.46
-62.913
-63.245
-63.441
-63.498
-63.422
-63.227
-62.922
-62.515
-62.018
-61.44
-60.783
-60.049
-59.232
-58.323
-57.32
-56.224
-55.04
-53.776
-52.436
-51.022
-49.539
-47.989
-46.375
-44.701
-42.972
-41.194
-39.378
-37.535
-35.681
-33.832
-32.004
-30.214
-28.478
-26.808
-25.215
-23.712
-22.309
-21.02
-19.857
-18.834
-17.959
-17.245
-16.699
-16.328
-16.138
-16.127
-16.289
-16.623
-17.131
-17.823
-18.71
-19.801
-21.099
-22.609
-24.324
-26.236
-28.326
-30.562
-32.904
-35.314
-37.752
-40.187
-42.591
-44.923
-47.131
-49.151
-50.916
-52.368
-53.459
-54.145
-54.42
-54.288
-53.789
-52.988
-51.944
-50.738
-49.477
-48.274
-47.253
-46.549
-46.274
-46.593
-47.782
-49.98
-53.145
-57.07
-61.244
-65.152
-68.451
-70.633
-70.984
-69.162
-65.299
-60.075
-55.073
-51.812
-51.176
-54.145
-61.708
-73.994
-90.046
-107.696
-123.131
-132.048
-130.733
-115.276
-81.393
-27.841
42.813
127.495
221.185
323.415
440.317
570.539
705.493
825.323
898.971
908.683
852.593
745.223
617.064
489.475
372.711
269.559
173.492
84.204
7.2
-53.24
-92.556
-110.553
-111.589
-100.489
-82.129
-61.708
-43.616
-30.493
-23.671
-23.186
-27.829
-36.016
-46.173
-56.183
-63.956
-68.47
-69.391
-66.969
-62.037
-55.412
-47.83
-40.223
-33.462
-27.974
-23.945
-21.346
-19.953
-19.619
-20.212
-21.519
-23.33
-25.476
-27.816
-30.263
-32.736
-35.111
-37.262
-39.09
-40.535
-41.602
-42.283
-42.55
-42.396
-41.823
-40.861
-39.573
-38.004
-36.19
-34.174
-31.997
-29.712
-27.387
-25.067
-22.777
-20.524
-18.289
-16.074
-13.907
-11.796
-9.744
-7.744
-5.773
-3.821
-1.891
0.028
1.954
3.91
5.926
8.019
10.193
12.454
14.804
17.256
19.833
22.552
25.426
28.469
31.695
35.118
38.753
42.601
46.656
50.905
55.337
59.934
64.674
69.533
74.484
79.509
84.602
89.754
94.952
100.182
105.421
110.661
115.906
121.155
126.404
131.65
136.887
142.13
147.417
152.777
158.226
163.756
169.327
174.902
180.446
185.919
191.269
196.423
201.288
205.791
209.891
213.551
216.734
219.366
221.338
222.558
222.96
222.502
221.174
218.962
215.855
211.865
207.04
201.456
195.21
188.363
180.934
172.926
164.362
155.309
145.873
136.154
126.235
116.196
106.12
96.109
86.257
76.631
67.257
58.129
49.243
40.63
32.36
24.522
17.185
10.375
4.099
-1.642
-6.853
-11.552
-15.789
-19.65
-23.204
-26.499
-29.551
-32.355
-34.909
-37.233
-39.366
-41.363
-43.269
-45.116
-46.926
-48.715
-50.482
-52.212
-53.864
-55.372
-56.682
-57.757
-58.574
-59.135
-59.451
-59.534
-59.401
-59.068
-58.537
-57.801
-56.868
-55.737
-54.47
-53.194
-51.993
-50.928
-50.02
-49.211
-48.524
-48.088
-47.847
-47.558
-47.067
-46.284
-45.452
-45.247
-45.963
-47.327
-49.194
-51.747
-54.81
-57.888
-60.104
-59.293
-55.264
-51.047
-46.821
-40.986
-30.05
-6.001
29.151
63.362
85.037
79.947
47.448
2.227
-43.767
-78.029
-96.073
-104.563
-106.542
-104.147
-98.95
-88.874
-74.293
-57.652
-40.552
-25.181
-13.674
-6.806
-4.601
-6.487
-11.136
-17.034
-23.35
-29.563
-35.022
-39.403
-42.571
-44.52
-45.682
-46.617
-47.554
-48.551
-49.627
-50.695
-51.748
-52.837
-53.896
-54.839
-55.636
-56.278
-56.809
-57.301
-57.784
-58.263
-58.734
-59.184
-59.614
-60.036
-60.453
-60.865
-61.261
-61.622
-61.936
-62.188
-62.367
-62.462
-62.458
-62.338
-62.09
-61.703
-61.176
-60.513
-59.717
-58.791
-57.742
-56.58
-55.32
-53.991
-52.618
-51.225
-49.838
-48.465
-47.117
-45.805
-44.54
-43.334
-42.193
-41.101
-40.041
-38.998
-37.954
-36.89
-35.781
-34.573
-33.224
-31.703
-29.984
-28.073
-25.989
-23.745
-21.366
-18.884
-16.349
-13.839
-11.452
-9.272
-7.38
-5.85
-4.762
-4.224
-4.327
-5.134
-6.685
-8.974
-11.974
-15.66
-19.989
-24.895
-30.287
-36.037
-41.981
-47.973
-53.874
-59.56
-64.908
-69.783
-74.082
-77.742
-80.742
-83.105
-84.849
-86.011
-86.653
-86.874
-86.81
-86.624
-86.479
-86.578
-87.18
-88.438
-90.381
-92.877
-95.536
-97.959
-99.827
-100.686
-99.99
-97.439
-93.043
-87.376
-81.678
-77.155
-74.719
-75.257
-79.574
-88.026
-100.273
-114.635
-128.102
-137.315
-138.938
-129.706
-106.473
-66.477
-8.107
68.078
159.394
261.732
369.887
477.525
577.261
661.359
722.469
756.361
762.509
739.743
687.629
606.009
492.898
356.573
213.794
81.609
-19.947
-84.137
-120.345
-139.086
-151.901
-162.098
-159.35
-134.815
-88.147
-28.209
23.997
47.944
36.753
-3.028
-52.642
-92.171
-112.328
-115.065
-109.611
-103.924
-100.555
-97.872
-93.044
-86.152
-79.014
-73.012
-69.029
-66.838
-65.895
-66.39
-68.319
-71.148
-74.444
-77.824
-81.117
-84.484
-87.955
-91.33
-94.427
-97.116
-99.325
-101.075
-102.36
-103.121
-103.34
-103.018
-102.191
-100.932
-99.293
-97.318
-95.053
-92.535
-89.816
-86.959
-84.024
-81.073
-78.153
-75.286
-72.486
-69.76
-67.107
-64.527
-62.01
-59.535
-57.086
-54.651
-52.221
-49.789
-47.349
-44.889
-42.394
-39.851
-37.247
-34.585
-31.866
-29.092
-26.261
-23.356
