Name
Date of Birth,"Mar 27, 1959"
Recorded Date,2020-06-29 09:09:58 -0500
Classification,Sinus Rhythm
Symptoms,
Software Version,1.80
Device,"Watch4,2"
Sample Rate,510.227 hertz


Lead,Lead I
Unit,µV

85.511
93.416
101.199
108.769
116.012
122.823
129.127
134.86
139.987
144.489
148.347
151.555
154.138
156.135
157.613
158.656
159.322
159.665
159.744
159.616
159.362
159.055
158.746
158.475
158.27
158.149
158.134
158.237
158.444
158.733
159.065
159.393
159.688
159.932
160.105
160.192
160.171
160.023
159.744
159.339
158.811
158.167
157.408
156.538
155.576
154.545
153.468
152.375
151.286
150.212
149.167
148.162
147.203
146.297
145.441
144.632
143.865
143.138
142.449
141.796
141.173
140.574
139.993
139.424
138.865
138.312
137.763
137.218
136.677
136.145
135.623
135.113
134.62
134.147
133.7
133.287
132.913
132.578
132.281
132.018
131.784
131.57
131.36
131.133
130.874
130.567
130.2
129.769
129.264
128.677
128.003
127.236
126.375
125.435
124.427
123.372
122.302
121.248
120.251
119.365
118.627
118.064
117.7
117.538
117.585
117.839
118.275
118.87
119.588
120.369
121.153
121.872
122.432
122.757
122.778
122.409
121.597
120.305
118.498
116.171
113.329
109.992
106.206
102.033
97.533
92.803
87.94
83.044
78.233
73.58
69.11
64.857
60.816
56.975
53.341
49.871
46.484
43.095
39.588
35.853
31.815
27.338
22.219
16.385
9.882
2.963
-3.871
-10.159
-15.588
-19.774
-22.217
-22.636
-21.078
-17.999
-14.424
-11.299
-9.005
-7.811
-8.101
-9.855
-12.464
-14.634
-13.971
-7.842
5.482
27.426
59.742
103.871
160.677
230.387
309.722
392.446
473.871
549.283
618.932
689.147
759.482
825.873
876.269
886.684
844.927
747.352
598.817
425.819
251.467
96.622
-15.111
-81.136
-106.501
-101.193
-86.074
-70.946
-57.91
-46.944
-32.615
-14.682
3.317
18.342
26.556
26.896
20.489
9.171
-3.694
-15.41
-24.861
-31.373
-34.965
-35.904
-33.995
-29.787
-24.778
-20.178
-16.725
-14.762
-14.073
-14.471
-16.11
-18.814
-22.065
-25.439
-28.55
-31.185
-33.384
-35.131
-36.298
-36.841
-36.777
-36.137
-35.008
-33.458
-31.524
-29.288
-26.87
-24.39
-21.96
-19.663
-17.554
-15.684
-14.091
-12.793
-11.781
-11.02
-10.479
-10.133
-9.958
-9.924
-9.985
-10.074
-10.112
-10.036
-9.794
-9.349
-8.674
-7.746
-6.555
-5.113
-3.451
-1.617
0.356
2.452
4.66
6.976
9.384
11.863
14.393
16.963
19.566
22.195
24.846
27.51
30.189
32.895
35.649
38.476
41.394
44.405
47.507
50.696
53.963
57.3
60.695
64.125
67.572
71.018
74.448
77.85
81.21
84.506
87.711
90.798
93.742
96.528
99.141
101.568
103.8
105.831
107.669
109.329
110.825
112.161
113.333
114.327
115.131
115.737
116.138
116.326
116.286
115.998
115.449
114.633
113.54
112.151
110.433
108.333
105.81
102.847
99.449
95.639
91.441
86.89
82.026
76.907
71.609
66.205
60.75
55.288
49.864
44.537
39.387
34.515
30
25.894
22.225
19.001
16.226
13.889
11.955
10.363
9.03
7.886
6.882
5.985
5.161
4.364
3.529
2.581
1.466
0.145
-1.407
-3.206
-5.267
-7.59
-10.15
-12.903
-15.787
-18.759
-21.792
-24.87
-27.98
-31.103
-34.212
-37.281
-40.298
-43.252
-46.133
-48.934
-51.643
-54.259
-56.791
-59.259
-61.687
-64.091
-66.476
-68.842
-71.189
-73.517
-75.824
-78.11
-80.362
-82.569
-84.721
-86.815
-88.847
-90.817
-92.717
-94.525
-96.239
-97.873
-99.439
-100.953
-102.414
-103.787
-105.067
-106.291
-107.439
-108.436
-109.229
-109.754
-110.006
-110.083
-110.014
-109.7
-109.249
-109.033
-109.132
-109.44
-110.011
-110.448
-111.498
-115.459
-121.829
-128.509
-132.021
-125.835
-110.387
-92.231
-77.908
-76.705
-89.168
-106.531
-122.02
-128.305
-124.145
-116.1
-108.184
-103.154
-101.827
-101.529
-101.054
-100.492
-99.75
-99.233
-99.039
-98.81
-98.437
-97.982
-97.438
-96.788
-96.047
-95.234
-94.383
-93.559
-92.782
-92.025
-91.281
-90.554
-89.846
-89.161
-88.5
-87.856
-87.23
-86.629
-86.057
-85.52
-85.019
-84.556
-84.135
-83.758
-83.425
-83.138
-82.897
-82.703
-82.556
-82.457
-82.407
-82.406
-82.456
-82.556
-82.707
-82.909
-83.158
-83.452
-83.786
-84.155
-84.555
-84.979
-85.424
-85.885
-86.359
-86.846
-87.343
-87.849
-88.358
-88.863
-89.352
-89.817
-90.252
-90.652
-91.016
-91.35
-91.662
-91.97
-92.294
-92.644
-93.029
-93.447
-93.885
-94.335
-94.78
-95.207
-95.613
-95.995
-96.348
-96.674
-96.961
-97.187
-97.324
-97.321
-97.115
-96.661
-95.916
-94.862
-93.516
-91.902
-90.067
-88.074
-85.967
-83.791
-81.59
-79.394
-77.241
-75.183
-73.27
-71.583
-70.228
-69.297
-68.883
-69.048
-69.792
-71.092
-72.89
-75.091
-77.607
-80.354
-83.23
-86.164
-89.091
-91.942
-94.664
-97.177
-99.369
-101.13
-102.341
-102.911
-102.808
-102.023
-100.578
-98.541
-95.983
-92.99
-89.673
-86.112
-82.366
-78.485
-74.497
-70.443
-66.397
-62.431
-58.631
-55.072
-51.799
-48.855
-46.278
-44.07
-42.221
-40.691
-39.412
-38.336
-37.438
-36.701
-36.123
-35.691
-35.375
-35.155
-35.01
-34.918
-34.857
-34.782
-34.633
-34.366
-33.963
-33.436
-32.825
-32.164
-31.483
-30.819
-30.215
-29.73
-29.425
-29.335
-29.479
-29.868
-30.515
-31.459
-32.764
-34.47
-36.599
-39.138
-42.051
-45.297
-48.815
-52.523
-56.32
-60.075
-63.67
-67.02
-70.064
-72.782
-75.191
-77.293
-79.081
-80.553
-81.694
-82.535
-83.158
-83.639
-84.061
-84.532
-85.135
-86.03
-87.501
-89.646
-92.353
-95.382
-98.225
-100.35
-101.425
-100.965
-98.243
-92.992
-85.497
-76.271
-66.456
-57.512
-50.567
-46.715
-47.402
-51.915
-56.946
-61.08
-62.984
-62.031
-61.278
-56.501
-36.875
5.297
77.037
176.189
288.757
404.55
518.936
629.341
734.638
826.835
887.95
899.85
854.849
755.571
613.671
448.076
274.838
107.834
-35.032
-138.868
-195.482
-202.342
-169.647
-117.079
-62.146
-21.289
-3.997
-7.705
-25.888
-47.658
-63.415
-71.335
-73.185
-74.003
-77.376
-82.537
-87.625
-90.138
-88.996
-85.075
-79.421
-73.042
-66.776
-61.134
-56.417
-52.797
-50.208
-48.448
-47.409
-47.025
-47.202
-47.817
-48.725
-49.808
-51.007
-52.307
-53.683
-55.066
-56.367
-57.518
-58.49
-59.279
-59.885
-60.299
-60.482
-60.399
-60.037
-59.405
-58.529
-57.429
-56.115
-54.587
-52.839
-50.883
-48.746
-46.447
-43.992
-41.38
-38.614
-35.712
-32.712
-29.662
-26.588
-23.502
-20.411
-17.319
-14.236
-11.177
-8.153
-5.162
-2.199
0.739
3.653
6.54
9.405
12.264
15.141
18.065
21.052
24.115
27.26
30.493
33.821
37.247
40.77
44.382
48.078
51.852
55.698
59.612
63.582
67.596
71.637
75.687
79.73
83.751
87.733
91.66
95.516
99.286
102.955
106.512
109.942
113.229
116.358
119.314
122.081
124.645
126.993
129.11
130.983
132.602
133.957
135.037
135.835
136.344
136.557
136.471
136.082
135.389
134.393
133.096
131.503
129.619
127.451
125.008
122.299
119.335
116.127
112.688
109.031
105.169
101.118
96.892
92.507
87.98
83.329
78.569
73.72
68.797
63.818
58.802
53.766
48.727
43.703
38.712
33.771
28.897
24.106
19.415
14.836
10.384
6.07
1.904
-2.104
-5.948
-9.62
-13.115
-16.426
-19.55
-22.482
-25.218
-27.755
-30.09
-32.223
-34.153
-35.884
-37.419
-38.764
-39.925
-40.907
-41.718
-42.363
-42.85
-43.185
-43.372
-43.421
-43.341
-43.144
-42.847
-42.462
-42.001
-41.472
-40.879
-40.221
-39.494
-38.691
-37.804
-36.83
-35.772
-34.639
-33.45
-32.224
-30.984
-29.743
-28.507
-27.281
-26.074
-24.898
-23.77
-22.714
-21.765
-20.961
-20.346
-19.953
-19.8
-19.884
-20.18
-20.653
-21.256
-21.951
-22.715
-23.525
-24.364
-25.208
-26.037
-26.816
-27.505
-28.055
-28.402
-28.498
-28.312
-27.839
-27.104
-26.148
-25.03
-23.803
-22.503
-21.165
-19.811
-18.462
-17.139
-15.864
-14.66
-13.567
-12.632
-11.899
-11.397
-11.135
-11.103
-11.27
-11.593
-12.034
-12.559
-13.141
-13.765
-14.415
-15.085
-15.767
-16.457
-17.141
-17.797
-18.404
-18.944
-19.407
-19.795
-20.115
-20.383
-20.612
-20.816
-21.005
-21.183
-21.352
-21.51
-21.653
-21.774
-21.869
-21.938
-21.981
-22.002
-22.001
-21.978
-21.93
-21.855
-21.75
-21.612
-21.439
-21.23
-20.986
-20.709
-20.403
-20.074
-19.727
-19.366
-18.997
-18.623
-18.248
-17.877
-17.511
-17.155
-16.811
-16.482
-16.172
-15.883
-15.618
-15.379
-15.169
-14.989
-14.84
-14.725
-14.643
-14.597
-14.587
-14.615
-14.68
-14.784
-14.928
-15.111
-15.335
-15.597
-15.898
-16.237
-16.612
-17.02
-17.46
-17.928
-18.423
-18.94
-19.477
-20.031
-20.598
-21.176
-21.762
-22.353
-22.948
-23.544
-24.14
-24.735
-25.327
-25.916
-26.5
-27.078
-27.65
-28.213
-28.766
-29.307
-29.832
-30.34
-30.825
-31.286
-31.719
-32.123
-32.493
-32.828
-33.125
-33.384
-33.605
-33.785
-33.923
-34.016
-34.062
-34.061
-34.011
-33.909
-33.751
-33.534
-33.255
-32.911
-32.5
-32.015
-31.45
-30.794
-30.042
-29.195
-28.254
-27.224
-26.11
-24.925
-23.684
-22.412
-21.129
-19.852
-18.595
-17.366
-16.177
-15.048
-13.991
-13.022
-12.146
-11.359
-10.653
-10.021
-9.437
-8.872
-8.287
-7.629
-6.862
-5.965
-4.923
-3.733
-2.394
-0.899
0.739
2.499
4.351
6.251
8.147
9.991
11.711
13.221
14.452
15.317
15.757
15.743
15.244
14.251
12.768
10.801
8.382
5.568
2.415
-1.006
-4.609
-8.329
-12.075
-15.762
-19.358
-22.831
-26.166
-29.381
-32.461
-35.417
-38.304
-41.188
-44.154
-47.3
-50.691
-54.435
-58.723
-63.621
-69.056
-74.775
-80.274
-85.072
-88.828
-91.128
-91.404
-89.287
-84.831
-78.627
-71.813
-65.517
-60.379
-56.881
-55.833
-57.768
-62.189
-67.479
-70.998
-69.78
-61.396
-43.608
-13.408
32.401
94.22
168.838
251.996
338.728
427.4
522.473
624.738
727.954
820.946
883.298
895.294
850.992
751.358
606.749
439.873
268.234
110.72
-11.688
-93.747
-133.472
-138.479
-127.576
-109.596
-93.372
-81.736
-70.32
-62.21
-56.233
-51.644
-50.23
-48.764
-48.397
-50.66
-54.445
-59.952
-64.812
-66.806
-66.073
-62.838
-57.966
-52.473
-46.714
-41.157
-36.469
-32.983
-30.759
-29.685
-29.493
-29.961
-30.989
-32.455
-34.175
-36.022
-37.884
-39.689
-41.428
-43.062
-44.548
-45.872
-47.015
-47.975
-48.785
-49.47
-50.044
-50.528
-50.91
-51.157
-51.266
-51.23
-51.052
-50.74
-50.275
-49.647
-48.857
-47.897
-46.768
-45.467
-43.979
-42.287
-40.397
-38.315
-36.069
-33.702
-31.24
-28.703
-26.108
-23.468
-20.802
-18.126
-15.443
-12.748
-10.033
-7.292
-4.524
-1.731
1.099
3.979
6.927
9.966
13.11
16.364
19.736
23.229
26.85
30.606
34.495
38.506
42.62
46.824
51.104
55.447
59.831
64.232
68.619
72.971
77.276
81.525
85.711
89.818
93.823
97.703
101.434
105.002
108.399
111.613
114.625
117.43
120.028
122.433
124.672
126.749
128.64
130.325
131.776
132.972
133.905
134.555
134.899
134.918
134.594
133.921
132.902
131.522
129.751
127.549
124.857
121.646
117.924
113.701
109.001
103.86
98.314
92.425
86.278
79.936
73.452
66.871
60.221
53.553
46.934
40.439
34.16
28.168
22.517
17.253
12.409
7.993
3.999
0.388
-2.905
-5.925
-8.699
-11.246
-13.574
-15.699
-17.65
-19.456
-21.152
-22.775
-24.364
-25.954
-27.572
-29.229
-30.912
-32.594
-34.226
-35.773
-37.213
-38.53
-39.722
-40.784
-41.714
-42.512
-43.183
-43.725
-44.126
-44.379
-44.473
-44.412
-44.205
-43.874
-43.446
-42.944
-42.389
-41.798
-41.184
-40.554
-39.915
-39.267
-38.607
-37.937
-37.261
-36.583
-35.911
-35.247
-34.593
-33.948
-33.313
-32.684
-32.058
-31.435
-30.811
-30.187
-29.564
-28.943
-28.329
-27.725
-27.133
-26.556
-25.997
-25.456
-24.936
-24.437
-23.961
-23.509
-23.082
-22.682
-22.311
-21.971
-21.664
-21.392
-21.157
-20.96
-20.803
-20.688
-20.614
-20.584
-20.597
-20.655
-20.757
-20.904
-21.097
-21.334
-21.615
-21.941
-22.308
-22.716
-23.162
-23.645
-24.16
-24.705
-25.276
-25.87
-26.483
-27.112
-27.754
-28.404
-29.059
-29.716
-30.37
-31.019
-31.658
-32.284
-32.894
-33.485
-34.054
-34.599
-35.117
-35.608
-36.069
-36.499
-36.898
-37.263
-37.596
-37.897
-38.164
-38.399
-38.603
-38.777
-38.923
-39.043
-39.138
-39.212
-39.266
-39.304
-39.328
-39.341
-39.347
-39.348
-39.348
-39.35
-39.357
-39.372
-39.397
-39.436
-39.491
-39.564
-39.657
-39.772
-39.909
-40.07
-40.256
-40.466
-40.701
-40.961
-41.245
-41.552
-41.882
-42.233
-42.603
-42.992
-43.396
-43.815
-44.246
-44.688
-45.14
-45.598
-46.063
-46.531
-47.001
-47.471
-47.938
-48.401
-48.857
-49.304
-49.739
-50.161
-50.569
-50.959
-51.333
-51.688
-52.025
-52.341
-52.637
-52.913
-53.169
-53.406
-53.622
-53.821
-54.001
-54.165
-54.314
-54.449
-54.57
-54.677
-54.771
-54.85
-54.914
-54.961
-54.987
-54.991
-54.97
-54.924
-54.85
-54.747
-54.614
-54.451
-54.258
-54.036
-53.782
-53.494
-53.168
-52.8
-52.388
-51.926
-51.41
-50.834
-50.194
-49.487
-48.715
-47.874
-46.961
-45.971
-44.896
-43.733
-42.485
-41.153
-39.742
-38.26
-36.722
-35.149
-33.573
-32.019
-30.5
-29.029
-27.606
-26.233
-24.914
-23.652
-22.447
-21.297
-20.194
-19.139
-18.136
-17.178
-16.25
-15.32
-14.336
-13.268
-12.108
-10.853
-9.521
-8.134
-6.716
-5.315
-3.991
-2.794
-1.775
-0.97
-0.394
-0.077
-0.051
-0.35
-1.033
-2.129
-3.637
-5.553
-7.848
-10.478
-13.388
-16.483
-19.639
-22.754
-25.731
-28.493
-30.995
-33.192
-35.069
-36.638
-37.901
-38.875
-39.58
-40.037
-40.311
-40.497
-40.701
-41.067
-41.731
-42.846
-44.652
-47.268
-50.629
-54.517
-58.423
-61.789
-64.231
-65.254
-64.204
-60.797
-55.148
-47.869
-40.416
-34.209
-30.151
-29.241
-32.453
-39.96
-50.971
-63.578
-74.341
-79.406
-75.426
-58.835
-25.767
25.117
92.049
172.539
261.869
358.717
466.687
582.973
699.99
801.701
864.213
875.741
834.877
750.643
641.645
517.482
384.663
251.537
126.386
23.813
-45.023
-80.485
-91.91
-91.926
-89.572
-87.028
-80.58
-68.687
-53.905
-39.769
-30.552
-28.006
-30.872
-37.453
-45.988
-54.444
-61.077
-64.94
-65.603
-63.312
-58.878
-53.064
-46.548
-40.168
-34.737
-30.702
-28.259
-27.338
-27.652
-28.994
-31.185
-33.998
-37.19
-40.546
-43.903
-47.148
-50.219
-53.027
-55.45
-57.399
-58.809
-59.654
-59.95
-59.736
-59.055
-57.959
-56.517
-54.804
-52.914
-50.949
-48.98
-47.049
-45.17
-43.361
-41.653
-40.076
-38.648
-37.366
-36.209
-35.153
-34.178
-33.268
-32.389
-31.5
-30.541
-29.451
-28.196
-26.767
-25.178
-23.438
-21.542
-19.484
-17.263
-14.886
-12.358
-9.677
-6.821
-3.778
-0.55
2.849
6.39
10.048
13.812
17.674
21.632
25.683
29.827
34.069
38.428
42.913
47.52
52.232
57.009
61.829
66.68
71.555
76.453
81.372
86.301
91.246
96.224
101.225
106.224
111.169
115.984
120.621
125.046
129.231
133.165
136.829
140.187
143.222
145.909
148.206
150.078
151.466
152.295
152.541
152.202
151.31
149.924
148.075
145.782
143.075
139.971
136.486
132.645
128.447
123.907
119.085
114.037
108.84
103.584
98.309
93.042
87.794
82.555
77.333
72.145
66.988
61.875
56.835
51.895
47.11
42.508
38.069
33.774
29.598
25.511
21.515
17.613
13.8
10.088
6.488
3.006
-0.337
-3.537
-6.611
-9.576
-12.467
-15.3
-18.053
-20.713
-23.268
-25.709
-28.039
-30.259
-32.356
-34.332
-36.197
-37.962
-39.643
-41.246
-42.764
-44.19
-45.516
-46.741
-47.878
-48.937
-49.923
-50.843
-51.698
-52.496
-53.247
-53.955
-54.616
-55.226
-55.781
-56.278
-56.722
-57.112
-57.449
-57.731
-57.953
-58.114
-58.212
-58.245
-58.208
-58.1
-57.915
-57.653
-57.314
-56.9
-56.411
-55.85
-55.217
-54.514
-53.746
-52.916
-52.027
-51.082
-50.085
-49.041
-47.956
-46.835
-45.684
-44.508
-43.314
-42.108
-40.897
-39.688
-38.485
-37.296
-36.128
-34.986
-33.877
-32.806
-31.781
-30.806
-29.887
-29.03
-28.239
-27.519
-26.873
-26.304
-25.815
-25.408
-25.083
-24.841
-24.683
-24.607
-24.612
-24.696
-24.858
-25.095
-25.402
-25.777
-26.215
-26.711
-27.261
-27.86
-28.501
-29.181
-29.893
-30.633
-31.394
-32.172
-32.961
-33.755
-34.549
-35.338
-36.117
-36.88
-37.622
-38.34
-39.029
-39.684
-40.303
-40.882
-41.419
-41.911
-42.357
-42.756
-43.106
-43.408
-43.66
-43.865
-44.022
-44.133
-44.201
-44.226
-44.212
-44.16
-44.074
-43.957
-43.81
-43.638
-43.442
-43.226
-42.992
-42.744
-42.484
-42.216
-41.941
-41.665
-41.388
-41.115
-40.849
-40.592
-40.348
-40.118
-39.906
-39.714
-39.543
-39.395
-39.272
-39.175
-39.105
-39.062
-39.048
-39.061
-39.103
-39.173
-39.271
-39.395
-39.546
-39.721
-39.921
-40.144
-40.391
-40.659
-40.949
-41.259
-41.588
-41.936
-42.302
-42.683
-43.076
-43.481
-43.895
-44.314
-44.736
-45.157
-45.572
-45.98
-46.379
-46.764
-47.132
-47.481
-47.806
-48.106
-48.377
-48.614
-48.812
-48.965
-49.069
-49.119
-49.111
-49.042
-48.908
-48.702
-48.424
-48.07
-47.639
-47.126
-46.521
-45.815
-45.005
-44.092
-43.085
-41.989
-40.807
-39.545
-38.212
-36.822
-35.383
-33.896
-32.352
-30.739
-29.059
-27.32
-25.541
-23.742
-21.933
-20.114
-18.282
-16.441
-14.597
-12.748
-10.881
-8.975
-7.031
-5.073
-3.155
-1.326
0.38
1.944
3.355
4.603
5.668
6.526
7.159
7.555
7.691
7.534
7.031
6.125
4.789
3.041
0.932
-1.477
-4.134
-6.994
-10.013
-13.142
-16.333
-19.541
-22.732
-25.872
-28.896
-31.729
-34.279
-36.456
-38.2
-39.5
-40.389
-40.926
-41.2
-41.294
-41.278
-41.247
-41.292
-41.514
-42.025
-42.925
-44.325
-46.38
-49.314
-53.263
-58.195
-63.86
-69.755
-75.336
-80.157
-83.749
-85.493
-84.982
-82.316
-78.128
-73.769
-70.672
-69.654
-71.302
-76.316
-84.912
-96.352
-108.797
-118.863
-122.727
-117.646
-101.083
-70.319
-23.166
41.863
123.138
215.023
311.538
407.168
500.508
594.904
688.58
775.305
842.593
870.913
849.77
778.464
663.166
518.971
360.869
201.2
56.259
-57.556
-131.825
-163.374
-161.778
-144.642
-121.664
-102.161
-87.851
-75.579
-69.292
-66.86
-66.821
-69.87
-71.685
-73.397
-76.657
-80.107
-83.896
-86.242
-85.503
-82.244
-77.121
-71.048
-64.934
-59.283
-54.62
-51.308
-49.456
-48.964
-49.549
-50.999
-53.169
-55.879
-58.947
-62.181
-65.39
-68.446
-71.252
-73.704
-75.736
-77.33
-78.493
-79.268
-79.705
-79.835
-79.683
-79.27
-78.593
-77.66
-76.489
-75.102
-73.543
-71.858
-70.094
-68.291
-66.469
-64.619
-62.711
-60.711
-58.586
-56.318
-53.902
-51.344
-48.673
-45.915
-43.092
-40.222
-37.309
-34.352
-31.347
-28.287
-25.166
-21.989
-18.768
-15.518
-12.252
-8.976
-5.688
-2.381
0.961
4.355
7.815
11.352
14.971
18.672
22.451
26.301
30.208
34.163
38.157
42.179
46.221
50.274
54.323
58.353
62.348
66.291
70.162
73.944
77.619
81.172
84.585
87.846
90.94
93.856
96.58
99.098
101.398
103.466
105.29
106.858
108.16
109.185
109.923
110.369
110.516
110.36
109.898
109.129
108.054
106.673
104.991
103.014
100.746
98.197
95.376
92.293
88.96
85.39
81.598
77.598
73.406
69.038
64.513
59.846
55.057
50.163
45.183
40.135
35.037
29.909
24.77
19.637
14.53
9.466
4.463
-0.462
-5.293
-10.015
-14.614
-19.075
-23.388
-27.54
-31.521
-35.322
-38.935
-42.354
-45.573
-48.59
-51.4
-54.003
-56.398
-58.587
-60.57
-62.352
-63.935
-65.324
-66.524
-67.541
-68.382
-69.054
-69.564
-69.92
-70.13
-70.204
-70.15
-69.976
-69.691
-69.305
-68.826
-68.263
-67.625
-66.92
-66.156
-65.341
-64.484
-63.59
-62.667
-61.719
-60.753
-59.771
-58.779
-57.778
-56.771
-55.761
-54.748
-53.734
-52.719
-51.703
-50.686
-49.666
-48.644
-47.617
-46.584
-45.545
-44.499
-43.444
-42.381
-41.307
-40.225
-39.132
-38.029
-36.915
-35.791
-34.656
-33.51
-32.353
-31.186
-30.009
-28.823
-27.629
-26.43
-25.229
-24.027
-22.828
-21.634
-20.45
-19.278
-18.121
-16.984
-15.871
-14.784
-13.728
-12.708
-11.726
-10.786
-9.89
-9.042
-8.241
-7.489
-6.786
-6.132
-5.525
-4.967
-4.455
-3.989
-3.568
-3.192
-2.859
-2.569
-2.32
-2.111
-1.939
-1.801
-1.693
-1.612
-1.552
-1.51
-1.48
-1.459
-1.441
-1.425
-1.408
-1.389
-1.365
-1.334
-1.294
-1.242
-1.176
-1.093
-0.992
-0.872
-0.733
-0.579
-0.421
-0.263
-0.108
0.047
0.208
0.386
0.59
0.826
1.11
1.446
1.836
2.272
2.733
3.199
3.655
4.093
4.519
4.938
5.338
5.708
6.029
6.265
6.392
6.38
6.179
5.758
5.105
4.225
3.161
1.97
0.689
-0.651
-2.041
-3.475
-4.928
-6.379
-7.801
-9.149
-10.391
-11.481
-12.343
-12.92
-13.182
-13.119
-12.784
-12.253
-11.57
-10.778
-9.9
-8.947
-7.943
-6.91
-5.86
-4.816
-3.794
-2.821
-1.963
-1.273
-0.777
-0.494
-0.374
-0.35
-0.385
-0.435
-0.474
-0.486
-0.447
-0.336
-0.156
0.095
0.417
0.815
1.324
1.976
2.785
3.767
4.894
6.128
7.45
8.832
10.25
11.688
13.122
14.529
15.906
17.251
18.557
19.819
21.015
22.127
23.14
24.037
24.813
25.466
25.99
26.382
26.637
26.754
26.73
26.568
26.266
25.822
25.235
24.499
23.604
22.541
21.307
19.895
18.303
16.536
14.599
12.507
10.291
7.98
5.607
3.203
0.789
-1.61
-3.96
-6.222
-8.343
-10.27
-11.966
-13.389
-14.509
-15.322
-15.841
-16.113
-16.217
-16.218
-16.191
-16.234
-16.446
-16.944
-17.839
-19.193
-21.117
-23.796
-27.33
-31.726
-36.805
-42.098
-47.178
-51.783
-55.507
-57.804
-58.298
-56.869
-54.008
-51.063
-49.198
-48.9
-50.916
-56.249
-65.282
-77.985
-91.868
-101.392
-103.65
-97.629
-83.881
-66.231
-41.065
-1.128
57.087
139.15
240.158
348.519
460.671
567.903
661.376
735.924
775.078
764.546
702.359
588.111
430.357
250.193
65.138
-102.887
-226.558
-297.601
-319.305
-303.489
-274.722
-244.928
-212.815
-178.338
-139.787
-101.923
-77.663
-70.648
-75.927
-86.985
-93.613
-92.321
-87.315
-80.594
-74.377
-69.366
-63.065
-55.068
-46.279
-37.297
-29.377
-23.422
-19.426
-17.363
-17.147
-18.397
-20.794
-24.103
-28.043
-32.327
-36.731
-41.032
-45.03
-48.637
-51.783
-54.382
-56.362
-57.638
-58.168
-57.959
-57.049
-55.483
-53.302
-50.565
-47.346
-43.757
-39.926
-35.964
-31.959
-27.968
-24.031
-20.188
-16.476
-12.926
-9.545
-6.329
-3.265
-0.343
2.44
5.097
7.651
10.137
12.6
15.072
17.58
20.139
22.764
25.469
28.265
31.161
34.153
37.241
40.422
43.694
47.058
50.514
54.061
57.697
61.419
65.219
69.092
73.032
77.029
81.068
85.128
89.179
93.199
97.172
101.085
104.934
108.711
112.407
116.017
119.535
122.957
126.288
129.521
132.645
135.66
138.572
141.404
144.203
146.995
149.789
152.587
155.379
158.156
160.907
163.597
166.17
168.575
170.752
172.656
174.258
175.506
176.348
176.715
176.514
175.686
174.194
172.003
169.085
165.42
160.985
155.814
149.979
143.549
136.606
129.223
121.466
113.431
105.217
96.918
88.642
80.467
72.453
64.676
57.209
50.123
43.494
37.345
31.658
26.421
21.605
17.175
13.096
9.298
5.712
2.291
-1.008
-4.211
-7.333
-10.411
-13.482
-16.578
-19.746
-23.001
-26.337
-29.757
-33.243
-36.772
-40.31
-43.799
-47.187
-50.442
-53.543
-56.478
-59.243
-61.821
-64.199
-66.368
-68.312
-70.021
-71.49
-72.712
-73.686
-74.425
-74.945
-75.272
-75.435
-75.447
-75.321
-75.066
-74.685
-74.184
-73.569
-72.838
-71.996
-71.047
-70
-68.863
-67.644
-66.347
-64.974
-63.528
-62.009
-60.419
-58.764
-57.046
-55.274
-53.453
-51.593
-49.704
-47.796
-45.877
-43.953
-42.031
-40.115
-38.212
-36.324
-34.456
-32.612
-30.795
-29.011
-27.263
-25.557
-23.895
-22.284
-20.725
-19.221
-17.774
-16.386
-15.059
-13.793
-12.591
-11.452
-10.379
-9.373
-8.437
-7.573
-6.782
-6.061
-5.41
-4.824
-4.3
-3.837
-3.429
-3.071
-2.759
-2.495
-2.282
-2.127
-2.032
-1.989
-1.99
-2.026
-2.09
-2.174
-2.266
-2.352
-2.422
-2.474
-2.519
-2.571
-2.636
-2.713
-2.786
-2.84
-2.869
-2.887
-2.911
-2.953
-3.028
-3.155
-3.369
-3.727
-4.261
-4.978
-5.857
-6.86
-7.966
-9.169
-10.476
-11.886
-13.383
-14.923
-16.464
-17.98
-19.439
-20.8
-21.991
-22.902
-23.458
-23.633
-23.438
-22.908
-22.062
-20.899
-19.425
-17.67
-15.692
-13.576
-11.404
-9.228
-7.102
-5.1
-3.331
-1.948
-1.071
-0.769
-1.083
-2.04
-3.685
-6.078
-9.25
-13.174
-17.789
-23.011
-28.756
-34.971
-41.597
-48.551
-55.72
-62.961
-70.155
-77.205
-84.013
-90.464
-96.41
-101.702
-106.231
-109.955
-112.863
-114.955
-116.232
-116.681
-116.302
-115.111
-113.139
-110.412
-106.944
-102.762
-97.931
-92.557
-86.795
-80.792
-74.662
-68.483
-62.321
-56.247
-50.341
-44.676
-39.316
-34.326
-29.786
-25.805
-22.503
-19.961
-18.22
-17.273
-17.076
-17.594
-18.804
-20.683
-23.195
-26.292
-29.911
-33.991
-38.472
-43.279
-48.305
-53.414
-58.463
-63.342
-67.969
-72.286
-76.248
-79.805
-82.906
-85.515
-87.622
-89.228
-90.36
-91.075
-91.432
-91.506
-91.386
-91.152
-90.891
-90.702
-90.667
-90.873
-91.421
-92.375
-93.841
-95.989
-98.823
-102.201
-105.831
-109.172
-111.728
-113.225
-113.249
-111.292
-107.313
-101.594
-94.878
-88.516
-83.503
-80.216
-79.17
-80.933
-85.248
-91.213
-96.969
-99.545
-96.462
-86.086
-66.734
-36.365
6.358
61.7
128.514
202.558
278.27
351.441
418.564
478.846
533.694
580.804
614.495
625.033
600.948
537.477
436.111
306.258
163.604
24.301
-93.576
-176.533
-220.009
-228.478
-216.565
-198.919
-183.965
-173.214
-161.577
-145.914
-127.543
-109.531
-96.061
-88.684
-86.065
-86.58
-88.407
-89.973
-90.269
-88.686
-85.095
-79.884
-73.738
-67.284
-61.061
-55.637
-51.543
-49.09
-48.351
-49.176
-51.252
-54.277
-57.987
-62.122
-66.435
-70.707
-74.758
-78.45
-81.711
-84.496
-86.759
-88.468
-89.585
-90.073
-89.931
-89.199
-87.93
-86.207
-84.124
-81.758
-79.189
-76.501
-73.767
-71.049
-68.39
-65.803
-63.295
-60.874
-58.552
-56.343
-54.254
-52.271
-50.374
-48.538
-46.73
-44.921
-43.084
-41.184
-39.194
-37.094
-34.868
-32.511
-30.027
-27.412
-24.663
-21.774
-18.738
-15.547
-12.2
-8.697
-5.043
-1.248
2.673
6.697
10.8
14.958
19.15
23.362
27.589
31.83
36.086
40.359
44.642
48.917
53.169
57.384
61.551
65.663
69.725
73.747
77.747
81.75
85.768
89.8
93.822
97.796
101.668
105.38
108.882
112.141
115.125
117.807
120.159
122.155
123.757
124.923
125.603
125.732
125.268
124.184
122.485
120.202
117.387
114.113
110.44
106.424
102.112
97.545
92.761
87.798
82.699
77.509
72.287
67.105
62.025
57.098
52.353
47.796
43.42
39.198
35.11
31.14
27.279
23.526
19.883
16.357
12.956
9.689
6.554
3.538
0.633
-2.172
-4.878
-7.478
-9.96
-12.305
-14.496
-16.519
-18.365
-20.031
-21.519
-22.835
-23.99
-24.999
-25.873
-26.62
-27.25
-27.768
-28.183
-28.506
-28.748
-28.92
-29.034
-29.104
-29.14
-29.153
-29.152
-29.143
-29.132
-29.122
-29.117
-29.121
-29.135
-29.164
-29.208
-29.27
-29.352
-29.454
-29.576
-29.718
-29.879
-30.055
-30.243
-30.438
-30.637
-30.833
-31.019
-31.192
-31.344
-31.469
-31.563
-31.622
-31.64
-31.616
-31.547
-31.43
-31.263
-31.045
-30.774
-30.449
-30.068
-29.631
-29.136
-28.586
-27.981
-27.325
-26.622
-25.877
-25.095
-24.283
-23.448
-22.598
-21.74
-20.878
-20.02
-19.173
-18.347
-17.556
-16.811
-16.119
-15.488
-14.923
-14.422
-13.985
-13.607
-13.268
-12.957
-12.657
-12.355
-12.053
-11.75
-11.446
-11.142
-10.836
-10.534
-10.25
-10.004
-9.812
-9.697
-9.683
-9.806
-10.125
-10.693
-11.56
-12.771
-14.341
-16.272
-18.562
-21.196
-24.145
-27.375
-30.816
-34.392
-38.033
-41.662
-45.194
-48.535
-51.545
-54.09
-56.049
-57.306
-57.784
-57.433
-56.211
-54.104
-51.127
-47.313
-42.736
-37.495
-31.676
-25.379
-18.721
-11.84
-4.925
1.822
8.222
14.098
19.304
23.717
27.216
29.715
31.165
31.542
30.854
29.129
26.392
22.688
18.092
12.711
6.703
0.247
-6.494
-13.356
-20.177
-26.806
-33.076
-38.859
-44.056
-48.589
-52.394
-55.406
-57.565
-58.832
-59.205
-58.711
-57.416
-55.401
-52.739
-49.518
-45.834
-41.794
-37.52
-33.105
-28.62
-24.126
-19.683
-15.368
-11.251
-7.384
-3.798
-0.502
2.504
5.229
7.678
9.873
11.847
13.638
15.296
16.847
18.304
19.674
20.96
22.177
23.336
24.437
25.473
26.432
27.301
28.067
28.713
29.211
29.535
29.653
29.532
29.153
28.51
27.612
26.487
25.168
23.687
22.082
20.386
18.633
16.863
15.113
13.424
11.838
10.383
9.091
7.999
7.121
6.455
5.958
5.519
5.027
4.369
3.441
2.179
0.496
-1.723
-4.576
-8.166
-12.578
-17.808
-23.913
-31.032
-39.125
-48.019
-57.306
-66.229
-74.107
-80.476
-84.751
-86.359
-85.118
-81.087
-75.022
-68.495
-62.779
-58.783
-57.397
-59.014
-63.262
-69.207
-74.447
-75.313
-68.632
-51.365
-20.463
26.011
88.865
166.314
252.882
342.316
429.592
513.455
594.542
668.802
727.865
757.816
744.564
685.136
583.438
449.214
299.124
146.102
4.582
-107.803
-184.445
-222.579
-226.074
-208.804
-176.11
-134.417
-92.688
-53.662
-26.413
-14.517
-11.816
-15.633
-20.216
-22.697
-27.265
-34.261
-43.348
-54.082
-63.064
-68.629
-70.608
-68.962
-64.951
-60.317
-56.109
-52.892
-50.924
-50.123
-50.5
-52.099
-54.639
-57.551
-60.343
-62.696
-64.449
-65.6
-66.112
-65.924
-65.07
-63.641
-61.757
-59.526
-57.03
-54.35
-51.571
-48.792
-46.122
-43.638
-41.388
-39.425
-37.798
-36.529
-35.638
-35.081
-34.758
-34.597
-34.524
-34.465
-34.366
-34.133
-33.679
-32.942
-31.861
-30.395
-28.532
-26.235
-23.47
-20.231
-16.506
-12.335
-7.814
-3.005
2.037
7.262
12.639
18.123
23.662
29.229
34.813
40.402
45.994
51.568
57.084
62.514
67.825
73
78.059
83.01
87.855
92.599
97.244
101.796
106.269
110.666
114.964
119.145
123.193
127.095
130.857
134.491
138.017
141.459
144.84
148.164
151.43
154.624
157.709
160.646
163.379
165.846
168.007
169.829
171.279
172.337
172.979
173.164
172.851
171.982
170.489
168.332
165.486
161.943
157.727
152.881
147.463
141.564
135.261
128.615
121.685
114.515
107.142
99.625
92.017
84.384
76.807
69.35
62.066
55.004
48.188
41.624
35.307
29.202
23.279
17.527
11.936
6.509
1.256
-3.824
-8.729
-13.454
-18.008
-22.397
-26.623
-30.696
-34.614
-38.365
-41.937
-45.304
-48.442
-51.34
-53.99
-56.388
-58.539
-60.445
-62.114
-63.56
-64.791
-65.818
-66.649
-67.29
-67.751
-68.043
-68.181
-68.179
-68.052
-67.814
-67.477
-67.054
-66.556
-65.991
-65.367
-64.692
-63.97
-63.21
-62.419
-61.604
-60.773
-59.931
-59.087
-58.245
-57.412
-56.593
-55.791
-55.01
-54.252
-53.52
-52.816
-52.142
-51.498
-50.885
-50.302
-49.75
-49.228
-48.735
-48.27
-47.834
-47.423
-47.039
-46.68
-46.344
-46.033
-45.744
-45.477
-45.232
-45.007
-44.803
-44.619
-44.453
-44.304
-44.172
-44.055
-43.952
-43.861
-43.781
-43.71
-43.647
-43.591
-43.539
-43.49
-43.443
-43.396
-43.348
-43.297
-43.243
-43.184
-43.118
-43.045
-42.962
-42.867
-42.76
-42.638
-42.498
-42.34
-42.16
-41.957
-41.73
-41.475
-41.193
-40.88
-40.536
-40.159
-39.749
-39.304
-38.826
-38.314
-37.769
-37.193
-36.586
-35.951
-35.291
-34.607
-33.904
-33.184
-32.45
-31.706
-30.956
-30.205
-29.455
-28.712
-27.981
-27.267
-26.573
-25.906
-25.27
-24.671
-24.112
-23.6
-23.137
-22.73
-22.381
-22.095
-21.875
-21.725
-21.647
-21.642
-21.712
-21.858
-22.078
-22.372
-22.737
-23.171
-23.669
-24.227
-24.841
-25.505
-26.213
-26.958
-27.733
-28.53
-29.343
-30.161
-30.977
-31.781
-32.564
-33.318
-34.034
-34.703
-35.316
-35.865
-36.342
-36.741
-37.053
-37.273
-37.394
-37.411
-37.32
-37.118
-36.803
-36.374
-35.831
-35.18
-34.424
-33.57
-32.626
-31.6
-30.502
-29.343
-28.134
-26.885
-25.606
-24.309
-23.007
-21.714
-20.447
-19.219
-18.044
-16.935
-15.906
-14.969
-14.133
-13.407
-12.794
-12.302
-11.942
-11.732
-11.692
-11.834
-12.167
-12.696
-13.419
-14.332
-15.423
-16.669
-18.042
-19.513
-21.053
-22.643
-24.261
-25.874
-27.445
-28.916
-30.225
-31.331
-32.195
-32.789
-33.116
-33.181
-33.009
-32.661
-32.185
-31.65
-31.15
-30.767
-30.6
-30.762
-31.319
-32.413
-34.25
-36.889
-40.307
-44.323
-48.511
-52.533
-56.187
-59.125
-60.961
-61.495
-60.635
-58.819
-57.042
-56.031
-56.206
-57.825
-60.917
-65.451
-71.247
-77.143
-81.05
-80.864
-74.649
-61.05
-38.943
-6.855
36.663
92.353
158.315
230.331
304.519
377.121
448.396
522.513
597.935
669.594
726.422
749.82
730.333
666.086
560.756
428.928
284.721
142.662
21.816
-64.532
-110.688
-120.646
-110.07
-93.931
-80.881
-72.5
-63.43
-51.093
-36.914
-23.792
-16.216
-15.66
-20.512
-28.905
-38.36
-46.464
-52.217
-55.185
-55.219
-52.936
-49.097
-44.34
-39.505
-35.447
-32.587
-31.094
-30.977
-31.969
-33.851
-36.471
-39.607
-43.05
-46.651
-50.284
-53.85
-57.283
-60.483
-63.326
-65.733
-67.647
-69.047
-69.94
-70.344
-70.285
-69.797
-68.932
-67.733
-66.242
-64.497
-62.538
-60.408
-58.159
-55.845
-53.517
-51.215
-48.964
-46.778
-44.661
-42.61
-40.617
-38.669
-36.747
-34.838
-32.93
-31.016
-29.087
-27.132
-25.14
-23.098
-20.993
-18.816
-16.558
-14.212
-11.772
-9.234
-6.597
-3.861
-1.026
1.907
4.938
8.066
11.291
14.611
18.022
21.523
25.107
28.77
32.503
36.298
40.144
44.031
47.948
51.882
55.819
59.745
63.646
67.507
71.31
75.04
78.68
82.211
85.618
88.884
91.99
94.921
97.661
100.194
102.507
104.586
106.419
107.994
109.3
110.331
111.077
111.532
111.693
111.556
111.118
110.38
109.344
108.011
106.386
104.476
102.285
99.824
97.101
94.127
90.914
87.475
83.823
79.974
75.944
71.748
67.405
62.931
58.346
53.667
48.912
44.102
39.253
34.384
29.513
24.658
19.835
15.06
10.35
5.718
1.179
-3.256
-7.573
-11.762
-15.814
-19.719
-23.469
-27.057
-30.477
-33.724
-36.794
-39.684
-42.392
-44.915
-47.255
-49.41
-51.384
-53.177
-54.793
-56.235
-57.508
-58.616
-59.566
-60.362
-61.013
-61.524
-61.903
-62.157
-62.295
-62.322
-62.248
-62.079
-61.823
-61.486
-61.077
-60.602
-60.067
-59.48
-58.846
-58.172
-57.463
-56.726
-55.965
-55.186
-54.394
-53.593
-52.789
-51.985
-51.187
-50.398
-49.622
-48.863
-48.124
-47.409
-46.719
-46.058
-45.428
-44.831
-44.268
-43.741
-43.252
-42.801
-42.39
-42.02
-41.69
-41.402
-41.155
-40.951
-40.789
-40.669
-40.592
-40.556
-40.563
-40.611
-40.699
-40.828
-40.997
-41.203
-41.446
-41.725
-42.037
-42.381
-42.754
-43.153
-43.578
-44.023
-44.488
-44.969
-45.464
-45.97
-46.483
-47.001
-47.523
-48.044
-48.563
-49.077
-49.585
-50.084
-50.573
-51.049
-51.512
-51.958
-52.388
-52.799
-53.19
-53.559
-53.906
-54.229
-54.526
-54.798
-55.044
-55.263
-55.455
-55.62
-55.758
-55.87
-55.956
-56.018
-56.056
-56.072
-56.068
-56.045
-56.007
-55.954
-55.889
-55.813
-55.728
-55.636
-55.539
-55.438
-55.333
-55.227
-55.121
-55.017
-54.915
-54.819
-54.728
-54.645
-54.572
-54.509
-54.459
-54.422
-54.401
-54.396
-54.409
-54.443
-54.496
-54.572
-54.669
-54.789
-54.929
-55.089
-55.267
-55.46
-55.665
-55.878
-56.099
-56.323
-56.549
-56.774
-56.997
-57.217
-57.431
-57.637
-57.83
-58.006
-58.159
-58.283
-58.374
-58.424
-58.426
-58.374
-58.266
-58.097
-57.862
-57.555
-57.164
-56.683
-56.109
-55.443
-54.685
-53.839
-52.909
-51.908
-50.858
-49.777
-48.688
-47.601
-46.516
-45.437
-44.367
-43.313
-42.283
-41.273
-40.264
-39.245
-38.209
-37.148
-36.053
-34.9
-33.643
-32.247
-30.69
-28.967
-27.099
-25.104
-22.996
-20.803
-18.562
-16.328
-14.19
-12.209
-10.432
-8.907
-7.676
-6.802
-6.372
-6.445
-7.044
-8.173
-9.799
-11.894
-14.436
-17.37
-20.621
-24.09
-27.642
-31.176
-34.622
-37.903
-40.957
-43.713
-46.083
-48.023
-49.553
-50.722
-51.604
-52.277
-52.793
-53.215
-53.642
-54.2
-55.029
-56.247
-57.944
-60.169
-62.988
-66.534
-70.809
-75.658
-80.768
-85.557
-89.428
-91.938
-92.494
-90.413
-85.516
-77.929
-68.151
-57.519
-47.205
-38.02
-31.315
-28.228
-28.594
-31.56
-35.374
-36.81
-32.889
-20.876
3.22
43.215
99.19
168.438
247.809
331.744
419.873
517.211
620.044
721.556
808.252
855.093
849.608
787.906
672.638
525.771
366.825
214.872
92.863
7.231
-40.842
-57.157
-60.101
-59.162
-58.504
-59.261
-54.364
-42.596
-28.024
-13.885
-4.914
-3.024
-6.588
-13.979
-23.522
-33.18
-41.313
-47.032
-49.901
-50.1
-48.361
-45.363
-41.666
-38.009
-35.121
-33.379
-32.937
-33.707
-35.376
-37.69
-40.449
-43.428
-46.42
-49.273
-51.863
-54.097
-55.927
-57.293
-58.137
-58.439
-58.188
-57.392
-56.089
-54.34
-52.238
-49.905
-47.46
-44.988
-42.554
-40.211
-38.003
-35.974
-34.146
-32.514
-31.049
-29.723
-28.513
-27.402
-26.365
-25.356
-24.31
-23.148
-21.806
-20.241
-18.425
-16.336
-13.954
-11.272
-8.3
-5.077
-1.652
1.937
5.667
9.527
13.503
17.575
21.718
25.903
30.116
34.346
38.584
42.819
47.038
51.236
55.418
59.6
63.8
68.027
72.28
76.553
80.838
85.125
89.404
93.659
97.869
102.015
106.079
110.046
113.9
117.625
121.202
124.607
127.821
130.825
133.602
136.135
138.411
140.415
142.137
143.568
144.703
145.536
146.059
146.269
146.16
145.731
144.979
143.904
142.508
140.794
138.767
136.434
133.805
130.89
127.701
124.25
120.553
116.625
112.481
108.138
103.615
98.928
94.097
89.141
84.079
78.93
73.714
68.45
63.157
57.853
52.556
47.284
42.053
36.88
31.781
26.771
21.864
17.075
12.416
7.898
3.534
-0.669
-4.702
-8.559
-12.233
-15.722
-19.022
-22.13
-25.048
-27.775
-30.312
-32.661
-34.826
-36.81
-38.618
-40.256
-41.728
-43.042
-44.203
-45.22
-46.098
-46.846
-47.472
-47.982
-48.385
-48.689
-48.902
-49.032
-49.087
-49.076
-49.006
-48.884
-48.717
-48.513
-48.276
-48.013
-47.728
-47.427
-47.112
-46.787
-46.456
-46.121
-45.785
-45.448
-45.113
-44.781
-44.452
-44.128
-43.808
-43.494
-43.185
-42.881
-42.583
-42.291
-42.004
-41.724
-41.448
-41.179
-40.913
-40.652
-40.395
-40.14
-39.888
-39.638
-39.389
-39.142
-38.896
-38.652
-38.409
-38.17
-37.933
-37.701
-37.473
-37.252
-37.039
-36.833
-36.637
-36.453
-36.28
-36.121
-35.976
-35.847
-35.732
-35.634
-35.553
-35.488
-35.439
-35.407
-35.391
-35.391
-35.408
-35.441
-35.49
-35.555
-35.637
-35.734
-35.847
-35.974
-36.116
-36.272
-36.44
-36.621
-36.812
-37.012
-37.221
-37.436
-37.657
-37.882
-38.109
-38.336
-38.562
-38.787
-39.007
-39.224
-39.435
-39.64
-39.839
-40.031
-40.216
-40.393
-40.563
-40.725
-40.878
-41.022
-41.158
-41.284
-41.4
-41.506
-41.602
-41.688
-41.763
-41.828
-41.882
-41.927
-41.963
-41.99
-42.009
-42.022
-42.029
-42.032
-42.032
-42.031
-42.029
-42.03
-42.033
-42.041
-42.054
-42.073
-42.1
-42.135
-42.18
-42.235
-42.302
-42.381
-42.475
-42.584
-42.709
-42.851
-43.012
-43.193
-43.394
-43.615
-43.859
-44.123
-44.41
-44.717
-45.046
-45.394
-45.76
-46.143
-46.54
-46.949
-47.368
-47.792
-48.219
-48.645
-49.066
-49.479
-49.878
-50.259
-50.619
-50.953
-51.254
-51.519
-51.742
-51.918
-52.041
-52.104
-52.104
-52.033
-51.886
-51.659
-51.346
-50.943
-50.445
-49.85
-49.154
-48.355
-47.451
-46.441
-45.325
-44.105
-42.781
-41.357
-39.836
-38.223
-36.524
-34.745
-32.896
-30.985
-29.023
-27.021
-24.991
-22.948
-20.902
-18.868
-16.859
-14.888
-12.969
-11.116
-9.343
-7.666
-6.1
-4.661
-3.363
-2.22
-1.242
-0.436
0.19
0.632
0.884
0.935
0.776
0.401
-0.197
-1.022
-2.073
-3.346
-4.82
-6.463
-8.242
-10.124
-12.075
-14.069
-16.075
-18.058
-19.984
-21.805
-23.477
-24.962
-26.216
-27.201
-27.892
-28.28
-28.408
-28.35
-28.186
-27.992
-27.818
-27.717
-27.776
-28.094
-28.775
-29.932
-31.624
-33.941
-37.054
-41.022
-45.759
-51.005
-56.187
-60.697
-64.111
-65.938
-65.626
-62.974
-58.069
-51.49
-44.627
-38.798
-34.869
-33.672
-35.787
-41.07
-48.721
-56.893
-62.231
-61.327
-51.376
-29.485
6.761
58.791
127.237
209.644
300.004
392.605
481.462
564.191
642.996
714.842
775.299
815.258
817.677
776.012
688.485
557.562
402.726
241.576
93.1
-18.082
-84.831
-108.793
-99.667
-79.617
-61.286
-49.099
-42.966
-35.893
-26.092
-16.089
-8.258
-6.074
-10.004
-17.887
-27.86
-37.631
-45.27
-50.155
-52.073
-51.235
-48.386
-44.279
-39.588
-35.081
-31.453
-29.037
-27.941
-28.087
-29.224
-31.147
-33.686
-36.645
-39.832
-43.1
-46.336
-49.441
-52.338
-54.927
-57.096
-58.775
-59.927
-60.545
-60.645
-60.255
-59.405
-58.14
-56.515
-54.572
-52.347
-49.871
-47.167
-44.278
-41.26
-38.172
-35.069
-31.994
-28.972
-26.022
-23.163
-20.409
-17.767
-15.232
-12.799
-10.474
-8.283
-6.268
-4.467
-2.892
-1.532
-0.366
0.63
1.481
2.224
2.907
3.6
4.365
5.249
6.284
7.501
8.945
10.683
12.799
15.358
18.397
21.931
25.958
30.478
35.472
40.898
46.686
52.739
58.976
65.334
71.762
78.214
84.626
90.921
97.011
102.828
108.321
113.449
118.179
122.474
126.315
129.703
132.665
135.242
137.463
139.34
140.875
142.071
142.936
143.488
143.742
143.703
143.374
142.76
141.867
140.705
139.281
137.589
135.615
133.343
130.767
127.89
124.722
121.274
117.559
113.591
109.39
104.98
100.387
95.633
90.738
85.723
80.61
75.423
70.19
64.936
59.685
54.458
49.275
44.157
39.12
34.18
29.352
24.645
20.07
15.639
11.361
7.246
3.3
-0.471
-4.062
-7.471
-10.695
-13.733
-16.589
-19.263
-21.76
-24.084
-26.24
-28.235
-30.075
-31.769
-33.324
-34.749
-36.052
-37.242
-38.327
-39.317
-40.219
-41.042
-41.792
-42.477
-43.105
-43.681
-44.212
-44.703
-45.159
-45.585
-45.986
-46.364
-46.723
-47.064
-47.389
-47.698
-47.993
-48.273
-48.537
-48.783
-49.012
-49.22
-49.405
-49.566
-49.699
-49.801
-49.871
-49.906
-49.903
-49.86
-49.777
-49.651
-49.483
-49.271
-49.016
-48.719
-48.379
-47.999
-47.58
-47.123
-46.63
-46.103
-45.546
-44.962
-44.353
-43.724
-43.078
-42.42
-41.753
-41.083
-40.414
-39.75
-39.095
-38.454
-37.831
-37.231
-36.657
-36.113
-35.603
-35.129
-34.694
-34.301
-33.95
-33.642
-33.377
-33.156
-32.978
-32.842
-32.746
-32.688
-32.668
-32.683
-32.73
-32.808
-32.914
-33.044
-33.197
-33.369
-33.558
-33.761
-33.975
-34.197
-34.427
-34.66
-34.895
-35.131
-35.365
-35.595
-35.821
-36.041
-36.254
-36.46
-36.659
-36.85
-37.036
-37.216
-37.392
-37.565
-37.738
-37.913
-38.091
-38.275
-38.467
-38.668
-38.881
-39.108
-39.35
-39.609
-39.886
-40.181
-40.495
-40.829
-41.182
-41.555
-41.945
-42.352
-42.775
-43.213
-43.663
-44.124
-44.594
-45.071
-45.553
-46.036
-46.519
-46.999
-47.474
-47.94
-48.394
-48.835
-49.259
-49.663
-50.046
-50.405
-50.739
-51.045
-51.323
-51.572
-51.791
-51.98
-52.139
-52.27
-52.374
-52.453
-52.508
-52.543
-52.56
-52.563
-52.556
-52.541
-52.523
-52.504
-52.49
-52.483
-52.487
-52.505
-52.539
-52.593
-52.669
-52.768
-52.892
-53.042
-53.218
-53.42
-53.649
-53.902
-54.179
-54.477
-54.794
-55.126
-55.47
-55.82
-56.173
-56.522
-56.86
-57.182
-57.481
-57.748
-57.976
-58.157
-58.283
-58.345
-58.336
-58.248
-58.073
-57.803
-57.432
-56.954
-56.364
-55.656
-54.829
-53.878
-52.802
-51.602
-50.277
-48.829
-47.261
-45.576
-43.78
-41.879
-39.88
-37.791
-35.623
-33.387
-31.095
-28.763
-26.404
-24.036
-21.675
-19.339
-17.045
-14.813
-12.657
-10.597
-8.649
-6.83
-5.156
-3.644
-2.31
-1.17
-0.237
0.476
0.96
1.209
1.221
0.992
0.521
-0.198
-1.169
-2.392
-3.871
-5.603
-7.583
-9.8
-12.232
-14.842
-17.593
-20.444
-23.357
-26.295
-29.221
-32.091
-34.862
-37.481
-39.898
-42.067
-43.94
-45.473
-46.634
-47.413
-47.843
-47.998
-47.962
-47.811
-47.608
-47.414
-47.323
-47.457
-47.917
-48.788
-50.127
-52.006
-54.611
-58.057
-62.267
-66.964
-71.663
-75.867
-79.213
-81.253
-81.307
-78.936
-74.168
-67.588
-60.354
-53.378
-47.449
-43.727
-43.227
-46.636
-52.427
-56.362
-55.914
-49.903
-39.134
-27.641
-11.072
19.794
70.885
150.498
254.976
371.366
494.664
616.179
727.622
824.448
890.457
908.89
873.9
784.735
650.911
491.392
322.044
159.094
21.451
-78.378
-135.761
-155.211
-150.635
-136.829
-120.082
-98.491
-70.919
-39.269
-10.748
2.559
-2.038
-18.287
-38.826
-53.584
-59.335
-60.475
-59.196
-57.798
-57.067
-54.579
-49.982
-44.258
-38.061
-32.6
-28.64
-26.073
-24.818
-24.827
-25.815
-27.533
-29.821
-32.472
-35.322
-38.292
-41.259
-44.08
-46.651
-48.855
-50.601
-51.842
-52.551
-52.725
-52.388
-51.572
-50.322
-48.691
-46.721
-44.45
-41.903
-39.116
-36.141
-33.041
-29.886
-26.748
-23.675
-20.705
-17.867
-15.18
-12.655
-10.294
-8.085
-6.024
-4.121
-2.4
-0.909
0.325
1.303
2.035
2.549
2.881
3.066
3.155
3.216
3.303
3.468
3.75
4.169
4.763
5.584
6.698
8.192
10.125
12.529
15.422
18.805
22.662
26.968
31.666
36.669
41.906
47.319
52.861
58.507
64.209
69.908
75.537
81.018
86.284
91.291
95.992
100.349
104.341
107.961
111.228
114.184
116.857
119.253
121.372
123.201
124.738
125.993
126.972
127.683
128.14
128.357
128.363
128.188
127.842
127.321
126.603
125.653
124.449
122.98
121.236
119.204
116.87
114.223
111.265
107.999
104.417
100.49
96.171
91.419
86.221
80.585
74.544
68.133
61.394
54.38
47.161
39.823
32.45
25.105
17.837
10.694
3.739
-2.938
-9.231
-15.049
-20.33
-25.038
-29.157
-32.674
-35.598
-37.964
-39.837
-41.306
-42.446
-43.31
-43.934
-44.356
-44.625
-44.81
-44.991
-45.229
-45.568
-46.041
-46.671
-47.48
-48.469
-49.617
-50.876
-52.185
-53.498
-54.789
-56.043
-57.249
-58.39
-59.445
-60.392
-61.223
-61.932
-62.515
-62.967
-63.283
-63.467
-63.536
-63.518
-63.447
-63.346
-63.227
-63.1
-62.97
-62.842
-62.719
-62.601
-62.481
-62.353
-62.217
-62.072
-61.921
-61.762
-61.591
-61.402
-61.19
-60.951
-60.683
-60.386
-60.059
-59.702
-59.317
-58.906
-58.475
-58.027
-57.563
-57.085
-56.592
-56.087
-55.568
-55.038
-54.496
-53.943
-53.379
-52.808
-52.229
-51.648
-51.065
-50.483
-49.906
-49.336
-48.777
-48.231
-47.7
-47.186
-46.692
-46.217
-45.764
-45.332
-44.921
-44.531
-44.162
-43.812
-43.482
-43.169
-42.872
-42.592
-42.327
-42.077
-41.841
-41.62
-41.412
-41.22
-41.042
-40.879
-40.731
-40.598
-40.479
-40.372
-40.278
-40.193
-40.117
-40.048
-39.983
-39.92
-39.859
-39.797
-39.733
-39.667
-39.597
-39.523
-39.446
-39.366
-39.282
-39.196
-39.107
-39.015
-38.921
-38.825
-38.725
-38.622
-38.515
-38.401
-38.279
-38.149
-38.007
-37.852
-37.682
-37.495
-37.29
-37.067
-36.823
-36.558
-36.274
-35.968
-35.643
-35.298
-34.935
-34.552
-34.151
-33.733
-33.297
-32.844
-32.374
-31.887
-31.383
-30.863
-30.327
-29.776
-29.212
-28.635
-28.048
-27.453
-26.854
-26.254
-25.656
-25.066
-24.487
-23.924
-23.381
-22.864
-22.378
-21.925
-21.512
-21.14
-20.814
-20.537
-20.312
-20.14
-20.025
-19.967
-19.969
-20.032
-20.158
-20.347
-20.6
-20.919
-21.302
-21.751
-22.264
-22.84
-23.477
-24.172
-24.923
-25.725
-26.573
-27.462
-28.386
-29.337
-30.31
-31.295
-32.285
-33.271
-34.244
-35.195
-36.115
-36.995
-37.826
-38.6
-39.308
-39.942
-40.494
-40.956
-41.322
-41.584
-41.735
-41.768
-41.679
-41.46
-41.108
-40.618
-39.987
-39.213
-38.294
-37.23
-36.021
-34.67
-33.178
-31.551
-29.793
-27.91
-25.911
-23.804
-21.599
-19.307
-16.942
-14.518
-12.049
-9.551
-7.043
-4.54
-2.06
0.378
2.76
5.067
7.283
9.392
11.378
13.224
14.913
16.429
17.755
18.878
19.783
20.46
20.905
21.112
21.076
20.795
20.259
19.463
18.404
17.076
15.48
13.619
11.504
9.159
6.622
3.928
1.118
-1.77
-4.706
-7.652
-10.57
-13.42
-16.153
-18.717
-21.07
-23.161
-24.948
-26.403
-27.518
-28.33
-28.913
-29.341
-29.689
-30.008
-30.347
-30.792
-31.444
-32.402
-33.78
-35.643
-38.089
-41.309
-45.367
-50.173
-55.458
-60.648
-65.129
-68.473
-70.171
-69.617
-66.59
-61.205
-54.085
-46.669
-40.33
-35.969
-34.487
-36.601
-42.253
-50.601
-59.696
-66.096
-66.218
-56.965
-35.263
1.535
55.022
125.341
210.749
307.285
409.824
512.546
608.816
691.631
753.945
791.31
802.405
786.909
746.413
680.199
584.382
461.692
320.551
177.04
55.812
-27.88
-70.392
-78.905
-71.884
-61.926
-54.044
-48.463
-40.257
-29.053
-17.857
-9.322
-6.774
-10.691
-19.139
-30.446
-42.305
-52.419
-59.844
-64.16
-65.343
-64.018
-60.828
-56.313
-51.275
-46.585
-42.698
-39.821
-37.942
-36.802
-36.22
-36.076
-36.202
-36.429
-36.634
-36.731
-36.701
-36.589
-36.432
-36.251
-36.046
-35.786
-35.468
-35.107
-34.736
-34.4
-34.132
-33.957
-33.893
-33.96
-34.18
-34.558
-35.073
-35.673
-36.276
-36.803
-37.203
-37.448
-37.513
-37.367
-36.976
-36.308
-35.348
-34.096
-32.547
-30.695
-28.529
-26.052
-23.287
-20.278
-17.088
-13.769
-10.359
-6.882
-3.355
0.207
3.79
7.39
11.014
14.674
18.375
22.117
25.894
29.707
33.563
37.475
41.459
45.528
49.683
53.924
58.246
62.641
67.098
71.601
76.125
80.648
85.148
89.606
94.006
98.327
102.549
106.65
110.608
114.405
118.021
121.437
124.635
127.6
130.314
132.765
134.943
136.837
138.436
139.731
140.716
141.383
141.729
141.75
141.444
140.813
139.856
138.578
136.984
135.081
132.876
130.379
127.6
124.55
121.244
117.696
113.919
109.929
105.745
101.382
96.858
92.192
87.401
82.506
77.524
72.475
67.377
62.25
57.112
51.98
46.872
41.804
36.792
31.85
26.992
22.23
17.577
13.041
8.633
4.361
0.232
-3.748
-7.573
-11.241
-14.747
-18.09
-21.268
-24.281
-27.13
-29.816
-32.341
-34.707
-36.919
-38.979
-40.893
-42.665
-44.302
-45.808
-47.19
-48.456
-49.61
-50.661
-51.614
-52.477
-53.255
-53.955
-54.581
-55.139
-55.633
-56.068
-56.448
-56.775
-57.052
-57.282
-57.466
-57.607
-57.705
-57.762
-57.777
-57.752
-57.687
-57.581
-57.436
-57.251
-57.027
-56.763
-56.461
-56.119
-55.739
-55.32
-54.863
-54.367
-53.834
-53.263
-52.656
-52.012
-51.334
-50.622
-49.878
-49.104
-48.303
-47.476
-46.627
-45.759
-44.876
-43.982
-43.08
-42.175
-41.273
-40.376
-39.491
-38.621
-37.771
-36.944
-36.146
-35.378
-34.644
-33.947
-33.289
-32.672
-32.097
-31.566
-31.079
-30.638
-30.241
-29.889
-29.582
-29.319
-29.099
-28.92
-28.781
-28.682
-28.619
-28.591
-28.596
-28.631
-28.693
-28.78
-28.887
-29.011
-29.15
-29.298
-29.454
-29.612
-29.771
-29.927
-30.078
-30.221
-30.354
-30.476
-30.585
-30.681
-30.763
-30.831
-30.887
-30.93
-30.964
-30.988
-31.005
-31.017
-31.026
-31.034
-31.043
-31.055
-31.072
-31.096
-31.129
-31.173
-31.231
-31.303
-31.393
-31.502
-31.633
-31.786
-31.963
-32.166
-32.396
-32.653
-32.94
-33.255
-33.6
-33.974
-34.376
-34.806
-35.262
-35.743
-36.244
-36.764
-37.299
-37.845
-38.399
-38.956
-39.513
-40.066
-40.611
-41.145
-41.664
-42.165
-42.646
-43.103
-43.535
-43.938
-44.31
-44.651
-44.957
-45.23
-45.466
-45.666
-45.829
-45.955
-46.043
-46.093
-46.107
-46.083
-46.023
-45.93
-45.803
-45.647
-45.464
-45.259
-45.034
-44.796
-44.547
-44.293
-44.038
-43.787
-43.544
-43.313
-43.097
-42.901
-42.726
-42.577
-42.455
-42.361
-42.298
-42.265
-42.264
-42.293
-42.352
-42.44
-42.555
-42.696
-42.86
-43.046
-43.251
-43.473
-43.708
-43.951
-44.2
-44.447
-44.688
-44.917
-45.125
-45.305
-45.451
-45.554
-45.607
-45.603
-45.534
-45.393
-45.175
-44.872
-44.48
-43.995
-43.411
-42.727
-41.941
-41.052
-40.06
-38.968
-37.777
-36.492
-35.118
-33.662
-32.129
-30.529
-28.869
-27.161
-25.416
-23.644
-21.856
-20.067
-18.29
-16.539
-14.83
-13.177
-11.597
-10.106
-8.723
-7.466
-6.351
-5.392
-4.601
-3.988
-3.566
-3.345
-3.337
-3.553
-3.999
-4.68
-5.605
-6.774
-8.183
-9.818
-11.65
-13.648
-15.783
-18.022
-20.342
-22.711
-25.095
-27.457
-29.76
-31.966
-34.043
-35.952
-37.652
-39.12
-40.345
-41.345
-42.187
-42.943
-43.683
-44.478
-45.373
-46.423
-47.72
-49.356
-51.419
-54.001
-57.152
-60.956
-65.581
-71.062
-77.284
-83.957
-90.497
-96.309
-100.97
-103.984
-104.765
-103.042
-98.848
-92.685
-85.841
-79.613
-74.861
-72.373
-72.775
-76.087
-81.641
-87.815
-91.608
-89.637
-78.974
-56.993
-21.379
29.561
96.205
177.427
269.03
364.271
456.792
541.371
616.868
684.348
742.662
787.11
804.951
782.841
713.42
595.92
445.183
282.348
128.79
6.943
-74.896
-118.222
-132.002
-134.322
-135.332
-138.103
-141.035
-136.405
-122.58
-103.373
-82.963
-66.614
-56.152
-50.292
-48.329
-49.849
-54.24
-60.586
-67.438
-73.155
-77.095
-79.442
-80.334
-79.64
-77.071
-72.702
-67.176
-61.51
-56.352
-51.83
-47.92
-44.628
-42.175
-40.732
-40.168
-40.106
-40.218
-40.365
-40.523
-40.725
-40.947
-41.128
-41.283
-41.5
-41.867
-42.431
-43.2
-44.142
-45.212
-46.374
-47.571
-48.721
-49.746
-50.588
-51.208
-51.585
-51.697
-51.513
-51.008
-50.168
-48.987
-47.465
-45.604
-43.4
-40.871
-38.052
-34.993
-31.764
-28.422
-25.006
-21.546
-18.061
-14.567
-11.078
-7.597
-4.119
-0.63
2.875
6.401
9.948
13.521
17.136
20.811
24.572
28.435
32.407
36.49
40.685
44.987
49.387
53.871
58.417
63.004
67.613
72.229
76.834
81.412
85.942
90.404
94.778
99.044
103.185
107.182
111.017
114.672
118.132
121.382
124.409
127.202
129.745
132.028
134.039
135.766
137.202
138.336
139.163
139.675
139.87
139.745
139.3
138.535
137.455
136.063
134.366
132.371
130.088
127.526
124.697
121.611
118.283
114.726
110.955
106.985
102.831
98.511
94.041
89.439
84.724
79.912
75.021
70.071
65.077
60.059
55.033
50.016
45.025
40.076
35.184
30.365
25.633
21
16.479
12.08
7.814
3.688
-0.288
-4.11
-7.771
-11.266
-14.593
-17.748
-20.729
-23.535
-26.166
-28.623
-30.906
-33.02
-34.965
-36.747
-38.368
-39.834
-41.149
-42.319
-43.348
-44.244
-45.012
-45.657
-46.187
-46.609
-46.929
-47.153
-47.289
-47.343
-47.321
-47.23
-47.074
-46.86
-46.592
-46.276
-45.916
-45.516
-45.081
-44.614
-44.12
-43.601
-43.06
-42.501
-41.926
-41.338
-40.737
-40.126
-39.508
-38.882
-38.253
-37.62
-36.986
-36.354
-35.723
-35.097
-34.477
-33.864
-33.259
-32.664
-32.08
-31.508
-30.95
-30.406
-29.879
-29.369
-28.879
-28.408
-27.959
-27.532
-27.128
-26.747
-26.392
-26.061
-25.756
-25.478
-25.226
-25.003
-24.808
-24.641
-24.503
-24.393
-24.311
-24.255
-24.225
-24.219
-24.234
-24.27
-24.324
-24.395
-24.48
-24.577
-24.684
-24.8
-24.921
-25.046
-25.172
-25.297
-25.42
-25.539
-25.651
-25.756
-25.853
-25.941
-26.018
-26.083
-26.137
-26.176
-26.201
-26.211
-26.205
-26.181
-26.141
-26.084
-26.011
-25.924
-25.823
-25.71
-25.587
-25.456
-25.32
-25.18
-25.039
-24.899
-24.763
-24.634
-24.512
-24.402
-24.305
-24.223
-24.158
-24.111
-24.084
-24.076
-24.089
-24.124
-24.18
-24.258
-24.359
-24.485
-24.634
-24.809
-25.01
-25.237
-25.49
-25.768
-26.072
-26.399
-26.748
-27.117
-27.505
-27.909
-28.326
-28.755
-29.192
-29.635
-30.08
-30.526
-30.969
-31.407
-31.837
-32.257
-32.666
-33.062
-33.446
-33.815
-34.169
-34.51
-34.835
-35.146
-35.441
-35.721
-35.984
-36.23
-36.459
-36.671
-36.864
-37.041
-37.201
-37.345
-37.474
-37.589
-37.692
-37.785
-37.869
-37.947
-38.02
-38.091
-38.161
-38.234
-38.311
-38.394
-38.484
-38.583
-38.69
-38.805
-38.928
-39.058
-39.192
-39.328
-39.465
-39.599
-39.728
-39.85
-39.962
-40.059
-40.141
-40.202
-40.24
-40.251
-40.231
-40.177
-40.083
-39.947
-39.763
-39.528
-39.236
-38.883
-38.464
-37.975
-37.411
-36.768
-36.042
-35.229
-34.327
-33.333
-32.247
-31.069
-29.799
-28.44
-26.994
-25.466
-23.861
-22.186
-20.445
-18.649
-16.805
-14.925
-13.02
-11.1
-9.18
-7.273
-5.393
-3.553
-1.766
-0.047
1.593
3.14
4.581
5.903
7.093
8.134
9.014
9.719
10.237
10.56
10.683
10.6
10.309
9.807
9.088
8.147
6.98
5.583
3.956
2.101
0.026
-2.246
-4.683
-7.251
-9.917
-12.648
-15.417
-18.195
-20.949
-23.647
-26.242
-28.691
-30.954
-32.983
-34.738
-36.186
-37.317
-38.166
-38.8
-39.29
-39.696
-40.057
-40.412
-40.836
-41.421
-42.261
-43.461
-45.082
-47.219
-50.08
-53.748
-58.13
-62.964
-67.668
-71.627
-74.449
-75.655
-74.612
-71.107
-65.343
-57.995
-50.632
-44.759
-41.275
-41.152
-45.323
-53.797
-65.617
-78.808
-89.811
-94.748
-90.358
-73.14
-39.342
12.439
80.107
160.436
248.489
341.493
443.118
554.557
669.802
776.696
853.568
879.094
846.069
756.849
622.595
463.539
296.164
136.791
5.76
-84.396
-129.02
-132.449
-112.558
-88.063
-68.986
-58.828
-53.342
-46.089
-36.848
-27.963
-22.122
-22.203
-27.765
-36.459
-46.383
-55.508
-62.239
-66.155
-67.293
-65.94
-62.842
-58.777
-54.373
-50.314
-47.218
-45.338
-44.71
-45.244
-46.696
-48.859
-51.584
-54.673
-57.937
-61.236
-64.454
-67.5
-70.311
-72.794
-74.854
-76.426
-77.475
-77.993
-77.999
-77.518
-76.578
-75.224
-73.505
-71.473
-69.179
-66.671
-63.997
-61.205
-58.347
-55.471
-52.625
-49.841
-47.138
-44.525
-42.003
-39.563
-37.199
-34.894
-32.631
-30.393
-28.168
-25.942
-23.703
-21.439
-19.134
-16.775
-14.346
-11.837
-9.237
-6.539
-3.735
-0.819
2.211
5.357
8.621
12.003
15.503
19.122
22.859
26.71
30.673
34.743
38.914
43.177
47.523
51.942
56.42
60.944
65.498
70.068
74.637
79.185
83.696
88.15
92.527
96.807
100.971
104.998
108.869
112.564
116.064
119.352
122.409
125.219
127.767
130.04
132.023
133.706
135.078
136.132
136.861
137.258
137.321
137.047
136.437
135.491
134.213
132.608
130.682
128.442
125.898
123.062
119.944
116.559
112.921
109.045
104.948
100.647
96.16
91.505
86.701
81.767
76.722
71.585
66.375
61.112
55.815
50.501
45.188
39.895
34.637
29.43
24.29
19.231
14.265
9.406
4.665
0.053
-4.421
-8.748
-12.92
-16.931
-20.774
-24.444
-27.939
-31.254
-34.388
-37.341
-40.11
-42.697
-45.103
-47.329
-49.377
-51.251
-52.953
-54.488
-55.859
-57.072
-58.132
-59.044
-59.814
-60.448
-60.952
-61.33
-61.59
-61.736
-61.775
-61.711
-61.552
-61.302
-60.967
-60.553
-60.064
-59.506
-58.884
-58.203
-57.467
-56.681
-55.849
-54.975
-54.063
-53.117
-52.141
-51.139
-50.114
-49.07
-48.01
-46.936
-45.852
-44.761
-43.663
-42.562
-41.459
-40.357
-39.257
-38.162
-37.074
-35.993
-34.923
-33.865
-32.82
-31.79
-30.777
-29.782
-28.805
-27.849
-26.915
-26.003
-25.116
-24.253
-23.416
-22.606
-21.823
-21.068
-20.34
-19.641
-18.97
-18.327
-17.712
-17.126
-16.567
-16.038
-15.537
-15.065
-14.622
-14.208
-13.823
-13.466
-13.139
-12.839
-12.568
-12.323
-12.106
-11.916
-11.752
-11.614
-11.501
-11.413
-11.35
-11.31
-11.293
-11.298
-11.326
-11.375
-11.445
-11.535
-11.647
-11.779
-11.932
-12.106
-12.301
-12.516
-12.753
-13.01
-13.287
-13.584
-13.901
-14.238
-14.593
-14.967
-15.36
-15.772
-16.201
-16.649
-17.114
-17.596
-18.095
-18.611
-19.143
-19.69
-20.252
-20.829
-21.419
-22.023
-22.64
-23.268
-23.906
-24.553
-25.208
-25.868
-26.532
-27.197
-27.861
-28.523
-29.179
-29.827
-30.465
-31.091
-31.701
-32.295
-32.869
-33.421
-33.949
-34.449
-34.92
-35.36
-35.765
-36.134
-36.466
-36.758
-37.009
-37.218
-37.383
-37.503
-37.579
-37.609
-37.593
-37.532
-37.426
-37.276
-37.084
-36.851
-36.58
-36.274
-35.935
-35.568
-35.174
-34.759
-34.326
-33.879
-33.424
-32.963
-32.503
-32.047
-31.601
-31.169
-30.756
-30.366
-30.006
-29.677
-29.386
-29.134
-28.925
-28.763
-28.648
-28.584
-28.571
-28.61
-28.702
-28.846
-29.041
-29.285
-29.578
-29.914
-30.292
-30.705
-31.151
-31.622
-32.113
-32.616
-33.125
-33.633
-34.132
-34.613
-35.068
-35.489
-35.867
-36.194
-36.459
-36.655
-36.772
-36.803
-36.74
-36.576
-36.303
-35.918
-35.414
-34.788
-34.037
-33.158
-32.151
-31.014
-29.749
-28.358
-26.844
-25.212
-23.468
-21.619
-19.674
-17.644
-15.54
-13.376
-11.164
-8.92
-6.661
-4.403
-2.164
0.041
2.193
4.274
6.269
8.158
9.925
11.554
13.027
14.328
15.439
16.346
17.036
17.502
17.737
17.735
17.491
16.998
16.249
15.243
13.978
12.451
10.665
8.625
6.348
3.871
1.233
-1.527
-4.369
-7.261
-10.165
-13.04
-15.845
-18.532
-21.056
-23.383
-25.471
-27.278
-28.771
-29.928
-30.765
-31.365
-31.812
-32.198
-32.604
-33.073
-33.672
-34.51
-35.684
-37.291
-39.423
-42.098
-45.407
-49.551
-54.557
-60.289
-66.387
-72.168
-77.004
-80.454
-81.916
-80.732
-76.719
-70.049
-61.614
-53.002
-45.46
-40.151
-38.267
-40.435
-46.581
-54.487
-60.621
-62.333
-56.178
-41.627
-18.11
20.14
74.16
146.125
237.833
341.506
455.016
574.439
687.994
786.058
852.164
871.171
840.146
763.182
650.69
513.268
360.419
202.703
55.431
-59.549
-128.842
-151.225
-138.421
-113.838
-93.005
-81.077
-75.983
-69.607
-59.703
-48.866
-39.99
-36.659
-39.1
-45.032
-52.655
-59.852
-64.874
-67.236
-66.863
-64.082
-59.758
-54.707
-49.553
-44.988
-41.634
-39.759
-39.435
-40.535
-42.732
-45.732
-49.272
-53.075
-56.904
-60.573
-63.921
-66.828
-69.214
-70.999
-72.151
-72.664
-72.549
-71.841
-70.579
-68.83
-66.691
-64.284
-61.75
-59.203
-56.728
-54.398
-52.277
-50.414
-48.843
-47.566
-46.535
-45.711
-45.055
-44.532
-44.119
-43.772
-43.427
-43.014
-42.453
-41.686
-40.672
-39.378
-37.773
-35.845
-33.594
-31.044
-28.252
-25.254
-22.076
-18.734
-15.234
-11.585
-7.811
-3.928
0.048
4.1
8.219
12.393
16.607
20.855
25.139
29.467
33.862
38.336
42.887
47.512
52.201
56.94
61.718
66.518
71.317
76.094
80.828
85.502
90.1
94.603
98.987
103.23
107.306
111.192
114.866
118.309
121.501
124.425
127.067
129.415
131.458
133.19
134.6
135.681
136.427
136.833
136.896
136.613
135.984
135.01
133.694
132.043
130.063
127.764
125.156
122.251
119.062
115.604
111.894
107.947
103.782
99.416
94.869
90.16
85.31
80.339
75.268
70.116
64.904
59.651
54.378
49.101
43.839
38.608
33.426
28.308
23.269
18.323
13.482
8.761
4.171
-0.279
-4.577
-8.716
-12.69
-16.492
-20.117
-23.564
-26.828
-29.91
-32.809
-35.527
-38.066
-40.427
-42.615
-44.634
-46.489
-48.185
-49.728
-51.124
-52.379
-53.499
-54.491
-55.36
-56.113
-56.756
-57.296
-57.737
-58.086
-58.35
-58.533
-58.642
-58.683
-58.661
-58.581
-58.449
-58.268
-58.044
-57.779
-57.478
-57.142
-56.775
-56.379
-55.955
-55.504
-55.028
-54.527
-54.002
-53.453
-52.881
-52.285
-51.668
-51.028
-50.368
-49.687
-48.987
-48.27
-47.537
-46.788
-46.027
-45.253
-44.47
-43.677
-42.878
-42.072
-41.263
-40.45
-39.637
-38.825
-38.015
-37.209
-36.411
-35.621
-34.843
-34.079
-33.332
-32.605
-31.9
-31.222
-30.572
-29.954
-29.369
-28.821
-28.312
-27.842
-27.414
-27.029
-26.687
-26.388
-26.134
-25.924
-25.757
-25.634
-25.553
-25.514
-25.515
-25.556
-25.635
-25.752
-25.903
-26.089
-26.307
-26.554
-26.83
-27.131
-27.455
-27.799
-28.161
-28.536
-28.922
-29.316
-29.715
-30.115
-30.514
-30.909
-31.297
-31.676
-32.044
-32.4
-32.74
-33.064
-33.372
-33.661
-33.932
-34.184
-34.416
-34.63
-34.825
-35.002
-35.161
-35.302
-35.427
-35.536
-35.63
-35.711
-35.779
-35.836
-35.883
-35.922
-35.954
-35.982
-36.006
-36.028
-36.049
-36.072
-36.096
-36.124
-36.155
-36.191
-36.232
-36.279
-36.333
-36.392
-36.457
-36.527
-36.602
-36.68
-36.761
-36.843
-36.925
-37.006
-37.084
-37.158
-37.227
-37.289
-37.344
-37.389
-37.423
-37.446
-37.456
-37.452
-37.435
-37.404
-37.358
-37.297
-37.224
-37.137
-37.039
-36.931
-36.813
-36.687
-36.555
-36.419
-36.282
-36.144
-36.01
-35.882
-35.762
-35.655
-35.562
-35.487
-35.433
-35.403
-35.4
-35.424
-35.48
-35.568
-35.691
-35.849
-36.043
-36.275
-36.543
-36.847
-37.186
-37.558
-37.959
-38.388
-38.839
-39.308
-39.789
-40.278
-40.768
-41.254
-41.728
-42.184
-42.615
-43.012
-43.369
-43.677
-43.928
-44.114
-44.226
-44.257
-44.199
-44.044
-43.787
-43.42
-42.938
-42.336
-41.609
-40.754
-39.767
-38.646
-37.392
-36.004
-34.484
-32.835
-31.064
-29.176
-27.18
-25.086
-22.905
-20.648
-18.329
-15.962
-13.563
-11.146
-8.728
-6.325
-3.954
-1.634
0.615
2.777
4.832
6.763
8.551
10.178
11.626
12.877
13.922
14.746
15.339
15.69
15.784
15.61
15.166
14.448
13.458
12.197
10.671
8.893
6.894
4.706
2.368
-0.087
-2.628
-5.224
-7.835
-10.421
-12.935
-15.335
-17.593
-19.68
-21.568
-23.24
-24.681
-25.897
-26.942
-27.896
-28.842
-29.869
-31.037
-32.381
-33.968
-35.887
-38.221
-41.034
-44.352
-48.161
-52.497
-57.493
-63.159
-69.319
-75.634
-81.548
-86.524
-90.157
-91.912
-91.056
-87.205
-80.505
-71.402
-60.928
-50.305
-40.554
-33.076
-29.524
-29.382
-29.892
-28.633
-23.565
-16.059
-10.022
-4.422
8.392
40.434
101.659
194.386
309.962
433.43
556.305
672.423
775.55
861.172
914.406
917.952
866.567
759.324
604.926
426.615
243.503
76.868
-49.286
-130.402
-167.762
-169.235
-153.766
-126.593
-91.828
-57.055
-23.546
-1.241
5.026
1.816
-7.471
-15.728
-19.621
-24.398
-30.981
-39.355
-49.373
-57.278
-61.578
-62.715
-60.438
-55.786
-50.488
-45.43
-41.232
-38.331
-36.534
-35.681
-36.034
-37.535
-39.76
-42.389
-45.074
-47.585
-49.96
-52.181
-54.091
-55.598
-56.682
-57.363
-57.744
-57.902
-57.843
-57.574
-57.096
-56.417
-55.546
-54.494
-53.272
-51.896
-50.393
-48.802
-47.161
-45.504
-43.851
-42.19
-40.485
-38.702
-36.812
-34.802
-32.675
-30.442
-28.127
-25.754
-23.342
-20.907
-18.454
-15.978
-13.47
-10.918
-8.312
-5.651
-2.946
-0.206
2.562
5.356
8.181
11.049
13.979
16.994
20.12
23.376
26.769
30.299
33.957
37.727
41.591
45.53
49.522
53.551
57.607
61.684
65.785
69.915
74.063
78.215
82.344
86.424
90.443
94.394
98.27
102.079
105.826
109.519
113.185
116.834
120.453
124.016
127.468
130.742
133.792
136.582
139.087
141.287
143.152
144.65
145.758
146.442
146.666
146.39
145.551
144.104
142.041
139.375
136.155
132.456
128.327
123.814
118.961
113.801
108.377
102.73
96.888
90.886
84.768
78.588
72.421
66.334
60.363
54.531
48.833
43.248
37.77
32.396
27.12
21.946
16.879
11.924
7.101
2.43
-2.08
-6.427
-10.622
-14.677
-18.591
-22.354
-25.954
-29.369
-32.584
-35.588
-38.366
-40.912
-43.223
-45.301
-47.154
-48.799
-50.244
-51.498
-52.569
-53.462
-54.187
-54.756
-55.18
-55.475
-55.653
-55.729
-55.718
-55.635
-55.491
-55.298
-55.066
-54.801
-54.511
-54.204
-53.886
-53.565
-53.245
-52.934
-52.635
-52.354
-52.093
-51.856
-51.644
-51.458
-51.297
-51.162
-51.05
-50.959
-50.888
-50.834
-50.792
-50.759
-50.73
-50.702
-50.67
-50.63
-50.576
-50.505
-50.412
-50.294
-50.148
-49.97
-49.758
-49.509
-49.223
-48.897
-48.531
-48.126
-47.681
-47.197
-46.677
-46.121
-45.531
-44.91
-44.262
-43.588
-42.893
-42.179
-41.452
-40.715
-39.973
-39.23
-38.49
-37.759
-37.041
-36.341
-35.664
-35.014
-34.395
-33.811
-33.265
-32.76
-32.299
-31.885
-31.518
-31.201
-30.934
-30.718
-30.553
-30.438
-30.373
-30.356
-30.384
-30.457
-30.572
-30.726
-30.916
-31.14
-31.395
-31.678
-31.985
-32.315
-32.664
-33.028
-33.405
-33.791
-34.183
-34.578
-34.972
-35.364
-35.751
-36.131
-36.501
-36.86
-37.206
-37.538
-37.855
-38.155
-38.437
-38.702
-38.949
-39.177
-39.387
-39.579
-39.754
-39.913
-40.055
-40.183
-40.295
-40.393
-40.477
-40.548
-40.606
-40.651
-40.684
-40.705
-40.714
-40.711
-40.698
-40.674
-40.638
-40.591
-40.533
-40.463
-40.382
-40.288
-40.183
-40.065
-39.936
-39.795
-39.643
-39.479
-39.305
-39.122
-38.928
-38.727
-38.517
-38.301
-38.08
-37.855
-37.627
-37.4
-37.174
-36.953
-36.738
-36.532
-36.338
-36.157
-35.993
-35.847
-35.723
-35.623
-35.55
-35.507
-35.496
-35.52
-35.581
-35.68
-35.819
-35.999
-36.221
-36.486
-36.792
-37.139
-37.527
-37.953
-38.416
-38.914
-39.442
-39.998
-40.577
-41.175
-41.787
-42.407
-43.029
-43.647
-44.254
-44.844
-45.409
-45.942
-46.437
-46.885
-47.279
-47.611
-47.874
-48.059
-48.16
-48.169
-48.079
-47.885
-47.579
-47.158
-46.617
-45.952
-45.161
-44.241
-43.193
-42.015
-40.708
-39.274
-37.716
-36.04
-34.249
-32.351
-30.352
-28.263
-26.096
-23.864
-21.578
-19.253
-16.903
-14.544
-12.196
-9.877
-7.603
-5.391
-3.256
-1.218
0.704
2.491
4.129
5.603
6.905
8.02
8.935
9.637
10.118
10.376
10.416
10.237
9.829
9.181
8.288
7.15
5.772
4.166
2.332
0.28
-1.975
-4.405
-6.974
-9.642
-12.369
-15.135
-17.928
-20.731
-23.513
-26.207
-28.725
-31.002
-33.007
-34.729
-36.193
-37.381
-38.202
-38.717
-39.16
-39.769
-40.833
-42.434
-44.315
-46.408
-49.008
-52.155
-55.587
-58.891
-61.182
-61.999
-61.814
-60.819
-58.738
-55.56
-51.423
-46.852
-43.524
-42.732
-44.493
-48.987
-56.317
-66.219
-78.649
-92.869
-106.404
-116.527
-121.086
-117.575
-104.258
-79.896
-42.34
9.957
76.438
155.584
243.77
334.783
425.314
512.752
594.069
669.664
733.87
777.115
793.25
772.328
712.327
621.705
506.007
379.342
257.158
146.289
58.223
-3.798
-46.432
-72.833
-90.307
-103.136
-107.674
-103.666
-92.28
-75.994
-60.857
-50.265
-44.626
-43.653
-45.947
-50.218
-55.578
-60.709
-64.171
-65.259
-63.992
-60.759
-56.194
-50.886
-45.303
-40.023
-35.67
-32.567
-30.762
-30.159
-30.541
-31.709
-33.525
-35.804
-38.331
-40.945
-43.521
-45.973
-48.264
-50.358
-52.212
-53.808
-55.138
-56.192
-56.974
-57.478
-57.683
-57.596
-57.232
-56.611
-55.77
-54.743
-53.555
-52.233
-50.793
-49.232
-47.548
-45.736
-43.786
-41.699
-39.482
-37.152
-34.744
-32.281
-29.777
-27.244
-24.679
-22.078
-19.442
-16.765
-14.042
-11.278
-8.474
-5.631
-2.756
0.155
3.111
6.128
9.227
12.432
15.755
19.207
22.794
26.515
30.371
34.359
38.468
42.693
47.026
51.459
55.986
60.598
65.28
70.018
74.794
79.587
84.38
89.153
93.887
98.563
103.163
107.668
112.062
116.329
120.45
124.406
128.18
131.751
135.104
138.22
141.082
143.676
145.987
148.003
149.712
151.104
152.172
152.907
153.305
153.361
153.071
152.437
151.457
150.135
148.473
146.477
144.155
141.514
138.564
135.317
131.784
127.98
123.919
119.616
115.087
110.35
105.422
100.322
95.069
89.681
84.179
78.583
72.913
67.189
61.429
55.655
49.884
44.136
38.428
32.778
27.202
21.718
16.341
11.085
5.965
0.993
-3.819
-8.46
-12.92
-17.19
-21.265
-25.136
-28.8
-32.251
-35.489
-38.51
-41.314
-43.902
-46.275
-48.436
-50.387
-52.133
-53.679
-55.03
-56.192
-57.172
-57.978
-58.616
-59.096
-59.425
-59.613
-59.668
-59.6
-59.419
-59.135
-58.756
-58.294
-57.757
-57.157
-56.501
-55.799
-55.061
-54.294
-53.507
-52.707
-51.9
-51.093
-50.292
-49.501
-48.724
-47.966
-47.23
-46.518
-45.833
-45.175
-44.548
-43.95
-43.384
-42.85
-42.346
-41.873
-41.43
-41.016
-40.63
-40.27
-39.934
-39.62
-39.326
-39.049
-38.786
-38.534
-38.29
-38.051
-37.814
-37.576
-37.335
-37.087
-36.831
-36.565
-36.288
-35.999
-35.697
-35.382
-35.055
-34.716
-34.365
-34.003
-33.631
-33.252
-32.865
-32.472
-32.076
-31.677
-31.277
-30.879
-30.482
-30.09
-29.703
-29.324
-28.955
-28.598
-28.254
-27.927
-27.618
-27.33
-27.065
-26.826
-26.615
-26.433
-26.281
-26.162
-26.075
-26.021
-26
-26.012
-26.056
-26.132
-26.238
-26.374
-26.538
-26.728
-26.943
-27.182
-27.442
-27.723
-28.021
-28.337
-28.669
-29.015
-29.375
-29.746
-30.129
-30.521
-30.922
-31.33
-31.743
-32.16
-32.579
-32.998
-33.417
-33.834
-34.247
-34.656
-35.06
-35.458
-35.85
-36.236
-36.615
-36.988
-37.354
-37.714
-38.069
-38.418
-38.763
-39.104
-39.441
-39.776
-40.108
-40.437
-40.765
-41.089
-41.412
-41.731
-42.047
-42.359
-42.667
-42.971
-43.27
-43.565
-43.857
-44.144
-44.427
-44.706
-44.981
-45.253
-45.522
-45.787
-46.048
-46.306
-46.561
-46.813
-47.061
-47.306
-47.547
-47.784
-48.016
-48.244
-48.464
-48.679
-48.885
-49.083
-49.272
-49.451
-49.619
-49.777
-49.923
-50.056
-50.177
-50.282
-50.372
-50.445
-50.497
-50.527
-50.533
-50.511
-50.459
-50.373
-50.252
-50.091
-49.886
-49.635
-49.334
-48.979
-48.566
-48.091
-47.551
-46.943
-46.265
-45.513
-44.687
-43.785
-42.805
-41.747
-40.612
-39.399
-38.109
-36.743
-35.302
-33.79
-32.209
-30.563
-28.858
-27.099
-25.296
-23.458
-21.596
-19.72
-17.843
-15.977
-14.137
-12.335
-10.585
-8.898
-7.285
-5.761
-4.339
-3.032
-1.857
-0.826
0.048
0.754
1.281
1.62
1.768
1.722
1.479
1.035
0.378
-0.506
-1.624
-2.984
-4.589
-6.434
-8.508
-10.789
-13.242
-15.828
-18.505
-21.233
-23.979
-26.707
-29.378
-31.948
-34.358
-36.551
-38.475
-40.085
-41.339
-42.225
-42.761
-42.993
-43.009
-42.895
-42.725
-42.591
-42.6
-42.868
-43.525
-44.693
-46.461
-48.958
-52.382
-56.81
-62.185
-68.253
-74.486
-80.362
-85.487
-89.373
-91.417
-91.26
-88.877
-84.756
-80.138
-76.188
-73.588
-72.973
-74.962
-79.71
-86.688
-94.29
-99.374
-98.615
-89.393
-69.015
-34.827
15.292
82.802
165.854
258.759
355.926
451.281
542.877
633.569
719.935
797.035
854.147
870.674
837.548
750.875
612.155
443.527
265.095
98.021
-30.287
-113.269
-152.961
-156.905
-147.239
-133.196
-115.189
-96.917
-73.622
-48.548
-31.548
-21.159
-17.889
-20.279
-21.97
-25.493
-32.235
-39.962
-48.914
-56.754
-61.375
-63.414
-63.016
-60.119
-55.603
-50.659
-46.171
-42.873
-41.066
-40.477
-40.973
-42.759
-45.708
-49.358
-53.34
-57.263
-60.884
-64.228
-67.238
-69.739
-71.655
-72.968
-73.682
-73.867
-73.566
-72.766
-71.487
-69.775
-67.678
-65.277
-62.636
-59.801
-56.825
-53.755
-50.635
-47.514
-44.419
-41.359
-38.344
-35.375
-32.458
-29.609
-26.831
-24.116
-21.451
-18.808
-16.172
-13.542
-10.919
-8.307
-5.711
-3.131
-0.582
1.904
4.315
6.657
8.957
11.274
13.644
16.087
18.617
21.236
23.954
26.797
29.785
32.929
36.249
39.76
43.497
47.516
51.841
56.462
61.344
66.411
71.606
76.893
82.235
87.599
92.951
98.245
103.45
108.544
113.497
118.271
122.811
127.04
130.911
134.4
137.506
140.252
142.653
144.707
146.418
147.791
148.83
149.541
149.918
149.942
149.609
148.922
147.895
146.556
144.922
142.999
140.787
138.28
135.474
132.376
128.989
125.317
121.365
117.148
112.683
107.999
103.12
98.066
92.857
87.508
82.038
76.47
70.824
65.123
59.39
53.645
47.911
42.211
36.566
30.993
25.508
20.125
14.857
9.715
4.712
-0.142
-4.839
-9.37
-13.728
-17.905
-21.896
-25.697
-29.305
-32.718
-35.937
-38.962
-41.795
-44.437
-46.893
-49.167
-51.262
-53.184
-54.937
-56.528
-57.961
-59.245
-60.384
-61.387
-62.258
-63.007
-63.639
-64.161
-64.579
-64.9
-65.13
-65.272
-65.334
-65.319
-65.232
-65.077
-64.858
-64.578
-64.242
-63.853
-63.412
-62.923
-62.387
-61.807
-61.185
-60.521
-59.818
-59.077
-58.3
-57.491
-56.649
-55.779
-54.881
-53.96
-53.016
-52.053
-51.072
-50.077
-49.071
-48.055
-47.033
-46.009
-44.984
-43.963
-42.948
-41.943
-40.952
-39.977
-39.022
-38.091
-37.185
-36.31
-35.467
-34.661
-33.893
-33.166
-32.483
-31.845
-31.254
-30.71
-30.215
-29.766
-29.365
-29.01
-28.7
-28.432
-28.206
-28.017
-27.864
-27.745
-27.655
-27.592
-27.553
-27.534
-27.532
-27.544
-27.566
-27.596
-27.63
-27.666
-27.7
-27.729
-27.751
-27.764
-27.763
-27.748
-27.715
-27.664
-27.592
-27.498
-27.382
-27.244
-27.083
-26.9
-26.696
-26.472
-26.23
-25.972
-25.699
-25.414
-25.119
-24.817
-24.51
-24.201
-23.893
-23.587
-23.286
-22.991
-22.704
-22.426
-22.159
-21.904
-21.661
-21.431
-21.215
-21.014
-20.827
-20.656
-20.5
-20.36
-20.235
-20.126
-20.03
-19.949
-19.882
-19.827
-19.785
-19.754
-19.735
-19.726
-19.726
-19.735
-19.753
-19.778
-19.81
-19.849
-19.895
-19.948
-20.008
-20.078
-20.157
-20.249
-20.354
-20.475
-20.613
-20.771
-20.95
-21.154
-21.384
-21.642
-21.931
-22.252
-22.608
-23
-23.43
-23.9
-24.409
-24.959
-25.549
-26.18
-26.849
-27.557
-28.301
-29.079
-29.89
-30.731
-31.598
-32.489
-33.4
-34.326
-35.263
-36.206
-37.149
-38.086
-39.011
-39.918
-40.801
-41.653
-42.468
-43.238
-43.958
-44.621
-45.219
-45.747
-46.198
-46.566
-46.846
-47.031
-47.118
-47.103
-46.981
-46.752
-46.412
-45.962
-45.399
-44.726
-43.943
-43.051
-42.052
-40.952
-39.752
-38.459
-37.077
-35.614
-34.076
-32.471
-30.807
-29.095
-27.342
-25.562
-23.765
-21.964
-20.172
-18.403
-16.673
-14.995
-13.384
-11.852
-10.414
-9.081
-7.864
-6.776
-5.827
-5.029
-4.394
-3.93
-3.648
-3.556
-3.658
-3.953
-4.442
-5.122
-5.994
-7.062
-8.331
-9.8
-11.471
-13.343
-15.41
-17.661
-20.07
-22.596
-25.198
-27.837
-30.47
-33.071
-35.603
-38.029
-40.312
-42.4
-44.245
-45.812
-47.06
-47.948
-48.459
-48.596
-48.411
-48.003
-47.472
-46.909
-46.389
-45.978
-45.783
-45.916
-46.493
-47.641
-49.43
-51.952
-55.399
-59.805
-65.04
-70.806
-76.477
-81.405
-85.176
-87.226
-86.896
-84.067
-78.919
-72.133
-65.271
-59.539
-55.588
-54.367
-56.56
-61.741
-68.887
-75.727
-78.49
-74.212
-60.356
-33.829
7.779
65.854
139.334
223.63
313.105
402.494
490.229
578.156
663.335
739.511
794.805
811.602
782.051
706.024
589.586
448.751
297.373
148.709
19.378
-79.439
-141.566
-168.523
-172.892
-166.947
-158.17
-149.111
-135.903
-117.105
-95.702
-75.295
-60.256
-52.447
-50.677
-53.293
-58.451
-64.045
-68.311
-70.299
-69.641
-66.62
-62.033
-56.569
-50.805
-45.484
-41.318
-38.668
-37.646
-38.091
-39.646
-42.04
-45.057
-48.45
-51.988
-55.464
-58.701
-61.576
-64.007
-65.925
-67.279
-68.039
-68.199
-67.778
-66.815
-65.361
-63.481
-61.238
-58.696
-55.918
-52.959
-49.882
-46.749
-43.62
-40.549
-37.574
-34.707
-31.944
-29.275
-26.679
-24.141
-21.65
-19.184
-16.728
-14.27
-11.797
-9.315
-6.834
-4.359
-1.885
0.588
3.058
5.492
7.839
10.052
12.094
13.939
15.588
17.028
18.255
19.289
20.159
20.924
21.666
22.437
23.278
24.234
25.351
26.711
28.427
30.589
33.282
36.58
40.532
45.198
50.621
56.79
63.664
71.163
79.18
87.633
96.451
105.546
114.823
124.158
133.394
142.393
151.012
159.093
166.492
173.058
178.662
183.239
186.758
189.218
190.65
191.071
190.497
188.977
186.559
183.305
179.306
174.643
169.419
163.767
157.816
151.696
145.522
139.364
133.276
127.296
121.445
115.741
110.196
104.806
99.571
94.492
89.56
84.764
80.08
75.457
70.853
66.233
61.568
56.848
52.072
47.238
42.357
37.449
32.536
27.641
22.787
17.985
13.253
8.61
4.079
-0.31
-4.532
-8.57
-12.411
-16.044
-19.464
-22.665
-25.648
-28.421
-30.991
-33.364
-35.546
-37.539
-39.35
-40.984
-42.451
-43.76
-44.918
-45.932
-46.809
-47.557
-48.183
-48.695
-49.098
-49.396
-49.596
-49.705
-49.729
-49.675
-49.551
-49.363
-49.116
-48.818
-48.475
-48.092
-47.674
-47.226
-46.752
-46.257
-45.745
-45.223
-44.692
-44.159
-43.625
-43.097
-42.575
-42.065
-41.567
-41.085
-40.621
-40.176
-39.751
-39.348
-38.967
-38.607
-38.27
-37.954
-37.658
-37.381
-37.123
-36.881
-36.654
-36.442
-36.241
-36.052
-35.871
-35.699
-35.533
-35.372
-35.215
-35.059
-34.904
-34.747
-34.586
-34.419
-34.244
-34.06
-33.863
-33.654
-33.43
-33.191
-32.935
-32.663
-32.373
-32.067
-31.745
-31.408
-31.056
-30.692
-30.317
-29.933
-29.542
-29.146
-28.747
-28.348
-27.95
-27.556
-27.167
-26.785
-26.413
-26.052
-25.705
-25.373
-25.059
-24.765
-24.493
-24.245
-24.023
-23.83
-23.667
-23.536
-23.438
-23.375
-23.346
-23.353
-23.397
-23.476
-23.59
-23.739
-23.921
-24.136
-24.382
-24.657
-24.959
-25.287
-25.638
-26.012
-26.406
-26.818
-27.246
-27.69
-28.147
-28.616
-29.095
-29.583
-30.077
-30.577
-31.081
-31.586
-32.092
-32.596
-33.098
-33.595
-34.086
-34.571
-35.048
-35.517
-35.976
-36.426
-36.867
-37.297
-37.718
-38.129
-38.53
-38.921
-39.304
-39.678
-40.044
-40.401
-40.75
-41.091
-41.423
-41.747
-42.061
-42.364
-42.656
-42.936
-43.203
-43.455
-43.692
-43.912
-44.115
-44.298
-44.461
-44.602
-44.72
-44.812
-44.877
-44.912
-44.915
-44.885
-44.817
-44.712
-44.565
-44.374
-44.138
-43.853
-43.516
-43.127
-42.681
-42.177
-41.612
-40.986
-40.297
-39.544
-38.727
-37.847
-36.905
-35.901
-34.838
-33.717
-32.54
-31.312
-30.036
-28.715
-27.355
-25.959
-24.536
-23.092
-21.637
-20.179
-18.73
-17.3
-15.899
-14.54
-13.234
-11.991
-10.819
-9.729
-8.73
-7.831
-7.044
-6.38
-5.85
-5.463
-5.225
-5.145
-5.226
-5.467
-5.867
-6.423
-7.135
-8.01
-9.057
-10.28
-11.686
-13.277
-15.048
-16.986
-19.071
-21.272
-23.553
-25.879
-28.219
-30.544
-32.828
-35.043
-37.15
-39.1
-40.842
-42.325
-43.507
-44.346
-44.824
-44.959
-44.796
-44.414
-43.888
-43.274
-42.637
-42.07
-41.677
-41.575
-41.889
-42.701
-44.138
-46.426
-49.653
-53.751
-58.45
-63.156
-67.274
-70.404
-72.063
-71.645
-68.933
-64.102
-57.898
-51.949
-47.753
-46.198
-48.111
-54.159
-64.229
-77.343
-91.286
-102.267
-106.518
-100.815
-81.926
-47.043
6.03
76.799
161.086
253.396
347.546
440.967
536.953
635.229
730.874
813.405
860.931
855.754
791.324
667.754
502.288
320.607
144.204
-2.951
-106.375
-168.092
-192.657
-192.521
-181.681
-160.711
-133.286
-104.814
-77.526
-62.666
-63.605
-72.928
-86.03
-94.477
-94.788
-92.65
-90.259
-88.723
-88.301
-85.846
-80.314
-72.664
-63.637
-54.368
-45.796
-38.304
-32.174
-27.663
-24.759
-23.245
-22.972
-23.813
-25.605
-28.211
-31.487
-35.241
-39.325
-43.617
-47.967
-52.252
-56.37
-60.223
-63.731
-66.811
-69.389
-71.408
-72.843
-73.696
-73.974
-73.693
-72.883
-71.588
-69.869
-67.8
-65.448
-62.86
-60.078
-57.142
-54.102
-51.02
-47.944
-44.911
-41.943
-39.05
-36.238
-33.515
-30.875
-28.302
-25.773
-23.263
-20.749
-18.222
-15.666
-13.069
-10.409
-7.656
-4.788
-1.784
1.368
4.673
8.137
11.762
15.542
19.46
23.494
27.61
31.787
36.015
40.283
44.591
48.932
53.299
57.687
62.093
66.516
70.957
75.41
79.865
84.322
88.793
93.299
97.884
102.566
107.341
112.196
117.102
122.024
126.922
131.742
136.413
140.874
145.068
148.949
152.49
155.647
158.364
160.572
162.184
163.139
163.406
162.965
161.812
159.961
157.434
154.287
150.603
146.451
141.89
136.966
131.707
126.159
120.381
114.436
108.401
102.34
96.294
90.308
84.419
78.646
73.002
67.473
62.021
56.622
51.271
45.965
40.72
35.541
30.428
25.383
20.407
15.503
10.679
5.939
1.284
-3.277
-7.728
-12.044
-16.189
-20.137
-23.872
-27.383
-30.664
-33.71
-36.52
-39.093
-41.437
-43.56
-45.466
-47.162
-48.65
-49.937
-51.035
-51.955
-52.715
-53.327
-53.805
-54.162
-54.41
-54.561
-54.626
-54.614
-54.532
-54.386
-54.187
-53.941
-53.658
-53.345
-53.01
-52.66
-52.302
-51.943
-51.588
-51.242
-50.908
-50.591
-50.292
-50.014
-49.759
-49.528
-49.32
-49.137
-48.977
-48.84
-48.724
-48.626
-48.544
-48.475
-48.416
-48.362
-48.311
-48.26
-48.203
-48.14
-48.067
-47.981
-47.881
-47.765
-47.631
-47.477
-47.301
-47.103
-46.88
-46.632
-46.357
-46.056
-45.727
-45.371
-44.987
-44.575
-44.137
-43.672
-43.181
-42.665
-42.125
-41.563
-40.978
-40.375
-39.754
-39.119
-38.472
-37.816
-37.153
-36.487
-35.82
-35.154
-34.492
-33.834
-33.184
-32.542
-31.91
-31.288
-30.678
-30.081
-29.498
-28.929
-28.376
-27.838
-27.318
-26.814
-26.329
-25.861
-25.413
-24.985
-24.578
-24.193
-23.83
-23.491
-23.175
-22.883
-22.615
-22.371
-22.15
-21.951
-21.775
-21.619
-21.484
-21.37
-21.276
-21.201
-21.147
-21.114
-21.102
-21.111
-21.142
-21.196
-21.273
-21.372
-21.496
-21.643
-21.816
-22.013
-22.234
-22.481
-22.751
-23.044
-23.36
-23.696
-24.051
-24.424
-24.812
-25.215
-25.631
-26.06
-26.5
-26.952
-27.414
-27.886
-28.368
-28.858
-29.356
-29.859
-30.367
-30.877
-31.387
-31.896
-32.402
-32.902
-33.394
-33.877
-34.349
-34.807
-35.251
-35.677
-36.086
-36.477
-36.848
-37.2
-37.533
-37.848
-38.146
-38.428
-38.695
-38.947
-39.185
-39.409
-39.619
-39.813
-39.99
-40.147
-40.284
-40.399
-40.492
-40.562
-40.608
-40.631
-40.632
-40.611
-40.57
-40.508
-40.422
-40.311
-40.174
-40.006
-39.805
-39.566
-39.284
-38.955
-38.577
-38.147
-37.662
-37.114
-36.492
-35.79
-35.005
-34.138
-33.191
-32.167
-31.072
-29.917
-28.727
-27.52
-26.317
-25.127
-23.945
-22.773
-21.615
-20.472
-19.352
-18.249
-17.145
-16.027
-14.886
-13.711
-12.489
-11.191
-9.762
-8.165
-6.373
-4.379
-2.207
0.124
2.592
5.163
7.795
10.426
12.972
15.369
17.57
19.518
21.156
22.401
23.146
23.307
22.827
21.675
19.858
17.393
14.312
10.676
6.57
2.102
-2.605
-7.446
-12.342
-17.201
-21.92
-26.38
-30.446
-34.012
-37.003
-39.377
-41.139
-42.317
-42.98
-43.227
-43.164
-42.931
-42.685
-42.572
-42.738
-43.319
-44.437
-46.259
-49.001
-52.765
-57.495
-62.956
-68.691
-74.233
-79.212
-83.188
-85.571
-85.981
-84.435
-81.383
-77.862
-74.908
-73.009
-72.513
-73.926
-77.357
-82.186
-86.988
-89.138
-85.642
-74.429
-53.803
-21.743
23.486
82.791
155.886
239.25
326.907
414.059
496.998
575.294
650.432
719.269
774.622
804.478
795.692
743.782
651.499
527.741
387.63
244.232
110.958
3.538
-70.092
-108.099
-116.68
-111.441
-103.123
-96.863
-93.111
-86.915
-77.578
-67.553
-59.195
-55.78
-57.782
-63.326
-70.878
-78.397
-83.921
-86.759
-86.654
-83.686
-78.558
-72.011
-64.668
-57.316
-50.738
-45.332
-41.25
-38.467
-36.75
-35.93
-35.894
-36.486
-37.538
-38.921
-40.543
-42.349
-44.304
-46.334
-48.337
-50.237
-51.985
-53.564
-54.978
-56.24
-57.347
-58.299
-59.092
-59.705
-60.117
-60.321
-60.296
-60.028
-59.518
-58.776
-57.825
-56.687
-55.373
-53.885
-52.221
-50.375
-48.353
-46.162
-43.819
-41.356
-38.802
-36.177
-33.508
-30.813
-28.102
-25.384
-22.655
-19.902
-17.116
-14.291
-11.419
-8.495
-5.51
-2.451
0.695
3.95
7.328
10.841
14.498
18.304
22.262
26.37
30.623
35.007
39.508
44.115
48.813
53.587
58.423
63.301
68.201
73.104
77.99
82.837
87.625
92.335
96.946
101.438
105.792
109.991
114.016
117.848
121.47
124.862
128.007
130.889
133.493
135.804
137.809
139.496
140.855
141.878
142.558
142.89
142.869
142.495
141.766
140.687
139.26
137.492
135.389
132.961
130.22
127.176
123.844
120.237
116.373
112.267
107.937
103.403
98.682
93.795
88.763
83.607
78.347
73.005
67.602
62.159
56.697
51.237
45.799
40.403
35.068
29.813
24.655
19.61
14.695
9.925
5.311
0.867
-3.398
-7.474
-11.354
-15.031
-18.502
-21.762
-24.809
-27.643
-30.264
-32.674
-34.876
-36.873
-38.671
-40.275
-41.691
-42.928
-43.993
-44.895
-45.643
-46.247
-46.717
-47.063
-47.295
-47.425
-47.464
-47.422
-47.311
-47.142
-46.925
-46.671
-46.388
-46.087
-45.776
-45.461
-45.151
-44.85
-44.565
-44.3
-44.058
-43.843
-43.656
-43.5
-43.374
-43.28
-43.215
-43.18
-43.172
-43.189
-43.229
-43.288
-43.364
-43.453
-43.552
-43.656
-43.762
-43.865
-43.96
-44.044
-44.112
-44.158
-44.18
-44.173
-44.133
-44.057
-43.942
-43.787
-43.588
-43.346
-43.059
-42.727
-42.35
-41.928
-41.464
-40.957
-40.411
-39.828
-39.211
-38.564
-37.89
-37.194
-36.48
-35.752
-35.014
-34.271
-33.528
-32.79
-32.06
-31.344
-30.647
-29.973
-29.327
-28.712
-28.134
-27.595
-27.099
-26.649
-26.248
-25.897
-25.599
-25.354
-25.164
-25.029
-24.95
-24.927
-24.96
-25.047
-25.187
-25.38
-25.621
-25.909
-26.241
-26.613
-27.021
-27.463
-27.933
-28.429
-28.945
-29.477
-30.022
-30.575
-31.13
-31.685
-32.235
-32.775
-33.302
-33.812
-34.304
-34.773
-35.217
-35.635
-36.024
-36.383
-36.709
-37.001
-37.257
-37.476
-37.656
-37.797
-37.898
-37.959
-37.98
-37.962
-37.907
-37.817
-37.693
-37.537
-37.353
-37.142
-36.907
-36.653
-36.381
-36.096
-35.8
-35.499
-35.194
-34.891
-34.591
-34.297
-34.012
-33.738
-33.477
-33.231
-33.002
-32.792
-32.603
-32.438
-32.301
-32.194
-32.12
-32.083
-32.085
-32.128
-32.213
-32.342
-32.513
-32.727
-32.982
-33.278
-33.612
-33.983
-34.392
-34.838
-35.322
-35.843
-36.399
-36.989
-37.609
-38.258
-38.933
-39.628
-40.34
-41.068
-41.811
-42.573
-43.357
-44.156
-44.963
-45.764
-46.541
-47.281
-47.968
-48.582
-49.108
-49.538
-49.872
-50.123
-50.304
-50.418
-50.462
-50.422
-50.286
-50.059
-49.749
-49.366
-48.93
-48.461
-47.984
-47.543
-47.168
-46.859
-46.601
-46.347
-46.047
-45.675
-45.22
-44.678
-44.048
-43.319
-42.479
-41.53
-40.457
-39.234
-37.817
-36.136
-34.147
-31.854
-29.286
-26.511
-23.604
-20.607
-17.551
-14.475
-11.406
-8.371
-5.384
-2.438
0.451
3.229
5.812
8.095
10.004
11.508
12.601
13.301
13.626
13.578
13.162
12.393
11.277
9.807
7.958
5.693
3.013
-0.029
-3.337
-6.812
-10.375
-13.972
-17.559
-21.09
-24.516
-27.794
-30.891
-33.783
-36.433
-38.8
-40.83
-42.479
-43.766
-44.765
-45.586
-46.341
-47.118
-47.972
-48.972
-50.213
-51.789
-53.788
-56.291
-59.325
-62.965
-67.356
-72.495
-78.227
-84.215
-89.803
-94.359
-97.457
-98.534
-96.975
-92.662
-85.738
-76.857
-67.54
-58.989
-51.881
-47.148
-45.485
-46.564
-49.557
-52.5
-51.774
-44.399
-28.13
-0.152
41.909
99.132
171.76
256.684
347.149
437.569
523.593
604.045
680.15
748.453
801.452
827.099
812.63
754.599
656.02
525.268
377.57
226.05
85.742
-24.403
-95.323
-125.595
-123.524
-108.673
-93.939
-84.772
-80.992
-75.956
-67.949
-59.248
-52.204
-50.276
-53.912
-61.082
-70.137
-78.922
-85.508
-89.262
-89.963
-87.767
-83.407
-77.589
-70.904
-64.104
-57.918
-52.717
-48.645
-45.655
-43.525
-42.101
-41.291
-40.991
-41.085
-41.493
-42.176
-43.106
-44.273
-45.636
-47.121
-48.655
-50.187
-51.686
-53.142
-54.556
-55.914
-57.193
-58.372
-59.4
-60.236
-60.847
-61.185
-61.226
-60.965
-60.396
-59.535
-58.406
-57.023
-55.4
-53.551
-51.478
-49.195
-46.727
-44.101
-41.363
-38.555
-35.705
-32.849
-30.008
-27.193
-24.414
-21.667
-18.939
-16.219
-13.495
-10.752
-7.983
-5.175
-2.308
0.635
3.681
6.851
10.157
13.614
17.227
21
24.933
29.022
33.252
37.613
42.092
46.675
51.349
56.1
60.909
65.757
70.623
75.486
80.325
85.121
89.852
94.498
99.037
103.449
107.716
111.818
115.737
119.451
122.942
126.191
129.181
131.895
134.318
136.436
138.236
139.707
140.84
141.629
142.066
142.15
141.877
141.247
140.264
138.931
137.253
135.239
132.898
130.24
127.279
124.027
120.502
116.719
112.696
108.452
104.008
99.384
94.601
89.681
84.645
79.518
74.319
69.073
63.801
58.525
53.266
48.046
42.884
37.801
32.814
27.942
23.199
18.601
14.161
9.892
5.804
1.906
-1.793
-5.287
-8.57
-11.64
-14.494
-17.132
-19.553
-21.76
-23.756
-25.546
-27.134
-28.527
-29.733
-30.758
-31.611
-32.302
-32.839
-33.234
-33.498
-33.639
-33.671
-33.604
-33.449
-33.217
-32.919
-32.564
-32.164
-31.726
-31.261
-30.776
-30.28
-29.779
-29.28
-28.788
-28.309
-27.847
-27.405
-26.987
-26.594
-26.227
-25.888
-25.576
-25.292
-25.034
-24.802
-24.595
-24.409
-24.243
-24.094
-23.96
-23.836
-23.719
-23.607
-23.496
-23.383
-23.265
-23.138
-23.001
-22.851
-22.687
-22.506
-22.306
-22.088
-21.849
-21.591
-21.312
-21.013
-20.696
-20.361
-20.01
-19.644
-19.265
-18.876
-18.479
-18.076
-17.67
-17.263
-16.86
-16.462
-16.075
-15.7
-15.343
-15.005
-14.692
-14.406
-14.149
-13.926
-13.739
-13.589
-13.479
-13.41
-13.384
-13.401
-13.462
-13.566
-13.714
-13.904
-14.135
-14.406
-14.715
-15.06
-15.438
-15.848
-16.288
-16.754
-17.244
-17.756
-18.286
-18.831
-19.389
-19.954
-20.524
-21.095
-21.663
-22.224
-22.774
-23.31
-23.828
-24.325
-24.798
-25.245
-25.662
-26.048
-26.401
-26.719
-27.002
-27.25
-27.464
-27.643
-27.79
-27.905
-27.991
-28.049
-28.082
-28.09
-28.076
-28.043
-27.991
-27.925
-27.847
-27.759
-27.665
-27.568
-27.471
-27.378
-27.293
-27.217
-27.156
-27.112
-27.088
-27.089
-27.118
-27.178
-27.272
-27.404
-27.576
-27.789
-28.045
-28.344
-28.687
-29.072
-29.499
-29.966
-30.473
-31.018
-31.6
-32.217
-32.868
-33.552
-34.266
-35.009
-35.778
-36.57
-37.384
-38.217
-39.066
-39.93
-40.806
-41.692
-42.585
-43.483
-44.382
-45.279
-46.169
-47.049
-47.912
-48.754
-49.57
-50.358
-51.113
-51.834
-52.519
-53.166
-53.775
-54.348
-54.881
-55.375
-55.825
-56.228
-56.581
-56.88
-57.12
-57.297
-57.407
-57.446
-57.413
-57.309
-57.129
-56.87
-56.526
-56.088
-55.552
-54.917
-54.18
-53.347
-52.425
-51.425
-50.368
-49.278
-48.167
-47.045
-45.914
-44.766
-43.595
-42.395
-41.156
-39.88
-38.568
-37.217
-35.832
-34.415
-32.956
-31.438
-29.829
-28.086
-26.19
-24.135
-21.926
-19.594
-17.175
-14.718
-12.287
-9.932
-7.696
-5.621
-3.733
-2.056
-0.629
0.507
1.292
1.647
1.514
0.851
-0.372
-2.147
-4.454
-7.247
-10.445
-13.972
-17.754
-21.717
-25.803
-29.957
-34.118
-38.221
-42.186
-45.91
-49.29
-52.233
-54.659
-56.511
-57.761
-58.426
-58.558
-58.235
-57.55
-56.582
-55.417
-54.164
-52.939
-51.877
-51.121
-50.795
-51.083
-52.229
-54.372
-57.522
-61.499
-65.843
-70.072
-73.779
-76.443
-77.482
-76.562
-73.661
-69.348
-64.862
-61.479
-60.235
-62.03
-67.581
-77.089
-90.01
-104.557
-117.679
-125.853
-125.498
-113.342
-86.607
-42.983
18.928
98.655
193.887
299.498
407.907
511.932
605.657
687.224
757.127
813.548
851.48
859.115
824.493
742.434
613.637
451.823
277.432
110.444
-27.021
-122.331
-172.761
-181.782
-162.395
-126.847
-86.061
-50.65
-25.387
-14.813
-18.341
-28.642
-40.811
-49.386
-52.582
-54.816
-57.692
-61.538
-66.022
-68.336
-67.557
-64.485
-59.83
-54.741
-50.192
-46.658
-44.427
-43.663
-44.252
-45.897
-48.387
-51.547
-55.166
-59.066
-63.077
-67.028
-70.804
-74.333
-77.509
-80.217
-82.375
-83.928
-84.862
-85.201
-84.975
-84.219
-82.982
-81.324
-79.303
-76.976
-74.399
-71.624
-68.708
-65.711
-62.691
-59.704
-56.791
-53.977
-51.277
-48.692
-46.219
-43.849
-41.567
-39.355
-37.197
-35.079
-32.988
-30.913
-28.84
-26.753
-24.635
-22.471
-20.247
-17.95
-15.57
-13.096
-10.522
-7.839
-5.043
-2.13
0.906
4.069
7.365
10.796
14.366
18.076
21.925
25.912
30.034
34.285
38.658
43.144
47.733
52.413
57.172
61.994
66.864
71.765
76.677
81.583
86.462
91.292
96.053
100.722
105.278
109.699
113.963
118.048
121.935
125.601
129.029
132.198
135.092
137.693
139.987
141.958
143.596
144.89
145.83
146.411
146.626
146.472
145.949
145.058
143.801
142.182
140.209
137.89
135.234
132.254
128.963
125.374
121.506
117.373
112.995
108.391
103.58
98.583
93.42
88.113
82.683
77.153
71.543
65.876
60.173
54.455
48.743
43.057
37.417
31.842
26.348
20.952
15.671
10.518
5.507
0.65
-4.043
-8.562
-12.898
-17.046
-20.999
-24.753
-28.305
-31.653
-34.796
-37.735
-40.471
-43.005
-45.34
-47.481
-49.431
-51.195
-52.779
-54.189
-55.432
-56.515
-57.446
-58.234
-58.886
-59.411
-59.818
-60.115
-60.312
-60.417
-60.438
-60.385
-60.266
-60.088
-59.859
-59.586
-59.277
-58.938
-58.574
-58.192
-57.797
-57.394
-56.986
-56.578
-56.173
-55.775
-55.386
-55.009
-54.647
-54.302
-53.974
-53.666
-53.378
-53.111
-52.865
-52.639
-52.434
-52.248
-52.08
-51.929
-51.792
-51.668
-51.555
-51.45
-51.35
-51.253
-51.156
-51.055
-50.949
-50.834
-50.707
-50.567
-50.409
-50.233
-50.035
-49.815
-49.569
-49.296
-48.995
-48.663
-48.299
-47.902
-47.471
-47.004
-46.501
-45.963
-45.387
-44.776
-44.129
-43.447
-42.73
-41.982
-41.203
-40.395
-39.561
-38.704
-37.827
-36.933
-36.025
-35.108
-34.185
-33.26
-32.337
-31.42
-30.512
-29.616
-28.737
-27.878
-27.041
-26.23
-25.449
-24.7
-23.986
-23.309
-22.672
-22.077
-21.527
-21.022
-20.564
-20.155
-19.795
-19.485
-19.225
-19.015
-18.855
-18.744
-18.68
-18.661
-18.686
-18.752
-18.856
-18.995
-19.166
-19.366
-19.591
-19.839
-20.105
-20.387
-20.68
-20.983
-21.291
-21.6
-21.909
-22.213
-22.51
-22.797
-23.07
-23.328
-23.568
-23.786
-23.982
-24.151
-24.294
-24.408
-24.491
-24.544
-24.565
-24.554
-24.512
-24.44
-24.338
-24.208
-24.051
-23.87
-23.665
-23.44
-23.195
-22.934
-22.658
-22.37
-22.073
-21.77
-21.463
-21.155
-20.85
-20.548
-20.254
-19.969
-19.695
-19.436
-19.194
-18.97
-18.768
-18.589
-18.435
-18.307
-18.205
-18.129
-18.079
-18.051
-18.044
-18.057
-18.087
-18.131
-18.187
-18.254
-18.33
-18.414
-18.503
-18.594
-18.682
-18.762
-18.829
-18.877
-18.899
-18.888
-18.836
-18.739
-18.593
-18.395
-18.141
-17.824
-17.434
-16.965
-16.417
-15.79
-15.088
-14.316
-13.481
-12.598
-11.69
-10.78
-9.889
-9.03
-8.205
-7.418
-6.676
-5.986
-5.359
-4.793
-4.272
-3.785
-3.325
-2.882
-2.448
-1.996
-1.479
-0.862
-0.123
0.742
1.712
2.766
3.892
5.061
6.243
7.384
8.406
9.243
9.847
10.167
10.156
9.748
8.851
7.404
5.38
2.783
-0.351
-3.985
-8.083
-12.589
-17.42
-22.473
-27.614
-32.724
-37.708
-42.476
-46.933
-50.981
-54.51
-57.451
-59.81
-61.633
-62.988
-63.948
-64.56
-64.906
-65.123
-65.371
-65.823
-66.64
-67.913
-69.769
-72.412
-75.93
-80.278
-85.227
-90.239
-94.761
-98.405
-100.686
-101.009
-99.052
-94.763
-88.584
-81.73
-75.361
-70.205
-67.002
-66.429
-68.661
-73.25
-78.68
-81.923
-79.77
-69.594
-48.642
-14.215
35.757
102.719
185.074
277.026
372.565
465.593
553.313
639.076
722.637
800.072
862.631
889.987
865.492
781.458
635.679
446.007
241.086
47.889
-103.402
-197.516
-238.519
-236.416
-208.127
-168.063
-121.635
-74.701
-36.243
-14.591
-15.216
-35.535
-63.247
-86.215
-97.963
-98.843
-95.521
-92.975
-92.367
-92.697
-91.275
-87.266
-81.736
-75.752
-70.471
-66.557
-63.941
-62.547
-62.273
-62.824
-63.975
-65.589
-67.528
-69.678
-71.947
-74.217
-76.354
-78.289
-79.937
-81.199
-82.029
-82.405
-82.353
-81.959
-81.303
-80.439
-79.408
-78.232
-76.904
-75.441
-73.87
-72.21
-70.505
-68.792
-67.105
-65.492
-63.977
-62.558
-61.214
-59.89
-58.533
-57.115
-55.616
-54.036
-52.397
-50.707
-48.971
-47.199
-45.386
-43.525
-41.606
-39.605
-37.501
-35.28
-32.941
-30.491
-27.94
-25.287
-22.524
-19.638
-16.606
-13.41
-10.036
-6.466
-2.691
1.295
5.493
9.894
14.484
19.252
24.185
29.273
34.507
39.872
45.349
50.919
56.561
62.251
67.967
73.68
79.36
84.979
90.508
95.92
101.19
106.287
111.183
115.85
120.266
124.405
128.244
131.758
134.919
137.705
140.102
142.1
143.689
144.865
145.623
145.968
145.917
145.482
144.679
143.514
141.984
140.093
137.852
135.267
132.355
129.119
125.55
121.65
117.424
112.873
108.001
102.794
97.222
91.27
84.935
78.231
71.191
63.845
56.22
48.356
40.298
32.101
23.84
15.569
7.337
-0.795
-8.761
-16.479
-23.838
-30.754
-37.162
-43.003
-48.245
-52.86
-56.824
-60.142
-62.827
-64.899
-66.389
-67.316
-67.695
-67.572
-67.001
-66.055
-64.835
-63.428
-61.918
-60.403
-58.96
-57.652
-56.534
-55.634
-54.976
-54.592
-54.517
-54.784
-55.419
-56.425
-57.792
-59.502
-61.515
-63.782
-66.243
-68.812
-71.421
-74.02
-76.573
-79.055
-81.446
-83.706
-85.795
-87.682
-89.34
-90.754
-91.918
-92.82
-93.468
-93.886
-94.111
-94.204
-94.206
-94.145
-94.039
-93.898
-93.729
-93.548
-93.37
-93.203
-93.064
-92.967
-92.925
-92.951
-93.049
-93.207
-93.402
-93.599
-93.756
-93.843
-93.828
-93.688
-93.408
-92.972
-92.36
-91.545
-90.485
-89.137
-87.471
-85.455
-83.074
-80.344
-77.288
-73.962
-70.444
-66.802
-63.121
-59.497
-56.021
-52.806
-49.964
-47.594
-45.853
-44.956
-45.009
-45.988
-47.697
-49.719
-51.657
-53.225
-54.039
-53.578
-51.521
-47.956
-43.475
-39.245
-36.393
-35.481
-36.924
-41.339
-48.98
-59.277
-70.692
-80.387
-85.199
-82.993
-71.734
-48.815
-12.045
40.232
107.182
183.961
265.154
345.985
424.567
504.326
586.359
667.36
738.94
781.491
776.532
714.313
591.483
423.431
237.105
58.046
-85.25
-176
-215.904
-214
-189.53
-162.102
-138.398
-119.341
-101.237
-78.768
-53.533
-29.373
-9.503
2.76
6.873
4.078
-4.064
-14.874
-25.47
-34.418
-41.197
-45.668
-47.896
-47.634
-44.892
-40.558
-36.064
-32.364
-29.822
-28.448
-28.08
-28.837
-30.843
-33.835
-37.266
-40.643
-43.67
-46.24
-48.397
-50.102
-51.267
-51.88
-51.993
-51.69
-51.063
-50.152
-48.954
-47.474
-45.735
-43.77
-41.627
-39.346
-36.955
-34.492
-31.983
-29.454
-26.935
-24.447
-22.003
-19.614
-17.269
-14.96
-12.687
-10.447
-8.24
-6.076
-3.963
-1.926
0.001
1.806
3.488
5.062
6.562
8.02
9.472
10.971
12.55
14.234
16.046
17.987
20.066
22.309
24.747
27.437
30.439
33.79
37.509
41.6
46.044
50.821
55.897
61.214
66.734
72.437
78.31
84.373
90.627
97.048
103.606
110.248
116.907
123.528
130.056
136.432
142.614
148.551
154.201
159.537
164.501
169.026
173.034
176.425
179.122
181.074
182.232
182.571
182.083
180.763
178.63
175.715
172.044
167.664
162.623
156.976
150.813
144.223
137.297
130.142
122.843
115.473
108.105
100.799
93.599
86.546
79.666
72.972
66.485
60.21
54.147
48.286
42.594
37.047
31.627
26.313
21.096
15.972
10.935
5.99
1.15
-3.574
-8.166
-12.61
-16.897
-21.012
-24.938
-28.656
-32.139
-35.37
-38.339
-41.038
-43.464
-45.619
-47.507
-49.137
-50.524
-51.684
-52.63
-53.377
-53.938
-54.326
-54.557
-54.647
-54.612
-54.469
-54.231
-53.91
-53.521
-53.074
-52.58
-52.05
-51.489
-50.906
-50.308
-49.704
-49.1
-48.504
-47.922
-47.357
-46.817
-46.303
-45.82
-45.368
-44.948
-44.561
-44.206
-43.882
-43.587
-43.319
-43.075
-42.853
-42.649
-42.46
-42.282
-42.111
-41.945
-41.78
-41.612
-41.439
-41.258
-41.067
-40.863
-40.645
-40.41
-40.158
-39.888
-39.598
-39.289
-38.96
-38.611
-38.243
-37.856
-37.452
-37.031
-36.595
-36.145
-35.685
-35.215
-34.738
-34.256
-33.772
-33.288
-32.808
-32.333
-31.867
-31.413
-30.972
-30.549
-30.145
-29.762
-29.404
-29.072
-28.767
-28.492
-28.247
-28.034
-27.854
-27.706
-27.591
-27.51
-27.46
-27.443
-27.457
-27.501
-27.574
-27.674
-27.799
-27.949
-28.121
-28.314
-28.525
-28.754
-28.998
-29.255
-29.523
-29.8
-30.083
-30.371
-30.662
-30.951
-31.239
-31.521
-31.795
-32.06
-32.313
-32.552
-32.775
-32.979
-33.164
-33.328
-33.47
-33.589
-33.685
-33.757
-33.807
-33.834
-33.84
-33.825
-33.79
-33.738
-33.669
-33.585
-33.488
-33.379
-33.26
-33.133
-32.998
-32.859
-32.717
-32.574
-32.432
-32.293
-32.16
-32.034
-31.917
-31.813
-31.723
-31.649
-31.594
-31.56
-31.548
-31.56
-31.598
-31.66
-31.749
-31.864
-32.004
-32.168
-32.355
-32.562
-32.789
-33.032
-33.289
-33.558
-33.835
-34.119
-34.406
-34.693
-34.979
-35.26
-35.535
-35.8
-36.053
-36.292
-36.515
-36.718
-36.901
-37.061
-37.194
-37.3
-37.376
-37.419
-37.43
-37.406
-37.346
-37.25
-37.119
-36.952
-36.751
-36.519
-36.256
-35.966
-35.651
-35.316
-34.963
-34.597
-34.222
-33.84
-33.457
-33.076
-32.701
-32.335
-31.982
-31.644
-31.325
-31.028
-30.754
-30.508
-30.291
-30.107
-29.958
-29.846
-29.775
-29.746
-29.762
-29.824
-29.933
-30.091
-30.297
-30.55
-30.851
-31.197
-31.588
-32.019
-32.49
-32.997
-33.535
-34.102
-34.693
-35.304
-35.931
-36.569
-37.214
-37.863
-38.51
-39.152
-39.785
-40.405
-41.008
-41.59
-42.145
-42.669
-43.156
-43.6
-43.997
-44.339
-44.624
-44.845
-44.999
-45.082
-45.093
-45.029
-44.89
-44.672
-44.372
-43.988
-43.518
-42.958
-42.308
-41.565
-40.726
-39.791
-38.763
-37.646
-36.441
-35.149
-33.767
-32.298
-30.748
-29.126
-27.444
-25.714
-23.95
-22.176
-20.423
-18.721
-17.096
-15.569
-14.143
-12.829
-11.637
-10.574
-9.652
-8.867
-8.205
-7.656
-7.214
-6.866
-6.599
-6.377
-6.146
-5.862
-5.496
-5.032
-4.479
-3.841
-3.125
-2.35
-1.545
-0.749
-0.017
0.623
1.154
1.552
1.789
1.816
1.562
0.982
0.059
-1.216
-2.827
-4.754
-6.975
-9.438
-12.077
-14.829
-17.641
-20.509
-23.449
-26.47
-29.558
-32.665
-35.748
-38.811
-41.891
-45.031
-48.286
-51.668
-55.237
-59.175
-63.553
-68.268
-73.032
-77.231
-80.229
-81.618
-80.938
-77.621
-71.531
-62.954
-52.632
-42.251
-33.52
-27.554
-25.521
-28.376
-35.931
-47.027
-59.618
-69.986
-73.914
-67.805
-47.77
-10.04
46.126
118.306
203.47
296.513
393.842
497.039
603.953
706.816
794.679
849.751
856.536
812.006
720.049
590.149
437.912
276.537
119.836
-12.448
-104.658
-150.052
-151.846
-126.891
-95.827
-71.132
-57.118
-50.554
-45.044
-38.789
-33.185
-30.563
-33.234
-40.51
-50.203
-60.03
-67.656
-72.127
-73.389
-71.662
-67.632
-62.081
-55.708
-49.348
-43.775
-39.348
-36.195
-34.26
-33.337
-33.273
-33.937
-35.16
-36.758
-38.579
-40.519
-42.492
-44.436
-46.28
-47.942
-49.368
-50.556
-51.521
-52.284
-52.876
-53.305
-53.573
-53.686
-53.627
-53.388
-52.982
-52.42
-51.727
-50.942
-50.085
-49.173
-48.214
-47.183
-46.055
-44.809
-43.416
-41.868
-40.168
-38.324
-36.369
-34.335
-32.236
-30.084
-27.88
-25.614
-23.287
-20.894
-18.43
-15.903
-13.32
-10.684
-8.003
-5.278
-2.501
0.342
3.273
6.315
9.481
12.783
16.224
19.803
23.521
27.372
31.345
35.433
39.628
43.92
48.303
52.765
57.293
61.871
66.479
71.097
75.705
80.283
84.812
89.272
93.646
97.915
102.064
106.077
109.937
113.627
117.131
120.431
123.513
126.36
128.959
131.297
133.36
135.14
136.627
137.814
138.693
139.261
139.513
139.447
139.061
138.358
137.339
136.007
134.368
132.43
130.2
127.688
124.906
121.867
118.583
115.069
111.34
107.413
103.303
99.028
94.605
90.053
85.388
80.63
75.798
70.909
65.982
61.035
56.085
51.15
46.246
41.389
36.594
31.876
27.249
22.726
18.321
14.045
9.908
5.92
2.09
-1.575
-5.07
-8.388
-11.527
-14.483
-17.255
-19.842
-22.245
-24.463
-26.5
-28.359
-30.043
-31.557
-32.906
-34.097
-35.135
-36.027
-36.781
-37.403
-37.9
-38.282
-38.555
-38.728
-38.809
-38.808
-38.731
-38.589
-38.389
-38.14
-37.851
-37.528
-37.179
-36.812
-36.433
-36.049
-35.666
-35.288
-34.921
-34.57
-34.238
-33.929
-33.645
-33.388
-33.159
-32.96
-32.791
-32.653
-32.545
-32.467
-32.419
-32.4
-32.408
-32.443
-32.501
-32.581
-32.681
-32.797
-32.928
-33.068
-33.217
-33.369
-33.522
-33.671
-33.815
-33.948
-34.068
-34.172
-34.255
-34.314
-34.348
-34.353
-34.328
-34.271
-34.182
-34.058
-33.9
-33.708
-33.482
-33.222
-32.93
-32.605
-32.25
-31.866
-31.454
-31.017
-30.556
-30.075
-29.577
-29.063
-28.538
-28.004
-27.465
-26.925
-26.388
-25.856
-25.335
-24.828
-24.34
-23.874
-23.435
-23.027
-22.652
-22.314
-22.016
-21.76
-21.548
-21.381
-21.26
-21.186
-21.16
-21.181
-21.248
-21.361
-21.52
-21.721
-21.964
-22.247
-22.568
-22.925
-23.315
-23.736
-24.184
-24.658
-25.155
-25.671
-26.203
-26.749
-27.303
-27.864
-28.427
-28.988
-29.545
-30.093
-30.63
-31.153
-31.658
-32.143
-32.606
-33.046
-33.461
-33.852
-34.217
-34.558
-34.875
-35.169
-35.443
-35.697
-35.933
-36.154
-36.361
-36.557
-36.743
-36.921
-37.094
-37.263
-37.431
-37.599
-37.771
-37.947
-38.129
-38.32
-38.521
-38.734
-38.96
-39.201
-39.46
-39.738
-40.035
-40.353
-40.694
-41.056
-41.438
-41.839
-42.257
-42.687
-43.127
-43.572
-44.017
-44.457
-44.886
-45.3
-45.695
-46.066
-46.408
-46.716
-46.986
-47.214
-47.394
-47.52
-47.585
-47.583
-47.51
-47.36
-47.131
-46.818
-46.418
-45.928
-45.349
-44.678
-43.914
-43.053
-42.085
-41.01
-39.833
-38.566
-37.223
-35.82
-34.369
-32.89
-31.406
-29.934
-28.486
-27.063
-25.654
-24.26
-22.887
-21.551
-20.275
-19.076
-17.955
-16.913
-15.949
-15.054
-14.226
-13.443
-12.672
-11.905
-11.152
-10.446
-9.848
-9.399
-9.123
-9.035
-9.132
-9.412
-9.868
-10.485
-11.241
-12.126
-13.134
-14.275
-15.579
-17.037
-18.612
-20.236
-21.815
-23.279
-24.572
-25.654
-26.507
-27.145
-27.637
-28.075
-28.563
-29.18
-29.969
-30.969
-32.24
-33.875
-35.967
-38.616
-41.886
-45.864
-50.738
-56.546
-63.13
-70.133
-76.931
-82.975
-87.917
-91.224
-92.186
-90.559
-86.492
-80.676
-74.445
-68.485
-63.25
-59.937
-59.423
-61.81
-65.264
-65.365
-59.257
-46.223
-27.654
-7.021
19.79
59.85
117.499
199.467
300.651
410.798
527.104
638.342
735.335
811.369
848.861
839.244
783.321
684.202
554.788
409.454
259.636
120.542
8.981
-65.347
-100.192
-103.923
-94.661
-84.876
-79.89
-78.817
-75.125
-67.501
-58.512
-50.942
-48.51
-51.679
-58.39
-67.071
-75.671
-82.231
-86.091
-86.982
-84.981
-80.83
-75.293
-68.982
-62.701
-57.269
-53.101
-50.387
-49.104
-48.97
-49.749
-51.248
-53.228
-55.457
-57.753
-59.963
-61.978
-63.734
-65.155
-66.171
-66.72
-66.76
-66.286
-65.316
-63.907
-62.146
-60.143
-58.008
-55.837
-53.701
-51.663
-49.783
-48.103
-46.653
-45.437
-44.428
-43.611
-42.977
-42.509
-42.183
-41.955
-41.755
-41.505
-41.143
-40.618
-39.895
-38.946
-37.744
-36.274
-34.544
-32.579
-30.422
-28.098
-25.618
-22.983
-20.197
-17.269
-14.216
-11.057
-7.797
-4.443
-1
2.526
6.125
9.801
13.567
17.446
21.459
25.616
29.914
34.341
38.878
43.503
48.192
52.916
57.647
62.368
67.068
71.741
76.382
80.975
85.494
89.916
94.219
98.385
102.401
106.259
109.962
113.528
116.983
120.343
123.617
126.792
129.842
132.741
135.451
137.945
140.197
142.174
143.848
145.192
146.181
146.783
146.951
146.609
145.681
144.11
141.854
138.902
135.249
130.89
125.849
120.155
113.848
106.989
99.631
91.825
83.633
75.131
66.419
57.635
48.912
40.355
32.064
24.115
16.586
9.568
3.114
-2.743
-7.984
-12.616
-16.641
-20.053
-22.877
-25.153
-26.946
-28.357
-29.472
-30.349
-31.051
-31.629
-32.141
-32.663
-33.242
-33.903
-34.663
-35.525
-36.499
-37.599
-38.816
-40.123
-41.482
-42.836
-44.145
-45.391
-46.553
-47.614
-48.556
-49.351
-49.988
-50.473
-50.808
-50.999
-51.051
-50.961
-50.744
-50.421
-50.018
-49.567
-49.087
-48.589
-48.086
-47.587
-47.101
-46.634
-46.191
-45.766
-45.359
-44.971
-44.603
-44.258
-43.937
-43.635
-43.348
-43.073
-42.807
-42.549
-42.298
-42.052
-41.812
-41.577
-41.35
-41.134
-40.928
-40.733
-40.548
-40.372
-40.205
-40.046
-39.893
-39.745
-39.602
-39.461
-39.324
-39.191
-39.06
-38.931
-38.803
-38.677
-38.552
-38.426
-38.299
-38.17
-38.038
-37.902
-37.762
-37.615
-37.462
-37.301
-37.132
-36.954
-36.766
-36.568
-36.361
-36.143
-35.915
-35.678
-35.433
-35.179
-34.919
-34.654
-34.385
-34.113
-33.84
-33.569
-33.299
-33.033
-32.773
-32.518
-32.272
-32.035
-31.809
-31.596
-31.396
-31.212
-31.044
-30.896
-30.767
-30.658
-30.572
-30.509
-30.468
-30.451
-30.458
-30.487
-30.54
-30.614
-30.709
-30.824
-30.957
-31.107
-31.273
-31.451
-31.642
-31.842
-32.049
-32.261
-32.477
-32.695
-32.912
-33.128
-33.341
-33.549
-33.75
-33.944
-34.13
-34.305
-34.468
-34.619
-34.758
-34.882
-34.994
-35.093
-35.179
-35.254
-35.319
-35.377
-35.429
-35.476
-35.522
-35.568
-35.616
-35.67
-35.731
-35.801
-35.884
-35.981
-36.096
-36.23
-36.386
-36.564
-36.766
-36.993
-37.246
-37.526
-37.832
-38.166
-38.527
-38.915
-39.332
-39.776
-40.246
-40.741
-41.259
-41.796
-42.35
-42.916
-43.487
-44.06
-44.629
-45.188
-45.733
-46.257
-46.757
-47.229
-47.669
-48.071
-48.43
-48.738
-48.989
-49.176
-49.293
-49.331
-49.284
-49.147
-48.914
-48.585
-48.159
-47.632
-47
-46.252
-45.387
-44.406
-43.31
-42.104
-40.794
-39.391
-37.914
-36.392
-34.851
-33.312
-31.786
-30.276
-28.787
-27.327
-25.904
-24.526
-23.189
-21.884
-20.608
-19.362
-18.145
-16.946
-15.734
-14.462
-13.093
-11.611
-10.023
-8.349
-6.608
-4.823
-3.026
-1.265
0.393
1.881
3.151
4.167
4.894
5.281
5.261
4.751
3.7
2.101
-0.026
-2.642
-5.707
-9.167
-12.947
-16.937
-21.005
-25.033
-28.922
-32.603
-36.004
-39.039
-41.625
-43.68
-45.185
-46.195
-46.786
-47.051
-47.077
-46.933
-46.737
-46.663
-46.886
-47.575
-48.871
-50.83
-53.557
-57.229
-61.867
-67.355
-73.36
-79.204
-84.241
-88.016
-89.966
-89.514
-86.467
-80.851
-73.246
-65.045
-57.473
-51.344
-47.483
-46.343
-47.505
-50.043
-51.915
-49.694
-40.051
-20.141
12.62
60.222
123.426
201.551
292.191
389.728
486.273
575.895
653.595
716.012
764.176
794.817
801.231
778.043
717.05
616.166
483.145
330.102
176.604
44.39
-52.21
-107.446
-127.107
-126.055
-117.124
-107.434
-97.715
-83.971
-65.431
-44.927
-25.943
-12.742
-7.039
-7.984
-14.832
-25.583
-37.226
-47.695
-55.753
-60.726
-62.803
-62.255
-58.86
-53.191
-46.717
-40.595
-35.603
-32.113
-29.926
-28.935
-29.369
-31.122
-33.724
-36.791
-39.957
-43.005
-45.98
-48.856
-51.481
-53.783
-55.723
-57.254
-58.4
-59.168
-59.525
-59.48
-59.059
-58.288
-57.224
-55.915
-54.401
-52.734
-50.95
-49.074
-47.131
-45.136
-43.119
-41.127
-39.186
-37.307
-35.493
-33.731
-32.014
-30.338
-28.683
-27.024
-25.335
-23.59
-21.778
-19.896
-17.939
-15.902
-13.769
-11.51
-9.105
-6.544
-3.819
-0.928
2.134
5.369
8.764
12.288
15.916
19.628
23.418
27.292
31.25
35.292
39.412
43.604
47.872
52.224
56.66
61.176
65.766
70.435
75.206
80.123
85.216
90.494
95.945
101.536
107.237
113.008
118.8
124.549
130.17
135.582
140.726
145.553
150.015
154.051
157.578
160.493
162.718
164.2
164.913
164.848
164.003
162.394
160.06
157.07
153.518
149.483
145.025
140.189
135.021
129.579
123.943
118.2
112.421
106.659
100.957
95.35
89.87
84.535
79.338
74.252
69.232
64.25
59.297
54.376
49.489
44.636
39.808
34.997
30.209
25.449
20.725
16.043
11.407
6.829
2.333
-2.047
-6.275
-10.324
-14.177
-17.822
-21.252
-24.46
-27.441
-30.196
-32.732
-35.055
-37.169
-39.078
-40.784
-42.294
-43.618
-44.769
-45.759
-46.6
-47.304
-47.881
-48.341
-48.695
-48.951
-49.119
-49.203
-49.212
-49.154
-49.038
-48.874
-48.671
-48.437
-48.179
-47.908
-47.63
-47.352
-47.079
-46.817
-46.568
-46.337
-46.126
-45.936
-45.769
-45.624
-45.503
-45.403
-45.325
-45.266
-45.223
-45.196
-45.181
-45.175
-45.176
-45.18
-45.184
-45.185
-45.179
-45.164
-45.136
-45.093
-45.031
-44.946
-44.837
-44.701
-44.534
-44.334
-44.099
-43.827
-43.517
-43.167
-42.778
-42.349
-41.881
-41.375
-40.832
-40.256
-39.648
-39.012
-38.35
-37.666
-36.964
-36.247
-35.519
-34.784
-34.045
-33.307
-32.572
-31.846
-31.131
-30.431
-29.748
-29.086
-28.448
-27.835
-27.251
-26.697
-26.177
-25.691
-25.241
-24.831
-24.461
-24.133
-23.848
-23.606
-23.409
-23.255
-23.145
-23.077
-23.052
-23.066
-23.119
-23.209
-23.335
-23.493
-23.683
-23.903
-24.149
-24.421
-24.715
-25.031
-25.365
-25.717
-26.085
-26.468
-26.865
-27.274
-27.695
-28.126
-28.566
-29.014
-29.467
-29.925
-30.384
-30.843
-31.3
-31.753
-32.201
-32.641
-33.072
-33.494
-33.903
-34.3
-34.683
-35.051
-35.403
-35.74
-36.059
-36.362
-36.648
-36.918
-37.172
-37.41
-37.632
-37.838
-38.027
-38.2
-38.355
-38.494
-38.615
-38.719
-38.806
-38.879
-38.938
-38.985
-39.023
-39.053
-39.079
-39.103
-39.129
-39.158
-39.196
-39.244
-39.306
-39.385
-39.484
-39.606
-39.752
-39.924
-40.123
-40.349
-40.601
-40.877
-41.176
-41.496
-41.836
-42.195
-42.572
-42.964
-43.372
-43.795
-44.233
-44.682
-45.14
-45.6
-46.057
-46.505
-46.936
-47.342
-47.713
-48.04
-48.315
-48.533
-48.686
-48.767
-48.764
-48.664
-48.458
-48.142
-47.714
-47.172
-46.52
-45.761
-44.91
-43.989
-43.02
-42.018
-40.986
-39.921
-38.823
-37.69
-36.526
-35.334
-34.104
-32.825
-31.492
-30.104
-28.661
-27.154
-25.553
-23.813
-21.899
-19.796
-17.512
-15.072
-12.5
-9.828
-7.098
-4.364
-1.704
0.814
3.141
5.241
7.081
8.612
9.759
10.425
10.539
10.054
8.944
7.209
4.849
1.896
-1.583
-5.494
-9.714
-14.134
-18.676
-23.272
-27.85
-32.331
-36.597
-40.526
-44.025
-47.006
-49.403
-51.166
-52.261
-52.722
-52.64
-52.139
-51.358
-50.401
-49.351
-48.326
-47.446
-46.839
-46.672
-47.053
-48.103
-50.055
-52.967
-56.742
-61.152
-65.619
-69.516
-72.427
-73.744
-72.748
-69.343
-63.752
-56.628
-49.545
-43.764
-39.994
-39.379
-42.839
-49.946
-59.48
-69.188
-75.244
-74.228
-63.312
-38.844
2.648
61.547
135.287
220.389
311.426
405.763
505.854
609.582
709.394
794.851
848.769
856.839
817.039
731.043
605.709
457.221
299.035
148.933
31.055
-43.712
-73.142
-66.481
-47.171
-30.351
-22.643
-23.636
-24.28
-21.297
-16.418
-12.067
-12.619
-18.975
-28.928
-40.698
-52.069
-61.128
-67.369
-70.613
-70.944
-69.073
-65.768
-61.67
-57.555
-54.172
-51.875
-50.806
-50.946
-52.048
-53.889
-56.295
-59.038
-61.89
-64.686
-67.288
-69.594
-71.539
-73.037
-74.003
-74.382
-74.163
-73.364
-72.036
-70.243
-68.068
-65.622
-63.024
-60.379
-57.784
-55.309
-53.012
-50.949
-49.167
-47.694
-46.541
-45.693
-45.102
-44.726
-44.519
-44.426
-44.387
-44.32
-44.144
-43.796
-43.228
-42.41
-41.318
-39.929
-38.224
-36.208
-33.897
-31.321
-28.527
-25.546
-22.394
-19.088
-15.644
-12.085
-8.444
-4.739
-0.977
2.837
6.698
10.596
14.514
18.456
22.438
26.489
30.644
34.918
39.309
43.809
48.403
53.087
57.861
62.726
67.665
72.665
77.719
82.831
88.014
93.257
98.523
103.748
108.869
113.843
118.637
123.233
127.606
131.722
135.544
139.04
142.19
144.969
147.341
149.256
150.652
151.501
151.811
151.621
150.971
149.882
148.366
146.431
144.099
141.396
138.346
134.965
131.262
127.258
122.988
118.506
113.871
109.121
104.266
99.294
94.199
88.99
83.68
78.284
72.809
67.262
61.66
56.034
50.413
44.821
39.269
33.759
28.292
22.878
17.541
12.31
7.209
2.258
-2.527
-7.127
-11.522
-15.698
-19.646
-23.367
-26.864
-30.136
-33.179
-35.991
-38.568
-40.914
-43.032
-44.929
-46.611
-48.085
-49.361
-50.449
-51.362
-52.111
-52.708
-53.16
-53.478
-53.672
-53.755
-53.737
-53.629
-53.443
-53.189
-52.88
-52.526
-52.138
-51.727
-51.301
-50.87
-50.442
-50.024
-49.623
-49.244
-48.895
-48.578
-48.298
-48.059
-47.862
-47.71
-47.604
-47.544
-47.529
-47.559
-47.631
-47.744
-47.893
-48.075
-48.286
-48.522
-48.777
-49.048
-49.33
-49.617
-49.904
-50.187
-50.461
-50.718
-50.956
-51.168
-51.351
-51.5
-51.611
-51.681
-51.707
-51.688
-51.621
-51.504
-51.338
-51.122
-50.855
-50.537
-50.171
-49.756
-49.296
-48.792
-48.248
-47.667
-47.052
-46.408
-45.739
-45.049
-44.343
-43.627
-42.903
-42.178
-41.456
-40.743
-40.043
-39.362
-38.704
-38.075
-37.477
-36.916
-36.395
-35.916
-35.482
-35.095
-34.756
-34.466
-34.226
-34.037
-33.897
-33.807
-33.766
-33.771
-33.822
-33.915
-34.049
-34.219
-34.424
-34.661
-34.926
-35.216
-35.527
-35.858
-36.203
-36.559
-36.923
-37.29
-37.656
-38.016
-38.368
-38.707
-39.03
-39.334
-39.617
-39.877
-40.111
-40.32
-40.501
-40.654
-40.778
-40.872
-40.937
-40.973
-40.983
-40.967
-40.927
-40.866
-40.785
-40.687
-40.574
-40.447
-40.307
-40.157
-39.997
-39.829
-39.656
-39.479
-39.302
-39.129
-38.963
-38.808
-38.667
-38.542
-38.435
-38.348
-38.282
-38.236
-38.21
-38.204
-38.221
-38.263
-38.332
-38.43
-38.559
-38.722
-38.919
-39.154
-39.422
-39.719
-40.043
-40.391
-40.765
-41.171
-41.609
-42.079
-42.578
-43.103
-43.649
-44.204
-44.751
-45.26
-45.704
-46.066
-46.336
-46.514
-46.599
-46.59
-46.49
-46.302
-46.037
-45.709
-45.323
-44.881
-44.395
-43.888
-43.404
-43.01
-42.764
-42.706
-42.868
-43.26
-43.887
-44.743
-45.794
-46.991
-48.266
-49.559
-50.826
-52.032
-53.123
-54.029
-54.661
-54.906
-54.669
-53.873
-52.442
-50.325
-47.491
-43.94
-39.724
-34.936
-29.688
-24.087
-18.229
-12.205
-6.133
-0.153
5.599
10.974
15.85
20.108
23.614
26.257
27.948
28.642
28.35
27.126
25.04
22.16
18.564
14.342
9.615
4.53
-0.791
-6.233
-11.698
-17.086
-22.267
-27.121
-31.549
-35.485
-38.9
-41.783
-44.126
-45.921
-47.192
-47.986
-48.396
-48.542
-48.519
-48.41
-48.281
-48.182
-48.197
-48.423
-48.948
-49.842
-51.16
-52.93
-55.225
-58.196
-61.877
-66.123
-70.608
-74.757
-77.983
-79.863
-79.913
-77.476
-72.198
-64.179
-54.016
-43.136
-33.096
-24.972
-19.836
-18.841
-22.411
-29.941
-39.821
-48.919
-53.278
-49.337
-33.59
-2.046
46.968
111.596
189.552
276.943
371.808
477.642
593.758
712.275
818.116
888.555
906.804
869.114
783.12
663.871
523.065
369.381
211.302
61.434
-59.498
-137.04
-168.09
-162.352
-141.591
-121.104
-106.885
-97.841
-86.91
-72.65
-57.878
-45.584
-39.537
-40.095
-45.052
-52.605
-60.396
-66.244
-69.381
-69.578
-67.036
-62.59
-57.021
-50.888
-44.924
-39.892
-36.149
-33.823
-32.843
-32.896
-33.753
-35.273
-37.26
-39.518
-41.896
-44.227
-46.408
-48.393
-50.122
-51.584
-52.779
-53.696
-54.352
-54.778
-54.994
-55.028
-54.892
-54.565
-54.041
-53.327
-52.438
-51.42
-50.306
-49.114
-47.856
-46.514
-45.071
-43.52
-41.845
-40.025
-38.052
-35.919
-33.639
-31.257
-28.804
-26.295
-23.743
-21.139
-18.482
-15.775
-13.02
-10.22
-7.378
-4.491
-1.561
1.406
4.414
7.47
10.592
13.808
17.142
20.606
24.211
27.96
31.854
35.896
40.084
44.408
48.858
53.426
58.102
62.878
67.744
72.681
77.673
82.697
87.731
92.758
97.756
102.705
107.584
112.373
117.053
121.606
126.014
130.255
134.307
138.149
141.76
145.123
148.219
151.03
153.54
155.733
157.596
159.121
160.298
161.113
161.554
161.613
161.284
160.576
159.492
158.036
156.217
154.042
151.525
148.687
145.539
142.085
138.33
134.278
129.943
125.351
120.527
115.497
110.278
104.876
99.304
93.587
87.739
81.77
75.687
69.485
63.185
56.838
50.488
44.18
37.946
31.797
25.754
19.84
14.082
8.513
3.156
-1.98
-6.872
-11.486
-15.788
-19.73
-23.305
-26.547
-29.481
-32.13
-34.51
-36.621
-38.473
-40.09
-41.489
-42.686
-43.692
-44.508
-45.154
-45.666
-46.078
-46.433
-46.747
-47.003
-47.196
-47.324
-47.388
-47.402
-47.369
-47.282
-47.147
-46.977
-46.787
-46.594
-46.404
-46.211
-46.011
-45.799
-45.578
-45.365
-45.171
-45.002
-44.864
-44.76
-44.695
-44.677
-44.708
-44.78
-44.887
-45.021
-45.177
-45.356
-45.556
-45.772
-46
-46.233
-46.467
-46.697
-46.916
-47.119
-47.3
-47.451
-47.567
-47.647
-47.688
-47.687
-47.642
-47.55
-47.409
-47.219
-46.979
-46.687
-46.343
-45.947
-45.501
-45.005
-44.464
-43.878
-43.252
-42.589
-41.894
-41.169
-40.421
-39.652
-38.869
-38.074
-37.273
-36.471
-35.672
-34.88
-34.101
-33.338
-32.596
-31.88
-31.192
-30.537
-29.918
-29.337
-28.796
-28.299
-27.846
-27.439
-27.079
-26.766
-26.5
-26.282
-26.11
-25.984
-25.902
-25.861
-25.86
-25.897
-25.968
-26.071
-26.205
-26.365
-26.549
-26.756
-26.982
-27.224
-27.481
-27.75
-28.027
-28.31
-28.597
-28.884
-29.171
-29.453
-29.731
-30.002
-30.264
-30.518
-30.761
-30.994
-31.215
-31.426
-31.627
-31.818
-32.001
-32.176
-32.345
-32.51
-32.673
-32.835
-33
-33.167
-33.338
-33.516
-33.7
-33.892
-34.092
-34.301
-34.518
-34.746
-34.983
-35.231
-35.491
-35.763
-36.047
-36.344
-36.655
-36.979
-37.316
-37.667
-38.03
-38.404
-38.79
-39.186
-39.59
-40
-40.415
-40.831
-41.247
-41.658
-42.061
-42.454
-42.831
-43.19
-43.527
-43.838
-44.12
-44.371
-44.588
-44.77
-44.916
-45.024
-45.092
-45.12
-45.105
-45.046
-44.937
-44.773
-44.55
-44.264
-43.911
-43.489
-42.996
-42.426
-41.781
-41.059
-40.262
-39.388
-38.435
-37.393
-36.261
-35.045
-33.754
-32.402
-31
-29.559
-28.093
-26.623
-25.161
-23.717
-22.29
-20.865
-19.439
-18.016
-16.608
-15.236
-13.913
-12.635
-11.402
-10.207
-9.045
-7.914
-6.801
-5.675
-4.531
-3.38
-2.252
-1.206
-0.281
0.502
1.127
1.589
1.875
1.959
1.823
1.45
0.82
-0.081
-1.281
-2.816
-4.69
-6.878
-9.328
-11.957
-14.697
-17.497
-20.305
-23.074
-25.752
-28.287
-30.632
-32.75
-34.603
-36.157
-37.383
-38.282
-38.882
-39.24
-39.427
-39.513
-39.57
-39.695
-39.99
-40.565
-41.525
-42.929
-44.864
-47.488
-50.854
-54.884
-59.33
-63.649
-67.288
-69.86
-70.903
-69.868
-66.505
-60.878
-53.563
-45.94
-39.37
-34.771
-32.998
-34.748
-40.111
-48.455
-58.032
-65.557
-67.511
-60.982
-43.067
-11.134
36.719
101.575
181.271
269.858
361.36
449.471
532.087
612.208
687.345
753.535
800.943
809.763
770.732
679.605
538.327
369.884
195.628
37.713
-78.529
-150.293
-181.16
-179.71
-164.943
-141.354
-112.41
-85.034
-59.504
-44.808
-45.083
-53.246
-65.321
-73.77
-74.726
-73.545
-72.48
-72.525
-74.035
-73.9
-70.941
-66.045
-59.903
-53.608
-48.057
-43.59
-40.416
-38.712
-38.391
-39.145
-40.752
-43.047
-45.832
-48.952
-52.258
-55.552
-58.696
-61.603
-64.151
-66.253
-67.854
-68.907
-69.411
-69.396
-68.893
-67.95
-66.623
-64.966
-63.029
-60.865
-58.521
-56.056
-53.528
-50.997
-48.518
-46.129
-43.855
-41.71
-39.696
-37.805
-36.026
-34.336
-32.711
-31.131
-29.579
-28.04
-26.497
-24.935
-23.333
-21.674
-19.938
-18.11
-16.175
-14.12
-11.934
-9.608
-7.134
-4.507
-1.726
1.216
4.321
7.593
11.033
14.643
18.422
22.367
26.474
30.739
35.153
39.707
44.39
49.188
54.089
59.076
64.133
69.243
74.385
79.541
84.69
89.809
94.877
99.871
104.768
109.542
114.172
118.634
122.904
126.959
130.779
134.343
137.63
140.622
143.304
145.658
147.67
149.329
150.624
151.545
152.086
152.24
152.005
151.38
150.364
148.962
147.178
145.017
142.488
139.602
136.37
132.806
128.924
124.741
120.275
115.546
110.574
105.381
99.99
94.424
88.706
82.86
76.912
70.885
64.803
58.69
52.57
46.464
40.397
34.389
28.461
22.633
16.923
11.351
5.931
0.68
-4.389
-9.262
-13.928
-18.379
-22.604
-26.597
-30.353
-33.867
-37.139
-40.166
-42.949
-45.491
-47.796
-49.867
-51.712
-53.338
-54.751
-55.963
-56.981
-57.817
-58.481
-58.985
-59.34
-59.558
-59.652
-59.632
-59.512
-59.303
-59.018
-58.668
-58.265
-57.819
-57.341
-56.842
-56.33
-55.815
-55.305
-54.807
-54.327
-53.871
-53.444
-53.05
-52.692
-52.371
-52.09
-51.847
-51.644
-51.479
-51.351
-51.257
-51.195
-51.161
-51.154
-51.168
-51.2
-51.245
-51.3
-51.36
-51.42
-51.476
-51.523
-51.556
-51.572
-51.566
-51.535
-51.473
-51.379
-51.249
-51.081
-50.874
-50.625
-50.335
-50.004
-49.631
-49.218
-48.768
-48.281
-47.761
-47.211
-46.634
-46.034
-45.414
-44.779
-44.133
-43.479
-42.824
-42.17
-41.522
-40.884
-40.261
-39.658
-39.077
-38.524
-38.002
-37.515
-37.067
-36.661
-36.3
-35.987
-35.724
-35.512
-35.353
-35.247
-35.194
-35.194
-35.244
-35.345
-35.492
-35.685
-35.92
-36.194
-36.503
-36.845
-37.216
-37.612
-38.03
-38.467
-38.918
-39.382
-39.855
-40.335
-40.818
-41.301
-41.783
-42.26
-42.731
-43.191
-43.639
-44.072
-44.488
-44.885
-45.262
-45.618
-45.95
-46.261
-46.549
-46.815
-47.06
-47.286
-47.494
-47.686
-47.864
-48.031
-48.189
-48.341
-48.488
-48.633
-48.778
-48.924
-49.073
-49.226
-49.382
-49.544
-49.71
-49.881
-50.057
-50.239
-50.427
-50.622
-50.825
-51.036
-51.257
-51.489
-51.732
-51.986
-52.252
-52.531
-52.82
-53.121
-53.432
-53.752
-54.079
-54.413
-54.751
-55.091
-55.432
-55.771
-56.106
-56.435
-56.757
-57.069
-57.373
-57.665
-57.947
-58.218
-58.478
-58.728
-58.965
-59.191
-59.403
-59.598
-59.773
-59.927
-60.056
-60.155
-60.223
-60.256
-60.252
-60.21
-60.128
-60.003
-59.834
-59.617
-59.351
-59.033
-58.659
-58.227
-57.733
-57.176
-56.553
-55.866
-55.113
-54.296
-53.412
-52.457
-51.431
-50.336
-49.179
-47.965
-46.707
-45.419
-44.12
-42.837
-41.595
-40.419
-39.331
-38.346
-37.478
-36.738
-36.135
-35.684
-35.387
-35.238
-35.223
-35.32
-35.505
-35.752
-36.025
-36.278
-36.466
-36.547
-36.492
-36.282
-35.913
-35.387
-34.708
-33.876
-32.912
-31.85
-30.74
-29.648
-28.629
-27.733
-27.015
-26.536
-26.357
-26.53
-27.088
-28.034
-29.365
-31.066
-33.133
-35.569
-38.359
-41.483
-44.905
-48.571
-52.443
-56.476
-60.634
-64.901
-69.269
-73.74
-78.336
-83.074
-88.01
-93.251
-98.783
-104.439
-109.931
-114.782
-118.542
-120.927
-121.56
-119.932
-115.816
-109.366
-101.182
-92.409
-84.172
-77.107
-71.798
-69.045
-69.145
-71.503
-74.617
-75.882
-72.261
-61.416
-41.307
-9.208
37.055
98.131
173.633
259.912
350.361
439.457
521.677
594.705
660.778
719.234
767.488
795.311
785.216
726.496
613.29
454.775
277.37
106.039
-32.126
-120.3
-162.262
-165.859
-147.896
-124.813
-100.601
-80.935
-66.184
-55.32
-53.476
-57.55
-65.178
-75.254
-82.157
-87.337
-92.205
-95.365
-98.099
-99.094
-96.977
-92.756
-86.983
-80.451
-74.293
-69.048
-64.898
-62.004
-60.311
-59.557
-59.556
-60.152
-61.135
-62.331
-63.637
-64.946
-66.179
-67.304
-68.252
-68.948
-69.38
-69.551
-69.486
-69.234
-68.841
-68.351
-67.81
-67.274
-66.781
-66.349
-65.979
-65.654
-65.349
-65.054
-64.764
-64.466
-64.129
-63.714
-63.182
-62.497
-61.631
-60.556
-59.242
-57.667
-55.818
-53.703
-51.343
-48.77
-46.027
-43.149
-40.158
-37.081
-33.942
-30.757
-27.542
-24.302
-21.032
-17.731
-14.397
-11.025
-7.61
-4.142
-0.606
3.018
6.756
10.632
14.659
18.843
23.187
27.684
32.326
37.097
41.966
46.897
51.857
56.811
61.736
66.619
71.443
76.189
80.838
85.371
89.78
94.074
98.254
102.317
106.266
110.101
113.844
117.536
121.208
124.88
128.555
132.209
135.821
139.371
142.825
146.139
149.254
152.082
154.559
156.639
158.273
159.424
160.027
159.997
159.267
157.795
155.558
152.563
148.819
144.335
139.152
133.334
126.969
120.178
113.056
105.676
98.116
90.449
82.766
75.181
67.786
60.648
53.829
47.374
41.329
35.749
30.656
26.044
21.89
18.151
14.801
11.83
9.221
6.952
4.996
3.316
1.891
0.728
-0.172
-0.807
