Name
Date of Birth,"Mar 27, 1959"
Recorded Date,2020-04-25 10:25:58 -0500
Classification,Sinus Rhythm
Symptoms,
Software Version,1.52
Device,"Watch4,2"
Sample Rate,510.227 hertz


Lead,Lead I
Unit,µV

41.561
43.885
45.674
46.793
47.162
46.744
45.548
43.608
40.931
37.523
33.417
28.681
23.424
17.757
11.755
5.506
-0.889
-7.297
-13.54
-19.467
-24.978
-30.006
-34.51
-38.447
-41.751
-44.356
-46.239
-47.414
-47.933
-47.846
-47.179
-45.967
-44.274
-42.195
-39.864
-37.387
-34.828
-32.236
-29.654
-27.139
-24.766
-22.609
-20.706
-19.071
-17.706
-16.609
-15.794
-15.258
-14.978
-14.904
-14.971
-15.136
-15.381
-15.696
-16.068
-16.481
-16.906
-17.32
-17.719
-18.103
-18.47
-18.818
-19.14
-19.439
-19.729
-20.034
-20.381
-20.785
-21.249
-21.774
-22.359
-23.001
-23.697
-24.441
-25.217
-26.015
-26.824
-27.638
-28.45
-29.249
-30.022
-30.752
-31.425
-32.026
-32.545
-32.97
-33.292
-33.501
-33.591
-33.559
-33.4
-33.112
-32.691
-32.131
-31.43
-30.583
-29.588
-28.443
-27.148
-25.704
-24.112
-22.377
-20.506
-18.505
-16.385
-14.156
-11.828
-9.415
-6.93
-4.387
-1.802
0.809
3.43
6.046
8.639
11.191
13.685
16.103
18.429
20.646
22.736
24.681
26.464
28.07
29.486
30.701
31.706
32.486
33.024
33.308
33.328
33.079
32.556
31.756
30.684
29.352
27.793
26.047
24.159
22.167
20.103
18.001
15.897
13.833
11.859
10.015
8.333
6.839
5.553
4.491
3.657
3.018
2.491
1.955
1.287
0.372
-0.871
-2.5
-4.589
-7.237
-10.535
-14.58
-19.437
-25.1
-31.618
-39.075
-47.388
-56.328
-65.408
-73.837
-80.915
-86.092
-88.746
-88.428
-85.084
-78.913
-70.789
-62.172
-54.223
-48.065
-44.721
-44.297
-46.09
-48.726
-49.551
-45.434
-33.518
-10.265
27.543
81.322
149.863
229.223
314.197
400.274
486.837
573.699
655.997
725.758
769.4
772.564
730.898
646.412
526.895
387.825
243.081
107.46
-1.213
-73.926
-109.215
-114.261
-105.971
-96.217
-90.344
-88.23
-84.113
-76.64
-68.008
-60.712
-58.283
-61.213
-67.544
-75.71
-83.721
-89.801
-93.416
-94.363
-92.745
-89.261
-84.656
-79.56
-74.727
-70.872
-68.321
-67.177
-67.382
-68.667
-70.799
-73.571
-76.702
-79.916
-82.994
-85.76
-88.085
-89.887
-91.063
-91.507
-91.171
-90.05
-88.2
-85.719
-82.696
-79.232
-75.441
-71.457
-67.446
-63.556
-59.913
-56.621
-53.759
-51.395
-49.589
-48.385
-47.78
-47.741
-48.197
-49.051
-50.226
-51.649
-53.239
-54.912
-56.566
-58.108
-59.473
-60.612
-61.486
-62.067
-62.321
-62.228
-61.798
-61.054
-60.034
-58.792
-57.359
-55.759
-54.016
-52.148
-50.18
-48.126
-45.985
-43.753
-41.427
-39.007
-36.501
-33.922
-31.268
-28.535
-25.714
-22.785
-19.732
-16.539
-13.188
-9.665
-5.965
-2.098
1.923
6.08
10.363
14.765
19.292
23.955
28.769
33.752
38.908
44.228
49.681
55.215
60.767
66.264
71.645
76.864
81.877
86.65
91.14
95.308
99.101
102.464
105.327
107.612
109.259
110.227
110.504
110.11
109.086
107.496
105.394
102.825
99.83
96.441
92.689
88.607
84.231
79.601
74.773
69.817
64.796
59.762
54.744
49.754
44.785
39.815
34.826
29.811
24.764
19.696
14.617
9.545
4.499
-0.5
-5.441
-10.323
-15.142
-19.894
-24.568
-29.143
-33.592
-37.882
-41.984
-45.869
-49.517
-52.913
-56.048
-58.919
-61.525
-63.872
-65.963
-67.801
-69.388
-70.724
-71.815
-72.67
-73.299
-73.715
-73.932
-73.966
-73.831
-73.543
-73.116
-72.565
-71.903
-71.142
-70.294
-69.374
-68.395
-67.372
-66.319
-65.251
-64.181
-63.122
-62.085
-61.083
-60.124
-59.217
-58.369
-57.586
-56.874
-56.236
-55.676
-55.197
-54.799
-54.482
-54.247
-54.092
-54.015
-54.013
-54.083
-54.221
-54.422
-54.682
-54.994
-55.353
-55.752
-56.185
-56.643
-57.12
-57.609
-58.1
-58.586
-59.06
-59.514
-59.94
-60.332
-60.683
-60.986
-61.238
-61.433
-61.568
-61.639
-61.645
-61.583
-61.454
-61.256
-60.99
-60.658
-60.262
-59.802
-59.282
-58.706
-58.075
-57.395
-56.669
-55.902
-55.1
-54.268
-53.412
-52.538
-51.653
-50.763
-49.876
-48.999
-48.138
-47.301
-46.494
-45.724
-44.998
-44.322
-43.701
-43.142
-42.648
-42.224
-41.874
-41.6
-41.405
-41.289
-41.255
-41.302
-41.431
-41.64
-41.928
-42.293
-42.733
-43.244
-43.824
-44.467
-45.17
-45.926
-46.731
-47.578
-48.46
-49.37
-50.302
-51.249
-52.201
-53.153
-54.095
-55.021
-55.921
-56.788
-57.614
-58.391
-59.113
-59.772
-60.362
-60.876
-61.31
-61.657
-61.913
-62.075
-62.139
-62.103
-61.965
-61.724
-61.379
-60.93
-60.38
-59.73
-58.982
-58.14
-57.207
-56.189
-55.091
-53.918
-52.677
-51.373
-50.015
-48.609
-47.162
-45.684
-44.181
-42.662
-41.136
-39.612
-38.098
-36.603
-35.137
-33.708
-32.325
-30.996
-29.729
-28.532
-27.411
-26.373
-25.423
-24.566
-23.806
-23.145
-22.588
-22.134
-21.787
-21.545
-21.408
-21.375
-21.444
-21.612
-21.876
-22.232
-22.675
-23.202
-23.808
-24.486
-25.232
-26.038
-26.899
-27.805
-28.75
-29.723
-30.715
-31.714
-32.711
-33.695
-34.657
-35.586
-36.472
-37.309
-38.089
-38.805
-39.451
-40.019
-40.501
-40.89
-41.18
-41.362
-41.431
-41.38
-41.203
-40.895
-40.457
-39.887
-39.186
-38.348
-37.366
-36.24
-34.97
-33.562
-32.025
-30.367
-28.599
-26.744
-24.829
-22.885
-20.939
-19.009
-17.1
-15.222
-13.385
-11.598
-9.874
-8.216
-6.608
-5.042
-3.514
-2.012
-0.53
0.963
2.519
4.176
5.964
7.891
9.937
12.084
14.314
16.597
18.897
21.159
23.299
25.252
26.967
28.384
29.457
30.111
30.246
29.79
28.699
26.963
24.617
21.696
18.237
14.307
9.983
5.373
0.61
-4.19
-8.928
-13.501
-17.825
-21.794
-25.292
-28.235
-30.59
-32.38
-33.679
-34.568
-35.114
-35.382
-35.465
-35.505
-35.662
-36.086
-36.912
-38.215
-40.1
-42.76
-46.239
-50.417
-55.007
-59.417
-63.098
-65.734
-66.854
-65.901
-62.772
-57.616
-51.045
-44.426
-38.716
-34.337
-32.035
-32.377
-34.98
-38.929
-42.247
-41.748
-35.063
-20.226
5.553
44.618
97.974
163.966
237.831
314.426
390.479
467.337
547.846
628.865
702.071
752.248
761.962
724.14
640.809
523.099
389.363
257.01
141.837
54.741
-0.296
-26.935
-36.838
-40.605
-44.19
-48.561
-48.412
-40.938
-28.757
-15.575
-5.919
-2.254
-3.677
-8.585
-15.72
-23.626
-30.639
-35.792
-38.553
-38.82
-37.254
-34.54
-31.119
-27.621
-24.762
-22.902
-22.209
-22.663
-23.973
-25.939
-28.44
-31.3
-34.362
-37.5
-40.595
-43.56
-46.344
-48.87
-51.044
-52.821
-54.189
-55.181
-55.868
-56.315
-56.58
-56.705
-56.721
-56.635
-56.433
-56.107
-55.658
-55.099
-54.459
-53.768
-53.055
-52.333
-51.603
-50.84
-49.998
-49.037
-47.919
-46.627
-45.158
-43.533
-41.788
-39.958
-38.072
-36.15
-34.2
-32.224
-30.221
-28.19
-26.127
-24.037
-21.938
-19.844
-17.769
-15.718
-13.688
-11.667
-9.632
-7.566
-5.45
-3.272
-1.024
1.296
3.687
6.143
8.654
11.213
13.816
16.46
19.144
21.864
24.613
27.382
30.162
32.942
35.709
38.449
41.147
43.789
46.364
48.862
51.275
53.593
55.805
57.9
59.872
61.71
63.403
64.937
66.29
67.452
68.418
69.187
69.764
70.153
70.355
70.376
70.229
69.92
69.448
68.804
67.964
66.915
65.656
64.19
62.537
60.7
58.673
56.447
54.012
51.356
48.475
45.348
41.939
38.238
34.255
30.025
25.615
21.074
16.43
11.708
6.919
2.085
-2.756
-7.572
-12.338
-17.018
-21.582
-25.974
-30.116
-33.964
-37.506
-40.761
-43.786
-46.618
-49.272
-51.764
-54.103
-56.3
-58.38
-60.35
-62.208
-63.962
-65.628
-67.241
-68.86
-70.515
-72.209
-73.927
-75.623
-77.266
-78.845
-80.342
-81.741
-83.027
-84.19
-85.229
-86.161
-86.993
-87.722
-88.337
-88.815
-89.147
-89.337
-89.399
-89.354
-89.222
-89.014
-88.746
-88.437
-88.101
-87.75
-87.387
-87.008
-86.612
-86.206
-85.793
-85.385
-84.988
-84.603
-84.232
-83.878
-83.54
-83.22
-82.915
-82.622
-82.34
-82.066
-81.801
-81.546
-81.299
-81.059
-80.823
-80.589
-80.351
-80.106
-79.849
-79.572
-79.268
-78.932
-78.555
-78.132
-77.654
-77.116
-76.51
-75.83
-75.069
-74.221
-73.279
-72.238
-71.091
-69.835
-68.462
-66.97
-65.354
-63.611
-61.738
-59.734
-57.597
-55.326
-52.924
-50.39
-47.728
-44.94
-42.03
-39.002
-35.863
-32.618
-29.275
-25.842
-22.33
-18.746
-15.102
-11.409
-7.678
-3.92
-0.146
3.63
7.398
11.146
14.861
18.532
22.146
25.692
29.156
32.529
35.797
38.951
41.98
44.874
47.624
50.222
52.66
54.932
57.031
58.953
60.693
62.247
63.614
64.791
65.779
66.578
67.189
67.616
67.862
67.93
67.826
67.554
67.122
66.534
65.798
64.92
63.91
62.775
61.523
60.164
58.707
57.163
55.54
53.848
52.098
50.3
48.461
46.593
44.704
42.803
40.898
38.997
37.109
35.24
33.398
31.587
29.815
28.085
26.401
24.768
23.188
21.663
20.195
18.786
17.437
16.149
14.922
13.756
12.65
11.603
10.615
9.682
8.803
7.975
7.195
6.461
5.77
5.118
4.503
3.921
3.37
2.846
2.346
1.867
1.407
0.963
0.533
0.115
-0.293
-0.691
-1.081
-1.464
-1.839
-2.206
-2.565
-2.916
-3.257
-3.587
-3.905
-4.208
-4.495
-4.762
-5.008
-5.229
-5.423
-5.585
-5.713
-5.804
-5.854
-5.86
-5.819
-5.727
-5.582
-5.381
-5.122
-4.801
-4.416
-3.967
-3.451
-2.868
-2.217
-1.498
-0.71
0.144
1.064
2.048
3.092
4.194
5.35
6.554
7.8
9.081
10.389
11.715
13.049
14.382
15.702
17
18.267
19.492
20.665
21.777
22.819
23.781
24.654
25.428
26.092
26.634
27.047
27.322
27.456
27.447
27.289
26.98
26.511
25.877
25.076
24.103
22.955
21.634
20.143
18.501
16.745
14.911
13.037
11.161
9.31
7.518
5.823
4.26
2.87
1.694
0.759
0.097
-0.258
-0.29
0.005
0.595
1.38
2.263
3.141
3.922
4.56
4.981
5.078
4.752
3.891
2.393
0.239
-2.658
-6.466
-11.181
-16.661
-22.527
-28.046
-32.566
-35.641
-36.721
-35.285
-31.221
-24.689
-16.552
-8.45
-1.702
2.765
4.1
2.001
-2.984
-9.635
-15.258
-15.997
-8.59
10.184
43.419
92.67
158.345
238.333
326.576
417.853
508.137
594.381
676.749
748.936
799.415
818.021
793.96
728.844
636.379
529.711
423.801
327.001
238.497
159.941
93.11
39.494
2.468
-17.869
-24.362
-20.384
-9.921
2.856
14.438
22.592
26.123
24.85
19.61
11.582
1.946
-7.638
-15.475
-20.726
-23.08
-22.695
-20.238
-16.36
-11.656
-6.925
-2.941
-0.11
1.386
1.58
0.684
-1.155
-3.812
-7.093
-10.799
-14.755
-18.82
-22.899
-26.909
-30.739
-34.264
-37.36
-39.943
-41.978
-43.448
-44.361
-44.736
-44.599
-43.996
-42.985
-41.622
-39.963
-38.062
-35.968
-33.738
-31.43
-29.101
-26.806
-24.584
-22.455
-20.434
-18.527
-16.733
-15.051
-13.47
-11.98
-10.569
-9.231
-7.956
-6.736
-5.56
-4.412
-3.277
-2.142
-0.993
0.178
1.382
2.625
3.912
5.248
6.639
8.095
9.626
11.246
12.96
14.774
16.687
18.694
20.784
22.944
25.158
27.414
29.707
32.039
34.419
36.859
39.37
41.956
44.609
47.321
50.087
52.905
55.778
58.716
61.738
64.871
68.147
71.582
75.179
78.916
82.751
86.628
90.48
94.253
97.905
101.4
104.703
107.778
110.59
113.091
115.227
116.933
118.132
118.763
118.788
118.198
117.016
115.286
113.073
110.433
107.412
104.05
100.377
96.426
92.225
87.809
83.217
78.504
73.737
68.978
64.274
59.651
55.113
50.644
46.216
41.803
37.386
32.957
28.514
24.062
19.611
15.173
10.762
6.382
2.027
-2.308
-6.624
-10.914
-15.161
-19.34
-23.421
-27.376
-31.177
-34.805
-38.244
-41.487
-44.529
-47.371
-50.017
-52.471
-54.731
-56.798
-58.671
-60.351
-61.845
-63.159
-64.301
-65.283
-66.115
-66.807
-67.369
-67.811
-68.141
-68.365
-68.49
-68.523
-68.47
-68.341
-68.144
-67.889
-67.585
-67.241
-66.866
-66.469
-66.058
-65.64
-65.222
-64.808
-64.404
-64.015
-63.646
-63.299
-62.979
-62.686
-62.424
-62.194
-61.996
-61.831
-61.698
-61.598
-61.529
-61.489
-61.478
-61.494
-61.534
-61.597
-61.681
-61.782
-61.897
-62.025
-62.161
-62.302
-62.445
-62.586
-62.723
-62.851
-62.967
-63.07
-63.155
-63.222
-63.266
-63.286
-63.281
-63.249
-63.188
-63.099
-62.98
-62.831
-62.653
-62.445
-62.21
-61.947
-61.659
-61.347
-61.013
-60.659
-60.288
-59.903
-59.506
-59.1
-58.69
-58.277
-57.866
-57.459
-57.059
-56.671
-56.295
-55.936
-55.596
-55.277
-54.981
-54.711
-54.469
-54.256
-54.074
-53.923
-53.806
-53.722
-53.672
-53.656
-53.674
-53.726
-53.81
-53.926
-54.072
-54.247
-54.448
-54.674
-54.921
-55.186
-55.466
-55.758
-56.058
-56.363
-56.669
-56.974
-57.273
-57.565
-57.846
-58.113
-58.364
-58.598
-58.811
-59.003
-59.173
-59.318
-59.438
-59.533
-59.602
-59.644
-59.66
-59.649
-59.612
-59.55
-59.462
-59.351
-59.216
-59.06
-58.884
-58.691
-58.483
-58.263
-58.034
-57.799
-57.562
-57.327
-57.098
-56.878
-56.671
-56.48
-56.308
-56.157
-56.032
-55.933
-55.863
-55.823
-55.814
-55.839
-55.897
-55.99
-56.118
-56.283
-56.484
-56.722
-56.998
-57.311
-57.663
-58.053
-58.48
-58.944
-59.445
-59.982
-60.553
-61.155
-61.786
-62.442
-63.12
-63.814
-64.519
-65.229
-65.94
-66.646
-67.344
-68.029
-68.697
-69.346
-69.974
-70.578
-71.155
-71.699
-72.206
-72.671
-73.087
-73.449
-73.75
-73.981
-74.136
-74.214
-74.209
-74.117
-73.931
-73.639
-73.234
-72.715
-72.082
-71.338
-70.488
-69.537
-68.502
-67.408
-66.277
-65.133
-63.985
-62.829
-61.668
-60.502
-59.334
-58.169
-56.998
-55.799
-54.557
-53.263
-51.904
-50.467
-48.915
-47.194
-45.26
-43.085
-40.661
-38.009
-35.148
-32.099
-28.904
-25.613
-22.295
-19.042
-15.918
-12.974
-10.275
-7.882
-5.888
-4.408
-3.529
-3.318
-3.83
-5.088
-7.104
-9.877
-13.351
-17.456
-22.099
-27.168
-32.583
-38.264
-44.102
-49.986
-55.782
-61.334
-66.52
-71.215
-75.28
-78.601
-81.089
-82.693
-83.434
-83.359
-82.533
-81.037
-78.949
-76.375
-73.442
-70.304
-67.147
-64.164
-61.557
-59.543
-58.326
-58.123
-59.165
-61.523
-65.111
-69.693
-74.81
-80.022
-85.051
-89.523
-92.963
-95.073
-95.714
-95.211
-94.466
-94.315
-95.128
-96.935
-99.902
-104.271
-109.96
-116.002
-119.064
-114.315
-98.454
-70.361
-33.349
7.103
49.28
95.088
153.196
233.56
339.322
467.974
607.245
740.566
853.656
933.285
969.027
953.448
882.393
756.679
589.705
404.74
229.452
93.729
10.78
-23.212
-23.392
-15.489
-14.106
-21.31
-33.366
-39.833
-37.57
-30.798
-23.663
-21.028
-24.431
-31.954
-41.85
-52.553
-62.281
-69.59
-73.738
-74.497
-72.231
-67.755
-61.768
-54.81
-47.647
-41.119
-35.741
-31.783
-29.243
-27.876
-27.508
-28.025
-29.259
-31.037
-33.198
-35.582
-38.079
-40.633
-43.177
-45.638
-47.919
-49.89
-51.438
-52.496
-53.042
-53.087
-52.658
-51.78
-50.487
-48.827
-46.863
-44.663
-42.284
-39.761
-37.114
-34.359
-31.536
-28.71
-25.951
-23.306
-20.798
-18.435
-16.222
-14.168
-12.274
-10.525
-8.896
-7.361
-5.905
-4.524
-3.221
-1.996
-0.837
0.28
1.386
2.507
3.664
4.875
6.161
7.544
9.042
10.664
12.411
14.285
16.294
18.445
20.748
23.21
25.835
28.624
31.574
34.686
37.955
41.377
44.943
48.644
52.467
56.4
60.432
64.546
68.726
72.952
77.204
81.463
85.707
89.917
94.071
98.146
102.121
105.967
109.659
113.17
116.479
119.568
122.423
125.038
127.408
129.534
131.42
133.063
134.459
135.594
136.448
137.002
137.237
137.14
136.712
135.952
134.858
133.426
131.65
129.513
126.994
124.068
120.702
116.88
112.603
107.891
102.79
97.355
91.653
85.742
79.665
73.465
67.182
60.858
54.534
48.265
42.111
36.144
30.447
25.086
20.108
15.532
11.347
7.524
4.014
0.777
-2.216
-4.989
-7.558
-9.938
-12.142
-14.189
-16.102
-17.919
-19.692
-21.464
-23.267
-25.112
-26.99
-28.875
-30.729
-32.516
-34.209
-35.787
-37.241
-38.567
-39.767
-40.841
-41.796
-42.627
-43.321
-43.867
-44.257
-44.492
-44.581
-44.545
-44.408
-44.195
-43.928
-43.627
-43.304
-42.968
-42.623
-42.271
-41.909
-41.536
-41.158
-40.776
-40.397
-40.023
-39.655
-39.293
-38.934
-38.575
-38.212
-37.843
-37.464
-37.074
-36.673
-36.262
-35.844
-35.42
-34.993
-34.564
-34.133
-33.7
-33.266
-32.83
-32.391
-31.949
-31.503
-31.054
-30.603
-30.15
-29.698
-29.248
-28.801
-28.359
-27.924
-27.498
-27.083
-26.679
-26.289
-25.914
-25.557
-25.219
-24.902
-24.607
-24.337
-24.093
-23.877
-23.688
-23.527
-23.395
-23.291
-23.216
-23.169
-23.15
-23.158
-23.195
-23.26
-23.354
-23.475
-23.624
-23.801
-24.004
-24.232
-24.485
-24.761
-25.059
-25.377
-25.714
-26.069
-26.441
-26.827
-27.226
-27.637
-28.057
-28.486
-28.922
-29.363
-29.807
-30.254
-30.702
-31.15
-31.599
-32.046
-32.493
-32.937
-33.379
-33.819
-34.255
-34.686
-35.113
-35.532
-35.945
-36.349
-36.743
-37.126
-37.496
-37.851
-38.191
-38.514
-38.819
-39.105
-39.37
-39.615
-39.837
-40.036
-40.211
-40.361
-40.486
-40.584
-40.655
-40.698
-40.712
-40.696
-40.649
-40.571
-40.461
-40.317
-40.139
-39.927
-39.679
-39.395
-39.077
-38.724
-38.338
-37.922
-37.477
-37.008
-36.518
-36.011
-35.49
-34.96
-34.423
-33.883
-33.342
-32.801
-32.264
-31.732
-31.208
-30.697
-30.204
-29.735
-29.296
-28.891
-28.525
-28.203
-27.929
-27.704
-27.528
-27.405
-27.336
-27.328
-27.387
-27.52
-27.727
-28.007
-28.352
-28.752
-29.187
-29.641
-30.092
-30.523
-30.924
-31.293
-31.637
-31.963
-32.283
-32.597
-32.9
-33.186
-33.45
-33.695
-33.927
-34.162
-34.425
-34.748
-35.169
-35.714
-36.392
-37.194
-38.086
-39.023
-39.95
-40.822
-41.61
-42.29
-42.838
-43.233
-43.45
-43.455
-43.208
-42.658
-41.743
-40.416
-38.653
-36.457
-33.864
-30.932
-27.741
-24.359
-20.846
-17.255
-13.626
-10.004
-6.424
-2.929
0.438
3.618
6.542
9.146
11.382
13.219
14.654
15.702
16.396
16.768
16.847
16.653
16.203
15.504
14.554
13.35
11.889
10.175
8.226
6.062
3.706
1.189
-1.458
-4.207
-7.038
-9.929
-12.864
-15.82
-18.764
-21.659
-24.446
-27.065
-29.459
-31.567
-33.341
-34.744
-35.766
-36.445
-36.858
-37.087
-37.207
-37.268
-37.316
-37.447
-37.766
-38.38
-39.439
-41.023
-43.26
-46.403
-50.504
-55.435
-60.905
-66.244
-70.773
-74.084
-75.573
-74.506
-70.843
-64.91
-57.516
-50.488
-45.233
-42.466
-43.327
-48.686
-57.927
-69.57
-81.016
-87.973
-86.699
-74.206
-46.673
-0.53
64.363
144.846
236.821
334.247
434.473
540.85
651.936
760.148
854.221
914.782
925.024
881.937
787.858
652.288
495.776
334.872
187.77
76.562
7.819
-19.972
-16.863
-4.695
4.352
6.308
2.161
-0.136
1.454
4.369
6.203
3.301
-4.842
-15.972
-28.387
-40.07
-49.146
-55.048
-57.621
-56.974
-53.83
-48.978
-43.062
-36.903
-31.374
-26.942
-23.838
-22.13
-21.622
-22.167
-23.675
-25.96
-28.826
-32.108
-35.645
-39.325
-43.075
-46.778
-50.3
-53.511
-56.276
-58.522
-60.216
-61.341
-61.904
-61.923
-61.427
-60.464
-59.094
-57.378
-55.375
-53.143
-50.733
-48.204
-45.618
-43.033
-40.508
-38.078
-35.762
-33.57
-31.504
-29.559
-27.73
-26
-24.348
-22.758
-21.216
-19.709
-18.227
-16.757
-15.285
-13.798
-12.284
-10.733
-9.135
-7.483
-5.766
-3.979
-2.114
-0.164
1.874
4.005
6.234
8.564
10.997
13.534
16.177
18.93
21.801
24.789
27.891
31.104
34.416
37.813
41.276
44.775
48.278
51.76
55.204
58.596
61.935
65.216
68.435
71.593
74.68
77.687
80.613
83.445
86.179
88.824
91.393
93.922
96.452
99.005
101.586
104.192
106.791
109.349
111.823
114.149
116.28
118.177
119.802
121.134
122.151
122.813
123.075
122.877
122.142
120.827
118.904
116.358
113.212
109.501
105.282
100.641
95.655
90.383
84.883
79.192
73.344
67.393
61.392
55.4
49.497
43.742
38.183
32.865
27.804
22.999
18.438
14.078
9.881
5.83
1.911
-1.877
-5.529
-9.047
-12.433
-15.684
-18.814
-21.832
-24.743
-27.559
-30.279
-32.895
-35.393
-37.748
-39.933
-41.936
-43.749
-45.368
-46.798
-48.043
-49.109
-50.01
-50.758
-51.361
-51.83
-52.168
-52.381
-52.48
-52.475
-52.378
-52.204
-51.964
-51.667
-51.325
-50.954
-50.566
-50.177
-49.792
-49.406
-49.019
-48.634
-48.25
-47.867
-47.482
-47.087
-46.684
-46.287
-45.907
-45.562
-45.255
-44.977
-44.718
-44.465
-44.214
-43.98
-43.771
-43.59
-43.453
-43.386
-43.421
-43.602
-43.939
-44.406
-44.972
-45.595
-46.247
-46.914
-47.583
-48.245
-48.887
-49.484
-50.015
-50.47
-50.81
-50.975
-50.896
-50.484
-49.702
-48.571
-47.125
-45.417
-43.502
-41.432
-39.256
-37.021
-34.764
-32.517
-30.307
-28.153
-26.104
-24.233
-22.623
-21.378
-20.559
-20.171
-20.202
-20.616
-21.356
-22.358
-23.56
-24.9
-26.337
-27.85
-29.418
-31.029
-32.653
-34.248
-35.76
-37.117
-38.269
-39.194
-39.885
-40.358
-40.647
-40.801
-40.864
-40.882
-40.881
-40.875
-40.867
-40.856
-40.844
-40.832
-40.832
-40.864
-40.946
-41.09
-41.301
-41.573
-41.891
-42.236
-42.583
-42.905
-43.182
-43.401
-43.557
-43.657
-43.71
-43.723
-43.705
-43.661
-43.597
-43.519
-43.428
-43.312
-43.166
-42.98
-42.756
-42.503
-42.231
-41.951
-41.668
-41.375
-41.063
-40.729
-40.352
-39.916
-39.398
-38.767
-38.017
-37.168
-36.241
-35.269
-34.285
-33.3
-32.328
-31.378
-30.45
-29.559
-28.718
-27.937
-27.25
-26.691
-26.301
-26.136
-26.23
-26.578
-27.17
-27.968
-28.918
-29.986
-31.144
-32.364
-33.639
-34.957
-36.301
-37.657
-38.997
-40.286
-41.485
-42.537
-43.39
-44.019
-44.417
-44.611
-44.656
-44.592
-44.449
-44.254
-44.017
-43.746
-43.455
-43.15
-42.833
-42.515
-42.208
-41.944
-41.759
-41.681
-41.717
-41.849
-42.032
-42.232
-42.424
-42.585
-42.699
-42.75
-42.722
-42.612
-42.423
-42.16
-41.82
-41.391
-40.853
-40.19
-39.395
-38.475
-37.448
-36.328
-35.125
-33.85
-32.515
-31.134
-29.718
-28.274
-26.799
-25.299
-23.779
-22.252
-20.734
-19.241
-17.787
-16.385
-15.047
-13.784
-12.606
-11.525
-10.547
-9.683
-8.942
-8.339
-7.885
-7.594
-7.475
-7.535
-7.78
-8.211
-8.828
-9.628
-10.611
-11.786
-13.16
-14.739
-16.529
-18.53
-20.737
-23.134
-25.699
-28.394
-31.18
-34.011
-36.847
-39.655
-42.399
-45.042
-47.535
-49.817
-51.828
-53.512
-54.823
-55.719
-56.184
-56.237
-55.929
-55.354
-54.608
-53.767
-52.918
-52.164
-51.623
-51.423
-51.705
-52.569
-54.154
-56.685
-60.253
-64.79
-70.029
-75.392
-80.273
-84.213
-86.662
-86.93
-84.687
-80.027
-73.608
-66.943
-61.474
-58.099
-57.711
-61.123
-68.402
-78.665
-89.753
-97.929
-99.405
-90.848
-68.758
-29.936
28.215
105.089
195.976
295.167
396.268
497.291
602.729
711.978
819.609
913.856
969.523
967.315
898.307
761.049
577.263
376.337
187.565
42.246
-48.888
-88.702
-90.679
-78.556
-64.025
-54.387
-50.137
-45.017
-41.634
-39.128
-37.155
-37.979
-38.331
-39.609
-43.511
-48.996
-56.249
-62.593
-65.691
-65.613
-62.609
-57.706
-52.022
-46.011
-40.287
-35.633
-32.448
-30.87
-30.797
-31.947
-34.104
-37.107
-40.773
-44.865
-49.174
-53.546
-57.837
-61.933
-65.703
-69.001
-71.725
-73.818
-75.255
-76.038
-76.191
-75.746
-74.754
-73.28
-71.385
-69.128
-66.571
-63.772
-60.8
-57.723
-54.61
-51.521
-48.503
-45.583
-42.78
-40.099
-37.538
-35.089
-32.737
-30.465
-28.258
-26.106
-23.998
-21.925
-19.875
-17.832
-15.784
-13.717
-11.618
-9.477
-7.285
-5.034
-2.717
-0.331
2.13
4.669
7.29
10
12.804
15.708
18.718
21.836
25.067
28.411
31.869
35.439
39.118
42.899
46.777
50.743
54.788
58.904
63.081
67.307
71.57
75.857
80.153
84.445
88.716
92.948
97.121
101.216
105.212
109.092
112.837
116.429
119.851
123.083
126.111
128.919
131.494
133.818
135.87
137.631
139.086
140.23
141.064
141.585
141.794
141.689
141.277
140.568
139.57
138.281
136.689
134.782
132.557
130.023
127.201
124.109
120.759
117.15
113.28
109.157
104.788
100.177
95.316
90.188
84.798
79.178
73.388
67.485
61.513
55.497
49.456
43.412
37.398
31.454
25.614
19.903
14.349
8.988
3.88
-0.912
-5.353
-9.449
-13.238
-16.759
-20.027
-23.051
-25.832
-28.383
-30.724
-32.872
-34.833
-36.606
-38.201
-39.643
-40.977
-42.251
-43.49
-44.69
-45.824
-46.87
-47.82
-48.673
-49.429
-50.08
-50.617
-51.044
-51.377
-51.633
-51.821
-51.94
-51.977
-51.92
-51.768
-51.532
-51.232
-50.884
-50.496
-50.079
-49.643
-49.201
-48.762
-48.33
-47.898
-47.461
-47.016
-46.567
-46.117
-45.669
-45.225
-44.781
-44.337
-43.891
-43.442
-42.987
-42.524
-42.049
-41.559
-41.053
-40.534
-40.002
-39.459
-38.904
-38.339
-37.765
-37.183
-36.595
-36.001
-35.403
-34.801
-34.199
-33.6
-33.004
-32.417
-31.84
-31.277
-30.73
-30.204
-29.701
-29.224
-28.776
-28.359
-27.976
-27.629
-27.321
-27.053
-26.827
-26.645
-26.508
-26.418
-26.376
-26.381
-26.436
-26.539
-26.69
-26.888
-27.133
-27.421
-27.753
-28.126
-28.538
-28.987
-29.469
-29.982
-30.523
-31.088
-31.675
-32.279
-32.898
-33.527
-34.163
-34.802
-35.441
-36.077
-36.706
-37.325
-37.931
-38.521
-39.092
-39.642
-40.167
-40.666
-41.136
-41.576
-41.982
-42.354
-42.69
-42.988
-43.25
-43.472
-43.656
-43.802
-43.909
-43.979
-44.011
-44.007
-43.968
-43.895
-43.79
-43.654
-43.489
-43.297
-43.081
-42.844
-42.587
-42.315
-42.028
-41.731
-41.427
-41.117
-40.806
-40.496
-40.19
-39.891
-39.604
-39.33
-39.073
-38.836
-38.622
-38.435
-38.276
-38.149
-38.056
-38
-37.982
-38.004
-38.068
-38.176
-38.329
-38.529
-38.775
-39.069
-39.41
-39.798
-40.233
-40.712
-41.235
-41.8
-42.405
-43.047
-43.725
-44.436
-45.176
-45.943
-46.733
-47.544
-48.371
-49.209
-50.055
-50.903
-51.748
-52.586
-53.41
-54.212
-54.989
-55.733
-56.44
-57.103
-57.716
-58.276
-58.777
-59.218
-59.592
-59.897
-60.125
-60.275
-60.341
-60.32
-60.207
-59.998
-59.689
-59.275
-58.757
-58.133
-57.397
-56.545
-55.571
-54.47
-53.246
-51.905
-50.452
-48.901
-47.264
-45.564
-43.832
-42.095
-40.375
-38.693
-37.06
-35.495
-34.019
-32.65
-31.403
-30.286
-29.292
-28.413
-27.639
-26.941
-26.282
-25.614
-24.875
-24.016
-23.01
-21.83
-20.464
-18.901
-17.131
-15.159
-13.012
-10.724
-8.342
-5.926
-3.543
-1.281
0.749
2.443
3.7
4.439
4.615
4.188
3.131
1.435
-0.896
-3.829
-7.301
-11.238
-15.56
-20.165
-24.936
-29.743
-34.434
-38.893
-43.058
-46.887
-50.37
-53.498
-56.245
-58.614
-60.663
-62.472
-64.152
-65.818
-67.541
-69.45
-71.781
-74.666
-78.092
-81.839
-85.355
-88.064
-89.567
-89.401
-86.979
-82.023
-74.637
-65.476
-56.047
-47.883
-41.986
-39.263
-40.548
-45.963
-54.687
-64.723
-72.486
-74.124
-66.315
-45.79
-9.365
45.523
118.366
205.218
300.749
398.215
495.733
597.016
699.806
798.789
881.513
924.047
913.237
845.075
722.661
566.822
397.582
233.002
95.283
-3.627
-59.971
-76.978
-70.696
-58.232
-48.811
-46.14
-46.461
-43.757
-38.033
-31.595
-27.209
-28.022
-33.786
-42.401
-52.274
-61.337
-67.891
-71.493
-72.053
-69.87
-65.795
-60.635
-55.055
-49.827
-45.638
-42.808
-41.452
-41.5
-42.7
-44.845
-47.754
-51.211
-55.002
-58.946
-62.897
-66.72
-70.303
-73.515
-76.219
-78.324
-79.777
-80.559
-80.679
-80.162
-79.044
-77.376
-75.226
-72.657
-69.732
-66.516
-63.071
-59.465
-55.774
-52.065
-48.406
-44.845
-41.413
-38.13
-35.005
-32.036
-29.218
-26.538
-23.982
-21.536
-19.191
-16.939
-14.772
-12.682
-10.658
-8.687
-6.756
-4.854
-2.967
-1.086
0.8
2.701
4.626
6.587
8.589
10.64
12.747
14.922
17.176
19.526
21.983
24.555
27.246
30.056
32.984
36.025
39.164
42.38
45.647
48.946
52.261
55.593
58.938
62.29
65.643
68.989
72.328
75.677
79.045
82.436
85.857
89.315
92.835
96.463
100.234
104.173
108.282
112.537
116.912
121.384
125.911
130.446
134.92
139.238
143.327
147.129
150.584
153.636
156.209
158.195
159.511
160.099
159.919
158.967
157.242
154.744
151.506
147.582
143.05
138.017
132.565
126.752
120.642
114.294
107.786
101.22
94.675
88.208
81.868
75.689
69.698
63.931
58.391
53.062
47.912
42.896
37.986
33.177
28.462
23.837
19.294
14.811
10.384
6.022
1.729
-2.487
-6.621
-10.671
-14.623
-18.45
-22.123
-25.609
-28.889
-31.95
-34.784
-37.386
-39.751
-41.878
-43.772
-45.443
-46.9
-48.15
-49.2
-50.056
-50.727
-51.228
-51.572
-51.776
-51.852
-51.813
-51.671
-51.44
-51.13
-50.752
-50.313
-49.82
-49.281
-48.705
-48.1
-47.473
-46.834
-46.187
-45.541
-44.9
-44.271
-43.656
-43.058
-42.479
-41.919
-41.38
-40.861
-40.362
-39.881
-39.417
-38.969
-38.535
-38.112
-37.699
-37.291
-36.888
-36.484
-36.077
-35.665
-35.243
-34.809
-34.362
-33.898
-33.417
-32.916
-32.396
-31.855
-31.292
-30.709
-30.104
-29.479
-28.834
-28.171
-27.492
-26.8
-26.098
-25.389
-24.678
-23.969
-23.267
-22.576
-21.901
-21.246
-20.616
-20.016
-19.45
-18.924
-18.441
-18.007
-17.626
-17.301
-17.038
-16.839
-16.708
-16.646
-16.656
-16.737
-16.892
-17.119
-17.419
-17.791
-18.233
-18.744
-19.322
-19.964
-20.668
-21.429
-22.243
-23.106
-24.013
-24.958
-25.937
-26.945
-27.974
-29.021
-30.08
-31.145
-32.211
-33.273
-34.323
-35.357
-36.369
-37.353
-38.303
-39.213
-40.08
-40.899
-41.666
-42.38
-43.038
-43.638
-44.179
-44.66
-45.082
-45.443
-45.746
-45.989
-46.174
-46.302
-46.377
-46.4
-46.375
-46.304
-46.191
-46.04
-45.853
-45.633
-45.385
-45.109
-44.81
-44.492
-44.158
-43.813
-43.462
-43.11
-42.763
-42.427
-42.107
-41.807
-41.532
-41.284
-41.066
-40.879
-40.725
-40.603
-40.513
-40.454
-40.43
-40.441
-40.489
-40.577
-40.704
-40.874
-41.088
-41.348
-41.651
-41.995
-42.376
-42.793
-43.249
-43.749
-44.295
-44.883
-45.508
-46.166
-46.847
-47.539
-48.221
-48.86
-49.426
-49.898
-50.269
-50.54
-50.71
-50.78
-50.753
-50.629
-50.423
-50.148
-49.811
-49.414
-48.968
-48.498
-48.052
-47.703
-47.518
-47.543
-47.81
-48.331
-49.11
-50.141
-51.394
-52.822
-54.361
-55.955
-57.574
-59.194
-60.778
-62.264
-63.563
-64.552
-65.118
-65.158
-64.572
-63.285
-61.243
-58.428
-54.874
-50.655
-45.866
-40.597
-34.914
-28.878
-22.569
-16.092
-9.574
-3.173
2.948
8.618
13.638
17.826
21.037
23.168
24.181
24.09
22.942
20.793
17.702
13.73
8.957
3.477
-2.604
-9.156
-16.033
-23.061
-30.03
-36.731
-42.99
-48.663
-53.661
-57.943
-61.513
-64.43
-66.777
-68.644
-70.122
-71.28
-72.2
-72.991
-73.786
-74.736
-76.005
-77.727
-80.038
-83.144
-87.131
-91.907
-97.176
-102.334
-106.713
-109.792
-111.008
-109.682
-105.429
-98.281
-88.803
-78.397
-68.596
-60.518
-55.24
-53.771
-56.394
-62.44
-70.027
-75.731
-75.762
-66.588
-44.668
-6.691
49.999
124.77
213.366
310.674
410.396
510.561
614.082
717.177
811.594
883.31
911.369
885.979
808.937
688.363
540.101
378.785
215.877
65.821
-55.526
-137.119
-174.361
-172.984
-146.729
-110.194
-76.991
-54.693
-47.189
-52.904
-62.986
-70.66
-70.187
-61.072
-50.044
-40.877
-35.225
-32.652
-30.299
-27.966
-26.705
-26.743
-28.108
-30.513
-33.618
-37.507
-41.891
-45.771
-48.369
-49.649
-50.287
-50.938
-51.87
-53.055
-54.433
-56.232
-58.654
-61.544
-64.419
-66.819
-68.511
-69.457
-69.755
-69.434
-68.47
-66.915
-64.891
-62.533
-59.943
-57.173
-54.226
-51.127
-47.936
-44.72
-41.554
-38.489
-35.551
-32.757
-30.115
-27.622
-25.275
-23.06
-20.964
-18.972
-17.075
-15.265
-13.536
-11.882
-10.288
-8.736
-7.206
-5.676
-4.131
-2.557
-0.941
0.728
2.46
4.264
6.149
8.123
10.196
12.379
14.682
17.115
19.686
22.403
25.27
28.291
31.469
34.804
38.295
41.939
45.732
49.667
53.736
57.93
62.238
66.645
71.137
75.697
80.306
84.945
89.593
94.227
98.825
103.364
107.819
112.168
116.387
120.454
124.346
128.041
131.519
134.758
137.739
140.444
142.855
144.955
146.729
148.164
149.247
149.969
150.321
150.298
149.894
149.106
147.936
146.383
144.453
142.149
139.481
136.458
133.093
129.399
125.392
121.091
116.513
111.68
106.613
101.333
95.864
90.229
84.451
78.555
72.565
66.505
60.399
54.272
48.148
42.05
36.001
30.024
24.138
18.365
12.724
7.232
1.907
-3.235
-8.181
-12.917
-17.433
-21.717
-25.763
-29.564
-33.116
-36.416
-39.462
-42.255
-44.797
-47.09
-49.14
-50.95
-52.529
-53.883
-55.02
-55.949
-56.681
-57.226
-57.595
-57.8
-57.852
-57.763
-57.545
-57.21
-56.769
-56.234
-55.616
-54.926
-54.175
-53.372
-52.527
-51.65
-50.749
-49.831
-48.904
-47.973
-47.045
-46.123
-45.213
-44.317
-43.439
-42.582
-41.746
-40.934
-40.147
-39.385
-38.648
-37.936
-37.247
-36.579
-35.932
-35.304
-34.692
-34.094
-33.51
-32.937
-32.373
-31.818
-31.27
-30.728
-30.192
-29.661
-29.136
-28.616
-28.102
-27.596
-27.1
-26.614
-26.143
-25.686
-25.248
-24.831
-24.436
-24.066
-23.723
-23.409
-23.127
-22.879
-22.668
-22.495
-22.365
-22.279
-22.24
-22.25
-22.312
-22.427
-22.597
-22.823
-23.106
-23.446
-23.844
-24.299
-24.811
-25.377
-25.997
-26.666
-27.382
-28.141
-28.938
-29.769
-30.627
-31.509
-32.408
-33.32
-34.239
-35.161
-36.08
-36.992
-37.891
-38.775
-39.636
-40.471
-41.276
-42.045
-42.774
-43.46
-44.098
-44.685
-45.219
-45.696
-46.113
-46.469
-46.763
-46.993
-47.158
-47.26
-47.3
-47.279
-47.201
-47.069
-46.887
-46.661
-46.394
-46.093
-45.762
-45.406
-45.032
-44.644
-44.248
-43.848
-43.45
-43.06
-42.682
-42.321
-41.984
-41.674
-41.397
-41.158
-40.959
-40.805
-40.7
-40.647
-40.649
-40.708
-40.827
-41.006
-41.246
-41.547
-41.906
-42.321
-42.787
-43.302
-43.859
-44.455
-45.084
-45.74
-46.419
-47.117
-47.827
-48.543
-49.258
-49.965
-50.656
-51.321
-51.953
-52.541
-53.076
-53.548
-53.95
-54.273
-54.509
-54.648
-54.678
-54.589
-54.377
-54.04
-53.577
-52.992
-52.291
-51.484
-50.591
-49.627
-48.609
-47.55
-46.458
-45.341
-44.206
-43.061
-41.918
-40.778
-39.635
-38.477
-37.285
-36.041
-34.725
-33.309
-31.751
-30.02
-28.091
-25.949
-23.596
-21.041
-18.302
-15.406
-12.378
-9.268
-6.138
-3.061
-0.122
2.6
5.029
7.074
8.635
9.626
9.973
9.622
8.545
6.73
4.192
0.969
-2.888
-7.296
-12.157
-17.358
-22.764
-28.251
-33.7
-38.976
-43.943
-48.477
-52.466
-55.823
-58.494
-60.449
-61.715
-62.365
-62.495
-62.224
-61.663
-60.94
-60.227
-59.701
-59.542
-59.921
-60.937
-62.718
-65.477
-69.298
-74.117
-79.684
-85.389
-90.637
-95.07
-98.179
-99.297
-98.095
-94.497
-88.957
-82.935
-77.637
-73.479
-71.329
-72.231
-76.198
-82.82
-89.525
-90.604
-82.906
-65.423
-38.498
-5.395
35.66
89.483
160.436
253.938
367.592
494.902
628.082
752.279
854.908
923.169
942.055
908.159
822.519
690.831
531.604
361.17
198.663
67.445
-23.657
-72.532
-86.89
-87.488
-85.771
-86.201
-88.713
-85.078
-73.759
-59.132
-44.892
-35.943
-33.987
-37.185
-43.846
-52.294
-60.501
-66.818
-70.378
-70.838
-68.512
-64.248
-58.796
-52.75
-46.857
-41.845
-38.068
-35.663
-34.533
-34.376
-34.966
-36.138
-37.69
-39.438
-41.265
-43.064
-44.746
-46.262
-47.53
-48.485
-49.139
-49.515
-49.653
-49.608
-49.415
-49.117
-48.775
-48.433
-48.105
-47.78
-47.417
-46.999
-46.542
-46.069
-45.599
-45.126
-44.603
-43.992
-43.261
-42.378
-41.312
-40.017
-38.445
-36.571
-34.409
-32.004
-29.418
-26.693
-23.844
-20.885
-17.838
-14.747
-11.658
-8.599
-5.586
-2.633
0.222
2.911
5.374
7.573
9.503
11.19
12.662
13.933
15.022
15.959
16.8
17.626
18.504
19.474
20.578
21.849
23.363
25.236
27.569
30.442
33.916
38.015
42.772
48.231
54.395
61.235
68.687
76.642
85.01
93.717
102.679
111.811
120.987
130.039
138.809
147.151
154.927
162.026
168.33
173.706
178.068
181.37
183.6
184.79
184.964
184.14
182.355
179.651
176.106
171.826
166.921
161.505
155.685
149.557
143.225
136.803
130.378
124.014
117.754
111.613
105.611
99.771
94.106
88.62
83.302
78.13
73.073
68.097
63.174
58.284
53.406
48.516
43.604
38.666
33.709
28.752
23.814
18.907
14.049
9.259
4.561
-0.017
-4.448
-8.701
-12.752
-16.583
-20.178
-23.528
-26.625
-29.466
-32.055
-34.4
-36.511
-38.395
-40.06
-41.516
-42.775
-43.85
-44.757
-45.51
-46.123
-46.611
-46.986
-47.261
-47.447
-47.555
-47.594
-47.571
-47.497
-47.381
-47.231
-47.058
-46.871
-46.679
-46.49
-46.313
-46.153
-46.018
-45.912
-45.84
-45.804
-45.807
-45.85
-45.935
-46.062
-46.23
-46.437
-46.681
-46.959
-47.266
-47.6
-47.955
-48.325
-48.708
-49.096
-49.486
-49.874
-50.254
-50.621
-50.972
-51.303
-51.61
-51.888
-52.134
-52.345
-52.517
-52.647
-52.733
-52.773
-52.763
-52.704
-52.594
-52.432
-52.219
-51.954
-51.64
-51.276
-50.866
-50.412
-49.917
-49.386
-48.822
-48.229
-47.613
-46.979
-46.332
-45.677
-45.02
-44.365
-43.719
-43.087
-42.474
-41.885
-41.323
-40.794
-40.301
-39.848
-39.439
-39.076
-38.761
-38.497
-38.287
-38.133
-38.036
-37.998
-38.02
-38.1
-38.243
-38.45
-38.722
-39.058
-39.457
-39.911
-40.425
-41.004
-41.632
-42.293
-42.977
-43.665
-44.367
-45.105
-45.853
-46.585
-47.347
-48.172
-49.086
-50.131
-51.265
-52.408
-53.599
-54.915
-56.151
-57.065
-57.798
-58.335
-58.626
-59.188
-58.624
-55.574
-51.971
-48.402
-48.422
-56.29
-67.295
-78.299
-84.626
-79.856
-69.675
-58.904
-50.845
-50.951
-55.323
-60.011
-64.143
-65.32
-64.947
-64.826
-64.617
-64.553
-64.514
-64.129
-63.625
-63.169
-62.679
-62.127
-61.534
-60.9
-60.216
-59.481
-58.667
-57.739
-56.73
-55.675
-54.575
-53.44
-52.286
-51.135
-50.042
-49.084
-48.325
-47.811
-47.578
-47.638
-47.998
-48.653
-49.576
-50.727
-52.049
-53.485
-54.997
-56.549
-58.097
-59.575
-60.89
-61.916
-62.529
-62.631
-62.128
-60.962
-59.095
-56.517
-53.255
-49.374
-44.963
-40.108
-34.889
-29.38
-23.666
-17.863
-12.104
-6.563
-1.417
3.178
7.063
10.102
12.193
13.261
13.272
12.239
10.206
7.222
3.349
-1.342
-6.774
-12.825
-19.363
-26.219
-33.204
-40.157
-46.906
-53.281
-59.148
-64.355
-68.772
-72.343
-75.048
-76.89
-77.938
-78.187
-77.602
-76.395
-74.778
-73.004
-71.431
-70.105
-68.974
-68.365
-68.647
-69.744
-71.57
-73.611
-74.927
-75.422
-75.197
-73.744
-70.596
-65.756
-59.396
-52.786
-48.076
-46.283
-48.011
-54.14
-65.19
-81.132
-101.167
-122.562
-141.019
-152.609
-153.626
-140.473
-109.956
-59.512
11.927
102.882
209.466
326.345
447.319
565.705
673.809
763.58
828.351
863.141
866.437
840.743
787.652
709.096
607.703
483.958
346.327
209.781
88.307
-2.271
-57.62
-86.783
-98.868
-104.916
-110.123
-110.855
-106.15
-96.614
-84.313
-73.319
-64.838
-58.316
-52.987
-47.844
-42.789
-37.677
-32.162
-27.122
-23.709
-22.608
-24.449
-28.95
-34.91
-41.752
-49.022
-55.533
-60.42
-63.207
-63.508
-61.826
-59.232
-56.239
-53.209
-50.659
-48.735
-47.523
-47.093
-47.047
-46.849
-46.258
-45.166
-43.592
-41.719
-39.65
-37.446
-35.249
-33.199
-31.388
-29.866
-28.605
-27.534
-26.593
-25.767
-25.072
-24.514
-24.076
-23.71
-23.333
-22.879
-22.301
-21.558
-20.616
-19.45
-18.039
-16.389
-14.54
-12.538
-10.441
-8.287
-6.084
-3.844
-1.575
0.706
2.976
5.223
7.452
9.667
11.871
14.071
16.27
18.482
20.736
23.062
25.494
28.06
30.777
33.66
36.713
39.938
43.336
46.898
50.606
54.438
58.36
62.342
66.36
70.397
74.443
78.481
82.496
86.469
90.385
94.244
98.053
101.81
105.509
109.143
112.712
116.241
119.776
123.354
126.99
130.679
134.402
138.15
141.914
145.677
149.394
152.985
156.371
159.492
162.301
164.754
166.793
168.322
169.222
169.401
168.803
167.394
165.146
162.019
157.968
152.985
147.118
140.465
133.128
125.187
116.715
107.794
98.536
89.099
79.641
70.284
61.119
52.226
43.691
35.626
28.144
21.317
15.159
9.639
4.729
0.411
-3.334
-6.552
-9.319
-11.748
-13.933
-15.93
-17.776
-19.508
-21.173
-22.845
-24.597
-26.467
-28.468
-30.591
-32.83
-35.188
-37.656
-40.202
-42.772
-45.293
-47.72
-50.03
-52.214
-54.262
-56.157
-57.872
-59.387
-60.699
-61.809
-62.72
-63.433
-63.945
-64.265
-64.413
-64.422
-64.327
-64.153
-63.911
-63.614
-63.269
-62.887
-62.477
-62.044
-61.586
-61.105
-60.607
-60.097
-59.582
-59.065
-58.546
-58.022
-57.488
-56.944
-56.388
-55.821
-55.241
-54.649
-54.048
-53.44
-52.83
-52.223
-51.618
-51.019
-50.425
-49.838
-49.259
-48.688
-48.125
-47.571
-47.029
-46.497
-45.979
-45.475
-44.986
-44.511
-44.05
-43.604
-43.172
-42.752
-42.343
-41.946
-41.561
-41.186
-40.822
-40.469
-40.128
-39.798
-39.479
-39.173
-38.878
-38.594
-38.321
-38.059
-37.807
-37.567
-37.338
-37.119
-36.912
-36.716
-36.531
-36.357
-36.193
-36.039
-35.894
-35.759
-35.633
-35.517
-35.411
-35.316
-35.233
-35.163
-35.108
-35.067
-35.043
-35.036
-35.046
-35.075
-35.124
-35.192
-35.281
-35.391
-35.523
-35.677
-35.853
-36.051
-36.271
-36.513
-36.775
-37.059
-37.363
-37.688
-38.034
-38.401
-38.79
-39.201
-39.635
-40.091
-40.57
-41.07
-41.592
-42.134
-42.695
-43.273
-43.867
-44.475
-45.095
-45.723
-46.357
-46.994
-47.63
-48.261
-48.884
-49.495
-50.089
-50.664
-51.216
-51.742
-52.239
-52.704
-53.133
-53.523
-53.871
-54.172
-54.422
-54.616
-54.75
-54.819
-54.819
-54.745
-54.592
-54.357
-54.035
-53.623
-53.118
-52.516
-51.816
-51.017
-50.117
-49.117
-48.019
-46.826
-45.541
-44.169
-42.715
-41.184
-39.583
-37.917
-36.194
-34.419
-32.601
-30.746
-28.864
-26.964
-25.06
-23.163
-21.289
-19.451
-17.665
-15.948
-14.315
-12.781
-11.359
-10.062
-8.903
-7.894
-7.052
-6.388
-5.914
-5.639
-5.572
-5.718
-6.085
-6.671
-7.471
-8.48
-9.695
-11.116
-12.755
-14.619
-16.711
-19.033
-21.578
-24.339
-27.303
-30.447
-33.729
-37.103
-40.516
-43.922
-47.282
-50.552
-53.675
-56.586
-59.204
-61.455
-63.281
-64.633
-65.485
-65.822
-65.653
-65.019
-63.991
-62.667
-61.175
-59.655
-58.262
-57.143
-56.405
-56.206
-56.773
-58.25
-60.688
-63.943
-67.605
-71.307
-74.844
-77.909
-80.021
-80.787
-79.977
-77.943
-75.783
-74.446
-74.309
-75.751
-79.39
-85.715
-94.878
-104.523
-109.736
-106.615
-93.268
-72.065
-47.736
-20.45
14.013
64.521
141.153
246.372
376.39
520.587
661.864
783.153
867.44
902.912
888.674
833.72
752.803
658.795
557.174
444.944
322.263
197.915
85.106
1.625
-46.181
-67.081
-71.193
-71.165
-73.011
-72.702
-69.589
-64.52
-59.01
-57.498
-61.479
-69.733
-80.896
-92.943
-103.69
-111.51
-115.51
-115.355
-111.356
-104.334
-95.073
-84.284
-72.903
-61.871
-51.759
-42.898
-35.385
-29.099
-24.032
-20.251
-17.72
-16.356
-16.069
-16.738
-18.284
-20.663
-23.761
-27.429
-31.501
-35.785
-40.148
-44.504
-48.759
-52.821
-56.576
-59.884
-62.65
-64.826
-66.382
-67.32
-67.638
-67.332
-66.423
-64.95
-62.967
-60.547
-57.745
-54.6
-51.168
-47.511
-43.708
-39.863
-36.049
-32.313
-28.698
-25.224
-21.923
-18.836
-16
-13.455
-11.22
-9.289
-7.651
-6.284
-5.145
-4.183
-3.324
-2.473
-1.554
-0.506
0.722
2.157
3.844
5.841
8.214
11.044
14.387
18.269
22.702
27.68
33.175
39.142
45.507
52.165
59.029
66.026
73.094
80.196
87.277
94.266
101.089
107.659
113.903
119.77
125.214
130.197
134.702
138.724
142.285
145.435
148.207
150.617
152.676
154.376
155.719
156.717
157.379
157.714
157.734
157.442
156.849
155.965
154.792
153.326
151.553
149.447
146.994
144.191
141.041
137.555
133.746
129.626
125.214
120.534
115.609
110.462
105.114
99.582
93.889
88.062
82.128
76.116
70.053
63.966
57.878
51.812
45.79
39.832
33.955
28.172
22.499
16.951
11.541
6.284
1.192
-3.725
-8.455
-12.989
-17.319
-21.441
-25.348
-29.04
-32.513
-35.769
-38.807
-41.632
-44.244
-46.651
-48.855
-50.864
-52.684
-54.322
-55.787
-57.087
-58.23
-59.226
-60.083
-60.81
-61.415
-61.907
-62.293
-62.58
-62.775
-62.886
-62.918
-62.878
-62.772
-62.605
-62.383
-62.112
-61.795
-61.437
-61.043
-60.614
-60.155
-59.667
-59.153
-58.614
-58.053
-57.47
-56.865
-56.241
-55.597
-54.934
-54.252
-53.552
-52.833
-52.096
-51.342
-50.572
-49.787
-48.989
-48.181
-47.365
-46.543
-45.721
-44.9
-44.085
-43.28
-42.489
-41.716
-40.964
-40.237
-39.54
-38.875
-38.247
-37.659
-37.114
-36.614
-36.163
-35.763
-35.415
-35.122
-34.885
-34.705
-34.582
-34.519
-34.514
-34.568
-34.68
-34.849
-35.075
-35.354
-35.684
-36.061
-36.482
-36.942
-37.435
-37.955
-38.498
-39.057
-39.626
-40.198
-40.768
-41.33
-41.877
-42.404
-42.906
-43.377
-43.814
-44.211
-44.565
-44.874
-45.135
-45.345
-45.503
-45.609
-45.661
-45.659
-45.603
-45.493
-45.331
-45.116
-44.851
-44.538
-44.18
-43.78
-43.343
-42.874
-42.378
-41.861
-41.331
-40.793
-40.253
-39.719
-39.197
-38.694
-38.215
-37.766
-37.354
-36.983
-36.658
-36.383
-36.163
-35.999
-35.896
-35.853
-35.872
-35.954
-36.099
-36.307
-36.577
-36.909
-37.301
-37.753
-38.262
-38.826
-39.442
-40.106
-40.811
-41.554
-42.327
-43.122
-43.931
-44.745
-45.557
-46.357
-47.136
-47.888
-48.603
-49.275
-49.899
-50.468
-50.974
-51.412
-51.773
-52.051
-52.239
-52.33
-52.318
-52.197
-51.961
-51.609
-51.139
-50.551
-49.841
-49.006
-48.04
-46.94
-45.711
-44.355
-42.877
-41.289
-39.604
-37.847
-36.05
-34.239
-32.433
-30.645
-28.881
-27.147
-25.454
-23.806
-22.206
-20.657
-19.158
-17.716
-16.341
-15.031
-13.772
-12.539
-11.286
-9.989
-8.644
-7.252
-5.83
-4.401
-2.991
-1.647
-0.435
0.598
1.404
1.957
2.246
2.237
1.885
1.14
-0.062
-1.752
-3.923
-6.575
-9.694
-13.241
-17.17
-21.384
-25.744
-30.15
-34.524
-38.822
-43.034
-47.1
-50.911
-54.362
-57.368
-59.926
-62.113
-63.939
-65.307
-66.219
-66.863
-67.659
-69.124
-71.491
-74.598
-78.192
-82.299
-86.987
-91.971
-96.352
-98.825
-98.447
-95.233
-89.874
-82.683
-73.595
-62.945
-51.974
-42.846
-37.692
-37.277
-40.863
-47.806
-58.098
-71.409
-86.206
-99.325
-106.841
-105.766
-94.59
-71.996
-35.689
16.999
85.639
165.882
252.783
341.096
430.949
528.608
633.756
739.703
832.075
887.366
890.931
840.768
744.042
617.7
478.159
337.262
207.184
100.621
25.943
-13.77
-25.185
-24.225
-22.093
-24.403
-30.419
-33.219
-31.708
-28.366
-25.634
-27.402
-34.156
-43.723
-54.845
-65.86
-74.766
-80.862
-83.848
-83.593
-80.846
-76.442
-70.916
-65.002
-59.528
-54.917
-51.402
-49.072
-47.698
-47.092
-47.148
-47.668
-48.47
-49.417
-50.386
-51.306
-52.159
-52.909
-53.503
-53.902
-54.081
-54.042
-53.816
-53.44
-52.959
-52.422
-51.877
-51.37
-50.94
-50.62
-50.423
-50.348
-50.378
-50.469
-50.588
-50.704
-50.776
-50.769
-50.642
-50.352
-49.866
-49.159
-48.208
-46.999
-45.524
-43.776
-41.767
-39.519
-37.067
-34.464
-31.753
-28.965
-26.137
-23.291
-20.444
-17.61
-14.791
-11.979
-9.169
-6.354
-3.523
-0.672
2.213
5.15
8.154
11.252
14.464
17.808
21.303
24.958
28.769
32.728
36.816
41.009
45.287
49.627
53.997
58.377
62.751
67.108
71.453
75.779
80.071
84.308
88.459
92.502
96.432
100.243
103.935
107.511
110.969
114.317
117.584
120.773
123.869
126.834
129.601
132.119
134.361
136.302
137.936
139.247
140.202
140.78
140.963
140.729
140.06
138.916
137.235
134.991
132.188
128.863
125.089
120.924
116.402
111.561
106.43
101.045
95.451
89.68
83.752
77.699
71.558
65.385
59.262
53.238
47.339
41.568
35.903
30.333
24.865
19.497
14.23
9.066
4.004
-0.941
-5.744
-10.39
-14.875
-19.201
-23.388
-27.442
-31.354
-35.115
-38.703
-42.103
-45.306
-48.304
-51.083
-53.638
-55.967
-58.075
-59.976
-61.681
-63.197
-64.528
-65.678
-66.652
-67.46
-68.111
-68.618
-68.99
-69.238
-69.375
-69.414
-69.367
-69.244
-69.053
-68.8
-68.491
-68.135
-67.738
-67.307
-66.847
-66.365
-65.867
-65.36
-64.848
-64.336
-63.828
-63.327
-62.835
-62.354
-61.886
-61.431
-60.991
-60.564
-60.152
-59.754
-59.368
-58.995
-58.632
-58.279
-57.934
-57.596
-57.262
-56.932
-56.603
-56.275
-55.946
-55.616
-55.284
-54.95
-54.612
-54.271
-53.927
-53.58
-53.229
-52.874
-52.516
-52.155
-51.791
-51.426
-51.059
-50.693
-50.327
-49.964
-49.604
-49.248
-48.898
-48.555
-48.22
-47.894
-47.579
-47.275
-46.984
-46.707
-46.445
-46.199
-45.969
-45.755
-45.559
-45.379
-45.217
-45.07
-44.939
-44.824
-44.723
-44.637
-44.563
-44.502
-44.451
-44.41
-44.378
-44.353
-44.335
-44.321
-44.311
-44.304
-44.298
-44.295
-44.291
-44.288
-44.285
-44.281
-44.275
-44.267
-44.256
-44.243
-44.227
-44.209
-44.187
-44.163
-44.137
-44.11
-44.081
-44.052
-44.024
-43.998
-43.973
-43.952
-43.936
-43.926
-43.924
-43.93
-43.947
-43.977
-44.019
-44.076
-44.149
-44.238
-44.344
-44.468
-44.61
-44.771
-44.95
-45.149
-45.366
-45.602
-45.857
-46.131
-46.423
-46.733
-47.06
-47.403
-47.762
-48.136
-48.523
-48.921
-49.33
-49.746
-50.169
-50.595
-51.021
-51.444
-51.861
-52.268
-52.661
-53.035
-53.388
-53.713
-54.007
-54.266
-54.484
-54.657
-54.781
-54.852
-54.864
-54.814
-54.698
-54.509
-54.246
-53.902
-53.475
-52.959
-52.351
-51.648
-50.846
-49.941
-48.932
-47.815
-46.591
-45.258
-43.816
-42.266
-40.61
-38.851
-36.992
-35.039
-32.998
-30.874
-28.675
-26.41
-24.088
-21.72
-19.32
-16.899
-14.473
-12.055
-9.663
-7.311
-5.017
-2.795
-0.661
1.371
3.286
5.068
6.702
8.171
9.46
10.554
11.44
12.107
12.544
12.747
12.715
12.445
11.938
11.184
10.176
8.91
7.383
5.592
3.542
1.244
-1.286
-4.014
-6.905
-9.925
-13.034
-16.206
-19.408
-22.605
-25.759
-28.811
-31.699
-34.37
-36.768
-38.84
-40.553
-41.895
-42.877
-43.556
-43.986
-44.21
-44.284
-44.266
-44.232
-44.279
-44.504
-45.019
-45.978
-47.597
-50.021
-53.23
-57.024
-60.982
-64.605
-67.431
-68.921
-68.35
-65.239
-59.743
-52.56
-45.016
-38.666
-34.62
-33.911
-37.918
-47.324
-61.263
-77.685
-93.256
-103.648
-105.027
-93.648
-64.825
-16.281
50.564
133.584
229.875
338.833
462.223
595.898
726.943
834.873
899.362
911.658
877.041
811.098
728.819
634.792
526.542
402.04
266.849
138.626
38.027
-23.423
-47.177
-47.023
-39.166
-32.717
-29.086
-24.483
-16.626
-7.378
-0.084
1.858
-2.412
-11.333
-23.052
-35.584
-47.107
-56.232
-62.13
-64.622
-64.111
-61.359
-57.113
-52.047
-46.91
-42.433
-39.043
-36.91
-35.985
-36.05
-36.936
-38.512
-40.611
-43.052
-45.682
-48.373
-51.035
-53.605
-55.99
-58.085
-59.786
-60.998
-61.671
-61.79
-61.358
-60.396
-58.939
-57.029
-54.718
-52.074
-49.158
-46.034
-42.761
-39.395
-35.992
-32.613
-29.312
-26.141
-23.132
-20.303
-17.662
-15.208
-12.935
-10.834
-8.89
-7.081
-5.39
-3.801
-2.298
-0.868
0.504
1.834
3.137
4.432
5.733
7.054
8.411
9.816
11.284
12.827
14.459
16.192
18.036
20.001
22.095
24.33
26.717
29.272
32.004
34.916
38.009
41.279
44.72
48.322
52.06
55.904
59.82
63.782
67.773
71.784
75.804
79.82
83.819
87.787
91.724
95.63
99.503
103.334
107.116
110.854
114.57
118.307
122.099
125.956
129.868
133.809
137.75
141.655
145.479
149.158
152.611
155.762
158.554
160.944
162.891
164.342
165.22
165.432
164.904
163.594
161.482
158.571
154.869
150.402
145.224
139.418
133.094
126.347
119.25
111.861
104.236
96.445
88.576
80.727
72.979
65.393
58.019
50.901
44.076
37.569
31.376
25.468
19.8
14.343
9.086
4.029
-0.826
-5.483
-9.955
-14.254
-18.382
-22.337
-26.12
-29.735
-33.185
-36.47
-39.573
-42.471
-45.134
-47.545
-49.695
-51.584
-53.213
-54.586
-55.706
-56.585
-57.239
-57.685
-57.935
-58.001
-57.894
-57.627
-57.218
-56.689
-56.057
-55.343
-54.562
-53.73
-52.864
-51.976
-51.078
-50.18
-49.288
-48.41
-47.553
-46.724
-45.931
-45.18
-44.475
-43.822
-43.225
-42.687
-42.211
-41.796
-41.444
-41.151
-40.918
-40.742
-40.619
-40.547
-40.522
-40.539
-40.594
-40.681
-40.796
-40.933
-41.084
-41.245
-41.409
-41.569
-41.72
-41.858
-41.976
-42.072
-42.142
-42.183
-42.193
-42.169
-42.11
-42.014
-41.88
-41.707
-41.496
-41.245
-40.956
-40.63
-40.268
-39.872
-39.444
-38.988
-38.505
-37.999
-37.473
-36.931
-36.377
-35.815
-35.249
-34.686
-34.129
-33.585
-33.059
-32.555
-32.078
-31.634
-31.226
-30.857
-30.531
-30.25
-30.016
-29.833
-29.7
-29.62
-29.593
-29.62
-29.701
-29.836
-30.024
-30.265
-30.556
-30.898
-31.287
-31.723
-32.203
-32.724
-33.284
-33.879
-34.507
-35.162
-35.842
-36.54
-37.251
-37.972
-38.696
-39.419
-40.136
-40.841
-41.531
-42.201
-42.848
-43.469
-44.06
-44.619
-45.144
-45.632
-46.082
-46.494
-46.866
-47.198
-47.489
-47.741
-47.953
-48.127
-48.263
-48.362
-48.426
-48.457
-48.458
-48.431
-48.38
-48.309
-48.221
-48.122
-48.017
-47.909
-47.805
-47.709
-47.625
-47.558
-47.512
-47.491
-47.498
-47.536
-47.609
-47.717
-47.864
-48.05
-48.276
-48.544
-48.852
-49.201
-49.591
-50.02
-50.487
-50.99
-51.528
-52.098
-52.698
-53.323
-53.97
-54.632
-55.303
-55.977
-56.646
-57.303
-57.939
-58.547
-59.12
-59.65
-60.133
-60.561
-60.928
-61.229
-61.456
-61.604
-61.665
-61.634
-61.503
-61.267
-60.92
-60.456
-59.872
-59.165
-58.332
-57.367
-56.263
-55.017
-53.63
-52.106
-50.452
-48.679
-46.801
-44.835
-42.809
-40.748
-38.677
-36.618
-34.587
-32.601
-30.676
-28.826
-27.071
-25.419
-23.866
-22.401
-21.01
-19.674
-18.377
-17.088
-15.766
-14.377
-12.898
-11.314
-9.625
-7.835
-5.955
-4.001
-1.992
0.029
2.001
3.852
5.506
6.885
7.919
8.528
8.627
8.147
7.052
5.324
2.97
0.003
-3.554
-7.663
-12.267
-17.285
-22.61
-28.12
-33.688
-39.189
-44.506
-49.521
-54.122
-58.22
-61.792
-64.862
-67.472
-69.677
-71.512
-72.989
-74.168
-75.161
-76.079
-77.049
-78.167
-79.472
-81.101
-83.309
-86.19
-89.642
-93.312
-96.562
-98.841
-99.77
-98.793
-95.202
-88.672
-79.405
-68.207
-56.541
-45.88
-37.501
-32.871
-33.425
-38.207
-43.844
-46.887
-44.313
-37.705
-31.795
-25.943
-13.363
18.823
84.609
187.848
321.649
472.348
625.077
768.127
890.357
980.562
1024.913
1010.699
935.874
804.245
627.918
430.007
231.05
54.843
-74.136
-148.927
-168.721
-141.448
-89.747
-29.097
24.802
54.003
56.758
34.976
-2.972
-37.747
-60.91
-70.62
-69.069
-66.538
-67.015
-69.538
-73.09
-74.18
-71.81
-67.536
-62.299
-57.208
-53.233
-50.47
-48.923
-48.641
-49.365
-50.877
-53.086
-55.827
-58.886
-62.086
-65.23
-68.144
-70.742
-72.909
-74.507
-75.409
-75.507
-74.772
-73.253
-71.028
-68.177
-64.789
-60.954
-56.794
-52.469
-48.125
-43.89
-39.872
-36.15
-32.798
-29.891
-27.486
-25.611
-24.248
-23.337
-22.792
-22.544
-22.524
-22.662
-22.88
-23.073
-23.154
-23.061
-22.747
-22.182
-21.342
-20.196
-18.727
-16.944
-14.869
-12.541
-10.013
-7.316
-4.476
-1.519
1.532
4.646
7.798
10.981
14.194
17.44
20.722
24.044
27.414
30.851
34.369
37.978
41.692
45.509
49.428
53.44
57.529
61.682
65.889
70.147
74.457
78.817
83.214
87.63
92.034
96.403
100.725
104.989
109.186
113.311
117.353
121.315
125.224
129.078
132.86
136.527
140.005
143.236
146.192
148.845
151.189
153.207
154.87
156.16
157.077
157.61
157.751
157.472
156.705
155.418
153.612
151.317
148.605
145.521
142.072
138.263
134.1
129.585
124.734
119.542
113.966
107.987
101.601
94.833
87.757
80.43
72.88
65.126
57.17
49.046
40.826
32.593
24.41
16.344
8.457
0.833
-6.401
-13.144
-19.327
-24.9
-29.862
-34.211
-37.931
-41.019
-43.489
-45.376
-46.752
-47.704
-48.288
-48.561
-48.582
-48.419
-48.17
-47.921
-47.726
-47.627
-47.647
-47.802
-48.113
-48.594
-49.228
-49.989
-50.835
-51.71
-52.586
-53.439
-54.246
-54.985
-55.627
-56.145
-56.532
-56.79
-56.919
-56.923
-56.801
-56.557
-56.209
-55.779
-55.293
-54.78
-54.26
-53.743
-53.243
-52.768
-52.324
-51.916
-51.542
-51.195
-50.872
-50.572
-50.292
-50.034
-49.793
-49.562
-49.337
-49.111
-48.88
-48.641
-48.389
-48.122
-47.839
-47.539
-47.222
-46.89
-46.542
-46.179
-45.801
-45.405
-44.993
-44.563
-44.116
-43.653
-43.175
-42.683
-42.18
-41.668
-41.149
-40.628
-40.105
-39.585
-39.07
-38.563
-38.067
-37.585
-37.12
-36.676
-36.254
-35.858
-35.49
-35.154
-34.85
-34.583
-34.352
-34.162
-34.014
-33.91
-33.852
-33.842
-33.881
-33.97
-34.11
-34.3
-34.54
-34.83
-35.168
-35.554
-35.985
-36.46
-36.976
-37.531
-38.122
-38.746
-39.4
-40.081
-40.784
-41.506
-42.244
-42.995
-43.754
-44.519
-45.286
-46.051
-46.812
-47.564
-48.304
-49.028
-49.733
-50.414
-51.069
-51.694
-52.287
-52.844
-53.364
-53.845
-54.284
-54.681
-55.034
-55.342
-55.604
-55.82
-55.99
-56.113
-56.192
-56.225
-56.215
-56.162
-56.069
-55.936
-55.766
-55.56
-55.32
-55.048
-54.746
-54.418
-54.064
-53.69
-53.296
-52.888
-52.468
-52.04
-51.606
-51.169
-50.733
-50.299
-49.872
-49.454
-49.047
-48.656
-48.283
-47.932
-47.606
-47.306
-47.037
-46.8
-46.596
-46.428
-46.297
-46.205
-46.153
-46.141
-46.17
-46.242
-46.355
-46.509
-46.702
-46.933
-47.198
-47.496
-47.822
-48.173
-48.544
-48.932
-49.333
-49.746
-50.166
-50.59
-51.012
-51.43
-51.839
-52.231
-52.599
-52.935
-53.228
-53.472
-53.66
-53.784
-53.838
-53.814
-53.707
-53.513
-53.228
-52.846
-52.359
-51.753
-51.024
-50.171
-49.201
-48.125
-46.952
-45.689
-44.349
-42.951
-41.505
-40.019
-38.489
-36.897
-35.239
-33.519
-31.751
-29.961
-28.163
-26.36
-24.555
-22.747
-20.935
-19.121
-17.294
-15.424
-13.507
-11.557
-9.613
-7.746
-6.007
-4.425
-3.024
-1.814
-0.811
-0.043
0.472
0.721
0.683
0.332
-0.38
-1.527
-3.143
-5.235
-7.773
-10.679
-13.889
-17.352
-21.009
-24.81
-28.698
-32.616
-36.514
-40.359
-44.094
-47.644
-50.912
-53.776
-56.144
-57.953
-59.184
-59.881
-60.095
-59.897
-59.361
-58.542
-57.511
-56.362
-55.192
-54.099
-53.198
-52.588
-52.426
-52.992
-54.437
-56.73
-59.622
-62.528
-64.845
-66.145
-65.94
-63.6
-58.846
-51.875
-43.509
-35.479
-29.5
-26.669
-27.932
-34.098
-45.176
-60.121
-76.554
-90.445
-97.525
-94.077
-76.479
-41.416
13.772
88.633
178.826
278.793
381.897
485.444
592.998
703.385
810.617
903.482
958.882
958.843
897.214
773.505
604.502
416.607
232.692
78.591
-28.617
-88.776
-106.852
-94.601
-66.31
-28.646
11.118
42.71
58.821
53.861
29.605
-1.973
-30.193
-48.583
-56.411
-60.329
-64.668
-70.204
-76.233
-79.638
-79.252
-76.097
-71.084
-65.455
-60.152
-55.31
-51.049
-47.487
-44.442
-41.784
-39.468
-37.418
-35.604
-34.033
-32.695
-31.594
-30.779
-30.291
-30.138
-30.286
-30.689
-31.297
-32.07
-32.994
-34.063
-35.251
-36.543
-37.92
-39.346
-40.793
-42.219
-43.547
-44.71
-45.637
-46.274
-46.598
-46.6
-46.27
-45.614
-44.633
-43.329
-41.723
-39.83
-37.66
-35.239
-32.592
-29.757
-26.801
-23.778
-20.735
-17.714
-14.734
-11.813
-8.964
-6.189
-3.479
-0.823
1.798
4.399
6.988
9.583
12.203
14.876
17.633
20.496
23.482
26.604
29.875
33.305
36.902
40.661
44.57
48.613
52.774
57.037
61.379
65.764
70.156
74.521
78.831
83.075
87.241
91.314
95.282
99.129
102.852
106.464
109.973
113.381
116.696
119.919
123.076
126.214
129.37
132.571
135.825
139.11
142.408
145.7
148.951
152.12
155.144
157.933
160.421
162.559
164.294
165.582
166.353
166.509
165.976
164.701
162.654
159.837
156.255
151.918
146.866
141.164
134.901
128.195
121.14
113.803
106.258
98.571
90.825
83.129
75.569
68.205
61.093
54.268
47.762
41.611
35.818
30.362
25.21
20.306
15.616
11.127
6.823
2.693
-1.282
-5.13
-8.865
-12.487
-16.002
-19.41
-22.716
-25.929
-29.042
-32.039
-34.897
-37.592
-40.11
-42.445
-44.597
-46.564
-48.348
-49.954
-51.389
-52.669
-53.807
-54.811
-55.69
-56.449
-57.098
-57.652
-58.121
-58.518
-58.853
-59.133
-59.368
-59.563
-59.723
-59.853
-59.953
-60.024
-60.066
-60.082
-60.073
-60.04
-59.984
-59.907
-59.807
-59.687
-59.545
-59.38
-59.191
-58.976
-58.732
-58.457
-58.149
-57.806
-57.425
-57.005
-56.544
-56.042
-55.497
-54.909
-54.278
-53.604
-52.889
-52.133
-51.339
-50.509
-49.644
-48.75
-47.828
-46.883
-45.918
-44.937
-43.945
-42.945
-41.942
-40.94
-39.942
-38.953
-37.977
-37.019
-36.083
-35.173
-34.294
-33.451
-32.646
-31.885
-31.171
-30.508
-29.898
-29.344
-28.848
-28.412
-28.037
-27.723
-27.472
-27.283
-27.155
-27.089
-27.082
-27.134
-27.241
-27.403
-27.616
-27.878
-28.185
-28.536
-28.926
-29.353
-29.813
-30.304
-30.822
-31.364
-31.926
-32.504
-33.095
-33.695
-34.3
-34.907
-35.511
-36.109
-36.699
-37.277
-37.841
-38.389
-38.917
-39.425
-39.909
-40.369
-40.804
-41.21
-41.587
-41.935
-42.252
-42.539
-42.795
-43.022
-43.219
-43.387
-43.526
-43.639
-43.724
-43.782
-43.815
-43.823
-43.806
-43.768
-43.708
-43.629
-43.533
-43.422
-43.298
-43.162
-43.017
-42.864
-42.704
-42.538
-42.368
-42.195
-42.021
-41.847
-41.676
-41.51
-41.354
-41.207
-41.073
-40.953
-40.846
-40.754
-40.676
-40.611
-40.556
-40.511
-40.477
-40.456
-40.449
-40.459
-40.487
-40.537
-40.611
-40.709
-40.834
-40.982
-41.15
-41.338
-41.545
-41.773
-42.028
-42.311
-42.622
-42.961
-43.321
-43.694
-44.067
-44.419
-44.726
-44.975
-45.152
-45.256
-45.293
-45.273
-45.202
-45.094
-44.949
-44.772
-44.571
-44.351
-44.118
-43.891
-43.69
-43.55
-43.523
-43.644
-43.936
-44.409
-45.043
-45.814
-46.694
-47.636
-48.606
-49.563
-50.458
-51.254
-51.922
-52.425
-52.727
-52.777
-52.495
-51.821
-50.709
-49.132
-47.1
-44.633
-41.752
-38.509
-34.959
-31.174
-27.245
-23.247
-19.233
-15.261
-11.375
-7.635
-4.129
-0.931
1.898
4.312
6.287
7.802
8.826
9.354
9.401
9.007
8.239
7.153
5.778
4.138
2.249
0.126
-2.194
-4.684
-7.328
-10.113
-13.024
-16.032
-19.083
-22.115
-25.09
-27.989
-30.812
-33.559
-36.204
-38.717
-41.061
-43.19
-45.067
-46.657
-47.908
-48.781
-49.258
-49.351
-49.135
-48.724
-48.225
-47.731
-47.31
-47.025
-46.988
-47.321
-48.141
-49.566
-51.663
-54.522
-58.329
-63.144
-68.858
-75.181
-81.516
-87.23
-91.877
-94.932
-95.722
-93.895
-89.44
-82.84
-75.372
-68.268
-62.264
-58.12
-56.617
-57.917
-61.393
-65.331
-66.588
-61.943
-48.593
-23.597
15.994
72.719
145.914
231.342
324.003
417.835
512.284
612.857
717.549
820.298
906.939
950.861
938.19
865.349
736.226
573.68
398.702
229.999
91.068
-6.186
-58.583
-70.719
-61.053
-47.85
-40.369
-41.423
-45.687
-46.421
-43.495
-39.298
-36.837
-39.139
-45.737
-54.52
-63.959
-72.125
-77.496
-79.732
-78.821
-75.142
-69.582
-62.918
-55.752
-48.822
-42.792
-37.99
-34.576
-32.503
-31.558
-31.595
-32.48
-34.038
-36.095
-38.48
-41.05
-43.704
-46.362
-48.951
-51.408
-53.654
-55.638
-57.346
-58.753
-59.856
-60.647
-61.092
-61.189
-60.958
-60.419
-59.62
-58.607
-57.405
-56.046
-54.555
-52.932
-51.195
-49.354
-47.4
-45.343
-43.193
-40.966
-38.706
-36.445
-34.193
-31.958
-29.74
-27.531
-25.333
-23.143
-20.952
-18.766
-16.583
-14.398
-12.212
-10.016
-7.795
-5.528
-3.184
-0.735
1.839
4.553
7.419
10.44
13.621
16.968
20.481
24.169
28.03
32.059
36.244
40.576
45.039
49.619
54.292
59.029
63.808
68.615
73.449
78.31
83.187
88.064
92.914
97.71
102.434
107.08
111.642
116.106
120.46
124.694
128.815
132.834
136.747
140.522
144.102
147.432
150.475
153.209
155.625
157.708
159.435
160.778
161.712
162.226
162.308
161.934
161.06
159.639
157.653
155.126
152.112
148.668
144.828
140.617
136.057
131.178
126.02
120.618
114.997
109.176
103.183
97.062
90.876
84.692
78.552
72.469
66.43
60.43
54.475
48.577
42.749
36.993
31.313
25.721
20.243
14.904
9.721
4.697
-0.173
-4.898
-9.473
-13.885
-18.112
-22.135
-25.944
-29.53
-32.884
-35.993
-38.849
-41.456
-43.821
-45.957
-47.87
-49.566
-51.046
-52.315
-53.382
-54.257
-54.949
-55.471
-55.831
-56.042
-56.117
-56.07
-55.913
-55.656
-55.308
-54.876
-54.37
-53.799
-53.173
-52.5
-51.788
-51.045
-50.282
-49.506
-48.724
-47.945
-47.172
-46.412
-45.67
-44.948
-44.251
-43.579
-42.936
-42.323
-41.74
-41.188
-40.668
-40.179
-39.72
-39.291
-38.891
-38.519
-38.172
-37.85
-37.55
-37.27
-37.01
-36.767
-36.541
-36.328
-36.129
-35.941
-35.763
-35.594
-35.43
-35.272
-35.116
-34.961
-34.807
-34.652
-34.496
-34.339
-34.18
-34.021
-33.861
-33.702
-33.544
-33.388
-33.235
-33.086
-32.942
-32.804
-32.675
-32.554
-32.444
-32.346
-32.262
-32.192
-32.138
-32.101
-32.08
-32.078
-32.094
-32.13
-32.185
-32.26
-32.356
-32.473
-32.612
-32.772
-32.954
-33.158
-33.382
-33.627
-33.89
-34.172
-34.471
-34.785
-35.114
-35.455
-35.807
-36.17
-36.54
-36.918
-37.3
-37.686
-38.074
-38.462
-38.848
-39.233
-39.614
-39.991
-40.363
-40.729
-41.089
-41.443
-41.79
-42.13
-42.463
-42.788
-43.105
-43.415
-43.717
-44.012
-44.3
-44.581
-44.856
-45.126
-45.391
-45.652
-45.909
-46.163
-46.415
-46.665
-46.913
-47.161
-47.409
-47.656
-47.904
-48.153
-48.403
-48.653
-48.904
-49.154
-49.404
-49.652
-49.899
-50.142
-50.382
-50.617
-50.846
-51.069
-51.285
-51.493
-51.694
-51.886
-52.069
-52.244
-52.411
-52.569
-52.718
-52.861
-52.995
-53.124
-53.246
-53.364
-53.477
-53.588
-53.696
-53.803
-53.911
-54.019
-54.13
-54.245
-54.365
-54.491
-54.625
-54.768
-54.921
-55.085
-55.261
-55.45
-55.653
-55.87
-56.101
-56.345
-56.601
-56.867
-57.141
-57.419
-57.699
-57.977
-58.248
-58.509
-58.754
-58.979
-59.179
-59.347
-59.48
-59.57
-59.613
-59.603
-59.534
-59.4
-59.198
-58.921
-58.566
-58.128
-57.604
-56.988
-56.278
-55.471
-54.563
-53.552
-52.436
-51.213
-49.882
-48.446
-46.905
-45.265
-43.529
-41.706
-39.805
-37.836
-35.81
-33.736
-31.627
-29.494
-27.351
-25.213
-23.091
-21.001
-18.96
-16.982
-15.087
-13.292
-11.611
-10.056
-8.638
-7.364
-6.245
-5.295
-4.525
-3.951
-3.592
-3.467
-3.605
-4.027
-4.745
-5.766
-7.088
-8.709
-10.628
-12.835
-15.318
-18.069
-21.069
-24.291
-27.706
-31.263
-34.891
-38.509
-42.019
-45.323
-48.344
-51.014
-53.272
-55.068
-56.354
-57.111
-57.336
-57.03
-56.217
-54.937
-53.246
-51.242
-49.038
-46.774
-44.64
-42.837
-41.566
-41.016
-41.328
-42.67
-45.26
-49.188
-54.406
-60.672
-67.464
-74.251
-80.607
-85.982
-89.74
-91.441
-90.897
-88.553
-85.615
-83.331
-82.687
-84.525
-89.509
-97.951
-109.547
-122.599
-133.921
-139.899
-137.115
-122.35
-92.601
-45.196
21.964
107.376
205.687
311.499
418.984
526.402
636.524
745.866
846.618
925.216
961.545
945.862
877.733
763.782
621.376
465.393
309.43
169.949
57.422
-21.495
-66.849
-90.066
-102.397
-110.797
-117.41
-117.522
-108.574
-93.1
-75.707
-61.937
-54.432
-52.615
-55.036
-60.023
-66.1
-71.809
-75.495
-76.157
-73.718
-68.654
-61.793
-53.915
-45.667
-37.819
-31.188
-26.25
-23.128
-21.726
-21.772
-23.042
-25.412
-28.67
-32.552
-36.826
-41.252
-45.642
-49.876
-53.808
-57.293
-60.234
-62.552
-64.213
-65.239
-65.65
-65.468
-64.725
-63.433
-61.63
-59.381
-56.767
-53.893
-50.859
-47.743
-44.624
-41.574
-38.646
-35.874
-33.274
-30.832
-28.535
-26.376
-24.348
-22.456
-20.694
-19.046
-17.486
-15.982
-14.503
-13.024
-11.518
-9.955
-8.315
-6.579
-4.739
-2.799
-0.756
1.396
3.665
6.062
8.599
11.281
14.116
17.113
20.274
23.604
27.101
30.758
34.568
38.527
42.633
46.886
51.284
55.814
60.465
65.225
70.075
74.994
79.949
84.896
89.798
94.628
99.363
103.993
108.503
112.879
117.109
121.184
125.097
128.849
132.434
135.836
139.054
142.092
144.975
147.756
150.461
153.102
155.682
158.191
160.62
162.962
165.18
167.219
169.029
170.549
171.739
172.574
173.006
172.984
172.442
171.286
169.457
166.925
163.655
159.629
154.83
149.243
142.91
135.917
128.344
120.283
111.818
103.02
93.998
84.86
75.712
66.675
57.836
49.264
41.042
33.25
25.965
19.269
13.182
7.684
2.76
-1.626
-5.509
-8.928
-11.963
-14.687
-17.155
-19.42
-21.513
-23.455
-25.29
-27.064
-28.818
-30.604
-32.445
-34.339
-36.293
-38.297
-40.333
-42.375
-44.371
-46.272
-48.055
-49.705
-51.221
-52.605
-53.848
-54.945
-55.893
-56.685
-57.316
-57.789
-58.102
-58.259
-58.277
-58.175
-57.984
-57.735
-57.444
-57.126
-56.788
-56.436
-56.076
-55.712
-55.342
-54.969
-54.595
-54.225
-53.865
-53.519
-53.186
-52.864
-52.548
-52.235
-51.919
-51.598
-51.269
-50.929
-50.578
-50.214
-49.84
-49.455
-49.061
-48.656
-48.24
-47.809
-47.365
-46.905
-46.428
-45.934
-45.421
-44.891
-44.342
-43.775
-43.19
-42.588
-41.969
-41.333
-40.682
-40.016
-39.336
-38.645
-37.944
-37.235
-36.521
-35.806
-35.09
-34.379
-33.675
-32.982
-32.303
-31.642
-31.002
-30.387
-29.799
-29.242
-28.718
-28.23
-27.781
-27.374
-27.009
-26.691
-26.421
-26.2
-26.031
-25.914
-25.852
-25.845
-25.892
-25.995
-26.152
-26.363
-26.627
-26.943
-27.308
-27.72
-28.176
-28.675
-29.212
-29.783
-30.385
-31.013
-31.662
-32.328
-33.006
-33.691
-34.378
-35.064
-35.743
-36.411
-37.065
-37.7
-38.312
-38.897
-39.451
-39.971
-40.453
-40.894
-41.291
-41.642
-41.945
-42.198
-42.399
-42.548
-42.644
-42.687
-42.677
-42.615
-42.503
-42.342
-42.134
-41.883
-41.592
-41.265
-40.905
-40.517
-40.104
-39.672
-39.225
-38.766
-38.302
-37.835
-37.371
-36.914
-36.468
-36.039
-35.629
-35.244
-34.887
-34.562
-34.272
-34.02
-33.811
-33.645
-33.526
-33.456
-33.435
-33.466
-33.548
-33.682
-33.866
-34.098
-34.378
-34.701
-35.064
-35.463
-35.893
-36.35
-36.83
-37.328
-37.838
-38.354
-38.87
-39.381
-39.881
-40.36
-40.812
-41.226
-41.596
-41.916
-42.178
-42.375
-42.5
-42.546
-42.506
-42.38
-42.16
-41.838
-41.405
-40.853
-40.178
-39.389
-38.487
-37.475
-36.357
-35.138
-33.826
-32.436
-30.974
-29.436
-27.819
-26.119
-24.342
-22.508
-20.635
-18.742
-16.839
-14.924
-13.004
-11.095
-9.203
-7.327
-5.467
-3.604
-1.755
0.037
1.734
3.292
4.687
5.912
6.952
7.791
8.413
8.795
8.924
8.799
8.396
7.681
6.62
5.165
3.311
1.1
-1.429
-4.225
-7.233
-10.416
-13.72
-17.08
-20.452
-23.786
-27.036
-30.17
-33.118
-35.797
-38.139
-40.061
-41.516
-42.513
-43.071
-43.252
-43.164
-42.906
-42.586
-42.308
-42.159
-42.251
-42.704
-43.623
-45.145
-47.361
-50.389
-54.439
-59.543
-65.543
-72.133
-78.699
-84.627
-89.535
-92.835
-93.789
-92.207
-88.204
-82.391
-76.228
-70.733
-66.354
-63.962
-64.321
-67.176
-71.717
-75.849
-75.974
-69.457
-54.049
-26.685
15.213
73.495
147.629
233.011
323.885
415.029
504.634
596.225
689.922
781.649
861.771
908.416
903.091
835.418
701.671
520.348
319.986
129.846
-17.832
-110.055
-151.334
-155.663
-148.001
-142.55
-141.266
-141.019
-132.409
-113.878
-91.028
-68.719
-52.365
-44.028
-42.047
-45.165
-52.132
-60.239
-67.132
-71.718
-73.371
-72.283
-69.303
-64.688
-58.527
-52.014
-46.314
-41.969
-39.4
-38.454
-38.679
-40.048
-42.579
-45.86
-49.521
-53.283
-56.809
-60.026
-62.929
-65.358
-67.2
-68.43
-69.018
-68.993
-68.425
-67.332
-65.747
-63.737
-61.355
-58.671
-55.762
-52.689
-49.522
-46.328
-43.168
-40.101
-37.168
-34.394
-31.796
-29.379
-27.136
-25.065
-23.161
-21.408
-19.792
-18.292
-16.88
-15.533
-14.229
-12.941
-11.634
-10.285
-8.872
-7.39
-5.85
-4.25
-2.583
-0.833
1.032
3.026
5.146
7.389
9.745
12.199
14.739
17.329
19.91
22.449
24.932
27.371
29.816
32.291
34.806
37.365
39.956
42.589
45.3
48.118
51.074
54.222
57.609
61.316
65.464
70.12
75.312
81.032
87.212
93.805
100.777
108.069
115.627
123.378
131.216
139.043
146.761
154.232
161.322
167.873
173.689
178.632
182.606
185.545
187.44
188.282
188.057
186.792
184.526
181.309
177.221
172.341
166.75
160.577
153.942
146.975
139.827
132.613
125.419
118.326
111.375
104.601
98.04
91.701
85.581
79.68
73.979
68.458
63.095
57.841
52.653
47.502
42.348
37.173
31.965
26.717
21.434
16.131
10.823
5.529
0.277
-4.917
-10.028
-15.027
-19.888
-24.575
-29.062
-33.33
-37.362
-41.148
-44.682
-47.958
-50.977
-53.747
-56.273
-58.562
-60.621
-62.454
-64.069
-65.476
-66.687
-67.711
-68.561
-69.246
-69.774
-70.157
-70.401
-70.517
-70.511
-70.391
-70.162
-69.834
-69.417
-68.918
-68.347
-67.711
-67.02
-66.28
-65.5
-64.685
-63.841
-62.974
-62.088
-61.188
-60.278
-59.364
-58.447
-57.532
-56.62
-55.716
-54.82
-53.935
-53.061
-52.201
-51.355
-50.524
-49.71
-48.913
-48.133
-47.372
-46.63
-45.906
-45.201
-44.516
-43.849
-43.201
-42.571
-41.96
-41.368
-40.794
-40.24
-39.706
-39.192
-38.699
-38.228
-37.779
-37.352
-36.948
-36.568
-36.213
-35.882
-35.577
-35.298
-35.046
-34.822
-34.626
-34.457
-34.317
-34.204
-34.117
-34.058
-34.023
-34.014
-34.028
-34.065
-34.125
-34.206
-34.307
-34.428
-34.566
-34.719
-34.886
-35.063
-35.25
-35.443
-35.64
-35.841
-36.044
-36.248
-36.451
-36.654
-36.854
-37.052
-37.245
-37.433
-37.615
-37.791
-37.959
-38.12
-38.275
-38.425
-38.571
-38.715
-38.857
-39
-39.144
-39.29
-39.438
-39.59
-39.744
-39.901
-40.063
-40.232
-40.41
-40.6
-40.804
-41.025
-41.265
-41.525
-41.806
-42.105
-42.419
-42.745
-43.081
-43.424
-43.772
-44.124
-44.48
-44.839
-45.202
-45.57
-45.94
-46.306
-46.658
-46.986
-47.29
-47.568
-47.823
-48.065
-48.301
-48.541
-48.8
-49.087
-49.404
-49.749
-50.104
-50.448
-50.773
-51.073
-51.351
-51.614
-51.853
-52.06
-52.23
-52.339
-52.365
-52.283
-52.045
-51.614
-50.974
-50.115
-49.056
-47.839
-46.489
-45.031
-43.491
-41.884
-40.246
-38.616
-37.016
-35.484
-34.065
-32.8
-31.766
-31.033
-30.642
-30.632
-31.013
-31.748
-32.811
-34.173
-35.777
-37.579
-39.513
-41.494
-43.467
-45.38
-47.17
-48.783
-50.14
-51.154
-51.763
-51.906
-51.531
-50.635
-49.22
-47.288
-44.887
-42.062
-38.879
-35.437
-31.806
-28.038
-24.196
-20.326
-16.485
-12.748
-9.173
-5.817
-2.745
0.006
2.403
4.414
6.036
7.277
8.155
8.718
8.998
9.009
8.765
8.277
7.553
6.611
5.462
4.104
2.547
0.798
-1.137
-3.245
-5.522
-7.965
-10.568
-13.326
-16.226
-19.244
-22.353
-25.533
-28.753
-31.981
-35.174
-38.265
-41.188
-43.888
-46.31
-48.407
-50.15
-51.528
-52.558
-53.295
-53.788
-54.067
-54.186
-54.199
-54.19
-54.272
-54.559
-55.159
-56.229
-57.986
-60.553
-63.894
-67.759
-71.635
-75
-77.453
-78.573
-77.793
-74.785
-69.742
-63.428
-57.311
-52.88
-50.94
-52.045
-56.932
-65.841
-77.949
-91.248
-102.15
-106.665
-102.103
-85.969
-55.174
-7.232
59.48
142.878
236.241
333.134
428.142
521.492
618.817
718.085
812.972
888.802
919.596
893.107
805.57
661.719
489.028
310.962
149.393
29.388
-45.684
-79.693
-82.275
-75.4
-69.646
-67.376
-68.141
-64.3
-54.112
-41.737
-30.674
-25.021
-25.98
-31.644
-40.051
-49.322
-57.703
-63.838
-67.068
-67.323
-64.962
-60.758
-55.487
-49.783
-44.376
-39.967
-36.895
-35.251
-34.948
-35.725
-37.378
-39.758
-42.658
-45.87
-49.225
-52.58
-55.822
-58.869
-61.608
-63.917
-65.713
-66.943
-67.593
-67.677
-67.22
-66.254
-64.828
-63.001
-60.831
-58.379
-55.702
-52.852
-49.89
-46.877
-43.872
-40.935
-38.106
-35.414
-32.87
-30.48
-28.238
-26.137
-24.16
-22.289
-20.505
-18.793
-17.14
-15.533
-13.957
-12.395
-10.83
-9.244
-7.621
-5.947
-4.209
-2.394
-0.491
1.51
3.617
5.838
8.179
10.649
13.256
16.007
18.909
21.967
25.183
28.562
32.103
35.805
39.666
43.679
47.839
52.137
56.564
61.107
65.754
70.49
75.299
80.166
85.072
89.998
94.925
99.831
104.696
109.496
114.21
118.814
123.286
127.602
131.74
135.677
139.393
142.867
146.079
149.01
151.644
153.963
155.954
157.601
158.894
159.822
160.377
160.553
160.346
159.753
158.775
157.414
155.674
153.559
151.078
148.24
145.054
141.535
137.695
133.55
129.119
124.418
119.47
114.295
108.915
103.353
97.634
91.781
85.818
79.769
73.659
67.513
61.353
55.204
49.089
43.031
37.051
31.17
25.408
19.784
14.313
9.013
3.897
-1.022
-5.733
-10.227
-14.493
-18.526
-22.32
-25.871
-29.177
-32.237
-35.053
-37.626
-39.961
-42.064
-43.941
-45.6
-47.049
-48.298
-49.357
-50.237
-50.95
-51.507
-51.921
-52.205
-52.371
-52.432
-52.401
-52.291
-52.114
-51.881
-51.604
-51.294
-50.961
-50.615
-50.264
-49.916
-49.581
-49.263
-48.971
-48.708
-48.481
-48.291
-48.142
-48.035
-47.972
-47.951
-47.974
-48.039
-48.143
-48.284
-48.46
-48.668
-48.903
-49.161
-49.439
-49.731
-50.033
-50.34
-50.647
-50.95
-51.244
-51.524
-51.786
-52.027
-52.242
-52.428
-52.581
-52.7
-52.78
-52.82
-52.817
-52.77
-52.678
-52.54
-52.356
-52.126
-51.849
-51.529
-51.164
-50.758
-50.311
-49.827
-49.307
-48.754
-48.172
-47.563
-46.931
-46.279
-45.611
-44.931
-44.243
-43.549
-42.854
-42.16
-41.472
-40.793
-40.125
-39.472
-38.837
-38.223
-37.633
-37.068
-36.532
-36.026
-35.552
-35.112
-34.708
-34.34
-34.009
-33.717
-33.464
-33.25
-33.076
-32.941
-32.845
-32.788
-32.768
-32.785
-32.838
-32.924
-33.043
-33.192
-33.371
-33.576
-33.806
-34.059
-34.334
-34.627
-34.937
-35.261
-35.598
-35.945
-36.3
-36.662
-37.027
-37.395
-37.763
-38.129
-38.491
-38.848
-39.198
-39.539
-39.87
-40.188
-40.493
-40.783
-41.057
-41.314
-41.553
-41.773
-41.974
-42.157
-42.32
-42.465
-42.592
-42.702
-42.796
-42.876
-42.941
-42.993
-43.033
-43.062
-43.083
-43.096
-43.102
-43.102
-43.099
-43.094
-43.089
-43.086
-43.086
-43.09
-43.102
-43.122
-43.154
-43.199
-43.258
-43.336
-43.433
-43.552
-43.695
-43.864
-44.058
-44.279
-44.526
-44.8
-45.097
-45.417
-45.757
-46.115
-46.49
-46.88
-47.282
-47.695
-48.119
-48.551
-48.992
-49.437
-49.883
-50.324
-50.755
-51.172
-51.566
-51.933
-52.262
-52.547
-52.785
-52.97
-53.096
-53.155
-53.133
-53.021
-52.815
-52.514
-52.116
-51.626
-51.044
-50.382
-49.661
-48.9
-48.117
-47.32
-46.501
-45.66
-44.797
-43.912
-43.008
-42.077
-41.096
-40.05
-38.932
-37.726
-36.421
-34.985
-33.367
-31.527
-29.441
-27.101
-24.526
-21.738
-18.758
-15.625
-12.387
-9.109
-5.877
-2.755
0.202
2.931
5.366
7.425
9.004
10.02
10.407
10.11
9.106
7.387
4.961
1.871
-1.823
-6.046
-10.704
-15.714
-20.993
-26.436
-31.933
-37.367
-42.607
-47.53
-52.016
-55.934
-59.178
-61.678
-63.408
-64.378
-64.619
-64.169
-63.081
-61.426
-59.296
-56.831
-54.196
-51.557
-49.097
-47.019
-45.512
-44.817
-45.203
-46.765
-49.465
-53.139
-57.425
-61.993
-66.602
-70.883
-74.384
-76.854
-78.122
-78.364
-78.321
-78.592
-79.667
-81.981
-85.518
-90.376
-96.876
-104.267
-110.943
-113.872
-108.153
-91.809
-64.814
-28.695
11.866
59.448
119.577
195.09
292.152
405.407
524.497
647.165
762.422
862.86
942.212
978.449
960.572
885.561
754.24
588.014
407.718
231.929
83.168
-26.692
-91.292
-112.701
-104.513
-81.49
-58.62
-43.251
-35.891
-36.086
-38.203
-40.018
-41.334
-40.313
-40.556
-43.747
-49.112
-56.767
-63.456
-66.906
-67.349
-64.878
-60.51
-55.416
-50
-44.865
-40.822
-38.234
-37.196
-37.625
-39.233
-41.783
-45.113
-49.02
-53.242
-57.559
-61.803
-65.829
-69.536
-72.807
-75.516
-77.577
-78.945
-79.613
-79.599
-78.936
-77.668
-75.85
-73.555
-70.85
-67.806
-64.494
-60.984
-57.349
-53.665
-49.999
-46.414
-42.957
-39.66
-36.54
-33.604
-30.85
-28.274
-25.864
-23.603
-21.479
-19.478
-17.588
-15.798
-14.091
-12.451
-10.862
-9.308
-7.774
-6.249
-4.72
-3.177
-1.609
-0.005
1.646
3.355
5.135
7.001
8.966
11.047
13.258
15.608
18.109
20.769
23.599
26.611
29.812
33.202
36.778
40.533
44.456
48.534
52.747
57.066
61.461
65.905
70.373
74.851
79.326
83.783
88.205
92.573
96.876
101.116
105.302
109.434
113.516
117.553
121.562
125.579
129.634
133.741
137.906
142.11
146.331
150.548
154.736
158.858
162.865
166.69
170.259
173.516
176.404
178.866
180.834
182.214
182.924
182.908
182.127
180.561
178.194
175.009
170.998
166.18
160.587
154.275
147.307
139.732
131.608
123
113.977
104.636
95.069
85.35
75.546
65.725
55.956
46.33
36.945
27.88
19.209
10.994
3.28
-3.884
-10.468
-16.447
-21.796
-26.51
-30.587
-34.02
-36.809
-38.961
-40.484
-41.431
-41.887
-41.943
-41.708
-41.273
-40.711
-40.09
-39.46
-38.865
-38.353
-37.962
-37.72
-37.662
-37.818
-38.22
-38.914
-39.898
-41.126
-42.535
-44.035
-45.555
-47.048
-48.473
-49.8
-51.008
-52.076
-52.994
-53.767
-54.387
-54.842
-55.109
-55.148
-54.952
-54.543
-53.962
-53.27
-52.513
-51.719
-50.916
-50.13
-49.376
-48.665
-47.998
-47.36
-46.748
-46.168
-45.632
-45.166
-44.78
-44.47
-44.226
-44.028
-43.864
-43.724
-43.6
-43.477
-43.349
-43.213
-43.072
-42.935
-42.808
-42.689
-42.577
-42.464
-42.346
-42.223
-42.093
-41.957
-41.813
-41.663
-41.507
-41.35
-41.192
-41.035
-40.879
-40.721
-40.56
-40.398
-40.234
-40.07
-39.907
-39.745
-39.587
-39.436
-39.293
-39.159
-39.036
-38.924
-38.823
-38.735
-38.659
-38.597
-38.547
-38.51
-38.487
-38.478
-38.484
-38.506
-38.543
-38.597
-38.669
-38.758
-38.864
-38.989
-39.13
-39.288
-39.461
-39.649
-39.849
-40.059
-40.278
-40.503
-40.731
-40.959
-41.185
-41.404
-41.613
-41.811
-41.994
-42.159
-42.305
-42.43
-42.532
-42.611
-42.665
-42.694
-42.698
-42.676
-42.629
-42.555
-42.456
-42.331
-42.181
-42.007
-41.809
-41.588
-41.345
-41.081
-40.799
-40.5
-40.186
-39.861
-39.526
-39.187
-38.846
-38.507
-38.175
-37.853
-37.546
-37.257
-36.99
-36.749
-36.536
-36.355
-36.208
-36.096
-36.021
-35.984
-35.986
-36.027
-36.107
-36.227
-36.386
-36.583
-36.817
-37.089
-37.397
-37.741
-38.12
-38.532
-38.976
-39.452
-39.958
-40.491
-41.05
-41.632
-42.234
-42.853
-43.486
-44.13
-44.78
-45.434
-46.088
-46.737
-47.379
-48.01
-48.628
-49.228
-49.809
-50.367
-50.901
-51.409
-51.888
-52.336
-52.752
-53.134
-53.479
-53.785
-54.049
-54.267
-54.438
-54.557
-54.62
-54.624
-54.566
-54.441
-54.246
-53.977
-53.633
-53.209
-52.703
-52.112
-51.434
-50.669
-49.815
-48.87
-47.835
-46.71
-45.496
-44.192
-42.801
-41.325
-39.765
-38.124
-36.405
-34.613
-32.752
-30.827
-28.846
-26.818
-24.752
-22.659
-20.552
-18.444
-16.351
-14.286
-12.267
-10.306
-8.42
-6.623
-4.929
-3.352
-1.909
-0.613
0.519
1.474
2.238
2.798
3.145
3.273
3.177
2.856
2.306
1.519
0.488
-0.791
-2.325
-4.118
-6.168
-8.47
-11.002
-13.729
-16.612
-19.611
-22.681
-25.787
-28.887
-31.937
-34.895
-37.707
-40.32
-42.687
-44.754
-46.472
-47.805
-48.74
-49.312
-49.594
-49.675
-49.639
-49.56
-49.513
-49.605
-49.959
-50.696
-51.937
-53.767
-56.293
-59.714
-64.131
-69.474
-75.472
-81.542
-87.032
-91.44
-94.199
-94.603
-92.251
-87.158
-79.907
-71.939
-64.778
-59.479
-57.024
-58.347
-63.675
-72.246
-82.036
-89.434
-90.498
-81.671
-59.438
-20.441
38.092
115.735
208.465
311.195
417.642
525.712
637.97
750.543
855.106
937.357
976.03
960.886
893.114
780.541
639.104
482.994
322.571
171.885
47.594
-39.121
-83.303
-91.683
-82.773
-69.99
-60.09
-53.694
-44.454
-31.03
-16.774
-4.956
0.419
-1.457
-8.492
-18.851
-30.491
-41.436
-50.351
-56.448
-59.589
-60.255
-59.224
-57.203
-54.812
-52.686
-51.361
-51.086
-51.839
-53.415
-55.502
-57.827
-60.195
-62.408
-64.271
-65.671
-66.544
-66.86
-66.635
-65.89
-64.631
-62.912
-60.838
-58.505
-56.033
-53.538
-51.11
-48.844
-46.827
-45.11
-43.729
-42.705
-42.025
-41.67
-41.609
-41.776
-42.115
-42.562
-43.022
-43.423
-43.69
-43.751
-43.557
-43.071
-42.258
-41.113
-39.645
-37.863
-35.802
-33.5
-31
-28.366
-25.647
-22.879
-20.103
-17.345
-14.622
-11.955
-9.346
-6.783
-4.258
-1.749
0.769
3.311
5.9
8.563
11.32
14.198
17.207
20.343
23.602
26.977
30.46
34.05
37.733
41.492
45.314
49.184
53.095
57.054
61.067
65.143
69.307
73.581
77.997
82.605
87.432
92.498
97.814
103.372
109.164
115.177
121.377
127.724
134.167
140.633
147.04
153.3
159.293
164.907
170.028
174.522
178.293
181.257
183.345
184.515
184.736
183.988
182.282
179.643
176.103
171.724
166.579
160.756
154.379
147.562
140.416
133.065
125.607
118.125
110.702
103.393
96.242
89.29
82.555
76.048
69.78
63.743
57.922
52.292
46.803
41.42
36.114
30.854
25.624
20.414
15.216
10.035
4.887
-0.215
-5.252
-10.202
-15.051
-19.777
-24.352
-28.752
-32.942
-36.897
-40.599
-44.033
-47.191
-50.068
-52.661
-54.974
-57.018
-58.803
-60.337
-61.631
-62.695
-63.538
-64.174
-64.617
-64.881
-64.981
-64.929
-64.738
-64.419
-63.986
-63.449
-62.82
-62.108
-61.323
-60.477
-59.58
-58.646
-57.685
-56.707
-55.724
-54.746
-53.782
-52.841
-51.93
-51.058
-50.229
-49.45
-48.726
-48.059
-47.454
-46.912
-46.435
-46.024
-45.679
-45.398
-45.182
-45.027
-44.931
-44.893
-44.908
-44.973
-45.083
-45.235
-45.424
-45.645
-45.892
-46.161
-46.445
-46.74
-47.039
-47.338
-47.631
-47.912
-48.175
-48.415
-48.628
-48.809
-48.952
-49.055
-49.113
-49.123
-49.083
-48.991
-48.845
-48.644
-48.388
-48.076
-47.709
-47.288
-46.815
-46.291
-45.72
-45.103
-44.446
-43.751
-43.023
-42.266
-41.484
-40.681
-39.863
-39.033
-38.197
-37.36
-36.526
-35.7
-34.887
-34.094
-33.323
-32.58
-31.87
-31.196
-30.564
-29.976
-29.437
-28.949
-28.515
-28.138
-27.82
-27.563
-27.367
-27.234
-27.163
-27.154
-27.207
-27.319
-27.488
-27.713
-27.992
-28.321
-28.697
-29.118
-29.579
-30.079
-30.613
-31.177
-31.767
-32.38
-33.011
-33.657
-34.312
-34.975
-35.639
-36.301
-36.958
-37.605
-38.239
-38.856
-39.452
-40.023
-40.567
-41.081
-41.563
-42.009
-42.419
-42.79
-43.123
-43.417
-43.672
-43.888
-44.065
-44.206
-44.31
-44.379
-44.416
-44.422
-44.399
-44.349
-44.275
-44.18
-44.066
-43.936
-43.793
-43.639
-43.478
-43.313
-43.146
-42.982
-42.823
-42.674
-42.537
-42.416
-42.314
-42.235
-42.181
-42.156
-42.16
-42.198
-42.269
-42.376
-42.519
-42.698
-42.912
-43.162
-43.445
-43.761
-44.106
-44.479
-44.876
-45.295
-45.731
-46.182
-46.643
-47.111
-47.58
-48.046
-48.505
-48.949
-49.374
-49.773
-50.141
-50.471
-50.756
-50.989
-51.165
-51.276
-51.315
-51.277
-51.154
-50.942
-50.633
-50.225
-49.711
-49.089
-48.358
-47.514
-46.559
-45.493
-44.316
-43.029
-41.635
-40.137
-38.539
-36.845
-35.062
-33.195
-31.254
-29.25
-27.194
-25.101
-22.983
-20.852
-18.725
-16.618
-14.552
-12.545
-10.618
-8.789
-7.079
-5.507
-4.095
-2.862
-1.82
-0.979
-0.342
0.08
0.279
0.243
-0.031
-0.541
-1.276
-2.23
-3.4
-4.785
-6.38
-8.174
-10.155
-12.313
-14.649
-17.162
-19.847
-22.685
-25.64
-28.662
-31.716
-34.778
-37.84
-40.916
-43.983
-46.986
-49.863
-52.532
-54.928
-57.046
-58.834
-60.16
-61.023
-61.537
-61.973
-62.877
-64.707
-67.519
-71.265
-75.922
-81.159
-86.57
-91.466
-94.306
-93.631
-88.962
-80.298
-68.136
-53.683
-37.924
-22.127
-9.108
-1.776
-1.866
-10.408
-26.953
-49.778
-77.702
-109.062
-140.123
-166.518
-184.061
-188.736
-178.469
-152.312
-108.553
-46.265
33.483
128.1
233.357
344.04
455.847
564.214
662.996
745.881
807.221
842.985
852.639
838.14
800.79
741.768
660.185
554.213
427.949
291.546
162.222
58.979
-8.413
-42.087
-55.221
-62.894
-73.119
-85.637
-94.612
-96.218
-91.33
-83.346
-75.693
-69.102
-62.701
-55.813
-48.079
-39.955
-31.722
-23.295
-15.81
-10.716
-8.785
-10.533
-15.51
-22.341
-30.326
-38.97
-47.058
-53.698
-58.435
-60.904
-61.63
-61.687
-61.559
-61.548
-62.08
-63.198
-64.877
-67.1
-69.431
-71.305
-72.465
-72.773
-72.191
-70.861
-68.875
-66.296
-63.287
-60.012
-56.603
-53.189
-49.874
-46.727
-43.83
-41.255
-39.054
-37.264
-35.887
-34.89
-34.215
-33.782
-33.517
-33.359
-33.263
-33.191
-33.099
-32.933
-32.621
-32.099
-31.32
-30.249
-28.858
-27.123
-25.032
-22.593
-19.849
-16.87
-13.709
-10.402
-6.967
-3.412
0.251
4
7.815
11.678
15.58
19.517
23.473
27.427
31.363
35.274
39.18
43.123
47.124
51.196
55.34
59.545
63.8
68.094
72.395
76.672
80.905
85.074
89.179
93.224
97.208
101.132
104.986
108.748
112.411
115.963
119.388
122.688
125.872
128.96
131.999
135.018
138.017
140.991
143.917
146.764
149.505
152.104
154.51
156.688
158.605
160.236
161.568
162.564
163.165
163.297
162.864
161.8
160.083
157.697
154.643
150.935
146.591
141.648
136.169
130.193
123.741
116.834
109.489
101.758
93.731
85.514
77.235
68.999
60.873
52.92
45.195
37.737
30.577
23.731
17.195
10.996
5.187
-0.188
-5.087
-9.502
-13.466
-17.026
-20.251
-23.198
-25.906
-28.414
-30.751
-32.936
-34.979
-36.886
-38.654
-40.301
-41.871
-43.403
-44.93
-46.465
-47.998
-49.507
-50.956
-52.316
-53.561
-54.67
-55.634
-56.447
-57.115
-57.647
-58.056
-58.346
-58.51
-58.543
-58.439
-58.204
-57.852
-57.402
-56.879
-56.308
-55.713
-55.113
-54.523
-53.953
-53.408
-52.89
-52.397
-51.93
-51.491
-51.083
-50.711
-50.375
-50.074
-49.807
-49.569
-49.356
-49.163
-48.984
-48.816
-48.656
-48.502
-48.352
-48.206
-48.064
-47.923
-47.781
-47.636
-47.484
-47.321
-47.145
-46.953
-46.742
-46.511
-46.257
-45.981
-45.682
-45.36
-45.015
-44.648
-44.26
-43.852
-43.426
-42.984
-42.529
-42.064
-41.59
-41.11
-40.628
-40.145
-39.664
-39.187
-38.716
-38.253
-37.801
-37.362
-36.937
-36.529
-36.14
-35.773
-35.428
-35.11
-34.818
-34.556
-34.325
-34.124
-33.957
-33.822
-33.72
-33.652
-33.617
-33.615
-33.644
-33.704
-33.794
-33.911
-34.054
-34.221
-34.411
-34.621
-34.85
-35.095
-35.356
-35.631
-35.919
-36.217
-36.525
-36.842
-37.164
-37.492
-37.822
-38.155
-38.487
-38.818
-39.146
-39.47
-39.789
-40.102
-40.408
-40.705
-40.992
-41.268
-41.532
-41.784
-42.021
-42.243
-42.45
-42.641
-42.816
-42.976
-43.119
-43.246
-43.355
-43.448
-43.523
-43.581
-43.621
-43.643
-43.648
-43.635
-43.606
-43.561
-43.501
-43.427
-43.339
-43.238
-43.126
-43.003
-42.87
-42.729
-42.581
-42.427
-42.271
-42.115
-41.961
-41.811
-41.669
-41.537
-41.417
-41.312
-41.224
-41.155
-41.108
-41.084
-41.085
-41.115
-41.175
-41.267
-41.392
-41.552
-41.747
-41.977
-42.242
-42.542
-42.875
-43.241
-43.638
-44.067
-44.524
-45.009
-45.519
-46.051
-46.603
-47.17
-47.747
-48.33
-48.912
-49.488
-50.052
-50.595
-51.113
-51.598
-52.046
-52.451
-52.805
-53.104
-53.34
-53.51
-53.606
-53.623
-53.552
-53.387
-53.122
-52.753
-52.278
-51.693
-50.996
-50.184
-49.258
-48.22
-47.072
-45.813
-44.44
-42.948
-41.341
-39.629
-37.829
-35.955
-34.022
-32.045
-30.044
-28.046
-26.071
-24.13
-22.223
-20.348
-18.513
-16.731
-15.03
-13.434
-11.955
-10.597
-9.359
-8.247
-7.269
-6.426
-5.703
-5.077
-4.539
-4.107
-3.826
-3.741
-3.883
-4.27
-4.903
-5.792
-6.954
-8.406
-10.157
-12.187
-14.473
-16.996
-19.76
-22.775
-26.031
-29.471
-33.001
-36.531
-39.979
-43.275
-46.363
-49.172
-51.633
-53.699
-55.357
-56.656
-57.668
-58.463
-59.082
-59.546
-59.907
-60.283
-60.832
-61.708
-63.051
-64.953
-67.539
-71.036
-75.555
-81.011
-87.099
-93.211
-98.725
-103.215
-106.187
-106.982
-105.22
-100.903
-94.58
-87.611
-81.304
-76.408
-73.629
-73.725
-76.908
-82.527
-88.685
-92.03
-89.121
-76.996
-52.67
-13.094
44.576
120.077
209.306
307.253
408.159
511.088
620.348
733.664
843.499
934.601
983.158
976.157
911.542
796.613
651.467
493.857
338.58
200.901
89.175
8.137
-42.714
-73.212
-92.747
-106.639
-115.846
-115.294
-102.514
-80.702
-55.474
-33.351
-17.901
-9.213
-6.851
-10.74
-20.231
-33.776
-48.838
-62.688
-73.884
-82.152
-87.314
-88.882
-86.753
-81.421
-74.125
-66.566
-59.717
-53.842
-49.101
-45.679
-43.717
-43.257
-43.977
-45.208
-46.518
-47.726
-48.738
-49.56
-50.151
-50.43
-50.415
-50.216
-49.917
-49.57
-49.194
-48.75
-48.221
-47.602
-46.87
-46.019
-45.044
-43.944
-42.722
-41.387
-39.939
-38.367
-36.664
-34.822
-32.831
-30.691
-28.415
-26.028
-23.561
-21.067
-18.609
-16.255
-14.078
-12.134
-10.462
-9.085
-8.002
-7.213
-6.704
-6.444
-6.396
-6.499
-6.671
-6.837
-6.93
-6.87
-6.574
-5.945
-4.864
-3.241
-1.008
1.879
5.43
9.647
14.526
20.031
26.107
32.676
39.629
46.881
54.367
62.015
69.755
77.502
85.146
92.6
99.802
106.697
113.25
119.43
125.205
130.57
135.541
140.147
144.436
148.431
152.135
155.552
158.682
161.531
164.119
166.449
168.514
170.308
171.829
173.071
174.036
174.708
175.056
175.052
174.665
173.88
172.696
171.121
169.169
166.858
164.209
161.245
157.993
154.464
150.663
146.59
142.241
137.628
132.775
127.704
122.437
116.989
111.37
105.581
99.613
93.449
87.067
80.454
73.611
66.561
59.351
52.037
44.692
37.373
30.123
22.981
15.982
9.162
2.559
-3.782
-9.808
-15.456
-20.65
-25.334
-29.466
-33.038
-36.07
-38.605
-40.709
-42.436
-43.83
-44.93
-45.766
-46.366
-46.757
-46.972
-47.046
-47.028
-46.982
-46.963
-47.016
-47.163
-47.404
-47.72
-48.075
-48.438
-48.785
-49.098
-49.37
-49.599
-49.787
-49.936
-50.054
-50.136
-50.171
-50.147
-50.051
-49.884
-49.654
-49.379
-49.082
-48.785
-48.509
-48.268
-48.073
-47.929
-47.835
-47.788
-47.779
-47.804
-47.86
-47.946
-48.061
-48.205
-48.371
-48.555
-48.75
-48.95
-49.146
-49.334
-49.506
-49.66
-49.792
-49.902
-49.991
-50.059
-50.106
-50.132
-50.137
-50.118
-50.075
-50.008
-49.913
-49.791
-49.642
-49.464
-49.259
-49.03
-48.776
-48.502
-48.209
-47.902
-47.583
-47.256
-46.924
-46.592
-46.261
-45.937
-45.622
-45.318
-45.03
-44.759
-44.508
-44.279
-44.072
-43.89
-43.732
-43.599
-43.49
-43.404
-43.341
-43.3
-43.281
-43.283
-43.306
-43.348
-43.41
-43.49
-43.586
-43.698
-43.823
-43.959
-44.102
-44.251
-44.403
-44.556
-44.706
-44.851
-44.989
-45.118
-45.236
-45.34
-45.429
-45.501
-45.555
-45.59
-45.606
-45.602
-45.579
-45.537
-45.478
-45.404
-45.316
-45.214
-45.102
-44.981
-44.852
-44.718
-44.58
-44.44
-44.301
-44.165
-44.033
-43.91
-43.796
-43.694
-43.606
-43.534
-43.479
-43.444
-43.428
-43.434
-43.461
-43.511
-43.584
-43.681
-43.802
-43.947
-44.115
-44.307
-44.52
-44.755
-45.01
-45.283
-45.573
-45.88
-46.201
-46.535
-46.878
-47.229
-47.586
-47.947
-48.308
-48.666
-49.02
-49.368
-49.71
-50.046
-50.375
-50.696
-51.008
-51.312
-51.607
-51.894
-52.173
-52.441
-52.697
-52.945
-53.191
-53.439
-53.689
-53.932
-54.164
-54.384
-54.587
-54.77
-54.928
-55.048
-55.13
-55.181
-55.212
-55.234
-55.249
-55.249
-55.226
-55.173
-55.093
-55.003
-54.908
-54.805
-54.702
-54.607
-54.535
-54.513
-54.536
-54.571
-54.59
-54.564
-54.476
-54.33
-54.122
-53.843
-53.478
-53.007
-52.418
-51.715
-50.882
-49.894
-48.725
-47.333
-45.717
-43.921
-41.977
-39.915
-37.757
-35.506
-33.178
-30.8
-28.394
-25.978
-23.569
-21.171
-18.807
-16.516
-14.339
-12.321
-10.483
-8.81
-7.295
-5.94
-4.749
-3.74
-2.917
-2.278
-1.826
-1.573
-1.53
-1.711
-2.119
-2.748
-3.591
-4.639
-5.892
-7.367
-9.069
-10.999
-13.144
-15.472
-17.952
-20.556
-23.249
-25.993
-28.747
-31.464
-34.099
-36.608
-38.941
-41.059
-42.92
-44.471
-45.682
-46.531
-47.033
-47.261
-47.3
-47.239
-47.16
-47.116
-47.181
-47.473
-48.116
-49.238
-50.97
-53.371
-56.543
-60.697
-65.87
-71.93
-78.545
-85.009
-90.618
-94.885
-97.204
-96.857
-93.601
-87.575
-79.409
-70.696
-62.955
-57.183
-54.571
-56.097
-61.578
-69.855
-78.799
-84.659
-83.35
-71.242
-44.16
1.922
67.673
150.155
245.583
348.069
454.503
568.283
688.396
809.013
919.27
995.374
1015.91
969.657
853.27
685.018
494.167
309.629
161.843
62.977
9.428
-10.063
-17.67
-26.437
-38.87
-53.184
-60.34
-57.101
-47.231
-35.448
-27.649
-26.227
-29.909
-37.039
-45.889
-54.995
-63.153
-69.021
-71.794
-71.459
-68.476
-63.636
-57.671
-51.225
-45.059
-39.9
-36.171
-33.994
-33.271
-33.764
-35.269
-37.624
-40.611
-44.002
-47.598
-51.237
-54.804
-58.204
-61.317
-64.02
-66.198
-67.777
-68.727
-69.051
-68.769
-67.912
-66.527
-64.675
-62.427
-59.854
-57.027
-54.012
-50.869
-47.663
-44.458
-41.313
-38.283
-35.404
-32.697
-30.17
-27.824
-25.651
-23.643
-21.783
-20.051
-18.428
-16.9
-15.45
-14.064
-12.725
-11.414
-10.11
-8.795
-7.45
-6.059
-4.607
-3.079
-1.462
0.256
2.088
4.042
6.13
8.363
10.752
13.306
16.035
18.944
22.039
25.325
28.802
32.469
36.324
40.362
44.574
48.953
53.488
58.168
62.98
67.909
72.941
78.059
83.246
88.483
93.75
99.025
104.283
109.498
114.644
119.693
124.619
129.393
133.992
138.389
142.561
146.487
150.145
153.514
156.569
159.286
161.644
163.627
165.224
166.427
167.24
167.666
167.718
167.408
166.745
165.734
164.374
162.657
160.573
158.114
155.281
152.086
148.54
144.654
140.436
135.89
131.012
125.79
120.208
114.243
107.886
101.147
94.055
86.661
79.03
71.234
63.338
55.39
47.436
39.52
31.684
23.973
16.443
9.155
2.182
-4.392
-10.501
-16.099
-21.169
-25.725
-29.801
-33.452
-36.726
-39.659
-42.282
-44.618
-46.688
-48.514
-50.121
-51.541
-52.818
-54.014
-55.178
-56.35
-57.55
-58.773
-59.999
-61.193
-62.323
-63.366
-64.303
-65.13
-65.844
-66.449
-66.951
-67.357
-67.666
-67.866
-67.948
-67.907
-67.742
-67.468
-67.102
-66.671
-66.199
-65.71
-65.219
-64.741
-64.281
-63.842
-63.425
-63.024
-62.638
-62.268
-61.916
-61.585
-61.276
-60.987
-60.715
-60.457
-60.209
-59.965
-59.72
-59.472
-59.219
-58.958
-58.691
-58.418
-58.14
-57.857
-57.569
-57.273
-56.97
-56.656
-56.331
-55.993
-55.64
-55.273
-54.89
-54.492
-54.079
-53.653
-53.214
-52.764
-52.303
-51.833
-51.356
-50.872
-50.384
-49.891
-49.396
-48.9
-48.402
-47.905
-47.408
-46.913
-46.418
-45.925
-45.435
-44.947
-44.462
-43.982
-43.506
-43.037
-42.575
-42.122
-41.681
-41.252
-40.837
-40.438
-40.056
-39.692
-39.348
-39.025
-38.723
-38.444
-38.187
-37.954
-37.745
-37.562
-37.403
-37.27
-37.163
-37.083
-37.031
-37.006
-37.01
-37.044
-37.108
-37.203
-37.33
-37.488
-37.677
-37.897
-38.147
-38.425
-38.73
-39.06
-39.412
-39.785
-40.177
-40.584
-41.003
-41.433
-41.87
-42.312
-42.754
-43.195
-43.631
-44.06
-44.479
-44.885
-45.277
-45.652
-46.009
-46.347
-46.663
-46.957
-47.227
-47.473
-47.691
-47.882
-48.045
-48.178
-48.283
-48.359
-48.407
-48.428
-48.425
-48.397
-48.349
-48.281
-48.196
-48.096
-47.984
-47.864
-47.738
-47.609
-47.482
-47.361
-47.248
-47.148
-47.063
-46.995
-46.947
-46.92
-46.915
-46.931
-46.968
-47.024
-47.1
-47.195
-47.306
-47.434
-47.578
-47.737
-47.91
-48.097
-48.292
-48.493
-48.692
-48.886
-49.067
-49.228
-49.361
-49.461
-49.52
-49.535
-49.501
-49.412
-49.264
-49.045
-48.743
-48.35
-47.862
-47.275
-46.588
-45.807
-44.941
-44.008
-43.031
-42.022
-40.99
-39.936
-38.85
-37.729
-36.566
-35.352
-34.091
-32.785
-31.43
-30.033
-28.597
-27.109
-25.553
-23.893
-22.084
-20.107
-17.956
-15.64
-13.194
-10.656
-8.075
-5.522
-3.051
-0.71
1.453
3.411
5.137
6.585
7.706
8.43
8.669
8.37
7.501
6.04
4.005
1.427
-1.641
-5.101
-8.854
-12.816
-16.908
-21.073
-25.268
-29.423
-33.471
-37.329
-40.894
-44.084
-46.838
-49.095
-50.82
-52.007
-52.665
-52.873
-52.757
-52.427
-51.99
-51.526
-51.057
-50.643
-50.367
-50.315
-50.6
-51.323
-52.53
-54.316
-56.869
-60.227
-64.269
-68.662
-72.716
-75.739
-77.231
-76.597
-73.166
-66.707
-57.438
-46.09
-34.344
-23.913
-16.02
-12.122
-13.474
-20.116
-30.986
-43.987
-55.358
-60.82
-56.482
-37.618
0.582
58.736
133.583
221.608
316.838
418.656
533.608
658.652
785.461
896.554
960.206
958.967
887.348
750.646
577.522
392.968
219.853
83.079
-12.547
-67.128
-87.42
-93.745
-95.687
-97.13
-99.359
-94.524
-81.362
-64.724
-48.367
-37.56
-34.517
-37.412
-44.293
-53.312
-62.26
-69.306
-73.51
-74.396
-72.129
-67.552
-61.482
-54.612
-47.84
-42.041
-37.664
-34.916
-33.744
-33.856
-35.037
-37.107
-39.828
-42.957
-46.293
-49.676
-52.976
-56.096
-58.914
-61.29
-63.129
-64.373
-64.998
-65.012
-64.44
-63.316
-61.687
-59.622
-57.181
-54.429
-51.428
-48.238
-44.926
-41.564
-38.219
-34.954
-31.815
-28.835
-26.029
-23.406
-20.962
-18.689
-16.571
-14.59
-12.728
-10.97
-9.301
-7.709
-6.177
-4.687
-3.221
-1.763
-0.298
1.187
2.704
4.265
5.882
7.566
9.327
11.174
13.119
15.174
17.353
19.666
22.121
24.726
27.487
30.414
33.518
36.804
40.272
43.917
47.735
51.714
55.844
60.105
64.464
68.893
73.361
77.847
82.342
86.833
91.304
95.74
100.122
104.443
108.712
112.93
117.092
121.199
125.249
129.262
133.277
137.322
141.416
145.558
149.721
153.88
158.014
162.083
166.043
169.829
173.351
176.54
179.343
181.708
183.584
184.901
185.562
185.491
184.641
182.981
180.516
177.25
173.19
168.374
162.864
156.746
150.133
143.116
135.76
128.138
120.316
112.38
104.436
96.568
88.838
81.298
73.984
66.931
60.177
53.73
47.576
41.685
36.013
30.53
25.233
20.109
15.153
10.352
5.682
1.135
-3.284
-7.572
-11.728
-15.751
-19.645
-23.403
-27.004
-30.425
-33.642
-36.638
-39.411
-41.955
-44.269
-46.356
-48.216
-49.859
-51.3
-52.551
-53.622
-54.521
-55.257
-55.84
-56.285
-56.606
-56.818
-56.932
-56.959
-56.91
-56.796
-56.626
-56.406
-56.143
-55.842
-55.507
-55.146
-54.762
-54.363
-53.952
-53.534
-53.112
-52.69
-52.271
-51.856
-51.446
-51.042
-50.644
-50.252
-49.865
-49.483
-49.106
-48.731
-48.359
-47.988
-47.618
-47.247
-46.877
-46.504
-46.131
-45.755
-45.378
-44.998
-44.616
-44.232
-43.845
-43.455
-43.064
-42.67
-42.274
-41.877
-41.479
-41.081
-40.685
-40.291
-39.901
-39.517
-39.139
-38.77
-38.412
-38.067
-37.735
-37.421
-37.125
-36.849
-36.596
-36.367
-36.164
-35.987
-35.838
-35.717
-35.626
-35.563
-35.529
-35.524
-35.547
-35.6
-35.681
-35.791
-35.929
-36.095
-36.289
-36.509
-36.754
-37.024
-37.316
-37.629
-37.961
-38.31
-38.674
-39.052
-39.44
-39.837
-40.24
-40.647
-41.054
-41.458
-41.857
-42.248
-42.628
-42.995
-43.347
-43.681
-43.998
-44.296
-44.573
-44.831
-45.068
-45.284
-45.477
-45.649
-45.798
-45.924
-46.027
-46.108
-46.166
-46.203
-46.221
-46.22
-46.202
-46.169
-46.123
-46.066
-46
-45.927
-45.85
-45.772
-45.697
-45.628
-45.569
-45.523
-45.495
-45.487
-45.501
-45.539
-45.603
-45.694
-45.809
-45.95
-46.113
-46.299
-46.508
-46.737
-46.987
-47.256
-47.543
-47.849
-48.173
-48.51
-48.858
-49.211
-49.563
-49.908
-50.241
-50.553
-50.835
-51.082
-51.287
-51.446
-51.553
-51.6
-51.576
-51.468
-51.267
-50.969
-50.572
-50.071
-49.47
-48.775
-48
-47.171
-46.302
-45.402
-44.472
-43.505
-42.497
-41.447
-40.349
-39.202
-37.999
-36.733
-35.401
-34.01
-32.553
-31.015
-29.367
-27.558
-25.562
-23.374
-21.004
-18.477
-15.826
-13.086
-10.309
-7.567
-4.921
-2.431
-0.144
1.917
3.707
5.174
6.249
6.841
6.883
6.344
5.201
3.452
1.109
-1.803
-5.224
-9.051
-13.185
-17.534
-22.019
-26.586
-31.169
-35.688
-40.052
-44.162
-47.93
-51.29
-54.188
-56.574
-58.409
-59.681
-60.415
-60.698
-60.667
-60.448
-60.157
-59.888
-59.702
-59.68
-59.939
-60.583
-61.699
-63.378
-65.641
-68.577
-72.39
-77.1
-82.542
-88.313
-93.697
-98.015
-100.787
-101.38
-99.088
-93.708
-85.434
-75.22
-64.766
-55.46
-48.637
-45.648
-47.249
-53.505
-62.119
-69.395
-72.682
-68.329
-55.864
-34.763
1.493
54.421
126.815
221.06
328.601
446.933
571.999
691.302
795.121
865.931
886.455
852.788
768.834
645.899
496.921
333.311
166.092
10.158
-113.134
-192.039
-225.014
-219.38
-196.135
-166.608
-133.377
-102.056
-69.733
-39.745
-21.555
-13.015
-13.831
-22.24
-30.637
-39.355
-48.731
-56.939
-65.021
-71.27
-73.793
-72.755
-68.645
-63.078
-57.729
-53.501
-50.792
-49.582
-49.853
-51.715
-54.94
-59.001
-63.406
-67.663
-71.495
-74.84
-77.569
-79.525
-80.631
-80.859
-80.238
-78.849
-76.764
-74.044
-70.772
-67.031
-62.924
-58.571
-54.097
-49.65
-45.367
-41.368
-37.754
-34.594
-31.937
-29.818
-28.236
-27.163
-26.542
-26.282
-26.302
-26.541
-26.937
-27.429
-27.935
-28.345
-28.56
-28.505
-28.121
-27.378
-26.257
-24.738
-22.824
-20.548
-17.958
-15.128
-12.12
-8.962
-5.678
-2.296
1.138
4.544
7.839
10.959
13.864
16.526
18.931
21.063
22.934
24.591
26.103
27.557
29.022
30.535
32.118
33.807
35.663
37.768
40.226
43.124
46.536
50.539
55.201
60.568
66.644
73.383
80.699
88.492
96.679
105.198
113.992
122.986
132.09
141.2
150.187
158.911
167.222
174.931
181.855
187.845
192.799
196.663
199.425
201.086
201.643
201.102
199.468
196.756
192.984
188.158
182.318
175.547
167.966
159.751
151.086
142.128
133.017
123.874
114.789
105.843
97.104
88.606
80.395
72.522
65.052
58.08
51.665
45.82
40.526
35.719
31.326
27.284
23.514
19.926
16.454
13.045
9.673
6.342
3.048
-0.233
-3.534
-6.907
-10.386
-13.977
-17.674
-21.458
-25.297
-29.156
-32.981
-36.696
-40.244
-43.588
-46.706
-49.601
-52.27
-54.698
-56.874
-58.786
-60.425
-61.791
-62.884
-63.705
-64.261
-64.571
-64.661
-64.575
-64.343
-63.988
-63.529
-62.977
-62.342
-61.64
-60.88
-60.068
-59.212
-58.321
-57.406
-56.482
-55.559
-54.643
-53.739
-52.848
-51.973
-51.118
-50.287
-49.483
-48.71
-47.97
-47.269
-46.614
-46.006
-45.45
-44.945
-44.492
-44.091
-43.739
-43.437
-43.18
-42.967
-42.794
-42.659
-42.56
-42.492
-42.453
-42.438
-42.444
-42.466
-42.502
-42.545
-42.593
-42.639
-42.681
-42.715
-42.737
-42.744
-42.732
-42.7
-42.644
-42.563
-42.456
-42.319
-42.154
-41.957
-41.731
-41.474
-41.187
-40.872
-40.529
-40.161
-39.769
-39.355
-38.921
-38.471
-38.006
-37.529
-37.043
-36.55
-36.054
-35.557
-35.062
-34.573
-34.093
-33.624
-33.169
-32.733
-32.316
-31.924
-31.557
-31.219
-30.912
-30.638
-30.399
-30.196
-30.03
-29.902
-29.813
-29.763
-29.752
-29.78
-29.846
-29.949
-30.09
-30.267
-30.478
-30.722
-30.998
-31.305
-31.64
-32.002
-32.39
-32.801
-33.236
-33.691
-34.167
-34.661
-35.171
-35.696
-36.233
-36.78
-37.334
-37.894
-38.457
-39.021
-39.584
-40.146
-40.703
-41.256
-41.803
-42.342
-42.874
-43.397
-43.91
-44.413
-44.905
-45.385
-45.855
-46.314
-46.763
-47.2
-47.625
-48.038
-48.438
-48.822
-49.189
-49.537
-49.861
-50.161
-50.433
-50.676
-50.888
-51.069
-51.218
-51.335
-51.42
-51.472
-51.489
-51.469
-51.408
-51.301
-51.144
-50.933
-50.663
-50.332
-49.935
-49.471
-48.939
-48.338
-47.664
-46.911
-46.071
-45.14
-44.114
-42.998
-41.795
-40.517
-39.182
-37.807
-36.412
-35.014
-33.622
-32.238
-30.858
-29.476
-28.083
-26.681
-25.281
-23.89
-22.517
-21.164
-19.828
-18.497
-17.151
-15.763
-14.298
-12.74
-11.083
-9.348
-7.573
-5.805
-4.106
-2.521
-1.08
0.191
1.27
2.132
2.747
3.075
3.069
2.669
1.809
0.442
-1.452
-3.855
-6.713
-9.948
-13.465
-17.176
-21.011
-24.906
-28.804
-32.646
-36.369
-39.898
-43.156
-46.056
-48.501
-50.417
-51.769
-52.58
-52.919
-52.886
-52.592
-52.122
-51.572
-51.053
-50.676
-50.565
-50.829
-51.551
-52.86
-54.958
-57.945
-61.759
-66.127
-70.516
-74.408
-77.448
-79.226
-79.187
-77.004
-72.756
-67.053
-61.165
-56.267
-52.894
-51.408
-52.34
-55.856
-61.342
-67.175
-70.367
-67.791
-57.454
-37.437
-5.392
40.684
102.27
177.493
260.548
346.332
430.483
513.642
601.564
692.252
779.467
849.748
879.151
856.527
778.724
649.407
491.445
324.125
166.541
42.43
-41.616
-85.367
-96.379
-95.531
-94.178
-96.156
-100.941
-99.888
-90.751
-77.402
-63.461
-53.786
-50.114
-50.837
-54.486
-59.599
-64.453
-67.629
-68.366
-66.424
-62.158
-56.396
-49.855
-43.058
-36.692
-31.464
-27.743
-25.678
-25.171
-25.909
-27.642
-30.188
-33.313
-36.786
-40.421
-44.032
-47.473
-50.639
-53.404
-55.669
-57.381
-58.502
-59.028
-58.982
-58.398
-57.329
-55.844
-54.008
-51.883
-49.529
-47.001
-44.366
-41.695
-39.054
-36.506
-34.095
-31.848
-29.783
-27.905
-26.21
-24.684
-23.31
-22.06
-20.914
-19.858
-18.874
-17.95
-17.069
-16.214
-15.363
-14.497
-13.596
-12.642
-11.617
-10.505
-9.291
-7.961
-6.505
-4.916
-3.187
-1.31
0.728
2.937
5.333
7.926
10.717
13.712
16.911
20.307
23.89
27.639
31.525
35.523
39.62
43.803
48.073
52.424
56.848
61.342
65.898
70.511
75.18
79.898
84.647
89.427
94.243
99.115
104.086
109.173
114.372
119.669
125.03
130.417
135.787
141.082
146.228
151.161
155.819
160.154
164.137
167.72
170.843
173.433
175.395
176.664
177.205
176.995
176.029
174.324
171.904
168.827
165.181
161.038
156.459
151.491
146.167
140.531
134.646
128.58
122.412
116.208
110.016
103.877
97.829
91.889
86.067
80.344
74.677
69.041
63.425
57.827
52.26
46.73
41.238
35.784
30.372
25.005
19.691
14.436
9.246
4.132
-0.885
-5.777
-10.502
-15.031
-19.343
-23.425
-27.267
-30.865
-34.211
-37.306
-40.157
-42.766
-45.138
-47.278
-49.185
-50.866
-52.329
-53.587
-54.651
-55.536
-56.251
-56.809
-57.221
-57.497
-57.648
-57.684
-57.612
-57.441
-57.181
-56.842
-56.437
-55.975
-55.467
-54.923
-54.353
-53.767
-53.172
-52.578
-51.989
-51.413
-50.854
-50.317
-49.805
-49.322
-48.868
-48.447
-48.059
-47.704
-47.382
-47.094
-46.838
-46.614
-46.422
-46.258
-46.122
-46.012
-45.926
-45.861
-45.816
-45.786
-45.77
-45.766
-45.769
-45.777
-45.788
-45.799
-45.807
-45.81
-45.805
-45.791
-45.765
-45.726
-45.673
-45.606
-45.524
-45.428
-45.317
-45.193
-45.057
-44.91
-44.753
-44.587
-44.413
-44.233
-44.048
-43.859
-43.667
-43.474
-43.282
-43.093
-42.907
-42.727
-42.553
-42.389
-42.234
-42.09
-41.959
-41.84
-41.736
-41.646
-41.572
-41.514
-41.474
-41.452
-41.447
-41.46
-41.491
-41.539
-41.603
-41.683
-41.776
-41.883
-42.003
-42.133
-42.275
-42.426
-42.587
-42.757
-42.934
-43.12
-43.312
-43.511
-43.715
-43.924
-44.137
-44.355
-44.576
-44.802
-45.033
-45.268
-45.508
-45.753
-46.003
-46.259
-46.519
-46.786
-47.058
-47.337
-47.624
-47.92
-48.225
-48.541
-48.87
-49.213
-49.57
-49.943
-50.332
-50.737
-51.159
-51.598
-52.054
-52.528
-53.019
-53.526
-54.05
-54.589
-55.142
-55.708
-56.283
-56.866
-57.454
-58.045
-58.635
-59.221
-59.801
-60.371
-60.928
-61.469
-61.988
-62.481
-62.943
-63.37
-63.757
-64.096
-64.384
-64.615
-64.783
-64.883
-64.911
-64.86
-64.726
-64.505
-64.191
-63.781
-63.271
-62.657
-61.937
-61.109
-60.172
-59.126
-57.972
-56.711
-55.346
-53.879
-52.314
-50.656
-48.91
-47.082
-45.179
-43.209
-41.182
-39.11
-37.004
-34.878
-32.745
-30.622
-28.522
-26.462
-24.456
-22.518
-20.664
-18.908
-17.266
-15.752
-14.383
-13.174
-12.141
-11.296
-10.653
-10.221
-10.006
-10.011
-10.24
-10.697
-11.388
-12.321
-13.496
-14.919
-16.589
-18.501
-20.647
-23.001
-25.528
-28.192
-30.954
-33.774
-36.62
-39.453
-42.232
-44.917
-47.451
-49.783
-51.87
-53.661
-55.113
-56.201
-56.914
-57.29
-57.4
-57.322
-57.132
-56.89
-56.656
-56.529
-56.619
-57.035
-57.896
-59.274
-61.27
-64.074
-67.761
-72.246
-77.268
-82.287
-86.721
-90.164
-92.126
-91.961
-89.334
-84.264
-77.276
-69.674
-62.734
-57.264
-54.052
-53.914
-57.076
-62.93
-69.712
-74.218
-73.058
-63.216
-41.677
-5.442
48.161
118.832
202.857
295.6
391.237
488.263
589.987
693.245
790.376
867.561
903.662
888.344
822.472
713.024
574.794
421.516
264.094
118.011
1.715
-73.36
-104.116
-100.088
-82.36
-65.527
-56.08
-53.416
-50.008
-43.699
-36.661
-31.362
-31.431
-37.162
-46.193
-56.646
-66.276
-73.22
-76.967
-77.397
-74.784
-69.995
-63.884
-57.175
-50.702
-45.206
-41.059
-38.422
-37.241
-37.266
-38.29
-40.135
-42.587
-45.432
-48.471
-51.527
-54.473
-57.219
-59.685
-61.778
-63.402
-64.489
-65.005
-64.946
-64.345
-63.251
-61.717
-59.804
-57.586
-55.143
-52.582
-50.012
-47.513
-45.131
-42.881
-40.775
-38.844
-37.11
-35.585
-34.261
-33.113
-32.113
-31.245
-30.49
-29.817
-29.184
-28.531
-27.795
-26.941
-25.962
-24.872
-23.68
-22.386
-20.983
-19.47
-17.85
-16.13
-14.301
-12.348
-10.253
-8.005
-5.604
-3.061
-0.385
2.423
5.37
8.473
11.743
15.19
18.824
22.651
26.676
30.896
35.302
39.87
44.574
49.384
54.262
59.174
64.092
68.991
73.856
78.671
83.421
88.09
92.662
97.131
101.496
105.752
109.895
113.922
117.841
121.671
125.45
129.214
132.985
136.767
140.543
144.292
147.987
151.596
155.076
158.356
161.363
164.03
166.304
168.141
169.493
170.299
170.477
169.954
168.676
166.611
163.753
160.104
155.678
150.5
144.621
138.135
131.149
123.773
116.104
108.215
100.182
92.087
84.027
76.094
68.367
60.909
53.763
46.976
40.587
34.634
29.132
24.054
19.349
14.951
10.81
6.9
3.198
-0.318
-3.682
-6.917
-10.044
-13.071
-15.999
-18.842
-21.617
-24.351
-27.064
-29.743
-32.359
-34.868
-37.237
-39.449
-41.494
-43.366
-45.052
-46.55
-47.863
-49.008
-50
-50.846
-51.545
-52.089
-52.473
-52.703
-52.799
-52.784
-52.68
-52.502
-52.266
-51.984
-51.674
-51.348
-51.009
-50.657
-50.29
-49.912
-49.529
-49.151
-48.785
-48.435
-48.105
-47.796
-47.508
-47.244
-47.003
-46.782
-46.58
-46.394
-46.225
-46.074
-45.942
-45.829
-45.734
-45.656
-45.595
-45.548
-45.514
-45.49
-45.474
-45.462
-45.452
-45.444
-45.434
-45.421
-45.403
-45.38
-45.348
-45.307
-45.255
-45.192
-45.115
-45.024
-44.918
-44.798
-44.661
-44.51
-44.344
-44.163
-43.969
-43.762
-43.543
-43.312
-43.072
-42.822
-42.563
-42.298
-42.026
-41.749
-41.469
-41.187
-40.904
-40.623
-40.345
-40.071
-39.803
-39.543
-39.293
-39.054
-38.828
-38.615
-38.419
-38.239
-38.076
-37.932
-37.807
-37.701
-37.613
-37.545
-37.494
-37.462
-37.447
-37.449
-37.468
-37.501
-37.548
-37.609
-37.682
-37.766
-37.859
-37.962
-38.072
-38.19
-38.314
-38.443
-38.576
-38.713
-38.853
-38.994
-39.134
-39.274
-39.412
-39.547
-39.677
-39.803
-39.923
-40.039
-40.149
-40.254
-40.354
-40.451
-40.543
-40.633
-40.721
-40.808
-40.896
-40.985
-41.077
-41.173
-41.276
-41.386
-41.505
-41.635
-41.775
-41.926
-42.09
-42.266
-42.454
-42.655
-42.868
-43.093
-43.33
-43.578
-43.837
-44.106
-44.383
-44.667
-44.956
-45.248
-45.54
-45.831
-46.116
-46.393
-46.658
-46.908
-47.139
-47.347
-47.528
-47.677
-47.789
-47.859
-47.883
-47.855
-47.771
-47.627
-47.418
-47.14
-46.79
-46.365
-45.863
-45.282
-44.619
-43.874
-43.046
-42.136
-41.144
-40.071
-38.92
-37.695
-36.398
-35.035
-33.61
-32.13
-30.601
-29.032
-27.433
-25.813
-24.184
-22.558
-20.949
-19.369
-17.834
-16.355
-14.946
-13.619
-12.387
-11.263
-10.259
-9.389
-8.665
-8.1
-7.705
-7.492
-7.466
-7.633
-7.997
-8.558
-9.319
-10.286
-11.466
-12.862
-14.478
-16.316
-18.37
-20.633
-23.08
-25.677
-28.386
-31.165
-33.973
-36.775
-39.529
-42.193
-44.725
-47.069
-49.173
-50.99
-52.47
-53.575
-54.278
-54.574
-54.509
-54.159
-53.615
-52.975
-52.318
-51.723
-51.309
-51.191
-51.49
-52.348
-53.836
-56.03
-59.112
-63.117
-67.938
-73.359
-78.834
-83.739
-87.712
-90.315
-90.925
-89.309
-85.519
-79.901
-73.66
-68.067
-63.657
-60.802
-60.269
-62.283
-66.006
-70.284
-71.396
-63.381
-43.98
-12.68
30.045
77.539
127.465
184.735
253.08
342.294
459.177
595.186
735.257
856.771
933.654
950.751
906.396
807.487
668.788
511.028
350.327
203.472
88.695
11.171
-29.49
-41.37
-42.788
-42.785
-44.575
-48.188
-47.172
-41.312
-34.373
-28.888
-28.633
-34.439
-44.162
-56.089
-68.15
-77.945
-84.406
-87.183
-86.168
-82.035
-75.655
-67.725
-59.175
-51.063
-43.993
-38.278
-34.055
-31.141
-29.385
-28.707
-28.932
-29.894
-31.485
-33.623
-36.248
-39.314
-42.709
-46.289
-49.896
-53.368
-56.575
-59.407
-61.781
-63.664
-65.044
-65.933
-66.358
-66.332
-65.867
-64.965
-63.64
-61.924
-59.86
-57.502
-54.917
-52.182
-49.374
-46.578
-43.853
-41.232
-38.732
-36.354
-34.093
-31.952
-29.929
-28.026
-26.241
-24.571
-23.009
-21.545
-20.163
-18.836
-17.529
-16.199
-14.809
-13.335
-11.755
-10.056
-8.224
-6.247
-4.117
-1.827
0.628
3.259
6.073
9.08
12.286
15.694
19.301
23.102
27.089
31.257
35.596
40.098
44.751
49.544
54.465
59.503
64.644
69.871
75.164
80.504
85.868
91.234
96.578
101.874
107.098
112.224
117.227
122.084
126.77
131.261
135.534
139.567
143.336
146.823
150.006
152.867
155.389
157.556
159.354
160.771
161.797
162.425
162.648
162.463
161.867
160.862
159.449
157.632
155.417
152.812
149.827
146.474
142.766
138.72
134.353
129.684
124.732
119.519
114.068
108.401
102.542
96.516
90.347
84.062
77.684
71.241
64.758
58.259
51.771
45.318
38.923
32.609
26.399
20.313
14.37
8.589
2.986
-2.422
-7.621
-12.6
-17.345
-21.849
-26.102
-30.099
-33.834
-37.304
-40.509
-43.447
-46.12
-48.531
-50.685
-52.587
-54.243
-55.662
-56.851
-57.822
-58.585
-59.151
-59.533
-59.743
-59.794
-59.701
-59.475
-59.132
-58.684
-58.145
-57.528
-56.846
-56.111
-55.337
-54.534
-53.713
-52.886
-52.063
-51.252
-50.464
-49.704
-48.981
-48.302
-47.671
-47.093
-46.572
-46.112
-45.714
-45.379
-45.109
-44.904
-44.762
-44.682
-44.663
-44.701
-44.793
-44.936
-45.126
-45.359
-45.63
-45.935
-46.269
-46.628
-47.005
-47.397
-47.799
-48.205
-48.61
-49.01
-49.4
-49.774
-50.129
-50.46
-50.763
-51.034
-51.269
-51.465
-51.619
-51.729
-51.793
-51.81
-51.777
-51.696
-51.564
-51.383
-51.153
-50.875
-50.55
-50.181
-49.767
-49.313
-48.82
-48.291
-47.729
-47.136
-46.515
-45.869
-45.203
-44.518
-43.82
-43.111
-42.396
-41.68
-40.965
-40.257
-39.561
-38.879
-38.218
-37.58
-36.97
-36.391
-35.846
-35.339
-34.873
-34.449
-34.07
-33.737
-33.452
-33.215
-33.028
-32.89
-32.803
-32.764
-32.774
-32.833
-32.939
-33.091
-33.289
-33.531
-33.816
-34.141
-34.504
-34.904
-35.336
-35.798
-36.287
-36.798
-37.329
-37.875
-38.433
-39
-39.571
-40.144
-40.715
-41.282
-41.842
-42.393
-42.933
-43.461
-43.975
-44.474
-44.959
-45.428
-45.882
-46.322
-46.746
-47.157
-47.554
-47.938
-48.309
-48.669
-49.017
-49.356
-49.687
-50.011
-50.331
-50.65
-50.968
-51.29
-51.616
-51.95
-52.293
-52.647
-53.013
-53.392
-53.786
-54.193
-54.614
-55.048
-55.493
-55.948
-56.41
-56.876
-57.342
-57.804
-58.257
-58.698
-59.12
-59.52
-59.893
-60.234
-60.537
-60.798
-61.011
-61.171
-61.271
-61.305
-61.267
-61.151
-60.949
-60.657
-60.268
-59.777
-59.179
-58.471
-57.648
-56.708
-55.651
-54.474
-53.179
-51.767
-50.241
-48.605
-46.865
-45.027
-43.1
-41.091
-39.012
-36.874
-34.69
-32.473
-30.237
-27.997
-25.769
-23.567
-21.408
-19.306
-17.277
-15.338
-13.505
-11.796
-10.227
-8.819
-7.586
-6.546
-5.713
-5.098
-4.71
-4.556
-4.639
-4.967
-5.547
-6.389
-7.497
-8.877
-10.53
-12.451
-14.629
-17.042
-19.655
-22.433
-25.337
-28.331
-31.383
-34.458
-37.517
-40.517
-43.406
-46.127
-48.625
-50.845
-52.737
-54.266
-55.421
-56.231
-56.755
-57.062
-57.218
-57.269
-57.278
-57.332
-57.536
-58.01
-58.87
-60.208
-62.156
-64.919
-68.578
-73.048
-78.036
-82.988
-87.356
-90.768
-92.784
-92.808
-90.526
-86.057
-80.036
-73.777
-68.507
-64.798
-63.124
-64.152
-67.978
-73.799
-79.777
-82.666
-79.09
-66.797
-43.528
-6.522
46.21
115.441
198.953
290.964
385.666
479.286
571.708
664.232
753.576
830.337
878.36
881.806
835.093
744.619
628.255
505.556
389.029
283.675
187.861
101.082
26.44
-32.411
-72.09
-92.522
-96.958
-89.539
-74.672
-57.047
-40.81
-28.609
-21.803
-20.531
-23.898
-30.68
-39.551
-48.613
-55.908
-60.437
-61.885
-60.519
-57.104
-52.363
-46.95
-41.705
-37.451
-34.618
-33.344
-33.536
-34.906
-37.236
-40.351
-44.024
-48.018
-52.136
-56.217
-60.139
-63.811
-67.117
-69.927
-72.152
-73.738
-74.668
-74.963
-74.654
-73.784
-72.408
-70.598
-68.42
-65.94
-63.224
-60.33
-57.326
-54.278
-51.252
-48.312
-45.502
-42.853
-40.382
-38.093
-35.983
-34.045
-32.262
-30.614
-29.084
-27.657
-26.319
-25.057
-23.854
-22.693
-21.553
-20.415
-19.261
-18.075
-16.84
-15.542
-14.165
-12.698
-11.127
-9.443
-7.632
-5.681
-3.578
-1.31
1.134
3.763
6.586
9.611
12.84
16.277
19.921
23.77
27.82
32.064
36.495
41.103
45.876
50.801
55.863
61.045
66.329
71.696
77.124
82.593
88.078
93.557
99.005
104.397
109.709
114.914
119.988
124.905
129.64
134.169
138.468
142.513
146.283
149.755
152.911
155.732
158.203
160.308
162.037
163.378
164.324
164.869
165.009
164.742
164.07
162.994
161.519
159.653
157.403
154.78
151.797
148.468
144.809
140.835
136.567
132.023
127.224
122.192
116.948
111.517
105.923
100.189
94.34
88.403
82.402
76.361
70.306
64.26
58.246
52.288
46.406
40.622
34.953
29.419
24.036
18.82
13.784
8.94
4.3
-0.128
-4.336
-8.318
-12.07
-15.589
-18.874
-21.924
-24.74
-27.324
-29.679
-31.81
-33.721
-35.421
-36.915
-38.213
-39.323
-40.256
-41.021
-41.63
-42.093
-42.422
-42.628
-42.723
-42.717
-42.623
-42.452
-42.214
-41.92
-41.58
-41.203
-40.799
-40.375
-39.939
-39.496
-39.054
-38.616
-38.188
-37.773
-37.376
-36.999
-36.644
-36.314
-36.01
-35.733
-35.483
-35.26
-35.063
-34.891
-34.744
-34.619
-34.515
-34.43
-34.363
-34.31
-34.27
-34.24
-34.217
-34.198
-34.181
-34.163
-34.141
-34.114
-34.078
-34.034
-33.978
-33.912
-33.832
-33.741
-33.635
-33.517
-33.385
-33.239
-33.079
-32.907
-32.722
-32.526
-32.319
-32.102
-31.877
-31.644
-31.404
-31.159
-30.91
-30.656
-30.401
-30.143
-29.886
-29.63
-29.376
-29.126
-28.882
-28.646
-28.419
-28.201
-27.996
-27.802
-27.622
-27.456
-27.305
-27.17
-27.051
-26.949
-26.865
-26.799
-26.751
-26.722
-26.713
-26.722
-26.75
-26.797
-26.862
-26.946
-27.049
-27.171
-27.312
-27.472
-27.65
-27.848
-28.065
-28.299
-28.551
-28.819
-29.103
-29.401
-29.713
-30.037
-30.373
-30.718
-31.071
-31.431
-31.797
-32.166
-32.537
-32.908
-33.277
-33.642
-34.002
-34.356
-34.702
-35.038
-35.364
-35.677
-35.978
-36.265
-36.537
-36.792
-37.029
-37.248
-37.449
-37.629
-37.79
-37.931
-38.053
-38.155
-38.238
-38.303
-38.351
-38.384
-38.402
-38.408
-38.403
-38.389
-38.369
-38.345
-38.319
-38.294
-38.273
-38.257
-38.25
-38.252
-38.267
-38.296
-38.341
-38.403
-38.483
-38.583
-38.703
-38.844
-39.006
-39.188
-39.391
-39.613
-39.854
-40.111
-40.384
-40.669
-40.964
-41.266
-41.571
-41.875
-42.173
-42.461
-42.733
-42.983
-43.207
-43.398
-43.551
-43.658
-43.714
-43.714
-43.652
-43.521
-43.316
-43.033
-42.666
-42.211
-41.666
-41.027
-40.291
-39.458
-38.526
-37.495
-36.365
-35.139
-33.818
-32.405
-30.905
-29.322
-27.664
-25.937
-24.15
-22.314
-20.442
-18.545
-16.639
-14.737
-12.856
-11.01
-9.218
-7.492
-5.849
-4.304
-2.871
-1.565
-0.402
0.603
1.435
2.081
2.528
2.764
2.779
2.57
2.132
1.461
0.554
-0.599
-2.004
-3.664
-5.58
-7.751
-10.169
-12.819
-15.672
-18.686
-21.816
-25.014
-28.232
-31.429
-34.56
-37.573
-40.419
-43.037
-45.369
-47.37
-48.991
-50.193
-50.962
-51.303
-51.269
-50.954
-50.461
-49.892
-49.339
-48.894
-48.678
-48.819
-49.439
-50.657
-52.552
-55.216
-58.816
-63.406
-68.872
-74.933
-81.049
-86.639
-91.268
-94.396
-95.296
-93.506
-88.925
-81.917
-73.585
-65.017
-56.876
-49.946
-45.173
-43.014
-43.136
-44.102
-43.103
-37.206
-23.713
0.412
38.411
93.333
164.772
248.443
339.738
433.213
529.318
634.59
746.604
857.939
951.956
999.017
984.197
903.474
762.484
589.422
407.984
238.643
104.033
7.657
-52.027
-81.148
-97.327
-108.937
-118.534
-125.799
-123.237
-109.323
-88.028
-64.225
-44.403
-31.123
-23.275
-19.867
-19.791
-22.21
-26.883
-32.364
-36.715
-39.311
-40.287
-39.99
-38.934
-37.201
-34.478
-31.325
-28.877
-27.706
-28.075
-29.926
-32.87
-36.804
-41.89
-47.901
-54.297
-60.654
-66.578
-71.859
-76.531
-80.556
-83.804
-86.237
-87.863
-88.696
-88.808
-88.265
-87.089
-85.347
-83.132
-80.533
-77.664
-74.639
-71.544
-68.46
-65.444
-62.519
-59.705
-57.019
-54.475
-52.092
-49.879
-47.824
-45.915
-44.137
-42.464
-40.876
-39.344
-37.834
-36.317
-34.773
-33.186
-31.548
-29.857
-28.101
-26.274
-24.364
-22.362
-20.263
-18.059
-15.744
-13.31
-10.752
-8.066
-5.249
-2.297
0.798
4.041
7.435
10.982
14.681
18.53
22.524
26.658
30.92
35.301
39.789
44.378
49.065
53.842
58.693
63.596
68.524
73.452
78.356
83.206
87.967
92.612
97.115
101.465
105.664
109.707
113.577
117.253
120.697
123.883
126.802
129.451
131.834
133.959
135.834
137.483
138.956
140.286
141.486
142.544
143.411
144.054
144.456
144.603
144.499
144.139
143.489
142.518
141.189
139.458
137.278
134.58
131.261
127.238
122.469
116.951
110.733
103.865
96.384
88.337
79.774
70.757
61.376
51.727
41.905
32.027
22.211
12.592
3.338
-5.399
-13.504
-20.901
-27.563
-33.475
-38.62
-43.001
-46.64
-49.568
-51.845
-53.538
-54.714
-55.466
-55.885
-56.064
-56.116
-56.147
-56.241
-56.461
-56.844
-57.408
-58.171
-59.14
-60.305
-61.651
-63.146
-64.755
-66.438
-68.145
-69.831
-71.46
-72.991
-74.388
-75.627
-76.686
-77.559
-78.251
-78.765
-79.109
-79.295
-79.336
-79.255
-79.074
-78.82
-78.519
-78.196
-77.865
-77.541
-77.235
-76.955
-76.706
-76.491
-76.306
-76.149
-76.02
-75.919
-75.846
-75.796
-75.768
-75.755
-75.754
-75.763
-75.777
-75.796
-75.82
-75.847
-75.879
-75.917
-75.962
-76.016
-76.077
-76.146
-76.22
-76.297
-76.377
-76.458
-76.538
-76.616
-76.69
-76.761
-76.827
-76.889
-76.946
-76.996
-77.039
-77.074
-77.1
-77.117
-77.123
-77.118
-77.103
-77.076
-77.037
-76.985
-76.921
-76.844
-76.753
-76.647
-76.526
-76.391
-76.239
-76.073
-75.892
-75.697
-75.489
-75.269
-75.039
-74.801
-74.555
-74.305
-74.051
-73.795
-73.539
-73.285
-73.034
-72.788
-72.55
-72.321
-72.105
-71.902
-71.715
-71.547
-71.398
-71.272
-71.169
-71.091
-71.039
-71.016
-71.022
-71.059
-71.127
-71.227
-71.359
-71.524
-71.719
-71.945
-72.2
-72.482
-72.789
-73.118
-73.467
-73.834
-74.214
-74.606
-75.007
-75.414
-75.823
-76.232
-76.637
-77.035
-77.423
-77.799
-78.158
-78.5
-78.821
-79.119
-79.392
-79.639
-79.858
-80.048
-80.208
-80.336
-80.434
-80.501
-80.537
-80.545
-80.525
-80.481
-80.415
-80.331
-80.232
-80.122
-80.006
-79.887
-79.77
-79.659
-79.557
-79.47
-79.401
-79.355
-79.334
-79.342
-79.381
-79.456
-79.567
-79.715
-79.903
-80.131
-80.398
-80.703
-81.048
-81.429
-81.845
-82.294
-82.772
-83.277
-83.803
-84.345
-84.898
-85.454
-86.006
-86.546
-87.066
-87.558
-88.014
-88.423
-88.779
-89.071
-89.291
-89.431
-89.483
-89.437
-89.287
-89.026
-88.647
-88.146
-87.518
-86.76
-85.868
-84.842
-83.682
-82.386
-80.958
-79.398
-77.711
-75.901
-73.974
-71.938
-69.8
-67.572
-65.267
-62.897
-60.477
-58.025
-55.558
-53.092
-50.649
-48.245
-45.9
-43.633
-41.46
-39.402
-37.476
-35.702
-34.099
-32.684
-31.477
-30.492
-29.745
-29.246
-29.004
-29.024
-29.31
-29.868
-30.705
-31.83
-33.248
-34.96
-36.965
-39.259
-41.83
-44.65
-47.683
-50.886
-54.215
-57.627
-61.086
-64.552
-67.98
-71.323
-74.524
-77.525
-80.274
-82.72
-84.819
-86.539
-87.87
-88.849
-89.542
-90.034
-90.401
-90.703
-91.007
-91.406
-92.006
-92.925
-94.27
-96.128
-98.619
-101.921
-106.113
-111.106
-116.611
-122.102
-127.022
-130.94
-133.348
-133.572
-131.186
-126.252
-119.364
-111.722
-104.544
-98.533
-94.368
-93.017
-94.9
-99.324
-104.439
-107.207
-104.383
-93.367
-71.375
-35.092
18.099
87.853
170.767
262.487
358.977
460.221
567.456
676.094
775.653
849.182
879.884
860.888
796.585
701.703
592.958
481.596
372.901
266.783
164.046
69.487
-10.958
-71.923
-111.535
-131.615
-135.537
-127.504
-111.673
-92.588
-74.766
-61.077
-52.855
-50.246
-52.395
-58.115
-66.107
-74.424
-81.015
-84.83
-85.583
-83.575
-79.59
-74.357
-68.523
-62.932
-58.423
-55.432
-54.089
-54.28
-55.696
-58.1
-61.309
-65.086
-69.185
-73.4
-77.559
-81.528
-85.211
-88.49
-91.233
-93.352
-94.792
-95.536
-95.605
-95.034
-93.865
-92.158
-89.981
-87.4
-84.479
-81.283
-77.871
-74.311
-70.671
-67.015
-63.404
-59.884
-56.486
-53.226
-50.11
-47.136
-44.295
-41.573
-38.95
-36.413
-33.949
-31.545
-29.191
-26.875
-24.582
-22.301
-20.015
-17.713
-15.383
-13.013
-10.594
-8.117
-5.571
-2.949
-0.241
2.563
5.47
8.491
11.639
14.927
18.371
21.98
25.758
29.707
33.826
38.11
42.55
47.13
51.824
56.613
61.477
66.401
71.374
76.379
81.39
86.386
91.345
96.252
101.109
105.92
110.69
115.442
120.209
125.034
129.972
135.058
140.303
145.713
151.282
157.008
162.895
168.934
175.105
181.378
187.706
194.027
200.266
206.314
212.025
217.252
221.835
225.651
228.624
230.684
231.781
231.869
230.908
228.871
225.755
221.558
216.285
209.977
202.7
194.58
185.796
176.533
166.993
157.337
147.686
138.15
128.826
119.795
111.134
102.911
95.183
88.019
81.503
75.68
70.572
66.145
62.313
58.98
56.036
53.392
50.987
48.771
46.708
44.774
42.956
41.243
39.623
38.068
36.526
34.964
33.363
31.729
30.1
28.522
27.051
25.731
24.593
23.662
22.947
22.449
22.158
22.061
22.141
22.387
22.802
23.381
24.122
25.008
26.019
27.131
28.321
29.577
30.89
32.247
33.639
35.054
36.478
37.897
39.298
40.658
41.965
43.205
44.365
45.44
46.414
47.262
47.951
48.43
48.643
48.547
48.103
47.287
46.099
44.554
42.693
40.577
38.251
35.755
33.125
