Name
Date of Birth,"Mar 27, 1959"
Recorded Date,2020-02-27 22:49:04 -0500
Classification,Sinus Rhythm
Symptoms,
Software Version,1.52
Device,"Watch4,2"
Sample Rate,510.227 hertz


Lead,Lead I
Unit,µV

809.694
714.383
687.714
658.375
661.228
646.123
619.129
622.967
668.684
742.634
834.134
925.983
1000.181
1053.701
1090.415
1118.729
1149.278
1179.077
1194.737
1183.27
1131.644
1040.505
924.625
798.413
677.243
569.319
473.529
390.777
321.653
267.021
229.946
209.8
203.262
206.648
214.928
223.552
229.484
230.644
226.243
216.665
202.739
185.636
166.822
147.832
130.223
114.938
102.108
91.49
82.69
75.208
68.697
62.774
56.663
49.896
42.433
34.297
25.672
16.74
7.448
-2.241
-12.069
-21.865
-31.588
-41.198
-50.781
-60.396
-69.961
-79.404
-88.752
-98.052
-107.369
-116.771
-126.246
-135.777
-145.379
-155.051
-164.78
-174.524
-184.183
-193.653
-202.872
-211.8
-220.421
-228.732
-236.703
-244.306
-251.536
-258.392
-264.887
-271.031
-276.816
-282.242
-287.328
-292.115
-296.678
-301.088
-305.382
-309.585
-313.719
-317.792
-321.818
-325.805
-329.716
-333.518
-337.183
-340.683
-344.019
-347.193
-350.196
-353.024
-355.654
-358.057
-360.225
-362.143
-363.785
-365.139
-366.182
-366.893
-367.303
-367.434
-367.305
-366.949
-366.362
-365.539
-364.472
-363.134
-361.514
-359.629
-357.495
-355.143
-352.633
-350.021
-347.384
-344.82
-342.382
-340.121
-338.087
-336.306
-334.832
-333.733
-333.079
-332.962
-333.455
-334.6
-336.428
-338.955
-342.165
-346.031
-350.497
-355.473
-360.896
-366.715
-372.886
-379.384
-386.166
-393.173
-400.343
-407.603
-414.886
-422.144
-429.332
-436.411
-443.36
-450.171
-456.858
-463.461
-470.004
-476.492
-482.924
-489.285
-495.565
-501.763
-507.874
-513.891
-519.81
-525.622
-531.318
-536.896
-542.341
-547.634
-552.746
-557.639
-562.283
-566.657
-570.748
-574.549
-578.054
-581.258
-584.163
-586.775
-589.1
-591.145
-592.915
-594.414
-595.648
-596.631
-597.374
-597.893
-598.205
-598.322
-598.257
-598.023
-597.634
-597.1
-596.433
-595.64
-594.73
-593.714
-592.601
-591.403
-590.13
-588.792
-587.397
-585.956
-584.478
-582.969
-581.437
-579.888
-578.325
-576.754
-575.177
-573.596
-572.013
-570.427
-568.84
-567.249
-565.654
-564.052
-562.44
-560.815
-559.173
-557.512
-555.827
-554.114
-552.37
-550.591
-548.772
-546.912
-545.006
-543.053
-541.048
-538.989
-536.873
-534.697
-532.458
-530.155
-527.783
-525.342
-522.829
-520.243
-517.584
-514.851
-512.044
-509.163
-506.211
-503.189
-500.1
-496.945
-493.729
-490.455
-487.127
-483.749
-480.327
-476.865
-473.369
-469.844
-466.295
-462.728
-459.148
-455.561
-451.97
-448.382
-444.801
-441.231
-437.678
-434.146
-430.641
-427.166
-423.727
-420.328
-416.973
-413.668
-410.414
-407.217
-404.08
-401.005
-397.995
-395.052
-392.178
-389.376
-386.644
-383.985
-381.399
-378.885
-376.441
-374.067
-371.761
-369.52
-367.341
-365.223
-363.161
-361.152
-359.193
-357.279
-355.407
-353.573
-351.771
-349.998
-348.247
-346.513
-344.792
-343.076
-341.359
-339.637
-337.903
-336.15
-334.373
-332.567
-330.724
-328.839
-326.906
-324.919
-322.872
-320.76
-318.578
-316.32
-313.984
-311.565
-309.06
-306.468
-303.785
-301.01
-298.142
-295.181
-292.125
-288.976
-285.733
-282.399
-278.975
-275.463
-271.867
-268.19
-264.438
-260.615
-256.727
-252.779
-248.778
-244.73
-240.645
-236.528
-232.39
-228.238
-224.085
-219.94
-215.815
-211.724
-207.677
-203.688
-199.77
-195.935
-192.193
-188.556
-185.033
-181.634
-178.367
-175.241
-172.266
-169.449
-166.799
-164.322
-162.028
-159.922
-158.007
-156.284
-154.748
-153.399
-152.235
-151.262
-150.479
-149.886
-149.476
-149.245
-149.184
-149.281
-149.513
-149.837
-150.212
-150.593
-150.941
-151.228
-151.422
-151.485
-151.377
-151.047
-150.451
-149.559
-148.345
-146.782
-144.855
-142.56
-139.933
-137.069
-134.061
-131.007
-127.984
-125.029
-122.211
-119.626
-117.364
-115.541
-114.256
-113.547
-113.493
-114.212
-115.662
-117.687
-119.974
-121.943
-123.103
-123.063
-121.287
-117.354
-111.238
-103.175
-93.778
-84.04
-74.604
-66.03
-59.244
-54.684
-51.893
-49.697
-46.152
-39.069
-26.658
-6.756
23.617
66.76
122.213
186.762
256.576
329.022
405.792
490.081
579.159
663.278
725.359
747.911
723.311
656.353
563.057
460.956
361.947
270.364
183.689
101.28
26.291
-36.557
-81.687
-107.143
-114.747
-107.035
-87.412
-60.133
-29.312
0.816
26.509
45.855
57.998
62.172
58.491
48.289
33.536
16.937
1.194
-12.322
-22.79
-29.236
-31.316
-29.28
-23.758
-16.173
-8.109
-0.34
6.664
12.428
16.828
19.796
21.339
21.92
22.109
22.188
22.326
22.576
22.849
23.154
23.527
23.904
24.225
24.447
24.536
24.533
24.509
24.517
24.619
24.84
25.178
25.648
26.259
27.036
28.024
29.239
30.685
32.371
34.293
36.459
38.882
41.547
44.422
47.473
50.648
53.918
57.274
60.703
64.193
67.73
71.288
74.861
78.453
82.067
85.706
89.372
93.061
96.785
100.566
104.426
108.393
112.484
116.707
121.07
125.578
130.233
135.037
139.986
145.066
150.267
155.58
160.995
166.502
172.088
177.733
183.418
189.121
194.823
200.504
206.143
211.717
217.207
222.593
227.854
232.972
237.927
242.699
247.266
251.609
255.706
259.54
263.091
266.343
269.279
271.885
274.148
276.058
277.604
278.779
279.575
279.989
280.016
279.656
278.909
277.777
276.263
274.374
272.118
269.503
266.542
263.247
259.632
255.714
251.511
247.041
242.324
237.382
232.237
226.911
221.43
215.816
210.095
204.291
198.43
192.536
186.635
180.749
174.902
169.117
163.414
157.815
152.339
147.005
141.829
136.829
132.019
127.413
123.024
118.861
114.935
111.252
107.817
104.635
101.708
99.037
96.622
94.459
92.545
90.877
89.448
88.251
87.276
86.512
85.948
85.571
85.372
85.338
85.459
85.721
86.11
86.615
87.225
87.927
88.705
89.545
90.43
91.348
92.291
93.251
94.221
95.191
96.144
97.067
97.95
98.784
99.561
100.273
100.908
101.462
101.939
102.345
102.69
102.977
103.203
103.361
103.436
103.438
103.398
103.344
103.319
103.334
103.359
103.39
103.437
103.507
103.643
103.819
103.901
103.933
104.108
104.593
105.626
107.196
108.92
110.652
112.514
114.299
115.615
116.013
114.754
111.818
108.075
103.993
99.686
95.559
92.013
89.656
89.596
91.923
95.586
99.941
104.606
109.136
113.367
116.837
118.578
118.46
117.213
115.32
113.178
111.061
108.876
106.772
105.212
104.268
103.668
103.216
102.689
101.999
101.28
100.558
99.755
98.865
97.914
96.932
95.983
95.081
94.183
93.265
92.312
91.321
90.311
89.295
88.273
87.251
86.229
85.208
84.195
83.193
82.207
81.241
80.297
79.379
78.491
77.639
76.83
76.066
75.342
74.656
74.004
73.386
72.803
72.253
71.736
71.251
70.797
70.375
69.983
69.621
69.287
68.981
68.699
68.441
68.207
67.996
67.809
67.644
67.502
67.383
67.286
67.213
67.163
67.138
67.136
67.161
67.213
67.295
67.409
67.558
67.743
67.971
68.242
68.56
68.926
69.34
69.804
70.315
70.872
71.47
72.105
72.774
73.475
74.205
74.958
75.731
76.517
77.311
78.108
78.898
79.672
80.418
81.125
81.786
82.397
82.957
83.46
83.894
84.247
84.506
84.654
84.672
84.531
84.195
83.642
82.859
81.843
80.598
79.123
77.414
75.473
73.302
70.911
68.32
65.551
62.628
59.605
56.549
53.55
50.72
48.14
45.873
43.966
42.45
41.364
40.739
40.584
40.886
41.63
42.779
44.285
46.085
48.057
50.058
51.936
53.492
54.547
54.934
54.489
53.07
50.574
46.88
41.835
35.435
27.812
19.26
10.33
1.571
-6.571
-13.544
-18.667
-21.572
-22.271
-21.228
-19.678
-18.78
-19.195
-21.623
-26.61
-33.991
-42.905
-51.494
-56.452
-54.401
-42.585
-18.226
20.82
75.56
145.893
229.955
323.777
422.479
520.788
612.626
692.088
753.913
793.754
808.987
798.837
764.025
706.805
631.306
542.75
446.919
349.634
256.112
171.055
98.351
40.627
-1.389
-28.575
-42.848
-46.681
-42.741
-34.038
-23.682
-14.473
-8.055
-4.847
-4.62
-6.747
-10.472
-14.903
-18.91
-21.277
-21.407
-19.396
-15.648
-10.801
-5.464
-0.094
4.767
8.519
10.855
11.721
11.207
9.569
7.038
3.767
-0.035
-4.138
-8.362
-12.522
-16.463
-20.079
-23.248
-25.878
-27.917
-29.328
-30.105
-30.275
-29.872
-28.948
-27.575
-25.81
-23.716
-21.354
-18.782
-16.066
-13.274
-10.467
-7.702
-5.021
-2.445
0.007
2.329
4.527
6.609
8.593
10.502
12.349
14.146
15.906
17.637
19.354
21.071
22.801
24.56
26.361
28.216
30.137
32.135
34.221
36.4
38.678
41.058
43.547
46.15
48.879
51.739
54.733
57.86
61.119
64.502
68
71.6
75.277
79.011
82.777
86.554
90.324
94.07
97.778
101.431
105.01
108.503
111.913
115.251
118.529
121.766
124.972
128.167
131.384
134.656
138.008
141.459
145.013
148.668
152.419
156.266
160.2
164.189
168.174
172.067
175.769
179.189
182.24
184.829
186.842
188.162
188.692
188.36
187.109
184.904
181.698
177.436
172.093
165.681
158.255
149.924
140.812
131.036
120.721
110.007
99.059
88.063
77.172
66.504
56.163
46.242
36.852
28.127
20.166
13.024
6.722
1.229
-3.501
-7.504
-10.839
-13.591
-15.865
-17.791
-19.466
-20.947
-22.287
-23.534
-24.757
-26.046
-27.466
-29.051
-30.818
-32.76
-34.867
-37.136
-39.54
-42.027
-44.538
-47.002
-49.367
-51.617
-53.737
-55.713
-57.526
-59.146
-60.56
-61.771
-62.783
-63.603
-64.24
-64.694
-64.986
-65.145
-65.207
-65.208
-65.174
-65.12
-65.057
-64.996
-64.947
-64.919
-64.915
-64.932
-64.969
-65.03
-65.117
-65.235
-65.384
-65.559
-65.755
-65.966
-66.189
-66.422
-66.661
-66.903
-67.147
-67.392
-67.636
-67.882
-68.128
-68.371
-68.61
-68.84
-69.06
-69.267
-69.457
-69.629
-69.78
-69.909
-70.014
-70.095
-70.152
-70.183
-70.19
-70.171
-70.129
-70.062
-69.971
-69.857
-69.72
-69.563
-69.385
-69.188
-68.974
-68.744
-68.5
-68.245
-67.979
-67.705
-67.427
-67.145
-66.863
-66.584
-66.309
-66.043
-65.787
-65.545
-65.318
-65.11
-64.923
-64.76
-64.621
-64.51
-64.427
-64.374
-64.351
-64.36
-64.401
-64.475
-64.581
-64.72
-64.892
-65.096
-65.334
-65.603
-65.905
-66.238
-66.601
-66.994
-67.415
-67.863
-68.337
-68.834
-69.355
-69.897
-70.458
-71.039
-71.637
-72.251
-72.88
-73.522
-74.175
-74.838
-75.51
-76.188
-76.871
-77.558
-78.248
-78.938
-79.628
-80.316
-81.002
-81.685
-82.362
-83.032
-83.695
-84.349
-84.992
-85.623
-86.241
-86.845
-87.433
-88.004
-88.557
-89.09
-89.601
-90.087
-90.546
-90.975
-91.37
-91.729
-92.048
-92.324
-92.554
-92.736
-92.867
-92.943
-92.962
-92.921
-92.819
-92.651
-92.416
-92.111
-91.734
-91.284
-90.758
-90.157
-89.479
-88.723
-87.89
-86.978
-85.989
-84.923
-83.781
-82.564
-81.276
-79.92
-78.5
-77.022
-75.492
-73.918
-72.31
-70.678
-69.031
-67.382
-65.743
-64.124
-62.539
-60.998
-59.512
-58.093
-56.749
-55.493
-54.334
-53.284
-52.354
-51.556
-50.899
-50.393
-50.044
-49.856
-49.832
-49.975
-50.287
-50.777
-51.451
-52.314
-53.372
-54.628
-56.079
-57.719
-59.526
-61.465
-63.502
-65.596
-67.711
-69.817
-71.878
-73.859
-75.726
-77.429
-78.927
-80.184
-81.16
-81.823
-82.15
-82.139
-81.84
-81.334
-80.713
-80.066
-79.458
-78.954
-78.655
-78.668
-79.095
-80.054
-81.603
-83.831
-86.921
-90.924
-95.741
-101.116
-106.48
-111.212
-114.858
-116.85
-116.514
-113.587
-108.181
-100.863
-93.037
-86.1
-81.022
-78.935
-80.819
-86.625
-95.314
-104.954
-112.206
-113.278
-104.784
-82.931
-43.903
12.704
83.875
166.594
256.174
351.352
455.947
566.763
675.263
766.925
819.993
822.443
772.91
678.283
555.727
420.165
284.846
164.458
67.894
1.312
-35.599
-54.1
-64.805
-74.284
-84.337
-89.391
-85.842
-75.769
-63.407
-53.966
-50.159
-51.396
-56.211
-63.338
-71.821
-80.39
-87.53
-92.259
-94.26
-93.887
-91.859
-88.716
-84.899
-81.044
-77.815
-75.612
-74.559
-74.512
-75.18
-76.347
-77.85
-79.508
-81.128
-82.548
-83.649
-84.369
-84.694
-84.601
-84.067
-83.075
-81.634
-79.801
-77.669
-75.342
-72.919
-70.486
-68.125
-65.906
-63.888
-62.117
-60.624
-59.414
-58.477
-57.782
-57.283
-56.938
-56.701
-56.505
-56.272
-55.923
-55.389
-54.62
-53.579
-52.236
-50.572
-48.578
-46.254
-43.62
-40.705
-37.549
-34.203
-30.706
-27.088
-23.383
-19.622
-15.833
-12.041
-8.254
-4.47
-0.69
3.095
6.892
10.704
14.543
18.423
22.355
26.354
30.422
34.546
38.713
42.91
47.12
51.335
55.534
59.694
63.798
67.825
71.766
75.627
79.418
83.15
86.85
90.54
94.252
98.039
101.941
105.99
110.212
114.612
119.202
123.988
128.967
134.126
139.431
144.808
150.169
155.416
160.423
165.07
169.233
172.758
175.517
177.406
178.336
178.25
177.09
174.798
171.328
166.66
160.812
153.852
145.882
137.017
127.419
117.245
106.666
95.887
85.082
74.392
63.943
53.832
44.156
35.03
26.566
18.843
11.912
5.777
0.414
-4.213
-8.178
-11.568
-14.486
-17.065
-19.403
-21.572
-23.625
-25.596
-27.525
-29.469
-31.492
-33.63
-35.91
-38.339
-40.908
-43.608
-46.407
-49.258
-52.095
-54.842
-57.444
-59.872
-62.106
-64.138
-65.962
-67.561
-68.92
-70.037
-70.913
-71.55
-71.955
-72.129
-72.088
-71.857
-71.472
-70.972
-70.39
-69.744
-69.05
-68.321
-67.567
-66.799
-66.023
-65.241
-64.455
-63.671
-62.896
-62.136
-61.397
-60.679
-59.979
-59.293
-58.621
-57.962
-57.314
-56.677
-56.052
-55.438
-54.838
-54.255
-53.69
-53.145
-52.617
-52.107
-51.612
-51.131
-50.662
-50.204
-49.753
-49.308
-48.868
-48.431
-47.998
-47.566
-47.136
-46.708
-46.282
-45.858
-45.439
-45.023
-44.613
-44.21
-43.815
-43.43
-43.056
-42.694
-42.346
-42.012
-41.694
-41.393
-41.11
-40.844
-40.598
-40.37
-40.164
-39.978
-39.815
-39.674
-39.559
-39.468
-39.405
-39.37
-39.364
-39.388
-39.442
-39.526
-39.639
-39.78
-39.948
-40.14
-40.354
-40.589
-40.84
-41.105
-41.382
-41.669
-41.962
-42.26
-42.56
-42.861
-43.161
-43.459
-43.752
-44.04
-44.322
-44.596
-44.861
-45.117
-45.362
-45.594
-45.813
-46.016
-46.201
-46.367
-46.512
-46.634
-46.732
-46.805
-46.853
-46.877
-46.877
-46.856
-46.815
-46.757
-46.684
-46.599
-46.506
-46.405
-46.3
-46.193
-46.086
-45.98
-45.878
-45.78
-45.689
-45.605
-45.529
-45.463
-45.407
-45.363
-45.332
-45.315
-45.314
-45.331
-45.368
-45.428
-45.513
-45.625
-45.766
-45.937
-46.139
-46.37
-46.629
-46.913
-47.219
-47.542
-47.88
-48.227
-48.581
-48.938
-49.295
-49.65
-50.001
-50.342
-50.671
-50.982
-51.272
-51.533
-51.762
-51.951
-52.095
-52.188
-52.227
-52.206
-52.121
-51.963
-51.72
-51.386
-50.956
-50.429
-49.807
-49.094
-48.299
-47.435
-46.527
-45.595
-44.658
-43.732
-42.828
-41.955
-41.119
-40.328
-39.593
-38.916
-38.285
-37.686
-37.095
-36.486
-35.828
-35.08
-34.188
-33.106
-31.8
-30.246
-28.441
-26.388
-24.106
-21.617
-18.951
-16.151
-13.281
-10.417
-7.652
-5.084
-2.807
-0.921
0.459
1.238
1.344
0.727
-0.626
-2.699
-5.459
-8.855
-12.823
-17.285
-22.14
-27.263
-32.503
-37.704
-42.72
-47.411
-51.638
-55.284
-58.272
-60.556
-62.145
-63.084
-63.418
-63.225
-62.607
-61.689
-60.625
-59.587
-58.747
-58.319
-58.569
-59.643
-61.525
-64.028
-66.728
-69.197
-71.116
-72.081
-71.543
-69.233
-65.338
-60.51
-55.996
-53.003
-52.153
-53.902
-58.788
-66.784
-76.946
-87.404
-95.106
-96.65
-89.388
-71.091
-39.666
6.545
68.158
144.065
231.577
325.32
418.256
505.963
584.591
651.643
708.415
749.645
767.234
756.609
710.254
630.179
524.929
398.878
263.64
130.989
12.416
-73.804
-118.116
-121.775
-92.378
-48.762
-9.792
15.16
20.26
9.175
-6.78
-21.134
-28.378
-27.793
-25.73
-25.348
-27.816
-32.548
-35.989
-36.663
-34.97
-31.598
-27.802
-24.313
-21.361
-19.354
-18.581
-19.1
-20.812
-23.474
-26.893
-30.925
-35.437
-40.266
-45.21
-50.086
-54.755
-59.093
-62.982
-66.335
-69.09
-71.213
-72.705
-73.569
-73.828
-73.529
-72.713
-71.416
-69.669
-67.487
-64.913
-62.024
-58.89
-55.58
-52.151
-48.626
-45.032
-41.394
-37.73
-34.062
-30.395
-26.722
-23.064
-19.461
-15.964
-12.642
-9.529
-6.619
-3.93
-1.477
0.727
2.656
4.31
5.712
6.882
7.848
8.635
9.276
9.842
10.43
11.151
12.12
13.419
15.105
17.255
19.942
23.224
27.153
31.748
37
42.901
49.433
56.565
64.246
72.39
80.883
89.598
98.415
107.232
115.958
124.489
132.728
140.588
148
154.915
161.301
167.122
172.351
176.971
180.985
184.414
187.296
189.679
191.6
193.085
194.162
194.858
195.196
195.196
194.864
194.199
193.2
191.868
190.208
188.221
185.9
183.237
180.221
176.841
173.092
168.979
164.509
159.692
154.545
149.087
143.344
137.347
131.125
124.706
118.117
111.385
104.54
97.612
90.63
83.624
76.62
69.646
62.724
55.879
49.132
42.502
36.008
29.665
23.491
17.5
11.707
6.126
0.77
-4.351
-9.229
-13.854
-18.222
-22.329
-26.173
-29.754
-33.073
-36.134
-38.939
-41.495
-43.807
-45.883
-47.731
-49.359
-50.776
-51.993
-53.019
-53.864
-54.539
-55.054
-55.42
-55.649
-55.749
-55.733
-55.611
-55.393
-55.091
-54.714
-54.274
-53.781
-53.243
-52.67
-52.071
-51.453
-50.823
-50.189
-49.555
-48.926
-48.307
-47.702
-47.112
-46.541
-45.99
-45.461
-44.956
-44.474
-44.017
-43.584
-43.175
-42.791
-42.43
-42.092
-41.777
-41.483
-41.21
-40.955
-40.719
-40.5
-40.295
-40.102
-39.921
-39.748
-39.583
-39.422
-39.265
-39.109
-38.954
-38.799
-38.642
-38.483
-38.322
-38.157
-37.99
-37.819
-37.645
-37.469
-37.29
-37.109
-36.927
-36.744
-36.561
-36.379
-36.199
-36.02
-35.845
-35.672
-35.504
-35.341
-35.183
-35.032
-34.889
-34.755
-34.632
-34.52
-34.421
-34.337
-34.268
-34.215
-34.18
-34.163
-34.164
-34.184
-34.224
-34.284
-34.364
-34.464
-34.583
-34.722
-34.88
-35.055
-35.247
-35.455
-35.679
-35.916
-36.166
-36.429
-36.703
-36.987
-37.281
-37.584
-37.895
-38.212
-38.535
-38.862
-39.193
-39.525
-39.858
-40.191
-40.522
-40.851
-41.176
-41.498
-41.815
-42.126
-42.431
-42.73
-43.023
-43.31
-43.592
-43.869
-44.143
-44.415
-44.686
-44.957
-45.23
-45.506
-45.785
-46.069
-46.359
-46.655
-46.958
-47.27
-47.59
-47.921
-48.261
-48.613
-48.975
-49.349
-49.735
-50.131
-50.538
-50.956
-51.383
-51.821
-52.267
-52.721
-53.18
-53.644
-54.11
-54.575
-55.033
-55.482
-55.915
-56.328
-56.716
-57.076
-57.401
-57.689
-57.937
-58.143
-58.304
-58.414
-58.471
-58.467
-58.399
-58.259
-58.043
-57.744
-57.359
-56.882
-56.314
-55.655
-54.904
-54.06
-53.118
-52.072
-50.921
-49.666
-48.31
-46.859
-45.326
-43.726
-42.084
-40.43
-38.781
-37.155
-35.559
-33.994
-32.463
-30.967
-29.505
-28.088
-26.721
-25.405
-24.151
-22.958
-21.818
-20.713
-19.609
-18.464
-17.259
-15.99
-14.662
-13.307
-11.957
-10.652
-9.446
-8.38
-7.484
-6.794
-6.334
-6.13
-6.226
-6.67
-7.523
-8.856
-10.705
-13.079
-15.966
-19.315
-23.065
-27.139
-31.435
-35.864
-40.349
-44.813
-49.179
-53.373
-57.308
-60.898
-64.055
-66.696
-68.775
-70.284
-71.259
-71.755
-71.833
-71.58
-71.108
-70.545
-70.02
-69.654
-69.555
-69.861
-70.777
-72.42
-74.764
-77.62
-80.568
-83.148
-85
-85.733
-84.817
-81.955
-77.286
-71.39
-65.49
-60.894
-58.333
-58.332
-61.497
-67.917
-76.818
-86.533
-94.076
-95.93
-89.544
-72.884
-43.624
0.123
59.178
133.11
217.97
306.948
394.736
477.568
555.211
629.923
699.256
755.85
786.95
778.742
725.354
628.89
500.684
357.97
217.808
97.768
10.091
-41.207
-60.23
-60.551
-55.074
-51.152
-50.465
-47.986
-41.018
-31.33
-21.804
-16.6
-17.426
-22.92
-31.337
-40.863
-49.698
-56.572
-60.837
-62.226
-61.058
-58.101
-54.069
-49.594
-45.366
-41.994
-39.801
-38.922
-39.276
-40.622
-42.775
-45.57
-48.822
-52.35
-55.993
-59.622
-63.123
-66.404
-69.357
-71.867
-73.858
-75.285
-76.132
-76.41
-76.142
-75.363
-74.117
-72.465
-70.461
-68.158
-65.613
-62.876
-60.005
-57.058
-54.093
-51.16
-48.3
-45.535
-42.879
-40.336
-37.904
-35.575
-33.337
-31.171
-29.063
-26.998
-24.962
-22.941
-20.919
-18.878
-16.798
-14.662
-12.455
-10.164
-7.776
-5.277
-2.649
0.119
3.033
6.098
9.316
12.686
16.209
19.878
23.676
27.589
31.6
35.698
39.88
44.145
48.486
52.894
57.36
61.879
66.461
71.122
75.866
80.705
85.647
90.708
95.926
101.328
106.928
112.731
118.717
124.854
131.116
137.466
143.857
150.227
156.491
162.55
168.324
173.736
178.709
183.162
186.984
190.083
192.391
193.854
194.452
194.178
193.024
191.001
188.146
184.514
180.19
175.275
169.849
163.985
157.76
151.253
144.564
137.785
130.984
124.212
117.512
110.913
104.449
98.147
92.005
86.01
80.137
74.344
68.614
62.937
57.301
51.698
46.112
40.531
34.96
29.412
23.9
18.438
13.034
7.701
2.462
-2.655
-7.621
-12.403
-16.978
-21.333
-25.452
-29.327
-32.95
-36.316
-39.427
-42.292
-44.916
-47.303
-49.458
-51.385
-53.092
-54.591
-55.891
-57.004
-57.94
-58.709
-59.32
-59.782
-60.104
-60.294
-60.36
-60.308
-60.146
-59.882
-59.527
-59.089
-58.577
-58.001
-57.369
-56.69
-55.972
-55.221
-54.445
-53.651
-52.843
-52.029
-51.213
-50.401
-49.599
-48.81
-48.04
-47.292
-46.57
-45.877
-45.217
-44.593
-44.007
-43.462
-42.96
-42.504
-42.094
-41.733
-41.421
-41.158
-40.944
-40.778
-40.661
-40.59
-40.564
-40.581
-40.64
-40.737
-40.871
-41.039
-41.238
-41.464
-41.715
-41.986
-42.275
-42.575
-42.885
-43.199
-43.514
-43.826
-44.13
-44.422
-44.699
-44.956
-45.191
-45.399
-45.578
-45.724
-45.836
-45.91
-45.946
-45.943
-45.9
-45.816
-45.692
-45.529
-45.327
-45.087
-44.812
-44.503
-44.162
-43.794
-43.4
-42.985
-42.553
-42.107
-41.654
-41.197
-40.742
-40.293
-39.856
-39.435
-39.036
-38.664
-38.323
-38.018
-37.754
-37.533
-37.36
-37.238
-37.168
-37.153
-37.195
-37.293
-37.448
-37.661
-37.93
-38.255
-38.634
-39.065
-39.545
-40.074
-40.646
-41.26
-41.911
-42.595
-43.307
-44.044
-44.8
-45.571
-46.351
-47.136
-47.92
-48.699
-49.467
-50.221
-50.955
-51.665
-52.348
-52.999
-53.617
-54.198
-54.741
-55.244
-55.706
-56.127
-56.507
-56.846
-57.145
-57.404
-57.624
-57.807
-57.955
-58.068
-58.148
-58.198
-58.22
-58.214
-58.184
-58.131
-58.057
-57.963
-57.851
-57.722
-57.578
-57.418
-57.244
-57.057
-56.855
-56.639
-56.409
-56.162
-55.898
-55.615
-55.31
-54.981
-54.623
-54.235
-53.812
-53.35
-52.846
-52.297
-51.699
-51.048
-50.343
-49.579
-48.755
-47.87
-46.92
-45.906
-44.828
-43.686
-42.481
-41.216
-39.893
-38.518
-37.095
-35.632
-34.134
-32.612
-31.073
-29.528
-27.989
-26.466
-24.97
-23.513
-22.106
-20.761
-19.492
-18.309
-17.225
-16.253
-15.407
-14.702
-14.149
-13.758
-13.537
-13.492
-13.629
-13.954
-14.476
-15.203
-16.139
-17.288
-18.654
-20.238
-22.034
-24.025
-26.176
-28.45
-30.807
-33.209
-35.625
-38.019
-40.352
-42.585
-44.672
-46.57
-48.244
-49.656
-50.768
-51.558
-52.015
-52.169
-52.111
-51.937
-51.749
-51.644
-51.672
-51.909
-52.464
-53.433
-54.925
-57.046
-59.826
-63.359
-67.829
-73.237
-79.44
-86.086
-92.457
-97.883
-101.908
-103.915
-103.261
-99.777
-93.59
-85.454
-76.993
-69.548
-63.984
-61.319
-62.218
-66.301
-72.47
-78.372
-80.257
-74.579
-58.215
-27.804
19.677
84.076
162.377
250.823
343.556
438.93
540.229
644.024
742.539
821.831
860.38
847.415
783.954
677.979
545.514
400.818
254.021
117.784
6.938
-68.741
-105.51
-109.815
-98.518
-83.952
-72.559
-65.257
-56.675
-45.831
-35.085
-26.664
-23.917
-27.18
-34.244
-43.321
-52.17
-58.774
-62.478
-63.062
-60.701
-56.207
-50.433
-44.123
-38.12
-33.189
-29.693
-27.762
-27.342
-28.18
-30.065
-32.812
-36.196
-39.994
-44.025
-48.145
-52.221
-56.144
-59.781
-62.988
-65.667
-67.756
-69.229
-70.088
-70.351
-70.045
-69.212
-67.91
-66.194
-64.117
-61.734
-59.096
-56.265
-53.305
-50.278
-47.242
-44.24
-41.297
-38.428
-35.635
-32.913
-30.254
-27.643
-25.063
-22.501
-19.948
-17.394
-14.834
-12.26
-9.661
-7.024
-4.338
-1.593
1.221
4.111
7.085
10.149
13.309
16.569
19.928
23.39
26.959
30.642
34.449
38.387
42.452
46.641
50.948
55.365
59.879
64.47
69.106
73.758
78.406
83.038
87.653
92.243
96.802
101.316
105.776
110.182
114.538
118.843
123.09
127.274
131.397
135.481
139.569
143.692
147.857
152.049
156.236
160.384
164.459
168.425
172.225
175.789
179.052
181.972
184.529
186.705
188.462
189.734
190.429
190.468
189.805
188.418
186.297
183.44
179.86
175.585
170.68
165.234
159.307
152.935
146.118
138.851
131.166
123.127
114.82
106.338
97.755
89.145
80.594
72.179
63.953
55.953
48.17
40.585
33.212
26.088
19.278
12.866
6.896
1.387
-3.65
-8.226
-12.36
-16.085
-19.471
-22.581
-25.452
-28.107
-30.541
-32.739
-34.718
-36.502
-38.129
-39.658
-41.126
-42.56
-43.992
-45.432
-46.879
-48.312
-49.683
-50.95
-52.088
-53.084
-53.942
-54.67
-55.268
-55.737
-56.08
-56.291
-56.366
-56.305
-56.101
-55.758
-55.29
-54.718
-54.075
-53.394
-52.697
-52.002
-51.323
-50.667
-50.042
-49.453
-48.897
-48.375
-47.889
-47.441
-47.037
-46.677
-46.361
-46.087
-45.849
-45.642
-45.461
-45.303
-45.162
-45.035
-44.921
-44.816
-44.72
-44.633
-44.553
-44.476
-44.401
-44.323
-44.239
-44.145
-44.037
-43.91
-43.762
-43.59
-43.39
-43.162
-42.904
-42.615
-42.294
-41.943
-41.561
-41.149
-40.709
-40.241
-39.746
-39.227
-38.686
-38.125
-37.547
-36.955
-36.353
-35.743
-35.129
-34.515
-33.904
-33.299
-32.705
-32.124
-31.56
-31.017
-30.498
-30.009
-29.552
-29.131
-28.751
-28.414
-28.122
-27.879
-27.685
-27.542
-27.451
-27.411
-27.424
-27.489
-27.605
-27.773
-27.991
-28.259
-28.573
-28.934
-29.338
-29.783
-30.266
-30.786
-31.338
-31.92
-32.53
-33.164
-33.82
-34.495
-35.185
-35.889
-36.602
-37.321
-38.043
-38.765
-39.484
-40.198
-40.904
-41.601
-42.287
-42.962
-43.623
-44.271
-44.905
-45.524
-46.128
-46.717
-47.291
-47.849
-48.394
-48.923
-49.439
-49.942
-50.431
-50.908
-51.372
-51.823
-52.262
-52.688
-53.099
-53.497
-53.88
-54.248
-54.601
-54.937
-55.257
-55.558
-55.841
-56.102
-56.34
-56.553
-56.738
-56.891
-57.01
-57.091
-57.132
-57.127
-57.074
-56.969
-56.808
-56.588
-56.304
-55.954
-55.534
-55.042
-54.475
-53.831
-53.109
-52.308
-51.428
-50.47
-49.434
-48.322
-47.137
-45.88
-44.554
-43.164
-41.713
-40.206
-38.651
-37.055
-35.427
-33.778
-32.118
-30.46
-28.816
-27.198
-25.62
-24.091
-22.625
-21.234
-19.93
-18.726
-17.638
-16.678
-15.858
-15.189
-14.681
-14.342
-14.176
-14.185
-14.372
-14.738
-15.295
-16.051
-17.015
-18.194
-19.591
-21.203
-23.022
-25.034
-27.215
-29.536
-31.967
-34.477
-37.04
-39.629
-42.213
-44.755
-47.199
-49.486
-51.56
-53.37
-54.872
-56.046
-56.891
-57.424
-57.702
-57.778
-57.696
-57.522
-57.324
-57.188
-57.22
-57.526
-58.206
-59.411
-61.348
-64.124
-67.698
-71.852
-76.144
-80.131
-83.492
-85.859
-86.701
-85.72
-83.049
-79.248
-75.5
-72.979
-72.21
-73.55
-77.541
-84.247
-92.94
-102.054
-108.704
-109.605
-102.56
-85.792
-56.975
-14.159
43.351
115.165
197.69
284.436
371.778
457.09
538.149
615.861
684.245
732.008
749.828
727.19
664.293
573.585
467.339
359.82
259.889
167.465
84.57
13.629
-43.092
-81.72
-101.767
-106.007
-98.277
-83.133
-65.333
-49.002
-36.844
-30.378
-29.985
-34.837
-43.533
-54.599
-66.027
-75.777
-82.8
-86.655
-87.417
-85.724
-82.234
-77.551
-72.5
-67.906
-64.18
-61.488
-59.79
-58.861
-58.576
-58.857
-59.572
-60.572
-61.726
-62.933
-64.135
-65.308
-66.392
-67.318
-68.027
-68.476
-68.68
-68.672
-68.483
-68.134
-67.624
-66.942
-66.071
-65.01
-63.772
-62.371
-60.828
-59.165
-57.409
-55.584
-53.713
-51.801
-49.823
-47.751
-45.56
-43.239
-40.794
-38.248
-35.629
-32.96
-30.258
-27.536
-24.796
-22.04
-19.26
-16.444
-13.582
-10.668
-7.712
-4.719
-1.696
1.361
4.461
7.624
10.874
14.231
17.715
21.343
25.125
29.066
33.167
37.424
41.826
46.366
51.04
55.842
60.765
65.801
70.935
76.156
81.446
86.788
92.16
97.541
102.907
108.233
113.498
118.678
123.749
128.689
133.471
138.073
142.475
146.653
150.586
154.247
157.608
160.647
163.347
165.693
167.674
169.279
170.503
171.352
171.84
171.983
171.789
171.256
170.377
169.148
167.568
165.636
163.354
160.712
157.699
154.31
150.548
146.415
141.904
136.993
131.64
125.815
119.511
112.743
105.544
97.946
89.991
81.73
73.233
64.591
55.89
47.2
38.576
30.072
21.76
13.73
6.095
-1.054
-7.656
-13.671
-19.077
-23.858
-28.011
-31.564
-34.57
-37.112
-39.26
-41.059
-42.543
-43.743
-44.707
-45.499
-46.197
-46.857
-47.519
-48.214
-48.965
-49.795
-50.712
-51.701
-52.72
-53.714
-54.642
-55.484
-56.232
-56.88
-57.416
-57.823
-58.085
-58.202
-58.173
-58.001
-57.686
-57.227
-56.631
-55.918
-55.119
-54.271
-53.399
-52.519
-51.643
-50.78
-49.937
-49.123
-48.339
-47.579
-46.842
-46.128
-45.437
-44.773
-44.135
-43.521
-42.926
-42.343
-41.77
-41.206
-40.647
-40.093
-39.544
-38.999
-38.461
-37.935
-37.421
-36.923
-36.44
-35.973
-35.523
-35.09
-34.674
-34.275
-33.893
-33.529
-33.183
-32.858
-32.555
-32.275
-32.02
-31.793
-31.596
-31.43
-31.296
-31.197
-31.133
-31.105
-31.114
-31.159
-31.24
-31.358
-31.511
-31.697
-31.917
-32.166
-32.444
-32.745
-33.069
-33.41
-33.765
-34.132
-34.505
-34.883
-35.263
-35.642
-36.017
-36.388
-36.75
-37.103
-37.444
-37.769
-38.078
-38.366
-38.634
-38.877
-39.096
-39.288
-39.453
-39.591
-39.702
-39.787
-39.846
-39.88
-39.891
-39.88
-39.851
-39.805
-39.748
-39.682
-39.614
-39.548
-39.489
-39.443
-39.414
-39.407
-39.425
-39.472
-39.549
-39.657
-39.798
-39.974
-40.185
-40.433
-40.719
-41.043
-41.408
-41.816
-42.266
-42.757
-43.287
-43.852
-44.445
-45.063
-45.699
-46.345
-46.994
-47.637
-48.269
-48.885
-49.478
-50.038
-50.554
-51.008
-51.389
-51.691
-51.905
-52.026
-52.053
-51.988
-51.841
-51.636
-51.383
-51.087
-50.746
-50.35
-49.887
-49.355
-48.743
-48.044
-47.249
-46.345
-45.325
-44.195
-42.943
-41.552
-39.99
-38.205
-36.168
-33.876
-31.337
-28.577
-25.63
-22.532
-19.338
-16.122
-12.949
-9.883
-6.973
-4.25
-1.767
0.413
2.213
3.541
4.33
4.548
4.17
3.18
1.585
-0.598
-3.32
-6.5
-10.065
-13.952
-18.099
-22.453
-26.942
-31.48
-35.977
-40.343
-44.497
-48.385
-51.946
-55.11
-57.829
-60.07
-61.823
-63.109
-63.957
-64.403
-64.502
-64.339
-63.998
-63.558
-63.101
-62.71
-62.481
-62.515
-62.921
-63.794
-65.258
-67.496
-70.601
-74.516
-79.002
-83.552
-87.586
-90.61
-92.085
-91.362
-88.103
-82.423
-74.952
-67.179
-60.732
-56.77
-56.355
-60.393
-68.986
-81.29
-95.346
-107.45
-113.355
-109.444
-92.187
-58.62
-7.037
62.897
149.666
249.196
355.741
463.174
564.726
653.402
722.696
767.262
783.172
769.814
730.383
667.267
583.411
481.465
361.435
231.204
104.558
-5.076
-82.412
-124.229
-139.863
-138.39
-130.709
-121.638
-107.784
-89.188
-67.651
-46.04
-29.108
-18.46
-13.567
-13.748
-17.812
-24.659
-32.611
-39.638
-44.708
-47.717
-48.987
-49.016
-47.901
-45.45
-42.28
-39.487
-37.678
-37.12
-37.739
-39.183
-41.407
-44.619
-48.652
-53.056
-57.467
-61.541
-65.118
-68.232
-70.827
-72.784
-74.067
-74.696
-74.729
-74.258
-73.344
-72.006
-70.278
-68.204
-65.837
-63.243
-60.488
-57.631
-54.725
-51.809
-48.904
-46.007
-43.12
-40.242
-37.369
-34.499
-31.626
-28.741
-25.845
-22.946
-20.05
-17.164
-14.289
-11.413
-8.541
-5.687
-2.884
-0.19
2.356
4.737
6.939
8.962
10.809
12.479
14.007
15.451
16.864
18.307
19.827
21.452
23.231
25.221
27.49
30.138
33.225
36.788
40.865
45.482
50.66
56.421
62.726
69.49
76.633
84.063
91.694
99.456
107.24
114.941
122.455
129.661
136.474
142.825
148.631
153.809
158.282
161.966
164.838
166.921
168.233
168.812
168.702
167.945
166.624
164.819
162.589
159.989
157.058
153.824
150.337
146.652
142.819
138.901
134.931
130.917
126.873
122.798
118.677
114.494
110.205
105.769
101.173
96.413
91.496
86.437
81.24
75.908
70.452
64.874
59.181
53.39
47.508
41.556
35.562
29.558
23.589
17.697
11.91
6.251
0.737
-4.617
-9.799
-14.798
-19.61
-24.228
-28.642
-32.845
-36.827
-40.582
-44.107
-47.403
-50.473
-53.323
-55.954
-58.373
-60.583
-62.589
-64.394
-66.002
-67.417
-68.641
-69.681
-70.545
-71.241
-71.778
-72.165
-72.414
-72.535
-72.537
-72.432
-72.229
-71.936
-71.564
-71.119
-70.612
-70.05
-69.44
-68.792
-68.112
-67.408
-66.687
-65.954
-65.215
-64.476
-63.742
-63.016
-62.302
-61.604
-60.925
-60.267
-59.634
-59.027
-58.448
-57.899
-57.38
-56.891
-56.432
-56.002
-55.599
-55.222
-54.869
-54.537
-54.224
-53.929
-53.648
-53.381
-53.125
-52.877
-52.637
-52.401
-52.168
-51.935
-51.702
-51.465
-51.225
-50.979
-50.727
-50.468
-50.201
-49.928
-49.646
-49.357
-49.06
-48.755
-48.443
-48.123
-47.798
-47.466
-47.131
-46.792
-46.454
-46.117
-45.784
-45.458
-45.141
-44.836
-44.547
-44.276
-44.026
-43.802
-43.605
-43.441
-43.312
-43.222
-43.174
-43.171
-43.216
-43.312
-43.459
-43.66
-43.915
-44.224
-44.589
-45.009
-45.482
-46.009
-46.588
-47.217
-47.893
-48.615
-49.379
-50.182
-51.019
-51.886
-52.778
-53.69
-54.616
-55.549
-56.482
-57.409
-58.321
-59.209
-60.067
-60.884
-61.651
-62.359
-62.999
-63.562
-64.039
-64.421
-64.702
-64.873
-64.928
-64.863
-64.672
-64.353
-63.902
-63.317
-62.598
-61.745
-60.76
-59.645
-58.402
-57.036
-55.552
-53.957
-52.257
-50.462
-48.58
-46.624
-44.608
-42.545
-40.451
-38.344
-36.241
-34.162
-32.126
-30.15
-28.253
-26.453
-24.765
-23.209
-21.801
-20.558
-19.496
-18.629
-17.97
-17.53
-17.317
-17.332
-17.577
-18.051
-18.754
-19.694
-20.874
-22.299
-23.971
-25.892
-28.056
-30.45
-33.052
-35.824
-38.73
-41.726
-44.772
-47.832
-50.866
-53.833
-56.682
-59.356
-61.798
-63.951
-65.765
-67.182
-68.174
-68.746
-68.936
-68.826
-68.492
-67.986
-67.382
-66.774
-66.264
-65.954
-65.941
-66.267
-67.033
-68.46
-70.648
-73.57
-77.062
-80.674
-83.948
-86.569
-88.029
-87.606
-84.966
-80.185
-73.653
-66.46
-59.818
-54.573
-51.993
-53.795
-59.297
-65.415
-69.507
-67.739
-60.623
-54.712
-50.578
-45.064
-29.11
15.614
97.735
216.905
365.339
522.163
670.282
793.89
878.307
918.963
909.073
849.108
746.121
603.983
439.353
270.477
115.632
-0.381
-69.231
-94.198
-86.949
-70.098
-55.988
-47.902
-44.388
-38.354
-28.922
-19.515
-13.039
-12.961
-19.365
-29.663
-41.822
-53.513
-62.678
-68.628
-71.118
-70.296
-66.95
-61.92
-55.951
-49.937
-44.717
-40.709
-38.084
-36.819
-36.682
-37.5
-39.133
-41.375
-44.021
-46.902
-49.878
-52.849
-55.738
-58.435
-60.808
-62.74
-64.148
-65
-65.294
-65.044
-64.272
-63.006
-61.29
-59.183
-56.74
-54.019
-51.071
-47.947
-44.709
-41.425
-38.162
-34.98
-31.914
-28.98
-26.182
-23.519
-20.981
-18.553
-16.208
-13.923
-11.684
-9.492
-7.347
-5.244
-3.165
-1.083
1.032
3.203
5.437
7.742
10.126
12.593
15.136
17.735
20.355
22.976
25.601
28.253
30.96
33.735
36.582
39.499
42.485
45.544
48.687
51.922
55.25
58.689
62.271
66.052
70.108
74.499
79.251
84.374
89.864
95.714
101.919
108.461
115.306
122.417
129.747
137.254
144.895
152.6
160.273
167.795
175.018
181.799
188.015
193.545
198.281
202.137
205.038
206.941
207.831
207.701
206.548
204.375
201.188
197.019
191.935
186.011
179.35
172.064
164.271
156.11
147.727
139.244
130.761
122.352
114.059
105.924
97.992
90.3
82.885
75.768
68.955
62.455
56.278
50.421
44.862
39.551
34.413
29.394
24.464
19.607
14.827
10.128
5.507
0.97
-3.472
-7.804
-12.015
-16.105
-20.088
-23.976
-27.763
-31.421
-34.904
-38.174
-41.215
-44.017
-46.578
-48.894
-50.961
-52.787
-54.391
-55.79
-56.999
-58.02
-58.848
-59.479
-59.918
-60.183
-60.298
-60.287
-60.166
-59.95
-59.654
-59.295
-58.889
-58.445
-57.963
-57.445
-56.897
-56.327
-55.746
-55.165
-54.59
-54.026
-53.476
-52.942
-52.429
-51.937
-51.467
-51.016
-50.583
-50.17
-49.779
-49.411
-49.065
-48.742
-48.439
-48.156
-47.893
-47.648
-47.419
-47.204
-47
-46.808
-46.626
-46.453
-46.29
-46.135
-45.987
-45.847
-45.713
-45.586
-45.464
-45.346
-45.233
-45.123
-45.016
-44.913
-44.812
-44.715
-44.621
-44.531
-44.446
-44.365
-44.291
-44.222
-44.162
-44.11
-44.067
-44.035
-44.014
-44.006
-44.01
-44.028
-44.06
-44.106
-44.165
-44.238
-44.324
-44.422
-44.533
-44.655
-44.788
-44.931
-45.085
-45.248
-45.421
-45.603
-45.793
-45.992
-46.2
-46.416
-46.639
-46.871
-47.11
-47.357
-47.611
-47.873
-48.141
-48.414
-48.694
-48.978
-49.268
-49.561
-49.858
-50.16
-50.465
-50.774
-51.086
-51.402
-51.722
-52.044
-52.369
-52.695
-53.022
-53.349
-53.674
-53.995
-54.312
-54.622
-54.924
-55.215
-55.493
-55.755
-55.998
-56.22
-56.418
-56.587
-56.724
-56.826
-56.89
-56.912
-56.89
-56.819
-56.696
-56.519
-56.283
-55.987
-55.626
-55.199
-54.701
-54.132
-53.489
-52.772
-51.98
-51.113
-50.17
-49.154
-48.066
-46.908
-45.683
-44.393
-43.044
-41.638
-40.183
-38.684
-37.147
-35.58
-33.992
-32.394
-30.796
-29.211
-27.652
-26.13
-24.661
-23.257
-21.933
-20.699
-19.567
-18.547
-17.649
-16.885
-16.266
-15.802
-15.504
-15.381
-15.44
-15.689
-16.133
-16.769
-17.596
-18.612
-19.816
-21.217
-22.82
-24.629
-26.646
-28.87
-31.294
-33.901
-36.663
-39.536
-42.473
-45.427
-48.35
-51.205
-53.951
-56.547
-58.944
-61.083
-62.912
-64.383
-65.456
-66.092
-66.279
-66.044
-65.446
-64.593
-63.592
-62.529
-61.5
-60.617
-59.998
-59.771
-60.07
-60.985
-62.626
-65.183
-68.721
-73.177
-78.327
-83.642
-88.522
-92.464
-94.876
-95.05
-92.67
-87.815
-80.958
-73.4
-66.515
-61.272
-58.787
-60.076
-65.132
-72.933
-81.65
-87.99
-88.109
-78.665
-55.915
-16.003
41.924
115.312
201.165
294.684
392.728
497.691
607.896
715.458
809.599
872.244
886.62
848.744
759.939
628.025
472.368
309.925
160.02
46.021
-24.319
-52.434
-49.414
-37.813
-30.192
-30.45
-36.865
-41.078
-40.968
-39.129
-38.181
-41.866
-50.666
-62.328
-75.171
-87.236
-96.713
-103.058
-106.08
-105.859
-103.092
-98.519
-92.734
-86.488
-80.56
-75.385
-71.193
-68.041
-65.751
-64.174
-63.202
-62.663
-62.386
-62.233
-62.091
-61.893
-61.612
-61.224
-60.704
-60.04
-59.232
-58.28
-57.198
-56.016
-54.769
-53.503
-52.273
-51.122
-50.079
-49.182
-48.457
-47.914
-47.552
-47.336
-47.2
-47.088
-46.937
-46.699
-46.338
-45.808
-45.067
-44.081
-42.822
-41.274
-39.436
-37.3
-34.861
-32.129
-29.123
-25.883
-22.469
-18.93
-15.308
-11.633
-7.924
-4.199
-0.471
3.255
6.987
10.733
14.503
18.307
22.144
26.025
29.961
33.971
38.077
42.296
46.635
51.098
55.681
60.38
65.186
70.084
75.051
80.066
85.108
90.156
95.195
100.202
105.156
110.033
114.81
119.465
123.975
128.319
132.476
136.423
140.142
143.613
146.819
149.744
152.37
154.682
156.662
158.299
159.579
160.492
161.028
161.181
160.947
160.322
159.307
157.904
156.118
153.954
151.422
148.531
145.292
141.72
137.827
133.632
129.149
124.398
119.397
114.167
108.728
103.102
97.312
91.38
85.331
79.188
72.976
66.719
60.441
54.168
47.921
41.725
35.602
29.573
23.658
17.877
12.246
6.782
1.5
-3.589
-8.474
-13.146
-17.598
-21.824
-25.82
-29.584
-33.114
-36.409
-39.472
-42.303
-44.907
-47.287
-49.448
-51.397
-53.141
-54.688
-56.046
-57.225
-58.235
-59.086
-59.789
-60.356
-60.798
-61.128
-61.356
-61.494
-61.555
-61.548
-61.484
-61.372
-61.222
-61.041
-60.836
-60.612
-60.375
-60.128
-59.874
-59.617
-59.356
-59.095
-58.832
-58.57
-58.308
-58.046
-57.782
-57.517
-57.249
-56.977
-56.699
-56.415
-56.122
-55.819
-55.504
-55.175
-54.829
-54.465
-54.08
-53.673
-53.241
-52.782
-52.294
-51.778
-51.232
-50.656
-50.052
-49.421
-48.764
-48.085
-47.386
-46.672
-45.946
-45.212
-44.475
-43.739
-43.007
-42.285
-41.576
-40.884
-40.213
-39.565
-38.945
-38.353
-37.794
-37.268
-36.778
-36.325
-35.911
-35.538
-35.206
-34.917
-34.673
-34.474
-34.32
-34.213
-34.153
-34.138
-34.168
-34.241
-34.356
-34.51
-34.7
-34.924
-35.177
-35.456
-35.756
-36.075
-36.408
-36.752
-37.103
-37.458
-37.814
-38.169
-38.521
-38.868
-39.209
-39.544
-39.872
-40.191
-40.502
-40.805
-41.099
-41.384
-41.66
-41.927
-42.184
-42.431
-42.67
-42.899
-43.121
-43.336
-43.546
-43.752
-43.957
-44.162
-44.371
-44.585
-44.808
-45.043
-45.291
-45.554
-45.835
-46.134
-46.452
-46.788
-47.142
-47.511
-47.893
-48.286
-48.688
-49.095
-49.506
-49.917
-50.328
-50.737
-51.14
-51.535
-51.917
-52.284
-52.629
-52.949
-53.236
-53.485
-53.688
-53.838
-53.93
-53.958
-53.913
-53.788
-53.569
-53.248
-52.823
-52.292
-51.655
-50.918
-50.087
-49.175
-48.201
-47.182
-46.134
-45.069
-43.997
-42.923
-41.853
-40.795
-39.758
-38.744
-37.744
-36.744
-35.725
-34.666
-33.547
-32.338
-30.997
-29.492
-27.797
-25.898
-23.794
-21.496
-19.022
-16.396
-13.644
-10.812
-7.96
-5.163
-2.506
-0.069
2.078
3.855
5.17
5.937
6.077
5.533
4.273
2.282
-0.439
-3.875
-7.997
-12.745
-18.024
-23.719
-29.696
-35.833
-42.025
-48.153
-54.083
-59.678
-64.795
-69.319
-73.163
-76.264
-78.585
-80.108
-80.836
-80.81
-80.104
-78.833
-77.151
-75.215
-73.179
-71.21
-69.446
-68.093
-67.43
-67.613
-68.663
-70.403
-72.395
-74.239
-75.687
-76.383
-75.863
-73.863
-70.364
-65.949
-61.889
-59.34
-59.05
-61.555
-67.213
-76.049
-87.542
-99.965
-110.292
-115.325
-112.273
-98.588
-71.916
-30.116
28.575
102.495
186.44
275.52
364.455
452.975
546.477
643.448
738.655
819.461
861.784
852.949
788.554
671.971
526.518
372.495
229.053
118.095
43.687
4.411
-7.221
-10.221
-13.753
-20.485
-30.034
-34.556
-32.112
-26.335
-20.255
-18.069
-21.312
-28.381
-37.798
-48.198
-57.982
-65.818
-71.027
-73.356
-73.047
-70.805
-67.254
-62.882
-58.377
-54.472
-51.566
-49.827
-49.181
-49.347
-50.128
-51.396
-52.988
-54.721
-56.437
-58.005
-59.346
-60.448
-61.292
-61.827
-61.991
-61.725
-61.017
-59.917
-58.523
-56.93
-55.218
-53.456
-51.697
-50.002
-48.437
-47.031
-45.79
-44.689
-43.683
-42.748
-41.888
-41.099
-40.362
-39.629
-38.818
-37.868
-36.736
-35.383
-33.785
-31.909
-29.725
-27.235
-24.463
-21.451
-18.253
-14.902
-11.412
-7.798
-4.074
-0.261
3.61
7.522
11.475
15.463
19.481
23.522
27.575
31.648
35.757
39.922
44.167
48.506
52.94
57.472
62.099
66.816
71.617
76.488
81.407
86.356
91.318
96.276
101.214
106.112
110.946
115.692
120.324
124.821
129.16
133.321
137.281
141.023
144.528
147.782
150.771
153.482
155.9
158.012
159.806
161.272
162.399
163.181
163.61
163.682
163.393
162.743
161.734
160.367
158.649
156.584
154.181
151.45
148.4
145.044
141.395
137.468
133.279
128.845
124.182
119.309
114.246
109.011
103.625
98.107
92.476
86.754
80.959
75.112
69.233
63.341
57.455
51.593
45.773
40.013
34.328
28.734
23.245
17.874
12.633
7.533
2.585
-2.205
-6.826
-11.273
-15.539
-19.621
-23.514
-27.216
-30.724
-34.038
-37.159
-40.087
-42.823
-45.37
-47.73
-49.908
-51.907
-53.733
-55.389
-56.884
-58.221
-59.41
-60.455
-61.364
-62.145
-62.804
-63.348
-63.784
-64.118
-64.358
-64.509
-64.577
-64.568
-64.489
-64.344
-64.139
-63.879
-63.569
-63.212
-62.814
-62.379
-61.909
-61.409
-60.882
-60.332
-59.761
-59.174
-58.572
-57.958
-57.335
-56.704
-56.067
-55.425
-54.779
-54.129
-53.478
-52.825
-52.172
-51.518
-50.866
-50.215
-49.566
-48.921
-48.28
-47.643
-47.013
-46.389
-45.773
-45.166
-44.569
-43.984
-43.412
-42.855
-42.314
-41.791
-41.286
-40.8
-40.334
-39.89
-39.466
-39.066
-38.688
-38.334
-38.006
-37.703
-37.427
-37.18
-36.961
-36.772
-36.614
-36.487
-36.392
-36.329
-36.298
-36.301
-36.337
-36.407
-36.51
-36.646
-36.815
-37.015
-37.246
-37.505
-37.79
-38.101
-38.434
-38.789
-39.162
-39.552
-39.957
-40.376
-40.805
-41.244
-41.691
-42.143
-42.598
-43.056
-43.513
-43.969
-44.423
-44.872
-45.315
-45.752
-46.181
-46.601
-47.011
-47.409
-47.794
-48.167
-48.525
-48.869
-49.199
-49.515
-49.818
-50.109
-50.388
-50.659
-50.921
-51.177
-51.429
-51.679
-51.928
-52.178
-52.431
-52.689
-52.952
-53.223
-53.502
-53.789
-54.085
-54.389
-54.701
-55.02
-55.345
-55.674
-56.006
-56.34
-56.674
-57.005
-57.332
-57.652
-57.962
-58.26
-58.541
-58.802
-59.038
-59.246
-59.419
-59.555
-59.647
-59.69
-59.679
-59.608
-59.472
-59.265
-58.983
-58.621
-58.173
-57.637
-57.008
-56.286
-55.468
-54.553
-53.542
-52.435
-51.233
-49.939
-48.554
-47.084
-45.532
-43.903
-42.203
-40.439
-38.62
-36.754
-34.851
-32.924
-30.982
-29.041
-27.113
-25.212
-23.353
-21.549
-19.814
-18.162
-16.608
-15.166
-13.849
-12.67
-11.642
-10.781
-10.098
-9.606
-9.313
-9.225
-9.349
-9.687
-10.244
-11.026
-12.04
-13.286
-14.766
-16.482
-18.427
-20.594
-22.964
-25.5
-28.162
-30.906
-33.686
-36.462
-39.191
-41.828
-44.325
-46.631
-48.694
-50.474
-51.931
-53.028
-53.745
-54.068
-54.025
-53.705
-53.212
-52.661
-52.164
-51.794
-51.65
-51.863
-52.54
-53.78
-55.659
-58.187
-61.451
-65.631
-70.736
-76.634
-83.034
-89.391
-95.228
-100.181
-103.602
-104.723
-103.199
-99.03
-92.662
-85.021
-76.854
-68.917
-62.494
-58.903
-57.163
-54.276
-47.363
-34.312
-18.007
-4.172
7.295
22.474
53.205
112.978
205.428
323.956
456.867
589.82
710.439
808.747
873.652
895.008
868.373
795.621
685.301
550.346
403.469
258.361
129.821
29.65
-35.454
-67.804
-79.28
-81.47
-81.3
-80.525
-74.945
-62.942
-47.699
-33.062
-23.408
-20.76
-23.929
-31.092
-40.478
-50.036
-57.896
-63.05
-65.025
-63.965
-60.653
-55.863
-50.267
-44.715
-40.05
-36.717
-34.91
-34.572
-35.425
-37.263
-39.92
-43.174
-46.788
-50.563
-54.348
-58.02
-61.481
-64.61
-67.257
-69.313
-70.736
-71.517
-71.673
-71.243
-70.253
-68.745
-66.786
-64.436
-61.759
-58.826
-55.687
-52.402
-49.054
-45.714
-42.462
-39.366
-36.435
-33.664
-31.051
-28.574
-26.225
-23.993
-21.848
-19.765
-17.729
-15.721
-13.731
-11.752
-9.75
-7.699
-5.567
-3.322
-0.966
1.498
4.074
6.76
9.562
12.486
15.526
18.678
21.95
25.348
28.878
32.55
36.357
40.292
44.348
48.515
52.791
57.177
61.665
66.246
70.912
75.648
80.446
85.297
90.18
95.074
99.961
104.817
109.623
114.362
119.01
123.549
127.955
132.206
136.281
140.16
143.821
147.245
150.412
153.301
155.898
158.186
160.153
161.786
163.073
164.006
164.578
164.782
164.616
164.078
163.166
161.883
160.231
158.216
155.844
153.124
150.064
146.677
142.976
138.974
134.687
130.133
125.329
120.294
115.047
109.609
104
98.242
92.357
86.367
80.294
74.161
67.989
61.801
55.618
49.459
43.344
37.292
31.32
25.446
19.683
14.048
8.554
3.214
-1.96
-6.959
-11.771
-16.39
-20.806
-25.015
-29.011
-32.79
-36.351
-39.69
-42.808
-45.704
-48.381
-50.841
-53.086
-55.122
-56.954
-58.587
-60.029
-61.287
-62.368
-63.282
-64.035
-64.636
-65.093
-65.413
-65.606
-65.678
-65.637
-65.491
-65.246
-64.91
-64.491
-63.996
-63.43
-62.802
-62.117
-61.382
-60.603
-59.786
-58.936
-58.06
-57.163
-56.249
-55.324
-54.392
-53.458
-52.524
-51.595
-50.673
-49.76
-48.86
-47.973
-47.103
-46.251
-45.419
-44.609
-43.824
-43.065
-42.336
-41.637
-40.971
-40.341
-39.748
-39.194
-38.681
-38.21
-37.783
-37.401
-37.066
-36.777
-36.535
-36.34
-36.191
-36.089
-36.032
-36.018
-36.047
-36.116
-36.224
-36.369
-36.548
-36.761
-37.004
-37.276
-37.574
-37.896
-38.238
-38.598
-38.973
-39.359
-39.754
-40.154
-40.556
-40.956
-41.352
-41.74
-42.117
-42.48
-42.825
-43.152
-43.456
-43.736
-43.99
-44.217
-44.415
-44.585
-44.726
-44.839
-44.924
-44.983
-45.017
-45.028
-45.017
-44.988
-44.941
-44.881
-44.809
-44.729
-44.644
-44.556
-44.469
-44.385
-44.309
-44.242
-44.188
-44.15
-44.13
-44.131
-44.156
-44.207
-44.287
-44.396
-44.539
-44.715
-44.926
-45.173
-45.457
-45.778
-46.136
-46.529
-46.958
-47.419
-47.912
-48.435
-48.984
-49.558
-50.152
-50.765
-51.392
-52.031
-52.677
-53.328
-53.98
-54.63
-55.273
-55.907
-56.529
-57.134
-57.721
-58.286
-58.826
-59.339
-59.821
-60.269
-60.681
-61.054
-61.386
-61.672
-61.912
-62.101
-62.239
-62.323
-62.351
-62.322
-62.235
-62.087
-61.879
-61.608
-61.275
-60.879
-60.418
-59.892
-59.301
-58.644
-57.921
-57.131
-56.275
-55.352
-54.362
-53.306
-52.185
-50.998
-49.748
-48.436
-47.064
-45.635
-44.152
-42.621
-41.045
-39.431
-37.788
-36.122
-34.443
-32.761
-31.086
-29.428
-27.799
-26.208
-24.664
-23.179
-21.762
-20.423
-19.174
-18.026
-16.991
-16.083
-15.313
-14.691
-14.227
-13.925
-13.79
-13.826
-14.037
-14.435
-15.028
-15.822
-16.825
-18.043
-19.475
-21.117
-22.947
-24.934
-27.045
-29.243
-31.496
-33.777
-36.057
-38.303
-40.48
-42.547
-44.458
-46.176
-47.657
-48.858
-49.755
-50.344
-50.669
-50.807
-50.845
-50.859
-50.903
-51.035
-51.338
-51.915
-52.865
-54.289
-56.252
-58.852
-62.284
-66.648
-71.872
-77.68
-83.494
-88.693
-92.835
-95.42
-95.813
-93.672
-89.05
-82.575
-75.715
-69.919
-66.1
-65.112
-67.726
-74.089
-83.504
-93.975
-101.978
-103.903
-96.591
-76.783
-41.398
11.966
82.89
167.559
260.927
358.594
460.554
568.472
678.046
777.956
849.292
874.579
849.297
780.533
684.76
575.129
455.232
327.728
196.427
75.109
-16.559
-68.668
-82.882
-73.434
-58.315
-47.534
-42.546
-39.13
-34.266
-28.675
-25.082
-26.813
-34.419
-46.043
-59.663
-72.797
-83.346
-90.541
-94.031
-93.875
-90.817
-85.64
-79.041
-71.93
-65.168
-59.204
-54.278
-50.433
-47.473
-45.266
-43.735
-42.741
-42.167
-41.944
-42.008
-42.335
-42.931
-43.764
-44.773
-45.884
-47.001
-48.07
-49.065
-49.969
-50.782
-51.506
-52.129
-52.644
-53.035
-53.271
-53.329
-53.19
-52.828
-52.219
-51.357
-50.245
-48.903
-47.348
-45.585
-43.619
-41.447
-39.073
-36.511
-33.775
-30.889
-27.888
-24.804
-21.661
-18.488
-15.307
-12.132
-8.975
-5.832
-2.692
0.452
3.608
6.784
9.99
13.24
16.548
19.935
23.421
27.026
30.762
34.641
38.67
42.853
47.191
51.679
56.305
61.056
65.922
70.887
75.937
81.054
86.219
91.41
96.605
101.78
106.914
111.985
116.97
121.847
126.595
131.193
135.622
139.862
143.892
147.693
151.243
154.525
157.52
160.212
162.584
164.621
166.31
167.64
168.599
169.181
169.377
169.182
168.594
167.612
166.237
164.473
162.325
159.802
156.913
153.671
150.089
146.183
141.969
137.465
132.691
127.666
122.413
116.951
111.305
105.497
99.551
93.489
87.334
81.111
74.842
68.55
62.257
55.985
49.756
43.59
37.508
31.529
25.672
19.954
14.392
8.999
3.791
-1.223
-6.031
-10.624
-14.997
-19.143
-23.059
-26.742
-30.193
-33.411
-36.398
-39.159
-41.697
-44.018
-46.129
-48.036
-49.748
-51.272
-52.617
-53.792
-54.806
-55.668
-56.387
-56.975
-57.44
-57.792
-58.043
-58.203
-58.281
-58.288
-58.234
-58.127
-57.977
-57.792
-57.579
-57.346
-57.1
-56.845
-56.586
-56.329
-56.074
-55.826
-55.585
-55.352
-55.126
-54.906
-54.693
-54.483
-54.276
-54.07
-53.861
-53.65
-53.433
-53.208
-52.974
-52.727
-52.467
-52.19
-51.895
-51.579
-51.24
-50.876
-50.485
-50.065
-49.616
-49.135
-48.622
-48.076
-47.496
-46.882
-46.235
-45.557
-44.848
-44.111
-43.349
-42.566
-41.766
-40.953
-40.133
-39.309
-38.488
-37.675
-36.873
-36.089
-35.327
-34.591
-33.886
-33.216
-32.586
-31.998
-31.457
-30.966
-30.527
-30.144
-29.818
-29.551
-29.345
-29.202
-29.123
-29.109
-29.161
-29.279
-29.463
-29.712
-30.025
-30.399
-30.831
-31.318
-31.857
-32.441
-33.068
-33.732
-34.427
-35.15
-35.894
-36.654
-37.426
-38.205
-38.985
-39.762
-40.531
-41.29
-42.033
-42.759
-43.464
-44.146
-44.804
-45.434
-46.035
-46.607
-47.147
-47.653
-48.125
-48.563
-48.966
-49.334
-49.668
-49.97
-50.241
-50.485
-50.704
-50.9
-51.077
-51.237
-51.384
-51.52
-51.648
-51.772
-51.894
-52.016
-52.143
-52.275
-52.414
-52.563
-52.722
-52.89
-53.067
-53.253
-53.446
-53.646
-53.851
-54.06
-54.271
-54.484
-54.696
-54.906
-55.109
-55.305
-55.487
-55.653
-55.796
-55.911
-55.994
-56.038
-56.04
-55.995
-55.9
-55.751
-55.547
-55.286
-54.964
-54.579
-54.128
-53.606
-53.01
-52.338
-51.585
-50.751
-49.834
-48.836
-47.759
-46.609
-45.389
-44.102
-42.748
-41.326
-39.839
-38.293
-36.695
-35.056
-33.396
-31.734
-30.103
-28.536
-27.056
-25.683
-24.429
-23.294
-22.28
-21.384
-20.603
-19.941
-19.403
-18.987
-18.701
-18.544
-18.501
-18.551
-18.653
-18.754
-18.82
-18.829
-18.773
-18.671
-18.555
-18.464
-18.454
-18.566
-18.832
-19.277
-19.907
-20.718
-21.717
-22.911
-24.331
-26.022
-28.012
-30.307
-32.899
-35.738
-38.746
-41.827
-44.864
-47.751
-50.401
-52.754
-54.795
-56.537
-58.022
-59.285
-60.326
-61.148
-61.773
-62.251
-62.664
-63.117
-63.703
-64.573
-65.963
-68.016
-70.743
-73.953
-77.185
-79.936
-81.848
-82.523
-81.409
-78.175
-72.931
-66.301
-59.569
-54.157
-50.746
-49.778
-52.327
-58.885
-68.697
-80.34
-89.589
-91.758
-85.589
-68.883
-41.358
-3.452
49.19
116.146
197.519
293.699
397.444
507.498
619.086
719.74
801.916
850.575
850.853
802.01
704.604
565.682
404.439
236.069
79.047
-42.8
-120.407
-152.54
-147.695
-128.058
-107.506
-92.33
-83.313
-73.203
-60.261
-47.09
-36.232
-31.839
-34.61
-42.156
-52.475
-62.943
-71.17
-76.316
-78.014
-76.344
-72.082
-66.05
-58.972
-51.736
-45.218
-39.887
-35.956
-33.423
-32.047
-31.638
-32.071
-33.196
-34.88
-37.023
-39.535
-42.32
-45.302
-48.377
-51.405
-54.267
-56.847
-59.037
-60.775
-62.035
-62.815
-63.124
-62.976
-62.36
-61.256
-59.668
-57.611
-55.123
-52.255
-49.054
-45.586
-41.92
-38.138
-34.325
-30.536
-26.804
-23.14
-19.551
-16.045
-12.636
-9.343
-6.169
-3.115
-0.179
2.644
5.358
7.974
10.517
13.021
15.524
18.054
20.628
23.258
25.955
28.727
31.584
34.533
37.573
40.707
43.939
47.276
50.723
54.284
57.957
61.737
65.616
69.59
73.653
77.796
82.012
86.291
90.625
95.004
99.418
103.857
108.305
112.747
117.164
121.538
125.85
130.079
134.205
138.206
142.062
145.752
149.258
152.56
155.639
158.479
161.06
163.368
165.387
167.103
168.503
169.574
170.307
170.692
170.723
170.394
169.7
168.639
167.211
165.416
163.257
160.738
157.866
154.648
151.094
147.217
143.03
138.547
133.785
128.763
123.498
118.012
112.324
106.457
100.433
94.273
88.001
81.638
75.209
68.736
62.241
55.747
49.275
42.847
36.485
30.207
24.035
17.986
12.078
6.329
0.753
-4.633
-9.818
-14.789
-19.535
-24.048
-28.319
-32.343
-36.115
-39.632
-42.892
-45.894
-48.639
-51.131
-53.371
-55.365
-57.119
-58.639
-59.932
-61.007
-61.873
-62.539
-63.016
-63.315
-63.446
-63.42
-63.251
-62.949
-62.527
-61.997
-61.372
-60.664
-59.886
-59.048
-58.162
-57.239
-56.291
-55.326
-54.354
-53.384
-52.424
-51.481
-50.562
-49.673
-48.82
-48.006
-47.235
-46.511
-45.835
-45.21
-44.635
-44.113
-43.642
-43.221
-42.851
-42.529
-42.255
-42.024
-41.836
-41.687
-41.573
-41.492
-41.439
-41.412
-41.406
-41.418
-41.444
-41.481
-41.526
-41.575
-41.625
-41.675
-41.72
-41.76
-41.793
-41.817
-41.831
-41.835
-41.828
-41.811
-41.784
-41.747
-41.702
-41.65
-41.592
-41.53
-41.466
-41.403
-41.342
-41.286
-41.237
-41.198
-41.171
-41.16
-41.166
-41.191
-41.239
-41.312
-41.411
-41.539
-41.696
-41.885
-42.108
-42.364
-42.654
-42.979
-43.338
-43.732
-44.159
-44.619
-45.111
-45.632
-46.183
-46.762
-47.365
-47.992
-48.64
-49.305
-49.986
-50.678
-51.378
-52.082
-52.789
-53.493
-54.193
-54.886
-55.568
-56.237
-56.889
-57.523
-58.134
-58.721
-59.28
-59.809
-60.306
-60.769
-61.197
-61.588
-61.942
-62.256
-62.531
-62.764
-62.954
-63.1
-63.199
-63.249
-63.248
-63.197
-63.093
-62.936
-62.728
-62.469
-62.16
-61.806
-61.406
-60.961
-60.47
-59.933
-59.347
-58.711
-58.023
-57.281
-56.484
-55.631
-54.726
-53.771
-52.767
-51.715
-50.613
-49.456
-48.244
-46.979
-45.664
-44.307
-42.92
-41.518
-40.127
-38.774
-37.475
-36.246
-35.092
-34.01
-32.998
-32.055
-31.173
-30.358
-29.61
-28.927
-28.312
-27.763
-27.265
-26.796
-26.319
-25.785
-25.17
-24.465
-23.67
-22.81
-21.914
-21.013
-20.162
-19.397
-18.75
-18.259
-17.943
-17.822
-17.934
-18.323
-19.043
-20.162
-21.705
-23.67
-26.047
-28.791
-31.849
-35.161
-38.629
-42.163
-45.688
-49.123
-52.404
-55.482
-58.285
-60.742
-62.789
-64.367
-65.48
-66.172
-66.489
-66.486
-66.2
-65.691
-65.079
-64.49
-64.047
-63.882
-64.06
-64.682
-65.955
-67.921
-70.476
-73.366
-75.995
-77.789
-78.426
-77.45
-74.358
-69.179
-62.204
-54.182
-46.739
-41.148
-38.098
-38.528
-42.986
-50.84
-60.934
-71.065
-77.449
-76.885
-66.809
-44.101
-6.561
46.211
113.654
193.268
279.982
368.667
454.14
529.581
588.472
625.872
637.463
622.62
585.242
528.794
456.14
367.985
262.938
145.18
26.232
-75.869
-143.464
-170.32
-162.642
-137.039
-111.153
-93.666
-85.452
-82.013
-78.857
-75.498
-73.643
-75.195
-80.123
-86.724
-92.748
-96.129
-96.15
-92.868
-86.566
-77.93
-67.771
-56.885
-46.173
-36.413
-27.965
-20.99
-15.536
-11.547
-8.985
-7.79
-7.827
-8.925
-10.945
-13.768
-17.256
-21.253
-25.544
-29.875
-34.033
-37.875
-41.313
-44.287
-46.733
-48.559
-49.697
-50.108
-49.769
-48.672
-46.801
-44.142
-40.73
-36.653
-32.048
-27.089
-21.928
-16.664
-11.366
-6.085
-0.883
4.152
8.948
13.445
17.584
21.297
24.481
27.023
28.861
29.989
30.454
30.358
29.794
28.832
27.539
25.984
24.253
22.455
20.695
19.053
17.617
16.49
15.808
15.731
16.371
17.794
20.02
23.016
26.748
31.185
36.279
41.958
48.14
54.715
61.574
68.638
75.827
83.048
90.194
97.132
103.758
109.997
115.805
121.158
126.041
130.435
134.34
137.779
140.783
143.397
145.67
147.623
149.272
150.641
151.749
152.628
153.304
153.781
154.058
154.131
153.992
153.642
153.072
152.263
151.193
149.837
148.17
146.183
143.87
141.23
138.264
134.978
131.376
127.475
123.295
118.852
114.163
109.245
104.115
98.794
93.308
87.679
81.932
76.091
70.176
64.211
58.217
52.212
46.216
40.246
34.318
28.45
22.659
16.962
11.378
5.923
0.614
-4.535
-9.508
-14.292
-18.876
-23.251
-27.406
-31.336
-35.034
-38.494
-41.715
-44.691
-47.424
-49.911
-52.156
-54.158
-55.924
-57.455
-58.758
-59.839
-60.704
-61.361
-61.817
-62.081
-62.16
-62.065
-61.804
-61.389
-60.829
-60.135
-59.32
-58.393
-57.368
-56.257
-55.07
-53.82
-52.518
-51.174
-49.8
-48.405
-46.999
-45.59
-44.186
-42.796
-41.425
-40.081
-38.768
-37.492
-36.256
-35.065
-33.922
-32.83
-31.79
-30.805
-29.876
-29.005
-28.191
-27.436
-26.74
-26.1
-25.518
-24.99
-24.516
-24.093
-23.718
-23.388
-23.1
-22.851
-22.636
-22.452
-22.296
-22.163
-22.05
-21.954
-21.871
-21.8
-21.737
-21.68
-21.627
-21.577
-21.527
-21.478
-21.426
-21.372
-21.315
-21.253
-21.187
-21.116
-21.04
-20.959
-20.872
-20.781
-20.685
-20.586
-20.484
-20.381
-20.277
-20.176
-20.078
-19.986
-19.903
-19.829
-19.769
-19.724
-19.695
-19.686
-19.697
-19.73
-19.786
-19.866
-19.971
-20.099
-20.253
-20.43
-20.631
-20.854
-21.099
-21.364
-21.647
-21.947
-22.261
-22.587
-22.924
-23.269
-23.619
-23.972
-24.325
-24.674
-25.016
-25.347
-25.664
-25.961
-26.235
-26.481
-26.696
-26.873
-27.011
-27.103
-27.148
-27.141
-27.079
-26.961
-26.782
-26.543
-26.24
-25.876
-25.448
-24.958
-24.408
-23.799
-23.134
-22.417
-21.651
-20.84
-19.989
-19.102
-18.186
-17.244
-16.284
-15.313
-14.338
-13.37
-12.418
-11.493
-10.607
-9.77
-8.993
-8.289
-7.667
-7.135
-6.701
-6.373
-6.161
-6.073
-6.118
-6.301
-6.627
-7.1
-7.721
-8.493
-9.411
-10.468
-11.66
-12.984
-14.442
-16.043
-17.79
-19.682
-21.718
-23.892
-26.195
-28.614
-31.128
-33.705
-36.317
-38.933
-41.53
-44.09
-46.581
-48.959
-51.178
-53.18
-54.917
-56.354
-57.457
-58.213
-58.625
-58.707
-58.496
-58.038
-57.384
-56.611
-55.79
-54.991
-54.318
-53.856
-53.739
-54.177
-55.242
-56.869
-58.885
-60.933
-62.693
-64.022
-64.575
-63.825
-61.642
-58.236
-54.294
-51.009
-49.166
-48.986
-50.939
-55.764
-63.541
-73.567
-83.953
-91.859
-95.181
-92.429
-81.582
-59.907
-25.146
22.299
78.896
140.56
204.979
274.407
352.428
435.937
514.46
571.453
591.731
569.833
511.42
427.76
326.102
213.419
95.279
-19.834
-112.065
-168.332
-185.41
-169.355
-140.141
-112.786
-92.959
-80.986
-70.789
-59.498
-48.749
-40.889
-38.792
-42.564
-50.1
-59.141
-67.149
-72.81
-75.89
-76.32
-74.569
-71.299
-67.091
-62.706
-58.902
-56.03
-54.197
-53.356
-53.259
-53.722
-54.622
-55.801
-57.141
-58.561
-59.995
-61.393
-62.712
-63.887
-64.848
-65.546
-65.951
-66.07
-65.927
-65.574
-65.092
-64.537
-63.944
-63.321
-62.628
-61.848
-60.982
-60.039
-59.041
-58.011
-56.962
-55.908
-54.87
-53.843
-52.812
-51.737
-50.547
-49.2
-47.674
-45.971
-44.126
-42.161
-40.084
-37.906
-35.638
-33.288
-30.864
-28.363
-25.766
-23.065
-20.264
-17.374
-14.422
-11.42
-8.371
-5.268
-2.097
1.15
4.477
7.893
11.41
15.04
18.787
22.641
26.586
30.607
34.689
38.814
42.96
47.092
51.181
55.205
59.149
63.007
66.773
70.435
73.985
77.416
80.725
83.917
86.99
89.937
92.766
95.49
98.142
100.774
103.416
106.075
108.746
111.408
114.032
116.589
119.03
121.295
123.33
125.086
126.529
127.641
128.386
128.716
128.571
127.866
126.546
124.588
121.979
118.723
114.847
110.387
105.407
100.006
94.262
88.242
82.001
75.572
69.006
62.366
55.721
49.152
42.725
36.485
30.475
24.73
19.266
14.085
9.169
4.467
-0.051
-4.401
-8.592
-12.617
-16.478
-20.182
-23.735
-27.145
-30.416
-33.549
-36.548
-39.42
-42.16
-44.759
-47.198
-49.447
-51.485
-53.302
-54.891
-56.255
-57.394
-58.311
-59.014
-59.513
-59.821
-59.946
-59.898
-59.682
-59.309
-58.791
-58.142
-57.381
-56.52
-55.575
-54.558
-53.481
-52.356
-51.194
-50.002
-48.787
-47.556
-46.318
-45.079
-43.847
-42.629
-41.432
-40.261
-39.122
-38.019
-36.955
-35.935
-34.959
-34.029
-33.146
-32.309
-31.52
-30.776
-30.076
-29.419
-28.803
-28.226
-27.684
-27.176
-26.698
-26.246
-25.817
-25.409
-25.016
-24.636
-24.265
-23.901
-23.541
-23.182
-22.823
-22.461
-22.096
-21.726
-21.351
-20.969
-20.581
-20.186
-19.784
-19.375
-18.961
-18.542
-18.119
-17.694
-17.268
-16.842
-16.417
-15.996
-15.579
-15.168
-14.764
-14.37
-13.987
-13.617
-13.262
-12.924
-12.607
-12.311
-12.038
-11.79
-11.568
-11.37
-11.198
-11.05
-10.925
-10.822
-10.738
-10.673
-10.624
-10.589
-10.566
-10.552
-10.544
-10.54
-10.538
-10.534
-10.527
-10.514
-10.493
-10.464
-10.425
-10.375
-10.313
-10.237
-10.146
-10.039
-9.912
-9.764
-9.59
-9.389
-9.16
-8.902
-8.613
-8.296
-7.952
-7.585
-7.199
-6.798
-6.382
-5.954
-5.515
-5.067
-4.612
-4.15
-3.681
-3.206
-2.73
-2.257
-1.794
-1.342
-0.903
-0.473
-0.052
0.356
0.743
1.104
1.428
1.705
1.913
2.023
2.006
1.846
1.533
1.074
0.47
-0.274
-1.154
-2.166
-3.292
-4.51
-5.8
-7.145
-8.523
-9.905
-11.239
-12.458
-13.502
-14.331
-14.929
-15.3
-15.449
-15.388
-15.132
-14.707
-14.158
-13.529
-12.854
-12.159
-11.472
-10.832
-10.3
-9.958
-9.865
-10.061
-10.56
-11.35
-12.423
-13.757
-15.335
-17.148
-19.162
-21.355
-23.713
-26.2
-28.799
-31.506
-34.299
-37.155
-40.08
-43.055
-46.117
-49.404
-52.928
-56.6
-60.205
-63.277
-65.403
-66.34
-65.698
-63.01
-58.239
-51.64
-43.94
-36.617
-30.834
-27.281
-26.985
-30.797
-38.577
-49.521
-61.648
-71.584
-76.669
-74.644
-62.164
-36.245
4.74
59.664
123.616
190.936
258.45
328.48
404.901
485.04
559.486
610.281
617.907
575.901
488.103
366.641
231.087
96.122
-25.639
-119.515
-178.86
-202.34
-196.099
-176.513
-155.11
-137.278
-122.695
-104.665
-81.567
-56.123
-31.753
-12.94
-0.867
5.774
7.552
5.323
0.473
-5.827
-12.09
-17.317
-21.473
-24.656
-26.626
-27.02
-25.903
-23.801
-21.651
-20.124
-19.313
-19.165
-19.679
-21.01
-23.256
-26.201
-29.34
-32.253
-34.773
-36.869
-38.606
-39.971
-40.89
-41.37
-41.505
-41.394
-41.11
-40.676
-40.062
-39.263
-38.31
-37.244
-36.124
-34.985
-33.837
-32.688
-31.54
-30.395
-29.255
-28.113
-26.95
-25.753
-24.511
-23.217
-21.871
-20.47
-19.005
-17.462
-15.826
-14.085
-12.231
-10.259
-8.162
-5.94
-3.588
-1.107
1.498
4.227
7.077
10.047
13.137
16.343
19.663
23.092
26.625
30.254
33.972
37.771
41.64
45.572
49.554
53.576
57.627
61.696
65.769
69.833
73.876
77.883
81.839
85.729
89.537
93.248
96.846
100.315
103.641
106.807
109.801
112.608
115.216
117.612
119.785
121.724
123.42
124.863
126.047
126.964
127.608
127.977
128.066
127.875
127.404
126.652
125.622
124.318
122.742
120.901
118.801
116.449
113.855
111.027
107.977
104.716
101.259
97.619
93.81
89.847
85.746
81.523
77.193
72.773
68.28
63.729
59.138
54.523
49.899
45.282
40.689
36.132
31.626
27.185
22.821
18.545
14.368
10.3
6.351
2.529
-1.16
-4.707
-8.107
-11.357
-14.451
-17.389
-20.167
-22.786
-25.246
-27.548
-29.694
-31.687
-33.531
-35.229
-36.786
-38.207
-39.498
-40.666
-41.715
-42.654
-43.488
-44.225
-44.872
-45.434
-45.92
-46.335
-46.684
-46.974
-47.21
-47.396
-47.538
-47.641
-47.707
-47.741
-47.746
-47.726
-47.683
-47.619
-47.536
-47.435
-47.318
-47.186
-47.039
-46.877
-46.701
-46.511
-46.306
-46.087
-45.854
-45.605
-45.341
-45.061
-44.764
-44.451
-44.119
-43.771
-43.405
-43.022
-42.624
-42.212
-41.786
-41.351
-40.906
-40.455
-40
-39.544
-39.087
-38.633
-38.184
-37.742
-37.31
-36.89
-36.484
-36.095
-35.725
-35.377
-35.051
-34.749
-34.472
-34.221
-33.997
-33.801
-33.633
-33.495
-33.386
-33.308
-33.262
-33.25
-33.27
-33.323
-33.406
-33.517
-33.655
-33.814
-33.991
-34.18
-34.379
-34.586
-34.799
-35.018
-35.241
-35.47
-35.704
-35.944
-36.192
-36.444
-36.698
-36.95
-37.202
-37.456
-37.718
-37.99
-38.27
-38.557
-38.848
-39.138
-39.417
-39.667
-39.861
-39.981
-40.02
-39.976
-39.858
-39.673
-39.428
-39.134
-38.804
-38.449
-38.087
-37.73
-37.383
-37.062
-36.797
-36.629
-36.622
-36.819
-37.236
-37.881
-38.743
-39.802
-41.034
-42.398
-43.834
-45.29
-46.721
-48.093
-49.39
-50.576
-51.601
-52.4
-52.888
-53.003
-52.716
-52.005
-50.867
-49.32
-47.391
-45.14
-42.662
-40.03
-37.304
-34.533
-31.743
-28.977
-26.289
-23.74
-21.4
-19.327
-17.554
-16.117
-15.042
-14.335
-13.99
-13.977
-14.231
-14.709
-15.379
-16.214
-17.206
-18.341
-19.598
-20.965
-22.432
-23.982
-25.612
-27.311
-29.058
-30.839
-32.635
-34.426
-36.211
-37.98
-39.717
-41.412
-43.038
-44.561
-45.954
-47.177
-48.188
-48.96
-49.459
-49.657
-49.555
-49.175
-48.581
-47.864
-47.099
-46.35
-45.659
-45.064
-44.649
-44.519
-44.773
-45.507
-46.745
-48.512
-50.924
-53.983
-57.547
-61.339
-64.796
-67.347
-68.776
-68.912
-67.564
-64.875
-61.048
-56.519
-52.409
-49.744
-48.813
-49.582
-51.577
-53.664
-54.728
-53.202
-46.661
-32.765
-9.648
23.604
66.545
118.048
175.074
233.786
291.572
343.758
388.326
424.661
447.227
454.566
443.429
408.401
351.825
274.038
180.336
85.127
2.296
-53.03
-73.246
-64.882
-42.544
-21.628
-11.681
-12.952
-18.637
-23.68
-27.031
-29.941
-35.399
-44.036
-53.872
-62.984
-70.003
-74.273
-75.953
-75.329
-72.591
-68.284
-63.21
-58.119
-53.498
-49.572
-46.381
-43.885
-42.1
-41.005
-40.503
-40.477
-40.824
-41.487
-42.424
-43.601
-44.959
-46.399
-47.822
-49.125
-50.213
-51.028
-51.54
-51.73
-51.59
-51.124
-50.337
-49.253
-47.907
-46.327
-44.543
-42.585
-40.483
-38.274
-36.003
-33.714
-31.447
-29.231
-27.078
-24.995
-22.987
-21.05
-19.18
-17.366
-15.593
-13.848
-12.122
-10.405
-8.689
-6.964
-5.217
-3.433
-1.602
0.289
2.247
4.282
6.402
8.612
10.917
13.321
15.825
18.432
21.143
23.961
26.886
29.92
33.061
36.307
39.655
43.101
46.64
50.263
53.962
57.727
61.548
65.413
69.31
73.225
77.144
81.052
84.934
88.773
92.552
96.254
99.862
103.357
106.722
109.94
112.993
115.864
118.538
120.998
123.231
125.223
126.96
128.432
129.627
130.538
131.155
131.472
131.485
131.19
130.585
129.671
128.447
126.918
125.087
122.959
120.542
117.844
114.875
111.646
108.171
104.462
100.535
96.407
92.094
87.614
82.987
78.231
73.366
68.413
63.39
58.319
53.218
48.11
43.012
37.944
32.925
27.972
23.103
18.333
13.679
9.154
4.772
0.544
-3.517
-7.401
-11.1
-14.604
-17.909
-21.007
-23.895
-26.57
-29.031
-31.277
-33.31
-35.133
-36.749
-38.162
-39.379
-40.406
-41.249
-41.918
-42.42
-42.766
-42.964
-43.026
-42.962
-42.782
-42.497
-42.118
-41.656
-41.119
-40.519
-39.866
-39.168
-38.436
-37.677
-36.902
-36.118
-35.333
-34.555
-33.791
-33.046
-32.325
-31.634
-30.976
-30.355
-29.772
-29.23
-28.73
-28.274
-27.861
-27.493
-27.167
-26.883
-26.64
-26.436
-26.268
-26.135
-26.033
-25.961
-25.916
-25.895
-25.897
-25.919
-25.959
-26.015
-26.083
-26.163
-26.25
-26.344
-26.442
-26.542
-26.641
-26.739
-26.835
-26.927
-27.015
-27.099
-27.177
-27.25
-27.318
-27.381
-27.438
-27.49
-27.538
-27.582
-27.623
-27.662
-27.7
-27.738
-27.777
-27.818
-27.861
-27.907
-27.956
-28.009
-28.066
-28.128
-28.194
-28.266
-28.343
-28.427
-28.517
-28.614
-28.718
-28.828
-28.945
-29.068
-29.196
-29.329
-29.466
-29.607
-29.751
-29.896
-30.044
-30.192
-30.341
-30.488
-30.634
-30.776
-30.915
-31.049
-31.177
-31.297
-31.41
-31.515
-31.61
-31.697
-31.775
-31.843
-31.902
-31.952
-31.993
-32.025
-32.048
-32.062
-32.067
-32.064
-32.054
-32.036
-32.012
-31.982
-31.948
-31.91
-31.871
-31.831
-31.791
-31.751
-31.714
-31.68
-31.65
-31.625
-31.606
-31.595
-31.593
-31.602
-31.62
-31.65
-31.69
-31.741
-31.8
-31.867
-31.938
-32.011
-32.083
-32.153
-32.218
-32.276
-32.326
-32.365
-32.395
-32.414
-32.419
-32.406
-32.373
-32.313
-32.222
-32.096
-31.928
-31.714
-31.447
-31.124
-30.746
-30.309
-29.812
-29.249
-28.611
-27.895
-27.103
-26.237
-25.303
-24.309
-23.264
-22.188
-21.11
-20.058
-19.051
-18.096
-17.194
-16.349
-15.564
-14.843
-14.193
-13.602
-13.058
-12.554
-12.088
-11.653
-11.235
-10.801
-10.298
-9.686
-8.946
-8.081
-7.106
-6.035
-4.885
-3.686
-2.481
-1.341
-0.328
0.518
1.168
1.59
1.742
1.561
0.972
-0.066
-1.564
-3.519
-5.911
-8.729
-11.942
-15.491
-19.287
-23.209
-27.155
-31.056
-34.852
-38.478
-41.862
-44.918
-47.589
-49.88
-51.807
-53.387
-54.623
-55.478
-55.969
-56.164
-56.156
-56.089
-56.073
-56.142
-56.398
-56.998
-57.966
-59.235
-60.521
-61.243
-60.949
-59.358
-56.133
-51.083
-44.33
-36.209
-27.641
-20.055
-14.514
-11.84
-12.685
-16.949
-23.85
-32.07
-39.116
-41.859
-37.645
-23.859
1.699
39.704
89.756
150.42
218.254
288.88
358.054
420.411
470.383
504.29
518.978
513.585
491.18
453.208
400.483
333.793
251.532
159.539
69.899
-5.221
-52.417
-70.463
-69.11
-57.662
-47.446
-42.021
-36.988
-31.506
-24.677
-17.107
-12.641
-12.142
-14.551
-19.164
-24.301
-28.324
-30.854
-31.668
-30.641
-28.298
-25.197
-21.711
-18.387
-15.802
-14.188
-13.671
-14.277
-15.806
-18.094
-21.015
-24.378
-28.003
-31.734
-35.424
-38.944
-42.202
-45.113
-47.61
-49.645
-51.191
-52.243
-52.807
-52.908
-52.584
-51.869
-50.803
-49.429
-47.783
-45.915
-43.878
-41.725
-39.512
-37.28
-35.056
-32.863
-30.718
-28.625
-26.588
-24.601
-22.65
-20.73
-18.835
-16.96
-15.102
-13.255
-11.408
-9.552
-7.677
-5.776
-3.84
-1.862
0.165
2.246
4.386
6.587
8.852
11.185
13.59
16.073
18.637
21.288
24.027
26.859
29.786
32.809
35.928
39.141
42.446
45.839
49.316
52.872
56.5
60.192
63.939
67.731
71.558
75.406
79.263
83.114
86.944
90.737
94.477
98.146
101.726
105.201
108.552
111.762
114.813
117.688
120.37
122.842
125.091
127.1
128.856
130.346
131.559
132.483
133.111
133.434
133.448
133.148
132.53
131.596
130.346
128.782
126.909
124.734
122.264
119.508
116.479
113.188
109.649
105.879
101.892
97.708
93.343
88.819
84.153
79.368
74.483
69.519
64.498
59.44
54.366
49.297
44.253
39.254
34.319
29.465
24.712
20.074
15.568
11.206
7.002
2.966
-0.892
-4.564
-8.043
-11.324
-14.403
-17.279
-19.95
-22.417
-24.682
-26.747
-28.617
-30.296
-31.791
-33.109
-34.257
-35.244
-36.078
-36.769
-37.326
-37.759
-38.079
-38.295
-38.42
-38.462
-38.433
-38.344
-38.204
-38.022
-37.809
-37.572
-37.32
-37.059
-36.796
-36.536
-36.286
-36.047
-35.825
-35.621
-35.439
-35.278
-35.14
-35.026
-34.934
-34.864
-34.815
-34.785
-34.773
-34.777
-34.794
-34.823
-34.862
-34.907
-34.957
-35.008
-35.058
-35.104
-35.143
-35.171
-35.187
-35.188
-35.171
-35.135
-35.078
-34.999
-34.897
-34.771
-34.621
-34.448
-34.251
-34.033
-33.793
-33.534
-33.257
-32.964
-32.658
-32.342
-32.017
-31.687
-31.354
-31.02
-30.688
-30.361
-30.042
-29.732
-29.434
-29.152
-28.888
-28.645
-28.427
-28.236
-28.074
-27.945
-27.851
-27.794
-27.776
-27.8
-27.865
-27.975
-28.13
-28.331
-28.578
-28.873
-29.214
-29.602
-30.035
-30.513
-31.034
-31.595
-32.196
-32.834
-33.508
-34.214
-34.951
-35.716
-36.506
-37.317
-38.147
-38.991
-39.847
-40.708
-41.573
-42.435
-43.292
-44.139
-44.972
-45.787
-46.581
-47.349
-48.088
-48.795
-49.466
-50.098
-50.689
-51.236
-51.738
-52.193
-52.599
-52.957
-53.265
-53.524
-53.734
-53.895
-54.008
-54.075
-54.096
-54.073
-54.009
-53.907
-53.769
-53.598
-53.4
-53.177
-52.934
-52.674
-52.402
-52.122
-51.838
-51.554
-51.274
-51.001
-50.739
-50.491
-50.26
-50.048
-49.859
-49.694
-49.553
-49.439
-49.352
-49.293
-49.26
-49.254
-49.274
-49.319
-49.387
-49.477
-49.586
-49.711
-49.849
-49.996
-50.148
-50.301
-50.449
-50.588
-50.712
-50.817
-50.897
-50.948
-50.963
-50.939
-50.87
-50.752
-50.583
-50.357
-50.073
-49.727
-49.318
-48.845
-48.308
-47.706
-47.039
-46.31
-45.52
-44.671
-43.766
-42.808
-41.802
-40.754
-39.673
-38.565
-37.439
-36.306
-35.174
-34.056
-32.96
-31.897
-30.874
-29.9
-28.985
-28.139
-27.372
-26.696
-26.12
-25.653
-25.303
-25.079
-24.985
-25.022
-25.19
-25.49
-25.926
-26.509
-27.245
-28.144
-29.209
-30.44
-31.834
-33.377
-35.047
-36.812
-38.637
-40.487
-42.328
-44.136
-45.88
-47.533
-49.053
-50.388
-51.492
-52.32
-52.841
-53.027
-52.871
-52.401
-51.67
-50.762
-49.76
-48.728
-47.737
-46.882
-46.255
-45.953
-46.099
-46.767
-48.074
-50.212
-53.203
-56.941
-61.204
-65.511
-69.402
-72.577
-74.565
-74.798
-73.212
-70.011
-65.734
-61.57
-58.377
-56.559
-56.814
-59.685
-64.686
-70.677
-75.879
-77.576
-73.188
-60.448
-36.883
-0.183
49.19
107.976
174.56
247.252
325.4
411.612
499.833
577.084
632.045
651.341
632.253
585.148
519.709
447.296
374.73
300.875
226.521
153.823
86.85
31.646
-8.96
-34.805
-47.478
-50.385
-46.34
-38.128
-29.403
-22.658
-19.262
-19.991
-24.412
-31.448
-40.225
-49.416
-57.213
-62.626
-65.248
-64.949
-62.229
-57.696
-51.824
-45.356
-39.17
-33.753
-29.371
-26.13
-23.876
-22.515
-22.01
-22.211
-22.956
-24.115
-25.558
-27.208
-29.027
-30.925
-32.786
-34.495
-35.925
-37.001
-37.696
-37.988
-37.88
-37.382
-36.512
-35.311
-33.831
-32.119
-30.222
-28.183
-26.037
-23.832
-21.62
-19.449
-17.37
-15.412
-13.588
-11.904
-10.36
-8.947
-7.656
-6.47
-5.365
-4.326
-3.337
-2.381
-1.446
-0.513
0.439
1.43
2.48
3.608
4.832
6.166
7.621
9.206
10.929
12.799
14.826
17.022
19.397
21.956
24.701
27.634
30.748
34.034
37.47
41.024
44.672
48.397
52.185
56.036
59.942
63.896
67.89
71.919
75.976
80.06
84.161
88.265
92.37
96.485
100.633
104.861
109.19
113.619
118.134
122.703
127.285
131.836
136.296
140.588
144.646
148.408
151.826
154.873
157.499
159.646
161.239
162.182
162.41
161.891
160.605
158.554
155.762
152.265
148.132
143.465
138.346
132.846
127.025
120.92
114.586
108.093
101.516
94.947
88.457
82.101
75.927
69.976
64.269
58.813
53.589
48.551
43.67
38.933
34.335
29.886
25.59
21.44
17.433
13.566
9.834
6.237
2.774
-0.562
-3.766
-6.828
-9.727
-12.432
-14.922
-17.188
-19.225
-21.035
-22.624
-23.996
-25.161
-26.135
-26.932
-27.565
-28.045
-28.383
-28.592
-28.687
-28.685
-28.608
-28.473
-28.294
-28.088
-27.868
-27.646
-27.433
-27.238
-27.066
-26.924
-26.819
-26.755
-26.74
-26.777
-26.87
-27.021
-27.232
-27.505
-27.837
-28.228
-28.675
-29.173
-29.718
-30.306
-30.931
-31.587
-32.268
-32.966
-33.675
-34.387
-35.097
-35.796
-36.478
-37.136
-37.765
-38.359
-38.913
-39.422
-39.881
-40.287
-40.639
-40.932
-41.167
-41.341
-41.455
-41.51
-41.506
-41.445
-41.33
-41.163
-40.947
-40.687
-40.386
-40.049
-39.682
-39.288
-38.875
-38.447
-38.01
-37.569
-37.131
-36.7
-36.281
-35.879
-35.499
-35.145
-34.82
-34.528
-34.272
-34.054
-33.877
-33.742
-33.651
-33.603
-33.6
-33.641
-33.725
-33.851
-34.017
-34.221
-34.462
-34.735
-35.04
-35.372
-35.729
-36.106
-36.502
-36.913
-37.334
-37.764
-38.198
-38.634
-39.069
-39.5
-39.926
-40.344
-40.753
-41.151
-41.538
-41.912
-42.274
-42.621
-42.955
-43.276
-43.582
-43.876
-44.157
-44.427
-44.686
-44.935
-45.177
-45.412
-45.642
-45.868
-46.092
-46.315
-46.538
-46.764
-46.992
-47.224
-47.462
-47.707
-47.96
-48.22
-48.488
-48.765
-49.05
-49.341
-49.639
-49.942
-50.248
-50.555
-50.863
-51.17
-51.475
-51.775
-52.069
-52.355
-52.633
-52.9
-53.155
-53.397
-53.623
-53.833
-54.025
-54.2
-54.356
-54.492
-54.609
-54.705
-54.78
-54.833
-54.865
-54.874
-54.86
-54.823
-54.763
-54.679
-54.572
-54.442
-54.292
-54.122
-53.936
-53.734
-53.517
-53.289
-53.05
-52.8
-52.538
-52.262
-51.969
-51.658
-51.328
-50.977
-50.605
-50.208
-49.786
-49.339
-48.867
-48.367
-47.834
-47.255
-46.627
-45.95
-45.229
-44.474
-43.692
-42.887
-42.068
-41.248
-40.435
-39.629
-38.821
-37.988
-37.119
-36.21
-35.267
-34.309
-33.342
-32.36
-31.356
-30.32
-29.239
-28.109
-26.907
-25.598
-24.17
-22.628
-21.007
-19.37
-17.766
-16.223
-14.764
-13.398
-12.144
-11.032
-10.086
-9.326
-8.781
-8.481
-8.478
-8.845
-9.619
-10.808
-12.386
-14.283
-16.434
-18.782
-21.266
-23.834
-26.433
-29.007
-31.514
-33.92
-36.178
-38.232
-40.011
-41.435
-42.446
-43.014
-43.139
-42.866
-42.266
-41.453
-40.549
-39.673
-38.925
-38.366
-38.063
-38.101
-38.558
-39.528
-41.099
-43.299
-46.207
-49.968
-54.566
-59.836
-65.401
-70.567
-74.7
-77.351
-77.97
-76.015
-71.359
-64.193
-55.318
-46.27
-38.331
-32.425
-29.492
-30.042
-33.664
-39.2
-44.301
-45.559
-39.796
-23.875
5.388
50.251
110.173
181.846
260.807
342.862
428.115
518.297
610.07
693.436
751.537
768.421
737.842
665.251
564.011
446.514
323.037
202.286
93.785
10.207
-40.761
-60.7
-59.768
-51.165
-43.968
-40.336
-36.634
-30.869
-23.947
-18.041
-16.719
-20.939
-29.027
-39.252
-49.489
-57.697
-63.106
-65.441
-64.618
-61.287
-56.259
-50.22
-44.029
-38.504
-34.048
-30.85
-28.96
-28.192
-28.394
-29.462
-31.205
-33.449
-36.061
-38.911
-41.913
-44.982
-47.996
-50.815
-53.305
-55.367
-56.955
-58.047
-58.641
-58.75
-58.391
-57.599
-56.426
-54.917
-53.117
-51.074
-48.828
-46.433
-43.949
-41.435
-38.946
-36.525
-34.193
-31.96
-29.831
-27.799
-25.855
-23.984
-22.167
-20.385
-18.625
-16.873
-15.118
-13.345
-11.541
-9.688
-7.772
-5.782
-3.707
-1.542
0.721
3.085
5.555
8.137
10.832
13.645
16.582
19.65
22.854
26.198
29.684
33.31
37.072
40.966
44.987
49.13
53.391
57.762
62.229
66.782
71.401
76.066
80.75
85.42
90.038
94.577
99.012
103.325
107.509
111.552
115.447
119.188
122.759
126.148
129.347
132.342
135.125
137.7
140.077
142.279
144.344
146.29
148.124
149.847
151.437
152.871
154.121
155.149
155.931
156.448
156.679
156.609
156.22
155.478
154.343
152.765
150.668
147.994
144.697
140.748
136.149
130.916
125.076
118.67
111.734
104.301
96.408
88.101
79.43
70.463
61.274
51.948
42.604
33.362
24.343
15.645
7.338
-0.53
-7.92
-14.794
-21.12
-26.868
-32.015
-36.552
-40.477
-43.8
-46.525
-48.671
-50.275
-51.389
-52.082
-52.402
-52.376
-52.013
-51.321
-50.322
-49.037
-47.489
-45.695
-43.667
-41.417
-38.951
-36.306
-33.525
-30.655
-27.754
-24.855
-22.008
-19.283
-16.766
-14.536
-12.66
-11.187
-10.151
-9.598
-9.571
-10.115
-11.281
-13.068
-15.446
-18.357
-21.714
-25.438
-29.445
-33.623
-37.838
-41.974
-45.926
-49.618
-53.004
-56.018
-58.59
-60.644
-62.095
-62.902
-63.069
-62.618
-61.605
-60.093
-58.146
-55.86
-53.36
-50.744
-48.092
-45.462
-42.876
-40.377
-38.02
-35.861
-33.967
-32.378
-31.109
-30.166
-29.542
-29.217
-29.163
-29.33
-29.642
-30.046
-30.507
-31.003
-31.535
-32.092
-32.655
-33.207
-33.73
-34.212
-34.644
-35.02
-35.329
-35.572
-35.757
-35.9
-36.032
-36.171
-36.327
-36.503
-36.697
-36.906
-37.13
-37.365
-37.603
-37.84
-38.071
-38.297
-38.52
-38.738
-38.948
-39.144
-39.317
-39.463
-39.577
-39.657
-39.7
-39.706
-39.676
-39.612
-39.52
-39.403
-39.264
-39.108
-38.936
-38.75
-38.556
-38.356
-38.152
-37.95
-37.752
-37.563
-37.387
-37.228
-37.09
-36.977
-36.89
-36.833
-36.807
-36.814
-36.855
-36.932
-37.044
-37.193
-37.379
-37.602
-37.862
-38.157
-38.487
-38.85
-39.244
-39.667
-40.114
-40.584
-41.072
-41.575
-42.09
-42.614
-43.143
-43.673
-44.201
-44.724
-45.239
-45.743
-46.232
-46.704
-47.157
-47.588
-47.997
-48.382
-48.743
-49.078
-49.387
-49.67
-49.927
-50.158
-50.362
-50.541
-50.694
-50.822
-50.926
-51.007
-51.066
-51.104
-51.122
-51.121
-51.102
-51.066
-51.013
-50.942
-50.854
-50.749
-50.625
-50.482
-50.317
-50.13
-49.918
-49.679
-49.409
-49.105
-48.764
-48.382
-47.955
-47.48
-46.953
-46.372
-45.734
-45.037
-44.279
-43.458
-42.574
-41.626
-40.614
-39.539
-38.401
-37.202
-35.945
-34.632
-33.268
-31.859
-30.412
-28.936
-27.44
-25.935
-24.432
-22.943
-21.481
-20.057
-18.683
-17.372
-16.136
-14.987
-13.94
-13.009
-12.207
-11.548
-11.044
-10.704
-10.538
-10.548
-10.739
-11.112
-11.669
-12.421
-13.376
-14.541
-15.924
-17.527
-19.348
-21.379
-23.6
-25.982
-28.489
-31.085
-33.73
-36.393
-39.038
-41.629
-44.123
-46.464
-48.6
-50.477
-52.048
-53.267
-54.11
-54.584
-54.721
-54.59
-54.261
-53.795
-53.27
-52.777
-52.42
-52.311
-52.563
-53.258
-54.516
-56.53
-59.397
-63.079
-67.366
-71.784
-75.842
-79.162
-81.267
-81.549
-79.664
-75.631
-69.988
-64.012
-58.935
-55.542
-54.669
-57.094
-62.972
-71.632
-81.175
-88.306
-89.719
-82.487
-63.382
-29.367
21.75
89.235
168.839
255.363
344.707
437.313
535.372
635.155
725.59
788.914
808.581
778.825
705.923
603.536
484.088
358.007
234.361
123.474
39.114
-11.266
-30.397
-29.538
-23.135
-20.23
-21.939
-23.913
-23.514
-21.439
-20.076
-22.98
-31.037
-42.598
-55.963
-69.086
-79.985
-87.874
-92.455
-93.647
-92.068
-88.447
-83.336
-77.459
-71.598
-66.208
-61.561
-57.785
-54.727
-52.251
-50.284
-48.694
-47.36
-46.204
-45.151
-44.157
-43.238
-42.41
-41.686
-41.087
-40.604
-40.212
-39.893
-39.645
-39.484
-39.44
-39.533
-39.768
-40.149
-40.681
-41.365
-42.19
-43.107
-44.036
-44.895
-45.607
-46.118
-46.402
-46.432
-46.176
-45.607
-44.705
-43.459
-41.875
-39.957
-37.701
-35.119
-32.229
-29.079
-25.738
-22.265
-18.711
-15.111
-11.485
-7.852
-4.227
-0.615
2.99
6.596
10.217
13.86
17.525
21.22
24.958
28.756
32.643
36.638
40.75
44.986
49.345
53.825
58.421
63.122
67.906
72.756
77.653
82.58
87.523
92.466
97.388
102.267
107.081
111.809
116.43
120.926
125.275
129.457
133.452
137.244
140.817
144.158
147.246
150.064
152.594
154.818
156.728
158.315
159.568
160.481
161.047
161.262
161.128
160.649
159.819
158.636
157.097
155.199
152.953
150.37
147.462
144.241
140.713
136.881
132.761
128.368
123.711
118.804
113.653
108.262
102.667
96.905
91.007
85.011
78.936
72.802
66.635
60.461
54.309
48.211
42.188
36.257
30.453
24.804
19.345
14.114
9.107
4.317
-0.251
-4.605
-8.733
-12.624
-16.281
-19.707
-22.9
-25.864
-28.594
-31.084
-33.353
-35.414
-37.284
-38.99
-40.522
-41.873
-43.048
-44.046
-44.876
-45.55
-46.07
-46.439
-46.67
-46.779
-46.778
-46.688
-46.51
-46.252
-45.918
-45.513
-45.052
-44.553
-44.027
-43.485
-42.94
-42.398
-41.873
-41.378
-40.915
-40.489
-40.102
-39.755
-39.453
-39.201
-39
-38.851
-38.754
-38.707
-38.708
-38.757
-38.849
-38.981
-39.148
-39.344
-39.567
-39.813
-40.078
-40.356
-40.644
-40.937
-41.23
-41.52
-41.802
-42.071
-42.324
-42.556
-42.763
-42.943
-43.092
-43.207
-43.286
-43.327
-43.33
-43.293
-43.216
-43.1
-42.945
-42.753
-42.525
-42.264
-41.972
-41.651
-41.307
-40.942
-40.56
-40.166
-39.765
-39.361
-38.958
-38.561
-38.175
-37.804
-37.453
-37.124
-36.823
-36.553
-36.318
-36.121
-35.966
-35.855
-35.791
-35.776
-35.812
-35.9
-36.039
-36.231
-36.475
-36.77
-37.114
-37.506
-37.943
-38.422
-38.94
-39.493
-40.076
-40.686
-41.317
-41.965
-42.624
-43.29
-43.957
-44.622
-45.278
-45.922
-46.548
-47.154
-47.735
-48.287
-48.807
-49.292
-49.74
-50.148
-50.514
-50.838
-51.118
-51.353
-51.545
-51.694
-51.8
-51.866
-51.894
-51.886
-51.846
-51.777
-51.684
-51.571
-51.444
-51.306
-51.164
-51.023
-50.887
-50.762
-50.652
-50.563
-50.498
-50.462
-50.459
-50.491
-50.562
-50.675
-50.831
-51.031
-51.277
-51.569
-51.907
-52.29
-52.717
-53.186
-53.694
-54.24
-54.819
-55.428
-56.062
-56.716
-57.383
-58.058
-58.733
-59.4
-60.053
-60.682
-61.28
-61.84
-62.352
-62.809
-63.203
-63.526
-63.772
-63.934
-64.004
-63.977
-63.846
-63.607
-63.256
-62.789
-62.203
-61.496
-60.665
-59.712
-58.635
-57.435
-56.114
-54.674
-53.119
-51.453
-49.683
-47.814
-45.854
-43.813
-41.702
-39.535
-37.324
-35.084
-32.83
-30.579
-28.346
-26.148
-23.999
-21.913
-19.906
-17.992
-16.186
-14.504
-12.962
-11.575
-10.357
-9.32
-8.476
-7.835
-7.402
-7.183
-7.18
-7.398
-7.85
-8.549
-9.504
-10.721
-12.2
-13.937
-15.92
-18.13
-20.532
-23.09
-25.763
-28.509
-31.298
-34.093
-36.86
-39.556
-42.119
-44.488
-46.608
-48.432
-49.923
-51.066
-51.868
-52.359
-52.614
-52.709
-52.711
-52.714
-52.8
-53.073
-53.65
-54.634
-56.13
-58.283
-61.284
-65.227
-70.061
-75.553
-81.263
-86.768
-91.732
-95.748
-98.23
-98.76
-97.321
-94.366
-90.954
-88.08
-86.162
-85.532
-86.746
-90.11
-95.244
-100.757
-103.872
-101.642
-92.163
-73.496
-43.314
0.516
59.781
133.117
215.346
301.776
388.461
475.205
565.715
657.604
743.748
811.233
841.517
824.489
758.676
651.912
520.995
383.214
254.4
144.954
61.128
2.961
-36.231
-61.989
-80.753
-95.122
-101.603
-99.552
-89.908
-75.646
-62.888
-54.853
-51.984
-53.878
-58.878
-65.542
-72.836
-79.283
-83.393
-84.45
-82.451
-77.826
-71.3
-63.577
-55.27
-47.094
-39.774
-33.723
-29.071
-25.793
-23.736
-22.772
-22.847
-23.849
-25.622
-28.048
-31.012
-34.398
-38.11
-42.018
-45.968
-49.831
-53.494
-56.851
-59.818
-62.332
-64.345
-65.824
-66.741
-67.073
-66.819
-65.989
-64.612
-62.732
-60.402
-57.68
-54.634
-51.329
-47.827
-44.195
-40.495
-36.774
-33.066
-29.399
-25.794
-22.272
-18.848
-15.526
-12.299
-9.16
-6.099
-3.101
-0.153
2.766
5.68
8.614
11.597
14.65
17.787
21.021
24.361
27.812
31.381
35.069
38.869
42.779
46.796
50.918
55.139
59.455
63.855
68.328
72.862
77.444
82.062
86.703
91.352
95.998
100.625
105.219
109.768
114.255
118.665
122.98
127.182
131.253
135.174
138.927
142.493
145.854
148.993
151.893
154.54
156.916
159.009
160.804
162.29
163.456
164.291
164.787
164.938
164.738
164.183
163.273
162.006
160.386
158.414
156.095
153.436
150.445
147.13
143.502
139.574
135.358
130.869
126.124
121.138
115.931
110.521
104.929
99.174
93.278
87.264
81.152
74.966
68.727
62.459
56.184
49.924
43.7
37.535
31.447
25.457
19.584
13.845
8.257
2.834
-2.409
-7.459
-12.304
-16.934
-21.34
-25.515
-29.451
-33.145
-36.591
-39.788
-42.735
-45.432
-47.881
-50.084
-52.046
-53.771
-55.266
-56.537
-57.594
-58.445
-59.101
-59.571
-59.867
-60.002
-59.986
-59.832
-59.552
-59.158
-58.663
-58.078
-57.415
-56.684
-55.896
-55.062
-54.193
-53.296
-52.381
-51.458
-50.532
-49.613
-48.705
-47.816
-46.95
-46.113
-45.308
-44.539
-43.809
-43.12
-42.476
-41.876
-41.321
-40.813
-40.35
-39.931
-39.556
-39.223
-38.93
-38.675
-38.456
-38.271
-38.119
-37.997
-37.905
-37.839
-37.799
-37.782
-37.787
-37.812
-37.857
-37.918
-37.995
-38.088
-38.194
-38.313
-38.444
-38.585
-38.737
-38.897
-39.066
-39.24
-39.42
-39.604
-39.791
-39.98
-40.171
-40.362
-40.554
-40.745
-40.934
-41.122
-41.306
-41.486
-41.66
-41.828
-41.987
-42.138
-42.277
-42.406
-42.521
-42.624
-42.711
-42.783
-42.839
-42.878
-42.899
-42.901
-42.885
-42.85
-42.797
-42.726
-42.638
-42.535
-42.418
-42.288
-42.148
-41.999
-41.843
-41.682
-41.518
-41.353
-41.19
-41.03
-40.877
-40.733
-40.601
-40.482
-40.379
-40.294
-40.23
-40.187
-40.168
-40.174
-40.206
-40.266
-40.354
-40.473
-40.622
-40.803
-41.016
-41.26
-41.534
-41.839
-42.172
-42.532
-42.917
-43.325
-43.753
-44.199
-44.661
-45.136
-45.62
-46.112
-46.607
-47.104
-47.598
-48.088
-48.57
-49.042
-49.501
-49.945
-50.373
-50.782
-51.171
-51.536
-51.877
-52.191
-52.475
-52.725
-52.938
-53.113
-53.247
-53.337
-53.383
-53.383
-53.338
-53.249
-53.115
-52.934
-52.707
-52.432
-52.107
-51.733
-51.305
-50.822
-50.28
-49.677
-49.014
-48.287
-47.494
-46.628
-45.681
-44.649
-43.533
-42.334
-41.057
-39.711
-38.306
-36.86
-35.402
-33.956
-32.541
-31.177
-29.874
-28.648
-27.517
-26.498
-25.602
-24.834
-24.184
-23.639
-23.184
-22.787
-22.408
-21.995
-21.483
-20.822
-19.977
-18.921
-17.64
-16.118
-14.338
-12.306
-10.044
-7.59
-5.002
-2.346
0.304
2.848
5.165
7.136
8.643
9.597
9.942
9.629
8.625
6.908
4.463
1.315
-2.484
-6.862
-11.727
-16.969
-22.466
-28.067
-33.604
-38.938
-43.963
-48.617
-52.874
-56.7
-60.059
-62.949
-65.395
-67.468
-69.272
-70.906
-72.463
-74.094
-76.026
-78.415
-81.281
-84.457
-87.554
-90.173
-92.05
-92.876
-92.182
-89.704
-85.562
-80.274
-74.924
-70.567
-67.673
-66.606
-67.893
-71.611
-77.111
-82.935
-86.442
-84.781
-75.996
-58.194
-29.194
12.543
67.679
135.501
213.266
297.317
384.319
470.224
549.616
616.887
666.884
695.444
701.731
687.428
651.988
595.435
518.092
418.068
302.577
184.995
77.909
-2.67
-52.024
-78.316
-89.306
-95.197
-100.423
-100.505
-94.071
-82.094
-67.397
-55.28
-48.144
-45.699
-47.043
-50.84
-55.968
-61.224
-65.203
-67.008
-66.447
-63.943
-60.21
-55.824
-51.255
-47.065
-43.838
-41.94
-41.467
-42.284
-44.114
-46.716
-49.91
-53.497
-57.267
-61.041
-64.657
-67.985
-70.934
-73.407
-75.327
-76.652
-77.358
-77.445
-76.943
-75.891
-74.341
-72.361
-70.011
-67.35
-64.435
-61.32
-58.066
-54.736
-51.387
-48.07
-44.822
-41.667
-38.621
-35.691
-32.873
-30.161
-27.539
-24.99
-22.499
-20.057
-17.652
-15.273
-12.906
-10.538
-8.154
-5.741
-3.286
-0.776
1.797
4.445
7.176
9.996
12.912
15.928
19.05
22.285
25.637
29.112
32.713
36.444
40.304
44.293
48.411
52.652
57.012
61.483
66.057
70.723
75.472
80.289
85.161
90.073
95.008
99.949
104.877
109.771
114.613
119.38
124.051
128.603
133.014
137.262
141.325
145.18
148.808
152.186
155.296
158.119
160.638
162.835
164.696
166.208
167.358
168.136
168.534
168.545
168.165
167.39
166.22
164.657
162.702
160.362
157.643
154.554
151.106
147.311
143.183
138.738
133.994
128.969
123.683
118.158
112.415
106.479
100.372
94.118
87.743
81.271
74.727
68.135
61.52
54.906
48.316
41.773
35.3
28.919
22.649
16.51
10.521
4.7
-0.939
-6.38
-11.61
-16.618
-21.393
-25.927
-30.213
-34.244
-38.017
-41.529
-44.779
-47.767
-50.496
-52.968
-55.188
-57.161
-58.896
-60.398
-61.678
-62.743
-63.604
-64.272
-64.757
-65.069
-65.222
-65.226
-65.094
-64.838
-64.469
-64
-63.441
-62.806
-62.104
-61.346
-60.543
-59.704
-58.838
-57.955
-57.062
-56.167
-55.276
-54.397
-53.535
-52.694
-51.879
-51.092
-50.337
-49.614
-48.926
-48.273
-47.656
-47.074
-46.527
-46.014
-45.534
-45.086
-44.669
-44.28
-43.917
-43.578
-43.261
-42.965
-42.686
-42.424
-42.175
-41.939
-41.714
-41.498
-41.289
-41.086
-40.887
-40.692
-40.499
-40.307
-40.116
-39.925
-39.734
-39.543
-39.353
-39.164
-38.978
-38.795
-38.616
-38.442
-38.276
-38.117
-37.967
-37.829
-37.702
-37.589
-37.491
-37.409
-37.344
-37.296
-37.266
-37.255
-37.262
-37.288
-37.332
-37.395
-37.475
-37.573
-37.688
-37.82
-37.968
-38.131
-38.309
-38.501
-38.705
-38.92
-39.145
-39.38
-39.621
-39.87
-40.122
-40.379
-40.638
-40.897
-41.157
-41.415
-41.67
-41.922
-42.17
-42.413
-42.652
-42.886
-43.116
-43.342
-43.565
-43.786
-44.005
-44.224
-44.443
-44.665
-44.89
-45.119
-45.354
-45.597
-45.848
-46.11
-46.382
-46.668
-46.966
-47.279
-47.606
-47.949
-48.308
-48.681
-49.07
-49.474
-49.891
-50.32
-50.76
-51.21
-51.665
-52.124
-52.583
-53.039
-53.488
-53.926
-54.348
-54.749
-55.125
-55.47
-55.78
-56.048
-56.27
-56.439
-56.551
-56.599
-56.578
-56.482
-56.307
-56.047
-55.697
-55.254
-54.714
-54.073
-53.329
-52.481
-51.526
-50.465
-49.299
-48.029
-46.656
-45.186
-43.623
-41.971
-40.237
-38.428
-36.552
-34.62
-32.642
-30.631
-28.599
-26.561
-24.532
-22.527
-20.561
-18.648
-16.802
-15.038
-13.367
-11.806
-10.367
-9.068
-7.922
-6.944
-6.145
-5.535
-5.122
-4.909
-4.9
-5.093
-5.489
-6.098
-6.926
-7.983
-9.275
-10.805
-12.57
-14.56
-16.754
-19.125
-21.642
-24.273
-26.983
-29.748
-32.538
-35.325
-38.073
-40.727
-43.231
-45.526
-47.55
-49.255
-50.61
-51.614
-52.291
-52.696
-52.88
-52.877
-52.738
-52.528
-52.337
-52.272
-52.45
-52.97
-53.975
-55.712
-58.312
-61.737
-65.748
-69.78
-73.231
-75.692
-76.711
-75.741
-72.614
-67.592
-61.471
-55.973
-52.806
-52.992
-57.35
-66.404
-79.79
-96.291
-113.548
-127.467
-133.612
-128.445
-108.987
-72.75
-18.293
54.417
143.722
244.11
347.384
446.504
535.946
614.53
683.815
742.657
786.362
803.249
781.106
712.959
597.466
449.055
289.145
140.948
30.393
-33.355
-53.932
-44.134
-27.281
-16.717
-16.302
-24.021
-30.97
-34.092
-35.136
-36.284
-41.195
-50.447
-61.937
-74.065
-84.987
-93.141
-98.194
-100.094
-99.003
-95.612
-90.628
-84.623
-78.277
-72.267
-66.967
-62.572
-59.133
-56.494
-54.529
-53.155
-52.235
-51.621
-51.203
-50.889
-50.627
-50.411
-50.211
-49.977
-49.673
-49.277
-48.773
-48.175
-47.502
-46.778
-46.033
-45.297
-44.598
-43.968
-43.43
-42.987
-42.622
-42.299
-41.986
-41.66
-41.295
-40.857
-40.316
-39.638
-38.793
-37.762
-36.526
-35.069
-33.379
-31.448
-29.276
-26.88
-24.29
-21.549
-18.695
-15.751
-12.74
-9.684
-6.6
-3.502
-0.392
2.736
5.889
9.073
12.291
15.552
18.864
22.244
25.712
29.292
33.002
36.851
40.848
44.997
49.299
53.751
58.344
63.06
67.884
72.802
77.797
82.853
87.952
93.073
98.192
103.287
108.335
113.311
118.193
122.957
127.58
132.041
136.317
140.389
144.237
147.84
151.181
154.238
156.996
159.438
161.548
163.312
164.717
165.755
166.415
166.692
166.578
166.07
165.166
163.865
162.171
160.088
157.622
154.779
151.57
148.006
144.102
139.871
135.329
130.494
125.381
120.015
114.418
108.615
102.633
96.492
90.214
83.821
77.338
70.787
64.193
57.575
50.954
44.356
37.805
31.328
24.951
18.69
12.564
6.584
0.757
-4.885
-10.317
-15.512
-20.437
-25.095
-29.495
-33.621
-37.47
-41.034
-44.279
-47.267
-50.068
-52.578
-54.731
-56.448
-57.598
-58.346
-58.91
-59.229
-59.271
-59.292
-59.426
-59.993
-61.398
-63.267
-65.172
-67.125
-69.028
-70.613
-71.793
-72.092
-70.957
-68.888
-66.404
-63.609
-60.779
-58.077
-55.509
-53.528
-52.612
-52.406
-52.58
-53.018
-53.459
-53.91
-54.455
-54.862
-54.921
-54.775
-54.532
-54.266
-54.109
-54.004
-53.875
-53.767
-53.703
-53.66
-53.631
-53.587
-53.491
-53.361
-53.216
-53.057
-52.892
-52.713
-52.506
-52.271
-52.006
-51.709
-51.379
-51.012
-50.605
-50.157
-49.666
-49.132
-48.555
-47.936
-47.275
-46.578
-45.847
-45.091
-44.316
-43.528
-42.736
-41.944
-41.158
-40.383
-39.622
-38.879
-38.16
-37.477
-36.84
-36.257
-35.726
-35.241
-34.801
-34.403
-34.048
-33.727
-33.432
-33.158
-32.911
-32.709
-32.57
-32.504
-32.51
-32.58
-32.702
-32.877
-33.117
-33.436
-33.841
-34.334
-34.928
-35.643
-36.512
-37.546
-38.726
-40.009
-41.351
-42.727
-44.125
-45.546
-46.983
-48.419
-49.831
-51.197
-52.509
-53.755
-54.907
-55.922
-56.743
-57.348
-57.753
-58.005
-58.149
-58.209
-58.197
-58.119
-57.99
-57.832
-57.662
-57.485
-57.301
-57.115
-56.95
-56.847
-56.85
-56.979
-57.22
-57.536
-57.896
-58.281
-58.678
-59.074
-59.449
-59.781
-60.06
-60.29
-60.473
-60.607
-60.675
-60.653
-60.514
-60.245
-59.848
-59.331
-58.701
-57.962
-57.114
-56.163
-55.118
-53.985
-52.764
-51.446
-50.026
-48.503
-46.88
-45.167
-43.37
-41.496
-39.552
-37.545
-35.484
-33.381
-31.247
-29.093
-26.931
-24.775
-22.641
-20.549
-18.517
-16.562
-14.702
-12.954
-11.334
-9.86
-8.549
-7.416
-6.475
-5.74
-5.223
-4.935
-4.879
-5.061
-5.483
-6.147
-7.06
-8.226
-9.644
-11.317
-13.244
-15.419
-17.831
-20.456
-23.26
-26.206
-29.257
-32.376
-35.537
-38.705
-41.846
-44.926
-47.898
-50.716
-53.34
-55.722
-57.817
-59.592
-61.027
-62.148
-63.016
-63.695
-64.246
-64.706
-65.106
-65.508
-65.988
-66.624
-67.504
-68.688
-70.261
-72.405
-75.221
-78.661
-82.489
-86.177
-89.11
-90.815
-90.79
-88.422
-83.389
-75.792
-66.303
-56.421
-47.792
-41.646
-39.062
-41.01
-47.798
-58.708
-71.737
-83.333
-89.45
-86.307
-70.289
-38.124
12.925
82.801
167.975
263.734
364.065
465.152
567.614
668.474
760.101
832.825
871.45
863.91
809.38
709.036
568.258
402.508
226
60.127
-65.799
-138.955
-158.03
-135.606
-100.494
-70.601
-52.842
-46.484
-41.233
-33.128
-24.115
-16.69
-15.153
-20.166
-29.129
-39.825
-49.704
-56.88
-60.943
-61.849
-59.964
-56.182
-51.381
-46.312
-41.741
-38.286
-36.203
-35.563
-36.257
-38.016
-40.607
-43.824
-47.451
-51.298
-55.21
-59.049
-62.683
-66.001
-68.875
-71.209
-72.945
-74.051
-74.524
-74.378
-73.647
-72.375
-70.622
-68.447
-65.901
-63.038
-59.912
-56.587
-53.132
-49.616
-46.105
-42.646
-39.274
-36.011
-32.868
-29.848
-26.945
-24.146
-21.434
-18.798
-16.227
-13.711
-11.243
-8.808
-6.394
-3.985
-1.566
0.876
3.353
5.877
8.458
11.103
13.821
16.616
19.494
22.461
25.523
28.687
31.96
35.346
38.849
42.473
46.22
50.09
54.08
58.188
62.408
66.734
71.157
75.669
80.258
84.913
89.62
94.365
99.132
103.903
108.661
113.387
118.061
122.663
127.171
131.564
135.821
139.921
143.841
147.562
151.064
154.325
157.329
160.056
162.489
164.613
166.414
167.877
168.992
169.747
170.137
170.152
169.791
169.049
167.926
166.422
164.541
162.287
159.666
156.687
153.358
149.692
145.701
141.399
136.803
131.931
126.8
121.43
115.843
110.06
104.103
97.995
91.76
85.421
79.001
72.525
66.017
59.498
52.994
46.526
40.115
33.783
27.55
21.434
15.455
9.629
3.971
-1.503
-6.781
-11.85
-16.701
-21.322
-25.708
-29.851
-33.746
-37.389
-40.779
-43.915
-46.797
-49.428
-51.81
-53.949
-55.849
-57.519
-58.966
-60.199
-61.226
-62.059
-62.708
-63.185
-63.499
-63.665
-63.693
-63.594
-63.383
-63.069
-62.665
-62.183
-61.633
-61.026
-60.372
-59.683
-58.967
-58.233
-57.491
-56.748
-56.012
-55.289
-54.586
-53.91
-53.263
-52.651
-52.077
-51.543
-51.051
-50.603
-50.199
-49.838
-49.52
-49.244
-49.009
-48.813
-48.653
-48.528
-48.434
-48.369
-48.331
-48.315
-48.32
-48.342
-48.379
-48.427
-48.483
-48.545
-48.61
-48.675
-48.738
-48.795
-48.845
-48.885
-48.913
-48.926
-48.922
-48.901
-48.861
-48.801
-48.721
-48.62
-48.498
-48.357
-48.197
-48.018
-47.822
-47.609
-47.382
-47.141
-46.888
-46.626
-46.355
-46.078
-45.796
-45.512
-45.227
-44.944
-44.664
-44.39
-44.123
-43.865
-43.619
-43.388
-43.172
-42.976
-42.801
-42.65
-42.526
-42.429
-42.364
-42.33
-42.33
-42.365
-42.437
-42.545
-42.69
-42.874
-43.097
-43.357
-43.656
-43.993
-44.367
-44.777
-45.224
-45.704
-46.218
-46.764
-47.341
-47.948
-48.582
-49.242
-49.925
-50.63
-51.354
-52.094
-52.846
-53.609
-54.377
-55.149
-55.92
-56.688
-57.448
-58.198
-58.935
-59.654
-60.354
-61.031
-61.682
-62.305
-62.897
-63.455
-63.977
-64.461
-64.905
-65.305
-65.661
-65.968
-66.225
-66.427
-66.573
-66.66
-66.685
-66.648
-66.547
-66.382
-66.154
-65.863
-65.51
-65.095
-64.618
-64.078
-63.473
-62.802
-62.065
-61.258
-60.379
-59.429
-58.408
-57.317
-56.159
-54.933
-53.633
-52.261
-50.822
-49.323
-47.776
-46.193
-44.59
-42.986
-41.413
-39.898
-38.466
-37.14
-35.928
-34.834
-33.868
-33.038
-32.353
-31.815
-31.406
-31.107
-30.902
-30.771
-30.695
-30.641
-30.549
-30.372
-30.073
-29.626
-29.036
-28.316
-27.472
-26.518
-25.484
-24.408
-23.353
-22.389
-21.546
-20.858
-20.36
-20.094
-20.143
-20.569
-21.404
-22.661
-24.322
-26.35
-28.721
-31.394
-34.293
-37.342
-40.445
-43.514
-46.55
-49.559
-52.548
-55.514
-58.397
-61.161
-63.839
-66.489
-69.189
-72.016
-74.992
-78.197
-81.843
-86.037
-90.743
-95.72
-100.369
-104.124
-106.612
-107.338
-105.682
-101.344
-94.401
-85.536
-76.372
-68.319
-62.235
-59.402
-60.937
-66.997
-77.143
-88.178
-95.349
-96.193
-87.521
-68.737
-39.459
6.024
68.206
148.652
248.649
360.368
482.873
612.255
735.177
842.01
914.765
934.736
899.041
808.186
670.039
504.623
327.643
158.979
23.584
-68.343
-113.985
-122.124
-116.022
-109.117
-106.705
-108.358
-104.76
-93.715
-79.336
-65.305
-56.679
-55.014
-58.171
-64.265
-71.422
-77.547
-81.138
-81.46
-78.29
-72.106
-63.862
-54.395
-44.427
-34.815
-26.342
-19.465
-14.401
-11.12
-9.425
-9.16
-10.188
-12.331
-15.387
-19.179
-23.544
-28.325
-33.386
-38.565
-43.682
-48.59
-53.167
-57.287
-60.869
-63.847
-66.155
-67.774
-68.709
-68.963
-68.566
-67.562
-65.992
-63.929
-61.449
-58.622
-55.526
-52.229
-48.793
-45.292
-41.783
-38.302
-34.886
-31.553
-28.309
-25.163
-22.114
-19.149
-16.261
-13.432
-10.641
-7.875
-5.117
-2.346
0.459
3.326
6.278
9.329
12.492
15.774
19.181
22.718
26.387
30.181
34.096
38.13
42.276
46.532
50.894
55.351
59.896
64.516
69.201
73.941
78.726
83.544
88.383
93.232
98.077
102.907
107.705
112.453
117.132
121.722
126.204
130.559
134.767
138.808
142.665
146.319
149.755
152.954
155.896
158.558
160.917
162.963
164.685
166.078
167.147
167.891
168.313
168.424
168.227
167.724
166.908
165.762
164.269
162.422
160.223
157.684
154.821
151.634
148.12
144.281
140.101
135.575
130.691
125.421
119.755
113.706
107.306
100.614
93.705
86.632
79.439
72.163
64.831
57.489
50.181
42.947
35.837
28.904
22.209
15.835
9.85
4.283
-0.859
-5.608
-10.015
-14.111
-17.918
-21.46
-24.746
-27.796
-30.63
-33.252
-35.677
-37.926
-40.035
-42.06
-44.05
-46.023
-47.981
-49.902
-51.745
-53.487
-55.111
-56.594
-57.928
-59.106
-60.123
-60.992
-61.726
-62.327
-62.791
-63.103
-63.249
-63.23
-63.053
-62.735
-62.304
-61.777
-61.172
-60.512
-59.812
-59.084
-58.335
-57.566
-56.774
-55.96
-55.128
-54.284
-53.436
-52.588
-51.743
-50.904
-50.07
-49.242
-48.42
-47.602
-46.787
-45.977
-45.173
-44.377
-43.596
-42.832
-42.089
-41.371
-40.68
-40.018
-39.388
-38.791
-38.229
-37.702
-37.212
-36.761
-36.35
-35.981
-35.654
-35.372
-35.134
-34.943
-34.798
-34.699
-34.647
-34.641
-34.681
-34.764
-34.891
-35.059
-35.268
-35.514
-35.797
-36.114
-36.461
-36.836
-37.236
-37.656
-38.093
-38.542
-38.999
-39.46
-39.92
-40.376
-40.824
-41.261
-41.682
-42.086
-42.468
-42.825
-43.156
-43.457
-43.727
-43.965
-44.168
-44.336
-44.47
-44.569
-44.633
-44.664
-44.663
-44.631
-44.57
-44.482
-44.369
-44.236
-44.083
-43.916
-43.738
-43.554
-43.368
-43.184
-43.008
-42.844
-42.697
-42.571
-42.472
-42.403
-42.368
-42.372
-42.417
-42.507
-42.644
-42.831
-43.069
-43.358
-43.7
-44.095
-44.54
-45.035
-45.578
-46.166
-46.797
-47.467
-48.172
-48.907
-49.669
-50.452
-51.249
-52.055
-52.863
-53.665
-54.453
-55.221
-55.959
-56.661
-57.317
-57.92
-58.461
-58.933
-59.327
-59.637
-59.856
-59.976
-59.991
-59.897
-59.688
-59.36
-58.911
-58.338
-57.64
-56.816
-55.867
-54.792
-53.596
-52.28
-50.848
-49.304
-47.656
-45.909
-44.072
-42.154
-40.164
-38.114
-36.018
-33.889
-31.741
-29.591
-27.454
-25.347
-23.288
-21.292
-19.375
-17.553
-15.842
-14.256
-12.81
-11.519
-10.397
-9.458
-8.713
-8.175
-7.851
-7.747
-7.865
-8.208
-8.776
-9.575
-10.608
-11.877
-13.383
-15.127
-17.104
-19.307
-21.713
-24.292
-27.009
-29.827
-32.708
-35.619
-38.525
-41.388
-44.171
-46.828
-49.311
-51.578
-53.58
-55.273
-56.625
-57.622
-58.289
-58.683
-58.875
-58.933
-58.915
-58.88
-58.91
-59.101
-59.551
-60.356
-61.597
-63.376
-65.876
-69.214
-73.35
-78.061
-82.866
-87.203
-90.617
-92.613
-92.532
-89.922
-84.768
-77.602
-69.712
-62.559
-57.183
-54.51
-55.571
-60.899
-69.986
-81.047
-90.826
-95.603
-91.96
-76.524
-45.78
3.586
71.35
153.354
244.923
340.403
439.26
546.32
658.376
766.549
854.637
898.357
886.143
818.242
702.895
560.08
406.74
256.681
125.752
23.596
-44.955
-81.263
-96.952
-103.719
-108.301
-111.982
-109.614
-98.029
-79.056
-57.4
-39.226
-27.424
-21.42
-20.083
-22.163
-26.876
-33.9
-41.704
-48.304
-52.985
-55.806
-57.107
-57.392
-56.711
-54.765
-52.123
-49.87
-48.535
-48.348
-49.237
-50.836
-53.109
-56.286
-60.217
-64.458
-68.637
-72.394
-75.54
-78.108
-80.048
-81.226
-81.574
-81.099
-79.856
-77.975
-75.579
-72.724
-69.46
-65.838
-61.907
-57.755
-53.484
-49.18
-44.923
-40.78
-36.801
-33.054
-29.623
-26.548
-23.832
-21.437
-19.283
-17.313
-15.5
-13.817
-12.241
-10.737
-9.257
-7.771
-6.261
-4.703
-3.066
-1.301
0.663
2.864
5.315
8.005
10.896
13.963
17.2
20.597
24.14
27.821
31.626
35.557
39.629
43.843
48.191
52.655
57.202
61.81
66.473
71.186
75.954
80.777
85.646
90.556
95.501
100.47
105.449
110.416
115.338
120.189
124.945
129.586
134.093
138.447
142.623
146.598
150.351
153.858
157.099
160.053
162.696
165.01
166.979
168.59
169.832
170.696
171.175
171.261
170.951
170.242
169.134
167.626
165.721
163.422
160.737
157.674
154.244
150.46
146.336
141.888
137.135
132.095
126.789
121.239
115.467
109.496
103.35
97.054
90.633
84.112
77.516
70.87
64.2
57.532
50.888
44.294
37.771
31.343
25.03
18.852
12.828
6.975
1.31
-4.153
-9.401
-14.421
-19.202
-23.738
-28.019
-32.041
-35.799
-39.293
-42.521
-45.484
-48.186
-50.63
-52.821
-54.767
-56.474
-57.952
-59.211
-60.261
-61.114
-61.782
-62.279
-62.616
-62.807
-62.866
-62.807
-62.642
-62.385
-62.047
-61.642
-61.18
-60.673
-60.131
-59.564
-58.982
-58.392
-57.802
-57.22
-56.652
-56.103
-55.577
-55.079
-54.61
-54.174
-53.77
-53.4
-53.063
-52.757
-52.481
-52.231
-52.006
-51.802
-51.613
-51.437
-51.268
-51.103
-50.936
-50.764
-50.582
-50.387
-50.177
-49.948
-49.698
-49.426
-49.131
-48.811
-48.466
-48.097
-47.704
-47.287
-46.848
-46.387
-45.908
-45.413
-44.903
-44.382
-43.853
-43.321
-42.788
-42.259
-41.738
-41.23
-40.739
-40.271
-39.83
-39.421
-39.048
-38.716
-38.427
-38.186
-37.994
-37.854
-37.767
-37.732
-37.751
-37.821
-37.942
-38.112
-38.328
-38.588
-38.889
-39.227
-39.6
-40.002
-40.43
-40.881
-41.35
-41.833
-42.325
-42.823
-43.321
-43.817
-44.306
-44.783
-45.245
-45.688
-46.108
-46.502
-46.867
-47.201
-47.501
-47.768
-47.999
-48.196
-48.36
-48.491
-48.593
-48.669
-48.721
-48.753
-48.769
-48.773
-48.77
-48.764
-48.759
-48.76
-48.77
-48.795
-48.838
-48.902
-48.991
-49.108
-49.256
-49.436
-49.651
-49.902
-50.191
-50.518
-50.884
-51.288
-51.73
-52.208
-52.72
-53.263
-53.833
-54.425
-55.033
-55.652
-56.274
-56.892
-57.499
-58.086
-58.646
-59.171
-59.652
-60.081
-60.451
-60.753
-60.979
-61.123
-61.177
-61.134
-60.99
-60.739
-60.376
-59.897
-59.3
-58.583
-57.742
-56.777
-55.688
-54.475
-53.141
-51.689
-50.122
-48.447
-46.672
-44.805
-42.856
-40.839
-38.765
-36.65
-34.507
-32.354
-30.207
-28.081
-25.995
-23.962
-22.001
-20.127
-18.357
-16.706
-15.191
-13.826
-12.628
-11.613
-10.795
-10.185
-9.79
-9.615
-9.667
-9.95
-10.473
-11.243
-12.262
-13.532
-15.054
-16.829
-18.848
-21.093
-23.528
-26.113
-28.811
-31.583
-34.401
-37.232
-40.041
-42.789
-45.435
-47.936
-50.252
-52.348
-54.179
-55.713
-56.932
-57.853
-58.548
-59.102
-59.596
-60.098
-60.645
-61.282
-62.097
-63.173
-64.6
-66.485
-68.87
-71.852
-75.646
-80.273
-85.575
-91.22
-96.507
-100.762
-103.582
-104.359
-102.379
-97.582
-90.27
-81.278
-72.442
-65.163
-60.196
-58.755
-61.763
-68.753
-78.484
-88.425
-94.346
-92.729
-80.665
-54.315
-10.207
51.892
129.396
218.434
312.895
411.779
518.833
630.372
738.532
827.542
874.255
869.174
813.643
717.612
599.53
469.136
332.491
197.853
74.638
-22.701
-84.204
-110.898
-113.435
-105.903
-97.602
-90.936
-82.536
-70.219
-55.899
-42.879
-34.981
-33.636
-37.537
-44.76
-53.26
-61.157
-66.969
-69.921
-69.854
-67.11
-62.469
-56.731
-50.596
-44.829
-40.143
-36.896
-35.187
-34.924
-35.84
-37.72
-40.399
-43.664
-47.297
-51.119
-54.975
-58.742
-62.327
-65.611
-68.464
-70.8
-72.562
-73.729
-74.316
-74.344
-73.843
-72.859
-71.445
-69.656
-67.545
-65.168
-62.575
-59.822
-56.968
-54.069
-51.177
-48.33
-45.548
-42.842
-40.209
-37.644
-35.133
-32.661
-30.207
-27.756
-25.294
-22.809
-20.29
-17.725
-15.1
-12.403
-9.619
-6.739
-3.754
-0.657
2.558
5.895
9.356
12.944
16.658
20.501
24.472
28.574
32.805
37.165
41.649
46.251
50.967
55.787
60.702
65.702
70.776
75.91
81.092
86.311
91.552
96.8
102.039
107.249
112.413
117.51
122.52
127.421
132.19
136.805
141.245
145.491
149.524
153.323
156.867
160.13
163.091
165.734
168.048
170.021
171.648
172.921
173.846
174.437
174.706
174.667
174.324
173.669
172.699
171.414
169.812
167.9
165.669
163.099
160.179
156.9
153.253
149.232
144.81
139.941
134.594
128.746
122.401
115.586
108.332
100.668
92.639
84.3
75.725
67.016
58.255
49.507
40.844
32.331
24.058
16.145
8.685
1.752
-4.603
-10.361
-15.506
-20.022
-23.923
-27.247
-30.054
-32.434
-34.45
-36.143
-37.56
-38.743
-39.755
-40.681
-41.585
-42.507
-43.482
-44.526
-45.656
-46.891
-48.223
-49.623
-51.048
-52.439
-53.76
-54.995
-56.127
-57.143
-58.024
-58.745
-59.293
-59.672
-59.885
-59.936
-59.829
-59.564
-59.157
-58.635
-58.029
-57.374
-56.694
-56.005
-55.32
-54.651
-54.007
-53.397
-52.823
-52.28
-51.766
-51.282
-50.829
-50.409
-50.02
-49.658
-49.318
-48.995
-48.685
-48.386
-48.096
-47.812
-47.532
-47.257
-46.987
-46.724
-46.467
-46.217
-45.971
-45.727
-45.483
-45.237
-44.988
-44.73
-44.464
-44.186
-43.896
-43.594
-43.28
-42.956
-42.622
-42.28
-41.933
-41.583
-41.232
-40.884
-40.54
-40.203
-39.875
-39.559
-39.256
-38.968
-38.698
-38.447
-38.217
-38.007
-37.82
-37.656
-37.514
-37.397
-37.305
-37.237
-37.196
-37.183
-37.199
-37.245
-37.324
-37.435
-37.58
-37.759
-37.971
-38.216
-38.492
-38.797
-39.13
-39.487
-39.867
-40.266
-40.683
-41.114
-41.557
-42.009
-42.467
-42.93
-43.395
-43.859
-44.322
-44.781
-45.237
-45.688
-46.135
-46.576
-47.013
-47.445
-47.872
-48.293
-48.708
-49.116
-49.516
-49.908
-50.291
-50.664
-51.028
-51.382
-51.727
-52.063
-52.392
-52.713
-53.029
-53.34
-53.648
-53.953
-54.258
-54.564
-54.872
-55.184
-55.5
-55.821
-56.149
-56.481
-56.818
-57.157
-57.498
-57.838
-58.173
-58.501
-58.816
-59.117
-59.399
-59.661
-59.897
-60.106
-60.286
-60.434
-60.55
-60.631
-60.673
-60.673
-60.627
-60.533
-60.384
-60.177
-59.906
-59.563
-59.145
-58.647
-58.065
-57.392
-56.619
-55.738
-54.742
-53.632
-52.412
-51.085
-49.661
-48.151
-46.576
-44.963
-43.337
-41.715
-40.117
-38.552
-37.038
-35.596
-34.242
-32.995
-31.86
-30.832
-29.901
-29.056
-28.269
-27.501
-26.706
-25.82
-24.8
-23.622
-22.265
-20.724
-18.992
-17.058
-14.929
-12.623
-10.171
-7.62
-5.03
-2.473
-0.047
2.127
3.927
5.222
5.914
5.94
5.256
3.837
1.675
-1.232
-4.863
-9.17
-14.094
-19.559
-25.462
-31.676
-38.039
-44.361
-50.461
-56.167
-61.345
-65.918
-69.832
-73.079
-75.661
-77.578
-78.865
-79.588
-79.837
-79.733
-79.413
-79.002
-78.704
-78.798
-79.462
-80.767
-82.572
-84.466
-86.041
-86.974
-86.872
-85.281
-81.924
-76.773
-70.351
-63.837
-58.374
-54.796
-53.764
-55.753
-60.96
-69.097
-78.695
-86.988
-90.925
-87.681
-74.592
-49.222
-9.208
47.629
120.23
204.013
294.271
385.538
476.629
571.505
668.209
760.57
835.864
872.944
860.098
795.005
682.881
541.284
386.985
235.806
106
8.721
-51.087
-76.576
-81.773
-79.524
-76.929
-75.756
-71.139
-60.727
-47.269
-34.442
-26.699
-25.999
-30.996
-39.731
-50.245
-60.461
-68.669
-73.955
-75.911
-74.741
-71.226
-66.134
-60.153
-54.139
-48.897
-44.858
-42.22
-40.922
-40.708
-41.398
-42.842
-44.845
-47.214
-49.784
-52.427
-55.057
-57.6
-59.956
-62.006
-63.636
-64.767
-65.368
-65.432
-64.979
-64.036
-62.636
-60.829
-58.674
-56.226
-53.542
-50.675
-47.673
-44.591
-41.486
-38.415
-35.432
-32.575
-29.862
-27.302
-24.892
-22.622
-20.48
-18.449
-16.501
-14.617
-12.779
-10.966
-9.165
-7.357
-5.52
-3.636
-1.685
0.352
2.49
4.74
7.117
9.629
12.286
15.094
18.059
21.186
24.481
27.949
31.595
35.42
39.425
43.608
47.967
52.495
57.184
62.025
67.003
72.105
77.313
82.611
87.978
93.393
98.834
104.277
109.698
115.072
120.373
125.575
130.653
135.58
140.332
144.883
149.21
153.288
157.095
160.61
163.811
166.679
169.196
171.345
173.113
174.486
175.453
176.006
176.138
175.846
175.129
173.986
172.423
170.443
168.055
165.268
162.095
158.55
154.647
150.405
145.841
140.976
135.831
130.429
124.791
118.943
112.908
106.71
100.375
93.928
87.395
80.799
74.168
67.524
60.892
54.297
47.76
41.303
34.947
28.711
22.613
16.669
10.894
5.302
-0.096
-5.288
-10.267
-15.024
-19.553
-23.849
-27.91
-31.733
-35.318
-38.666
-41.777
-44.655
-47.303
-49.727
-51.93
-53.92
-55.702
-57.286
-58.678
-59.888
-60.924
-61.798
-62.517
-63.093
-63.536
-63.854
-64.058
-64.157
-64.16
-64.074
-63.909
-63.672
-63.371
-63.011
-62.599
-62.142
-61.645
-61.113
-60.55
-59.961
-59.349
-58.717
-58.069
-57.407
-56.733
-56.05
-55.36
-54.664
-53.964
-53.261
-52.555
-51.847
-51.138
-50.427
-49.715
-49.001
-48.286
-47.57
-46.853
-46.135
-45.418
-44.703
-43.989
-43.279
-42.574
-41.874
-41.182
-40.5
-39.828
-39.17
-38.526
-37.9
-37.294
-36.71
-36.151
-35.618
-35.114
-34.641
-34.2
-33.794
-33.424
-33.092
-32.8
-32.549
-32.342
-32.178
-32.061
-31.99
-31.966
-31.989
-32.061
-32.179
-32.345
-32.556
-32.813
-33.113
-33.455
-33.838
-34.259
-34.715
-35.205
-35.724
-36.271
-36.841
-37.432
-38.039
-38.658
-39.287
-39.921
-40.557
-41.191
-41.82
-42.44
-43.047
-43.638
-44.21
-44.76
-45.284
-45.781
-46.248
-46.683
-47.084
-47.451
-47.781
-48.076
-48.334
-48.556
-48.741
-48.89
-49.005
-49.085
-49.134
-49.152
-49.143
-49.108
-49.051
-48.974
-48.881
-48.774
-48.658
-48.534
-48.408
-48.282
-48.16
-48.046
-47.943
-47.854
-47.783
-47.733
-47.706
-47.704
-47.73
-47.784
-47.868
-47.983
-48.129
-48.306
-48.514
-48.753
-49.02
-49.315
-49.635
-49.978
-50.341
-50.72
-51.112
-51.515
-51.923
-52.333
-52.738
-53.135
-53.519
-53.883
-54.222
-54.528
-54.795
-55.017
-55.189
-55.307
-55.367
-55.36
-55.28
-55.118
-54.871
-54.532
-54.098
-53.562
-52.919
-52.166
-51.307
-50.347
-49.289
-48.132
-46.874
-45.511
-44.048
-42.496
-40.868
-39.176
-37.431
-35.644
-33.831
-32.012
-30.206
-28.427
-26.675
-24.947
-23.248
-21.589
-19.995
-18.498
-17.113
-15.831
-14.628
-13.47
-12.353
-11.312
-10.382
-9.586
-8.919
-8.342
-7.899
-7.708
-7.822
-8.15
-8.397
-8.238
-7.594
-6.706
-5.899
-5.303
-4.963
-5.127
-6.584
-10.242
-16.525
-25.083
-34.823
-44.908
-54.963
-64.458
-72.19
-76.774
-77.209
-73.511
-67.226
-59.702
-51.502
-43.269
-35.987
-30.818
-28.962
-30.784
-34.961
-40.321
-46.451
-52.976
-59.68
-66.196
-71.822
-76.363
-80.606
-85.1
-89.841
-94.494
-98.378
-101.031
-102.203
-101.341
-97.938
-92.057
-84.192
-75.523
-67.568
-61.503
-58.63
-60.454
-66.108
-72.24
-75.972
-74.761
-69.738
-65.022
-59.366
-44.682
-8.497
59.618
161.51
287.37
420.995
552.701
675.933
784.707
875.014
933
942.167
897.62
798.934
654.418
486.068
312.546
154.424
35.875
-36.11
-63.572
-58.168
-43.847
-33.68
-31.737
-36.531
-39.328
-38.019
-35.452
-34.268
-38.307
-47.97
-60.733
-74.719
-87.774
-97.906
-104.482
-107.258
-106.285
-102.285
-96.066
-88.308
-79.87
-71.642
-64.129
-57.607
-52.177
-47.695
-44.058
-41.222
-39.068
-37.49
-36.433
-35.858
-35.77
-36.185
-37.052
-38.286
-39.795
-41.471
-43.234
-45.026
-46.793
-48.501
-50.126
-51.645
-53.038
-54.269
-55.282
-56.024
-56.442
-56.502
-56.199
-55.534
-54.522
-53.189
-51.561
-49.662
-47.52
-45.153
-42.567
-39.781
-36.813
-33.698
-30.489
-27.23
-23.963
-20.719
-17.513
-14.357
-11.257
-8.208
-5.196
-2.205
0.783
3.782
6.798
9.844
12.937
16.095
19.347
22.715
26.215
29.858
33.653
37.605
41.715
45.979
50.386
54.924
59.581
64.345
69.204
74.146
79.153
84.208
89.291
94.382
99.462
104.512
109.511
114.438
119.274
123.997
128.591
133.036
137.31
141.395
145.269
148.913
152.307
155.432
158.27
160.804
163.018
164.897
166.429
167.601
168.405
168.83
168.87
168.521
167.779
166.643
165.114
163.195
160.891
158.207
155.153
151.738
147.974
143.874
139.452
134.726
129.711
124.428
118.895
113.133
107.163
101.009
94.693
88.239
81.671
75.014
68.293
61.531
54.755
47.987
41.252
34.573
27.972
21.471
15.091
8.852
2.772
-3.131
-8.842
-14.346
-19.63
-24.683
-29.494
-34.055
-38.359
-42.401
-46.176
-49.683
-52.919
-55.885
-58.584
-61.017
-63.19
-65.108
-66.778
-68.208
-69.407
-70.385
-71.153
-71.722
-72.104
-72.313
-72.359
-72.258
-72.021
-71.663
-71.197
-70.635
-69.99
-69.275
-68.502
-67.682
-66.827
-65.946
-65.049
-64.145
-63.244
-62.351
-61.476
-60.623
-59.799
-59.008
-58.255
-57.543
-56.874
-56.25
-55.672
-55.141
-54.655
-54.214
-53.816
-53.46
-53.143
-52.862
-52.614
-52.397
-52.206
-52.038
-51.89
-51.758
-51.64
-51.53
-51.428
-51.329
-51.232
-51.132
-51.029
-50.92
-50.802
-50.675
-50.536
-50.383
-50.217
-50.035
-49.838
-49.625
-49.395
-49.15
-48.89
-48.615
-48.327
-48.028
-47.718
-47.401
-47.077
-46.749
-46.419
-46.089
-45.761
-45.437
-45.118
-44.806
-44.503
-44.211
-43.929
-43.66
-43.405
-43.163
-42.937
-42.726
-42.531
-42.352
-42.19
-42.045
-41.917
-41.807
-41.714
-41.64
-41.583
-41.543
-41.521
-41.516
-41.527
-41.554
-41.595
-41.649
-41.716
-41.795
-41.885
-41.984
-42.093
-42.211
-42.337
-42.47
-42.611
-42.76
-42.916
-43.078
-43.247
-43.424
-43.607
-43.799
-43.998
-44.206
-44.424
-44.651
-44.889
-45.138
-45.397
-45.667
-45.947
-46.238
-46.539
-46.85
-47.172
-47.504
-47.847
-48.201
-48.567
-48.943
-49.33
-49.728
-50.134
-50.549
-50.971
-51.399
-51.831
-52.267
-52.704
-53.143
-53.581
-54.015
-54.445
-54.866
-55.276
-55.671
-56.046
-56.397
-56.72
-57.012
-57.269
-57.487
-57.666
-57.801
-57.893
-57.939
-57.938
-57.884
-57.774
-57.603
-57.366
-57.059
-56.677
-56.215
-55.668
-55.036
-54.319
-53.517
-52.631
-51.657
-50.588
-49.423
-48.166
-46.823
-45.399
-43.904
-42.35
-40.757
-39.156
-37.578
-36.044
-34.565
-33.146
-31.792
-30.512
-29.312
-28.2
-27.17
-26.21
-25.314
-24.482
-23.713
-22.995
-22.298
-21.573
-20.78
-19.901
-18.936
-17.902
-16.807
-15.67
-14.517
-13.392
-12.369
-11.516
-10.884
-10.508
-10.421
-10.667
-11.301
-12.395
-13.983
-16.072
-18.646
-21.67
-25.118
-28.941
-33.068
-37.393
-41.769
-46.065
-50.176
-54.013
-57.494
-60.554
-63.137
-65.204
-66.776
-67.892
-68.584
-68.914
-68.96
-68.831
-68.667
-68.635
-68.888
-69.611
-71.048
-73.331
-76.435
-80.14
-83.965
-87.42
-90.142
-91.697
-91.487
-89.165
-84.781
-78.913
-72.886
-67.978
-64.901
-64.274
-66.777
-72.59
-81.055
-90.347
-97.211
-98.226
-90.506
-71.268
-37.624
13.161
80.971
162.166
252.11
345.276
440.772
543.046
650.277
755.222
843.16
890.955
885.85
827.189
722.749
589.854
443.863
295.362
156.819
41.95
-39.778
-83.52
-94.712
-89.506
-79.869
-72.293
-67.585
-59.831
-47.833
-34.74
-23.662
-18.578
-20.366
-27.014
-36.761
-47.664
-57.799
-65.87
-71.116
-73.352
-73.012
-70.874
-67.667
-64.053
-60.735
-58.324
-57.123
-57.177
-58.346
-60.364
-63.003
-66.072
-69.336
-72.545
-75.504
-78.068
-80.137
-81.652
-82.533
-82.694
-82.105
-80.776
-78.767
-76.159
-73.023
-69.414
-65.402
-61.077
-56.548
-51.949
-47.397
-42.986
-38.805
-34.927
-31.43
-28.366
-25.74
-23.52
-21.637
-20.034
-18.672
-17.535
-16.61
-15.875
-15.299
-14.831
-14.427
-14.039
-13.608
-13.068
-12.338
-11.365
-10.129
-8.643
-6.937
-5.025
-2.903
-0.546
2.08
5.012
8.297
11.963
16.035
20.514
25.369
30.549
35.977
41.596
47.369
53.274
59.304
65.442
71.664
77.937
84.221
90.463
96.594
102.55
108.273
113.727
118.901
123.804
128.461
132.89
137.101
141.092
144.854
148.373
151.635
154.622
157.318
159.715
161.819
163.635
165.169
166.42
167.372
168.009
168.303
168.232
167.779
166.929
165.678
164.026
161.978
159.548
156.752
153.606
150.123
146.317
142.201
137.792
133.109
128.174
123.01
117.642
112.096
106.398
100.572
94.641
88.629
82.556
76.441
70.303
64.163
58.038
51.95
45.915
39.954
34.084
28.322
22.685
17.186
11.84
6.657
1.648
-3.179
-7.816
-12.257
-16.498
-20.535
-24.365
-27.986
-31.399
-34.603
-37.601
-40.394
-42.986
-45.381
-47.583
-49.598
-51.431
-53.088
-54.576
-55.9
-57.067
-58.084
-58.959
-59.699
-60.311
-60.803
-61.185
-61.463
-61.648
-61.746
-61.765
-61.714
-61.599
-61.427
-61.205
-60.938
-60.633
-60.295
-59.93
-59.541
-59.133
-58.711
-58.277
-57.835
-57.386
-56.935
-56.482
-56.029
-55.579
-55.134
-54.693
-54.26
-53.835
-53.42
-53.015
-52.62
-52.236
-51.863
-51.5
-51.148
-50.804
-50.468
-50.14
-49.819
-49.503
-49.191
-48.883
-48.576
-48.271
-47.965
-47.659
-47.351
-47.04
-46.727
-46.412
-46.095
-45.775
-45.455
-45.133
-44.812
-44.491
-44.17
-43.851
-43.535
-43.22
-42.91
-42.603
-42.301
-42.005
-41.716
-41.435
-41.163
-40.901
-40.651
-40.413
-40.189
-39.981
-39.789
-39.616
-39.461
-39.328
-39.217
-39.129
-39.065
-39.025
-39.01
-39.02
-39.053
-39.111
-39.191
-39.294
-39.419
-39.564
-39.729
-39.912
-40.112
-40.329
-40.561
-40.806
-41.064
-41.334
-41.614
-41.904
-42.202
-42.509
-42.822
-43.142
-43.468
-43.798
-44.132
-44.469
-44.808
-45.149
-45.491
-45.833
-46.175
-46.517
-46.859
-47.201
-47.543
-47.886
-48.229
-48.574
-48.922
-49.272
-49.626
-49.984
-50.347
-50.716
-51.091
-51.472
-51.86
-52.254
-52.654
-53.058
-53.466
-53.875
-54.284
-54.691
-55.094
-55.49
-55.876
-56.251
-56.612
-56.954
-57.276
-57.573
-57.842
-58.079
-58.281
-58.444
-58.563
-58.634
-58.655
-58.619
-58.524
-58.365
-58.137
-57.837
-57.46
-57.001
-56.459
-55.828
-55.106
-54.292
-53.384
-52.381
-51.283
-50.091
-48.807
-47.432
-45.969
-44.421
-42.794
-41.092
-39.32
-37.486
-35.595
-33.655
-31.676
-29.668
-27.642
-25.611
-23.587
-21.585
-19.617
-17.699
-15.846
-14.069
-12.382
-10.797
-9.327
-7.985
-6.785
-5.741
-4.863
-4.162
-3.647
-3.325
-3.201
-3.276
-3.547
-4.013
-4.674
-5.54
-6.619
-7.919
-9.444
-11.196
-13.166
-15.347
-17.721
-20.257
-22.921
-25.673
-28.475
-31.297
-34.104
-36.857
-39.509
-41.994
-44.245
-46.203
-47.809
-49.018
-49.816
-50.196
-50.185
-49.842
-49.217
-48.387
-47.454
-46.52
-45.716
-45.178
-45.008
-45.376
-46.518
-48.57
-51.569
-55.359
-59.501
-63.546
-67.128
-69.758
-70.871
-70.092
-67.302
-63.001
-58.421
-54.854
-53.334
-54.738
-59.814
-68.909
-81.692
-96.519
-110.264
-119.267
-120.085
-109.396
-83.849
-40.522
22.565
103.885
198.22
299.988
404.54
511.73
623.309
734.633
833.927
901.714
919.682
883.155
800.376
689.883
567.422
438.619
305.962
172.02
49.353
-43.709
-97.001
-111.04
-99.538
-79.921
-62.544
-50.159
-39.524
-28.387
-17.735
-9.988
-8.232
-12.88
-22.034
-33.677
-45.187
-54.338
-60.317
-62.777
-61.878
-58.464
-53.363
-47.329
-41.313
-36.162
-32.292
-29.886
-28.892
-29.045
-30.15
-32.041
-34.5
-37.316
-40.315
-43.36
-46.357
-49.227
-51.863
-54.139
-55.937
-57.177
-57.829
-57.888
-57.372
-56.311
-54.738
-52.707
-50.278
-47.509
-44.461
-41.191
-37.75
-34.198
-30.597
-27.006
-23.485
-20.076
-16.8
-13.671
-10.693
-7.862
-5.173
-2.616
-0.171
2.179
4.446
6.646
8.791
10.896
12.981
15.067
17.171
19.309
21.493
23.737
26.056
28.47
30.991
33.627
36.382
39.26
42.264
45.394
48.645
51.997
55.437
58.948
62.524
66.173
69.897
73.695
77.566
81.504
85.512
89.611
93.811
98.118
102.541
107.085
111.777
116.662
121.774
127.134
132.739
138.557
144.556
150.704
156.953
163.245
169.504
175.626
181.527
187.142
192.399
197.233
201.553
205.24
208.201
210.363
211.681
212.141
211.737
210.463
208.345
205.436
201.808
197.567
192.793
187.541
181.873
175.849
169.547
163.071
156.503
149.902
143.321
136.792
130.347
124.023
117.826
111.741
105.739
99.778
93.834
87.907
81.994
76.096
70.211
64.322
58.432
52.555
46.703
40.891
35.131
29.433
23.819
18.323
12.981
7.832
2.904
-1.785
-6.222
-10.394
-14.293
-17.913
-21.253
-24.321
-27.123
-29.662
-31.944
-33.971
-35.753
-37.303
-38.636
-39.764
-40.704
-41.467
-42.068
-42.52
-42.836
-43.029
-43.108
-43.084
-42.967
-42.77
-42.502
-42.177
-41.805
-41.396
-40.96
-40.507
-40.046
-39.582
-39.123
-38.674
-38.24
-37.824
-37.43
-37.061
-36.718
-36.404
-36.118
-35.863
-35.636
-35.438
-35.267
-35.12
-34.995
-34.888
-34.797
-34.718
-34.647
-34.579
-34.513
-34.443
-34.366
-34.279
-34.178
-34.061
-33.924
-33.764
-33.581
-33.372
-33.136
-32.874
-32.584
-32.268
-31.926
-31.559
-31.168
-30.756
-30.323
-29.872
-29.404
-28.923
-28.43
-27.929
-27.424
-26.916
-26.411
-25.912
-25.422
-24.946
-24.488
-24.052
-23.641
-23.259
-22.909
-22.596
-22.322
-22.09
-21.902
-21.761
-21.667
-21.622
-21.626
-21.68
-21.783
-21.934
-22.133
-22.379
-22.67
-23.005
-23.382
-23.8
-24.255
-24.747
-25.273
-25.829
-26.414
-27.023
-27.655
-28.305
-28.971
-29.65
-30.338
-31.031
-31.727
-32.422
-33.113
-33.796
-34.469
-35.129
-35.773
-36.4
-37.007
-37.594
-38.159
-38.701
-39.22
-39.715
-40.186
-40.634
-41.057
-41.457
-41.833
-42.188
-42.521
-42.834
-43.128
-43.405
-43.667
-43.915
-44.15
-44.375
-44.59
-44.798
-45.001
-45.199
-45.396
-45.591
-45.788
-45.987
-46.189
-46.394
-46.604
-46.818
-47.036
-47.256
-47.478
-47.701
-47.922
-48.141
-48.353
-48.559
-48.754
-48.936
-49.103
-49.249
-49.371
-49.466
-49.528
-49.554
-49.538
-49.475
-49.362
-49.192
-48.963
-48.668
-48.304
-47.867
-47.352
-46.756
-46.076
-45.309
-44.454
-43.51
-42.477
-41.356
-40.149
-38.86
-37.493
-36.054
-34.549
-32.985
-31.37
-29.714
-28.028
-26.322
-24.609
-22.9
-21.21
-19.55
-17.937
-16.386
-14.909
-13.523
-12.24
-11.078
-10.053
-9.183
-8.481
-7.959
-7.628
-7.498
-7.579
-7.884
-8.42
-9.192
-10.203
-11.458
-12.959
-14.706
-16.69
-18.889
-21.27
-23.802
-26.454
-29.197
-32
-34.828
-37.641
-40.395
-43.058
-45.595
-47.973
-50.153
-52.098
-53.782
-55.204
-56.405
-57.454
-58.429
-59.404
-60.444
-61.59
-62.909
-64.498
-66.446
-68.841
-71.775
-75.281
-79.467
-84.535
-90.495
-97.177
-104.186
-110.789
-116.3
-120.275
-122.096
-121.06
-117.007
-110.147
-101.371
-92.538
-85.178
-80.232
-78.822
-81.734
-88.551
-98.038
-107.556
-112.801
-109.786
-95.105
-65.028
-16.258
51.253
134.633
229.919
330.739
434.672
544.128
655.1
759.592
844.08
887.763
880.039
821.404
718.638
586.292
437.665
283.133
136.549
14.085
-72.562
-119.456
-134.057
-132.161
-126.288
-120.114
-110.416
-95.043
-75.253
-58.225
-52.838
-58.049
-70.374
-84.739
-94.411
-100.875
-105.772
-108.665
-110.985
-111.345
-108.629
-103.975
-97.955
-91.371
-85.271
-80.067
-75.942
-73.075
-71.421
-70.786
-71.05
-72.127
-73.883
-76.193
-78.976
-82.113
-85.511
-89.119
-92.841
-96.575
-100.231
-103.701
-106.898
-109.748
-112.182
-114.143
-115.576
-116.433
-116.683
-116.306
-115.288
-113.635
-111.351
-108.446
-104.97
-100.998
-96.703
-92.342
-88.102
-84.083
-80.275
-76.498
-72.57
-68.29
