Name
Date of Birth,"Mar 27, 1959"
Recorded Date,2020-12-08 19:43:51 -0500
Classification,Sinus Rhythm
Symptoms,
Software Version,1.90
Device,"Watch4,2"
Sample Rate,510.227 hertz


Lead,Lead I
Unit,µV

-752.881
-675.542
-660.578
-640.4
-654.266
-649.294
-625.138
-610.224
-601.102
-586.506
-565.968
-541.843
-518.485
-500.385
-488.3
-481.703
-479.428
-478.246
-474.768
-468.495
-461.03
-454.22
-450.576
-446.806
-434.658
-410.994
-377.052
-345.033
-337.938
-372.122
-453.607
-571.395
-696.223
-798.864
-859.413
-874.649
-859.113
-832.015
-808.069
-792.019
-779.625
-764.798
-744.383
-719.542
-694.007
-671.184
-652.006
-635.821
-621.207
-606.3
-590.238
-572.579
-552.969
-531.586
-508.741
-484.794
-460.359
-436.119
-412.406
-389.36
-366.97
-345.022
-323.341
-301.767
-280.074
-258.03
-235.471
-212.295
-188.458
-164.002
-138.977
-113.429
-87.433
-61.1
-34.59
-8.121
18.052
43.673
68.499
92.28
114.775
135.774
155.098
172.612
188.223
201.871
213.527
223.195
230.907
236.73
240.765
243.146
244.035
243.614
242.067
239.593
236.395
232.644
228.477
224.009
219.326
214.49
209.547
204.513
199.367
194.097
188.694
183.15
177.462
171.617
165.599
159.398
153.01
146.449
139.751
132.954
126.098
119.251
112.488
105.916
99.668
93.848
88.53
83.777
79.63
76.121
73.276
71.096
69.548
68.606
68.243
68.435
69.173
70.424
72.137
74.248
76.676
79.356
82.246
85.305
88.5
91.812
95.225
98.749
102.422
106.261
110.272
114.448
118.771
123.228
127.814
132.525
137.353
142.289
147.317
152.423
157.596
162.817
168.059
173.288
178.456
183.526
188.475
193.282
197.935
202.423
206.737
210.871
214.829
218.612
222.223
225.662
228.929
232.028
234.967
237.756
240.408
242.937
245.352
247.667
249.893
252.041
254.123
256.149
258.127
260.065
261.973
263.862
265.742
267.622
269.512
271.418
273.35
275.313
277.314
279.355
281.439
283.568
285.743
287.961
290.223
292.525
294.863
297.233
299.63
302.048
304.48
306.918
309.356
311.785
314.197
316.583
318.935
321.246
323.505
325.706
327.84
329.901
331.883
333.78
335.587
337.301
338.92
340.444
341.873
343.209
344.453
345.609
346.682
347.674
348.592
349.44
350.224
350.952
351.632
352.277
352.896
353.502
354.109
354.732
355.385
356.083
356.843
357.676
358.598
359.624
360.77
362.055
363.496
365.102
366.88
368.834
370.963
373.262
375.721
378.319
381.04
383.867
386.784
389.784
392.86
396.005
399.21
402.464
405.763
409.116
412.537
416.043
419.653
423.386
427.272
431.349
435.649
440.19
444.977
450.002
455.244
460.675
466.258
471.954
477.701
483.419
489.016
494.384
499.424
504.039
508.126
511.571
514.283
516.185
517.225
517.369
516.594
514.891
512.265
508.737
504.354
499.192
493.353
486.97
480.179
473.112
465.909
458.711
451.641
444.814
438.323
432.256
426.704
421.741
417.432
413.828
410.956
408.799
407.282
406.277
405.619
405.164
404.793
404.366
403.725
402.713
401.184
398.99
396.061
392.25
387.263
381.033
373.668
365.444
357.036
349.068
341.895
336.197
332.883
332.108
333.622
336.732
339.735
341.338
340.927
337.047
327.986
315.033
301.541
290.823
288.099
293.27
300.281
309.778
324.841
352.836
410.036
502.435
627.654
779.522
940.685
1095.693
1229.807
1326.546
1373.424
1358.134
1276.932
1133.753
940.53
722.649
506.184
318.399
181.019
96.504
57.855
48.945
52.848
65.926
87.49
117.219
151.152
176.545
184.517
174.956
154.983
135.568
123.722
119.406
118.254
117.134
115.236
113.558
114.311
117.798
122.84
128.435
133.296
136.412
137.548
136.527
133.307
128.234
121.593
113.59
104.501
94.587
84.08
73.273
62.454
51.823
41.577
31.875
22.832
14.561
7.15
0.659
-4.88
-9.478
-13.165
-15.986
-17.985
-19.226
-19.794
-19.811
-19.415
-18.724
-17.834
-16.805
-15.68
-14.499
-13.292
-12.08
-10.864
-9.631
-8.366
-7.059
-5.703
-4.284
-2.78
-1.15
0.647
2.643
4.858
7.304
9.986
12.907
16.069
19.462
23.072
26.88
30.873
35.038
39.362
43.832
48.428
53.127
57.905
62.74
67.609
72.489
77.355
82.182
86.946
91.624
96.194
100.632
104.913
109.011
112.901
116.556
119.953
123.067
125.874
128.351
130.479
132.239
133.614
134.59
135.154
135.296
135.006
134.28
133.113
131.503
129.45
126.956
124.028
120.67
116.893
112.708
108.126
103.165
97.84
92.17
86.175
79.877
73.297
66.46
59.39
52.114
44.659
37.051
29.317
21.487
13.587
5.646
-2.31
-10.255
-18.162
-26.009
-33.771
-41.426
-48.953
-56.333
-63.546
-70.577
-77.41
-84.03
-90.426
-96.586
-102.501
-108.163
-113.565
-118.704
-123.574
-128.173
-132.502
-136.559
-140.347
-143.868
-147.127
-150.128
-152.878
-155.383
-157.652
-159.693
-161.516
-163.129
-164.544
-165.769
-166.817
-167.697
-168.421
-168.998
-169.44
-169.757
-169.959
-170.057
-170.059
-169.974
-169.812
-169.581
-169.29
-168.944
-168.553
-168.123
-167.66
-167.171
-166.66
-166.133
-165.595
-165.049
-164.498
-163.947
-163.396
-162.849
-162.308
-161.773
-161.246
-160.728
-160.22
-159.721
-159.231
-158.751
-158.28
-157.817
-157.363
-156.917
-156.479
-156.049
-155.627
-155.214
-154.809
-154.412
-154.024
-153.644
-153.272
-152.909
-152.554
-152.207
-151.869
-151.539
-151.219
-150.909
-150.61
-150.323
-150.049
-149.787
-149.54
-149.308
-149.092
-148.894
-148.713
-148.551
-148.409
-148.289
-148.191
-148.115
-148.061
-148.028
-148.016
-148.021
-148.041
-148.073
-148.113
-148.159
-148.207
-148.255
-148.299
-148.336
-148.365
-148.384
-148.389
-148.375
-148.336
-148.264
-148.154
-147.998
-147.788
-147.515
-147.169
-146.746
-146.24
-145.647
-144.961
-144.171
-143.266
-142.238
-141.085
-139.805
-138.4
-136.872
-135.229
-133.485
-131.668
-129.802
-127.905
-125.981
-124.031
-122.054
-120.054
-118.036
-116.004
-113.952
-111.87
-109.754
-107.606
-105.425
-103.201
-100.904
-98.485
-95.905
-93.15
-90.227
-87.161
-83.98
-80.72
-77.425
-74.155
-70.994
-68.011
-65.262
-62.787
-60.628
-58.843
-57.517
-56.75
-56.622
-57.185
-58.464
-60.456
-63.146
-66.478
-70.37
-74.712
-79.367
-84.218
-89.174
-94.149
-99.063
-103.818
-108.295
-112.378
-115.968
-118.975
-121.342
-123.041
-124.089
-124.601
-124.72
-124.62
-124.475
-124.404
-124.539
-125.032
-126.007
-127.591
-129.902
-132.976
-136.959
-142.103
-148.402
-155.718
-163.665
-171.422
-178.298
-183.791
-187.078
-187.349
-184.475
-178.497
-170.115
-161.238
-153.336
-147.502
-145.568
-147.451
-150.491
-152.955
-151.999
-146.987
-142.303
-137.387
-127.171
-101.382
-44.877
47.784
171.802
314.765
459.724
598.102
726.097
837.666
924.736
969.827
953.98
870.018
720.048
520.234
297.548
78.123
-113.081
-257.894
-348.332
-385.983
-379.792
-341.484
-286.223
-227.455
-177.639
-147.883
-139.729
-148.05
-162.269
-171.665
-173.105
-168.75
-164.347
-163.68
-165.771
-168.278
-168.478
-165.441
-160.316
-154.31
-148.425
-143.478
-140.004
-138.291
-138.422
-140.167
-143.101
-146.913
-151.389
-156.307
-161.438
-166.557
-171.439
-175.931
-179.941
-183.374
-186.156
-188.231
-189.559
-190.137
-189.997
-189.18
-187.744
-185.751
-183.263
-180.353
-177.092
-173.555
-169.814
-165.934
-161.972
-157.981
-154.001
-150.066
-146.212
-142.46
-138.826
-135.335
-131.99
-128.776
-125.67
-122.62
-119.562
-116.451
-113.249
-109.929
-106.474
-102.854
-99.039
-95.008
-90.729
-86.173
-81.304
-76.063
-70.412
-64.346
-57.882
-51.075
-44.003
-36.722
-29.279
-21.721
-14.083
-6.408
1.258
8.885
16.436
23.861
31.106
38.09
44.74
51.017
56.899
62.387
67.507
72.264
76.66
80.704
84.391
87.717
90.678
93.253
95.425
97.186
98.538
99.496
100.078
100.287
100.122
99.572
98.622
97.264
95.494
93.306
90.701
87.686
84.275
80.489
76.356
71.899
67.142
62.105
56.809
51.277
45.539
39.621
33.553
27.366
21.09
14.757
8.398
2.042
-4.284
-10.555
-16.75
-22.845
-28.82
-34.655
-40.331
-45.83
-51.134
-56.23
-61.101
-65.737
-70.126
-74.262
-78.136
-81.745
-85.085
-88.156
-90.957
-93.49
-95.758
-97.766
-99.519
-101.025
-102.291
-103.326
-104.14
-104.744
-105.15
-105.369
-105.414
-105.299
-105.035
-104.637
-104.116
-103.486
-102.76
-101.948
-101.064
-100.118
-99.121
-98.084
-97.016
-95.928
-94.826
-93.719
-92.614
-91.516
-90.432
-89.366
-88.32
-87.3
-86.307
-85.342
-84.409
-83.506
-82.635
-81.795
-80.986
-80.206
-79.454
-78.729
-78.027
-77.347
-76.687
-76.043
-75.415
-74.798
-74.192
-73.593
-73
-72.412
-71.826
-71.242
-70.658
-70.073
-69.488
-68.901
-68.314
-67.726
-67.14
-66.555
-65.975
-65.401
-64.835
-64.278
-63.733
-63.202
-62.687
-62.19
-61.714
-61.259
-60.83
-60.428
-60.055
-59.715
-59.409
-59.139
-58.907
-58.714
-58.561
-58.449
-58.379
-58.35
-58.362
-58.417
-58.512
-58.647
-58.82
-59.03
-59.273
-59.547
-59.846
-60.167
-60.502
-60.848
-61.199
-61.549
-61.895
-62.23
-62.551
-62.855
-63.138
-63.396
-63.621
-63.808
-63.95
-64.038
-64.066
-64.025
-63.908
-63.706
-63.414
-63.031
-62.554
-61.977
-61.296
-60.499
-59.585
-58.552
-57.404
-56.146
-54.783
-53.327
-51.795
-50.218
-48.622
-47.029
-45.448
-43.881
-42.334
-40.814
-39.329
-37.888
-36.485
-35.112
-33.764
-32.443
-31.148
-29.869
-28.576
-27.222
-25.769
-24.204
-22.536
-20.788
-18.98
-17.135
-15.285
-13.476
-11.778
-10.258
-8.966
-7.937
-7.206
-6.826
-6.868
-7.422
-8.543
-10.241
-12.496
-15.272
-18.53
-22.222
-26.276
-30.586
-35.017
-39.449
-43.778
-47.924
-51.811
-55.342
-58.41
-60.915
-62.824
-64.185
-65.078
-65.601
-65.831
-65.837
-65.739
-65.714
-65.942
-66.589
-67.797
-69.629
-72.233
-75.885
-80.626
-86.359
-92.795
-99.215
-104.974
-109.668
-112.535
-112.68
-109.995
-104.55
-96.795
-88.53
-81.124
-75.266
-72.879
-74.672
-78.278
-81.908
-83.193
-80.02
-75.645
-71.708
-63.655
-43.658
0.351
78.373
190.165
328.926
484.041
643.183
796.706
932.177
1035.079
1090.473
1082.577
1006.675
867.388
676.738
457.996
235.549
32.631
-129.127
-236.793
-288.696
-291.493
-258.423
-207.777
-154.614
-111.421
-87.272
-82.223
-91.515
-105.765
-116.065
-119.878
-118.511
-116.935
-118.257
-121.217
-123.713
-123.063
-118.207
-110.247
-100.432
-89.913
-79.739
-70.671
-63.153
-57.435
-53.497
-51.121
-50.159
-50.504
-51.976
-54.344
-57.4
-60.957
-64.871
-69.05
-73.355
-77.612
-81.697
-85.521
-89.015
-92.126
-94.773
-96.839
-98.255
-98.999
-99.066
-98.482
-97.276
-95.468
-93.112
-90.278
-87.035
-83.452
-79.575
-75.423
-71.029
-66.428
-61.676
-56.845
-51.987
-47.122
-42.271
-37.443
-32.641
-27.875
-23.133
-18.388
-13.62
-8.813
-3.959
0.937
5.88
10.884
15.963
21.14
26.427
31.828
37.342
42.97
48.706
54.542
60.462
66.442
72.46
78.497
84.536
90.559
96.547
102.474
108.317
114.051
119.65
125.091
130.347
135.393
140.204
144.756
149.028
153
156.652
159.963
162.914
165.488
167.667
169.439
170.789
171.707
172.183
172.211
171.787
170.909
169.577
167.794
165.564
162.895
159.795
156.276
152.351
148.035
143.345
138.301
132.923
127.234
121.256
115.016
108.54
101.854
94.988
87.969
80.827
73.592
66.292
58.956
51.613
44.292
37.019
29.821
22.724
15.752
8.928
2.274
-4.189
-10.442
-16.469
-22.253
-27.779
-33.035
-38.01
-42.694
-47.078
-51.157
-54.926
-58.381
-61.522
-64.348
-66.861
-69.065
-70.964
-72.564
-73.874
-74.9
-75.654
-76.146
-76.386
-76.388
-76.163
-75.726
-75.089
-74.267
-73.273
-72.123
-70.83
-69.409
-67.873
-66.237
-64.515
-62.721
-60.867
-58.967
-57.034
-55.08
-53.117
-51.157
-49.21
-47.287
-45.396
-43.548
-41.749
-40.008
-38.331
-36.724
-35.192
-33.74
-32.372
-31.091
-29.899
-28.799
-27.791
-26.877
-26.056
-25.33
-24.696
-24.156
-23.706
-23.346
-23.074
-22.888
-22.785
-22.763
-22.82
-22.951
-23.156
-23.429
-23.77
-24.174
-24.639
-25.162
-25.74
-26.37
-27.049
-27.774
-28.544
-29.355
-30.205
-31.091
-32.012
-32.965
-33.95
-34.965
-36.008
-37.079
-38.175
-39.296
-40.442
-41.611
-42.801
-44.012
-45.243
-46.494
-47.762
-49.046
-50.344
-51.655
-52.974
-54.299
-55.625
-56.947
-58.261
-59.562
-60.845
-62.105
-63.337
-64.537
-65.7
-66.823
-67.901
-68.928
-69.895
-70.797
-71.624
-72.37
-73.024
-73.578
-74.022
-74.347
-74.548
-74.62
-74.554
-74.344
-73.975
-73.441
-72.74
-71.871
-70.838
-69.645
-68.297
-66.809
-65.206
-63.51
-61.744
-59.922
-58.046
-56.121
-54.159
-52.167
-50.161
-48.143
-46.099
-44.026
-41.922
-39.782
-37.606
-35.372
-33.039
-30.577
-27.968
-25.213
-22.341
-19.38
-16.355
-13.304
-10.271
-7.315
-4.524
-1.966
0.308
2.238
3.776
4.849
5.357
5.223
4.394
2.842
0.585
-2.343
-5.908
-10.045
-14.671
-19.687
-24.959
-30.371
-35.83
-41.233
-46.486
-51.482
-56.091
-60.197
-63.721
-66.605
-68.854
-70.54
-71.741
-72.566
-73.131
-73.52
-73.871
-74.352
-75.111
-76.293
-78.019
-80.325
-83.336
-87.339
-92.408
-98.391
-104.926
-111.248
-116.663
-120.805
-123.098
-122.674
-119.202
-112.906
-104.479
-95.592
-87.848
-82.07
-79.45
-81.68
-87.963
-95.043
-99.862
-97.887
-88.686
-77.503
-64.002
-43.463
-6.63
60.56
162.87
294.862
446.016
603.628
758.027
898.933
1013.562
1084.427
1092.695
1032.375
907.618
730.841
525.165
310.83
107.526
-61.418
-182.412
-251.089
-271.561
-258.97
-228.041
-188.062
-146.933
-111.801
-88.773
-82.634
-92.367
-109.545
-125.849
-136.019
-139.137
-139.372
-139.342
-139.152
-137.998
-133.764
-125.951
-115.782
-104.46
-93.388
-83.716
-75.793
-69.774
-65.734
-63.457
-62.753
-63.484
-65.432
-68.362
-72.091
-76.447
-81.243
-86.337
-91.55
-96.676
-101.56
-106.078
-110.128
-113.626
-116.478
-118.588
-119.907
-120.418
-120.131
-119.07
-117.264
-114.745
-111.573
-107.829
-103.605
-98.999
-94.082
-88.908
-83.526
-77.979
-72.325
-66.622
-60.917
-55.237
-49.597
-44.003
-38.464
-33.001
-27.628
-22.338
-17.1
-11.868
-6.604
-1.297
4.05
9.433
14.862
20.363
25.959
31.666
37.478
43.389
49.404
55.557
61.894
68.432
75.157
82.036
89.053
96.233
103.623
111.253
119.121
127.203
135.471
143.914
152.53
161.305
170.197
179.127
188.009
196.774
205.372
213.749
221.806
229.395
236.353
242.552
247.905
252.343
255.792
258.16
259.373
259.377
258.159
255.729
252.087
247.233
241.187
233.997
225.779
216.703
206.939
196.629
185.901
174.878
163.705
152.547
141.533
130.769
120.338
110.319
100.822
91.952
83.773
76.319
69.566
63.454
57.932
52.959
48.478
44.427
40.72
37.256
33.971
30.825
27.78
24.795
21.801
18.732
15.554
12.257
8.852
5.364
1.81
-1.794
-5.408
-8.986
-12.471
-15.795
-18.923
-21.835
-24.509
-26.928
-29.063
-30.887
-32.396
-33.594
-34.491
-35.096
-35.416
-35.461
-35.257
-34.833
-34.224
-33.468
-32.591
-31.61
-30.549
-29.423
-28.25
-27.046
-25.82
-24.576
-23.322
-22.067
-20.822
-19.595
-18.392
-17.215
-16.068
-14.95
-13.867
-12.82
-11.812
-10.845
-9.924
-9.052
-8.232
-7.47
-6.768
-6.127
-5.549
-5.031
-4.574
-4.176
-3.835
-3.547
-3.311
-3.122
-2.98
-2.88
-2.82
-2.798
-2.811
-2.855
-2.928
-3.027
-3.148
-3.291
-3.452
-3.629
-3.821
-4.027
-4.245
-4.475
-4.716
-4.969
-5.232
-5.506
-5.791
-6.086
-6.394
-6.714
-7.048
-7.397
-7.763
-8.147
-8.552
-8.979
-9.43
-9.907
-10.411
-10.942
-11.502
-12.09
-12.705
-13.348
-14.017
-14.71
-15.425
-16.161
-16.913
-17.677
-18.451
-19.228
-20.003
-20.771
-21.525
-22.257
-22.961
-23.629
-24.255
-24.83
-25.347
-25.798
-26.175
-26.469
-26.674
-26.78
-26.779
-26.665
-26.43
-26.067
-25.572
-24.939
-24.164
-23.245
-22.18
-20.967
-19.607
-18.102
-16.454
-14.666
-12.745
-10.697
-8.532
-6.258
-3.888
-1.434
1.089
3.663
6.272
8.897
11.519
14.117
16.669
19.155
21.554
23.845
26.007
28.021
29.864
31.518
32.962
34.175
35.14
35.838
36.255
36.378
36.201
35.719
34.927
33.823
32.397
30.645
28.564
26.151
23.408
20.342
16.968
13.315
9.427
5.35
1.13
-3.186
-7.56
-11.947
-16.301
-20.575
-24.708
-28.64
-32.317
-35.678
-38.669
-41.256
-43.425
-45.218
-46.722
-48.03
-49.238
-50.418
-51.634
-52.994
-54.622
-56.63
-59.132
-62.189
-65.879
-70.419
-75.923
-82.291
-89.223
-96.099
-102.252
-107.26
-110.642
-111.649
-109.846
-105.296
-98.664
-91.459
-85.074
-80.382
-78.276
-79.829
-85.817
-94.645
-102.342
-104.704
-97.233
-80.146
-58.176
-30.525
4.867
53.608
128.606
232.539
363.07
515.972
675.256
826.676
954.931
1040.449
1070.271
1035.813
937.558
785.215
593.821
384.608
178.65
-1.768
-137.968
-222.737
-257.374
-254.793
-231.459
-200.051
-171.726
-150.233
-137.465
-134.131
-135.169
-137.417
-138.053
-135.997
-134.938
-136.64
-140.854
-145.82
-148.225
-146.746
-141.785
-134.289
-125.632
-116.738
-108.303
-101.22
-96.029
-92.895
-91.73
-92.215
-94.083
-97.12
-101.059
-105.577
-110.368
-115.174
-119.818
-124.188
-128.145
-131.538
-134.262
-136.246
-137.471
-137.95
-137.705
-136.761
-135.183
-133.07
-130.526
-127.662
-124.58
-121.367
-118.092
-114.798
-111.523
-108.299
-105.141
-102.052
-99.022
-96.028
-93.043
-90.046
-86.995
-83.828
-80.491
-76.931
-73.113
-69.015
-64.636
-59.99
-55.093
-49.964
-44.622
-39.082
-33.361
-27.478
-21.45
-15.287
-9.012
-2.655
3.754
10.184
16.613
23.026
29.413
35.769
42.091
48.371
54.597
60.755
66.823
72.779
78.596
84.243
89.691
94.916
99.891
104.595
109.002
113.087
116.824
120.189
123.157
125.706
127.818
129.475
130.664
131.376
131.603
131.343
130.596
129.361
127.643
125.444
122.773
119.639
116.052
112.026
107.576
102.722
97.484
91.883
85.947
79.699
73.169
66.386
59.379
52.181
44.823
37.339
29.761
22.122
14.456
6.795
-0.829
-8.386
-15.845
-23.178
-30.357
-37.356
-44.151
-50.72
-57.041
-63.095
-68.866
-74.339
-79.498
-84.335
-88.838
-93
-96.817
-100.283
-103.398
-106.163
-108.578
-110.648
-112.38
-113.78
-114.857
-115.622
-116.087
-116.265
-116.17
-115.816
-115.219
-114.395
-113.362
-112.135
-110.732
-109.169
-107.465
-105.636
-103.699
-101.67
-99.565
-97.399
-95.187
-92.943
-90.679
-88.408
-86.142
-83.891
-81.663
-79.469
-77.316
-75.211
-73.16
-71.167
-69.236
-67.371
-65.573
-63.844
-62.184
-60.593
-59.069
-57.61
-56.215
-54.88
-53.602
-52.378
-51.204
-50.076
-48.99
-47.94
-46.923
-45.934
-44.97
-44.025
-43.095
-42.178
-41.27
-40.367
-39.468
-38.569
-37.669
-36.767
-35.861
-34.951
-34.035
-33.115
-32.191
-31.264
-30.335
-29.406
-28.479
-27.557
-26.643
-25.74
-24.851
-23.98
-23.13
-22.305
-21.508
-20.743
-20.014
-19.324
-18.676
-18.073
-17.519
-17.016
-16.566
-16.172
-15.835
-15.556
-15.335
-15.172
-15.068
-15.02
-15.029
-15.091
-15.205
-15.367
-15.574
-15.821
-16.106
-16.421
-16.761
-17.121
-17.493
-17.871
-18.246
-18.613
-18.962
-19.286
-19.578
-19.83
-20.033
-20.181
-20.265
-20.277
-20.212
-20.061
-19.817
-19.476
-19.031
-18.477
-17.81
-17.027
-16.125
-15.103
-13.959
-12.694
-11.308
-9.804
-8.185
-6.454
-4.619
-2.685
-0.662
1.441
3.612
5.839
8.108
10.405
12.714
15.019
17.303
19.548
21.733
23.841
25.852
27.746
29.503
31.104
32.528
33.759
34.78
35.574
36.126
36.419
36.437
36.17
35.608
34.747
33.582
32.109
30.322
28.224
25.821
23.119
20.123
16.84
13.278
9.457
5.408
1.171
-3.212
-7.701
-12.261
-16.849
-21.423
-25.932
-30.325
-34.561
-38.597
-42.393
-45.901
-49.074
-51.875
-54.294
-56.364
-58.163
-59.771
-61.268
-62.715
-64.153
-65.656
-67.322
-69.232
-71.461
-74.071
-77.077
-80.623
-84.959
-90.092
-95.891
-101.983
-107.62
-112.185
-115.242
-116.02
-113.731
-108.289
-99.824
-89.143
-78.29
-68.844
-62.025
-59.913
-62.668
-67.701
-73.243
-76.166
-75.439
-75.354
-75.264
-69.989
-49.437
1.535
88.992
209.378
352.472
503.598
653.397
793.842
912.866
996.661
1027.861
993.954
896.286
743.559
551.984
343.828
138.634
-41.073
-174.289
-253.665
-281.77
-274.426
-254.268
-233.969
-218.791
-206.417
-190.195
-170.462
-150.535
-133.837
-124.564
-122.826
-126.147
-132.466
-138.855
-142.71
-143.159
-139.973
-133.476
-124.718
-114.713
-104.259
-94.36
-85.998
-79.64
-75.442
-73.32
-72.905
-73.881
-76.013
-79.004
-82.549
-86.423
-90.399
-94.267
-97.886
-101.101
-103.777
-105.855
-107.293
-108.082
-108.261
-107.87
-106.955
-105.585
-103.817
-101.689
-99.25
-96.538
-93.595
-90.497
-87.312
-84.096
-80.893
-77.711
-74.539
-71.357
-68.122
-64.786
-61.309
-57.653
-53.789
-49.713
-45.422
-40.927
-36.254
-31.404
-26.377
-21.171
-15.781
-10.211
-4.476
1.409
7.423
13.54
19.737
25.994
32.286
38.605
44.943
51.301
57.69
64.109
70.552
77.009
83.463
89.896
96.29
102.622
108.866
114.996
120.987
126.812
132.449
137.873
143.055
147.967
152.579
156.865
160.8
164.36
167.519
170.251
172.537
174.361
175.718
176.603
177.021
176.979
176.489
175.565
174.218
172.456
170.278
167.677
164.646
161.181
157.287
152.98
148.275
143.187
137.727
131.903
125.714
119.152
112.203
104.848
97.082
88.917
80.389
71.555
62.482
53.248
43.922
34.555
25.197
15.896
6.698
-2.349
-11.185
-19.747
-27.957
-35.727
-42.987
-49.689
-55.815
-61.376
-66.406
-70.957
-75.073
-78.789
-82.133
-85.126
-87.788
-90.136
-92.193
-93.989
-95.565
-96.981
-98.284
-99.511
-100.678
-101.778
-102.789
-103.675
-104.402
-104.946
-105.29
-105.428
-105.359
-105.088
-104.623
-103.972
-103.137
-102.107
-100.878
-99.446
-97.816
-96.005
-94.037
-91.942
-89.75
-87.489
-85.182
-82.848
-80.499
-78.146
-75.795
-73.448
-71.112
-68.795
-66.506
-64.256
-62.054
-59.904
-57.811
-55.777
-53.805
-51.894
-50.045
-48.26
-46.54
-44.888
-43.307
-41.8
-40.371
-39.021
-37.752
-36.563
-35.454
-34.424
-33.47
-32.592
-31.786
-31.051
-30.384
-29.785
-29.25
-28.778
-28.366
-28.014
-27.719
-27.478
-27.29
-27.152
-27.063
-27.019
-27.019
-27.06
-27.138
-27.252
-27.4
-27.58
-27.79
-28.028
-28.293
-28.585
-28.901
-29.241
-29.604
-29.988
-30.393
-30.817
-31.259
-31.719
-32.196
-32.688
-33.194
-33.712
-34.241
-34.779
-35.321
-35.866
-36.409
-36.945
-37.47
-37.979
-38.466
-38.926
-39.355
-39.748
-40.103
-40.414
-40.677
-40.888
-41.043
-41.134
-41.155
-41.097
-40.951
-40.709
-40.365
-39.91
-39.341
-38.652
-37.839
-36.9
-35.834
-34.637
-33.306
-31.832
-30.209
-28.442
-26.536
-24.504
-22.364
-20.132
-17.826
-15.472
-13.091
-10.694
-8.292
-5.879
-3.45
-1.01
1.429
3.846
6.219
8.542
10.812
13.027
15.196
17.328
19.432
21.537
23.658
25.786
27.901
29.954
31.885
33.656
35.238
36.607
37.746
38.627
39.215
39.487
39.413
38.965
38.123
36.851
35.133
32.993
30.475
27.656
24.64
21.51
18.343
15.223
12.226
9.425
6.9
4.709
2.903
1.512
0.525
-0.086
-0.372
-0.409
-0.273
-0.07
0.03
-0.149
-0.763
-1.967
-3.832
-6.447
-10.037
-14.694
-20.304
-26.561
-32.844
-38.56
-43.395
-46.944
-48.516
-47.73
-44.623
-39.774
-34.592
-30.183
-27.069
-25.972
-27.826
-33.295
-40.803
-46.263
-45.33
-34.029
-13.714
9.53
35.249
65.466
107.434
176.074
275.219
402.124
550.77
704.001
848.392
971.483
1056.876
1090.648
1059.608
958.081
788.981
568.647
327.566
95.841
-94.518
-220.63
-282.491
-286.756
-248.27
-190.21
-125.167
-66.307
-29.317
-16.052
-25.54
-50.414
-73.11
-85.93
-87.426
-79.736
-71.609
-66.12
-61.992
-58.025
-51.383
-41.54
-30.129
-18.261
-7.145
2.191
9.519
14.747
17.854
19.123
18.794
17.012
13.977
9.938
5.116
-0.244
-5.896
-11.645
-17.264
-22.528
-27.263
-31.326
-34.623
-37.084
-38.666
-39.351
-39.153
-38.105
-36.253
-33.652
-30.368
-26.487
-22.117
-17.371
-12.37
-7.229
-2.029
3.167
8.31
13.367
18.314
23.144
27.863
32.486
37.025
41.49
45.895
50.255
54.597
58.95
63.344
67.809
72.366
77.029
81.807
86.704
91.719
96.846
102.074
107.387
112.773
118.22
123.716
129.248
134.801
140.357
145.898
151.403
156.852
162.224
167.498
172.651
177.663
182.512
187.177
191.638
195.873
199.861
203.58
207.009
210.126
212.913
215.35
217.419
219.104
220.391
221.267
221.721
221.746
221.334
220.481
219.182
217.439
215.251
212.622
209.558
206.065
202.153
197.835
193.122
188.032
182.582
176.793
170.684
164.279
157.602
150.68
143.537
136.203
128.704
121.069
113.328
105.508
97.639
89.748
81.863
74.013
66.221
58.515
50.917
43.451
36.138
29
22.055
15.32
8.812
2.546
-3.466
-9.211
-14.68
-19.864
-24.757
-29.354
-33.651
-37.647
-41.342
-44.737
-47.835
-50.64
-53.16
-55.399
-57.367
-59.074
-60.528
-61.741
-62.725
-63.491
-64.052
-64.42
-64.61
-64.633
-64.504
-64.236
-63.842
-63.335
-62.73
-62.04
-61.276
-60.452
-59.581
-58.674
-57.744
-56.801
-55.858
-54.925
-54.012
-53.129
-52.286
-51.491
-50.752
-50.076
-49.47
-48.94
-48.491
-48.127
-47.852
-47.67
-47.583
-47.594
-47.705
-47.916
-48.228
-48.642
-49.157
-49.773
-50.489
-51.303
-52.215
-53.221
-54.319
-55.507
-56.782
-58.141
-59.578
-61.091
-62.673
-64.321
-66.028
-67.788
-69.595
-71.444
-73.327
-75.239
-77.174
-79.125
-81.087
-83.054
-85.021
-86.982
-88.932
-90.867
-92.781
-94.672
-96.534
-98.365
-100.161
-101.918
-103.633
-105.304
-106.927
-108.499
-110.018
-111.48
-112.882
-114.224
-115.501
-116.713
-117.859
-118.936
-119.945
-120.885
-121.755
-122.556
-123.287
-123.948
-124.538
-125.057
-125.505
-125.882
-126.185
-126.416
-126.571
-126.651
-126.654
-126.577
-126.42
-126.179
-125.853
-125.441
-124.94
-124.35
-123.67
-122.9
-122.04
-121.092
-120.057
-118.936
-117.734
-116.452
-115.094
-113.665
-112.169
-110.611
-108.999
-107.338
-105.636
-103.902
-102.146
-100.38
-98.615
-96.865
-95.144
-93.466
-91.847
-90.3
-88.841
-87.483
-86.241
-85.129
-84.16
-83.349
-82.712
-82.26
-82.007
-81.963
-82.134
-82.524
-83.135
-83.967
-85.018
-86.292
-87.794
-89.523
-91.486
-93.684
-96.111
-98.76
-101.606
-104.613
-107.746
-110.962
-114.22
-117.482
-120.706
-123.849
-126.87
-129.712
-132.317
-134.634
-136.601
-138.165
-139.288
-139.956
-140.209
-140.125
-139.798
-139.318
-138.751
-138.177
-137.724
-137.52
-137.688
-138.345
-139.541
-141.39
-144.162
-147.97
-152.71
-158.096
-163.498
-168.308
-172.203
-174.653
-174.823
-172.329
-167.312
-160.391
-153.051
-146.734
-142.186
-140.459
-143.188
-149.829
-157.334
-162.607
-161.23
-152.848
-143.044
-132.714
-118.175
-89.948
-32.44
61.265
187.475
335.524
489.681
638.886
775.056
888.168
966.803
994.868
959.661
859.89
701.401
501.379
285.246
75.588
-103.421
-232.767
-309.19
-335.404
-322.239
-288.369
-245.001
-203.739
-177.31
-167.652
-175.245
-194.503
-211.053
-218.931
-217.262
-208.414
-200.667
-196.735
-194.51
-192.202
-187.03
-178.342
-167.744
-156.37
-145.041
-134.596
-125.641
-118.55
-113.563
-110.626
-109.425
-109.749
-111.469
-114.372
-118.203
-122.713
-127.624
-132.696
-137.745
-142.542
-146.871
-150.574
-153.524
-155.633
-156.846
-157.126
-156.47
-154.907
-152.486
-149.264
-145.311
-140.702
-135.531
-129.909
-123.949
-117.767
-111.468
-105.13
-98.809
-92.549
-86.381
-80.322
-74.38
-68.547
-62.804
-57.136
-51.521
-45.941
-40.379
-34.811
-29.212
-23.562
-17.837
-12.029
-6.146
-0.195
5.81
11.859
17.947
24.068
30.208
36.355
42.5
48.638
54.781
60.944
67.134
73.362
79.639
85.979
92.425
99.004
105.733
112.62
119.645
126.778
133.993
141.255
148.515
155.711
162.755
169.545
176.001
182.04
187.584
192.546
196.814
200.292
202.908
204.608
205.369
205.184
204.049
201.971
198.989
195.16
190.568
185.316
179.483
173.144
166.377
159.263
151.905
144.398
136.813
129.207
121.624
114.098
106.667
99.36
92.18
85.118
78.154
71.249
64.391
57.575
50.794
44.045
37.317
30.601
23.905
17.245
10.638
4.099
-2.359
-8.723
-14.966
-21.06
-26.972
-32.669
-38.126
-43.329
-48.263
-52.917
-57.285
-61.362
-65.151
-68.661
-71.901
-74.875
-77.591
-80.054
-82.275
-84.268
-86.044
-87.617
-88.999
-90.202
-91.236
-92.113
-92.843
-93.433
-93.892
-94.226
-94.442
-94.548
-94.551
-94.46
-94.28
-94.018
-93.681
-93.273
-92.799
-92.264
-91.67
-91.018
-90.311
-89.549
-88.734
-87.864
-86.941
-85.963
-84.93
-83.842
-82.696
-81.493
-80.231
-78.911
-77.531
-76.091
-74.593
-73.036
-71.422
-69.752
-68.028
-66.252
-64.425
-62.55
-60.631
-58.669
-56.67
-54.635
-52.571
-50.48
-48.37
-46.244
-44.109
-41.971
-39.837
-37.714
-35.609
-33.529
-31.482
-29.474
-27.513
-25.606
-23.759
-21.98
-20.273
-18.644
-17.098
-15.638
-14.269
-12.992
-11.81
-10.725
-9.738
-8.85
-8.061
-7.373
-6.783
-6.29
-5.894
-5.593
-5.382
-5.259
-5.219
-5.257
-5.368
-5.544
-5.779
-6.063
-6.389
-6.747
-7.129
-7.524
-7.924
-8.319
-8.7
-9.061
-9.391
-9.682
-9.925
-10.111
-10.231
-10.278
-10.244
-10.119
-9.895
-9.562
-9.117
-8.551
-7.857
-7.023
-6.035
-4.885
-3.57
-2.092
-0.453
1.34
3.278
5.341
7.504
9.74
12.031
14.36
16.72
19.095
21.464
23.801
26.081
28.293
30.435
32.51
34.524
36.495
38.455
40.456
42.566
44.833
47.287
49.939
52.786
55.828
59.066
62.497
66.104
69.85
73.687
77.562
81.414
85.157
88.674
91.813
94.415
96.353
97.535
97.899
97.408
96.039
93.791
90.681
86.757
82.082
76.727
70.77
64.31
57.478
50.45
43.443
36.666
30.298
24.487
19.345
14.945
11.311
8.416
6.2
4.594
3.547
2.992
2.828
2.918
3.086
3.138
2.887
2.106
0.511
-2.063
-5.566
-9.705
-13.891
-17.497
-20.057
-21.062
-19.841
-16.002
-9.705
-1.754
6.378
13.192
17.819
19.608
17.627
11.484
2.105
-8.241
-16.028
-17.389
-9.147
11.595
48.417
104.769
180.79
272.574
374.881
481.457
589.368
702.129
819.74
935.227
1036.82
1103.161
1113.19
1060.17
946.069
782.393
592.474
396.508
213.353
65.232
-35.92
-87.827
-96.569
-80.788
-58.961
-40.831
-29.431
-21.265
-11.878
-1.534
7.323
11.832
9.917
2.629
-7.764
-18.754
-27.599
-33.072
-34.964
-33.465
-29.386
-23.636
-16.997
-10.434
-4.93
-0.975
1.264
1.856
1.118
-0.679
-3.305
-6.478
-9.897
-13.327
-16.605
-19.59
-22.195
-24.341
-25.935
-26.945
-27.409
-27.367
-26.885
-26.046
-24.923
-23.601
-22.188
-20.753
-19.35
-18.045
-16.878
-15.909
-15.205
-14.769
-14.586
-14.616
-14.774
-14.982
-15.165
-15.22
-15.042
-14.542
-13.628
-12.241
-10.355
-7.924
-4.912
-1.28
3.024
7.988
13.574
19.742
26.429
33.573
41.12
48.987
57.075
65.316
73.643
81.999
90.357
98.668
106.88
114.944
122.812
130.47
137.928
145.195
152.278
159.18
165.89
172.405
178.732
184.839
190.694
196.271
201.529
206.442
210.99
215.145
218.869
222.116
224.824
226.921
228.359
229.095
229.112
228.412
227.005
224.934
222.244
218.972
215.157
210.829
206.016
200.751
195.078
189.042
182.7
176.126
169.379
162.515
155.57
148.561
141.49
134.343
127.109
119.784
112.372
104.885
97.339
89.755
82.153
74.554
66.975
59.419
51.893
44.406
36.973
29.62
22.38
15.289
8.383
1.693
-4.753
-10.938
-16.847
-22.471
-27.806
-32.854
-37.612
-42.077
-46.246
-50.116
-53.688
-56.965
-59.953
-62.66
-65.096
-67.273
-69.201
-70.894
-72.361
-73.613
-74.66
-75.511
-76.175
-76.663
-76.987
-77.158
-77.189
-77.092
-76.88
-76.565
-76.158
-75.672
-75.115
-74.497
-73.828
-73.115
-72.366
-71.588
-70.789
-69.975
-69.15
-68.322
-67.495
-66.672
-65.858
-65.057
-64.27
-63.5
-62.75
-62.021
-61.313
-60.629
-59.969
-59.333
-58.723
-58.138
-57.578
-57.044
-56.535
-56.051
-55.593
-55.159
-54.749
-54.364
-54.002
-53.665
-53.353
-53.066
-52.803
-52.566
-52.354
-52.169
-52.011
-51.881
-51.78
-51.708
-51.668
-51.66
-51.686
-51.747
-51.844
-51.978
-52.15
-52.361
-52.611
-52.902
-53.233
-53.605
-54.019
-54.475
-54.973
-55.513
-56.095
-56.719
-57.385
-58.091
-58.838
-59.626
-60.454
-61.321
-62.228
-63.174
-64.159
-65.181
-66.241
-67.334
-68.461
-69.617
-70.798
-72.002
-73.225
-74.463
-75.714
-76.974
-78.24
-79.51
-80.783
-82.056
-83.327
-84.593
-85.848
-87.086
-88.304
-89.494
-90.651
-91.767
-92.835
-93.847
-94.801
-95.691
-96.511
-97.252
-97.9
-98.448
-98.891
-99.228
-99.46
-99.588
-99.616
-99.556
-99.43
-99.256
-99.053
-98.83
-98.582
-98.307
-98.006
-97.679
-97.331
-96.954
-96.526
-96.032
-95.465
-94.812
-94.065
-93.196
-92.152
-90.894
-89.395
-87.647
-85.672
-83.491
-81.125
-78.611
-75.999
-73.357
-70.784
-68.356
-66.129
-64.159
-62.498
-61.222
-60.437
-60.23
-60.669
-61.796
-63.623
-66.162
-69.418
-73.356
-77.906
-82.958
-88.37
-94.022
-99.822
-105.681
-111.509
-117.198
-122.617
-127.644
-132.187
-136.166
-139.511
-142.156
-144.053
-145.216
-145.737
-145.768
-145.483
-145.029
-144.511
-144.054
-143.813
-143.936
-144.57
-145.853
-147.869
-150.776
-154.855
-160.181
-166.641
-173.955
-181.469
-188.477
-194.452
-198.633
-200.084
-198.532
-194.088
-187.18
-179.419
-172.569
-167.859
-166.992
-170.303
-175.498
-180.466
-183.988
-187.262
-193.544
-201.924
-204.251
-184.324
-127.173
-29.813
99.506
241.459
378.987
509.526
635.578
758.088
870.2
950.36
974.059
929.961
819.343
655.673
462.378
258.98
63.161
-105.55
-234.757
-318.041
-356.176
-360.126
-341.718
-309.838
-273.306
-240
-216.936
-209.577
-216.5
-229.04
-239.021
-241.927
-238.141
-233.118
-230.083
-228.31
-226.069
-220.833
-211.78
-200.19
-187.343
-174.259
-161.808
-150.627
-141.101
-133.469
-127.698
-123.506
-120.689
-119.145
-118.735
-119.284
-120.609
-122.486
-124.718
-127.17
-129.673
-132.09
-134.333
-136.313
-137.97
-139.262
-140.137
-140.554
-140.499
-139.939
-138.832
-137.163
-134.936
-132.188
-128.99
-125.407
-121.494
-117.29
-112.818
-108.098
-103.152
-97.997
-92.648
-87.12
-81.426
-75.596
-69.682
-63.722
-57.741
-51.75
-45.74
-39.711
-33.676
-27.651
-21.648
-15.675
-9.728
-3.802
2.102
7.984
13.852
19.719
25.619
31.585
37.631
43.766
49.992
56.321
62.781
69.414
76.244
83.273
90.485
97.843
105.321
112.876
120.457
127.995
135.396
142.573
149.458
155.994
162.124
167.781
172.872
177.288
180.945
183.787
185.783
186.923
187.196
186.611
185.201
183.028
180.181
176.736
172.748
168.261
163.317
157.975
152.312
146.42
140.368
134.21
127.988
121.736
115.492
109.276
103.09
96.908
90.694
84.425
78.099
71.728
65.323
58.891
52.43
45.942
39.439
32.938
26.455
20.008
13.607
7.273
1.037
-5.058
-10.967
-16.658
-22.106
-27.295
-32.21
-36.839
-41.17
-45.2
-48.929
-52.361
-55.494
-58.33
-60.866
-63.107
-65.061
-66.739
-68.153
-69.315
-70.236
-70.926
-71.399
-71.666
-71.738
-71.627
-71.341
-70.891
-70.29
-69.55
-68.687
-67.713
-66.64
-65.483
-64.254
-62.967
-61.632
-60.262
-58.865
-57.452
-56.032
-54.614
-53.205
-51.815
-50.45
-49.116
-47.821
-46.569
-45.366
-44.216
-43.122
-42.088
-41.116
-40.208
-39.366
-38.591
-37.883
-37.243
-36.672
-36.168
-35.73
-35.357
-35.048
-34.801
-34.614
-34.484
-34.409
-34.387
-34.417
-34.495
-34.62
-34.79
-35.004
-35.259
-35.554
-35.886
-36.255
-36.659
-37.096
-37.564
-38.062
-38.589
-39.144
-39.724
-40.33
-40.958
-41.609
-42.28
-42.971
-43.679
-44.404
-45.143
-45.897
-46.662
-47.437
-48.222
-49.013
-49.808
-50.606
-51.403
-52.197
-52.985
-53.763
-54.529
-55.278
-56.007
-56.712
-57.389
-58.033
-58.639
-59.203
-59.719
-60.182
-60.588
-60.93
-61.203
-61.402
-61.523
-61.561
-61.509
-61.364
-61.121
-60.775
-60.321
-59.755
-59.073
-58.27
-57.344
-56.29
-55.106
-53.79
-52.339
-50.751
-49.027
-47.163
-45.162
-43.021
-40.743
-38.328
-35.779
-33.098
-30.291
-27.36
-24.312
-21.153
-17.889
-14.527
-11.077
-7.546
-3.945
-0.283
3.429
7.178
10.953
14.739
18.522
22.287
26.018
29.697
33.306
36.828
40.242
43.532
46.676
49.66
52.464
55.074
57.474
59.649
61.584
63.265
64.678
65.809
66.648
67.185
67.415
67.337
66.951
66.258
65.262
63.96
62.35
60.434
58.21
55.68
52.852
49.741
46.375
42.798
39.054
35.19
31.254
27.286
23.33
19.434
15.641
12.012
8.604
5.469
2.667
0.253
-1.74
-3.3
-4.467
-5.325
-5.973
-6.504
-6.991
-7.51
-8.172
-9.108
-10.457
-12.348
-14.846
-18.058
-22.207
-27.387
-33.516
-40.283
-46.966
-52.847
-57.487
-60.313
-60.586
-57.977
-52.545
-44.985
-37.153
-30.686
-26.333
-25.211
-28.526
-36.275
-47.807
-60.156
-67.011
-64.338
-50.236
-24.046
11.889
59.464
123.246
206.672
313.596
441.17
581.859
727.436
864.803
980.032
1059.994
1089.464
1058.44
966.537
818.188
627.358
416.896
208.514
27.457
-105.76
-187.869
-222.599
-224.112
-210.49
-186.314
-156.304
-124.519
-91.743
-68.302
-58.319
-57
-61.903
-66.078
-66.268
-66.729
-68.246
-70.685
-73.636
-74.19
-71.473
-66.505
-60.112
-53.385
-47.371
-42.731
-39.836
-38.87
-39.682
-41.82
-44.952
-48.848
-53.225
-57.828
-62.441
-66.822
-70.813
-74.339
-77.296
-79.597
-81.193
-82.04
-82.138
-81.525
-80.242
-78.333
-75.849
-72.841
-69.366
-65.49
-61.287
-56.835
-52.213
-47.494
-42.746
-38.019
-33.353
-28.774
-24.29
-19.912
-15.653
-11.538
-7.607
-3.889
-0.392
2.888
5.976
8.906
11.723
14.482
17.248
20.071
22.989
26.031
29.207
32.538
36.056
39.81
43.88
48.329
53.201
58.522
64.293
70.483
77.041
83.897
90.961
98.162
105.444
112.767
120.104
127.428
134.714
141.905
148.916
155.654
162.012
167.907
173.283
178.109
182.379
186.105
189.309
192.006
194.198
195.875
197.012
197.573
197.504
196.786
195.431
193.477
191.002
188.065
184.707
180.959
176.84
172.363
167.539
162.376
156.88
151.074
144.996
138.7
132.265
125.748
119.183
112.582
105.928
99.215
92.453
85.648
78.809
71.951
65.089
58.25
51.471
44.779
38.189
31.707
25.324
19.041
12.87
6.828
0.946
-4.754
-10.256
-15.54
-20.588
-25.384
-29.919
-34.191
-38.207
-41.972
-45.486
-48.752
-51.765
-54.527
-57.044
-59.321
-61.366
-63.188
-64.792
-66.191
-67.394
-68.412
-69.255
-69.93
-70.441
-70.795
-71
-71.063
-70.991
-70.79
-70.467
-70.03
-69.487
-68.845
-68.111
-67.292
-66.394
-65.424
-64.388
-63.292
-62.143
-60.946
-59.707
-58.431
-57.125
-55.793
-54.443
-53.079
-51.707
-50.332
-48.961
-47.599
-46.251
-44.923
-43.619
-42.346
-41.108
-39.912
-38.761
-37.662
-36.618
-35.635
-34.717
-33.868
-33.091
-32.389
-31.765
-31.223
-30.763
-30.387
-30.098
-29.894
-29.778
-29.749
-29.806
-29.948
-30.174
-30.482
-30.87
-31.334
-31.871
-32.478
-33.151
-33.885
-34.677
-35.52
-36.412
-37.346
-38.319
-39.324
-40.357
-41.412
-42.486
-43.572
-44.667
-45.766
-46.865
-47.959
-49.045
-50.119
-51.178
-52.219
-53.239
-54.236
-55.206
-56.149
-57.062
-57.944
-58.792
-59.605
-60.382
-61.122
-61.824
-62.487
-63.111
-63.694
-64.236
-64.735
-65.191
-65.601
-65.964
-66.279
-66.542
-66.751
-66.905
-67
-67.033
-67.002
-66.902
-66.731
-66.484
-66.157
-65.747
-65.249
-64.659
-63.974
-63.191
-62.306
-61.318
-60.223
-59.02
-57.708
-56.286
-54.754
-53.113
-51.363
-49.508
-47.55
-45.494
-43.347
-41.114
-38.804
-36.427
-33.995
-31.518
-29.011
-26.489
-23.966
-21.46
-18.985
-16.558
-14.195
-11.914
-9.729
-7.658
-5.716
-3.92
-2.287
-0.836
0.418
1.462
2.288
2.887
3.253
3.379
3.255
2.873
2.229
1.317
0.13
-1.333
-3.068
-5.06
-7.271
-9.659
-12.18
-14.792
-17.458
-20.139
-22.788
-25.363
-27.814
-30.09
-32.155
-33.963
-35.464
-36.623
-37.422
-37.89
-38.132
-38.265
-38.41
-38.67
-39.112
-39.83
-40.952
-42.578
-44.805
-47.712
-51.313
-55.744
-61.254
-67.851
-75.406
-83.555
-91.516
-98.618
-104.363
-107.914
-108.43
-105.765
-99.952
-91.648
-82.749
-74.776
-68.95
-67.361
-70.043
-74.085
-77.477
-77.24
-73.233
-71.195
-71.518
-68.89
-51.253
-0.273
92.064
221.568
374.32
530.137
677.196
809.809
921.714
1006.418
1048.45
1029.898
944.011
791.188
585.834
356.619
131.358
-60.02
-194.464
-268.75
-290.84
-281.002
-262.343
-244.558
-229.82
-213.571
-189.73
-161.216
-133.013
-109.16
-94.171
-88.327
-89.773
-97.712
-109.11
-119.753
-127.707
-132.096
-132.58
-129.954
-124.591
-116.023
-105.152
-93.974
-83.614
-74.786
-67.795
-62.214
-58.015
-55.655
-54.993
-55.458
-56.673
-58.221
-59.889
-61.789
-63.825
-65.788
-67.621
-69.316
-70.892
-72.42
-73.88
-75.17
-76.24
-77.043
-77.534
-77.689
-77.451
-76.785
-75.695
-74.2
-72.334
-70.116
-67.54
-64.606
-61.312
-57.659
-53.66
-49.328
-44.669
-39.71
-34.488
-29.045
-23.444
-17.725
-11.908
-6.007
-0.026
6.031
12.151
18.327
24.562
30.855
37.202
43.598
50.029
56.494
62.996
69.542
76.145
82.809
89.526
96.284
103.069
109.862
116.642
123.382
130.051
136.617
143.055
149.336
155.438
161.334
166.994
172.39
177.493
182.275
186.711
190.777
194.451
197.712
200.544
202.931
204.862
206.327
207.316
207.822
207.84
207.366
206.4
204.942
202.996
200.567
197.664
194.298
190.481
186.228
181.558
176.488
171.039
165.236
159.1
152.658
145.935
138.961
131.762
124.369
116.81
109.116
101.317
93.442
85.521
77.582
69.654
61.764
53.939
46.203
38.581
31.096
23.77
16.621
9.668
2.929
-3.582
-9.849
-15.863
-21.611
-27.086
-32.281
-37.189
-41.807
-46.133
-50.165
-53.906
-57.356
-60.52
-63.402
-66.008
-68.346
-70.424
-72.249
-73.833
-75.185
-76.316
-77.237
-77.96
-78.497
-78.859
-79.059
-79.11
-79.022
-78.808
-78.48
-78.049
-77.527
-76.923
-76.249
-75.514
-74.728
-73.901
-73.04
-72.154
-71.25
-70.336
-69.417
-68.5
-67.588
-66.688
-65.802
-64.934
-64.087
-63.263
-62.464
-61.692
-60.948
-60.233
-59.548
-58.894
-58.269
-57.675
-57.11
-56.575
-56.067
-55.587
-55.133
-54.704
-54.298
-53.914
-53.552
-53.209
-52.885
-52.578
-52.287
-52.013
-51.753
-51.509
-51.28
-51.067
-50.87
-50.689
-50.527
-50.383
-50.259
-50.157
-50.078
-50.023
-49.993
-49.991
-50.017
-50.073
-50.159
-50.278
-50.432
-50.622
-50.851
-51.119
-51.43
-51.785
-52.186
-52.636
-53.135
-53.684
-54.285
-54.938
-55.643
-56.398
-57.201
-58.05
-58.941
-59.872
-60.837
-61.833
-62.855
-63.897
-64.956
-66.028
-67.105
-68.182
-69.251
-70.304
-71.335
-72.336
-73.297
-74.208
-75.06
-75.843
-76.55
-77.17
-77.69
-78.098
-78.375
-78.51
-78.497
-78.33
-78.006
-77.527
-76.895
-76.123
-75.231
-74.234
-73.143
-71.968
-70.71
-69.379
-67.99
-66.555
-65.089
-63.596
-62.072
-60.508
-58.896
-57.212
-55.425
-53.493
-51.358
-48.982
-46.349
-43.449
-40.29
-36.878
-33.216
-29.325
-25.238
-21.004
-16.684
-12.349
-8.069
-3.94
-0.083
3.38
6.312
8.605
10.182
10.984
10.968
10.102
8.36
5.748
2.307
-1.892
-6.77
-12.229
-18.17
-24.469
-30.965
-37.501
-43.91
-50.046
-55.794
-61.053
-65.734
-69.756
-73.059
-75.611
-77.449
-78.677
-79.404
-79.754
-79.834
-79.72
-79.548
-79.497
-79.723
-80.371
-81.585
-83.422
-86.016
-89.652
-94.347
-99.894
-105.914
-111.613
-116.237
-119.33
-120.164
-117.85
-112.319
-104
-93.738
-83.357
-74.525
-68.402
-66.551
-70.463
-78.793
-87.978
-95.753
-99.053
-96.621
-90.805
-76.101
-43.032
13.527
100.096
213.239
340.259
475.101
611.522
743.685
866.109
964.369
1019.204
1013.469
939.648
801.766
615.349
404.892
194.781
7.03
-141.656
-242.748
-296.161
-307.669
-286.174
-244.754
-196.107
-153.149
-127.261
-121.469
-131.785
-147.493
-158.224
-160.174
-154.692
-148.06
-144.362
-142.911
-141.786
-138.056
-130.557
-120.472
-109.074
-97.472
-86.656
-77.343
-69.96
-64.802
-61.843
-60.76
-61.325
-63.367
-66.644
-70.899
-75.875
-81.268
-86.831
-92.368
-97.63
-102.424
-106.608
-110.051
-112.681
-114.437
-115.274
-115.196
-114.237
-112.444
-109.877
-106.599
-102.678
-98.224
-93.362
-88.221
-82.941
-77.613
-72.301
-67.061
-61.927
-56.931
-52.091
-47.399
-42.834
-38.381
-34.025
-29.753
-25.549
-21.373
-17.185
-12.949
-8.622
-4.184
0.38
5.082
9.918
14.873
19.933
25.072
30.27
35.526
40.836
46.193
51.596
57.03
62.494
68.001
73.557
79.163
84.823
90.538
96.325
102.227
108.27
114.472
120.832
127.318
133.899
140.548
147.22
153.863
160.403
166.739
172.79
178.492
183.778
188.588
192.837
196.417
199.243
201.254
202.408
202.7
202.12
200.664
198.354
195.238
191.387
186.901
181.861
176.321
170.346
163.993
157.34
150.49
143.522
136.493
129.453
122.438
115.482
108.627
101.887
95.253
88.705
82.207
75.739
69.304
62.903
56.536
50.203
43.89
37.597
31.342
25.136
18.994
12.928
6.943
1.058
-4.694
-10.283
-15.672
-20.834
-25.756
-30.422
-34.822
-38.948
-42.791
-46.353
-49.64
-52.657
-55.407
-57.893
-60.118
-62.087
-63.811
-65.301
-66.568
-67.622
-68.474
-69.133
-69.609
-69.911
-70.047
-70.024
-69.848
-69.525
-69.065
-68.476
-67.766
-66.945
-66.021
-65.002
-63.899
-62.719
-61.471
-60.161
-58.798
-57.387
-55.936
-54.451
-52.938
-51.405
-49.856
-48.298
-46.737
-45.179
-43.629
-42.092
-40.573
-39.078
-37.611
-36.177
-34.78
-33.425
-32.116
-30.858
-29.654
-28.508
-27.424
-26.405
-25.453
-24.571
-23.76
-23.021
-22.356
-21.764
-21.248
-20.805
-20.438
-20.145
-19.925
-19.778
-19.703
-19.698
-19.761
-19.892
-20.087
-20.345
-20.662
-21.037
-21.467
-21.949
-22.48
-23.057
-23.675
-24.333
-25.026
-25.752
-26.505
-27.282
-28.081
-28.897
-29.729
-30.573
-31.426
-32.288
-33.155
-34.025
-34.898
-35.772
-36.644
-37.514
-38.38
-39.24
-40.092
-40.934
-41.763
-42.575
-43.368
-44.139
-44.885
-45.602
-46.286
-46.935
-47.548
-48.122
-48.654
-49.14
-49.577
-49.961
-50.289
-50.556
-50.757
-50.886
-50.938
-50.906
-50.787
-50.574
-50.261
-49.837
-49.29
-48.614
-47.805
-46.864
-45.792
-44.595
-43.28
-41.861
-40.363
-38.804
-37.199
-35.561
-33.897
-32.221
-30.555
-28.916
-27.322
-25.781
-24.291
-22.846
-21.441
-20.052
-18.648
-17.189
-15.619
-13.906
-12.033
-9.989
-7.779
-5.404
-2.861
-0.163
2.663
5.586
8.556
11.515
14.4
17.117
19.549
21.582
23.09
23.975
24.179
23.646
22.349
20.28
17.439
13.855
9.579
4.664
-0.821
-6.786
-13.13
-19.706
-26.345
-32.884
-39.157
-45.023
-50.38
-55.134
-59.22
-62.639
-65.432
-67.663
-69.425
-70.784
-71.773
-72.483
-73.05
-73.628
-74.4
-75.53
-77.091
-79.238
-82.24
-86.128
-90.741
-95.721
-100.318
-103.897
-106.137
-106.423
-103.949
-98.635
-90.787
-81.153
-71.481
-63.109
-56.668
-53.544
-55.364
-60.891
-67.034
-70.82
-67.292
-56.207
-42.667
-25.435
-1.33
36.105
100.888
197.41
322.604
470.402
625.436
774.686
905.222
1002.097
1053.221
1045.302
973.246
840.601
658.194
448.629
236.395
44.717
-106.354
-206.576
-255.997
-261.794
-235.821
-192.986
-145.912
-105.95
-81.997
-75.716
-83.664
-96.862
-106.768
-110.51
-109.068
-107.65
-109.516
-113.575
-117.921
-119.824
-118.109
-113.793
-107.973
-101.626
-95.66
-90.717
-87.121
-85.026
-84.29
-84.533
-85.481
-86.942
-88.683
-90.469
-92.094
-93.384
-94.234
-94.619
-94.504
-93.863
-92.72
-91.136
-89.196
-86.995
-84.628
-82.177
-79.729
-77.374
-75.179
-73.185
-71.425
-69.921
-68.679
-67.702
-66.953
-66.36
-65.839
-65.293
-64.631
-63.782
-62.674
-61.241
-59.429
-57.193
-54.507
-51.369
-47.778
-43.734
-39.253
-34.354
-29.082
-23.507
-17.688
-11.681
-5.533
0.723
7.054
13.429
19.83
26.244
32.664
39.088
45.511
51.918
58.304
64.665
71.003
77.326
83.635
89.921
96.171
102.368
108.49
114.516
120.419
126.162
131.715
137.046
142.127
146.934
151.441
155.621
159.449
162.901
165.954
168.593
170.8
172.562
173.866
174.704
175.071
174.966
174.387
173.336
171.815
169.827
167.381
164.484
161.147
157.384
153.208
148.638
143.694
138.397
132.77
126.839
120.628
114.167
107.482
100.602
93.557
86.375
79.088
71.723
64.311
56.879
49.457
42.072
34.749
27.514
20.39
13.402
6.57
-0.086
-6.547
-12.796
-18.818
-24.598
-30.123
-35.384
-40.37
-45.073
-49.488
-53.61
-57.437
-60.968
-64.202
-67.144
-69.795
-72.162
-74.249
-76.065
-77.617
-78.915
-79.968
-80.786
-81.382
-81.766
-81.952
-81.95
-81.775
-81.438
-80.952
-80.331
-79.585
-78.728
-77.771
-76.726
-75.604
-74.417
-73.176
-71.889
-70.569
-69.223
-67.86
-66.49
-65.119
-63.753
-62.4
-61.064
-59.75
-58.463
-57.206
-55.982
-54.794
-53.644
-52.534
-51.465
-50.437
-49.451
-48.506
-47.602
-46.738
-45.913
-45.125
-44.374
-43.657
-42.974
-42.323
-41.701
-41.108
-40.54
-39.996
-39.474
-38.972
-38.487
-38.019
-37.565
-37.123
-36.694
-36.276
-35.869
-35.473
-35.087
-34.712
-34.347
-33.995
-33.655
-33.329
-33.017
-32.722
-32.446
-32.189
-31.955
-31.746
-31.564
-31.411
-31.29
-31.203
-31.153
-31.142
-31.171
-31.243
-31.361
-31.525
-31.739
-32.004
-32.321
-32.691
-33.115
-33.593
-34.124
-34.707
-35.34
-36.02
-36.746
-37.514
-38.319
-39.157
-40.021
-40.907
-41.81
-42.721
-43.635
-44.544
-45.44
-46.315
-47.163
-47.974
-48.738
-49.444
-50.083
-50.646
-51.122
-51.504
-51.782
-51.946
-51.988
-51.901
-51.682
-51.324
-50.817
-50.152
-49.322
-48.322
-47.162
-45.845
-44.374
-42.755
-40.994
-39.104
-37.102
-34.998
-32.79
-30.482
-28.073
-25.575
-23.012
-20.406
-17.782
-15.156
-12.53
-9.914
-7.33
-4.788
-2.297
0.141
2.538
4.873
7.097
9.164
11.028
12.659
14.049
15.187
16.057
16.641
16.911
16.849
16.453
15.706
14.581
13.044
11.053
8.612
5.777
2.618
-0.801
-4.423
-8.211
-12.124
-16.101
-20.088
-24.028
-27.87
-31.575
-35.087
-38.333
-41.231
-43.703
-45.719
-47.321
-48.601
-49.655
-50.576
-51.44
-52.295
-53.224
-54.342
-55.754
-57.572
-59.905
-62.808
-66.408
-70.956
-76.532
-82.988
-89.932
-96.562
-102.088
-105.983
-107.619
-106.226
-101.525
-93.742
-83.749
-73.52
-64.973
-59.328
-57.822
-61.484
-70.215
-82.805
-96.792
-107.807
-111.051
-102.376
-77.568
-32.584
34.021
120.314
222.71
335.044
452.63
575.407
702.453
829.458
945.913
1034.367
1074.652
1051.418
961.089
808.516
609.57
390.06
173.592
-14.391
-152.424
-236.227
-267.605
-256.372
-221.833
-175.564
-129.789
-98.606
-84.712
-89.38
-107.584
-124.622
-133.986
-134.167
-127.075
-121.114
-119.233
-119.43
-119.879
-117.516
-111.437
-103.156
-93.767
-84.108
-75.02
-67.088
-60.65
-55.909
-52.812
-51.081
-50.56
-51.206
-52.873
-55.361
-58.476
-61.984
-65.71
-69.538
-73.315
-76.906
-80.222
-83.189
-85.771
-87.963
-89.731
-91.031
-91.824
-92.061
-91.714
-90.793
-89.313
-87.32
-84.872
-82.027
-78.849
-75.388
-71.674
-67.728
-63.562
-59.175
-54.58
-49.801
-44.864
-39.818
-34.701
-29.534
-24.337
-19.122
-13.894
-8.668
-3.452
1.758
6.963
12.166
17.376
22.593
27.826
33.092
38.401
43.773
49.23
54.775
60.418
66.176
72.065
78.122
84.385
90.86
97.541
104.411
111.425
118.538
125.693
132.81
139.824
146.676
153.303
159.663
165.712
171.384
176.612
181.31
185.378
188.749
191.378
193.229
194.307
194.626
194.222
193.166
191.514
189.311
186.596
183.395
179.728
175.637
171.167
166.371
161.326
156.086
150.696
145.201
139.617
133.949
128.188
122.3
116.256
110.048
103.673
97.146
90.486
83.706
76.823
69.854
62.807
55.693
48.526
41.317
34.09
26.875
19.708
12.637
5.709
-1.043
-7.588
-13.904
-19.974
-25.782
-31.316
-36.571
-41.541
-46.216
-50.591
-54.657
-58.41
-61.85
-64.979
-67.803
-70.331
-72.569
-74.526
-76.211
-77.632
-78.798
-79.718
-80.401
-80.854
-81.091
-81.122
-80.962
-80.624
-80.125
-79.477
-78.697
-77.8
-76.8
-75.712
-74.549
-73.324
-72.051
-70.74
-69.405
-68.056
-66.702
-65.355
-64.023
-62.714
-61.436
-60.196
-58.999
-57.852
-56.758
-55.721
-54.744
-53.829
-52.978
-52.193
-51.473
-50.818
-50.228
-49.701
-49.235
-48.828
-48.476
-48.177
-47.926
-47.72
-47.556
-47.428
-47.334
-47.271
-47.233
-47.219
-47.225
-47.249
-47.287
-47.337
-47.397
-47.467
-47.543
-47.626
-47.714
-47.807
-47.905
-48.008
-48.115
-48.227
-48.346
-48.472
-48.606
-48.749
-48.905
-49.075
-49.262
-49.467
-49.693
-49.942
-50.216
-50.517
-50.847
-51.206
-51.597
-52.019
-52.475
-52.965
-53.489
-54.048
-54.641
-55.268
-55.927
-56.617
-57.336
-58.082
-58.853
-59.645
-60.457
-61.285
-62.128
-62.98
-63.839
-64.699
-65.556
-66.405
-67.238
-68.048
-68.829
-69.574
-70.275
-70.928
-71.526
-72.064
-72.537
-72.944
-73.279
-73.539
-73.717
-73.808
-73.804
-73.701
-73.493
-73.173
-72.735
-72.175
-71.49
-70.683
-69.751
-68.693
-67.504
-66.178
-64.711
-63.107
-61.372
-59.508
-57.529
-55.448
-53.289
-51.088
-48.872
-46.658
-44.458
-42.276
-40.117
-37.989
-35.9
-33.853
-31.849
-29.885
-27.964
-26.099
-24.285
-22.509
-20.741
-18.931
-17.051
-15.103
-13.096
-11.053
-9.002
-6.971
-5.004
-3.17
-1.526
-0.123
1.003
1.836
2.338
2.457
2.129
1.282
-0.117
-2.056
-4.514
-7.458
-10.844
-14.613
-18.674
-22.9
-27.179
-31.423
-35.558
-39.535
-43.278
-46.7
-49.729
-52.305
-54.434
-56.188
-57.642
-58.879
-59.975
-60.987
-62.02
-63.25
-64.832
-66.893
-69.535
-72.771
-76.715
-81.621
-87.526
-94.241
-101.26
-107.701
-112.845
-116.258
-117.306
-115.241
-109.869
-101.412
-91.078
-81.05
-72.781
-67.364
-66.218
-70.059
-78.672
-89.978
-98.708
-100.219
-91.89
-73.163
-46.125
-7.758
47.69
124.792
228.557
354.844
493.997
638.519
777.203
898.181
990.847
1038.843
1027.204
951.494
813.581
625.811
411.193
193.045
-4.844
-161.202
-264.157
-312.289
-312.549
-278.104
-225.943
-170.308
-123.701
-95.557
-86.873
-93.343
-105.349
-113.689
-115.588
-112.491
-109.76
-110.736
-114.22
-118.037
-119.386
-117.144
-112.386
-106.28
-99.825
-93.911
-89.161
-85.892
-84.234
-84.023
-84.867
-86.495
-88.747
-91.439
-94.362
-97.327
-100.137
-102.655
-104.813
-106.525
-107.73
-108.424
-108.632
-108.404
-107.809
-106.91
-105.75
-104.371
-102.79
-100.994
-98.978
-96.755
-94.348
-91.802
-89.164
-86.457
-83.686
-80.835
-77.86
-74.723
-71.387
-67.811
-63.971
-59.857
-55.48
-50.881
-46.098
-41.153
-36.06
-30.82
-25.426
-19.885
-14.202
-8.38
-2.438
3.609
9.745
15.948
22.206
28.514
34.873
41.299
47.804
54.391
61.056
67.791
74.579
81.406
88.253
95.091
101.897
108.648
115.32
121.895
128.348
134.654
140.784
146.711
152.403
157.834
162.976
167.805
172.297
176.431
180.187
183.551
186.506
189.039
191.137
192.788
193.981
194.71
194.968
194.751
194.059
192.892
191.255
189.155
186.601
183.603
180.176
176.334
172.096
167.479
162.506
157.197
151.576
145.668
139.497
133.09
126.475
119.679
112.729
105.655
98.483
91.242
83.96
76.663
69.378
62.131
54.947
47.85
40.863
34.009
27.307
20.778
14.439
8.307
2.395
-3.285
-8.721
-13.904
-18.827
-23.484
-27.871
-31.984
-35.823
-39.385
-42.674
-45.689
-48.436
-50.918
-53.141
-55.11
-56.834
-58.319
-59.574
-60.608
-61.431
-62.053
-62.485
-62.738
-62.824
-62.754
-62.54
-62.194
-61.728
-61.154
-60.484
-59.727
-58.896
-58
-57.049
-56.051
-55.017
-53.954
-52.87
-51.773
-50.669
-49.566
-48.468
-47.382
-46.313
-45.266
-44.245
-43.255
-42.3
-41.384
-40.508
-39.678
-38.894
-38.159
-37.475
-36.843
-36.264
-35.738
-35.265
-34.845
-34.477
-34.16
-33.893
-33.675
-33.505
-33.382
-33.303
-33.268
-33.276
-33.324
-33.412
-33.539
-33.702
-33.901
-34.135
-34.401
-34.699
-35.028
-35.385
-35.77
-36.182
-36.618
-37.079
-37.561
-38.065
-38.588
-39.129
-39.687
-40.26
-40.847
-41.448
-42.061
-42.687
-43.323
-43.971
-44.629
-45.298
-45.978
-46.667
-47.365
-48.072
-48.787
-49.509
-50.237
-50.969
-51.706
-52.444
-53.183
-53.921
-54.656
-55.384
-56.104
-56.811
-57.502
-58.174
-58.822
-59.442
-60.03
-60.582
-61.095
-61.566
-61.993
-62.371
-62.699
-62.973
-63.188
-63.339
-63.42
-63.421
-63.339
-63.165
-62.895
-62.526
-62.051
-61.468
-60.777
-59.977
-59.064
-58.034
-56.88
-55.594
-54.182
-52.647
-51
-49.259
-47.437
-45.552
-43.626
-41.676
-39.712
-37.741
-35.756
-33.746
-31.716
-29.674
-27.641
-25.64
-23.674
-21.747
-19.857
-17.992
-16.14
-14.289
-12.405
-10.472
-8.5
-6.512
-4.562
-2.716
-1.016
0.511
1.847
2.985
3.901
4.559
4.935
4.993
4.693
3.989
2.814
1.125
-1.07
-3.723
-6.748
-10.035
-13.498
-17.072
-20.685
-24.278
-27.784
-31.118
-34.216
-37.016
-39.442
-41.409
-42.826
-43.642
-43.897
-43.694
-43.171
-42.476
-41.71
-40.98
-40.446
-40.252
-40.53
-41.419
-42.979
-45.327
-48.745
-53.318
-58.912
-65.228
-71.608
-77.403
-82.212
-85.351
-85.884
-83.566
-78.671
-71.919
-64.914
-58.934
-54.727
-53.737
-57.534
-65.076
-73.272
-78.795
-78.101
-71.925
-63.638
-51.664
-28.667
16.27
91.639
198.045
325.715
460.337
595.09
725.329
844.887
947.22
1013.608
1022.636
966.879
847.057
675.353
476.158
269.319
73.078
-91.318
-211.376
-281.837
-304.317
-291.728
-258.76
-215.235
-169.657
-129.864
-101.449
-89.556
-93.779
-105.193
-115.381
-119.114
-115.674
-110.461
-107.113
-105.462
-104.265
-100.981
-94.658
-86.523
-77.747
-69.344
-62.125
-56.518
-52.798
-51.102
-51.29
-53.01
-55.947
-59.857
-64.471
-69.501
-74.677
-79.742
-84.505
-88.84
-92.636
-95.803
-98.263
-99.957
-100.844
-100.893
-100.103
-98.501
-96.146
-93.124
-89.541
-85.519
-81.176
-76.619
-71.945
-67.237
-62.559
-57.954
-53.465
-49.129
-44.99
-41.097
-37.476
-34.13
-31.037
-28.15
-25.403
-22.713
-20.006
-17.224
-14.313
-11.234
-7.951
-4.436
-0.653
3.436
7.878
12.736
18.051
23.847
30.119
36.832
43.932
51.34
58.988
66.814
74.765
82.794
90.86
98.922
106.932
114.841
122.587
130.091
137.286
144.114
150.536
156.536
162.115
167.289
172.071
176.468
180.482
184.104
187.325
190.131
192.507
194.441
195.929
196.979
197.599
197.798
197.576
196.927
195.84
194.298
192.289
189.804
186.838
183.397
179.493
175.141
170.362
165.185
159.634
153.732
147.505
140.976
134.173
127.126
119.868
112.433
104.856
97.175
89.422
81.633
73.839
66.071
58.357
50.722
43.192
35.791
28.543
21.469
14.592
7.931
1.504
-4.672
-10.582
-16.214
-21.557
-26.604
-31.347
-35.782
-39.906
-43.718
-47.218
-50.409
-53.294
-55.877
-58.166
-60.168
-61.892
-63.348
-64.547
-65.502
-66.225
-66.728
-67.026
-67.131
-67.058
-66.821
-66.433
-65.908
-65.259
-64.5
-63.642
-62.7
-61.684
-60.607
-59.478
-58.31
-57.111
-55.889
-54.654
-53.412
-52.17
-50.934
-49.71
-48.502
-47.314
-46.151
-45.015
-43.908
-42.832
-41.789
-40.779
-39.803
-38.862
-37.954
-37.08
-36.239
-35.431
-34.654
-33.908
-33.192
-32.505
-31.846
-31.214
-30.607
-30.025
-29.467
-28.933
-28.422
-27.933
-27.466
-27.022
-26.601
-26.202
-25.827
-25.475
-25.148
-24.844
-24.566
-24.314
-24.089
-23.893
-23.725
-23.588
-23.482
-23.41
-23.372
-23.369
-23.402
-23.472
-23.578
-23.723
-23.905
-24.125
-24.383
-24.68
-25.015
-25.39
-25.803
-26.255
-26.746
-27.273
-27.838
-28.438
-29.073
-29.741
-30.44
-31.169
-31.927
-32.711
-33.518
-34.347
-35.193
-36.053
-36.922
-37.796
-38.669
-39.535
-40.389
-41.225
-42.039
-42.826
-43.581
-44.3
-44.981
-45.619
-46.211
-46.75
-47.231
-47.646
-47.988
-48.251
-48.427
-48.507
-48.483
-48.352
-48.109
-47.752
-47.277
-46.677
-45.942
-45.068
-44.055
-42.907
-41.628
-40.223
-38.704
-37.09
-35.408
-33.689
-31.951
-30.204
-28.45
-26.693
-24.94
-23.198
-21.476
-19.768
-18.067
-16.371
-14.686
-13.015
-11.348
-9.659
-7.901
-6.037
-4.054
-1.959
0.225
2.472
4.753
7.028
9.243
11.321
13.198
14.826
16.174
17.211
17.884
18.115
17.812
16.898
15.325
13.079
10.162
6.594
2.424
-2.274
-7.392
-12.794
-18.371
-24.029
-29.689
-35.279
-40.688
-45.787
-50.448
-54.554
-58.014
-60.765
-62.775
-64.062
-64.708
-64.832
-64.575
-64.079
-63.464
-62.884
-62.49
-62.428
-62.867
-63.913
-65.717
-68.569
-72.567
-77.592
-83.324
-89.072
-94.195
-98.39
-101.072
-101.397
-99.171
-94.598
-88.581
-83.03
-79.057
-77.013
-77.954
-82.97
-91.981
-103.008
-111.449
-111.794
-101.304
-82.078
-57.529
-27.221
12.85
71.344
156.591
267.75
398.569
539.32
678.488
807.167
915.972
993.04
1023.072
992.676
897.108
739.055
534.876
311.617
94.951
-87.238
-214.498
-283.808
-298.916
-274.748
-232.684
-186.604
-149.984
-130.421
-126.216
-134.289
-145.554
-151.323
-149.983
-143.094
-136.252
-133.872
-135.225
-137.49
-137.271
-133.003
-125.418
-115.829
-105.479
-95.091
-85.246
-76.708
-69.995
-65.326
-62.639
-61.654
-62.157
-63.997
-66.972
-70.85
-75.399
-80.402
-85.68
-91.076
-96.422
-101.578
-106.412
-110.797
-114.596
-117.663
-119.898
-121.263
-121.758
-121.418
-120.279
-118.377
-115.776
-112.559
-108.818
-104.648
-100.124
-95.295
-90.231
-85.015
-79.757
-74.592
-69.603
-64.832
-60.295
-55.976
-51.854
-47.897
-44.041
-40.217
-36.372
-32.451
-28.426
-24.28
-19.968
-15.434
-10.603
-5.376
0.305
6.469
13.131
20.27
27.847
35.809
44.059
52.506
61.081
69.718
78.373
87.01
95.568
103.986
112.194
120.103
127.645
134.765
141.41
147.557
153.196
158.333
163.003
167.239
171.053
174.455
177.44
179.998
182.129
183.832
185.105
185.958
186.401
186.441
186.091
185.354
184.225
182.697
180.751
178.371
175.553
172.299
168.617
164.523
160.033
155.169
149.956
144.42
138.584
132.472
126.106
119.512
112.718
105.754
98.652
91.445
84.163
76.837
69.495
62.164
54.869
47.634
40.478
33.423
26.487
19.69
13.05
6.585
0.31
-5.759
-11.61
-17.229
-22.608
-27.736
-32.608
-37.218
-41.562
-45.638
-49.444
-52.98
-56.247
-59.248
-61.985
-64.463
-66.688
-68.666
-70.403
-71.908
-73.189
-74.256
-75.117
-75.782
-76.261
-76.564
-76.7
-76.679
-76.511
-76.205
-75.772
-75.221
-74.561
-73.802
-72.953
-72.024
-71.024
-69.961
-68.843
-67.679
-66.475
-65.24
-63.979
-62.701
-61.411
-60.115
-58.82
-57.531
-56.252
-54.988
-53.744
-52.522
-51.327
-50.16
-49.026
-47.925
-46.862
-45.837
-44.854
-43.913
-43.018
-42.17
-41.37
-40.619
-39.92
-39.273
-38.679
-38.138
-37.652
-37.219
-36.841
-36.518
-36.249
-36.033
-35.871
-35.76
-35.7
-35.689
-35.725
-35.807
-35.934
-36.104
-36.316
-36.569
-36.862
-37.194
-37.564
-37.972
-38.417
-38.896
-39.41
-39.956
-40.532
-41.138
-41.77
-42.429
-43.111
-43.815
-44.54
-45.284
-46.045
-46.821
-47.61
-48.411
-49.221
-50.038
-50.861
-51.689
-52.519
-53.351
-54.183
-55.013
-55.838
-56.656
-57.464
-58.257
-59.031
-59.78
-60.498
-61.181
-61.822
-62.418
-62.962
-63.451
-63.881
-64.249
-64.553
-64.787
-64.946
-65.024
-65.016
-64.915
-64.714
-64.408
-63.989
-63.452
-62.794
-62.015
-61.112
-60.083
-58.922
-57.621
-56.177
-54.592
-52.87
-51.015
-49.036
-46.949
-44.776
-42.552
-40.302
-38.045
-35.79
-33.542
-31.306
-29.091
-26.904
-24.75
-22.633
-20.552
-18.514
-16.531
-14.601
-12.712
-10.836
-8.923
-6.948
-4.909
-2.816
-0.695
1.42
3.498
5.488
7.328
8.964
10.348
11.446
12.238
12.682
12.727
12.302
11.32
9.723
7.492
4.631
1.17
-2.839
-7.334
-12.219
-17.374
-22.689
-28.069
-33.433
-38.708
-43.803
-48.613
-53.023
-56.912
-60.192
-62.812
-64.771
-66.113
-66.913
-67.261
-67.255
-67.024
-66.719
-66.487
-66.481
-66.841
-67.657
-69.06
-71.293
-74.484
-78.6
-83.405
-88.286
-92.609
-95.988
-97.956
-97.842
-95.269
-90.245
-83.363
-76.283
-70.591
-67.005
-66.297
-69.489
-76.987
-88.387
-100.831
-108.389
-105.802
-90.419
-64.045
-30.578
9.02
57.351
123.661
216.789
338.834
486.323
645.525
799.021
929.738
1021.106
1061.34
1041.356
959.274
820.535
636.745
428.421
218.559
29.211
-121.191
-222.446
-275.46
-287.377
-266.485
-225.538
-174.082
-122.211
-85.701
-71.095
-79.25
-104.103
-129.489
-146.481
-152.561
-149.621
-145.555
-143.371
-142.244
-141.036
-137.063
-129.88
-120.953
-111.246
-101.895
-93.816
-87.139
-81.906
-78.087
-75.396
-73.651
-72.797
-72.745
-73.384
-74.607
-76.279
-78.262
-80.467
-82.782
-85.077
-87.257
-89.255
-91.04
-92.617
-93.988
-95.151
-96.08
-96.732
-97.052
-96.981
-96.489
-95.572
-94.248
-92.547
-90.505
-88.16
-85.535
-82.649
-79.504
-76.091
-72.403
-68.433
-64.192
-59.707
-55.017
-50.175
-45.228
-40.202
-35.117
-29.986
-24.815
-19.615
-14.399
-9.176
-3.956
1.245
6.426
11.581
16.713
21.829
26.941
32.077
37.273
42.563
47.971
53.522
59.234
65.134
71.265
77.657
84.322
91.268
98.473
105.905
113.532
121.311
129.186
137.086
144.912
152.554
159.924
166.929
173.483
179.491
184.828
189.389
193.095
195.885
197.732
198.626
198.559
197.538
195.603
192.809
189.24
185.002
180.174
174.83
169.049
162.912
156.526
149.99
143.375
136.739
130.123
123.559
117.081
110.714
104.454
98.29
92.193
86.122
80.061
74.004
67.942
61.87
55.775
49.647
43.495
37.335
31.186
25.065
18.988
12.972
7.047
1.249
-4.387
-9.822
-15.027
-19.985
-24.678
-29.091
-33.216
-37.045
-40.58
-43.827
-46.793
-49.481
-51.896
-54.045
-55.936
-57.583
-58.998
-60.195
-61.187
-61.986
-62.604
-63.054
-63.347
-63.494
-63.505
-63.388
-63.152
-62.81
-62.371
-61.847
-61.249
-60.586
-59.87
-59.109
-58.314
-57.492
-56.651
-55.797
-54.937
-54.074
-53.215
-52.362
-51.52
-50.69
-49.876
-49.079
-48.302
-47.544
-46.806
-46.09
-45.393
-44.717
-44.061
-43.423
-42.803
-42.2
-41.613
-41.042
-40.485
-39.941
-39.409
-38.889
-38.379
-37.877
-37.384
-36.898
-36.417
-35.942
-35.472
-35.007
-34.547
-34.093
-33.645
-33.205
-32.773
-32.35
-31.939
-31.54
-31.154
-30.785
-30.433
-30.1
-29.789
-29.502
-29.241
-29.009
-28.808
-28.641
-28.509
-28.416
-28.361
-28.348
-28.376
-28.449
-28.566
-28.728
-28.936
-29.19
-29.491
-29.839
-30.234
-30.677
-31.165
-31.699
-32.277
-32.897
-33.558
-34.258
-34.995
-35.765
-36.566
-37.395
-38.25
-39.125
-40.017
-40.92
-41.83
-42.741
-43.646
-44.538
-45.41
-46.256
-47.069
-47.843
-48.571
-49.248
-49.868
-50.429
-50.927
-51.356
-51.71
-51.982
-52.166
-52.254
-52.241
-52.119
-51.879
-51.516
-51.023
-50.401
-49.649
-48.761
-47.735
-46.561
-45.237
-43.766
-42.154
-40.407
-38.533
-36.545
-34.466
-32.326
-30.157
-27.981
-25.809
-23.645
-21.498
-19.376
-17.289
-15.247
-13.249
-11.286
-9.359
-7.47
-5.619
-3.797
-1.975
-0.103
1.856
3.915
6.067
8.283
10.543
12.816
15.067
17.249
19.29
21.126
22.71
24.001
24.958
25.529
25.633
25.171
24.071
22.295
19.848
16.766
13.085
8.862
4.175
-0.879
-6.168
-11.572
-16.996
-22.344
-27.518
-32.422
-36.924
-40.891
-44.224
-46.876
-48.87
-50.287
-51.213
-51.738
-51.945
-51.957
-51.963
-52.137
-52.626
-53.587
-55.088
-57.281
-60.5
-64.845
-70.187
-76.23
-82.262
-87.61
-91.957
-94.648
-94.763
-92.176
-87.192
-80.577
-74.16
-69.35
-66.779
-67.849
-74.236
-84.561
-95.371
-103.381
-103.355
-95.12
-84.258
-69.553
-47.421
-10.719
55.563
156.049
287.635
444.102
608.822
767.578
904.857
1002.681
1050.161
1036.463
961.777
835.902
667.022
472.939
271.626
79.323
-80.068
-191.4
-251.201
-263.7
-244.035
-207.655
-163.984
-120.376
-84.071
-61.292
-56.28
-67.796
-87.245
-105.749
-117.976
-123.327
-126.012
-128.809
-131.952
-134.478
-134.212
-130.643
-124.884
-117.988
-111.229
-105.573
-101.197
-98.159
-96.396
-95.557
-95.389
-95.712
-96.305
-96.986
-97.635
-98.149
-98.453
-98.555
-98.431
-98.043
-97.381
-96.436
-95.236
-93.836
-92.295
-90.673
-89.024
-87.391
-85.815
-84.328
-82.939
-81.644
-80.421
-79.219
-77.997
-76.713
-75.312
-73.752
-71.983
-69.951
-67.614
-64.938
-61.895
-58.469
-54.65
-50.428
-45.81
-40.817
-35.483
-29.87
-24.031
-18.014
-11.876
-5.662
0.584
6.824
13.037
19.222
25.38
31.518
37.651
43.777
49.894
56.007
62.122
68.261
74.44
80.677
86.997
93.425
99.99
106.702
113.552
120.505
127.507
134.491
141.383
148.118
154.647
160.919
166.891
172.515
177.744
182.525
186.796
190.487
193.518
195.826
197.372
198.144
198.161
197.461
196.105
194.143
191.619
188.571
185.028
181.019
176.575
171.732
166.532
161.032
155.303
149.409
143.404
137.321
131.175
124.964
118.668
112.274
105.777
99.178
92.488
85.724
78.907
72.059
65.204
58.357
51.522
44.708
37.921
31.176
24.498
17.919
11.475
5.202
-0.869
-6.709
-12.299
-17.625
-22.676
-27.447
-31.94
-36.151
-40.08
-43.722
-47.076
-50.141
-52.922
-55.425
-57.658
-59.631
-61.354
-62.84
-64.098
-65.141
-65.978
-66.618
-67.07
-67.343
-67.448
-67.394
-67.194
-66.859
-66.402
-65.834
-65.169
-64.418
-63.592
-62.704
-61.763
-60.779
-59.761
-58.718
-57.658
-56.589
-55.517
-54.449
-53.39
-52.345
-51.319
-50.317
-49.341
-48.394
-47.48
-46.6
-45.757
-44.951
-44.183
-43.454
-42.765
-42.116
-41.506
-40.935
-40.403
-39.907
-39.447
-39.022
-38.628
-38.263
-37.926
-37.614
-37.325
-37.057
-36.807
-36.573
-36.355
-36.15
-35.957
-35.775
-35.603
-35.441
-35.289
-35.145
-35.011
-34.886
-34.772
-34.668
-34.575
-34.495
-34.428
-34.377
-34.341
-34.324
-34.325
-34.349
-34.396
-34.468
-34.569
-34.699
-34.861
-35.058
-35.291
-35.564
-35.877
-36.233
-36.634
-37.081
-37.576
-38.119
-38.711
-39.352
-40.041
-40.777
-41.558
-42.381
-43.245
-44.146
-45.08
-46.044
-47.032
-48.04
-49.062
-50.093
-51.125
-52.153
-53.169
-54.166
-55.135
-56.069
-56.959
-57.798
-58.576
-59.286
-59.919
-60.465
-60.918
-61.268
-61.507
-61.627
-61.62
-61.479
-61.199
-60.773
-60.197
-59.468
-58.583
-57.54
-56.34
-54.981
-53.467
-51.8
-49.984
-48.023
-45.925
-43.698
-41.349
-38.89
-36.332
-33.689
-30.975
-28.206
-25.399
-22.573
-19.747
-16.94
-14.173
-11.464
-8.832
-6.297
-3.877
-1.59
0.545
2.51
4.284
5.851
7.193
8.297
9.15
9.75
10.091
10.171
9.99
9.536
8.803
7.787
6.481
4.881
2.99
0.816
-1.616
-4.262
-7.081
-10.031
-13.067
-16.16
-19.273
-22.364
-25.392
-28.297
-31.018
-33.505
-35.697
-37.537
-38.985
-40.028
-40.714
-41.144
-41.421
-41.635
-41.849
-42.123
-42.566
-43.315
-44.494
-46.241
-48.636
-51.8
-56.02
-61.391
-67.762
-74.744
-81.569
-87.508
-92.137
-94.806
-94.654
-91.533
-85.803
-78.548
-71.863
-67.061
-64.906
-66.89
-74.047
-86.121
-100.893
-113.143
-118.183
-113.813
-99.83
-77.965
-43.918
9.432
85.912
189.801
314.502
447.996
585.225
717.607
838.724
943.407
1016.227
1040.445
1003.691
899.43
731.627
518.517
287.094
65.38
-117.046
-242.634
-311.31
-330.294
-315.053
-280.59
-233.835
-182.918
-138.069
-107.871
-98.846
-108.968
-126.441
-140.165
-144.465
-139.93
-133.288
-129.223
-127.645
-126.7
-123.519
-117.055
-108.527
-99.254
-90.287
-82.35
-75.86
-71.075
-68.121
-66.881
-67.022
-68.29
-70.541
-73.602
-77.268
-81.303
-85.422
-89.387
-93.053
-96.317
-99.136
-101.504
-103.399
-104.8
-105.695
-106.074
-105.949
-105.322
-104.17
-102.48
-100.275
-97.613
-94.604
-91.37
-87.996
-84.523
-80.958
-77.275
-73.463
-69.519
-65.43
-61.184
-56.776
-52.221
-47.564
-42.847
-38.086
-33.271
-28.371
-23.35
-18.192
-12.893
-7.456
-1.899
3.756
9.479
15.237
21.003
26.763
32.518
38.279
44.059
49.862
55.678
61.502
67.335
73.181
79.047
84.948
90.902
96.937
103.098
109.41
115.89
122.54
129.342
136.28
143.331
150.456
157.613
164.749
171.792
178.665
185.283
191.535
197.315
202.515
207.008
210.706
213.535
215.432
216.362
216.297
215.217
213.135
210.072
206.061
201.16
195.44
188.985
181.919
174.358
166.412
158.208
149.841
141.395
132.951
124.567
116.293
108.172
100.233
92.493
84.974
77.681
70.609
63.744
57.045
50.483
44.035
37.677
31.398
25.193
19.058
13.003
7.044
1.197
-4.52
-10.086
-15.49
-20.715
-25.739
-30.541
-35.092
-39.372
-43.368
-47.068
-50.467
-53.565
-56.363
-58.868
-61.094
-63.055
-64.764
-66.233
-67.473
-68.499
-69.323
-69.962
-70.43
-70.743
-70.912
-70.95
-70.869
-70.683
-70.4
-70.031
-69.585
-69.07
-68.495
-67.87
-67.204
-66.505
-65.78
-65.038
-64.285
-63.527
-62.771
-62.021
-61.281
-60.555
-59.845
-59.153
-58.482
-57.833
-57.206
-56.601
-56.019
-55.459
-54.921
-54.404
-53.909
-53.433
-52.977
-52.539
-52.118
-51.714
-51.326
-50.951
-50.589
-50.238
-49.897
-49.565
-49.241
-48.923
-48.61
-48.303
-47.999
-47.698
-47.4
-47.104
-46.81
-46.518
-46.229
-45.944
-45.663
-45.388
-45.121
-44.864
-44.618
-44.385
-44.168
-43.969
-43.789
-43.632
-43.5
-43.395
-43.32
-43.278
-43.271
-43.302
-43.373
-43.487
-43.646
-43.851
-44.106
-44.41
-44.767
-45.176
-45.64
-46.158
-46.731
-47.358
-48.039
-48.772
-49.555
-50.386
-51.262
-52.179
-53.134
-54.121
-55.136
-56.173
-57.225
-58.287
-59.351
-60.409
-61.452
-62.474
-63.464
-64.414
-65.315
-66.158
-66.933
-67.632
-68.245
-68.764
-69.179
-69.481
-69.663
-69.717
-69.635
-69.41
-69.037
-68.511
-67.828
-66.984
-65.977
-64.806
-63.472
-61.975
-60.317
-58.502
-56.536
-54.424
-52.175
-49.798
-47.305
-44.709
-42.023
-39.263
-36.447
-33.592
-30.718
-27.844
-24.991
-22.177
-19.423
-16.748
-14.173
-11.715
-9.396
-7.231
-5.241
-3.445
-1.861
-0.508
0.602
1.461
2.062
2.397
2.461
2.245
1.741
0.949
-0.133
-1.511
-3.181
-5.136
-7.353
-9.787
-12.39
-15.114
-17.912
-20.745
-23.571
-26.342
-29.009
-31.523
-33.831
-35.896
-37.673
-39.109
-40.171
-40.843
-41.159
-41.231
-41.178
-41.12
-41.162
-41.366
-41.826
-42.662
-43.972
-45.851
-48.382
-51.574
-55.563
-60.594
-66.666
-73.642
-81.131
-88.316
-94.496
-99.152
-101.457
-100.588
-96.413
-89.01
-79.135
-68.779
-59.534
-52.638
-50.092
-51.988
-55.701
-59.376
-59.92
-56.445
-53.306
-50.068
-41.778
-17.944
37.385
130.723
258.19
407.616
560.997
707.719
842.057
956.537
1043.215
1086.579
1069.275
985.246
836.707
637.658
413.358
189.359
-9.685
-164.255
-264.63
-312.585
-316.812
-287.217
-238.253
-180.478
-124.371
-85.957
-70.767
-78.581
-102.93
-127.191
-142.699
-147.465
-143.257
-137.779
-133.927
-130.686
-127.036
-120.572
-111.001
-99.936
-88.44
-77.647
-68.435
-60.91
-55.105
-51.003
-48.332
-46.88
-46.527
-47.125
-48.538
-50.675
-53.392
-56.53
-59.964
-63.529
-67.094
-70.582
-73.914
-77.044
-79.933
-82.514
-84.752
-86.634
-88.135
-89.226
-89.866
-89.993
-89.595
-88.7
-87.34
-85.569
-83.409
-80.862
-77.935
-74.642
-70.993
-67.012
-62.708
-58.078
-53.143
-47.937
-42.505
-36.915
-31.204
-25.386
-19.471
-13.463
-7.369
-1.205
5.027
11.331
17.705
24.148
30.649
37.193
43.776
50.398
57.068
63.794
70.58
77.413
84.282
91.171
98.061
104.93
111.751
118.489
125.115
131.602
137.923
144.054
149.969
155.639
161.035
166.131
170.899
175.316
179.357
183.003
186.233
189.031
191.383
193.279
194.708
195.663
196.137
196.124
195.622
194.631
193.151
191.187
188.743
185.829
182.455
178.636
174.386
169.723
164.667
159.24
153.465
147.365
140.968
134.299
127.386
120.258
112.944
105.474
97.878
90.185
82.426
74.631
66.827
59.043
51.307
43.645
36.082
28.642
21.348
14.221
7.281
0.547
-5.964
-12.236
-18.255
-24.01
-29.489
-34.686
-39.593
-44.206
-48.521
-52.537
-56.254
-59.675
-62.802
-65.639
-68.192
-70.468
-72.475
-74.223
-75.72
-76.979
-78.009
-78.823
-79.434
-79.853
-80.093
-80.166
-80.085
-79.862
-79.509
-79.04
-78.465
-77.796
-77.045
-76.223
-75.339
-74.404
-73.427
-72.416
-71.379
-70.323
-69.255
-68.181
-67.106
-66.034
-64.97
-63.917
-62.879
-61.857
-60.853
-59.868
-58.903
-57.958
-57.034
-56.13
-55.247
-54.383
-53.54
-52.716
-51.912
-51.127
-50.362
-49.614
-48.885
-48.174
-47.482
-46.807
-46.15
-45.512
-44.893
-44.293
-43.713
-43.154
-42.617
-42.102
-41.611
-41.145
-40.705
-40.292
-39.909
-39.557
-39.238
-38.955
-38.711
-38.507
-38.346
-38.23
-38.16
-38.138
-38.165
-38.243
-38.372
-38.553
-38.785
-39.069
-39.404
-39.79
-40.226
-40.71
-41.242
-41.819
-42.442
-43.107
-43.812
-44.557
-45.338
-46.154
-47.003
-47.881
-48.786
-49.715
-50.663
-51.626
-52.598
-53.574
-54.547
-55.511
-56.459
-57.385
-58.282
-59.144
-59.966
-60.743
-61.471
-62.144
-62.757
-63.303
-63.778
-64.175
-64.489
-64.714
-64.842
-64.867
-64.782
-64.585
-64.268
-63.825
-63.246
-62.519
-61.636
-60.596
-59.4
-58.051
-56.556
-54.925
-53.177
-51.339
-49.435
-47.483
-45.5
-43.495
-41.484
-39.489
-37.528
-35.618
-33.77
-31.98
-30.242
-28.548
-26.874
-25.184
-23.432
-21.558
-19.519
-17.296
-14.873
-12.253
-9.438
-6.429
-3.243
0.087
3.523
7.009
10.479
13.864
17.059
19.939
22.379
24.243
25.423
25.849
25.458
24.218
22.122
19.176
15.413
10.896
5.687
-0.136
-6.47
-13.204
-20.181
-27.222
-34.161
-40.826
-47.07
-52.781
-57.858
-62.236
-65.913
-68.933
-71.367
-73.318
-74.862
-76.055
-76.995
-77.82
-78.713
-79.869
-81.438
-83.504
-86.187
-89.716
-94.196
-99.504
-105.223
-110.601
-114.925
-117.747
-118.542
-116.557
-111.41
-103.245
-92.881
-82.099
-72.437
-64.864
-60.658
-61.107
-66.654
-75.415
-83.07
-84.726
-76.874
-60.613
-38.813
-9.517
32.508
95.934
189.393
311.08
452.775
604.263
753.175
889.993
1004.559
1082.886
1108.807
1069.335
961.414
790.266
573.834
339.578
112.842
-78.798
-214.49
-291.327
-312.539
-290.727
-247.315
-194.492
-144.516
-110.798
-94.565
-96.685
-112.946
-129.395
-140.11
-143.407
-139.961
-136.972
-137.001
-138.164
-138.987
-136.753
-130.602
-121.992
-112.092
-101.899
-92.314
-83.865
-76.814
-71.273
-67.175
-64.286
-62.449
-61.603
-61.607
-62.297
-63.567
-65.293
-67.375
-69.747
-72.287
-74.863
-77.399
-79.851
-82.192
-84.41
-86.464
-88.295
-89.868
-91.152
-92.109
-92.699
-92.859
-92.551
-91.773
-90.546
-88.904
-86.872
-84.454
-81.645
-78.447
-74.863
-70.909
-66.604
-61.957
-56.991
-51.739
-46.253
-40.596
-34.819
-28.944
-22.983
-16.938
-10.815
-4.626
1.623
7.935
14.308
20.742
27.23
33.761
40.329
46.939
53.596
60.314
67.096
73.932
80.81
87.711
94.616
101.503
108.343
115.102
121.749
128.256
134.595
140.742
146.672
152.354
157.762
162.867
167.642
172.064
176.111
179.762
182.998
185.803
188.165
190.074
191.522
192.5
193.004
193.029
192.573
191.636
190.222
188.334
185.981
183.171
179.917
176.236
172.143
167.657
162.8
157.594
152.062
146.23
140.124
133.77
127.195
120.428
113.497
106.43
99.256
92.002
84.697
77.369
70.043
62.746
55.503
48.338
41.274
34.334
27.538
20.908
14.461
8.216
2.188
-3.607
-9.157
-14.451
-19.48
-24.235
-28.71
-32.902
-36.807
-40.424
-43.753
-46.795
-49.552
-52.029
-54.23
-56.16
-57.825
-59.233
-60.392
-61.31
-61.996
-62.458
-62.707
-62.753
-62.605
-62.275
-61.773
-61.112
-60.302
-59.356
-58.286
-57.104
-55.823
-54.455
-53.012
-51.505
-49.945
-48.344
-46.713
-45.06
-43.396
-41.73
-40.07
-38.425
-36.803
-35.209
-33.652
-32.137
-30.67
-29.256
-27.9
-26.606
-25.379
-24.223
-23.141
-22.135
-21.209
-20.365
-19.603
-18.926
-18.333
-17.825
-17.399
-17.055
-16.791
-16.604
-16.492
-16.451
-16.478
-16.569
-16.721
-16.93
-17.19
-17.499
-17.85
-18.241
-18.667
-19.123
-19.604
-20.109
-20.632
-21.17
-21.72
-22.28
-22.846
-23.415
-23.986
-24.556
-25.122
-25.681
-26.234
-26.776
-27.308
-27.828
-28.335
-28.828
-29.309
-29.776
-30.231
-30.674
-31.107
-31.53
-31.944
-32.353
-32.756
-33.157
-33.558
-33.959
-34.364
-34.775
-35.192
-35.617
-36.049
-36.489
-36.936
-37.387
-37.841
-38.295
-38.744
-39.188
-39.622
-40.043
-40.449
-40.837
-41.206
-41.552
-41.875
-42.171
-42.433
-42.656
-42.836
-42.967
-43.04
-43.05
-42.988
-42.846
-42.622
-42.311
-41.908
-41.403
-40.787
-40.05
-39.193
-38.217
-37.123
-35.92
-34.613
-33.218
-31.762
-30.27
-28.766
-27.264
-25.766
-24.277
-22.806
-21.36
-19.952
-18.582
-17.233
-15.896
-14.567
-13.238
-11.9
-10.527
-9.069
-7.489
-5.761
-3.878
-1.867
0.247
2.444
4.686
6.929
9.113
11.15
12.972
14.528
15.761
16.62
17.03
16.889
16.113
14.65
12.469
9.588
6.044
1.875
-2.849
-8.038
-13.584
-19.346
-25.206
-31.07
-36.838
-42.41
-47.679
-52.511
-56.788
-60.432
-63.387
-65.662
-67.34
-68.504
-69.278
-69.793
-70.143
-70.487
-70.989
-71.765
-72.95
-74.652
-76.902
-79.878
-83.865
-88.883
-94.839
-101.398
-107.795
-113.411
-117.859
-120.368
-120.093
-116.873
-110.751
-102.419
-93.817
-86.421
-81.11
-79.688
-82.741
-87.848
-92.737
-94.299
-90.046
-83.74
-78.702
-72.087
-56.843
-19.344
54.543
167.1
312.524
479.394
650.56
812.572
950.574
1047.148
1088.272
1061.978
967.122
813.195
615.508
396.024
177.64
-18.451
-173.917
-276.36
-325.204
-327.473
-292.442
-236.886
-174.242
-116.968
-81.926
-73.208
-87.984
-117.586
-144.519
-160.753
-165.829
-162.926
-160.088
-159.89
-160.79
-161.279
-158.981
-153.731
-147.094
-140.084
-133.68
-128.615
-124.958
-122.682
-121.657
-121.534
-122.041
-122.993
-124.218
-125.536
-126.797
-127.856
-128.587
-128.928
-128.826
-128.24
-127.172
-125.637
-123.662
-121.303
-118.629
-115.711
-112.634
-109.479
-106.304
-103.163
-100.124
-97.246
-94.581
-92.163
-89.983
-88.011
-86.222
-84.591
-83.095
-81.703
-80.355
-78.992
-77.559
-76.006
-74.297
-72.378
-70.166
-67.59
-64.599
-61.163
-57.285
-52.975
-48.211
-42.975
-37.259
-31.069
-24.447
-17.425
-10.019
-2.249
5.862
14.257
22.834
31.504
40.196
48.854
57.448
65.938
74.259
82.361
90.209
97.788
105.113
112.176
118.936
125.351
131.369
136.973
142.189
147.03
151.499
155.592
159.282
162.558
165.426
167.87
169.862
171.354
172.273
172.587
172.3
171.435
170.044
168.153
165.764
162.888
159.545
155.754
151.551
146.958
141.986
136.669
131.05
125.191
119.177
113.063
106.873
100.619
94.288
87.877
81.405
74.88
68.311
61.711
55.091
48.472
41.891
35.369
28.92
22.548
16.243
10.01
3.865
-2.168
-8.058
-13.779
-19.311
-24.634
-29.726
-34.572
-39.16
-43.488
-47.562
-51.386
-54.96
-58.282
-61.349
-64.162
-66.726
-69.046
-71.13
-72.986
-74.622
-76.049
-77.278
-78.321
-79.187
-79.885
-80.42
-80.801
-81.035
-81.131
-81.099
-80.946
-80.681
-80.314
-79.854
-79.312
-78.696
-78.013
-77.271
-76.477
-75.637
-74.758
-73.846
-72.905
-71.94
-70.956
-69.957
-68.947
-67.93
-66.909
-65.887
-64.867
-63.85
-62.84
-61.837
-60.844
-59.862
-58.893
-57.939
-57.001
-56.081
-55.18
-54.3
-53.442
-52.608
-51.798
-51.014
-50.256
-49.524
-48.821
-48.147
-47.502
-46.888
-46.306
-45.757
-45.24
-44.758
-44.31
-43.897
-43.521
-43.181
-42.878
-42.613
-42.387
-42.2
-42.053
-41.947
-41.882
-41.857
-41.875
-41.933
-42.032
-42.172
-42.352
-42.571
-42.828
-43.122
-43.452
-43.816
-44.213
-44.641
-45.1
-45.586
-46.1
-46.638
-47.2
-47.784
-48.389
-49.013
-49.654
-50.309
-50.977
-51.656
-52.342
-53.032
-53.722
-54.406
-55.082
-55.744
-56.389
-57.01
-57.605
-58.168
-58.696
-59.187
-59.636
-60.039
-60.389
-60.684
-60.918
-61.087
-61.186
-61.208
-61.148
-61
-60.761
-60.426
-59.988
-59.437
-58.761
-57.955
-57.017
-55.948
-54.748
-53.425
-51.986
-50.446
-48.828
-47.151
-45.429
-43.674
-41.892
-40.097
-38.309
-36.544
-34.82
-33.146
-31.519
-29.935
-28.387
-26.853
-25.303
-23.697
-21.983
-20.128
-18.117
-15.942
-13.609
-11.119
-8.472
-5.68
-2.767
0.236
3.282
6.318
9.287
12.096
14.637
16.803
18.473
19.56
20.009
19.776
18.836
17.187
14.834
11.805
8.151
3.921
-0.819
-5.986
-11.485
-17.177
-22.898
-28.502
-33.836
-38.774
-43.229
-47.119
-50.389
-53.047
-55.143
-56.744
-57.952
-58.832
-59.42
-59.809
-60.128
-60.534
-61.206
-62.268
-63.772
-65.835
-68.684
-72.397
-76.859
-81.73
-86.34
-90.083
-92.587
-93.296
-91.429
-86.628
-79.005
-69.106
-58.306
-48.029
-39.217
-33.281
-32.11
-35.051
-38.911
-40.738
-36.233
-26.038
-17.266
-10.682
-2.856
16.716
68.428
161.37
293.66
455.445
623.76
781.766
918.372
1020.993
1082.648
1091.815
1035.907
913.158
729.539
503.871
266.685
47.753
-127.796
-245.198
-307.115
-326.882
-322.051
-309.191
-294.213
-275.564
-249.618
-213.512
-170.478
-126.374
-86.714
-55.895
-35.112
-24.314
-22.801
-28.156
-37.669
-49.077
-59.938
-68.966
-75.637
-78.838
-78.134
-74.133
-67.772
-60.506
-54.068
-49.231
-46.263
-45.662
-47.47
-51.468
-57.382
-64.41
-71.578
-78.361
-84.462
-89.672
-93.985
-97.306
-99.5
-100.625
-100.801
-100.12
-98.666
-96.454
-93.483
-89.831
-85.628
-81.031
-76.193
-71.214
-66.162
-61.085
-56.031
-51.049
-46.175
-41.412
-36.754
-32.185
-27.692
-23.277
-18.925
-14.605
-10.273
-5.876
-1.367
3.287
8.11
13.121
18.326
23.73
29.33
35.11
41.052
47.132
53.321
59.593
65.927
72.309
78.729
85.177
91.639
98.104
104.557
110.995
117.42
123.831
130.219
136.577
142.905
149.221
155.56
161.95
168.395
174.872
181.343
187.765
194.097
200.292
206.29
212.008
217.37
222.321
226.829
230.874
234.42
237.399
239.716
241.289
242.069
242.034
241.178
239.497
236.987
233.667
229.589
224.842
219.496
213.591
207.135
200.113
192.54
184.47
175.994
167.197
158.144
148.9
139.532
130.126
120.78
111.563
102.5
93.588
84.84
76.303
68.059
60.211
52.834
45.965
39.619
33.805
28.535
23.802
19.576
15.79
12.359
9.227
6.368
3.78
1.449
-0.662
-2.613
-4.477
-6.307
-8.134
-9.987
-11.891
-13.87
-15.929
-18.051
-20.187
-22.279
-24.287
-26.196
-28.001
-29.698
-31.276
-32.718
-34.006
-35.139
-36.117
-36.938
-37.599
-38.096
-38.434
-38.634
-38.725
-38.743
-38.715
-38.655
-38.574
-38.483
-38.389
-38.299
-38.216
-38.134
-38.053
-37.973
-37.896
-37.826
-37.765
-37.71
-37.656
-37.599
-37.536
-37.466
-37.388
-37.3
-37.203
-37.097
-36.985
-36.872
-36.759
-36.65
-36.544
-36.444
-36.348
-36.26
-36.178
-36.102
-36.035
-35.975
-35.925
-35.887
-35.861
-35.849
-35.853
-35.874
-35.913
-35.973
-36.053
-36.156
-36.281
-36.43
-36.605
-36.805
-37.032
-37.287
-37.569
-37.878
-38.216
-38.58
-38.971
-39.389
-39.832
-40.3
-40.794
-41.314
-41.858
-42.427
-43.021
-43.639
-44.282
-44.948
-45.636
-46.347
-47.077
-47.828
-48.597
-49.383
-50.184
-50.998
-51.823
-52.655
-53.491
-54.326
-55.156
-55.975
-56.778
-57.562
-58.32
-59.05
-59.746
-60.406
-61.027
-61.606
-62.137
-62.613
-63.03
-63.378
-63.651
-63.84
-63.937
-63.935
-63.827
-63.609
-63.28
-62.835
-62.27
-61.577
-60.748
-59.779
-58.67
-57.42
-56.035
-54.525
-52.905
-51.2
-49.438
-47.638
-45.817
-43.983
-42.135
-40.279
-38.415
-36.543
-34.675
-32.818
-30.976
-29.161
-27.38
-25.628
-23.893
-22.142
-20.336
-18.462
-16.516
-14.512
-12.487
-10.478
-8.53
-6.707
-5.053
-3.607
-2.408
-1.479
-0.844
-0.544
-0.625
-1.151
-2.201
-3.816
-6.008
-8.765
-12.032
-15.746
-19.83
-24.174
-28.682
-33.269
-37.847
-42.349
-46.705
-50.833
-54.654
-58.072
-60.987
-63.325
-65.071
-66.274
-67.024
-67.426
-67.581
-67.575
-67.521
-67.564
-67.856
-68.534
-69.724
-71.479
-73.917
-77.308
-81.727
-87.018
-92.769
-98.183
-102.567
-105.531
-106.464
-104.563
-99.688
-92.179
-83.077
-74.417
-67.502
-63.129
-62.821
-67.628
-77.293
-89.56
-99.431
-102.584
-96.816
-82.026
-59.912
-25.704
27.233
101.875
202.787
323.347
452.011
586.758
719.137
840.354
943.747
1006.635
1008.682
942.411
805.721
614.997
397.931
179.318
-16.332
-171.1
-275.823
-329.97
-339.533
-312.906
-264.55
-206.438
-150.3
-111.894
-96.258
-102.436
-123.448
-143.589
-154.964
-156.232
-149.938
-143.572
-139.616
-136.826
-133.819
-128.14
-119.544
-109.542
-99.089
-89.246
-80.931
-74.324
-69.548
-66.651
-65.351
-65.418
-66.711
-69.006
-72.087
-75.778
-79.852
-84.111
-88.413
-92.579
-96.497
-100.106
-103.315
-106.07
-108.297
-109.885
-110.789
-111.006
-110.538
-109.424
-107.696
-105.38
-102.555
-99.316
-95.752
-91.958
-87.964
-83.77
-79.403
-74.886
-70.259
-65.589
-60.905
-56.208
-51.516
-46.835
-42.166
-37.516
-32.856
-28.139
-23.333
-18.412
-13.371
-8.223
-2.972
2.379
7.821
13.353
18.968
24.653
30.416
36.267
42.21
48.253
54.393
60.606
66.879
73.204
79.565
85.957
92.381
98.842
105.363
111.977
118.689
125.495
132.372
139.27
146.141
152.922
159.535
165.915
172.007
177.753
183.113
188.048
192.498
196.402
199.681
202.241
204.022
204.983
205.095
204.368
202.825
200.508
197.498
193.864
189.659
184.936
179.729
174.073
168.019
161.624
154.951
148.084
141.086
134.013
126.918
119.83
112.763
105.718
98.667
91.588
84.48
77.345
70.2
63.068
55.962
48.899
41.898
34.965
28.11
21.347
14.68
8.128
1.716
-4.528
-10.563
-16.351
-21.867
-27.09
-32.006
-36.608
-40.89
-44.85
-48.493
-51.822
-54.84
-57.549
-59.952
-62.054
-63.863
-65.393
-66.656
-67.67
-68.449
-69.009
-69.366
-69.533
-69.527
-69.359
-69.043
-68.591
-68.017
-67.336
-66.561
-65.709
-64.792
-63.824
-62.82
-61.79
-60.747
-59.701
-58.66
-57.633
-56.628
-55.652
-54.71
-53.808
-52.949
-52.139
-51.378
-50.671
-50.018
-49.42
-48.878
-48.39
-47.956
-47.574
-47.243
-46.959
-46.721
-46.526
-46.369
-46.249
-46.16
-46.101
-46.066
-46.052
-46.055
-46.073
-46.101
-46.136
-46.176
-46.218
-46.26
-46.3
-46.338
-46.37
-46.398
-46.42
-46.435
-46.445
-46.449
-46.448
-46.444
-46.437
-46.43
-46.425
-46.423
-46.427
-46.439
-46.462
-46.498
-46.549
-46.618
-46.707
-46.818
-46.955
-47.118
-47.311
-47.534
-47.79
-48.078
-48.401
-48.759
-49.153
-49.581
-50.045
-50.543
-51.076
-51.642
-52.239
-52.865
-53.519
-54.197
-54.895
-55.608
-56.332
-57.059
-57.784
-58.501
-59.203
-59.883
-60.536
-61.155
-61.735
-62.272
-62.759
-63.191
-63.56
-63.86
-64.084
-64.225
-64.276
-64.228
-64.076
-63.812
-63.432
-62.931
-62.304
-61.545
-60.644
-59.598
-58.407
-57.074
-55.603
-54.004
-52.29
-50.479
-48.596
-46.665
-44.71
-42.752
-40.809
-38.896
-37.027
-35.218
-33.487
-31.843
-30.282
-28.797
-27.373
-25.994
-24.643
-23.294
-21.907
-20.45
-18.901
-17.245
-15.485
-13.63
-11.696
-9.702
-7.669
-5.64
-3.676
-1.853
-0.251
1.054
1.993
2.486
2.443
1.79
0.476
-1.516
-4.176
-7.478
-11.39
-15.871
-20.859
-26.27
-31.989
-37.885
-43.822
-49.676
-55.335
-60.677
-65.574
-69.924
-73.664
-76.801
-79.397
-81.525
-83.259
-84.659
-85.779
-86.725
-87.64
-88.658
-89.92
-91.53
-93.528
-96.09
-99.482
-103.714
-108.659
-113.925
-118.742
-122.493
-124.743
-124.723
-121.684
-115.561
-106.446
-95.107
-83.536
-73.262
-65.491
-62.265
-63.493
-66.292
-68.894
-68.338
-64.01
-60.785
-58.089
-50.283
-26.896
27.3
118.319
241.779
386.02
536.364
683.131
816.948
927.282
1000.338
1018.555
974.563
870.737
716.663
531.979
334.761
143.296
-19.565
-137.968
-204.975
-224.857
-216.756
-200.673
-187.521
-180.626
-174.786
-164.009
-149.428
-134.442
-122.844
-118.133
-119.867
-125.828
-134.24
-142.556
-148.502
-151.274
-150.636
-146.893
-140.983
-133.726
-125.767
-117.984
-111.259
-106.021
-102.396
-100.253
-99.211
-98.978
-99.363
-100.127
-101.031
-101.901
-102.605
-103.073
-103.319
-103.336
-103.073
-102.494
-101.567
-100.283
-98.688
-96.84
-94.801
-92.642
-90.423
-88.198
-86.018
-83.911
-81.878
-79.899
-77.919
-75.884
-73.779
-71.604
-69.373
-67.101
-64.777
-62.375
-59.866
-57.208
-54.351
-51.237
-47.815
-44.061
-39.975
-35.581
-30.925
-26.045
-20.948
-15.623
-10.04
-4.155
2.057
8.611
15.507
22.717
30.191
37.855
45.637
53.484
61.357
69.235
77.103
84.945
92.728
100.415
107.95
115.264
122.292
128.98
135.285
141.189
146.695
151.824
156.598
161.029
165.122
168.871
172.266
175.296
177.949
180.214
182.086
183.577
184.695
185.45
185.847
185.88
185.539
184.804
183.662
182.101
180.114
177.703
174.875
171.639
168.014
164.022
159.682
155.012
150.032
144.759
139.213
133.418
127.4
121.185
114.799
108.273
101.632
94.904
88.114
81.285
74.44
67.6
60.783
54.011
47.303
40.678
34.156
27.753
21.488
15.377
9.434
3.674
-1.891
-7.252
-12.397
-17.318
-22.008
-26.461
-30.672
-34.636
-38.351
-41.814
-45.025
-47.983
-50.689
-53.144
-55.35
-57.311
-59.031
-60.513
-61.764
-62.79
-63.596
-64.19
-64.579
-64.77
-64.773
-64.596
-64.248
-63.739
-63.077
-62.274
-61.34
-60.286
-59.121
-57.857
-56.503
-55.071
-53.571
-52.012
-50.406
-48.761
-47.089
-45.4
-43.702
-42.006
-40.32
-38.654
-37.016
-35.413
-33.854
-32.345
-30.892
-29.502
-28.18
-26.931
-25.758
-24.666
-23.656
-22.732
-21.894
-21.144
-20.483
-19.909
-19.422
-19.021
-18.704
-18.469
-18.314
-18.235
-18.231
-18.296
-18.429
-18.624
-18.879
-19.188
-19.549
-19.956
-20.405
-20.893
-21.414
-21.965
-22.542
-23.142
-23.761
-24.395
-25.043
-25.702
-26.37
-27.044
-27.723
-28.407
-29.094
-29.783
-30.474
-31.168
-31.864
-32.564
-33.266
-33.973
-34.684
-35.4
-36.12
-36.845
-37.574
-38.307
-39.044
-39.782
-40.521
-41.259
-41.994
-42.725
-43.447
-44.16
-44.858
-45.538
-46.196
-46.827
-47.425
-47.985
-48.502
-48.971
-49.384
-49.735
-50.019
-50.228
-50.356
-50.395
-50.34
-50.182
-49.916
-49.536
-49.035
-48.41
-47.655
-46.768
-45.745
-44.585
-43.288
-41.853
-40.281
-38.575
-36.737
-34.773
-32.689
-30.491
-28.188
-25.791
-23.31
-20.759
-18.152
-15.506
-12.836
-10.16
-7.497
-4.866
-2.285
0.229
2.657
4.98
7.18
9.237
11.134
12.849
14.366
15.667
16.737
17.563
18.137
18.454
18.509
18.299
17.814
17.047
15.991
14.641
12.995
11.055
8.829
6.341
3.625
0.72
-2.331
-5.488
-8.719
-11.985
-15.248
-18.465
-21.582
-24.541
-27.284
-29.756
-31.905
-33.691
-35.099
-36.161
-36.946
-37.544
-38.047
-38.516
-39.023
-39.667
-40.561
-41.845
-43.648
-46.061
-49.208
-53.295
-58.439
-64.576
-71.413
-78.324
-84.643
-89.907
-93.618
-95.06
-93.74
-89.722
-83.696
-77.203
-71.854
-68.384
-67.435
-70.304
-77.801
-89.418
-102.266
-110.821
-109.693
-96.198
-72.059
-39.674
0.912
51.618
120.59
215.603
338.708
488.85
655.35
821.158
967.377
1073.574
1123.538
1106.849
1022.915
879.696
691.976
481.448
269.466
77.862
-74.766
-178.273
-230.19
-240.807
-225.805
-199.701
-175.491
-155.945
-140.434
-129.741
-120.583
-113.142
-108.331
-104.169
-102.762
-104.892
-109.121
-115.023
-119.715
-121.1
-119.454
-115.098
-109.07
-102.508
-95.883
-89.784
-84.965
-81.762
-80.176
-80.031
-80.938
-82.546
-84.618
-86.884
-89.056
-90.927
-92.334
-93.168
-93.402
-93.017
-92.048
-90.586
-88.71
-86.511
-84.081
-81.503
-78.879
-76.319
-73.91
-71.719
-69.792
-68.162
-66.865
-65.922
-65.317
-64.996
-64.848
-64.748
-64.596
-64.302
-63.788
-62.986
-61.824
-60.237
-58.191
-55.668
-52.655
-49.147
-45.137
-40.633
-35.669
-30.304
-24.624
-18.714
-12.647
-6.482
-0.27
5.945
12.133
18.276
24.369
30.411
36.398
42.328
48.21
54.062
59.905
65.772
71.698
77.719
83.884
90.226
96.764
103.506
110.431
117.504
124.683
131.923
139.169
146.355
153.394
160.18
166.63
172.658
178.182
183.118
187.354
190.794
193.369
195.025
195.739
195.506
194.324
192.201
189.176
185.306
180.674
175.387
169.524
163.162
156.379
149.257
141.899
134.402
126.838
119.266
111.732
104.274
96.931
89.737
82.695
75.802
69.034
62.358
55.759
49.232
42.768
36.365
30.008
23.69
17.416
11.202
5.063
-0.987
-6.938
-12.778
-18.484
-24.026
-29.376
-34.501
-39.377
-43.992
-48.33
-52.383
-56.145
-59.613
-62.791
-65.69
-68.317
-70.681
-72.789
-74.647
-76.267
-77.663
-78.848
-79.835
-80.639
-81.27
-81.74
-82.062
-82.244
-82.297
-82.228
-82.044
-81.753
-81.364
-80.886
-80.326
-79.694
-78.997
-78.244
-77.44
-76.593
-75.709
-74.793
-73.847
-72.877
-71.886
-70.876
-69.849
-68.808
-67.754
-66.689
-65.614
-64.53
-63.437
-62.335
-61.226
-60.11
-58.988
-57.859
-56.725
-55.586
-54.444
-53.3
-52.154
-51.009
-49.863
-48.72
-47.58
-46.443
-45.312
-44.188
-43.072
-41.965
-40.87
-39.789
-38.724
-37.677
-36.651
-35.648
-34.672
-33.725
-32.81
-31.93
-31.088
-30.286
-29.529
-28.818
-28.157
-27.547
-26.992
-26.494
-26.055
-25.676
-25.36
-25.107
-24.919
-24.797
-24.741
-24.752
-24.831
-24.976
-25.188
-25.467
-25.812
-26.221
-26.694
-27.228
-27.822
-28.473
-29.178
-29.935
-30.739
-31.587
-32.475
-33.398
-34.351
-35.328
-36.325
-37.335
-38.351
-39.368
-40.379
-41.376
-42.352
-43.3
-44.213
-45.082
-45.901
-46.661
-47.357
-47.98
-48.524
-48.981
-49.344
-49.607
-49.762
-49.804
-49.728
-49.527
-49.197
-48.735
-48.136
-47.398
-46.519
-45.499
-44.337
-43.035
-41.593
-40.015
-38.306
-36.47
-34.515
-32.449
-30.281
-28.022
-25.686
-23.287
-20.839
-18.36
-15.868
-13.379
-10.912
-8.486
-6.117
-3.823
-1.623
0.466
2.424
4.233
5.872
7.324
8.57
9.594
10.383
10.928
11.221
11.255
11.023
10.512
9.711
8.613
7.208
5.491
3.464
1.134
-1.475
-4.324
-7.374
-10.582
-13.905
-17.311
-20.758
-24.205
-27.609
-30.909
-34.049
-36.979
-39.639
-41.984
-43.981
-45.617
-46.941
-48.045
-49.026
-49.985
-50.992
-52.113
-53.462
-55.172
-57.366
-60.17
-63.641
-67.857
-73.036
-79.27
-86.448
-94.252
-102.02
-109.07
-115.006
-119.352
-121.394
-120.768
-117.545
-112.403
-106.89
-102.33
-99.45
-99.028
-101.969
-108.836
-118.035
-125.522
-126.759
-117.393
-97.852
-73.205
-43.863
-8.046
40.584
115.464
220.267
352.021
503.598
657.283
799.16
917.036
997.608
1032.077
1010.82
929.878
791.403
604.958
393.01
180.534
-4.898
-140.459
-221.27
-252.212
-247.167
-223.653
-190.532
-154.952
-124.463
-103.872
-98.664
-108.482
-124.335
-138.385
-145.77
-146.098
-145.265
-146.836
-150.322
-154.26
-155.743
-153.589
-148.952
-142.982
-136.703
-130.965
-126.261
-122.852
-120.879
-120.21
-120.487
-121.44
-122.876
-124.576
-126.323
-127.936
-129.258
-130.176
-130.634
-130.563
-129.899
-128.663
-126.926
-124.767
-122.273
-119.524
-116.594
-113.589
-110.638
-107.835
-105.246
-102.907
-100.827
-99.037
-97.567
-96.417
-95.554
-94.891
-94.319
-93.766
-93.191
-92.54
-91.749
-90.722
-89.336
-87.519
-85.239
-82.484
-79.259
-75.553
-71.357
-66.694
-61.621
-56.212
-50.533
-44.607
-38.411
-31.948
-25.246
-18.361
-11.381
-4.349
2.734
9.864
17.05
24.294
31.593
38.976
46.506
54.229
62.169
70.31
78.591
86.968
95.411
103.9
112.433
120.967
129.425
137.729
145.786
153.509
160.813
167.587
173.698
179.034
183.512
187.076
189.708
191.395
192.122
191.888
190.693
188.572
185.584
181.804
177.324
172.229
166.605
160.547
154.17
147.57
140.832
134.024
127.188
120.365
113.592
106.897
100.299
93.803
87.398
81.066
74.777
68.51
62.254
55.995
49.719
43.418
37.091
30.745
24.404
18.086
11.81
5.599
-0.524
-6.532
-12.39
-18.066
-23.523
-28.732
-33.674
-38.329
-42.684
-46.732
-50.466
-53.889
-57.007
-59.827
-62.357
-64.603
-66.572
-68.275
-69.725
-70.935
-71.92
-72.692
-73.265
-73.653
-73.868
-73.923
-73.829
-73.597
-73.238
-72.763
-72.183
-71.509
-70.756
-69.933
-69.052
-68.123
-67.157
-66.162
-65.147
-64.119
-63.084
-62.046
-61.012
-59.985
-58.968
-57.965
-56.978
-56.008
-55.056
-54.125
-53.212
-52.32
-51.446
-50.59
-49.752
-48.93
-48.123
-47.329
-46.548
-45.776
-45.012
-44.255
-43.502
-42.752
-42.002
-41.25
-40.494
-39.735
-38.97
-38.198
-37.42
-36.635
-35.843
-35.045
-34.243
-33.436
-32.626
-31.815
-31.005
-30.199
-29.398
-28.605
-27.823
-27.056
-26.307
-25.578
-24.873
-24.194
-23.544
-22.927
-22.343
-21.796
-21.288
-20.822
-20.398
-20.02
-19.69
-19.408
-19.176
-18.994
-18.864
-18.784
-18.755
-18.775
-18.844
-18.96
-19.122
-19.327
-19.573
-19.856
-20.173
-20.519
-20.889
-21.277
-21.676
-22.079
-22.478
-22.866
-23.236
-23.581
-23.894
-24.168
-24.399
-24.581
-24.71
-24.779
-24.782
-24.711
-24.558
-24.317
-23.98
-23.54
-22.99
-22.321
-21.531
-20.618
-19.58
-18.416
-17.121
-15.688
-14.116
-12.411
-10.578
-8.627
-6.569
-4.421
-2.207
0.039
2.282
4.497
6.668
8.785
10.841
12.823
14.72
16.522
18.23
19.849
21.382
22.825
24.177
25.445
26.654
27.848
29.064
30.322
31.617
32.933
34.253
35.549
36.79
37.933
38.908
39.656
40.133
40.307
40.162
39.676
38.814
37.522
35.764
33.523
30.812
27.663
24.109
20.212
16.042
11.699
7.308
2.982
-1.198
-5.169
-8.897
-12.385
-15.651
-18.704
-21.578
-24.294
-26.854
-29.31
-31.745
-34.264
-37.001
-40.117
-43.721
-47.973
-53.138
-59.226
-66.029
-73.112
-79.636
-84.845
-88.302
-89.359
-87.233
-81.886
-73.724
-63.748
-54.148
-46.627
-42.052
-41.802
-47.001
-57.062
-70.513
-84.604
-94.444
-95.719
-84.938
-57.446
-8.857
61.363
150.154
252.908
362.237
474.566
593.938
719.995
846.372
961.042
1037.827
1051.701
991.828
856.639
662.983
440.518
215.815
15.246
-141.783
-248.431
-305.367
-321.717
-310.059
-280.766
-240.8
-195.467
-152.671
-120.482
-104.946
-106.051
-115.232
-123.558
-125.777
-121.549
-115.902
-112.18
-110.087
-108.14
-103.859
-96.401
-86.938
-76.617
-66.48
-57.369
-49.791
-44.093
-40.431
-38.683
-38.521
-39.666
-41.923
-45.077
-48.906
-53.182
-57.677
-62.232
-66.741
-71.106
-75.235
-79.042
-82.427
-85.3
-87.586
-89.219
-90.171
-90.445
-90.054
-89.03
-87.416
-85.269
-82.66
-79.658
-76.325
-72.703
-68.819
-64.699
-60.38
-55.908
-51.333
-46.706
-42.058
-37.406
-32.76
-28.123
-23.489
-18.846
-14.173
-9.444
-4.642
0.242
5.214
10.272
15.424
20.679
26.052
31.559
37.209
43.004
48.946
55.028
61.24
67.57
73.998
80.499
87.051
93.632
100.223
106.803
113.35
119.84
126.247
132.543
138.7
144.691
150.487
156.061
161.386
166.436
171.186
175.615
179.7
183.42
186.753
189.681
192.185
194.25
195.862
197.01
197.683
197.875
197.583
196.805
195.542
193.797
191.576
188.886
185.738
182.144
178.119
173.678
168.841
163.628
158.06
152.162
145.959
139.477
132.745
125.79
118.642
111.331
103.887
96.342
88.725
81.066
73.396
65.743
58.135
50.6
43.163
35.85
28.681
21.68
14.866
8.256
1.866
-4.288
-10.193
-15.84
-21.217
-26.318
-31.136
-35.666
-39.907
-43.858
-47.518
-50.889
-53.976
-56.782
-59.315
-61.58
-63.586
-65.343
-66.861
-68.151
-69.224
-70.093
-70.77
-71.269
-71.601
-71.779
-71.817
-71.727
-71.52
-71.208
-70.802
-70.314
-69.753
-69.129
-68.451
-67.729
-66.97
-66.182
-65.372
-64.546
-63.709
-62.867
-62.024
-61.185
-60.352
-59.53
-58.72
-57.925
-57.148
-56.388
-55.647
-54.926
-54.225
-53.544
-52.883
-52.241
-51.62
-51.018
-50.436
-49.874
-49.332
-48.81
-48.309
-47.828
-47.369
-46.932
-46.518
-46.128
-45.763
-45.424
-45.115
-44.836
-44.59
-44.379
-44.204
-44.069
-43.974
-43.922
-43.913
-43.95
-44.034
-44.166
-44.347
-44.58
-44.864
-45.2
-45.589
-46.032
-46.527
-47.074
-47.672
-48.319
-49.014
-49.755
-50.54
-51.365
-52.229
-53.127
-54.056
-55.012
-55.989
-56.981
-57.981
-58.984
-59.98
-60.963
-61.924
-62.854
-63.747
-64.595
-65.392
-66.13
-66.803
-67.405
-67.929
-68.369
-68.719
-68.969
-69.113
-69.142
-69.05
-68.833
-68.486
-68.006
-67.389
-66.634
-65.742
-64.713
-63.547
-62.242
-60.791
-59.195
-57.463
-55.608
-53.649
-51.606
-49.493
-47.335
-45.158
-42.984
-40.83
-38.702
-36.595
-34.511
-32.464
-30.472
-28.568
-26.772
-25.089
-23.522
-22.071
-20.733
-19.512
-18.396
-17.358
-16.39
-15.502
-14.726
-14.125
-13.741
-13.603
-13.723
-14.1
-14.745
-15.681
-16.923
-18.48
-20.36
-22.555
-25.073
-27.945
-31.166
-34.71
-38.51
-42.461
-46.475
-50.479
-54.408
-58.206
-61.808
-65.144
-68.166
-70.843
-73.153
-75.118
-76.77
-78.124
-79.238
-80.172
-80.976
-81.767
-82.684
-83.833
-85.332
-87.288
-89.732
-92.785
-96.68
-101.413
-106.801
-112.498
-117.826
-122.212
-125.353
-126.623
-125.168
-120.815
-113.817
-104.849
-95.506
-87.08
-80.219
-76.321
-77.199
-81.688
-86.554
-89.047
-84.581
-73.542
-61.942
-48.533
-29.385
3.227
64.833
160.124
285.854
435.305
591.569
741.097
869.783
961.284
1005.609
991.643
918.258
794.149
627.85
437.569
240.848
52.656
-105.086
-217.832
-281.026
-298.147
-286.422
-264.933
-243.904
-227.132
-211.693
-192.892
-171.997
-152.431
-137.279
-129.214
-127.518
-129.894
-134.325
-138.363
-139.952
-138.311
-133.411
-125.767
-116.426
-106.319
-96.198
-86.949
-79.438
-74.15
-71.222
-70.534
-71.722
-74.444
-78.436
-83.394
-88.991
-94.927
-100.913
-106.689
-112.072
-116.926
-121.133
-124.605
-127.261
-129.022
-129.86
-129.791
-128.854
-127.11
-124.617
-121.432
-117.636
-113.344
-108.686
-103.805
-98.816
-93.787
-88.774
-83.819
-78.958
-74.228
-69.637
-65.168
-60.802
-56.519
-52.303
-48.145
-44.018
-39.884
-35.702
-31.426
-27.024
-22.472
-17.749
-12.839
-7.735
-2.433
3.057
8.717
14.533
20.481
26.534
32.665
38.848
45.057
51.282
57.509
63.721
69.903
76.036
82.11
88.135
94.11
100.034
105.909
111.73
117.514
123.297
129.103
134.942
140.808
146.666
152.483
158.23
163.862
169.33
174.564
179.467
183.963
187.998
191.511
194.451
196.742
198.282
198.995
198.831
197.76
195.784
192.908
189.138
184.51
179.086
172.951
166.218
158.981
151.306
143.27
134.942
126.412
117.793
109.175
100.624
92.2
83.944
75.899
68.111
60.596
53.35
46.351
39.563
32.966
26.561
20.344
14.314
8.465
2.778
-2.751
-8.112
-13.299
-18.304
-23.123
-27.758
-32.196
-36.415
-40.391
-44.096
-47.513
-50.636
-53.461
-55.986
-58.213
-60.143
-61.787
-63.16
-64.279
-65.153
-65.797
-66.22
-66.438
-66.469
-66.331
-66.041
-65.617
-65.073
-64.423
-63.68
-62.857
-61.963
-61.008
-59.997
-58.939
-57.841
-56.711
-55.557
-54.385
-53.202
-52.012
-50.823
-49.638
-48.461
-47.294
-46.14
-45
-43.876
-42.769
-41.678
-40.604
-39.546
-38.504
-37.478
-36.466
-35.468
-34.482
-33.509
-32.548
-31.598
-30.661
-29.736
-28.825
-27.93
-27.051
-26.192
-25.354
-24.542
-23.756
-23.001
-22.279
-21.595
-20.95
-20.349
-19.795
-19.29
-18.839
-18.444
-18.109
-17.835
-17.627
-17.486
-17.414
-17.414
-17.486
-17.633
-17.855
-18.151
-18.522
-18.968
-19.485
-20.073
-20.728
-21.447
-22.226
-23.059
-23.941
-24.866
-25.827
-26.816
-27.824
-28.844
-29.865
-30.878
-31.874
-32.842
-33.772
-34.655
-35.48
-36.239
-36.92
-37.516
-38.016
-38.412
-38.696
-38.86
-38.897
-38.798
-38.56
-38.177
-37.644
-36.957
-36.115
-35.116
-33.959
-32.645
-31.177
-29.557
-27.79
-25.883
-23.842
-21.678
-19.401
-17.023
-14.56
-12.026
-9.438
-6.814
-4.173
-1.535
1.079
3.65
6.157
8.58
10.899
13.094
15.144
17.03
18.734
20.237
21.518
22.56
23.346
23.862
24.099
24.051
23.71
23.07
22.123
20.862
19.29
17.406
15.21
12.71
9.913
6.846
3.551
0.074
-3.538
-7.239
-10.99
-14.75
-18.469
-22.1
-25.588
-28.886
-31.953
-34.749
-37.226
-39.351
-41.103
-42.502
-43.635
-44.601
-45.497
-46.413
-47.397
-48.522
-49.903
-51.647
-53.848
-56.581
-59.864
-63.773
-68.525
-74.188
-80.603
-87.419
-93.957
-99.539
-103.686
-105.766
-104.925
-100.737
-93.38
-83.515
-72.6
-62.235
-53.633
-48.246
-47.691
-51.464
-56.799
-60.804
-60.468
-55.861
-49.388
-39.357
-18.452
24.658
98.775
204.967
334.309
472.248
610.042
743.232
867.993
978.598
1060.052
1092.104
1060.27
960.61
799.107
594.178
371.622
155.666
-27.071
-156.292
-227.657
-244.742
-222.986
-184.303
-143.004
-111.674
-96.764
-95.617
-104.913
-116.613
-122.947
-123.189
-119.348
-116.419
-118.421
-124.338
-131.065
-135.395
-135.816
-132.892
-127.821
-121.675
-115.074
-108.59
-102.97
-98.647
-95.704
-93.981
-93.136
-92.937
-93.264
-93.936
-94.743
-95.537
-96.238
-96.849
-97.414
-97.913
-98.285
-98.496
-98.532
-98.417
-98.203
-97.934
-97.647
-97.381
-97.171
-97.047
-97.023
-97.08
-97.166
-97.201
-97.095
-96.792
-96.257
-95.458
-94.365
-92.941
-91.145
-88.954
-86.352
-83.324
-79.859
-75.944
-71.58
-66.79
-61.622
-56.143
-50.428
-44.533
-38.495
-32.347
-26.111
-19.81
-13.461
-7.069
-0.632
5.847
12.358
18.891
25.43
31.972
38.52
45.079
51.661
58.266
64.885
71.508
78.116
84.688
91.2
97.619
103.909
110.037
115.974
121.691
127.164
132.365
137.268
141.845
146.072
149.924
153.381
156.421
159.028
161.185
162.881
164.105
164.854
165.122
164.906
164.205
163.021
161.356
159.216
156.609
153.546
150.038
146.1
141.75
137.007
131.895
126.435
120.654
114.578
108.235
101.653
94.862
87.892
80.774
73.537
66.213
58.832
51.424
44.019
36.645
29.332
22.106
14.993
8.018
1.204
-5.427
-11.855
-18.061
-24.029
-29.743
-35.191
-40.36
-45.241
-49.825
-54.109
-58.086
-61.756
-65.118
-68.173
-70.926
-73.379
-75.541
-77.418
-79.019
-80.354
-81.434
-82.271
-82.877
-83.266
-83.451
-83.447
-83.269
-82.93
-82.445
-81.83
-81.098
-80.263
-79.339
-78.339
-77.275
-76.16
-75.003
-73.817
-72.61
-71.393
-70.172
-68.956
-67.752
-66.564
-65.4
-64.262
-63.154
-62.078
-61.038
-60.033
-59.066
-58.135
-57.241
-56.382
-55.558
-54.766
-54.006
-53.274
-52.568
-51.885
-51.224
-50.581
-49.955
-49.343
-48.745
-48.159
-47.584
-47.021
-46.469
-45.928
-45.399
-44.882
-44.378
-43.889
-43.414
-42.956
-42.517
-42.098
-41.703
-41.333
-40.991
-40.68
-40.402
-40.161
-39.957
-39.795
-39.675
-39.6
-39.573
-39.594
-39.666
-39.79
-39.966
-40.194
-40.474
-40.803
-41.179
-41.597
-42.053
-42.54
-43.053
-43.585
-44.131
-44.683
-45.236
-45.783
-46.319
-46.838
-47.334
-47.797
-48.218
-48.588
-48.897
-49.135
-49.293
-49.358
-49.321
-49.175
-48.915
-48.535
-48.029
-47.388
-46.601
-45.661
-44.569
-43.327
-41.937
-40.407
-38.748
-36.98
-35.133
-33.237
-31.314
-29.374
-27.424
-25.471
-23.525
-21.598
-19.702
-17.837
-15.997
-14.184
-12.401
-10.651
-8.927
-7.201
-5.429
-3.574
-1.63
0.395
2.472
4.579
6.686
8.76
10.751
12.591
14.214
15.571
16.623
17.333
17.644
17.481
16.751
15.388
13.372
10.714
7.443
3.594
-0.781
-5.614
-10.801
-16.213
-21.735
-27.263
-32.706
-37.974
-42.952
-47.513
-51.531
-54.929
-57.695
-59.857
-61.464
-62.557
-63.174
-63.396
-63.374
-63.291
-63.322
-63.632
-64.332
-65.592
-67.72
-70.881
-75.032
-79.885
-84.782
-89.057
-92.289
-93.955
-93.337
-90.123
-84.484
-77.222
-70.164
-65.072
-62.991
-64.897
-71.704
-83.409
-98.869
-115.674
-129.64
-136.104
-131.104
-110.838
-71.326
-10.886
68.572
163.971
270.292
384.223
507.746
639.678
772.421
891.668
975.062
1004.717
975.642
893.693
774.446
632.047
473.751
306.453
138.837
-12.481
-126.579
-192.275
-211.221
-198.957
-177.234
-159.165
-148.407
-141.492
-132.381
-120.757
-109.52
-101.701
-99.972
-103.825
-111.167
-120.107
-128.427
-134.31
-137.02
-136.477
-133.088
-127.706
-121.138
-114.05
-107.18
-101.261
-96.658
-93.42
-91.423
-90.36
-89.961
-90.06
-90.456
-90.934
-91.382
-91.734
-91.958
-92.093
-92.121
-91.983
-91.664
-91.159
-90.483
-89.688
-88.801
-87.821
-86.768
-85.659
-84.503
-83.315
-82.069
-80.704
-79.172
-77.422
-75.433
-73.217
-70.766
-68.063
-65.102
-61.88
-58.423
-54.791
-51.024
-47.139
-43.156
-39.087
-34.971
-30.869
-26.821
-22.846
-18.931
-15.046
-11.174
-7.301
-3.393
0.609
4.789
9.251
14.065
19.268
24.883
30.926
37.421
44.391
51.838
59.73
68.017
76.642
85.556
94.7
103.993
113.322
122.543
131.519
140.144
148.339
156.036
163.174
169.689
175.525
180.644
185.024
188.648
191.5
193.565
194.844
195.367
195.192
194.403
193.075
191.257
188.992
186.311
183.248
179.837
176.109
172.086
167.794
163.271
158.554
153.681
148.675
143.539
138.263
132.82
127.194
121.383
115.388
109.221
102.895
96.427
89.839
83.158
76.404
69.588
62.721
55.812
48.88
41.954
35.066
28.257
21.562
15.013
8.637
2.458
-3.506
-9.242
-14.739
-19.994
-25
-29.749
-34.233
-38.443
-42.378
-46.035
-49.419
-52.533
-55.384
-57.979
-60.329
-62.44
-64.32
-65.977
-67.418
-68.647
-69.673
-70.502
-71.144
-71.606
-71.901
-72.036
-72.024
-71.874
-71.598
-71.205
-70.705
-70.108
-69.423
-68.658
-67.823
-66.926
-65.976
-64.979
-63.944
-62.877
-61.784
-60.673
-59.547
-58.413
-57.273
-56.134
-54.997
-53.867
-52.748
-51.642
-50.553
-49.485
-48.441
-47.424
-46.437
-45.484
-44.567
-43.687
-42.849
-42.052
-41.3
-40.595
-39.937
-39.329
-38.772
-38.269
-37.82
-37.429
-37.095
-36.821
-36.607
-36.455
-36.366
-36.34
-36.38
-36.485
-36.656
-36.893
-37.198
-37.569
-38.005
-38.506
-39.07
-39.694
-40.375
-41.111
-41.898
-42.732
-43.608
-44.521
-45.468
-46.442
-47.438
-48.451
-49.473
-50.498
-51.519
-52.529
-53.521
-54.486
-55.417
-56.307
-57.146
-57.928
-58.644
-59.286
-59.847
-60.318
-60.692
-60.962
-61.121
-61.161
-61.078
-60.866
-60.521
-60.038
-59.417
-58.653
-57.747
-56.697
-55.505
-54.172
-52.7
-51.093
-49.354
-47.491
-45.51
-43.419
-41.228
-38.947
-36.589
-34.167
-31.696
-29.191
-26.671
-24.152
-21.654
-19.194
-16.792
-14.465
-12.232
-10.112
-8.121
-6.277
-4.597
-3.099
-1.801
-0.72
0.127
0.729
1.077
1.167
0.993
0.548
-0.175
-1.182
-2.476
-4.06
-5.937
-8.107
-10.563
-13.283
-16.224
-19.339
-22.584
-25.913
-29.291
-32.677
-36.028
-39.296
-42.432
-45.385
-48.116
-50.58
-52.726
-54.521
-55.942
-57.02
-57.866
-58.592
-59.317
-60.143
-61.111
-62.305
-63.864
-65.902
-68.536
-71.868
-75.899
-80.747
-86.687
-93.75
-101.742
-110.207
-118.259
-125.143
-130.42
-133.384
-133.191
-129.639
-123.021
-114.383
-105.713
-98.618
-94.179
-93.758
-98.528
-107.235
-116.548
-122.555
-121.177
-112.407
-98.79
-78.764
-45.572
10.887
98.225
215.882
352.742
493.728
631.529
761.263
878.384
977.363
1037.551
1037.28
966.559
823.192
624.826
400.459
176.646
-20.501
-173.672
-275.314
-325.464
-331.444
-303.637
-256.409
-203.692
-158.773
-133.061
-128.549
-140.044
-156.344
-166.489
-167.151
-160.58
-153.227
-149.399
-148.234
-147.354
-143.8
-136.451
-126.506
-115.334
-104.037
-93.568
-84.66
-77.757
-73.143
-70.777
-70.319
-71.525
-74.215
-78.139
-83.028
-88.611
-94.58
-100.693
-106.754
-112.511
-117.774
-122.4
-126.264
-129.303
-131.459
-132.683
-132.972
-132.356
-130.881
-128.608
-125.595
-121.899
-117.624
-112.893
-107.847
-102.64
-97.367
-92.088
-86.848
-81.668
-76.58
-71.621
-66.801
-62.11
-57.536
-53.071
-48.726
-44.524
-40.454
-36.468
-32.498
-28.472
-24.355
-20.144
-15.848
-11.472
-7.01
-2.439
2.254
7.064
11.991
17.052
22.293
27.782
33.562
39.623
45.929
52.445
59.166
66.123
73.342
80.824
88.559
96.511
104.646
112.941
121.353
129.809
138.203
146.396
154.259
161.719
168.722
175.213
181.117
186.323
190.736
194.296
196.958
198.698
199.497
199.334
198.211
196.173
193.294
189.677
185.437
180.645
175.363
169.657
163.6
157.291
150.818
144.24
137.606
130.958
124.336
117.784
111.334
104.984
98.719
92.51
86.317
80.124
73.927
67.717
61.493
55.243
48.962
42.663
36.366
30.09
23.851
17.663
11.542
5.519
-0.374
-6.1
-11.619
-16.902
-21.929
-26.68
-31.139
-35.296
-39.142
-42.677
-45.909
-48.841
-51.477
-53.823
-55.883
-57.666
-59.185
-60.453
-61.482
-62.286
-62.878
-63.269
-63.475
-63.505
-63.373
-63.088
-62.661
-62.103
-61.426
-60.642
-59.764
-58.805
-57.776
-56.688
-55.554
-54.383
-53.186
-51.971
-50.748
-49.522
-48.302
-47.093
-45.902
-44.732
-43.589
-42.476
-41.395
-40.351
-39.346
-38.38
-37.456
-36.576
-35.741
-34.951
-34.208
-33.512
-32.865
-32.265
-31.715
-31.213
-30.76
-30.356
-30
-29.692
-29.432
-29.22
-29.055
-28.937
-28.865
-28.84
-28.86
-28.927
-29.038
-29.195
-29.397
-29.642
-29.931
-30.263
-30.636
-31.049
-31.5
-31.986
-32.505
-33.054
-33.628
-34.225
-34.839
-35.467
-36.102
-36.74
-37.375
-38.001
-38.612
-39.2
-39.76
-40.283
-40.763
-41.192
-41.564
-41.87
-42.105
-42.261
-42.33
-42.308
-42.188
-41.963
-41.628
-41.179
-40.611
-39.921
-39.106
-38.165
-37.098
-35.904
-34.586
-33.147
-31.59
-29.92
-28.144
-26.267
-24.299
-22.248
-20.124
-17.939
-15.705
-13.435
-11.146
-8.854
-6.577
-4.332
-2.139
-0.016
2.018
3.947
5.753
7.424
8.943
10.298
11.471
12.45
13.22
13.77
14.09
14.173
14.015
13.617
12.982
12.114
11.016
9.684
8.113
6.298
4.236
1.927
-0.622
-3.394
-6.362
-9.485
-12.722
-16.025
-19.35
-22.659
-25.909
-29.06
-32.061
-34.849
-37.359
-39.529
-41.296
-42.605
-43.433
-43.801
-43.767
-43.428
-42.877
-42.181
-41.437
-40.772
-40.325
-40.231
-40.618
-41.565
-43.222
-45.888
-49.694
-54.548
-60.16
-65.905
-71.173
-75.565
-78.482
-79.071
-76.995
-72.525
-66.398
-60.206
-55.474
-53.211
-54.767
-61.604
-72.903
-85.579
-96.363
-101.812
-102.117
-100.038
-93.822
-76.027
-34.95
38.669
145.664
276.408
416.08
556.218
692.216
820.098
933.214
1014.135
1041.669
1002.062
892.627
722.497
512.288
286.712
68.47
-119.233
-257.889
-339.192
-361.583
-331.621
-266.871
-187.201
-112.738
-64.388
-48.95
-61.41
-90.232
-116.472
-130.448
-132.231
-125.759
-119.536
-116.666
-115.568
-114.55
-110.892
-104.183
-95.941
-87.217
-79.205
-72.882
-68.391
-65.736
-64.831
-65.304
-66.918
-69.521
-72.858
-76.662
-80.707
-84.769
-88.675
-92.31
-95.521
-98.173
-100.179
-101.473
-102.056
-101.941
-101.139
-99.673
-97.57
-94.881
-91.695
-88.09
-84.137
-79.92
-75.509
-70.985
-66.435
-61.91
-57.436
-53.029
-48.682
-44.388
-40.147
-35.944
-31.767
-27.597
-23.409
-19.181
-14.896
-10.53
-6.058
-1.458
3.292
8.203
13.275
18.501
23.87
29.361
34.947
40.605
46.32
52.08
57.886
63.735
69.624
75.55
81.51
87.502
93.526
99.576
105.643
111.725
117.831
123.985
130.228
136.582
143.039
149.584
156.181
162.786
169.353
175.818
182.1
188.128
193.835
199.165
204.084
208.539
212.462
215.774
218.374
220.192
221.188
221.337
220.63
219.083
216.718
213.592
209.797
205.407
200.482
195.076
189.219
182.96
176.366
169.509
162.473
155.331
148.133
140.927
133.757
126.648
119.613
112.641
105.693
98.748
91.803
84.86
77.94
71.054
64.205
57.402
50.651
43.959
37.34
30.802
24.354
18.011
11.796
5.741
-0.11
-5.724
-11.079
-16.157
-20.95
-25.449
-29.647
-33.543
-37.142
-40.448
-43.465
-46.196
-48.642
-50.811
-52.711
-54.356
-55.759
-56.937
-57.902
-58.666
-59.244
-59.648
-59.889
-59.979
-59.926
-59.741
-59.434
-59.016
-58.501
-57.9
-57.225
-56.485
-55.695
-54.863
-54
-53.114
-52.215
-51.309
-50.405
-49.507
-48.624
-47.759
-46.918
-46.105
-45.323
-44.576
-43.867
-43.198
-42.57
-41.985
-41.445
-40.95
-40.502
-40.101
-39.749
-39.445
-39.191
-38.987
-38.833
-38.731
-38.68
-38.681
-38.733
-38.837
-38.992
-39.198
-39.455
-39.764
-40.123
-40.534
-40.994
-41.505
-42.065
-42.673
-43.33
-44.033
-44.782
-45.575
-46.411
-47.286
-48.2
-49.148
-50.128
-51.136
-52.168
-53.218
-54.283
-55.355
-56.431
-57.502
-58.564
-59.608
-60.629
-61.618
-62.568
-63.471
-64.317
-65.097
-65.803
-66.426
-66.957
-67.389
-67.713
-67.921
-68.007
-67.965
-67.792
-67.481
-67.025
-66.42
-65.658
-64.744
-63.68
-62.468
-61.112
-59.617
-57.988
-56.236
-54.376
-52.411
-50.346
-48.188
-45.943
-43.63
-41.269
-38.878
-36.481
-34.089
-31.71
-29.363
-27.07
-24.839
-22.686
-20.616
-18.629
-16.762
-15.048
-13.517
-12.202
-11.112
-10.255
-9.643
-9.286
-9.198
-9.401
-9.9
-10.695
-11.807
-13.251
-15.046
-17.213
-19.715
-22.492
-25.497
-28.669
-31.97
-35.365
-38.807
-42.241
-45.62
-48.887
-51.998
-54.916
-57.579
-59.922
-61.891
-63.443
-64.617
-65.519
-66.248
-66.908
-67.59
-68.341
-69.248
-70.423
-71.938
-73.89
-76.385
-79.469
-83.297
-88.104
-93.911
-100.645
-107.993
-115.177
-121.457
-126.251
-128.751
-128.267
-124.637
-117.767
-108.442
-98.748
-90.506
-85.296
-83.874
-85.183
-87.749
-91.24
-97.535
-108.377
-122.101
-131.606
-121.835
-78.77
0.926
111.652
237.678
363.74
487.472
611.095
734.561
850.48
937.944
972.872
943.622
851.387
708.747
536.568
351.979
170.307
9.974
-114.159
-192.973
-226.076
-227.045
-214.188
-199.36
-188.453
-179.293
-166.226
-149.88
-133.247
-119.614
-113.047
-113.71
-119.355
-128.201
-137.569
-144.898
-149.287
-150.408
-148.385
-144.109
-138.451
-132.082
-125.913
-120.871
-117.356
-115.458
-115.055
-115.751
-117.24
-119.31
-121.671
-124.037
-126.198
-127.975
-129.247
-129.964
-130.044
-129.408
-128.047
-125.983
-123.29
-120.104
-116.548
-112.738
-108.803
-104.846
-100.954
-97.213
-93.679
-90.403
-87.437
-84.818
-82.576
-80.731
-79.257
-78.111
-77.226
-76.489
-75.791
-75.021
-74.056
-72.803
-71.201
-69.193
-66.751
-63.852
-60.47
-56.586
-52.184
-47.244
-41.763
-35.749
-29.219
-22.225
-14.833
-7.122
0.808
8.88
17.04
25.235
33.432
41.601
49.707
57.716
65.597
73.307
80.794
88.015
94.926
101.507
107.754
113.675
119.299
124.639
129.7
134.481
138.972
143.158
147.027
150.559
153.736
156.546
158.992
161.074
162.793
164.145
165.113
165.68
165.822
165.517
164.751
163.513
161.8
159.614
156.962
153.856
150.315
146.355
141.991
137.239
132.115
126.639
120.835
114.73
108.353
101.734
94.904
87.896
80.74
73.467
66.106
58.686
51.231
43.768
36.325
28.926
21.597
14.365
7.252
0.282
-6.522
-13.139
-19.551
-25.74
-31.691
-37.39
-42.824
-47.984
-52.859
-57.443
-61.731
-65.717
-69.399
-72.776
-75.849
-78.62
-81.093
-83.273
-85.167
-86.782
-88.127
-89.212
-90.046
-90.641
-91.009
-91.16
-91.107
-90.863
-90.441
-89.853
-89.114
-88.237
-87.235
-86.121
-84.909
-83.61
-82.237
-80.801
-79.314
-77.784
-76.223
-74.64
-73.043
-71.441
-69.841
-68.251
-66.677
-65.124
-63.597
-62.102
-60.64
-59.216
-57.831
-56.49
-55.192
-53.942
-52.74
-51.588
-50.487
-49.438
-48.443
-47.503
-46.616
-45.784
-45.007
-44.284
-43.616
-43.004
-42.446
-41.944
-41.498
-41.109
-40.777
-40.503
-40.288
-40.131
-40.034
-39.997
-40.02
-40.106
-40.254
-40.465
-40.74
-41.08
-41.484
-41.953
-42.484
-43.075
-43.726
-44.432
-45.188
-45.991
-46.835
-47.716
-48.629
-49.568
-50.529
-51.507
-52.496
-53.493
-54.49
-55.481
-56.457
-57.409
-58.327
-59.203
-60.025
-60.783
-61.464
-62.058
-62.558
-62.955
-63.241
-63.405
-63.431
-63.31
-63.038
-62.614
-62.038
-61.314
-60.446
-59.448
-58.343
-57.154
-55.901
-54.596
-53.238
-51.832
-50.385
-48.905
-47.404
-45.882
-44.326
-42.727
-41.084
-39.392
-37.648
-35.829
-33.889
-31.797
-29.534
-27.098
-24.519
-21.826
-19.041
-16.203
-13.356
-10.566
-7.922
-5.492
-3.324
-1.473
0.009
1.044
1.527
1.375
0.534
-1.028
-3.306
-6.281
-9.924
-14.175
-18.948
-24.132
-29.593
-35.216
-40.912
-46.587
-52.136
-57.439
-62.351
-66.749
-70.544
-73.667
-76.083
-77.812
-78.907
-79.464
-79.609
-79.461
-79.151
-78.841
-78.683
-78.826
-79.418
-80.553
-82.362
-85.09
-88.873
-93.648
-99.148
-104.801
-110.005
-114.377
-117.451
-118.489
-117.004
-112.987
-107.066
-100.663
-95.055
-91.042
-89.441
-91.284
-97.483
-106.457
-113.972
-115.783
-107.74
-90.806
-70.898
-47.767
-18.025
26.295
99.885
205.923
339.798
493.582
650.574
798.749
927.088
1020.727
1066.178
1049.676
965.45
818.655
625.05
409.437
197.152
11.288
-131.873
-224.849
-268.969
-272.48
-246.08
-203.459
-156.904
-117.612
-95.184
-91.445
-102.514
-119.047
-131.814
-137.75
-137.995
-137.624
-139.916
-143.882
-147.622
-148.579
-145.776
-140.324
-133.416
-126.122
-119.366
-113.733
-109.512
-106.815
-105.483
-105.172
-105.64
-106.702
-108.135
-109.695
-111.16
-112.342
-113.114
-113.395
-113.075
-112.049
-110.287
-107.845
-104.832
-101.366
-97.544
-93.438
-89.123
-84.7
-80.263
-75.907
-71.722
-67.778
-64.165
-60.987
-58.339
-56.297
-54.865
-53.972
-53.521
-53.426
-53.62
-54.056
-54.679
-55.421
-56.22
-57.022
-57.766
-58.383
-58.755
-58.736
-58.183
-56.964
-55.002
-52.269
-48.741
-44.399
-39.227
-33.202
-26.324
-18.602
-10.023
-0.587
9.681
20.72
32.396
44.535
56.972
69.532
82.063
94.43
106.477
118.072
129.114
139.505
149.168
158.02
165.946
172.848
178.669
183.385
187.037
189.692
191.407
192.261
192.344
191.75
190.604
189
186.991
184.627
181.948
179.011
175.9
172.687
169.409
166.09
162.729
159.315
155.851
152.32
148.682
144.893
140.893
136.647
132.153
127.413
122.433
117.215
111.748
106.033
100.094
93.952
87.634
81.165
74.565
67.866
61.116
54.365
47.665
41.059
34.576
28.24
22.076
16.105
10.349
4.821
-0.474
-5.529
-10.333
-14.879
-19.157
-23.165
-26.904
-30.38
-33.596
-36.558
-39.27
-41.738
-43.969
-45.971
-47.749
-49.31
-50.66
-51.807
-52.761
-53.532
-54.132
-54.574
-54.867
-55.025
-55.06
-54.984
-54.808
-54.542
-54.196
-53.779
-53.301
-52.768
-52.19
-51.571
-50.92
-50.241
-49.541
-48.822
-48.089
-47.345
-46.592
-45.833
-45.068
-44.299
-43.526
-42.75
-41.97
-41.187
-40.401
-39.611
-38.816
-38.016
-37.21
-36.396
-35.576
-34.747
-33.909
-33.063
-32.209
-31.349
-30.483
-29.613
-28.742
-27.872
-27.007
-26.15
-25.304
-24.475
-23.665
-22.879
-22.123
-21.399
-20.714
-20.072
-19.477
-18.933
-18.446
-18.018
-17.654
-17.356
-17.127
-16.97
-16.885
-16.874
-16.937
-17.073
-17.281
-17.56
-17.905
-18.315
-18.783
-19.306
-19.877
-20.49
-21.138
-21.813
-22.506
-23.208
-23.91
-24.602
-25.273
-25.914
-26.512
-27.059
-27.542
-27.951
-28.275
-28.504
-28.628
-28.637
-28.522
-28.275
-27.887
-27.352
-26.663
-25.817
-24.81
-23.638
-22.302
-20.799
-19.134
-17.307
-15.324
-13.188
-10.908
-8.491
-5.945
-3.283
-0.514
2.348
5.289
8.292
11.339
14.412
17.491
20.553
23.578
26.542
29.425
32.204
34.861
37.377
39.733
41.912
43.893
45.66
47.194
48.482
49.51
50.267
50.744
50.94
50.854
50.489
49.845
48.915
47.69
46.165
44.336
42.203
39.772
37.06
34.091
30.907
27.554
24.082
20.541
16.975
13.425
9.936
6.564
3.378
0.448
-2.155
-4.375
-6.155
-7.465
-8.312
-8.744
-8.849
-8.727
-8.458
-8.136
-7.875
-7.812
-8.09
-8.856
-10.214
-12.32
-15.426
-19.662
-24.986
-31.116
-37.418
-43.258
-48.155
-51.501
-52.524
-50.801
-46.371
-39.967
-33.34
-28.049
-25.026
-25.497
-30.524
-40.259
-54.126
-68.833
-79.316
-82.429
-74.558
-54.342
-20.779
31.922
104.835
198.195
311.12
434.757
565.998
703.304
839.666
967.432
1070.209
1124.556
1113.096
1029.304
878.239
678.993
457.962
239.291
45.839
-103.963
-201.066
-243.143
-234.776
-190.462
-128.143
-65.987
-22.946
-6.96
-15.888
-41.029
-65.593
-80.078
-83.541
-78.931
-74.934
-75.232
-77.962
-81.137
-81.501
-77.999
-72.061
-64.768
-57.084
-49.898
-43.692
-38.716
-35.095
-32.666
-31.085
-30.145
-29.719
-29.633
-29.71
-29.791
-29.729
-29.457
-28.985
-28.286
-27.331
-26.111
-24.616
-22.875
-20.937
-18.845
-16.647
-14.381
-12.081
-9.779
-7.512
-5.307
-3.186
-1.147
0.854
2.865
4.936
7.113
9.422
11.897
14.566
17.44
20.518
23.783
27.211
30.797
34.556
38.508
42.68
47.085
51.698
56.49
61.437
66.515
71.713
77.012
82.396
87.876
93.494
99.309
105.378
111.735
118.376
125.282
132.423
139.751
147.247
154.885
162.63
170.472
178.401
186.424
194.563
202.806
211.096
219.356
227.503
235.458
243.168
250.578
257.632
264.298
270.546
276.35
281.702
286.561
290.869
294.552
297.513
299.683
301.041
301.578
301.306
300.249
298.437
295.918
292.771
289.047
284.789
280.029
274.783
269.092
263.019
256.634
250.026
243.27
236.418
229.519
222.614
215.727
208.871
202.036
195.186
188.305
181.392
174.456
167.52
160.6
153.701
146.83
139.995
133.201
126.461
119.785
113.178
106.658
100.247
93.978
87.897
82.038
76.423
71.07
65.991
61.191
56.68
52.458
48.52
44.862
41.479
38.369
35.531
32.958
30.643
28.573
26.734
25.113
23.699
22.479
21.441
20.574
19.867
19.311
18.899
18.623
18.473
18.441
18.515
18.686
18.946
19.283
19.69
20.155
20.672
21.233
21.832
22.462
23.12
23.8
24.497
25.21
25.933
26.664
27.401
28.14
28.88
29.618
30.353
31.083
31.805
32.52
33.224
33.917
34.596
35.26
35.905
36.528
37.128
37.701
38.244
38.754
39.229
39.665
40.06
40.411
40.715
40.968
41.167
41.309
41.391
41.41
41.361
41.242
41.05
40.783
40.436
40.009
39.499
38.904
38.223
37.454
36.596
35.649
34.614
33.492
32.284
30.992
29.619
28.171
26.652
25.069
23.428
21.735
19.998
18.223
16.42
14.596
12.755
10.907
9.059
7.22
5.399
3.605
1.848
0.137
-1.515
-3.098
-4.6
-6.012
-7.324
-8.525
-9.607
-10.556
-11.358
-12.003
-12.488
-12.809
-12.968
-12.97
-12.822
-12.54
-12.149
-11.666
-11.11
-10.498
-9.839
-9.15
-8.446
-7.741
-7.051
-6.383
-5.733
-5.094
-4.456
-3.792
-3.074
-2.265
-1.314
-0.189
1.133
2.667
4.41
6.362
8.512
10.83
13.285
15.832
18.408
20.946
23.367
25.559
27.416
28.829
29.673
29.859
29.312
27.967
25.789
22.766
18.912
14.278
8.928
2.93
-3.622
-10.624
-17.95
-25.433
-32.916
-40.248
-47.273
-53.865
-59.911
-65.306
-69.986
-73.946
-77.25
-79.993
-82.295
-84.248
-85.934
-87.478
-89.039
-90.79
-92.895
-95.492
-98.684
-102.638
-107.617
-113.664
-120.669
-128.315
-135.919
-142.85
-148.619
-152.424
-153.381
-151.33
-146.376
-139.042
-131.045
-123.754
-118.141
-116.356
-119.019
-123.84
-129.126
-132.224
-132.356
-133.935
-137
-136.447
-121.506
-76.371
5.739
122.131
262.053
408.889
552.053
684.846
799.406
887.783
939.355
939.991
881.602
765.094
593.657
382.415
155.653
-65.227
-252.899
-385.699
-460.671
-480.106
-455.579
-407.984
-349.559
-293.065
-253.547
-234.104
-235.621
-252.575
-269.435
-278.695
-278.536
-271.087
-264.665
-262.409
-262.544
-263.097
-261.079
-255.706
-248.483
-240.505
-232.615
-225.566
-219.809
-215.643
-213.229
-212.449
-212.982
-214.619
-217.257
-220.754
-224.962
-229.703
-234.779
-240.049
-245.412
-250.776
-256.069
-261.221
-266.173
-270.876
-275.272
-279.322
-283.001
-286.266
-289.067
-291.344
-293.029
-294.1
-294.578
-294.502
-293.94
-292.954
-291.599
-289.938
-288.031
-285.934
-283.707
-281.401
-279.059
-276.754
-274.572
-272.608
-270.966
-269.713
-268.884
-268.481
-268.469
-268.779
-269.319
-269.977
-270.64
-271.197
-271.527
-271.51
-271.015
-269.874
-267.913
-264.963
-260.854
-255.482
-248.768
-240.636
-231.061
-220.028
-207.54
-193.71
-178.619
-162.228
-144.638
-126.041
-106.793
-87.716
-69.661
