Name
Date of Birth,"Mar 27, 1959"
Recorded Date,2020-07-14 13:49:06 -0500
Classification,Sinus Rhythm
Symptoms,
Software Version,1.80
Device,"Watch4,2"
Sample Rate,510.227 hertz


Lead,Lead I
Unit,µV

-58.851
-65.668
-69.404
-70.004
-68.031
-64.221
-59.597
-55.357
-52.083
-50.016
-49.535
-50.738
-53.568
-57.942
-63.466
-69.597
-76.006
-82.462
-88.746
-94.773
-100.463
-105.734
-110.623
-115.196
-119.475
-123.466
-127.174
-130.592
-133.74
-136.66
-139.392
-141.982
-144.548
-147.275
-150.251
-153.456
-156.684
-159.479
-161.415
-162.196
-161.43
-158.683
-153.85
-147.1
-139.145
-131.383
-124.998
-120.764
-119.467
-121.637
-127.05
-134.893
-143.155
-148.573
-148.28
-139.723
-120.223
-87.684
-40.753
19.508
88.638
161.405
232.402
300.49
368.866
435.35
495.972
540.657
550.697
518.62
441.611
321.436
177.955
28.576
-107.587
-205.112
-257.169
-265.748
-240.821
-205.49
-172.373
-145.408
-124.419
-102.093
-76.656
-50.758
-26.858
-8.977
1.454
5.482
4.382
0.674
-3.019
-5.545
-6.387
-5.401
-2.695
1.933
8.449
16.02
23.37
29.628
34.39
37.594
39.372
39.626
38.305
35.718
32.409
28.872
25.426
22.185
19.128
16.316
13.836
11.723
9.977
8.567
7.484
6.753
6.419
6.5
6.971
7.772
8.812
10.009
11.293
12.613
13.947
15.277
16.596
17.903
19.201
20.495
21.787
23.076
24.357
25.632
26.912
28.223
29.603
31.087
32.706
34.482
36.429
38.556
40.87
43.371
46.051
48.907
51.936
55.135
58.508
62.052
65.764
69.638
73.665
77.835
82.138
86.564
91.103
95.745
100.481
105.302
110.203
115.176
120.212
125.302
130.436
135.604
140.794
145.996
151.198
156.386
161.55
166.679
171.761
176.785
181.741
186.617
191.404
196.09
200.666
205.123
209.449
213.637
217.676
221.558
225.274
228.816
232.176
235.346
238.318
241.086
243.642
245.979
248.09
249.969
251.609
253.004
254.149
255.038
255.668
256.035
256.139
255.977
255.552
254.862
253.908
252.693
251.22
249.492
247.512
245.282
242.808
240.095
237.152
233.986
230.608
227.027
223.256
219.309
215.198
210.94
206.548
202.036
197.418
192.712
187.939
183.121
178.278
173.427
168.585
163.766
158.981
154.239
149.54
144.877
140.248
135.65
131.083
126.557
122.072
117.633
113.249
108.924
104.668
100.502
96.447
92.531
88.8
85.297
82.083
79.237
76.828
74.926
73.6
72.891
72.845
73.494
74.844
76.906
79.672
83.108
87.168
91.776
96.819
102.192
107.764
113.361
118.813
123.919
128.484
132.365
135.425
137.554
138.658
138.617
137.352
134.864
131.185
126.433
120.733
114.102
106.734
99.023
91.373
84.306
78.202
73.078
69.179
67.042
66.802
68.353
71.411
75.201
79.53
85.022
91.822
99.746
109.145
120.533
135.025
154.593
179.976
210.574
246.042
285.935
329.203
374.435
418.786
458.113
489.591
511.673
523.081
523.136
511.497
488.506
456.58
419.631
380.991
343.437
309.112
279.516
256.38
240.784
232.086
228.586
228.397
229.574
230.951
231.829
231.085
228.027
222.765
215.811
208.152
200.986
194.881
190.087
186.988
185.669
186.048
187.978
190.951
194.326
197.723
200.923
203.78
206.29
208.412
210.072
211.289
212.088
212.456
212.348
211.684
210.392
208.44
205.847
202.669
198.991
194.898
190.445
185.662
180.55
175.101
169.311
163.18
156.734
150.03
143.151
136.18
129.169
122.145
115.11
108.065
100.969
93.712
86.274
78.773
71.475
64.866
59.456
55.633
53.821
54.569
58.133
64.374
72.802
82.233
91.342
99.199
104.796
107.033
105.543
100.884
94.301
88.405
86.615
91.948
107.805
138.145
184.347
244.41
315.964
395.047
479.847
574.935
680.927
790.828
891.842
961.956
981.406
945.044
857.014
729.42
581.8
429.638
286.935
170.618
90.403
49.299
45.407
68.812
108.007
154.745
199.884
232.757
246.113
235.65
203.73
162.398
123.206
93.431
75.001
62.228
49.982
36.972
24.251
15.284
11.772
12.614
15.945
19.935
23.827
27.684
31.439
34.777
37.414
39.35
40.914
42.395
43.85
45.195
46.266
46.986
47.33
47.212
46.512
45.136
43.031
40.209
36.743
32.698
28.136
23.126
17.7
11.89
5.738
-0.736
-7.489
-14.444
-21.518
-28.596
-35.552
-42.301
-48.783
-54.963
-60.844
-66.439
-71.761
-76.832
-81.653
-86.201
-90.452
-94.358
-97.888
-101.048
-103.855
-106.352
-108.597
-110.622
-112.434
-114.025
-115.358
-116.381
-117.053
-117.33
-117.192
-116.65
-115.737
-114.51
-113.024
-111.312
-109.393
-107.277
-104.965
-102.465
-99.8
-96.998
-94.105
-91.187
-88.302
-85.507
-82.845
-80.334
-77.973
-75.743
-73.63
-71.625
-69.731
-67.96
-66.326
-64.848
-63.546
-62.441
-61.544
-60.855
-60.376
-60.106
-60.05
-60.225
-60.652
-61.359
-62.374
-63.718
-65.409
-67.455
-69.863
-72.632
-75.754
-79.218
-83.013
-87.127
-91.549
-96.269
-101.27
-106.535
-112.04
-117.761
-123.671
-129.744
-135.951
-142.265
-148.657
-155.102
-161.572
-168.045
-174.494
-180.895
-187.22
-193.444
-199.54
-205.485
-211.255
-216.827
-222.179
-227.291
-232.146
-236.728
-241.024
-245.018
-248.7
-252.057
-255.078
-257.763
-260.113
-262.126
-263.804
-265.151
-266.173
-266.881
-267.288
-267.399
-267.221
-266.761
-266.027
-265.038
-263.815
-262.376
-260.744
-258.929
-256.942
-254.804
-252.535
-250.145
-247.652
-245.063
-242.381
-239.641
-236.876
-234.113
-231.383
-228.702
-226.08
-223.538
-221.09
-218.759
-216.569
-214.527
-212.642
-210.938
-209.432
-208.149
-207.115
-206.317
-205.737
-205.369
-205.197
-205.221
-205.441
-205.845
-206.42
-207.159
-208.05
-209.089
-210.275
-211.586
-213.004
-214.507
-216.07
-217.697
-219.396
-221.162
-222.997
-224.894
-226.843
-228.844
-230.898
-232.994
-235.122
-237.272
-239.43
-241.599
-243.778
-245.965
-248.164
-250.364
-252.553
-254.726
-256.876
-258.993
-261.075
-263.112
-265.099
-267.036
-268.926
-270.771
-272.574
-274.34
-276.067
-277.759
-279.415
-281.03
-282.608
-284.156
-285.686
-287.216
-288.762
-290.336
-291.957
-293.645
-295.414
-297.271
-299.217
-301.235
-303.324
-305.485
-307.731
-310.086
-312.561
-315.151
-317.853
-320.651
-323.534
-326.491
-329.499
-332.523
-335.551
-338.584
-341.65
-344.804
-348.08
-351.489
-355.025
-358.661
-362.378
-366.173
-370.039
-373.968
-377.956
-381.994
-386.093
-390.281
-394.547
-398.865
-403.168
-407.355
-411.358
-415.146
-418.718
-422.114
-425.375
-428.52
-431.568
-434.551
-437.504
-440.477
-443.506
-446.602
-449.78
-453.087
-456.666
-460.611
-464.882
-469.279
-473.376
-476.684
-478.835
-479.444
-478.019
-474.323
-468.44
-460.801
-452.511
-444.739
-438.253
-433.843
-432.181
-433.221
-436.23
-439.653
-440.655
-436.291
-423.994
-400.799
-364.028
-311.881
-245.038
-167.202
-83.027
2.257
87.753
176.448
266.017
352.243
424.611
463.644
460.289
410.921
317.782
202.064
82.243
-23.335
-93.505
-127.505
-128.577
-103.493
-68.695
-27.417
16.172
53.761
84.139
98.732
95.492
83.919
69.832
62.267
65.107
72.284
80.951
88.768
94.704
102.023
111.837
123.399
136.201
148.962
160.772
171.664
181.558
190.221
197.622
203.678
208.228
211.204
212.518
212.007
209.585
205.219
198.856
190.508
180.214
168.002
153.932
138.06
120.456
101.241
80.572
58.632
35.628
11.754
-12.783
-37.739
-62.886
-88.016
-112.934
-137.471
-161.447
-184.645
-206.851
-227.88
-247.581
-265.858
-282.647
-297.885
-311.527
-323.541
-333.93
-342.754
-350.088
-355.994
-360.535
-363.782
-365.834
-366.854
-367.03
-366.516
-365.441
-363.903
-361.99
-359.816
-357.518
-355.221
-353.027
-350.997
-349.174
-347.599
-346.3
-345.317
-344.678
-344.377
-344.388
-344.676
-345.161
-345.814
-346.655
-347.574
-348.365
-348.672
-347.964
-345.935
-342.552
-337.794
-331.662
-324.232
-315.545
-306.033
-296.575
-287.495
-278.528
-269.084
-258.163
-244.933
-228.917
-209.203
-184.448
-154.054
-118.126
-77.457
-33.644
12.022
58.72
105.301
150.396
193.116
232.966
270.066
305.211
338.854
371.083
402.091
432.066
461.121
489.316
516.424
541.946
565.601
587.294
606.996
624.759
640.562
654.335
666.09
675.896
683.821
689.892
694.07
696.259
696.383
694.423
690.425
684.486
676.674
667.03
655.674
642.877
629.087
614.796
600.367
585.964
571.71
557.943
544.972
532.941
521.745
511.046
500.804
491.539
483.914
478.323
475.248
475.236
479.099
488.16
503.152
523.918
550.095
581.217
616.425
654.733
694.585
733.561
769.846
802.324
829.896
851.876
868.033
878.274
883.269
884.55
883.206
880.008
875.846
871.195
866.317
861.471
856.377
850.308
842.878
833.86
823.024
810.456
796.301
780.664
763.901
746.484
728.682
710.696
692.67
674.589
656.442
638.23
619.864
601.241
582.308
563.029
543.396
523.441
503.183
482.654
461.918
441.062
420.204
399.463
378.953
358.787
339.074
319.918
301.418
283.659
266.714
250.644
235.501
221.317
208.106
195.861
184.551
174.115
164.459
155.481
147.068
139.12
131.56
124.32
117.343
110.582
104
97.566
91.255
85.052
78.945
72.932
67.013
61.211
55.564
50.117
44.926
40.028
35.438
31.164
27.199
23.529
20.133
16.985
14.051
11.302
8.709
6.244
3.877
1.573
-0.704
-2.992
-5.329
-7.745
-10.258
-12.871
-15.574
-18.344
-21.159
-23.996
-26.833
-29.651
-32.43
-35.141
-37.755
-40.246
-42.596
-44.794
-46.829
-48.687
-50.368
-51.897
-53.337
-54.769
-56.268
-57.888
-59.662
-61.612
-63.769
-66.192
-68.928
-72.028
-75.52
-79.38
-83.636
-88.348
-93.463
-98.816
-104.059
-108.657
-112.176
-114.321
-114.728
-113.121
-109.473
-103.928
-97.155
-90.211
-83.885
-78.891
-75.916
-75.113
-76.177
-78.357
-79.822
-78.321
-72.058
-58.809
-36.291
-3.285
40.797
94.107
151.723
209.279
263.793
315.188
365.901
414.389
454.009
473.28
458.366
403.245
311.843
195.625
74.385
-33.518
-117.431
-170.281
-195.21
-202.596
-199.285
-193.054
-187.149
-177.644
-164.167
-147.532
-129.348
-114.536
-105.41
-101.447
-101.962
-105.619
-111.05
-117.725
-124.878
-131.162
-136.058
-139.742
-142.325
-144.086
-145.229
-145.517
-145.122
-144.741
-144.642
-144.869
-145.445
-146.152
-146.958
-148.107
-149.557
-151.021
-152.314
-153.247
-153.747
-153.915
-153.764
-153.253
-152.425
-151.371
-150.234
-149.162
-148.231
-147.462
-146.862
-146.427
-146.16
-146.055
-146.072
-146.185
-146.367
-146.594
-146.861
-147.145
-147.403
-147.584
-147.617
-147.437
-147.007
-146.296
-145.283
-143.972
-142.368
-140.497
-138.415
-136.16
-133.758
-131.231
-128.583
-125.824
-122.975
-120.053
-117.077
-114.067
-111.034
-107.992
-104.956
-101.929
-98.91
-95.888
-92.838
-89.745
-86.605
-83.415
-80.182
-76.912
-73.612
-70.29
-66.965
-63.647
-60.351
-57.086
-53.859
-50.682
-47.568
-44.532
-41.589
-38.755
-36.04
-33.456
-31.012
-28.716
-26.575
-24.593
-22.772
-21.113
-19.62
-18.296
-17.142
-16.16
-15.352
-14.717
-14.256
-13.969
-13.853
-13.906
-14.124
-14.504
-15.04
-15.727
-16.561
-17.534
-18.64
-19.872
-21.223
-22.685
-24.253
-25.917
-27.672
-29.51
-31.424
-33.41
-35.461
-37.571
-39.736
-41.952
-44.213
-46.516
-48.856
-51.23
-53.634
-56.062
-58.512
-60.98
-63.46
-65.949
-68.443
-70.937
-73.426
-75.908
-78.377
-80.83
-83.262
-85.669
-88.048
-90.395
-92.707
-94.979
-97.209
-99.393
-101.527
-103.606
-105.628
-107.588
-109.481
-111.304
-113.051
-114.72
-116.305
-117.804
-119.212
-120.527
-121.747
-122.869
-123.891
-124.813
-125.635
-126.357
-126.979
-127.505
-127.936
-128.277
-128.53
-128.699
-128.791
-128.809
-128.759
-128.646
-128.475
-128.253
-127.986
-127.679
-127.338
-126.971
-126.583
-126.18
-125.771
-125.36
-124.954
-124.559
-124.18
-123.823
-123.492
-123.191
-122.923
-122.693
-122.5
-122.347
-122.234
-122.16
-122.124
-122.124
-122.155
-122.214
-122.296
-122.395
-122.505
-122.619
-122.731
-122.833
-122.919
-122.98
-123.012
-123.005
-122.955
-122.852
-122.693
-122.469
-122.177
-121.811
-121.366
-120.84
-120.229
-119.532
-118.748
-117.877
-116.92
-115.88
-114.763
-113.573
-112.316
-111.002
-109.64
-108.241
-106.815
-105.373
-103.929
-102.494
-101.081
-99.705
-98.379
-97.119
-95.941
-94.859
-93.887
-93.039
-92.327
-91.758
-91.34
-91.08
-90.986
-91.071
-91.346
-91.82
-92.5
-93.391
-94.493
-95.802
-97.301
-98.962
-100.759
-102.664
-104.653
-106.708
-108.81
-110.932
-113.047
-115.115
-117.096
-118.96
-120.672
-122.203
-123.533
-124.663
-125.634
-126.516
-127.38
-128.284
-129.26
-130.336
-131.57
-133.022
-134.766
-136.885
-139.417
-142.425
-146.045
-150.292
-155.062
-160.116
-164.937
-169.02
-172.052
-173.63
-173.307
-171.043
-167.006
-161.746
-156.531
-152.347
-149.683
-149.236
-151.487
-156.069
-162.243
-168.382
-171.483
-169.099
-159.539
-140.454
-109.792
-66.703
-10.883
54.921
124.543
193.148
257.571
317.59
375.46
429.388
472.787
494.12
481.102
428.627
337.872
218.769
87.949
-38.004
-140.63
-206.679
-233.732
-228.273
-206.027
-182.435
-165.66
-156.409
-149.178
-140.214
-129.652
-119.747
-114.25
-114.263
-118.231
-124.455
-130.815
-135.677
-138.642
-139.52
-138.36
-135.741
-132.26
-128.418
-124.816
-121.964
-120.068
-119.194
-119.269
-120.038
-121.264
-122.745
-124.266
-125.634
-126.714
-127.392
-127.574
-127.197
-126.224
-124.646
-122.496
-119.841
-116.742
-113.272
-109.523
-105.604
-101.649
-97.783
-94.103
-90.685
-87.592
-84.872
-82.574
-80.735
-79.349
-78.381
-77.764
-77.41
-77.249
-77.214
-77.227
-77.205
-77.048
-76.669
-76.006
-75.016
-73.665
-71.93
-69.789
-67.229
-64.27
-60.946
-57.305
-53.409
-49.3
-45.012
-40.582
-36.045
-31.441
-26.805
-22.159
-17.511
-12.875
-8.26
-3.677
0.862
5.363
9.835
14.289
18.738
23.188
27.634
32.073
36.497
40.896
45.259
49.566
53.796
57.929
61.946
65.832
69.57
73.142
76.527
79.707
82.663
85.38
87.844
90.045
91.97
93.615
94.972
96.04
96.818
97.304
97.5
97.405
97.021
96.351
95.399
94.171
92.673
90.915
88.906
86.658
84.184
81.499
78.617
75.555
72.329
68.957
65.458
61.85
58.154
54.389
50.575
46.732
42.88
39.038
35.225
31.459
27.758
24.137
20.614
17.202
13.915
10.767
7.769
4.934
2.27
-0.212
-2.506
-4.603
-6.499
-8.188
-9.669
-10.938
-11.996
-12.843
-13.481
-13.914
-14.145
-14.181
-14.029
-13.697
-13.192
-12.527
-11.712
-10.758
-9.677
-8.483
-7.188
-5.806
-4.35
-2.834
-1.27
0.327
1.946
3.572
5.193
6.798
8.374
9.911
11.398
12.825
14.181
15.459
16.651
17.748
18.745
19.636
20.416
21.08
21.628
22.056
22.364
22.553
22.624
22.579
22.423
22.16
21.794
21.332
20.781
20.147
19.44
18.667
17.836
16.957
16.04
15.092
14.125
13.148
12.17
11.199
10.247
9.321
8.43
7.584
6.791
6.059
5.396
4.81
4.306
3.892
3.572
3.352
3.234
3.223
3.319
3.525
3.84
4.263
4.792
5.425
6.158
6.987
7.905
8.908
9.987
11.136
12.346
13.607
14.91
16.244
17.598
18.963
20.326
21.676
23.003
24.297
25.547
26.745
27.879
28.94
29.917
30.801
31.583
32.256
32.81
33.241
33.548
33.729
33.784
33.712
33.507
33.166
32.689
32.079
31.336
30.467
29.477
28.385
27.217
26.001
24.762
23.525
22.303
21.115
19.987
18.944
18.022
17.255
16.658
16.25
16.056
16.088
16.339
16.773
17.32
17.907
18.485
19.021
19.48
19.807
19.928
19.768
19.247
18.318
16.927
14.954
12.368
9.253
5.814
2.474
-0.321
-2.275
-3.008
-2.029
0.77
5.248
10.951
16.772
21.804
25.537
27.102
25.661
21.258
14.466
6.74
0.813
-1.084
2.968
15.834
40.249
78.104
128.858
188.696
252.951
316.818
380.351
447.811
517.342
585.542
641.619
663.357
639.911
565.221
439.349
285.573
125.947
-16.792
-115.311
-164.898
-171.046
-146.294
-114.964
-89.279
-71.943
-61.486
-49.803
-34.731
-19.126
-5.739
1.792
3.004
0.149
-4.847
-9.847
-13.195
-14.41
-13.34
-10.18
-5.579
-0.189
5.433
10.677
15.016
18.223
20.247
21.188
21.289
20.754
19.739
18.416
16.938
15.421
13.972
12.676
11.591
10.772
10.256
10.063
10.2
10.658
11.413
12.429
13.666
15.083
16.647
18.327
20.098
21.925
23.768
25.59
27.353
29.031
30.612
32.086
33.453
34.719
35.896
37.006
38.073
39.115
40.151
41.196
42.264
43.373
44.54
45.783
47.117
48.557
50.116
51.806
53.635
55.611
57.74
60.022
62.458
65.049
67.794
70.691
73.737
76.927
80.255
83.712
87.291
90.979
94.764
98.631
102.564
106.546
110.558
114.581
118.594
122.576
126.504
130.355
134.107
137.734
141.213
144.521
147.632
150.524
153.173
155.557
157.656
159.449
160.918
162.047
162.82
163.225
163.25
162.888
162.13
160.974
159.415
157.454
155.093
152.335
149.187
145.658
141.758
137.5
132.899
127.969
122.73
117.202
111.404
105.359
99.091
92.625
85.985
79.199
72.294
65.296
58.235
51.138
44.032
36.945
29.903
22.931
16.055
9.297
2.681
-3.773
-10.045
-16.118
-21.973
-27.597
-32.976
-38.098
-42.953
-47.533
-51.832
-55.845
-59.568
-63.001
-66.143
-68.996
-71.562
-73.846
-75.853
-77.591
-79.067
-80.293
-81.279
-82.037
-82.581
-82.924
-83.082
-83.068
-82.898
-82.587
-82.15
-81.602
-80.958
-80.234
-79.445
-78.604
-77.725
-76.824
-75.913
-75.004
-74.109
-73.239
-72.403
-71.613
-70.876
-70.202
-69.597
-69.069
-68.624
-68.269
-68.007
-67.843
-67.777
-67.812
-67.948
-68.182
-68.513
-68.937
-69.451
-70.049
-70.729
-71.484
-72.309
-73.2
-74.151
-75.156
-76.209
-77.302
-78.426
-79.572
-80.728
-81.884
-83.029
-84.151
-85.241
-86.287
-87.281
-88.216
-89.083
-89.871
-90.57
-91.165
-91.644
-92.003
-92.235
-92.338
-92.317
-92.177
-91.935
-91.61
-91.212
-90.747
-90.215
-89.606
-88.914
-88.133
-87.255
-86.281
-85.214
-84.049
-82.791
-81.442
-79.99
-78.418
-76.689
-74.761
-72.612
-70.238
-67.645
-64.865
-61.933
-58.894
-55.812
-52.735
-49.705
-46.762
-43.926
-41.219
-38.682
-36.365
-34.339
-32.686
-31.459
-30.691
-30.405
-30.583
-31.196
-32.182
-33.442
-34.888
-36.449
-38.063
-39.695
-41.305
-42.838
-44.23
-45.403
-46.275
-46.784
-46.881
-46.521
-45.707
-44.472
-42.899
-41.121
-39.249
-37.364
-35.543
-33.85
-32.357
-31.146
-30.299
-29.866
-29.922
-30.59
-31.894
-33.763
-36.001
-38.199
-39.926
-40.836
-40.479
-38.33
-34.249
-28.361
-21.121
-13.617
-6.739
-1.063
2.439
2.903
0.361
-4.627
-10.582
-14.776
-15.025
-9.355
5.324
31.719
71.293
123.303
184.052
249.017
315.016
382.566
452.412
520.066
577.642
612.044
609.811
567.955
488.622
378.104
250.004
116.061
-9.466
-107.316
-167.393
-187.475
-174.56
-146.479
-115.855
-88.508
-65.213
-40.906
-14.278
12.328
36
52.492
60.255
60.685
55.922
49.118
42.794
37.943
35.116
34.685
36.861
41.548
48.023
54.928
61.043
65.788
68.994
70.694
70.912
69.679
67.261
64.191
60.97
57.903
55.147
52.713
50.62
48.947
47.726
46.948
46.616
46.713
47.218
48.132
49.419
51.006
52.829
54.817
56.892
58.999
61.083
63.108
65.062
66.94
68.729
70.419
71.987
73.423
74.736
75.94
77.053
78.104
79.118
80.122
81.152
82.235
83.391
84.636
85.975
87.412
88.954
90.609
92.385
94.292
96.331
98.507
100.822
103.274
105.861
108.578
111.418
114.374
117.441
120.611
123.879
127.241
130.689
134.216
137.812
141.465
145.16
148.882
152.612
156.332
160.021
163.66
167.225
170.698
174.061
177.295
180.381
183.296
186.014
188.514
190.781
192.801
194.564
196.059
197.28
198.233
198.931
199.388
199.612
199.603
199.35
198.851
198.103
197.107
195.864
194.362
192.587
190.529
188.189
185.566
182.652
179.422
175.835
171.863
167.502
162.769
157.698
152.32
146.672
140.802
134.774
128.676
122.592
116.587
110.708
105.003
99.528
94.361
89.595
85.295
81.492
78.199
75.415
73.136
71.354
70.027
69.09
68.455
68.042
67.802
67.712
67.75
67.89
68.102
68.339
68.588
68.857
69.154
69.485
69.851
70.251
70.709
71.266
71.968
72.85
73.914
75.127
76.438
77.777
79.058
80.199
81.099
81.64
81.727
81.262
80.169
78.391
75.863
72.523
68.31
63.166
57.062
50.012
42.062
33.304
23.862
13.856
3.426
-7.276
-18.101
-28.896
-39.526
-49.896
-59.912
-69.485
-78.523
-86.915
-94.574
-101.453
-107.533
-112.841
-117.428
-121.339
-124.637
-127.411
-129.753
-131.774
-133.558
-135.153
-136.601
-137.941
-139.225
-140.526
-141.901
-143.378
-144.97
-146.674
-148.475
-150.367
-152.324
-154.301
-156.244
-158.091
-159.799
-161.353
-162.745
-163.964
-164.998
-165.824
-166.433
-166.831
-167.024
-167.024
-166.841
-166.485
-165.978
-165.356
-164.657
-163.922
-163.184
-162.467
-161.788
-161.167
-160.618
-160.157
-159.796
-159.538
-159.392
-159.368
-159.474
-159.722
-160.117
-160.659
-161.344
-162.166
-163.118
-164.196
-165.396
-166.722
-168.175
-169.754
-171.462
-173.299
-175.258
-177.329
-179.49
-181.708
-183.953
-186.197
-188.415
-190.591
-192.7
-194.718
-196.617
-198.358
-199.913
-201.256
-202.354
-203.177
-203.72
-204.003
-204.069
-203.99
-203.816
-203.574
-203.31
-203.073
-202.923
-202.934
-203.174
-203.675
-204.516
-205.832
-207.667
-209.974
-212.525
-214.855
-216.535
-217.251
-216.614
-214.21
-209.925
-203.898
-196.818
-190.013
-184.577
-181.258
-180.856
-183.903
-190.243
-199.151
-208.651
-215.592
-217.297
-211.331
-194.929
-165.911
-123.039
-67.251
-2.942
64.391
131.161
197.449
264.575
330.553
387.011
418.913
413.891
366.762
281.801
173.142
53.236
-64.624
-168.171
-251.513
-307.293
-336.998
-347.942
-342.795
-326.387
-296.948
-253.269
-204.748
-160.703
-133.322
-127.919
-136.874
-152.52
-165.739
-172.368
-176.543
-180.575
-186.246
-193.769
-199.75
-202.505
-202.213
-199.548
-196.335
-193.838
-192.184
-191.413
-191.564
-192.679
-194.786
-197.667
-200.834
-203.869
-206.574
-208.857
-210.707
-212.095
-212.949
-213.256
-213.063
-212.417
-211.36
-209.921
-208.093
-205.883
-203.317
-200.425
-197.251
-193.839
-190.23
-186.463
-182.57
-178.572
-174.49
-170.34
-166.134
-161.883
-157.588
-153.245
-148.855
-144.423
-139.952
-135.444
-130.896
-126.301
-121.657
-116.961
-112.216
-107.421
-102.58
-97.691
-92.759
-87.788
-82.782
-77.748
-72.689
-67.608
-62.507
-57.392
-52.264
-47.13
-41.993
-36.857
-31.726
-26.608
-21.507
-16.43
-11.385
-6.377
-1.414
3.496
8.347
13.128
17.833
22.453
26.979
31.401
35.711
39.9
43.958
47.876
51.647
55.262
58.714
61.994
65.096
68.013
70.74
73.27
75.6
77.724
79.639
81.343
82.834
84.111
85.173
86.022
86.659
87.086
87.308
87.329
87.153
86.787
86.237
85.51
84.614
83.558
82.351
81.001
79.52
77.916
76.199
74.38
72.47
70.478
68.415
66.29
64.115
61.898
59.651
57.381
55.099
52.813
50.533
48.265
46.018
43.799
41.614
39.47
37.373
35.327
33.337
31.407
29.54
27.739
26.007
24.344
22.753
21.233
19.786
18.411
17.109
15.879
14.721
13.634
12.616
11.667
10.785
9.969
9.216
8.525
7.893
7.319
6.8
6.333
5.916
5.547
5.221
4.937
4.691
4.479
4.299
4.147
4.02
3.916
3.83
3.76
3.703
3.656
3.617
3.582
3.549
3.514
3.476
3.431
3.376
3.309
3.227
3.129
3.012
2.875
2.715
2.533
2.325
2.092
1.833
1.548
1.238
0.904
0.546
0.167
-0.231
-0.645
-1.072
-1.507
-1.949
-2.392
-2.831
-3.264
-3.684
-4.087
-4.467
-4.82
-5.14
-5.422
-5.659
-5.847
-5.982
-6.058
-6.073
-6.021
-5.9
-5.708
-5.443
-5.103
-4.687
-4.194
-3.627
-2.986
-2.276
-1.5
-0.663
0.229
1.169
2.149
3.163
4.204
5.263
6.335
7.41
8.478
9.532
10.56
11.552
12.499
13.39
14.215
14.971
15.653
16.256
16.776
17.203
17.529
17.751
17.862
17.857
17.734
17.493
17.144
16.709
16.208
15.661
15.084
14.485
13.879
13.288
12.732
12.24
11.838
11.54
11.37
11.356
11.517
11.849
12.315
12.851
13.397
13.916
14.393
14.807
15.111
15.244
15.144
14.744
14.021
12.912
11.275
9.066
6.361
3.398
0.671
-1.328
-2.279
-1.771
0.651
5.055
11.254
18.567
25.616
31.232
34.584
34.695
30.876
23.335
12.97
1.775
-7.133
-10.785
-6.343
9.329
39.162
83.361
139.226
203.363
270.906
341.07
417.548
498.041
576.256
639.795
669.314
655.129
596.228
497.457
373.758
239.364
108.563
-0.701
-76.514
-114.335
-118.419
-103.43
-83.053
-63.953
-46.542
-25.519
2.155
34.303
66.477
93.156
111.216
120.274
121.052
115.024
103.869
89.351
73.368
57.806
44.053
33.1
25.52
21.368
20.269
21.501
24.134
27.097
29.658
31.35
31.872
31.227
29.548
27.051
24.12
21.214
18.604
16.427
14.74
13.474
12.589
12.073
11.856
11.856
12.029
12.35
12.822
13.469
14.283
15.232
16.278
17.383
18.527
19.702
20.902
22.121
23.356
24.603
25.87
27.16
28.476
29.815
31.175
32.556
33.963
35.408
36.903
38.46
40.088
41.793
43.581
45.457
47.423
49.484
51.638
53.886
56.23
58.671
61.21
63.848
66.583
69.411
72.33
75.335
78.42
81.578
84.801
88.083
91.413
94.783
98.181
101.598
105.02
108.435
111.83
115.192
118.505
121.756
124.929
128.01
130.984
133.836
136.551
139.117
141.517
143.741
145.776
147.611
149.236
150.644
151.825
152.774
153.487
153.959
154.189
154.174
153.916
153.417
152.678
151.705
150.503
149.078
147.44
145.597
143.56
141.339
138.948
136.398
133.702
130.876
127.934
124.891
121.762
118.563
115.31
112.019
108.705
105.384
102.071
98.779
95.523
92.316
89.17
86.096
83.105
80.207
77.41
74.723
72.153
69.706
67.387
65.2
63.148
61.232
59.455
57.817
56.316
54.951
53.721
52.621
51.65
50.801
50.072
49.457
48.949
48.543
48.232
48.01
47.869
47.802
47.802
47.862
47.975
48.134
48.332
48.563
48.819
49.094
49.383
49.679
49.976
50.27
50.555
50.827
51.082
51.315
51.524
51.704
51.854
51.97
52.052
52.095
52.1
52.065
51.989
51.871
51.712
51.51
51.267
50.983
50.659
50.295
49.894
49.456
48.983
48.478
47.943
47.38
46.792
46.182
45.552
44.907
44.25
43.583
42.912
42.239
41.569
40.905
40.253
39.614
38.995
38.398
37.828
37.287
36.781
36.311
35.882
35.495
35.153
34.858
34.612
34.416
34.27
34.174
34.128
34.131
34.18
34.273
34.405
34.572
34.769
34.99
35.228
35.476
35.727
35.975
36.211
36.43
36.624
36.785
36.907
36.98
36.997
36.948
36.825
36.62
36.328
35.946
35.474
34.909
34.25
33.491
32.625
31.651
30.563
29.357
28.033
26.593
25.051
23.43
21.754
20.045
18.324
16.602
14.894
13.218
11.592
10.042
8.592
7.261
6.073
5.057
4.231
3.596
3.112
2.714
2.337
1.926
1.454
0.889
0.173
-0.752
-1.95
-3.494
-5.409
-7.772
-10.751
-14.396
-18.629
-23.219
-27.65
-31.411
-34.168
-35.449
-34.719
-31.883
-27.161
-21.31
-15.853
-12.072
-10.839
-13.208
-19.974
-30.928
-45.063
-60.189
-72.872
-79.823
-78.03
-64.166
-35.066
9.309
65.85
131.102
200.342
273.541
355.777
444.559
531.621
601.767
632.42
613.29
546.142
439.771
312.466
178.493
48.993
-62.019
-145.261
-194.993
-212.359
-209.513
-198.237
-186.226
-176.287
-164.152
-147.807
-129.436
-111.917
-99.391
-93.613
-93.274
-96.694
-102.036
-107.387
-111.324
-113.066
-112.286
-109.248
-104.675
-99.224
-93.446
-87.981
-83.404
-80.005
-77.894
-76.968
-76.966
-77.692
-78.991
-80.688
-82.628
-84.678
-86.711
-88.627
-90.349
-91.804
-92.942
-93.73
-94.153
-94.212
-93.922
-93.314
-92.431
-91.31
-89.99
-88.502
-86.872
-85.142
-83.356
-81.56
-79.803
-78.116
-76.519
-75.024
-73.636
-72.351
-71.16
-70.044
-68.978
-67.944
-66.926
-65.91
-64.885
-63.834
-62.742
-61.592
-60.371
-59.066
-57.668
-56.169
-54.561
-52.843
-51.013
-49.072
-47.026
-44.876
-42.623
-40.27
-37.819
-35.273
-32.636
-29.913
-27.108
-24.23
-21.29
-18.301
-15.277
-12.233
-9.182
-6.141
-3.124
-0.149
2.768
5.614
8.373
11.025
13.552
15.929
18.135
20.156
21.98
23.602
25.021
26.235
27.244
28.055
28.669
29.083
29.286
29.258
28.977
28.432
27.621
26.551
25.229
23.651
21.81
19.699
17.302
14.604
11.591
8.229
4.503
0.422
-3.99
-8.677
-13.574
-18.633
-23.815
-29.09
-34.434
-39.807
-45.168
-50.484
-55.709
-60.796
-65.688
-70.308
-74.593
-78.52
-82.084
-85.318
-88.277
-90.99
-93.483
-95.78
-97.892
-99.84
-101.645
-103.313
-104.858
-106.303
-107.683
-109.055
-110.465
-111.934
-113.462
-115.03
-116.599
-118.148
-119.659
-121.115
-122.506
-123.828
-125.077
-126.268
-127.414
-128.519
-129.582
-130.59
-131.528
-132.401
-133.217
-133.994
-134.759
-135.529
-136.324
-137.165
-138.068
-139.044
-140.102
-141.24
-142.457
-143.752
-145.128
-146.59
-148.143
-149.789
-151.528
-153.358
-155.276
-157.278
-159.362
-161.518
-163.74
-166.023
-168.361
-170.747
-173.179
-175.648
-178.147
-180.669
-183.206
-185.749
-188.29
-190.82
-193.33
-195.813
-198.262
-200.668
-203.02
-205.308
-207.522
-209.651
-211.683
-213.608
-215.414
-217.092
-218.634
-220.036
-221.293
-222.396
-223.337
-224.106
-224.696
-225.106
-225.335
-225.384
-225.26
-224.974
-224.545
-224.003
-223.369
-222.657
-221.875
-221.023
-220.099
-219.108
-218.05
-216.925
-215.733
-214.468
-213.127
-211.718
-210.229
-208.646
-206.935
-205.044
-202.942
-200.623
-198.088
-195.362
-192.473
-189.451
-186.342
-183.207
-180.097
-177.067
-174.163
-171.412
-168.86
-166.564
-164.594
-163.038
-161.955
-161.363
-161.263
-161.636
-162.442
-163.637
-165.152
-166.884
-168.747
-170.66
-172.545
-174.352
-176.016
-177.461
-178.615
-179.421
-179.843
-179.893
-179.605
-179.002
-178.145
-177.114
-176.013
-174.985
-174.155
-173.606
-173.447
-173.823
-174.804
-176.383
-178.43
-180.584
-182.482
-183.839
-184.293
-183.427
-181.028
-177.121
-172.099
-166.981
-162.819
-160.373
-160.431
-163.655
-170.189
-179.63
-190.717
-200.848
-207.166
-207.26
-198.413
-178.128
-144.664
-96.766
-36.18
31.805
102.21
169.844
232.959
294.337
351.441
399.935
430.898
427.405
382.398
292.85
160.898
7.246
-149.286
-287.672
-383.664
-434.753
-443.877
-419.303
-380.57
-333.614
-283.808
-239.933
-202.32
-178.208
-170.616
-172.607
-180.805
-188.221
-190.524
-191.125
-191.127
-191.78
-193.584
-193.405
-189.63
-182.458
-172.607
-162.008
-152.113
-143.186
-135.292
-128.475
-122.757
-118.143
-114.407
-111.027
-107.544
-103.751
-99.555
-94.929
-89.839
-84.213
-78.062
-71.489
-64.601
-57.481
-50.198
-42.797
-35.359
-28.01
-20.858
-13.997
-7.496
-1.393
4.268
9.44
14.105
18.273
21.985
25.319
28.334
31.077
33.605
35.975
38.266
40.576
42.981
45.54
48.299
51.29
54.544
58.097
61.961
66.126
70.566
75.233
80.092
85.125
90.307
95.616
101.015
106.457
111.909
117.356
122.783
128.183
133.544
138.85
144.097
149.289
154.441
159.581
164.733
169.916
175.152
180.464
185.881
191.441
197.165
203.057
209.11
215.31
221.642
228.084
234.605
241.173
247.74
254.25
260.648
266.857
272.794
278.375
283.502
288.071
291.994
295.198
297.624
299.233
299.992
299.888
298.927
297.112
294.461
290.998
286.744
281.762
276.133
269.942
263.299
256.323
249.129
241.838
234.571
227.423
220.482
213.815
207.465
201.487
195.932
190.855
186.318
182.345
178.934
176.085
173.777
171.971
170.625
169.672
169.022
168.616
168.406
168.353
168.441
168.637
168.902
169.193
169.457
169.662
169.787
169.81
169.711
169.488
169.143
168.702
168.211
167.694
167.161
166.613
166.04
165.436
164.803
164.138
163.439
162.7
161.914
161.076
160.185
159.23
158.195
157.054
155.774
154.33
152.708
150.898
148.898
146.705
144.318
141.742
138.987
136.062
132.977
129.742
126.363
122.855
119.233
115.516
111.727
107.886
104.011
100.122
96.238
92.377
88.554
84.784
81.079
77.453
73.918
70.487
67.173
63.987
60.941
58.043
55.302
52.725
50.319
48.086
46.03
44.152
42.452
40.928
39.58
38.401
37.388
36.534
35.83
35.266
34.832
34.514
34.301
34.176
34.127
34.136
34.19
34.272
34.366
34.459
34.535
34.58
34.579
34.519
34.385
34.162
33.837
33.398
32.832
32.128
31.276
30.267
29.097
27.762
26.261
24.592
22.756
20.753
18.583
16.252
13.765
11.131
8.361
5.466
2.462
-0.63
-3.792
-7.005
-10.254
-13.537
-16.846
-20.172
-23.504
-26.825
-30.114
-33.355
-36.522
-39.578
-42.492
-45.224
-47.745
-50.04
-52.087
-53.865
-55.349
-56.485
-57.233
-57.567
-57.471
-56.947
-56.013
-54.675
-52.962
-50.926
-48.626
-46.155
-43.593
-41.005
-38.47
-36.022
-33.757
-31.859
-30.383
-29.279
-28.375
-27.255
-25.556
-23.078
-19.448
-14.262
-7.509
0.685
9.64
17.956
24.48
28.215
28.054
23.498
14.91
3.011
-10.295
-21.723
-28.066
-25.785
-10.879
18.079
59.299
110.696
168.599
231.37
303.805
387.173
476.94
562.889
622.252
633.556
587.258
481.944
333.338
168.052
9.072
-119.401
-201.632
-237.718
-233.237
-203.231
-166.086
-130.01
-98.945
-71.61
-42.451
-12.148
16.156
39.417
53.07
56.194
51.036
39.771
25.445
11.136
-1.79
-12.382
-19.531
-23.03
-23.211
-20.533
-16.17
-11.575
-7.443
-4.171
-2.146
-1.33
-1.638
-2.986
-4.926
-6.903
-8.616
-9.891
-10.656
-10.988
-10.908
-10.397
-9.519
-8.353
-6.962
-5.395
-3.663
-1.746
0.351
2.601
4.966
7.399
9.864
12.337
14.807
17.263
19.696
22.096
24.457
26.78
29.069
31.327
33.552
35.742
37.896
40.017
42.117
44.206
46.293
48.382
50.479
52.584
54.702
56.836
58.987
61.153
63.336
65.534
67.75
69.983
72.236
74.506
76.791
79.089
81.398
83.713
86.03
88.344
90.651
92.943
95.217
97.464
99.68
101.855
103.984
106.058
108.068
110.007
111.866
113.635
115.306
116.87
118.317
119.641
120.831
121.881
122.783
123.53
124.117
124.539
124.791
124.87
124.773
124.499
124.049
123.421
122.62
121.647
120.506
119.204
117.746
116.138
114.389
112.507
110.5
108.379
106.155
103.837
101.437
98.967
96.44
93.867
91.262
88.637
86.005
83.379
80.77
78.192
75.657
73.174
70.756
68.411
66.151
63.984
61.917
59.959
58.114
56.387
54.784
53.307
51.959
50.74
49.652
48.697
47.874
47.184
46.626
46.198
45.898
45.724
45.672
45.737
45.913
46.197
46.584
47.069
47.65
48.323
49.084
49.93
50.86
51.873
52.967
54.137
55.38
56.694
58.081
59.547
61.095
62.721
64.421
66.191
68.024
69.911
71.833
73.764
75.678
77.552
79.37
81.122
82.794
84.369
85.826
87.151
88.341
89.407
90.36
91.218
92.003
92.755
93.539
94.434
95.511
96.826
98.42
100.327
102.589
105.239
108.297
111.759
115.586
119.723
124.111
128.67
133.296
137.853
142.158
146.016
149.257
151.721
153.266
153.759
153.056
151.046
147.658
142.864
136.676
129.132
120.281
110.212
99.063
87.014
74.294
61.145
47.781
34.424
21.299
8.618
-3.406
-14.594
-24.83
-34.025
-42.124
-49.095
-54.922
-59.632
-63.303
-66.041
-67.983
-69.279
-70.064
-70.495
-70.749
-70.981
-71.346
-71.966
-72.917
-74.267
-76.065
-78.34
-81.108
-84.362
-88.068
-92.192
-96.686
-101.493
-106.555
-111.797
-117.12
-122.445
-127.694
-132.791
-137.689
-142.341
-146.706
-150.767
-154.508
-157.909
-160.957
-163.628
-165.901
-167.775
-169.249
-170.333
-171.076
-171.524
-171.74
-171.807
-171.777
-171.706
-171.677
-171.75
-171.999
-172.522
-173.37
-174.639
-176.494
-178.955
-181.965
-185.377
-188.799
-191.89
-194.459
-196.131
-196.462
-195.368
-192.917
-189.547
-186.343
-184.06
-183.024
-183.84
-187.047
-192.512
-199.756
-207.41
-212.785
-213.69
-208.64
-195.473
-172.023
-137.071
-89.846
-32.554
29.146
90.974
150.271
207.305
264.536
319.341
364.1
386.742
374.7
324.908
240.755
131.324
12.2
-105.256
-208.518
-283.351
-326.827
-338.458
-323.504
-296.044
-261.053
-224.328
-193.562
-170.008
-160.832
-167.189
-180.94
-196.967
-207.203
-208.73
-206.775
-203.772
-201.979
-202.132
-201.499
-199.316
-196.222
-192.648
-189.629
-187.775
-186.913
-186.971
-187.923
-189.552
-191.66
-194.107
-196.732
-199.385
-202
-204.479
-206.682
-208.55
-210.038
-211.098
-211.717
-211.883
-211.585
-210.839
-209.688
-208.162
-206.294
-204.119
-201.661
-198.953
-196.038
-192.96
-189.766
-186.491
-183.158
-179.787
-176.389
-172.972
-169.542
-166.094
-162.615
-159.099
-155.54
-151.937
-148.29
-144.599
-140.859
-137.065
-133.215
-129.309
-125.347
-121.331
-117.262
-113.142
-108.977
-104.773
-100.538
-96.278
-91.999
-87.707
-83.408
-79.109
-74.816
-70.538
-66.28
-62.052
-57.863
-53.722
-49.641
-45.63
-41.7
-37.862
-34.129
-30.511
-27.021
-23.67
-20.469
-17.429
-14.56
-11.874
-9.38
-7.089
-5.009
-3.15
-1.521
-0.131
1.014
1.906
2.54
2.911
3.013
2.845
2.403
1.687
0.696
-0.569
-2.105
-3.909
-5.976
-8.298
-10.866
-13.671
-16.698
-19.934
-23.364
-26.972
-30.741
-34.655
-38.694
-42.843
-47.081
-51.392
-55.755
-60.149
-64.553
-68.943
-73.295
-77.586
-81.791
-85.884
-89.841
-93.637
-97.25
-100.659
-103.84
-106.77
-109.423
-111.777
-113.815
-115.524
-116.893
-117.917
-118.591
-118.918
-118.913
-118.588
-117.954
-117.025
-115.799
-114.277
-112.461
-110.356
-107.968
-105.299
-102.334
-99.058
-95.461
-91.53
-87.256
-82.621
-77.585
-72.119
-66.209
-59.846
-53.053
-45.861
-38.299
-30.405
-22.234
-13.85
-5.347
3.173
11.625
19.926
27.993
35.739
43.048
49.818
55.973
61.449
66.215
70.254
73.547
76.095
77.926
79.086
79.648
79.705
79.323
78.566
77.497
76.182
74.712
73.167
71.603
70.067
68.59
67.197
65.915
64.761
63.728
62.794
61.926
61.078
60.225
59.353
58.445
57.49
56.468
55.366
54.184
52.934
51.626
50.27
48.876
47.454
46.028
44.628
43.283
42.029
40.889
39.881
39.019
38.316
37.778
37.412
37.213
37.173
37.282
37.535
37.922
38.436
39.062
39.785
40.589
41.455
42.371
43.319
44.284
45.25
46.201
47.122
48.001
48.823
49.573
50.235
50.792
51.229
51.536
51.699
51.707
51.546
51.201
50.662
49.922
48.976
47.821
46.46
44.895
43.141
41.223
39.17
37.011
34.771
32.471
30.132
27.782
25.449
23.168
20.964
18.857
16.867
15.013
13.301
11.735
10.291
8.913
7.533
6.085
4.507
2.763
0.825
-1.348
-3.813
-6.618
-9.811
-13.425
-17.464
-21.961
-26.991
-32.513
-38.36
-44.226
-49.628
-54.124
-57.423
-59.146
-58.811
-56.268
-51.622
-45.326
-38.411
-31.707
-25.651
-20.96
-18.369
-17.883
-19.019
-20.48
-19.88
-15.293
-5.067
13.182
41.766
82.279
134.017
193.367
256.263
318.662
380.682
446.33
514.166
580.724
635.884
659.722
640.941
573.658
460.631
323.305
183.647
63.321
-20.083
-65.988
-82.031
-82.09
-80.069
-80.937
-83.691
-82.795
-74.651
-60.878
-45.495
-33.395
-26.913
-25.5
-27.791
-32.2
-37.44
-42.457
-46.066
-47.472
-46.538
-43.538
-39.039
-33.615
-27.736
-21.93
-16.73
-12.458
-9.224
-6.981
-5.566
-4.827
-4.653
-4.923
-5.529
-6.415
-7.548
-8.895
-10.412
-12.027
-13.671
-15.287
-16.823
-18.221
-19.415
-20.359
-21.032
-21.438
-21.597
-21.51
-21.167
-20.548
-19.631
-18.415
-16.915
-15.153
-13.141
-10.896
-8.441
-5.814
-3.07
-0.247
2.643
5.597
8.622
11.717
14.871
18.076
21.327
24.619
27.956
31.337
34.756
38.218
41.731
45.312
48.989
52.776
56.681
60.703
64.838
69.082
73.433
77.882
82.415
87.022
91.69
96.41
101.173
105.966
110.773
115.575
120.351
125.08
129.744
134.324
138.802
143.159
147.379
151.445
155.345
159.063
162.586
165.897
168.983
171.831
174.428
176.763
178.827
180.611
182.108
183.313
184.224
184.838
185.155
185.174
184.899
184.333
183.48
182.346
180.94
179.268
177.342
175.173
172.772
170.153
167.329
164.315
161.126
157.779
154.289
150.674
146.95
143.134
139.243
135.295
131.305
127.29
123.266
119.248
115.25
111.287
107.37
103.513
99.725
96.017
92.399
88.877
85.46
82.153
78.961
75.89
72.942
70.121
67.428
64.864
62.43
60.125
57.949
55.898
53.971
52.165
50.475
48.898
47.428
46.061
44.792
43.615
42.525
41.516
40.583
39.72
38.923
38.186
37.506
36.878
36.298
35.763
35.271
34.819
34.405
34.028
33.687
33.38
33.107
32.867
32.661
32.488
32.348
32.242
32.171
32.135
32.136
32.174
32.251
32.367
32.525
32.726
32.97
33.26
33.596
33.98
34.411
34.892
35.42
35.997
36.619
37.285
37.993
38.74
39.522
40.336
41.176
42.038
42.916
43.805
44.698
45.589
46.468
47.329
48.164
48.969
49.735
50.455
51.119
51.719
52.248
52.697
53.059
53.325
53.485
53.529
53.454
53.256
52.934
52.484
51.9
51.173
50.299
49.276
48.108
46.796
45.338
43.731
41.973
40.067
38.021
35.836
33.502
31.005
28.324
25.451
22.388
19.145
15.735
12.154
8.382
4.403
0.205
-4.198
-8.763
-13.472
-18.334
-23.34
-28.498
-33.731
-38.853
-43.856
-48.884
-54.086
-59.686
-65.673
-71.688
-77.612
-83.613
-89.516
-94.966
-99.418
-101.9
-102.227
-101.196
-99.312
-96.859
-94.455
-92.604
-92.272
-95.333
-102.378
-112.599
-125.356
-139.7
-154.47
-169.023
-182.024
-191.008
-194.845
-193.582
-187.225
-176.749
-163.403
-147.919
-131.926
-118.059
-107.922
-102.48
-102.747
-108.569
-119.287
-134.365
-152.215
-170.347
-186.977
-200.728
-210.12
-214.532
-213.964
-208.45
-198.972
-187.512
-175.504
-163.781
-153.141
-143.643
-134.553
-125.257
-114.569
-99.98
-79.142
-50.372
-11.982
35.09
86.68
139.291
189.433
238.04
291.84
353.601
421.359
480.757
506.462
479.623
389.673
247.273
83.441
-70.061
-182.4
-240.939
-254.172
-238.074
-215.543
-199.819
-192.175
-189.586
-183.891
-172.771
-159.16
-145.92
-137.3
-134.578
-136.053
-140.269
-145.311
-149.179
-151.157
-151.013
-148.673
-144.695
-139.711
-134.164
-128.647
-123.82
-119.998
-117.322
-115.829
-115.309
-115.575
-116.504
-117.903
-119.594
-121.465
-123.406
-125.326
-127.158
-128.815
-130.238
-131.419
-132.37
-133.098
-133.594
-133.825
-133.774
-133.455
-132.887
-132.094
-131.086
-129.864
-128.449
-126.872
-125.175
-123.393
-121.532
-119.568
-117.472
-115.228
-112.842
-110.34
-107.735
-105.026
-102.21
-99.289
-96.274
-93.179
-90.004
-86.738
-83.368
-79.891
-76.315
-72.662
-68.952
-65.198
-61.402
-57.559
-53.67
-49.74
-45.777
-41.783
-37.76
-33.712
-29.648
-25.589
-21.552
-17.553
-13.602
-9.709
-5.886
-2.146
1.495
5.022
8.419
11.674
14.772
17.699
20.439
22.981
25.316
27.435
29.333
31.003
32.44
33.638
34.593
35.303
35.767
35.982
35.949
35.667
35.141
34.373
33.368
32.131
30.668
28.988
27.098
25.007
22.725
20.264
17.634
14.848
11.918
8.859
5.683
2.405
-0.963
-4.405
-7.909
-11.461
-15.048
-18.657
-22.276
-25.891
-29.493
-33.068
-36.608
-40.102
-43.539
-46.912
-50.212
-53.43
-56.56
-59.595
-62.53
-65.36
-68.08
-70.686
-73.177
-75.55
-77.802
-79.934
-81.943
-83.832
-85.601
-87.25
-88.782
-90.198
-91.501
-92.694
-93.78
-94.762
-95.645
-96.432
-97.127
-97.734
-98.259
-98.704
-99.075
-99.376
-99.612
-99.787
-99.906
-99.974
-99.993
-99.97
-99.907
-99.809
-99.68
-99.524
-99.343
-99.143
-98.927
-98.699
-98.463
-98.224
-97.985
-97.753
-97.531
-97.325
-97.14
-96.978
-96.844
-96.741
-96.673
-96.641
-96.647
-96.694
-96.785
-96.923
-97.114
-97.361
-97.67
-98.045
-98.492
-99.017
-99.624
-100.314
-101.09
-101.954
-102.911
-103.968
-105.129
-106.391
-107.751
-109.201
-110.732
-112.336
-113.993
-115.676
-117.362
-119.025
-120.654
-122.246
-123.799
-125.306
-126.762
-128.156
-129.491
-130.782
-132.038
-133.265
-134.47
-135.657
-136.856
-138.116
-139.472
-140.947
-142.543
-144.233
-145.998
-147.822
-149.67
-151.51
-153.282
-154.91
-156.343
-157.547
-158.48
-159.106
-159.35
-159.112
-158.313
-156.901
-154.845
-152.138
-148.764
-144.7
-139.961
-134.58
-128.615
-122.143
-115.199
-107.802
-99.987
-91.796
-83.31
-74.643
-65.883
-57.097
-48.356
-39.727
-31.3
-23.185
-15.444
-8.111
-1.207
5.257
11.227
16.643
21.482
25.741
29.452
32.664
35.408
37.702
39.594
41.149
42.461
43.648
44.789
45.932
47.121
48.404
49.847
51.507
53.384
55.418
57.532
59.654
61.739
63.778
65.725
67.487
68.959
70.016
70.559
70.567
69.968
68.609
66.466
63.644
60.446
57.494
55.381
54.505
55.365
58.458
63.862
71.403
80.36
89.258
96.823
102.098
104.012
101.911
96.093
87.576
78.565
72.394
72.263
81.298
102.774
139.54
191.611
255.977
328.78
404.683
482.344
564.757
649.131
728.908
791.578
817.949
798.687
733.475
628.221
499.016
360.665
227.11
115.424
36.579
-4.903
-12.628
-0.936
16.594
32.756
46.346
62.5
84.233
109.247
133.587
152.86
165.12
171.203
172.257
169.276
163.489
156.548
150.112
145.11
141.746
139.794
139.158
140.124
142.641
146.008
149.299
151.896
153.638
154.685
155.184
155.03
154.172
152.846
151.473
150.437
149.943
150.004
150.542
151.573
153.133
155.204
157.718
160.557
163.598
166.76
169.975
173.157
176.227
179.093
181.668
183.906
185.769
187.248
188.355
189.066
189.366
189.265
188.764
187.89
186.698
185.226
183.537
181.726
179.862
178.021
176.271
174.633
173.13
171.783
170.607
169.659
168.997
168.644
168.632
168.984
169.698
170.793
172.252
174
175.979
178.129
180.385
182.727
185.123
187.518
189.853
192.034
193.955
195.54
196.703
197.351
197.401
196.761
195.375
193.252
190.401
186.827
182.548
177.556
171.852
165.474
158.466
150.879
142.799
134.304
125.481
116.451
107.338
98.261
89.314
80.544
71.982
63.671
55.646
47.945
40.608
33.647
27.077
20.924
15.183
9.834
4.848
0.151
-4.341
-8.697
-12.971
-17.197
-21.391
-25.574
-29.768
-33.984
-38.237
-42.536
-46.896
-51.353
-55.928
-60.619
-65.417
-70.286
-75.173
-80.046
-84.878
-89.643
-94.331
-98.934
-103.44
-107.854
-112.179
-116.413
-120.549
-124.567
-128.447
-132.185
-135.78
-139.24
-142.582
-145.815
-148.946
-151.983
-154.929
-157.784
-160.548
-163.21
-165.76
-168.191
-170.499
-172.683
-174.747
-176.687
-178.502
-180.188
-181.742
-183.16
-184.439
-185.577
-186.569
-187.415
-188.118
-188.68
-189.107
-189.403
-189.575
-189.627
-189.565
-189.395
-189.125
-188.761
-188.309
-187.777
-187.173
-186.507
-185.787
-185.022
-184.221
-183.392
-182.546
-181.689
-180.831
-179.977
-179.136
-178.313
-177.513
-176.743
-176.006
-175.306
-174.646
-174.027
-173.452
-172.921
-172.434
-171.99
-171.588
-171.224
-170.896
-170.599
-170.33
-170.082
-169.85
-169.628
-169.408
-169.184
-168.947
-168.691
-168.408
-168.089
-167.725
-167.309
-166.833
-166.288
-165.666
-164.961
-164.166
-163.273
-162.278
-161.177
-159.964
-158.638
-157.195
-155.634
-153.956
-152.159
-150.246
-148.219
-146.08
-143.834
-141.486
-139.043
-136.512
-133.901
-131.219
-128.477
-125.686
-122.86
-120.009
-117.148
-114.291
-111.452
-108.645
-105.883
-103.181
-100.551
-98.006
-95.561
-93.228
-91.02
-88.95
-87.03
-85.27
-83.681
-82.269
-81.038
-79.988
-79.123
-78.443
-77.955
-77.666
-77.575
-77.683
-77.991
-78.494
-79.185
-80.045
-81.044
-82.152
-83.342
-84.591
-85.883
-87.199
-88.512
-89.798
-91.02
-92.144
-93.145
-93.992
-94.654
-95.108
-95.355
-95.434
-95.411
-95.352
-95.307
-95.299
-95.357
-95.54
-95.911
-96.54
-97.509
-98.853
-100.644
-103.045
-106.079
-109.645
-113.515
-117.189
-120.17
-122.158
-122.716
-121.317
-117.922
-112.773
-106.455
-100.29
-95.324
-92.134
-91.669
-94.743
-101.076
-109.723
-118.955
-125.821
-127.655
-122.208
-106.435
-77.217
-34.099
20.656
84.211
152.297
223.394
300.974
384.448
467.941
541.989
589.317
594.607
553.067
464.888
339.989
197.357
54.634
-68.727
-157.516
-208.705
-226.972
-225.159
-216.083
-205.197
-192.643
-173.859
-147.045
-115.529
-83.93
-57.52
-38.947
-28.142
-24.739
-27.524
-34.507
-43.452
-52.165
-59.272
-64.388
-67.329
-67.723
-65.526
-61.202
-55.775
-50.531
-46.207
-42.958
-40.809
-39.834
-40.075
-41.476
-43.703
-46.18
-48.515
-50.532
-52.164
-53.422
-54.282
-54.683
-54.63
-54.197
-53.455
-52.456
-51.219
-49.727
-47.982
-46.007
-43.842
-41.536
-39.135
-36.671
-34.166
-31.631
-29.074
-26.501
-23.913
-21.304
-18.661
-15.967
-13.209
-10.385
-7.488
-4.513
-1.447
1.726
5.02
8.442
12.001
15.699
19.541
23.528
27.662
31.938
36.353
40.899
45.572
50.368
55.28
60.302
65.424
70.637
75.928
81.286
86.697
92.146
97.617
103.093
108.557
113.993
119.381
124.706
129.948
135.09
140.114
145
149.73
154.287
158.651
162.806
166.735
170.421
173.851
177.01
179.885
182.464
184.737
186.695
188.329
189.632
190.601
191.231
191.522
191.475
191.093
190.381
189.346
187.997
186.344
184.398
182.171
179.677
176.932
173.95
170.749
167.347
163.762
160.015
156.126
152.116
148.007
143.82
139.575
135.294
130.998
126.707
122.441
118.221
114.066
109.996
106.031
102.189
98.485
94.934
91.55
88.344
85.325
82.499
79.872
77.449
75.233
73.228
71.434
69.853
68.487
67.334
66.394
65.662
65.131
64.793
64.637
64.654
64.832
65.157
65.617
66.2
66.895
67.694
68.586
69.558
70.593
71.67
72.772
73.887
75.003
76.108
77.196
78.266
79.326
80.395
81.486
82.599
83.732
84.868
85.992
87.096
88.164
89.183
90.136
91.004
91.774
92.443
93.002
93.426
93.67
93.665
93.359
92.729
91.769
90.486
88.892
87.007
84.873
82.56
80.143
77.686
75.234
72.807
70.435
68.175
66.116
64.367
63.016
62.113
61.687
61.768
62.387
63.546
65.2
67.251
69.584
72.123
74.826
77.673
80.633
83.642
86.6
89.412
92.011
94.353
96.408
98.121
99.42
100.278
100.722
100.832
100.714
100.415
99.933
99.275
98.46
97.543
96.609
95.698
94.825
94.002
93.246
92.616
92.196
92.023
92.098
92.391
92.864
93.537
94.469
95.682
97.173
98.91
100.846
102.991
105.378
108.017
110.899
113.971
117.16
120.429
123.749
127.083
130.376
133.526
136.417
138.985
141.19
143.014
144.441
145.402
145.826
145.669
144.908
143.556
141.63
139.132
136.083
132.537
128.578
124.34
119.94
115.455
110.952
106.479
102.092
97.881
93.925
90.279
87.002
84.125
81.675
79.682
78.129
76.961
76.105
75.447
74.903
74.409
73.874
73.227
72.392
71.268
69.818
67.965
65.543
62.519
58.968
55.075
51.275
47.972
45.386
43.911
43.996
45.675
48.792
52.699
56.057
57.83
57.293
53.534
46.008
34.983
21.184
6.458
-6.206
-14.13
-14.584
-4.529
18.503
54.383
100.553
153.655
208.53
264.856
327.075
393.206
459.509
515.039
537.36
515.249
443.862
324.194
177.901
24.861
-114.962
-216.48
-273.574
-288.438
-270.816
-243.269
-218.449
-200.737
-189.433
-176.108
-157.894
-137.236
-117.413
-103.043
-95.229
-92.296
-92.965
-95.669
-99.468
-103.906
-107.868
-110.788
-112.852
-114.226
-115.211
-116.031
-116.514
-116.794
-117.484
-118.824
-120.808
-123.414
-126.383
-129.612
-133.255
-137.185
-141.062
-144.692
-147.909
-150.64
-152.973
-154.889
-156.295
-157.206
-157.694
-157.857
-157.809
-157.604
-157.252
-156.784
-156.246
-155.692
-155.17
-154.691
-154.253
-153.857
-153.507
-153.218
-153.002
-152.845
-152.727
-152.619
-152.496
-152.344
-152.145
-151.88
-151.525
-151.058
-150.464
-149.735
-148.868
-147.854
-146.687
-145.356
-143.854
-142.179
-140.33
-138.307
-136.111
-133.739
-131.194
-128.481
-125.606
-122.573
-119.39
-116.061
-112.594
-108.999
-105.287
-101.469
-97.559
-93.57
-89.518
-85.418
-81.288
-77.146
-73.009
-68.896
-64.825
-60.816
-56.886
-53.056
-49.343
-45.766
-42.342
-39.088
-36.019
-33.15
-30.496
-28.066
-25.874
-23.928
-22.236
-20.805
-19.64
-18.745
-18.122
-17.771
-17.692
-17.881
-18.335
-19.047
-20.011
-21.218
-22.656
-24.316
-26.183
-28.244
-30.484
-32.887
-35.435
-38.11
-40.895
-43.77
-46.716
-49.713
-52.744
-55.788
-58.828
-61.846
-64.825
-67.749
-70.603
-73.372
-76.043
-78.601
-81.036
-83.337
-85.494
-87.499
-89.345
-91.025
-92.534
-93.869
-95.028
-96.008
-96.809
-97.431
-97.874
-98.141
-98.237
-98.166
-97.937
-97.556
-97.029
-96.364
-95.57
-94.655
-93.63
-92.501
-91.273
-89.956
-88.56
-87.101
-85.59
-84.039
-82.453
-80.839
-79.202
-77.554
-75.906
-74.266
-72.639
-71.032
-69.451
-67.91
-66.425
-65
-63.632
-62.31
-61.02
-59.76
-58.533
-57.344
-56.2
-55.092
-53.998
-52.907
-51.797
-50.671
-49.555
-48.444
-47.317
-46.171
-44.988
-43.831
-42.857
-42.049
-41.235
-40.252
-38.89
-37.171
-35.444
-33.812
-32.08
-30.4
-29.206
-29.131
-31.067
-35.101
-40.286
-45.944
-51.886
-57.664
-62.643
-65.681
-65.082
-60.445
-53.048
-44.225
-34.814
-25.525
-16.93
-10.187
-7.151
-8.501
-13.247
-19.94
-27.416
-34.934
-42.12
-48.297
-52.239
-53.337
-52.028
-49.233
-45.762
-42.075
-38.346
-34.729
-31.605
-29.098
-26.79
-24.185
-21.058
-17.448
-13.593
-9.798
-6.311
-3.699
-3.089
-5.336
-10.553
-18.237
-27.377
-36.958
-46.207
-54.016
-58.526
-58.106
-52.22
-41.459
-27.485
-12.121
3.391
17.822
29.306
35.951
36.808
32.081
23.263
12.303
0.45
-11.44
-22.253
-30.759
-36.149
-38.243
-37.785
-36.044
-33.791
-31.357
-29.028
-27.087
-25.795
-25.322
-25.464
-25.714
-25.77
-25.55
-25.09
-24.55
-24.012
-23.481
-23.009
-22.684
-22.584
-22.789
-23.341
-24.23
-25.471
-27.051
-29.011
-31.477
-34.453
-37.821
-41.297
-44.358
-46.533
-47.522
-46.94
-44.371
-39.71
-33.046
-24.988
-16.772
-9.424
-3.725
-0.508
-0.308
-3.018
-8.035
-13.585
-16.878
-15.535
-7.028
11.379
41.756
85.571
141.656
205.3
271.435
335.302
396.327
458.128
520.233
579.235
622.677
630.466
589.402
492.092
348.445
185.193
30.742
-85.933
-153.339
-176.5
-167.227
-144.918
-117.326
-87.863
-61.75
-38.204
-24.473
-23.966
-29.783
-38.173
-41.903
-37.281
-29.882
-22.574
-16.739
-13.078
-9.058
-4.165
-0.057
2.327
2.516
0.755
-2.439
-6.778
-12.015
-17.538
-22.254
-25.46
-27.246
-28.177
-28.742
-29.151
-29.391
-29.468
-29.679
-30.249
-31.097
-31.921
-32.42
-32.458
-32.069
-31.366
-30.38
-29.105
-27.568
-25.84
-24.016
-22.17
-20.336
-18.517
-16.71
-14.924
-13.175
-11.483
-9.856
-8.289
-6.768
-5.272
-3.785
-2.296
-0.797
0.719
2.262
3.847
5.483
7.178
8.935
10.762
12.665
14.658
16.747
18.937
21.228
23.619
26.11
28.7
31.39
34.179
37.062
40.038
43.1
46.247
49.471
52.766
56.122
59.528
62.972
66.444
69.931
73.419
76.895
80.342
83.748
87.095
90.369
93.552
96.628
99.582
102.396
105.056
107.547
109.854
111.965
113.867
115.549
117.003
118.219
119.19
119.91
120.375
120.582
120.529
120.216
119.644
118.817
117.739
116.415
114.852
113.06
111.048
108.825
106.405
103.799
101.022
98.089
95.015
91.816
88.508
85.111
81.639
78.112
74.547
70.959
67.367
63.787
60.233
56.722
53.267
49.881
46.579
43.37
40.266
37.275
34.407
31.669
29.066
26.603
24.285
22.114
20.092
18.22
16.497
14.924
13.497
12.215
11.073
10.067
9.192
8.441
7.808
7.287
6.87
6.549
6.317
6.165
6.086
6.073
6.117
6.21
6.346
6.517
6.715
6.936
7.173
7.42
7.672
7.926
8.176
8.421
8.656
8.879
9.088
9.28
9.454
9.609
9.742
9.854
9.944
10.012
10.056
10.079
10.079
10.056
10.012
9.947
9.859
9.751
9.62
9.469
9.296
9.101
8.884
8.645
8.384
8.1
7.793
7.461
7.103
6.719
6.308
5.867
5.397
4.895
4.363
3.799
3.203
2.575
1.916
1.227
0.509
-0.238
-1.011
-1.808
-2.627
-3.466
-4.322
-5.19
-6.067
-6.949
-7.831
-8.71
-9.579
-10.434
-11.27
-12.082
-12.866
-13.616
-14.327
-14.994
-15.613
-16.178
-16.686
-17.132
-17.513
-17.827
-18.072
-18.246
-18.351
-18.386
-18.353
-18.255
-18.097
-17.883
-17.618
-17.311
-16.967
-16.596
-16.206
-15.805
-15.401
-15.004
-14.623
-14.267
-13.946
-13.672
-13.454
-13.304
-13.232
-13.248
-13.36
-13.574
-13.892
-14.322
-14.865
-15.534
-16.336
-17.276
-18.359
-19.59
-20.966
-22.486
-24.132
-25.88
-27.703
-29.578
-31.481
-33.4
-35.318
-37.215
-39.072
-40.857
-42.538
-44.094
-45.5
-46.729
-47.768
-48.613
-49.301
-49.897
-50.467
-51.064
-51.715
-52.442
-53.288
-54.303
-55.549
-57.101
-58.998
-61.302
-64.145
-67.555
-71.443
-75.598
-79.547
-82.785
-84.98
-85.699
-84.487
-81.341
-76.489
-70.554
-64.859
-60.508
-58.207
-58.862
-63.052
-70.371
-79.909
-89.826
-97.014
-98.795
-92.857
-76.539
-47.954
-6.579
47.154
111.194
181.601
254.257
324.579
387.107
436.851
469.704
482.531
473.775
443.838
394.441
328.842
251.823
168.76
85.269
6.698
-62.093
-117.364
-157.153
-181.189
-190.679
-187.974
-176.132
-158.469
-138.759
-120.515
-105.885
-95.919
-90.782
-89.858
-92.233
-96.839
-102.148
-106.626
-109.493
-110.533
-109.943
-108.235
-105.858
-103.203
-100.809
-99.218
-98.693
-99.279
-100.848
-103.142
-105.966
-109.179
-112.616
-116.099
-119.481
-122.632
-125.453
-127.907
-129.96
-131.582
-132.761
-133.488
-133.771
-133.645
-133.155
-132.343
-131.253
-129.921
-128.379
-126.667
-124.831
-122.913
-120.96
-118.999
-117.048
-115.12
-113.223
-111.361
-109.531
-107.721
-105.915
-104.098
-102.261
-100.394
-98.491
-96.541
-94.533
-92.455
-90.299
-88.057
-85.723
-83.291
-80.758
-78.12
-75.378
-72.533
-69.587
-66.544
-63.404
-60.172
-56.851
-53.446
-49.963
-46.409
-42.792
-39.12
-35.405
-31.657
-27.889
-24.113
-20.341
-16.587
-12.864
-9.187
-5.568
-2.024
1.433
4.787
8.025
11.133
14.099
16.908
19.55
22.013
24.288
26.365
28.237
29.897
31.34
32.561
33.559
34.332
34.881
35.208
35.317
35.213
34.902
34.393
33.693
32.813
31.763
30.556
29.204
27.719
26.116
24.407
22.607
20.731
18.793
16.808
14.789
12.752
10.71
8.677
6.665
4.687
2.754
0.877
-0.934
-2.67
-4.324
-5.888
-7.357
-8.726
-9.992
-11.152
-12.207
-13.155
-13.997
-14.736
-15.374
-15.915
-16.361
-16.719
-16.991
-17.184
-17.304
-17.354
-17.342
-17.273
-17.154
-16.989
-16.787
-16.551
-16.289
-16.006
-15.706
-15.396
-15.079
-14.76
-14.444
-14.133
-13.83
-13.54
-13.263
-13.002
-12.758
-12.533
-12.326
-12.138
-11.969
-11.819
-11.687
-11.573
-11.476
-11.397
-11.336
-11.292
-11.267
-11.26
-11.274
-11.308
-11.364
-11.444
-11.55
-11.683
-11.846
-12.041
-12.271
-12.538
-12.847
-13.201
-13.602
-14.054
-14.56
-15.124
-15.749
-16.437
-17.192
-18.015
-18.91
-19.878
-20.921
-22.039
-23.233
-24.503
-25.847
-27.263
-28.749
-30.3
-31.912
-33.58
-35.296
-37.053
-38.844
-40.66
-42.492
-44.329
-46.163
-47.98
-49.769
-51.518
-53.215
-54.846
-56.399
-57.858
-59.213
-60.45
-61.555
-62.518
-63.326
-63.967
-64.43
-64.707
-64.789
-64.666
-64.333
-63.785
-63.017
-62.028
-60.818
-59.389
-57.742
-55.883
-53.82
-51.562
-49.117
-46.498
-43.718
-40.79
-37.731
-34.555
-31.279
-27.921
-24.498
-21.03
-17.537
-14.039
-10.559
-7.118
-3.737
-0.438
2.761
5.844
8.795
11.598
14.237
16.691
18.941
20.974
22.775
24.333
25.642
26.701
27.519
28.119
28.522
28.75
28.821
28.748
28.546
28.239
27.852
27.419
26.971
26.534
26.13
25.786
25.516
25.313
25.135
24.908
24.557
24.026
23.285
22.302
21.027
19.392
17.318
14.731
11.597
7.866
3.418
-1.779
-7.64
-13.925
-20.123
-25.695
-30.261
-33.405
-34.663
-33.859
-31.074
-26.785
-22.212
-18.544
-16.555
-17.081
-20.789
-27.671
-37.191
-47.881
-56.747
-60.769
-57.55
-44.241
-18.231
22.079
77.546
145.712
220.36
296.03
368.639
437.333
503.899
565.093
612.87
634.783
617.679
557.004
455.391
323.427
178.088
36.457
-82.996
-166.689
-210.957
-220.809
-210.454
-193.693
-177.383
-162.387
-143.994
-119.49
-90.875
-62.215
-38.85
-23.799
-17.41
-18.955
-26.74
-38.899
-53.68
-69.234
-83.82
-96.211
-105.456
-111.067
-113.129
-112.124
-108.852
-104.295
-99.499
-95.185
-91.846
-89.776
-88.965
-89.284
-90.488
-92.188
-93.909
-95.328
-96.267
-96.643
-96.495
-95.855
-94.732
-93.178
-91.272
-89.072
-86.606
-83.886
-80.891
-77.626
-74.125
-70.434
-66.609
-62.702
-58.744
-54.758
-50.766
-46.783
-42.822
-38.889
-34.98
-31.089
-27.218
-23.368
-19.541
-15.738
-11.952
-8.175
-4.397
-0.612
3.192
7.022
10.884
14.782
18.706
22.652
26.615
30.586
34.56
38.529
42.48
46.409
50.321
54.22
58.112
61.997
65.857
69.68
73.452
77.167
80.832
84.445
87.995
91.478
94.896
98.253
101.566
104.822
107.98
111.004
113.856
116.513
118.97
121.215
123.23
124.998
126.489
127.689
128.593
129.185
129.436
129.316
128.783
127.833
126.507
124.835
122.845
120.56
117.981
115.124
112.018
108.685
105.145
101.415
97.5
93.427
89.236
84.97
80.677
76.38
72.068
67.742
63.407
59.069
54.75
50.458
46.194
41.969
37.803
33.715
29.729
25.857
22.096
18.448
14.91
11.49
8.209
5.081
2.115
-0.68
-3.298
-5.734
-7.975
-10.02
-11.876
-13.55
-15.048
-16.378
-17.539
-18.537
-19.377
-20.066
-20.616
-21.035
-21.332
-21.518
-21.604
-21.602
-21.525
-21.384
-21.186
-20.941
-20.657
-20.342
-20.007
-19.658
-19.303
-18.947
-18.599
-18.265
-17.949
-17.658
-17.394
-17.16
-16.959
-16.793
-16.663
-16.569
-16.512
-16.49
-16.505
-16.553
-16.634
-16.745
-16.885
-17.05
-17.237
-17.443
-17.665
-17.898
-18.14
-18.385
-18.631
-18.873
-19.109
-19.334
-19.547
-19.743
-19.92
-20.075
-20.206
-20.311
-20.387
-20.434
-20.449
-20.431
-20.38
-20.294
-20.174
-20.017
-19.825
-19.596
-19.33
-19.026
-18.685
-18.306
-17.888
-17.433
-16.94
-16.408
-15.838
-15.23
-14.584
-13.899
-13.175
-12.413
-11.611
-10.771
-9.891
-8.972
-8.014
-7.017
-5.982
-4.909
-3.799
-2.651
-1.468
-0.251
0.998
2.278
3.586
4.918
6.272
7.641
9.021
10.406
11.791
13.169
14.534
15.878
17.197
18.485
19.736
20.944
22.103
23.206
24.248
25.22
26.115
26.929
27.655
28.288
28.828
29.274
29.623
29.875
30.02
30.055
29.976
29.778
29.459
29.022
28.47
27.822
27.102
26.336
25.547
24.761
23.991
23.26
22.593
22.013
21.55
21.232
21.076
21.108
21.351
21.808
22.464
23.269
24.144
25.015
25.823
26.514
27.037
27.311
27.254
26.791
25.849
24.404
22.4
19.713
16.33
12.358
8.057
3.91
0.366
-2.305
-3.739
-3.501
-1.469
2.298
7.26
12.27
16.453
19.248
20.018
18.333
14.315
8.509
2.59
-0.756
0.654
9.018
26.737
55.732
97.59
151.216
211.818
274.456
334.491
391.872
451.729
512.937
570.782
613.645
619.98
579.736
489.662
353.481
195.118
35.741
-104.563
-203.119
-256.995
-268.72
-243.087
-195.96
-137.108
-75.823
-26.344
4.863
14.901
6.063
-10.053
-24.237
-31.894
-32.494
-31.346
-32.334
-35.997
-41.177
-44.6
-44.298
-40.55
-34.438
-27.753
-21.707
-16.502
-12.18
-8.78
-6.403
-5.179
-4.955
-5.298
-5.822
-6.307
-6.657
-6.868
-6.889
-6.637
-6.091
-5.293
-4.329
-3.3
-2.258
-1.203
-0.12
1.022
2.233
3.492
4.785
6.095
7.398
8.684
9.926
11.093
12.177
13.179
14.127
15.079
16.066
17.101
18.18
19.266
20.338
21.394
22.426
23.428
24.398
25.332
26.241
27.151
28.074
29.018
29.976
30.925
31.857
32.774
33.688
34.623
35.596
36.612
37.678
38.804
39.99
41.237
42.529
43.833
45.124
46.378
47.583
48.742
49.851
50.903
51.888
52.794
53.62
54.381
55.088
55.744
56.36
56.939
57.507
58.107
58.774
59.536
60.402
61.354
62.38
63.474
64.622
65.811
66.999
68.108
69.075
69.845
70.358
70.562
70.38
69.707
68.458
66.566
63.992
60.732
56.771
52.084
46.662
40.494
33.618
26.123
18.085
9.577
0.683
-8.515
-17.897
-27.305
-36.615
-45.727
-54.56
-63.069
-71.188
-78.835
-85.941
-92.437
-98.291
-103.525
-108.148
-112.169
-115.618
-118.534
-120.988
-123.093
-124.93
-126.55
-127.994
-129.281
-130.446
-131.545
-132.623
-133.725
-134.88
-136.09
-137.365
-138.715
-140.133
-141.602
-143.08
-144.501
-145.823
-147.028
-148.101
-149.042
-149.845
-150.495
-150.985
-151.311
-151.473
-151.473
-151.313
-150.993
-150.521
-149.916
-149.204
-148.423
-147.602
-146.757
-145.904
-145.052
-144.211
-143.391
-142.597
-141.832
-141.097
-140.398
-139.743
-139.137
-138.587
-138.094
-137.656
-137.27
-136.936
-136.651
-136.416
-136.23
-136.092
-136.003
-135.964
-135.975
-136.039
-136.153
-136.316
-136.523
-136.771
-137.056
-137.373
-137.718
-138.085
-138.468
-138.863
-139.265
-139.667
-140.064
-140.45
-140.818
-141.161
-141.473
-141.746
-141.973
-142.146
-142.259
-142.304
-142.274
-142.161
-141.958
-141.657
-141.254
-140.739
-140.109
-139.358
-138.479
-137.469
-136.323
-135.041
-133.618
-132.055
-130.351
-128.506
-126.522
-124.401
-122.145
-119.757
-117.242
-114.604
-111.85
-108.988
-106.025
-102.972
-99.839
-96.637
-93.378
-90.073
-86.735
-83.372
-79.997
-76.62
-73.255
-69.914
-66.611
-63.357
-60.164
-57.043
-54.006
-51.059
-48.207
-45.452
-42.798
-40.251
-37.824
-35.53
-33.377
-31.377
-29.538
-27.863
-26.354
-25.005
-23.802
-22.728
-21.766
-20.903
-20.13
-19.438
-18.809
-18.22
-17.635
-17.016
-16.33
-15.541
-14.62
-13.559
-12.364
-11.057
-9.684
-8.275
-6.861
-5.491
-4.217
-3.099
-2.214
-1.619
-1.407
-1.754
-2.768
-4.441
-6.637
-8.99
-11.074
-12.567
-13.085
-12.107
-9.361
-4.964
0.527
5.841
9.576
10.741
8.38
1.512
-10.218
-26.227
-44.841
-62.933
-76.996
-83.872
-80.207
-62.563
-27.945
23.477
87.973
161.024
236.949
315.359
401.198
491.76
580.754
654.626
689.075
672.659
603.213
484.318
336.686
179.347
28.379
-94.85
-177.814
-215.579
-206.636
-161.691
-98.435
-32.549
18.896
45.424
48.572
34.843
16.855
5.787
4.247
10.079
16.874
19.903
19.242
16.702
15.186
16.04
18.597
22.024
25.467
28.374
30.543
31.846
32.251
31.917
31.098
29.976
28.658
27.256
25.897
24.718
23.856
23.38
23.295
23.617
24.366
25.555
27.192
29.257
31.704
34.49
37.576
40.927
44.512
48.294
52.227
56.262
60.35
64.454
68.546
72.606
76.615
80.561
84.434
88.235
91.971
95.648
99.272
102.844
106.364
109.835
113.263
116.653
120.011
123.34
126.641
129.917
133.169
136.397
139.602
142.78
145.929
149.044
152.125
155.169
158.175
161.14
164.061
166.934
169.755
172.52
175.224
177.859
180.418
182.894
185.279
187.564
189.74
191.798
193.728
195.52
197.166
198.655
199.977
201.124
202.086
202.855
203.422
203.78
203.921
203.84
203.531
202.99
202.214
201.201
199.949
198.458
196.731
194.768
192.574
190.152
187.509
184.652
181.589
178.329
174.884
171.266
167.488
163.563
159.508
155.338
151.069
146.719
142.304
137.843
133.352
128.851
124.357
119.889
115.462
111.095
106.804
102.605
98.512
94.54
90.701
87.008
83.473
80.104
76.912
73.905
71.089
68.471
66.056
63.846
61.845
60.053
58.47
57.094
55.923
54.953
54.179
53.594
53.191
52.964
52.902
52.996
53.237
53.612
54.11
54.721
55.431
56.228
57.101
58.037
59.025
60.053
61.109
62.183
63.264
64.341
65.405
66.446
67.455
68.422
69.341
70.204
71.004
71.736
72.393
72.974
73.473
73.887
74.217
74.459
74.613
74.681
74.663
74.562
74.379
74.119
73.786
73.383
72.915
72.388
71.807
71.177
70.503
69.791
69.046
68.275
67.483
66.675
65.857
65.035
64.214
63.399
62.595
61.805
61.035
60.287
59.565
58.871
58.207
57.575
56.975
56.408
55.874
55.372
54.901
54.458
54.04
53.644
53.267
52.903
52.548
52.196
51.843
51.482
51.108
50.714
50.293
49.839
49.345
48.803
48.205
47.545
46.814
46.006
45.111
44.125
43.039
41.848
40.544
39.123
37.578
35.904
34.093
32.139
30.037
27.782
25.367
22.79
20.046
17.134
14.057
10.814
7.41
3.844
0.119
-3.762
-7.796
-11.977
-16.299
-20.753
-25.334
-30.027
-34.819
-39.694
-44.64
-49.651
-54.728
-59.87
-65.07
-70.323
-75.617
-80.941
-86.282
-91.617
-96.915
-102.14
-107.261
-112.25
-117.088
-121.751
-126.201
-130.397
-134.285
-137.82
-140.97
-143.709
-146.026
-147.921
-149.413
-150.533
-151.334
-151.886
-152.268
-152.578
-152.911
-153.366
-154.048
-155.098
-156.707
-158.992
-161.932
-165.369
-168.978
-172.421
-175.452
-177.792
-179.007
-178.869
-177.523
-175.474
-173.717
-173.288
-174.768
-178.56
-185.147
-194.588
-206.183
-218.517
-229.186
-235.359
-234.742
-225.427
-205.582
-173.595
-128.634
-71.243
-3.238
70.906
144.806
214.833
278.116
332.903
381.801
420.19
438.705
431.838
389.442
310.985
207.555
86.162
-37.265
-146.898
-236.213
-296.013
-327.292
-338.034
-332.721
-316.646
-290.868
-257.181
-220.133
-186.48
-164.383
-153.147
-150.674
-154.2
-157.96
-163.458
-171.552
-180.274
-190.105
-198.888
-204.357
-206.437
-204.96
-200.454
-194.354
-188.02
-182.212
-177.35
-173.686
-171.293
-170.212
-170.447
-171.678
-173.339
-175.078
-176.694
-178.047
-179.122
-179.862
-180.179
-180.071
-179.599
-178.803
-177.716
-176.351
-174.689
-172.738
-170.528
-168.089
-165.459
-162.679
-159.783
-156.813
-153.809
-150.8
-147.81
-144.853
-141.939
-139.07
-136.242
-133.448
-130.676
-127.919
-125.167
-122.41
-119.635
-116.829
-113.981
-111.081
-108.12
-105.09
-101.985
-98.8
-95.53
-92.174
-88.731
-85.202
-81.588
-77.889
-74.107
-70.244
-66.302
-62.284
-58.194
-54.036
-49.815
-45.538
-41.21
-36.842
-32.441
-28.018
-23.584
-19.15
-14.729
-10.334
-5.978
-1.675
2.562
6.717
10.778
14.731
18.564
22.263
25.816
29.213
32.443
35.496
38.362
41.033
43.501
45.76
47.804
49.627
51.227
52.599
53.742
54.656
55.34
55.796
56.026
56.034
55.825
55.404
54.779
53.958
52.951
51.766
50.416
48.912
47.266
45.491
43.598
41.601
39.513
37.345
35.11
32.821
30.489
28.126
25.743
23.351
20.96
18.582
16.225
13.9
11.613
9.374
7.19
5.069
3.015
1.035
-0.866
-2.683
-4.414
-6.055
-7.604
-9.062
-10.427
-11.7
-12.883
-13.978
-14.986
-15.912
-16.758
-17.527
-18.222
-18.847
-19.406
-19.901
-20.337
-20.718
-21.047
-21.327
-21.564
-21.761
-21.922
-22.051
-22.152
-22.229
-22.285
-22.325
-22.352
-22.37
-22.383
-22.394
-22.406
-22.422
-22.444
-22.475
-22.516
-22.568
-22.634
-22.713
-22.807
-22.917
-23.042
-23.184
-23.345
-23.527
-23.729
-23.953
-24.201
-24.474
-24.775
-25.104
-25.462
-25.849
-26.265
-26.708
-27.183
-27.69
-28.228
-28.798
-29.397
-30.026
-30.686
-31.375
-32.092
-32.833
-33.589
-34.358
-35.14
-35.935
-36.743
-37.56
-38.374
-39.178
-39.966
-40.735
-41.479
-42.192
-42.858
-43.47
-44.021
-44.515
-44.96
-45.357
-45.699
-45.977
-46.173
-46.291
-46.357
-46.387
-46.407
-46.414
-46.37
-46.266
-46.111
-45.915
-45.722
-45.508
-45.142
-44.639
-44.133
-43.759
-43.745
-44.094
-44.493
-44.823
-45.162
-45.367
-45.236
-44.374
-42.029
-38.057
-32.995
-27.253
-21.243
-15.422
-10.01
-5.681
-3.663
-4.413
-7.682
-12.964
-19.241
-25.778
-32.364
-38.295
-42.459
-44.229
-43.262
-39.862
-35.204
-30.048
-24.676
-19.581
-15.251
-12.083
-10.571
-10.608
-11.42
-12.5
-13.538
-14.326
-14.922
-15.392
-15.763
-16.187
-16.887
-17.946
-19.366
-21.01
-22.597
-23.684
-23.61
-22.045
-19.064
-14.919
-10.067
-4.975
0.013
4.279
6.881
7.333
5.607
1.779
-3.831
-10.936
-19.462
-28.947
-38.565
-47.839
-56.394
-63.458
-68.097
-69.132
-64.948
-54.383
-36.726
-10.631
25.205
71.043
126.458
188.711
252.677
314.547
371.74
424.385
475.256
522.885
561.17
579.573
564.47
509.902
419.573
304.002
182.808
74.683
-9.479
-61.75
-85.314
-91.704
-88.56
-84.411
-82.745
-79.04
-72.472
-63.611
-53.562
-46.525
-44.305
-46.126
-50.912
-56.968
-62.594
-66.683
-68.651
-68.167
-65.35
-60.754
-54.954
-48.498
-42.031
-36.137
-31.125
-27.162
-24.243
-22.199
-20.905
-20.248
-20.076
-20.232
-20.591
-21.049
-21.518
-21.932
-22.197
-22.202
-21.871
-21.157
-20.038
-18.516
-16.602
-14.311
-11.672
-8.728
-5.519
-2.083
1.539
5.317
9.208
13.164
17.138
21.081
24.957
28.744
32.429
36.006
39.479
42.851
46.134
49.346
52.498
55.601
58.665
61.696
64.705
67.703
70.702
73.714
76.748
79.814
82.917
86.063
89.257
92.5
95.793
99.134
102.524
105.96
109.444
112.972
116.545
120.158
123.809
127.493
131.206
134.941
138.69
142.445
146.197
149.936
153.651
157.332
160.966
164.542
168.045
171.464
174.785
177.994
181.078
184.022
186.814
189.441
191.889
194.146
196.202
198.046
199.669
201.062
202.218
203.132
203.798
204.213
204.374
204.281
203.932
203.33
202.475
201.371
200.023
198.437
196.62
194.579
192.324
189.864
187.211
184.377
181.374
178.215
174.915
171.488
167.948
164.312
160.595
156.813
152.982
149.118
145.237
141.353
137.482
133.637
129.831
126.079
122.391
118.779
115.253
111.823
108.498
105.285
102.191
99.223
96.386
93.683
91.118
88.693
86.409
84.267
82.267
80.406
78.684
77.098
75.643
74.316
73.11
72.022
71.043
70.166
69.386
68.692
68.078
67.535
67.055
66.629
66.248
65.905
65.592
65.299
65.02
64.747
64.472
64.188
63.889
63.568
63.22
62.839
62.421
61.96
61.453
60.895
60.282
59.612
58.882
58.088
57.229
56.304
55.31
54.248
53.118
51.919
50.652
49.319
47.92
46.459
44.936
43.353
41.715
40.023
38.28
36.49
34.657
32.784
30.875
28.933
26.962
24.967
22.951
20.918
18.871
16.814
14.752
12.689
10.629
8.576
6.535
4.511
2.508
0.53
-1.417
-3.331
-5.206
-7.041
-8.831
-10.573
-12.265
-13.904
-15.489
-17.018
-18.49
-19.905
-21.263
-22.567
-23.817
-25.015
-26.166
-27.272
-28.339
-29.371
-30.373
-31.352
-32.314
-33.266
-34.215
-35.169
-36.135
-37.12
-38.133
-39.182
-40.276
-41.425
-42.637
-43.922
-45.29
-46.749
-48.31
-49.979
-51.759
-53.655
-55.669
-57.808
-60.079
-62.488
-65.036
-67.723
-70.547
-73.503
-76.582
-79.766
-83.024
-86.325
-89.642
-92.949
-96.231
-99.471
-102.646
-105.726
-108.684
-111.487
-114.116
-116.556
-118.79
-120.811
-122.626
-124.272
-125.83
-127.381
-129.001
-130.741
-132.629
-134.699
-137.013
-139.633
-142.62
-146.036
-149.892
-154.22
-159.128
-164.594
-170.476
-176.494
-182.139
-186.936
-190.594
-192.727
-192.85
-190.859
-186.888
-181.409
-175.534
-170.116
-165.6
-162.769
-162.362
-164.33
-168.146
-172.428
-174.639
-172.812
-165.251
-149.315
-122.54
-83.188
-32.086
26.571
88.345
149.145
210.077
276.493
346.394
414.729
468.847
485.667
455.189
374.628
247.403
96.904
-57.064
-196.762
-300.651
-363.392
-385.335
-371.96
-338.643
-298.011
-261.526
-236.353
-224.627
-224.836
-229.829
-234.515
-234.947
-230.242
-225.269
-222.632
-223.052
-225.793
-227.569
-226.909
-224.112
-219.73
-214.83
-210.077
-205.701
-202.134
-199.681
-198.385
-198.131
-198.678
-199.83
-201.459
-203.446
-205.644
-207.885
-210.033
-211.985
-213.668
-215.02
-215.988
-216.537
-216.645
-216.319
-215.58
-214.461
-213.002
-211.242
-209.214
-206.945
-204.463
-201.803
-199.002
-196.102
-193.142
-190.147
-187.134
-184.112
-181.085
-178.051
-175.002
-171.917
-168.775
-165.552
-162.231
-158.805
-155.272
-151.63
-147.884
-144.037
-140.096
-136.073
-131.98
-127.82
-123.594
-119.294
-114.909
-110.444
-105.908
-101.32
-96.701
-92.054
-87.384
-82.693
-77.971
-73.214
-68.411
-63.539
-58.586
-53.569
-48.515
-43.483
-38.542
-33.744
-29.128
-24.728
-20.568
-16.689
-13.129
-9.921
-7.108
-4.735
-2.85
-1.528
-0.822
-0.749
-1.308
-2.457
-4.132
-6.292
-8.9
-11.92
-15.325
-19.081
-23.152
-27.515
-32.141
-36.988
-42.009
-47.129
-52.284
-57.44
-62.574
-67.69
-72.808
-77.932
-83.061
-88.197
-93.333
-98.456
-103.556
-108.605
-113.576
-118.453
-123.225
-127.896
-132.468
-136.932
-141.27
-145.459
-149.468
-153.276
-156.861
-160.201
-163.282
-166.092
-168.627
-170.888
-172.884
-174.618
-176.091
-177.306
-178.261
-178.96
-179.411
-179.621
-179.601
-179.362
-178.915
-178.274
-177.454
-176.467
-175.326
-174.042
-172.623
-171.082
-169.43
-167.677
-165.835
-163.916
-161.931
-159.891
-157.807
-155.688
-153.545
-151.384
-149.212
-147.036
-144.862
-142.694
-140.537
-138.395
-136.271
-134.169
-132.091
-130.04
-128.018
-126.027
-124.068
-122.142
-120.249
-118.389
-116.562
-114.767
-113.004
-111.27
-109.566
-107.888
-106.236
-104.607
-102.999
-101.41
-99.837
-98.278
-96.731
-95.193
-93.663
-92.139
-90.62
-89.105
-87.592
-86.082
-84.572
-83.063
-81.554
-80.043
-78.529
-77.012
-75.49
-73.963
-72.427
-70.883
-69.329
-67.763
-66.183
-64.588
-62.976
-61.347
-59.698
-58.028
-56.336
-54.622
-52.885
-51.125
-49.341
-47.534
-45.702
-43.847
-41.969
-40.068
-38.144
-36.199
-34.235
-32.251
-30.252
-28.238
-26.214
-24.182
-22.147
-20.113
-18.085
-16.068
-14.067
-12.089
-10.141
-8.228
-6.356
-4.531
-2.762
-1.054
0.586
2.153
3.643
5.049
6.365
7.584
8.704
9.722
10.638
11.451
12.159
12.755
13.239
13.615
13.889
14.064
14.143
14.133
14.044
13.902
13.734
13.566
13.42
13.311
13.256
13.282
13.415
13.686
14.116
14.714
15.485
16.442
17.594
18.935
20.444
22.058
23.687
25.267
26.731
28.034
29.159
30.056
30.658
30.927
30.833
30.372
29.578
28.414
26.773
24.694
22.365
20.106
18.407
17.713
18.365
20.782
25.368
32.239
41.058
51.139
61.568
71.073
78.314
82.468
82.884
80.594
79.064
79.991
84.139
91.367
98.534
108.034
126.238
158.827
212.91
287.93
378.02
477.484
577.051
668.119
738.565
770.127
746.769
658.113
507.24
316.925
120.125
-47.624
-157.235
-200.761
-186.102
-131.933
-64.064
-0.25
47.334
72.881
80.771
77.179
72.099
73.878
82.863
96.098
106.997
110.972
109.307
104.876
100.968
99.485
100.11
102.316
106.048
110.996
116.36
121.413
125.648
128.873
131.329
133.155
134.147
134.35
134.116
133.756
133.604
133.844
134.409
135.283
136.538
138.184
140.2
142.555
145.158
147.95
150.926
154.066
157.348
160.745
164.205
167.68
171.125
174.495
177.759
180.898
183.894
186.736
189.419
191.939
194.304
196.528
198.62
200.587
202.434
204.168
205.804
207.357
208.846
210.286
211.691
213.073
214.445
215.817
217.202
218.611
220.056
221.546
223.084
224.675
226.321
228.023
229.776
231.57
233.388
235.214
237.036
238.844
240.631
242.387
244.094
245.738
247.309
248.798
250.212
251.56
252.853
254.114
255.377
256.679
258.072
259.601
261.289
263.159
265.221
267.485
269.969
272.678
275.599
278.707
281.955
285.281
288.612
291.846
294.857
297.518
299.684
301.22
302.021
301.982
301.012
299.034
295.97
291.756
286.365
279.788
272.042
263.181
253.28
242.458
230.878
218.698
206.1
193.263
180.353
167.542
154.992
142.841
131.225
120.278
110.1
100.774
92.366
84.899
78.374
72.757
67.975
63.956
60.608
57.832
55.526
53.577
51.881
50.36
48.94
47.543
46.106
44.576
42.911
41.098
39.134
37.032
34.82
32.53
30.202
27.888
25.645
23.535
21.609
19.901
18.436
17.241
16.335
15.733
15.44
15.446
15.739
16.305
17.126
18.181
19.444
20.881
22.457
24.133
25.874
27.658
29.46
31.262
33.045
34.793
36.495
38.145
39.737
41.261
42.71
44.074
45.35
46.534
47.625
48.621
49.52
50.321
51.021
51.619
52.113
52.502
52.785
52.96
53.029
52.992
52.855
52.621
52.295
51.882
51.389
50.822
50.188
49.495
48.749
47.96
47.133
46.277
45.401
44.511
43.615
42.72
41.834
40.963
40.114
39.294
38.508
37.761
37.06
36.41
35.814
35.277
34.8
34.387
34.036
33.75
33.527
33.365
33.263
33.216
33.222
33.276
33.374
33.51
33.676
33.863
34.064
34.269
34.469
34.654
34.813
34.94
35.025
35.063
35.046
34.966
34.815
34.584
34.265
33.85
33.334
32.708
31.969
31.115
30.149
29.073
27.888
26.59
25.172
23.63
21.959
20.157
18.224
16.165
13.988
11.707
9.343
6.918
4.444
1.934
-0.605
-3.164
-5.723
-8.255
-10.731
-13.122
-15.401
-17.54
-19.522
-21.356
-23.06
-24.675
-26.243
-27.781
-29.31
-30.866
-32.487
-34.231
-36.179
-38.376
-40.906
-43.93
-47.497
-51.564
-55.957
-60.239
-63.991
-66.954
-68.765
-69.023
-67.741
-65.18
-62.011
-59.664
-59.303
-61.593
-67.392
-77.302
-90.969
-107.548
-125.203
-140.534
-150.642
-153.429
-146.099
-126.271
-92.934
-45.673
12.664
75.534
137.907
196.359
250.117
301.144
346.822
379.951
389.938
365.447
303.775
208.683
89.457
-37.808
-160.228
-265.417
-340.358
-381.888
-390.234
-367.854
-324.994
-270.24
-211.989
-164.301
-138.141
-137.562
-161.558
-198.631
-230.909
-248.985
-249.111
-233.509
-214.125
-197.475
-185.831
-181.203
-178.807
-175.865
-172.628
-168.017
-163.494
-160.267
-157.812
-156.137
-154.968
-153.865
-152.887
-152.088
-151.368
-150.655
-149.888
-148.975
-147.833
-146.399
-144.601
-142.359
-139.685
-136.631
-133.239
-129.57
-125.654
-121.511
-117.175
-112.69
-108.116
-103.526
-98.986
-94.552
-90.273
-86.204
-82.4
-78.916
-75.765
-72.927
-70.385
-68.143
-66.224
-64.65
-63.42
-62.508
-61.868
-61.451
-61.205
-61.071
-60.986
-60.879
-60.681
-60.328
-59.787
-59.041
-58.057
-56.784
-55.147
-53.092
-50.592
-47.639
-44.251
-40.447
-36.261
-31.758
-26.999
-22.044
-16.949
-11.753
-6.479
-1.156
4.182
9.489
14.699
19.764
24.653
29.338
33.813
38.073
42.131
46.023
49.786
53.442
57.004
60.475
63.846
67.118
70.288
73.355
76.325
79.202
81.987
84.68
87.278
89.768
92.134
94.348
96.382
98.221
99.851
101.268
102.472
103.46
104.235
104.805
105.175
105.349
105.331
105.122
104.728
104.156
103.415
102.518
101.475
100.298
98.998
97.584
96.066
94.452
92.749
90.963
89.099
87.165
85.167
83.113
81.011
78.867
76.687
74.479
72.248
69.999
67.737
65.463
63.182
60.896
58.607
56.318
54.03
51.744
49.463
47.188
44.919
42.657
40.403
38.156
35.915
33.681
31.453
29.229
27.01
24.794
22.582
20.373
18.167
15.963
13.762
11.563
9.367
7.173
4.981
2.792
0.607
-1.573
-3.745
-5.907
-8.057
-10.191
-12.307
-14.4
-16.47
-18.512
-20.525
-22.505
-24.449
-26.352
-28.21
-30.018
-31.77
-33.46
-35.084
-36.634
-38.107
-39.5
-40.81
-42.034
-43.17
-44.213
-45.161
-46.012
-46.764
-47.417
-47.969
-48.416
-48.757
-48.992
-49.121
-49.145
-49.065
-48.875
-48.575
-48.159
-47.625
-46.977
-46.22
-45.352
-44.374
-43.286
-42.093
-40.815
-39.477
-38.099
-36.701
-35.3
-33.909
-32.556
-31.267
-30.066
-28.964
-27.945
-26.996
-26.116
-25.329
-24.685
-24.198
-23.833
-23.519
-23.177
-22.769
-22.323
-21.816
-21.147
-20.283
-19.241
-18.237
-17.728
-17.966
-18.928
-20.508
-22.496
-24.658
-26.877
-28.607
-28.826
-26.936
-22.783
-16.768
-9.976
-3.426
2.115
5.398
4.802
-0.884
-12.549
-29.923
-51.436
-75.512
-100.607
-124.947
-146.817
-164.544
-176.429
-182.08
-182.414
-178.614
-172.239
-164.648
-156.75
-149.687
-144.765
-142.489
-142.647
-144.609
-147.258
-149.907
-152.381
-154.388
-155.629
-155.979
-155.421
-154.244
-153.026
-152.084
-151.475
-151.222
-151.234
-151.535
-152.31
-153.564
-155.133
-156.737
-157.959
-158.423
-157.885
-155.954
-152.139
-146.3
-138.594
-129.749
-120.949
-113.164
-107.555
-105.269
-106.921
-112.661
-120.565
-127.7
-132.524
-132.514
-127.491
-117.2
-96.268
-63.553
-16.26
48.151
124.067
211.324
304.739
392.626
465.734
507.135
506.146
462.291
378.944
269.764
148.374
27.517
-77.297
-156.67
-205.041
-223.733
-224.537
-217.744
-209.972
-203.79
-194.724
-180.602
-163.636
-146.655
-133.807
-127.173
-125.701
-127.79
-131.839
-136.173
-139.452
-140.932
-140.208
-137.381
-133.078
-127.923
-122.419
-117.155
-112.68
-109.281
-107.081
-106.012
-105.811
-106.241
-107.105
-108.198
-109.343
-110.42
-111.327
-111.968
-112.287
-112.246
-111.839
-111.113
-110.112
-108.872
-107.445
-105.901
-104.343
-102.9
-101.685
-100.778
-100.238
-100.103
-100.415
-101.223
-102.546
-104.362
-106.616
-109.213
-112.079
-115.155
-118.374
-121.662
-124.923
-128.045
-130.94
-133.55
-135.827
-137.735
-139.235
-140.283
-140.864
-140.99
-140.694
-140.025
-139.019
-137.699
-136.095
-134.242
-132.187
-129.975
-127.629
-125.155
-122.548
-119.807
-116.931
-113.92
-110.771
-107.469
-103.991
-100.321
-96.446
-92.352
-88.022
-83.42
-78.509
-73.272
-67.716
-61.861
-55.754
-49.44
-42.974
-36.43
-29.87
-23.351
-16.932
-10.653
-4.554
1.307
6.871
12.06
16.786
20.99
24.634
27.688
30.162
32.072
33.457
34.387
34.923
35.108
34.988
34.588
33.933
33.065
32.03
30.879
29.684
28.498
27.364
26.323
25.392
24.572
23.854
23.198
22.572
21.96
21.351
20.746
20.155
19.574
19.008
18.459
17.921
17.389
16.863
16.336
15.812
15.306
14.833
14.423
14.102
13.885
13.784
13.805
13.947
14.21
14.59
15.076
15.662
16.341
17.107
17.956
18.883
19.878
20.93
22.028
23.158
24.309
25.472
26.636
27.793
28.936
30.059
31.158
32.227
33.262
34.256
35.204
36.099
36.938
37.714
38.424
39.064
39.632
40.126
40.545
40.89
41.162
41.362
41.491
41.553
41.55
41.485
41.362
41.186
40.959
40.685
40.37
40.018
39.632
39.216
38.774
38.311
37.83
37.334
36.828
36.314
35.797
35.279
34.765
34.259
33.762
33.279
32.812
32.363
31.937
31.533
31.154
30.801
30.475
30.175
29.902
29.656
29.437
29.244
29.076
28.933
28.814
28.718
28.645
28.593
28.563
28.553
28.564
28.594
28.644
28.713
28.801
28.907
29.03
29.17
29.326
29.495
29.677
29.869
30.069
30.274
30.479
30.682
30.88
31.067
31.241
31.396
31.53
31.638
31.718
31.766
31.778
31.749
31.676
31.554
31.379
31.146
30.847
30.477
30.031
29.506
28.901
28.213
27.437
26.566
25.594
24.52
23.342
22.061
20.678
19.197
17.63
16.002
14.342
12.678
11.036
9.431
7.883
6.412
5.04
3.795
2.697
1.762
1.002
0.425
0.039
-0.162
-0.205
-0.156
-0.103
-0.126
-0.304
-0.689
-1.308
-2.211
-3.457
-5.102
-7.213
-9.836
-12.962
-16.641
-20.946
-25.812
-31.08
-36.39
-41.155
-44.911
-47.316
-47.951
-46.525
-43.023
-37.613
-31.027
-24.439
-18.656
-14.333
-12.106
-12.029
-13.711
-16.323
-17.875
-15.802
-8.075
7.177
31.938
67.415
113.842
170.764
234.559
299.193
361.435
418.546
468.934
515.037
551.948
570.746
566.142
528.552
458.029
364.689
254.269
141.514
40.999
-41.338
-94.865
-119.469
-125.071
-117.315
-105.656
-95.086
-82.031
-66.813
-50.475
-34.204
-22.146
-15.968
-14.84
-17.705
-22.814
-28.292
-32.842
-35.764
-36.728
-35.898
-33.833
-31.036
-27.945
-25.133
-23.117
-22.139
-22.274
-23.403
-25.258
-27.637
-30.393
-33.353
-36.346
-39.231
-41.873
-44.171
-46.089
-47.59
-48.647
-49.247
-49.383
-49.065
-48.33
-47.227
-45.799
-44.091
-42.142
-39.983
-37.66
-35.222
-32.719
-30.202
-27.71
-25.266
-22.892
-20.601
-18.403
-16.303
-14.294
-12.361
-10.497
-8.694
-6.947
-5.254
-3.608
-1.998
-0.417
1.144
2.691
4.23
5.766
7.305
8.849
10.403
11.965
13.538
15.121
16.718
18.331
19.962
21.615
23.29
24.989
26.713
28.462
30.235
32.032
33.849
35.683
37.532
39.391
41.255
43.119
44.977
46.822
48.647
50.444
52.206
53.923
55.587
57.191
58.726
60.183
61.555
62.834
64.012
65.081
66.035
66.866
67.569
68.138
68.568
68.853
68.992
68.98
68.816
68.498
68.025
67.398
66.618
65.688
64.608
63.385
62.022
60.525
58.899
57.153
55.293
53.328
51.266
49.115
46.884
44.584
42.222
39.809
37.355
34.869
32.36
29.839
27.315
24.799
22.298
19.822
17.38
14.98
12.629
10.336
8.107
5.949
3.868
1.868
-0.045
-1.867
-3.595
-5.227
-6.76
-8.194
-9.528
-10.761
-11.894
-12.928
-13.864
-14.703
-15.447
-16.098
-16.658
-17.131
-17.518
-17.824
-18.052
-18.206
-18.29
-18.307
-18.262
-18.159
-18.004
-17.799
-17.552
-17.265
-16.945
-16.596
-16.224
-15.833
-15.428
-15.013
-14.591
-14.167
-13.743
-13.322
-12.909
-12.505
-12.115
-11.741
-11.386
-11.055
-10.749
-10.472
-10.226
-10.014
-9.839
-9.703
-9.607
-9.556
-9.55
-9.592
-9.684
-9.826
-10.019
-10.264
-10.559
-10.904
-11.296
-11.732
-12.21
-12.726
-13.279
-13.864
-14.481
-15.127
-15.799
-16.499
-17.222
-17.967
-18.727
-19.498
-20.273
-21.047
-21.812
-22.559
-23.282
-23.973
-24.628
-25.243
-25.813
-26.331
-26.79
-27.179
-27.491
-27.723
-27.876
-27.947
-27.943
-27.873
-27.753
-27.611
-27.466
-27.328
-27.202
-27.085
-26.974
-26.871
-26.772
-26.674
-26.573
-26.459
-26.328
-26.183
-26.013
-25.798
-25.506
-25.081
-24.493
-23.735
-22.805
-21.726
-20.522
-19.216
-17.85
-16.483
-15.163
-13.944
-12.864
-11.938
-11.205
-10.713
-10.523
-10.715
-11.332
-12.377
-13.845
-15.716
-17.954
-20.523
-23.355
-26.341
-29.393
-32.425
-35.369
-38.189
-40.831
-43.222
-45.294
-46.991
-48.301
-49.264
-49.923
-50.301
-50.425
-50.336
-50.121
-49.911
-49.821
-49.953
-50.365
-51.113
-52.331
-54.069
-56.26
-58.707
-60.988
-62.673
-63.491
-63.107
-61.074
-57.301
-51.933
-45.427
-38.894
-33.236
-28.939
-26.796
-27.533
-31.038
-36.707
-43.068
-47.443
-47.706
-42.044
-27.757
-2.362
35.837
86.008
143.888
204.775
264.354
323.671
388.424
457.48
526.631
583.414
604.057
577.412
499.463
373.411
224.449
74.557
-56.242
-144.761
-188.95
-194.971
-173.908
-147.236
-125.236
-109.913
-100.157
-88.944
-74.696
-60.252
-48.047
-41.285
-40.339
-43.169
-48.099
-53.229
-57.02
-59.008
-59.068
-57.393
-54.563
-51.144
-47.591
-44.426
-42.143
-40.951
-40.876
-41.801
-43.464
-45.649
-48.198
-50.937
-53.689
-56.319
-58.7
-60.734
-62.386
-63.625
-64.425
-64.78
-64.687
-64.157
-63.229
-61.946
-60.352
-58.487
-56.388
-54.085
-51.622
-49.043
-46.396
-43.728
-41.07
-38.445
-35.87
-33.356
-30.908
-28.53
-26.211
-23.937
-21.7
-19.491
-17.306
-15.14
-12.986
-10.834
-8.677
-6.506
-4.315
-2.099
0.148
2.429
4.748
7.107
9.504
11.94
14.413
16.923
19.471
22.056
24.677
27.33
30.016
32.73
35.468
38.227
40.999
43.779
46.558
49.329
52.084
54.811
57.502
60.146
62.731
65.246
67.68
70.018
72.25
74.361
76.341
78.175
79.851
81.356
82.68
83.809
84.735
85.447
85.936
86.195
86.216
85.994
85.525
84.804
83.83
82.601
81.118
79.382
77.396
75.165
72.695
69.992
67.065
63.923
60.577
57.039
53.321
49.436
45.399
41.224
36.927
32.524
28.031
23.466
18.844
14.185
9.505
4.821
0.152
-4.487
-9.078
-13.606
-18.055
-22.411
-26.659
-30.786
-34.779
-38.628
-42.322
-45.85
-49.205
-52.379
-55.367
-58.162
-60.763
-63.165
-65.368
-67.37
-69.172
-70.775
-72.181
-73.392
-74.413
-75.246
-75.898
-76.373
-76.678
-76.82
-76.807
-76.646
-76.346
-75.916
-75.365
-74.701
-73.936
-73.077
-72.135
-71.119
-70.038
-68.902
-67.72
-66.501
-65.253
-63.984
-62.702
-61.414
-60.126
-58.844
-57.575
-56.323
-55.094
-53.891
-52.72
-51.585
-50.49
-49.438
-48.432
-47.475
-46.568
-45.715
-44.915
-44.169
-43.478
-42.84
-42.256
-41.724
-41.242
-40.808
-40.419
-40.072
-39.763
-39.487
-39.241
-39.019
-38.816
-38.628
-38.449
-38.275
-38.099
-37.918
-37.724
-37.513
-37.28
-37.017
-36.718
-36.378
-35.99
-35.547
-35.042
-34.471
-33.826
-33.101
-32.292
-31.393
-30.399
-29.306
-28.11
-26.809
-25.4
-23.883
-22.258
-20.525
-18.688
-16.749
-14.713
-12.587
-10.375
-8.083
-5.72
-3.293
-0.81
1.719
4.286
6.881
9.492
12.108
14.713
17.297
19.846
22.347
24.785
27.146
29.414
31.576
33.623
35.543
37.323
38.951
40.414
41.701
42.811
43.741
44.488
45.056
45.446
45.67
45.745
45.689
45.517
45.244
44.877
44.427
43.908
43.337
42.735
42.118
41.495
40.875
40.272
39.691
39.131
38.582
38.014
37.392
36.678
35.844
34.869
33.748
32.485
31.066
29.461
27.642
25.579
23.252
20.658
17.771
14.532
10.974
7.259
3.661
0.596
-1.568
-2.613
-2.301
-0.313
3.488
8.948
15.583
22.478
28.731
33.86
37.451
38.937
38.107
35.3
31.439
28.327
28.162
32.581
42.97
61.294
89.177
127.403
176.366
233.429
293.114
351.419
404.375
451.479
497.276
540.778
578.439
601.434
591.814
541.811
448.372
313.616
158.774
0.94
-141.625
-242.692
-295.771
-297.8
-249.406
-173.673
-88.384
-10.711
37.745
56.059
49.694
27.659
7.898
-2.425
-3.435
2.11
6.219
5.778
2.002
-3.063
-5.721
-4.675
-0.881
4.495
9.728
13.798
16.594
17.905
17.548
15.557
11.987
7.15
1.649
-4.099
-9.857
-15.43
-20.754
-25.781
-30.423
-34.661
-38.525
-42.006
-45.089
-47.758
-49.963
-51.702
-53.008
-53.931
-54.558
-54.968
-55.225
-55.392
-55.504
-55.583
-55.644
-55.694
-55.731
-55.761
-55.788
-55.812
-55.836
-55.856
-55.858
-55.818
-55.699
-55.468
-55.094
-54.554
-53.831
-52.916
-51.802
-50.489
-48.981
-47.283
-45.395
-43.321
-41.06
-38.613
-35.986
-33.186
-30.221
-27.105
-23.85
-20.468
-16.974
-13.381
-9.704
-5.958
-2.156
1.69
5.564
9.452
13.338
17.205
21.034
24.811
28.517
32.131
35.636
39.011
42.237
45.296
48.173
50.853
53.32
55.56
57.563
59.32
60.82
62.055
63.012
63.676
64.038
64.098
63.858
63.329
62.521
61.44
60.1
58.521
56.716
54.695
52.458
49.993
47.299
44.383
41.262
37.964
34.507
30.895
27.135
23.228
19.174
14.98
10.64
6.128
1.446
-3.39
-8.337
-13.323
-18.295
-23.219
-28.065
-32.818
-37.453
-41.929
-46.213
-50.279
-54.092
-57.621
-60.817
-63.603
-65.943
-67.827
-69.276
-70.351
-71.094
-71.527
-71.672
-71.547
-71.173
-70.583
-69.797
-68.821
-67.677
-66.391
-65.008
-63.597
-62.198
-60.825
-59.473
-58.111
-56.72
-55.297
-53.835
-52.327
-50.771
-49.161
-47.508
-45.834
-44.15
-42.462
-40.763
-39.036
-37.275
-35.488
-33.687
-31.897
-30.134
-28.41
-26.74
-25.139
-23.618
-22.185
-20.839
-19.572
-18.379
-17.26
-16.216
-15.253
-14.371
-13.569
-12.846
-12.198
-11.624
-11.12
-10.683
-10.307
-9.986
-9.719
-9.501
-9.333
-9.214
-9.14
-9.109
-9.118
-9.165
-9.246
-9.358
-9.497
-9.658
-9.838
-10.034
-10.243
-10.463
-10.691
-10.924
-11.162
-11.401
-11.639
-11.875
-12.104
-12.324
-12.531
-12.722
-12.894
-13.043
-13.165
-13.259
-13.322
-13.352
-13.349
-13.313
-13.246
-13.148
-13.022
-12.87
-12.694
-12.497
-12.283
-12.054
-11.816
-11.57
-11.323
-11.081
-10.849
-10.635
-10.445
-10.284
-10.159
-10.076
-10.042
-10.065
-10.149
-10.302
-10.532
-10.848
-11.263
-11.786
-12.422
-13.171
-14.029
-14.989
-16.043
-17.18
-18.378
-19.621
-20.889
-22.164
-23.435
-24.69
-25.913
-27.087
-28.188
-29.196
-30.111
-30.936
-31.682
-32.376
-33.039
-33.704
-34.431
-35.273
-36.287
-37.542
-39.081
-40.938
-43.151
-45.733
-48.712
-52.11
-55.896
-60.028
-64.462
-69.11
-73.964
-79.049
-84.213
-89.275
-94.006
-97.988
-100.844
-102.224
-101.536
-98.277
-92.456
-84.141
-73.72
-62.311
-51.157
-41.725
-35.914
-33.85
-33.439
-33.17
-32.347
-33.113
-39.593
-51.282
-60.556
-54.413
-22.09
40.073
125.343
219.784
315.795
408.133
490.805
559.345
599.572
595.163
541.567
438.309
293.538
129.027
-37
-184.066
-288.462
-343.734
-350.272
-314.977
-257.599
-191.486
-127.431
-78.275
-47.923
-37.962
-46.227
-61.481
-75.073
-82.281
-81.63
-78.527
-77.196
-78.127
-80.539
-81.445
-78.924
-73.741
-67.414
-61.371
-56.519
-52.96
-50.485
-49.106
-48.944
-49.83
-51.382
-53.278
-55.205
-57.003
-58.67
-60.11
-61.213
-61.939
-62.278
-62.241
-61.868
-61.169
-60.144
-58.817
-57.212
-55.36
-53.301
-51.062
-48.68
-46.194
-43.645
-41.077
-38.518
-35.991
-33.51
-31.088
-28.725
-26.422
-24.168
-21.946
-19.747
-17.563
-15.382
-13.195
-10.991
-8.758
-6.486
-4.166
-1.788
0.653
3.165
5.752
8.417
11.16
13.983
16.882
19.858
22.908
26.031
29.225
32.487
35.812
39.197
42.637
46.126
49.655
53.216
56.799
60.395
63.993
67.581
71.146
74.677
78.16
81.58
84.925
88.179
91.327
94.355
97.248
99.991
102.57
104.971
107.181
109.187
110.978
112.542
113.87
114.952
115.782
116.352
116.657
116.694
116.459
115.951
115.172
114.122
112.805
111.226
109.392
107.31
104.988
102.438
99.671
96.7
93.538
90.2
86.701
83.059
79.291
75.413
71.444
67.402
63.306
59.173
55.022
50.872
46.739
42.642
38.597
34.621
30.729
26.937
23.257
19.703
16.285
13.016
9.903
6.954
4.176
1.575
-0.845
-3.082
-5.133
-7
-8.682
-10.181
-11.501
-12.647
-13.623
-14.435
-15.091
-15.598
-15.963
-16.195
-16.302
-16.295
-16.183
-15.975
-15.682
-15.314
-14.881
-14.395
-13.865
-13.302
-12.714
-12.111
-11.502
-10.895
-10.297
-9.716
-9.158
-8.628
-8.133
-7.675
-7.26
-6.889
-6.566
-6.292
-6.067
-5.892
-5.767
-5.693
-5.668
-5.691
-5.763
-5.881
-6.044
-6.251
-6.499
-6.786
-7.11
-7.467
-7.854
-8.268
-8.706
-9.164
-9.638
-10.126
-10.623
-11.127
-11.633
-12.138
-12.64
-13.135
-13.62
-14.092
-14.549
-14.989
-15.41
-15.81
-16.187
-16.541
-16.869
-17.17
-17.441
-17.681
-17.888
-18.06
-18.194
-18.288
-18.341
-18.353
-18.32
-18.243
-18.12
-17.952
-17.738
-17.481
-17.179
-16.835
-16.451
-16.03
-15.575
-15.088
-14.575
-14.039
-13.485
-12.92
-12.35
-11.78
-11.218
-10.669
-10.142
-9.643
-9.177
-8.753
-8.374
-8.047
-7.78
-7.58
-7.455
-7.413
-7.459
-7.599
-7.839
-8.183
-8.63
-9.179
-9.83
-10.583
-11.446
-12.423
-13.516
-14.725
-16.049
-17.483
-19.017
-20.636
-22.314
-24.027
-25.754
-27.474
-29.177
-30.846
-32.461
-33.997
-35.419
-36.692
-37.791
-38.691
-39.365
-39.807
-40.034
-40.08
-40.012
-39.884
-39.721
-39.559
-39.444
-39.43
-39.596
-40.014
-40.732
-41.831
-43.448
-45.645
-48.382
-51.47
-54.503
-57.065
-58.847
-59.5
-58.591
-55.927
-51.629
-46.202
-40.754
-36.363
-33.711
-33.51
-36.466
-42.737
-51.78
-62.137
-71.209
-76.38
-75.313
-65.371
-43.93
-8.707
39.928
98.396
162.665
228.222
294.997
367.623
444.709
521.261
584.959
613.771
595.238
524.459
406.379
263.403
117.431
-10.169
-102.702
-159.139
-185.385
-193.64
-195.986
-196.241
-193.121
-181.558
-158.807
-127.378
-92.311
-59.828
-33.894
-15.752
-5.815
-3.481
-7.766
-17.363
-30.264
-44.46
-58.188
-70.124
-79.326
-85.233
-87.759
-87.307
-84.663
-80.798
-76.763
-73.261
-70.725
-69.435
-69.393
-70.459
-72.404
-74.828
-77.24
-79.347
-81.002
-82.137
-82.815
-83.068
-82.898
-82.372
-81.576
-80.561
-79.36
-77.977
-76.389
-74.609
-72.673
-70.623
-68.511
-66.368
-64.206
-62.036
-59.865
-57.697
-55.536
-53.379
-51.214
-49.038
-46.849
-44.647
-42.433
-40.202
-37.944
-35.646
-33.295
-30.881
-28.398
-25.842
-23.209
-20.498
-17.707
-14.839
-11.896
-8.882
-5.796
-2.643
0.578
3.861
7.201
10.593
14.029
17.501
21.001
24.519
28.044
31.566
35.074
38.557
42.003
45.4
48.735
51.995
55.167
58.237
61.192
64.018
66.703
69.232
71.594
73.777
75.769
77.561
79.144
80.509
81.65
82.56
83.236
83.674
83.871
83.828
83.545
83.024
82.268
81.281
80.07
78.64
76.999
75.157
73.121
70.902
68.512
65.961
63.263
60.43
57.477
54.418
51.267
48.039
44.75
41.415
38.048
34.665
31.281
27.908
24.563
21.256
18.002
14.81
11.693
8.66
5.718
2.877
0.143
-2.48
-4.986
-7.371
-9.632
-11.768
-13.776
-15.656
-17.408
-19.033
-20.533
-21.909
-23.166
-24.307
-25.338
-26.262
-27.087
-27.818
-28.463
-29.028
-29.521
-29.949
-30.322
-30.645
-30.928
-31.179
-31.405
-31.613
-31.809
-32.001
-32.194
-32.392
-32.601
-32.823
-33.063
-33.324
-33.608
-33.919
-34.257
-34.625
-35.024
-35.455
-35.919
-36.414
-36.941
-37.499
-38.086
-38.701
-39.343
-40.009
-40.697
-41.405
-42.129
-42.866
-43.613
-44.367
-45.124
-45.88
-46.633
-47.379
-48.115
-48.839
-49.55
-50.247
-50.927
-51.59
-52.235
-52.861
-53.469
-54.056
-54.624
-55.17
-55.695
-56.198
-56.679
-57.138
-57.575
-57.989
-58.379
-58.746
-59.088
-59.406
-59.699
-59.965
-60.204
-60.416
-60.601
-60.759
-60.888
-60.99
-61.062
-61.105
-61.119
-61.102
-61.052
-60.968
-60.85
-60.695
-60.504
-60.276
-60.01
-59.707
-59.369
-58.997
-58.595
-58.165
-57.711
-57.237
-56.747
-56.244
-55.734
-55.218
-54.703
-54.191
-53.688
-53.202
-52.736
-52.298
-51.896
-51.533
-51.218
-50.955
-50.745
-50.591
-50.494
-50.46
-50.499
-50.623
-50.835
-51.141
-51.545
-52.048
-52.643
-53.316
-54.037
-54.778
-55.512
-56.211
-56.862
-57.444
-57.933
-58.304
-58.522
-58.556
-58.39
-58.008
-57.394
-56.548
-55.489
-54.275
-53.002
-51.774
-50.673
-49.769
-49.127
-48.826
-48.959
-49.622
-50.896
-52.797
-55.358
-58.671
-62.737
-67.476
-72.658
-77.784
-82.411
-86.293
-89.058
-90.225
-89.605
-87.127
-83.105
-78.617
-74.322
-70.233
-67.031
-65.624
-65.987
-68.098
-69.934
-66.649
-56.785
-40.848
-19.766
2.31
27.697
62.659
110.01
174.787
253.08
336.532
423.623
505.424
576.66
631.755
650.121
622.137
542.626
410.17
248.878
82.229
-66.996
-171.79
-228.328
-242.436
-225.727
-200.72
-177.536
-157.793
-140.346
-118.112
-90.396
-61.748
-36.064
-18.141
-10.184
-11.054
-19.001
-31.543
-45.744
-59.308
-70.884
-79.558
-84.529
-85.6
-83.053
-77.572
-70.567
-63.501
-57.137
-51.935
-48.269
-46.201
-45.713
-46.684
-48.612
-50.908
-53.241
-55.391
-57.232
-58.766
-59.957
-60.754
-61.208
-61.385
-61.325
-61.059
-60.585
-59.879
-58.946
-57.807
-56.489
-55.036
-53.489
-51.883
-50.257
-48.636
-47.038
-45.475
-43.954
-42.475
-41.031
-39.611
-38.2
-36.791
-35.371
-33.931
-32.455
-30.926
-29.327
-27.644
-25.866
-23.981
-21.983
-19.863
-17.616
-15.241
-12.737
-10.105
-7.35
-4.474
-1.482
1.621
4.829
8.135
11.529
15.003
18.547
22.15
25.801
29.487
33.193
36.907
40.613
44.295
47.94
51.531
55.052
58.488
61.823
65.042
68.129
71.071
73.853
76.462
78.884
81.109
83.125
84.924
86.496
87.837
88.939
89.801
90.418
90.791
90.919
90.805
90.451
89.862
89.042
87.998
86.737
85.269
83.602
81.748
79.717
77.522
75.175
72.689
70.077
67.354
64.533
61.628
58.654
55.625
52.555
49.46
46.353
43.247
40.158
37.097
34.078
31.111
28.21
25.383
22.641
19.994
17.449
15.015
12.699
10.508
8.446
6.52
4.733
3.089
1.59
0.239
-0.964
-2.017
-2.92
-3.673
-4.278
-4.736
-5.048
-5.218
-5.247
-5.139
-4.898
-4.527
-4.033
-3.418
-2.69
-1.853
-0.913
0.124
1.251
2.461
3.749
5.106
6.525
8
9.522
11.084
12.678
14.297
15.934
17.581
19.231
20.878
22.515
24.135
25.733
27.302
28.837
30.331
31.78
33.178
34.52
35.802
37.019
38.167
39.243
40.243
41.165
42.006
42.765
43.439
44.027
44.53
44.947
45.279
45.527
45.694
45.781
45.792
45.731
45.6
45.405
45.15
44.839
44.478
44.072
43.626
43.146
42.637
42.105
41.557
40.999
40.437
39.877
39.326
38.79
38.276
37.789
37.337
36.925
36.558
36.244
35.986
35.789
35.657
35.595
35.605
35.688
35.846
36.079
36.386
36.765
37.213
37.726
38.3
38.929
39.606
40.326
41.079
41.859
42.656
43.464
44.272
45.074
45.858
46.617
47.34
48.018
48.642
49.2
49.681
50.076
50.375
50.571
50.66
50.636
50.492
50.219
49.809
49.26
48.571
47.739
46.767
45.659
44.429
43.103
41.713
40.285
38.844
37.409
35.998
34.636
33.348
32.163
31.106
30.193
29.435
28.85
28.446
28.221
28.14
28.125
28.093
27.966
27.683
27.214
26.519
25.536
24.207
22.477
20.289
17.636
14.474
10.678
6.249
1.307
-3.87
-8.735
-12.739
-15.483
-16.452
-15.078
-11.209
-4.985
2.969
11.288
18.742
24.39
27.073
25.87
20.832
12.781
3.591
-3.663
-5.838
0.087
17.554
49.904
97.227
156.449
224.295
296.113
371.807
456.377
547.275
636.286
707.849
738.857
717.353
643.551
527.953
390.879
251.286
124.239
19.351
-58.985
-113.002
-148.421
-168.115
-173.854
-161.244
-128.49
-83.612
-36.747
-2.509
12.32
14.224
9.654
6.222
6.771
5.995
1.813
-5.65
-15.397
-23.783
-28.983
-30.861
-29.434
-25.515
-20.248
-14.82
-10.063
-6.372
-3.914
-2.687
-2.69
-3.928
-6.127
-8.774
-11.507
-14.102
-16.424
-18.466
-20.182
-21.489
-22.384
-22.919
-23.136
-23.078
-22.771
-22.205
-21.398
-20.381
-19.19
-17.865
-16.45
-14.984
-13.505
-12.052
-10.651
-9.32
-8.07
-6.906
-5.826
-4.821
-3.876
-2.979
-2.115
-1.272
-0.436
0.411
1.285
2.201
3.174
4.215
5.336
6.545
7.852
9.262
10.778
12.403
14.135
15.975
17.921
19.972
22.123
24.371
26.711
29.135
31.636
34.207
36.838
39.516
42.231
44.969
47.715
50.456
53.175
55.857
58.486
61.044
63.515
65.882
68.128
70.237
72.191
73.977
75.579
76.984
78.178
79.152
79.894
80.395
80.65
80.651
80.394
79.877
79.098
78.058
76.759
75.204
73.399
71.348
69.06
66.544
63.81
60.87
57.737
54.424
50.946
47.318
43.558
39.682
35.707
31.652
27.534
23.372
19.183
14.985
10.795
6.63
2.505
-1.564
-5.563
-9.48
-13.301
-17.016
-20.613
-24.086
-27.424
-30.623
-33.675
-36.578
-39.326
-41.918
-44.352
-46.629
-48.748
-50.711
-52.521
-54.18
-55.694
-57.067
-58.306
-59.416
-60.407
-61.285
-62.059
-62.738
-63.329
-63.843
-64.287
-64.671
-65.003
-65.291
-65.543
-65.767
-65.97
-66.159
-66.339
-66.518
-66.7
-66.891
-67.094
-67.314
-67.555
-67.818
-68.109
-68.429
-68.779
-69.163
-69.582
-70.035
-70.525
-71.05
-71.61
-72.204
-72.831
-73.489
-74.177
-74.892
-75.632
-76.397
-77.182
-77.987
-78.81
-79.648
-80.5
-81.364
-82.239
-83.123
-84.015
-84.913
-85.817
-86.726
-87.638
-88.553
-89.469
-90.385
-91.299
-92.209
-93.114
-94.01
-94.897
-95.771
-96.63
-97.473
-98.298
-99.102
-99.882
-100.638
-101.365
-102.063
-102.727
-103.355
-103.944
-104.491
-104.992
-105.445
-105.846
-106.192
-106.479
-106.704
-106.864
-106.955
-106.973
-106.918
-106.786
-106.575
-106.285
-105.916
-105.471
-104.951
-104.36
-103.701
-102.979
-102.198
-101.365
-100.486
-99.566
-98.612
-97.63
-96.63
-95.619
-94.608
-93.606
-92.623
-91.668
-90.75
-89.882
-89.074
-88.337
-87.68
-87.111
-86.64
-86.276
-86.034
-85.924
-85.949
-86.113
-86.416
-86.855
-87.43
-88.131
-88.939
-89.833
-90.787
-91.777
-92.791
-93.807
-94.805
-95.762
-96.645
-97.437
-98.128
-98.713
-99.19
-99.562
-99.828
-100.011
-100.167
-100.359
-100.673
-101.182
-101.938
-102.987
-104.359
-106.1
-108.256
-110.831
-113.816
-117.193
-120.934
-125.09
-129.73
-134.747
-139.933
-144.981
-149.411
-152.802
-154.739
-154.621
-152.008
-146.91
-139.554
-130.495
-120.842
-111.81
-104.718
-101.116
-100.519
-100.241
-98.319
-93.738
-89.023
-89.072
-93.108
-93.319
-77.274
-33.595
40.007
133.689
233.643
331.284
419.242
495.445
555.933
583.634
568.212
502.939
385.865
237.306
77.632
-71.385
-182.959
-250.211
-274.849
-266.195
-246.02
-225.415
-207.91
-193.637
-175.691
-153.165
-129.543
-107.809
-92.667
-86.085
-87.116
-94.349
-104.946
-115.682
-124.901
-131.804
-136.005
-137.513
-136.113
-131.844
-125.638
-118.974
-112.872
-107.794
-103.842
-100.885
-99.051
-98.471
-98.917
-99.906
-101.003
-101.95
-102.653
-103.123
-103.295
-103.058
-102.367
-101.239
-99.726
-97.868
-95.673
-93.134
-90.252
-87.061
-83.617
-79.97
-76.171
-72.262
-68.273
-64.251
-60.244
-56.289
-52.425
-48.685
-45.083
-41.646
-38.406
-35.367
-32.524
-29.846
-27.269
-24.747
-22.249
-19.747
-17.232
-14.684
-12.066
-9.353
-6.521
-3.543
-0.395
2.966
6.604
10.551
14.807
19.345
24.097
29.015
34.074
39.243
44.503
49.827
55.178
60.532
65.876
71.185
76.428
81.554
86.488
91.186
95.627
99.809
103.761
107.495
111.009
114.305
117.386
120.252
122.904
125.33
127.506
129.418
131.064
132.447
133.59
134.5
135.173
135.6
135.763
135.651
135.26
134.585
133.617
132.357
130.807
128.979
126.896
124.574
122.028
119.273
116.32
113.183
109.884
106.44
102.874
99.206
95.456
91.648
87.805
83.949
80.099
76.273
72.488
68.758
65.1
61.528
58.057
54.699
51.467
48.372
45.424
42.634
40.008
37.554
35.276
33.176
31.258
29.522
27.968
26.594
25.396
24.371
23.514
22.819
22.278
21.885
21.631
21.509
21.508
21.619
21.833
22.141
22.531
22.994
23.52
24.1
24.723
25.38
26.062
26.76
27.466
28.172
28.87
29.552
30.213
30.846
31.446
32.006
32.524
32.995
33.416
33.785
34.099
34.358
34.561
34.708
34.799
34.834
34.814
34.739
34.611
34.431
34.2
33.919
33.591
33.218
32.802
32.345
31.85
31.319
30.756
30.161
29.538
28.889
28.217
27.522
26.809
26.079
25.334
24.578
23.812
23.039
22.262
21.481
20.699
19.918
19.139
18.364
17.594
16.832
16.079
15.339
14.613
13.904
13.215
12.548
11.905
11.289
10.701
10.143
9.615
9.121
8.66
8.235
7.846
7.493
7.179
6.902
6.662
6.458
6.288
6.151
6.044
5.966
5.91
5.874
5.853
5.842
5.836
5.829
5.814
5.785
5.737
5.664
5.561
5.421
5.238
5.005
4.714
4.359
3.935
3.435
2.855
2.19
1.442
0.611
-0.304
-1.305
-2.401
-3.598
-4.899
-6.309
-7.827
-9.451
-11.171
-12.973
-14.829
-16.715
-18.607
-20.484
-22.334
-24.139
-25.879
-27.529
-29.057
-30.428
-31.622
-32.612
-33.377
-33.916
-34.254
-34.436
-34.54
-34.633
-34.757
-34.968
-35.324
-35.894
-36.763
-38.001
-39.656
-41.804
-44.572
-48.009
-52.061
-56.521
-60.96
-64.946
-68.137
-70.149
-70.519
-68.999
-65.658
-60.964
-55.991
-51.813
-49.156
-48.762
-51.336
-57.101
-65.611
-75.473
-84.12
-88.852
-87.182
-76.378
-53.903
-17.468
33.078
94.532
162.828
233.512
304.726
379.046
455.711
528.542
587.765
617.63
605.066
547.905
447.121
309.361
151.493
-11.566
-159.98
-268.807
-328.701
-338.005
-302.843
-243.168
-173.425
-104.638
-49.422
-12.102
6.007
6.784
-0.347
-7.716
-11.996
-13.185
-15.993
-23.248
-33.931
-45.677
-54.708
-58.963
-58.762
-54.949
-48.843
-41.803
-34.806
-28.574
-23.703
-20.43
-18.695
-18.386
-19.256
-20.883
-22.808
-24.686
-26.268
-27.47
-28.319
-28.815
-28.958
-28.78
-28.327
-27.646
-26.769
-25.699
-24.421
-22.936
-21.261
-19.432
-17.493
-15.487
-13.451
-11.411
-9.384
-7.384
-5.421
-3.498
-1.617
0.233
2.062
3.883
5.703
7.533
9.384
11.27
13.214
15.235
17.351
19.581
21.936
24.424
27.05
29.813
32.709
35.729
38.859
42.074
45.361
48.706
52.099
55.536
59.008
62.498
65.994
69.479
72.946
76.396
79.834
83.263
86.702
90.176
93.722
97.39
101.213
105.202
109.362
113.676
118.134
122.733
127.455
132.27
137.142
142.019
146.85
151.588
156.156
160.454
164.37
167.771
170.551
172.637
173.966
174.493
174.172
172.947
170.795
167.719
163.728
158.841
153.08
146.45
139.003
130.831
122.043
112.774
103.141
93.231
83.146
72.983
62.85
52.87
43.134
33.697
24.623
15.97
7.808
0.225
-6.731
-13.055
-18.751
-23.846
-28.362
-32.301
-35.698
-38.603
-41.078
-43.204
-45.038
-46.603
-47.935
-49.072
-50.058
-50.961
-51.821
-52.647
-53.451
-54.233
-54.999
-55.759
-56.502
-57.194
-57.797
-58.26
-58.554
-58.669
-58.593
-58.314
-57.822
-57.096
-56.134
-54.947
-53.546
-51.94
-50.141
-48.156
-46.007
-43.727
-41.352
-38.922
-36.467
-34.011
-31.576
-29.182
-26.849
-24.594
-22.43
-20.362
-18.4
-16.551
-14.827
-13.238
-11.789
-10.482
-9.319
-8.299
-7.425
-6.698
-6.119
-5.689
-5.408
-5.278
-5.3
-5.476
-5.806
-6.287
-6.916
-7.69
-8.604
-9.655
-10.836
-12.141
-13.565
-15.1
-16.741
-18.479
-20.307
-22.216
-24.196
-26.239
-28.335
-30.477
-32.656
-34.864
-37.093
-39.337
-41.591
-43.847
-46.099
-48.336
-50.551
-52.736
-54.88
-56.976
-59.014
-60.987
-62.889
-64.716
-66.468
-68.14
-69.728
-71.227
-72.629
-73.929
-75.127
-76.223
-77.22
-78.128
-78.961
-79.741
-80.494
-81.236
-81.981
-82.733
-83.487
-84.241
-84.988
-85.72
-86.436
-87.137
-87.819
-88.486
-89.137
-89.758
-90.328
-90.808
-91.148
-91.319
-91.303
-91.094
-90.715
-90.196
-89.578
-88.919
-88.265
-87.649
-87.108
-86.653
-86.294
-86.044
-85.93
-85.992
-86.291
-86.868
-87.744
-88.927
-90.387
-92.073
-93.914
-95.818
-97.697
-99.484
-101.123
-102.596
-103.925
-105.136
-106.258
-107.297
-108.219
-109.01
-109.694
-110.303
-110.905
-111.594
-112.442
-113.58
-115.207
-117.381
-120.036
-122.962
-125.677
-127.734
-128.881
-128.742
-126.903
-123.357
-118.293
-112.328
-106.766
-102.562
-100.187
-100.303
-103.356
-109.031
-116.658
-124.59
-129.852
-130.068
-123.463
-107.791
-81.194
-42.65
8.604
70.311
136.842
203.829
266.874
325.192
382.951
438.811
488.903
523.864
525.599
485.737
401.774
276.787
131.135
-17.036
-149.909
-245.883
-300.581
-316.703
-302.484
-276.525
-248.423
-221.069
-194.534
-163.574
-128.102
-92.157
-59.879
-36.301
-23.191
-19.461
-23.788
-33.726
-46.692
-60.809
-73.867
-84.075
-90.736
-93.552
-92.653
-88.836
-83.043
-76.281
-69.865
-64.71
-61.157
-59.366
-59.173
-60.238
-62.279
-64.881
-67.499
-69.803
-71.633
-72.917
-73.731
-74.125
-74.081
-73.624
-72.781
-71.564
-70.003
-68.124
-65.952
-63.531
-60.914
-58.162
-55.345
-52.507
-49.678
-46.871
-44.08
-41.307
-38.563
-35.859
-33.214
-30.64
-28.136
-25.695
-23.304
-20.945
-18.604
-16.26
-13.886
-11.464
-8.98
-6.428
-3.814
-1.135
1.613
4.434
7.329
10.298
13.339
16.453
19.642
22.911
26.261
29.685
33.177
36.732
40.338
43.983
47.644
51.289
54.892
58.436
61.911
65.312
68.637
71.879
75.036
78.11
81.101
84.012
86.838
89.565
92.194
94.744
97.247
99.758
102.315
104.936
107.637
110.425
113.29
116.212
119.143
122.012
124.758
127.328
129.676
131.774
133.574
135.01
136.007
136.477
136.34
135.544
134.026
131.724
128.619
124.728
120.109
114.873
109.119
102.937
96.424
89.673
82.783
75.862
69.015
62.338
55.934
49.899
44.341
39.381
35.096
31.515
28.632
26.396
24.749
23.642
23.001
22.739
22.78
23.051
23.501
24.096
24.789
25.525
26.238
26.851
27.313
27.6
27.704
27.635
27.416
27.07
26.644
26.202
25.792
25.444
25.176
24.982
24.866
24.843
24.922
25.117
25.437
25.881
26.45
27.142
27.948
28.851
29.825
30.832
31.844
32.844
33.819
34.766
35.68
36.554
37.385
38.174
38.918
39.615
40.258
40.839
41.354
41.801
42.181
42.499
42.758
42.957
43.098
43.181
43.207
43.176
43.084
42.929
42.709
42.423
42.072
41.656
41.177
40.635
40.031
39.365
38.64
37.855
37.011
36.108
35.148
34.132
33.062
31.943
30.778
29.572
28.33
27.058
25.761
24.445
23.113
21.773
20.428
19.085
17.748
16.423
15.114
13.831
12.581
11.369
10.202
9.084
8.019
7.012
6.068
5.187
4.372
3.623
2.942
2.338
1.817
1.38
1.024
0.736
0.509
0.334
0.204
0.108
0.028
-0.048
-0.124
-0.192
-0.243
-0.275
-0.296
-0.325
-0.377
-0.462
-0.574
-0.701
-0.843
-0.996
-1.155
-1.303
-1.412
-1.468
-1.486
-1.5
-1.544
-1.639
-1.783
-1.956
-2.146
-2.342
-2.544
-2.757
-2.971
-3.179
-3.384
-3.599
-3.852
-4.158
-4.491
-4.805
-5.064
-5.239
-5.337
-5.397
-5.456
-5.564
-5.776
-6.131
-6.67
-7.415
-8.381
-9.591
-11.051
-12.791
-14.866
-17.297
-20.138
-23.473
-27.249
-31.29
-35.263
-38.59
-40.731
-41.274
-39.746
-35.835
-29.586
-21.246
-11.682
-2.292
5.712
11.132
12.925
10.945
5.757
-1.513
-8.405
-11.773
-8.634
4.472
30.467
70.439
124.283
190.435
265.058
343.261
419.587
487.174
539.498
571.759
580.195
563.017
521.149
457.112
375.102
281.444
182.917
85.997
-2.762
-77.951
-136.008
-175.027
-195.135
-198.205
-186.812
-164.416
-135.452
-104.495
-75.74
-52.072
-34.745
-24.296
-20.982
-24.161
-32.342
-43.33
-54.456
-64.041
-71.527
-76.495
-78.555
-77.701
-74.222
-69.008
-63.522
-58.616
-54.519
-51.405
-49.333
-48.333
-48.468
-49.478
-50.789
-52.025
-52.979
-53.526
-53.697
-53.487
-52.838
-51.784
-50.412
-48.811
-47.098
-45.333
-43.506
-41.606
-39.601
-37.482
-35.281
-33.028
-30.752
-28.482
-26.222
-23.98
-21.772
-19.597
-17.44
-15.269
-13.015
-10.636
-8.122
-5.483
-2.755
0.041
2.905
5.834
8.822
11.866
14.957
18.102
21.318
24.614
27.986
31.422
34.894
38.389
41.905
45.449
49.037
52.678
56.376
60.136
63.967
67.872
71.85
75.891
79.979
84.097
88.237
92.387
96.541
100.689
104.814
108.902
112.937
116.902
120.779
124.551
128.197
131.698
135.038
138.199
141.17
143.937
146.486
148.803
150.878
152.698
154.253
155.535
156.533
157.24
157.65
157.759
157.564
157.062
156.256
155.145
153.733
152.026
150.03
147.751
145.2
142.386
139.322
136.021
132.497
128.764
124.841
120.743
116.489
112.098
107.588
102.98
98.293
93.545
88.756
83.944
79.129
74.326
69.552
64.825
60.16
55.57
51.07
46.671
42.386
38.223
34.192
30.301
26.555
22.961
19.522
16.24
13.118
10.155
7.351
4.704
2.21
-0.136
-2.338
-4.404
-6.34
-8.155
-9.858
-11.457
-12.963
-14.384
-15.732
-17.014
-18.242
-19.423
-20.567
-21.683
-22.778
-23.86
-24.935
-26.009
-27.089
-28.178
-29.282
-30.403
-31.546
-32.711
-33.902
-35.12
-36.364
-37.635
-38.933
-40.256
-41.602
-42.969
-44.353
-45.751
-47.16
-48.575
-49.991
-51.404
-52.808
-54.199
-55.571
-56.921
-58.242
-59.531
-60.783
-61.994
-63.162
-64.282
-65.352
-66.369
-67.332
-68.238
-69.086
-69.875
-70.602
-71.267
-71.868
-72.404
-72.874
-73.279
-73.616
-73.887
-74.089
-74.224
-74.291
-74.291
-74.223
-74.088
-73.886
-73.619
-73.286
-72.89
-72.43
-71.91
-71.329
-70.69
-69.996
-69.247
-68.446
-67.594
-66.696
-65.754
-64.77
-63.75
-62.697
-61.616
-60.517
-59.405
-58.291
-57.182
-56.09
-55.024
-53.995
-53.013
-52.089
-51.23
-50.446
-49.749
-49.149
-48.66
-48.294
-48.059
-47.968
-48.028
-48.25
-48.64
-49.201
-49.934
-50.842
-51.933
-53.222
-54.723
-56.442
-58.387
-60.558
-62.95
-65.559
-68.369
-71.352
-74.48
-77.724
-81.059
-84.469
-87.936
-91.434
-94.923
-98.351
-101.667
-104.836
-107.823
-110.604
-113.176
-115.545
-117.744
-119.835
-121.867
-123.9
-125.999
-128.225
-130.653
-133.362
-136.429
-139.975
-144.166
-149.076
-154.664
-160.761
-167.022
-173.105
-178.742
-183.59
-187.194
-189.292
-189.968
-189.678
-189.352
-189.897
-191.794
-195.399
-201.143
-209.112
-218.751
-228.77
-236.926
-240.686
-238.065
-227.37
-206.997
-175.544
-132.163
-77.107
-12.06
58.9
130.25
197.123
255.872
306.992
353.21
394.868
428.474
442.091
422.246
359.953
252.3
113.662
-34.335
-168.203
-262.725
-311.085
-318.908
-299.787
-276.384
-260.303
-253.696
-254.019
-252.973
-247.979
-241.171
-234.817
-232.12
-233.52
-237.089
-241.313
-244.553
-245.556
-244.102
-240.231
-234.251
-226.858
-218.728
-210.396
-202.411
-195.258
-189.164
-184.216
-180.364
-177.411
-175.182
-173.532
-172.301
-171.337
-170.514
-169.708
-168.803
-167.698
-166.288
-164.491
-162.262
-159.572
-156.42
-152.82
-148.797
-144.396
-139.67
-134.671
-129.448
-124.048
-118.516
-112.907
-107.281
-101.695
-96.203
-90.845
-85.647
-80.625
-75.788
-71.134
-66.659
-62.346
-58.179
-54.144
-50.228
-46.422
-42.716
-39.097
-35.552
-32.068
-28.63
-25.228
-21.851
-18.489
-15.135
-11.782
-8.424
-5.06
-1.686
1.701
5.104
8.527
11.972
15.44
18.932
22.447
25.985
29.542
33.114
36.696
40.28
43.859
47.424
50.966
54.475
57.941
61.353
64.699
67.967
71.147
74.226
77.193
80.034
82.74
85.297
87.696
89.926
91.977
93.84
95.506
96.968
98.221
99.257
100.074
100.667
101.035
101.178
101.095
100.788
100.261
99.517
98.563
97.405
96.051
94.51
92.793
90.909
88.871
86.69
84.379
81.95
79.418
76.795
74.095
71.332
68.521
65.675
62.809
59.935
57.068
54.222
51.408
48.639
45.927
43.283
40.719
38.242
35.863
33.591
31.431
29.392
27.478
25.695
24.047
22.536
21.164
19.933
18.844
17.897
17.089
16.421
15.891
15.496
15.233
15.099
15.091
15.203
15.432
15.771
16.215
16.757
17.391
18.11
18.905
19.771
20.699
21.682
22.711
23.78
24.88
26.003
27.143
28.291
29.441
30.587
31.721
32.837
33.93
34.995
36.025
37.017
37.964
38.863
39.709
40.498
41.226
41.889
42.485
43.01
43.463
43.842
44.148
44.381
44.541
44.63
44.651
44.607
44.5
44.336
44.117
43.85
43.539
43.189
42.806
42.396
41.965
41.519
41.064
40.606
40.151
39.705
39.274
38.865
38.483
38.136
37.829
37.568
37.362
37.214
37.132
37.12
37.181
37.321
37.54
37.841
38.223
38.687
39.23
39.849
40.542
41.303
42.129
43.012
43.945
44.923
45.938
46.982
48.047
49.122
50.197
51.261
52.306
53.318
54.287
55.201
56.051
56.826
57.52
58.123
58.626
59.021
59.299
59.451
59.472
59.355
59.097
58.696
58.156
57.481
56.681
55.762
54.727
53.577
52.311
50.929
49.435
47.831
46.129
44.345
42.497
40.618
38.736
36.878
35.07
33.333
31.687
30.16
28.784
27.595
26.634
25.942
25.558
25.505
25.779
26.359
27.208
28.278
29.539
30.945
32.422
33.903
35.304
36.536
37.555
38.256
38.453
38.077
37.163
35.899
34.739
34.115
34.309
35.756
38.91
43.823
50.298
57.611
64.332
69.252
71.466
69.948
64.065
54.168
41.315
27.693
16.584
11.207
14.765
30.6
61.612
107.488
164.841
230.117
298.438
369.514
447.939
530.987
612.158
678.042
705.692
683.35
608.166
486.619
342.107
196.615
70.538
-19.999
-74.106
-97.616
-102.7
-102.157
-100.67
-97.623
-88.141
-69.028
-42.413
-13.355
12.256
31.518
44.378
51.613
54.241
52.706
47.813
41.498
35.576
30.92
27.796
26.039
25.648
27.045
30.153
34.133
37.931
40.795
42.448
42.948
42.291
40.245
36.706
31.886
26.241
20.203
13.972
7.574
0.967
-5.819
-12.687
-19.57
-26.467
-33.366
-40.229
-46.976
-53.469
-59.606
-65.342
-70.657
-75.565
-80.089
-84.219
-87.94
-91.244
-94.11
-96.536
-98.524
-100.068
-101.183
-101.895
-102.242
-102.284
-102.067
-101.614
-100.939
-100.038
-98.903
-97.535
-95.935
-94.098
-92.024
-89.717
-87.182
-84.432
-81.474
-78.306
-74.923
-71.315
-67.476
-63.414
-59.138
-54.666
-50.016
-45.211
-40.277
-35.246
-30.147
-25.006
-19.849
-14.697
-9.574
-4.506
0.48
5.358
10.103
14.692
19.101
23.31
27.299
31.05
34.548
37.783
40.741
43.412
45.786
47.856
49.615
51.057
52.181
52.984
53.467
53.632
53.484
53.03
52.277
51.235
49.915
48.329
46.492
44.418
42.122
39.621
36.932
34.072
31.061
27.917
24.658
21.304
17.874
14.388
10.863
7.319
3.774
0.244
-3.253
-6.701
-10.086
-13.392
-16.606
-19.716
-22.709
-25.575
-28.304
-30.887
-33.316
-35.586
-37.69
-39.625
-41.386
-42.972
-44.382
-45.614
-46.67
-47.55
-48.256
-48.792
-49.162
-49.369
-49.418
-49.316
-49.068
-48.681
-48.162
-47.517
-46.754
-45.881
-44.905
-43.833
-42.674
-41.434
-40.122
-38.745
-37.31
-35.826
-34.298
-32.735
-31.144
-29.531
-27.903
-26.266
-24.627
-22.991
-21.365
-19.753
-18.161
-16.593
-15.054
-13.548
-12.078
-10.648
-9.26
-7.918
-6.623
-5.376
-4.18
-3.036
-1.943
-0.904
0.083
1.015
1.895
2.722
3.496
4.219
4.892
5.516
6.094
6.627
7.119
7.572
7.988
8.373
8.727
9.057
9.364
9.653
9.929
10.195
10.456
10.715
10.979
11.25
11.533
11.832
12.15
12.491
12.859
13.255
13.684
14.148
14.647
15.186
15.764
16.384
17.044
17.746
18.488
19.269
20.086
20.936
21.816
22.721
23.646
24.586
25.535
26.485
27.431
28.365
29.281
30.171
31.028
31.846
32.615
33.33
33.983
34.567
35.075
35.497
35.828
36.062
36.199
36.237
36.175
36.01
35.737
35.354
34.865
34.271
33.572
32.771
31.871
30.887
29.848
28.778
27.699
26.63
25.58
24.563
23.6
22.71
21.913
21.227
20.654
20.206
19.905
19.759
19.765
19.896
20.075
20.233
20.321
20.3
20.163
19.891
19.428
18.73
17.747
16.434
14.814
12.848
10.407
7.498
4.247
0.949
-1.807
-3.491
-3.806
-2.353
1.237
6.927
14.497
23.15
31.348
37.79
41.45
41.323
37.002
28.927
18.043
6.506
-2.458
-5.767
-0.146
17.534
49.407
94.904
150.868
213.405
277.217
341.302
408.558
475.871
538.427
585.319
596.581
563.582
484.279
361.971
217.736
70.138
-63.287
-160.999
-218.322
-237.726
-227.248
-205.165
-180.963
-157.605
-135.17
-108.412
-77.039
-44.849
-15.621
6.005
18.005
21.157
16.659
6.656
-6.482
-20.953
-34.908
-46.921
-56.058
-61.772
-64.045
-63.372
-60.592
-56.657
-52.605
-49.136
-46.667
-45.458
-45.485
-46.588
-48.516
-50.874
-53.2
-55.221
-56.806
-57.902
-58.572
-58.856
-58.765
-58.371
-57.761
-56.989
-56.085
-55.055
-53.88
-52.569
-51.156
-49.677
-48.176
-46.676
-45.183
-43.705
-42.245
-40.805
-39.387
-37.987
-36.593
-35.201
-33.807
-32.412
-31.013
-29.603
-28.166
-26.687
-25.15
-23.543
-21.859
-20.09
-18.231
-16.278
-14.229
-12.084
-9.841
-7.498
-5.045
-2.475
0.209
3.004
5.896
8.869
11.908
14.994
18.104
21.218
24.324
27.413
30.492
33.566
36.633
39.682
42.693
45.643
48.527
51.341
54.082
56.76
59.382
61.958
64.518
67.076
69.623
72.136
74.562
76.839
78.921
80.777
82.383
83.725
84.773
85.499
85.882
85.889
85.488
84.64
83.282
81.369
78.894
75.871
72.351
68.41
64.1
59.467
54.555
49.397
44.033
38.505
32.838
27.065
21.227
15.375
9.581
3.91
-1.606
-6.948
-12.126
-17.169
-22.089
-26.895
-31.599
-36.204
-40.711
-45.12
-49.415
-53.583
-57.619
-61.526
-65.321
-69.019
-72.625
-76.133
-79.534
-82.807
-85.94
-88.924
-91.744
-94.394
-96.873
-99.18
-101.325
-103.322
-105.179
-106.902
-108.497
-109.964
-111.31
-112.543
-113.67
-114.702
-115.648
-116.517
-117.322
-118.072
-118.778
-119.446
-120.082
-120.692
-121.28
-121.852
-122.412
-122.965
-123.517
-124.072
-124.636
-125.214
-125.81
-126.428
-127.072
-127.744
-128.446
-129.181
-129.951
-130.756
-131.599
-132.479
-133.399
-134.358
-135.357
-136.397
-137.476
-138.596
-139.754
-140.95
-142.183
-143.449
-144.747
-146.075
-147.429
-148.806
-150.203
-151.617
-153.043
-154.478
-155.917
-157.355
-158.788
-160.209
-161.613
-162.994
-164.347
-165.665
-166.944
-168.177
-169.359
-170.486
-171.551
-172.55
-173.479
-174.333
-175.108
-175.802
-176.412
-176.935
-177.371
-177.719
-177.979
-178.153
-178.242
-178.248
-178.174
-178.026
-177.808
-177.529
-177.195
-176.816
-176.399
-175.955
-175.494
-175.028
-174.565
-174.114
-173.685
-173.288
-172.935
-172.639
-172.41
-172.257
-172.19
-172.217
-172.347
-172.584
-172.928
-173.38
-173.941
-174.615
-175.413
-176.346
-177.416
-178.628
-179.982
-181.472
-183.093
-184.83
-186.661
-188.563
-190.518
-192.505
-194.518
-196.542
-198.556
-200.529
-202.416
-204.176
-205.777
-207.187
-208.38
-209.356
-210.122
-210.707
-211.161
-211.509
-211.782
-212.033
-212.307
-212.67
-213.198
-213.953
-215.04
-216.621
-218.777
-221.478
-224.554
-227.626
-230.312
-232.343
-233.403
-233.095
-231.208
-227.874
-223.681
-219.728
-217.154
-216.66
-218.74
-223.994
-232.682
-244.266
-257.311
-269.316
-277.378
-279.278
-273.036
-256.187
-226.516
-182.622
-125.808
-60.667
7.872
74.975
140.511
208.951
279.195
347.504
402.647
422.819
396.447
319.665
196.074
47.444
-106.197
-248.609
-361.497
-438.737
-479.088
-482.618
-458.121
-413.557
-357.893
-303.556
-257.852
-227.561
-214.101
-210.393
-212.198
-214.925
-216.467
-221.373
-230.734
-243.419
-258.243
-271.2
-279.642
-283.273
-282.238
-277.535
-270.807
-263.567
-256.709
-250.889
-246.607
-243.893
-242.731
-243.072
-244.432
-246.2
-248.022
-249.626
-250.85
-251.746
-252.29
-252.424
-252.203
-251.686
-250.904
-249.905
-248.693
-247.238
-245.549
-243.649
-241.563
-239.337
-237.013
-234.624
-232.211
-229.8
-227.407
-225.051
-222.74
-220.479
-218.269
-216.102
-213.967
-211.857
-209.762
-207.673
-205.579
-203.463
-201.307
-199.1
-196.828
-194.483
-192.057
-189.539
-186.924
-184.204
-181.376
-178.437
-175.386
-172.219
-168.934
-165.531
-162.009
-158.37
-154.617
-150.754
-146.783
-142.712
-138.546
-134.296
-129.971
-125.58
-121.135
-116.648
-112.131
-107.598
-103.06
-98.532
-94.027
-89.558
-85.138
-80.782
-76.502
-72.311
-68.222
-64.246
-60.398
-56.687
-53.125
-49.723
-46.491
-43.438
-40.572
-37.901
-35.43
-33.164
-31.107
-29.261
-27.626
-26.203
-24.988
-23.978
-23.169
-22.555
-22.128
-21.881
-21.805
-21.891
-22.129
-22.508
-23.018
-23.648
-24.387
-25.222
-26.142
-27.135
-28.189
-29.291
-30.43
-31.593
-32.767
-33.939
-35.098
-36.232
-37.328
-38.376
-39.364
-40.283
-41.124
-41.879
-42.54
-43.101
-43.557
-43.903
-44.136
-44.253
-44.253
-44.133
-43.893
-43.534
-43.056
-42.459
-41.744
-40.914
-39.97
-38.915
-37.75
-36.479
-35.106
-33.633
-32.065
-30.406
-28.662
-26.837
-24.937
-22.969
-20.937
-18.847
-16.707
-14.521
-12.295
-10.035
-7.744
-5.427
-3.089
-0.733
1.64
4.025
6.421
8.827
11.239
13.656
16.076
18.498
20.92
23.341
25.758
28.171
30.577
32.977
35.368
37.751
40.125
42.489
44.844
47.19
49.529
51.863
54.192
56.52
58.848
61.18
63.519
65.867
68.226
70.601
72.993
75.404
77.835
80.287
82.762
85.26
87.782
90.329
92.901
95.503
98.136
100.807
103.519
106.277
109.085
111.944
114.858
117.831
120.863
123.954
127.103
130.311
133.58
136.919
140.326
143.795
147.315
150.874
154.455
158.052
161.648
165.224
168.77
172.28
175.756
179.216
182.665
186.102
189.517
192.89
196.213
199.491
202.73
205.938
209.13
212.311
215.502
218.738
222.025
225.359
228.716
232.042
235.308
238.504
241.632
244.711
247.759
250.775
253.767
256.747
259.716
262.68
265.627
268.526
271.381
274.221
277.093
280.079
283.231
286.57
290.103
293.812
297.662
301.622
305.645
309.665
313.614
317.429
321.059
324.48
327.657
330.529
333.001
334.976
336.369
337.136
337.31
336.907
335.918
334.466
332.772
331.204
330.336
330.674
332.548
336.396
342.687
351.581
363.06
376.601
391.052
405.457
419.08
431.073
440.792
448.151
453.467
458.21
464.924
475.824
493.188
519.459
556.518
605.81
666.309
733.468
802.107
866.561
926.089
985.177
1043.418
1098.616
1138.47
1139.331
1087.004
971.866
798.097
593.322
385.873
