Name
Date of Birth,"Mar 27, 1959"
Recorded Date,2022-04-13 21:39:44 -0500
Classification,Sinus Rhythm
Symptoms,
Software Version,1.90
Device,"Watch4,2"
Sample Rate,510.227 hertz


Lead,Lead I
Unit,µV

-33.274
-33.553
-33.782
-33.993
-34.219
-34.482
-34.792
-35.159
-35.588
-36.08
-36.635
-37.242
-37.882
-38.543
-39.212
-39.881
-40.541
-41.179
-41.778
-42.325
-42.804
-43.202
-43.508
-43.712
-43.804
-43.775
-43.62
-43.334
-42.914
-42.356
-41.654
-40.803
-39.797
-38.631
-37.3
-35.801
-34.128
-32.279
-30.251
-28.044
-25.658
-23.092
-20.348
-17.428
-14.332
-11.064
-7.627
-4.024
-0.258
3.665
7.74
11.962
16.324
20.82
25.443
30.184
35.035
39.986
45.028
50.149
55.337
60.579
65.861
71.169
76.486
81.797
87.084
92.331
97.518
102.628
107.641
112.541
117.306
121.92
126.364
130.617
134.664
138.486
142.065
145.384
148.428
151.18
153.626
155.752
157.545
158.993
160.085
160.811
161.164
161.137
160.725
159.925
158.736
157.157
155.192
152.845
150.121
147.028
143.576
139.776
135.641
131.184
126.422
121.372
116.052
110.481
104.681
98.671
92.475
86.113
79.611
72.99
66.274
59.488
52.654
45.798
38.941
32.109
25.324
18.607
11.982
5.468
-0.915
-7.147
-13.212
-19.094
-24.777
-30.249
-35.497
-40.511
-45.282
-49.803
-54.068
-58.073
-61.816
-65.294
-68.509
-71.461
-74.153
-76.588
-78.772
-80.709
-82.406
-83.87
-85.109
-86.132
-86.949
-87.57
-88.006
-88.268
-88.368
-88.318
-88.13
-87.818
-87.393
-86.868
-86.257
-85.571
-84.823
-84.025
-83.189
-82.325
-81.444
-80.557
-79.671
-78.796
-77.94
-77.109
-76.311
-75.551
-74.834
-74.166
-73.549
-72.988
-72.486
-72.044
-71.663
-71.346
-71.091
-70.899
-70.768
-70.696
-70.681
-70.72
-70.807
-70.94
-71.112
-71.317
-71.548
-71.799
-72.06
-72.325
-72.585
-72.83
-73.052
-73.243
-73.393
-73.493
-73.534
-73.509
-73.409
-73.226
-72.953
-72.582
-72.107
-71.522
-70.822
-70.002
-69.057
-67.986
-66.784
-65.45
-63.984
-62.385
-60.655
-58.795
-56.808
-54.699
-52.473
-50.138
-47.7
-45.169
-42.554
-39.867
-37.12
-34.324
-31.494
-28.643
-25.787
-22.939
-20.116
-17.332
-14.602
-11.942
-9.367
-6.889
-4.522
-2.28
-0.174
1.785
3.587
5.222
6.683
7.962
9.052
9.951
10.653
11.158
11.465
11.574
11.489
11.213
10.753
10.116
9.31
8.345
7.233
5.987
4.62
3.148
1.587
-0.047
-1.735
-3.459
-5.202
-6.947
-8.674
-10.368
-12.013
-13.592
-15.091
-16.497
-17.797
-18.981
-20.037
-20.957
-21.734
-22.363
-22.839
-23.16
-23.325
-23.335
-23.196
-22.914
-22.496
-21.953
-21.296
-20.539
-19.695
-18.782
-17.812
-16.803
-15.771
-14.734
-13.714
-12.732
-11.807
-10.961
-10.211
-9.575
-9.072
-8.714
-8.51
-8.467
-8.596
-8.908
-9.423
-10.158
-11.125
-12.332
-13.784
-15.477
-17.404
-19.547
-21.873
-24.352
-26.949
-29.633
-32.383
-35.172
-37.965
-40.715
-43.36
-45.841
-48.111
-50.127
-51.853
-53.283
-54.421
-55.306
-56.006
-56.573
-57.07
-57.572
-58.15
-58.899
-59.922
-61.297
-63.156
-65.679
-68.948
-72.932
-77.444
-82.076
-86.42
-90.146
-92.809
-93.891
-93.098
-90.461
-86.54
-82.405
-79.09
-77.335
-77.8
-81.148
-87.643
-96.801
-106.985
-115.617
-119.932
-117.236
-104.962
-80.472
-41.28
13.051
80.234
157.233
240.167
327.016
418.37
511.677
601.596
678.768
730.833
748.575
726.328
664.224
565.331
435.659
288.514
139.793
9.808
-82.875
-133.092
-145.069
-130.393
-102.67
-69.71
-35.496
-4.937
14.659
18.263
4.392
-21.961
-49.13
-69.412
-80.054
-82.325
-82.043
-82.342
-83.28
-84.251
-83.597
-81.049
-77.697
-74.429
-72.039
-70.821
-70.619
-71.306
-72.732
-74.745
-77.231
-80.056
-83.112
-86.326
-89.634
-92.964
-96.235
-99.337
-102.147
-104.574
-106.555
-108.064
-109.102
-109.679
-109.818
-109.553
-108.929
-107.991
-106.782
-105.34
-103.702
-101.911
-100.018
-98.079
-96.151
-94.274
-92.474
-90.765
-89.151
-87.63
-86.194
-84.825
-83.501
-82.202
-80.912
-79.616
-78.298
-76.937
-75.51
-73.995
-72.369
-70.614
-68.713
-66.648
-64.403
-61.968
-59.335
-56.499
-53.45
-50.174
-46.653
-42.881
-38.861
-34.606
-30.125
-25.427
-20.523
-15.43
-10.177
-4.785
0.739
6.401
12.209
18.158
24.225
30.372
36.563
42.776
49.006
55.251
61.496
67.726
73.934
80.132
86.344
92.566
98.75
104.815
110.678
116.284
121.6
126.611
131.295
135.613
139.519
142.975
145.961
148.453
150.41
151.764
152.439
152.404
151.687
150.366
148.517
146.188
143.41
140.209
136.624
132.708
128.506
124.048
119.353
114.457
109.414
104.309
99.234
94.242
89.342
84.508
79.722
74.987
70.312
65.707
61.169
56.695
52.296
48.001
43.843
39.836
35.983
32.266
28.667
25.184
21.834
18.642
15.63
12.807
10.182
7.764
5.569
3.603
1.862
0.33
-1.01
-2.168
-3.151
-3.962
-4.604
-5.088
-5.424
-5.627
-5.706
-5.673
-5.54
-5.322
-5.034
-4.688
-4.293
-3.854
-3.378
-2.871
-2.341
-1.795
-1.236
-0.67
-0.103
0.461
1.016
1.559
2.087
2.599
3.094
3.572
4.032
4.475
4.904
5.318
5.72
6.112
6.494
6.869
7.239
7.606
7.972
8.339
8.709
9.083
9.464
9.853
10.251
10.658
11.075
11.503
11.94
12.388
12.845
13.311
13.785
14.266
14.755
15.249
15.748
16.25
16.754
17.258
17.759
18.257
18.749
19.233
19.706
20.167
20.614
21.045
21.458
21.852
22.225
22.575
22.901
23.203
23.478
23.726
23.946
24.138
24.301
24.437
24.544
24.623
24.674
24.698
24.696
24.667
24.613
24.532
24.427
24.296
24.141
23.961
23.756
23.528
23.275
23
22.702
22.381
22.038
21.674
21.288
20.882
20.456
20.011
19.548
19.068
18.572
18.062
17.539
17.005
16.46
15.907
15.346
14.779
14.206
13.629
13.049
12.467
11.887
11.311
10.74
10.179
9.628
9.091
8.571
8.071
7.595
7.144
6.723
6.336
5.987
5.68
5.419
5.206
5.041
4.928
4.87
4.871
4.936
5.068
5.27
5.549
5.906
6.346
6.869
7.472
8.155
8.917
9.76
10.69
11.708
12.814
14.004
15.267
16.589
17.952
19.339
20.732
22.119
23.496
24.86
26.217
27.572
28.93
30.289
31.636
32.96
34.25
35.517
36.809
38.193
39.738
41.487
43.448
45.596
47.921
50.396
52.905
55.337
57.621
59.818
62.187
65.024
68.501
72.614
77.399
82.828
88.57
93.95
97.939
99.49
98.745
97.054
95.254
93.422
89.183
78.681
60.738
37.816
18.003
11.681
26.342
63.536
115.246
168.581
209.998
230.403
230.529
217.592
202.682
194.965
197.124
207.001
218.953
228.509
234.355
236.861
237.644
237.436
235.854
232.754
228.224
222.757
217.134
212.003
208.002
205.723
205.482
207.106
209.855
212.673
214.676
215.292
213.786
209.496
202.444
193.475
185.315
182.515
188.837
206.422
234.859
271.109
313.072
361.715
422.364
502.75
608.177
737.346
878.878
1012.603
1116.004
1170.764
1166.615
1106.199
1000.66
862.126
705.556
543.223
385.22
246.501
139.704
71.897
45.85
53.897
81.645
116.416
145.15
159.714
160.393
150.259
137.089
127.975
123.897
122.956
120.353
113.041
102.407
91.123
82.009
76.429
73.968
73.976
76.084
79.691
83.775
87.417
90.007
91.298
91.443
90.535
88.411
85.139
81.091
76.606
72.002
67.477
63.052
58.825
55.002
51.704
48.981
46.847
45.267
44.226
43.739
43.787
44.322
45.29
46.625
48.27
50.18
52.293
54.542
56.856
59.161
61.407
63.556
65.586
67.483
69.243
70.866
72.366
73.759
75.064
76.293
77.461
78.577
79.657
80.716
81.769
82.833
83.92
85.042
86.209
87.429
88.71
90.054
91.466
92.945
94.495
96.117
97.813
99.587
101.439
103.37
105.379
107.464
109.623
111.848
114.134
116.471
118.85
121.26
123.687
126.118
128.539
130.935
133.288
135.582
137.798
139.918
141.923
143.794
145.511
147.056
148.41
149.555
150.474
151.15
151.567
151.711
151.567
151.122
150.365
149.285
147.874
146.122
144.024
141.576
138.775
135.619
132.111
128.253
124.05
119.508
114.635
109.443
103.941
98.145
92.069
85.73
79.147
72.339
65.327
58.134
50.783
43.297
35.701
28.019
20.277
12.498
4.708
-3.067
-10.804
-18.477
-26.064
-33.54
-40.884
-48.073
-55.086
-61.906
-68.512
-74.888
-81.018
-86.888
-92.484
-97.796
-102.814
-107.528
-111.933
-116.023
-119.796
-123.251
-126.388
-129.21
-131.722
-133.927
-135.835
-137.453
-138.791
-139.859
-140.669
-141.233
-141.566
-141.68
-141.59
-141.311
-140.858
-140.248
-139.495
-138.615
-137.623
-136.534
-135.363
-134.125
-132.833
-131.502
-130.144
-128.773
-127.4
-126.037
-124.693
-123.379
-122.104
-120.873
-119.694
-118.572
-117.51
-116.514
-115.584
-114.723
-113.931
-113.209
-112.556
-111.971
-111.452
-110.997
-110.604
-110.27
-109.991
-109.763
-109.584
-109.45
-109.357
-109.301
-109.279
-109.287
-109.321
-109.378
-109.455
-109.547
-109.651
-109.764
-109.883
-110.004
-110.127
-110.248
-110.366
-110.48
-110.589
-110.693
-110.79
-110.88
-110.964
-111.042
-111.114
-111.18
-111.241
-111.297
-111.348
-111.396
-111.441
-111.483
-111.522
-111.558
-111.591
-111.621
-111.647
-111.67
-111.688
-111.702
-111.711
-111.714
-111.713
-111.706
-111.693
-111.674
-111.649
-111.618
-111.579
-111.533
-111.479
-111.417
-111.347
-111.268
-111.181
-111.085
-110.982
-110.872
-110.756
-110.635
-110.511
-110.386
-110.261
-110.139
-110.022
-109.913
-109.817
-109.735
-109.672
-109.631
-109.615
-109.63
-109.677
-109.761
-109.883
-110.047
-110.255
-110.51
-110.813
-111.165
-111.569
-112.026
-112.536
-113.099
-113.716
-114.386
-115.107
-115.878
-116.696
-117.557
-118.458
-119.393
-120.357
-121.345
-122.35
-123.365
-124.383
-125.394
-126.39
-127.362
-128.301
-129.197
-130.038
-130.817
-131.522
-132.146
-132.679
-133.113
-133.439
-133.652
-133.744
-133.711
-133.546
-133.246
-132.806
-132.225
-131.501
-130.634
-129.624
-128.475
-127.19
-125.778
-124.247
-122.607
-120.869
-119.047
-117.155
-115.207
-113.219
-111.205
-109.18
-107.159
-105.159
-103.199
-101.298
-99.475
-97.748
-96.133
-94.645
-93.302
-92.114
-91.088
-90.229
-89.543
-89.043
-88.748
-88.676
-88.838
-89.244
-89.899
-90.798
-91.933
-93.287
-94.822
-96.499
-98.282
-100.131
-102.025
-103.932
-105.813
-107.617
-109.278
-110.729
-111.923
-112.814
-113.363
-113.566
-113.429
-113
-112.367
-111.605
-110.797
-110.038
-109.413
-109.038
-109.037
-109.505
-110.571
-112.408
-115.095
-118.617
-122.809
-127.249
-131.473
-135.084
-137.618
-138.573
-137.605
-134.621
-130.061
-124.937
-120.422
-117.409
-116.429
-118.066
-122.815
-130.568
-140.125
-148.203
-149.993
-141.537
-120.707
-88.733
-48.516
-1.332
53.246
120.765
207.173
314.608
442.925
582.734
719.278
836.474
915.456
941.809
908.387
815.548
671.922
494.736
305.264
125.566
-23.261
-129.785
-190.818
-211.478
-201.892
-168.322
-119.823
-64.496
-12.011
21.805
31
16.598
-14.346
-46.291
-70.873
-86.298
-93.948
-100.041
-107.362
-115.067
-121.601
-124.106
-121.766
-115.809
-107.791
-99.677
-92.476
-86.306
-81.36
-77.775
-75.623
-74.941
-75.452
-76.644
-78.207
-79.992
-81.902
-83.914
-85.924
-87.775
-89.364
-90.624
-91.513
-92.009
-92.078
-91.681
-90.811
-89.485
-87.744
-85.655
-83.27
-80.641
-77.813
-74.828
-71.74
-68.611
-65.501
-62.472
-59.564
-56.793
-54.175
-51.714
-49.405
-47.238
-45.193
-43.234
-41.336
-39.477
-37.636
-35.799
-33.945
-32.048
-30.087
-28.038
-25.881
-23.6
-21.178
-18.599
-15.85
-12.922
-9.807
-6.502
-3.001
0.699
4.603
8.712
13.029
17.551
22.274
27.194
32.304
37.591
43.044
48.647
54.38
60.224
66.159
72.16
78.203
84.262
90.311
96.321
102.265
108.113
113.837
119.407
124.795
129.971
134.909
139.58
143.959
148.021
151.743
155.103
158.082
160.661
162.823
164.555
165.844
166.679
167.053
166.96
166.397
165.365
163.866
161.905
159.49
156.63
153.338
149.628
145.517
141.022
136.164
130.964
125.445
119.631
113.548
107.222
100.68
93.951
87.062
80.041
72.918
65.719
58.474
51.209
43.952
36.728
29.564
22.484
15.512
8.67
1.98
-4.538
-10.866
-16.987
-22.886
-28.549
-33.965
-39.122
-44.012
-48.628
-52.964
-57.015
-60.78
-64.256
-67.444
-70.346
-72.964
-75.303
-77.367
-79.162
-80.695
-81.975
-83.008
-83.805
-84.373
-84.724
-84.867
-84.814
-84.574
-84.16
-83.583
-82.854
-81.984
-80.985
-79.869
-78.645
-77.325
-75.919
-74.437
-72.891
-71.288
-69.639
-67.953
-66.237
-64.5
-62.751
-60.994
-59.239
-57.49
-55.753
-54.035
-52.34
-50.673
-49.039
-47.441
-45.885
-44.373
-42.909
-41.495
-40.136
-38.832
-37.587
-36.401
-35.277
-34.214
-33.215
-32.278
-31.405
-30.596
-29.848
-29.162
-28.535
-27.967
-27.456
-26.999
-26.594
-26.24
-25.933
-25.672
-25.453
-25.274
-25.133
-25.026
-24.951
-24.905
-24.885
-24.889
-24.912
-24.953
-25.008
-25.075
-25.15
-25.232
-25.318
-25.404
-25.489
-25.571
-25.648
-25.719
-25.782
-25.837
-25.882
-25.919
-25.947
-25.967
-25.981
-25.987
-25.989
-25.987
-25.983
-25.979
-25.975
-25.974
-25.976
-25.984
-26
-26.023
-26.056
-26.1
-26.153
-26.219
-26.295
-26.383
-26.482
-26.593
-26.713
-26.843
-26.983
-27.13
-27.284
-27.442
-27.602
-27.762
-27.919
-28.068
-28.205
-28.327
-28.427
-28.502
-28.545
-28.553
-28.518
-28.434
-28.297
-28.1
-27.837
-27.503
-27.093
-26.602
-26.025
-25.361
-24.607
-23.76
-22.818
-21.782
-20.649
-19.422
-18.101
-16.688
-15.186
-13.598
-11.928
-10.183
-8.368
-6.492
-4.564
-2.592
-0.589
1.43
3.449
5.448
7.41
9.315
11.147
12.887
14.521
16.032
17.406
18.633
19.698
20.59
21.295
21.796
22.082
22.149
21.996
21.636
21.076
20.317
19.359
18.191
16.802
15.189
13.34
11.24
8.884
6.27
3.423
0.399
-2.757
-6.007
-9.337
-12.767
-16.283
-19.83
-23.334
-26.687
-29.799
-32.647
-35.167
-37.237
-38.839
-40.009
-40.936
-42.04
-43.558
-45.494
-47.83
-50.467
-53.22
-56.014
-58.533
-60.081
-60.387
-59.496
-57.547
-55.063
-52.51
-50.004
-47.906
-46.94
-47.365
-49.42
-53.384
-58.894
-65.942
-75.02
-86.214
-99.597
-114.46
-128.008
-137.424
-140.57
-137.144
-130.819
-123.929
-114.277
-95.246
-54.076
20.26
129.125
267.143
421.752
575.794
718.216
839.352
928.189
979.995
988.009
946.98
860.938
732.761
569.941
387.478
200.44
28.72
-107.153
-195.186
-231.916
-221.663
-177.749
-117.145
-54.728
-6.457
17.415
17.424
-1.879
-29.202
-51.949
-66.489
-72.625
-73.404
-74.703
-77.696
-81.234
-84.155
-84.197
-80.682
-74.854
-68.113
-61.721
-56.587
-52.899
-50.508
-49.44
-49.795
-51.424
-54
-57.217
-60.739
-64.374
-68.086
-71.739
-75.141
-78.137
-80.617
-82.527
-83.866
-84.631
-84.797
-84.37
-83.381
-81.881
-79.942
-77.621
-74.969
-72.034
-68.877
-65.565
-62.171
-58.769
-55.411
-52.132
-48.953
-45.885
-42.93
-40.081
-37.323
-34.632
-31.985
-29.363
-26.749
-24.131
-21.494
-18.818
-16.086
-13.277
-10.377
-7.372
-4.25
-0.999
2.388
5.918
9.595
13.421
17.398
21.529
25.815
30.258
34.859
39.615
44.524
49.581
54.781
60.113
65.569
71.133
76.794
82.533
88.335
94.179
100.045
105.912
111.757
117.556
123.286
128.922
134.439
139.812
145.016
150.025
154.815
159.361
163.639
167.627
171.301
174.641
177.628
180.243
182.47
184.294
185.702
186.685
187.231
187.335
186.992
186.199
184.955
183.264
181.129
178.556
175.555
172.136
168.313
164.1
159.513
154.571
149.292
143.699
137.812
131.655
125.253
118.63
111.813
104.828
97.703
90.464
83.14
75.758
68.344
60.925
53.527
46.175
38.893
31.705
24.631
17.694
10.913
4.306
-2.11
-8.319
-14.309
-20.065
-25.579
-30.842
-35.845
-40.583
-45.053
-49.251
-53.176
-56.828
-60.208
-63.32
-66.167
-68.755
-71.09
-73.181
-75.035
-76.664
-78.078
-79.288
-80.306
-81.143
-81.813
-82.328
-82.699
-82.941
-83.064
-83.082
-83.006
-82.848
-82.619
-82.329
-81.99
-81.609
-81.198
-80.762
-80.311
-79.852
-79.389
-78.931
-78.481
-78.044
-77.624
-77.225
-76.849
-76.498
-76.173
-75.874
-75.602
-75.355
-75.132
-74.931
-74.75
-74.587
-74.438
-74.301
-74.172
-74.049
-73.928
-73.805
-73.678
-73.544
-73.399
-73.241
-73.067
-72.875
-72.662
-72.428
-72.171
-71.89
-71.584
-71.253
-70.896
-70.514
-70.107
-69.675
-69.22
-68.743
-68.246
-67.731
-67.201
-66.658
-66.106
-65.547
-64.987
-64.429
-63.876
-63.333
-62.804
-62.294
-61.806
-61.346
-60.918
-60.525
-60.171
-59.862
-59.599
-59.387
-59.228
-59.125
-59.08
-59.096
-59.173
-59.314
-59.518
-59.787
-60.121
-60.519
-60.982
-61.508
-62.095
-62.743
-63.448
-64.209
-65.022
-65.883
-66.791
-67.739
-68.724
-69.742
-70.786
-71.853
-72.937
-74.032
-75.132
-76.233
-77.328
-78.411
-79.476
-80.518
-81.53
-82.506
-83.44
-84.327
-85.16
-85.935
-86.645
-87.286
-87.852
-88.338
-88.739
-89.051
-89.269
-89.389
-89.406
-89.317
-89.118
-88.807
-88.381
-87.837
-87.173
-86.389
-85.484
-84.456
-83.307
-82.035
-80.642
-79.13
-77.499
-75.753
-73.896
-71.93
-69.863
-67.702
-65.455
-63.132
-60.741
-58.295
-55.805
-53.28
-50.731
-48.165
-45.593
-43.023
-40.465
-37.932
-35.436
-32.985
-30.591
-28.264
-26.011
-23.842
-21.756
-19.756
-17.843
-16.022
-14.309
-12.721
-11.273
-9.977
-8.844
-7.874
-7.065
-6.407
-5.87
-5.422
-5.026
-4.647
-4.261
-3.846
-3.369
-2.79
-2.051
-1.089
0.147
1.703
3.614
5.881
8.489
11.381
14.458
17.633
20.797
23.823
26.602
29.011
30.93
32.273
32.884
32.503
30.967
28.24
24.436
19.946
15.196
10.546
6.576
4.05
3.521
5.177
8.69
13.085
17.117
19.673
19.548
15.183
6.709
-3.707
-13.891
-20.565
-23.546
-26.755
-29.315
-26.73
-8.913
39.808
125.279
243.834
385.318
533.265
677.07
811.775
930.54
1024.984
1084.859
1097.063
1054.5
959.325
815.669
636.783
443.201
254.302
94.492
-17.924
-80.617
-97.456
-80.942
-49.226
-12.203
20.318
37.77
39.258
24.653
-1.076
-24.813
-40.662
-46.672
-43.583
-38.199
-33.165
-27.428
-20.765
-11.762
-0.73
9.574
17.232
21.302
21.205
17.293
10.681
2.165
-7.317
-16.308
-23.932
-29.839
-33.812
-36.248
-37.913
-39.159
-40.264
-41.615
-43.256
-45.165
-47.333
-49.448
-51.129
-52.212
-52.615
-52.323
-51.456
-50.084
-48.246
-46.051
-43.609
-41.005
-38.32
-35.598
-32.861
-30.14
-27.463
-24.853
-22.328
-19.891
-17.527
-15.216
-12.933
-10.659
-8.381
-6.087
-3.768
-1.41
0.999
3.469
6.009
8.632
11.349
14.174
17.12
20.195
23.406
26.754
30.24
33.865
37.632
41.542
45.596
49.793
54.13
58.605
63.215
67.954
72.81
77.775
82.833
87.971
93.174
98.423
103.701
108.988
114.263
119.506
124.693
129.801
134.806
139.683
144.409
148.956
153.302
157.42
161.286
164.877
168.169
171.142
173.775
176.048
177.944
179.446
180.542
181.217
181.462
181.268
180.629
179.539
177.998
176.006
173.564
170.679
167.356
163.605
159.438
154.866
149.907
144.575
138.89
132.872
126.544
119.927
113.048
105.931
98.603
91.092
83.427
75.634
67.745
59.786
51.788
43.779
35.786
27.838
19.961
12.181
4.523
-2.988
-10.332
-17.485
-24.429
-31.145
-37.617
-43.829
-49.768
-55.424
-60.785
-65.844
-70.595
-75.033
-79.155
-82.96
-86.449
-89.623
-92.487
-95.046
-97.306
-99.276
-100.964
-102.382
-103.541
-104.453
-105.132
-105.592
-105.846
-105.91
-105.798
-105.525
-105.107
-104.559
-103.895
-103.13
-102.279
-101.355
-100.371
-99.339
-98.272
-97.18
-96.074
-94.963
-93.856
-92.761
-91.686
-90.637
-89.62
-88.64
-87.699
-86.803
-85.953
-85.15
-84.396
-83.689
-83.03
-82.416
-81.847
-81.32
-80.832
-80.38
-79.961
-79.572
-79.208
-78.866
-78.542
-78.233
-77.935
-77.644
-77.358
-77.074
-76.789
-76.501
-76.208
-75.908
-75.6
-75.283
-74.954
-74.614
-74.261
-73.896
-73.518
-73.128
-72.726
-72.313
-71.891
-71.461
-71.025
-70.585
-70.144
-69.704
-69.266
-68.835
-68.413
-68.002
-67.606
-67.227
-66.868
-66.532
-66.221
-65.937
-65.682
-65.458
-65.265
-65.106
-64.982
-64.893
-64.839
-64.823
-64.845
-64.904
-65.002
-65.138
-65.312
-65.525
-65.776
-66.063
-66.387
-66.746
-67.138
-67.563
-68.019
-68.504
-69.015
-69.551
-70.109
-70.686
-71.279
-71.885
-72.502
-73.125
-73.752
-74.379
-75.004
-75.623
-76.233
-76.829
-77.409
-77.969
-78.503
-79.009
-79.481
-79.915
-80.306
-80.65
-80.942
-81.178
-81.353
-81.462
-81.499
-81.462
-81.343
-81.14
-80.847
-80.461
-79.979
-79.396
-78.711
-77.921
-77.025
-76.021
-74.908
-73.687
-72.356
-70.917
-69.373
-67.726
-65.98
-64.14
-62.213
-60.207
-58.133
-56
-53.82
-51.606
-49.371
-47.129
-44.896
-42.688
-40.518
-38.402
-36.356
-34.4
-32.552
-30.828
-29.247
-27.824
-26.573
-25.511
-24.652
-24.005
-23.582
-23.385
-23.424
-23.712
-24.262
-25.081
-26.178
-27.551
-29.196
-31.106
-33.261
-35.634
-38.195
-40.903
-43.725
-46.625
-49.565
-52.52
-55.454
-58.321
-61.084
-63.677
-66.041
-68.14
-69.949
-71.473
-72.771
-73.865
-74.776
-75.66
-76.649
-77.893
-79.594
-81.747
-84.299
-87.389
-91.155
-95.552
-100.537
-105.884
-111.15
-116.24
-121.113
-125.43
-128.808
-130.985
-131.715
-131.045
-129.503
-127.514
-125.299
-123.238
-121.872
-121.6
-122.765
-125.761
-129.322
-130.402
-126.712
-115.868
-97.099
-73.684
-47.047
-15.061
26.041
84.189
166.424
272.184
397.947
536.819
677.554
811.034
924.804
1002.898
1031.759
1000.095
906.206
758.596
572.603
368.889
168.587
-8.94
-148.915
-241.938
-287.978
-293.301
-265.125
-216.265
-156.727
-96.338
-49.789
-22.518
-15.816
-25.982
-39.858
-50.675
-56.469
-58.139
-62.403
-71.446
-83.474
-96.1
-105.169
-109.048
-108.565
-104.512
-98.21
-90.843
-83.093
-75.993
-70.44
-66.74
-64.975
-65
-66.468
-69.084
-72.516
-76.258
-79.921
-83.265
-86.099
-88.375
-90.092
-91.209
-91.737
-91.719
-91.175
-90.139
-88.651
-86.725
-84.398
-81.722
-78.745
-75.538
-72.174
-68.722
-65.256
-61.827
-58.468
-55.204
-52.048
-49.003
-46.069
-43.233
-40.473
-37.771
-35.113
-32.482
-29.863
-27.234
-24.575
-21.864
-19.082
-16.212
-13.241
-10.156
-6.945
-3.602
-0.118
3.509
7.281
11.199
15.268
19.488
23.862
28.387
33.062
37.885
42.851
47.955
53.19
58.544
64.006
69.564
75.203
80.908
86.661
92.445
98.241
104.027
109.784
115.488
121.117
126.648
132.058
137.322
142.417
147.32
152.007
156.458
160.65
164.564
168.18
171.481
174.45
177.071
179.331
181.217
182.719
183.828
184.536
184.838
184.729
184.209
183.278
181.937
180.19
178.042
175.501
172.576
169.277
165.617
161.609
157.269
152.613
147.661
142.432
136.946
131.225
125.291
119.168
112.878
106.445
99.893
93.246
86.527
79.758
72.965
66.168
59.391
52.654
45.979
39.385
32.892
26.517
20.279
14.193
8.274
2.537
-3.004
-8.339
-13.456
-18.347
-23.003
-27.417
-31.584
-35.501
-39.165
-42.575
-45.731
-48.635
-51.29
-53.699
-55.866
-57.796
-59.497
-60.974
-62.236
-63.289
-64.143
-64.806
-65.288
-65.597
-65.745
-65.74
-65.593
-65.313
-64.912
-64.399
-63.784
-63.078
-62.292
-61.435
-60.517
-59.549
-58.54
-57.499
-56.434
-55.355
-54.27
-53.185
-52.107
-51.044
-50.001
-48.985
-48
-47.051
-46.144
-45.283
-44.471
-43.714
-43.013
-42.373
-41.796
-41.285
-40.842
-40.469
-40.168
-39.94
-39.785
-39.705
-39.7
-39.769
-39.912
-40.126
-40.412
-40.766
-41.186
-41.67
-42.214
-42.814
-43.468
-44.172
-44.922
-45.714
-46.543
-47.406
-48.298
-49.213
-50.148
-51.097
-52.056
-53.019
-53.981
-54.938
-55.884
-56.816
-57.728
-58.616
-59.477
-60.306
-61.099
-61.855
-62.569
-63.24
-63.866
-64.445
-64.978
-65.464
-65.903
-66.297
-66.648
-66.956
-67.225
-67.458
-67.655
-67.822
-67.961
-68.075
-68.168
-68.245
-68.308
-68.362
-68.412
-68.46
-68.51
-68.566
-68.631
-68.707
-68.796
-68.9
-69.022
-69.161
-69.319
-69.497
-69.693
-69.906
-70.136
-70.378
-70.63
-70.888
-71.146
-71.399
-71.639
-71.86
-72.055
-72.215
-72.334
-72.403
-72.413
-72.357
-72.224
-72.008
-71.7
-71.29
-70.771
-70.135
-69.375
-68.487
-67.463
-66.301
-64.995
-63.543
-61.945
-60.197
-58.302
-56.26
-54.072
-51.743
-49.278
-46.684
-43.969
-41.143
-38.219
-35.211
-32.136
-29.012
-25.856
-22.69
-19.532
-16.406
-13.331
-10.328
-7.414
-4.611
-1.937
0.587
2.938
5.098
7.048
8.77
10.249
11.468
12.418
13.093
13.491
13.607
13.436
12.961
12.168
11.052
9.61
7.841
5.756
3.368
0.704
-2.186
-5.252
-8.445
-11.717
-15.037
-18.367
-21.66
-24.862
-27.901
-30.71
-33.24
-35.442
-37.269
-38.707
-39.765
-40.496
-41.01
-41.403
-41.766
-42.199
-42.792
-43.654
-44.891
-46.585
-48.836
-51.788
-55.559
-60.181
-65.536
-71.306
-77.09
-82.46
-86.907
-89.831
-90.629
-88.984
-85.187
-79.96
-74.218
-69.034
-65.352
-64.17
-66.869
-73.175
-80.209
-84.877
-83.365
-74.1
-60.976
-45.902
-27.525
-1.434
44.912
122.737
236.303
385.179
557.115
732.663
890.583
1007.939
1069.635
1068.446
1007.041
896.29
746.368
571.508
385.669
203.613
46.496
-70.876
-142.37
-169.899
-166.149
-144.151
-111.862
-76.723
-45.675
-24.334
-18.277
-27.113
-42.453
-56.571
-64.547
-65.623
-64.873
-65.626
-67.585
-69.564
-69.158
-65.418
-59.503
-52.626
-45.801
-39.836
-35.218
-32.191
-30.879
-31.191
-32.751
-35.241
-38.574
-42.607
-47.21
-52.309
-57.579
-62.682
-67.551
-72.067
-75.916
-78.924
-80.792
-81.2
-80.468
-78.982
-76.792
-74.055
-71.054
-67.928
-65.119
-63.133
-61.651
-60.344
-59.207
-58.099
-56.944
-55.774
-54.256
-52.021
-49.35
-46.491
-43.516
-40.604
-37.729
-34.807
-32.002
-29.464
-27.058
-24.678
-22.243
-19.627
-16.857
-13.975
-10.928
-7.687
-4.259
-0.641
3.152
7.093
11.203
15.5
19.99
24.68
29.566
34.635
39.883
45.304
50.888
56.624
62.499
68.496
74.598
80.786
87.042
93.344
99.67
105.996
112.297
118.546
124.719
130.792
136.74
142.535
148.153
153.564
158.744
163.666
168.306
172.639
176.641
180.291
183.568
186.453
188.929
190.98
192.595
193.759
194.465
194.704
194.472
193.766
192.586
190.933
188.81
186.224
183.182
179.693
175.769
171.424
166.672
161.531
156.02
150.159
143.971
137.479
130.709
123.687
116.44
108.997
101.386
93.636
85.778
77.839
69.851
61.843
53.843
45.88
37.981
30.174
22.483
14.935
7.552
0.357
-6.629
-13.387
-19.898
-26.144
-32.11
-37.782
-43.147
-48.196
-52.918
-57.307
-61.359
-65.069
-68.438
-71.465
-74.154
-76.509
-78.535
-80.241
-81.635
-82.729
-83.532
-84.059
-84.323
-84.339
-84.121
-83.686
-83.051
-82.231
-81.243
-80.106
-78.834
-77.447
-75.959
-74.39
-72.754
-71.07
-69.352
-67.618
-65.881
-64.157
-62.459
-60.799
-59.189
-57.639
-56.159
-54.756
-53.437
-52.208
-51.073
-50.036
-49.099
-48.263
-47.529
-46.896
-46.361
-45.924
-45.581
-45.328
-45.161
-45.077
-45.069
-45.134
-45.265
-45.456
-45.702
-45.995
-46.33
-46.698
-47.094
-47.51
-47.938
-48.373
-48.807
-49.235
-49.651
-50.05
-50.426
-50.777
-51.1
-51.39
-51.647
-51.869
-52.055
-52.205
-52.32
-52.399
-52.445
-52.458
-52.442
-52.398
-52.328
-52.236
-52.123
-51.994
-51.85
-51.697
-51.536
-51.371
-51.208
-51.049
-50.898
-50.761
-50.642
-50.543
-50.47
-50.425
-50.413
-50.437
-50.498
-50.6
-50.744
-50.933
-51.166
-51.445
-51.769
-52.14
-52.555
-53.015
-53.518
-54.063
-54.648
-55.272
-55.933
-56.629
-57.357
-58.115
-58.9
-59.709
-60.539
-61.386
-62.245
-63.112
-63.983
-64.854
-65.718
-66.57
-67.406
-68.219
-69.004
-69.755
-70.466
-71.13
-71.742
-72.295
-72.784
-73.203
-73.545
-73.807
-73.98
-74.062
-74.044
-73.923
-73.693
-73.347
-72.881
-72.29
-71.57
-70.717
-69.727
-68.597
-67.327
-65.914
-64.359
-62.662
-60.824
-58.848
-56.738
-54.498
-52.133
-49.65
-47.058
-44.366
-41.586
-38.731
-35.815
-32.854
-29.864
-26.862
-23.867
-20.896
-17.967
-15.097
-12.306
-9.61
-7.03
-4.585
-2.298
-0.186
1.731
3.434
4.907
6.135
7.109
7.821
8.265
8.431
8.305
7.875
7.129
6.06
4.663
2.942
0.905
-1.427
-4.017
-6.826
-9.811
-12.93
-16.148
-19.426
-22.723
-25.989
-29.162
-32.179
-34.986
-37.528
-39.756
-41.638
-43.174
-44.399
-45.399
-46.264
-47.063
-47.884
-48.821
-49.981
-51.483
-53.438
-55.914
-59.007
-62.904
-67.708
-73.41
-79.859
-86.645
-93.29
-99.39
-104.444
-107.773
-108.874
-107.563
-104.052
-99.162
-94.008
-89.567
-86.723
-86.735
-89.793
-94.239
-98.184
-98.863
-94.829
-88.569
-81.162
-69.834
-48.529
-5.914
67.324
171.326
301.14
446.709
596.401
743.464
878.242
987.353
1055.763
1066.06
1010.515
892.735
725.647
531.69
333.402
151.313
2.35
-103.546
-164.776
-185.823
-174.535
-143.805
-103.267
-62.741
-35.104
-23.82
-29.395
-47.023
-62.83
-69.887
-66.335
-53.744
-40.211
-30.16
-23.861
-20.971
-19.486
-18.986
-20.694
-25.17
-32.303
-41.057
-50.103
-58.614
-65.993
-71.783
-75.738
-77.776
-78.29
-78.187
-78.21
-78.716
-79.846
-81.497
-83.492
-85.738
-88.005
-89.888
-91.126
-91.599
-91.289
-90.329
-88.838
-86.869
-84.495
-81.805
-78.854
-75.71
-72.43
-69.043
-65.602
-62.159
-58.749
-55.409
-52.158
-49.001
-45.934
-42.943
-40.006
-37.109
-34.246
-31.409
-28.598
-25.805
-23.015
-20.215
-17.389
-14.521
-11.595
-8.593
-5.499
-2.302
1.007
4.432
7.977
11.648
15.451
19.393
23.48
27.717
32.107
36.653
41.357
46.217
51.228
56.385
61.677
67.095
72.628
78.262
83.981
89.768
95.604
101.469
107.343
113.2
119.017
124.769
130.428
135.968
141.362
146.584
151.605
156.401
160.946
165.215
169.184
172.832
176.136
179.077
181.636
183.795
185.539
186.855
187.731
188.158
188.129
187.639
186.686
185.27
183.395
181.064
178.285
175.068
171.424
167.368
162.915
158.084
152.895
147.37
141.532
135.406
129.018
122.393
115.561
108.547
101.381
94.09
86.702
79.246
71.749
64.239
56.744
49.289
41.9
34.603
27.421
20.376
13.489
6.781
0.269
-6.029
-12.099
-17.926
-23.498
-28.806
-33.841
-38.596
-43.067
-47.251
-51.146
-54.753
-58.073
-61.111
-63.871
-66.358
-68.58
-70.543
-72.257
-73.731
-74.976
-76
-76.817
-77.438
-77.875
-78.14
-78.245
-78.203
-78.027
-77.729
-77.32
-76.813
-76.22
-75.551
-74.817
-74.03
-73.198
-72.332
-71.439
-70.529
-69.607
-68.68
-67.754
-66.834
-65.924
-65.027
-64.148
-63.288
-62.45
-61.636
-60.848
-60.085
-59.351
-58.643
-57.964
-57.312
-56.688
-56.091
-55.522
-54.979
-54.462
-53.971
-53.505
-53.065
-52.648
-52.256
-51.888
-51.543
-51.22
-50.921
-50.644
-50.391
-50.161
-49.956
-49.776
-49.622
-49.497
-49.399
-49.332
-49.295
-49.291
-49.319
-49.38
-49.477
-49.609
-49.776
-49.98
-50.22
-50.497
-50.811
-51.16
-51.544
-51.963
-52.414
-52.896
-53.408
-53.949
-54.516
-55.108
-55.723
-56.358
-57.013
-57.683
-58.366
-59.061
-59.763
-60.471
-61.181
-61.89
-62.595
-63.295
-63.987
-64.669
-65.339
-65.996
-66.637
-67.262
-67.87
-68.46
-69.032
-69.585
-70.121
-70.639
-71.14
-71.626
-72.099
-72.558
-73.005
-73.442
-73.87
-74.29
-74.702
-75.107
-75.507
-75.902
-76.292
-76.679
-77.062
-77.442
-77.818
-78.19
-78.556
-78.915
-79.263
-79.598
-79.917
-80.216
-80.49
-80.735
-80.946
-81.117
-81.242
-81.315
-81.33
-81.278
-81.154
-80.949
-80.657
-80.271
-79.786
-79.195
-78.494
-77.678
-76.744
-75.689
-74.51
-73.207
-71.779
-70.226
-68.549
-66.752
-64.838
-62.813
-60.684
-58.461
-56.156
-53.783
-51.354
-48.888
-46.401
-43.911
-41.438
-38.998
-36.609
-34.289
-32.056
-29.932
-27.938
-26.094
-24.419
-22.932
-21.648
-20.582
-19.747
-19.149
-18.791
-18.679
-18.82
-19.231
-19.93
-20.928
-22.233
-23.85
-25.774
-27.995
-30.495
-33.237
-36.183
-39.291
-42.52
-45.84
-49.217
-52.611
-55.964
-59.203
-62.25
-65.04
-67.512
-69.617
-71.341
-72.68
-73.669
-74.376
-74.857
-75.19
-75.473
-75.79
-76.241
-76.938
-77.977
-79.528
-81.858
-85.116
-89.288
-94.201
-99.44
-104.536
-109.081
-112.506
-114.073
-113.301
-110.192
-105.291
-99.657
-94.684
-91.689
-91.686
-95.906
-104.309
-114.733
-125.578
-135.194
-142.403
-148.183
-148.471
-134.553
-97.865
-30.149
66.457
181.117
303.283
423.754
541.871
660.972
778.374
884.664
963.501
996.66
973.062
892.791
762.969
597.352
414.936
233.155
72.333
-49.255
-125.834
-159.647
-164.133
-158.262
-151.784
-147.943
-143.711
-132.512
-114.421
-93.184
-72.736
-57.701
-49.205
-46.089
-47.913
-53.418
-60.867
-68.984
-76.475
-82.203
-85.984
-87.939
-87.76
-85.519
-81.728
-76.922
-71.916
-67.615
-64.352
-62.227
-61.465
-62.035
-63.795
-66.603
-70.043
-73.583
-76.898
-79.748
-81.958
-83.511
-84.377
-84.515
-83.976
-82.841
-81.178
-79.066
-76.552
-73.655
-70.414
-66.884
-63.136
-59.259
-55.335
-51.438
-47.621
-43.919
-40.358
-36.953
-33.71
-30.621
-27.672
-24.838
-22.105
-19.461
-16.893
-14.388
-11.924
-9.475
-7.016
-4.526
-1.983
0.628
3.325
6.125
9.04
12.081
15.255
18.571
22.035
25.658
29.447
33.411
37.554
41.881
46.393
51.092
55.976
61.042
66.283
71.69
77.253
82.96
88.795
94.744
100.786
106.902
113.071
119.269
125.471
131.651
137.783
143.838
149.788
155.604
161.257
166.717
171.958
176.949
181.666
186.081
190.169
193.907
197.273
200.245
202.805
204.935
206.62
207.846
208.604
208.885
208.682
207.994
206.82
205.162
203.024
200.414
197.341
193.817
189.856
185.476
180.694
175.532
170.011
164.157
157.995
151.552
144.856
137.937
130.823
123.545
116.132
108.616
101.025
93.391
85.743
78.11
70.52
63.002
55.58
48.282
41.13
34.148
27.356
20.774
14.419
8.307
2.452
-3.133
-8.438
-13.456
-18.178
-22.602
-26.723
-30.541
-34.057
-37.272
-40.192
-42.82
-45.164
-47.231
-49.029
-50.569
-51.86
-52.913
-53.74
-54.353
-54.764
-54.987
-55.035
-54.921
-54.658
-54.26
-53.74
-53.111
-52.385
-51.575
-50.693
-49.749
-48.755
-47.721
-46.656
-45.57
-44.47
-43.365
-42.261
-41.165
-40.082
-39.017
-37.976
-36.963
-35.98
-35.033
-34.124
-33.256
-32.431
-31.653
-30.924
-30.245
-29.617
-29.042
-28.522
-28.055
-27.644
-27.288
-26.987
-26.741
-26.549
-26.41
-26.325
-26.291
-26.307
-26.373
-26.486
-26.646
-26.851
-27.099
-27.389
-27.72
-28.088
-28.493
-28.931
-29.402
-29.901
-30.426
-30.973
-31.539
-32.12
-32.713
-33.312
-33.915
-34.516
-35.113
-35.7
-36.275
-36.834
-37.374
-37.893
-38.387
-38.855
-39.295
-39.706
-40.087
-40.438
-40.759
-41.048
-41.308
-41.539
-41.741
-41.916
-42.066
-42.192
-42.296
-42.381
-42.449
-42.503
-42.548
-42.586
-42.623
-42.662
-42.708
-42.766
-42.841
-42.937
-43.058
-43.209
-43.394
-43.615
-43.877
-44.18
-44.526
-44.917
-45.353
-45.832
-46.354
-46.916
-47.517
-48.153
-48.82
-49.513
-50.228
-50.958
-51.698
-52.442
-53.181
-53.91
-54.62
-55.303
-55.95
-56.554
-57.104
-57.591
-58.007
-58.34
-58.583
-58.725
-58.758
-58.674
-58.464
-58.124
-57.645
-57.024
-56.256
-55.34
-54.273
-53.056
-51.689
-50.176
-48.521
-46.729
-44.808
-42.765
-40.612
-38.361
-36.026
-33.623
-31.167
-28.677
-26.171
-23.67
-21.193
-18.758
-16.385
-14.092
-11.899
-9.826
-7.892
-6.119
-4.525
-3.131
-1.951
-1.003
-0.298
0.156
0.355
0.294
-0.032
-0.634
-1.521
-2.701
-4.178
-5.952
-8.018
-10.362
-12.957
-15.764
-18.742
-21.846
-25.039
-28.285
-31.552
-34.8
-37.982
-41.04
-43.917
-46.558
-48.914
-50.934
-52.589
-53.89
-54.883
-55.655
-56.293
-56.85
-57.385
-57.984
-58.731
-59.722
-61.055
-62.769
-64.967
-67.866
-71.579
-76.092
-81.223
-86.473
-91.289
-95.244
-97.756
-98.097
-95.844
-90.939
-83.829
-75.691
-67.964
-61.93
-58.933
-60.599
-66.704
-74.868
-82.807
-87.196
-87.802
-88.45
-88.075
-81.757
-59.202
-5.239
85.304
207.835
351.07
497.953
639.137
770.788
886.384
978.24
1031.182
1027.302
959.724
830.524
652.089
447.1
237.218
43.329
-114.138
-222.534
-277.229
-280.667
-245.43
-189.725
-129.304
-79.915
-51.587
-43.226
-50.652
-63.764
-71.228
-70.872
-64.069
-55.721
-52.925
-56.904
-65.63
-76.445
-85.466
-90.936
-93.213
-92.582
-89.612
-85.053
-79.374
-73.247
-67.705
-63.459
-60.77
-59.757
-60.315
-62.169
-65.106
-68.784
-72.668
-76.366
-79.622
-82.27
-84.302
-85.729
-86.522
-86.7
-86.322
-85.43
-84.083
-82.325
-80.172
-77.656
-74.83
-71.759
-68.529
-65.221
-61.908
-58.642
-55.455
-52.369
-49.396
-46.539
-43.792
-41.139
-38.558
-36.03
-33.542
-31.076
-28.619
-26.149
-23.64
-21.07
-18.417
-15.663
-12.794
-9.797
-6.658
-3.369
0.076
3.684
7.457
11.4
15.516
19.812
24.289
28.95
33.793
38.819
44.024
49.403
54.949
60.65
66.496
72.47
78.559
84.742
91.002
97.316
103.662
110.017
116.355
122.65
128.878
135.01
141.02
146.881
152.565
158.047
163.299
168.295
173.012
177.425
181.512
185.25
188.62
191.602
194.178
196.334
198.054
199.326
200.14
200.488
200.364
199.764
198.69
197.141
195.123
192.642
189.707
186.33
182.524
178.304
173.687
168.692
163.339
157.65
151.648
145.356
138.799
132.002
124.992
117.794
110.434
102.94
95.337
87.651
79.91
72.139
64.363
56.608
48.898
41.257
33.708
26.273
18.972
11.826
4.853
-1.932
-8.511
-14.873
-21.005
-26.896
-32.538
-37.923
-43.046
-47.902
-52.489
-56.803
-60.845
-64.615
-68.115
-71.347
-74.314
-77.02
-79.469
-81.667
-83.62
-85.332
-86.812
-88.067
-89.103
-89.93
-90.555
-90.989
-91.241
-91.32
-91.236
-91
-90.621
-90.108
-89.472
-88.721
-87.865
-86.913
-85.872
-84.751
-83.557
-82.299
-80.982
-79.615
-78.203
-76.753
-75.271
-73.762
-72.234
-70.692
-69.142
-67.591
-66.044
-64.508
-62.988
-61.491
-60.023
-58.587
-57.19
-55.836
-54.529
-53.272
-52.07
-50.924
-49.839
-48.817
-47.859
-46.968
-46.146
-45.393
-44.713
-44.104
-43.568
-43.107
-42.719
-42.406
-42.167
-42.002
-41.911
-41.892
-41.943
-42.063
-42.248
-42.496
-42.803
-43.164
-43.575
-44.032
-44.528
-45.06
-45.622
-46.209
-46.816
-47.439
-48.072
-48.711
-49.352
-49.991
-50.623
-51.246
-51.856
-52.451
-53.026
-53.581
-54.113
-54.62
-55.1
-55.552
-55.976
-56.37
-56.734
-57.069
-57.374
-57.652
-57.904
-58.131
-58.338
-58.528
-58.703
-58.869
-59.028
-59.186
-59.347
-59.516
-59.695
-59.89
-60.105
-60.342
-60.605
-60.897
-61.22
-61.577
-61.967
-62.393
-62.854
-63.351
-63.882
-64.446
-65.041
-65.666
-66.315
-66.987
-67.676
-68.377
-69.085
-69.794
-70.496
-71.185
-71.853
-72.49
-73.089
-73.639
-74.131
-74.555
-74.902
-75.163
-75.327
-75.386
-75.332
-75.157
-74.853
-74.414
-73.835
-73.111
-72.238
-71.214
-70.036
-68.705
-67.223
-65.593
-63.818
-61.904
-59.859
-57.693
-55.417
-53.043
-50.587
-48.064
-45.492
-42.888
-40.273
-37.664
-35.082
-32.547
-30.08
-27.702
-25.437
-23.304
-21.327
-19.529
-17.929
-16.547
-15.399
-14.497
-13.853
-13.477
-13.38
-13.577
-14.08
-14.896
-16.034
-17.497
-19.284
-21.386
-23.78
-26.426
-29.288
-32.326
-35.503
-38.79
-42.148
-45.535
-48.91
-52.211
-55.388
-58.392
-61.168
-63.67
-65.869
-67.748
-69.351
-70.764
-72.071
-73.36
-74.69
-76.1
-77.682
-79.543
-81.781
-84.506
-87.754
-91.575
-96.147
-101.569
-107.782
-114.53
-121.237
-127.272
-132.211
-135.576
-136.726
-135.234
-130.963
-124.415
-116.846
-109.435
-103.216
-99.215
-98.441
-101.918
-108.517
-114.45
-115.991
-109.18
-94.267
-76.615
-56.103
-29.958
9.275
76.733
177.249
308.958
465.843
630.536
788.816
926.047
1023.545
1068.176
1049.324
965.387
826.174
646.731
446.716
244.852
59.044
-92.319
-195.218
-242.37
-237.476
-196.71
-142.233
-94.589
-66.512
-58.82
-62.906
-67.799
-65.843
-56.178
-44.549
-38.455
-41.593
-53.263
-69.57
-85.145
-97.299
-105.534
-109.466
-109.537
-106.331
-100.303
-92.762
-85.368
-78.964
-73.999
-70.888
-69.628
-70.135
-72.322
-75.674
-79.532
-83.538
-87.425
-90.993
-94.186
-96.868
-98.907
-100.304
-101.093
-101.293
-100.935
-100.017
-98.534
-96.534
-94.075
-91.223
-88.052
-84.621
-80.993
-77.242
-73.436
-69.641
-65.91
-62.271
-58.746
-55.344
-52.065
-48.906
-45.858
-42.896
-40.002
-37.156
-34.338
-31.53
-28.713
-25.868
-22.974
-20.013
-16.965
-13.817
-10.554
-7.166
-3.641
0.028
3.85
7.828
11.968
16.275
20.753
25.405
30.234
35.239
40.42
45.774
51.293
56.971
62.796
68.754
74.832
81.011
87.274
93.599
99.964
106.348
112.724
119.067
125.351
131.548
137.63
143.569
149.335
154.902
160.242
165.326
170.13
174.628
178.797
182.612
186.053
189.099
191.732
193.936
195.696
196.999
197.836
198.198
198.081
197.482
196.402
194.844
192.813
190.317
187.368
183.977
180.161
175.935
171.32
166.337
161.008
155.359
149.415
143.203
136.752
130.091
123.247
116.252
109.133
101.922
94.646
87.335
80.019
72.724
65.478
58.308
51.24
44.297
37.503
30.88
24.446
18.22
12.218
6.455
0.945
-4.304
-9.28
-13.977
-18.389
-22.513
-26.347
-29.892
-33.149
-36.121
-38.815
-41.237
-43.393
-45.293
-46.947
-48.364
-49.556
-50.535
-51.312
-51.901
-52.315
-52.566
-52.67
-52.639
-52.487
-52.227
-51.873
-51.436
-50.931
-50.367
-49.757
-49.111
-48.439
-47.751
-47.057
-46.363
-45.679
-45.009
-44.36
-43.736
-43.142
-42.58
-42.053
-41.563
-41.11
-40.696
-40.321
-39.984
-39.684
-39.422
-39.194
-39.001
-38.839
-38.707
-38.602
-38.522
-38.465
-38.427
-38.408
-38.405
-38.416
-38.438
-38.469
-38.508
-38.553
-38.601
-38.651
-38.702
-38.752
-38.8
-38.845
-38.886
-38.924
-38.958
-38.989
-39.016
-39.041
-39.062
-39.082
-39.101
-39.119
-39.137
-39.156
-39.177
-39.2
-39.228
-39.26
-39.297
-39.341
-39.391
-39.447
-39.511
-39.583
-39.662
-39.75
-39.846
-39.951
-40.066
-40.19
-40.325
-40.471
-40.627
-40.795
-40.974
-41.165
-41.368
-41.583
-41.81
-42.049
-42.302
-42.568
-42.848
-43.142
-43.451
-43.776
-44.118
-44.475
-44.851
-45.244
-45.656
-46.088
-46.541
-47.016
-47.514
-48.034
-48.579
-49.148
-49.742
-50.36
-51.003
-51.668
-52.356
-53.064
-53.792
-54.538
-55.3
-56.076
-56.863
-57.658
-58.458
-59.259
-60.057
-60.848
-61.626
-62.387
-63.124
-63.831
-64.502
-65.13
-65.71
-66.233
-66.693
-67.082
-67.394
-67.619
-67.752
-67.785
-67.711
-67.524
-67.218
-66.789
-66.231
-65.541
-64.716
-63.754
-62.654
-61.415
-60.037
-58.522
-56.871
-55.089
-53.179
-51.148
-49.001
-46.747
-44.397
-41.963
-39.459
-36.901
-34.304
-31.687
-29.068
-26.466
-23.902
-21.391
-18.951
-16.602
-14.36
-12.247
-10.283
-8.486
-6.874
-5.463
-4.269
-3.307
-2.587
-2.114
-1.891
-1.924
-2.219
-2.794
-3.666
-4.841
-6.326
-8.12
-10.216
-12.599
-15.245
-18.109
-21.142
-24.294
-27.517
-30.775
-34.028
-37.228
-40.317
-43.217
-45.854
-48.171
-50.118
-51.656
-52.776
-53.488
-53.841
-53.937
-53.871
-53.751
-53.693
-53.802
-54.202
-55.025
-56.39
-58.451
-61.391
-65.311
-70.208
-75.917
-82.055
-88.182
-93.835
-98.462
-101.477
-102.396
-101.006
-97.653
-93.187
-88.621
-84.984
-83.034
-83.265
-86.251
-92.13
-99.567
-106.442
-109.253
-102.86
-84.44
-52.536
-6.393
50.477
116.346
192.945
280.859
384.828
507.632
643.509
783.465
910.014
1002.1
1043.594
1022.933
940.372
805.806
634.471
446.163
259.319
90.728
-44.416
-135.783
-179.915
-179.385
-144.437
-91.599
-36.294
5.662
23.083
16.096
-10.212
-44.15
-72.067
-89.089
-94.965
-93.719
-92.122
-91.889
-92.229
-91.989
-89.081
-83.493
-76.571
-69.216
-62.444
-56.959
-52.813
-50.01
-48.508
-48.096
-48.632
-50.021
-52.12
-54.767
-57.816
-61.13
-64.579
-68.045
-71.391
-74.458
-77.089
-79.185
-80.696
-81.605
-81.924
-81.674
-80.878
-79.585
-77.857
-75.753
-73.336
-70.663
-67.787
-64.771
-61.684
-58.589
-55.55
-52.608
-49.781
-47.077
-44.492
-42.014
-39.631
-37.32
-35.051
-32.801
-30.55
-28.276
-25.965
-23.596
-21.148
-18.598
-15.927
-13.115
-10.15
-7.018
-3.709
-0.214
3.472
7.354
11.433
15.709
20.184
24.86
29.736
34.81
40.076
45.531
51.165
56.97
62.933
69.039
75.271
81.61
88.037
94.53
101.065
107.619
114.165
120.678
127.129
133.491
139.735
145.833
151.755
157.472
162.957
168.18
173.116
177.737
182.02
185.94
189.477
192.611
195.322
197.596
199.418
200.776
201.659
202.061
201.975
201.399
200.332
198.776
196.736
194.219
191.235
187.794
183.911
179.602
174.884
169.776
164.301
158.48
152.339
145.902
139.197
132.252
125.096
117.757
110.265
102.651
94.943
87.171
79.363
71.55
63.757
56.011
48.34
40.767
33.317
26.012
18.874
11.923
5.176
-1.348
-7.635
-13.672
-19.445
-24.946
-30.164
-35.092
-39.726
-44.061
-48.094
-51.825
-55.255
-58.385
-61.219
-63.763
-66.022
-68.003
-69.715
-71.167
-72.368
-73.33
-74.061
-74.575
-74.881
-74.992
-74.92
-74.676
-74.273
-73.723
-73.037
-72.229
-71.309
-70.289
-69.18
-67.995
-66.743
-65.435
-64.081
-62.691
-61.275
-59.842
-58.4
-56.956
-55.52
-54.096
-52.692
-51.313
-49.963
-48.648
-47.371
-46.135
-44.945
-43.802
-42.71
-41.67
-40.685
-39.758
-38.888
-38.078
-37.329
-36.642
-36.016
-35.453
-34.952
-34.512
-34.133
-33.815
-33.555
-33.352
-33.204
-33.11
-33.066
-33.07
-33.12
-33.213
-33.345
-33.516
-33.722
-33.962
-34.232
-34.532
-34.859
-35.21
-35.585
-35.982
-36.397
-36.828
-37.275
-37.734
-38.203
-38.68
-39.163
-39.65
-40.138
-40.627
-41.113
-41.597
-42.075
-42.548
-43.016
-43.476
-43.931
-44.379
-44.821
-45.258
-45.691
-46.121
-46.547
-46.972
-47.394
-47.816
-48.237
-48.658
-49.079
-49.501
-49.925
-50.35
-50.778
-51.21
-51.647
-52.091
-52.541
-53.001
-53.472
-53.956
-54.454
-54.969
-55.501
-56.053
-56.625
-57.219
-57.836
-58.476
-59.138
-59.824
-60.532
-61.262
-62.013
-62.783
-63.571
-64.376
-65.195
-66.026
-66.868
-67.717
-68.572
-69.428
-70.284
-71.134
-71.975
-72.801
-73.608
-74.389
-75.138
-75.848
-76.512
-77.122
-77.671
-78.151
-78.555
-78.874
-79.102
-79.229
-79.25
-79.157
-78.943
-78.602
-78.13
-77.521
-76.772
-75.878
-74.837
-73.649
-72.311
-70.825
-69.191
-67.411
-65.49
-63.43
-61.239
-58.923
-56.49
-53.953
-51.323
-48.616
-45.847
-43.035
-40.199
-37.359
-34.535
-31.749
-29.021
-26.37
-23.817
-21.38
-19.081
-16.94
-14.979
-13.217
-11.674
-10.366
-9.312
-8.522
-8.005
-7.765
-7.806
-8.134
-8.76
-9.692
-10.94
-12.51
-14.404
-16.618
-19.142
-21.95
-25.003
-28.259
-31.672
-35.198
-38.8
-42.438
-46.071
-49.65
-53.111
-56.396
-59.447
-62.206
-64.617
-66.646
-68.288
-69.58
-70.603
-71.43
-72.12
-72.748
-73.39
-74.137
-75.093
-76.348
-77.968
-80.079
-82.891
-86.508
-90.949
-96.063
-101.402
-106.478
-110.854
-113.903
-114.912
-113.515
-109.581
-103.398
-96.221
-89.45
-84.256
-82.306
-84.193
-88.453
-93.701
-97.962
-100.535
-104.667
-111.468
-117.549
-114.043
-85.587
-20.747
81.886
214.04
359.757
504.588
640.539
763.974
869.849
949.361
991.422
984.102
924.982
819.779
675.964
508.562
332.437
161.531
15.516
-91.75
-155.567
-176.24
-163.411
-131.869
-91.563
-53.374
-28.483
-19.09
-25.678
-43.67
-61.106
-72.679
-77.254
-76.096
-75.276
-76.95
-79.568
-81.803
-81.617
-78.512
-73.763
-68.393
-63.171
-58.755
-55.552
-53.75
-53.392
-54.364
-56.385
-59.23
-62.77
-66.813
-71.149
-75.617
-80.029
-84.234
-88.115
-91.525
-94.348
-96.522
-98.005
-98.792
-98.906
-98.374
-97.242
-95.578
-93.443
-90.897
-88.004
-84.817
-81.407
-77.847
-74.209
-70.564
-66.961
-63.429
-59.991
-56.652
-53.411
-50.259
-47.178
-44.142
-41.135
-38.14
-35.143
-32.132
-29.09
-25.998
-22.839
-19.595
-16.25
-12.791
-9.208
-5.49
-1.631
2.375
6.532
10.839
15.301
19.919
24.697
29.636
34.735
39.994
45.409
50.977
56.689
62.537
68.509
74.591
80.767
87.021
93.335
99.687
106.057
112.421
118.757
125.038
131.24
137.335
143.296
149.097
154.71
160.109
165.265
170.154
174.75
179.029
182.966
186.541
189.733
192.522
194.89
196.823
198.306
199.328
199.879
199.953
199.545
198.653
197.279
195.426
193.099
190.308
187.062
183.374
179.259
174.734
169.818
164.532
158.897
152.939
146.682
140.152
133.378
126.386
119.208
111.871
104.406
96.842
89.21
81.539
73.859
66.198
58.586
51.049
43.613
36.305
29.147
22.162
15.37
8.791
2.441
-3.664
-9.51
-15.086
-20.381
-25.387
-30.097
-34.507
-38.612
-42.411
-45.905
-49.094
-51.982
-54.572
-56.871
-58.885
-60.622
-62.092
-63.304
-64.27
-65.001
-65.51
-65.811
-65.918
-65.844
-65.604
-65.213
-64.685
-64.034
-63.273
-62.417
-61.478
-60.468
-59.399
-58.282
-57.129
-55.948
-54.751
-53.545
-52.34
-51.142
-49.959
-48.799
-47.665
-46.566
-45.504
-44.485
-43.512
-42.589
-41.719
-40.902
-40.142
-39.437
-38.789
-38.197
-37.659
-37.173
-36.739
-36.353
-36.013
-35.717
-35.463
-35.247
-35.067
-34.922
-34.808
-34.723
-34.666
-34.635
-34.626
-34.639
-34.672
-34.721
-34.787
-34.867
-34.958
-35.059
-35.169
-35.284
-35.403
-35.525
-35.647
-35.767
-35.885
-36
-36.111
-36.217
-36.32
-36.418
-36.514
-36.607
-36.699
-36.791
-36.884
-36.979
-37.077
-37.179
-37.287
-37.401
-37.523
-37.653
-37.793
-37.942
-38.101
-38.272
-38.456
-38.652
-38.862
-39.087
-39.328
-39.587
-39.865
-40.164
-40.486
-40.831
-41.202
-41.599
-42.024
-42.476
-42.957
-43.466
-44.004
-44.569
-45.162
-45.782
-46.427
-47.096
-47.789
-48.503
-49.238
-49.992
-50.763
-51.551
-52.354
-53.17
-54
-54.84
-55.691
-56.55
-57.415
-58.286
-59.158
-60.029
-60.897
-61.758
-62.609
-63.445
-64.263
-65.059
-65.828
-66.568
-67.272
-67.938
-68.561
-69.136
-69.659
-70.126
-70.533
-70.875
-71.149
-71.351
-71.476
-71.521
-71.481
-71.352
-71.131
-70.812
-70.391
-69.863
-69.225
-68.474
-67.605
-66.616
-65.506
-64.272
-62.916
-61.436
-59.834
-58.113
-56.275
-54.323
-52.262
-50.099
-47.84
-45.493
-43.068
-40.573
-38.022
-35.428
-32.805
-30.167
-27.53
-24.911
-22.327
-19.795
-17.333
-14.957
-12.684
-10.532
-8.52
-6.664
-4.985
-3.5
-2.227
-1.18
-0.376
0.175
0.465
0.489
0.243
-0.279
-1.087
-2.189
-3.592
-5.297
-7.306
-9.613
-12.206
-15.062
-18.146
-21.416
-24.833
-28.356
-31.953
-35.588
-39.221
-42.804
-46.278
-49.584
-52.67
-55.485
-57.979
-60.121
-61.908
-63.368
-64.578
-65.615
-66.533
-67.401
-68.292
-69.29
-70.497
-71.999
-73.852
-76.17
-79.135
-82.871
-87.394
-92.57
-98.045
-103.415
-108.3
-112.18
-114.36
-114.286
-111.784
-107.115
-100.977
-94.414
-88.426
-84.074
-83.004
-85.355
-89.124
-92.494
-92.967
-91.092
-91.563
-94.188
-94.364
-81.444
-39.12
39.035
150.026
284.274
425.62
564.65
696.911
814.58
909.244
968.758
979.148
937.419
848.2
720.014
567.908
403.109
237.227
85.811
-39.64
-127.925
-175.89
-189.598
-176.108
-147.716
-113.646
-81.321
-61.657
-57.648
-68.913
-90.554
-109.701
-119.711
-119.281
-110.029
-98.715
-88.795
-79.891
-71.811
-64.013
-57.066
-52.522
-51.219
-53.064
-57.274
-63.206
-70.157
-77.007
-82.923
-87.349
-89.976
-91.22
-91.851
-92.245
-92.663
-93.408
-94.509
-95.955
-97.732
-99.53
-100.935
-101.745
-101.85
-101.225
-99.984
-98.204
-95.927
-93.263
-90.323
-87.186
-83.927
-80.597
-77.22
-73.844
-70.514
-67.26
-64.113
-61.083
-58.165
-55.348
-52.606
-49.913
-47.248
-44.595
-41.939
-39.268
-36.566
-33.82
-31.014
-28.133
-25.16
-22.077
-18.864
-15.507
-11.996
-8.322
-4.48
-0.466
3.723
8.094
12.649
17.392
22.325
27.447
32.758
38.254
43.929
49.775
55.779
61.929
68.208
74.601
81.088
87.65
94.264
100.907
107.556
114.184
120.766
127.274
133.681
139.958
146.077
152.011
157.73
163.207
168.415
173.329
177.923
182.173
186.058
189.556
192.648
195.317
197.547
199.325
200.638
201.479
201.839
201.714
201.103
200.006
198.425
196.368
193.841
190.855
187.422
183.556
179.274
174.594
169.537
164.122
158.375
152.319
145.979
139.382
132.556
125.527
118.325
110.977
103.513
95.961
88.349
80.705
73.057
65.431
57.855
50.352
42.949
35.668
28.532
21.561
14.775
8.191
1.826
-4.305
-10.189
-15.816
-21.175
-26.259
-31.06
-35.575
-39.801
-43.734
-47.376
-50.727
-53.791
-56.57
-59.07
-61.297
-63.258
-64.961
-66.414
-67.627
-68.609
-69.371
-69.925
-70.28
-70.45
-70.445
-70.278
-69.961
-69.505
-68.924
-68.228
-67.429
-66.538
-65.565
-64.522
-63.418
-62.263
-61.064
-59.832
-58.574
-57.296
-56.007
-54.712
-53.416
-52.126
-50.846
-49.58
-48.331
-47.104
-45.901
-44.725
-43.578
-42.462
-41.379
-40.332
-39.32
-38.346
-37.41
-36.514
-35.657
-34.84
-34.064
-33.328
-32.634
-31.981
-31.369
-30.799
-30.27
-29.781
-29.333
-28.926
-28.558
-28.23
-27.941
-27.69
-27.478
-27.303
-27.165
-27.065
-27.001
-26.973
-26.981
-27.023
-27.1
-27.209
-27.35
-27.522
-27.723
-27.952
-28.207
-28.487
-28.79
-29.114
-29.457
-29.818
-30.193
-30.582
-30.982
-31.392
-31.81
-32.235
-32.665
-33.099
-33.536
-33.976
-34.418
-34.862
-35.306
-35.751
-36.196
-36.641
-37.085
-37.528
-37.971
-38.413
-38.855
-39.297
-39.739
-40.182
-40.627
-41.074
-41.525
-41.982
-42.445
-42.915
-43.395
-43.885
-44.388
-44.904
-45.436
-45.984
-46.548
-47.131
-47.73
-48.347
-48.981
-49.629
-50.292
-50.966
-51.651
-52.343
-53.039
-53.738
-54.436
-55.129
-55.815
-56.488
-57.147
-57.785
-58.399
-58.983
-59.533
-60.043
-60.507
-60.921
-61.278
-61.574
-61.801
-61.953
-62.026
-62.012
-61.906
-61.703
-61.397
-60.983
-60.458
-59.818
-59.062
-58.187
-57.193
-56.079
-54.847
-53.498
-52.035
-50.461
-48.78
-46.999
-45.122
-43.158
-41.114
-39
-36.826
-34.606
-32.354
-30.084
-27.811
-25.552
-23.323
-21.143
-19.028
-16.994
-15.056
-13.231
-11.535
-9.985
-8.6
-7.396
-6.388
-5.591
-5.015
-4.674
-4.574
-4.719
-5.107
-5.74
-6.621
-7.764
-9.178
-10.866
-12.829
-15.064
-17.558
-20.296
-23.252
-26.383
-29.643
-32.99
-36.381
-39.787
-43.179
-46.515
-49.745
-52.805
-55.628
-58.164
-60.37
-62.205
-63.657
-64.729
-65.465
-65.953
-66.274
-66.511
-66.752
-67.073
-67.576
-68.384
-69.594
-71.319
-73.73
-76.914
-80.889
-85.566
-90.586
-95.478
-99.829
-103.129
-104.782
-104.389
-101.734
-96.984
-91.055
-85.148
-80.239
-77.167
-76.888
-80.12
-86.948
-96.734
-106.479
-111.241
-108.13
-95.245
-71.906
-40.333
2.636
62.645
141.647
242.504
359.315
480.555
601.758
717.071
823.605
919.312
988.198
1010.676
969.324
852.177
668.195
444.55
216.495
21.617
-115.488
-191.621
-218.715
-216.793
-202.865
-183.614
-158.819
-128.939
-99.979
-79.237
-71.874
-75.446
-79.304
-76.292
-64.533
-47.383
-32.996
-25
-22.802
-25.262
-30.097
-36.486
-44.76
-53.962
-62.788
-70.592
-77.027
-81.913
-85.197
-86.725
-86.477
-85.146
-83.808
-83.062
-83.095
-83.868
-85.138
-86.762
-88.681
-90.615
-92.134
-92.987
-93.064
-92.388
-91.111
-89.334
-87.088
-84.44
-81.469
-78.242
-74.83
-71.288
-67.642
-63.941
-60.229
-56.541
-52.91
-49.357
-45.886
-42.496
-39.173
-35.898
-32.662
-29.462
-26.296
-23.161
-20.048
-16.944
-13.836
-10.709
-7.55
-4.344
-1.072
2.28
5.724
9.267
12.915
16.672
20.545
24.541
28.667
32.929
37.331
41.875
46.564
51.399
56.378
61.495
66.744
72.116
77.601
83.19
88.869
94.624
100.441
106.302
112.19
118.085
123.966
129.811
135.597
141.298
146.89
152.347
157.642
162.749
167.641
172.294
176.68
180.776
184.558
188.004
191.092
193.802
196.117
198.02
199.497
200.535
201.125
201.259
200.932
200.141
198.885
197.165
194.986
192.353
189.275
185.761
181.823
177.478
172.74
167.628
162.163
156.368
150.265
143.88
137.239
130.37
123.301
116.06
108.677
101.182
93.604
85.973
78.318
70.668
63.052
55.496
48.026
40.668
33.445
26.38
19.491
12.8
6.323
0.076
-5.927
-11.673
-17.152
-22.355
-27.274
-31.906
-36.246
-40.293
-44.047
-47.51
-50.686
-53.577
-56.192
-58.536
-60.619
-62.448
-64.036
-65.394
-66.532
-67.465
-68.204
-68.764
-69.157
-69.396
-69.496
-69.469
-69.327
-69.082
-68.747
-68.332
-67.849
-67.307
-66.716
-66.085
-65.421
-64.733
-64.025
-63.305
-62.576
-61.843
-61.11
-60.38
-59.655
-58.936
-58.227
-57.527
-56.838
-56.16
-55.491
-54.833
-54.184
-53.542
-52.907
-52.277
-51.651
-51.028
-50.407
-49.787
-49.167
-48.546
-47.925
-47.302
-46.678
-46.053
-45.428
-44.802
-44.177
-43.555
-42.937
-42.324
-41.72
-41.126
-40.544
-39.977
-39.427
-38.895
-38.384
-37.895
-37.431
-36.992
-36.582
-36.2
-35.85
-35.532
-35.248
-34.998
-34.784
-34.605
-34.462
-34.355
-34.283
-34.247
-34.245
-34.278
-34.343
-34.441
-34.571
-34.73
-34.917
-35.132
-35.371
-35.632
-35.915
-36.216
-36.534
-36.868
-37.215
-37.575
-37.947
-38.329
-38.722
-39.124
-39.535
-39.954
-40.382
-40.817
-41.261
-41.714
-42.177
-42.65
-43.136
-43.634
-44.146
-44.673
-45.216
-45.776
-46.354
-46.952
-47.568
-48.205
-48.864
-49.544
-50.246
-50.97
-51.717
-52.484
-53.272
-54.079
-54.903
-55.741
-56.59
-57.448
-58.31
-59.173
-60.034
-60.886
-61.727
-62.549
-63.347
-64.116
-64.848
-65.537
-66.176
-66.757
-67.273
-67.718
-68.084
-68.366
-68.556
-68.648
-68.637
-68.516
-68.281
-67.926
-67.447
-66.841
-66.105
-65.237
-64.238
-63.107
-61.844
-60.454
-58.939
-57.303
-55.552
-53.69
-51.727
-49.669
-47.526
-45.308
-43.028
-40.697
-38.333
-35.953
-33.573
-31.212
-28.89
-26.625
-24.437
-22.346
-20.368
-18.517
-16.809
-15.26
-13.887
-12.706
-11.731
-10.977
-10.455
-10.174
-10.143
-10.369
-10.849
-11.58
-12.559
-13.788
-15.278
-17.041
-19.077
-21.386
-23.964
-26.792
-29.853
-33.114
-36.523
-40.025
-43.566
-47.094
-50.573
-53.963
-57.212
-60.262
-63.037
-65.463
-67.492
-69.077
-70.178
-70.799
-70.967
-70.744
-70.254
-69.595
-68.856
-68.165
-67.631
-67.371
-67.524
-68.164
-69.396
-71.43
-74.372
-78.202
-82.745
-87.526
-92.032
-95.88
-98.552
-99.381
-97.925
-94.022
-88.129
-81.4
-74.922
-69.665
-66.62
-66.753
-70.986
-78.236
-84.978
-87.637
-82.347
-68.999
-52.023
-31.006
-3.315
37.718
105.357
203.365
329.224
476.602
629.727
776.429
904.79
999.502
1047.849
1037.125
962.104
827.751
648.347
447.168
247.351
70.912
-64.616
-152.113
-191.282
-189.083
-160.197
-119.003
-77.97
-48.892
-35.005
-34.013
-41.23
-46.812
-46.118
-40.589
-33.774
-32.001
-37.444
-47.719
-59.463
-69.201
-75.744
-79.37
-80.149
-78.438
-74.687
-69.678
-64.821
-61.019
-58.508
-57.446
-57.889
-59.828
-63.254
-67.839
-72.952
-78.149
-83.173
-87.826
-92.018
-95.642
-98.569
-100.773
-102.303
-103.199
-103.495
-103.219
-102.375
-100.998
-99.14
-96.859
-94.219
-91.291
-88.146
-84.858
-81.5
-78.123
-74.763
-71.447
-68.186
-64.987
-61.845
-58.747
-55.677
-52.622
-49.569
-46.504
-43.414
-40.279
-37.083
-33.808
-30.44
-26.965
-23.371
-19.649
-15.79
-11.788
-7.641
-3.346
1.096
5.688
10.431
15.326
20.373
25.572
30.919
36.413
42.049
47.82
53.717
59.729
65.845
72.048
78.325
84.657
91.026
97.413
103.796
110.153
116.462
122.699
128.838
134.855
140.724
146.42
151.917
157.19
162.213
166.963
171.417
175.551
179.345
182.778
185.831
188.488
190.731
192.548
193.925
194.852
195.321
195.324
194.86
193.925
192.521
190.65
188.319
185.534
182.305
178.644
174.564
170.081
165.213
159.977
154.396
148.491
142.286
135.807
129.078
122.129
114.985
107.675
100.228
92.672
85.035
77.348
69.636
61.93
54.255
46.638
39.105
31.681
24.388
17.25
10.288
3.52
-3.036
-9.363
-15.446
-21.273
-26.831
-32.112
-37.107
-41.809
-46.214
-50.319
-54.121
-57.622
-60.823
-63.727
-66.339
-68.666
-70.714
-72.493
-74.012
-75.281
-76.312
-77.115
-77.705
-78.093
-78.293
-78.317
-78.18
-77.895
-77.476
-76.934
-76.284
-75.538
-74.707
-73.803
-72.838
-71.821
-70.763
-69.673
-68.561
-67.435
-66.303
-65.171
-64.048
-62.938
-61.846
-60.777
-59.735
-58.722
-57.74
-56.791
-55.876
-54.996
-54.15
-53.339
-52.562
-51.817
-51.105
-50.422
-49.768
-49.142
-48.54
-47.962
-47.407
-46.872
-46.356
-45.859
-45.379
-44.916
-44.467
-44.032
-43.61
-43.199
-42.799
-42.408
-42.026
-41.651
-41.283
-40.921
-40.566
-40.216
-39.873
-39.536
-39.206
-38.883
-38.568
-38.262
-37.966
-37.68
-37.407
-37.147
-36.901
-36.671
-36.458
-36.263
-36.087
-35.93
-35.794
-35.678
-35.584
-35.511
-35.459
-35.431
-35.425
-35.443
-35.486
-35.554
-35.649
-35.771
-35.921
-36.101
-36.311
-36.552
-36.825
-37.13
-37.469
-37.841
-38.246
-38.685
-39.158
-39.664
-40.202
-40.771
-41.371
-42.001
-42.659
-43.345
-44.057
-44.795
-45.558
-46.345
-47.155
-47.987
-48.84
-49.713
-50.604
-51.513
-52.437
-53.373
-54.32
-55.274
-56.232
-57.191
-58.146
-59.093
-60.029
-60.948
-61.845
-62.717
-63.558
-64.365
-65.131
-65.854
-66.528
-67.149
-67.712
-68.213
-68.646
-69.009
-69.295
-69.501
-69.621
-69.651
-69.586
-69.42
-69.15
-68.771
-68.278
-67.667
-66.935
-66.079
-65.097
-63.988
-62.751
-61.389
-59.902
-58.294
-56.569
-54.732
-52.787
-50.741
-48.602
-46.377
-44.074
-41.704
-39.276
-36.804
-34.3
-31.781
-29.262
-26.759
-24.29
-21.873
-19.526
-17.265
-15.107
-13.065
-11.157
-9.399
-7.809
-6.406
-5.203
-4.215
-3.454
-2.933
-2.662
-2.647
-2.885
-3.374
-4.114
-5.111
-6.378
-7.927
-9.761
-11.88
-14.279
-16.948
-19.874
-23.03
-26.368
-29.835
-33.381
-36.956
-40.528
-44.055
-47.48
-50.735
-53.74
-56.421
-58.721
-60.594
-62.004
-62.935
-63.396
-63.434
-63.131
-62.591
-61.932
-61.285
-60.782
-60.554
-60.706
-61.395
-62.846
-65.221
-68.571
-72.763
-77.457
-82.323
-87.118
-91.425
-94.638
-96.241
-95.914
-93.932
-91.173
-88.351
-86.124
-85.408
-87.119
-92.12
-99.811
-107.345
-111.63
-110.701
-105.994
-100.549
-93.051
-77.024
-39.88
29.433
130.432
254.188
384.577
508.736
627.355
743.503
857.679
961.748
1031.19
1042.819
985.491
860.007
686.529
491.889
298.761
128.638
-5.846
-99.443
-151.359
-167.886
-158.428
-134.203
-105.136
-79.892
-64.815
-60.447
-64.8
-71.838
-74.932
-72.706
-66.962
-62.368
-62.855
-68.221
-75.764
-82.105
-85.632
-86.57
-85.68
-83.566
-80.132
-75.441
-70.306
-65.718
-62.284
-60.19
-59.298
-59.493
-60.928
-63.625
-67.296
-71.478
-75.722
-79.75
-83.434
-86.68
-89.363
-91.37
-92.656
-93.254
-93.234
-92.649
-91.537
-89.929
-87.854
-85.367
-82.531
-79.412
-76.083
-72.618
-69.085
-65.551
-62.067
-58.66
-55.352
-52.149
-49.046
-46.034
-43.092
-40.199
-37.338
-34.494
-31.65
-28.789
-25.889
-22.929
-19.891
-16.755
-13.506
-10.13
-6.616
-2.953
0.864
4.84
8.979
13.28
17.746
22.379
27.18
32.148
37.283
42.58
48.035
53.642
59.391
65.273
71.273
77.377
83.567
89.827
96.136
102.473
108.818
115.146
121.434
127.657
133.789
139.805
145.678
151.382
156.89
162.178
167.219
171.989
176.464
180.622
184.44
187.898
190.976
193.658
195.927
197.768
199.168
200.119
200.611
200.638
200.196
199.285
197.904
196.059
193.754
190.996
187.797
184.167
180.121
175.674
170.845
165.652
160.116
154.26
148.107
141.681
135.009
128.116
121.029
113.776
106.384
98.882
91.298
83.66
75.997
68.335
60.702
53.125
45.629
38.239
30.978
23.869
16.933
10.189
3.656
-2.65
-8.714
-14.522
-20.064
-25.328
-30.306
-34.993
-39.383
-43.473
-47.262
-50.749
-53.937
-56.828
-59.426
-61.737
-63.768
-65.526
-67.021
-68.264
-69.265
-70.037
-70.592
-70.943
-71.106
-71.093
-70.919
-70.6
-70.149
-69.581
-68.911
-68.152
-67.319
-66.425
-65.482
-64.503
-63.499
-62.482
-61.46
-60.443
-59.439
-58.455
-57.499
-56.575
-55.69
-54.847
-54.05
-53.301
-52.603
-51.957
-51.364
-50.823
-50.333
-49.893
-49.501
-49.154
-48.851
-48.586
-48.358
-48.162
-47.994
-47.851
-47.728
-47.621
-47.526
-47.439
-47.357
-47.275
-47.192
-47.104
-47.009
-46.905
-46.791
-46.665
-46.528
-46.378
-46.217
-46.043
-45.858
-45.663
-45.459
-45.247
-45.029
-44.808
-44.584
-44.361
-44.141
-43.926
-43.717
-43.518
-43.331
-43.157
-43
-42.86
-42.739
-42.64
-42.564
-42.512
-42.486
-42.486
-42.512
-42.565
-42.644
-42.749
-42.879
-43.031
-43.206
-43.4
-43.611
-43.839
-44.079
-44.33
-44.59
-44.855
-45.124
-45.394
-45.663
-45.929
-46.191
-46.447
-46.697
-46.939
-47.174
-47.402
-47.623
-47.839
-48.049
-48.257
-48.463
-48.669
-48.878
-49.091
-49.312
-49.542
-49.786
-50.046
-50.326
-50.629
-50.959
-51.318
-51.712
-52.141
-52.61
-53.121
-53.676
-54.278
-54.927
-55.625
-56.372
-57.167
-58.01
-58.899
-59.831
-60.801
-61.806
-62.839
-63.895
-64.966
-66.044
-67.122
-68.189
-69.237
-70.256
-71.236
-72.167
-73.038
-73.839
-74.559
-75.187
-75.712
-76.125
-76.415
-76.573
-76.589
-76.456
-76.166
-75.712
-75.089
-74.29
-73.314
-72.156
-70.816
-69.295
-67.593
-65.715
-63.666
-61.453
-59.086
-56.577
-53.939
-51.188
-48.342
-45.42
-42.442
-39.43
-36.407
-33.394
-30.412
-27.484
-24.63
-21.872
-19.234
-16.739
-14.409
-12.265
-10.328
-8.616
-7.148
-5.937
-4.994
-4.325
-3.937
-3.842
-4.057
-4.598
-5.475
-6.695
-8.258
-10.159
-12.384
-14.91
-17.694
-20.691
-23.855
-27.142
-30.517
-33.944
-37.378
-40.763
-44.027
-47.098
-49.916
-52.429
-54.594
-56.392
-57.828
-58.945
-59.834
-60.583
-61.279
-62.009
-62.865
-63.945
-65.353
-67.181
-69.538
-72.581
-76.442
-81.155
-86.594
-92.441
-98.289
-103.708
-108.196
-111.142
-111.985
-110.439
-106.748
-101.686
-96.167
-91.239
-87.994
-87.42
-90.657
-97.537
-105.483
-111.551
-112.589
-106.913
-96.653
-82.654
-61.934
-29.377
23.867
105.639
215.913
351.288
504.981
664.729
818.993
952.254
1044.765
1081.572
1053.483
962.108
820.376
645.781
456.994
271.709
105.906
-27.368
-118.375
-165.221
-173.603
-152.641
-116.083
-75.727
-41.608
-22.591
-19.476
-28.445
-41.78
-51.441
-55.485
-56.23
-58.209
-63.866
-72.137
-80.566
-86.284
-88.294
-87.087
-83.092
-77.322
-71.042
-65.061
-60.164
-56.825
-54.941
-54.467
-55.51
-57.901
-61.287
-65.329
-69.636
-73.969
-78.269
-82.417
-86.226
-89.538
-92.252
-94.325
-95.767
-96.584
-96.759
-96.296
-95.225
-93.611
-91.527
-89.042
-86.215
-83.101
-79.765
-76.28
-72.718
-69.15
-65.627
-62.178
-58.82
-55.561
-52.399
-49.328
-46.331
-43.384
-40.462
-37.546
-34.62
-31.669
-28.676
-25.621
-22.485
-19.249
-15.897
-12.416
-8.797
-5.028
-1.102
2.984
7.235
11.649
16.229
20.976
25.89
30.971
36.219
41.63
47.198
52.919
58.782
64.777
70.89
77.106
83.407
89.775
96.189
102.629
109.07
115.49
121.864
128.165
134.367
140.444
146.368
152.112
157.651
162.956
168.004
172.77
177.23
181.361
185.142
188.555
191.579
194.2
196.4
198.168
199.491
200.36
200.768
200.71
200.184
199.19
197.729
195.807
193.43
190.609
187.354
183.679
179.6
175.134
170.3
165.119
159.614
153.807
147.724
141.389
134.83
128.072
121.142
114.068
106.877
99.596
92.251
84.87
77.479
70.102
62.767
55.497
48.315
41.244
34.305
27.519
20.905
14.478
8.256
2.252
-3.522
-9.053
-14.334
-19.356
-24.113
-28.601
-32.817
-36.761
-40.431
-43.829
-46.959
-49.823
-52.427
-54.776
-56.877
-58.737
-60.365
-61.768
-62.956
-63.938
-64.726
-65.329
-65.759
-66.028
-66.146
-66.126
-65.979
-65.716
-65.349
-64.889
-64.347
-63.732
-63.056
-62.327
-61.555
-60.746
-59.911
-59.054
-58.184
-57.305
-56.424
-55.545
-54.673
-53.812
-52.964
-52.135
-51.326
-50.54
-49.781
-49.048
-48.345
-47.673
-47.032
-46.423
-45.846
-45.3
-44.785
-44.301
-43.845
-43.417
-43.015
-42.638
-42.284
-41.951
-41.638
-41.342
-41.062
-40.797
-40.546
-40.306
-40.077
-39.859
-39.649
-39.448
-39.255
-39.069
-38.889
-38.715
-38.545
-38.378
-38.215
-38.054
-37.895
-37.737
-37.58
-37.424
-37.269
-37.115
-36.963
-36.813
-36.666
-36.524
-36.387
-36.257
-36.135
-36.023
-35.922
-35.833
-35.759
-35.7
-35.656
-35.631
-35.623
-35.634
-35.664
-35.714
-35.784
-35.875
-35.988
-36.124
-36.282
-36.464
-36.67
-36.901
-37.158
-37.44
-37.749
-38.084
-38.445
-38.832
-39.246
-39.685
-40.149
-40.638
-41.151
-41.687
-42.245
-42.823
-43.421
-44.037
-44.671
-45.321
-45.988
-46.669
-47.366
-48.077
-48.802
-49.541
-50.293
-51.056
-51.829
-52.612
-53.402
-54.198
-54.997
-55.798
-56.597
-57.393
-58.183
-58.963
-59.73
-60.481
-61.212
-61.918
-62.595
-63.238
-63.843
-64.405
-64.919
-65.379
-65.782
-66.12
-66.389
-66.581
-66.69
-66.711
-66.635
-66.457
-66.17
-65.767
-65.243
-64.593
-63.813
-62.898
-61.846
-60.654
-59.321
-57.846
-56.229
-54.472
-52.576
-50.546
-48.385
-46.1
-43.698
-41.189
-38.584
-35.895
-33.136
-30.323
-27.472
-24.602
-21.729
-18.873
-16.049
-13.279
-10.582
-7.98
-5.494
-3.148
-0.961
1.042
2.841
4.416
5.75
6.83
7.65
8.203
8.479
8.47
8.156
7.528
6.585
5.324
3.746
1.857
-0.334
-2.799
-5.495
-8.379
-11.416
-14.57
-17.823
-21.144
-24.49
-27.811
-31.037
-34.115
-37.016
-39.709
-42.173
-44.378
-46.296
-47.952
-49.435
-50.833
-52.238
-53.694
-55.159
-56.734
-58.651
-61.117
-64.37
-68.491
-73.339
-78.922
-85.354
-92.35
-99.281
-105.338
-109.466
-111.098
-110.219
-106.616
-100.202
-91.567
-81.74
-72.434
-65.8
-63.042
-64.867
-71.278
-80.633
-90.791
-98.91
-102.968
-103.129
-99.16
-89.622
-69.388
-30.136
35.177
131.082
256.5
405.658
568.776
731.864
878.8
991.393
1056.448
1065.614
1016.319
915.04
767.83
586.54
390.193
196.916
30.516
-90.417
-161.795
-185.774
-175.406
-148.789
-117.241
-91.303
-76.48
-70.623
-71.225
-71.982
-67.231
-57.114
-44.21
-34.111
-31.04
-35.086
-44.186
-54.829
-64.593
-72.569
-78.388
-82.01
-83.305
-82.252
-79.308
-75.178
-70.632
-66.524
-63.401
-61.604
-61.348
-62.574
-65.098
-68.655
-72.844
-77.173
-81.273
-84.87
-87.8
-90.042
-91.583
-92.414
-92.569
-92.115
-91.113
-89.627
-87.698
-85.348
-82.612
-79.546
-76.221
-72.725
-69.139
-65.537
-61.97
-58.473
-55.072
-51.781
-48.604
-45.538
-42.57
-39.68
-36.856
-34.087
-31.361
-28.665
-25.981
-23.285
-20.556
-17.772
-14.917
-11.976
-8.934
-5.779
-2.501
0.91
4.458
8.149
11.989
15.984
20.141
24.463
28.954
33.616
38.448
43.449
48.615
53.94
59.415
65.03
70.773
76.628
82.581
88.613
94.705
100.838
106.988
113.132
119.246
125.304
131.28
137.146
142.875
148.437
153.806
158.953
163.85
168.472
172.792
176.787
180.433
183.707
186.591
189.064
191.111
192.717
193.868
194.556
194.771
194.508
193.765
192.541
190.839
188.662
186.018
182.916
179.368
175.386
170.987
166.188
161.009
155.473
149.602
143.421
136.958
130.24
123.296
116.156
108.848
101.405
93.855
86.229
78.557
70.869
63.193
55.557
47.989
40.515
33.159
25.946
18.897
12.034
5.374
-1.064
-7.264
-13.212
-18.896
-24.304
-29.428
-34.259
-38.793
-43.026
-46.956
-50.584
-53.911
-56.941
-59.679
-62.133
-64.31
-66.219
-67.871
-69.277
-70.449
-71.399
-72.141
-72.687
-73.052
-73.249
-73.291
-73.192
-72.965
-72.623
-72.178
-71.644
-71.032
-70.354
-69.62
-68.843
-68.032
-67.196
-66.346
-65.489
-64.632
-63.784
-62.949
-62.133
-61.34
-60.573
-59.834
-59.126
-58.448
-57.801
-57.184
-56.598
-56.039
-55.508
-55.002
-54.519
-54.058
-53.616
-53.191
-52.783
-52.389
-52.007
-51.636
-51.274
-50.921
-50.575
-50.235
-49.898
-49.566
-49.235
-48.905
-48.576
-48.247
-47.918
-47.589
-47.261
-46.933
-46.607
-46.286
-45.969
-45.66
-45.361
-45.073
-44.801
-44.546
-44.311
-44.098
-43.911
-43.75
-43.619
-43.519
-43.452
-43.418
-43.419
-43.456
-43.529
-43.639
-43.786
-43.97
-44.191
-44.449
-44.743
-45.074
-45.44
-45.841
-46.275
-46.742
-47.24
-47.768
-48.324
-48.905
-49.511
-50.137
-50.783
-51.445
-52.121
-52.808
-53.503
-54.203
-54.907
-55.611
-56.313
-57.012
-57.705
-58.39
-59.067
-59.734
-60.39
-61.034
-61.665
-62.283
-62.887
-63.478
-64.055
-64.619
-65.169
-65.708
-66.234
-66.749
-67.253
-67.747
-68.232
-68.709
-69.177
-69.638
-70.091
-70.538
-70.978
-71.412
-71.839
-72.259
-72.672
-73.077
-73.472
-73.856
-74.228
-74.584
-74.924
-75.243
-75.538
-75.806
-76.043
-76.245
-76.408
-76.526
-76.595
-76.609
-76.562
-76.448
-76.262
-75.997
-75.648
-75.207
-74.672
-74.035
-73.293
-72.442
-71.479
-70.4
-69.204
-67.889
-66.455
-64.9
-63.227
-61.438
-59.536
-57.525
-55.411
-53.202
-50.907
-48.539
-46.109
-43.631
-41.117
-38.582
-36.042
-33.515
-31.019
-28.57
-26.187
-23.888
-21.693
-19.624
-17.701
-15.94
-14.356
-12.962
-11.769
-10.79
-10.034
-9.511
-9.226
-9.182
-9.388
-9.853
-10.581
-11.576
-12.835
-14.347
-16.099
-18.072
-20.241
-22.58
-25.061
-27.651
-30.319
-33.023
-35.727
-38.395
-40.998
-43.51
-45.893
-48.088
-50.031
-51.693
-53.083
-54.269
-55.306
-56.172
-56.908
-57.671
-58.757
-60.499
-63.055
-66.31
-70.116
-74.575
-79.726
-85.339
-90.738
-94.884
-97.07
-97.278
-95.743
-92.32
-86.831
-79.465
-71.266
-64.161
-59.707
-58.601
-61.029
-67.409
-78.548
-93.665
-109.375
-121.637
-126.385
-123.458
-117.195
-107.974
-92.376
-61.543
-1.933
91.216
214.269
357.405
505.286
648.571
781.723
897.024
985.92
1033.088
1022.056
946.288
806.927
618.906
409.309
203.91
29.809
-95.139
-171.798
-206.716
-215.165
-212.873
-200.977
-180.706
-153.524
-119.157
-87.292
-64.005
-47.307
-37.072
-29.307
-22.095
-19.889
-24.249
-35.053
-50.807
-67.235
-81.291
-91.683
-97.924
-100.279
-99.191
-95.297
-89.525
-82.996
-76.982
-72.336
-69.392
-68.294
-68.925
-70.991
-74.203
-78.104
-82.09
-85.753
-88.849
-91.237
-92.94
-93.984
-94.353
-94.088
-93.266
-91.938
-90.159
-87.971
-85.382
-82.43
-79.179
-75.697
-72.067
-68.366
-64.654
-60.968
-57.324
-53.72
-50.143
-46.587
-43.043
-39.506
-35.976
-32.454
-28.947
-25.463
-21.995
-18.533
-15.067
-11.582
-8.075
-4.566
-1.081
2.329
5.605
8.717
11.644
14.383
16.963
19.417
21.795
24.162
26.549
28.981
31.483
34.07
36.78
39.673
42.809
46.28
50.19
54.618
59.638
65.3
71.594
78.497
85.96
93.908
102.32
111.176
120.449
130.108
140.087
150.298
160.652
171.027
181.266
191.206
200.666
209.491
217.598
224.911
231.387
236.99
241.632
245.236
247.749
249.129
249.369
248.481
246.47
243.381
239.309
234.379
228.755
222.572
215.912
208.852
201.455
193.791
185.968
178.075
170.171
162.315
154.548
146.909
139.447
132.179
125.086
118.123
111.221
104.333
97.448
90.557
83.656
76.739
69.783
62.789
55.776
48.759
41.755
34.777
27.829
20.933
14.129
7.463
0.987
-5.259
-11.251
-16.968
-22.391
-27.504
-32.293
-36.757
-40.903
-44.737
-48.261
-51.479
-54.389
-56.999
-59.323
-61.374
-63.164
-64.708
-66.016
-67.099
-67.97
-68.642
-69.124
-69.424
-69.55
-69.513
-69.325
-68.996
-68.542
-67.973
-67.304
-66.546
-65.714
-64.82
-63.876
-62.893
-61.882
-60.851
-59.811
-58.771
-57.736
-56.716
-55.715
-54.741
-53.797
-52.89
-52.023
-51.2
-50.424
-49.698
-49.025
-48.406
-47.843
-47.337
-46.887
-46.495
-46.159
-45.879
-45.653
-45.478
-45.352
-45.271
-45.232
-45.231
-45.263
-45.324
-45.409
-45.515
-45.638
-45.774
-45.918
-46.067
-46.219
-46.37
-46.517
-46.657
-46.788
-46.907
-47.012
-47.102
-47.173
-47.226
-47.257
-47.267
-47.253
-47.216
-47.154
-47.067
-46.956
-46.821
-46.662
-46.481
-46.28
-46.06
-45.824
-45.573
-45.312
-45.042
-44.766
-44.489
-44.212
-43.939
-43.673
-43.417
-43.174
-42.948
-42.74
-42.554
-42.392
-42.257
-42.151
-42.076
-42.034
-42.027
-42.058
-42.127
-42.237
-42.389
-42.584
-42.825
-43.111
-43.444
-43.824
-44.251
-44.726
-45.248
-45.817
-46.431
-47.09
-47.79
-48.531
-49.309
-50.122
-50.967
-51.839
-52.735
-53.65
-54.581
-55.522
-56.47
-57.418
-58.361
-59.296
-60.215
-61.115
-61.988
-62.828
-63.63
-64.387
-65.093
-65.742
-66.326
-66.839
-67.274
-67.625
-67.884
-68.047
-68.105
-68.054
-67.886
-67.597
-67.183
-66.64
-65.964
-65.153
-64.206
-63.124
-61.906
-60.555
-59.072
-57.462
-55.729
-53.878
-51.916
-49.849
-47.687
-45.439
-43.117
-40.736
-38.309
-35.852
-33.381
-30.912
-28.465
-26.057
-23.703
-21.419
-19.221
-17.125
-15.151
-13.318
-11.642
-10.141
-8.83
-7.724
-6.835
-6.175
-5.744
-5.545
-5.578
-5.849
-6.372
-7.162
-8.224
-9.563
-11.179
-13.065
-15.208
-17.586
-20.155
-22.872
-25.691
-28.57
-31.482
-34.394
-37.263
-40.037
-42.648
-45.025
-47.117
-48.873
-50.244
-51.218
-51.805
-52.055
-52.068
-51.927
-51.713
-51.529
-51.477
-51.675
-52.245
-53.269
-54.858
-57.214
-60.48
-64.689
-69.697
-75.089
-80.397
-85.228
-89.094
-91.362
-91.507
-89.292
-85.137
-80.128
-75.375
-71.95
-70.847
-73.042
-79.657
-89.87
-100.196
-107.048
-106.438
-98.207
-87.05
-72.771
-52.258
-17.295
46.864
144.662
273.399
425.392
582.85
733.735
867.405
969.071
1030.574
1041.195
993.199
890.451
737.314
547.183
341.897
142.352
-25.632
-144.076
-210.85
-231.976
-222.715
-198.156
-164.805
-127.868
-92.842
-64.456
-48.16
-44.547
-47.101
-49.71
-49.237
-46.109
-45.292
-49.796
-58.827
-70.147
-80.188
-86.847
-89.943
-89.735
-86.831
-81.934
-75.75
-69.144
-63.117
-58.314
-55.067
-53.549
-53.712
-55.381
-58.295
-62.066
-66.18
-70.265
-74.074
-77.403
-80.188
-82.394
-83.977
-84.962
-85.401
-85.329
-84.78
-83.794
-82.383
-80.58
-78.438
-76.004
-73.351
-70.551
-67.668
-64.767
-61.896
-59.081
-56.34
-53.68
-51.095
-48.578
-46.112
-43.673
-41.241
-38.799
-36.328
-33.811
-31.224
-28.543
-25.746
-22.813
-19.727
-16.474
-13.04
-9.415
-5.591
-1.563
2.672
7.116
11.769
16.634
21.711
26.998
32.492
38.188
44.08
50.16
56.417
62.838
69.408
76.108
82.92
89.823
96.794
103.81
110.846
117.875
124.873
131.81
138.659
145.392
151.98
158.393
164.603
170.582
176.3
181.73
186.846
191.622
196.033
200.057
203.672
206.857
209.595
211.87
213.668
214.976
215.786
216.091
215.885
215.169
213.943
212.211
209.98
207.257
204.056
200.388
196.268
191.715
186.746
181.382
175.645
169.559
163.148
156.438
149.458
142.236
134.799
127.179
119.406
111.509
103.52
95.469
87.386
79.302
71.245
63.244
55.327
47.521
39.85
32.339
25.01
17.883
10.977
4.308
-2.109
-8.26
-14.134
-19.721
-25.013
-30.003
-34.687
-39.061
-43.124
-46.875
-50.316
-53.449
-56.281
-58.815
-61.06
-63.024
-64.716
-66.148
-67.329
-68.274
-68.994
-69.504
-69.818
-69.95
-69.916
-69.729
-69.406
-68.959
-68.403
-67.752
-67.017
-66.212
-65.348
-64.435
-63.485
-62.506
-61.508
-60.5
-59.49
-58.484
-57.489
-56.512
-55.558
-54.63
-53.734
-52.871
-52.045
-51.257
-50.509
-49.8
-49.131
-48.502
-47.911
-47.356
-46.837
-46.349
-45.892
-45.463
-45.058
-44.676
-44.314
-43.97
-43.643
-43.33
-43.03
-42.743
-42.467
-42.201
-41.945
-41.698
-41.459
-41.229
-41.006
-40.79
-40.581
-40.38
-40.186
-39.999
-39.821
-39.652
-39.491
-39.341
-39.202
-39.075
-38.962
-38.864
-38.781
-38.717
-38.671
-38.646
-38.643
-38.662
-38.704
-38.77
-38.86
-38.973
-39.108
-39.266
-39.446
-39.646
-39.865
-40.103
-40.359
-40.631
-40.921
-41.226
-41.547
-41.883
-42.233
-42.598
-42.978
-43.371
-43.779
-44.2
-44.635
-45.084
-45.547
-46.024
-46.514
-47.017
-47.533
-48.062
-48.604
-49.158
-49.726
-50.307
-50.902
-51.513
-52.14
-52.784
-53.447
-54.13
-54.833
-55.557
-56.301
-57.065
-57.848
-58.65
-59.467
-60.298
-61.141
-61.992
-62.848
-63.704
-64.558
-65.403
-66.235
-67.048
-67.837
-68.595
-69.316
-69.994
-70.624
-71.198
-71.712
-72.157
-72.528
-72.818
-73.019
-73.125
-73.128
-73.021
-72.798
-72.452
-71.978
-71.371
-70.627
-69.743
-68.718
-67.55
-66.24
-64.789
-63.199
-61.474
-59.619
-57.64
-55.546
-53.344
-51.046
-48.664
-46.213
-43.71
-41.17
-38.612
-36.055
-33.517
-31.02
-28.582
-26.221
-23.956
-21.805
-19.786
-17.922
-16.234
-14.741
-13.461
-12.412
-11.608
-11.064
-10.79
-10.79
-11.065
-11.618
-12.456
-13.595
-15.046
-16.814
-18.902
-21.305
-24.011
-27.003
-30.253
-33.713
-37.335
-41.07
-44.873
-48.713
-52.551
-56.34
-60.02
-63.513
-66.745
-69.659
-72.201
-74.322
-76.012
-77.274
-78.154
-78.742
-79.108
-79.33
-79.498
-79.702
-80.053
-80.666
-81.624
-83.05
-85.147
-88.038
-91.727
-96.031
-100.519
-104.748
-108.362
-110.906
-111.79
-110.54
-107.024
-101.79
-95.922
-90.461
-86.303
-84.184
-84.942
-89.572
-97.261
-104.727
-108.604
-105.281
-94.382
-79.632
-60.734
-34.329
6.701
73.125
168.139
287.697
423.355
562.66
696.123
816.393
914.315
980.486
1004.005
976
895.705
767.314
602.549
420.702
240.051
81.374
-37.444
-111.859
-142.482
-137.82
-114.89
-84.156
-55.671
-39.909
-37.034
-46.667
-65.295
-82.202
-93.069
-97.234
-95.829
-94.846
-96.694
-100.067
-103.365
-104.141
-101.665
-96.999
-91.172
-85.066
-79.27
-74.163
-70.154
-67.47
-66.091
-65.833
-66.456
-67.812
-69.817
-72.335
-75.193
-78.221
-81.237
-84.097
-86.68
-88.855
-90.523
-91.628
-92.145
-92.105
-91.593
-90.708
-89.533
-88.114
-86.444
-84.523
-82.378
-80.048
-77.592
-75.063
-72.502
-69.957
-67.47
-65.073
-62.772
-60.542
-58.316
-56.02
-53.602
-51.051
-48.392
-45.649
-42.828
-39.926
-36.94
-33.872
-30.727
-27.493
-24.142
-20.647
-16.993
-13.184
-9.24
-5.183
-1.022
3.253
7.664
12.229
16.959
21.861
26.945
32.223
37.704
43.38
49.234
55.244
61.393
67.668
74.058
80.547
87.116
93.74
100.395
107.055
113.694
120.284
126.793
133.191
139.447
145.534
151.426
157.099
162.526
167.681
172.539
177.077
181.27
185.098
188.537
191.566
194.168
196.325
198.025
199.255
200.005
200.268
200.039
199.318
198.104
196.402
194.217
191.557
188.434
184.861
180.852
176.425
171.599
166.395
160.835
154.944
148.746
142.268
135.538
128.581
121.428
114.107
106.647
99.078
91.428
83.727
76.004
68.29
60.612
52.998
45.475
38.068
30.803
23.702
16.785
10.074
3.584
-2.667
-8.666
-14.4
-19.86
-25.036
-29.922
-34.514
-38.808
-42.804
-46.501
-49.902
-53.011
-55.83
-58.367
-60.628
-62.621
-64.353
-65.836
-67.079
-68.092
-68.889
-69.482
-69.883
-70.107
-70.166
-70.076
-69.85
-69.502
-69.045
-68.493
-67.859
-67.154
-66.391
-65.58
-64.731
-63.855
-62.96
-62.053
-61.142
-60.233
-59.33
-58.44
-57.564
-56.708
-55.874
-55.064
-54.281
-53.526
-52.802
-52.108
-51.446
-50.817
-50.219
-49.654
-49.119
-48.614
-48.136
-47.686
-47.259
-46.856
-46.472
-46.107
-45.758
-45.422
-45.099
-44.785
-44.48
-44.181
-43.889
-43.601
-43.318
-43.041
-42.768
-42.502
-42.242
-41.99
-41.748
-41.515
-41.294
-41.084
-40.888
-40.705
-40.536
-40.382
-40.244
-40.122
-40.018
-39.93
-39.861
-39.811
-39.781
-39.771
-39.781
-39.814
-39.87
-39.948
-40.052
-40.18
-40.334
-40.515
-40.723
-40.957
-41.218
-41.504
-41.816
-42.152
-42.51
-42.89
-43.289
-43.706
-44.139
-44.586
-45.047
-45.518
-46
-46.491
-46.99
-47.496
-48.008
-48.528
-49.053
-49.584
-50.122
-50.665
-51.214
-51.769
-52.33
-52.897
-53.47
-54.047
-54.629
-55.215
-55.805
-56.398
-56.994
-57.593
-58.193
-58.794
-59.397
-60.001
-60.605
-61.209
-61.813
-62.416
-63.018
-63.617
-64.212
-64.802
-65.383
-65.953
-66.509
-67.046
-67.559
-68.044
-68.496
-68.908
-69.275
-69.59
-69.848
-70.042
-70.166
-70.213
-70.177
-70.053
-69.834
-69.515
-69.091
-68.559
-67.913
-67.151
-66.268
-65.263
-64.135
-62.88
-61.499
-59.992
-58.359
-56.602
-54.724
-52.729
-50.622
-48.412
-46.107
-43.72
-41.264
-38.754
-36.206
-33.638
-31.068
-28.514
-25.994
-23.525
-21.124
-18.809
-16.599
-14.515
-12.576
-10.801
-9.206
-7.808
-6.623
-5.664
-4.936
-4.446
-4.197
-4.198
-4.468
-5.025
-5.881
-7.045
-8.523
-10.31
-12.402
-14.779
-17.405
-20.239
-23.235
-26.348
-29.548
-32.797
-36.053
-39.262
-42.345
-45.229
-47.854
-50.164
-52.115
-53.691
-54.882
-55.724
-56.302
-56.69
-56.978
-57.274
-57.662
-58.272
-59.251
-60.703
-62.788
-65.719
-69.616
-74.517
-80.292
-86.524
-92.726
-98.491
-103.317
-106.632
-107.999
-107.189
-104.574
-101.216
-98.413
-97.184
-98.088
-101.777
-108.85
-119.141
-131.437
-142.344
-146.488
-140.507
-122.904
-93.558
-54.885
-5.1
59.907
142.525
246.031
367.528
499.708
636.392
767.845
883.318
972.273
1020.465
1016.418
957.082
845.542
694.236
521.978
346.485
185.317
52.249
-45.105
-104.733
-130.367
-129.627
-113.104
-90.096
-69.43
-57.901
-55.845
-60.822
-66.548
-66.895
-61.627
-53.632
-48.14
-49.079
-56.17
-66.936
-78.514
-88.971
-97.422
-103.578
-107.105
-107.642
-105.362
-100.875
-94.797
-87.888
-81.005
-74.703
-69.536
-65.886
-63.745
-62.985
-63.379
-64.576
-66.195
-67.978
-69.754
-71.434
-73.001
-74.434
-75.725
-76.871
-77.888
-78.756
-79.394
-79.742
-79.757
-79.416
-78.752
-77.8
-76.573
-75.085
-73.338
-71.304
-68.989
-66.397
-63.514
-60.356
-56.95
-53.332
-49.582
-45.763
-41.903
-38.025
-34.133
-30.217
-26.288
-22.345
-18.385
-14.422
-10.46
-6.502
-2.561
1.369
5.303
9.265
13.295
17.432
21.696
26.104
30.664
35.379
40.258
45.299
50.498
55.841
61.317
66.92
72.642
78.47
84.388
90.369
96.381
102.406
108.428
114.428
120.394
126.294
132.1
137.787
143.328
148.715
153.939
158.973
163.795
168.393
172.751
176.864
180.735
184.319
187.577
190.477
192.981
195.079
196.765
198.021
198.836
199.192
199.067
198.463
197.383
195.806
193.724
191.116
187.96
184.294
180.163
175.593
170.629
165.287
159.584
153.557
147.242
140.666
133.863
126.855
119.66
112.327
104.9
97.426
89.961
82.512
75.083
67.694
60.358
53.098
45.941
38.895
31.969
25.188
18.574
12.148
5.937
-0.057
-5.829
-11.376
-16.698
-21.778
-26.6
-31.158
-35.444
-39.454
-43.187
-46.638
-49.799
-52.679
-55.285
-57.625
-59.708
-61.539
-63.122
-64.467
-65.58
-66.474
-67.159
-67.648
-67.95
-68.079
-68.047
-67.868
-67.556
-67.123
-66.578
-65.933
-65.2
-64.391
-63.516
-62.587
-61.611
-60.6
-59.563
-58.507
-57.442
-56.374
-55.31
-54.256
-53.218
-52.2
-51.21
-50.25
-49.324
-48.437
-47.593
-46.792
-46.039
-45.334
-44.679
-44.075
-43.522
-43.021
-42.57
-42.169
-41.816
-41.51
-41.248
-41.027
-40.846
-40.7
-40.588
-40.505
-40.449
-40.417
-40.406
-40.413
-40.435
-40.471
-40.517
-40.572
-40.633
-40.698
-40.765
-40.832
-40.897
-40.959
-41.017
-41.068
-41.112
-41.148
-41.175
-41.194
-41.204
-41.205
-41.199
-41.186
-41.167
-41.145
-41.121
-41.098
-41.078
-41.064
-41.059
-41.065
-41.085
-41.123
-41.181
-41.261
-41.366
-41.497
-41.658
-41.848
-42.071
-42.327
-42.617
-42.943
-43.305
-43.704
-44.141
-44.616
-45.128
-45.677
-46.264
-46.887
-47.546
-48.24
-48.966
-49.724
-50.511
-51.326
-52.166
-53.028
-53.91
-54.807
-55.718
-56.638
-57.564
-58.492
-59.418
-60.339
-61.251
-62.15
-63.033
-63.896
-64.735
-65.547
-66.33
-67.079
-67.792
-68.465
-69.095
-69.679
-70.214
-70.697
-71.124
-71.492
-71.797
-72.036
-72.208
-72.307
-72.332
-72.279
-72.145
-71.927
-71.623
-71.23
-70.747
-70.17
-69.498
-68.731
-67.869
-66.91
-65.855
-64.706
-63.463
-62.128
-60.704
-59.194
-57.601
-55.928
-54.181
-52.364
-50.484
-48.548
-46.565
-44.545
-42.5
-40.442
-38.385
-36.342
-34.328
-32.358
-30.447
-28.606
-26.848
-25.186
-23.635
-22.21
-20.925
-19.794
-18.828
-18.039
-17.438
-17.034
-16.832
-16.833
-17.035
-17.441
-18.057
-18.902
-19.988
-21.321
-22.904
-24.736
-26.81
-29.116
-31.632
-34.314
-37.118
-39.998
-42.91
-45.828
-48.712
-51.514
-54.17
-56.599
-58.734
-60.521
-61.921
-62.904
-63.455
-63.582
-63.336
-62.806
-62.1
-61.341
-60.642
-60.127
-59.948
-60.231
-61.142
-62.897
-65.609
-69.319
-73.947
-79.171
-84.627
-90.008
-94.863
-98.656
-101.005
-101.594
-100.528
-98.618
-96.704
-95.481
-95.567
-97.437
-101.584
-108.447
-117.587
-126.165
-130.059
-125.74
-110.868
-86.803
-56.432
-19.011
28.982
94.072
183.027
295.403
425.053
562.37
696.399
819.094
922.26
996.329
1029.022
1007.538
926.211
786.558
601.643
394.3
188.625
9.36
-126.314
-212.493
-251.583
-253.315
-229.287
-190.478
-146.286
-106.156
-77.605
-62.639
-59.393
-60.29
-58.201
-51.846
-43.119
-37.461
-38.966
-47.152
-59.497
-72.363
-82.867
-89.982
-93.768
-94.619
-92.909
-89.188
-84.121
-78.51
-73.45
-69.734
-67.645
-67.312
-68.595
-71.176
-74.814
-79.115
-83.527
-87.661
-91.26
-94.17
-96.409
-98.002
-98.931
-99.229
-98.956
-98.157
-96.894
-95.206
-93.106
-90.632
-87.834
-84.777
-81.544
-78.21
-74.838
-71.478
-68.158
-64.895
-61.704
-58.586
-55.538
-52.55
-49.603
-46.682
-43.776
-40.872
-37.956
-35.011
-32.012
-28.938
-25.772
-22.497
-19.102
-15.575
-11.905
-8.086
-4.111
0.023
4.319
8.781
13.412
18.217
23.197
28.353
33.685
39.189
44.864
50.702
56.698
62.839
69.116
75.514
82.017
88.609
95.272
101.984
108.725
115.47
122.196
128.877
135.488
142
148.386
154.62
160.672
166.515
172.121
177.464
182.517
187.255
191.653
195.687
199.336
202.578
205.394
207.766
209.679
211.119
212.075
212.537
212.499
211.956
210.907
209.354
207.298
204.747
201.708
198.194
194.217
189.792
184.938
179.675
174.024
168.009
161.656
154.991
148.042
140.838
133.409
125.784
117.996
110.075
102.053
93.961
85.832
77.696
69.584
61.525
53.55
45.685
37.958
30.394
23.017
15.85
8.913
2.226
-4.195
-10.333
-16.177
-21.714
-26.935
-31.834
-36.405
-40.646
-44.556
-48.134
-51.385
-54.313
-56.922
-59.221
-61.217
-62.919
-64.34
-65.493
-66.392
-67.051
-67.485
-67.705
-67.731
-67.584
-67.272
-66.803
-66.188
-65.434
-64.566
-63.615
-62.582
-61.471
-60.325
-59.182
-58.074
-57.04
-56.069
-55.122
-54.236
-53.466
-52.694
-51.778
-50.813
-49.793
-48.696
-47.844
-46.378
-43.462
-40.295
-37.238
-36.491
-40.683
-46.901
-53.202
-56.693
-53.404
-46.842
-39.983
-34.863
-34.851
-37.535
-40.469
-43.106
-43.955
-43.878
-43.984
-44.058
-44.239
-44.453
-44.47
-44.438
-44.474
-44.538
-44.62
-44.734
-44.877
-45.04
-45.219
-45.392
-45.536
-45.661
-45.777
-45.883
-45.981
-46.072
-46.154
-46.235
-46.316
-46.4
-46.486
-46.575
-46.669
-46.768
-46.875
-46.991
-47.117
-47.255
-47.405
-47.57
-47.75
-47.947
-48.161
-48.394
-48.646
-48.918
-49.209
-49.522
-49.855
-50.21
-50.586
-50.983
-51.401
-51.838
-52.293
-52.765
-53.251
-53.75
-54.26
-54.778
-55.301
-55.829
-56.358
-56.887
-57.413
-57.935
-58.45
-58.956
-59.452
-59.935
-60.403
-60.854
-61.286
-61.697
-62.084
-62.446
-62.78
-63.083
-63.352
-63.585
-63.778
-63.928
-64.031
-64.084
-64.085
-64.031
-63.92
-63.75
-63.519
-63.224
-62.864
-62.439
-61.945
-61.383
-60.75
-60.045
-59.267
-58.416
-57.49
-56.49
-55.414
-54.263
-53.035
-51.733
-50.356
-48.905
-47.384
-45.795
-44.143
-42.431
-40.667
-38.858
-37.012
-35.141
-33.255
-31.367
-29.487
-27.631
-25.81
-24.039
-22.328
-20.689
-19.134
-17.675
-16.323
-15.093
-13.996
-13.046
-12.254
-11.632
-11.188
-10.932
-10.867
-10.996
-11.322
-11.85
-12.593
-13.563
-14.766
-16.207
-17.885
-19.795
-21.922
-24.242
-26.715
-29.298
-31.95
-34.634
-37.322
-39.986
-42.591
-45.094
-47.439
-49.568
-51.435
-53.002
-54.237
-55.123
-55.679
-55.958
-56.062
-56.101
-56.156
-56.3
-56.601
-57.142
-58.035
-59.397
-61.304
-63.859
-67.201
-71.412
-76.505
-82.281
-88.263
-93.89
-98.649
-102.004
-103.374
-102.318
-98.647
-92.783
-85.839
-79.041
-73.336
-69.576
-68.72
-71.512
-78.106
-86.37
-92.034
-91.282
-81.443
-63.209
-38.915
-7.043
36.536
98.22
184.234
293.155
418.446
551.401
681.471
800.303
898.901
965.981
989.31
958.622
871.504
731.977
553.222
356.374
162.206
-5.288
-127.155
-199.372
-226.015
-222.668
-209.388
-195.078
-182.407
-168.597
-146.95
-117.578
-84.931
-53.466
-28.444
-12.552
-5.274
-5.412
-11.419
-21.431
-33.705
-46.977
-59.759
-70.252
-77.621
-81.675
-82.459
-80.648
-77.086
-72.326
-67.232
-62.963
-60.102
-58.891
-59.383
-61.234
-64.091
-67.709
-71.647
-75.363
-78.548
-81.025
-82.731
-83.764
-84.169
-83.955
-83.189
-81.953
-80.305
-78.301
-75.97
-73.323
-70.403
-67.277
-64.02
-60.71
-57.396
-54.107
-50.864
-47.677
-44.552
-41.488
-38.473
-35.493
-32.535
-29.591
-26.653
-23.711
-20.75
-17.751
-14.692
-11.552
-8.312
-4.961
-1.484
2.128
5.882
9.786
13.841
18.05
22.416
26.943
31.632
36.487
41.507
46.689
52.031
57.528
63.171
68.954
74.863
80.887
87.012
93.223
99.502
105.832
112.192
118.561
124.918
131.239
137.498
143.672
149.733
155.656
161.412
166.975
172.319
177.415
182.239
186.765
190.97
194.831
198.326
201.435
204.142
206.429
208.283
209.69
210.642
211.13
211.148
210.694
209.764
208.362
206.49
204.153
201.36
198.119
194.443
190.346
185.842
180.95
175.688
170.077
164.141
157.902
151.386
144.619
137.629
130.442
123.088
115.595
107.991
100.305
92.565
84.799
77.034
69.295
61.609
54
46.49
39.102
31.856
24.773
17.869
11.163
4.669
-1.599
-7.627
-13.407
-18.927
-24.18
-29.16
-33.861
-38.281
-42.418
-46.27
-49.84
-53.13
-56.142
-58.884
-61.36
-63.578
-65.547
-67.275
-68.772
-70.048
-71.114
-71.981
-72.659
-73.161
-73.497
-73.678
-73.716
-73.621
-73.406
-73.08
-72.655
-72.141
-71.548
-70.885
-70.164
-69.392
-68.579
-67.733
-66.861
-65.973
-65.075
-64.173
-63.274
-62.384
-61.507
-60.649
-59.812
-59.001
-58.218
-57.465
-56.746
-56.062
-55.414
-54.805
-54.235
-53.706
-53.218
-52.774
-52.373
-52.016
-51.704
-51.436
-51.213
-51.034
-50.9
-50.809
-50.76
-50.754
-50.789
-50.863
-50.975
-51.123
-51.306
-51.52
-51.765
-52.037
-52.334
-52.656
-52.998
-53.359
-53.737
-54.129
-54.534
-54.948
-55.37
-55.796
-56.224
-56.651
-57.074
-57.49
-57.897
-58.292
-58.672
-59.035
-59.379
-59.702
-60.003
-60.28
-60.531
-60.757
-60.957
-61.132
-61.28
-61.405
-61.506
-61.585
-61.643
-61.684
-61.709
-61.72
-61.72
-61.712
-61.698
-61.681
-61.665
-61.652
-61.647
-61.652
-61.671
-61.709
-61.767
-61.85
-61.961
-62.104
-62.28
-62.492
-62.743
-63.033
-63.364
-63.736
-64.148
-64.601
-65.092
-65.62
-66.181
-66.772
-67.39
-68.03
-68.687
-69.355
-70.029
-70.702
-71.366
-72.015
-72.641
-73.236
-73.792
-74.302
-74.756
-75.146
-75.464
-75.701
-75.85
-75.902
-75.849
-75.684
-75.4
-74.99
-74.45
-73.775
-72.961
-72.005
-70.905
-69.663
-68.278
-66.752
-65.087
-63.289
-61.362
-59.313
-57.15
-54.881
-52.517
-50.07
-47.556
-44.99
-42.388
-39.77
-37.153
-34.558
-32.004
-29.511
-27.096
-24.776
-22.568
-20.49
-18.561
-16.8
-15.225
-13.852
-12.697
-11.773
-11.093
-10.666
-10.493
-10.573
-10.909
-11.505
-12.376
-13.535
-14.988
-16.738
-18.784
-21.113
-23.712
-26.551
-29.583
-32.758
-36.025
-39.336
-42.66
-45.96
-49.189
-52.293
-55.197
-57.829
-60.133
-62.058
-63.56
-64.635
-65.298
-65.606
-65.663
-65.555
-65.375
-65.239
-65.243
-65.495
-66.108
-67.147
-68.734
-71.099
-74.365
-78.522
-83.433
-88.684
-93.832
-98.545
-102.316
-104.445
-104.45
-102.207
-98.06
-92.968
-88.092
-84.408
-82.83
-84.616
-89.82
-96.405
-102.005
-103.676
-100.379
-95.441
-90.469
-82.322
-63.609
-21.504
53.758
161.509
294.924
442.113
590.551
733.273
861.551
963.485
1025.692
1032.956
978.677
866.425
708.661
526.313
340.463
170.903
33.443
-63.175
-117.021
-132.496
-118.691
-88.346
-53.301
-25.394
-13.326
-17.737
-34.977
-55.875
-71.492
-79.433
-81.232
-81.978
-85.518
-91.511
-97.714
-101.286
-101.042
-97.643
-92.209
-85.909
-79.516
-73.545
-68.589
-65.002
-62.838
-62.011
-62.324
-63.622
-65.798
-68.697
-72.112
-75.855
-79.782
-83.757
-87.652
-91.308
-94.544
-97.235
-99.308
-100.729
-101.495
-101.618
-101.119
-100.039
-98.442
-96.387
-93.933
-91.14
-88.061
-84.764
-81.321
-77.806
-74.293
-70.833
-67.455
-64.177
-61.003
-57.925
-54.935
-52.011
-49.125
-46.257
-43.387
-40.499
-37.58
-34.613
-31.579
-28.457
-25.23
-21.881
-18.396
-14.765
-10.977
-7.026
-2.906
1.386
5.848
10.484
15.295
20.283
25.449
30.793
36.311
42
47.854
53.865
60.022
66.311
72.716
79.219
85.8
92.44
99.115
105.802
112.475
119.109
125.678
132.154
138.511
144.719
150.753
156.583
162.183
167.526
172.587
177.339
181.76
185.825
189.515
192.807
195.683
198.126
200.12
201.652
202.71
203.285
203.369
202.959
202.054
200.653
198.762
196.386
193.536
190.222
186.458
182.26
177.646
172.636
167.251
161.514
155.448
149.08
142.436
135.543
128.429
121.121
113.65
106.042
98.329
90.538
82.698
74.837
66.985
59.168
51.414
43.749
36.198
28.784
21.532
14.462
7.594
0.946
-5.466
-11.627
-17.525
-23.15
-28.491
-33.543
-38.299
-42.757
-46.913
-50.767
-54.32
-57.574
-60.531
-63.197
-65.576
-67.675
-69.502
-71.064
-72.369
-73.429
-74.253
-74.852
-75.237
-75.42
-75.415
-75.233
-74.887
-74.392
-73.759
-73.003
-72.136
-71.17
-70.119
-68.993
-67.804
-66.563
-65.279
-63.963
-62.623
-61.268
-59.905
-58.542
-57.186
-55.843
-54.519
-53.22
-51.95
-50.715
-49.518
-48.364
-47.256
-46.198
-45.193
-44.242
-43.348
-42.513
-41.737
-41.021
-40.366
-39.771
-39.236
-38.759
-38.341
-37.979
-37.672
-37.419
-37.218
-37.068
-36.965
-36.91
-36.9
-36.933
-37.007
-37.12
-37.27
-37.456
-37.675
-37.924
-38.202
-38.505
-38.833
-39.181
-39.547
-39.929
-40.323
-40.727
-41.138
-41.554
-41.971
-42.388
-42.802
-43.212
-43.614
-44.007
-44.39
-44.762
-45.12
-45.464
-45.792
-46.105
-46.4
-46.679
-46.939
-47.182
-47.406
-47.612
-47.8
-47.971
-48.125
-48.263
-48.385
-48.493
-48.588
-48.672
-48.745
-48.811
-48.87
-48.926
-48.98
-49.036
-49.095
-49.161
-49.236
-49.322
-49.423
-49.541
-49.678
-49.838
-50.022
-50.232
-50.471
-50.74
-51.04
-51.372
-51.737
-52.136
-52.567
-53.031
-53.528
-54.054
-54.611
-55.195
-55.804
-56.436
-57.088
-57.756
-58.437
-59.126
-59.818
-60.508
-61.189
-61.857
-62.503
-63.122
-63.707
-64.249
-64.742
-65.177
-65.547
-65.843
-66.058
-66.184
-66.213
-66.139
-65.955
-65.656
-65.237
-64.694
-64.022
-63.22
-62.285
-61.218
-60.017
-58.684
-57.221
-55.632
-53.92
-52.092
-50.154
-48.115
-45.986
-43.779
-41.508
-39.188
-36.836
-34.469
-32.106
-29.766
-27.466
-25.224
-23.059
-20.988
-19.031
-17.208
-15.537
-14.037
-12.723
-11.612
-10.718
-10.052
-9.621
-9.427
-9.475
-9.77
-10.328
-11.162
-12.28
-13.691
-15.396
-17.392
-19.67
-22.211
-24.977
-27.929
-31.02
-34.206
-37.455
-40.727
-43.981
-47.16
-50.19
-52.996
-55.514
-57.684
-59.455
-60.806
-61.734
-62.276
-62.515
-62.526
-62.405
-62.258
-62.172
-62.252
-62.598
-63.288
-64.46
-66.337
-69.079
-72.735
-77.216
-82.225
-87.406
-92.415
-96.746
-99.689
-100.603
-99.211
-95.746
-90.861
-85.614
-81.107
-78.284
-78.664
-82.658
-88.373
-93.668
-96.002
-95.039
-94.966
-97.471
-98.937
-89.507
-52.813
21.593
133.311
272.892
423.708
573.423
716.437
848.175
962.076
1045.606
1081.151
1055.516
966.239
820.639
637.038
438.428
245.376
77.076
-52.507
-136.49
-173.157
-167.046
-130.487
-79.076
-29.342
2.098
9.191
-5.033
-31.99
-56.913
-72.217
-78.04
-77.326
-77.095
-80.108
-84.404
-88.128
-88.887
-86.028
-80.887
-74.584
-68.055
-62.132
-57.344
-53.965
-52.101
-51.659
-52.39
-54.127
-56.753
-60.083
-63.902
-68.013
-72.24
-76.435
-80.48
-84.22
-87.482
-90.147
-92.143
-93.442
-94.05
-93.989
-93.287
-91.99
-90.168
-87.887
-85.214
-82.215
-78.954
-75.501
-71.934
-68.327
-64.754
-61.265
-57.89
-54.644
-51.532
-48.547
-45.677
-42.902
-40.194
-37.531
-34.894
-32.264
-29.625
-26.956
-24.234
-21.436
-18.54
-15.527
-12.378
-9.081
-5.62
-1.986
1.83
5.835
10.031
14.425
19.022
23.824
28.835
34.056
39.485
45.119
50.952
56.976
63.18
69.55
76.07
82.722
89.487
96.341
103.262
110.224
117.201
124.163
131.082
137.928
144.669
151.272
157.707
163.941
169.942
175.678
181.119
186.235
190.998
195.381
199.358
202.905
206.002
208.629
210.768
212.407
213.532
214.135
214.208
213.75
212.76
211.239
209.194
206.632
203.564
200.004
195.968
191.473
186.541
181.192
175.453
169.348
162.907
156.157
149.13
141.857
134.371
126.705
118.892
110.965
102.958
94.904
86.836
78.785
70.782
62.857
55.037
47.35
39.821
32.473
25.328
18.405
11.723
5.297
-0.86
-6.734
-12.318
-17.601
-22.58
-27.248
-31.605
-35.649
-39.381
-42.804
-45.922
-48.74
-51.266
-53.507
-55.474
-57.178
-58.629
-59.841
-60.828
-61.602
-62.178
-62.57
-62.794
-62.863
-62.792
-62.594
-62.284
-61.875
-61.378
-60.807
-60.173
-59.486
-58.756
-57.993
-57.204
-56.398
-55.582
-54.763
-53.946
-53.137
-52.341
-51.562
-50.806
-50.074
-49.37
-48.696
-48.053
-47.444
-46.868
-46.327
-45.819
-45.344
-44.902
-44.491
-44.112
-43.762
-43.44
-43.146
-42.877
-42.633
-42.413
-42.215
-42.039
-41.883
-41.749
-41.635
-41.542
-41.469
-41.416
-41.385
-41.374
-41.384
-41.414
-41.464
-41.535
-41.624
-41.732
-41.858
-42.001
-42.162
-42.338
-42.531
-42.738
-42.959
-43.193
-43.44
-43.697
-43.964
-44.241
-44.525
-44.816
-45.113
-45.415
-45.721
-46.03
-46.341
-46.652
-46.963
-47.271
-47.575
-47.873
-48.163
-48.444
-48.718
-48.984
-49.243
-49.493
-49.732
-49.963
-50.192
-50.411
-50.612
-50.792
-50.942
-51.073
-51.202
-51.319
-51.412
-51.516
-51.659
-51.861
-52.156
-52.52
-52.907
-53.345
-53.888
-54.406
-54.746
-55.003
-55.171
-55.222
-55.491
-55.082
-53.123
-50.864
-48.684
-48.879
-54.194
-61.591
-69.046
-73.541
-70.936
-64.892
-58.515
-53.933
-54.66
-58.179
-61.939
-65.369
-66.913
-67.467
-68.189
-68.851
-69.597
-70.344
-70.852
-71.271
-71.718
-72.147
-72.544
-72.917
-73.259
-73.554
-73.792
-73.945
-73.98
-73.903
-73.718
-73.416
-72.993
-72.445
-71.765
-70.954
-70.01
-68.932
-67.716
-66.362
-64.871
-63.243
-61.483
-59.596
-57.586
-55.462
-53.23
-50.9
-48.486
-46
-43.455
-40.868
-38.253
-35.629
-33.013
-30.425
-27.88
-25.398
-22.997
-20.694
-18.509
-16.462
-14.571
-12.856
-11.335
-10.024
-8.941
-8.099
-7.507
-7.172
-7.101
-7.301
-7.785
-8.563
-9.644
-11.032
-12.73
-14.733
-17.03
-19.6
-22.408
-25.414
-28.578
-31.859
-35.222
-38.632
-42.048
-45.425
-48.702
-51.819
-54.718
-57.344
-59.647
-61.599
-63.193
-64.457
-65.464
-66.29
-66.996
-67.662
-68.368
-69.195
-70.242
-71.59
-73.302
-75.499
-78.375
-82.062
-86.587
-91.808
-97.373
-102.885
-107.965
-112.087
-114.556
-114.776
-112.489
-107.951
-101.879
-95.32
-89.3
-84.803
-83.279
-84.87
-87.9
-90.766
-91.084
-89.32
-89.343
-90.209
-87.488
-70.539
-23.894
56.484
166.726
295.812
427.116
555.661
680.731
799.683
907.753
989.083
1025.327
1005.8
929.385
805.262
649.131
477.294
304.512
146.326
16.654
-75.143
-127.098
-146.943
-147.669
-141.74
-135.406
-128.755
-119.291
-104.565
-86.036
-66.965
-50.36
-39.061
-33.777
-33.969
-38.763
-46.516
-55.502
-64.745
-73.438
-80.705
-86.124
-89.27
-89.928
-88.498
-85.637
-81.883
-77.875
-74.354
-71.741
-70.399
-70.553
-72.059
-74.698
-78.229
-82.259
-86.337
-90.145
-93.416
-95.994
-97.88
-99.065
-99.558
-99.421
-98.722
-97.527
-95.904
-93.893
-91.518
-88.823
-85.861
-82.704
-79.43
-76.112
-72.812
-69.577
-66.432
-63.397
-60.477
-57.67
-54.968
-52.356
-49.815
-47.33
-44.888
-42.475
-40.076
-37.667
-35.219
-32.706
-30.101
-27.384
-24.537
-21.543
-18.389
-15.06
-11.549
-7.851
-3.961
0.128
4.43
8.964
13.738
18.749
23.987
29.434
35.073
40.889
46.857
52.943
59.122
65.376
71.699
78.106
84.594
91.148
97.739
104.319
110.858
117.347
123.774
130.134
136.424
142.631
148.764
154.859
160.914
166.902
172.759
178.377
183.677
188.609
193.133
197.23
200.867
203.99
206.558
208.538
209.887
210.57
210.522
209.643
207.888
205.259
201.803
197.628
192.815
187.413
181.475
175.043
168.169
160.92
153.343
145.467
137.341
129.022
120.596
112.182
103.86
95.668
87.616
79.67
71.817
64.067
56.423
48.885
41.462
34.155
26.986
19.999
13.218
6.654
0.304
-5.857
-11.835
-17.618
-23.187
-28.508
-33.557
-38.321
-42.783
-46.924
-50.734
-54.209
-57.355
-60.193
-62.739
-65.002
-66.989
-68.706
-70.16
-71.365
-72.337
-73.092
-73.646
-74.015
-74.217
-74.272
-74.199
-74.012
-73.725
-73.348
-72.891
-72.367
-71.786
-71.159
-70.496
-69.806
-69.098
-68.384
-67.67
-66.963
-66.27
-65.594
-64.939
-64.309
-63.705
-63.128
-62.58
-62.059
-61.565
-61.097
-60.654
-60.233
-59.833
-59.45
-59.084
-58.732
-58.39
-58.057
-57.729
-57.405
-57.082
-56.757
-56.429
-56.095
-55.753
-55.403
-55.043
-54.672
-54.289
-53.894
-53.485
-53.062
-52.626
-52.177
-51.716
-51.244
-50.763
-50.275
-49.781
-49.286
-48.791
-48.299
-47.813
-47.335
-46.87
-46.418
-45.983
-45.567
-45.171
-44.799
-44.452
-44.131
-43.837
-43.573
-43.338
-43.133
-42.959
-42.817
-42.705
-42.624
-42.573
-42.552
-42.561
-42.598
-42.663
-42.754
-42.87
-43.01
-43.173
-43.355
-43.555
-43.771
-44
-44.241
-44.49
-44.746
-45.006
-45.268
-45.531
-45.792
-46.051
-46.306
-46.556
-46.8
-47.04
-47.273
-47.502
-47.727
-47.948
-48.166
-48.385
-48.603
-48.825
-49.051
-49.283
-49.523
-49.773
-50.034
-50.309
-50.598
-50.903
-51.226
-51.566
-51.925
-52.303
-52.7
-53.117
-53.554
-54.009
-54.482
-54.972
-55.476
-55.993
-56.519
-57.052
-57.586
-58.117
-58.641
-59.151
-59.641
-60.105
-60.537
-60.928
-61.271
-61.559
-61.783
-61.935
-62.007
-61.991
-61.879
-61.665
-61.343
-60.907
-60.352
-59.676
-58.874
-57.946
-56.889
-55.702
-54.387
-52.943
-51.375
-49.687
-47.883
-45.971
-43.959
-41.861
-39.688
-37.456
-35.177
-32.868
-30.545
-28.228
-25.936
-23.689
-21.508
-19.411
-17.42
-15.558
-13.847
-12.308
-10.957
-9.808
-8.874
-8.168
-7.704
-7.491
-7.532
-7.827
-8.377
-9.188
-10.266
-11.612
-13.224
-15.096
-17.213
-19.562
-22.126
-24.877
-27.78
-30.801
-33.895
-37.021
-40.147
-43.239
-46.275
-49.235
-52.075
-54.743
-57.179
-59.308
-61.105
-62.602
-63.815
-64.745
-65.46
-66.068
-66.817
-68.122
-70.199
-73.024
-76.523
-80.6
-85.16
-90.125
-94.986
-98.69
-100.476
-100.042
-97.393
-92.851
-86.536
-78.353
-68.973
-60.155
-53.533
-50.287
-51.129
-55.947
-64.902
-78.782
-96.199
-112.875
-124.955
-128.424
-122.249
-110.911
-95.363
-72.848
-38.239
19.791
108.585
227.642
373.651
535.394
697.992
848.235
969.12
1044.951
1063.912
1016.916
905.077
739.399
538.823
330.79
141.745
-8.509
-107.982
-159.438
-172.555
-157.31
-127.683
-91.706
-56.839
-34.791
-28.577
-38.762
-61.136
-82.878
-97.943
-104.998
-105.243
-105.201
-107.259
-109.905
-111.875
-110.909
-106.438
-99.821
-92.118
-84.261
-77.054
-70.949
-66.184
-62.861
-60.895
-60.058
-60.192
-61.191
-62.896
-65.123
-67.709
-70.5
-73.352
-76.147
-78.732
-80.934
-82.636
-83.767
-84.295
-84.225
-83.576
-82.372
-80.66
-78.506
-75.972
-73.118
-70.008
-66.696
-63.25
-59.741
-56.241
-52.82
-49.524
-46.381
-43.402
-40.586
-37.924
-35.399
-32.987
-30.655
-28.376
-26.127
-23.885
-21.63
-19.34
-16.989
-14.551
-12.002
-9.32
-6.486
-3.486
-0.303
3.073
6.651
10.439
14.439
18.656
23.096
27.761
32.654
37.776
43.123
48.692
54.477
60.469
66.655
73.023
79.554
86.229
93.029
99.93
106.907
113.935
120.985
128.03
135.037
141.978
148.82
155.532
162.08
168.435
174.563
180.434
186.018
191.285
196.207
200.758
204.911
208.644
211.933
214.76
217.106
218.955
220.295
221.114
221.405
221.161
220.38
219.062
217.211
214.832
211.933
208.525
204.622
200.242
195.401
190.121
184.426
178.339
171.888
165.1
158.004
150.632
143.013
135.181
127.167
119.004
110.726
102.364
93.952
85.523
77.106
68.735
60.438
52.245
44.183
36.279
28.559
21.045
13.759
6.721
-0.049
-6.537
-12.728
-18.609
-24.172
-29.408
-34.313
-38.881
-43.113
-47.009
-50.569
-53.799
-56.704
-59.291
-61.567
-63.543
-65.229
-66.637
-67.78
-68.671
-69.324
-69.753
-69.974
-70.001
-69.849
-69.535
-69.074
-68.481
-67.771
-66.959
-66.061
-65.089
-64.059
-62.982
-61.87
-60.735
-59.587
-58.434
-57.286
-56.149
-55.029
-53.933
-52.863
-51.825
-50.821
-49.853
-48.923
-48.031
-47.177
-46.361
-45.583
-44.841
-44.135
-43.462
-42.821
-42.211
-41.629
-41.074
-40.543
-40.034
-39.545
-39.074
-38.617
-38.173
-37.741
-37.318
-36.903
-36.495
-36.094
-35.698
-35.309
-34.927
-34.553
-34.188
-33.833
-33.49
-33.161
-32.849
-32.556
-32.285
-32.038
-31.818
-31.627
-31.467
-31.34
-31.249
-31.193
-31.175
-31.195
-31.254
-31.352
-31.491
-31.669
-31.887
-32.145
-32.443
-32.779
-33.152
-33.561
-34.005
-34.481
-34.988
-35.523
-36.084
-36.668
-37.271
-37.891
-38.524
-39.167
-39.816
-40.468
-41.117
-41.762
-42.399
-43.025
-43.638
-44.234
-44.813
-45.373
-45.913
-46.433
-46.932
-47.409
-47.866
-48.303
-48.72
-49.12
-49.502
-49.869
-50.223
-50.565
-50.897
-51.222
-51.54
-51.854
-52.165
-52.476
-52.786
-53.099
-53.415
-53.735
-54.061
-54.393
-54.731
-55.077
-55.428
-55.785
-56.146
-56.508
-56.869
-57.225
-57.571
-57.904
-58.219
-58.511
-58.773
-59
-59.186
-59.323
-59.405
-59.425
-59.375
-59.249
-59.04
-58.741
-58.347
-57.854
-57.256
-56.55
-55.734
-54.805
-53.761
-52.602
-51.326
-49.936
-48.434
-46.823
-45.106
-43.292
-41.387
-39.402
-37.35
-35.243
-33.094
-30.919
-28.737
-26.566
-24.428
-22.343
-20.327
-18.399
-16.577
-14.88
-13.328
-11.94
-10.727
-9.701
-8.876
-8.267
-7.892
-7.759
-7.864
-8.201
-8.765
-9.556
-10.591
-11.878
-13.417
-15.21
-17.251
-19.538
-22.077
-24.849
-27.818
-30.93
-34.117
-37.335
-40.56
-43.778
-46.985
-50.134
-53.141
-55.923
-58.393
-60.495
-62.221
-63.528
-64.341
-64.699
-64.705
-64.616
-64.873
-65.712
-67.165
-69.233
-71.813
-74.829
-78.329
-81.959
-84.915
-86.65
-86.786
-85.273
-82.584
-78.933
-74.172
-68.679
-63.388
-59.423
-58.251
-60.695
-66.478
-75.614
-88.441
-104.575
-123.196
-141.486
-154.168
-158.066
-151.848
-135.313
-110.557
-74.665
-20.426
56.289
157.666
278.495
405.849
531.469
652.43
767.278
875.585
969.379
1028.909
1035.869
980.111
860.47
693.227
502.45
309.903
138.886
4.72
-87.935
-138.886
-156.622
-153.429
-137.096
-114.874
-92.72
-73.278
-61.278
-58.452
-60.998
-65.991
-69.487
-70.055
-70.77
-72.852
-76.427
-80.344
-81.945
-80.46
-76.434
-70.724
-64.523
-58.586
-53.394
-49.571
-47.471
-47.115
-48.339
-50.813
-54.253
-58.46
-63.214
-68.269
-73.381
-78.335
-82.955
-87.099
-90.65
-93.524
-95.668
-97.056
-97.694
-97.612
-96.864
-95.521
-93.658
-91.34
-88.634
-85.603
-82.323
-78.881
-75.361
-71.843
-68.385
-65.025
-61.789
-58.692
-55.738
-52.918
-50.213
-47.595
-45.041
-42.535
-40.059
-37.6
-35.136
-32.646
-30.106
-27.494
-24.792
-21.983
-19.049
-15.976
-12.753
-9.369
-5.818
-2.095
1.807
5.895
10.176
14.655
19.337
24.222
29.313
34.608
40.105
45.798
51.677
57.732
63.951
70.318
76.817
83.428
90.131
96.902
103.717
110.549
117.371
124.154
130.867
137.479
143.959
150.275
156.395
162.286
167.919
173.262
178.286
182.963
187.265
191.169
194.649
197.685
200.257
202.348
203.943
205.029
205.595
205.634
205.142
204.116
202.557
200.47
197.86
194.738
191.114
187.005
182.426
177.399
171.946
166.09
159.86
153.282
146.387
139.206
131.773
124.12
116.281
108.291
100.184
91.995
83.756
75.5
67.261
59.069
50.954
42.945
35.07
27.354
19.824
12.501
5.407
-1.439
-8.02
-14.319
-20.325
-26.026
-31.412
-36.478
-41.219
-45.633
-49.719
-53.48
-56.919
-60.043
-62.859
-65.378
-67.609
-69.564
-71.259
-72.705
-73.918
-74.913
-75.705
-76.31
-76.742
-77.017
-77.15
-77.155
-77.046
-76.837
-76.542
-76.172
-75.74
-75.257
-74.733
-74.178
-73.602
-73.011
-72.413
-71.814
-71.22
-70.634
-70.059
-69.499
-68.952
-68.421
-67.905
-67.401
-66.908
-66.424
-65.944
-65.467
-64.988
-64.505
-64.013
-63.511
-62.994
-62.462
-61.911
-61.34
-60.749
-60.137
-59.503
-58.847
-58.171
-57.474
-56.76
-56.028
-55.281
-54.521
-53.751
-52.974
-52.192
-51.411
-50.632
-49.862
-49.103
-48.36
-47.639
-46.944
-46.279
-45.65
-45.061
-44.517
-44.021
-43.578
-43.19
-42.861
-42.592
-42.385
-42.241
-42.16
-42.14
-42.182
-42.284
-42.442
-42.656
-42.921
-43.235
-43.594
-43.993
-44.43
-44.899
-45.397
-45.918
-46.457
-47.01
-47.573
-48.139
-48.706
-49.267
-49.819
-50.358
-50.879
-51.38
-51.857
-52.307
-52.727
-53.116
-53.473
-53.797
-54.088
-54.346
-54.572
-54.769
-54.939
-55.084
-55.207
-55.313
-55.404
-55.484
-55.558
-55.631
-55.705
-55.787
-55.88
-55.988
-56.118
-56.271
-56.454
-56.669
-56.92
-57.209
-57.539
-57.912
-58.33
-58.794
-59.303
-59.857
-60.456
-61.098
-61.78
-62.5
-63.253
-64.034
-64.838
-65.659
-66.489
-67.321
-68.146
-68.957
-69.744
-70.499
-71.213
-71.876
-72.479
-73.013
-73.467
-73.833
-74.101
-74.263
-74.308
-74.23
-74.021
-73.673
-73.181
-72.54
-71.745
-70.793
-69.682
-68.412
-66.982
-65.393
-63.647
-61.75
-59.707
-57.526
-55.215
-52.785
-50.25
-47.627
-44.931
-42.181
-39.397
-36.596
-33.797
-31.021
-28.287
-25.618
-23.034
-20.556
-18.205
-16.004
-13.977
-12.146
-10.529
-9.142
-7.998
-7.109
-6.482
-6.127
-6.053
-6.267
-6.78
-7.597
-8.719
-10.148
-11.882
-13.908
-16.205
-18.742
-21.476
-24.369
-27.386
-30.492
-33.654
-36.828
-39.96
-42.998
-45.891
-48.61
-51.136
-53.434
-55.447
-57.129
-58.476
-59.536
-60.422
-61.202
-61.854
-62.426
-63.08
-64.123
-65.913
-68.631
-72.19
-76.476
-81.588
-87.51
-93.937
-100.08
-104.767
-107.159
-107.07
-104.628
-99.71
-92.279
-82.776
-72.532
-63.71
-58.149
-56.692
-59.336
-66.001
-76.659
-90.618
-105.515
-117.799
-122.934
-115.819
-94.055
-56.348
-2.231
64.291
140.687
227.227
322.84
431.203
554.87
688.066
823.175
945.164
1033.469
1071.478
1044.651
948.276
791.638
593.837
383.804
190.302
34.974
-69.366
-124.384
-138.691
-124.365
-96.916
-66.567
-42.71
-32.156
-33.975
-45.493
-59.73
-69.51
-73.613
-73.5
-73.284
-76.16
-81.464
-86.848
-89.67
-88.797
-84.796
-78.757
-71.821
-64.756
-58.158
-52.72
-48.845
-46.619
-45.956
-46.607
-48.376
-51.123
-54.646
-58.703
-63.076
-67.591
-72.095
-76.46
-80.531
-84.14
-87.171
-89.558
-91.27
-92.312
-92.707
-92.488
-91.705
-90.426
-88.714
-86.632
-84.245
-81.611
-78.798
-75.876
-72.912
-69.969
-67.091
-64.3
-61.608
-59.012
-56.499
-54.051
-51.647
-49.254
-46.851
-44.415
-41.928
-39.372
-36.729
-33.977
-31.098
-28.072
-24.882
-21.516
-17.963
-14.214
-10.262
-6.103
-1.735
2.841
7.626
12.62
17.822
23.23
28.84
34.648
40.644
46.82
53.164
59.663
66.299
73.054
79.908
86.84
93.826
100.844
107.866
114.868
121.822
128.7
135.474
142.115
148.595
154.884
160.953
166.775
172.321
177.564
182.479
187.04
191.225
195.01
198.378
201.307
203.783
205.791
207.318
208.354
208.892
208.925
208.452
207.472
205.987
204.002
201.526
198.567
195.137
191.253
186.928
182.183
177.037
171.513
165.633
159.424
152.911
146.123
139.089
131.837
124.398
116.803
109.082
101.267
93.387
85.473
77.554
69.661
61.82
54.059
46.405
38.883
31.515
24.326
17.335
10.561
4.021
-2.27
-8.297
-14.05
-19.519
-24.696
-29.576
-34.153
-38.426
-42.394
-46.059
-49.423
-52.492
-55.27
-57.765
-59.987
-61.945
-63.649
-65.112
-66.346
-67.363
-68.177
-68.802
-69.251
-69.539
-69.679
-69.686
-69.573
-69.353
-69.041
-68.648
-68.186
-67.666
-67.099
-66.495
-65.863
-65.211
-64.546
-63.874
-63.202
-62.535
-61.877
-61.23
-60.598
-59.982
-59.382
-58.8
-58.235
-57.685
-57.15
-56.629
-56.118
-55.617
-55.124
-54.636
-54.151
-53.667
-53.182
-52.694
-52.201
-51.703
-51.196
-50.682
-50.158
-49.625
-49.083
-48.532
-47.973
-47.406
-46.835
-46.26
-45.683
-45.107
-44.534
-43.968
-43.411
-42.868
-42.342
-41.837
-41.356
-40.904
-40.485
-40.103
-39.76
-39.461
-39.207
-39.002
-38.847
-38.745
-38.695
-38.701
-38.76
-38.875
-39.043
-39.266
-39.54
-39.866
-40.24
-40.661
-41.125
-41.63
-42.172
-42.748
-43.354
-43.985
-44.638
-45.307
-45.988
-46.677
-47.367
-48.054
-48.733
-49.397
-50.044
-50.666
-51.26
-51.821
-52.346
-52.832
-53.276
-53.677
-54.033
-54.344
-54.61
-54.832
-55.01
-55.146
-55.242
-55.299
-55.319
-55.307
-55.263
-55.193
-55.098
-54.985
-54.856
-54.717
-54.571
-54.425
-54.282
-54.148
-54.028
-53.927
-53.851
-53.806
-53.796
-53.827
-53.905
-54.033
-54.216
-54.454
-54.751
-55.107
-55.521
-55.991
-56.513
-57.083
-57.698
-58.354
-59.045
-59.767
-60.515
-61.284
-62.071
-62.872
-63.679
-64.484
-65.277
-66.048
-66.786
-67.478
-68.111
-68.672
-69.149
-69.532
-69.814
-69.988
-70.041
-69.961
-69.729
-69.332
-68.769
-68.036
-67.131
-66.061
-64.836
-63.484
-62.043
-60.543
-58.997
-57.415
-55.791
-54.126
-52.422
-50.681
-48.9
-47.077
-45.204
-43.282
-41.322
-39.313
-37.233
-35.035
-32.642
-30.013
-27.144
-24.044
-20.747
-17.299
-13.746
-10.162
-6.646
-3.274
-0.122
2.755
5.328
7.529
9.269
10.443
10.918
10.599
9.453
7.459
4.63
1.024
-3.288
-8.187
-13.505
-19.114
-24.897
-30.747
-36.595
-42.325
-47.804
-52.91
-57.48
-61.384
-64.572
-67.004
-68.697
-69.759
-70.223
-70.171
-69.883
-69.561
-69.42
-69.705
-70.381
-71.438
-73.196
-75.858
-79.268
-83.216
-87.097
-90.198
-92.504
-93.88
-93.637
-91.315
-86.979
-81.08
-74.899
-70.097
-67.338
-67.088
-70.632
-78.033
-87.31
-96.245
-101.63
-101.715
-99.525
-96.524
-89.497
-71.5
-30.268
43.621
149.823
282.524
430.689
581.745
727.931
858.542
960.887
1024.431
1036.137
992.552
898.987
762.06
598.3
424.181
255.156
111.503
4.396
-63.084
-93.597
-98.972
-89.783
-72.068
-51.54
-33.346
-22.335
-22.591
-33.646
-48.844
-61.226
-67.437
-67.994
-67.181
-68.269
-71.363
-74.796
-76.595
-76.311
-74.314
-71.312
-68.21
-65.364
-63.044
-61.709
-61.274
-61.39
-62.202
-63.723
-65.852
-68.665
-71.973
-75.504
-79.263
-83.245
-87.205
-90.933
-94.226
-96.863
-98.824
-100.13
-100.738
-100.651
-99.908
-98.558
-96.691
-94.398
-91.725
-88.719
-85.432
-81.923
-78.269
-74.548
-70.829
-67.163
-63.577
-60.091
-56.714
-53.443
-50.271
-47.182
-44.15
-41.154
-38.18
-35.213
-32.241
-29.249
-26.215
-23.119
-19.94
-16.661
-13.269
-9.749
-6.092
-2.287
1.672
5.79
10.068
14.511
19.121
23.902
28.856
33.986
39.288
44.761
50.4
56.2
62.15
68.241
74.458
80.787
87.211
93.71
100.266
106.855
113.455
120.041
126.586
133.065
139.45
145.712
151.824
157.756
163.481
168.97
174.196
179.134
183.756
188.04
191.961
195.499
198.634
201.347
203.622
205.443
206.799
207.679
208.075
207.98
207.391
206.307
204.73
202.665
200.116
197.095
193.612
189.681
185.317
180.54
175.368
169.823
163.929
157.711
151.195
144.409
137.38
130.137
122.71
115.128
107.421
99.619
91.751
83.847
75.934
68.042
60.198
52.428
44.758
37.212
29.814
22.586
15.547
8.717
2.113
-4.249
-10.356
-16.196
-21.758
-27.035
-32.019
-36.705
-41.091
-45.174
-48.956
-52.436
-55.619
-58.509
-61.111
-63.432
-65.48
-67.262
-68.788
-70.068
-71.113
-71.934
-72.541
-72.949
-73.168
-73.211
-73.092
-72.822
-72.415
-71.883
-71.239
-70.494
-69.66
-68.749
-67.772
-66.738
-65.657
-64.54
-63.395
-62.23
-61.053
-59.871
-58.691
-57.519
-56.361
-55.222
-54.107
-53.021
-51.967
-50.95
-49.974
-49.04
-48.153
-47.314
-46.525
-45.787
-45.102
-44.47
-43.891
-43.366
-42.895
-42.476
-42.111
-41.796
-41.533
-41.321
-41.157
-41.041
-40.971
-40.947
-40.968
-41.03
-41.134
-41.277
-41.458
-41.674
-41.924
-42.205
-42.515
-42.85
-43.209
-43.587
-43.982
-44.391
-44.812
-45.241
-45.676
-46.115
-46.556
-46.997
-47.437
-47.873
-48.305
-48.732
-49.152
-49.565
-49.968
-50.363
-50.748
-51.122
-51.485
-51.837
-52.177
-52.505
-52.82
-53.123
-53.413
-53.69
-53.955
-54.209
-54.453
-54.688
-54.915
-55.137
-55.354
-55.568
-55.78
-55.991
-56.203
-56.415
-56.628
-56.843
-57.059
-57.278
-57.499
-57.722
-57.948
-58.177
-58.41
-58.645
-58.884
-59.126
-59.371
-59.619
-59.87
-60.125
-60.385
-60.65
-60.92
-61.197
-61.481
-61.771
-62.068
-62.37
-62.676
-62.987
-63.3
-63.615
-63.933
-64.252
-64.574
-64.896
-65.22
-65.546
-65.872
-66.196
-66.518
-66.833
-67.141
-67.437
-67.719
-67.982
-68.224
-68.443
-68.635
-68.798
-68.928
-69.02
-69.073
-69.08
-69.037
-68.936
-68.767
-68.522
-68.197
-67.786
-67.285
-66.689
-65.994
-65.197
-64.3
-63.3
-62.196
-60.981
-59.64
-58.169
-56.575
-54.87
-53.077
-51.213
-49.294
-47.344
-45.394
-43.465
-41.573
-39.717
-37.874
-36.039
-34.219
-32.432
-30.715
-29.088
-27.549
-26.099
-24.727
-23.423
-22.185
-20.983
-19.764
-18.507
-17.219
-15.944
-14.781
-13.796
-13.027
-12.502
-12.226
-12.212
-12.494
-13.08
-13.964
-15.148
-16.626
-18.428
-20.628
-23.24
-26.235
-29.533
-32.978
-36.446
-39.853
-43.111
-46.153
-48.931
-51.402
-53.58
-55.543
-57.352
-59.05
-60.666
-62.189
-63.676
-65.236
-66.998
-69.114
-71.734
-75.05
-79.216
-84.274
-90.077
-96.259
-102.385
-108.043
-112.773
-115.973
-117.138
-116.05
-112.982
-108.753
-104.168
-99.971
-96.987
-96.106
-98.335
-103.172
-107.975
-110.003
-106.357
-97.214
-86.223
-72.866
-53.559
-19.979
40.458
131.539
249.539
385.407
524.777
659.592
785.943
897.253
985.97
1038.377
1038.749
980.777
865.795
705.333
520.135
330.211
155.882
14.364
-86.167
-145.41
-171.74
-178.919
-179.126
-177.806
-174.364
-165.63
-148.672
-124.92
-98.669
-73.869
-53.847
-40.169
-32.913
-31.391
-34.454
-40.815
-49.046
-58.16
-67.312
-75.248
-81.005
-84.227
-84.855
-83.287
-80.257
-76.245
-71.833
-67.96
-65.277
-64.095
-64.534
-66.373
-69.272
-72.978
-77.121
-81.182
-84.79
-87.724
-89.873
-91.288
-92.02
-92.084
-91.535
-90.46
-88.931
-87.009
-84.739
-82.138
-79.244
-76.121
-72.844
-69.489
-66.124
-62.791
-59.514
-56.309
-53.182
-50.132
-47.151
-44.223
-41.33
-38.456
-35.59
-32.72
-29.833
-26.91
-23.93
-20.87
-17.71
-14.433
-11.028
-7.482
-3.786
0.068
4.085
8.269
12.623
17.149
21.852
26.735
31.799
37.045
42.47
48.069
53.839
59.771
65.855
72.078
78.428
84.888
91.441
98.068
104.749
111.462
118.185
124.892
131.558
138.158
144.665
151.052
157.29
163.352
169.21
174.836
180.203
185.284
190.053
194.486
198.557
202.246
205.529
208.388
210.806
212.764
214.251
215.254
215.763
215.772
215.276
214.274
212.766
210.756
208.249
205.255
201.783
197.847
193.461
188.644
183.413
177.791
171.799
165.463
158.807
151.859
144.647
137.2
129.548
121.722
113.752
105.671
97.508
89.295
81.063
72.842
64.661
56.55
48.536
40.645
32.903
25.334
17.959
10.799
3.872
-2.805
-9.217
-15.352
-21.198
-26.748
-31.993
-36.928
-41.55
-45.858
-49.851
-53.531
-56.902
-59.968
-62.737
-65.215
-67.412
-69.339
-71.006
-72.425
-73.611
-74.575
-75.332
-75.896
-76.283
-76.505
-76.579
-76.518
-76.337
-76.049
-75.669
-75.207
-74.677
-74.089
-73.454
-72.782
-72.08
-71.357
-70.621
-69.878
-69.133
-68.391
-67.657
-66.935
-66.226
-65.534
-64.858
-64.201
-63.562
-62.941
-62.337
-61.75
-61.177
-60.618
-60.071
-59.533
-59.003
-58.479
-57.959
-57.442
-56.925
-56.407
-55.888
-55.367
-54.843
-54.317
-53.789
-53.261
-52.734
-52.209
-51.689
-51.175
-50.67
-50.177
-49.698
-49.237
-48.795
-48.377
-47.985
-47.623
-47.293
-46.998
-46.742
-46.525
-46.352
-46.224
-46.142
-46.108
-46.124
-46.191
-46.308
-46.478
-46.699
-46.972
-47.296
-47.669
-48.091
-48.558
-49.07
-49.623
-50.215
-50.841
-51.499
-52.185
-52.894
-53.624
-54.369
-55.127
-55.891
-56.659
-57.427
-58.191
-58.947
-59.692
-60.424
-61.139
-61.834
-62.509
-63.161
-63.789
-64.391
-64.967
-65.515
-66.036
-66.529
-66.993
-67.428
-67.835
-68.213
-68.562
-68.882
-69.174
-69.437
-69.673
-69.881
-70.062
-70.216
-70.343
-70.443
-70.517
-70.563
-70.581
-70.57
-70.529
-70.455
-70.347
-70.204
-70.021
-69.796
-69.527
-69.209
-68.839
-68.413
-67.927
-67.376
-66.756
-66.064
-65.295
-64.447
-63.518
-62.504
-61.404
-60.216
-58.941
-57.577
-56.125
-54.587
-52.964
-51.259
-49.475
-47.618
-45.692
-43.704
-41.662
-39.576
-37.457
-35.317
-33.168
-31.025
-28.902
-26.815
-24.779
-22.808
-20.917
-19.121
-17.433
-15.869
-14.446
-13.179
-12.083
-11.172
-10.458
-9.954
-9.666
-9.6
-9.757
-10.138
-10.747
-11.595
-12.69
-14.039
-15.645
-17.507
-19.618
-21.964
-24.518
-27.24
-30.087
-33.014
-35.981
-38.954
-41.9
-44.782
-47.551
-50.149
-52.519
-54.606
-56.37
-57.768
-58.778
-59.417
-59.738
-59.837
-59.821
-59.769
-59.754
-59.87
-60.223
-60.923
-62.087
-63.776
-66.074
-69.16
-73.136
-77.989
-83.508
-89.203
-94.54
-99.094
-102.378
-103.765
-102.808
-99.363
-93.901
-87.573
-81.458
-76.529
-73.749
-74.045
-78.359
-85.623
-92.269
-94.785
-89.583
-77.073
-62.157
-44.585
-21.099
16.345
81.819
178.926
304.004
448.828
596.818
736.943
859.389
951.328
1002.086
999.011
935.505
813.972
645.121
449.547
249.425
68.397
-73.922
-169.807
-219.287
-232.169
-223.155
-201.396
-173.856
-145.413
-117.205
-93.01
-74.973
-60.582
-49.01
-38.929
-30.404
-26.939
-29.842
-38.926
-52.45
-67.005
-80.271
-90.442
-96.643
-99.158
-98.238
-94.427
-88.653
-81.598
-74.142
-67.497
-62.306
-58.843
-57.238
-57.213
-58.449
-60.738
-63.674
-66.739
-69.597
-71.998
-73.813
-75.091
-75.844
-76.056
-75.769
-75.026
-73.871
-72.361
-70.524
-68.366
-65.919
-63.223
-60.336
-57.331
-54.271
-51.215
-48.206
-45.266
-42.413
-39.654
-36.986
-34.402
-31.888
-29.42
-26.977
-24.544
-22.099
-19.626
-17.101
-14.497
-11.79
-8.957
-5.979
-2.841
0.472
3.972
7.669
11.57
15.681
20.005
24.543
29.301
34.278
39.475
44.892
50.522
56.362
62.404
68.639
75.055
81.638
88.371
95.237
102.216
109.285
116.42
123.597
130.788
137.965
145.099
152.159
159.114
165.934
172.586
179.038
185.261
191.222
196.891
202.241
207.242
211.869
216.096
219.9
223.26
226.156
228.571
230.49
231.899
232.787
233.147
232.973
232.262
231.014
229.231
226.919
224.085
220.74
216.897
212.572
207.782
202.549
196.895
190.843
184.421
177.657
170.58
163.22
155.61
147.781
139.767
131.601
123.317
114.947
106.526
98.086
89.658
81.274
72.964
64.758
56.683
48.765
41.03
33.502
26.2
19.146
12.358
5.85
-0.362
-6.267
-11.856
-17.121
-22.057
-26.661
-30.93
-34.867
-38.473
-41.753
-44.713
-47.361
-49.705
-51.756
-53.526
-55.028
-56.274
-57.28
-58.059
-58.628
-59.001
-59.194
-59.222
-59.102
-58.848
-58.476
-58
-57.434
-56.793
-56.088
-55.334
-54.54
-53.719
-52.878
-52.029
-51.178
-50.332
-49.499
-48.683
-47.889
-47.12
-46.379
-45.669
-44.991
-44.345
-43.732
-43.151
-42.602
-42.083
-41.592
-41.129
-40.691
-40.277
-39.884
-39.511
-39.157
-38.818
-38.495
-38.185
-37.888
-37.602
-37.327
-37.062
-36.807
-36.563
-36.33
-36.108
-35.898
-35.702
-35.521
-35.356
-35.208
-35.08
-34.972
-34.886
-34.825
-34.789
-34.781
-34.803
-34.854
-34.938
-35.055
-35.205
-35.389
-35.607
-35.86
-36.146
-36.464
-36.814
-37.195
-37.605
-38.042
-38.505
-38.99
-39.496
-40.021
-40.561
-41.113
-41.675
-42.243
-42.815
-43.388
-43.959
-44.526
-45.086
-45.637
-46.177
-46.704
-47.216
-47.712
-48.189
-48.647
-49.085
-49.502
-49.899
-50.276
-50.634
-50.973
-51.294
-51.599
-51.89
-52.166
-52.431
-52.686
-52.931
-53.17
-53.403
-53.632
-53.859
-54.086
-54.313
-54.541
-54.772
-55.004
-55.238
-55.473
-55.707
-55.94
-56.169
-56.393
-56.609
-56.815
-57.007
-57.183
-57.337
-57.467
-57.567
-57.632
-57.656
-57.635
-57.563
-57.433
-57.241
-56.983
-56.652
-56.244
-55.754
-55.181
-54.518
-53.765
-52.917
-51.973
-50.932
-49.794
-48.56
-47.233
-45.817
-44.317
-42.742
-41.099
-39.401
-37.657
-35.88
-34.082
-32.275
-30.471
-28.685
-26.932
-25.226
-23.582
-22.017
-20.548
-19.195
-17.973
-16.896
-15.977
-15.222
-14.64
-14.238
-14.025
-14.011
-14.21
-14.63
-15.28
-16.173
-17.313
-18.7
-20.326
-22.164
-24.182
-26.347
-28.628
-30.996
-33.424
-35.877
-38.315
-40.684
-42.934
-45.026
-46.925
-48.604
-50.018
-51.117
-51.899
-52.413
-52.748
-53.026
-53.298
-53.538
-53.864
-54.536
-55.82
-58.039
-61.291
-65.423
-70.54
-76.879
-84.286
-92.234
-99.799
-105.744
-109.459
-110.985
-110.012
-106.219
-99.836
-91.755
-83.96
-78.974
-78.28
-82.302
-91.37
-105.39
-123.537
-143.701
-161.74
-172.604
-171.965
-156.228
-122.274
-67.729
9.274
107.245
220.032
340.611
461.403
578.04
692.518
803.972
907.061
991.573
1036.804
1025.068
948.847
809.107
624.252
419.935
220.022
47.993
-84.123
-172.463
-218.317
-231.124
-219.398
-193.572
-164.188
-136.333
-115.228
-100.346
-87.224
-74.516
-60.317
-46.795
-39.431
-39.978
-48.874
-64.268
-81.578
-98.066
-112.001
-121.885
-127.695
-129.616
-127.83
-123.325
-117.278
-110.737
-104.893
-100.63
-98.277
-97.958
-99.551
-102.673
-106.937
-111.893
-116.982
-121.798
-126.093
-129.715
-132.654
-134.929
-136.531
-137.492
-137.869
-137.704
-137.047
-135.938
-134.391
-132.446
-130.156
-127.588
-124.827
-121.951
-119.03
-116.116
-113.242
-110.433
-107.704
-105.06
-102.5
-100.011
-97.574
-95.171
-92.789
-90.412
-88.023
-85.602
-83.122
-80.562
-77.899
-75.116
-72.199
-69.133
-65.905
-62.504
-58.922
-55.152
-51.192
-47.036
-42.68
-38.123
-33.363
-28.404
-23.248
-17.901
-12.369
-6.66
-0.784
5.247
11.421
17.722
24.133
30.636
37.208
43.823
50.455
57.078
63.66
70.173
76.583
82.859
88.972
94.894
100.594
106.038
111.19
116.017
120.495
124.603
128.324
131.648
134.565
137.077
139.199
140.944
142.327
143.36
144.037
144.355
144.313
143.914
143.166
142.065
140.587
138.704
136.398
133.646
130.427
126.712
122.437
117.556
112.04
105.87
99.072
91.682
83.736
75.281
66.386
57.136
47.657
38.096
28.567
19.186
10.066
1.327
-6.869
-14.38
-21.101
-26.95
-31.883
-35.885
-38.938
-41.045
-42.254
-42.637
-42.309
-41.414
-40.058
-38.338
-36.355
-34.208
-32.032
-29.947
