Name
Date of Birth,"Mar 27, 1959"
Recorded Date,2022-09-21 10:34:04 -0500
Classification,Sinus Rhythm
Symptoms,
Software Version,1.90
Device,"Watch4,2"
Sample Rate,510.227 hertz


Lead,Lead I
Unit,µV

31.177
32.288
33.124
33.682
33.966
33.981
33.738
33.246
32.515
31.554
30.373
28.983
27.396
25.622
23.671
21.551
19.275
16.858
14.318
11.672
8.939
6.138
3.29
0.42
-2.448
-5.292
-8.093
-10.831
-13.485
-16.037
-18.466
-20.756
-22.893
-24.862
-26.645
-28.22
-29.565
-30.667
-31.524
-32.143
-32.527
-32.68
-32.607
-32.319
-31.836
-31.171
-30.325
-29.284
-28.033
-26.572
-24.915
-23.095
-21.144
-19.079
-16.903
-14.616
-12.227
-9.748
-7.186
-4.527
-1.749
1.142
4.1
7.041
9.881
12.56
15.042
17.31
19.342
21.101
22.543
23.633
24.35
24.667
24.544
23.906
22.673
20.816
18.359
15.379
11.957
8.148
3.997
-0.447
-5.13
-9.988
-14.964
-20.021
-25.115
-30.19
-35.168
-39.944
-44.428
-48.57
-52.344
-55.755
-58.816
-61.526
-63.953
-66.169
-68.183
-70.081
-71.99
-74.075
-76.672
-80.077
-84.338
-89.526
-95.739
-102.758
-110.251
-117.642
-123.773
-127.627
-128.716
-126.602
-121.061
-112.481
-101.427
-88.98
-77.18
-68.068
-63.21
-64.002
-71.336
-84.333
-100.799
-118.182
-133.66
-147.152
-159.95
-169.731
-170.144
-149.248
-95.857
-8.841
104.694
230.611
356.963
483.448
612.959
744.631
869.04
963.232
1002.483
975.374
883.29
740.571
571.222
394.556
226.821
84.875
-22.965
-94.604
-132.127
-147.353
-150.983
-145.15
-132.917
-115.984
-95.784
-81.553
-77.578
-80.626
-88.542
-95.441
-98.578
-101.857
-106.159
-111.431
-117.112
-120.289
-119.919
-116.72
-111.162
-104.022
-96.447
-89.191
-82.9
-78.165
-75.031
-73.292
-72.894
-73.779
-75.677
-78.337
-81.493
-84.858
-88.332
-91.842
-95.241
-98.37
-101.093
-103.311
-104.987
-106.12
-106.701
-106.735
-106.245
-105.28
-103.91
-102.205
-100.229
-98.04
-95.692
-93.25
-90.779
-88.346
-86.012
-83.82
-81.791
-79.936
-78.257
-76.744
-75.386
-74.161
-73.038
-71.992
-71.003
-70.047
-69.108
-68.164
-67.191
-66.166
-65.067
-63.873
-62.566
-61.132
-59.554
-57.82
-55.92
-53.844
-51.586
-49.137
-46.491
-43.639
-40.575
-37.294
-33.793
-30.071
-26.128
-21.966
-17.59
-13.006
-8.226
-3.258
1.883
7.184
12.628
18.197
23.871
29.63
35.452
41.312
47.186
53.05
58.877
64.64
70.312
75.868
81.28
86.521
91.566
96.389
100.966
105.273
109.287
112.989
116.357
119.374
122.024
124.292
126.165
127.633
128.688
129.323
129.535
129.322
128.685
127.627
126.153
124.27
121.987
119.316
116.271
112.865
109.116
105.043
100.666
96.007
91.088
85.934
80.57
75.021
69.315
63.477
57.535
51.515
45.446
39.353
33.263
27.202
21.194
15.264
9.434
3.728
-1.835
-7.236
-12.456
-17.479
-22.29
-26.876
-31.225
-35.326
-39.172
-42.755
-46.069
-49.111
-51.878
-54.369
-56.585
-58.528
-60.203
-61.613
-62.765
-63.667
-64.326
-64.753
-64.956
-64.947
-64.737
-64.338
-63.762
-63.022
-62.129
-61.097
-59.937
-58.662
-57.284
-55.814
-54.263
-52.642
-50.96
-49.228
-47.454
-45.647
-43.817
-41.97
-40.114
-38.256
-36.403
-34.559
-32.731
-30.923
-29.14
-27.385
-25.661
-23.972
-22.32
-20.707
-19.134
-17.605
-16.119
-14.677
-13.282
-11.932
-10.629
-9.373
-8.166
-7.007
-5.898
-4.839
-3.832
-2.879
-1.98
-1.137
-0.351
0.376
1.043
1.649
2.193
2.673
3.088
3.438
3.722
3.938
4.087
4.167
4.18
4.125
4.001
3.811
3.554
3.232
2.846
2.396
1.885
1.315
0.687
0.004
-0.731
-1.517
-2.348
-3.223
-4.136
-5.086
-6.066
-7.075
-8.107
-9.158
-10.224
-11.302
-12.386
-13.474
-14.561
-15.643
-16.716
-17.777
-18.822
-19.848
-20.853
-21.833
-22.787
-23.712
-24.608
-25.472
-26.305
-27.106
-27.874
-28.61
-29.315
-29.989
-30.635
-31.253
-31.845
-32.414
-32.962
-33.491
-34.003
-34.5
-34.986
-35.46
-35.927
-36.387
-36.843
-37.297
-37.75
-38.205
-38.663
-39.127
-39.597
-40.076
-40.563
-41.06
-41.567
-42.084
-42.61
-43.144
-43.684
-44.228
-44.775
-45.32
-45.861
-46.394
-46.913
-47.416
-47.896
-48.349
-48.77
-49.153
-49.494
-49.788
-50.032
-50.222
-50.353
-50.424
-50.432
-50.374
-50.248
-50.052
-49.786
-49.449
-49.04
-48.561
-48.011
-47.393
-46.712
-45.974
-45.185
-44.353
-43.487
-42.597
-41.694
-40.79
-39.892
-39.012
-38.159
-37.342
-36.575
-35.871
-35.242
-34.699
-34.254
-33.915
-33.692
-33.592
-33.617
-33.765
-34.039
-34.441
-34.986
-35.69
-36.564
-37.618
-38.86
-40.286
-41.892
-43.665
-45.575
-47.587
-49.664
-51.768
-53.873
-55.95
-57.963
-59.865
-61.592
-63.073
-64.246
-65.06
-65.477
-65.491
-65.113
-64.388
-63.391
-62.192
-60.889
-59.591
-58.395
-57.399
-56.698
-56.382
-56.632
-57.727
-59.82
-62.938
-66.953
-71.487
-76.175
-80.68
-84.399
-86.572
-86.77
-84.863
-81.159
-76.792
-72.97
-70.78
-71.864
-76.687
-83.607
-90.886
-96.173
-100.009
-107.473
-120.003
-134.468
-138.764
-112.976
-46.886
59.563
194.212
335.084
471.592
600.286
718.874
827.016
911.583
953.849
944.546
880.685
770.4
632.113
480.703
330.205
196.504
89.16
13.469
-30.369
-52.526
-64.902
-73.764
-81.52
-85.739
-82.374
-72.826
-61.595
-52.495
-48.569
-50.471
-56.982
-66.98
-79.541
-92.864
-104.619
-113.555
-119.237
-121.68
-121.487
-119.005
-114.166
-107.667
-100.81
-94.36
-88.767
-84.188
-80.366
-77.302
-75.273
-74.234
-73.854
-73.883
-74.075
-74.303
-74.631
-75.031
-75.383
-75.649
-75.829
-75.946
-76.059
-76.2
-76.335
-76.435
-76.465
-76.366
-76.127
-75.753
-75.247
-74.634
-73.937
-73.162
-72.32
-71.411
-70.41
-69.298
-68.051
-66.641
-65.069
-63.351
-61.52
-59.637
-57.746
-55.866
-54.014
-52.188
-50.381
-48.594
-46.819
-45.043
-43.272
-41.504
-39.739
-37.979
-36.211
-34.411
-32.545
-30.566
-28.429
-26.102
-23.559
-20.778
-17.749
-14.458
-10.9
-7.08
-2.995
1.355
5.97
10.85
15.99
21.378
27.001
32.837
38.865
45.061
51.402
57.863
64.42
71.048
77.722
84.421
91.12
97.793
104.411
110.945
117.366
123.645
129.751
135.657
141.332
146.749
151.884
156.711
161.207
165.352
169.125
172.508
175.484
178.041
180.165
181.847
183.081
183.861
184.186
184.057
183.476
182.448
180.982
179.088
176.775
174.06
170.955
167.48
163.65
159.488
155.013
150.248
145.217
139.944
134.454
128.773
122.927
116.942
110.844
104.659
98.412
92.129
85.834
79.55
73.302
67.11
60.995
54.979
49.077
43.308
37.687
32.226
26.94
21.837
16.927
12.217
7.714
3.422
-0.656
-4.518
-8.164
-11.595
-14.813
-17.822
-20.626
-23.231
-25.642
-27.868
-29.916
-31.793
-33.51
-35.074
-36.497
-37.788
-38.957
-40.014
-40.97
-41.835
-42.619
-43.332
-43.982
-44.579
-45.131
-45.646
-46.132
-46.595
-47.042
-47.478
-47.909
-48.34
-48.774
-49.215
-49.665
-50.127
-50.601
-51.09
-51.593
-52.111
-52.644
-53.191
-53.751
-54.323
-54.906
-55.498
-56.097
-56.7
-57.305
-57.91
-58.511
-59.106
-59.694
-60.271
-60.835
-61.383
-61.915
-62.428
-62.92
-63.39
-63.835
-64.256
-64.651
-65.02
-65.362
-65.677
-65.966
-66.23
-66.468
-66.682
-66.873
-67.042
-67.19
-67.319
-67.429
-67.523
-67.602
-67.668
-67.723
-67.768
-67.806
-67.839
-67.868
-67.895
-67.922
-67.951
-67.982
-68.019
-68.062
-68.112
-68.172
-68.241
-68.322
-68.415
-68.52
-68.638
-68.769
-68.913
-69.068
-69.236
-69.413
-69.601
-69.797
-70.001
-70.211
-70.428
-70.649
-70.874
-71.101
-71.329
-71.556
-71.782
-72.004
-72.22
-72.431
-72.634
-72.827
-73.01
-73.18
-73.335
-73.474
-73.594
-73.693
-73.768
-73.816
-73.836
-73.824
-73.777
-73.695
-73.575
-73.414
-73.211
-72.963
-72.668
-72.323
-71.927
-71.477
-70.969
-70.4
-69.768
-69.071
-68.305
-67.468
-66.556
-65.568
-64.5
-63.35
-62.115
-60.794
-59.383
-57.882
-56.29
-54.608
-52.834
-50.972
-49.023
-46.989
-44.875
-42.684
-40.421
-38.09
-35.698
-33.25
-30.754
-28.218
-25.65
-23.059
-20.458
-17.859
-15.276
-12.724
-10.218
-7.774
-5.41
-3.142
-0.987
1.041
2.928
4.657
6.216
7.587
8.753
9.7
10.416
10.889
11.109
11.067
10.757
10.183
9.346
8.248
6.887
5.252
3.334
1.131
-1.357
-4.124
-7.158
-10.441
-13.949
-17.634
-21.453
-25.358
-29.307
-33.27
-37.21
-41.083
-44.832
-48.384
-51.666
-54.626
-57.215
-59.39
-61.139
-62.466
-63.414
-64.07
-64.503
-64.792
-65.021
-65.271
-65.657
-66.299
-67.277
-68.716
-70.797
-73.62
-77.195
-81.368
-85.702
-89.756
-93.202
-95.616
-96.476
-95.392
-92.235
-87.448
-82.175
-77.552
-74.221
-72.769
-74.026
-78.629
-86.64
-95.822
-101.6
-99.779
-88.039
-68.292
-44.112
-15.953
19.414
70.793
146.989
251.099
380.647
524.754
669.181
797.999
894.611
947.857
949.061
898.404
804.174
675.173
526.274
370.865
220.988
92.952
-2.762
-60.809
-83.421
-82.682
-71.114
-59.703
-52.783
-49.068
-47.35
-44.222
-39.643
-35.039
-29.925
-26.97
-27.67
-32.128
-40.932
-51.882
-62.502
-71.606
-78.371
-83.011
-85.846
-86.537
-85.091
-81.973
-77.985
-74.227
-71.311
-69.373
-68.527
-68.901
-70.56
-73.464
-77.314
-81.593
-85.961
-90.239
-94.298
-98.061
-101.41
-104.222
-106.472
-108.201
-109.453
-110.261
-110.635
-110.569
-110.097
-109.27
-108.145
-106.782
-105.232
-103.543
-101.769
-99.962
-98.175
-96.448
-94.8
-93.242
-91.776
-90.395
-89.094
-87.86
-86.671
-85.508
-84.352
-83.179
-81.973
-80.716
-79.388
-77.971
-76.445
-74.794
-73.005
-71.064
-68.962
-66.689
-64.238
-61.602
-58.778
-55.762
-52.552
-49.145
-45.541
-41.74
-37.744
-33.558
-29.186
-24.636
-19.918
-15.043
-10.025
-4.88
0.377
5.727
11.15
16.627
22.134
27.65
33.15
38.61
44.006
49.313
54.506
59.561
64.452
69.156
73.65
77.909
81.913
85.639
89.068
92.18
94.958
97.385
99.448
101.133
102.428
103.325
103.816
103.894
103.557
102.801
101.627
100.037
98.034
95.624
92.815
89.616
86.037
82.091
77.793
73.157
68.201
62.94
57.395
51.584
45.528
39.247
32.764
26.101
19.281
12.326
5.26
-1.893
-9.111
-16.369
-23.646
-30.918
-38.163
-45.361
-52.489
-59.527
-66.455
-73.253
-79.904
-86.389
-92.692
-98.798
-104.693
-110.364
-115.799
-120.988
-125.922
-130.592
-134.992
-139.115
-142.958
-146.516
-149.787
-152.77
-155.465
-157.874
-159.997
-161.839
-163.403
-164.696
-165.721
-166.487
-167
-167.267
-167.298
-167.103
-166.69
-166.07
-165.255
-164.255
-163.084
-161.753
-160.275
-158.661
-156.925
-155.077
-153.131
-151.097
-148.987
-146.813
-144.586
-142.315
-140.013
-137.689
-135.353
-133.014
-130.68
-128.36
-126.061
-123.791
-121.556
-119.363
-117.218
-115.126
-113.093
-111.124
-109.224
-107.395
-105.641
-103.966
-102.37
-100.857
-99.426
-98.078
-96.814
-95.634
-94.538
-93.526
-92.598
-91.752
-90.988
-90.305
-89.703
-89.178
-88.731
-88.359
-88.061
-87.836
-87.681
-87.594
-87.575
-87.62
-87.728
-87.896
-88.121
-88.4
-88.73
-89.107
-89.527
-89.988
-90.485
-91.015
-91.574
-92.16
-92.769
-93.397
-94.042
-94.701
-95.369
-96.044
-96.723
-97.401
-98.076
-98.745
-99.405
-100.053
-100.686
-101.3
-101.895
-102.465
-103.01
-103.526
-104.011
-104.463
-104.881
-105.264
-105.611
-105.922
-106.197
-106.436
-106.642
-106.814
-106.954
-107.065
-107.146
-107.2
-107.229
-107.234
-107.217
-107.181
-107.126
-107.055
-106.969
-106.869
-106.757
-106.635
-106.502
-106.36
-106.209
-106.051
-105.886
-105.715
-105.538
-105.356
-105.169
-104.975
-104.775
-104.566
-104.347
-104.114
-103.865
-103.597
-103.305
-102.987
-102.637
-102.252
-101.826
-101.356
-100.837
-100.264
-99.633
-98.94
-98.182
-97.356
-96.46
-95.493
-94.452
-93.338
-92.15
-90.889
-89.556
-88.152
-86.68
-85.141
-83.539
-81.877
-80.161
-78.397
-76.592
-74.757
-72.9
-71.032
-69.166
-67.315
-65.495
-63.722
-62.011
-60.372
-58.817
-57.359
-56.011
-54.786
-53.693
-52.74
-51.931
-51.276
-50.783
-50.461
-50.311
-50.321
-50.478
-50.773
-51.204
-51.784
-52.518
-53.403
-54.434
-55.607
-56.916
-58.361
-59.921
-61.55
-63.194
-64.793
-66.302
-67.71
-69.012
-70.191
-71.203
-71.954
-72.35
-72.329
-71.852
-70.915
-69.493
-67.521
-65.02
-62.151
-59.215
-56.539
-54.297
-52.435
-50.837
-49.524
-48.554
-47.916
-47.252
-45.973
-43.657
-40.183
-35.766
-30.538
-24.368
-17.074
-8.924
-0.655
6.727
12.112
15.036
15.322
12.418
5.79
-4.42
-17.466
-30.436
-38.346
-38.539
-29.282
-9.861
17.592
56.565
112.849
188.061
285.172
399.675
522.085
650.053
777.534
896.297
997.943
1064.064
1078.701
1037.713
943.897
810.522
657.341
499.038
349.722
224.046
129.193
69.722
45.077
45.093
61.364
85.725
108.658
126.562
135.276
133.18
125.663
116.648
110.22
108.06
106.498
103.58
98.872
93.357
89.915
89.624
92.082
96.534
101.766
107.031
111.899
115.747
118.205
119.188
118.771
117.207
114.703
111.399
107.463
103.094
98.482
93.796
89.175
84.742
80.647
77.014
73.924
71.43
69.54
68.245
67.525
67.337
67.621
68.317
69.368
70.717
72.316
74.098
75.994
77.931
79.836
81.655
83.356
84.911
86.312
87.557
88.652
89.616
90.473
91.243
91.942
92.586
93.186
93.762
94.332
94.916
95.537
96.211
96.956
97.788
98.722
99.77
100.943
102.25
103.697
105.292
107.046
108.967
111.063
113.343
115.81
118.47
121.326
124.38
127.629
131.069
134.694
138.497
142.468
146.596
150.868
155.267
159.779
164.386
169.067
173.803
178.571
183.35
188.115
192.842
197.508
202.086
206.552
210.881
215.047
219.028
222.798
226.335
229.616
232.62
235.326
237.715
239.77
241.475
242.815
243.779
244.357
244.54
244.324
243.704
242.68
241.252
239.424
237.202
234.592
231.603
228.249
224.54
220.493
216.124
211.45
206.491
201.267
195.799
190.11
184.223
178.161
171.948
165.609
159.167
152.649
146.077
139.476
132.87
126.281
119.733
113.245
106.839
100.534
94.347
88.295
82.393
76.655
71.093
65.717
60.537
55.561
50.792
46.237
41.898
37.776
33.871
30.182
26.707
23.441
20.38
17.519
14.85
12.367
10.06
7.921
5.94
4.109
2.415
0.85
-0.598
-1.939
-3.184
-4.342
-5.425
-6.441
-7.4
-8.313
-9.186
-10.029
-10.85
-11.654
-12.45
-13.242
-14.037
-14.838
-15.65
-16.477
-17.322
-18.187
-19.075
-19.987
-20.926
-21.891
-22.884
-23.904
-24.952
-26.028
-27.13
-28.259
-29.413
-30.592
-31.796
-33.023
-34.274
-35.547
-36.841
-38.157
-39.494
-40.851
-42.228
-43.625
-45.041
-46.476
-47.93
-49.403
-50.894
-52.404
-53.931
-55.476
-57.038
-58.617
-60.211
-61.819
-63.442
-65.077
-66.723
-68.38
-70.046
-71.72
-73.399
-75.081
-76.766
-78.45
-80.13
-81.804
-83.468
-85.12
-86.756
-88.373
-89.967
-91.535
-93.073
-94.578
-96.047
-97.476
-98.862
-100.202
-101.493
-102.734
-103.921
-105.054
-106.131
-107.152
-108.114
-109.02
-109.867
-110.657
-111.391
-112.068
-112.691
-113.259
-113.776
-114.243
-114.663
-115.038
-115.37
-115.665
-115.924
-116.152
-116.352
-116.527
-116.682
-116.821
-116.948
-117.065
-117.177
-117.287
-117.399
-117.514
-117.635
-117.764
-117.902
-118.048
-118.203
-118.367
-118.537
-118.713
-118.891
-119.069
-119.244
-119.414
-119.573
-119.718
-119.844
-119.946
-120.017
-120.053
-120.045
-119.988
-119.875
-119.698
-119.451
-119.125
-118.715
-118.212
-117.61
-116.9
-116.078
-115.135
-114.067
-112.867
-111.532
-110.059
-108.445
-106.689
-104.791
-102.751
-100.572
-98.256
-95.807
-93.229
-90.528
-87.711
-84.786
-81.761
-78.646
-75.452
-72.191
-68.879
-65.531
-62.164
-58.797
-55.447
-52.134
-48.877
-45.695
-42.604
-39.62
-36.759
-34.035
-31.467
-29.071
-26.862
-24.856
-23.062
-21.493
-20.157
-19.059
-18.197
-17.567
-17.168
-17
-17.077
-17.409
-18
-18.853
-19.964
-21.318
-22.898
-24.671
-26.588
-28.595
-30.639
-32.671
-34.657
-36.562
-38.337
-39.923
-41.247
-42.228
-42.813
-42.952
-42.606
-41.781
-40.501
-38.825
-36.867
-34.727
-32.498
-30.284
-28.166
-26.22
-24.561
-23.305
-22.616
-22.739
-23.807
-25.833
-28.704
-32.025
-35.31
-38.071
-39.611
-39.159
-36.269
-30.747
-23.01
-14.402
-6.293
-0.154
3.123
4.163
3.796
3.085
1.562
-4.035
-15.003
-28.616
-36.198
-22.046
26.343
112.011
229.3
364.075
502.623
637.771
764.915
877.391
965.869
1018.947
1025.246
983.741
899.973
780.66
640.502
492.146
348.735
228.623
139.471
82.634
52.58
33.459
16.39
-1.618
-19.942
-31.411
-33.902
-29.84
-21.763
-13.999
-8.269
-3.538
0.839
5.182
9.519
13.338
16.173
18.043
18.66
17.552
14.51
9.724
3.87
-2.264
-7.964
-12.845
-16.685
-19.332
-20.803
-21.375
-21.659
-22.174
-23.291
-25.208
-27.849
-31.08
-34.72
-38.453
-41.893
-44.784
-46.974
-48.402
-49.14
-49.247
-48.783
-47.857
-46.574
-45.015
-43.245
-41.303
-39.222
-37.059
-34.881
-32.755
-30.736
-28.854
-27.125
-25.559
-24.156
-22.908
-21.802
-20.817
-19.935
-19.146
-18.442
-17.813
-17.246
-16.721
-16.217
-15.712
-15.184
-14.615
-13.988
-13.285
-12.494
-11.604
-10.602
-9.481
-8.228
-6.832
-5.281
-3.565
-1.673
0.401
2.665
5.121
7.771
10.613
13.643
16.856
20.245
23.798
27.505
31.352
35.323
39.403
43.571
47.81
52.096
56.408
60.722
65.014
69.259
73.432
77.507
81.458
85.26
88.888
92.318
95.525
98.486
101.178
103.581
105.673
107.437
108.855
109.911
110.593
110.888
110.789
110.288
109.381
108.066
106.344
104.217
101.69
98.77
95.466
91.787
87.747
83.361
78.643
73.612
68.286
62.685
56.832
50.746
44.452
37.972
31.33
24.551
17.657
10.675
3.627
-3.461
-10.567
-17.665
-24.735
-31.753
-38.699
-45.553
-52.297
-58.913
-65.385
-71.699
-77.842
-83.802
-89.569
-95.134
-100.49
-105.63
-110.551
-115.248
-119.72
-123.966
-127.986
-131.782
-135.355
-138.708
-141.846
-144.772
-147.492
-150.011
-152.335
-154.47
-156.424
-158.202
-159.813
-161.263
-162.56
-163.709
-164.719
-165.594
-166.341
-166.964
-167.47
-167.863
-168.145
-168.322
-168.396
-168.369
-168.244
-168.023
-167.706
-167.294
-166.79
-166.192
-165.501
-164.719
-163.844
-162.878
-161.821
-160.672
-159.434
-158.107
-156.691
-155.189
-153.601
-151.929
-150.177
-148.347
-146.441
-144.465
-142.421
-140.316
-138.154
-135.941
-133.684
-131.39
-129.066
-126.72
-124.36
-121.995
-119.634
-117.285
-114.957
-112.66
-110.403
-108.194
-106.041
-103.954
-101.94
-100.005
-98.159
-96.406
-94.753
-93.206
-91.768
-90.445
-89.238
-88.152
-87.186
-86.343
-85.623
-85.024
-84.545
-84.184
-83.937
-83.801
-83.772
-83.842
-84.008
-84.261
-84.594
-85
-85.471
-85.997
-86.572
-87.187
-87.832
-88.5
-89.182
-89.871
-90.56
-91.24
-91.905
-92.548
-93.164
-93.747
-94.293
-94.797
-95.257
-95.669
-96.033
-96.347
-96.61
-96.823
-96.987
-97.103
-97.173
-97.2
-97.188
-97.141
-97.064
-96.961
-96.838
-96.701
-96.555
-96.406
-96.259
-96.12
-95.993
-95.883
-95.794
-95.729
-95.692
-95.686
-95.714
-95.776
-95.874
-96.007
-96.175
-96.377
-96.611
-96.872
-97.157
-97.462
-97.78
-98.107
-98.436
-98.761
-99.072
-99.363
-99.625
-99.848
-100.024
-100.144
-100.196
-100.172
-100.063
-99.86
-99.557
-99.145
-98.619
-97.972
-97.201
-96.302
-95.272
-94.11
-92.816
-91.389
-89.833
-88.15
-86.346
-84.426
-82.399
-80.276
-78.071
-75.795
-73.466
-71.098
-68.709
-66.318
-63.942
-61.597
-59.3
-57.069
-54.92
-52.874
-50.951
-49.169
-47.547
-46.101
-44.846
-43.796
-42.964
-42.352
-41.964
-41.802
-41.876
-42.2
-42.792
-43.659
-44.808
-46.242
-47.954
-49.931
-52.153
-54.576
-57.157
-59.851
-62.616
-65.422
-68.235
-71.012
-73.699
-76.228
-78.53
-80.552
-82.241
-83.553
-84.481
-85.037
-85.272
-85.276
-85.12
-84.888
-84.685
-84.61
-84.765
-85.258
-86.142
-87.541
-89.69
-92.712
-96.596
-101.195
-106.087
-110.856
-115.224
-118.682
-120.521
-120.31
-117.969
-113.89
-109.112
-104.746
-101.625
-100.803
-103.725
-110.195
-117.955
-124.498
-126.354
-123.448
-120.349
-117.706
-112.206
-94.563
-49.523
30.151
142.309
277.677
420.817
560.981
691.118
802.622
886.326
929.323
920.099
856.797
743.833
593.55
425.292
256.495
107.088
-5.492
-76.587
-108.537
-113.588
-109.325
-104.278
-101.257
-98.612
-91.39
-80.034
-67.998
-58.586
-55.435
-59.357
-69.175
-83.054
-98.088
-111.916
-123.11
-130.839
-135.047
-135.961
-133.717
-129.051
-123.289
-117.55
-112.733
-109.323
-107.303
-106.665
-107.525
-109.75
-112.976
-116.874
-121.097
-125.434
-129.864
-134.286
-138.528
-142.449
-145.918
-148.859
-151.259
-153.099
-154.347
-155.001
-155.076
-154.611
-153.678
-152.337
-150.643
-148.654
-146.42
-144.005
-141.478
-138.908
-136.364
-133.895
-131.529
-129.285
-127.172
-125.189
-123.332
-121.586
-119.926
-118.331
-116.784
-115.271
-113.779
-112.291
-110.789
-109.253
-107.664
-106.004
-104.258
-102.412
-100.453
-98.368
-96.148
-93.782
-91.265
-88.589
-85.744
-82.722
-79.515
-76.113
-72.513
-68.709
-64.696
-60.474
-56.044
-51.409
-46.574
-41.546
-36.335
-30.952
-25.409
-19.72
-13.902
-7.972
-1.948
4.151
10.303
16.489
22.685
28.869
35.018
41.111
47.123
53.032
58.817
64.454
69.924
75.205
80.277
85.121
89.719
94.054
98.11
101.873
105.33
108.469
111.281
113.759
115.898
117.695
119.148
120.259
121.031
121.469
121.579
121.369
120.85
120.034
118.934
117.564
115.94
114.078
111.996
109.713
107.247
104.618
101.845
98.949
95.949
92.866
89.72
86.532
83.322
80.11
76.915
73.756
70.653
67.622
64.68
61.844
59.128
56.546
54.11
51.831
49.718
47.781
46.027
44.46
43.085
41.906
40.924
40.14
39.554
39.164
38.969
38.964
39.147
39.513
40.056
40.771
41.651
42.69
43.88
45.212
46.678
48.27
49.978
51.793
53.705
55.704
57.78
59.923
62.122
64.369
66.652
68.964
71.294
73.634
75.976
78.312
80.636
82.94
85.218
87.465
89.674
91.842
93.963
96.032
98.046
100.001
101.894
103.721
105.48
107.168
108.784
110.325
111.79
113.179
114.491
115.726
116.883
117.965
118.972
119.906
120.77
121.564
122.293
122.959
123.564
124.112
124.604
125.044
125.434
125.777
126.074
126.33
126.545
126.722
126.865
126.974
127.053
127.104
127.129
127.129
127.108
127.066
127.006
126.93
126.839
126.734
126.617
126.489
126.349
126.199
126.038
125.864
125.678
125.478
125.261
125.027
124.774
124.499
124.201
123.879
123.53
123.153
122.746
122.307
121.835
121.329
120.787
120.207
119.588
118.929
118.228
117.485
116.699
115.869
114.995
114.075
113.109
112.097
111.039
109.934
108.784
107.588
106.349
105.067
103.746
102.387
100.994
99.569
98.117
96.64
95.142
93.628
92.102
90.567
89.029
87.492
85.961
84.441
82.938
81.457
80.004
78.584
77.204
75.87
74.587
73.362
72.2
71.108
70.091
69.156
68.308
67.555
66.9
66.351
65.911
65.587
65.381
65.297
65.339
65.509
65.808
66.239
66.801
67.495
68.319
69.273
70.354
71.557
72.879
74.313
75.853
77.49
79.215
81.016
82.882
84.797
86.75
88.723
90.703
92.672
94.614
96.514
98.357
100.127
101.807
103.381
104.831
106.14
107.291
108.269
109.06
109.649
110.027
110.187
110.125
109.835
109.311
108.538
107.507
106.21
104.645
102.813
100.722
98.387
95.833
93.099
90.227
87.255
84.218
81.142
78.055
74.992
71.995
69.121
66.419
63.937
61.709
59.772
58.142
56.803
55.707
54.761
53.874
52.982
52.031
50.951
49.666
48.087
46.119
43.725
40.844
37.331
33.113
28.212
22.821
17.384
12.38
8.178
5.194
3.974
4.909
8.131
13.234
19.196
25.046
29.955
33.142
33.741
30.775
24.996
19.363
17.079
21.8
33.459
47.393
63.157
82.35
111.301
163.646
244.521
353.359
485.278
625.34
761.865
883.236
974.84
1024.921
1021.039
957.436
836.48
669.739
480.066
290.958
128.21
11.549
-56.576
-82.304
-82.579
-77.533
-74.708
-74.629
-72.656
-61.405
-40.888
-15.6
9.832
30.401
43.748
49.856
49.281
43.235
33.155
20.608
6.874
-6.904
-19.254
-29.092
-35.932
-39.572
-40.339
-38.981
-36.073
-32.344
-28.879
-26.419
-25.358
-25.921
-27.975
-31.242
-35.517
-40.423
-45.414
-50.111
-54.283
-57.81
-60.738
-63.111
-64.922
-66.217
-67.076
-67.557
-67.713
-67.568
-67.12
-66.39
-65.431
-64.311
-63.11
-61.9
-60.728
-59.626
-58.617
-57.714
-56.924
-56.246
-55.669
-55.176
-54.754
-54.395
-54.089
-53.826
-53.588
-53.351
-53.092
-52.787
-52.416
-51.961
-51.406
-50.737
-49.939
-49.001
-47.914
-46.67
-45.259
-43.671
-41.896
-39.925
-37.751
-35.367
-32.769
-29.954
-26.92
-23.669
-20.204
-16.532
-12.66
-8.598
-4.358
0.046
4.598
9.281
14.076
18.961
23.915
28.914
33.932
38.945
43.924
48.842
53.671
58.382
62.947
67.338
71.526
75.485
79.187
82.608
85.722
88.506
90.937
92.996
94.662
95.919
96.752
97.148
97.098
96.593
95.629
94.203
92.314
89.965
87.161
83.909
80.217
76.097
71.562
66.629
61.315
55.641
49.627
43.298
36.679
29.795
22.674
15.345
7.836
0.178
-7.601
-15.469
-23.397
-31.354
-39.311
-47.239
-55.11
-62.894
-70.568
-78.104
-85.48
-92.672
-99.661
-106.427
-112.952
-119.221
-125.218
-130.932
-136.351
-141.467
-146.271
-150.758
-154.925
-158.77
-162.292
-165.493
-168.378
-170.95
-173.216
-175.184
-176.864
-178.265
-179.399
-180.277
-180.912
-181.319
-181.51
-181.5
-181.304
-180.937
-180.412
-179.744
-178.947
-178.035
-177.021
-175.918
-174.739
-173.495
-172.2
-170.863
-169.496
-168.109
-166.712
-165.314
-163.922
-162.544
-161.188
-159.857
-158.558
-157.295
-156.07
-154.887
-153.747
-152.652
-151.603
-150.599
-149.641
-148.727
-147.856
-147.028
-146.24
-145.491
-144.779
-144.102
-143.46
-142.849
-142.271
-141.721
-141.201
-140.707
-140.24
-139.797
-139.377
-138.979
-138.602
-138.245
-137.906
-137.585
-137.282
-136.995
-136.724
-136.471
-136.234
-136.014
-135.811
-135.627
-135.462
-135.318
-135.194
-135.094
-135.018
-134.967
-134.943
-134.947
-134.98
-135.043
-135.137
-135.261
-135.416
-135.601
-135.817
-136.063
-136.339
-136.643
-136.974
-137.333
-137.717
-138.125
-138.557
-139.01
-139.483
-139.975
-140.483
-141.006
-141.541
-142.086
-142.639
-143.197
-143.757
-144.317
-144.873
-145.423
-145.962
-146.488
-146.997
-147.486
-147.949
-148.384
-148.788
-149.156
-149.485
-149.772
-150.013
-150.205
-150.346
-150.433
-150.463
-150.433
-150.342
-150.185
-149.962
-149.669
-149.303
-148.863
-148.345
-147.747
-147.068
-146.304
-145.455
-144.518
-143.491
-142.374
-141.163
-139.859
-138.46
-136.966
-135.377
-133.693
-131.917
-130.05
-128.093
-126.05
-123.925
-121.72
-119.44
-117.089
-114.67
-112.19
-109.654
-107.068
-104.437
-101.77
-99.076
-96.365
-93.65
-90.943
-88.255
-85.602
-82.995
-80.45
-77.979
-75.592
-73.3
-71.112
-69.041
-67.102
-65.305
-63.663
-62.185
-60.879
-59.753
-58.816
-58.071
-57.513
-57.141
-56.957
-56.965
-57.187
-57.637
-58.323
-59.25
-60.415
-61.81
-63.427
-65.24
-67.206
-69.278
-71.408
-73.555
-75.694
-77.791
-79.797
-81.658
-83.293
-84.636
-85.64
-86.268
-86.503
-86.346
-85.821
-84.982
-83.924
-82.759
-81.61
-80.608
-79.875
-79.535
-79.703
-80.532
-82.253
-85
-88.772
-93.4
-98.468
-103.534
-108.245
-112.131
-114.585
-115.203
-113.861
-110.985
-107.719
-105.227
-104.412
-106.093
-110.872
-118.952
-129.959
-142.25
-152.875
-158.615
-156.109
-142.105
-113.914
-68.888
-6.281
70.985
158.782
252.373
348.936
450.8
558.358
665.745
761.382
826.098
842.45
805.155
717.847
592.359
446.486
294.029
147.957
22.95
-72.244
-132.93
-159.111
-158.409
-138.812
-106.767
-70.854
-40.303
-22.875
-23.6
-39.779
-61.092
-78.237
-86.352
-86.117
-83.573
-82.861
-84.165
-86.068
-86.046
-83.109
-78.214
-72.442
-66.683
-61.532
-57.299
-54.168
-52.24
-51.437
-51.515
-52.287
-53.645
-55.463
-57.609
-59.949
-62.326
-64.611
-66.7
-68.465
-69.799
-70.638
-70.935
-70.686
-69.907
-68.624
-66.88
-64.734
-62.242
-59.458
-56.433
-53.216
-49.866
-46.45
-43.036
-39.693
-36.471
-33.401
-30.508
-27.801
-25.28
-22.938
-20.759
-18.716
-16.79
-14.963
-13.22
-11.547
-9.923
-8.328
-6.74
-5.137
-3.499
-1.806
-0.041
1.813
3.772
5.847
8.05
10.391
12.879
15.526
18.342
21.337
24.521
27.898
31.477
35.261
39.251
43.448
47.846
52.441
57.224
62.186
67.314
72.593
78.007
83.539
89.169
94.875
100.636
106.427
112.225
118.002
123.735
129.395
134.957
140.393
145.677
150.781
155.681
160.352
164.767
168.905
172.742
176.256
179.429
182.24
184.674
186.716
188.351
189.57
190.364
190.728
190.658
190.152
189.214
187.847
186.057
183.853
181.244
178.245
174.868
171.131
167.052
162.649
157.943
152.957
147.714
142.237
136.551
130.681
124.654
118.494
112.229
105.883
99.484
93.057
86.629
80.223
73.866
67.58
61.389
55.315
49.378
43.597
37.989
32.572
27.358
22.361
17.592
13.061
8.775
4.741
0.963
-2.555
-5.81
-8.804
-11.536
-14.009
-16.227
-18.193
-19.914
-21.395
-22.643
-23.667
-24.475
-25.076
-25.479
-25.697
-25.738
-25.616
-25.34
-24.924
-24.379
-23.717
-22.95
-22.088
-21.144
-20.127
-19.048
-17.917
-16.743
-15.535
-14.302
-13.05
-11.788
-10.522
-9.258
-8.003
-6.759
-5.533
-4.328
-3.148
-1.997
-0.876
0.211
1.262
2.274
3.246
4.176
5.063
5.907
6.708
7.464
8.176
8.844
9.468
10.049
10.588
11.084
11.538
11.95
12.322
12.654
12.946
13.199
13.413
13.59
13.729
13.83
13.894
13.92
13.909
13.861
13.775
13.652
13.492
13.295
13.062
12.794
12.49
12.153
11.781
11.376
10.939
10.47
9.971
9.441
8.882
8.295
7.681
7.04
6.373
5.681
4.965
4.224
3.46
2.672
1.861
1.026
0.169
-0.712
-1.614
-2.538
-3.483
-4.449
-5.435
-6.442
-7.468
-8.515
-9.581
-10.668
-11.775
-12.903
-14.052
-15.222
-16.414
-17.629
-18.868
-20.13
-21.417
-22.729
-24.066
-25.43
-26.818
-28.232
-29.668
-31.127
-32.605
-34.1
-35.609
-37.128
-38.655
-40.185
-41.714
-43.239
-44.754
-46.256
-47.739
-49.197
-50.626
-52.02
-53.372
-54.676
-55.926
-57.115
-58.237
-59.284
-60.25
-61.127
-61.909
-62.588
-63.156
-63.608
-63.935
-64.133
-64.196
-64.12
-63.901
-63.537
-63.028
-62.373
-61.573
-60.631
-59.55
-58.334
-56.987
-55.516
-53.927
-52.229
-50.43
-48.54
-46.572
-44.539
-42.458
-40.344
-38.214
-36.085
-33.976
-31.905
-29.889
-27.944
-26.084
-24.328
-22.691
-21.194
-19.852
-18.68
-17.692
-16.899
-16.314
-15.945
-15.796
-15.864
-16.15
-16.655
-17.387
-18.361
-19.588
-21.071
-22.808
-24.797
-27.03
-29.496
-32.17
-35.006
-37.959
-40.983
-44.037
-47.092
-50.107
-53.024
-55.774
-58.275
-60.451
-62.255
-63.647
-64.584
-65.05
-65.041
-64.581
-63.757
-62.67
-61.418
-60.121
-58.88
-57.777
-56.947
-56.575
-56.812
-57.754
-59.328
-61.25
-63.246
-65.098
-66.53
-67.175
-66.656
-64.682
-61.451
-57.815
-54.668
-52.669
-52.498
-54.731
-59.869
-68.51
-79.128
-87.76
-91.097
-85.784
-72.073
-54.821
-34.321
-8.662
27.822
87.612
175.301
290.132
428.495
575.35
715.881
835.06
913.875
943.077
921.438
854.651
756.535
637.845
506.374
369.266
235.901
121.968
39.605
-5.945
-20.094
-19.746
-17.045
-17.269
-19.898
-17.834
-9.109
2.904
14.579
21.764
23.149
20.067
13.535
4.388
-6.108
-16.334
-24.787
-30.685
-34.009
-35.2
-34.548
-31.999
-27.838
-22.912
-18.207
-14.395
-11.706
-10.061
-9.392
-9.837
-11.448
-14
-17.083
-20.328
-23.501
-26.497
-29.255
-31.627
-33.469
-34.718
-35.383
-35.513
-35.152
-34.315
-33.008
-31.265
-29.132
-26.671
-23.947
-21.016
-17.936
-14.774
-11.593
-8.462
-5.431
-2.534
0.209
2.79
5.21
7.472
9.589
11.579
13.458
15.244
16.956
18.612
20.231
21.834
23.442
25.078
26.763
28.516
30.356
32.299
34.361
36.555
38.896
41.393
44.059
46.906
49.945
53.185
56.637
60.307
64.201
68.323
72.675
77.254
82.057
87.076
92.303
97.727
103.333
109.105
115.026
121.077
127.235
133.477
139.78
146.117
152.462
158.786
165.061
171.257
177.346
183.297
189.081
194.669
200.033
205.144
209.975
214.501
218.697
222.54
226.008
229.082
231.744
233.98
235.776
237.122
238.012
238.44
238.405
237.907
236.949
235.539
233.684
231.395
228.685
225.569
222.064
218.189
213.965
209.415
204.56
199.427
194.041
188.428
182.615
176.631
170.503
164.258
157.925
151.531
145.103
138.667
132.249
125.873
119.563
113.339
107.222
101.23
95.381
89.688
84.165
78.822
73.668
68.711
63.955
59.405
55.062
50.925
46.994
43.265
39.735
36.398
33.247
30.275
27.474
24.833
22.344
19.996
17.777
15.677
13.685
11.788
9.975
8.235
6.557
4.93
3.345
1.792
0.263
-1.25
-2.755
-4.255
-5.758
-7.266
-8.781
-10.307
-11.844
-13.393
-14.951
-16.519
-18.095
-19.675
-21.258
-22.84
-24.417
-25.986
-27.543
-29.083
-30.603
-32.099
-33.565
-34.999
-36.395
-37.751
-39.062
-40.326
-41.539
-42.699
-43.804
-44.851
-45.841
-46.771
-47.643
-48.457
-49.214
-49.917
-50.567
-51.169
-51.725
-52.239
-52.716
-53.16
-53.576
-53.969
-54.343
-54.704
-55.056
-55.404
-55.752
-56.105
-56.468
-56.844
-57.237
-57.651
-58.089
-58.555
-59.051
-59.58
-60.145
-60.748
-61.39
-62.073
-62.798
-63.566
-64.377
-65.23
-66.125
-67.061
-68.036
-69.048
-70.096
-71.177
-72.288
-73.426
-74.589
-75.774
-76.977
-78.197
-79.43
-80.673
-81.925
-83.181
-84.441
-85.701
-86.96
-88.215
-89.463
-90.704
-91.936
-93.156
-94.362
-95.554
-96.729
-97.887
-99.027
-100.147
-101.248
-102.328
-103.389
-104.428
-105.449
-106.449
-107.431
-108.395
-109.342
-110.272
-111.186
-112.086
-112.971
-113.841
-114.697
-115.539
-116.366
-117.178
-117.973
-118.752
-119.512
-120.254
-120.974
-121.673
-122.348
-122.998
-123.62
-124.212
-124.771
-125.293
-125.776
-126.216
-126.609
-126.951
-127.239
-127.467
-127.631
-127.727
-127.749
-127.693
-127.554
-127.327
-127.007
-126.591
-126.075
-125.457
-124.734
-123.904
-122.967
-121.922
-120.77
-119.513
-118.15
-116.686
-115.123
-113.466
-111.72
-109.89
-107.984
-106.01
-103.981
-101.908
-99.804
-97.684
-95.563
-93.457
-91.382
-89.355
-87.389
-85.5
-83.701
-82.008
-80.437
-79.007
-77.731
-76.626
-75.706
-74.984
-74.472
-74.18
-74.107
-74.255
-74.626
-75.224
-76.064
-77.158
-78.512
-80.13
-82.013
-84.154
-86.537
-89.138
-91.909
-94.8
-97.763
-100.751
-103.734
-106.675
-109.528
-112.24
-114.746
-116.982
-118.9
-120.455
-121.601
-122.331
-122.662
-122.654
-122.416
-122.037
-121.611
-121.246
-121.035
-121.08
-121.489
-122.328
-123.696
-125.785
-128.7
-132.436
-136.901
-141.756
-146.578
-151.004
-154.502
-156.351
-156.061
-153.486
-148.823
-142.819
-136.562
-131.057
-127.336
-126.85
-129.664
-133.733
-137.11
-137.257
-133.343
-128.655
-123.98
-115.473
-96.237
-54.825
17.293
119.127
245.409
387.389
533.527
674.796
799.148
890.459
934.807
922.119
851.932
733.038
580.263
412.527
247.201
102.819
-5.86
-74.688
-106.298
-113.635
-113.109
-112.294
-113.149
-112.33
-104.247
-89.847
-73.567
-59.32
-50.775
-48.73
-52.127
-60.209
-71.52
-83.851
-94.962
-103.494
-109.004
-111.644
-111.729
-109.254
-104.45
-98.261
-92.02
-86.633
-82.451
-79.458
-77.502
-76.702
-77.197
-78.813
-81.117
-83.703
-86.318
-88.843
-91.262
-93.478
-95.325
-96.716
-97.647
-98.173
-98.39
-98.385
-98.18
-97.766
-97.127
-96.253
-95.174
-93.932
-92.563
-91.101
-89.575
-88.02
-86.494
-85.045
-83.69
-82.414
-81.163
-79.868
-78.495
-77.047
-75.55
-74.024
-72.469
-70.878
-69.248
-67.587
-65.899
-64.171
-62.374
-60.475
-58.457
-56.318
-54.075
-51.744
-49.323
-46.796
-44.136
-41.323
-38.339
-35.173
-31.808
-28.223
-24.405
-20.353
-16.077
-11.591
-6.902
-2.015
3.064
8.33
13.768
19.362
25.093
30.94
36.883
42.9
48.964
55.046
61.122
67.166
73.156
79.069
84.881
90.565
96.097
101.451
106.603
111.529
116.202
120.598
124.695
128.471
131.907
134.985
137.688
140.003
141.915
143.416
144.498
145.155
145.384
145.185
144.559
143.51
142.045
140.173
137.904
135.249
132.225
128.846
125.131
121.097
116.766
112.158
107.295
102.201
96.901
91.419
85.781
80.014
74.144
68.199
62.206
56.191
50.182
44.204
38.283
32.443
26.708
21.1
15.64
10.346
5.237
0.328
-4.366
-8.833
-13.063
-17.047
-20.778
-24.251
-27.463
-30.411
-33.094
-35.514
-37.674
-39.577
-41.228
-42.634
-43.803
-44.743
-45.466
-45.982
-46.303
-46.443
-46.415
-46.233
-45.912
-45.468
-44.915
-44.27
-43.546
-42.759
-41.923
-41.052
-40.16
-39.258
-38.358
-37.47
-36.604
-35.769
-34.972
-34.22
-33.518
-32.873
-32.287
-31.764
-31.306
-30.913
-30.588
-30.328
-30.133
-30
-29.927
-29.91
-29.944
-30.026
-30.148
-30.307
-30.495
-30.707
-30.935
-31.173
-31.415
-31.654
-31.883
-32.098
-32.292
-32.461
-32.601
-32.708
-32.778
-32.809
-32.8
-32.748
-32.654
-32.517
-32.336
-32.115
-31.853
-31.553
-31.218
-30.85
-30.454
-30.033
-29.592
-29.135
-28.668
-28.195
-27.722
-27.255
-26.798
-26.358
-25.938
-25.545
-25.182
-24.854
-24.566
-24.319
-24.118
-23.965
-23.861
-23.807
-23.804
-23.853
-23.952
-24.101
-24.298
-24.541
-24.828
-25.155
-25.52
-25.918
-26.346
-26.798
-27.272
-27.761
-28.261
-28.767
-29.273
-29.775
-30.268
-30.747
-31.207
-31.645
-32.057
-32.439
-32.789
-33.103
-33.38
-33.619
-33.818
-33.978
-34.099
-34.182
-34.227
-34.238
-34.217
-34.165
-34.087
-33.986
-33.864
-33.727
-33.578
-33.42
-33.259
-33.099
-32.942
-32.794
-32.658
-32.537
-32.435
-32.354
-32.297
-32.265
-32.26
-32.283
-32.335
-32.415
-32.523
-32.657
-32.815
-32.996
-33.195
-33.408
-33.631
-33.857
-34.083
-34.3
-34.504
-34.688
-34.843
-34.964
-35.044
-35.075
-35.05
-34.963
-34.806
-34.575
-34.263
-33.865
-33.379
-32.799
-32.123
-31.35
-30.479
-29.509
-28.442
-27.278
-26.021
-24.674
-23.243
-21.733
-20.151
-18.505
-16.807
-15.07
-13.306
-11.53
-9.759
-8.008
-6.295
-4.637
-3.05
-1.547
-0.146
1.141
2.298
3.307
4.156
4.827
5.308
5.585
5.649
5.492
5.111
4.508
3.683
2.633
1.35
-0.174
-1.943
-3.962
-6.231
-8.742
-11.481
-14.419
-17.51
-20.706
-23.958
-27.218
-30.453
-33.623
-36.685
-39.59
-42.274
-44.679
-46.75
-48.439
-49.701
-50.518
-50.91
-50.935
-50.698
-50.305
-49.846
-49.404
-49.055
-48.884
-48.973
-49.436
-50.39
-51.965
-54.359
-57.682
-61.943
-67.008
-72.464
-77.712
-82.122
-84.969
-85.484
-83.218
-77.976
-70.129
-60.979
-52.069
-45.156
-40.992
-38.909
-38.623
-39.384
-43.24
-54.495
-71.693
-89.835
-96.65
-73.855
-14.868
78.08
195.088
318.966
444.275
572.761
703.773
832.993
943.098
1010.114
1017.096
959.712
846.926
697.393
531.612
365.649
213.338
86.685
-5.904
-58.863
-72.097
-55.306
-22.964
9.711
27.257
24.844
6.358
-20.959
-44.613
-58.454
-63.619
-63.323
-64.035
-68.629
-75.507
-82.378
-86.6
-87.277
-85.195
-81.261
-76.31
-70.932
-65.645
-61.058
-57.537
-55.201
-54.013
-53.819
-54.542
-56.113
-58.377
-61.146
-64.23
-67.487
-70.819
-74.126
-77.28
-80.132
-82.538
-84.399
-85.678
-86.355
-86.437
-85.943
-84.9
-83.357
-81.383
-79.045
-76.409
-73.538
-70.487
-67.321
-64.11
-60.918
-57.815
-54.846
-52.035
-49.397
-46.936
-44.646
-42.521
-40.542
-38.683
-36.925
-35.247
-33.632
-32.065
-30.526
-28.994
-27.445
-25.858
-24.213
-22.491
-20.677
-18.756
-16.713
-14.538
-12.219
-9.751
-7.124
-4.33
-1.36
1.792
5.132
8.664
12.388
16.306
20.414
24.708
29.179
33.818
38.612
43.547
48.608
53.777
59.035
64.361
69.732
75.127
80.519
85.884
91.195
96.426
101.55
106.539
111.368
116.008
120.436
124.624
128.55
132.189
135.521
138.525
141.183
143.477
145.393
146.918
148.042
148.756
149.053
148.932
148.39
147.429
146.053
144.268
142.082
139.505
136.551
133.232
129.566
125.57
121.264
116.667
111.803
106.694
101.365
95.839
90.143
84.303
78.343
72.29
66.171
60.01
53.832
47.662
41.523
35.438
29.428
23.512
17.711
12.042
6.519
1.159
-4.027
-9.026
-13.829
-18.428
-22.815
-26.985
-30.934
-34.659
-38.16
-41.436
-44.488
-47.318
-49.931
-52.33
-54.521
-56.51
-58.303
-59.909
-61.336
-62.592
-63.686
-64.628
-65.427
-66.092
-66.633
-67.058
-67.377
-67.598
-67.729
-67.778
-67.752
-67.659
-67.504
-67.295
-67.036
-66.733
-66.39
-66.014
-65.606
-65.172
-64.715
-64.238
-63.744
-63.236
-62.717
-62.188
-61.651
-61.109
-60.563
-60.014
-59.463
-58.912
-58.361
-57.811
-57.262
-56.715
-56.171
-55.63
-55.094
-54.562
-54.035
-53.515
-53.002
-52.497
-52.001
-51.515
-51.039
-50.575
-50.122
-49.682
-49.254
-48.839
-48.437
-48.048
-47.671
-47.306
-46.953
-46.611
-46.277
-45.953
-45.636
-45.325
-45.019
-44.717
-44.417
-44.119
-43.82
-43.52
-43.217
-42.91
-42.598
-42.279
-41.952
-41.615
-41.269
-40.912
-40.542
-40.16
-39.764
-39.353
-38.929
-38.49
-38.036
-37.567
-37.083
-36.586
-36.074
-35.55
-35.014
-34.466
-33.909
-33.342
-32.769
-32.19
-31.606
-31.02
-30.433
-29.847
-29.264
-28.685
-28.111
-27.546
-26.991
-26.447
-25.916
-25.4
-24.9
-24.418
-23.954
-23.512
-23.091
-22.693
-22.319
-21.971
-21.649
-21.355
-21.09
-20.855
-20.65
-20.477
-20.337
-20.23
-20.158
-20.121
-20.119
-20.153
-20.223
-20.328
-20.467
-20.641
-20.848
-21.086
-21.353
-21.648
-21.968
-22.311
-22.673
-23.052
-23.444
-23.845
-24.251
-24.656
-25.057
-25.447
-25.82
-26.172
-26.495
-26.783
-27.03
-27.227
-27.369
-27.446
-27.451
-27.377
-27.214
-26.955
-26.593
-26.119
-25.527
-24.811
-23.965
-22.983
-21.862
-20.598
-19.19
-17.635
-15.933
-14.085
-12.092
-9.958
-7.687
-5.284
-2.756
-0.115
2.628
5.462
8.371
11.341
14.355
17.396
20.446
23.489
26.509
29.486
32.404
35.24
37.973
40.582
43.046
45.345
47.461
49.374
51.071
52.541
53.778
54.773
55.515
55.984
56.164
56.046
55.622
54.89
53.854
52.522
50.917
49.075
47.038
44.844
42.532
40.127
37.659
35.168
32.703
30.332
28.115
26.099
24.331
22.849
21.672
20.804
20.204
19.789
19.493
19.247
18.977
18.623
18.08
17.238
16.018
14.313
11.978
8.916
5.08
0.57
-4.265
-9.017
-13.313
-16.7
-18.662
-18.76
-16.72
-12.758
-7.755
-2.721
1.565
4.309
4.607
1.719
-4.742
-13.13
-19.56
-20.46
-13.383
0.93
19.821
44.3
78.872
130.888
207.693
309.661
430.979
563.707
698.536
825.935
936.65
1017.563
1053.776
1038.352
971.286
860.474
723.349
575.135
429.386
301.178
199.199
127.569
85.714
63.689
50.286
39.488
29.303
23.26
25.907
36.537
51.632
66.677
77.557
83.326
84.36
80.722
73.319
63.391
52.472
42.698
35.296
30.444
28.29
28.998
32.382
38.015
44.966
51.803
57.671
62.309
65.526
67.249
67.463
66.156
63.618
60.421
56.944
53.391
49.924
46.599
43.53
40.896
38.767
37.129
35.971
35.262
34.99
35.173
35.783
36.761
38.044
39.56
41.244
43.05
44.916
46.782
48.588
50.271
51.787
53.112
54.231
55.141
55.845
56.346
56.66
56.81
56.818
56.708
56.5
56.209
55.854
55.455
55.032
54.606
54.197
53.819
53.489
53.221
53.029
52.924
52.917
53.016
53.23
53.57
54.043
54.658
55.425
56.347
57.429
58.675
60.085
61.657
63.388
65.27
67.297
69.458
71.741
74.134
76.621
79.187
81.814
84.483
87.175
89.869
92.543
95.177
97.747
100.23
102.605
104.849
106.94
108.854
110.571
112.069
113.329
114.33
115.054
115.483
115.601
115.394
114.849
113.954
112.7
111.081
109.093
106.732
104
100.897
97.43
93.603
89.426
84.909
80.065
74.907
69.452
63.716
57.718
51.479
45.019
38.36
31.527
24.542
17.429
10.214
2.922
-4.422
-11.791
-19.161
-26.506
-33.799
-41.018
-48.136
-55.132
-61.983
-68.667
-75.166
-81.461
-87.535
-93.375
-98.965
-104.297
-109.358
-114.142
-118.641
-122.852
-126.77
-130.395
-133.726
-136.765
-139.515
-141.98
-144.165
-146.076
-147.721
-149.109
-150.249
-151.151
-151.826
-152.286
-152.544
-152.613
-152.507
-152.24
-151.825
-151.278
-150.612
-149.842
-148.981
-148.043
-147.039
-145.983
-144.885
-143.757
-142.608
-141.448
-140.285
-139.128
-137.983
-136.857
-135.755
-134.682
-133.643
-132.641
-131.679
-130.759
-129.885
-129.056
-128.275
-127.541
-126.854
-126.214
-125.618
-125.066
-124.554
-124.079
-123.638
-123.228
-122.844
-122.483
-122.14
-121.812
-121.494
-121.182
-120.873
-120.562
-120.246
-119.922
-119.584
-119.232
-118.861
-118.469
-118.053
-117.612
-117.142
-116.643
-116.113
-115.549
-114.95
-114.315
-113.642
-112.931
-112.181
-111.391
-110.562
-109.695
-108.789
-107.847
-106.869
-105.857
-104.812
-103.736
-102.632
-101.5
-100.344
-99.166
-97.967
-96.751
-95.52
-94.277
-93.022
-91.76
-90.492
-89.221
-87.947
-86.673
-85.401
-84.133
-82.87
-81.615
-80.369
-79.135
-77.912
-76.704
-75.511
-74.333
-73.172
-72.029
-70.903
-69.796
-68.707
-67.637
-66.586
-65.555
-64.545
-63.555
-62.586
-61.638
-60.711
-59.805
-58.922
-58.06
-57.221
-56.405
-55.613
-54.845
-54.103
-53.386
-52.697
-52.033
-51.398
-50.789
-50.209
-49.657
-49.133
-48.638
-48.172
-47.737
-47.331
-46.955
-46.609
-46.293
-46.005
-45.744
-45.508
-45.294
-45.101
-44.924
-44.762
-44.609
-44.463
-44.319
-44.172
-44.017
-43.849
-43.662
-43.451
-43.209
-42.93
-42.609
-42.241
-41.819
-41.339
-40.796
-40.185
-39.502
-38.742
-37.901
-36.976
-35.964
-34.862
-33.668
-32.384
-31.008
-29.543
-27.992
-26.361
-24.657
-22.888
-21.063
-19.193
-17.291
-15.368
-13.439
-11.516
-9.613
-7.744
-5.924
-4.168
-2.494
-0.918
0.543
1.873
3.056
4.078
4.925
5.588
6.059
6.33
6.39
6.222
5.812
5.147
4.217
3.016
1.547
-0.184
-2.157
-4.34
-6.696
-9.187
-11.776
-14.433
-17.125
-19.816
-22.467
-25.02
-27.42
-29.618
-31.567
-33.231
-34.597
-35.674
-36.499
-37.158
-37.742
-38.333
-39.02
-39.879
-40.997
-42.481
-44.434
-46.942
-50.105
-54.06
-58.893
-64.609
-71.053
-77.847
-84.507
-90.581
-95.607
-99.033
-100.395
-99.453
-96.421
-92.093
-87.563
-83.723
-81.11
-80.437
-82.451
-87.195
-93.839
-99.682
-100.254
-92.757
-75.836
-49.302
-14.897
29.088
85.609
156.743
245.839
351.058
468.444
593.403
714.127
817.745
889.785
914.633
887.835
813.019
699.123
561.793
413.905
266.621
134.481
29.634
-40.558
-74.881
-83.664
-82.387
-81.166
-84.83
-91.348
-94.799
-94.283
-92.087
-91.007
-94.361
-102.464
-113.498
-125.955
-138.086
-148.314
-155.71
-159.796
-160.602
-158.7
-154.91
-149.943
-144.471
-139.204
-134.695
-131.246
-128.934
-127.605
-127.027
-127.041
-127.523
-128.37
-129.493
-130.791
-132.176
-133.573
-134.888
-136.037
-136.921
-137.427
-137.515
-137.188
-136.488
-135.527
-134.401
-133.162
-131.857
-130.489
-129.031
-127.488
-125.873
-124.195
-122.49
-120.787
-119.112
-117.518
-116.025
-114.621
-113.27
-111.895
-110.422
-108.821
-107.074
-105.192
-103.218
-101.173
-99.073
-96.943
-94.789
-92.608
-90.397
-88.129
-85.778
-83.337
-80.806
-78.204
-75.549
-72.841
-70.07
-67.215
-64.245
-61.134
-57.859
-54.394
-50.72
-46.829
-42.715
-38.387
-33.86
-29.145
-24.251
-19.186
-13.957
-8.578
-3.067
2.558
8.272
14.052
19.87
25.698
31.507
37.268
42.956
48.545
54.012
59.332
64.48
69.432
74.162
78.645
82.858
86.777
90.379
93.641
96.546
99.075
101.214
102.949
104.27
105.166
105.632
105.662
105.256
104.413
103.135
101.428
99.297
96.753
93.806
90.47
86.759
82.69
78.282
73.555
68.53
63.229
57.677
51.898
45.917
39.76
33.453
27.023
20.497
13.903
7.267
0.615
-6.024
-12.628
-19.17
-25.627
-31.976
-38.198
-44.27
-50.176
-55.898
-61.419
-66.726
-71.805
-76.646
-81.24
-85.577
-89.651
-93.459
-96.997
-100.263
-103.258
-105.983
-108.441
-110.636
-112.575
-114.263
-115.708
-116.92
-117.909
-118.684
-119.257
-119.64
-119.847
-119.889
-119.779
-119.531
-119.158
-118.672
-118.087
-117.415
-116.669
-115.86
-115.001
-114.102
-113.174
-112.228
-111.273
-110.317
-109.369
-108.437
-107.527
-106.644
-105.795
-104.983
-104.211
-103.484
-102.802
-102.168
-101.583
-101.045
-100.556
-100.113
-99.714
-99.358
-99.042
-98.762
-98.515
-98.298
-98.107
-97.939
-97.789
-97.653
-97.528
-97.409
-97.293
-97.174
-97.049
-96.915
-96.766
-96.6
-96.413
-96.202
-95.965
-95.698
-95.399
-95.065
-94.696
-94.288
-93.84
-93.351
-92.819
-92.243
-91.624
-90.96
-90.251
-89.498
-88.701
-87.86
-86.975
-86.047
-85.076
-84.062
-83.007
-81.911
-80.776
-79.601
-78.389
-77.142
-75.861
-74.547
-73.203
-71.83
-70.431
-69.008
-67.562
-66.097
-64.616
-63.12
-61.614
-60.1
-58.582
-57.064
-55.55
-54.043
-52.547
-51.067
-49.606
-48.169
-46.761
-45.386
-44.049
-42.757
-41.513
-40.324
-39.194
-38.128
-37.131
-36.207
-35.36
-34.594
-33.912
-33.317
-32.81
-32.394
-32.07
-31.839
-31.7
-31.652
-31.694
-31.824
-32.038
-32.332
-32.704
-33.147
-33.657
-34.226
-34.85
-35.519
-36.226
-36.962
-37.717
-38.482
-39.244
-39.994
-40.72
-41.41
-42.052
-42.634
-43.146
-43.575
-43.911
-44.142
-44.259
-44.253
-44.114
-43.837
-43.413
-42.839
-42.11
-41.223
-40.179
-38.977
-37.617
-36.103
-34.437
-32.626
-30.675
-28.591
-26.383
-24.062
-21.642
-19.137
-16.565
-13.943
-11.291
-8.627
-5.972
-3.348
-0.77
1.744
4.176
6.508
8.719
10.79
12.707
14.451
16.011
17.373
18.525
19.463
20.188
20.701
21.003
21.09
20.946
20.558
19.923
19.036
17.898
16.518
14.902
13.073
11.073
8.944
6.729
4.467
2.183
-0.089
-2.3
-4.393
-6.289
-7.917
-9.218
-10.136
-10.636
-10.701
-10.336
-9.578
-8.484
-7.129
-5.608
-4.014
-2.429
-0.942
0.386
1.439
1.97
1.814
0.938
-0.583
-2.441
-4.28
-5.856
-6.761
-6.328
-4.095
0.025
5.714
12.048
17.794
21.847
23.117
20.046
12.608
3.208
-5.694
-11.044
-12.224
-13.766
-17.597
-20.079
-12.524
20.459
90.82
198.687
336.885
491.707
647.098
792.566
917.156
1008.423
1055.802
1048.832
984.792
868.464
710.747
531.004
349.147
187.951
67.257
-7.379
-38.824
-41.324
-34.042
-25.428
-17.789
-8.123
10.133
36.412
65.845
93.529
113.811
124.168
125.305
118.449
105.543
89.063
71.268
54.132
39.583
28.987
22.739
20.775
22.635
27.309
33.694
40.749
47.284
52.454
55.932
57.582
57.523
56.08
53.554
50.297
46.783
43.352
40.206
37.509
35.287
33.534
32.274
31.493
31.153
31.237
31.718
32.561
33.754
35.267
37.054
39.073
41.261
43.552
45.885
48.196
50.439
52.582
54.602
56.481
58.212
59.793
61.234
62.553
63.765
64.886
65.93
66.916
67.866
68.803
69.75
70.726
71.752
72.845
74.022
75.3
76.693
78.213
79.871
81.677
83.64
85.769
88.075
90.564
93.244
96.12
99.195
102.471
105.949
109.625
113.493
117.545
121.773
126.163
130.701
135.371
140.153
145.029
149.974
154.966
159.98
164.988
169.964
174.878
179.704
184.411
188.97
193.354
197.533
201.48
205.166
208.567
211.656
214.409
216.804
218.819
220.435
221.635
222.403
222.726
222.595
222.001
220.94
219.409
217.409
214.943
212.017
208.638
204.819
200.573
195.916
190.866
185.443
179.671
173.572
167.172
160.499
153.579
146.441
139.115
131.63
124.017
116.305
108.526
100.709
92.885
85.083
77.331
69.656
62.085
54.643
47.352
40.234
33.31
26.597
20.112
13.869
7.88
2.156
-3.296
-8.47
-13.361
-17.969
-22.293
-26.335
-30.099
-33.59
-36.816
-39.783
-42.502
-44.981
-47.232
-49.266
-51.098
-52.738
-54.203
-55.504
-56.658
-57.677
-58.577
-59.37
-60.071
-60.691
-61.242
-61.737
-62.185
-62.597
-62.982
-63.347
-63.701
-64.049
-64.396
-64.746
-65.101
-65.464
-65.834
-66.211
-66.594
-66.982
-67.371
-67.759
-68.143
-68.519
-68.882
-69.228
-69.552
-69.85
-70.115
-70.342
-70.527
-70.663
-70.747
-70.774
-70.739
-70.64
-70.473
-70.235
-69.924
-69.538
-69.076
-68.536
-67.919
-67.226
-66.456
-65.613
-64.699
-63.718
-62.672
-61.568
-60.408
-59.199
-57.945
-56.652
-55.325
-53.97
-52.593
-51.199
-49.795
-48.387
-46.982
-45.585
-44.202
-42.839
-41.502
-40.197
-38.927
-37.699
-36.516
-35.383
-34.305
-33.284
-32.326
-31.432
-30.607
-29.851
-29.167
-28.557
-28.02
-27.558
-27.17
-26.856
-26.616
-26.448
-26.353
-26.329
-26.374
-26.488
-26.668
-26.914
-27.222
-27.59
-28.017
-28.498
-29.033
-29.616
-30.245
-30.917
-31.627
-32.371
-33.146
-33.946
-34.767
-35.605
-36.453
-37.307
-38.162
-39.013
-39.855
-40.683
-41.492
-42.277
-43.033
-43.756
-44.44
-45.08
-45.672
-46.21
-46.689
-47.106
-47.454
-47.73
-47.93
-48.049
-48.084
-48.032
-47.889
-47.655
-47.328
-46.908
-46.394
-45.789
-45.094
-44.312
-43.447
-42.504
-41.488
-40.405
-39.261
-38.065
-36.823
-35.545
-34.241
-32.923
-31.604
-30.297
-29.016
-27.776
-26.591
-25.478
-24.45
-23.521
-22.701
-22.004
-21.441
-21.028
-20.779
-20.702
-20.808
-21.106
-21.604
-22.308
-23.221
-24.339
-25.659
-27.179
-28.9
-30.835
-32.992
-35.37
-37.969
-40.78
-43.793
-46.998
-50.371
-53.871
-57.456
-61.081
-64.709
-68.315
-71.865
-75.314
-78.602
-81.657
-84.415
-86.831
-88.87
-90.505
-91.723
-92.534
-92.975
-93.122
-93.067
-92.903
-92.727
-92.639
-92.748
-93.153
-93.989
-95.431
-97.588
-100.487
-104.021
-107.89
-111.749
-115.307
-118.225
-120.083
-120.54
-119.401
-116.92
-113.905
-111.328
-109.975
-110.272
-112.59
-117.408
-124.933
-134.444
-143.197
-146.906
-141.873
-126.234
-101.876
-72.107
-37.753
2.804
56.375
129.986
225.481
340.747
466.437
589.872
697.99
777.656
817.31
806.803
742.79
626.383
466.376
283.597
100.075
-58.505
-169.637
-229.787
-245.962
-234.659
-218.045
-204.134
-191.687
-178.621
-158.932
-134.969
-114.86
-99.837
-91.515
-88.885
-87.654
-89.344
-94.594
-102.216
-112.083
-121.531
-128.702
-133.65
-135.882
-135.508
-133.132
-129.11
-124.332
-119.967
-116.518
-114.199
-113.218
-113.517
-115.009
-117.591
-120.866
-124.312
-127.584
-130.443
-132.75
-134.503
-135.678
-136.244
-136.231
-135.698
-134.705
-133.311
-131.549
-129.432
-126.986
-124.248
-121.279
-118.152
-114.938
-111.704
-108.497
-105.345
-102.271
-99.289
-96.408
-93.629
-90.941
-88.324
-85.768
-83.263
-80.8
-78.373
-75.96
-73.54
-71.093
-68.599
-66.043
-63.411
-60.69
-57.864
-54.925
-51.862
-48.669
-45.341
-41.87
-38.249
-34.47
-30.526
-26.414
-22.13
-17.672
-13.038
-8.23
-3.251
1.894
7.198
12.651
18.244
23.965
29.799
35.732
41.746
47.825
53.948
60.096
66.247
72.378
78.466
84.488
90.418
96.234
101.908
107.417
112.737
117.844
122.714
127.324
131.655
135.684
139.393
142.765
145.782
148.431
150.697
152.571
154.044
155.109
155.763
156.002
155.828
155.241
154.248
152.855
151.069
148.901
146.363
143.469
140.234
136.676
132.813
128.665
124.254
119.602
114.732
109.669
104.437
99.062
93.569
87.984
82.332
76.64
70.932
65.234
59.569
53.963
48.437
43.014
37.713
32.556
27.56
22.741
18.114
13.694
9.492
5.52
1.786
-1.701
-4.936
-7.913
-10.629
-13.082
-15.272
-17.199
-18.867
-20.278
-21.437
-22.351
-23.026
-23.471
-23.693
-23.703
-23.511
-23.129
-22.567
-21.838
-20.954
-19.929
-18.775
-17.505
-16.132
-14.67
-13.13
-11.524
-9.865
-8.165
-6.434
-4.683
-2.922
-1.163
0.586
2.316
4.019
5.686
7.31
8.886
10.407
11.867
13.263
14.59
15.845
17.025
18.127
19.151
20.096
20.96
21.745
22.452
23.083
23.638
24.121
24.534
24.881
25.166
25.39
25.56
25.678
25.749
25.779
25.772
25.733
25.667
25.581
25.479
25.367
25.25
25.134
25.024
24.926
24.844
24.783
24.749
24.745
24.776
24.846
24.958
25.115
25.32
25.575
25.882
26.241
26.654
27.121
27.643
28.219
28.848
29.53
30.262
31.044
31.872
32.744
33.656
34.606
35.588
36.6
37.635
38.69
39.76
40.839
41.922
43.003
44.078
45.141
46.186
47.208
48.203
49.165
50.091
50.975
51.816
52.608
53.35
54.038
54.671
55.246
55.762
56.218
56.613
56.947
57.22
57.434
57.59
57.691
57.739
57.737
57.688
57.598
57.469
57.308
57.119
56.908
56.681
56.444
56.203
55.965
55.736
55.523
55.331
55.166
55.033
54.937
54.884
54.878
54.922
55.021
55.177
55.392
55.67
56.009
56.412
56.877
57.402
57.985
58.62
59.301
60.023
60.776
61.552
62.342
63.136
63.923
64.694
65.44
66.15
66.813
67.418
67.952
68.402
68.756
69.002
69.129
69.125
68.981
68.693
68.256
67.667
66.916
65.989
64.873
63.561
62.046
60.326
58.407
56.298
54.022
51.617
49.121
46.574
44.01
41.456
38.938
36.489
34.151
31.975
30.007
28.285
26.836
25.687
24.843
24.277
23.924
23.676
23.425
23.084
22.576
21.816
20.702
19.134
17.02
14.3
10.898
6.678
1.559
-4.432
-11.068
-17.938
-24.595
-30.605
-35.469
-38.586
-39.466
-37.92
-34.344
-29.577
-24.342
-19.515
-16.116
-14.926
-16.754
-20.829
-23.971
-24.208
-20.528
-12.816
-3.467
10.782
38.346
85.412
157.109
250.228
352.549
455.855
556.739
653.713
747.099
829.907
883.837
891.881
844.801
741.21
595.355
429.581
263.012
117.397
8.625
-60.897
-93.296
-100.123
-98.085
-94.265
-90.78
-85.977
-74.477
-56.831
-37.408
-19.935
-8.307
-4.018
-6.514
-14.728
-26.847
-40.635
-53.773
-64.859
-73.461
-79.348
-82.423
-82.889
-81.145
-78.131
-75.261
-73.36
-72.699
-73.434
-75.557
-79.026
-83.811
-89.598
-95.819
-102.089
-108.183
-113.935
-119.284
-124.148
-128.424
-132.091
-135.199
-137.782
-139.875
-141.505
-142.678
-143.421
-143.783
-143.81
-143.56
-143.093
-142.468
-141.747
-140.991
-140.244
-139.538
-138.893
-138.324
-137.834
-137.42
-137.073
-136.779
-136.526
-136.305
-136.102
-135.906
-135.7
-135.468
-135.194
-134.862
-134.458
-133.97
-133.383
-132.688
-131.874
-130.934
-129.861
-128.648
-127.29
-125.779
-124.109
-122.273
-120.269
-118.093
-115.742
-113.216
-110.517
-107.647
-104.612
-101.419
-98.077
-94.595
-90.983
-87.255
-83.422
-79.5
-75.504
-71.45
-67.357
-63.242
-59.126
-55.028
-50.971
-46.975
-43.063
-39.257
-35.58
-32.053
-28.699
-25.539
-22.594
-19.885
-17.432
-15.251
-13.361
-11.777
-10.513
-9.581
-8.992
-8.753
-8.872
-9.352
-10.197
-11.407
-12.982
-14.919
-17.214
-19.86
-22.852
-26.178
-29.828
-33.79
-38.049
-42.59
-47.394
-52.445
-57.721
-63.201
-68.865
-74.688
-80.648
-86.719
-92.877
-99.096
-105.353
-111.621
-117.876
-124.093
-130.248
-136.32
-142.286
-148.124
-153.816
-159.341
-164.683
-169.826
-174.753
-179.451
-183.908
-188.111
-192.052
-195.722
-199.115
-202.225
-205.048
-207.583
-209.83
-211.789
-213.463
-214.857
-215.974
-216.823
-217.412
-217.75
-217.847
-217.714
-217.364
-216.809
-216.063
-215.139
-214.052
-212.816
-211.443
-209.95
-208.35
-206.656
-204.882
-203.041
-201.147
-199.211
-197.245
-195.261
-193.269
-191.28
-189.301
-187.342
-185.409
-183.51
-181.65
-179.834
-178.066
-176.348
-174.683
-173.073
-171.517
-170.015
-168.566
-167.169
-165.821
-164.519
-163.259
-162.037
-160.849
-159.691
-158.557
-157.442
-156.342
-155.25
-154.162
-153.071
-151.973
-150.862
-149.733
-148.581
-147.403
-146.194
-144.95
-143.667
-142.344
-140.977
-139.564
-138.105
-136.597
-135.04
-133.433
-131.778
-130.074
-128.322
-126.524
-124.682
-122.798
-120.876
-118.917
-116.925
-114.904
-112.858
-110.791
-108.709
-106.614
-104.514
-102.412
-100.314
-98.226
-96.153
-94.101
-92.074
-90.078
-88.117
-86.196
-84.32
-82.492
-80.717
-78.997
-77.336
-75.737
-74.203
-72.735
-71.336
-70.007
-68.749
-67.562
-66.446
-65.402
-64.428
-63.523
-62.685
-61.913
-61.203
-60.554
-59.96
-59.418
-58.923
-58.47
-58.052
-57.664
-57.298
-56.948
-56.607
-56.268
-55.924
-55.567
-55.191
-54.787
-54.349
-53.868
-53.339
-52.753
-52.104
-51.385
-50.59
-49.715
-48.754
-47.703
-46.558
-45.317
-43.977
-42.537
-40.995
-39.352
-37.608
-35.767
-33.831
-31.803
-29.691
-27.501
-25.243
-22.927
-20.566
-18.17
-15.755
-13.334
-10.923
-8.535
-6.185
-3.886
-1.653
0.499
2.554
4.494
6.304
7.969
9.475
10.808
11.957
12.911
13.665
14.217
14.562
14.693
14.593
14.25
13.657
12.808
11.704
10.351
8.76
6.951
4.961
2.827
0.589
-1.716
-4.062
-6.42
-8.754
-11.018
-13.147
-15.081
-16.769
-18.172
-19.255
-20.008
-20.433
-20.568
-20.494
-20.284
-20.02
-19.786
-19.652
-19.711
-20.067
-20.805
-22.038
-23.927
-26.567
-29.975
-34.049
-38.465
-42.823
-46.772
-49.889
-51.654
-51.641
-49.621
-45.824
-41.054
-36.369
-32.6
-30.255
-30.027
-32.653
-38.169
-45.733
-52.575
-54.133
-47.674
-31.957
-6.988
25.093
65.775
118.14
184.646
269.276
371.052
485.915
607.648
723.351
818.538
878.715
893.01
860.329
787.833
687.046
568.238
439.81
308.753
184.17
80.116
6.02
-35.567
-50.887
-54.788
-57.009
-60.68
-64.088
-61.219
-50.872
-36.444
-21.364
-9.174
-1.375
2.773
3.756
1.641
-2.949
-8.934
-15.508
-21.892
-27.262
-31.507
-34.52
-35.749
-35.193
-33.269
-30.255
-26.756
-23.547
-20.88
-18.943
-18.059
-18.212
-19.293
-21.234
-23.673
-26.158
-28.443
-30.311
-31.611
-32.351
-32.512
-32.07
-31.092
-29.655
-27.823
-25.672
-23.238
-20.537
-17.608
-14.495
-11.258
-7.971
-4.696
-1.49
1.603
4.561
7.363
10
12.474
14.791
16.966
19.02
20.967
22.819
24.592
26.299
27.963
29.61
31.264
32.948
34.682
36.484
38.374
40.368
42.48
44.725
47.113
49.653
52.355
55.232
58.291
61.542
64.988
68.635
72.483
76.533
80.782
85.226
89.856
94.664
99.638
104.765
110.029
115.413
120.898
126.464
132.09
137.752
143.427
149.088
154.711
160.269
165.735
171.082
176.284
181.314
186.146
190.755
195.116
199.206
203.003
206.486
209.636
212.436
214.871
216.927
218.593
219.861
220.723
221.174
221.214
220.841
220.059
218.873
217.288
215.314
212.961
210.243
207.173
203.768
200.045
196.024
191.724
187.168
182.378
177.377
172.189
166.839
161.351
155.752
150.066
144.317
138.53
132.729
126.937
121.177
115.469
109.834
104.291
98.859
93.553
88.39
83.383
78.546
73.89
69.424
65.159
61.1
57.255
53.628
50.221
47.038
44.079
41.343
38.829
36.533
34.453
32.582
30.916
29.446
28.166
27.068
26.142
25.38
24.772
24.309
23.981
23.778
23.691
23.711
23.829
24.034
24.319
24.675
25.093
25.565
26.083
26.64
27.228
27.839
28.468
29.107
29.751
30.394
31.031
31.657
32.267
32.858
33.426
33.969
34.485
34.971
35.426
35.85
36.241
36.6
36.927
37.222
37.486
37.72
37.923
38.098
38.245
38.365
38.461
38.533
38.584
38.616
38.631
38.631
38.62
38.6
38.574
38.547
38.521
38.5
38.489
38.49
38.508
38.546
38.607
38.695
38.813
38.963
39.148
39.371
39.631
39.932
40.275
40.66
41.087
41.558
42.071
42.626
43.224
43.862
44.54
45.255
46.007
46.792
47.607
48.45
49.317
50.204
51.105
52.016
52.932
53.847
54.755
55.65
56.526
57.377
58.198
58.982
59.724
60.419
61.06
61.645
62.168
62.625
63.014
63.333
63.579
63.751
63.849
63.872
63.821
63.696
63.5
63.234
62.9
62.503
62.044
61.53
60.966
60.357
59.711
59.035
58.338
57.628
56.915
56.206
55.513
54.843
54.208
53.617
53.079
52.604
52.201
51.88
51.649
51.515
51.485
51.564
51.758
52.07
52.503
53.059
53.739
54.543
55.47
56.52
57.689
58.973
60.367
61.865
63.459
65.139
66.891
68.702
70.558
72.44
74.333
76.219
78.078
79.892
81.644
83.318
84.895
86.357
87.685
88.859
89.862
90.673
91.278
91.659
91.802
91.695
91.333
90.711
89.824
88.664
87.214
85.461
83.399
81.023
78.332
75.334
72.045
68.493
64.728
60.8
56.759
52.656
48.525
44.409
40.354
36.415
32.657
29.136
25.898
22.979
20.418
18.222
16.363
14.77
13.32
11.892
10.393
8.72
6.761
4.405
1.54
-1.927
-6.032
-10.86
-16.574
-23.218
-30.725
-38.897
-47.307
-55.525
-63.221
-69.863
-74.705
-77.318
-77.62
-75.794
-72.561
-68.701
-64.694
-61.445
-60.477
-61.293
-61.297
-58.468
-49.829
-36.703
-26.029
-18.91
-12.75
1.123
40.055
111.882
216.407
347.254
486.434
619.879
734.393
815.855
858.318
855.031
806.186
718.657
597.245
455.169
305.156
160.972
42.96
-40.308
-87.532
-105.386
-112.522
-119.763
-130.812
-145.149
-154.962
-157.368
-154.833
-150.204
-147.838
-149.788
-154.995
-162.11
-169.962
-177.676
-184.839
-191.333
-196.761
-200.519
-202.66
-203.612
-203.708
-203.392
-202.872
-201.94
-200.777
-199.93
-199.631
-199.948
-200.843
-202.085
-203.621
-205.637
-208.121
-210.814
-213.492
-215.919
-217.922
-219.485
-220.581
-221.137
-221.146
-220.672
-219.788
-218.628
-217.348
-216.026
-214.707
-213.404
-212.075
-210.717
-209.363
-208.04
-206.786
-205.633
-204.582
-203.637
-202.813
-202.094
-201.45
-200.818
-200.097
-199.217
-198.156
-196.92
-195.554
-194.081
-192.5
-190.813
-189.024
-187.131
-185.135
-183.021
-180.753
-178.313
-175.697
-172.914
-169.996
-166.955
-163.784
-160.467
-156.974
-153.284
-149.385
-145.264
-140.903
-136.296
-131.439
-126.344
-121.037
-115.538
-109.862
-104.023
-98.032
-91.908
-85.673
-79.353
-72.973
-66.564
-60.152
-53.77
-47.452
-41.231
-35.138
-29.201
-23.444
-17.895
-12.579
-7.523
-2.751
1.715
5.852
9.64
13.057
16.087
18.714
20.926
22.714
24.068
24.984
25.46
25.494
25.09
24.253
22.988
21.305
19.215
16.731
13.868
10.644
7.077
3.188
-1.002
-5.468
-10.186
-15.131
-20.275
-25.592
-31.055
-36.635
-42.305
-48.037
-53.806
-59.583
-65.342
-71.058
-76.707
-82.264
-87.708
-93.017
-98.172
-103.154
-107.947
-112.536
-116.907
-121.049
-124.951
-128.604
-132.003
-135.14
-138.013
-140.619
-142.958
-145.03
-146.837
-148.383
-149.673
-150.713
-151.511
-152.074
-152.412
-152.535
-152.454
-152.181
-151.727
-151.105
-150.327
-149.405
-148.353
-147.183
-145.909
-144.543
-143.097
-141.585
-140.017
-138.405
-136.76
-135.093
-133.412
-131.727
-130.046
-128.376
-126.724
-125.096
-123.499
-121.937
-120.413
-118.933
-117.497
-116.11
-114.771
-113.482
-112.243
-111.053
-109.911
-108.817
-107.768
-106.763
-105.798
-104.871
-103.978
-103.115
-102.278
-101.463
-100.664
-99.876
-99.096
-98.317
-97.535
-96.745
-95.943
-95.125
-94.288
-93.426
-92.538
-91.62
-90.668
-89.681
-88.656
-87.592
-86.486
-85.338
-84.146
-82.91
-81.629
-80.305
-78.936
-77.523
-76.068
-74.571
-73.035
-71.461
-69.852
-68.211
-66.543
-64.851
-63.141
-61.417
-59.685
-57.949
-56.214
-54.487
-52.773
-51.076
-49.401
-47.753
-46.138
-44.559
-43.021
-41.528
-40.085
-38.695
-37.361
-36.087
-34.875
-33.729
-32.651
-31.644
-30.71
-29.851
-29.068
-28.363
-27.736
-27.187
-26.714
-26.317
-25.993
-25.738
-25.55
-25.425
-25.357
-25.343
-25.375
-25.451
-25.562
-25.705
-25.871
-26.056
-26.252
-26.452
-26.651
-26.84
-27.012
-27.161
-27.28
-27.36
-27.395
-27.378
-27.301
-27.156
-26.937
-26.636
-26.246
-25.762
-25.176
-24.485
-23.684
-22.769
-21.737
-20.588
-19.321
-17.935
-16.431
-14.812
-13.079
-11.235
-9.286
-7.236
-5.091
-2.858
-0.543
1.842
4.287
6.778
9.302
11.845
14.39
16.922
19.423
21.878
24.272
26.59
28.816
30.934
32.928
34.78
36.472
37.989
39.314
40.435
41.343
42.03
42.494
42.734
42.741
42.509
42.031
41.287
40.254
38.914
37.253
35.282
33.042
30.564
27.865
25.014
22.122
19.284
16.587
14.074
11.715
9.547
7.729
6.244
4.842
3.5
2.336
1.309
0.725
-0.08
-3.083
-7.969
-13.13
-15.84
-10.87
1.3
15.196
25.367
24.08
10.712
-7.658
-25.459
-36.505
-39.376
-39.005
-38.271
-38.886
-40.925
-41.78
-40.325
-37.027
-32.689
-28.508
-25.293
-23.439
-23.392
-25.478
-29.579
-34.298
-37.276
-36.245
-27.592
-7.855
24.427
71.926
133.258
202.904
280.193
362.653
451.273
554.756
671.81
795.727
914.448
1001.447
1035.337
1005.924
910.233
765.396
598.671
433.486
294.058
193.184
128.227
93.026
74.371
58.512
41.986
24.986
11.162
6.073
8.877
15.526
21.985
24.371
21.89
15.857
7.511
-1.836
-10.87
-18.472
-23.623
-25.777
-25.096
-22.161
-17.675
-12.322
-6.776
-1.674
2.431
5.218
6.651
6.848
6
4.302
1.918
-0.981
-4.2
-7.594
-11.051
-14.443
-17.653
-20.553
-22.998
-24.898
-26.204
-26.884
-26.938
-26.392
-25.28
-23.659
-21.601
-19.167
-16.42
-13.419
-10.219
-6.885
-3.486
-0.085
3.252
6.48
9.575
12.518
15.304
17.937
20.429
22.799
25.071
27.266
29.402
31.496
33.564
35.625
37.699
39.807
41.97
44.206
46.533
48.966
51.519
54.203
57.03
60.008
63.143
66.443
69.916
73.567
77.404
81.431
85.65
90.062
94.665
99.457
104.43
109.577
114.887
120.347
125.942
131.657
137.474
143.372
149.33
155.327
161.337
167.336
173.298
179.197
185.005
190.696
196.241
201.614
206.787
211.734
216.43
220.849
224.968
228.763
232.214
235.3
238.005
240.311
242.204
243.673
244.707
245.299
245.444
245.139
244.384
243.182
241.537
239.457
236.95
234.03
230.709
227.004
222.932
218.514
213.771
208.725
203.401
197.825
192.024
186.023
179.853
173.541
167.116
160.607
154.043
147.452
140.863
134.303
127.798
121.374
115.056
108.866
102.828
96.961
91.283
85.813
80.565
75.554
70.789
66.281
62.038
58.065
54.366
50.943
47.795
44.92
42.315
39.975
37.891
36.055
34.457
33.086
31.927
30.968
30.193
29.587
29.133
28.815
28.615
28.517
28.503
28.555
28.657
28.791
28.941
29.091
29.225
29.329
29.388
29.391
29.323
29.175
28.936
28.597
28.149
27.585
26.9
26.087
25.145
24.07
22.86
21.515
20.037
18.426
16.685
14.818
12.83
10.724
8.507
6.185
3.764
1.251
-1.346
-4.02
-6.763
-9.567
-12.424
-15.326
-18.266
-21.235
-24.225
-27.23
-30.241
-33.252
-36.256
-39.245
-42.213
-45.154
-48.062
-50.931
-53.757
-56.534
-59.259
-61.927
-64.535
-67.081
-69.561
-71.974
-74.318
-76.59
-78.79
-80.917
-82.97
-84.948
-86.851
-88.68
-90.434
-92.114
-93.72
-95.253
-96.714
-98.104
-99.424
-100.675
-101.859
-102.978
-104.033
-105.028
-105.964
-106.844
-107.67
-108.447
-109.177
-109.862
-110.507
-111.114
-111.686
-112.228
-112.743
-113.234
-113.705
-114.159
-114.601
-115.034
-115.462
-115.888
-116.315
-116.747
-117.188
-117.639
-118.103
-118.584
-119.084
-119.604
-120.146
-120.712
-121.302
-121.917
-122.556
-123.22
-123.907
-124.615
-125.343
-126.087
-126.844
-127.612
-128.384
-129.158
-129.927
-130.687
-131.432
-132.155
-132.851
-133.511
-134.13
-134.7
-135.213
-135.663
-136.041
-136.342
-136.558
-136.683
-136.71
-136.635
-136.452
-136.157
-135.746
-135.217
-134.565
-133.79
-132.892
-131.871
-130.73
-129.47
-128.096
-126.615
-125.037
-123.371
-121.628
-119.822
-117.964
-116.069
-114.151
-112.228
-110.315
-108.426
-106.576
-104.783
-103.065
-101.442
-99.934
-98.554
-97.318
-96.237
-95.324
-94.593
-94.052
-93.708
-93.567
-93.633
-93.921
-94.449
-95.225
-96.255
-97.536
-99.055
-100.799
-102.748
-104.867
-107.125
-109.483
-111.899
-114.344
-116.778
-119.167
-121.484
-123.677
-125.706
-127.523
-129.055
-130.267
-131.16
-131.751
-132.121
-132.336
-132.362
-132.31
-132.417
-132.888
-134.007
-135.868
-138.26
-141.215
-145.039
-149.673
-154.794
-159.839
-163.759
-166.063
-167.034
-166.532
-164.074
-159.623
-153.457
-146.645
-141.283
-138.665
-138.876
-142.12
-148.655
-158.34
-170.598
-183.34
-192.909
-196.049
-190.239
-173.068
-142.369
-95.819
-32.403
45.351
133.207
226.631
323.002
424.312
531.572
640.042
738.595
809.303
835.949
812.554
743.569
640.716
516.182
379.792
239.301
105.591
-5.355
-83.337
-123.91
-132.642
-125.446
-110.838
-95.575
-84.417
-75.548
-74.122
-82.177
-94.97
-110.63
-123.755
-131.372
-137
-141.712
-145.878
-149.59
-150.606
-148.186
-143.222
-136.505
-129.082
-121.904
-115.498
-110.193
-106.249
-103.678
-102.274
-101.905
-102.46
-103.773
-105.711
-108.13
-110.864
-113.805
-116.847
-119.842
-122.632
-125.052
-126.976
-128.345
-129.132
-129.333
-128.964
-128.049
-126.631
-124.776
-122.54
-119.982
-117.158
-114.119
-110.927
-107.652
-104.363
-101.129
-97.999
-94.999
-92.142
-89.432
-86.862
-84.42
-82.086
-79.834
-77.639
-75.483
-73.348
-71.22
-69.081
-66.908
-64.681
-62.378
-59.98
-57.47
-54.834
-52.057
-49.129
-46.04
-42.783
-39.353
-35.746
-31.955
-27.974
-23.798
-19.425
-14.852
-10.08
-5.11
0.054
5.405
10.934
16.629
22.478
28.465
34.574
40.787
47.083
53.442
59.841
66.258
72.668
79.046
85.365
91.599
97.72
103.702
109.516
115.137
120.538
125.692
130.576
135.165
139.438
143.372
146.949
150.148
152.955
155.353
157.329
158.873
159.977
160.633
160.839
160.593
159.898
158.756
157.175
155.162
152.728
149.885
146.648
143.034
139.06
134.747
130.118
125.194
120.002
114.566
108.915
103.075
97.074
90.94
84.703
78.389
72.028
65.646
59.272
52.932
46.652
40.456
34.368
28.412
22.607
16.974
11.529
6.289
1.267
-3.524
-8.075
-12.376
-16.421
-20.206
-23.726
-26.982
-29.973
-32.703
-35.174
-37.394
-39.369
-41.108
-42.62
-43.918
-45.013
-45.917
-46.643
-47.206
-47.62
-47.897
-48.054
-48.105
-48.063
-47.944
-47.76
-47.527
-47.255
-46.957
-46.645
-46.329
-46.018
-45.721
-45.446
-45.199
-44.987
-44.815
-44.686
-44.603
-44.57
-44.588
-44.656
-44.775
-44.942
-45.157
-45.416
-45.715
-46.052
-46.423
-46.823
-47.248
-47.694
-48.157
-48.632
-49.115
-49.602
-50.088
-50.571
-51.047
-51.512
-51.963
-52.4
-52.818
-53.218
-53.599
-53.959
-54.298
-54.617
-54.915
-55.194
-55.453
-55.696
-55.922
-56.134
-56.334
-56.525
-56.709
-56.888
-57.066
-57.245
-57.428
-57.616
-57.811
-58.017
-58.233
-58.462
-58.704
-58.96
-59.231
-59.518
-59.82
-60.137
-60.47
-60.817
-61.177
-61.549
-61.931
-62.323
-62.723
-63.128
-63.539
-63.953
-64.369
-64.784
-65.198
-65.609
-66.015
-66.413
-66.804
-67.183
-67.552
-67.907
-68.248
-68.575
-68.886
-69.181
-69.459
-69.72
-69.964
-70.191
-70.399
-70.59
-70.761
-70.914
-71.048
-71.163
-71.257
-71.331
-71.382
-71.411
-71.415
-71.391
-71.339
-71.254
-71.134
-70.978
-70.78
-70.539
-70.251
-69.912
-69.519
-69.069
-68.557
-67.979
-67.332
-66.611
-65.813
-64.936
-63.976
-62.93
-61.797
-60.574
-59.263
-57.861
-56.37
-54.791
-53.125
-51.375
-49.546
-47.642
-45.669
-43.635
-41.55
-39.425
-37.272
-35.104
-32.935
-30.779
-28.653
-26.57
-24.545
-22.59
-20.719
-18.945
-17.284
-15.752
-14.363
-13.131
-12.068
-11.187
-10.501
-10.016
-9.734
-9.657
-9.784
-10.121
-10.679
-11.47
-12.496
-13.762
-15.267
-17.003
-18.958
-21.107
-23.407
-25.813
-28.279
-30.763
-33.233
-35.652
-37.977
-40.157
-42.133
-43.846
-45.246
-46.285
-46.926
-47.165
-47.014
-46.533
-45.809
-44.908
-43.924
-42.969
-42.101
-41.394
-40.932
-40.755
-40.974
-41.801
-43.33
-45.54
-48.473
-51.981
-55.578
-58.912
-61.563
-62.577
-62.387
-61.663
-59.325
-55.766
-49.415
-38.289
-26.636
-17.637
-15.755
-24.793
-37.782
-48.54
-51.398
-42.532
-28.974
-12.852
8.316
39.993
96.287
182.414
296.414
432.974
577.135
717.221
840.313
929.825
976.089
970.382
912.889
813.537
680.54
527.013
365.989
209.112
74.411
-24.226
-81.781
-98.935
-85.74
-57.053
-22.458
8.606
26.823
31.016
20.943
0.784
-18.169
-30.922
-36.232
-35.167
-33.814
-34.463
-35.825
-36.844
-35.527
-31.374
-25.646
-19.292
-13.029
-7.474
-2.985
0.264
2.185
2.861
2.536
1.39
-0.473
-2.898
-5.718
-8.789
-11.938
-15.007
-17.869
-20.367
-22.38
-23.835
-24.682
-24.911
-24.533
-23.573
-22.079
-20.114
-17.739
-15.012
-11.989
-8.724
-5.285
-1.746
1.819
5.335
8.749
12.027
15.145
18.092
20.868
23.48
25.947
28.294
30.54
32.703
34.798
36.838
38.842
40.832
42.826
44.846
46.91
49.034
51.234
53.523
55.912
58.411
61.027
63.767
66.637
69.645
72.797
76.101
79.562
83.184
86.968
90.917
95.028
99.299
103.724
108.294
113
117.831
122.773
127.811
132.927
138.102
143.317
148.55
153.778
158.976
164.122
169.189
174.153
178.989
183.67
188.171
192.469
196.537
200.353
203.894
207.138
210.063
212.652
214.886
216.748
218.225
219.302
219.97
220.22
220.043
219.436
218.397
216.925
215.023
212.696
209.951
206.798
203.248
199.316
195.017
190.37
185.393
180.107
174.534
168.698
162.622
156.331
149.851
143.208
136.429
129.539
122.565
115.534
108.47
101.401
94.349
87.34
80.396
73.539
66.791
60.173
53.704
47.401
41.281
35.359
29.648
24.159
18.902
13.885
9.113
4.59
0.32
-3.697
-7.461
-10.974
-14.239
-17.26
-20.044
-22.596
-24.925
-27.039
-28.947
-30.658
-32.183
-33.532
-34.716
-35.745
-36.63
-37.382
-38.012
-38.531
-38.95
-39.279
-39.53
-39.713
-39.837
-39.913
-39.949
-39.953
-39.933
-39.895
-39.846
-39.791
-39.735
-39.681
-39.634
-39.597
-39.571
-39.559
-39.561
-39.579
-39.612
-39.662
-39.728
-39.81
-39.907
-40.02
-40.147
-40.289
-40.445
-40.614
-40.797
-40.991
-41.197
-41.413
-41.638
-41.871
-42.112
-42.359
-42.611
-42.868
-43.13
-43.395
-43.663
-43.934
-44.207
-44.484
-44.762
-45.043
-45.327
-45.614
-45.903
-46.196
-46.491
-46.79
-47.091
-47.395
-47.7
-48.006
-48.312
-48.617
-48.919
-49.219
-49.514
-49.803
-50.086
-50.362
-50.629
-50.886
-51.134
-51.372
-51.598
-51.813
-52.017
-52.209
-52.39
-52.559
-52.717
-52.864
-53.001
-53.127
-53.244
-53.353
-53.454
-53.549
-53.639
-53.725
-53.811
-53.897
-53.986
-54.08
-54.182
-54.293
-54.417
-54.555
-54.71
-54.884
-55.078
-55.294
-55.534
-55.797
-56.084
-56.396
-56.731
-57.089
-57.468
-57.868
-58.286
-58.721
-59.168
-59.626
-60.091
-60.559
-61.026
-61.487
-61.938
-62.373
-62.787
-63.173
-63.526
-63.84
-64.108
-64.323
-64.48
-64.572
-64.593
-64.536
-64.396
-64.168
-63.847
-63.431
-62.915
-62.297
-61.576
-60.75
-59.82
-58.788
-57.654
-56.421
-55.095
-53.678
-52.177
-50.6
-48.955
-47.253
-45.505
-43.721
-41.916
-40.104
-38.303
-36.53
-34.801
-33.129
-31.529
-30.018
-28.611
-27.325
-26.172
-25.162
-24.305
-23.615
-23.104
-22.788
-22.673
-22.754
-23.027
-23.487
-24.139
-24.994
-26.058
-27.327
-28.798
-30.465
-32.328
-34.387
-36.629
-39.015
-41.497
-44.019
-46.544
-49.059
-51.558
-54.029
-56.427
-58.667
-60.669
-62.377
-63.764
-64.83
-65.543
-65.827
-65.694
-65.294
-64.93
-64.936
-65.47
-66.461
-67.783
-69.436
-71.466
-73.806
-75.969
-77.287
-77.366
-76.204
-74.229
-71.789
-68.895
-65.536
-62.295
-60.033
-59.342
-60.723
-63.857
-67.903
-73.665
-81.904
-91.105
-100.755
-106.819
-103.033
-90.488
-69.584
-44.061
-23.664
-7.328
9.078
30.917
72.325
140.51
235.64
358.321
499.198
641.979
771.439
866.605
909.155
895.336
828.132
718.845
586.586
444.472
303.139
175.116
68.547
-10.622
-59.79
-86.163
-100.824
-110.924
-119.999
-125.626
-122.193
-108.958
-88.538
-65.086
-43.64
-26.469
-14.244
-7.643
-6.383
-9.948
-17.636
-27.968
-39.688
-51.825
-63.048
-72.252
-78.86
-82.554
-83.515
-82.421
-79.857
-76.489
-73.282
-70.897
-69.674
-69.823
-71.226
-73.605
-76.731
-80.218
-83.554
-86.435
-88.693
-90.247
-91.164
-91.487
-91.218
-90.431
-89.221
-87.649
-85.772
-83.617
-81.185
-78.516
-75.675
-72.734
-69.777
-66.854
-63.996
-61.227
-58.562
-56.013
-53.586
-51.272
-49.056
-46.927
-44.878
-42.904
-41
-39.15
-37.335
-35.533
-33.721
-31.878
-29.989
-28.037
-26.008
-23.887
-21.663
-19.327
-16.871
-14.285
-11.557
-8.678
-5.635
-2.42
0.972
4.55
8.317
12.274
16.423
20.761
25.282
29.98
34.848
39.875
45.049
50.354
55.776
61.297
66.898
72.557
78.252
83.959
89.655
95.314
100.91
106.417
111.809
117.059
122.143
127.033
131.705
136.135
140.298
144.172
147.733
150.963
153.84
156.347
158.468
160.188
161.495
162.381
162.836
162.857
162.441
161.586
160.296
158.575
156.43
153.87
150.906
147.553
143.826
139.744
135.325
130.592
125.567
120.273
114.736
108.981
103.035
96.923
90.674
84.315
77.874
71.38
64.859
58.34
51.849
45.414
39.06
32.811
26.692
20.724
14.93
9.327
3.936
-1.23
-6.154
-10.825
-15.232
-19.368
-23.225
-26.799
-30.09
-33.095
-35.818
-38.26
-40.428
-42.326
-43.964
-45.348
-46.489
-47.397
-48.085
-48.563
-48.844
-48.943
-48.873
-48.648
-48.282
-47.79
-47.186
-46.485
-45.701
-44.847
-43.939
-42.989
-42.009
-41.011
-40.007
-39.006
-38.018
-37.051
-36.111
-35.204
-34.334
-33.505
-32.72
-31.98
-31.285
-30.635
-30.03
-29.469
-28.949
-28.469
-28.026
-27.617
-27.241
-26.894
-26.573
-26.276
-25.999
-25.739
-25.494
-25.261
-25.036
-24.817
-24.602
-24.386
-24.169
-23.946
-23.718
-23.48
-23.233
-22.974
-22.705
-22.423
-22.13
-21.826
-21.514
-21.194
-20.869
-20.54
-20.211
-19.884
-19.559
-19.241
-18.929
-18.626
-18.333
-18.049
-17.777
-17.516
-17.266
-17.026
-16.796
-16.576
-16.363
-16.158
-15.959
-15.765
-15.575
-15.389
-15.207
-15.028
-14.853
-14.682
-14.515
-14.353
-14.195
-14.042
-13.893
-13.747
-13.604
-13.463
-13.325
-13.19
-13.059
-12.934
-12.815
-12.704
-12.606
-12.521
-12.454
-12.407
-12.384
-12.39
-12.429
-12.505
-12.625
-12.792
-13.012
-13.289
-13.625
-14.024
-14.487
-15.015
-15.608
-16.263
-16.98
-17.755
-18.587
-19.474
-20.413
-21.404
-22.445
-23.533
-24.668
-25.846
-27.06
-28.304
-29.568
-30.842
-32.114
-33.375
-34.612
-35.815
-36.974
-38.08
-39.126
-40.102
-40.997
-41.796
-42.481
-43.037
-43.455
-43.732
-43.869
-43.879
-43.777
-43.584
-43.323
-43.011
-42.655
-42.255
-41.793
-41.255
-40.622
-39.891
-39.072
-38.176
-37.208
-36.17
-35.059
-33.857
-32.535
-31.054
-29.365
-27.439
-25.268
-22.877
-20.324
-17.684
-15.047
-12.484
-10.05
-7.79
-5.749
-3.97
-2.491
-1.366
-0.662
-0.464
-0.887
-2.016
-3.904
-6.558
-9.942
-13.978
-18.56
-23.584
-28.943
-34.537
-40.28
-46.09
-51.903
-57.644
-63.227
-68.539
-73.427
-77.761
-81.445
-84.425
-86.686
-88.264
-89.239
-89.724
-89.871
-89.82
-89.701
-89.634
-89.729
-90.111
-90.893
-92.173
-94.086
-96.782
-100.354
-104.825
-110.044
-115.638
-121.222
-126.447
-130.889
-134.088
-135.579
-135.018
-132.596
-129.053
-125.107
-121.218
-117.802
-115.301
-114.334
-115.63
-117.396
-115.509
-106.941
-88.932
-63.482
-37.575
-11.973
15.437
51.108
109.816
196.822
310.583
447.152
590.063
723.237
832.828
900.991
917.422
880.823
794.784
670.903
525.33
371.336
222.947
96.063
1.232
-56.396
-79.434
-81.486
-76.902
-73.777
-75.172
-77.567
-76.334
-72.187
-67.453
-64.736
-66.686
-72.87
-81.369
-90.758
-99.096
-104.729
-107.195
-106.399
-102.66
-96.846
-89.792
-82.207
-74.912
-68.654
-63.807
-60.531
-58.799
-58.396
-59.146
-60.886
-63.406
-66.487
-69.945
-73.629
-77.395
-81.114
-84.628
-87.762
-90.397
-92.458
-93.909
-94.743
-94.971
-94.614
-93.716
-92.343
-90.558
-88.424
-86.003
-83.352
-80.54
-77.644
-74.74
-71.902
-69.181
-66.609
-64.204
-61.972
-59.908
-58.003
-56.236
-54.58
-53.014
-51.517
-50.073
-48.665
-47.271
-45.869
-44.435
-42.944
-41.376
-39.712
-37.935
-36.029
-33.983
-31.785
-29.426
-26.899
-24.197
-21.311
-18.232
-14.953
-11.469
-7.775
-3.87
0.248
4.575
9.108
13.839
18.758
23.855
29.116
34.526
40.069
45.726
51.476
57.298
63.169
69.062
74.953
80.813
86.615
92.332
97.934
103.393
108.683
113.774
118.64
123.256
127.597
131.637
135.356
138.73
141.742
144.372
146.605
148.426
149.824
150.79
151.315
151.396
151.028
150.214
148.953
147.251
145.115
142.552
139.576
136.199
132.437
128.308
123.831
119.029
113.924
108.539
102.901
97.035
90.969
84.728
78.341
71.836
65.24
58.58
51.885
45.18
38.492
31.845
25.265
18.774
12.394
6.146
0.049
-5.879
-11.621
-17.162
-22.488
-27.588
-32.45
-37.066
-41.43
-45.537
-49.383
-52.967
-56.29
-59.354
-62.161
-64.718
-67.029
-69.103
-70.947
-72.571
-73.986
-75.201
-76.229
-77.082
-77.771
-78.31
-78.711
-78.986
-79.148
-79.209
-79.181
-79.075
-78.904
-78.677
-78.406
-78.102
-77.773
-77.429
-77.078
-76.73
-76.39
-76.066
-75.762
-75.483
-75.234
-75.018
-74.836
-74.69
-74.582
-74.512
-74.48
-74.485
-74.525
-74.599
-74.705
-74.839
-74.999
-75.181
-75.384
-75.603
-75.837
-76.081
-76.333
-76.59
-76.85
-77.11
-77.367
-77.617
-77.86
-78.091
-78.309
-78.511
-78.695
-78.861
-79.005
-79.128
-79.228
-79.304
-79.357
-79.386
-79.39
-79.371
-79.33
-79.266
-79.182
-79.079
-78.959
-78.825
-78.678
-78.521
-78.357
-78.186
-78.012
-77.836
-77.661
-77.488
-77.32
-77.158
-77.006
-76.865
-76.739
-76.629
-76.537
-76.467
-76.421
-76.4
-76.407
-76.445
-76.514
-76.619
-76.761
-76.941
-77.163
-77.429
-77.739
-78.095
-78.499
-78.95
-79.449
-79.997
-80.592
-81.236
-81.927
-82.667
-83.454
-84.288
-85.168
-86.094
-87.065
-88.077
-89.13
-90.221
-91.348
-92.507
-93.695
-94.91
-96.147
-97.403
-98.673
-99.953
-101.237
-102.52
-103.795
-105.055
-106.293
-107.504
-108.678
-109.81
-110.893
-111.919
-112.883
-113.778
-114.596
-115.331
-115.977
-116.525
-116.969
-117.302
-117.519
-117.614
-117.582
-117.417
-117.117
-116.677
-116.094
-115.368
-114.495
-113.474
-112.305
-110.99
-109.529
-107.927
-106.187
-104.316
-102.321
-100.211
-97.998
-95.694
-93.31
-90.862
-88.363
-85.828
-83.274
-80.713
-78.162
-75.635
-73.149
-70.719
-68.362
-66.097
-63.941
-61.909
-60.018
-58.282
-56.714
-55.32
-54.108
-53.085
-52.257
-51.641
-51.249
-51.091
-51.178
-51.515
-52.104
-52.937
-53.996
-55.25
-56.665
-58.206
-59.84
-61.544
-63.288
-65.045
-66.778
-68.438
-69.978
-71.354
-72.519
-73.432
-74.069
-74.432
-74.56
-74.536
-74.441
-74.337
-74.29
-74.366
-74.654
-75.254
-76.251
-77.701
-79.69
-82.383
-85.91
-90.296
-95.365
-100.693
-105.806
-110.282
-113.625
-115.22
-114.578
-111.529
-106.526
-100.668
-95.079
-90.823
-89.059
-90.901
-97.205
-107.048
-117.292
-124.441
-125.634
-121.199
-113.336
-100.594
-77.88
-36.221
33.103
130.853
251.434
384.854
520.243
649.869
765.028
855.271
908.339
912.013
861.808
760.728
619.779
456.901
290.378
138.691
16.674
-67.894
-113.926
-126.711
-115.129
-89.924
-60.723
-37.128
-26.56
-30.299
-45.605
-64.423
-78.714
-85.909
-87.233
-87.432
-90.08
-95.007
-100.247
-103.178
-102.719
-99.474
-94.433
-88.63
-82.735
-77.192
-72.537
-69.1
-66.935
-65.962
-65.996
-66.896
-68.565
-70.857
-73.582
-76.56
-79.657
-82.749
-85.721
-88.434
-90.731
-92.504
-93.691
-94.266
-94.23
-93.598
-92.394
-90.663
-88.468
-85.868
-82.925
-79.7
-76.247
-72.635
-68.934
-65.214
-61.543
-57.973
-54.532
-51.238
-48.1
-45.116
-42.278
-39.573
-36.977
-34.472
-32.045
-29.679
-27.362
-25.077
-22.804
-20.523
-18.214
-15.858
-13.439
-10.94
-8.348
-5.65
-2.833
0.113
3.195
6.425
9.812
13.366
17.098
21.016
25.127
29.434
33.943
38.655
43.568
48.678
53.98
59.466
65.126
70.948
76.919
83.024
89.245
95.564
101.959
108.409
114.891
121.38
127.851
134.276
140.631
146.886
153.016
158.992
164.787
170.375
175.729
180.823
185.633
190.136
194.308
198.129
201.579
204.641
207.3
209.541
211.354
212.731
213.664
214.151
214.189
213.779
212.924
211.632
209.908
207.764
205.213
202.268
198.946
195.265
191.247
186.911
182.28
177.38
172.233
166.867
161.306
155.579
149.711
143.73
137.663
131.536
125.377
119.212
113.064
106.96
100.922
94.972
89.132
83.421
77.857
72.457
67.235
62.205
57.378
52.763
48.368
44.199
40.259
36.552
33.078
29.835
26.822
24.036
21.47
19.119
16.977
15.035
13.284
11.716
10.319
9.085
8.002
7.059
6.245
5.548
4.958
4.463
4.052
3.714
3.439
3.216
3.037
2.891
2.772
2.671
2.581
2.498
2.416
2.33
2.238
2.137
2.025
1.902
1.766
1.619
1.46
1.29
1.112
0.925
0.733
0.537
0.34
0.142
-0.054
-0.245
-0.431
-0.608
-0.775
-0.929
-1.07
-1.194
-1.301
-1.387
-1.453
-1.497
-1.517
-1.513
-1.485
-1.434
-1.358
-1.259
-1.139
-0.998
-0.837
-0.66
-0.467
-0.262
-0.045
0.18
0.412
0.648
0.887
1.128
1.368
1.608
1.846
2.082
2.315
2.545
2.772
2.994
3.213
3.427
3.637
3.842
4.042
4.236
4.425
4.609
4.787
4.959
5.126
5.286
5.441
5.589
5.732
5.868
5.999
6.123
6.241
6.353
6.458
6.555
6.644
6.722
6.788
6.84
6.877
6.895
6.893
6.869
6.82
6.745
6.641
6.507
6.342
6.144
5.913
5.648
5.348
5.014
4.648
4.249
3.82
3.363
2.881
2.378
1.856
1.32
0.774
0.224
-0.327
-0.872
-1.405
-1.92
-2.409
-2.866
-3.283
-3.652
-3.964
-4.213
-4.39
-4.488
-4.499
-4.415
-4.232
-3.942
-3.539
-3.019
-2.377
-1.611
-0.717
0.304
1.454
2.729
4.128
5.645
7.274
9.007
10.835
12.745
14.726
16.763
18.841
20.943
23.053
25.155
27.23
29.26
31.228
33.114
34.898
36.561
38.081
39.439
40.615
41.591
42.352
42.885
43.179
43.222
43.004
42.507
41.718
40.63
39.232
37.521
35.499
33.174
30.57
27.724
24.674
21.46
18.122
14.69
11.204
7.704
4.234
0.852
-2.39
-5.446
-8.264
-10.806
-13.05
-14.99
-16.671
-18.178
-19.598
-21.024
-22.522
-24.141
-25.968
-28.103
-30.64
-33.683
-37.267
-41.443
-46.358
-52.074
-58.517
-65.442
-72.328
-78.617
-83.934
-87.851
-89.79
-89.395
-86.549
-81.657
-75.775
-69.827
-64.505
-60.522
-58.62
-59.528
-62.338
-63.968
-61.095
-50.369
-32.228
-11.47
11.013
36.538
71.232
128.247
212.71
324.118
457.416
596.751
728.891
841.423
920.025
956.391
943.839
881.166
774.135
633.034
474.335
314.662
172.255
62.575
-10.142
-47.869
-61.582
-66.724
-70.543
-75.53
-79.929
-78.644
-72.005
-63.601
-56.568
-54.204
-57.145
-63.791
-72.582
-81.814
-89.793
-95.274
-97.672
-96.964
-93.617
-88.45
-82.241
-75.698
-69.575
-64.546
-60.959
-58.91
-58.301
-58.894
-60.485
-62.907
-65.962
-69.441
-73.175
-77.024
-80.849
-84.531
-87.934
-90.911
-93.363
-95.234
-96.496
-97.157
-97.247
-96.803
-95.882
-94.554
-92.881
-90.927
-88.754
-86.418
-83.986
-81.527
-79.106
-76.787
-74.613
-72.609
-70.789
-69.154
-67.692
-66.389
-65.223
-64.164
-63.188
-62.275
-61.401
-60.55
-59.698
-58.822
-57.896
-56.898
-55.804
-54.594
-53.25
-51.753
-50.09
-48.245
-46.208
-43.968
-41.516
-38.839
-35.93
-32.78
-29.382
-25.732
-21.827
-17.667
-13.254
-8.594
-3.694
1.435
6.782
12.331
18.066
23.968
30.017
36.19
42.463
48.811
55.207
61.624
68.031
74.399
80.697
86.894
92.959
98.86
104.567
110.049
115.275
120.217
124.847
129.14
133.068
136.61
139.744
142.451
144.713
146.516
147.847
148.698
149.062
148.936
148.318
147.21
145.617
143.547
141.009
138.016
134.582
130.725
126.464
121.821
116.82
111.486
105.845
99.927
93.761
87.377
80.807
74.082
67.235
60.299
53.305
46.285
39.272
32.297
25.389
18.578
11.893
5.358
-1
-7.159
-13.097
-18.796
-24.237
-29.407
-34.291
-38.879
-43.162
-47.134
-50.79
-54.129
-57.151
-59.856
-62.25
-64.338
-66.127
-67.625
-68.843
-69.791
-70.482
-70.929
-71.145
-71.146
-70.946
-70.561
-70.006
-69.299
-68.454
-67.487
-66.414
-65.249
-64.007
-62.702
-61.347
-59.955
-58.536
-57.103
-55.664
-54.228
-52.804
-51.398
-50.015
-48.66
-47.337
-46.048
-44.795
-43.58
-42.403
-41.264
-40.163
-39.099
-38.071
-37.078
-36.118
-35.189
-34.289
-33.416
-32.568
-31.742
-30.938
-30.153
-29.385
-28.634
-27.898
-27.176
-26.467
-25.771
-25.085
-24.411
-23.748
-23.096
-22.457
-21.83
-21.217
-20.62
-20.041
-19.481
-18.943
-18.428
-17.939
-17.477
-17.045
-16.643
-16.275
-15.941
-15.643
-15.382
-15.16
-14.978
-14.836
-14.735
-14.674
-14.654
-14.674
-14.734
-14.833
-14.972
-15.15
-15.366
-15.621
-15.914
-16.244
-16.611
-17.015
-17.454
-17.928
-18.436
-18.977
-19.549
-20.153
-20.786
-21.448
-22.138
-22.854
-23.595
-24.358
-25.143
-25.945
-26.764
-27.596
-28.44
-29.293
-30.151
-31.013
-31.876
-32.736
-33.59
-34.434
-35.263
-36.073
-36.859
-37.614
-38.335
-39.014
-39.646
-40.226
-40.747
-41.203
-41.587
-41.895
-42.118
-42.252
-42.29
-42.226
-42.056
-41.776
-41.382
-40.872
-40.244
-39.497
-38.632
-37.649
-36.549
-35.335
-34.01
-32.578
-31.044
-29.414
-27.696
-25.898
-24.034
-22.116
-20.158
-18.175
-16.183
-14.197
-12.235
-10.311
-8.44
-6.636
-4.912
-3.284
-1.77
-0.385
0.856
1.937
2.848
3.575
4.107
4.438
4.57
4.501
4.231
3.753
3.051
2.111
0.931
-0.495
-2.161
-4.06
-6.18
-8.495
-10.957
-13.521
-16.14
-18.774
-21.398
-23.976
-26.465
-28.81
-30.943
-32.803
-34.345
-35.527
-36.323
-36.732
-36.772
-36.493
-35.975
-35.307
-34.595
-33.936
-33.415
-33.111
-33.078
-33.422
-34.341
-35.956
-38.273
-41.205
-44.472
-47.774
-50.891
-53.403
-54.668
-54.238
-51.968
-48.054
-43.196
-38.291
-34.116
-31.647
-32.311
-35.984
-40.66
-44.525
-44.935
-42.406
-41.642
-42.909
-42.826
-32.397
3.278
70.882
168.509
287.675
413.214
534.901
646.912
742.654
816.544
859.083
859.312
812.938
719.77
587.978
435.544
281.374
147.618
51.65
-3.755
-23.904
-23.661
-20.1
-19.826
-23.335
-26.541
-23.659
-15.096
-4.668
4.104
8.154
7.127
2.544
-4.179
-11.59
-18.283
-23.115
-25.485
-25.362
-23.128
-19.472
-15.055
-10.407
-6.119
-2.774
-0.669
0.109
-0.363
-1.856
-4.171
-7.163
-10.648
-14.444
-18.422
-22.458
-26.433
-30.256
-33.807
-36.995
-39.772
-42.109
-43.996
-45.443
-46.473
-47.127
-47.467
-47.55
-47.426
-47.145
-46.751
-46.299
-45.849
-45.463
-45.197
-45.093
-45.175
-45.458
-45.948
-46.644
-47.533
-48.594
-49.8
-51.126
-52.553
-54.061
-55.631
-57.238
-58.857
-60.462
-62.028
-63.531
-64.948
-66.256
-67.435
-68.467
-69.335
-70.025
-70.523
-70.817
-70.893
-70.739
-70.343
-69.695
-68.788
-67.616
-66.174
-64.462
-62.48
-60.232
-57.726
-54.971
-51.975
-48.755
-45.323
-41.698
-37.899
-33.947
-29.864
-25.674
-21.404
-17.08
-12.73
-8.381
-4.064
0.194
4.363
8.413
12.318
16.049
19.579
22.882
25.934
28.712
31.193
33.358
35.189
36.67
37.787
38.529
38.887
38.855
38.429
37.608
36.393
34.788
32.799
30.434
27.705
24.622
21.202
17.461
13.417
9.091
4.503
-0.322
-5.361
-10.59
-15.984
-21.516
-27.16
-32.891
-38.681
-44.506
-50.339
-56.156
-61.931
-67.642
-73.267
-78.783
-84.171
-89.413
-94.493
-99.394
-104.103
-108.608
-112.9
-116.969
-120.808
-124.413
-127.78
-130.908
-133.795
-136.444
-138.857
-141.038
-142.993
-144.728
-146.25
-147.567
-148.688
-149.623
-150.38
-150.972
-151.407
-151.697
-151.854
-151.887
-151.807
-151.626
-151.353
-150.998
-150.571
-150.08
-149.534
-148.94
-148.305
-147.636
-146.938
-146.216
-145.474
-144.717
-143.946
-143.163
-142.371
-141.569
-140.758
-139.938
-139.108
-138.267
-137.414
-136.549
-135.668
-134.773
-133.86
-132.93
-131.98
-131.009
-130.018
-129.004
-127.969
-126.911
-125.831
-124.728
-123.605
-122.46
-121.297
-120.114
-118.915
-117.701
-116.474
-115.235
-113.988
-112.734
-111.478
-110.221
-108.968
-107.722
-106.486
-105.265
-104.061
-102.878
-101.719
-100.588
-99.487
-98.419
-97.386
-96.389
-95.432
-94.514
-93.636
-92.8
-92.005
-91.252
-90.539
-89.866
-89.233
-88.638
-88.081
-87.56
-87.075
-86.624
-86.206
-85.821
-85.467
-85.143
-84.847
-84.578
-84.335
-84.115
-83.918
-83.741
-83.583
-83.441
-83.316
-83.203
-83.104
-83.015
-82.935
-82.863
-82.798
-82.739
-82.683
-82.632
-82.582
-82.534
-82.486
-82.438
-82.388
-82.335
-82.277
-82.213
-82.14
-82.055
-81.956
-81.839
-81.7
-81.535
-81.34
-81.112
-80.845
-80.535
-80.179
-79.771
-79.306
-78.781
-78.191
-77.532
-76.8
-75.99
-75.098
-74.123
-73.06
-71.908
-70.665
-69.328
-67.898
-66.372
-64.753
-63.039
-61.232
-59.334
-57.348
-55.277
-53.125
-50.899
-48.607
-46.258
-43.864
-41.437
-38.991
-36.54
-34.098
-31.682
-29.306
-26.982
-24.723
-22.541
-20.449
-18.463
-16.596
-14.863
-13.275
-11.844
-10.579
-9.491
-8.585
-7.86
-7.314
-6.949
-6.772
-6.799
-7.044
-7.519
-8.229
-9.178
-10.363
-11.776
-13.398
-15.19
-17.111
-19.116
-21.167
-23.237
-25.293
-27.296
-29.185
-30.89
-32.343
-33.485
-34.268
-34.659
-34.642
-34.225
-33.454
-32.403
-31.161
-29.836
-28.535
-27.369
-26.449
-25.864
-25.75
-26.313
-27.741
-30.119
-33.352
-37.159
-41.18
-45.087
-48.485
-50.794
-51.443
-50.153
-47.268
-43.639
-40.293
-38.317
-38.622
-42.194
-50.209
-61.947
-74.306
-84.204
-87.913
-84.886
-78.962
-69.564
-53.599
-23.783
33.018
121.411
239.915
381.845
530.884
674.745
800.962
895.835
953.331
965.915
932.016
857.95
748.649
615.546
471.272
327.17
199.286
99.267
31.715
-4.745
-20.92
-29.28
-36.681
-45.573
-52.774
-53.747
-48.536
-39.192
-28.781
-20.567
-14.939
-11.114
-8.966
-7.819
-7.306
-7.79
-9.068
-10.955
-13.757
-17.367
-21.259
-25.227
-28.965
-31.882
-33.824
-34.754
-34.518
-33.39
-31.917
-30.369
-28.993
-28.107
-27.743
-27.861
-28.436
-29.185
-29.716
-29.837
-29.428
-28.412
-26.878
-24.913
-22.616
-20.205
-17.882
-15.767
-13.954
-12.476
-11.317
-10.487
-9.976
-9.732
-9.741
-9.976
-10.411
-11.039
-11.825
-12.702
-13.591
-14.385
-14.99
-15.353
-15.426
-15.179
-14.606
-13.71
-12.527
-11.127
-9.555
-7.834
-5.981
-3.987
-1.856
0.393
2.75
5.199
7.728
10.335
13.015
15.76
18.58
21.492
24.525
27.727
31.132
34.756
38.61
42.694
47.004
51.537
56.283
61.22
66.331
71.598
77.005
82.536
88.172
93.887
99.653
105.436
111.205
116.93
122.58
128.126
133.54
138.793
143.861
148.721
153.35
157.724
161.82
165.613
169.081
172.203
174.961
177.336
179.311
180.873
182.012
182.722
182.996
182.833
182.232
181.196
179.731
177.843
175.542
172.838
169.747
166.282
162.463
158.308
153.839
149.078
144.049
138.778
133.291
127.615
121.778
115.807
109.731
103.577
97.375
91.154
84.939
78.761
72.644
66.615
60.7
54.921
49.3
43.856
38.607
33.57
28.758
24.184
19.856
15.784
11.974
8.429
5.153
2.145
-0.595
-3.07
-5.285
-7.247
-8.962
-10.44
-11.691
-12.726
-13.559
-14.202
-14.669
-14.975
-15.134
-15.163
-15.076
-14.891
-14.622
-14.286
-13.897
-13.472
-13.022
-12.563
-12.106
-11.663
-11.244
-10.857
-10.511
-10.213
-9.969
-9.782
-9.658
-9.598
-9.604
-9.677
-9.817
-10.021
-10.289
-10.616
-11
-11.436
-11.919
-12.444
-13.005
-13.596
-14.211
-14.843
-15.484
-16.128
-16.767
-17.393
-18
-18.579
-19.125
-19.63
-20.088
-20.495
-20.845
-21.134
-21.359
-21.516
-21.604
-21.619
-21.561
-21.429
-21.223
-20.944
-20.592
-20.169
-19.678
-19.12
-18.498
-17.815
-17.076
-16.282
-15.439
-14.549
-13.618
-12.649
-11.648
-10.619
-9.568
-8.5
-7.421
-6.337
-5.253
-4.175
-3.107
-2.055
-1.024
-0.019
0.956
1.897
2.8
3.661
4.476
5.244
5.96
6.623
7.231
7.783
8.279
8.716
9.095
9.416
9.677
9.881
10.026
10.115
10.146
10.123
10.048
9.922
9.749
9.532
9.275
8.982
8.657
8.306
7.933
7.543
7.142
6.736
6.33
5.93
5.545
5.179
4.84
4.535
4.27
4.053
3.889
3.784
3.745
3.778
3.888
4.083
4.366
4.745
5.224
5.808
6.502
7.31
8.234
9.278
10.441
11.726
13.132
14.658
16.304
18.067
19.943
21.93
24.021
26.21
28.49
30.853
33.29
35.788
38.337
40.921
43.527
46.139
48.74
51.313
53.84
56.304
58.689
60.979
63.157
65.207
67.115
68.863
70.434
71.813
72.986
73.94
74.663
75.147
75.388
75.382
75.13
74.627
73.865
72.833
71.526
69.937
68.067
65.92
63.511
60.862
58.014
55.009
51.891
48.704
45.482
42.262
39.084
35.997
33.064
30.347
27.905
25.791
24.055
22.724
21.788
21.205
20.881
20.728
20.677
20.653
20.565
20.32
19.817
18.96
17.689
15.89
13.334
9.914
5.671
0.796
-4.24
-8.927
-12.886
-15.569
-16.192
-14.363
-10.16
-4.03
2.852
9.159
13.997
16.229
14.229
8.54
1.946
-3.162
-3.075
2.261
7.781
14.002
24.803
48.902
101.572
188.284
306.529
448.459
597.673
742.564
871.563
970.787
1031.172
1041.442
998.476
908.865
780.248
628.527
468.91
314.369
182.839
85.898
27.666
5.847
6.63
14.819
22.149
25.362
27.383
32.848
41.186
49.629
55.333
55.849
51.715
44.664
36.092
27.722
20.944
16.466
14.604
14.876
16.281
18.362
20.749
22.896
24.403
24.909
24.208
22.625
20.651
18.258
15.405
12.172
8.557
4.743
0.918
-2.964
-6.952
-10.841
-14.424
-17.556
-20.089
-22.042
-23.472
-24.365
-24.731
-24.63
-24.134
-23.322
-22.281
-21.052
-19.669
-18.189
-16.669
-15.18
-13.791
-12.549
-11.481
-10.606
-9.932
-9.457
-9.175
-9.07
-9.12
-9.304
-9.604
-10.005
-10.494
-11.051
-11.657
-12.288
-12.918
-13.526
-14.09
-14.592
-15.013
-15.336
-15.547
-15.631
-15.577
-15.373
-15.007
-14.466
-13.739
-12.816
-11.687
-10.347
-8.791
-7.016
-5.023
-2.814
-0.395
2.228
5.044
8.043
11.209
14.526
17.977
21.542
25.198
28.921
32.687
36.47
40.24
43.971
47.633
51.197
54.633
57.912
61.005
63.885
66.523
68.892
70.967
72.725
74.141
75.194
75.865
76.137
75.994
75.422
74.411
72.953
71.042
68.676
65.854
62.578
58.854
54.69
50.095
45.084
39.67
33.873
27.711
21.208
14.386
7.272
-0.107
-7.724
-15.548
-23.549
-31.697
-39.96
-48.307
-56.706
-65.126
-73.535
-81.902
-90.199
-98.394
-106.46
-114.371
-122.1
-129.623
-136.917
-143.961
-150.737
-157.226
-163.414
-169.287
-174.834
-180.047
-184.918
-189.443
-193.621
-197.45
-200.932
-204.072
-206.875
-209.349
-211.501
-213.343
-214.886
-216.142
-217.127
-217.854
-218.34
-218.601
-218.653
-218.514
-218.201
-217.731
-217.122
-216.392
-215.557
-214.634
-213.64
-212.59
-211.501
-210.388
-209.263
-208.14
-207.031
-205.948
-204.9
-203.895
-202.942
-202.047
-201.215
-200.451
-199.758
-199.138
-198.593
-198.123
-197.727
-197.404
-197.152
-196.967
-196.846
-196.786
-196.78
-196.825
-196.916
-197.046
-197.209
-197.401
-197.613
-197.841
-198.077
-198.315
-198.548
-198.769
-198.973
-199.152
-199.301
-199.415
-199.487
-199.514
-199.491
-199.415
-199.281
-199.086
-198.829
-198.506
-198.116
-197.658
-197.13
-196.533
-195.867
-195.132
-194.329
-193.46
-192.526
-191.53
-190.472
-189.356
-188.184
-186.959
-185.685
-184.364
-183.001
-181.6
-180.165
-178.701
-177.213
-175.704
-174.18
-172.646
-171.105
-169.563
-168.023
-166.491
-164.971
-163.467
-161.983
-160.524
-159.093
-157.694
-156.331
-155.006
-153.723
-152.484
-151.292
-150.148
-149.055
-148.014
-147.027
-146.094
-145.218
-144.399
-143.636
-142.929
-142.277
-141.679
-141.133
-140.637
-140.188
-139.783
-139.42
-139.094
-138.802
-138.54
-138.302
-138.084
-137.879
-137.683
-137.488
-137.287
-137.073
-136.84
-136.579
-136.283
-135.946
-135.559
-135.114
-134.605
-134.022
-133.358
-132.605
-131.755
-130.801
-129.734
-128.55
-127.242
-125.803
-124.231
-122.519
-120.665
-118.665
-116.518
-114.222
-111.777
-109.183
-106.443
-103.56
-100.538
-97.384
-94.105
-90.712
-87.215
-83.627
-79.96
-76.23
-72.453
-68.644
-64.821
-61
-57.199
-53.437
-49.73
-46.1
-42.564
-39.143
-35.857
-32.726
-29.769
-27.005
-24.448
-22.11
-20.002
-18.135
-16.519
-15.17
-14.1
-13.318
-12.831
-12.647
-12.763
-13.174
-13.859
-14.783
-15.911
-17.205
-18.63
-20.157
-21.756
-23.388
-25.02
-26.601
-28.081
-29.418
-30.563
-31.476
-32.131
-32.521
-32.683
-32.7
-32.66
-32.645
-32.717
-32.926
-33.339
-34.023
-35.043
-36.462
-38.32
-40.709
-43.804
-47.678
-52.297
-57.491
-62.811
-67.752
-71.898
-74.641
-75.24
-73.338
-68.827
-61.922
-53.763
-45.601
-38.318
-33.39
-31.564
-31.574
-32.16
-31.664
-29.049
-27.133
-27.758
-28.256
-22.041
3.165
58.655
147.031
265.136
403.592
548.796
690.497
815.633
909.876
964.514
971.272
931.096
852.216
740.736
608.207
464.723
321.4
196.287
99.946
37.53
5.909
-10.311
-21.342
-31.852
-41.699
-43.255
-34.272
-18.182
0.548
15.959
25.332
29.306
28.345
22.691
13.214
1.237
-11.297
-22.302
-30.815
-36.846
-40.364
-41.099
-39.168
-35.078
-29.84
-24.815
-20.726
-17.732
-15.953
-15.495
-16.408
-18.668
-21.943
-25.666
-29.48
-33.188
-36.652
-39.8
-42.498
-44.615
-46.121
-47.052
-47.448
-47.341
-46.743
-45.652
-44.107
-42.162
-39.875
-37.313
-34.53
-31.583
-28.535
-25.445
-22.375
-19.371
-16.461
-13.664
-10.989
-8.435
-5.999
-3.67
-1.431
0.736
2.846
4.921
6.978
9.032
11.105
13.213
15.375
17.609
19.932
22.355
24.893
27.556
30.354
33.298
36.393
39.647
43.067
46.66
50.431
54.385
58.525
62.851
67.365
72.063
76.941
81.991
87.205
92.571
98.077
103.707
109.446
115.274
121.173
127.122
133.098
139.079
145.04
150.958
156.806
162.559
168.192
173.678
178.992
184.109
189.003
193.65
198.029
202.115
205.887
209.327
212.415
215.135
217.47
219.408
220.936
222.046
222.729
222.982
222.8
222.184
221.136
219.659
217.76
215.448
212.731
209.623
206.136
202.287
198.092
193.571
188.742
183.628
178.25
172.633
166.799
160.774
154.582
148.251
141.804
135.268
128.668
122.031
115.382
108.745
102.145
95.605
89.148
82.797
76.571
70.49
64.571
58.831
53.285
47.946
42.826
37.935
33.283
28.876
24.721
20.821
17.18
13.799
10.677
7.813
5.204
2.845
0.731
-1.144
-2.788
-4.209
-5.416
-6.42
-7.23
-7.859
-8.319
-8.621
-8.778
-8.805
-8.713
-8.516
-8.227
-7.859
-7.424
-6.933
-6.399
-5.833
-5.245
-4.644
-4.041
-3.445
-2.862
-2.301
-1.767
-1.267
-0.805
-0.384
-0.009
0.319
0.597
0.825
1.001
1.125
1.198
1.222
1.197
1.125
1.011
0.856
0.664
0.439
0.185
-0.095
-0.395
-0.713
-1.043
-1.383
-1.728
-2.075
-2.419
-2.759
-3.091
-3.412
-3.719
-4.012
-4.289
-4.548
-4.79
-5.013
-5.218
-5.406
-5.577
-5.732
-5.872
-5.998
-6.113
-6.217
-6.314
-6.405
-6.492
-6.579
-6.669
-6.763
-6.864
-6.976
-7.1
-7.24
-7.398
-7.575
-7.775
-7.999
-8.248
-8.526
-8.832
-9.169
-9.537
-9.936
-10.367
-10.83
-11.325
-11.851
-12.407
-12.994
-13.609
-14.253
-14.923
-15.619
-16.34
-17.084
-17.85
-18.637
-19.443
-20.268
-21.108
-21.964
-22.834
-23.716
-24.61
-25.514
-26.426
-27.347
-28.273
-29.206
-30.142
-31.081
-32.021
-32.961
-33.898
-34.832
-35.76
-36.68
-37.59
-38.488
-39.372
-40.238
-41.084
-41.907
-42.705
-43.472
-44.207
-44.903
-45.558
-46.165
-46.721
-47.22
-47.657
-48.027
-48.326
-48.546
-48.684
-48.734
-48.691
-48.55
-48.305
-47.952
-47.488
-46.908
-46.212
-45.395
-44.458
-43.4
-42.222
-40.926
-39.513
-37.988
-36.353
-34.614
-32.777
-30.849
-28.837
-26.751
-24.603
-22.405
-20.173
-17.923
-15.67
-13.434
-11.233
-9.084
-7.008
-5.019
-3.135
-1.372
0.253
1.722
3.015
4.118
5.016
5.694
6.14
6.344
6.297
6
5.453
4.655
3.6
2.276
0.67
-1.223
-3.403
-5.87
-8.615
-11.627
-14.881
-18.336
-21.945
-25.66
-29.435
-33.236
-37.022
-40.742
-44.331
-47.713
-50.815
-53.577
-55.951
-57.896
-59.392
-60.444
-61.083
-61.377
-61.408
-61.275
-61.089
-60.961
-61.002
-61.304
-62.002
-63.298
-65.366
-68.281
-71.942
-76.067
-80.346
-84.52
-88.209
-90.845
-91.892
-91.029
-88.498
-85.074
-81.524
-78.613
-77.266
-78.5
-83.293
-91.182
-99.602
-105.605
-107.157
-105.046
-101.509
-95.538
-80.933
-46.948
14.892
105.859
219.148
342.261
467.893
593.213
714.336
826.014
912.807
954.638
941.627
872.539
757.44
616.784
466.871
320.939
192.578
89.039
14.113
-31.731
-56.729
-71.128
-80.811
-88.954
-94.146
-92.884
-86.009
-76.6
-68.104
-63.953
-64.758
-69.327
-76.415
-84.454
-92.091
-98.294
-102.069
-103.034
-101.485
-97.998
-93.321
-88.19
-83.196
-78.906
-75.823
-74.162
-73.906
-74.911
-76.931
-79.741
-83.172
-87.018
-91.083
-95.215
-99.256
-103.069
-106.541
-109.539
-111.97
-113.783
-114.945
-115.457
-115.347
-114.651
-113.425
-111.74
-109.66
-107.248
-104.569
-101.678
-98.644
-95.537
-92.422
-89.365
-86.41
-83.586
-80.912
-78.394
-76.028
-73.805
-71.708
-69.712
-67.799
-65.95
-64.152
-62.387
-60.64
-58.89
-57.118
-55.303
-53.428
-51.477
-49.434
-47.288
-45.025
-42.637
-40.116
-37.455
-34.648
-31.688
-28.568
-25.283
-21.827
-18.199
-14.397
-10.421
-6.273
-1.958
2.519
7.149
11.921
16.824
21.846
26.97
32.18
37.458
42.785
48.14
53.501
58.845
64.149
69.388
74.538
79.573
84.468
89.2
93.744
98.075
102.173
106.014
109.579
112.848
115.804
118.43
120.711
122.634
124.189
125.365
126.155
126.553
126.556
126.163
125.374
124.192
122.623
120.673
118.351
115.667
112.635
109.269
105.584
101.599
97.332
92.804
88.036
83.052
77.874
72.526
67.032
61.418
55.707
49.923
44.091
38.235
32.377
26.539
20.745
15.013
9.364
3.818
-1.609
-6.9
-12.04
-17.014
-21.812
-26.421
-30.832
-35.038
-39.032
-42.809
-46.366
-49.701
-52.812
-55.702
-58.373
-60.827
-63.071
-65.109
-66.95
-68.6
-70.068
-71.363
-72.496
-73.475
-74.312
-75.016
-75.599
-76.07
-76.44
-76.719
-76.917
-77.045
-77.11
-77.123
-77.092
-77.024
-76.927
-76.808
-76.673
-76.527
-76.375
-76.222
-76.071
-75.924
-75.785
-75.656
-75.536
-75.427
-75.328
-75.239
-75.159
-75.087
-75.02
-74.957
-74.896
-74.834
-74.769
-74.699
-74.621
-74.533
-74.434
-74.321
-74.192
-74.046
-73.88
-73.695
-73.489
-73.261
-73.01
-72.737
-72.442
-72.124
-71.784
-71.423
-71.041
-70.64
-70.221
-69.785
-69.335
-68.87
-68.395
-67.91
-67.418
-66.92
-66.419
-65.918
-65.418
-64.92
-64.428
-63.943
-63.465
-62.997
-62.54
-62.094
-61.66
-61.238
-60.83
-60.434
-60.052
-59.683
-59.327
-58.983
-58.651
-58.33
-58.019
-57.718
-57.426
-57.141
-56.864
-56.592
-56.325
-56.062
-55.801
-55.541
-55.282
-55.021
-54.759
-54.492
-54.221
-53.944
-53.66
-53.369
-53.071
-52.764
-52.448
-52.125
-51.793
-51.453
-51.106
-50.753
-50.393
-50.028
-49.659
-49.285
-48.909
-48.531
-48.152
-47.773
-47.395
-47.02
-46.647
-46.278
-45.914
-45.555
-45.201
-44.854
-44.514
-44.181
-43.857
-43.54
-43.232
-42.933
-42.641
-42.357
-42.08
-41.808
-41.54
-41.273
-41.006
-40.735
-40.457
-40.169
-39.868
-39.549
-39.21
-38.845
-38.45
-38.02
-37.551
-37.037
-36.475
-35.858
-35.183
-34.443
-33.636
-32.756
-31.799
-30.762
-29.642
-28.435
-27.138
-25.751
-24.27
-22.696
-21.028
-19.267
-17.416
-15.475
-13.451
-11.348
-9.174
-6.941
-4.656
-2.333
0.016
2.378
4.739
7.085
9.403
11.682
13.908
16.066
18.139
20.11
21.966
23.69
25.269
26.689
27.936
29.001
29.879
30.568
31.059
31.341
31.394
31.197
30.742
30.019
29.028
27.77
26.252
24.492
22.53
20.404
18.155
15.819
13.42
10.988
8.566
6.211
3.997
1.992
0.249
-1.19
-2.295
-3.051
-3.462
-3.571
-3.459
-3.217
-2.948
-2.745
-2.702
-2.936
-3.551
-4.678
-6.498
-9.131
-12.621
-16.902
-21.699
-26.643
-31.41
-35.594
-38.69
-40.328
-40.258
-38.59
-36.066
-33.65
-32.169
-32.281
-34.564
-39.47
-47.242
-57.402
-67.201
-72.247
-68.675
-54.065
-29.99
-0.093
34.79
77.32
135.433
217.381
325.923
457.35
599.388
737.864
858.116
946.754
996.311
998.967
953.669
864.7
736.463
583.843
421.982
267.373
141.103
51.06
-2.856
-28.767
-42.96
-52.183
-55.524
-47.553
-23.78
10.138
43.518
64.014
66.872
57.296
41.24
25.966
14.223
2.881
-8.738
-20.749
-32.605
-41.441
-45.85
-46.008
-42.387
-36.287
-29.278
-22.434
-16.378
-11.544
-8.218
-6.451
-6.221
-7.382
-9.487
-12.051
-14.799
-17.53
-20.108
-22.478
-24.513
-26.067
-27.104
-27.636
-27.664
-27.202
-26.242
-24.761
-22.788
-20.383
-17.604
-14.521
-11.192
-7.66
-3.983
-0.224
3.554
7.281
10.913
14.422
17.791
21.01
24.076
26.989
29.762
32.419
34.982
37.472
39.907
42.3
44.669
47.035
49.418
51.838
54.315
56.864
59.502
62.242
65.099
68.085
71.21
74.481
77.906
81.492
85.248
89.18
93.294
97.593
102.078
106.751
111.608
116.646
121.858
127.233
132.76
138.427
144.216
150.113
156.096
162.146
168.242
174.358
180.472
186.558
192.589
198.539
204.381
210.087
215.631
220.985
226.124
231.02
235.649
239.986
244.009
247.696
251.026
253.98
256.541
258.694
260.426
261.725
262.582
262.991
262.946
262.447
261.493
260.087
258.233
255.94
253.217
250.075
246.528
242.593
238.285
233.626
228.634
223.333
217.746
211.898
205.812
199.516
193.034
186.395
179.625
172.749
165.795
158.788
151.754
144.717
137.7
130.727
123.82
116.998
110.281
103.687
97.232
90.931
84.799
78.845
73.08
67.513
62.15
56.995
52.05
47.317
42.796
38.482
34.374
30.464
26.746
23.213
19.854
16.66
13.62
10.722
7.954
5.302
2.755
0.3
-2.077
-4.388
-6.646
-8.861
-11.047
-13.215
-15.375
-17.537
-19.711
-21.905
-24.129
-26.388
-28.69
-31.039
-33.439
-35.893
-38.404
-40.972
-43.597
-46.277
-49.01
-51.793
-54.621
-57.489
-60.392
-63.323
-66.274
-69.239
-72.209
-75.176
-78.133
-81.071
-83.982
-86.859
-89.694
-92.48
-95.212
-97.881
-100.483
-103.011
-105.462
-107.829
-110.109
-112.298
-114.395
-116.396
-118.3
-120.106
-121.816
-123.429
-124.946
-126.372
-127.707
-128.955
-130.12
-131.208
-132.221
-133.167
-134.05
-134.876
-135.651
-136.38
-137.07
-137.726
-138.352
-138.954
-139.536
-140.101
-140.654
-141.198
-141.735
-142.268
-142.8
-143.332
-143.866
-144.402
-144.942
-145.484
-146.03
-146.578
-147.126
-147.674
-148.22
-148.761
-149.296
-149.821
-150.334
-150.833
-151.314
-151.776
-152.215
-152.628
-153.014
-153.37
-153.695
-153.988
-154.248
-154.475
-154.67
-154.834
-154.968
-155.074
-155.155
-155.213
-155.251
-155.273
-155.282
-155.281
-155.275
-155.267
-155.263
-155.267
-155.284
-155.317
-155.371
-155.451
-155.561
-155.704
-155.883
-156.101
-156.361
-156.666
-157.016
-157.414
-157.859
-158.351
-158.89
-159.474
-160.1
-160.764
-161.461
-162.188
-162.936
-163.699
-164.471
-165.242
-166.004
-166.75
-167.469
-168.153
-168.792
-169.376
-169.896
-170.341
-170.702
-170.969
-171.133
-171.186
-171.12
-170.928
-170.603
-170.14
-169.533
-168.778
-167.873
-166.814
-165.6
-164.232
-162.71
-161.038
-159.22
-157.261
-155.17
-152.955
-150.629
-148.205
-145.698
-143.122
-140.495
-137.836
-135.162
-132.494
-129.849
-127.245
-124.703
-122.242
-119.88
-117.638
-115.535
-113.591
-111.825
-110.255
-108.899
-107.77
-106.877
-106.228
-105.83
-105.693
-105.83
-106.253
-106.966
-107.976
-109.285
-110.889
-112.78
-114.93
-117.296
-119.835
-122.501
-125.251
-128.051
-130.862
-133.64
-136.341
-138.908
-141.29
-143.448
-145.337
-146.916
-148.16
-149.072
-149.702
-150.15
-150.518
-150.898
-151.365
-151.988
-152.858
-154.066
-155.702
-157.86
-160.6
-164.021
-168.292
-173.449
-179.415
-185.99
-192.654
-198.787
-203.866
-207.221
-208.092
-206.191
-201.47
-194.103
-185.336
-176.696
-169.169
-164.189
-162.307
-161.951
-162.713
-164.533
-166.887
-171.098
-173.495
-165.234
-137.214
-80.638
2.947
103.582
211.167
317.265
424.172
537.366
653.34
761.259
839.624
865.62
831.549
741.217
608.071
453.52
293.853
142.747
15.533
-78.875
-136.613
-159.71
-160.742
-153.461
-145.676
-141.315
-138.413
-132.944
-125.794
-119.234
-115.391
-116.764
-122.964
-131.886
-141.88
-150.939
-157.288
-160.392
-160.208
-157.006
-151.608
-144.884
-137.574
-130.517
-124.491
-119.873
-116.79
-115.215
-114.929
-115.749
-117.521
-120.034
-123.066
-126.443
-130.022
-133.669
-137.264
-140.653
-143.658
-146.156
-148.068
-149.351
-149.998
-150.013
-149.413
-148.233
-146.535
-144.374
-141.807
-138.892
-135.678
-132.23
-128.622
-124.927
-121.221
-117.557
-113.969
-110.476
-107.087
-103.797
-100.599
-97.475
-94.401
-91.357
-88.331
-85.31
-82.286
-79.244
-76.17
-73.047
-69.856
-66.581
-63.206
-59.715
-56.097
-52.341
-48.44
-44.39
-40.188
-35.83
-31.315
-26.639
-21.794
-16.773
-11.561
-6.15
-0.54
5.261
11.238
17.366
23.623
29.984
36.414
42.887
49.385
55.896
62.431
68.996
75.585
82.184
88.76
95.282
101.741
108.128
114.439
120.686
126.878
133.03
139.18
145.348
151.518
157.653
163.675
169.489
175.031
180.251
185.111
189.588
193.634
197.205
200.268
202.77
204.662
205.883
206.338
205.959
204.734
202.679
199.868
196.402
192.356
187.789
182.766
177.329
171.536
165.444
159.089
152.518
145.793
138.985
132.203
125.54
119.044
112.74
106.617
100.637
94.785
89.053
83.425
77.902
72.487
67.183
62.017
57.013
52.182
47.521
43.012
38.634
34.389
30.287
26.347
22.603
19.076
15.783
12.748
9.982
7.491
5.274
3.32
1.61
0.131
-1.124
-2.163
-2.99
-3.615
-4.049
-4.308
-4.405
-4.357
-4.18
-3.893
-3.513
-3.054
-2.528
-1.946
-1.314
-0.64
0.067
0.801
1.554
2.318
3.088
3.856
4.614
5.359
6.085
6.788
7.468
8.122
8.75
9.351
9.927
10.477
11.004
11.508
11.991
12.455
12.902
13.335
13.755
14.165
14.569
14.968
15.366
15.765
16.167
16.573
16.985
17.404
17.83
18.264
18.705
19.152
19.607
20.069
20.537
21.01
21.488
21.969
22.451
22.933
23.411
23.884
24.349
24.804
25.245
25.671
26.08
26.469
26.836
27.179
27.495
27.783
28.041
28.265
28.455
28.609
28.726
28.803
28.842
28.84
28.798
28.715
28.592
28.428
28.223
27.979
27.695
27.372
27.01
26.611
26.176
25.706
25.202
24.666
24.098
23.501
22.874
22.219
21.536
20.827
20.092
19.331
18.545
17.735
16.901
16.045
15.167
14.267
13.346
12.405
11.443
10.461
9.46
8.439
7.401
6.345
5.272
4.185
3.084
1.971
0.848
-0.283
-1.42
-2.562
-3.704
-4.844
-5.98
-7.106
-8.218
-9.312
-10.383
-11.424
-12.43
-13.395
-14.312
-15.175
-15.978
-16.714
-17.375
-17.956
-18.45
-18.848
-19.145
-19.332
-19.405
-19.355
-19.178
-18.868
-18.421
-17.833
-17.101
-16.222
-15.195
-14.019
-12.694
-11.221
-9.602
-7.841
-5.942
-3.912
-1.756
0.515
2.889
5.353
7.894
10.497
13.145
15.822
18.51
21.191
23.85
26.471
29.037
31.53
33.931
36.219
38.377
40.387
42.232
43.898
45.37
46.637
47.694
48.536
49.159
49.555
49.706
49.597
49.221
48.574
47.653
46.468
45.029
43.356
41.488
39.461
37.313
35.077
32.775
30.435
28.093
25.795
23.605
21.585
19.783
18.244
17.006
16.08
15.46
15.114
14.966
14.958
15.027
15.1
15.11
14.969
14.578
13.849
12.659
10.842
8.31
5.068
1.271
-2.709
-6.456
-9.567
-11.578
-12.029
-10.582
-7.161
-2.231
3.255
8.207
11.558
12.568
10.817
5.837
-2.411
-12.529
-22.393
-28.506
-25.755
-11.513
15.423
55.507
104.854
161.724
228.05
304.72
396.988
508.018
632.377
761.341
877.991
962.308
998.941
977.003
896.531
765.297
597.922
415.951
239.901
91.135
-15.113
-76.809
-98.171
-90.643
-67.519
-35.268
-0.132
30.769
52.866
61.437
56.597
45.816
35.145
27.855
24.342
20.377
13.793
5.553
-2.924
-9.095
-11.559
-10.611
-6.885
-1.495
4.188
9.201
13.047
15.479
16.473
16.022
14.105
10.903
6.835
2.309
-2.408
-7.142
-11.816
-16.317
-20.462
-24.135
-27.299
-29.95
-32.105
-33.767
-34.918
-35.57
-35.768
-35.564
-35.019
-34.184
-33.102
-31.829
-30.425
-28.955
-27.487
-26.068
-24.73
-23.494
-22.367
-21.351
-20.439
-19.619
-18.866
-18.161
-17.483
-16.814
-16.138
-15.438
-14.694
-13.887
-12.994
-11.997
-10.879
-9.624
-8.218
-6.649
-4.906
-2.98
-0.865
1.444
3.956
6.675
9.608
12.758
16.128
19.718
23.529
27.558
31.8
36.246
40.889
45.715
50.712
55.864
61.155
66.564
72.073
77.657
83.295
88.961
94.629
100.271
105.86
111.365
116.758
122.008
127.087
131.963
136.609
140.996
145.097
148.886
152.338
155.43
158.14
160.448
162.336
163.787
164.789
165.329
165.398
164.99
164.1
162.729
160.877
158.548
155.749
152.489
148.779
144.635
140.072
135.109
129.767
124.069
118.04
111.706
105.097
98.242
91.17
83.914
76.505
68.975
61.357
53.682
45.982
38.288
30.632
23.043
15.549
8.179
0.959
-6.085
-12.931
-19.556
-25.941
-32.068
-37.92
-43.485
-48.749
-53.704
-58.341
-62.656
-66.644
-70.305
-73.64
-76.652
-79.346
-81.728
-83.807
-85.592
-87.096
-88.33
-89.308
-90.043
-90.55
-90.845
-90.943
-90.861
-90.614
-90.218
-89.691
-89.047
-88.302
-87.472
-86.571
-85.613
-84.61
-83.577
-82.523
-81.461
-80.4
-79.348
-78.314
-77.304
-76.325
-75.38
-74.472
-73.605
-72.78
-71.997
-71.256
-70.556
-69.896
-69.274
-68.687
-68.133
-67.61
-67.113
-66.641
-66.188
-65.753
-65.332
-64.921
-64.518
-64.121
-63.726
-63.332
-62.936
-62.538
-62.136
-61.728
-61.315
-60.897
-60.472
-60.043
-59.609
-59.174
-58.739
-58.306
-57.878
-57.458
-57.05
-56.658
-56.284
-55.931
-55.605
-55.306
-55.04
-54.809
-54.617
-54.465
-54.356
-54.292
-54.276
-54.309
-54.391
-54.523
-54.706
-54.939
-55.223
-55.556
-55.938
-56.368
-56.844
-57.365
-57.929
-58.534
-59.177
-59.856
-60.567
-61.308
-62.075
-62.865
-63.675
-64.5
-65.339
-66.188
-67.044
-67.904
-68.765
-69.625
-70.481
-71.33
-72.171
-73.002
-73.821
-74.627
-75.42
-76.198
-76.961
-77.708
-78.44
-79.155
-79.853
-80.535
-81.198
-81.843
-82.47
-83.078
-83.667
-84.235
-84.784
-85.311
-85.815
-86.296
-86.752
-87.181
-87.58
-87.947
-88.279
-88.574
-88.827
-89.037
-89.199
-89.31
-89.366
-89.363
-89.297
-89.163
-88.957
-88.674
-88.31
-87.861
-87.323
-86.692
-85.966
-85.142
-84.218
-83.192
-82.061
-80.827
-79.489
-78.047
-76.502
-74.858
-73.116
-71.282
-69.36
-67.358
-65.281
-63.141
-60.948
-58.712
-56.447
-54.165
-51.88
-49.606
-47.357
-45.145
-42.985
-40.89
-38.873
-36.948
-35.13
-33.435
-31.876
-30.466
-29.218
-28.141
-27.248
-26.543
-26.03
-25.712
-25.596
-25.695
-26.019
-26.574
-27.362
-28.379
-29.619
-31.065
-32.693
-34.465
-36.337
-38.263
-40.203
-42.124
-43.993
-45.773
-47.413
-48.853
-50.037
-50.924
-51.485
-51.699
-51.554
-51.063
-50.281
-49.305
-48.245
-47.195
-46.238
-45.452
-44.931
-44.794
-45.154
-46.093
-47.689
-50.028
-53.133
-56.977
-61.388
-65.994
-70.385
-74.169
-76.926
-78.217
-77.678
-75.1
-70.708
-65.179
-59.187
-53.198
-47.668
-43.154
-40.269
-39.512
-39.298
-36.094
-27.088
-9.672
14.884
41.373
69.335
99.825
137.46
194.102
273.641
375.642
498.649
629.046
753.649
859.872
927.06
941.769
898.379
795.794
648.993
480.426
310.606
162.359
50.033
-23.676
-60.072
-68.481
-60.937
-43.843
-23.623
-5.704
8.101
13.678
10.275
2.883
-5.325
-10.701
-12.009
-12.617
-14.229
-17.573
-22.316
-26.643
-29.706
-31.167
-31.224
-30.687
-29.973
-29.346
-28.953
-28.408
-27.656
-27.124
-26.964
-27.285
-28.161
-29.403
-30.97
-33.067
-35.66
-38.473
-41.295
-43.87
-46.017
-47.76
-49.081
-49.906
-50.242
-50.129
-49.617
-48.8
-47.747
-46.477
-45.023
-43.418
-41.699
-39.929
-38.169
-36.475
-34.903
-33.493
-32.267
-31.243
-30.426
-29.812
-29.393
-29.149
-29.055
-29.093
-29.244
-29.493
-29.823
-30.208
-30.623
-31.041
-31.438
-31.789
-32.073
-32.27
-32.359
-32.323
-32.148
-31.819
-31.327
-30.66
-29.806
-28.756
-27.498
-26.027
-24.337
-22.423
-20.284
-17.918
-15.329
-12.521
-9.502
-6.281
-2.871
0.716
4.461
8.348
12.356
16.462
20.643
24.874
29.13
33.383
37.605
41.769
45.847
49.811
53.634
57.288
60.749
63.991
66.99
69.726
72.176
74.323
76.148
77.636
78.773
79.548
79.95
79.972
79.609
78.858
77.718
76.191
74.282
71.998
69.347
66.342
62.996
59.325
55.347
51.083
46.553
41.781
36.791
31.609
26.26
20.773
15.174
9.492
3.754
-2.013
-7.78
-13.523
-19.213
-24.828
-30.341
-35.731
-40.974
-46.05
-50.94
-55.624
-60.087
-64.314
-68.29
-72.005
-75.448
-78.611
-81.49
-84.079
-86.377
-88.384
-90.101
-91.533
-92.684
-93.561
-94.174
-94.531
-94.645
-94.528
-94.193
-93.655
-92.928
-92.028
-90.97
-89.771
-88.447
-87.012
-85.484
-83.877
-82.206
-80.486
-78.731
-76.955
-75.17
-73.389
-71.623
-69.883
-68.178
-66.516
-64.905
-63.351
-61.86
-60.434
-59.077
-57.79
-56.575
-55.43
-54.354
-53.344
-52.396
-51.507
-50.671
-49.881
-49.132
-48.417
-47.729
-47.061
-46.404
-45.753
-45.1
-44.439
-43.761
-43.062
-42.334
-41.572
-40.771
-39.925
-39.031
-38.083
-37.08
-36.017
-34.894
-33.709
-32.46
-31.148
-29.774
-28.337
-26.841
-25.287
-23.678
-22.019
-20.313
-18.564
-16.779
-14.962
-13.12
-11.259
-9.385
-7.503
-5.621
-3.744
-1.878
-0.03
1.796
3.593
5.357
7.082
8.764
10.399
11.982
13.511
14.983
16.393
17.741
19.024
20.24
21.387
22.465
23.471
24.406
25.269
26.06
26.779
27.426
28.001
28.507
28.943
29.311
29.611
29.844
30.013
30.117
30.158
30.136
30.054
29.913
29.713
29.455
29.14
28.768
28.341
27.859
27.321
26.728
26.08
25.378
24.621
23.812
22.95
22.036
21.072
20.059
19
17.895
16.746
15.557
14.329
13.067
11.773
10.452
9.108
7.746
6.37
4.987
3.6
2.216
0.839
-0.524
-1.869
-3.19
-4.48
-5.735
-6.946
-8.11
-9.219
-10.267
-11.25
-12.161
-12.997
-13.754
-14.43
-15.022
-15.525
-15.935
-16.249
-16.467
-16.594
-16.631
-16.572
-16.424
-16.212
-15.954
-15.677
-15.392
-15.084
-14.761
-14.464
-14.187
-13.882
-13.52
-13.063
-12.523
-11.993
-11.51
-11.008
-10.589
-10.575
-11.046
-11.921
-13.251
-14.72
-16.944
-21.82
-28.942
-36.585
-41.894
-39.506
-29.77
-18.069
-9.766
-12.471
-26.634
-45.046
-62.134
-71.871
-73.195
-71.454
-69.903
-70.75
-74.631
-79.32
-83.803
-88.131
-92.196
-96.274
-100.384
-104.163
-107.476
-110.362
-112.828
-114.869
-116.477
-117.697
-118.711
-119.853
-121.428
-123.563
-126.157
-129.06
-132.344
-136.105
-140.188
-144.054
-146.865
-147.98
-147.361
-145.324
-141.841
-136.695
-129.888
-122.019
-114.567
-109.106
-106.483
-106.845
-110.298
-117.12
-127.478
-140.754
-154.708
-166.24
-172.348
-170.283
-157.667
-132.009
-90.346
-31.413
42.423
127.373
218.973
314.566
417.111
528.478
643.993
752.922
835.796
872.308
854.248
783.605
671.709
537.624
395.82
257.366
134.664
35.589
-35.09
-76.101
-95.419
-103.956
-108.33
-112.065
-113.994
-110.518
-102.361
-92.655
-84.365
-80.435
-81.355
-85.766
-92.336
-99.565
-105.9
-110.097
-111.521
-110.123
-106.351
-101.004
-94.838
-88.471
-82.581
-77.803
-74.467
-72.681
-72.357
-73.241
-75.105
-77.77
-81.02
-84.638
-88.46
-92.325
-96.074
-99.572
-102.669
-105.243
-107.231
-108.588
-109.297
-109.363
-108.813
-107.697
-106.086
-104.047
-101.641
-98.927
-95.961
-92.814
-89.56
-86.276
-83.033
-79.881
-76.853
-73.973
-71.253
-68.694
-66.29
-64.022
-61.865
-59.8
-57.812
-55.888
-54.014
-52.173
-50.343
-48.508
-46.649
-44.748
-42.793
-40.768
-38.661
-36.463
-34.165
-31.76
-29.243
-26.608
-23.845
-20.949
-17.913
-14.73
-11.396
-7.908
-4.264
-0.464
3.49
7.594
11.842
16.226
20.737
25.365
30.096
34.918
39.813
44.767
49.762
54.777
59.793
64.79
69.747
74.642
79.453
84.157
88.732
93.157
97.409
101.467
105.31
108.918
112.271
115.352
118.142
120.627
122.79
124.62
126.103
127.231
127.994
128.388
128.407
128.05
127.316
126.206
124.726
122.879
120.674
118.12
115.227
112.008
108.477
104.648
100.538
96.167
91.551
86.712
81.671
76.448
71.068
65.551
59.922
54.204
48.419
42.591
36.743
30.897
25.075
19.299
13.59
7.966
2.448
-2.947
-8.203
-13.304
-18.238
-22.991
-27.553
-31.915
-36.068
-40.006
-43.723
-47.215
-50.48
-53.517
-56.325
-58.907
-61.265
-63.402
-65.325
-67.039
-68.552
-69.871
-71.006
-71.966
-72.76
-73.399
-73.893
-74.255
-74.494
-74.623
-74.653
-74.594
-74.457
-74.253
-73.992
-73.682
-73.332
-72.949
-72.542
-72.115
-71.677
-71.23
-70.781
-70.334
-69.891
-69.456
-69.03
-68.616
-68.213
-67.822
-67.442
-67.073
-66.712
-66.359
-66.011
-65.665
-65.32
-64.972
-64.619
-64.257
-63.883
-63.494
-63.087
-62.66
-62.209
-61.734
-61.233
-60.704
-60.148
-59.565
-58.954
-58.317
-57.656
-56.971
-56.266
-55.541
-54.8
-54.046
-53.282
-52.51
-51.736
-50.963
-50.194
-49.434
-48.687
-47.957
-47.247
-46.561
-45.904
-45.278
-44.687
-44.134
-43.621
-43.153
-42.73
-42.355
-42.03
-41.755
-41.531
-41.357
-41.233
-41.158
-41.13
-41.147
-41.208
-41.309
-41.448
-41.623
-41.829
-42.064
-42.323
-42.604
-42.903
-43.216
-43.539
-43.869
-44.202
-44.535
-44.865
-45.19
-45.507
-45.814
-46.108
-46.388
-46.653
-46.9
-47.129
-47.34
-47.531
-47.703
-47.857
-47.992
-48.111
-48.214
-48.302
-48.377
-48.44
-48.492
-48.534
-48.567
-48.592
-48.609
-48.62
-48.624
-48.622
-48.614
-48.599
-48.577
-48.545
-48.503
-48.447
-48.376
-48.286
-48.173
-48.035
-47.867
-47.665
-47.426
-47.143
-46.813
-46.429
-45.986
-45.48
-44.903
-44.25
-43.516
-42.695
-41.784
-40.778
-39.674
-38.468
-37.158
-35.744
-34.224
-32.6
-30.87
-29.039
-27.109
-25.084
-22.969
-20.771
-18.499
-16.162
-13.772
-11.341
-8.884
-6.415
-3.949
-1.502
0.91
3.273
5.571
7.789
9.912
11.923
13.806
15.542
17.114
18.507
19.706
20.698
21.47
22.018
22.338
22.428
22.281
21.885
21.23
20.307
19.111
17.644
15.911
13.925
11.712
9.313
6.773
4.136
1.445
-1.271
-3.978
-6.644
-9.22
-11.644
-13.859
-15.813
-17.464
-18.774
-19.722
-20.317
-20.61
-20.697
-20.668
-20.599
-20.559
-20.618
-20.852
-21.338
-22.168
-23.433
-25.263
-27.863
-31.305
-35.536
-40.398
-45.484
-50.277
-54.289
-56.879
-57.272
-55.155
-50.578
-43.83
-36.076
-28.765
-23.034
-20.314
-20.994
-23.594
-26.632
-29.166
-32.224
-38.055
-45.456
-47.882
-32.3
13.666
92.953
199.635
318.787
436.752
549.747
658.252
763.97
862.048
939.061
979.513
970.621
909.51
799.913
651.557
482.42
311.577
162.427
56.432
-0.253
-12.801
1.163
19.324
30.627
32.491
29.559
29.54
33.264
38.152
41.157
38.901
31.496
21.111
9.442
-1.384
-9.596
-14.692
-16.517
-15.318
-11.937
-7.197
-1.789
3.484
7.895
11.092
12.917
13.39
12.735
11.134
8.747
5.789
2.459
-1.079
-4.7
-8.294
-11.752
-14.926
-17.657
-19.833
-21.389
-22.299
