Name
Date of Birth,"Mar 27, 1959"
Recorded Date,2022-08-22 19:00:44 -0500
Classification,Sinus Rhythm
Symptoms,
Software Version,1.90
Device,"Watch4,2"
Sample Rate,510.227 hertz


Lead,Lead I
Unit,µV

2.227
4.094
6.09
8.218
10.478
12.869
15.39
18.037
20.804
23.685
26.671
29.752
32.916
36.149
39.437
42.763
46.11
49.46
52.792
56.088
59.325
62.483
65.541
68.476
71.268
73.896
76.339
78.576
80.59
82.361
83.874
85.111
86.06
86.706
87.038
87.045
86.721
86.057
85.049
83.695
81.994
79.947
77.557
74.831
71.776
68.403
64.722
60.748
56.498
51.987
47.237
42.266
37.097
31.753
26.257
20.635
14.912
9.112
3.262
-2.613
-8.487
-14.336
-20.136
-25.862
-31.492
-37.003
-42.375
-47.587
-52.621
-57.46
-62.086
-66.486
-70.646
-74.556
-78.205
-81.586
-84.692
-87.52
-90.067
-92.331
-94.314
-96.018
-97.448
-98.608
-99.507
-100.151
-100.552
-100.719
-100.663
-100.397
-99.934
-99.285
-98.465
-97.487
-96.364
-95.111
-93.74
-92.265
-90.699
-89.055
-87.344
-85.58
-83.772
-81.933
-80.071
-78.195
-76.316
-74.439
-72.574
-70.725
-68.898
-67.099
-65.33
-63.596
-61.898
-60.238
-58.616
-57.033
-55.489
-53.982
-52.511
-51.075
-49.672
-48.299
-46.955
-45.637
-44.342
-43.069
-41.815
-40.577
-39.354
-38.144
-36.944
-35.754
-34.571
-33.395
-32.224
-31.056
-29.892
-28.729
-27.567
-26.405
-25.242
-24.078
-22.911
-21.742
-20.57
-19.395
-18.216
-17.033
-15.845
-14.651
-13.45
-12.241
-11.023
-9.795
-8.556
-7.303
-6.036
-4.752
-3.45
-2.126
-0.779
0.594
1.996
3.43
4.897
6.4
7.941
9.521
11.14
12.8
14.5
16.24
18.017
19.83
21.676
23.552
25.452
27.372
29.305
31.243
33.177
35.095
36.986
38.835
40.628
42.351
43.988
45.524
46.944
48.233
49.379
50.366
51.181
51.807
52.229
52.431
52.399
52.122
51.588
50.788
49.72
48.383
46.78
44.909
42.76
40.329
37.608
34.596
31.294
27.708
23.855
19.762
15.473
11.036
6.502
1.92
-2.669
-7.224
-11.698
-16.038
-20.171
-24.032
-27.559
-30.695
-33.386
-35.594
-37.32
-38.607
-39.551
-40.254
-40.794
-41.256
-41.737
-42.366
-43.287
-44.642
-46.518
-49.024
-52.367
-56.683
-61.974
-68.033
-74.331
-80.265
-85.344
-89.028
-90.622
-89.64
-85.966
-80.121
-73.444
-67.296
-62.839
-61.175
-63.377
-70.415
-81.166
-91.93
-98.492
-95.972
-83.554
-65.383
-41.233
-9.371
36.59
110.843
218.146
357.666
524.03
699.483
869.254
1017.699
1125.781
1181.178
1172.785
1097.903
963.932
782.818
574.242
358.261
155.33
-11.937
-128.444
-186.587
-187.513
-148.345
-91.615
-38.689
-10.337
-11.461
-34.991
-70.011
-99.142
-114.207
-117.083
-112.359
-108.866
-110.445
-115.041
-119.905
-121.685
-119.345
-114.133
-107.27
-99.864
-92.699
-86.255
-81.094
-77.574
-75.736
-75.473
-76.591
-78.924
-82.327
-86.599
-91.49
-96.788
-102.325
-107.924
-113.418
-118.62
-123.334
-127.433
-130.851
-133.537
-135.484
-136.705
-137.225
-137.097
-136.393
-135.172
-133.498
-131.434
-129.037
-126.38
-123.539
-120.585
-117.585
-114.585
-111.605
-108.658
-105.744
-102.849
-99.956
-97.041
-94.071
-91.026
-87.887
-84.638
-81.266
-77.757
-74.094
-70.267
-66.262
-62.074
-57.699
-53.137
-48.391
-43.468
-38.378
-33.132
-27.746
-22.233
-16.609
-10.887
-5.084
0.784
6.696
12.632
18.572
24.493
30.369
36.175
41.884
47.47
52.905
58.162
63.214
68.035
72.599
76.881
80.855
84.501
87.794
90.717
93.25
95.378
97.085
98.36
99.194
99.579
99.51
98.986
98.007
96.575
94.696
92.378
89.632
86.471
82.91
78.968
74.664
70.02
65.061
59.813
54.302
48.558
42.61
36.489
30.226
23.854
17.404
10.909
4.4
-2.089
-8.529
-14.889
-21.139
-27.252
-33.201
-38.96
-44.507
-49.819
-54.876
-59.66
-64.155
-68.347
-72.224
-75.778
-79.001
-81.887
-84.435
-86.644
-88.515
-90.051
-91.258
-92.143
-92.714
-92.981
-92.956
-92.65
-92.08
-91.258
-90.202
-88.927
-87.451
-85.792
-83.968
-81.996
-79.894
-77.68
-75.371
-72.985
-70.539
-68.048
-65.528
-62.994
-60.459
-57.937
-55.439
-52.977
-50.559
-48.195
-45.891
-43.655
-41.492
-39.407
-37.403
-35.484
-33.652
-31.908
-30.255
-28.691
-27.217
-25.832
-24.535
-23.324
-22.199
-21.157
-20.196
-19.315
-18.512
-17.784
-17.131
-16.55
-16.041
-15.601
-15.229
-14.925
-14.687
-14.516
-14.411
-14.372
-14.398
-14.49
-14.649
-14.873
-15.164
-15.521
-15.944
-16.433
-16.987
-17.604
-18.285
-19.027
-19.828
-20.685
-21.597
-22.558
-23.565
-24.613
-25.698
-26.814
-27.955
-29.115
-30.288
-31.465
-32.641
-33.807
-34.956
-36.079
-37.168
-38.216
-39.215
-40.158
-41.039
-41.85
-42.587
-43.245
-43.821
-44.313
-44.717
-45.034
-45.263
-45.407
-45.468
-45.452
-45.363
-45.21
-45.005
-44.76
-44.488
-44.206
-43.93
-43.676
-43.464
-43.311
-43.233
-43.244
-43.363
-43.605
-43.99
-44.539
-45.268
-46.193
-47.329
-48.692
-50.292
-52.141
-54.235
-56.577
-59.166
-62.011
-65.128
-68.533
-72.231
-76.226
-80.516
-85.091
-89.94
-95.033
-100.323
-105.756
-111.279
-116.846
-122.423
-127.971
-133.435
-138.748
-143.824
-148.584
-152.966
-156.915
-160.382
-163.343
-165.803
-167.806
-169.439
-170.803
-171.999
-173.137
-174.345
-175.754
-177.483
-179.68
-182.538
-186.212
-190.783
-196.169
-202.034
-207.961
-213.545
-218.286
-221.591
-222.963
-222.058
-219.083
-215.047
-211.12
-208.354
-207.94
-210.905
-218.007
-229.974
-245.038
-258.662
-266.874
-265.341
-253.33
-234.876
-209.261
-173.657
-121.531
-40.331
73.039
215.406
379.42
548.774
711.423
854.938
963.558
1024.262
1022.586
952.03
816.239
627.395
408.628
185.231
-17.086
-176.682
-282.862
-336.634
-347.769
-328.931
-294.258
-251.972
-209.303
-177.542
-160.408
-159.643
-172.509
-187.082
-197.731
-203.364
-204.501
-206.589
-211.413
-217.174
-222.434
-224.853
-223.536
-219.186
-212.782
-205.823
-199.486
-194.479
-191.19
-189.57
-189.554
-191.177
-194.23
-198.315
-203.051
-208.032
-212.981
-217.78
-222.253
-226.172
-229.391
-231.822
-233.425
-234.219
-234.204
-233.361
-231.711
-229.3
-226.186
-222.44
-218.12
-213.279
-207.984
-202.314
-196.353
-190.186
-183.874
-177.458
-170.967
-164.415
-157.809
-151.148
-144.418
-137.597
-130.67
-123.621
-116.442
-109.127
-101.666
-94.05
-86.269
-78.314
-70.182
-61.872
-53.387
-44.728
-35.906
-26.93
-17.818
-8.586
0.746
10.161
19.639
29.158
38.694
48.226
57.73
67.183
76.56
85.834
94.981
103.974
112.79
121.399
129.772
137.878
145.685
153.162
160.278
167.001
173.3
179.144
184.509
189.376
193.726
197.54
200.795
203.466
205.539
207.009
207.878
208.151
207.838
206.957
205.544
203.652
201.334
198.631
195.566
192.152
188.406
184.351
180.01
175.409
170.551
165.435
160.07
154.476
148.669
142.648
136.383
129.812
122.889
115.611
108.006
100.131
92.041
83.8
75.488
67.209
59.106
51.307
43.913
36.997
30.633
24.916
19.977
15.977
13.041
11.241
10.608
11.139
12.831
15.648
19.515
24.306
29.852
36.003
42.65
49.708
57.089
64.684
72.353
79.937
87.313
94.388
101.09
107.36
113.138
118.394
123.135
127.411
131.304
134.865
138.116
141.064
143.712
146.075
148.184
150.066
151.731
153.18
154.42
155.459
156.309
156.972
157.43
157.645
157.579
157.206
156.521
155.526
154.23
152.642
150.772
148.642
146.283
143.724
140.989
138.101
135.079
131.948
128.738
125.482
122.212
118.956
115.738
112.583
109.511
106.543
103.693
100.973
98.391
95.955
93.676
91.562
89.62
87.858
86.281
84.892
83.695
82.691
81.88
81.258
80.822
80.565
80.481
80.563
80.802
81.189
81.713
82.365
83.132
84.005
84.97
86.016
87.132
88.304
89.523
90.777
92.055
93.349
94.648
95.944
97.229
98.495
99.734
100.939
102.103
103.217
104.276
105.273
106.201
107.053
107.825
108.509
109.1
109.593
109.981
110.259
110.42
110.454
110.356
110.116
109.727
109.18
108.466
107.579
106.513
105.261
103.82
102.183
100.347
98.304
96.048
93.574
90.877
87.955
84.804
81.425
77.824
74.006
69.981
65.751
61.313
56.666
51.809
46.744
41.477
36.021
30.395
24.63
18.772
12.868
6.968
1.114
-4.656
-10.306
-15.797
-21.076
-26.082
-30.755
-35.039
-38.887
-42.251
-45.109
-47.481
-49.422
-51.037
-52.428
-53.667
-54.832
-56.025
-57.35
-58.92
-60.854
-63.204
-66.088
-69.741
-74.269
-79.649
-85.673
-91.809
-97.495
-102.317
-105.686
-106.846
-105.382
-101.25
-94.917
-87.614
-80.718
-75.311
-72.59
-74.08
-79.5
-86.575
-93.062
-95.411
-93.162
-90.041
-85.067
-73.994
-47.651
8.192
98.277
218.494
359.115
505.305
649.042
786.184
908.753
1006.117
1060.801
1055.35
984.083
851.09
671.618
468.419
262.592
74.879
-77.631
-184.98
-244.728
-262.039
-247.345
-214.263
-173.731
-135.831
-108.381
-91.688
-83.12
-76.178
-64.364
-47.891
-31.001
-19.651
-17.554
-24.156
-36.641
-51.545
-66.99
-81.91
-94.743
-104.723
-111.565
-115.213
-116.389
-115.759
-113.605
-110.667
-108.099
-106.619
-106.61
-108.146
-110.831
-114.324
-118.415
-122.696
-126.676
-130.044
-132.617
-134.352
-135.364
-135.723
-135.465
-134.668
-133.408
-131.745
-129.725
-127.37
-124.696
-121.747
-118.593
-115.309
-111.955
-108.569
-105.176
-101.79
-98.421
-95.072
-91.733
-88.387
-85.026
-81.648
-78.25
-74.83
-71.38
-67.886
-64.337
-60.718
-57.014
-53.218
-49.323
-45.323
-41.22
-37.014
-32.712
-28.32
-23.844
-19.289
-14.662
-9.968
-5.218
-0.419
4.416
9.276
14.147
19.011
23.853
28.652
33.391
38.049
42.607
47.044
51.339
55.471
59.42
63.166
66.689
69.968
72.986
75.724
78.165
80.293
82.094
83.555
84.665
85.416
85.8
85.811
85.448
84.709
83.594
82.107
80.253
78.038
75.471
72.564
69.329
65.781
61.937
57.815
53.435
48.818
43.985
38.961
33.767
28.428
22.968
17.411
11.781
6.103
0.4
-5.303
-10.984
-16.62
-22.191
-27.676
-33.055
-38.311
-43.427
-48.389
-53.181
-57.791
-62.207
-66.421
-70.422
-74.204
-77.762
-81.09
-84.187
-87.051
-89.682
-92.082
-94.252
-96.197
-97.92
-99.428
-100.725
-101.819
-102.717
-103.427
-103.957
-104.316
-104.514
-104.56
-104.463
-104.233
-103.879
-103.411
-102.838
-102.169
-101.413
-100.579
-99.675
-98.711
-97.695
-96.635
-95.538
-94.413
-93.266
-92.104
-90.935
-89.763
-88.595
-87.436
-86.293
-85.169
-84.07
-83
-81.964
-80.965
-80.007
-79.094
-78.227
-77.41
-76.645
-75.935
-75.281
-74.686
-74.152
-73.679
-73.27
-72.926
-72.647
-72.435
-72.289
-72.21
-72.196
-72.248
-72.365
-72.545
-72.786
-73.087
-73.445
-73.858
-74.32
-74.83
-75.381
-75.97
-76.591
-77.238
-77.905
-78.588
-79.28
-79.975
-80.667
-81.349
-82.016
-82.66
-83.274
-83.852
-84.385
-84.867
-85.291
-85.649
-85.936
-86.143
-86.265
-86.295
-86.227
-86.056
-85.777
-85.383
-84.87
-84.236
-83.477
-82.592
-81.58
-80.442
-79.178
-77.792
-76.288
-74.669
-72.941
-71.109
-69.181
-67.165
-65.068
-62.9
-60.671
-58.393
-56.081
-53.75
-51.417
-49.097
-46.811
-44.575
-42.409
-40.331
-38.355
-36.497
-34.772
-33.194
-31.779
-30.546
-29.509
-28.682
-28.077
-27.703
-27.571
-27.685
-28.042
-28.637
-29.466
-30.531
-31.845
-33.42
-35.261
-37.372
-39.752
-42.389
-45.27
-48.366
-51.63
-55.013
-58.466
-61.945
-65.417
-68.851
-72.197
-75.399
-78.382
-81.068
-83.4
-85.321
-86.783
-87.787
-88.354
-88.549
-88.478
-88.222
-87.868
-87.536
-87.331
-87.364
-87.762
-88.6
-90.027
-92.339
-95.683
-100.026
-105.175
-110.603
-115.751
-120.252
-123.515
-124.665
-123.249
-119.386
-113.668
-107.552
-102.654
-99.985
-100.768
-106.818
-117.735
-130.515
-142.248
-148.505
-148.422
-146.642
-142.645
-131.641
-103.85
-44.364
52.285
181.453
332.754
491.626
647.642
792.305
913.756
997.982
1028.684
994.676
896.293
741.537
547.957
338.846
135.672
-38.275
-166.392
-245.468
-278.852
-278.569
-258.886
-226.801
-188.658
-151.355
-119.574
-98.671
-89.909
-87.149
-84.804
-80.293
-74.322
-72.185
-77.183
-88.483
-103.116
-116.724
-126.725
-132.527
-134.262
-132.564
-128.029
-121.381
-113.833
-106.698
-100.816
-96.711
-94.582
-94.349
-95.895
-98.955
-103.059
-107.633
-112.249
-116.611
-120.525
-123.94
-126.804
-129.071
-130.756
-131.899
-132.529
-132.676
-132.359
-131.581
-130.359
-128.732
-126.738
-124.44
-121.898
-119.171
-116.318
-113.376
-110.369
-107.311
-104.207
-101.053
-97.839
-94.545
-91.148
-87.627
-83.966
-80.149
-76.159
-71.977
-67.586
-62.971
-58.121
-53.029
-47.694
-42.114
-36.292
-30.238
-23.961
-17.477
-10.803
-3.958
3.04
10.17
17.409
24.733
32.115
39.529
46.946
54.336
61.669
68.912
76.032
82.995
89.769
96.32
102.615
108.623
114.312
119.652
124.616
129.176
133.307
136.987
140.197
142.917
145.135
146.837
148.016
148.666
148.785
148.375
147.44
145.989
144.034
141.589
138.673
135.306
131.513
127.319
122.755
117.849
112.637
107.153
101.433
95.515
89.438
83.24
76.961
70.641
64.319
58.032
51.819
45.716
39.758
33.979
28.411
23.082
18.022
13.253
8.8
4.68
0.912
-2.491
-5.519
-8.164
-10.421
-12.289
-13.769
-14.866
-15.585
-15.937
-15.933
-15.588
-14.918
-13.942
-12.679
-11.151
-9.381
-7.393
-5.211
-2.862
-0.369
2.239
4.939
7.705
10.51
13.332
16.146
18.93
21.662
24.322
26.892
29.353
31.69
33.89
35.941
37.832
39.554
41.102
42.471
43.658
44.662
45.484
46.126
46.593
46.889
47.023
47.002
46.835
46.533
46.108
45.57
44.932
44.207
43.407
42.545
41.635
40.688
39.717
38.733
37.749
36.775
35.82
34.895
34.007
33.164
32.371
31.635
30.96
30.349
29.803
29.325
28.914
28.568
28.287
28.068
27.905
27.795
27.731
27.708
27.718
27.754
27.809
27.875
27.943
28.006
28.056
28.085
28.087
28.053
27.979
27.858
27.684
27.454
27.164
26.811
26.394
25.912
25.365
24.755
24.082
23.351
22.564
21.726
20.842
19.918
18.961
17.978
16.977
15.967
14.958
13.958
12.977
12.024
11.108
10.239
9.426
8.676
7.997
7.396
6.878
6.448
6.111
5.869
5.723
5.673
5.716
5.851
6.069
6.363
6.724
7.141
7.599
8.086
8.587
9.086
9.569
10.021
10.425
10.767
11.029
11.193
11.241
11.154
10.915
10.508
9.918
9.132
8.141
6.941
5.528
3.894
2.027
-0.086
-2.454
-5.082
-7.974
-11.124
-14.521
-18.139
-21.94
-25.879
-29.909
-33.989
-38.083
-42.153
-46.162
-50.054
-53.764
-57.228
-60.387
-63.192
-65.596
-67.565
-69.103
-70.256
-71.12
-71.788
-72.333
-72.82
-73.332
-73.97
-74.843
-76.066
-77.707
-79.881
-82.824
-86.646
-91.32
-96.666
-102.201
-107.384
-111.788
-114.81
-115.649
-113.874
-109.479
-102.903
-95.294
-88.004
-82.157
-79.053
-80.348
-85.661
-92.281
-97.675
-98.354
-94.561
-91.263
-88.022
-79.99
-56.33
-0.447
93.921
222.253
373.222
529.149
677.876
813.052
925.813
1006.908
1046.348
1033.507
968.328
858.246
711.245
541.723
362.94
188.256
38.289
-72.69
-139.655
-166.061
-167.986
-161.813
-155.31
-150.146
-142.25
-127.211
-106.416
-84.024
-64.448
-51.122
-44.645
-44.502
-49.816
-58.975
-70.303
-81.888
-91.937
-99.709
-104.957
-107.347
-106.918
-104.042
-99.313
-93.881
-88.99
-85.238
-82.917
-82.269
-83.256
-85.771
-89.65
-94.417
-99.468
-104.424
-109.008
-113.008
-116.376
-119.058
-120.986
-122.197
-122.755
-122.703
-122.094
-120.97
-119.34
-117.243
-114.734
-111.866
-108.717
-105.365
-101.877
-98.325
-94.756
-91.202
-87.683
-84.213
-80.792
-77.417
-74.072
-70.74
-67.407
-64.062
-60.694
-57.29
-53.833
-50.304
-46.69
-42.976
-39.154
-35.218
-31.162
-26.983
-22.684
-18.268
-13.739
-9.107
-4.377
0.444
5.348
10.326
15.37
20.468
25.61
30.782
35.971
41.162
46.337
51.478
56.566
61.581
66.503
71.312
75.985
80.502
84.841
88.983
92.906
96.59
100.016
103.164
106.018
108.562
110.78
112.659
114.187
115.356
116.158
116.588
116.641
116.316
115.613
114.534
113.081
111.261
109.079
106.546
103.671
100.466
96.947
93.129
89.028
84.664
80.056
75.224
70.191
64.977
59.606
54.1
48.483
42.778
37.009
31.199
25.371
19.548
13.751
8
2.316
-3.284
-8.782
-14.163
-19.412
-24.516
-29.461
-34.238
-38.836
-43.246
-47.462
-51.477
-55.287
-58.887
-62.275
-65.451
-68.415
-71.165
-73.706
-76.038
-78.166
-80.092
-81.822
-83.362
-84.716
-85.892
-86.897
-87.737
-88.42
-88.953
-89.344
-89.599
-89.726
-89.729
-89.617
-89.393
-89.064
-88.635
-88.11
-87.495
-86.793
-86.008
-85.143
-84.202
-83.186
-82.1
-80.944
-79.721
-78.432
-77.08
-75.667
-74.195
-72.665
-71.081
-69.443
-67.753
-66.015
-64.231
-62.402
-60.532
-58.624
-56.682
-54.709
-52.711
-50.693
-48.659
-46.616
-44.569
-42.526
-40.493
-38.476
-36.484
-34.523
-32.602
-30.729
-28.913
-27.16
-25.48
-23.88
-22.368
-20.952
-19.638
-18.433
-17.344
-16.375
-15.532
-14.819
-14.241
-13.801
-13.499
-13.338
-13.317
-13.436
-13.692
-14.081
-14.599
-15.241
-16.002
-16.873
-17.847
-18.914
-20.066
-21.291
-22.578
-23.915
-25.287
-26.682
-28.085
-29.483
-30.86
-32.202
-33.494
-34.723
-35.874
-36.932
-37.885
-38.718
-39.418
-39.973
-40.372
-40.604
-40.661
-40.536
-40.223
-39.716
-39.014
-38.116
-37.021
-35.732
-34.251
-32.584
-30.738
-28.721
-26.542
-24.216
-21.758
-19.184
-16.513
-13.766
-10.965
-8.134
-5.299
-2.486
0.282
2.984
5.597
8.098
10.465
12.674
14.704
16.538
18.156
19.537
20.662
21.511
22.074
22.359
22.366
22.097
21.545
20.693
19.53
18.057
16.272
14.174
11.769
9.058
6.071
2.867
-0.49
-3.926
-7.392
-10.871
-14.337
-17.758
-21.066
-24.145
-26.907
-29.297
-31.264
-32.799
-33.858
-34.336
-34.32
-34.06
-33.801
-33.865
-34.377
-35.16
-36.236
-37.825
-39.903
-42.369
-45.027
-47.337
-49.172
-50.927
-52.625
-54.05
-55.117
-55.545
-55.267
-54.814
-54.458
-54.149
-54.163
-55.049
-57.388
-61.892
-69.288
-78.679
-87.188
-92.109
-90.61
-81.711
-68.98
-54.449
-35.465
-6.031
45.521
129.754
247.475
394.481
561.859
736.014
905.994
1057.331
1170.255
1226.97
1213.5
1127.15
978.864
789.155
582.035
379.65
200.882
56.961
-45.807
-106.724
-131.274
-126.072
-101.93
-70.318
-42.848
-30.221
-34.634
-52.323
-73.745
-88.842
-94.814
-93.969
-92.024
-93.338
-97.585
-101.994
-103.509
-101.031
-95.367
-87.863
-79.795
-71.883
-64.665
-58.847
-54.828
-52.679
-52.287
-53.361
-55.668
-59.065
-63.337
-68.217
-73.468
-78.862
-84.189
-89.264
-93.874
-97.85
-101.087
-103.512
-105.103
-105.865
-105.823
-105.033
-103.571
-101.511
-98.922
-95.87
-92.422
-88.661
-84.681
-80.573
-76.426
-72.305
-68.249
-64.286
-60.428
-56.675
-53.015
-49.425
-45.875
-42.343
-38.815
-35.277
-31.719
-28.128
-24.487
-20.784
-17.006
-13.143
-9.189
-5.142
-0.999
3.236
7.558
11.96
16.432
20.964
25.55
30.181
34.851
39.549
44.265
48.988
53.706
58.406
63.071
67.685
72.228
76.683
81.029
85.247
89.316
93.216
96.928
100.431
103.706
106.734
109.497
111.98
114.166
116.04
117.59
118.803
119.669
120.18
120.329
120.11
119.519
118.556
117.218
115.51
113.432
110.992
108.196
105.053
101.573
97.768
93.653
89.244
84.557
79.612
74.428
69.027
63.432
57.665
51.75
45.711
39.571
33.356
27.087
20.791
14.488
8.203
1.957
-4.229
-10.335
-16.339
-22.225
-27.975
-33.572
-39.001
-44.249
-49.301
-54.148
-58.779
-63.184
-67.357
-71.289
-74.978
-78.417
-81.606
-84.543
-87.227
-89.662
-91.848
-93.792
-95.496
-96.967
-98.213
-99.239
-100.054
-100.666
-101.085
-101.318
-101.377
-101.27
-101.007
-100.599
-100.056
-99.387
-98.603
-97.714
-96.729
-95.658
-94.51
-93.294
-92.019
-90.694
-89.327
-87.926
-86.499
-85.053
-83.594
-82.13
-80.665
-79.205
-77.754
-76.316
-74.894
-73.492
-72.113
-70.759
-69.432
-68.134
-66.868
-65.634
-64.435
-63.272
-62.145
-61.056
-60.006
-58.996
-58.027
-57.1
-56.217
-55.379
-54.586
-53.842
-53.146
-52.5
-51.904
-51.362
-50.872
-50.437
-50.059
-49.739
-49.479
-49.282
-49.15
-49.084
-49.089
-49.165
-49.315
-49.541
-49.846
-50.23
-50.696
-51.245
-51.877
-52.593
-53.394
-54.279
-55.246
-56.294
-57.421
-58.622
-59.896
-61.236
-62.639
-64.099
-65.61
-67.166
-68.76
-70.384
-72.03
-73.69
-75.354
-77.011
-78.651
-80.264
-81.837
-83.358
-84.817
-86.2
-87.495
-88.69
-89.773
-90.731
-91.553
-92.226
-92.739
-93.083
-93.249
-93.228
-93.014
-92.6
-91.983
-91.159
-90.127
-88.885
-87.435
-85.779
-83.922
-81.87
-79.629
-77.21
-74.624
-71.885
-69.009
-66.012
-62.913
-59.733
-56.498
-53.234
-49.968
-46.725
-43.53
-40.409
-37.388
-34.495
-31.755
-29.19
-26.822
-24.673
-22.768
-21.133
-19.788
-18.744
-18.002
-17.56
-17.419
-17.587
-18.08
-18.907
-20.07
-21.572
-23.414
-25.602
-28.134
-30.991
-34.124
-37.472
-40.983
-44.622
-48.389
-52.293
-56.311
-60.377
-64.394
-68.257
-71.894
-75.29
-78.385
-81.069
-83.333
-85.238
-87.02
-89.117
-91.759
-94.918
-98.537
-102.502
-106.623
-110.844
-114.83
-117.75
-119.206
-119.173
-117.705
-115.295
-112.373
-108.925
-105.293
-102.44
-100.806
-100.756
-102.784
-106.58
-112.104
-119.764
-129.175
-139.573
-150.655
-161.426
-170.076
-174.204
-169.602
-152.209
-120.467
-76.755
-25.233
31.042
91.889
164.958
258.567
376.479
518.1
670.686
816.224
936.948
1015.252
1040.497
1008.127
919.867
783.278
611.812
424.858
242.538
86.341
-28.827
-99.561
-129.543
-131.929
-119.628
-101.184
-84.348
-71.16
-64.08
-64.494
-68.429
-73.378
-76.038
-75.113
-74.431
-75.953
-80.196
-86.239
-90.62
-91.73
-89.865
-85.657
-80.388
-74.939
-69.658
-65.124
-61.962
-60.445
-60.568
-62.149
-64.887
-68.53
-72.912
-77.808
-82.956
-88.131
-93.126
-97.744
-101.816
-105.2
-107.785
-109.504
-110.321
-110.221
-109.214
-107.338
-104.651
-101.216
-97.091
-92.33
-86.987
-81.133
-74.85
-68.226
-61.348
-54.282
-47.072
-39.754
-32.352
-24.882
-17.352
-9.759
-2.089
5.659
13.484
21.377
29.327
37.328
45.376
53.464
61.586
69.73
77.883
86.03
94.153
102.234
110.249
118.175
125.986
133.657
141.168
148.5
155.632
162.547
169.225
175.649
181.803
187.669
193.232
198.474
203.378
207.931
212.116
215.922
219.336
222.346
224.942
227.115
228.857
230.162
231.024
231.439
231.405
230.921
229.988
228.609
226.787
224.528
221.841
218.734
215.22
211.309
207.017
202.359
197.35
192.009
186.355
180.407
174.185
167.712
161.008
154.096
147
139.744
132.351
124.846
117.252
109.594
101.896
94.182
86.475
78.797
71.172
63.621
56.164
48.821
41.612
34.553
27.661
20.951
14.437
8.13
2.041
-3.822
-9.45
-14.839
-19.984
-24.883
-29.533
-33.934
-38.087
-41.995
-45.66
-49.087
-52.28
-55.246
-57.991
-60.523
-62.851
-64.984
-66.93
-68.7
-70.303
-71.751
-73.055
-74.224
-75.271
-76.205
-77.037
-77.778
-78.437
-79.025
-79.55
-80.019
-80.441
-80.822
-81.168
-81.484
-81.774
-82.041
-82.289
-82.519
-82.733
-82.932
-83.116
-83.286
-83.439
-83.575
-83.693
-83.791
-83.866
-83.916
-83.938
-83.93
-83.89
-83.813
-83.699
-83.543
-83.344
-83.1
-82.807
-82.465
-82.073
-81.63
-81.135
-80.59
-79.995
-79.352
-78.664
-77.933
-77.163
-76.357
-75.521
-74.659
-73.776
-72.877
-71.969
-71.058
-70.151
-69.253
-68.371
-67.513
-66.685
-65.893
-65.145
-64.446
-63.803
-63.222
-62.707
-62.266
-61.901
-61.618
-61.42
-61.311
-61.291
-61.362
-61.525
-61.778
-62.122
-62.552
-63.067
-63.663
-64.334
-65.077
-65.886
-66.754
-67.675
-68.64
-69.643
-70.675
-71.727
-72.788
-73.85
-74.903
-75.937
-76.941
-77.905
-78.819
-79.672
-80.455
-81.157
-81.769
-82.281
-82.684
-82.97
-83.131
-83.161
-83.056
-82.81
-82.421
-81.886
-81.205
-80.377
-79.406
-78.291
-77.036
-75.646
-74.125
-72.48
-70.719
-68.849
-66.884
-64.835
-62.719
-60.551
-58.347
-56.126
-53.904
-51.7
-49.531
-47.411
-45.354
-43.376
-41.494
-39.725
-38.085
-36.588
-35.246
-34.073
-33.078
-32.272
-31.66
-31.239
-31.008
-30.971
-31.137
-31.529
-32.16
-33.039
-34.166
-35.544
-37.165
-39.023
-41.089
-43.313
-45.642
-48.025
-50.417
-52.789
-55.097
-57.283
-59.276
-60.992
-62.355
-63.322
-63.858
-63.926
-63.524
-62.666
-61.401
-59.856
-58.17
-56.481
-54.953
-53.722
-52.898
-52.644
-53.165
-54.617
-57.103
-60.546
-64.631
-69.042
-73.51
-77.669
-81.068
-83.259
-83.853
-82.942
-81.344
-79.929
-79.366
-80.469
-83.929
-90.269
-100.217
-112.259
-122.174
-126.479
-121.691
-108.03
-90.634
-69.885
-42.976
-2.391
65.561
165.324
294.204
444.47
600.115
750.005
883.57
987.014
1048.151
1052.918
994.237
875.664
710.284
519.952
326.421
150.68
8.43
-92.914
-151.218
-174.268
-174.057
-161.92
-148.916
-138.104
-129.22
-121.948
-112.375
-100.576
-87.328
-71.522
-56.424
-43.852
-34.254
-29.432
-27.91
-27.937
-29.726
-33.09
-38.189
-45.127
-52.607
-59.235
-64.569
-68.479
-70.882
-71.916
-71.625
-70.246
-68.663
-67.674
-67.588
-68.492
-70.216
-72.452
-75.017
-77.658
-79.941
-81.571
-82.414
-82.411
-81.662
-80.284
-78.331
-75.883
-73.036
-69.842
-66.355
-62.623
-58.675
-54.566
-50.366
-46.125
-41.882
-37.665
-33.482
-29.338
-25.233
-21.149
-17.07
-12.982
-8.88
-4.766
-0.639
3.505
7.676
11.884
16.14
20.451
24.827
29.273
33.793
38.385
43.046
47.768
52.544
57.368
62.234
67.138
72.073
77.033
82.009
86.993
91.976
96.944
101.884
106.779
111.615
116.374
121.038
125.59
130.012
134.283
138.387
142.303
146.013
149.5
152.743
155.726
158.431
160.842
162.946
164.727
166.173
167.275
168.022
168.408
168.427
168.074
167.347
166.246
164.772
162.927
160.716
158.146
155.224
151.961
148.369
144.462
140.256
135.767
131.015
126.019
120.799
115.379
109.781
104.028
98.143
92.152
86.078
79.947
73.78
67.604
61.439
55.309
49.235
43.238
37.335
31.547
25.888
20.376
15.024
9.847
4.855
0.059
-4.53
-8.905
-13.06
-16.988
-20.686
-24.151
-27.381
-30.377
-33.139
-35.671
-37.975
-40.057
-41.921
-43.575
-45.026
-46.281
-47.35
-48.242
-48.965
-49.529
-49.944
-50.22
-50.365
-50.39
-50.302
-50.111
-49.825
-49.452
-49
-48.476
-47.888
-47.242
-46.544
-45.803
-45.022
-44.21
-43.37
-42.51
-41.633
-40.744
-39.849
-38.95
-38.051
-37.156
-36.268
-35.389
-34.521
-33.667
-32.828
-32.006
-31.203
-30.421
-29.66
-28.924
-28.213
-27.531
-26.878
-26.257
-25.672
-25.123
-24.615
-24.15
-23.73
-23.359
-23.038
-22.77
-22.557
-22.4
-22.299
-22.257
-22.274
-22.351
-22.487
-22.684
-22.941
-23.258
-23.635
-24.073
-24.57
-25.125
-25.739
-26.41
-27.136
-27.917
-28.751
-29.635
-30.569
-31.549
-32.572
-33.636
-34.736
-35.867
-37.026
-38.207
-39.406
-40.616
-41.834
-43.055
-44.273
-45.484
-46.684
-47.868
-49.032
-50.17
-51.28
-52.354
-53.389
-54.38
-55.322
-56.209
-57.038
-57.804
-58.501
-59.125
-59.671
-60.134
-60.508
-60.79
-60.974
-61.057
-61.034
-60.903
-60.663
-60.311
-59.845
-59.265
-58.571
-57.763
-56.843
-55.811
-54.669
-53.421
-52.069
-50.62
-49.077
-47.447
-45.735
-43.951
-42.108
-40.216
-38.293
-36.355
-34.419
-32.503
-30.624
-28.796
-27.034
-25.35
-23.755
-22.263
-20.889
-19.647
-18.555
-17.629
-16.88
-16.314
-15.93
-15.717
-15.667
-15.775
-16.042
-16.481
-17.106
-17.927
-18.962
-20.225
-21.719
-23.438
-25.35
-27.404
-29.562
-31.801
-34.128
-36.559
-39.071
-41.623
-44.14
-46.521
-48.716
-50.656
-52.213
-53.354
-54.129
-54.674
-55.353
-56.505
-58.189
-60.45
-63.291
-66.405
-69.511
-72.204
-73.68
-73.471
-71.678
-68.482
-64.303
-59.923
-55.869
-52.796
-51.759
-53.16
-56.763
-62.247
-69.131
-76.884
-85.285
-94.104
-102.858
-111.466
-120.457
-129.398
-136.056
-138.101
-133.125
-120.687
-104.639
-87.2
-66.035
-35.117
16.782
98.935
211.274
348.478
500.563
654.928
803.042
934.104
1033.264
1085.814
1077.865
1005.182
875.126
703.641
511.831
319.277
144.181
1.032
-101.362
-161.152
-185.649
-187.44
-179.477
-168.86
-156.709
-141.193
-119.803
-94.309
-68.823
-47.182
-33.004
-27.414
-29.433
-37.57
-49.486
-62.699
-75.449
-86.279
-94.227
-98.842
-99.983
-97.918
-93.41
-87.525
-81.345
-75.925
-71.935
-69.712
-69.429
-70.994
-74.163
-78.583
-83.769
-89.151
-94.316
-98.975
-102.946
-106.196
-108.696
-110.424
-111.413
-111.721
-111.403
-110.515
-109.094
-107.154
-104.729
-101.872
-98.654
-95.163
-91.487
-87.703
-83.868
-80.019
-76.186
-72.386
-68.628
-64.913
-61.23
-57.56
-53.893
-50.223
-46.544
-42.849
-39.125
-35.354
-31.522
-27.618
-23.633
-19.564
-15.408
-11.163
-6.832
-2.42
2.065
6.614
11.22
15.876
20.575
25.309
30.069
34.845
39.625
44.399
49.154
53.874
58.544
63.146
67.664
72.08
76.375
80.532
84.53
88.351
91.976
95.388
98.567
101.497
104.16
106.541
108.626
110.4
111.852
112.971
113.749
114.178
114.252
113.969
113.325
112.321
110.957
109.237
107.165
104.749
101.996
98.916
95.521
91.825
87.842
83.59
79.085
74.349
69.4
64.26
58.952
53.499
47.923
42.249
36.5
30.701
24.874
19.044
13.232
7.462
1.753
-3.872
-9.396
-14.799
-20.065
-25.178
-30.123
-34.886
-39.457
-43.822
-47.974
-51.903
-55.602
-59.064
-62.286
-65.264
-67.995
-70.478
-72.714
-74.704
-76.45
-77.956
-79.227
-80.267
-81.083
-81.682
-82.072
-82.26
-82.256
-82.068
-81.706
-81.179
-80.498
-79.671
-78.708
-77.618
-76.412
-75.096
-73.682
-72.176
-70.588
-68.927
-67.2
-65.415
-63.582
-61.706
-59.797
-57.861
-55.905
-53.935
-51.958
-49.981
-48.008
-46.045
-44.098
-42.17
-40.268
-38.395
-36.554
-34.749
-32.984
-31.261
-29.583
-27.953
-26.374
-24.847
-23.375
-21.961
-20.607
-19.316
-18.09
-16.931
-15.841
-14.821
-13.873
-12.999
-12.199
-11.476
-10.829
-10.259
-9.768
-9.355
-9.021
-8.765
-8.588
-8.488
-8.466
-8.52
-8.65
-8.855
-9.135
-9.487
-9.912
-10.407
-10.973
-11.607
-12.307
-13.071
-13.897
-14.782
-15.723
-16.717
-17.759
-18.848
-19.977
-21.143
-22.341
-23.567
-24.814
-26.077
-27.351
-28.629
-29.906
-31.175
-32.431
-33.667
-34.876
-36.054
-37.193
-38.286
-39.327
-40.308
-41.222
-42.062
-42.819
-43.488
-44.061
-44.531
-44.892
-45.137
-45.259
-45.255
-45.117
-44.842
-44.425
-43.862
-43.152
-42.294
-41.285
-40.127
-38.82
-37.366
-35.767
-34.027
-32.151
-30.144
-28.011
-25.761
-23.4
-20.94
-18.391
-15.765
-13.076
-10.339
-7.572
-4.796
-2.034
0.691
3.355
5.937
8.417
10.774
12.991
15.049
16.933
18.631
20.128
21.41
22.457
23.254
23.793
24.074
24.107
23.904
23.472
22.808
21.903
20.748
19.338
17.666
15.715
13.471
10.93
8.115
5.084
1.894
-1.41
-4.81
-8.321
-11.943
-15.626
-19.292
-22.839
-26.158
-29.207
-31.926
-34.167
-35.899
-37.19
-38.212
-39.411
-41.19
-43.631
-46.792
-50.684
-54.946
-59.292
-63.407
-66.399
-67.63
-67.013
-64.37
-60.019
-54.996
-49.909
-45.343
-42.526
-42.12
-44.513
-50.7
-60.71
-73.635
-89.26
-107.112
-126.299
-146.925
-167.069
-181.805
-187.921
-182.822
-167.421
-148.071
-126.085
-97.576
-53.37
20.573
129.657
269.78
430.487
596.791
758.015
905.768
1028.83
1114.025
1145.89
1113.729
1018.28
869.464
685.174
485.674
290.297
117.56
-18.926
-109.859
-155.211
-162.677
-140.69
-102.794
-59.705
-20.843
0.346
0.012
-20.329
-53.95
-85.894
-108.686
-120.839
-124.1
-125.383
-127.157
-128.461
-128.492
-125.262
-118.705
-110.426
-101.519
-93.107
-86.056
-80.541
-76.63
-74.318
-73.383
-73.657
-75.032
-77.349
-80.443
-84.154
-88.316
-92.787
-97.414
-102.017
-106.393
-110.337
-113.702
-116.41
-118.421
-119.722
-120.328
-120.259
-119.557
-118.291
-116.521
-114.308
-111.714
-108.795
-105.621
-102.27
-98.819
-95.343
-91.896
-88.501
-85.174
-81.915
-78.713
-75.556
-72.424
-69.284
-66.117
-62.905
-59.634
-56.294
-52.875
-49.36
-45.737
-41.996
-38.128
-34.129
-30.001
-25.743
-21.361
-16.862
-12.255
-7.553
-2.768
2.091
7.012
11.984
16.994
22.028
27.071
32.107
37.119
42.088
46.994
51.816
56.532
61.122
65.564
69.838
73.923
77.798
81.445
84.846
87.983
90.842
93.407
95.667
97.61
99.226
100.508
101.45
102.047
102.297
102.199
101.756
100.97
99.846
98.391
96.613
94.524
92.134
89.458
86.511
83.309
79.871
76.215
72.363
68.336
64.155
59.843
55.424
50.92
46.354
41.748
37.124
32.504
27.908
23.357
18.869
14.463
10.156
5.964
1.901
-2.019
-5.784
-9.383
-12.805
-16.044
-19.092
-21.944
-24.594
-27.04
-29.281
-31.316
-33.145
-34.771
-36.196
-37.426
-38.465
-39.32
-39.998
-40.506
-40.853
-41.048
-41.1
-41.019
-40.813
-40.494
-40.07
-39.552
-38.949
-38.271
-37.528
-36.729
-35.883
-34.999
-34.084
-33.147
-32.196
-31.237
-30.276
-29.321
-28.376
-27.447
-26.538
-25.654
-24.799
-23.974
-23.182
-22.426
-21.706
-21.023
-20.377
-19.767
-19.194
-18.656
-18.151
-17.68
-17.24
-16.829
-16.446
-16.089
-15.756
-15.444
-15.152
-14.878
-14.62
-14.376
-14.144
-13.923
-13.712
-13.51
-13.316
-13.129
-12.949
-12.774
-12.606
-12.443
-12.287
-12.138
-11.997
-11.866
-11.747
-11.642
-11.553
-11.483
-11.436
-11.413
-11.419
-11.456
-11.527
-11.637
-11.787
-11.982
-12.224
-12.516
-12.861
-13.262
-13.721
-14.24
-14.82
-15.462
-16.167
-16.935
-17.765
-18.657
-19.609
-20.619
-21.687
-22.808
-23.979
-25.197
-26.456
-27.752
-29.079
-30.43
-31.798
-33.175
-34.553
-35.922
-37.274
-38.599
-39.887
-41.128
-42.312
-43.429
-44.468
-45.419
-46.271
-47.015
-47.64
-48.138
-48.499
-48.715
-48.779
-48.685
-48.427
-48
-47.4
-46.624
-45.67
-44.539
-43.23
-41.745
-40.086
-38.259
-36.269
-34.124
-31.834
-29.407
-26.858
-24.203
-21.459
-18.644
-15.778
-12.884
-9.984
-7.1
-4.256
-1.472
1.231
3.832
6.31
8.642
10.805
12.776
14.535
16.06
17.334
18.338
19.057
19.487
19.623
19.458
18.984
18.18
17.027
15.516
13.638
11.392
8.784
5.829
2.56
-0.97
-4.701
-8.574
-12.537
-16.55
-20.564
-24.525
-28.368
-32.014
-35.386
-38.422
-41.056
-43.246
-45.001
-46.358
-47.407
-48.275
-49.054
-49.865
-50.86
-52.121
-53.7
-55.656
-58.025
-60.958
-64.755
-69.565
-75.358
-82.132
-89.831
-98.093
-106.332
-113.826
-119.404
-123.043
-126.265
-128.747
-129.576
-127.1
-117.002
-101.131
-85.764
-75.118
-76.001
-87.67
-102.668
-119.361
-133.068
-139.004
-133.273
-102.075
-34.138
72.149
211.255
367.404
524.292
673.745
811.977
933.823
1030.403
1088.531
1093.723
1042.067
939
793.436
620.977
435.575
251.241
87.895
-38.695
-118.936
-152.866
-153.102
-135.741
-114.665
-96.903
-83.578
-73.434
-63.279
-53.493
-45.287
-39.198
-39.187
-46.4
-59.483
-77.344
-95.927
-111.835
-124.224
-132.301
-135.8
-135.177
-130.852
-123.686
-115.328
-107.305
-100.391
-95.027
-91.523
-89.918
-90.199
-92.244
-95.526
-99.425
-103.593
-107.797
-111.869
-115.734
-119.233
-122.171
-124.491
-126.2
-127.293
-127.783
-127.659
-126.889
-125.5
-123.555
-121.117
-118.263
-115.053
-111.536
-107.775
-103.837
-99.792
-95.717
-91.661
-87.651
-83.706
-79.832
-76.03
-72.3
-68.626
-64.984
-61.351
-57.707
-54.038
-50.333
-46.582
-42.772
-38.888
-34.92
-30.858
-26.699
-22.441
-18.082
-13.624
-9.07
-4.428
0.294
5.084
9.935
14.835
19.777
24.748
29.736
34.727
39.706
44.657
49.563
54.404
59.16
63.808
68.329
72.7
76.898
80.904
84.694
88.247
91.545
94.567
97.295
99.713
101.804
103.555
104.953
105.988
106.65
106.935
106.836
106.351
105.48
104.226
102.591
100.581
98.206
95.474
92.398
88.991
85.27
81.251
76.953
72.398
67.607
62.603
57.409
52.051
46.553
40.942
35.242
29.478
23.677
17.862
12.058
6.289
0.576
-5.058
-10.592
-16.007
-21.285
-26.408
-31.363
-36.133
-40.708
-45.077
-49.229
-53.158
-56.858
-60.324
-63.554
-66.546
-69.3
-71.818
-74.103
-76.157
-77.987
-79.598
-80.997
-82.191
-83.189
-83.999
-84.631
-85.095
-85.399
-85.553
-85.569
-85.455
-85.223
-84.881
-84.441
-83.912
-83.304
-82.626
-81.888
-81.098
-80.265
-79.397
-78.501
-77.584
-76.652
-75.712
-74.767
-73.824
-72.885
-71.956
-71.038
-70.135
-69.248
-68.381
-67.534
-66.709
-65.907
-65.129
-64.376
-63.647
-62.945
-62.27
-61.621
-61
-60.407
-59.841
-59.302
-58.791
-58.307
-57.849
-57.416
-57.008
-56.624
-56.264
-55.926
-55.61
-55.317
-55.045
-54.794
-54.564
-54.356
-54.17
-54.005
-53.864
-53.746
-53.653
-53.586
-53.545
-53.534
-53.553
-53.603
-53.687
-53.804
-53.958
-54.148
-54.376
-54.643
-54.951
-55.3
-55.691
-56.126
-56.605
-57.128
-57.697
-58.311
-58.969
-59.672
-60.418
-61.206
-62.033
-62.897
-63.795
-64.725
-65.681
-66.659
-67.654
-68.659
-69.669
-70.674
-71.668
-72.64
-73.582
-74.485
-75.337
-76.129
-76.852
-77.493
-78.043
-78.491
-78.827
-79.041
-79.121
-79.059
-78.844
-78.47
-77.927
-77.21
-76.313
-75.23
-73.959
-72.497
-70.844
-68.999
-66.964
-64.742
-62.339
-59.76
-57.015
-54.112
-51.065
-47.887
-44.597
-41.214
-37.758
-34.252
-30.721
-27.187
-23.679
-20.22
-16.835
-13.545
-10.375
-7.347
-4.487
-1.821
0.63
2.842
4.796
6.474
7.856
8.931
9.694
10.142
10.271
10.075
9.537
8.64
7.381
5.757
3.771
1.437
-1.228
-4.19
-7.392
-10.777
-14.288
-17.869
-21.487
-25.101
-28.654
-32.086
-35.316
-38.262
-40.872
-43.089
-44.861
-46.186
-47.08
-47.607
-47.894
-48.038
-48.132
-48.296
-48.615
-49.183
-50.117
-51.473
-53.358
-55.996
-59.499
-63.866
-68.982
-74.432
-79.714
-84.418
-87.936
-89.45
-88.399
-84.578
-78.268
-70.432
-62.374
-55.314
-50.47
-49.523
-52.774
-58.057
-62.819
-63.739
-59.455
-53.806
-49.15
-42.543
-26.502
13.322
90.076
205.525
354.536
525.18
699.936
865.608
1007.44
1108.231
1155.423
1138.591
1056.456
918.336
738.624
536.451
331.542
143.016
-12.64
-123.374
-185.564
-205.774
-195.235
-171.2
-148.198
-132.35
-127.657
-129.261
-129.198
-125.051
-113.461
-95.599
-77.401
-61.06
-48.386
-40.473
-34.952
-30.516
-27.648
-26.823
-28.812
-34.053
-41.553
-49.492
-56.921
-63.462
-68.625
-72.241
-74.204
-74.346
-73.241
-72.047
-71.395
-71.526
-72.511
-74.068
-75.982
-78.192
-80.395
-82.129
-83.132
-83.27
-82.541
-81.12
-79.129
-76.617
-73.666
-70.365
-66.783
-62.998
-59.072
-55.039
-50.95
-46.85
-42.77
-38.74
-34.776
-30.876
-27.032
-23.222
-19.421
-15.615
-11.795
-7.959
-4.107
-0.228
3.686
7.645
11.658
15.733
19.876
24.097
28.401
32.785
37.248
41.781
46.375
51.025
55.724
60.466
65.244
70.05
74.874
79.705
84.532
89.341
94.115
98.837
103.488
108.05
112.502
116.827
121.003
125.01
128.83
132.443
135.83
138.974
141.855
144.459
146.768
148.769
150.448
151.793
152.793
153.441
153.729
153.652
153.208
152.395
151.213
149.665
147.756
145.492
142.881
139.933
136.659
133.074
129.191
125.03
120.607
115.942
111.057
105.973
100.713
95.299
89.753
84.1
78.362
72.561
66.72
60.862
55.007
49.176
43.39
37.667
32.025
26.481
21.051
15.749
10.588
5.58
0.736
-3.934
-8.422
-12.72
-16.823
-20.725
-24.423
-27.914
-31.196
-34.269
-37.133
-39.791
-42.244
-44.495
-46.548
-48.407
-50.077
-51.562
-52.867
-53.997
-54.959
-55.756
-56.396
-56.883
-57.223
-57.422
-57.484
-57.416
-57.223
-56.908
-56.478
-55.938
-55.292
-54.545
-53.703
-52.772
-51.755
-50.658
-49.488
-48.248
-46.944
-45.582
-44.166
-42.702
-41.195
-39.65
-38.073
-36.469
-34.845
-33.206
-31.559
-29.909
-28.262
-26.626
-25.006
-23.408
-21.84
-20.307
-18.816
-17.373
-15.986
-14.658
-13.398
-12.208
-11.096
-10.064
-9.118
-8.26
-7.494
-6.823
-6.249
-5.773
-5.398
-5.124
-4.951
-4.881
-4.912
-5.045
-5.278
-5.609
-6.036
-6.558
-7.171
-7.872
-8.658
-9.524
-10.468
-11.483
-12.566
-13.711
-14.913
-16.167
-17.467
-18.806
-20.18
-21.582
-23.006
-24.446
-25.897
-27.352
-28.805
-30.252
-31.685
-33.1
-34.49
-35.849
-37.171
-38.45
-39.68
-40.855
-41.968
-43.012
-43.983
-44.873
-45.678
-46.39
-47.005
-47.516
-47.918
-48.206
-48.375
-48.421
-48.338
-48.122
-47.771
-47.282
-46.652
-45.879
-44.962
-43.901
-42.695
-41.347
-39.858
-38.231
-36.469
-34.577
-32.562
-30.429
-28.189
-25.849
-23.422
-20.921
-18.362
-15.76
-13.133
-10.5
-7.878
-5.289
-2.751
-0.283
2.099
4.376
6.531
8.543
10.393
12.061
13.529
14.782
15.804
16.581
17.102
17.365
17.367
17.106
16.574
15.756
14.635
13.202
11.453
9.385
7.008
4.335
1.39
-1.782
-5.135
-8.625
-12.206
-15.851
-19.526
-23.188
-26.78
-30.226
-33.452
-36.397
-39.004
-41.222
-43.037
-44.453
-45.517
-46.319
-46.931
-47.431
-47.913
-48.468
-49.214
-50.286
-51.787
-53.872
-56.777
-60.632
-65.462
-71.092
-77.019
-82.681
-87.571
-91.054
-92.449
-91.325
-87.564
-81.75
-75.311
-69.795
-66.578
-66.906
-71.704
-81.404
-95.654
-112.496
-128.374
-139.184
-140.568
-128.342
-98.845
-48.6
23.776
115.588
221.814
336.026
453.609
574.862
700.119
825.619
940.411
1025.862
1061.185
1031.801
935.093
778.368
580.566
367.561
163.769
-5.8
-125.675
-195.101
-220.213
-214.738
-192.081
-158.148
-119.203
-83.123
-56.77
-46.682
-52.356
-64.569
-75.054
-79.621
-79.062
-79.421
-83.971
-91.447
-99.651
-105.585
-107.933
-107.349
-104.231
-99.113
-92.986
-87.016
-82.099
-78.691
-76.813
-76.258
-77.074
-79.331
-82.789
-86.956
-91.345
-95.611
-99.553
-103.086
-106.08
-108.387
-109.943
-110.76
-110.88
-110.347
-109.198
-107.457
-105.157
-102.354
-99.106
-95.479
-91.549
-87.397
-83.107
-78.767
-74.439
-70.166
-65.98
-61.899
-57.932
-54.078
-50.323
-46.641
-43.019
-39.444
-35.905
-32.387
-28.874
-25.342
-21.777
-18.161
-14.482
-10.729
-6.892
-2.964
1.057
5.171
9.376
13.665
18.036
22.485
27.008
31.6
36.255
40.965
45.721
50.516
55.337
60.17
65.001
69.813
74.588
79.308
83.954
88.505
92.94
97.239
101.38
105.341
109.102
112.639
115.934
118.964
121.713
124.16
126.291
128.09
129.543
130.64
131.37
131.728
131.706
131.302
130.513
129.341
127.789
125.86
123.562
120.901
117.89
114.541
110.867
106.885
102.612
98.068
93.273
88.249
83.018
77.605
72.033
66.327
60.513
54.617
48.664
42.679
36.688
30.716
24.785
18.921
13.143
7.473
1.932
-3.464
-8.697
-13.751
-18.612
-23.268
-27.706
-31.918
-35.894
-39.629
-43.115
-46.349
-49.329
-52.052
-54.519
-56.731
-58.69
-60.4
-61.865
-63.091
-64.084
-64.853
-65.404
-65.748
-65.893
-65.851
-65.63
-65.243
-64.7
-64.013
-63.192
-62.249
-61.195
-60.041
-58.799
-57.478
-56.09
-54.645
-53.152
-51.622
-50.064
-48.487
-46.9
-45.31
-43.725
-42.154
-40.602
-39.075
-37.581
-36.125
-34.711
-33.344
-32.029
-30.768
-29.566
-28.426
-27.349
-26.338
-25.395
-24.521
-23.718
-22.985
-22.324
-21.735
-21.218
-20.773
-20.398
-20.093
-19.857
-19.688
-19.584
-19.543
-19.564
-19.644
-19.78
-19.972
-20.215
-20.507
-20.846
-21.229
-21.654
-22.118
-22.618
-23.152
-23.717
-24.312
-24.933
-25.579
-26.247
-26.935
-27.64
-28.36
-29.094
-29.838
-30.591
-31.351
-32.115
-32.882
-33.65
-34.418
-35.182
-35.942
-36.695
-37.441
-38.177
-38.9
-39.611
-40.305
-40.981
-41.638
-42.272
-42.882
-43.463
-44.015
-44.532
-45.013
-45.452
-45.845
-46.19
-46.48
-46.711
-46.88
-46.981
-47.011
-46.963
-46.835
-46.622
-46.318
-45.921
-45.427
-44.83
-44.129
-43.321
-42.403
-41.374
-40.232
-38.977
-37.609
-36.128
-34.536
-32.836
-31.029
-29.121
-27.115
-25.018
-22.838
-20.582
-18.262
-15.888
-13.477
-11.041
-8.597
-6.163
-3.757
-1.396
0.9
3.115
5.23
7.229
9.094
10.807
12.35
13.705
14.854
15.78
16.466
16.898
17.063
16.953
16.563
15.89
14.925
13.655
12.069
10.165
7.939
5.396
2.541
-0.612
-4.028
-7.658
-11.444
-15.33
-19.263
-23.202
-27.101
-30.908
-34.561
-37.989
-41.13
-43.938
-46.378
-48.417
-50.028
-51.22
-52.068
-52.7
-53.26
-53.877
-54.631
-55.609
-56.923
-58.686
-61.016
-64.019
-67.728
-72.219
-77.642
-84.008
-91.233
-99.091
-107.004
-114.345
-120.608
-125.079
-126.954
-125.91
-121.803
-114.743
-105.839
-96.297
-86.991
-79.558
-74.768
-71.04
-66.743
-59.967
-49.819
-39.373
-31.27
-24.206
-11.794
17.03
74.018
166.614
294.347
451.63
626.567
800.794
954.331
1065.668
1117.53
1103.042
1025.594
895.662
729.033
544.555
359.433
193.549
64.11
-23.354
-70.385
-89.392
-98.084
-105.2
-113.85
-121.581
-121.845
-114.09
-101.735
-88.639
-79.442
-75.875
-76.766
-80.547
-85.587
-90.613
-94.945
-98.347
-100.463
-100.782
-99.481
-97.146
-94.266
-91.397
-88.813
-86.301
-84.005
-82.489
-81.964
-82.463
-83.949
-86.152
-88.967
-92.549
-96.778
-101.255
-105.663
-109.685
-113.1
-115.903
-118.052
-119.441
-120.06
-119.954
-119.185
-117.859
-116.061
-113.816
-111.167
-108.161
-104.852
-101.322
-97.651
-93.908
-90.16
-86.454
-82.815
-79.265
-75.809
-72.442
-69.153
-65.922
-62.722
-59.538
-56.356
-53.168
-49.962
-46.722
-43.428
-40.066
-36.62
-33.08
-29.438
-25.687
-21.824
-17.847
-13.758
-9.56
-5.261
-0.864
3.626
8.203
12.862
17.593
22.386
27.232
32.117
37.029
41.953
46.87
51.764
56.615
61.404
66.111
70.716
75.197
79.533
83.701
87.682
91.453
94.994
98.284
101.305
104.037
106.463
108.567
110.335
111.754
112.813
113.502
113.814
113.745
113.291
112.451
111.227
109.622
107.641
105.293
102.586
99.534
96.149
92.446
88.444
84.161
79.618
74.834
69.834
64.641
59.279
53.773
48.15
42.433
36.65
30.827
24.989
19.162
13.37
7.638
1.988
-3.556
-8.974
-14.246
-19.354
-24.28
-29.01
-33.528
-37.825
-41.888
-45.71
-49.283
-52.604
-55.668
-58.475
-61.024
-63.317
-65.358
-67.151
-68.701
-70.017
-71.107
-71.981
-72.649
-73.122
-73.413
-73.534
-73.499
-73.321
-73.013
-72.59
-72.064
-71.449
-70.76
-70.008
-69.207
-68.369
-67.506
-66.628
-65.746
-64.87
-64.007
-63.167
-62.355
-61.577
-60.839
-60.144
-59.495
-58.895
-58.344
-57.842
-57.39
-56.985
-56.625
-56.308
-56.03
-55.786
-55.573
-55.386
-55.221
-55.071
-54.932
-54.8
-54.67
-54.536
-54.396
-54.243
-54.076
-53.889
-53.68
-53.446
-53.184
-52.892
-52.57
-52.215
-51.829
-51.411
-50.961
-50.483
-49.977
-49.447
-48.895
-48.326
-47.744
-47.154
-46.562
-45.973
-45.394
-44.832
-44.293
-43.785
-43.314
-42.887
-42.509
-42.188
-41.929
-41.736
-41.616
-41.571
-41.606
-41.725
-41.929
-42.221
-42.603
-43.074
-43.636
-44.286
-45.024
-45.846
-46.751
-47.732
-48.787
-49.909
-51.093
-52.331
-53.617
-54.941
-56.294
-57.666
-59.048
-60.427
-61.792
-63.131
-64.431
-65.679
-66.865
-67.977
-69.001
-69.928
-70.746
-71.443
-72.011
-72.44
-72.721
-72.844
-72.804
-72.592
-72.206
-71.64
-70.892
-69.96
-68.843
-67.543
-66.062
-64.402
-62.568
-60.565
-58.4
-56.081
-53.619
-51.025
-48.311
-45.492
-42.587
-39.616
-36.599
-33.558
-30.515
-27.494
-24.518
-21.611
-18.792
-16.081
-13.497
-11.061
-8.794
-6.717
-4.85
-3.212
-1.818
-0.684
0.176
0.753
1.044
1.051
0.771
0.199
-0.682
-1.89
-3.433
-5.316
-7.542
-10.1
-12.973
-16.134
-19.527
-23.096
-26.783
-30.532
-34.305
-38.059
-41.741
-45.284
-48.608
-51.629
-54.285
-56.518
-58.279
-59.563
-60.392
-60.837
-61.025
-61.063
-61.068
-61.187
-61.547
-62.284
-63.542
-65.406
-68.016
-71.64
-76.42
-82.342
-89.253
-96.671
-104.068
-111.056
-117.037
-121.167
-122.892
-122.082
-119.104
-115.079
-111.341
-108.951
-109.004
-113.041
-121.098
-130.654
-138.671
-141.304
-136.956
-129.681
-122.194
-111.696
-90.819
-45.192
38.478
161.606
318.663
497.766
681.119
855.007
1004.169
1110.116
1159.133
1141.078
1055.432
913.092
730.795
528.743
327.096
144.719
-3.534
-107.756
-165.828
-183.4
-169.883
-138.959
-103.108
-73.942
-60.884
-64.934
-82.286
-103.673
-119.594
-127.422
-128.85
-129.063
-131.99
-137.168
-142.174
-144.17
-142.128
-136.929
-129.903
-122.346
-115.056
-108.565
-103.489
-100.165
-98.622
-98.728
-100.21
-102.844
-106.478
-110.904
-115.874
-121.164
-126.56
-131.862
-136.882
-141.406
-145.264
-148.348
-150.588
-151.959
-152.462
-152.113
-150.962
-149.076
-146.524
-143.368
-139.674
-135.505
-130.941
-126.076
-121
-115.804
-110.553
-105.291
-100.047
-94.836
-89.662
-84.52
-79.392
-74.255
-69.093
-63.896
-58.657
-53.372
-48.032
-42.627
-37.148
-31.588
-25.943
-20.213
-14.399
-8.505
-2.539
3.49
9.567
15.68
21.816
27.965
34.114
40.254
46.375
52.464
58.508
64.496
70.414
76.246
81.976
87.587
93.061
98.382
103.53
108.489
113.239
117.763
122.043
126.063
129.805
133.254
136.396
139.216
141.702
143.845
145.633
147.061
148.12
148.809
149.123
149.061
148.625
147.816
146.639
145.097
143.199
140.953
138.367
135.454
132.225
128.696
124.882
120.799
116.467
111.904
107.132
102.171
97.045
91.775
86.385
80.9
75.342
69.735
64.103
58.47
52.857
47.286
41.779
36.356
31.034
25.833
20.769
15.857
11.111
6.544
2.168
-2.007
-5.971
-9.717
-13.237
-16.527
-19.582
-22.4
-24.979
-27.318
-29.42
-31.286
-32.921
-34.329
-35.515
-36.488
-37.255
-37.826
-38.209
-38.416
-38.458
-38.345
-38.09
-37.705
-37.201
-36.591
-35.886
-35.097
-34.236
-33.313
-32.339
-31.325
-30.279
-29.212
-28.131
-27.047
-25.966
-24.897
-23.845
-22.819
-21.822
-20.86
-19.938
-19.06
-18.228
-17.444
-16.711
-16.03
-15.401
-14.824
-14.298
-13.821
-13.392
-13.009
-12.669
-12.369
-12.106
-11.878
-11.682
-11.514
-11.372
-11.254
-11.156
-11.076
-11.012
-10.961
-10.92
-10.887
-10.86
-10.837
-10.816
-10.797
-10.776
-10.754
-10.729
-10.701
-10.669
-10.632
-10.592
-10.548
-10.501
-10.452
-10.403
-10.355
-10.31
-10.27
-10.239
-10.219
-10.212
-10.22
-10.247
-10.294
-10.364
-10.46
-10.582
-10.735
-10.919
-11.137
-11.391
-11.682
-12.012
-12.381
-12.79
-13.239
-13.73
-14.261
-14.831
-15.441
-16.088
-16.772
-17.49
-18.24
-19.019
-19.824
-20.649
-21.491
-22.343
-23.199
-24.053
-24.897
-25.725
-26.527
-27.298
-28.027
-28.707
-29.329
-29.884
-30.363
-30.757
-31.056
-31.252
-31.335
-31.299
-31.135
-30.837
-30.398
-29.813
-29.076
-28.185
-27.135
-25.925
-24.554
-23.021
-21.327
-19.477
-17.473
-15.322
-13.032
-10.613
-8.079
-5.442
-2.719
0.073
2.916
5.79
8.675
11.55
14.395
17.191
19.915
22.544
25.056
27.428
29.634
31.656
33.47
35.057
36.401
37.491
38.317
38.87
39.14
39.11
38.763
38.089
37.076
35.719
34.019
31.984
29.634
27.005
24.137
21.072
17.851
14.505
11.071
7.592
4.119
0.72
-2.537
-5.595
-8.397
-10.89
-13.039
-14.84
-16.329
-17.595
-18.728
-19.799
-20.883
-22.062
-23.441
-25.152
-27.316
-30.027
-33.4
-37.61
-42.789
-48.944
-55.861
-63.082
-70.078
-76.347
-81.355
-84.456
-85.088
-83.089
-78.978
-73.804
-68.704
-64.807
-63.113
-64.661
-70.674
-80.393
-90.282
-96.741
-95.711
-85.839
-70.997
-51.933
-26.056
11.871
74.012
168.94
297.594
457.183
635.455
815.145
978.568
1105.513
1178.382
1185.252
1122.704
995.929
818.723
612.446
398.747
200.639
38.004
-79.595
-149.42
-178.147
-179.653
-164.808
-142.925
-121.106
-101.287
-87.143
-80.278
-77.251
-75.881
-72.601
-66.439
-61.949
-61.721
-66.703
-75.493
-83.531
-88.595
-90.609
-89.927
-87.468
-83.427
-77.736
-71.242
-65.278
-60.687
-57.757
-56.421
-56.469
-57.964
-60.976
-65.218
-70.14
-75.235
-80.159
-84.725
-88.847
-92.391
-95.221
-97.28
-98.589
-99.207
-99.199
-98.611
-97.475
-95.829
-93.73
-91.242
-88.438
-85.399
-82.204
-78.934
-75.662
-72.443
-69.309
-66.282
-63.373
-60.578
-57.883
-55.266
-52.698
-50.161
-47.638
-45.111
-42.56
-39.963
-37.298
-34.547
-31.692
-28.719
-25.616
-22.373
-18.983
-15.443
-11.753
-7.916
-3.935
0.187
4.445
8.835
13.351
17.986
22.729
27.572
32.501
37.504
42.563
47.66
52.775
57.888
62.977
68.019
72.99
77.867
82.626
87.243
91.692
95.951
99.994
103.799
107.343
110.605
113.565
116.203
118.503
120.449
122.028
123.228
124.041
124.459
124.478
124.095
123.31
122.125
120.544
118.575
116.226
113.507
110.434
107.021
103.286
99.248
94.928
90.348
85.532
80.503
75.286
69.909
64.395
58.774
53.07
47.312
41.526
35.739
29.976
24.262
18.62
13.075
7.645
2.353
-2.785
-7.752
-12.532
-17.114
-21.484
-25.635
-29.558
-33.248
-36.7
-39.914
-42.887
-45.622
-48.122
-50.389
-52.431
-54.252
-55.861
-57.267
-58.478
-59.504
-60.358
-61.049
-61.591
-61.995
-62.274
-62.441
-62.509
-62.49
-62.396
-62.239
-62.031
-61.781
-61.501
-61.198
-60.881
-60.558
-60.235
-59.917
-59.607
-59.31
-59.028
-58.761
-58.509
-58.273
-58.051
-57.842
-57.643
-57.451
-57.263
-57.077
-56.889
-56.695
-56.492
-56.275
-56.04
-55.784
-55.504
-55.195
-54.855
-54.48
-54.068
-53.617
-53.125
-52.591
-52.013
-51.393
-50.73
-50.026
-49.283
-48.504
-47.692
-46.852
-45.99
-45.11
-44.22
-43.326
-42.435
-41.554
-40.691
-39.853
-39.047
-38.281
-37.561
-36.896
-36.29
-35.752
-35.285
-34.896
-34.59
-34.37
-34.241
-34.205
-34.266
-34.425
-34.684
-35.045
-35.507
-36.071
-36.735
-37.497
-38.355
-39.304
-40.34
-41.456
-42.647
-43.904
-45.22
-46.586
-47.994
-49.433
-50.895
-52.369
-53.845
-55.313
-56.762
-58.182
-59.561
-60.891
-62.16
-63.359
-64.479
-65.512
-66.449
-67.28
-68
-68.598
-69.07
-69.407
-69.603
-69.652
-69.55
-69.291
-68.874
-68.296
-67.557
-66.657
-65.598
-64.383
-63.015
-61.499
-59.842
-58.049
-56.13
-54.092
-51.947
-49.705
-47.379
-44.981
-42.529
-40.039
-37.528
-35.014
-32.516
-30.053
-27.643
-25.307
-23.059
-20.916
-18.894
-17.01
-15.282
-13.73
-12.37
-11.217
-10.286
-9.588
-9.136
-8.936
-8.987
-9.289
-9.84
-10.644
-11.715
-13.065
-14.7
-16.622
-18.829
-21.309
-24.047
-27.014
-30.163
-33.443
-36.806
-40.204
-43.605
-46.975
-50.266
-53.42
-56.365
-59.026
-61.349
-63.279
-64.766
-65.8
-66.397
-66.614
-66.554
-66.299
-65.937
-65.579
-65.347
-65.377
-65.806
-66.722
-68.259
-70.65
-74.038
-78.439
-83.65
-89.157
-94.438
-99.083
-102.55
-104.164
-103.446
-100.237
-95.137
-89.516
-84.629
-81.544
-81.363
-85.047
-93.29
-105.068
-116.841
-124.436
-124.654
-117.315
-103.992
-83.298
-49.234
7.639
93.447
206.868
338.946
476.472
612.6
743.896
864.801
967.528
1034.107
1044.855
992.677
879.449
717.86
530.263
334.896
149.378
-6.75
-122.844
-194.653
-224.236
-222.886
-201.486
-166.909
-127.017
-90.573
-65.054
-56.6
-64.386
-79.195
-92.469
-99.38
-99.895
-99.063
-100.08
-102.713
-105.518
-105.913
-102.985
-97.55
-90.415
-82.928
-76.165
-70.648
-66.82
-64.764
-64.262
-65.169
-67.385
-70.594
-74.492
-78.804
-83.204
-87.507
-91.577
-95.213
-98.257
-100.627
-102.26
-103.142
-103.296
-102.722
-101.45
-99.543
-97.054
-94.054
-90.607
-86.768
-82.612
-78.22
-73.679
-69.078
-64.481
-59.929
-55.454
-51.072
-46.789
-42.603
-38.499
-34.451
-30.444
-26.464
-22.499
-18.545
-14.587
-10.612
-6.606
-2.557
1.545
5.707
9.933
14.227
18.589
23.016
27.503
32.043
36.63
41.259
45.926
50.626
55.353
60.099
64.857
69.619
74.373
79.108
83.811
88.465
93.055
97.566
101.981
106.282
110.452
114.475
118.332
122.006
125.481
128.74
131.765
134.543
137.058
139.297
141.246
142.894
144.23
145.245
145.931
146.282
146.293
145.961
145.284
144.261
142.894
141.187
139.145
136.774
134.083
131.083
127.786
124.206
120.36
116.263
111.933
107.39
102.653
97.743
92.68
87.486
82.182
76.79
71.331
65.827
60.299
54.768
49.253
43.776
38.353
33.004
27.746
22.596
17.568
12.677
7.937
3.359
-1.045
-5.266
-9.296
-13.128
-16.757
-20.178
-23.39
-26.392
-29.184
-31.766
-34.143
-36.317
-38.293
-40.077
-41.675
-43.094
-44.341
-45.425
-46.353
-47.136
-47.781
-48.297
-48.695
-48.983
-49.17
-49.267
-49.281
-49.222
-49.099
-48.92
-48.695
-48.431
-48.136
-47.817
-47.481
-47.135
-46.784
-46.432
-46.084
-45.744
-45.415
-45.098
-44.795
-44.508
-44.237
-43.982
-43.743
-43.519
-43.309
-43.112
-42.927
-42.752
-42.584
-42.424
-42.269
-42.117
-41.967
-41.818
-41.668
-41.516
-41.36
-41.198
-41.031
-40.856
-40.672
-40.478
-40.274
-40.06
-39.835
-39.6
-39.354
-39.1
-38.839
-38.571
-38.299
-38.026
-37.754
-37.487
-37.227
-36.979
-36.745
-36.531
-36.338
-36.173
-36.037
-35.934
-35.867
-35.839
-35.853
-35.911
-36.015
-36.166
-36.366
-36.616
-36.916
-37.266
-37.667
-38.117
-38.616
-39.161
-39.752
-40.385
-41.058
-41.767
-42.509
-43.279
-44.071
-44.88
-45.7
-46.522
-47.339
-48.143
-48.924
-49.675
-50.387
-51.049
-51.653
-52.191
-52.653
-53.03
-53.315
-53.498
-53.574
-53.534
-53.372
-53.082
-52.661
-52.105
-51.409
-50.572
-49.592
-48.469
-47.205
-45.799
-44.255
-42.576
-40.767
-38.834
-36.785
-34.629
-32.377
-30.042
-27.641
-25.189
-22.706
-20.209
-17.72
-15.26
-12.849
-10.506
-8.25
-6.097
-4.067
-2.178
-0.451
1.098
2.45
3.59
4.504
5.18
5.607
5.785
5.713
5.391
4.815
3.973
2.852
1.443
-0.259
-2.258
-4.548
-7.118
-9.943
-12.979
-16.182
-19.5
-22.888
-26.312
-29.735
-33.114
-36.394
-39.505
-42.374
-44.937
-47.132
-48.904
-50.235
-51.129
-51.636
-51.849
-51.85
-51.727
-51.587
-51.523
-51.646
-52.065
-52.856
-54.158
-56.216
-59.207
-63.194
-68.085
-73.498
-78.963
-84.042
-88.104
-90.351
-90.176
-87.361
-82.233
-75.812
-69.558
-64.901
-63.309
-66.583
-74.795
-85.822
-97.44
-106.202
-111.622
-117.305
-122.053
-121.007
-103.33
-52.508
37.585
163.335
314.182
472.812
629.057
778.016
910.439
1015.466
1078.286
1082.303
1024.331
911.241
753.444
569.888
377.141
190.683
32.445
-83.896
-154.738
-184.225
-188.682
-181.635
-165.855
-142.536
-111.531
-77.536
-52.993
-45.166
-53.454
-71.025
-88.102
-99.586
-106.077
-110.993
-116.402
-122.281
-127.357
-129.598
-128.35
-123.969
-117.049
-108.943
-101.164
-94.485
-89.275
-85.636
-83.4
-82.642
-83.448
-85.571
-88.533
-91.901
-95.385
-98.812
-102.121
-105.154
-107.689
-109.604
-110.862
-111.477
-111.48
-110.885
-109.682
-107.885
-105.554
-102.75
-99.549
-96.017
-92.209
-88.192
-84.037
-79.816
-75.604
-71.452
-67.392
-63.441
-59.604
-55.875
-52.249
-48.71
-45.235
-41.804
-38.395
-34.992
-31.581
-28.15
-24.684
-21.167
-17.587
-13.932
-10.196
-6.373
-2.462
1.538
5.625
9.795
14.042
18.359
22.738
27.175
31.66
36.186
40.742
45.318
49.901
54.477
59.032
63.548
68.008
72.392
76.682
80.857
84.898
88.783
92.493
96.007
99.305
102.369
105.181
107.723
109.98
111.935
113.575
114.887
115.862
116.488
116.759
116.669
116.213
115.392
114.203
112.65
110.736
108.467
105.851
102.896
99.614
96.018
92.121
87.939
83.491
78.795
73.871
68.74
63.423
57.945
52.327
46.593
40.766
34.87
28.928
22.963
16.997
11.053
5.153
-0.683
-6.435
-12.083
-17.61
-22.999
-28.236
-33.306
-38.198
-42.9
-47.402
-51.697
-55.777
-59.637
-63.273
-66.681
-69.861
-72.811
-75.532
-78.027
-80.3
-82.353
-84.192
-85.824
-87.254
-88.49
-89.54
-90.412
-91.115
-91.659
-92.053
-92.306
-92.43
-92.434
-92.328
-92.123
-91.828
-91.451
-91.003
-90.491
-89.923
-89.307
-88.648
-87.953
-87.229
-86.48
-85.71
-84.924
-84.126
-83.318
-82.503
-81.682
-80.859
-80.033
-79.206
-78.38
-77.553
-76.727
-75.902
-75.078
-74.254
-73.43
-72.606
-71.781
-70.953
-70.121
-69.286
-68.446
-67.601
-66.75
-65.894
-65.034
-64.169
-63.302
-62.433
-61.566
-60.702
-59.845
-58.997
-58.161
-57.342
-56.544
-55.77
-55.024
-54.312
-53.637
-53.003
-52.415
-51.877
-51.392
-50.965
-50.598
-50.296
-50.06
-49.895
-49.802
-49.784
-49.844
-49.983
-50.203
-50.505
-50.888
-51.353
-51.898
-52.521
-53.219
-53.99
-54.827
-55.727
-56.682
-57.687
-58.733
-59.813
-60.918
-62.04
-63.167
-64.291
-65.401
-66.485
-67.533
-68.532
-69.473
-70.343
-71.132
-71.829
-72.422
-72.902
-73.258
-73.479
-73.556
-73.479
-73.238
-72.826
-72.235
-71.457
-70.489
-69.325
-67.964
-66.404
-64.646
-62.691
-60.543
-58.207
-55.687
-52.991
-50.129
-47.111
-43.948
-40.654
-37.244
-33.736
-30.152
-26.512
-22.839
-19.155
-15.485
-11.853
-8.287
-4.81
-1.442
1.795
4.881
7.791
10.501
12.988
15.233
17.22
18.935
20.36
21.483
22.293
22.793
22.986
22.875
22.455
21.704
20.61
19.168
17.378
15.251
12.798
10.033
6.984
3.704
0.254
-3.307
-6.918
-10.54
-14.142
-17.671
-21.064
-24.238
-27.086
-29.526
-31.508
-32.992
-33.973
-34.49
-34.532
-34.125
-33.468
-32.749
-32.171
-31.964
-32.107
-32.509
-33.405
-35.146
-37.711
-41.006
-44.597
-47.684
-50.129
-52.016
-52.82
-51.839
-48.821
-43.784
-37.647
-32.23
-28.582
-27.374
-29.686
-36.716
-47.97
-61.125
-73.336
-80.344
-81.706
-80.989
-76.939
-65.466
-37.285
22.036
116.841
242.84
390.819
545.573
697.703
842.198
969.337
1068.577
1127.421
1132.08
1080.757
979.093
835.085
665.914
486.168
311.39
163.136
51.229
-21.255
-59.741
-82.264
-98.937
-112.785
-122.464
-120.048
-104.218
-79.487
-51.059
-25.278
-5.303
8.234
14.672
14.326
8.162
-2.599
-15.985
-30.333
-44.475
-56.886
-66.366
-72.422
-74.888
-74.173
-71.195
-66.668
-61.369
-56.463
-52.752
-50.635
-50.355
-51.75
-54.484
-58.335
-62.893
-67.57
-71.966
-75.784
-78.853
-81.202
-82.85
-83.782
-84.048
-83.72
-82.852
-81.514
-79.743
-77.544
-74.951
-72.009
-68.785
-65.361
-61.809
-58.194
-54.565
-50.952
-47.377
-43.853
-40.381
-36.957
-33.574
-30.211
-26.857
-23.503
-20.139
-16.753
-13.333
-9.857
-6.312
-2.682
1.04
4.862
8.787
12.819
16.956
21.195
25.532
29.96
34.471
39.059
43.718
48.439
53.213
58.027
62.87
67.729
72.589
77.434
82.247
87.008
91.698
96.297
100.785
105.139
109.34
113.365
117.193
120.804
124.178
127.294
130.133
132.68
134.915
136.825
138.394
139.611
140.465
140.947
141.049
140.765
140.094
139.032
137.581
135.742
133.52
130.921
127.953
124.625
120.95
116.942
112.617
107.992
103.088
97.924
92.522
86.906
81.101
75.129
69.016
62.788
56.469
50.086
43.663
37.225
30.797
24.404
18.067
11.811
5.656
-0.375
-6.265
-11.993
-17.542
-22.896
-28.04
-32.959
-37.642
-42.077
-46.254
-50.166
-53.808
-57.173
-60.261
-63.07
-65.601
-67.858
-69.843
-71.563
-73.025
-74.235
-75.204
-75.94
-76.454
-76.757
-76.861
-76.777
-76.519
-76.099
-75.529
-74.824
-73.995
-73.057
-72.022
-70.903
-69.714
-68.467
-67.176
-65.852
-64.507
-63.155
-61.805
-60.468
-59.154
-57.871
-56.626
-55.426
-54.276
-53.181
-52.144
-51.166
-50.251
-49.398
-48.608
-47.88
-47.213
-46.607
-46.059
-45.567
-45.13
-44.744
-44.408
-44.12
-43.876
-43.675
-43.514
-43.391
-43.303
-43.246
-43.219
-43.218
-43.24
-43.282
-43.342
-43.417
-43.505
-43.604
-43.712
-43.83
-43.957
-44.093
-44.24
-44.398
-44.569
-44.756
-44.96
-45.185
-45.433
-45.706
-46.007
-46.338
-46.701
-47.097
-47.529
-47.995
-48.497
-49.034
-49.605
-50.209
-50.845
-51.51
-52.202
-52.92
-53.659
-54.417
-55.191
-55.977
-56.771
-57.568
-58.364
-59.154
-59.93
-60.687
-61.418
-62.113
-62.766
-63.368
-63.909
-64.382
-64.778
-65.087
-65.302
-65.413
-65.415
-65.299
-65.059
-64.69
-64.185
-63.542
-62.757
-61.828
-60.754
-59.535
-58.171
-56.665
-55.02
-53.239
-51.326
-49.286
-47.126
-44.853
-42.474
-39.999
-37.44
-34.809
-32.122
-29.397
-26.651
-23.905
-21.178
-18.492
-15.867
-13.325
-10.882
-8.556
-6.365
-4.326
-2.459
-0.782
0.688
1.937
2.953
3.722
4.234
4.483
4.472
4.201
3.672
2.879
1.805
0.437
-1.227
-3.19
-5.446
-7.986
-10.796
-13.846
-17.085
-20.459
-23.91
-27.388
-30.856
-34.271
-37.574
-40.697
-43.554
-46.068
-48.185
-49.859
-51.052
-51.749
-51.962
-51.743
-51.193
-50.427
-49.565
-48.736
-48.077
-47.733
-47.829
-48.517
-49.988
-52.375
-55.738
-59.987
-64.802
-69.805
-74.665
-78.946
-82.119
-83.748
-83.478
-81.419
-78.399
-75.314
-72.877
-71.922
-73.139
-77.075
-84.477
-93.906
-101.234
-102.795
-94.712
-76.924
-54.669
-29.004
1.737
44.312
112.96
213.559
345.375
502.015
666.527
825.58
965.815
1071.229
1130.169
1130.167
1066.014
942.629
771.711
573.457
369.806
182.31
29.482
-77.444
-137.112
-156.367
-145.747
-120.029
-89.467
-62.529
-50.119
-54.016
-73.336
-102.838
-128.84
-144.699
-148.883
-142.878
-133.961
-125.312
-116.491
-107.216
-96.254
-84.61
-74.801
-68.157
-65.397
-66.409
-70.201
-76.033
-83.125
-90.152
-96.092
-100.46
-103.079
-104.391
-105.203
-105.916
-106.773
-108.106
-109.959
-112.25
-114.895
-117.521
-119.654
-121.076
-121.672
-121.403
-120.379
-118.682
-116.353
-113.513
-110.282
-106.744
-102.986
-99.066
-95.02
-90.913
-86.8
-82.723
-78.718
-74.799
-70.959
-67.186
-63.455
-59.738
-56.017
-52.277
-48.507
-44.703
-40.854
-36.952
-32.992
-28.964
-24.858
-20.666
-16.379
-11.994
-7.511
-2.935
1.725
6.462
11.266
16.132
21.051
26.016
31.019
36.051
41.102
46.161
51.214
56.245
61.236
66.168
71.022
75.777
80.414
84.912
89.25
93.407
97.364
101.101
104.599
107.84
110.807
113.484
115.857
117.912
119.639
121.026
122.068
122.756
123.087
123.058
122.668
121.917
120.809
119.348
117.538
115.389
112.909
110.109
107.002
103.604
99.93
95.999
91.829
87.442
82.859
78.102
73.194
68.158
63.018
57.798
52.52
47.207
41.883
36.568
31.284
26.049
20.884
15.805
10.827
5.967
1.237
-3.349
-7.782
-12.05
-16.145
-20.059
-23.786
-27.319
-30.655
-33.79
-36.723
-39.453
-41.981
-44.307
-46.434
-48.367
-50.108
-51.665
-53.042
-54.248
-55.289
-56.173
-56.909
-57.506
-57.971
-58.315
-58.544
-58.668
-58.694
-58.629
-58.481
-58.256
-57.961
-57.601
-57.182
-56.711
-56.191
-55.629
-55.03
-54.398
-53.737
-53.053
-52.35
-51.631
-50.901
-50.164
-49.422
-48.68
-47.938
-47.201
-46.47
-45.746
-45.031
-44.326
-43.631
-42.947
-42.274
-41.613
-40.965
-40.329
-39.706
-39.099
-38.507
-37.932
-37.375
-36.838
-36.324
-35.832
-35.365
-34.925
-34.512
-34.128
-33.774
-33.451
-33.159
-32.9
-32.672
-32.477
-32.315
-32.186
-32.091
-32.029
-32.002
-32.011
-32.056
-32.139
-32.26
-32.423
-32.627
-32.875
-33.168
-33.508
-33.894
-34.329
-34.813
-35.345
-35.925
-36.552
-37.225
-37.944
-38.704
-39.506
-40.345
-41.22
-42.129
-43.066
-44.031
-45.018
-46.025
-47.046
-48.077
-49.113
-50.147
-51.173
-52.185
-53.175
-54.135
-55.057
-55.932
-56.752
-57.505
-58.184
-58.778
-59.277
-59.671
-59.95
-60.107
-60.132
-60.018
-59.758
-59.347
-58.778
-58.048
-57.154
-56.093
-54.863
-53.464
-51.898
-50.166
-48.272
-46.221
-44.021
-41.679
-39.208
-36.622
-33.934
-31.163
-28.325
-25.442
-22.532
-19.619
-16.721
-13.859
-11.056
-8.333
-5.713
-3.22
-0.878
1.289
3.26
5.013
6.528
7.789
8.785
9.507
9.948
10.095
9.931
9.439
8.61
7.435
5.911
4.042
1.841
-0.662
-3.424
-6.392
-9.518
-12.755
-16.068
-19.416
-22.757
-26.036
-29.188
-32.151
-34.871
-37.304
-39.403
-41.144
-42.546
-43.67
-44.632
-45.553
-46.525
-47.63
-48.964
-50.633
-52.754
-55.448
-58.774
-62.807
-67.709
-73.579
-80.407
-87.978
-95.777
-103.183
-109.656
-114.61
-117.321
-117.235
-114.119
-108.377
-101.154
-93.691
-87.177
-82.755
-81.568
-84.774
-91.489
-98.292
-101.469
-96.674
-83.424
-66.097
-44.49
-16.497
24.693
93.542
195.107
328.93
489.88
659.777
823.24
963.037
1058.337
1098.939
1077.511
996.699
870.139
708.303
524.973
332.886
143.527
-22.984
-149.875
-229.372
-262.219
-263.525
-251.624
-236.291
-221.48
-204.51
-179.954
-148.76
-115.312
-84.224
-60.638
-46.594
-41.206
-43.14
-50.581
-61.328
-73.503
-85.573
-95.813
-102.987
-106.797
-107.256
-104.738
-100.141
-94.362
-88.277
-83.037
-79.428
-77.692
-77.916
-79.897
-83.243
-87.62
-92.57
-97.478
-101.915
-105.656
-108.579
-110.722
-112.13
-112.793
-112.76
-112.123
-110.951
-109.306
-107.227
-104.725
-101.836
-98.627
-95.177
-91.575
-87.897
-84.188
-80.478
-76.788
-73.126
-69.498
-65.9
-62.316
-58.728
-55.123
-51.494
-47.833
-44.134
-40.381
-36.559
-32.651
-28.644
-24.529
-20.302
-15.962
-11.508
-6.944
-2.274
2.492
7.344
12.275
17.276
22.339
27.454
32.611
37.798
43.001
48.207
53.401
58.566
63.685
68.739
73.71
78.579
83.328
87.937
92.387
96.66
100.736
104.598
108.227
111.607
114.72
117.552
120.087
122.311
124.214
125.783
127.01
127.888
128.41
128.574
128.376
127.817
126.899
125.624
123.999
122.03
119.726
117.098
114.157
110.918
107.397
103.61
99.574
95.31
90.837
86.175
81.347
76.373
71.275
66.077
60.8
55.466
50.099
44.721
39.352
34.015
28.729
23.514
18.388
13.37
8.475
3.718
-0.886
-5.326
-9.591
-13.67
-17.557
-21.243
-24.724
-27.996
-31.056
-33.903
-36.538
-38.961
-41.175
-43.183
-44.99
-46.6
-48.02
-49.257
-50.318
-51.211
-51.944
-52.527
-52.969
-53.28
-53.468
-53.545
-53.52
-53.402
-53.201
-52.926
-52.586
-52.19
-51.744
-51.257
-50.736
-50.186
-49.613
-49.023
-48.419
-47.805
-47.186
-46.562
-45.937
-45.312
-44.688
-44.066
-43.446
-42.828
-42.212
-41.598
-40.984
-40.369
-39.753
-39.133
-38.51
-37.88
-37.244
-36.6
-35.947
-35.283
-34.61
-33.926
-33.231
-32.527
-31.814
-31.093
-30.367
-29.636
-28.904
-28.174
-27.447
-26.728
-26.02
-25.326
-24.651
-23.999
-23.374
-22.78
-22.222
-21.705
-21.232
-20.808
-20.437
-20.124
-19.872
-19.685
-19.566
-19.52
-19.548
-19.653
-19.838
-20.103
-20.449
-20.876
-21.384
-21.97
-22.632
-23.367
-24.173
-25.043
-25.974
-26.96
-27.994
-29.071
-30.184
-31.323
-32.483
-33.653
-34.826
-35.993
-37.142
-38.266
-39.354
-40.396
-41.382
-42.302
-43.146
-43.905
-44.567
-45.124
-45.566
-45.883
-46.067
-46.111
-46.006
-45.748
-45.33
-44.749
-44.002
-43.087
-42.004
-40.752
-39.333
-37.75
-36.007
-34.108
-32.061
-29.872
-27.55
-25.106
-22.55
-19.897
-17.16
-14.358
-11.506
-8.624
-5.733
-2.852
-0.002
2.794
5.517
8.148
10.667
13.055
15.29
17.353
19.224
20.885
22.32
23.514
24.453
25.127
25.531
25.664
25.523
25.103
24.392
23.376
22.051
20.412
18.46
16.205
13.66
10.851
7.818
4.61
1.274
-2.142
-5.603
-9.071
-12.5
-15.831
-18.993
-21.911
-24.525
-26.784
-28.641
-30.079
-31.104
-31.762
-32.147
-32.354
-32.483
-32.638
-32.929
-33.471
-34.387
-35.784
-37.788
-40.581
-44.308
-49.009
-54.561
-60.633
-66.811
-72.674
-77.709
-81.279
-82.798
-81.954
-79.006
-74.761
-70.133
-66.142
-63.857
-64.27
-68.562
-76.482
-85.218
-91.559
-92.124
-85.408
-74.302
-60.216
-40.341
-8.885
44.873
130.314
247.667
392.213
554.277
718.964
874.06
1005.521
1096.797
1135.204
1111.062
1023.814
881.685
699.213
497.523
296.863
119.092
-17.514
-107.955
-155.213
-173.199
-180.488
-185.73
-190.92
-191.936
-181.736
-160.287
-131.633
-100.784
-73.246
-51.209
-35.207
-25.941
-22.829
-25.015
-31.612
-41.04
-52.121
-63.894
-74.799
-83.457
-89.206
-91.767
-91.404
-88.894
-84.834
-79.957
-75.419
-72.064
-70.331
-70.437
-72.204
-75.255
-79.275
-83.792
-88.17
-92.006
-95.079
-97.282
-98.684
-99.345
-99.281
-98.571
-97.324
-95.607
-93.471
-90.945
-88.025
-84.756
-81.214
-77.481
-73.649
-69.776
-65.892
-62.021
-58.176
-54.363
-50.583
-46.822
-43.061
-39.293
-35.513
-31.719
-27.911
-24.078
-20.208
-16.284
-12.291
-8.22
-4.063
0.181
4.515
8.935
13.436
18.013
22.655
27.354
32.105
36.901
41.736
46.601
51.486
56.38
61.273
66.151
71
75.805
80.548
85.215
89.787
94.247
98.577
102.76
106.778
110.612
114.244
117.658
120.836
123.762
126.418
128.79
130.863
132.624
134.061
135.161
135.917
136.319
136.363
136.042
135.355
134.299
132.877
131.089
128.942
126.44
123.592
120.407
116.898
113.078
108.963
104.567
99.91
95.01
89.887
84.562
79.056
73.391
67.59
61.676
55.671
49.599
43.483
37.347
31.212
25.102
19.039
13.044
7.138
1.339
-4.332
-9.858
-15.223
-20.412
-25.412
-30.209
-34.795
-39.159
-43.295
-47.197
-50.861
-54.284
-57.465
-60.405
-63.106
-65.569
-67.799
-69.801
-71.58
-73.145
-74.501
-75.657
-76.622
-77.405
-78.016
-78.464
-78.761
-78.916
-78.942
-78.848
-78.646
-78.347
-77.963
-77.504
-76.981
-76.403
-75.781
-75.122
-74.436
-73.729
-73.008
-72.279
-71.547
-70.816
-70.09
-69.371
-68.663
-67.965
-67.281
-66.61
-65.952
-65.308
-64.677
-64.06
-63.454
-62.861
-62.279
-61.707
-61.145
-60.592
-60.046
-59.508
-58.975
-58.446
-57.919
-57.395
-56.872
-56.348
-55.824
-55.298
-54.773
-54.246
-53.721
-53.197
-52.677
-52.161
-51.653
-51.154
-50.668
-50.198
-49.747
-49.317
-48.914
-48.54
-48.198
-47.892
-47.625
-47.399
-47.216
-47.08
-46.991
-46.953
-46.966
-47.032
-47.153
-47.33
-47.564
-47.855
-48.203
-48.609
-49.071
-49.588
-50.158
-50.78
-51.45
-52.166
-52.924
-53.719
-54.548
-55.404
-56.282
-57.176
-58.078
-58.982
-59.879
-60.762
-61.621
-62.448
-63.236
-63.975
-64.657
-65.273
-65.815
-66.275
-66.643
-66.911
-67.072
-67.116
-67.037
-66.827
-66.481
-65.992
-65.356
-64.568
-63.626
-62.528
-61.273
-59.861
-58.293
-56.571
-54.699
-52.683
-50.529
-48.245
-45.84
-43.327
-40.72
-38.035
-35.289
-32.5
-29.69
-26.878
-24.086
-21.335
-18.644
-16.032
-13.52
-11.127
-8.877
-6.791
-4.891
-3.196
-1.726
-0.499
0.468
1.164
1.585
1.727
1.587
1.157
0.419
-0.643
-2.034
-3.761
-5.823
-8.212
-10.913
-13.9
-17.12
-20.523
-24.059
-27.684
-31.366
-35.068
-38.743
-42.33
-45.751
-48.934
-51.82
-54.354
-56.483
-58.193
-59.493
-60.441
-61.148
-61.698
-62.174
-62.675
-63.28
-64.094
-65.226
-66.754
-68.801
-71.583
-75.244
-79.804
-85.148
-90.896
-96.568
-101.727
-105.789
-107.976
-107.662
-104.67
-99.336
-92.532
-85.596
-79.787
-76.202
-76.569
-81.471
-88.985
-96.723
-101.643
-102.018
-100.812
-99.814
-95.447
-80.093
-40.5
35.057
147.956
293.399
461.268
637.653
811.464
968.226
1089.345
1157.877
1159.171
1090.243
960.423
786.323
589.796
390.643
206.756
53.765
-58.173
-126.226
-156.63
-162.351
-157.839
-151.232
-143.832
-133.099
-115.284
-91.465
-66.397
-44.872
-30.986
-26.057
-29.065
-38.425
-52.069
-67.796
-83.373
-96.8
-106.87
-112.891
-114.775
-112.953
-108.072
-101.098
-93.347
-86.111
-80.224
-76.213
-74.261
-74.254
-76.036
-79.315
-83.609
-88.371
-93.176
-97.727
-101.832
-105.4
-108.347
-110.611
-112.185
-113.104
-113.406
-113.114
-112.25
-110.833
-108.897
-106.501
-103.707
-100.579
-97.189
-93.606
-89.897
-86.13
-82.354
-78.599
-74.885
-71.22
-67.603
-64.029
-60.485
-56.948
-53.402
-49.83
-46.215
-42.542
-38.795
-34.959
-31.02
-26.967
-22.792
-18.489
-14.056
-9.493
-4.802
0.013
4.944
9.981
15.117
20.341
25.644
31.015
36.441
41.91
47.406
52.914
58.418
63.897
69.332
74.701
79.981
85.15
90.186
95.064
99.76
104.253
108.52
112.538
116.286
119.745
122.894
125.718
128.199
130.323
132.078
133.453
134.439
135.029
135.219
135.007
134.391
133.374
131.959
130.152
127.961
125.395
122.467
119.191
115.582
111.659
107.441
102.949
98.206
93.236
88.063
82.713
77.212
71.586
65.861
60.064
54.221
48.358
42.498
36.668
30.891
25.188
19.581
14.09
8.735
3.532
-1.502
-6.353
-11.007
-15.454
-19.683
-23.686
-27.455
-30.986
-34.275
-37.321
-40.122
-42.68
-44.998
-47.079
-48.93
-50.557
-51.968
-53.171
-54.176
-54.993
-55.632
-56.105
-56.423
-56.598
-56.64
-56.563
-56.376
-56.093
-55.723
-55.277
-54.767
-54.202
-53.592
-52.945
-52.272
-51.579
-50.875
-50.167
-49.461
-48.763
-48.078
-47.412
-46.766
-46.145
-45.551
-44.985
-44.447
-43.939
-43.459
-43.007
-42.582
-42.181
-41.803
-41.445
-41.106
-40.782
-40.472
-40.174
-39.884
-39.6
-39.322
-39.047
-38.773
-38.499
-38.224
-37.947
-37.667
-37.385
-37.099
-36.809
-36.516
-36.22
-35.921
-35.621
-35.322
-35.024
-34.73
-34.442
-34.163
-33.895
-33.642
-33.408
-33.195
-33.008
-32.851
-32.728
-32.642
-32.598
-32.598
-32.647
-32.748
-32.903
-33.114
-33.384
-33.714
-34.106
-34.559
-35.074
-35.651
-36.289
-36.986
-37.74
-38.549
-39.41
-40.319
-41.271
-42.262
-43.288
-44.342
-45.419
-46.511
-47.612
-48.715
-49.811
-50.891
-51.948
-52.97
-53.949
-54.874
-55.736
-56.526
-57.233
-57.847
-58.36
-58.763
-59.046
-59.201
-59.221
-59.098
-58.826
-58.398
-57.812
-57.063
-56.149
-55.068
-53.822
-52.409
-50.832
-49.095
-47.201
-45.156
-42.966
-40.64
-38.187
-35.617
-32.944
-30.181
-27.347
-24.458
-21.532
-18.592
-15.662
-12.766
-9.931
-7.178
-4.529
-2.005
0.372
2.584
4.608
6.428
8.03
9.397
10.511
11.353
11.908
12.171
12.153
11.864
11.31
10.49
9.391
8.007
6.335
4.376
2.125
-0.422
-3.261
-6.367
-9.682
-13.131
-16.655
-20.21
-23.786
-27.391
-30.995
-34.522
-37.878
-40.95
-43.661
-45.991
-47.872
-49.201
-49.993
-50.339
-50.501
-50.946
-51.942
-53.497
-55.599
-58.17
-61.036
-64.159
-67.268
-69.618
-70.851
-70.964
-69.999
-68.359
-66.43
-64.116
-61.481
-59.2
-57.684
-57.292
-58.508
-61.441
-66.367
-73.963
-85.036
-98.854
-113.107
-125.586
-133.559
-136.573
-137.538
-136.181
-128.338
-105.765
-55.168
31.167
151.524
297.947
457.023
618.6
778.761
932.892
1071.85
1179.76
1234.993
1220.8
1133.896
982.623
786.54
569.744
352.566
154.652
-7.363
-122.601
-185.442
-200.168
-180.823
-146.203
-114.307
-96.778
-95.439
-102.962
-108.787
-105.572
-92.153
-74.3
-60.812
-56.497
-61.755
-73.998
-88.556
-102.853
-116.051
-126.874
-134.6
-138.905
-139.487
-136.753
-131.618
-124.682
-116.642
-108.673
-101.641
-96.03
-92.155
-89.917
-88.997
-89.224
-90.294
-91.665
-92.968
-93.96
-94.466
-94.567
-94.396
-93.986
-93.417
-92.782
-92.085
-91.342
-90.537
-89.562
-88.361
-86.922
-85.234
-83.345
-81.309
-79.14
-76.857
-74.443
-71.831
-68.978
-65.849
-62.402
-58.64
-54.575
-50.233
-45.696
-41.033
-36.287
-31.49
-26.649
-21.755
-16.819
-11.849
-6.85
-1.85
3.131
8.075
12.955
17.763
22.504
27.189
31.851
36.526
41.229
45.971
50.753
55.565
60.401
65.25
70.088
74.897
79.662
84.365
88.997
93.54
97.973
102.273
106.413
110.365
114.105
117.609
120.856
123.825
126.5
128.866
130.914
132.633
134.013
135.046
135.722
136.034
135.975
135.543
134.734
133.546
131.981
130.044
127.74
125.077
122.064
118.713
115.036
111.048
106.766
102.207
97.39
92.336
87.065
81.599
75.964
70.181
64.275
58.271
52.194
46.067
39.916
33.765
27.636
21.551
15.533
9.601
3.777
-1.92
-7.474
-12.867
-18.084
-23.11
-27.932
-32.54
-36.925
-41.077
-44.991
-48.661
-52.084
-55.258
-58.182
-60.856
-63.282
-65.464
-67.404
-69.11
-70.586
-71.841
-72.883
-73.721
-74.365
-74.825
-75.112
-75.236
-75.209
-75.043
-74.748
-74.337
-73.821
-73.212
-72.52
-71.756
-70.931
-70.054
-69.135
-68.183
-67.205
-66.209
-65.201
-64.189
-63.176
-62.169
-61.17
-60.183
-59.212
-58.257
-57.321
-56.405
-55.509
-54.634
-53.778
-52.942
-52.124
-51.324
-50.54
-49.772
-49.018
-48.276
-47.546
-46.825
-46.113
-45.409
-44.71
-44.017
-43.328
-42.643
-41.962
-41.284
-40.612
-39.945
-39.284
-38.632
-37.989
-37.36
-36.746
-36.15
-35.576
-35.028
-34.509
-34.024
-33.576
-33.169
-32.807
-32.494
-32.233
-32.027
-31.878
-31.789
-31.762
-31.798
-31.897
-32.06
-32.287
-32.577
-32.93
-33.343
-33.816
-34.344
-34.927
-35.559
-36.238
-36.958
-37.715
-38.503
-39.315
-40.146
-40.986
-41.828
-42.663
-43.481
-44.274
-45.031
-45.742
-46.397
-46.987
-47.501
-47.931
-48.268
-48.502
-48.627
-48.634
-48.518
-48.273
-47.894
-47.378
-46.721
-45.922
-44.978
-43.891
-42.66
-41.286
-39.773
-38.122
-36.339
-34.429
-32.399
-30.257
-28.014
-25.683
-23.278
-20.814
-18.308
-15.781
-13.25
-10.736
-8.26
-5.841
-3.497
-1.247
0.89
2.896
4.751
6.436
7.934
9.227
10.3
11.14
11.734
12.075
12.161
11.985
11.543
10.82
9.804
8.486
6.859
4.921
2.676
0.141
-2.659
-5.68
-8.87
-12.177
-15.548
-18.941
-22.309
-25.609
-28.78
-31.758
-34.476
-36.875
-38.911
-40.54
-41.746
-42.549
-43.011
-43.252
-43.402
-43.574
-43.878
-44.441
-45.383
-46.836
-48.925
-51.719
-55.332
-59.952
-65.671
-72.471
-80.159
-88.267
-96.269
-103.682
-109.877
-114.068
-115.676
-114.431
-110.572
-104.948
-98.638
-92.645
-88.038
-86.215
-87.199
-89.205
-90.265
-87.413
-80.747
-74.011
-66.626
-54.92
-28.739
27.007
116.04
234.008
369.03
503.685
633.529
758.476
874.477
975.409
1041.708
1051.533
997.531
881.95
718.47
530.062
334.552
149.16
-5.676
-117.338
-180.393
-198.615
-189.789
-172.443
-156.786
-146.944
-139.365
-128.644
-115.612
-103.14
-94.122
-91.495
-94.729
-101.379
-109.396
-116.458
-120.631
-121.325
-118.623
-112.969
-105.35
-96.793
-88.09
-80.104
-73.641
-69.05
-66.391
-65.56
-66.23
-68.11
-70.985
-74.577
-78.613
-82.9
-87.24
-91.462
-95.427
-98.961
-101.93
-104.259
-105.893
-106.819
-107.053
-106.621
-105.57
-103.972
-101.89
-99.385
-96.518
-93.345
-89.934
-86.362
-82.702
-79.029
-75.392
-71.821
-68.334
-64.936
-61.619
-58.369
-55.162
-51.968
-48.764
-45.534
-42.262
-38.937
-35.544
-32.066
-28.489
-24.799
-20.986
-17.044
-12.969
-8.761
-4.42
0.046
4.63
9.32
14.107
18.982
23.934
28.952
34.025
39.139
44.28
49.431
54.576
59.696
64.77
69.776
74.694
79.5
84.173
88.689
93.026
97.162
101.074
104.742
108.145
111.264
114.078
116.573
118.731
120.539
121.984
123.056
123.746
124.048
123.958
123.473
122.593
121.322
119.662
117.62
115.205
112.427
109.299
105.835
102.05
97.963
93.594
88.963
84.092
79.004
73.724
68.276
62.686
56.979
51.181
45.318
39.415
33.497
27.589
21.713
15.893
10.151
4.506
-1.021
-6.414
-11.656
-16.731
-21.627
-26.332
-30.835
-35.129
-39.206
-43.061
-46.691
-50.093
-53.267
-56.213
-58.933
-61.43
-63.708
-65.773
-67.631
-69.289
-70.755
-72.037
-73.145
-74.087
-74.875
-75.517
-76.023
-76.404
-76.668
-76.826
-76.887
-76.859
-76.751
-76.572
-76.329
-76.03
-75.681
-75.289
-74.859
-74.397
-73.907
-73.392
-72.857
-72.304
-71.736
-71.153
-70.559
-69.955
-69.34
-68.716
-68.083
-67.442
-66.791
-66.131
-65.462
-64.784
-64.096
-63.399
-62.693
-61.98
-61.259
-60.532
-59.8
-59.065
-58.328
-57.591
-56.855
-56.122
-55.395
-54.674
-53.962
-53.261
-52.574
-51.902
-51.248
-50.615
-50.005
-49.42
-48.863
-48.336
-47.842
-47.383
-46.961
-46.579
-46.24
-45.944
-45.694
-45.49
-45.335
-45.228
-45.169
-45.157
-45.191
-45.271
-45.392
-45.554
-45.754
-45.988
-46.253
-46.546
-46.865
-47.204
-47.561
-47.931
-48.309
-48.692
-49.075
-49.452
-49.818
-50.168
-50.495
-50.795
-51.06
-51.285
-51.461
-51.584
-51.643
-51.634
-51.547
-51.377
-51.116
-50.758
-50.297
-49.728
-49.048
-48.251
-47.336
-46.3
-45.141
-43.86
-42.455
-40.927
-39.278
-37.509
-35.626
-33.631
-31.529
-29.328
-27.035
-24.661
-22.217
-19.715
-17.17
-14.596
-12.009
-9.428
-6.869
-4.349
-1.884
0.505
2.802
4.985
7.034
8.928
10.651
12.186
13.516
14.627
15.507
16.15
16.552
16.706
16.602
16.225
15.559
14.595
13.329
11.761
9.899
7.754
5.347
2.716
-0.1
-3.06
-6.126
-9.268
-12.455
-15.644
-18.777
-21.783
-24.59
-27.14
-29.384
-31.283
-32.822
-34.002
-34.865
-35.491
-35.959
-36.357
-36.775
-37.303
-38.056
-39.151
-40.679
-42.766
-45.577
-49.184
-53.596
-58.679
-64.051
-69.329
-74.186
-78.156
-80.73
-81.573
-80.448
-77.552
-73.782
-69.95
-66.616
-64.573
-64.497
-66.782
-72.018
-78.945
-83.608
-82.459
-72.041
-51.145
-24.234
5.413
37.755
75.373
129.501
211.647
326.355
473.829
642.784
813.357
965.065
1075.754
1126.891
1108.914
1021.649
873.854
683.005
471.64
261.767
74.962
-70.692
-165.44
-207.826
-204.102
-168.001
-116.342
-63.744
-24.433
-7.579
-12.916
-35.716
-64.57
-87.094
-99.188
-100.926
-96.853
-93.33
-91.422
-90.145
-88.192
-83.59
-76.591
-68.603
-60.458
-53.15
-47.431
-43.385
-41.055
-40.387
-41.089
-42.939
-45.788
-49.437
-53.666
-58.293
-63.113
-67.916
-72.527
-76.747
-80.41
-83.409
-85.671
-87.173
-87.913
-87.912
-87.216
-85.888
-83.994
-81.597
-78.757
-75.533
-72
-68.244
-64.353
-60.416
-56.493
-52.626
-48.842
-45.151
-41.553
-38.042
-34.593
-31.181
-27.785
-24.39
-20.984
-17.56
-14.104
-10.601
-7.036
-3.396
0.329
4.145
8.058
12.071
16.181
20.387
24.681
29.055
33.503
38.019
42.597
47.232
51.917
56.642
61.4
66.18
70.97
75.756
80.522
85.251
89.925
94.525
99.031
103.424
107.682
111.787
115.718
119.455
122.978
126.269
129.31
132.083
134.572
136.762
138.64
140.191
141.407
142.277
142.793
142.949
142.742
142.167
141.225
139.915
138.241
136.206
133.818
131.083
128.013
124.62
120.918
116.923
112.654
108.13
103.371
98.4
93.24
87.915
82.449
76.866
71.191
65.449
59.664
53.859
48.059
42.287
36.563
30.91
25.346
19.892
14.565
9.381
4.356
-0.496
-5.163
-9.632
-13.895
-17.942
-21.766
-25.363
-28.727
-31.857
-34.753
-37.414
-39.843
-42.045
-44.024
-45.788
-47.342
-48.696
-49.86
-50.842
-51.653
-52.304
-52.805
-53.167
-53.401
-53.518
-53.529
-53.443
-53.27
-53.021
-52.705
-52.33
-51.906
-51.44
-50.94
-50.415
-49.871
-49.313
-48.75
-48.184
-47.621
-47.066
-46.52
-45.987
-45.469
-44.965
-44.478
-44.007
-43.551
-43.109
-42.68
-42.264
-41.857
-41.46
-41.072
-40.69
-40.315
-39.947
-39.585
-39.23
-38.883
-38.544
-38.214
-37.895
-37.588
-37.294
-37.015
-36.752
-36.506
-36.281
-36.077
-35.896
-35.741
-35.614
-35.518
-35.455
-35.428
-35.44
-35.495
-35.596
-35.746
-35.949
-36.209
-36.527
-36.907
-37.351
-37.858
-38.43
-39.066
-39.765
-40.524
-41.341
-42.21
-43.129
-44.093
-45.095
-46.13
-47.191
-48.273
-49.367
-50.466
-51.563
-52.648
-53.714
-54.752
-55.754
-56.709
-57.609
-58.444
-59.204
-59.879
-60.459
-60.934
-61.292
-61.525
-61.622
-61.576
-61.377
-61.021
-60.5
-59.812
-58.954
-57.924
-56.725
-55.356
-53.823
-52.128
-50.28
-48.285
-46.153
-43.894
-41.519
-39.042
-36.478
-33.847
-31.165
-28.452
-25.729
-23.018
-20.34
-17.72
-15.176
-12.729
-10.4
-8.209
-6.181
-4.338
-2.701
-1.292
-0.128
0.774
1.398
1.734
1.779
1.534
0.999
0.17
-0.964
-2.414
-4.184
-6.277
-8.691
-11.416
-14.434
-17.722
-21.231
-24.916
-28.728
-32.621
-36.563
-40.517
-44.435
-48.258
-51.915
-55.327
-58.429
-61.155
-63.444
-65.275
-66.645
-67.595
-68.205
-68.535
-68.652
-68.654
-68.63
-68.684
-68.935
-69.458
-70.383
-71.968
-74.369
-77.605
-81.562
-85.818
-89.87
-93.327
-95.637
-96.05
-94.1
-89.729
-83.363
-76.158
-69.625
-65.095
-63.794
-67.275
-75.513
-86.215
-97.015
-104.597
-107.402
-108.129
-106.768
-98.864
-76.792
-28.169
55.454
172.271
315.893
475.773
639.434
798.075
939.141
1045.441
1101.189
1093.167
1019.147
888.853
718.669
528.614
336.656
158.566
7.097
-109.644
-188.867
-233.424
-248.708
-241.239
-216.011
-178.791
-139.041
-104.786
-82.136
-72.106
-67.828
-63.395
-56.435
-47.836
-42.963
-45.307
-54.298
-67.552
-81.343
-92.828
-101.047
-105.988
-108.012
-107.521
-105.101
-101.467
-97.414
-93.971
-91.843
-91.25
-92.279
-94.766
-98.373
-102.814
-107.678
-112.412
-116.631
-120.131
-122.797
-124.664
-125.783
-126.143
-125.792
-124.814
-123.274
-121.237
-118.748
-115.824
-112.503
-108.852
-104.945
-100.87
-96.702
-92.488
-88.259
-84.039
-79.838
-75.667
-71.525
-67.402
-63.284
-59.162
-55.028
-50.88
-46.711
-42.511
-38.265
-33.96
-29.582
-25.127
-20.589
-15.968
-11.264
-6.478
-1.616
3.316
8.308
13.355
18.449
23.583
28.752
33.945
39.152
44.362
49.564
54.745
59.89
64.984
70.01
74.951
79.79
84.509
89.091
93.518
97.772
101.836
105.692
109.323
112.714
115.849
118.712
121.29
123.571
125.543
127.194
128.518
129.506
130.153
130.455
130.409
130.014
129.271
128.182
126.75
124.981
122.882
120.462
117.729
114.696
111.376
107.783
103.934
99.845
95.534
91.019
86.319
81.454
76.444
71.308
66.068
60.744
55.356
49.925
44.471
39.014
33.572
28.163
22.806
17.517
12.312
7.206
2.212
-2.656
-7.387
-11.969
-16.393
-20.651
-24.735
-28.638
-32.356
-35.884
-39.22
-42.361
-45.307
-48.058
-50.614
-52.978
-55.153
-57.141
-58.946
-60.574
-62.029
-63.317
-64.445
-65.42
-66.25
-66.941
-67.502
-67.941
-68.266
-68.485
-68.606
-68.638
-68.587
-68.462
-68.271
-68.019
-67.715
-67.365
-66.975
-66.55
-66.097
-65.619
-65.122
-64.609
-64.085
-63.552
-63.014
-62.475
-61.936
-61.4
-60.87
-60.347
-59.833
-59.33
-58.838
-58.359
-57.893
-57.441
-57.002
-56.577
-56.165
-55.767
-55.383
-55.012
-54.654
-54.308
-53.976
-53.657
-53.352
-53.062
-52.787
-52.528
-52.286
-52.064
-51.862
-51.683
-51.529
-51.401
-51.301
-51.231
-51.193
-51.187
-51.216
-51.28
-51.38
-51.517
-51.69
-51.901
-52.148
-52.431
-52.75
-53.104
-53.492
-53.913
-54.365
-54.846
-55.353
-55.883
-56.434
-57
-57.578
-58.161
-58.744
-59.322
-59.887
-60.434
-60.953
-61.439
-61.882
-62.276
-62.61
-62.878
-63.07
-63.179
-63.198
-63.119
-62.937
-62.645
-62.24
-61.716
-61.072
-60.303
-59.41
-58.391
-57.246
-55.975
-54.582
-53.068
-51.439
-49.7
-47.86
-45.93
-43.921
-41.848
-39.724
-37.566
-35.39
-33.216
-31.059
-28.935
-26.86
-24.852
-22.926
-21.105
-19.407
-17.851
-16.452
-15.228
-14.191
-13.358
-12.735
-12.324
-12.126
-12.143
-12.385
-12.872
-13.621
-14.639
-15.933
-17.505
-19.349
-21.454
-23.799
-26.335
-29.017
-31.797
-34.633
-37.499
-40.359
-43.165
-45.853
-48.343
-50.561
-52.447
-53.952
-55.033
-55.672
-55.878
-55.702
-55.237
-54.578
-53.83
-53.114
-52.544
-52.243
-52.324
-52.919
-54.226
-56.425
-59.591
-63.615
-68.202
-72.963
-77.515
-81.41
-84.031
-84.783
-83.345
-80.003
-75.618
-71.206
-67.922
-66.922
-69.26
-76.225
-87.562
-100.213
-110.702
-115.408
-112.645
-105.379
-94.983
-77.914
-47.621
6.8
94.841
216.588
367.145
538.348
715.923
884.794
1027.76
1122.866
1153.854
1115.958
1013.996
863.19
683.33
490.35
299.458
128.092
-7.482
-95.53
-133.194
-131.132
-110.321
-89.11
-78.137
-80.543
-88.835
-95.098
-97.213
-93.4
-86.916
-83.38
-83.842
-88.813
-96.998
-104.409
-108.865
-109.748
-107.029
-101.754
-95.016
-87.428
-79.646
-72.486
-66.64
-62.473
-60.093
-59.393
-60.1
-61.991
-64.87
-68.454
-72.474
-76.742
-81.057
-85.248
-89.168
-92.627
-95.487
-97.675
-99.14
-99.866
-99.865
-99.154
-97.78
-95.822
-93.349
-90.43
-87.134
-83.519
-79.659
-75.639
-71.537
-67.436
-63.389
-59.43
-55.579
-51.845
-48.223
-44.704
-41.266
-37.877
-34.516
-31.164
-27.807
-24.432
-21.023
-17.562
-14.032
-10.416
-6.703
-2.883
1.051
5.103
9.274
13.562
17.962
22.467
27.07
31.764
36.545
41.403
46.332
51.32
56.356
61.427
66.521
71.618
76.702
81.751
86.746
91.665
96.486
101.187
105.745
110.138
114.343
118.339
122.103
125.616
128.855
131.803
134.441
136.752
138.722
140.336
141.584
142.456
142.945
143.044
142.752
142.066
140.987
139.519
137.667
135.437
132.839
129.884
126.587
122.961
119.025
114.799
110.303
105.559
100.591
95.423
90.08
84.589
78.975
73.264
67.484
61.66
55.82
49.988
44.191
38.452
32.795
27.243
21.816
16.535
11.417
6.48
1.739
-2.792
-7.101
-11.178
-15.013
-18.599
-21.932
-25.007
-27.822
-30.376
-32.671
-34.709
-36.495
-38.034
-39.332
-40.397
-41.239
-41.867
-42.291
-42.524
-42.577
-42.463
-42.195
-41.787
-41.252
-40.604
-39.856
-39.023
-38.118
-37.153
-36.142
-35.096
-34.027
-32.945
-31.862
-30.787
-29.728
-28.694
-27.692
-26.728
-25.809
-24.94
-24.124
-23.366
-22.667
-22.032
-21.459
-20.952
-20.508
-20.129
-19.812
-19.556
-19.36
-19.22
-19.135
-19.1
-19.113
-19.17
-19.266
-19.399
-19.563
-19.755
-19.971
-20.206
-20.459
-20.725
-21.001
-21.285
-21.575
-21.87
-22.166
-22.463
-22.761
-23.057
-23.352
-23.646
-23.938
-24.23
-24.521
-24.813
-25.107
-25.405
-25.707
-26.016
-26.333
-26.659
-26.995
-27.344
-27.706
-28.083
-28.476
-28.886
-29.314
-29.762
-30.229
-30.714
-31.218
-31.738
-32.273
-32.819
-33.374
-33.932
-34.491
-35.044
-35.587
-36.115
-36.621
-37.099
-37.543
-37.945
-38.298
-38.595
-38.828
-38.99
-39.073
-39.07
-38.975
-38.783
-38.488
-38.083
-37.566
-36.932
-36.177
-35.301
-34.299
-33.173
-31.923
-30.551
-29.061
-27.458
-25.749
-23.942
-22.05
-20.087
-18.065
-16.002
-13.914
-11.82
-9.741
-7.694
-5.699
-3.773
-1.934
-0.203
1.399
2.853
4.136
5.231
6.12
6.785
7.212
7.388
7.308
6.971
6.371
5.502
4.344
2.884
1.114
-0.972
-3.377
-6.09
-9.1
-12.38
-15.882
-19.557
-23.357
-27.237
-31.166
-35.109
-39.019
-42.839
-46.494
-49.906
-53.017
-55.765
-58.099
-60.001
-61.475
-62.571
-63.393
-64.02
-64.54
-65.051
-65.626
-66.362
-67.36
-68.692
-70.494
-72.986
-76.322
-80.539
-85.538
-90.97
-96.386
-101.36
-105.297
-107.422
-107.099
-104.12
-98.792
-91.942
-84.902
-79.004
-75.413
-75.848
-80.708
-87.981
-95.511
-100.506
-101.949
-103.271
-105.366
-103.934
-90.023
-48.737
30.524
147.421
295.079
459.965
627.495
788.778
932.076
1043.708
1111.968
1123.053
1073.725
970.585
822.791
647.359
458.112
268.571
96.818
-44.279
-141.771
-191.011
-200.642
-181.28
-149.871
-120.955
-99.238
-89.02
-87.561
-88.068
-88.343
-85.039
-78.654
-74.568
-75.205
-81.51
-92.266
-103.247
-111.845
-117.486
-120.307
-120.947
-119.519
-115.98
-110.801
-104.968
-99.675
-95.543
-92.695
-91.193
-91.106
-92.468
-95.204
-98.942
-103.087
-107.224
-111.122
-114.598
-117.537
-119.825
-121.349
-122.09
-122.118
-121.49
-120.252
-118.441
-116.079
-113.205
-109.884
-106.186
-102.181
-97.949
-93.565
-89.106
-84.644
-80.235
-75.913
-71.701
-67.61
-63.638
-59.779
-56.019
-52.341
-48.73
-45.175
-41.66
-38.171
-34.691
-31.206
-27.7
-24.159
-20.572
-16.931
-13.229
-9.461
-5.626
-1.724
2.242
6.268
10.352
14.49
18.679
22.914
27.19
31.5
35.836
40.191
44.555
48.914
53.257
57.568
61.831
66.032
70.153
74.177
78.087
81.863
85.49
88.949
92.221
95.291
98.141
100.754
103.115
105.209
107.023
108.543
109.76
110.663
111.244
111.498
111.42
111.006
110.255
109.169
107.748
105.997
103.921
101.527
98.823
95.822
92.534
88.974
85.157
81.099
76.818
72.331
67.66
62.822
57.84
52.734
47.526
42.237
36.889
31.506
26.108
20.717
15.354
10.041
4.795
-0.363
-5.416
-10.347
-15.14
-19.782
-24.259
-28.559
-32.672
-36.588
-40.299
-43.799
-47.082
-50.145
-52.985
-55.601
-57.992
-60.16
-62.107
-63.835
-65.351
-66.658
-67.763
-68.673
-69.397
-69.943
-70.321
-70.54
-70.612
-70.547
-70.357
-70.053
-69.647
-69.15
-68.574
-67.928
-67.224
-66.472
-65.68
-64.859
-64.015
-63.158
-62.294
-61.431
-60.574
-59.729
-58.901
-58.096
-57.315
-56.565
-55.846
-55.162
-54.515
-53.906
-53.337
-52.808
-52.319
-51.87
-51.461
-51.089
-50.755
-50.455
-50.188
-49.951
-49.743
-49.561
-49.403
-49.267
-49.151
-49.054
-48.976
-48.914
-48.87
-48.842
-48.83
-48.834
-48.854
-48.89
-48.942
-49.011
-49.096
-49.197
-49.315
-49.45
-49.601
-49.767
-49.947
-50.142
-50.349
-50.567
-50.795
-51.032
-51.276
-51.526
-51.78
-52.036
-52.293
-52.548
-52.798
-53.039
-53.269
-53.483
-53.675
-53.841
-53.975
-54.071
-54.123
-54.127
-54.075
-53.961
-53.779
-53.525
-53.191
-52.774
-52.268
-51.668
-50.971
-50.174
-49.276
-48.275
-47.17
-45.961
-44.649
-43.237
-41.726
-40.119
-38.419
-36.63
-34.759
-32.811
-30.792
-28.713
-26.582
-24.413
-22.222
-20.022
-17.831
-15.666
-13.544
-11.484
-9.503
-7.615
-5.835
-4.178
-2.659
-1.295
-0.105
0.899
1.705
2.301
2.678
2.824
2.733
2.41
1.856
1.07
0.047
-1.234
-2.787
-4.616
-6.721
-9.098
-11.737
-14.626
-17.738
-21.019
-24.415
-27.873
-31.34
-34.788
-38.175
-41.44
-44.511
-47.299
-49.723
-51.738
-53.311
-54.406
-55.015
-55.155
-54.887
-54.322
-53.596
-52.836
-52.167
-51.726
-51.663
-52.121
-53.285
-55.377
-58.512
-62.689
-67.766
-73.388
-79.145
-84.691
-89.538
-93.071
-94.893
-94.825
-93.113
-90.678
-88.551
-87.473
-88.104
-91.118
-96.83
-105.221
-115.617
-124.815
-128.049
-121.567
-101.76
-69.11
-28.244
19.594
73.57
137.617
222.147
331.552
467.32
624.246
784.927
930.631
1040.774
1095.042
1083.333
1004.743
866.344
685.894
485.338
285.823
108.974
-30.008
-124.159
-173.59
-186.196
-173.001
-145.905
-114.994
-89.589
-76.795
-77.948
-90.855
-107.923
-121.365
-128.635
-130.512
-131.378
-134.482
-139.353
-144.004
-145.817
-143.771
-138.617
-131.49
-123.567
-115.657
-108.266
-101.925
-96.95
-93.377
-91.145
-90.09
-90.044
-90.881
-92.399
-94.369
-96.619
-99.029
-101.485
-103.866
-106.027
-107.831
-109.237
-110.269
-110.934
-111.211
-111.039
-110.367
-109.213
-107.626
-105.658
-103.353
-100.736
-97.836
-94.714
-91.449
-88.101
-84.705
-81.243
-77.665
-73.959
-70.142
-66.266
-62.369
-58.456
-54.515
-50.544
-46.556
-42.563
-38.567
-34.543
-30.461
-26.306
-22.082
-17.814
-13.529
-9.238
-4.929
-0.584
3.81
8.256
12.752
17.3
21.91
26.586
31.318
36.085
40.863
45.636
50.393
55.126
59.824
64.468
69.037
73.509
77.864
82.08
86.135
90.004
93.661
97.084
100.255
103.16
105.782
108.108
110.122
111.812
113.166
114.174
114.829
115.122
115.046
114.599
113.779
112.589
111.031
109.109
106.831
104.206
101.244
97.958
94.361
90.468
86.297
81.866
77.197
72.309
67.226
61.971
56.568
51.041
45.417
39.719
33.973
28.203
22.434
16.689
10.991
5.363
-0.175
-5.602
-10.9
-16.051
-21.038
-25.847
-30.465
-34.88
-39.082
-43.062
-46.812
-50.327
-53.602
-56.635
-59.424
-61.968
-64.268
-66.326
-68.147
-69.735
-71.095
-72.236
-73.163
-73.888
-74.418
-74.763
-74.935
-74.944
-74.801
-74.517
-74.105
-73.575
-72.938
-72.206
-71.389
-70.497
-69.541
-68.528
-67.468
-66.369
-65.239
-64.085
-62.913
-61.729
-60.541
-59.352
-58.167
-56.992
-55.829
-54.682
-53.553
-52.446
-51.362
-50.303
-49.27
-48.264
-47.286
-46.337
-45.416
-44.525
-43.663
-42.829
-42.024
-41.248
-40.501
-39.782
-39.093
-38.433
-37.803
-37.205
-36.639
-36.107
-35.608
-35.146
-34.72
-34.331
-33.982
-33.672
-33.403
-33.176
-32.992
-32.852
-32.756
-32.704
-32.698
-32.735
-32.816
-32.94
-33.105
-33.31
-33.552
-33.83
-34.14
-34.48
-34.847
-35.236
-35.643
-36.064
-36.493
-36.925
-37.353
-37.77
-38.17
-38.546
-38.891
-39.198
-39.46
-39.67
-39.82
-39.905
-39.916
-39.848
-39.694
-39.447
-39.101
-38.652
-38.094
-37.424
-36.639
-35.737
-34.716
-33.577
-32.318
-30.943
-29.451
-27.847
-26.135
-24.319
-22.406
-20.402
-18.318
-16.163
-13.952
-11.699
-9.418
-7.126
-4.84
-2.576
-0.353
1.813
3.909
5.918
7.826
9.616
11.271
12.773
14.107
15.259
16.217
16.967
17.498
17.803
17.882
17.733
17.352
16.732
15.852
14.7
13.269
11.558
9.569
7.311
4.794
2.045
-0.891
-3.965
-7.129
-10.337
-13.56
-16.758
-19.88
-22.861
-25.62
-28.086
-30.211
-31.957
-33.298
-34.222
-34.737
-34.893
-34.782
-34.514
-34.217
-34.005
-33.999
-34.344
-35.153
-36.587
-38.86
-42.061
-46.209
-51.209
-56.716
-62.377
-67.934
-72.962
-76.95
-79.59
-80.582
-80.033
-78.794
-77.641
-77.147
-77.855
-80.156
-84.336
-90.764
-99.208
-106.751
-109.138
-103.244
-86.027
-58.738
-26.547
10.889
54.998
109.746
186.298
287.203
410.222
552.857
701.035
839.894
955.235
1026.896
1040.951
994.108
889.672
740.939
568.5
389.299
218.859
73.333
-37.867
-109.318
-139.031
-135.255
-110.567
-76.779
-48.422
-34.282
-35.07
-48.554
-65.658
-77.84
-82.934
-82.053
-80.352
-81.894
-86.468
-91.786
-94.753
-93.985
-89.992
-83.848
-76.758
-69.46
-62.485
-56.544
-52.069
-49.163
-47.764
-47.625
-48.558
-50.445
-53.105
-56.3
-59.81
-63.464
-67.111
-70.626
-73.853
-76.613
-78.78
-80.28
-81.076
-81.17
-80.578
-79.327
-77.463
-75.054
-72.159
-68.841
-65.161
-61.174
-56.948
-52.557
-48.071
-43.562
-39.08
-34.656
-30.31
-26.046
-21.86
-17.743
-13.68
-9.646
-5.625
-1.605
2.425
6.471
10.544
14.655
18.814
23.032
27.316
31.669
36.092
40.587
45.149
49.774
54.455
59.183
63.95
68.749
73.573
78.415
83.265
88.113
92.949
97.761
102.537
107.261
111.918
116.492
120.965
125.319
129.537
133.6
137.491
141.191
144.683
147.948
150.971
153.735
156.225
158.428
160.329
161.917
163.182
164.115
164.708
164.954
164.85
164.393
163.581
162.414
160.895
159.027
156.817
154.27
151.396
148.205
144.708
140.921
136.857
132.533
127.968
123.178
118.186
113.01
107.672
102.194
96.598
90.906
85.139
79.32
73.469
67.609
61.758
55.936
50.163
44.457
38.833
33.308
27.898
22.615
17.473
12.482
7.654
2.998
-1.48
-5.771
-9.872
-13.776
-17.481
-20.985
-24.288
-27.388
-30.289
-32.992
-35.5
-37.817
-39.949
-41.9
-43.678
-45.287
-46.736
-48.031
-49.181
-50.191
-51.071
-51.827
-52.467
-52.998
-53.427
-53.761
-54.006
-54.169
-54.255
-54.271
-54.221
-54.112
-53.948
-53.733
-53.473
-53.171
-52.831
-52.458
-52.055
-51.625
-51.171
-50.696
-50.204
-49.697
-49.178
-48.649
-48.112
-47.571
-47.027
-46.483
-45.941
-45.404
-44.873
-44.352
-43.843
-43.349
-42.873
-42.419
-41.989
-41.587
-41.216
-40.881
-40.584
-40.33
-40.12
-39.959
-39.85
-39.796
-39.8
-39.863
-39.989
-40.179
-40.435
-40.757
-41.146
-41.601
-42.122
-42.708
-43.357
-44.068
-44.837
-45.661
-46.538
-47.465
-48.436
-49.447
-50.494
-51.569
-52.668
-53.782
-54.905
-56.03
-57.146
-58.247
-59.323
-60.366
-61.367
-62.315
-63.202
-64.017
-64.752
-65.398
-65.945
-66.384
-66.707
-66.908
-66.98
-66.918
-66.716
-66.372
-65.881
-65.243
-64.457
-63.522
-62.44
-61.212
-59.843
-58.337
-56.699
-54.937
-53.059
-51.075
-48.999
-46.846
-44.63
-42.368
-40.08
-37.783
-35.499
-33.247
-31.046
-28.914
-26.87
-24.932
-23.121
-21.459
-19.964
-18.654
-17.546
-16.653
-15.99
-15.569
-15.391
-15.456
-15.768
-16.332
-17.165
-18.281
-19.685
-21.382
-23.371
-25.643
-28.185
-30.975
-33.968
-37.116
-40.376
-43.704
-47.071
-50.447
-53.78
-57.01
-60.062
-62.855
-65.337
-67.457
-69.16
-70.434
-71.289
-71.773
-71.987
-72.01
-71.908
-71.779
-71.708
-71.791
-72.157
-72.883
-74.09
-76.029
-78.821
-82.449
-86.792
-91.42
-95.828
-99.654
-102.351
-103.164
-101.66
-97.783
-91.925
-85.201
-78.981
-74.408
-72.576
-74.955
-81.609
-90.397
-98.921
-103.818
-103.456
-100.76
-96.799
-88.193
-68.095
-24.129
53.771
165.502
305.751
464.192
627.361
785.635
926.399
1033.19
1090.52
1084.123
1010.297
876.671
698.748
498.311
295.148
107.55
-47.768
-159.749
-222.662
-239.176
-222.269
-190.318
-160.523
-143.874
-141.358
-144.561
-142.44
-128.447
-102.511
-71.261
-44.756
-28.954
-24.892
-30.876
-43.052
-58.446
-75.886
-93.796
-110.037
-123.207
-132.406
-137.188
-137.993
-135.519
-130.299
-123.437
-116.509
-110.45
-105.766
-102.711
-101.05
-100.571
-101.151
-102.348
-103.524
-104.267
-104.349
-103.717
-102.52
-100.861
-98.806
-96.5
-94.133
-91.859
-89.783
-87.928
-86.245
-84.679
-83.179
-81.726
-80.329
-78.998
-77.734
-76.526
-75.355
-74.194
-72.999
-71.703
-70.21
-68.432
-66.304
-63.804
-60.941
-57.753
-54.3
-50.629
-46.774
-42.764
-38.611
-34.327
-29.918
-25.389
-20.742
-15.997
-11.193
-6.365
-1.545
3.253
8.027
12.791
17.565
22.37
27.221
32.125
37.08
42.077
47.097
52.116
57.105
62.039
66.896
71.658
76.308
80.826
85.189
89.371
93.347
97.089
100.571
103.77
106.662
109.23
111.458
113.336
114.855
116.01
116.794
117.203
117.232
116.88
116.144
115.026
113.526
111.648
109.399
106.787
103.822
100.518
96.889
92.952
88.723
84.223
79.472
74.49
69.3
63.925
58.387
52.712
46.921
41.041
35.095
29.106
23.099
17.096
11.12
5.191
-0.67
-6.443
-12.11
-17.655
-23.059
-28.309
-33.389
-38.285
-42.985
-47.478
-51.753
-55.802
-59.618
-63.195
-66.529
-69.618
-72.46
-75.054
-77.403
-79.507
-81.371
-82.998
-84.394
-85.566
-86.52
-87.264
-87.807
-88.158
-88.326
-88.322
-88.155
-87.837
-87.376
-86.785
-86.074
-85.253
-84.334
-83.328
-82.244
-81.095
-79.891
-78.643
-77.359
-76.051
-74.728
-73.398
-72.07
-70.752
-69.451
-68.174
-66.927
-65.715
-64.543
-63.417
-62.338
-61.311
-60.339
-59.423
-58.564
-57.765
-57.026
-56.346
-55.728
-55.169
-54.67
-54.231
-53.85
-53.527
-53.26
-53.048
-52.889
-52.781
-52.722
-52.709
-52.74
-52.814
-52.926
-53.075
-53.259
-53.474
-53.72
-53.993
-54.291
-54.612
-54.954
-55.315
-55.692
-56.084
-56.488
-56.902
-57.326
-57.756
-58.191
-58.628
-59.064
-59.497
-59.924
-60.34
-60.742
-61.125
-61.485
-61.818
-62.119
-62.383
-62.606
-62.782
-62.907
-62.974
-62.979
-62.917
-62.782
-62.567
-62.269
-61.881
-61.4
-60.821
-60.141
-59.355
-58.461
-57.458
-56.343
-55.115
-53.774
-52.321
-50.757
-49.084
-47.308
-45.431
-43.463
-41.413
-39.291
-37.111
-34.886
-32.631
-30.363
-28.099
-25.855
-23.649
-21.496
-19.413
-17.418
-15.528
-13.763
-12.143
-10.687
-9.413
-8.337
-7.475
-6.842
-6.443
-6.287
-6.375
-6.717
-7.328
-8.221
-9.407
-10.894
-12.686
-14.783
-17.172
-19.829
-22.715
-25.784
-28.987
-32.278
-35.619
-38.965
-42.275
-45.49
-48.54
-51.362
-53.894
-56.081
-57.873
-59.235
-60.169
-60.72
-60.992
-61.086
-61.09
-61.094
-61.204
-61.558
-62.303
-63.583
-65.485
-68.108
-71.65
-76.229
-81.836
-88.252
-94.951
-101.352
-106.983
-111.319
-113.664
-113.501
-110.659
-105.591
-99.515
-93.625
-88.931
-86.422
-87.097
-91.94
-99.898
-107.286
-110.108
-104.027
-88.829
-69.208
-45.145
-14.164
31.136
105.112
212.16
350.051
511.919
680.898
844.382
989.522
1099.626
1161.301
1160.493
1091.096
958.013
774.503
563.034
347.607
151.565
-6.043
-114.726
-174.118
-192.119
-179.696
-151.25
-116.751
-84.492
-65.256
-60.938
-70.741
-89.554
-104.336
-109.553
-104.695
-92.088
-79.685
-71.027
-65.666
-63.229
-61.985
-61.502
-62.909
-66.342
-71.179
-76.802
-82.359
-87.123
-90.75
-92.996
-93.715
-93.273
-92.47
-91.876
-91.921
-92.858
-94.587
-96.973
-99.848
-102.828
-105.454
-107.427
-108.562
-108.797
-108.225
-106.913
-104.919
-102.354
-99.322
-95.903
-92.162
-88.14
-83.865
-79.389
-74.798
-70.179
-65.604
-61.12
-56.738
-52.452
-48.273
-44.212
-40.217
-36.242
-32.253
-28.211
-24.139
-20.09
-16.025
-11.879
-7.779
-3.875
-0.055
3.684
7.317
11.208
14.392
15.926
17.152
18.473
22.355
31.751
43.387
55.079
63.579
64.42
61.541
58.279
56.915
61.226
68.491
75.952
82.986
87.906
91.666
95.498
99.15
102.763
106.239
109.307
112.117
114.787
117.256
119.501
121.524
123.308
124.832
126.079
127.018
127.611
127.865
127.787
127.369
126.611
125.515
124.08
122.315
120.228
117.825
115.115
112.109
108.818
105.258
101.446
97.399
93.136
88.677
84.043
79.255
74.336
69.308
64.192
59.013
53.791
48.55
43.31
38.094
32.922
27.813
22.787
17.862
13.053
8.377
3.846
-0.527
-4.73
-8.754
-12.59
-16.232
-19.673
-22.91
-25.939
-28.759
-31.369
-33.771
-35.968
-37.962
-39.76
-41.365
-42.786
-44.028
-45.101
-46.011
-46.767
-47.379
-47.856
-48.206
-48.439
-48.565
-48.592
-48.529
-48.386
-48.17
-47.89
-47.552
-47.165
-46.734
-46.267
-45.767
-45.242
-44.695
-44.131
-43.554
-42.968
-42.374
-41.775
-41.174
-40.571
-39.968
-39.366
-38.765
-38.166
-37.569
-36.974
-36.383
-35.795
-35.21
-34.631
-34.056
-33.488
-32.926
-32.374
-31.831
-31.3
-30.783
-30.28
-29.795
-29.329
-28.885
-28.463
-28.067
-27.698
-27.358
-27.05
-26.775
-26.534
-26.33
-26.164
-26.036
-25.948
-25.9
-25.892
-25.924
-25.995
-26.104
-26.25
-26.431
-26.644
-26.887
-27.155
-27.445
-27.751
-28.068
-28.388
-28.707
-29.016
-29.309
-29.579
-29.818
-30.02
-30.177
-30.282
-30.328
-30.308
-30.215
-30.043
-29.784
-29.433
-28.986
-28.438
-27.785
-27.025
-26.155
-25.175
-24.083
-22.881
-21.57
-20.15
-18.626
-17.002
-15.283
-13.477
-11.59
-9.635
-7.624
-5.573
-3.497
-1.412
0.663
2.711
4.714
6.653
8.514
10.283
11.946
13.488
14.892
16.141
17.219
18.112
18.807
19.293
19.557
19.593
19.401
18.984
18.342
17.469
16.351
14.972
13.324
11.403
9.207
6.748
4.043
1.122
-1.962
-5.151
-8.389
-11.619
-14.804
-17.902
-20.861
-23.621
-26.108
-28.247
-29.981
-31.26
-32.041
-32.326
-32.144
-31.568
-30.724
-29.72
-28.672
-27.726
-27.012
-26.665
-26.826
-27.582
-29.067
-31.532
-35.097
-39.737
-45.308
-51.341
-57.314
-62.835
-67.292
-69.89
-70.169
-68.012
-63.743
-58.427
-53.339
-49.557
-48.26
-50.89
-57.196
-64.786
-71.108
-72.518
-67.655
-59.975
-50.365
-36.412
-12.204
35.947
118.563
237.97
391.363
563.887
736.983
894.613
1018.801
1099.515
1130.536
1106.348
1030.051
904.358
737.179
546.406
350.348
174.732
43.437
-33.972
-57.405
-43.803
-19.382
-3.633
-8.432
-31.774
-60.871
-83.994
-94.215
-91.268
-80.928
-70.009
-61.986
-57.546
-55.536
-53.521
-50.571
-47.362
-44.768
-43.701
-44.701
-47.476
-51.264
-55.671
-60.315
-64.477
-67.677
-69.671
-70.307
-69.969
-69.442
-69.137
-69.315
-70.33
-72.231
-74.947
-78.401
-82.187
-85.749
-88.787
-91.117
-92.621
-93.349
-93.335
-92.58
-91.195
-89.309
-87.004
-84.349
-81.378
-78.093
-74.54
-70.786
-66.899
-62.956
-59.007
-55.074
-51.175
-47.315
-43.49
-39.695
-35.913
-32.123
-28.314
-24.478
-20.613
-16.719
-12.792
-8.822
-4.798
-0.709
3.453
7.688
11.997
16.376
20.819
25.319
29.866
34.447
39.05
43.667
48.287
52.9
57.497
62.063
66.586
71.052
75.447
79.753
83.955
88.036
91.977
95.762
99.373
102.794
106.009
109.001
111.755
114.257
116.493
118.45
120.118
121.486
122.546
123.29
123.713
123.812
123.584
123.029
122.15
120.949
119.431
117.602
115.471
113.045
110.336
107.354
104.112
100.623
96.902
92.965
88.826
84.505
80.018
75.382
70.617
65.741
60.771
55.725
50.621
45.475
40.305
35.126
29.954
24.802
19.685
14.616
9.604
4.663
-0.201
-4.978
-9.661
-14.244
-18.721
-23.089
-27.343
-31.479
-35.495
-39.389
-43.158
-46.802
-50.318
-53.708
-56.97
-60.105
-63.113
-65.995
-68.75
-71.38
-73.886
-76.267
-78.524
-80.657
-82.668
-84.555
-86.32
-87.961
-89.48
-90.875
-92.147
-93.294
-94.316
-95.212
-95.981
-96.623
-97.137
-97.524
-97.784
-97.918
-97.928
-97.816
-97.586
-97.24
-96.783
-96.22
-95.556
-94.797
-93.948
-93.018
-92.013
-90.94
-89.81
-88.63
-87.409
-86.158
-84.886
-83.604
-82.322
-81.05
-79.799
-78.58
-77.402
-76.277
-75.216
-74.227
-73.322
-72.509
-71.796
-71.192
-70.702
-70.332
-70.086
-69.966
-69.975
-70.111
-70.375
-70.763
-71.274
-71.903
-72.644
-73.491
-74.438
-75.475
-76.593
-77.783
-79.033
-80.331
-81.665
-83.022
-84.389
-85.752
-87.097
-88.41
-89.677
-90.882
-92.01
-93.048
-93.98
-94.792
-95.472
-96.006
-96.383
-96.595
-96.634
-96.492
-96.164
-95.646
-94.935
-94.031
-92.935
-91.648
-90.174
-88.519
-86.689
-84.695
-82.548
-80.26
-77.848
-75.325
-72.71
-70.023
-67.286
-64.524
-61.761
-59.024
-56.335
-53.717
-51.194
-48.789
-46.524
-44.42
-42.492
-40.759
-39.24
-37.954
-36.922
-36.151
-35.64
-35.382
-35.37
-35.602
-36.087
-36.83
-37.832
-39.095
-40.62
-42.413
-44.479
-46.802
-49.343
-52.043
-54.845
-57.712
-60.632
-63.614
-66.653
-69.698
-72.674
-75.494
-78.065
-80.35
-82.29
-83.773
-84.795
-85.451
-85.932
-86.634
-87.923
-89.873
-92.518
-95.848
-99.513
-103.229
-106.703
-109.171
-110.03
-109.134
-106.335
-101.85
-96.525
-90.839
-85.118
-80.25
-76.858
-75.439
-76.811
-81.087
-87.86
-97.283
-109.459
-124.355
-140.909
-155.74
-165.421
-167.328
-161.753
-153.241
-143.568
-129.404
-102.559
-49.132
40.61
165.851
319.467
488.058
656.509
815.104
952.647
1056.011
1113.256
1111.636
1046.71
923.309
753.452
557.694
357.481
174.358
27.026
-76.478
-137.604
-165.404
-174.803
-176.287
-172.373
-164.912
-152.2
-134.395
-117.425
-101.832
-88.324
-77.801
-67.843
-61.014
-59.252
-61.993
-69.636
-79.841
-90.416
-100.796
-109.61
-116.042
-120.031
-121.352
-120.258
-117.508
-113.6
-109.14
-105.142
-102.314
-100.998
-101.388
-103.325
-106.487
-110.635
-115.38
-120.144
-124.508
-128.21
-131.106
-133.223
-134.597
-135.213
-135.115
-134.386
-133.093
-131.297
-129.036
-126.317
-123.17
-119.659
-115.863
-111.871
-107.766
-103.599
-99.404
-95.207
-91.021
-86.852
-82.697
-78.545
-74.376
-70.179
-65.947
-61.674
-57.355
-52.978
-48.528
-43.988
-39.347
-34.595
-29.73
-24.75
-19.656
-14.454
-9.149
-3.753
1.724
7.271
12.877
18.534
24.23
29.954
35.692
41.431
47.155
52.849
58.497
64.079
69.577
74.972
80.245
85.375
90.343
95.128
99.711
104.073
108.194
112.055
115.64
118.93
121.912
124.57
126.893
128.869
130.489
131.745
132.633
133.148
133.289
133.056
132.45
131.476
130.139
128.446
126.406
124.029
121.327
118.313
115.001
111.409
107.553
103.451
99.123
94.587
89.865
84.978
79.948
74.795
69.542
64.21
58.822
53.399
47.961
42.53
37.124
31.763
26.465
21.247
16.125
11.114
6.227
1.479
-3.12
-7.559
-11.829
-15.921
-19.829
-23.547
-27.069
-30.392
-33.512
-36.429
-39.14
-41.646
-43.946
-46.042
-47.936
-49.632
-51.132
-52.44
-53.562
-54.502
-55.266
-55.86
-56.29
-56.564
-56.687
-56.668
-56.515
-56.234
-55.834
-55.323
-54.71
-54.003
-53.209
-52.338
-51.398
-50.396
-49.341
-48.241
-47.103
-45.935
-44.745
-43.54
-42.327
-41.114
-39.908
-38.714
-37.54
-36.391
-35.273
-34.192
-33.152
-32.159
-31.218
-30.333
-29.508
-28.746
-28.052
-27.427
-26.874
-26.395
-25.989
-25.659
-25.404
-25.223
-25.115
-25.08
-25.115
-25.218
-25.386
-25.616
-25.905
-26.247
-26.639
-27.076
-27.553
-28.065
-28.607
-29.173
-29.757
-30.355
-30.959
-31.564
-32.163
-32.75
-33.317
-33.858
-34.365
-34.831
-35.25
-35.615
-35.919
-36.156
-36.321
-36.407
-36.409
-36.323
-36.143
-35.865
-35.485
-35
-34.408
-33.706
-32.892
-31.967
-30.929
-29.779
-28.517
-27.146
-25.665
-24.079
-22.389
-20.6
-18.717
-16.746
-14.693
-12.566
-10.376
-8.135
-5.855
-3.55
-1.235
1.074
3.361
5.611
7.808
9.938
11.987
13.941
15.782
17.497
19.067
20.477
21.713
22.759
23.603
24.234
24.648
24.838
24.804
24.539
24.027
23.257
22.216
20.894
19.285
17.389
15.216
12.787
10.141
7.321
4.372
1.338
-1.746
-4.843
-7.914
-10.911
-13.772
-16.435
-18.844
-20.942
-22.682
-24.041
-25.03
-25.701
-26.164
-26.53
-26.887
-27.34
-28
-28.983
-30.42
-32.435
-35.106
-38.552
-43.006
-48.595
-55.301
-62.937
-71.005
-78.926
-86.221
-92.283
-96.309
-97.775
-96.592
-93.143
-88.545
-84.22
-81.346
-81.056
-84.819
-92.592
-102.089
-110.753
-115.038
-113.168
-107.907
-100.121
-86.424
-60.162
-9.315
75.827
194.951
342.476
507.551
675.382
834.917
972.847
1073.117
1123.41
1113.522
1042.323
918.833
756.305
571.914
383.435
207.232
58.18
-51.329
-117.251
-141.671
-129.941
-96.281
-53.154
-13.586
6.014
2.326
-22.29
-59.528
-92.297
-113.247
-122.102
-121.846
-121.008
-122.805
-125.564
-127.732
-126.816
-122.247
-115.547
-107.842
-100.02
-92.846
-86.735
-81.922
-78.532
-76.498
-75.622
-75.791
-76.941
-78.937
-81.6
-84.748
-88.203
-91.825
-95.486
-99.023
-102.254
-105.002
-107.15
-108.643
-109.453
-109.584
-109.053
-107.882
-106.122
-103.842
-101.109
-97.995
-94.566
-90.879
-87.007
-83.023
-78.999
-75.007
-71.094
-67.28
-63.579
-59.99
-56.504
-53.112
-49.792
-46.516
-43.262
-40.011
-36.749
-33.462
-30.137
-26.756
-23.304
-19.766
-16.132
-12.396
-8.554
-4.604
-0.547
3.613
7.871
12.217
16.644
21.145
25.711
30.336
35.01
39.72
44.456
49.205
53.951
58.677
63.367
68
72.556
77.014
81.354
85.554
89.593
93.449
97.101
100.53
103.715
106.638
109.281
111.628
113.663
115.373
116.748
117.776
118.45
118.764
118.713
118.297
117.514
116.367
114.859
112.994
110.781
108.228
105.346
102.146
98.643
94.853
90.791
86.478
81.934
77.178
72.233
67.123
61.87
56.498
51.03
45.492
39.906
34.297
28.686
23.097
17.552
12.072
6.676
1.383
-3.789
-8.823
-13.704
-18.419
-22.955
-27.3
-31.445
-35.381
-39.101
-42.6
-45.871
-48.912
-51.721
-54.296
-56.638
-58.749
-60.63
-62.286
-63.722
-64.944
-65.958
-66.772
-67.393
-67.83
-68.092
-68.189
-68.13
-67.924
-67.583
-67.117
-66.535
-65.849
-65.069
-64.204
-63.264
-62.26
-61.199
-60.09
-58.943
-57.766
-56.566
-55.351
-54.128
-52.905
-51.689
-50.484
-49.298
-48.136
-47.003
-45.902
-44.839
-43.817
-42.84
-41.911
-41.034
-40.21
-39.443
-38.735
-38.087
-37.502
-36.981
-36.524
-36.133
-35.808
-35.549
-35.357
-35.233
-35.175
-35.185
-35.261
-35.404
-35.612
-35.884
-36.219
-36.615
-37.071
-37.583
-38.149
-38.766
-39.432
-40.143
-40.895
-41.685
-42.506
-43.355
-44.226
-45.112
-46.008
-46.906
-47.799
-48.682
-49.547
-50.386
-51.194
-51.963
-52.685
-53.353
-53.96
-54.499
-54.962
-55.342
-55.632
-55.825
-55.917
-55.901
-55.772
-55.525
-55.158
-54.667
-54.049
-53.302
-52.427
-51.422
-50.291
-49.035
-47.66
-46.171
-44.577
-42.886
-41.111
-39.263
-37.354
-35.401
-33.417
-31.418
-29.42
-27.439
-25.49
-23.59
-21.757
-20.006
-18.357
-16.825
-15.43
-14.188
-13.117
-12.233
-11.549
-11.072
-10.812
-10.775
-10.971
-11.413
-12.11
-13.067
-14.287
-15.771
-17.514
-19.506
-21.721
-24.116
-26.65
-29.277
-31.958
-34.662
-37.35
-39.983
-42.518
-44.898
-47.079
-49.025
-50.693
-52.05
-53.073
-53.756
-54.152
-54.361
-54.487
-54.637
-54.885
-55.289
-55.95
-56.966
-58.43
-60.44
-63.015
-66.195
-70.134
-74.913
-80.495
-86.696
-93.035
-98.919
-103.889
-107.404
-108.748
-107.396
-103.114
-96.11
-87.244
-77.731
-68.739
-61.391
-57.231
-56.729
-58.15
-59.178
-56.742
-49.296
-40.198
-32.377
-23.974
-8.791
26.578
95.995
202.647
343.024
506.061
673.808
833.313
969.137
1063.751
1106.86
1088.313
1008.8
879.717
710.304
516.257
313.041
115.467
-53.863
-179.235
-254.608
-281.798
-273.699
-243.246
-198.37
-147.271
-98.282
-58.759
-35.448
-28.397
-29.712
-32.349
-32.197
-29.572
-30.297
-37.661
-50.694
-66.774
-81.314
-91.343
-96.745
-97.935
-95.69
-91.05
-84.817
-77.933
-71.697
-67.009
-64.164
-63.269
-64.19
-66.598
-70.208
-74.596
-79.138
-83.395
-87.113
-90.136
-92.472
-94.143
-95.125
-95.447
-95.181
-94.376
-93.091
-91.365
-89.204
-86.639
-83.722
-80.519
-77.114
-73.587
-70.006
-66.424
-62.874
-59.38
-55.959
-52.617
-49.353
-46.156
-43.009
-39.899
-36.818
-33.755
-30.7
-27.638
-24.55
-21.418
-18.231
-14.977
-11.651
-8.247
-4.76
-1.191
2.461
6.19
9.993
13.866
17.805
21.807
25.866
29.977
34.133
38.325
42.544
46.781
51.024
55.26
59.474
63.653
67.781
71.843
75.823
79.704
83.471
87.107
90.595
93.92
97.067
100.02
102.765
105.289
107.578
109.622
111.41
112.933
114.182
115.152
115.837
116.232
116.337
116.148
115.667
114.896
113.837
112.495
110.877
108.99
106.843
104.446
101.812
98.952
95.88
92.612
89.161
85.545
81.78
77.883
73.87
69.759
65.568
61.313
57.012
52.681
48.338
43.996
39.673
35.382
31.138
26.954
22.842
18.813
14.879
11.05
7.335
3.741
0.276
-3.053
-6.241
-9.284
-12.178
-14.92
-17.508
-19.942
-22.221
-24.346
-26.318
-28.14
-29.814
-31.343
-32.731
-33.982
-35.1
-36.091
-36.959
-37.71
-38.348
-38.88
-39.31
-39.645
-39.89
-40.049
-40.129
-40.134
-40.07
-39.941
-39.752
-39.508
-39.214
-38.875
-38.494
-38.077
-37.627
-37.149
-36.647
-36.124
-35.585
-35.033
-34.471
-33.902
-33.33
-32.758
-32.189
-31.626
-31.072
-30.531
-30.005
-29.498
-29.013
-28.552
-28.119
-27.717
-27.349
-27.019
-26.73
-26.486
-26.289
-26.143
-26.052
-26.017
-26.041
-26.125
-26.272
-26.483
-26.758
-27.097
-27.501
-27.969
-28.5
-29.093
-29.746
-30.456
-31.22
-32.035
-32.896
-33.798
-34.737
-35.705
-36.696
-37.704
-38.722
-39.742
-40.755
-41.755
-42.731
-43.675
-44.578
-45.431
-46.223
-46.945
-47.587
-48.141
-48.599
-48.953
-49.195
-49.321
-49.323
-49.199
-48.944
-48.555
-48.031
-47.37
-46.571
-45.638
-44.572
-43.379
-42.065
-40.638
-39.109
-37.491
-35.798
-34.043
-32.243
-30.411
-28.564
-26.721
-24.9
-23.121
-21.403
-19.767
-18.234
-16.825
-15.562
-14.462
-13.542
-12.81
-12.278
-11.954
-11.847
-11.966
-12.317
-12.903
-13.733
-14.809
-16.131
-17.699
-19.507
-21.54
-23.78
-26.202
-28.775
-31.476
-34.277
-37.148
-40.06
-42.965
-45.825
-48.601
-51.26
-53.797
-56.188
-58.386
-60.343
-62.012
-63.386
-64.543
-65.539
-66.351
-67.039
-67.706
-68.615
-70.245
-72.857
-76.413
-80.842
-86.056
-91.883
-98.145
-104.138
-108.468
-110.176
-108.91
-104.631
-97.696
-88.458
-77.173
-65.059
-54.584
-47.79
-45.886
-49.499
-58.461
-72.613
-91.845
-113.566
-132.54
-144.125
-144.986
-135.284
-117.825
-91.751
-52.332
7.693
94.566
207.33
338.725
478.273
617.172
749.522
867.734
961.755
1015.231
1010.34
939.323
803.676
617.891
407.396
196.787
10.541
-131.399
-219.735
-252.905
-239.79
-197.739
-145.584
-100.968
-74.462
-66.958
-72.281
-79.893
-81.817
-77.08
-70.331
-68.326
-74.674
-87.937
-103.635
-117.315
-127.057
-132.592
-134.008
-131.897
-126.78
-119.671
-112.407
-106.129
-101.264
-98.083
-96.649
-97.004
-99.179
-102.828
-107.25
-111.957
-116.683
-121.244
-125.563
-129.482
-132.808
-135.469
-137.483
-138.877
-139.669
-139.854
-139.408
-138.354
-136.749
-134.647
-132.115
-129.206
-125.982
-122.512
-118.872
-115.14
-111.375
-107.618
-103.898
-100.231
-96.622
-93.074
-89.582
-86.128
-82.702
-79.293
-75.887
-72.474
-69.047
-65.59
-62.098
-58.561
-54.969
-51.312
-47.598
-43.832
-40.024
-36.187
-32.319
-28.41
-24.481
-20.554
-16.602
-12.606
-8.553
-4.42
-0.241
3.923
8.091
12.302
16.409
20.238
23.871
27.285
30.437
33.657
35.999
36.544
36.571
36.461
38.576
45.751
54.822
63.677
69.177
67.016
60.986
54.298
49.155
49.198
51.815
54.36
56.245
55.859
54.138
52.287
50.083
47.683
45.015
41.844
38.338
34.636
30.709
26.56
22.219
17.695
12.996
8.132
3.098
-2.119
-7.488
-12.983
-18.589
-24.288
-30.063
-35.897
-41.772
-47.667
-53.567
-59.459
-65.325
-71.153
-76.927
-82.632
-88.257
-93.787
-99.212
-104.52
-109.7
-114.743
-119.64
-124.384
-128.965
-133.378
-137.616
-141.673
-145.544
-149.222
-152.705
-155.986
-159.063
-161.932
-164.591
-167.035
-169.265
-171.276
-173.066
-174.634
-175.977
-177.093
-177.98
-178.636
-179.059
-179.248
-179.202
-178.92
-178.401
-177.645
-176.652
-175.422
-173.956
-172.253
-170.316
-168.145
-165.743
-163.113
-160.257
-157.181
-153.888
-150.385
-146.678
-142.773
-138.678
-134.402
-129.953
-125.341
-120.576
-115.67
-110.636
-105.486
-100.234
-94.896
-89.485
-84.02
-78.514
-72.985
-67.45
-61.924
-56.424
-50.966
-45.568
-40.244
-35.011
-29.883
-24.875
-20
-15.272
-10.701
-6.299
-2.073
1.967
5.816
9.468
12.92
16.168
19.212
22.051
24.686
27.122
29.361
31.412
33.28
34.976
36.51
37.895
39.144
40.271
41.293
42.225
43.084
43.888
44.653
45.4
46.146
46.909
47.709
48.562
49.487
50.5
51.617
52.852
54.218
55.726
57.388
59.211
61.203
63.371
65.72
68.252
70.97
73.871
76.955
80.216
83.649
87.245
90.989
94.868
98.864
102.959
107.135
111.368
115.635
119.908
124.16
128.369
132.509
136.557
140.484
144.262
147.863
151.268
154.457
157.41
160.106
162.52
164.635
166.441
167.937
169.121
169.984
170.504
170.661
170.446
169.857
168.893
167.556
165.844
163.765
161.353
158.652
155.721
152.615
149.363
145.986
142.498
138.927
135.34
131.827
128.472
125.333
122.44
119.784
117.385
115.287
113.433
111.624
109.505
106.704
103.037
98.57
93.452
87.609
80.93
73.579
66.132
59.448
54.194
50.433
47.779
46.208
45.963
46.988
48.689
49.717
48.484
44.119
36.61
25.946
11.87
-5.713
-26.289
-48.001
-66.804
-77.7
-76.847
-61.903
-34.331
2.445
47.149
100.946
170.78
264.377
384.81
530.054
687.762
841.472
973.854
1067.289
1110.522
1096.293
1024.394
901.856
739.483
553.733
361.647
181.297
31.505
-74.553
-130.23
-139.049
-116.068
-81.076
-52.48
-41.679
-48.823
-65.314
-79.721
-83.54
-74.809
-58.304
-42.018
-31.487
-28.518
-31.476
-36.721
-42.692
-49.452
-57.131
-65.859
-74.613
-81.959
-87.469
-91.214
-93.215
-93.656
-92.679
-90.627
-88.458
-87.021
-86.664
-87.483
-89.365
-92.083
-95.475
-99.25
-102.88
-105.986
-108.379
-109.974
-110.839
-111.048
-110.613
-109.602
-108.116
-106.223
-103.976
-101.414
-98.539
-95.392
-92.039
-88.551
-85.006
-81.458
-77.935
-74.459
-71.042
-67.686
-64.386
-61.13
-57.9
-54.687
-51.485
-48.288
-45.092
-41.885
-38.652
-35.38
-32.051
-28.653
-25.179
-21.621
-17.979
-14.252
-10.442
-6.554
-2.594
1.432
5.522
9.668
13.868
18.114
22.399
26.714
31.048
35.39
39.726
44.043
48.324
52.554
56.715
60.79
64.761
68.61
72.318
75.867
79.238
82.414
85.375
88.107
90.591
92.814
94.762
96.422
97.783
98.838
99.578
99.997
100.091
99.858
99.295
98.404
97.186
95.644
93.783
91.61
89.131
86.357
83.299
79.969
76.382
72.552
68.497
64.235
59.783
55.162
50.391
45.492
40.485
35.392
30.235
25.036
19.815
14.595
9.396
4.236
-0.864
-5.888
-10.818
-15.638
-20.333
-24.889
-29.293
-33.534
-37.599
-41.478
-45.164
-48.647
-51.921
-54.982
-57.824
-60.445
-62.843
-65.018
-66.969
-68.7
-70.213
-71.511
-72.6
-73.486
-74.177
-74.679
-75.002
-75.156
-75.15
-74.995
-74.701
-74.279
-73.74
-73.094
-72.351
-71.521
-70.616
-69.643
-68.615
-67.538
-66.424
-65.281
-64.118
-62.943
-61.762
-60.585
-59.416
-58.264
-57.132
-56.027
-54.953
-53.914
-52.915
-51.958
-51.045
-50.179
-49.36
-48.589
-47.865
-47.188
-46.556
-45.97
-45.426
-44.924
-44.462
-44.039
-43.654
-43.306
-42.993
-42.714
-42.469
-42.256
-42.074
-41.924
-41.804
-41.713
-41.653
-41.621
-41.619
-41.645
-41.7
-41.782
-41.89
-42.024
-42.183
-42.366
-42.57
-42.796
-43.042
-43.306
-43.589
-43.888
-44.201
-44.527
-44.863
-45.206
-45.551
-45.895
-46.233
-46.559
-46.869
-47.155
-47.413
-47.634
-47.813
-47.941
-48.011
-48.015
-47.946
-47.794
-47.553
-47.214
-46.772
-46.221
-45.554
-44.768
-43.856
-42.818
-41.649
-40.349
-38.916
-37.35
-35.652
-33.826
-31.874
-29.802
-27.617
-25.328
-22.945
-20.483
-17.955
-15.377
-12.767
-10.142
-7.524
-4.93
-2.381
0.104
2.504
4.8
6.968
8.987
10.835
12.49
13.932
15.142
16.102
16.798
17.222
17.368
17.229
16.799
16.063
15.01
13.632
11.928
9.895
7.541
4.879
1.935
-1.245
-4.617
-8.134
-11.754
-15.446
-19.172
-22.888
-26.546
-30.078
-33.422
-36.523
-39.329
-41.787
-43.865
-45.564
-46.923
-48.037
-48.996
-49.865
-50.712
-51.604
-52.623
-53.873
-55.447
-57.406
-59.849
-62.953
-66.851
-71.559
-76.922
-82.54
-87.906
-92.545
-95.918
-97.313
-96.125
-92.178
-85.796
-77.817
-69.546
-62.237
-56.943
-55.269
-57.78
-62.679
-67.713
-70.056
-68.31
-65.543
-63.495
-58.712
-43.237
-3.355
71.983
183.327
324.909
485.02
650.305
812.452
959.107
1074.834
1145.875
1156.052
1101.406
989.577
830.192
642.703
445.237
252.739
86.206
-39.53
-117.601
-145.983
-135.982
-105.706
-69.967
-43.757
-35.146
-41.685
-58.717
-77.177
-88.664
-92.084
-89.732
-86.887
-87.739
-92.152
-97.767
-101.198
-100.824
-97.128
-91.134
-84.123
-76.926
-69.935
-63.737
-58.918
-55.698
-54.089
-53.956
-55.053
-57.193
-60.22
-63.894
-67.961
-72.229
-76.507
-80.62
-84.414
-87.711
-90.375
-92.338
-93.556
-94.022
-93.758
-92.792
-91.179
-88.995
-86.31
-83.195
-79.721
-75.95
-71.96
-67.834
-63.653
-59.494
-55.412
-51.438
-47.592
-43.882
-40.302
-36.843
-33.484
-30.197
-26.961
-23.762
-20.584
-17.417
-14.247
-11.056
-7.829
-4.551
-1.21
2.201
5.689
9.259
12.912
16.647
20.461
24.346
28.298
32.313
36.385
40.51
44.681
48.888
53.123
57.377
61.635
65.886
70.113
74.299
78.427
82.48
86.439
90.285
93.999
97.562
100.957
104.163
107.164
109.941
112.477
114.757
116.764
118.484
119.904
121.012
121.797
122.251
122.367
122.139
121.564
120.64
119.366
117.746
115.783
113.483
110.854
107.904
104.645
101.09
97.255
93.155
88.809
84.235
79.454
74.487
69.355
64.081
58.687
53.196
47.631
42.015
36.371
30.721
25.088
19.492
13.956
8.5
3.142
-2.097
-7.202
-12.154
-16.94
-21.545
-25.956
-30.163
-34.155
-37.925
-41.465
-44.771
-47.838
-50.666
-53.252
-55.598
-57.706
-59.581
-61.225
-62.647
-63.852
-64.848
-65.644
-66.25
-66.675
-66.93
-67.026
-66.974
-66.785
-66.472
-66.046
-65.52
-64.906
-64.216
-63.462
-62.656
-61.81
-60.934
-60.039
-59.137
-58.236
-57.345
-56.474
-55.63
-54.819
-54.049
-53.323
-52.648
-52.025
-51.459
-50.951
-50.503
-50.114
-49.787
-49.519
-49.31
-49.16
-49.067
-49.029
-49.044
-49.111
-49.227
-49.39
-49.596
-49.845
-50.132
-50.455
-50.811
-51.197
-51.611
-52.05
-52.511
-52.992
-53.491
-54.006
-54.534
-55.075
-55.626
-56.188
-56.76
-57.341
-57.932
-58.533
-59.145
-59.768
-60.404
-61.053
-61.716
-62.394
-63.087
-63.795
-64.518
-65.257
-66.009
-66.775
-67.553
-68.342
-69.138
-69.941
-70.747
-71.553
-72.356
-73.152
-73.937
-74.708
-75.459
-76.186
-76.886
-77.552
-78.179
-78.763
-79.297
-79.777
-80.196
-80.549
-80.829
-81.033
-81.153
-81.185
-81.125
-80.968
-80.71
-80.349
-79.881
-79.305
-78.62
-77.825
-76.921
-75.909
-74.792
-73.571
-72.251
-70.838
-69.335
-67.748
-66.085
-64.353
-62.557
-60.707
-58.81
-56.874
-54.909
-52.921
-50.921
-48.917
-46.916
-44.929
-42.964
-41.027
-39.127
-37.27
-35.464
-33.713
-32.024
-30.401
-28.846
-27.363
-25.954
-24.618
-23.356
-22.166
-21.045
