Name
Date of Birth,"Mar 27, 1959"
Recorded Date,2022-08-10 19:47:49 -0500
Classification,Sinus Rhythm
Symptoms,
Software Version,1.90
Device,"Watch4,2"
Sample Rate,510.227 hertz


Lead,Lead I
Unit,µV

-6.12
-6.711
-7.432
-8.28
-9.251
-10.342
-11.547
-12.863
-14.283
-15.802
-17.411
-19.105
-20.874
-22.71
-24.605
-26.549
-28.533
-30.548
-32.585
-34.632
-36.681
-38.72
-40.74
-42.729
-44.677
-46.572
-48.403
-50.161
-51.832
-53.408
-54.878
-56.231
-57.458
-58.548
-59.493
-60.283
-60.908
-61.36
-61.629
-61.707
-61.587
-61.261
-60.723
-59.967
-58.987
-57.778
-56.337
-54.659
-52.743
-50.585
-48.184
-45.539
-42.652
-39.523
-36.154
-32.55
-28.715
-24.655
-20.376
-15.886
-11.193
-6.308
-1.239
4.002
9.402
14.948
20.626
26.421
32.317
38.295
44.339
50.429
56.547
62.671
68.783
74.862
80.886
86.834
92.686
98.418
104.009
109.438
114.684
119.724
124.54
129.112
133.42
137.447
141.177
144.593
147.681
150.427
152.818
154.844
156.493
157.758
158.63
159.106
159.181
158.852
158.12
156.986
155.452
153.525
151.209
148.513
145.446
142.02
138.245
134.138
129.713
124.986
119.977
114.703
109.186
103.445
97.502
91.38
85.1
78.684
72.156
65.537
58.852
52.123
45.372
38.622
31.895
25.212
18.594
12.062
5.633
-0.672
-6.839
-12.85
-18.69
-24.346
-29.806
-35.057
-40.09
-44.896
-49.468
-53.8
-57.888
-61.727
-65.316
-68.655
-71.743
-74.583
-77.175
-79.524
-81.634
-83.509
-85.156
-86.58
-87.789
-88.79
-89.592
-90.203
-90.633
-90.891
-90.987
-90.93
-90.731
-90.399
-89.945
-89.377
-88.707
-87.942
-87.093
-86.168
-85.177
-84.127
-83.026
-81.882
-80.703
-79.494
-78.262
-77.013
-75.753
-74.485
-73.216
-71.949
-70.689
-69.438
-68.201
-66.98
-65.778
-64.597
-63.438
-62.303
-61.194
-60.11
-59.053
-58.022
-57.019
-56.043
-55.094
-54.172
-53.277
-52.408
-51.566
-50.749
-49.958
-49.191
-48.449
-47.73
-47.035
-46.362
-45.711
-45.081
-44.472
-43.883
-43.314
-42.764
-42.232
-41.719
-41.223
-40.744
-40.283
-39.839
-39.412
-39.004
-38.614
-38.242
-37.891
-37.561
-37.253
-36.966
-36.703
-36.463
-36.246
-36.053
-35.883
-35.737
-35.614
-35.514
-35.436
-35.381
-35.346
-35.331
-35.335
-35.357
-35.394
-35.446
-35.509
-35.581
-35.661
-35.745
-35.831
-35.916
-35.996
-36.068
-36.127
-36.169
-36.189
-36.183
-36.144
-36.068
-35.95
-35.784
-35.567
-35.294
-34.961
-34.565
-34.105
-33.576
-32.979
-32.312
-31.574
-30.767
-29.892
-28.952
-27.949
-26.889
-25.777
-24.622
-23.435
-22.224
-21.001
-19.779
-18.572
-17.394
-16.258
-15.178
-14.166
-13.236
-12.404
-11.684
-11.095
-10.652
-10.373
-10.271
-10.362
-10.66
-11.173
-11.908
-12.866
-14.05
-15.469
-17.137
-19.068
-21.272
-23.755
-26.519
-29.557
-32.859
-36.4
-40.14
-44.031
-48.028
-52.085
-56.174
-60.256
-64.289
-68.22
-71.977
-75.492
-78.71
-81.575
-84.041
-86.087
-87.714
-88.968
-89.947
-90.733
-91.414
-92.094
-92.866
-93.852
-95.179
-96.941
-99.259
-102.316
-106.262
-111.161
-116.902
-123.14
-129.44
-135.381
-140.444
-143.978
-145.381
-144.298
-140.969
-136.223
-131.027
-126.457
-123.612
-123.594
-127.655
-135.305
-143.624
-149.634
-150.055
-144.723
-137.276
-126.671
-108.145
-72.184
-5.403
95.575
225.403
373.467
525.181
673.438
815.009
942.769
1046.309
1107.742
1109.017
1043.371
914.123
737.537
538.157
339.221
162.97
24.378
-70.528
-122.463
-138.68
-128.302
-101.771
-69.097
-41.029
-27.215
-30.635
-48.324
-70.111
-85.48
-90.39
-86.513
-80.749
-78.202
-79.024
-81.141
-81.627
-79.683
-76.869
-74.447
-72.801
-72.069
-72.364
-73.943
-77.031
-81.31
-85.921
-90.457
-95.205
-100.354
-105.97
-111.98
-118.036
-123.996
-129.989
-135.886
-141.345
-146.111
-149.941
-152.729
-154.567
-155.486
-155.469
-154.576
-152.885
-150.48
-147.469
-143.925
-139.894
-135.448
-130.665
-125.63
-120.421
-115.086
-109.659
-104.16
-98.598
-92.972
-87.274
-81.485
-75.597
-69.606
-63.509
-57.309
-51.004
-44.591
-38.068
-31.432
-24.678
-17.807
-10.82
-3.72
3.485
10.784
18.166
25.617
33.127
40.686
48.283
55.91
63.556
71.213
78.868
86.51
94.127
101.702
109.219
116.662
124.012
131.251
138.362
145.325
152.121
158.733
165.14
171.326
177.272
182.96
188.372
193.492
198.304
202.794
206.946
210.749
214.19
217.261
219.952
222.256
224.167
225.681
226.796
227.508
227.82
227.733
227.251
226.378
225.122
223.493
221.501
219.16
216.482
213.485
210.184
206.597
202.745
198.646
194.322
189.793
185.081
180.209
175.199
170.074
164.855
159.566
154.226
148.858
143.482
138.118
132.784
127.501
122.284
117.15
112.116
107.197
102.405
97.755
93.256
88.92
84.755
80.77
76.971
73.364
69.952
66.739
63.726
60.915
58.305
55.895
53.683
51.664
49.835
48.192
46.728
45.437
44.314
43.351
42.541
41.877
41.352
40.958
40.687
40.532
40.486
40.54
40.687
40.921
41.233
41.618
42.068
42.578
43.141
43.753
44.407
45.098
45.823
46.577
47.356
48.157
48.977
49.814
50.666
51.531
52.41
53.3
54.203
55.117
56.042
56.979
57.927
58.887
59.858
60.842
61.836
62.842
63.858
64.883
65.917
66.959
68.006
69.056
70.107
71.158
72.204
73.243
74.271
75.286
76.283
77.258
78.207
79.125
80.007
80.848
81.642
82.384
83.067
83.685
84.233
84.704
85.092
85.393
85.599
85.707
85.713
85.612
85.401
85.08
84.645
84.098
83.438
82.667
81.788
80.804
79.72
78.539
77.269
75.917
74.489
72.996
71.444
69.846
68.212
66.554
64.884
63.214
61.559
59.931
58.346
56.817
55.359
53.988
52.716
51.56
50.532
49.646
48.914
48.347
47.955
47.746
47.728
47.906
48.283
48.861
49.64
50.619
51.795
53.162
54.715
56.444
58.34
60.391
62.582
64.895
67.313
69.815
72.378
74.979
77.594
80.197
82.762
85.267
87.686
89.997
92.175
94.194
96.029
97.658
99.059
100.213
101.101
101.707
102.018
102.031
101.743
101.151
100.249
99.024
97.464
95.564
93.323
90.743
87.831
84.6
81.074
77.296
73.317
69.19
64.965
60.682
56.387
52.136
47.997
44.051
40.378
37.043
34.106
31.616
29.608
28.088
27.026
26.352
25.977
25.796
25.693
25.552
25.249
24.676
23.706
22.154
19.86
16.74
12.848
8.399
3.678
-1.033
-5.352
-8.743
-10.667
-10.73
-9.006
-6.084
-2.645
0.457
2.233
1.777
-2.113
-9.522
-18.085
-24.88
-26.813
-22.527
-15.309
-7.641
2.495
21.118
60.898
134.319
243.949
385.623
547.777
712.456
867.041
1000.145
1098.694
1154.56
1157.711
1099.934
983.177
814.524
609.993
395.857
197.63
37.226
-70.496
-127.109
-141.747
-124.836
-91.504
-50.384
-9.692
17.592
27.692
19.698
-1.77
-22.633
-36.05
-40.531
-37.644
-34.712
-34.564
-35.712
-36.77
-35.32
-30.759
-24.516
-17.687
-11.144
-5.614
-1.499
1.013
1.873
1.215
-0.652
-3.486
-7.144
-11.414
-16.068
-20.919
-25.75
-30.385
-34.693
-38.511
-41.713
-44.229
-46.014
-47.061
-47.394
-47.043
-46.061
-44.519
-42.481
-40.014
-37.185
-34.056
-30.704
-27.209
-23.648
-20.095
-16.601
-13.195
-9.898
-6.716
-3.645
-0.673
2.219
5.057
7.859
10.639
13.412
16.189
18.984
21.817
24.701
27.651
30.681
33.798
37.011
40.325
43.742
47.262
50.885
54.607
58.426
62.34
66.349
70.449
74.637
78.908
83.256
87.672
92.147
96.668
101.222
105.793
110.364
114.919
119.438
123.903
128.292
132.586
136.764
140.803
144.682
148.379
151.872
155.14
158.162
160.917
163.387
165.552
167.395
168.901
170.055
170.842
171.252
171.274
170.9
170.123
168.938
167.342
165.336
162.92
160.1
156.881
153.273
149.285
144.93
140.224
135.182
129.822
124.163
118.226
112.032
105.606
98.97
92.15
85.171
78.059
70.839
63.538
56.183
48.798
41.41
34.044
26.725
19.476
12.322
5.284
-1.616
-8.357
-14.922
-21.293
-27.453
-33.389
-39.089
-44.54
-49.735
-54.665
-59.325
-63.709
-67.814
-71.641
-75.187
-78.456
-81.449
-84.172
-86.628
-88.825
-90.769
-92.469
-93.934
-95.172
-96.195
-97.013
-97.638
-98.08
-98.351
-98.465
-98.432
-98.266
-97.978
-97.58
-97.084
-96.501
-95.84
-95.113
-94.329
-93.497
-92.626
-91.724
-90.798
-89.856
-88.903
-87.946
-86.99
-86.039
-85.099
-84.172
-83.262
-82.372
-81.506
-80.665
-79.853
-79.07
-78.32
-77.604
-76.923
-76.279
-75.672
-75.105
-74.578
-74.092
-73.647
-73.247
-72.89
-72.58
-72.316
-72.1
-71.933
-71.817
-71.752
-71.74
-71.781
-71.876
-72.025
-72.23
-72.49
-72.806
-73.177
-73.602
-74.081
-74.613
-75.195
-75.825
-76.5
-77.218
-77.974
-78.764
-79.583
-80.427
-81.29
-82.166
-83.048
-83.931
-84.806
-85.667
-86.506
-87.314
-88.084
-88.808
-89.476
-90.08
-90.612
-91.064
-91.426
-91.693
-91.856
-91.909
-91.844
-91.655
-91.338
-90.888
-90.3
-89.571
-88.699
-87.682
-86.521
-85.216
-83.769
-82.181
-80.458
-78.604
-76.625
-74.528
-72.321
-70.012
-67.612
-65.131
-62.582
-59.977
-57.33
-54.657
-51.976
-49.304
-46.661
-44.065
-41.536
-39.095
-36.759
-34.549
-32.48
-30.567
-28.824
-27.267
-25.91
-24.768
-23.855
-23.18
-22.754
-22.583
-22.677
-23.039
-23.665
-24.55
-25.691
-27.088
-28.75
-30.685
-32.889
-35.357
-38.08
-41.038
-44.209
-47.56
-51.034
-54.574
-58.123
-61.629
-65.056
-68.364
-71.5
-74.407
-77.01
-79.239
-81.057
-82.425
-83.311
-83.722
-83.685
-83.269
-82.606
-81.811
-80.992
-80.27
-79.751
-79.551
-79.797
-80.574
-81.994
-84.209
-87.297
-91.257
-95.927
-100.946
-105.922
-110.472
-114.105
-116.255
-116.401
-114.236
-110.064
-104.576
-98.44
-92.421
-87.201
-83.473
-82.328
-83.518
-84.33
-81.989
-73.782
-59.044
-41.629
-23.497
-2.007
28.683
78.935
156.928
261.698
387.378
524.253
660.256
787.141
895.325
972.758
1006.621
983.41
897.725
751.725
558.671
344.248
133.745
-45.644
-172.912
-245.832
-268.731
-254.264
-222.647
-183.768
-146.059
-119.12
-102.324
-96.158
-98.125
-97.221
-89.498
-74.936
-55.969
-40.855
-33.209
-32.091
-36.053
-42.162
-49.01
-56.732
-64.548
-71.44
-76.862
-80.571
-82.729
-83.588
-83.235
-81.818
-79.951
-78.542
-78.118
-78.816
-80.512
-82.908
-85.793
-89.013
-92.267
-95.158
-97.434
-98.991
-99.831
-100.069
-99.781
-98.998
-97.777
-96.189
-94.292
-92.136
-89.766
-87.21
-84.516
-81.742
-78.932
-76.121
-73.329
-70.561
-67.815
-65.081
-62.342
-59.575
-56.768
-53.912
-50.998
-48.016
-44.951
-41.789
-38.514
-35.11
-31.562
-27.857
-23.985
-19.938
-15.714
-11.315
-6.744
-2.007
2.894
7.954
13.167
18.527
24.026
29.655
35.404
41.261
47.21
53.235
59.318
65.439
71.577
77.712
83.819
89.875
95.857
101.738
107.493
113.096
118.52
123.74
128.727
133.457
137.905
142.046
145.858
149.318
152.408
155.111
157.409
159.291
160.745
161.761
162.333
162.456
162.128
161.348
160.118
158.444
156.332
153.79
150.831
147.469
143.717
139.595
135.121
130.315
125.201
119.801
114.142
108.248
102.148
95.868
89.438
82.887
76.243
69.535
62.791
56.04
49.307
42.619
36
29.474
23.062
16.786
10.664
4.714
-1.048
-6.608
-11.953
-17.072
-21.957
-26.599
-30.993
-35.135
-39.023
-42.654
-46.029
-49.151
-52.022
-54.646
-57.03
-59.179
-61.103
-62.809
-64.308
-65.61
-66.726
-67.667
-68.446
-69.072
-69.559
-69.918
-70.16
-70.297
-70.338
-70.294
-70.176
-69.993
-69.753
-69.466
-69.139
-68.778
-68.391
-67.983
-67.56
-67.126
-66.685
-66.242
-65.798
-65.359
-64.927
-64.506
-64.093
-63.687
-63.287
-62.895
-62.514
-62.145
-61.777
-61.414
-61.075
-60.773
-60.524
-60.329
-60.161
-60.018
-59.929
-59.873
-59.793
-59.642
-59.371
-58.973
-58.53
-58.065
-57.497
-56.915
-56.619
-56.674
-56.994
-57.619
-58.228
-59.425
-63.071
-68.751
-74.767
-78.296
-74.046
-62.38
-48.596
-37.99
-38.079
-49.284
-64.504
-78.251
-84.582
-82.496
-77.299
-72.231
-69.517
-69.81
-70.934
-71.909
-72.797
-73.517
-74.387
-75.479
-76.491
-77.328
-78.03
-78.581
-78.959
-79.167
-79.211
-79.109
-78.905
-78.607
-78.186
-77.629
-76.934
-76.095
-75.111
-73.98
-72.693
-71.249
-69.653
-67.909
-66.021
-63.996
-61.839
-59.556
-57.156
-54.647
-52.04
-49.347
-46.578
-43.746
-40.867
-37.956
-35.032
-32.117
-29.228
-26.385
-23.61
-20.921
-18.344
-15.898
-13.603
-11.477
-9.537
-7.802
-6.293
-5.028
-4.023
-3.287
-2.827
-2.651
-2.766
-3.176
-3.879
-4.868
-6.135
-7.674
-9.494
-11.601
-13.992
-16.661
-19.593
-22.767
-26.168
-29.768
-33.523
-37.387
-41.307
-45.228
-49.109
-52.906
-56.578
-60.086
-63.374
-66.375
-69.017
-71.225
-72.954
-74.2
-75.003
-75.393
-75.373
-75.012
-74.497
-74.139
-74.263
-75.033
-76.366
-78.192
-80.699
-83.99
-87.851
-91.621
-94.284
-95.139
-94.158
-91.48
-86.798
-79.869
-70.999
-61.376
-53.015
-47.809
-46.671
-49.906
-58.396
-71.736
-87.468
-102.676
-113.201
-118.059
-120.618
-120.459
-113.613
-89.71
-33.603
58.9
183.323
326.944
471.268
608.439
735.239
849.119
947.259
1017.55
1045.195
1019.76
937.778
805.31
636.689
450.024
264.034
97.29
-36.236
-128.183
-177.604
-190.717
-176.883
-148.565
-116.336
-89.362
-74.923
-73.08
-80.127
-88.34
-90.034
-83.982
-73.179
-63.478
-59.248
-60.597
-65.634
-71.872
-78.044
-84.057
-89.525
-93.926
-96.903
-98.285
-98.308
-97.346
-95.564
-93.291
-91.243
-90.052
-90.061
-91.379
-93.817
-97.083
-100.974
-105.174
-109.204
-112.714
-115.497
-117.447
-118.615
-119.054
-118.777
-117.843
-116.343
-114.344
-111.907
-109.075
-105.862
-102.32
-98.525
-94.556
-90.502
-86.423
-82.354
-78.318
-74.329
-70.39
-66.498
-62.636
-58.785
-54.931
-51.065
-47.181
-43.273
-39.327
-35.327
-31.256
-27.096
-22.834
-18.46
-13.968
-9.352
-4.612
0.25
5.23
10.32
15.518
20.817
26.215
31.705
37.282
42.936
48.659
54.441
60.268
66.125
71.997
77.866
83.712
89.515
95.256
100.912
106.46
111.878
117.142
122.228
127.113
131.772
136.182
140.322
144.169
147.702
150.903
153.753
156.236
158.338
160.047
161.351
162.242
162.712
162.757
162.373
161.558
160.314
158.642
156.547
154.036
151.117
147.803
144.105
140.039
135.622
130.871
125.808
120.454
114.832
108.965
102.881
96.604
90.16
83.578
76.885
70.107
63.272
56.404
49.531
42.677
35.866
29.12
22.461
15.91
9.486
3.207
-2.91
-8.85
-14.597
-20.139
-25.464
-30.563
-35.425
-40.045
-44.415
-48.532
-52.392
-55.994
-59.337
-62.424
-65.257
-67.839
-70.177
-72.276
-74.144
-75.789
-77.219
-78.445
-79.475
-80.32
-80.989
-81.493
-81.841
-82.044
-82.11
-82.049
-81.871
-81.583
-81.194
-80.712
-80.146
-79.503
-78.789
-78.012
-77.179
-76.296
-75.369
-74.403
-73.405
-72.377
-71.326
-70.256
-69.168
-68.068
-66.957
-65.837
-64.712
-63.581
-62.447
-61.312
-60.175
-59.04
-57.906
-56.776
-55.651
-54.533
-53.424
-52.326
-51.241
-50.172
-49.122
-48.093
-47.087
-46.108
-45.159
-44.243
-43.362
-42.519
-41.717
-40.957
-40.241
-39.572
-38.952
-38.38
-37.86
-37.392
-36.977
-36.616
-36.31
-36.058
-35.86
-35.716
-35.626
-35.586
-35.597
-35.655
-35.757
-35.902
-36.086
-36.304
-36.554
-36.83
-37.128
-37.441
-37.765
-38.093
-38.418
-38.733
-39.032
-39.308
-39.554
-39.765
-39.933
-40.052
-40.116
-40.12
-40.058
-39.924
-39.713
-39.42
-39.04
-38.571
-38.009
-37.352
-36.598
-35.746
-34.797
-33.752
-32.612
-31.378
-30.054
-28.642
-27.148
-25.576
-23.933
-22.227
-20.468
-18.669
-16.842
-15.003
-13.167
-11.349
-9.566
-7.836
-6.173
-4.591
-3.102
-1.721
-0.462
0.66
1.629
2.43
3.05
3.478
3.702
3.711
3.499
3.069
2.422
1.557
0.469
-0.86
-2.445
-4.291
-6.403
-8.779
-11.412
-14.291
-17.386
-20.647
-24.019
-27.449
-30.888
-34.304
-37.657
-40.895
-43.955
-46.757
-49.231
-51.323
-52.988
-54.189
-54.916
-55.186
-55.059
-54.645
-54.059
-53.428
-52.884
-52.547
-52.543
-52.99
-54.018
-55.814
-58.546
-62.283
-66.93
-72.233
-77.841
-83.39
-88.427
-92.321
-94.444
-94.396
-92.319
-88.862
-84.815
-81.163
-78.965
-79.211
-83.137
-90.557
-98.773
-104.872
-105.782
-100.315
-91.54
-80.495
-63.838
-35.121
16.974
101.453
218.16
362.334
524.175
689.292
846.04
980.245
1075.272
1119.318
1103.618
1028.044
901.888
738.558
555.171
369.603
199.477
59.693
-39.245
-94.777
-113.793
-106.501
-87.426
-68.923
-56.105
-53.052
-57.066
-62.036
-66.061
-66.249
-63.362
-62.15
-63.914
-68.959
-76.271
-82.369
-85.438
-85.422
-82.669
-78.255
-73.194
-67.998
-63.205
-59.459
-57.208
-56.597
-57.577
-59.945
-63.407
-67.742
-72.746
-78.161
-83.763
-89.356
-94.74
-99.742
-104.212
-108.028
-111.113
-113.426
-114.95
-115.689
-115.679
-114.977
-113.656
-111.79
-109.443
-106.68
-103.561
-100.162
-96.561
-92.836
-89.06
-85.282
-81.534
-77.836
-74.197
-70.617
-67.083
-63.576
-60.069
-56.541
-52.977
-49.364
-45.691
-41.942
-38.102
-34.158
-30.095
-25.904
-21.579
-17.112
-12.501
-7.745
-2.846
2.192
7.361
12.656
18.073
23.603
29.24
34.975
40.796
46.691
52.647
58.647
64.673
70.705
76.722
82.703
88.624
94.462
100.192
105.79
111.231
116.489
121.54
126.359
130.922
135.204
139.185
142.841
146.153
149.102
151.669
153.839
155.598
156.934
157.835
158.295
158.306
157.866
156.973
155.628
153.836
151.602
148.935
145.846
142.347
138.455
134.186
129.559
124.595
119.317
113.747
107.912
101.836
95.546
89.07
82.436
75.672
68.805
61.863
54.876
47.868
40.868
33.901
26.993
20.168
13.448
6.857
0.414
-5.86
-11.949
-17.836
-23.507
-28.948
-34.15
-39.102
-43.797
-48.229
-52.392
-56.284
-59.903
-63.248
-66.321
-69.123
-71.659
-73.932
-75.949
-77.716
-79.241
-80.531
-81.595
-82.443
-83.084
-83.527
-83.783
-83.862
-83.775
-83.532
-83.144
-82.622
-81.976
-81.217
-80.354
-79.396
-78.353
-77.233
-76.045
-74.796
-73.494
-72.145
-70.757
-69.336
-67.888
-66.419
-64.934
-63.438
-61.935
-60.429
-58.925
-57.424
-55.932
-54.45
-52.982
-51.531
-50.1
-48.69
-47.305
-45.948
-44.619
-43.321
-42.057
-40.828
-39.636
-38.482
-37.369
-36.298
-35.271
-34.29
-33.356
-32.471
-31.637
-30.854
-30.123
-29.446
-28.824
-28.256
-27.744
-27.288
-26.889
-26.546
-26.261
-26.033
-25.862
-25.747
-25.689
-25.685
-25.735
-25.838
-25.991
-26.191
-26.438
-26.727
-27.057
-27.423
-27.822
-28.25
-28.703
-29.177
-29.667
-30.169
-30.678
-31.189
-31.696
-32.195
-32.68
-33.146
-33.586
-33.996
-34.37
-34.703
-34.988
-35.22
-35.393
-35.5
-35.538
-35.499
-35.379
-35.172
-34.874
-34.48
-33.989
-33.397
-32.702
-31.903
-30.998
-29.989
-28.874
-27.656
-26.338
-24.921
-23.412
-21.815
-20.138
-18.388
-16.574
-14.706
-12.796
-10.858
-8.906
-6.956
-5.028
-3.141
-1.317
0.423
2.061
3.579
4.958
6.184
7.238
8.105
8.771
9.221
9.438
9.408
9.119
8.566
7.757
6.7
5.402
3.869
2.092
0.064
-2.218
-4.76
-7.564
-10.632
-13.961
-17.528
-21.278
-25.161
-29.128
-33.152
-37.239
-41.383
-45.56
-49.718
-53.771
-57.629
-61.229
-64.486
-67.287
-69.612
-71.524
-73.202
-74.964
-77.089
-79.751
-83.058
-87.083
-91.635
-96.279
-100.503
-103.712
-105.461
-105.558
-103.904
-100.392
-95.391
-89.774
-84.354
-79.88
-76.877
-75.522
-76.176
-79.564
-85.82
-94.517
-105.324
-117.829
-131.913
-146.614
-159.204
-166.6
-165.798
-157.094
-143.72
-125.275
-99.078
-56.93
13.305
113.828
240.816
383.995
527.406
664.195
790.715
903
996.909
1061.022
1082.833
1053.947
972.487
843.238
676.832
490.253
301.908
133.345
3.144
-82.562
-125.706
-137.324
-132.165
-118.306
-101.346
-86.014
-74.597
-70.171
-72.79
-76.517
-76.228
-69.827
-58.975
-49.804
-46.52
-49.448
-57.002
-66.351
-75.89
-85.295
-93.895
-100.954
-105.98
-108.76
-109.612
-109.052
-107.415
-105.181
-103.174
-102.126
-102.456
-104.294
-107.441
-111.591
-116.498
-121.815
-127.048
-131.792
-135.796
-138.94
-141.25
-142.778
-143.538
-143.575
-142.966
-141.782
-140.082
-137.91
-135.287
-132.248
-128.86
-125.199
-121.346
-117.379
-113.346
-109.278
-105.197
-101.114
-97.03
-92.942
-88.841
-84.711
-80.541
-76.326
-72.058
-67.731
-63.334
-58.853
-54.273
-49.579
-44.765
-39.825
-34.758
-29.563
-24.243
-18.802
-13.247
-7.587
-1.828
4.022
9.957
15.968
22.046
28.18
34.357
40.564
46.787
53.009
59.213
65.379
71.489
77.522
83.457
89.272
94.947
100.459
105.786
110.906
115.797
120.439
124.812
128.895
132.67
136.12
139.23
141.984
144.37
146.375
147.991
149.209
150.022
150.427
150.42
150
149.169
147.928
146.284
144.242
141.809
138.997
135.816
132.28
128.403
124.203
119.695
114.901
109.838
104.529
98.995
93.258
87.34
81.266
75.057
68.738
62.332
55.861
49.349
42.817
36.289
29.784
23.326
16.932
10.622
4.415
-1.672
-7.624
-13.424
-19.059
-24.516
-29.782
-34.846
-39.699
-44.331
-48.735
-52.904
-56.833
-60.519
-63.957
-67.148
-70.09
-72.783
-75.23
-77.433
-79.393
-81.117
-82.607
-83.87
-84.912
-85.74
-86.361
-86.784
-87.016
-87.067
-86.947
-86.663
-86.227
-85.647
-84.933
-84.096
-83.144
-82.089
-80.939
-79.707
-78.4
-77.029
-75.604
-74.133
-72.625
-71.088
-69.53
-67.958
-66.38
-64.801
-63.228
-61.667
-60.123
-58.602
-57.108
-55.645
-54.217
-52.828
-51.481
-50.177
-48.921
-47.713
-46.557
-45.453
-44.403
-43.409
-42.473
-41.594
-40.774
-40.013
-39.312
-38.67
-38.089
-37.567
-37.105
-36.702
-36.361
-36.079
-35.858
-35.698
-35.6
-35.562
-35.586
-35.672
-35.818
-36.025
-36.291
-36.617
-37
-37.44
-37.935
-38.481
-39.077
-39.72
-40.405
-41.129
-41.887
-42.676
-43.489
-44.321
-45.167
-46.022
-46.878
-47.729
-48.568
-49.387
-50.18
-50.938
-51.655
-52.322
-52.93
-53.473
-53.943
-54.331
-54.63
-54.832
-54.931
-54.92
-54.794
-54.548
-54.177
-53.679
-53.051
-52.293
-51.405
-50.389
-49.248
-47.984
-46.602
-45.11
-43.513
-41.821
-40.043
-38.19
-36.274
-34.31
-32.314
-30.302
-28.293
-26.305
-24.357
-22.47
-20.662
-18.952
-17.356
-15.891
-14.574
-13.422
-12.453
-11.681
-11.125
-10.797
-10.71
-10.876
-11.301
-11.984
-12.926
-14.123
-15.574
-17.287
-19.267
-21.514
-24.027
-26.805
-29.836
-33.101
-36.568
-40.184
-43.898
-47.655
-51.406
-55.112
-58.729
-62.21
-65.499
-68.532
-71.249
-73.595
-75.52
-76.974
-77.934
-78.421
-78.5
-78.282
-77.878
-77.376
-76.865
-76.434
-76.185
-76.222
-76.659
-77.581
-79.109
-81.437
-84.684
-88.879
-93.886
-99.243
-104.375
-108.745
-111.666
-112.37
-110.395
-105.472
-97.885
-88.965
-80.152
-72.825
-67.967
-65.415
-64.518
-64.321
-65.462
-69.844
-78.092
-89.348
-95.903
-85.004
-46.272
28.298
137.196
271.455
422.877
580.737
735.582
875.65
983.318
1042.686
1040.901
975.359
854.544
692.723
508.935
321.281
147.224
2.068
-104.11
-167.361
-193.908
-194.83
-182.205
-166.988
-152.023
-137.47
-123.577
-107.814
-91.452
-76.677
-63.498
-54.852
-52.261
-54.997
-62.669
-72.737
-82.473
-90.605
-96.453
-100.018
-101.337
-100.436
-97.658
-93.602
-89.252
-85.6
-83.076
-81.855
-82.081
-83.671
-86.496
-90.365
-94.818
-99.32
-103.526
-107.183
-110.141
-112.385
-113.883
-114.604
-114.59
-113.908
-112.625
-110.812
-108.512
-105.748
-102.563
-99.012
-95.168
-91.121
-86.954
-82.741
-78.535
-74.371
-70.274
-66.26
-62.335
-58.499
-54.739
-51.036
-47.377
-43.755
-40.161
-36.586
-33.014
-29.422
-25.792
-22.107
-18.353
-14.52
-10.598
-6.578
-2.455
1.773
6.108
10.546
15.089
19.738
24.491
29.349
34.307
39.361
44.505
49.733
55.034
60.398
65.812
71.261
76.728
82.198
87.65
93.067
98.427
103.708
108.89
113.949
118.861
123.604
128.153
132.484
136.574
140.399
143.939
147.17
150.074
152.633
154.829
156.648
158.076
159.103
159.718
159.914
159.687
159.033
157.952
156.445
154.516
152.171
149.419
146.271
142.739
138.838
134.585
129.998
125.096
119.902
114.437
108.725
102.792
96.663
90.366
83.927
77.375
70.736
64.039
57.31
50.578
43.867
37.204
30.612
24.115
17.735
11.492
5.406
-0.505
-6.224
-11.738
-17.033
-22.096
-26.919
-31.493
-35.811
-39.868
-43.661
-47.187
-50.446
-53.439
-56.167
-58.634
-60.844
-62.803
-64.517
-65.995
-67.244
-68.275
-69.097
-69.722
-70.158
-70.419
-70.516
-70.46
-70.262
-69.933
-69.485
-68.929
-68.274
-67.532
-66.711
-65.82
-64.87
-63.867
-62.82
-61.736
-60.621
-59.482
-58.323
-57.15
-55.968
-54.781
-53.592
-52.405
-51.223
-50.05
-48.888
-47.738
-46.603
-45.485
-44.384
-43.303
-42.241
-41.2
-40.18
-39.184
-38.212
-37.265
-36.346
-35.456
-34.596
-33.769
-32.976
-32.22
-31.501
-30.823
-30.185
-29.591
-29.044
-28.546
-28.1
-27.709
-27.375
-27.102
-26.891
-26.746
-26.667
-26.656
-26.714
-26.843
-27.043
-27.315
-27.66
-28.078
-28.568
-29.13
-29.762
-30.461
-31.223
-32.045
-32.921
-33.845
-34.812
-35.814
-36.845
-37.897
-38.965
-40.042
-41.123
-42.2
-43.264
-44.308
-45.325
-46.303
-47.23
-48.091
-48.874
-49.567
-50.16
-50.642
-51.005
-51.236
-51.329
-51.279
-51.08
-50.723
-50.198
-49.483
-48.571
-47.464
-46.171
-44.709
-43.093
-41.334
-39.45
-37.468
-35.406
-33.273
-31.062
-28.745
-26.313
-23.771
-21.139
-18.454
-15.739
-12.992
-10.216
-7.403
-4.548
-1.651
1.312
4.391
7.598
10.915
14.282
17.591
20.77
23.774
26.565
29.135
31.451
33.464
35.145
36.468
37.395
37.887
37.858
37.188
35.822
33.753
31.025
27.755
24.025
19.899
15.466
10.805
6.001
1.152
-3.685
-8.465
-13.106
-17.513
-21.54
-25.014
-27.836
-29.95
-31.347
-32.09
-32.241
-31.876
-31.136
-30.162
-29.1
-28.113
-27.319
-26.817
-26.717
-27.152
-28.335
-30.462
-33.585
-37.585
-42.16
-46.935
-51.582
-55.689
-58.645
-59.881
-59.042
-56.28
-52.308
-47.85
-43.661
-40.618
-39.538
-41.481
-46.329
-51.415
-53.634
-50.077
-40
-27.28
-14.493
0.74
25.177
71.466
150.614
263.485
404.421
561.686
720.106
869.433
998.204
1092.37
1139.393
1126.524
1049.73
915.651
737.954
536.928
333.412
146.754
-6.906
-116.995
-181.565
-205.107
-194.579
-161.939
-116.115
-66.59
-27.244
-3.18
3.358
-4.538
-14.354
-20.511
-22.064
-20.496
-22.756
-31.155
-43.354
-56.752
-67.662
-74.163
-76.735
-76.035
-72.896
-68.322
-63.306
-58.907
-55.879
-54.675
-55.397
-57.913
-62.089
-67.65
-74.159
-81.101
-88.049
-94.686
-100.813
-106.35
-111.23
-115.4
-118.861
-121.64
-123.767
-125.274
-126.192
-126.535
-126.332
-125.626
-124.464
-122.912
-121.046
-118.937
-116.656
-114.255
-111.766
-109.211
-106.602
-103.942
-101.225
-98.436
-95.552
-92.555
-89.434
-86.174
-82.766
-79.192
-75.436
-71.484
-67.325
-62.952
-58.361
-53.549
-48.518
-43.273
-37.821
-32.174
-26.347
-20.35
-14.198
-7.903
-1.481
5.052
11.679
18.382
25.143
31.94
38.753
45.556
52.325
59.036
65.664
72.183
78.566
84.788
90.824
96.648
102.236
107.562
112.603
117.338
121.743
125.8
129.489
132.795
135.7
138.194
140.264
141.903
143.103
143.861
144.173
144.04
143.464
142.448
140.998
139.123
136.833
134.138
131.054
127.594
123.778
119.622
115.147
110.374
105.324
100.021
94.488
88.748
82.827
76.75
70.542
64.228
57.834
51.384
44.903
38.415
31.944
25.511
19.137
12.843
6.648
0.569
-5.377
-11.175
-16.811
-22.273
-27.548
-32.628
-37.505
-42.17
-46.617
-50.843
-54.842
-58.614
-62.156
-65.467
-68.548
-71.401
-74.028
-76.431
-78.616
-80.587
-82.349
-83.909
-85.273
-86.451
-87.448
-88.273
-88.936
-89.444
-89.807
-90.033
-90.13
-90.108
-89.975
-89.739
-89.408
-88.989
-88.489
-87.916
-87.276
-86.574
-85.817
-85.01
-84.159
-83.267
-82.341
-81.384
-80.4
-79.393
-78.367
-77.324
-76.269
-75.203
-74.128
-73.047
-71.96
-70.87
-69.777
-68.682
-67.584
-66.485
-65.385
-64.282
-63.179
-62.074
-60.969
-59.863
-58.756
-57.651
-56.547
-55.446
-54.349
-53.258
-52.175
-51.101
-50.039
-48.991
-47.958
-46.945
-45.952
-44.983
-44.039
-43.125
-42.241
-41.392
-40.579
-39.805
-39.074
-38.388
-37.75
-37.164
-36.633
-36.158
-35.744
-35.392
-35.105
-34.885
-34.732
-34.647
-34.63
-34.682
-34.8
-34.984
-35.231
-35.539
-35.903
-36.32
-36.786
-37.294
-37.84
-38.417
-39.018
-39.637
-40.264
-40.894
-41.518
-42.128
-42.715
-43.271
-43.788
-44.255
-44.664
-45.005
-45.269
-45.447
-45.53
-45.508
-45.375
-45.123
-44.746
-44.238
-43.594
-42.811
-41.888
-40.822
-39.613
-38.263
-36.774
-35.151
-33.398
-31.523
-29.534
-27.441
-25.258
-22.998
-20.678
-18.312
-15.921
-13.521
-11.133
-8.775
-6.467
-4.224
-2.068
-0.015
1.912
3.692
5.306
6.733
7.956
8.958
9.722
10.235
10.492
10.488
10.22
9.679
8.851
7.723
6.286
4.535
2.47
0.097
-2.573
-5.515
-8.689
-12.05
-15.548
-19.14
-22.788
-26.454
-30.091
-33.643
-37.037
-40.202
-43.078
-45.603
-47.729
-49.435
-50.716
-51.61
-52.198
-52.547
-52.747
-52.907
-53.117
-53.498
-54.172
-55.22
-56.794
-59.121
-62.343
-66.518
-71.562
-77.134
-82.865
-88.431
-93.281
-96.72
-98.214
-97.457
-94.602
-90.399
-85.804
-81.742
-79.365
-80.154
-84.203
-90.02
-95.971
-99.23
-99.896
-101.893
-104.77
-104.705
-91.772
-48.679
32.493
148.597
288.453
431.382
564.921
689.691
808.245
923.289
1028.408
1101.49
1120.304
1072.004
954.307
783.696
586.11
385.26
203.89
56.497
-51.13
-117.877
-147.946
-149.09
-131.674
-105.763
-82.131
-68.927
-67.16
-74.144
-82.301
-84.118
-78.14
-66.913
-56.399
-51.35
-52.459
-57.989
-64.759
-71.069
-76.663
-81.314
-85.143
-87.857
-89.08
-89.063
-88.222
-86.843
-85.369
-84.371
-84.222
-85.276
-87.701
-91.333
-95.952
-101.306
-107.029
-112.681
-117.908
-122.459
-126.197
-129.122
-131.247
-132.584
-133.183
-133.119
-132.468
-131.289
-129.628
-127.511
-124.975
-122.091
-118.94
-115.609
-112.179
-108.705
-105.218
-101.742
-98.286
-94.853
-91.436
-88.02
-84.584
-81.115
-77.606
-74.047
-70.433
-66.752
-62.987
-59.122
-55.143
-51.039
-46.804
-42.436
-37.931
-33.293
-28.524
-23.632
-18.625
-13.511
-8.295
-2.984
2.414
7.89
13.434
19.032
24.674
30.343
36.025
41.7
47.351
52.956
58.496
63.949
69.292
74.504
79.562
84.444
89.125
93.585
97.802
101.753
105.419
108.781
111.821
114.521
116.866
118.843
120.441
121.649
122.459
122.866
122.864
122.453
121.631
120.401
118.766
116.734
114.311
111.508
108.336
104.811
100.948
96.765
92.281
87.516
82.493
77.235
71.765
66.108
60.29
54.336
48.272
42.123
35.916
29.674
23.424
17.189
10.991
4.854
-1.202
-7.157
-12.992
-18.69
-24.235
-29.612
-34.808
-39.811
-44.612
-49.2
-53.57
-57.716
-61.632
-65.317
-68.77
-71.99
-74.978
-77.739
-80.274
-82.59
-84.693
-86.59
-88.287
-89.794
-91.12
-92.274
-93.265
-94.103
-94.797
-95.359
-95.797
-96.121
-96.34
-96.463
-96.498
-96.454
-96.337
-96.157
-95.918
-95.627
-95.289
-94.91
-94.495
-94.046
-93.568
-93.064
-92.535
-91.985
-91.413
-90.821
-90.209
-89.576
-88.924
-88.25
-87.554
-86.835
-86.091
-85.322
-84.525
-83.701
-82.848
-81.965
-81.053
-80.11
-79.138
-78.137
-77.108
-76.053
-74.972
-73.869
-72.747
-71.607
-70.453
-69.289
-68.118
-66.944
-65.771
-64.605
-63.449
-62.309
-61.19
-60.097
-59.035
-58.011
-57.029
-56.095
-55.215
-54.395
-53.638
-52.951
-52.337
-51.8
-51.346
-50.975
-50.692
-50.498
-50.395
-50.382
-50.461
-50.629
-50.886
-51.229
-51.654
-52.158
-52.737
-53.385
-54.097
-54.865
-55.684
-56.545
-57.441
-58.362
-59.3
-60.244
-61.186
-62.114
-63.016
-63.883
-64.703
-65.463
-66.154
-66.763
-67.28
-67.693
-67.993
-68.168
-68.211
-68.111
-67.862
-67.454
-66.883
-66.142
-65.228
-64.137
-62.868
-61.419
-59.791
-57.986
-56.007
-53.859
-51.546
-49.078
-46.461
-43.705
-40.823
-37.827
-34.731
-31.55
-28.303
-25.009
-21.689
-18.365
-15.06
-11.797
-8.601
-5.494
-2.499
0.362
3.069
5.601
7.936
10.055
11.935
13.559
14.908
15.967
16.722
17.163
17.285
17.089
16.574
15.739
14.577
13.084
11.256
9.095
6.605
3.796
0.688
-2.69
-6.29
-10.064
-13.959
-17.928
-21.929
-25.918
-29.849
-33.666
-37.3
-40.687
-43.766
-46.478
-48.769
-50.6
-51.968
-52.909
-53.506
-53.844
-53.985
-53.999
-53.964
-53.991
-54.204
-54.725
-55.635
-57.037
-59.128
-62.048
-65.805
-70.21
-74.778
-78.951
-82.276
-84.257
-84.256
-81.815
-76.83
-69.808
-62.005
-54.722
-49.083
-46.135
-46.869
-52.189
-61.096
-70.197
-75.704
-73.215
-61.865
-45.153
-22.482
8.174
52.81
123.901
225.214
355.506
509.647
671.885
829.191
967.55
1069.608
1123.971
1120.768
1057.742
942.132
785.263
604.128
415.568
235.918
82.701
-31.644
-100.275
-123.119
-112.313
-84.86
-56.497
-41.831
-44.041
-57.595
-75.188
-86.011
-85.424
-75.93
-62.009
-50.826
-46.194
-47.508
-52.889
-59.248
-64.968
-69.857
-73.472
-75.641
-76.02
-74.22
-70.463
-65.263
-59.074
-52.523
-46.408
-41.256
-37.483
-35.37
-34.871
-35.883
-38.324
-41.898
-46.169
-50.805
-55.503
-60.06
-64.421
-68.479
-72.09
-75.195
-77.771
-79.816
-81.37
-82.416
-82.902
-82.789
-82.033
-80.633
-78.635
-76.08
-73.011
-69.482
-65.539
-61.264
-56.77
-52.129
-47.386
-42.564
-37.657
-32.677
-27.653
-22.604
-17.549
-12.5
-7.455
-2.419
2.596
7.595
12.587
17.599
22.674
27.842
33.112
38.489
43.966
49.536
55.197
60.94
66.744
72.594
78.475
84.374
90.284
96.191
102.073
107.908
113.666
119.323
124.856
130.243
135.46
140.488
145.307
149.899
154.252
158.352
162.18
165.722
168.96
171.877
174.46
176.696
178.569
180.07
181.189
181.918
182.254
182.193
181.734
180.875
179.619
177.97
175.933
173.515
170.724
167.572
164.07
160.232
156.074
151.613
146.865
141.851
136.59
131.101
125.406
119.526
113.482
107.297
100.993
94.593
88.12
81.597
75.048
68.495
61.96
55.466
49.033
42.682
36.431
30.299
24.302
18.457
12.778
7.278
1.969
-3.137
-8.032
-12.708
-17.157
-21.376
-25.359
-29.104
-32.61
-35.875
-38.901
-41.687
-44.237
-46.554
-48.641
-50.504
-52.149
-53.583
-54.812
-55.845
-56.691
-57.358
-57.856
-58.194
-58.384
-58.434
-58.356
-58.159
-57.854
-57.451
-56.96
-56.392
-55.755
-55.058
-54.309
-53.518
-52.691
-51.836
-50.959
-50.066
-49.164
-48.259
-47.355
-46.456
-45.568
-44.695
-43.839
-43.004
-42.193
-41.407
-40.649
-39.921
-39.224
-38.559
-37.928
-37.33
-36.767
-36.239
-35.747
-35.289
-34.866
-34.478
-34.124
-33.804
-33.517
-33.264
-33.044
-32.857
-32.703
-32.581
-32.491
-32.434
-32.409
-32.416
-32.456
-32.528
-32.632
-32.77
-32.941
-33.146
-33.384
-33.657
-33.964
-34.305
-34.68
-35.089
-35.531
-36.005
-36.511
-37.047
-37.61
-38.2
-38.815
-39.452
-40.108
-40.782
-41.468
-42.166
-42.871
-43.58
-44.289
-44.995
-45.693
-46.38
-47.051
-47.7
-48.324
-48.916
-49.471
-49.983
-50.447
-50.857
-51.206
-51.489
-51.7
-51.833
-51.882
-51.842
-51.708
-51.475
-51.139
-50.698
-50.148
-49.489
-48.718
-47.837
-46.846
-45.747
-44.54
-43.229
-41.816
-40.305
-38.702
-37.012
-35.243
-33.401
-31.499
-29.547
-27.56
-25.548
-23.529
-21.516
-19.527
-17.581
-15.698
-13.893
-12.186
-10.592
-9.131
-7.82
-6.677
-5.712
-4.936
-4.358
-3.987
-3.836
-3.913
-4.214
-4.733
-5.465
-6.405
-7.559
-8.932
-10.518
-12.311
-14.305
-16.493
-18.874
-21.434
-24.144
-26.962
-29.839
-32.732
-35.622
-38.496
-41.34
-44.126
-46.801
-49.303
-51.585
-53.601
-55.319
-56.694
-57.662
-58.255
-58.597
-58.908
-59.508
-60.677
-62.576
-65.317
-68.978
-73.421
-78.388
-83.429
-87.758
-90.62
-91.384
-89.602
-85.135
-78.254
-69.422
-59.368
-49.32
-40.708
-35.156
-34.118
-38.478
-48.375
-63.411
-82.996
-105.774
-129.378
-150.782
-165.454
-168.868
-158.758
-132.505
-89.529
-31.132
44.118
134.592
238.195
354.887
480.139
610.97
743.279
865.288
964.183
1022.478
1022.405
957.866
830.543
654.077
452.798
250.282
71.127
-65.867
-154.199
-196.222
-204.499
-195.623
-181.67
-167.875
-153.39
-134.73
-110.069
-82.146
-55.555
-34.669
-22.875
-20.375
-25.552
-36.532
-50.797
-65.958
-80.36
-92.378
-100.794
-105.41
-106.402
-104.225
-99.843
-94.257
-88.38
-83.286
-79.724
-77.916
-77.919
-79.563
-82.494
-86.408
-90.921
-95.506
-99.788
-103.533
-106.595
-108.974
-110.688
-111.718
-112.091
-111.863
-111.079
-109.797
-108.06
-105.882
-103.299
-100.36
-97.129
-93.687
-90.109
-86.46
-82.789
-79.128
-75.5
-71.921
-68.398
-64.928
-61.504
-58.106
-54.723
-51.346
-47.964
-44.567
-41.139
-37.661
-34.117
-30.493
-26.778
-22.964
-19.046
-15.017
-10.876
-6.622
-2.257
2.216
6.793
11.474
16.254
21.131
26.097
31.147
36.273
41.466
46.715
52.008
57.331
62.668
68.004
73.32
78.598
83.819
88.962
94.006
98.929
103.711
108.33
112.764
116.991
120.99
124.743
128.228
131.428
134.324
136.9
139.141
141.034
142.565
143.726
144.506
144.898
144.898
144.5
143.704
142.509
140.916
138.929
136.555
133.8
130.675
127.19
123.358
119.195
114.717
109.941
104.887
99.574
94.023
88.256
82.295
76.163
69.883
63.478
56.972
50.388
43.75
37.08
30.401
23.736
17.106
10.531
4.032
-2.371
-8.66
-14.818
-20.828
-26.674
-32.341
-37.816
-43.087
-48.141
-52.971
-57.566
-61.92
-66.027
-69.882
-73.482
-76.824
-79.907
-82.731
-85.296
-87.605
-89.658
-91.461
-93.016
-94.329
-95.405
-96.249
-96.87
-97.274
-97.469
-97.463
-97.265
-96.884
-96.329
-95.61
-94.737
-93.72
-92.569
-91.296
-89.911
-88.425
-86.848
-85.19
-83.463
-81.676
-79.839
-77.962
-76.053
-74.121
-72.176
-70.226
-68.279
-66.343
-64.426
-62.535
-60.677
-58.859
-57.087
-55.367
-53.705
-52.106
-50.575
-49.115
-47.732
-46.428
-45.207
-44.071
-43.023
-42.063
-41.193
-40.414
-39.725
-39.126
-38.617
-38.196
-37.863
-37.616
-37.454
-37.375
-37.377
-37.459
-37.618
-37.851
-38.157
-38.531
-38.971
-39.473
-40.035
-40.652
-41.322
-42.04
-42.803
-43.606
-44.446
-45.316
-46.213
-47.133
-48.069
-49.017
-49.972
-50.93
-51.885
-52.834
-53.77
-54.69
-55.588
-56.46
-57.301
-58.104
-58.865
-59.578
-60.237
-60.836
-61.37
-61.833
-62.219
-62.522
-62.738
-62.861
-62.884
-62.804
-62.614
-62.31
-61.888
-61.344
-60.675
-59.879
-58.955
-57.9
-56.716
-55.403
-53.962
-52.396
-50.707
-48.898
-46.975
-44.944
-42.809
-40.58
-38.265
-35.874
-33.422
-30.923
-28.39
-25.842
-23.296
-20.769
-18.28
-15.849
-13.49
-11.221
-9.059
-7.022
-5.127
-3.395
-1.844
-0.49
0.651
1.564
2.237
2.658
2.826
2.738
2.392
1.781
0.888
-0.302
-1.795
-3.597
-5.707
-8.118
-10.814
-13.771
-16.942
-20.28
-23.734
-27.259
-30.821
-34.382
-37.897
-41.306
-44.532
-47.501
-50.154
-52.437
-54.307
-55.757
-56.798
-57.484
-57.92
-58.192
-58.4
-58.658
-59.062
-59.728
-60.775
-62.292
-64.423
-67.391
-71.328
-76.246
-82.003
-88.208
-94.425
-100.268
-105.204
-108.534
-109.71
-108.538
-105.346
-100.966
-96.513
-92.98
-91.184
-92.353
-96.731
-102.718
-108.308
-110.779
-108.905
-104.989
-99.591
-89.567
-67.653
-21.919
55.036
162.265
292.419
433.047
574.437
711.474
838.992
948.92
1028.621
1062.339
1038.297
954.656
818.063
643.755
451.669
261.334
92.121
-41.637
-132.407
-180.904
-194.688
-182.037
-152.903
-113.994
-72.248
-38.978
-19.586
-17.022
-28.475
-42.4
-53.033
-58.664
-60.232
-64.008
-71.941
-81.833
-91.844
-99.033
-101.814
-100.889
-97.045
-91.103
-84.316
-77.908
-72.562
-68.739
-66.79
-66.65
-68.212
-71.408
-75.809
-80.858
-86.213
-91.573
-96.713
-101.552
-105.933
-109.705
-112.841
-115.341
-117.211
-118.472
-119.118
-119.14
-118.581
-117.49
-115.924
-113.951
-111.622
-108.998
-106.149
-103.142
-100.044
-96.905
-93.752
-90.603
-87.466
-84.337
-81.212
-78.075
-74.903
-71.677
-68.378
-64.988
-61.494
-57.883
-54.138
-50.246
-46.196
-41.977
-37.584
-33.015
-28.268
-23.344
-18.249
-12.989
-7.573
-2.01
3.689
9.516
15.458
21.506
27.643
33.857
40.133
46.452
52.797
59.146
65.479
71.772
78.004
84.149
90.183
96.081
101.82
107.373
112.717
117.827
122.679
127.251
131.521
135.467
139.071
142.313
145.177
147.649
149.715
151.365
152.589
153.382
153.738
153.656
153.134
152.175
150.783
148.962
146.721
144.07
141.02
137.584
133.779
129.62
125.127
120.319
115.218
109.845
104.225
98.38
92.336
86.118
79.752
73.264
66.68
60.026
53.329
46.614
39.907
33.231
26.61
20.066
13.622
7.296
1.108
-4.925
-10.787
-16.463
-21.94
-27.207
-32.252
-37.067
-41.644
-45.977
-50.06
-53.89
-57.465
-60.782
-63.843
-66.647
-69.198
-71.498
-73.551
-75.363
-76.94
-78.289
-79.418
-80.336
-81.053
-81.578
-81.923
-82.098
-82.114
-81.984
-81.717
-81.325
-80.82
-80.211
-79.508
-78.722
-77.862
-76.936
-75.954
-74.924
-73.852
-72.747
-71.615
-70.462
-69.294
-68.117
-66.935
-65.754
-64.578
-63.411
-62.256
-61.117
-59.996
-58.895
-57.816
-56.76
-55.727
-54.717
-53.73
-52.765
-51.821
-50.896
-49.991
-49.102
-48.229
-47.372
-46.529
-45.699
-44.883
-44.08
-43.29
-42.514
-41.753
-41.008
-40.279
-39.57
-38.88
-38.212
-37.567
-36.948
-36.356
-35.792
-35.26
-34.759
-34.292
-33.861
-33.467
-33.113
-32.802
-32.534
-32.312
-32.139
-32.017
-31.947
-31.932
-31.972
-32.068
-32.22
-32.429
-32.693
-33.011
-33.38
-33.798
-34.261
-34.766
-35.307
-35.88
-36.478
-37.095
-37.724
-38.358
-38.99
-39.61
-40.212
-40.787
-41.328
-41.826
-42.273
-42.663
-42.985
-43.233
-43.398
-43.472
-43.449
-43.319
-43.078
-42.718
-42.234
-41.622
-40.878
-40
-38.986
-37.835
-36.549
-35.129
-33.579
-31.902
-30.106
-28.198
-26.185
-24.079
-21.89
-19.632
-17.32
-14.973
-12.606
-10.24
-7.893
-5.586
-3.339
-1.172
0.898
2.854
4.677
6.35
7.852
9.165
10.27
11.15
11.791
12.178
12.299
12.146
11.717
11.014
10.037
8.779
7.229
5.375
3.213
0.744
-2.027
-5.085
-8.411
-11.973
-15.717
-19.592
-23.544
-27.523
-31.495
-35.422
-39.254
-42.932
-46.376
-49.509
-52.273
-54.616
-56.492
-57.892
-58.825
-59.346
-59.557
-59.548
-59.409
-59.241
-59.142
-59.226
-59.609
-60.386
-61.687
-63.705
-66.574
-70.307
-74.717
-79.385
-83.861
-87.73
-90.494
-91.561
-90.412
-86.862
-81.443
-75.202
-69.196
-64.458
-61.831
-62.058
-66.104
-73.379
-80.681
-84.668
-81.904
-70.899
-54.374
-32.999
-3.57
38.945
102.558
192.886
307.729
442.108
588.946
737.068
876.166
992.907
1070.637
1096.639
1063.146
971.268
830.451
656.345
468.741
286.703
130.038
12.486
-61.781
-94.572
-97.604
-83.871
-63.147
-45.008
-32.931
-29.006
-33.711
-42.397
-51.947
-59.097
-62.76
-66.489
-71.949
-79.609
-88.503
-95.281
-98.475
-98.289
-95.286
-90.762
-85.664
-80.456
-75.787
-72.283
-70.209
-69.583
-70.279
-72.07
-74.762
-78.217
-82.232
-86.564
-91.043
-95.536
-99.91
-104.051
-107.816
-111.046
-113.642
-115.553
-116.753
-117.251
-117.07
-116.235
-114.801
-112.839
-110.411
-107.585
-104.423
-100.978
-97.318
-93.511
-89.625
-85.725
-81.858
-78.046
-74.306
-70.639
-67.04
-63.498
-59.997
-56.509
-53.017
-49.505
-45.959
-42.367
-38.717
-34.993
-31.18
-27.266
-23.239
-19.094
-14.825
-10.429
-5.906
-1.257
3.514
8.4
13.397
18.498
23.699
28.993
34.372
39.827
45.348
50.922
56.536
62.174
67.82
73.453
79.055
84.603
90.077
95.453
100.708
105.82
110.764
115.516
120.054
124.354
128.395
132.155
135.614
138.753
141.554
144.002
146.082
147.781
149.088
149.994
150.491
150.575
150.242
149.49
148.321
146.735
144.739
142.339
139.543
136.362
132.81
128.901
124.653
120.084
115.214
110.065
104.661
99.025
93.182
87.159
80.981
74.675
68.266
61.783
55.25
48.695
42.142
35.615
29.14
22.738
16.433
10.244
4.192
-1.706
-7.43
-12.967
-18.3
-23.417
-28.307
-32.958
-37.362
-41.512
-45.402
-49.03
-52.392
-55.489
-58.321
-60.892
-63.204
-65.264
-67.079
-68.654
-69.999
-71.124
-72.037
-72.75
-73.273
-73.619
-73.798
-73.823
-73.706
-73.459
-73.093
-72.622
-72.056
-71.408
-70.688
-69.907
-69.076
-68.206
-67.306
-66.386
-65.453
-64.517
-63.584
-62.662
-61.755
-60.868
-60.007
-59.174
-58.372
-57.602
-56.867
-56.166
-55.501
-54.871
-54.276
-53.714
-53.184
-52.685
-52.214
-51.771
-51.352
-50.957
-50.582
-50.225
-49.885
-49.56
-49.246
-48.942
-48.647
-48.357
-48.073
-47.79
-47.509
-47.229
-46.947
-46.665
-46.382
-46.097
-45.813
-45.529
-45.248
-44.971
-44.701
-44.439
-44.188
-43.95
-43.729
-43.526
-43.344
-43.186
-43.054
-42.95
-42.877
-42.837
-42.83
-42.859
-42.924
-43.025
-43.163
-43.337
-43.548
-43.793
-44.072
-44.383
-44.725
-45.094
-45.488
-45.902
-46.333
-46.776
-47.226
-47.676
-48.119
-48.548
-48.956
-49.335
-49.677
-49.974
-50.217
-50.399
-50.51
-50.544
-50.491
-50.344
-50.096
-49.739
-49.268
-48.678
-47.964
-47.124
-46.154
-45.052
-43.818
-42.451
-40.952
-39.322
-37.565
-35.685
-33.686
-31.577
-29.366
-27.064
-24.684
-22.241
-19.749
-17.224
-14.688
-12.16
-9.664
-7.224
-4.861
-2.596
-0.449
1.558
3.405
5.072
6.544
7.808
8.85
9.656
10.21
10.497
10.513
10.264
9.757
9
7.989
6.714
5.169
3.356
1.28
-1.06
-3.666
-6.537
-9.653
-12.964
-16.406
-19.922
-23.475
-27.055
-30.667
-34.292
-37.865
-41.302
-44.509
-47.413
-49.993
-52.191
-53.903
-55.131
-55.964
-56.625
-57.54
-59.054
-61.245
-64.151
-67.738
-71.734
-75.963
-80.071
-83.223
-84.702
-84.144
-81.351
-76.593
-70.566
-63.632
-56.313
-49.672
-44.746
-42.674
-44.444
-50.206
-59.453
-71.911
-87.126
-104.268
-122.411
-138.321
-147.408
-146.61
-133.039
-107.371
-74.059
-32.818
17.578
80.529
165.562
274.225
404.089
551.453
702.871
846.507
969.568
1054.893
1089.679
1064.203
976.538
834.531
653.831
455.852
261.5
90.888
-40.317
-125.068
-162.512
-159.176
-129.47
-88.231
-49.151
-25.078
-19.119
-28.491
-47.641
-65.378
-76.216
-80.377
-79.622
-79.584
-82.629
-87.133
-91.273
-92.645
-90.521
-85.963
-80.051
-73.778
-67.862
-62.76
-58.91
-56.55
-55.672
-56.132
-57.706
-60.209
-63.482
-67.315
-71.492
-75.83
-80.156
-84.318
-88.173
-91.552
-94.328
-96.432
-97.821
-98.491
-98.457
-97.745
-96.399
-94.491
-92.084
-89.243
-86.034
-82.515
-78.758
-74.841
-70.84
-66.83
-62.863
-58.969
-55.169
-51.469
-47.866
-44.35
-40.901
-37.494
-34.109
-30.731
-27.345
-23.941
-20.504
-17.017
-13.465
-9.832
-6.107
-2.282
1.651
5.697
9.857
14.132
18.517
23.01
27.605
32.301
37.094
41.98
46.953
52.006
57.131
62.319
67.558
72.832
78.127
83.424
88.704
93.948
99.132
104.237
109.237
114.112
118.837
123.389
127.744
131.88
135.774
139.405
142.75
145.791
148.509
150.886
152.907
154.558
155.826
156.701
157.174
157.238
156.888
156.121
154.936
153.334
151.318
148.894
146.07
142.856
139.265
135.312
131.014
126.39
121.46
116.246
110.773
105.063
99.144
93.04
86.778
80.385
73.889
67.315
60.692
54.044
47.398
40.778
34.209
27.713
21.312
15.028
8.878
2.882
-2.944
-8.583
-14.023
-19.251
-24.256
-29.029
-33.563
-37.853
-41.894
-45.685
-49.226
-52.518
-55.565
-58.37
-60.94
-63.282
-65.402
-67.31
-69.016
-70.529
-71.861
-73.021
-74.022
-74.875
-75.591
-76.181
-76.657
-77.029
-77.307
-77.502
-77.622
-77.677
-77.676
-77.627
-77.536
-77.41
-77.257
-77.08
-76.885
-76.675
-76.454
-76.222
-75.983
-75.735
-75.48
-75.216
-74.943
-74.659
-74.363
-74.051
-73.723
-73.376
-73.007
-72.615
-72.195
-71.748
-71.27
-70.761
-70.218
-69.643
-69.033
-68.39
-67.714
-67.007
-66.27
-65.505
-64.714
-63.901
-63.068
-62.219
-61.359
-60.492
-59.623
-58.758
-57.901
-57.06
-56.24
-55.447
-54.688
-53.967
-53.292
-52.668
-52.099
-51.593
-51.152
-50.782
-50.486
-50.269
-50.133
-50.079
-50.11
-50.226
-50.427
-50.71
-51.075
-51.519
-52.038
-52.627
-53.283
-53.999
-54.769
-55.587
-56.443
-57.33
-58.239
-59.159
-60.081
-60.994
-61.887
-62.749
-63.57
-64.339
-65.045
-65.677
-66.227
-66.682
-67.034
-67.274
-67.392
-67.38
-67.23
-66.936
-66.492
-65.895
-65.14
-64.226
-63.15
-61.915
-60.521
-58.971
-57.268
-55.417
-53.426
-51.303
-49.057
-46.701
-44.246
-41.708
-39.103
-36.45
-33.767
-31.075
-28.394
-25.745
-23.15
-20.63
-18.205
-15.894
-13.716
-11.691
-9.838
-8.177
-6.727
-5.505
-4.528
-3.81
-3.364
-3.199
-3.317
-3.721
-4.409
-5.384
-6.656
-8.23
-10.107
-12.286
-14.762
-17.523
-20.549
-23.806
-27.242
-30.805
-34.444
-38.113
-41.777
-45.395
-48.926
-52.316
-55.504
-58.432
-61.053
-63.318
-65.177
-66.605
-67.618
-68.274
-68.685
-68.961
-69.178
-69.409
-69.745
-70.281
-71.123
-72.374
-74.072
-76.286
-79.187
-82.872
-87.338
-92.431
-97.684
-102.522
-106.468
-108.947
-109.225
-106.839
-101.645
-93.94
-84.771
-75.504
-67.389
-61.748
-60.236
-63.151
-68.592
-73.989
-75.544
-71.144
-63.736
-55.501
-45.189
-27.889
9.775
81.197
191.312
339.2
511.998
690.269
856.896
992.503
1082.769
1116.885
1085.066
987.536
829.505
625.95
402.367
183.901
-3.269
-140.884
-224.459
-257.47
-250.975
-219.75
-176.73
-132.691
-98.728
-81.818
-82.261
-96.786
-115.211
-126.213
-125.621
-113.681
-95.391
-78.077
-64.866
-55.668
-49.448
-44.825
-42.032
-42.136
-45.502
-51.556
-58.795
-66.072
-72.752
-78.288
-82.395
-84.866
-85.636
-85.251
-84.707
-84.607
-85.186
-86.499
-88.327
-90.501
-92.94
-95.369
-97.378
-98.721
-99.293
-99.098
-98.28
-96.947
-95.136
-92.923
-90.39
-87.599
-84.624
-81.518
-78.312
-75.051
-71.774
-68.507
-65.275
-62.087
-58.937
-55.812
-52.692
-49.551
-46.374
-43.152
-39.88
-36.553
-33.16
-29.69
-26.129
-22.468
-18.696
-14.803
-10.779
-6.618
-2.319
2.118
6.685
11.378
16.193
21.125
26.17
31.323
36.578
41.926
47.36
52.868
58.44
64.059
69.711
75.376
81.037
86.676
92.272
97.806
103.255
108.599
113.817
118.885
123.781
128.483
132.969
137.216
141.204
144.91
148.316
151.402
154.152
156.549
158.579
160.228
161.487
162.345
162.795
162.832
162.45
161.649
160.429
158.792
156.741
154.284
151.428
148.185
144.565
140.584
136.256
131.598
126.63
121.371
115.841
110.062
104.059
97.854
91.472
84.939
78.281
71.522
64.689
57.807
50.904
44.002
37.127
30.303
23.553
16.899
10.362
3.962
-2.281
-8.35
-14.229
-19.901
-25.354
-30.574
-35.55
-40.274
-44.736
-48.93
-52.85
-56.493
-59.856
-62.937
-65.737
-68.257
-70.5
-72.469
-74.17
-75.61
-76.794
-77.733
-78.434
-78.907
-79.164
-79.216
-79.074
-78.751
-78.258
-77.609
-76.815
-75.891
-74.848
-73.699
-72.456
-71.133
-69.741
-68.292
-66.797
-65.268
-63.715
-62.148
-60.578
-59.013
-57.462
-55.934
-54.435
-52.974
-51.557
-50.188
-48.875
-47.62
-46.428
-45.302
-44.244
-43.255
-42.338
-41.493
-40.72
-40.019
-39.389
-38.83
-38.34
-37.919
-37.563
-37.273
-37.046
-36.88
-36.773
-36.723
-36.728
-36.786
-36.895
-37.052
-37.256
-37.504
-37.795
-38.126
-38.497
-38.904
-39.346
-39.822
-40.329
-40.867
-41.435
-42.03
-42.653
-43.303
-43.978
-44.677
-45.402
-46.149
-46.918
-47.709
-48.519
-49.346
-50.188
-51.044
-51.91
-52.783
-53.66
-54.537
-55.411
-56.277
-57.131
-57.968
-58.782
-59.569
-60.322
-61.035
-61.701
-62.315
-62.87
-63.359
-63.775
-64.113
-64.365
-64.524
-64.585
-64.54
-64.383
-64.109
-63.711
-63.185
-62.527
-61.733
-60.801
-59.73
-58.519
-57.168
-55.679
-54.055
-52.298
-50.413
-48.406
-46.282
-44.051
-41.72
-39.3
-36.803
-34.245
-31.641
-29.007
-26.363
-23.726
-21.117
-18.555
-16.06
-13.65
-11.34
-9.15
-7.096
-5.2
-3.479
-1.952
-0.636
0.454
1.303
1.899
2.23
2.297
2.097
1.629
0.887
-0.144
-1.478
-3.119
-5.069
-7.328
-9.882
-12.716
-15.801
-19.085
-22.512
-26.029
-29.581
-33.132
-36.638
-40.046
-43.295
-46.306
-49.004
-51.337
-53.254
-54.714
-55.709
-56.256
-56.416
-56.309
-56.044
-55.737
-55.513
-55.49
-55.799
-56.569
-57.904
-59.932
-62.83
-66.71
-71.582
-77.289
-83.468
-89.714
-95.63
-100.702
-104.302
-105.85
-105.057
-102.24
-98.147
-93.558
-89.285
-86.092
-84.804
-86.539
-90.851
-94.772
-95.199
-88.7
-74.222
-55.778
-35.182
-11.034
21.136
73.323
155.415
270.248
416.332
580.632
744.831
891.899
1002.781
1066.552
1077.916
1033.913
940.345
802.458
629.628
439.634
249.054
79.758
-48.255
-128.536
-160.155
-153.358
-127.324
-95.695
-71.446
-61.902
-63.779
-72.673
-81.003
-81.719
-74.881
-63.715
-53.845
-49.921
-52.401
-59.298
-67.412
-74.897
-81.352
-86.489
-90.375
-92.721
-93.174
-92.031
-89.793
-86.824
-83.618
-80.801
-78.785
-77.944
-78.492
-80.282
-83.099
-86.74
-90.865
-95.063
-99.012
-102.433
-105.157
-107.175
-108.48
-109.075
-109.006
-108.329
-107.101
-105.387
-103.23
-100.654
-97.703
-94.425
-90.889
-87.175
-83.357
-79.502
-75.66
-71.86
-68.121
-64.452
-60.851
-57.312
-53.82
-50.357
-46.909
-43.464
-40.01
-36.538
-33.031
-29.469
-25.836
-22.116
-18.295
-14.366
-10.319
-6.15
-1.856
2.565
7.111
11.778
16.565
21.468
26.485
31.612
36.843
42.17
47.584
53.076
58.633
64.241
69.883
75.543
81.2
86.835
92.426
97.952
103.389
108.715
113.906
118.937
123.786
128.427
132.838
136.995
140.875
144.457
147.72
150.645
153.214
155.409
157.216
158.623
159.617
160.189
160.333
160.042
159.313
158.146
156.541
154.501
152.033
149.146
145.849
142.155
138.08
133.641
128.855
123.743
118.326
112.628
106.672
100.484
94.089
87.514
80.787
73.934
66.984
59.965
52.905
45.831
38.769
31.746
24.787
17.917
11.16
4.537
-1.93
-8.22
-14.316
-20.2
-25.857
-31.273
-36.436
-41.336
-45.964
-50.314
-54.381
-58.16
-61.651
-64.852
-67.765
-70.393
-72.738
-74.807
-76.606
-78.142
-79.424
-80.462
-81.267
-81.849
-82.222
-82.396
-82.386
-82.203
-81.862
-81.376
-80.758
-80.022
-79.18
-78.247
-77.235
-76.156
-75.022
-73.844
-72.634
-71.4
-70.152
-68.9
-67.651
-66.412
-65.192
-63.995
-62.828
-61.696
-60.603
-59.553
-58.549
-57.592
-56.684
-55.827
-55.02
-54.264
-53.557
-52.898
-52.287
-51.721
-51.199
-50.719
-50.277
-49.872
-49.501
-49.161
-48.85
-48.566
-48.306
-48.069
-47.852
-47.654
-47.473
-47.308
-47.157
-47.019
-46.893
-46.776
-46.669
-46.569
-46.478
-46.393
-46.316
-46.246
-46.183
-46.128
-46.083
-46.048
-46.025
-46.015
-46.019
-46.04
-46.079
-46.138
-46.218
-46.32
-46.446
-46.597
-46.772
-46.973
-47.199
-47.448
-47.721
-48.016
-48.331
-48.665
-49.015
-49.379
-49.755
-50.14
-50.53
-50.922
-51.312
-51.695
-52.067
-52.424
-52.758
-53.066
-53.341
-53.576
-53.765
-53.901
-53.976
-53.983
-53.916
-53.766
-53.528
-53.194
-52.759
-52.218
-51.565
-50.798
-49.912
-48.906
-47.779
-46.528
-45.156
-43.664
-42.054
-40.329
-38.494
-36.556
-34.521
-32.4
-30.205
-27.948
-25.643
-23.304
-20.947
-18.591
-16.25
-13.94
-11.678
-9.48
-7.364
-5.348
-3.455
-1.703
-0.11
1.306
2.528
3.54
4.331
4.895
5.225
5.315
5.156
4.728
4.013
3.001
1.687
0.068
-1.845
-4.04
-6.49
-9.151
-11.976
-14.917
-17.931
-20.988
-24.055
-27.089
-30.034
-32.819
-35.367
-37.624
-39.54
-41.081
-42.241
-43.033
-43.512
-43.78
-43.933
-44.074
-44.308
-44.723
-45.434
-46.564
-48.227
-50.576
-53.822
-58.078
-63.35
-69.492
-76.081
-82.626
-88.651
-93.516
-96.507
-97.13
-95.152
-90.854
-85.268
-79.558
-74.768
-72.027
-72.294
-76.058
-83.313
-92.924
-102.224
-107.991
-106.888
-95.238
-69.569
-26.966
35.163
116.847
214.355
322.812
436.325
550.714
665.986
781.229
892.103
988.878
1055.616
1075.452
1037.238
939.689
789.839
604.282
405.502
213.859
50.717
-68.531
-141.806
-171.127
-165.714
-141.425
-107.541
-74.151
-52.5
-43.948
-48.877
-63.773
-77.537
-85.534
-87.084
-83.426
-80.515
-80.665
-82.437
-84.159
-83.506
-79.854
-74.334
-68.05
-61.891
-56.458
-52.141
-49.317
-48.161
-48.632
-50.523
-53.54
-57.478
-62.141
-67.297
-72.73
-78.217
-83.553
-88.57
-93.105
-97.029
-100.263
-102.759
-104.495
-105.484
-105.751
-105.345
-104.338
-102.796
-100.786
-98.37
-95.607
-92.568
-89.334
-85.983
-82.589
-79.205
-75.859
-72.57
-69.346
-66.181
-63.065
-59.975
-56.882
-53.763
-50.602
-47.385
-44.1
-40.733
-37.264
-33.678
-29.961
-26.1
-22.09
-17.922
-13.593
-9.103
-4.454
0.348
5.295
10.382
15.602
20.948
26.413
31.987
37.66
43.419
49.253
55.144
61.077
67.032
72.988
78.926
84.822
90.655
96.4
102.035
107.536
112.878
118.038
122.992
127.717
132.189
136.385
140.284
143.866
147.109
149.997
152.511
154.638
156.362
157.674
158.562
159.02
159.042
158.625
157.767
156.47
154.736
152.57
149.981
146.978
143.573
139.779
135.613
131.091
126.234
121.06
115.591
109.851
103.863
97.651
91.241
84.658
77.929
71.081
64.141
57.135
50.091
43.035
35.994
28.992
22.054
15.204
8.466
1.859
-4.594
-10.876
-16.968
-22.855
-28.521
-33.954
-39.143
-44.077
-48.748
-53.149
-57.276
-61.125
-64.693
-67.98
-70.987
-73.716
-76.169
-78.351
-80.268
-81.927
-83.335
-84.502
-85.436
-86.148
-86.651
-86.954
-87.072
-87.016
-86.801
-86.438
-85.942
-85.326
-84.603
-83.787
-82.89
-81.924
-80.903
-79.837
-78.738
-77.616
-76.481
-75.342
-74.209
-73.088
-71.988
-70.915
-69.875
-68.873
-67.915
-67.003
-66.141
-65.332
-64.577
-63.878
-63.235
-62.647
-62.115
-61.637
-61.21
-60.833
-60.502
-60.215
-59.967
-59.756
-59.577
-59.427
-59.3
-59.194
-59.104
-59.025
-58.955
-58.89
-58.826
-58.76
-58.689
-58.611
-58.523
-58.423
-58.31
-58.183
-58.04
-57.881
-57.706
-57.515
-57.308
-57.087
-56.854
-56.61
-56.358
-56.1
-55.84
-55.581
-55.325
-55.078
-54.842
-54.622
-54.422
-54.245
-54.096
-53.978
-53.893
-53.846
-53.838
-53.872
-53.949
-54.07
-54.236
-54.447
-54.701
-54.999
-55.339
-55.718
-56.134
-56.583
-57.06
-57.563
-58.084
-58.617
-59.155
-59.691
-60.217
-60.724
-61.203
-61.646
-62.042
-62.382
-62.657
-62.856
-62.969
-62.987
-62.9
-62.699
-62.375
-61.923
-61.333
-60.602
-59.725
-58.697
-57.517
-56.184
-54.697
-53.058
-51.266
-49.326
-47.243
-45.022
-42.672
-40.201
-37.621
-34.949
-32.2
-29.393
-26.547
-23.682
-20.817
-17.974
-15.177
-12.446
-9.804
-7.274
-4.878
-2.64
-0.587
1.26
2.88
4.255
5.375
6.226
6.798
7.085
7.08
6.778
6.177
5.264
4.034
2.485
0.616
-1.569
-4.049
-6.805
-9.808
-13.013
-16.384
-19.877
-23.447
-27.056
-30.647
-34.169
-37.571
-40.801
-43.827
-46.609
-49.088
-51.209
-52.936
-54.276
-55.314
-56.125
-56.707
-57.153
-57.614
-58.355
-59.826
-62.26
-65.609
-69.882
-75.125
-81.206
-87.932
-94.616
-99.883
-102.856
-103.252
-100.843
-95.661
-87.942
-77.904
-66.71
-56.917
-50.61
-48.993
-53.122
-62.501
-75.164
-89.645
-103.339
-114.023
-123.19
-130.859
-133.757
-124.977
-91.487
-22.988
81.346
214.522
363.029
514.335
662.867
805.182
934.474
1039.21
1102.418
1108.377
1052.056
937.448
777.479
592.013
400.477
222.831
76.587
-27.606
-86.807
-106.045
-96.274
-71.685
-44.107
-24.088
-18.652
-27.208
-46.153
-67.341
-82.705
-90.581
-92.717
-93.76
-97.393
-103.16
-108.682
-111.315
-109.984
-105.344
-98.587
-90.884
-82.991
-75.491
-69.077
-64.162
-60.855
-59.105
-58.704
-59.489
-61.35
-64.102
-67.5
-71.322
-75.391
-79.539
-83.614
-87.43
-90.779
-93.515
-95.554
-96.851
-97.402
-97.214
-96.312
-94.741
-92.575
-89.885
-86.741
-83.215
-79.37
-75.285
-71.047
-66.74
-62.45
-58.234
-54.129
-50.155
-46.318
-42.614
-39.032
-35.552
-32.144
-28.785
-25.457
-22.143
-18.829
-15.5
-12.134
-8.711
-5.214
-1.627
2.063
5.866
9.79
13.839
18.018
22.324
26.757
31.315
35.996
40.8
45.725
50.767
55.919
61.176
66.529
71.966
77.473
83.035
88.632
94.245
99.853
105.432
110.959
116.408
121.756
126.976
132.042
136.928
141.608
146.056
150.248
154.157
157.762
161.038
163.964
166.522
168.691
170.457
171.805
172.723
173.199
173.227
172.8
171.914
170.568
168.764
166.504
163.796
160.648
157.073
153.085
148.701
143.941
138.825
133.377
127.622
121.586
115.297
108.782
102.072
95.196
88.185
81.069
73.878
66.644
59.396
52.163
44.975
37.857
30.836
23.937
17.184
10.598
4.2
-1.992
-7.96
-13.688
-19.164
-24.376
-29.315
-33.972
-38.343
-42.425
-46.217
-49.72
-52.937
-55.871
-58.531
-60.922
-63.055
-64.939
-66.586
-68.009
-69.221
-70.235
-71.067
-71.73
-72.24
-72.61
-72.856
-72.992
-73.031
-72.986
-72.869
-72.693
-72.468
-72.206
-71.915
-71.605
-71.284
-70.959
-70.637
-70.321
-70.017
-69.726
-69.452
-69.195
-68.956
-68.733
-68.526
-68.331
-68.146
-67.968
-67.792
-67.614
-67.429
-67.231
-67.016
-66.779
-66.515
-66.219
-65.887
-65.515
-65.101
-64.641
-64.135
-63.579
-62.975
-62.321
-61.618
-60.867
-60.07
-59.229
-58.347
-57.429
-56.478
-55.498
-54.496
-53.478
-52.448
-51.415
-50.384
-49.363
-48.36
-47.382
-46.438
-45.535
-44.681
-43.884
-43.153
-42.494
-41.915
-41.423
-41.023
-40.72
-40.52
-40.427
-40.443
-40.571
-40.812
-41.168
-41.638
-42.22
-42.912
-43.712
-44.616
-45.617
-46.712
-47.892
-49.152
-50.483
-51.877
-53.325
-54.817
-56.343
-57.894
-59.456
-61.02
-62.573
-64.102
-65.594
-67.038
-68.421
-69.73
-70.952
-72.076
-73.09
-73.982
-74.742
-75.36
-75.827
-76.133
-76.27
-76.234
-76.017
-75.618
-75.032
-74.259
-73.298
-72.151
-70.82
-69.31
-67.626
-65.774
-63.763
-61.601
-59.299
-56.869
-54.325
-51.681
-48.955
-46.167
-43.336
-40.483
-37.632
-34.803
-32.022
-29.311
-26.691
-24.183
-21.807
-19.584
-17.535
-15.682
-14.044
-12.639
-11.484
-10.593
-9.98
-9.655
-9.619
-9.873
-10.419
-11.257
-12.401
-13.86
-15.636
-17.729
-20.137
-22.845
-25.838
-29.087
-32.546
-36.163
-39.887
-43.669
-47.475
-51.263
-54.984
-58.579
-61.976
-65.102
-67.903
-70.326
-72.322
-73.874
-74.988
-75.708
-76.129
-76.336
-76.413
-76.458
-76.568
-76.854
-77.432
-78.396
-79.867
-82.014
-84.974
-88.784
-93.302
-98.185
-103.025
-107.4
-110.816
-112.694
-112.473
-109.891
-105.349
-99.691
-93.873
-88.983
-85.954
-85.627
-89.139
-96.049
-103.379
-108.228
-107.42
-99.461
-86.901
-69.882
-44.78
-6.506
52.977
139.265
250.218
381.309
525.688
671.824
809.119
923.682
998.577
1022.154
987.617
896.916
760.267
591.3
406.44
221.606
53
-83.449
-177.193
-223.577
-225.802
-197.733
-155.88
-115.884
-92.094
-87.076
-96.16
-111.82
-121.167
-118.514
-105.527
-86.266
-69.046
-58.477
-53.875
-53.52
-55.06
-57.525
-61.429
-66.842
-72.876
-78.34
-82.574
-85.435
-86.951
-87.263
-86.438
-84.75
-83.035
-82.057
-82.14
-83.349
-85.483
-88.219
-91.332
-94.551
-97.454
-99.742
-101.275
-101.986
-101.957
-101.297
-100.067
-98.346
-96.226
-93.76
-90.995
-87.983
-84.76
-81.391
-77.954
-74.504
-71.084
-67.723
-64.428
-61.206
-58.052
-54.944
-51.854
-48.763
-45.659
-42.534
-39.385
-36.198
-32.956
-29.642
-26.238
-22.728
-19.096
-15.331
-11.421
-7.364
-3.156
1.201
5.702
10.345
15.129
20.052
25.112
30.304
35.622
41.059
46.605
52.25
57.98
63.777
69.625
75.505
81.397
87.281
93.134
98.934
104.658
110.281
115.779
121.127
126.299
131.272
136.019
140.518
144.744
148.675
152.29
155.569
158.492
161.043
163.206
164.968
166.317
167.243
167.739
167.798
167.416
166.593
165.329
163.627
161.492
158.931
155.955
152.575
148.804
144.658
140.155
135.313
130.153
124.696
118.967
112.989
106.788
100.39
93.822
87.112
80.286
73.373
66.4
59.394
52.381
45.388
38.441
31.563
24.78
18.112
11.582
5.21
-0.986
-6.989
-12.782
-18.351
-23.683
-28.767
-33.593
-38.153
-42.44
-46.449
-50.176
-53.62
-56.78
-59.657
-62.255
-64.577
-66.629
-68.417
-69.95
-71.235
-72.282
-73.103
-73.708
-74.108
-74.318
-74.348
-74.213
-73.925
-73.498
-72.944
-72.277
-71.508
-70.651
-69.716
-68.716
-67.66
-66.561
-65.427
-64.268
-63.093
-61.909
-60.725
-59.547
-58.38
-57.231
-56.103
-55
-53.925
-52.882
-51.872
-50.895
-49.954
-49.048
-48.177
-47.34
-46.536
-45.764
-45.022
-44.307
-43.619
-42.956
-42.316
-41.696
-41.097
-40.517
-39.954
-39.409
-38.88
-38.369
-37.874
-37.397
-36.938
-36.499
-36.081
-35.686
-35.315
-34.972
-34.658
-34.375
-34.128
-33.917
-33.746
-33.617
-33.534
-33.499
-33.515
-33.585
-33.71
-33.894
-34.138
-34.444
-34.813
-35.246
-35.744
-36.305
-36.929
-37.615
-38.361
-39.164
-40.02
-40.925
-41.875
-42.865
-43.888
-44.937
-46.007
-47.088
-48.175
-49.258
-50.329
-51.38
-52.403
-53.389
-54.329
-55.214
-56.035
-56.784
-57.451
-58.028
-58.507
-58.881
-59.141
-59.281
-59.294
-59.175
-58.92
-58.523
-57.98
-57.289
-56.448
-55.456
-54.314
-53.022
-51.584
-50.003
-48.285
-46.434
-44.459
-42.366
-40.164
-37.863
-35.472
-33.003
-30.467
-27.877
-25.247
-22.593
-19.933
-17.285
-14.668
-12.101
-9.604
-7.197
-4.898
-2.725
-0.691
1.188
2.897
4.422
5.746
6.855
7.738
8.382
8.78
8.923
8.806
8.433
7.809
6.938
5.821
4.449
2.811
0.904
-1.276
-3.727
-6.439
-9.396
-12.572
-15.92
-19.39
-22.927
-26.479
-30.004
-33.463
-36.803
-39.964
-42.871
-45.446
-47.623
-49.346
-50.566
-51.272
-51.479
-51.243
-50.669
-49.848
-48.891
-47.934
-47.106
-46.545
-46.396
-46.756
-47.773
-49.713
-52.729
-56.837
-61.906
-67.496
-73.118
-78.394
-82.769
-85.494
-86.06
-84.306
-80.572
-75.908
-71.591
-68.699
-68.267
-71.611
-78.722
-87.533
-95.508
-99.213
-97.138
-92.187
-85.587
-74.325
-51.277
-3.372
79.599
197.218
342.531
502.45
661.433
810.727
941.807
1043.205
1106.259
1118.573
1071.523
967.633
811.87
618.783
409.837
204.887
26.926
-106.607
-189.442
-221.746
-211.316
-172.489
-118.965
-65.134
-26.842
-9.998
-13.085
-28.983
-42.882
-47.555
-43.923
-35.568
-30.495
-32.207
-39.039
-48.944
-58.87
-66.953
-72.671
-75.875
-76.917
-76.21
-74.248
-71.431
-67.96
-64.321
-61.362
-59.623
-59.35
-60.567
-62.963
-66.287
-70.397
-74.98
-79.556
-83.741
-87.319
-90.201
-92.45
-94.124
-95.185
-95.616
-95.504
-94.961
-93.924
-92.282
-90.141
-87.524
-84.46
-81.349
-77.397
-71.832
-65.921
-60.063
-56.512
-57.948
-61.416
-64.938
-65.565
-59.245
-49.525
-39.416
-30.976
-27.617
-26.878
-26.262
-25.197
-22.157
-18.005
-13.861
-9.505
-5.077
-0.501
4.451
9.625
14.892
20.286
25.809
31.44
37.173
43.009
48.938
54.969
61.114
67.344
73.632
79.961
86.307
92.649
98.963
105.222
111.397
117.463
123.396
129.167
134.752
140.123
145.253
150.117
154.691
158.95
162.872
166.434
169.617
172.403
174.774
176.717
178.218
179.268
179.858
179.982
179.636
178.82
177.534
175.781
173.569
170.905
167.799
164.267
160.322
155.983
151.268
146.199
140.798
135.09
129.098
122.849
116.37
109.687
102.83
95.825
88.701
81.487
74.21
66.898
59.579
52.277
45.02
37.832
30.736
23.755
16.909
10.22
3.704
-2.62
-8.737
-14.634
-20.299
-25.721
-30.891
-35.802
-40.449
-44.827
-48.934
-52.768
-56.33
-59.622
-62.644
-65.402
-67.9
-70.143
-72.138
-73.891
-75.411
-76.705
-77.781
-78.65
-79.319
-79.8
-80.1
-80.231
-80.202
-80.024
-79.706
-79.258
-78.691
-78.013
-77.235
-76.365
-75.413
-74.386
-73.294
-72.144
-70.944
-69.702
-68.423
-67.116
-65.786
-64.439
-63.081
-61.718
-60.354
-58.994
-57.644
-56.308
-54.991
-53.697
-52.431
-51.196
-49.997
-48.837
-47.72
-46.65
-45.629
-44.66
-43.745
-42.888
-42.09
-41.352
-40.676
-40.064
-39.515
-39.03
-38.61
-38.254
-37.962
-37.733
-37.566
-37.46
-37.415
-37.428
-37.498
-37.624
-37.803
-38.033
-38.313
-38.639
-39.009
-39.42
-39.868
-40.35
-40.864
-41.407
-41.973
-42.562
-43.168
-43.79
-44.425
-45.069
-45.72
-46.377
-47.036
-47.696
-48.355
-49.013
-49.667
-50.316
-50.961
-51.598
-52.228
-52.849
-53.459
-54.058
-54.645
-55.217
-55.773
-56.313
-56.833
-57.333
-57.81
-58.263
-58.689
-59.084
-59.447
-59.775
-60.064
-60.312
-60.515
-60.671
-60.774
-60.823
-60.812
-60.737
-60.595
-60.381
-60.09
-59.718
-59.262
-58.718
-58.083
-57.355
-56.531
-55.612
-54.596
-53.484
-52.278
-50.979
-49.59
-48.115
-46.558
-44.927
-43.227
-41.468
-39.663
-37.824
-35.964
-34.098
-32.244
-30.416
-28.633
-26.91
-25.262
-23.702
-22.247
-20.91
-19.711
-18.667
-17.793
-17.103
-16.613
-16.332
-16.275
-16.446
-16.847
-17.475
-18.333
-19.426
-20.771
-22.383
-24.268
-26.43
-28.867
-31.57
-34.529
-37.719
-41.093
-44.601
-48.194
-51.826
-55.467
-59.078
-62.607
-65.989
-69.14
-71.983
-74.457
-76.511
-78.1
-79.203
-79.823
-80.002
-79.824
-79.386
-78.792
-78.154
-77.594
-77.24
-77.208
-77.648
-78.761
-80.706
-83.568
-87.26
-91.458
-95.765
-99.819
-103.158
-105.214
-105.515
-103.741
-100.112
-95.62
-91.383
-88.339
-87.545
-89.93
-96.138
-106.762
-120.025
-131.495
-137.385
-133.733
-120.012
-100.152
-73.525
-37.483
14.073
92.942
202.041
338.555
495.942
658.417
813.655
949.13
1048.95
1101.682
1096.694
1030.518
909.432
745.947
559.049
368.328
193.39
50.401
-52.914
-116.209
-147.788
-158.583
-155.482
-142.37
-120.172
-92.58
-69.033
-57.161
-60.882
-76.414
-91.818
-99.273
-96.281
-85.287
-74.297
-67.309
-64.169
-64.346
-66.067
-68.816
-73.51
-79.895
-86.779
-93.441
-99.437
-104.374
-108.177
-110.734
-111.846
-111.948
-112.035
-112.679
-114.108
-116.375
-119.207
-122.394
-125.842
-129.254
-132.21
-134.454
-135.855
-136.391
-136.196
-135.362
-133.936
-131.992
-129.609
-126.851
-123.78
-120.448
-116.893
-113.173
-109.356
-105.496
-101.634
-97.799
-94
-90.239
-86.506
-82.784
-79.053
-75.299
-71.516
-67.698
-63.84
-59.93
-55.958
-51.911
-47.775
-43.537
-39.185
-34.71
-30.106
-25.369
-20.501
-15.504
-10.382
-5.139
0.222
5.7
11.289
16.984
22.779
28.664
34.631
40.666
46.755
52.882
59.029
65.176
71.304
77.392
83.418
89.358
95.19
100.888
106.43
111.789
116.941
121.863
126.529
130.918
135.005
138.771
142.193
145.255
147.938
150.226
152.106
153.566
154.597
155.189
155.337
155.038
154.29
153.094
151.453
149.373
146.861
143.929
140.588
136.852
132.739
128.267
123.455
118.326
112.903
107.21
101.272
95.115
88.767
82.256
75.609
68.854
62.02
55.135
48.226
41.32
34.444
27.623
20.882
14.244
7.731
1.364
-4.838
-10.856
-16.674
-22.277
-27.652
-32.788
-37.674
-42.303
-46.668
-50.765
-54.591
-58.144
-61.425
-64.435
-67.178
-69.657
-71.88
-73.853
-75.584
-77.081
-78.356
-79.418
-80.279
-80.951
-81.446
-81.776
-81.954
-81.992
-81.904
-81.701
-81.396
-81.001
-80.527
-79.986
-79.388
-78.743
-78.06
-77.35
-76.619
-75.875
-75.125
-74.375
-73.63
-72.895
-72.173
-71.469
-70.783
-70.119
-69.477
-68.858
-68.262
-67.689
-67.138
-66.607
-66.095
-65.6
-65.119
-64.65
-64.191
-63.739
-63.291
-62.846
-62.4
-61.951
-61.498
-61.038
-60.57
-60.093
-59.604
-59.104
-58.593
-58.07
-57.535
-56.989
-56.433
-55.869
-55.298
-54.722
-54.144
-53.565
-52.989
-52.419
-51.859
-51.31
-50.778
-50.267
-49.779
-49.32
-48.893
-48.503
-48.152
-47.846
-47.586
-47.377
-47.222
-47.122
-47.081
-47.1
-47.18
-47.323
-47.529
-47.798
-48.129
-48.522
-48.974
-49.483
-50.047
-50.661
-51.322
-52.025
-52.765
-53.537
-54.334
-55.15
-55.978
-56.81
-57.639
-58.456
-59.252
-60.02
-60.748
-61.429
-62.052
-62.609
-63.089
-63.484
-63.786
-63.985
-64.074
-64.044
-63.89
-63.604
-63.179
-62.612
-61.896
-61.027
-60.005
-58.825
-57.489
-55.996
-54.347
-52.547
-50.597
-48.503
-46.271
-43.905
-41.415
-38.809
-36.097
-33.291
-30.403
-27.45
-24.448
-21.419
-18.38
-15.353
-12.357
-9.413
-6.543
-3.771
-1.115
1.403
3.763
5.946
7.929
9.692
11.218
12.493
13.508
14.255
14.725
14.913
14.816
14.434
13.771
12.828
11.601
10.087
8.288
6.21
3.867
1.273
-1.553
-4.588
-7.796
-11.139
-14.572
-18.048
-21.52
-24.941
-28.266
-31.451
-34.461
-37.255
-39.777
-41.975
-43.794
-45.195
-46.203
-46.844
-47.106
-47.07
-46.9
-46.839
-47.312
-48.67
-50.962
-54.244
-58.617
-63.891
-69.792
-75.717
-80.412
-82.82
-82.544
-79.28
-72.935
-63.965
-52.848
-40.804
-30.252
-23.246
-21.196
-25.344
-36.174
-53.419
-75.536
-98.606
-117.899
-129.964
-134.795
-134.293
-127.232
-107.51
-63.76
13.892
126.111
264.078
413
560.781
701.592
833.747
952.806
1046.74
1100.616
1100.423
1042.661
935.128
788.972
619.989
441.612
265.786
109.526
-14.643
-99.007
-141.638
-152.329
-142.178
-121.135
-99.085
-79.751
-66.001
-58.319
-52.165
-44.999
-34.414
-21.136
-10.801
-6.265
-8.662
-17.255
-28.235
-39.514
-50.319
-59.433
-66.409
-71.06
-73.036
-72.664
-70.73
-67.72
-64.205
-61.109
-59.061
-58.375
-59.236
-61.456
-64.689
-68.696
-73.116
-77.43
-81.276
-84.432
-86.771
-88.335
-89.173
-89.288
-88.737
-87.607
-85.968
-83.889
-81.412
-78.556
-75.361
-71.891
-68.224
-64.443
-60.619
-56.799
-53.014
-49.284
-45.62
-42.025
-38.493
-35.009
-31.556
-28.118
-24.686
-21.247
-17.791
-14.299
-10.752
-7.13
-3.413
0.412
4.357
8.429
12.637
16.984
21.472
26.1
30.866
35.767
40.802
45.969
51.262
56.676
62.203
67.832
73.553
79.353
85.217
91.126
97.062
103.006
108.934
114.825
120.655
126.398
132.03
137.524
142.855
147.996
152.92
157.603
162.017
166.14
169.946
173.414
176.523
179.254
181.589
183.513
185.013
186.077
186.696
186.865
186.577
185.83
184.626
182.965
180.854
178.298
175.307
171.894
168.072
163.859
159.271
154.33
149.057
143.476
137.611
131.488
125.133
118.576
111.844
104.965
97.97
90.888
83.747
76.577
69.405
62.259
55.164
48.147
41.231
34.44
27.794
21.315
15.021
8.929
3.055
-2.587
-7.984
-13.126
-18.005
-22.612
-26.943
-30.993
-34.761
-38.246
-41.449
-44.372
-47.019
-49.396
-51.509
-53.366
-54.974
-56.345
-57.488
-58.414
-59.135
-59.664
-60.012
-60.192
-60.217
-60.099
-59.852
-59.488
-59.019
-58.457
-57.814
-57.101
-56.33
-55.51
-54.651
-53.764
-52.856
-51.935
-51.009
-50.084
-49.167
-48.262
-47.374
-46.508
-45.667
-44.853
-44.069
-43.317
-42.597
-41.911
-41.258
-40.638
-40.052
-39.498
-38.975
-38.484
-38.022
-37.588
-37.182
-36.801
-36.445
-36.112
-35.801
-35.511
-35.241
-34.989
-34.755
-34.539
-34.34
-34.157
-33.991
-33.842
-33.71
-33.596
-33.5
-33.424
-33.367
-33.333
-33.321
-33.334
-33.373
-33.44
-33.537
-33.666
-33.829
-34.027
-34.263
-34.536
-34.85
-35.205
-35.603
-36.045
-36.531
-37.062
-37.639
-38.262
-38.932
-39.647
-40.407
-41.211
-42.058
-42.945
-43.872
-44.836
-45.834
-46.863
-47.92
-49.003
-50.105
-51.224
-52.354
-53.49
-54.626
-55.755
-56.871
-57.967
-59.036
-60.07
-61.063
-62.007
-62.894
-63.716
-64.466
-65.137
-65.72
-66.209
-66.596
-66.873
-67.036
-67.077
-66.992
-66.777
-66.426
-65.937
-65.308
-64.535
-63.619
-62.559
-61.356
-60.011
-58.527
-56.91
-55.163
-53.295
-51.316
-49.237
-47.073
-44.838
-42.549
-40.223
-37.878
-35.534
-33.21
-30.922
-28.688
-26.525
-24.454
-22.496
-20.671
-18.999
-17.497
-16.183
-15.073
-14.182
-13.523
-13.099
-12.916
-12.982
-13.308
-13.919
-14.833
-16.06
-17.608
-19.476
-21.659
-24.148
-26.922
-29.936
-33.145
-36.501
-39.96
-43.493
-47.063
-50.62
-54.098
-57.41
-60.481
-63.252
-65.679
-67.73
-69.388
-70.654
-71.567
-72.21
-72.686
-73.111
-73.597
-74.248
-75.194
-76.558
-78.501
-81.246
-84.922
-89.558
-95.053
-101.091
-107.289
-113.297
-118.641
-122.753
-125.243
-125.849
-124.704
-122.611
-120.456
-119.119
-119.441
-121.824
-126.561
-133.919
-143.135
-152.348
-158.449
-156.813
-144.639
-120.739
-84.936
-39.368
18.035
90.999
180.339
287.622
406.841
528.337
648.863
763.389
869.101
962.501
1027.076
1044.288
998.382
880.35
699.91
480.477
253.406
51.024
-104.249
-202.812
-250.553
-260.855
-246.307
-219.299
-184.717
-146.911
-115.155
-92.648
-81.508
-79.801
-77.671
-71.552
-62.09
-51.463
-46.018
-47.948
-55.451
-66.691
-78.638
-88.993
-96.945
-102.045
-104.295
-104.072
-101.866
-98.125
-93.346
-88.375
-84.155
-81.271
-80.021
-80.374
-82.051
-84.801
-88.358
-92.284
-96.061
-99.34
-101.936
-103.796
-104.991
-105.557
-105.501
-104.881
-103.782
-102.273
-100.404
-98.203
-95.674
-92.857
-89.824
-86.648
-83.413
-80.176
-76.965
-73.803
-70.702
-67.663
-64.683
-61.747
-58.832
-55.923
-53.007
-50.074
-47.114
-44.113
-41.052
-37.911
-34.672
-31.316
-27.834
-24.217
-20.457
-16.553
-12.503
-8.308
-3.975
0.495
5.097
9.829
14.685
19.661
24.748
29.937
35.219
40.582
46.01
51.49
57.002
62.529
68.051
73.547
78.996
84.375
89.662
94.833
99.865
104.734
109.418
113.892
118.136
122.127
125.843
129.265
132.374
135.153
137.584
139.655
141.353
142.667
143.587
144.107
144.221
143.926
143.22
142.103
140.578
138.647
136.319
133.601
130.505
127.042
123.228
119.077
114.609
109.842
104.796
99.493
93.955
88.206
82.269
76.17
69.933
63.584
57.148
50.649
44.113
37.564
31.026
24.521
18.073
11.701
5.426
-0.734
-6.759
-12.633
-18.341
-23.869
-29.202
-34.331
-39.245
-43.935
-48.394
-52.616
-56.598
-60.337
-63.831
-67.08
-70.086
-72.852
-75.38
-77.676
-79.746
-81.596
-83.234
-84.669
-85.909
-86.963
-87.842
-88.556
-89.114
-89.526
-89.804
-89.956
-89.992
-89.923
-89.756
-89.502
-89.167
-88.761
-88.292
-87.765
-87.189
-86.568
-85.909
-85.216
-84.495
-83.748
-82.979
-82.191
-81.387
-80.568
-79.735
-78.89
-78.033
-77.163
-76.282
-75.388
-74.481
-73.56
-72.624
-71.673
-70.705
-69.72
-68.719
-67.7
-66.664
-65.612
-64.545
-63.463
-62.369
-61.263
-60.15
-59.031
-57.908
-56.787
-55.669
-54.56
-53.462
-52.381
-51.321
-50.286
-49.282
-48.312
-47.383
-46.498
-45.662
-44.881
-44.16
-43.503
-42.915
-42.4
-41.962
-41.604
-41.331
-41.144
-41.046
-41.039
-41.123
-41.298
-41.565
-41.922
-42.368
-42.899
-43.512
-44.204
-44.968
-45.8
-46.692
-47.639
-48.632
-49.663
-50.725
-51.807
-52.902
-53.999
-55.088
-56.161
-57.205
-58.21
-59.166
-60.061
-60.885
-61.627
-62.276
-62.823
-63.257
-63.569
-63.75
-63.792
-63.687
-63.428
-63.009
-62.425
-61.672
-60.747
-59.65
-58.38
-56.938
-55.326
-53.549
-51.612
-49.521
-47.284
-44.91
-42.409
-39.792
-37.071
-34.261
-31.376
-28.432
-25.448
-22.445
-19.442
-16.463
-13.53
-10.665
-7.893
-5.236
-2.714
-0.347
1.846
3.849
5.64
7.201
8.515
9.567
10.343
10.833
11.027
10.919
10.511
9.809
8.816
7.534
5.954
4.069
1.877
-0.619
-3.416
-6.496
-9.84
-13.418
-17.177
-21.065
-25.032
-29.025
-33.003
-36.926
-40.74
-44.385
-47.787
-50.865
-53.548
-55.783
-57.536
-58.814
-59.646
-60.086
-60.208
-60.09
-59.847
-59.56
-59.246
-58.95
-58.728
-58.644
-58.937
-59.883
-61.518
-63.969
-67.445
-71.596
-75.868
-79.88
-82.598
-83.781
-84.911
-85.424
-83.826
-78.608
-65.841
-46.953
-29.277
-19.053
-22.549
-39.123
-59.471
-76.69
-87.857
-93.429
-95.499
-89.714
-63.552
-3.56
96.07
232.469
393.885
562.689
726.557
873.538
989.408
1065.488
1090.705
1057.828
971.357
836.268
664.306
474.688
284.421
115.055
-15.129
-101.041
-144.366
-155.858
-149.65
-132.867
-110.911
-88.758
-69.393
-57.688
-55.112
-56.085
-55.841
-51.396
-42.923
-36.315
-35.413
-39.968
-48.156
-56.45
-62.518
-66.396
-68.43
-68.566
-66.871
-63.634
-59.402
-55.111
-51.67
-49.396
-48.393
-48.897
-50.927
-54.36
-59.003
-64.374
-69.909
-75.267
-80.187
-84.473
-88.07
-90.919
-92.965
-94.245
-94.822
-94.748
-94.084
-92.867
-91.11
-88.852
-86.145
-83.06
-79.688
-76.115
-72.418
-68.654
-64.858
-61.057
-57.266
-53.491
-49.729
-45.965
-42.179
-38.359
-34.501
-30.597
-26.643
-22.626
-18.529
-14.338
-10.043
-5.636
-1.114
3.524
8.28
13.149
18.126
23.203
28.368
33.614
38.934
44.323
49.772
55.272
60.815
66.39
71.987
77.595
83.198
88.782
94.33
99.826
105.254
110.594
115.829
120.94
125.908
130.715
135.342
139.769
143.979
147.953
151.673
155.122
158.285
161.146
163.69
165.905
167.779
169.303
170.467
171.263
171.686
171.731
171.394
170.673
169.568
168.081
166.213
163.97
161.359
158.387
155.065
151.404
147.418
143.121
138.528
133.657
128.525
123.152
117.557
111.76
105.783
99.648
93.377
86.991
80.514
73.968
67.374
60.756
54.133
47.527
40.959
34.447
28.012
21.672
15.444
9.346
3.393
-2.399
-8.018
-13.449
-18.683
-23.709
-28.518
-33.103
-37.457
-41.575
-45.454
-49.09
-52.482
-55.63
-58.533
-61.194
-63.616
-65.801
-67.755
-69.481
-70.987
-72.278
-73.362
-74.245
-74.936
-75.442
-75.772
-75.936
-75.941
-75.799
-75.517
-75.107
-74.578
-73.94
-73.202
-72.374
-71.465
-70.484
-69.439
-68.338
-67.189
-66.001
-64.78
-63.532
-62.266
-60.986
-59.699
-58.41
-57.124
-55.846
-54.581
-53.333
-52.105
-50.903
-49.729
-48.587
-47.48
-46.411
-45.384
-44.399
-43.46
-42.567
-41.723
-40.927
-40.182
-39.487
-38.843
-38.251
-37.711
-37.224
-36.79
-36.41
-36.083
-35.81
-35.591
-35.427
-35.317
-35.262
-35.262
-35.316
-35.425
-35.588
-35.805
-36.075
-36.397
-36.77
-37.193
-37.664
-38.181
-38.742
-39.346
-39.991
-40.674
-41.395
-42.15
-42.939
-43.759
-44.608
-45.484
-46.384
-47.306
-48.245
-49.2
-50.165
-51.137
-52.113
-53.086
-54.053
-55.008
-55.946
-56.861
-57.748
-58.6
-59.412
-60.176
-60.887
-61.54
-62.127
-62.643
-63.082
-63.439
-63.709
-63.886
-63.964
-63.939
-63.804
-63.556
-63.188
-62.697
-62.079
-61.329
-60.446
-59.428
-58.274
-56.983
-55.557
-53.996
-52.304
-50.483
-48.538
-46.475
-44.299
-42.02
-39.645
-37.187
-34.659
-32.074
-29.451
-26.803
-24.148
-21.504
-18.89
-16.326
-13.834
-11.433
-9.143
-6.986
-4.983
-3.154
-1.521
-0.1
1.097
2.057
2.772
3.228
3.417
3.334
2.98
2.358
1.468
0.307
-1.129
-2.834
-4.801
-7.02
-9.479
-12.169
-15.075
-18.169
-21.418
-24.78
-28.202
-31.651
-35.091
-38.496
-41.844
-45.086
-48.167
-51.03
-53.618
-55.882
-57.801
-59.338
-60.439
-61.155
-61.621
-62.08
-62.888
-64.351
-66.646
-69.862
-74.104
-79.288
-85.074
-90.901
-95.82
-98.821
-99.227
-96.688
-91
-82.378
-71.502
-59.268
-47.341
-37.88
-32.602
-32.817
-39.401
-52.321
-70.924
-94.287
-120.178
-144.943
-164.82
-175.874
-174.14
-156.495
-120.062
-61.868
18.315
116.776
228.859
348.808
473.097
602.97
737.533
871.334
992.266
1081.379
1120.191
1096.828
1009.975
867.973
687.353
488.406
291.31
116.404
-21.831
-115.036
-162.445
-173.199
-158.059
-130.461
-102.372
-78.674
-63.526
-55.2
-48.258
-40.994
-31.288
-21.006
-15.646
-17.089
-25.994
-40.844
-57.293
-72.755
-85.627
-94.605
-99.831
-101.562
-99.953
-95.84
-90.223
-84.038
-78.448
-74.31
-71.949
-71.507
-72.891
-75.781
-79.867
-84.767
-89.938
-94.986
-99.661
-103.756
-107.22
-110.043
-112.181
-113.648
-114.494
-114.74
-114.425
-113.593
-112.259
-110.462
-108.257
-105.695
-102.848
-99.791
-96.591
-93.315
-90.013
-86.712
-83.436
-80.193
-76.984
-73.807
-70.648
-67.485
-64.301
-61.081
-57.808
-54.469
-51.045
-47.515
-43.862
-40.072
-36.132
-32.036
-27.774
-23.343
-18.741
-13.969
-9.03
-3.93
1.324
6.728
12.273
17.952
23.754
29.666
35.676
41.768
47.928
54.135
60.369
66.609
72.831
79.012
85.126
91.149
97.054
102.816
108.408
113.804
118.979
123.906
128.56
132.919
136.958
140.657
143.993
146.95
149.508
151.653
153.372
154.654
155.488
155.87
155.794
155.258
154.263
152.811
150.907
148.559
145.775
142.569
138.953
134.945
130.563
125.825
120.754
115.371
109.701
103.769
97.599
91.218
84.654
77.933
71.083
64.133
57.109
50.041
42.954
35.875
28.832
21.849
14.95
8.159
1.498
-5.013
-11.353
-17.505
-23.453
-29.18
-34.675
-39.925
-44.921
-49.655
-54.119
-58.309
-62.221
-65.854
-69.207
-72.282
-75.079
-77.602
-79.857
-81.848
-83.583
-85.07
-86.316
-87.333
-88.13
-88.719
-89.111
-89.318
-89.354
-89.232
-88.964
-88.565
-88.047
-87.424
-86.71
-85.918
-85.061
-84.151
-83.202
-82.223
-81.227
-80.222
-79.22
-78.228
-77.255
-76.308
-75.393
-74.518
-73.686
-72.903
-72.172
-71.497
-70.878
-70.317
-69.815
-69.372
-68.986
-68.657
-68.382
-68.158
-67.984
-67.854
-67.766
-67.716
-67.697
-67.706
-67.737
-67.785
-67.843
-67.907
-67.971
-68.03
-68.079
-68.114
-68.13
-68.124
-68.092
-68.031
-67.938
-67.811
-67.648
-67.45
-67.214
-66.942
-66.635
-66.295
-65.924
-65.524
-65.098
-64.651
-64.186
-63.707
-63.217
-62.723
-62.228
-61.738
-61.257
-60.791
-60.345
-59.924
-59.533
-59.176
-58.858
-58.581
-58.35
-58.166
-58.031
-57.947
-57.915
-57.934
-58.004
-58.124
-58.291
-58.502
-58.753
-59.039
-59.352
-59.687
-60.035
-60.388
-60.738
-61.074
-61.388
-61.67
-61.91
-62.097
-62.221
-62.272
-62.24
-62.114
-61.885
-61.543
-61.08
-60.488
-59.762
-58.895
-57.883
-56.722
-55.41
-53.947
-52.332
-50.567
-48.655
-46.602
-44.412
-42.094
-39.659
-37.117
-34.485
-31.779
-29.018
-26.221
-23.41
-20.606
-17.833
-15.113
-12.467
-9.916
-7.481
-5.184
-3.048
-1.096
0.65
2.171
3.448
4.464
5.203
5.653
5.811
5.672
5.235
4.494
3.433
2.039
0.306
-1.771
-4.188
-6.934
-9.994
-13.34
-16.923
-20.692
-24.596
-28.581
-32.612
-36.646
-40.633
-44.511
-48.197
-51.608
-54.675
-57.339
-59.548
-61.286
-62.553
-63.393
-63.897
-64.147
-64.235
-64.269
-64.34
-64.556
-65.032
-65.854
-67.175
-69.229
-72.165
-76.011
-80.631
-85.644
-90.61
-95.14
-98.702
-100.588
-100.226
-97.416
-92.514
-86.432
-80.397
-75.526
-72.72
-73.231
-77.362
-83.548
-89.704
-93.007
-92.035
-88.752
-83.474
-72.899
-49.579
-1.699
77.67
187.203
319.387
461.968
606.274
748.341
882.828
1000.6
1086.87
1123.153
1097.176
1008.666
866.986
690.294
499.288
311.09
141.612
4.103
-93.258
-146.936
-160.038
-143.636
-111.601
-77.504
-54.111
-45.76
-50.626
-63.392
-73.355
-75.495
-70.455
-61.185
-55.07
-55.524
-61.174
-69.893
-78.245
-84.188
-87.936
-89.779
-89.665
-87.697
-84.141
-79.476
-74.549
-70.259
-66.996
-64.935
-64.354
-65.283
-67.609
-71.177
-75.572
-80.255
-84.895
-89.233
-93.029
-96.199
-98.677
-100.391
-101.375
-101.693
-101.385
-100.506
-99.107
-97.208
-94.855
-92.109
-89.029
-85.699
-82.203
-78.616
-75.014
-71.451
-67.958
-64.557
-61.256
-58.049
-54.929
-51.875
-48.863
-45.874
-42.891
-39.898
-36.879
-33.809
-30.666
-27.428
-24.075
-20.592
-16.966
-13.184
-9.237
-5.121
-0.832
3.631
8.266
13.071
18.048
23.193
28.504
33.975
39.598
45.366
51.267
57.288
63.413
69.623
75.897
82.214
88.548
94.875
101.168
107.4
113.543
119.567
125.445
131.146
136.643
141.905
146.904
151.613
156.005
160.054
163.736
167.028
169.91
172.362
174.367
175.911
176.98
177.565
177.657
177.251
176.345
174.938
173.033
170.638
167.759
164.411
160.608
156.367
151.708
146.654
141.23
135.46
129.374
122.999
116.367
109.509
102.457
95.245
87.905
80.471
72.976
65.454
57.936
50.456
43.043
35.727
28.537
21.502
14.645
7.993
1.567
-4.612
-10.524
-16.154
-21.487
-26.512
-31.218
-35.599
-39.65
-43.37
-46.757
-49.815
-52.546
-54.958
-57.057
-58.853
-60.357
-61.581
-62.539
-63.246
-63.716
-63.967
-64.016
-63.878
-63.573
-63.117
-62.528
-61.824
-61.021
-60.137
-59.188
-58.19
-57.158
-56.107
-55.049
-53.997
-52.963
-51.956
-50.985
-50.056
-49.176
-48.35
-47.581
-46.871
-46.222
-45.633
-45.104
-44.634
-44.218
-43.854
-43.538
-43.264
-43.028
-42.825
-42.648
-42.491
-42.349
-42.216
-42.085
-41.952
-41.811
-41.657
-41.485
-41.291
-41.071
-40.821
-40.539
-40.223
-39.872
-39.485
-39.064
-38.609
-38.122
-37.606
-37.065
-36.501
-35.921
-35.328
-34.728
-34.127
-33.532
-32.949
-32.385
-31.847
-31.341
-30.874
-30.454
-30.086
-29.776
-29.53
-29.353
-29.251
-29.228
-29.286
-29.43
-29.661
-29.981
-30.39
-30.889
-31.474
-32.145
-32.898
-33.727
-34.63
-35.599
-36.628
-37.709
-38.835
-39.996
-41.183
-42.387
-43.596
-44.799
-45.986
-47.144
-48.263
-49.33
-50.335
-51.266
-52.111
-52.86
-53.502
-54.028
-54.426
-54.689
-54.808
-54.777
-54.588
-54.238
-53.722
-53.037
-52.184
-51.164
-49.978
-48.63
-47.125
-45.471
-43.675
-41.747
-39.697
-37.537
-35.278
-32.936
-30.531
-28.082
-25.609
-23.135
-20.681
-18.271
-15.93
-13.679
-11.54
-9.528
-7.662
-5.96
-4.446
-3.141
-2.067
-1.24
-0.67
-0.366
-0.338
-0.59
-1.122
-1.927
-2.997
-4.333
-5.945
-7.847
-10.051
-12.559
-15.363
-18.446
-21.78
-25.342
-29.107
-33.042
-37.125
-41.308
-45.529
-49.74
-53.895
-57.932
-61.806
-65.415
-68.596
-71.314
-73.646
-75.69
-77.615
-79.45
-81.004
-82.241
-83.334
-84.248
-84.81
-84.82
-83.88
-82.066
-80.142
-78.697
-77.965
-78.268
-79.784
-82.554
-86.923
-92.6
-98.304
-102.857
-105.503
-105.787
-103.938
-100.646
-96.507
-92.566
-90.448
-91.94
-97.438
-105.108
-112.454
-116.235
-115.208
-112.298
-108.473
-100.36
-80.687
-36.396
42.99
157.356
300.187
459.098
618.805
770.09
904.299
1009.301
1074.071
1085.216
1032.115
915.352
743.452
534.302
314.771
111.665
-52.558
-164.52
-225.534
-246.163
-239.091
-215.49
-180.738
-139.073
-98.194
-65.69
-48.049
-45.929
-51.938
-59.293
-64.388
-67.022
-71.585
-80.287
-91.324
-102.395
-110.455
-113.548
-112.067
-106.974
-99.31
-90.525
-82.117
-74.916
-69.444
-66.086
-64.745
-65.271
-67.555
-71.114
-75.331
-79.829
-84.295
-88.503
-92.39
-95.809
-98.616
-100.792
-102.344
-103.284
-103.64
-103.41
-102.588
-101.221
-99.362
-97.075
-94.429
-91.483
-88.3
-84.951
-81.504
-78.028
-74.571
-71.162
-67.818
-64.548
-61.347
-58.21
-55.12
-52.053
-48.989
-45.907
-42.787
-39.614
-36.372
-33.041
-29.606
-26.053
-22.37
-18.548
-14.581
-10.466
-6.201
-1.788
2.769
7.466
12.296
17.254
22.333
27.527
32.827
38.224
43.706
49.262
54.877
60.535
66.22
71.911
77.589
83.233
88.822
94.333
99.743
105.03
110.17
115.14
119.916
124.476
128.797
132.857
136.637
140.116
143.276
146.099
148.572
150.679
152.409
153.751
154.696
155.238
155.371
155.093
154.401
153.297
151.782
149.862
147.543
144.834
141.745
138.289
134.48
130.333
125.866
121.097
116.046
110.735
105.184
99.418
93.459
87.332
81.062
74.672
68.189
61.637
55.04
48.422
41.808
35.219
28.679
22.209
15.829
9.559
3.418
-2.576
-8.407
-14.059
-19.518
-24.771
-29.807
-34.615
-39.186
-43.513
-47.59
-51.411
-54.974
-58.275
-61.315
-64.093
-66.611
-68.871
-70.879
-72.639
-74.157
-75.44
-76.496
-77.334
-77.962
-78.391
-78.631
-78.692
-78.586
-78.323
-77.915
-77.374
-76.711
-75.939
-75.069
-74.113
-73.083
-71.989
-70.843
-69.657
-68.439
-67.201
-65.952
-64.701
-63.457
-62.227
-61.019
-59.84
-58.696
-57.591
-56.531
-55.519
-54.558
-53.651
-52.8
-52.007
-51.271
-50.593
-49.974
-49.413
-48.907
-48.457
-48.06
-47.714
-47.417
-47.164
-46.955
-46.784
-46.65
-46.547
-46.473
-46.423
-46.394
-46.382
-46.383
-46.395
-46.413
-46.435
-46.459
-46.482
-46.502
-46.519
-46.531
-46.538
-46.54
-46.536
-46.528
-46.516
-46.501
-46.485
-46.469
-46.454
-46.442
-46.436
-46.436
-46.444
-46.462
-46.492
-46.536
-46.593
-46.667
-46.758
-46.867
-46.994
-47.141
-47.307
-47.491
-47.693
-47.91
-48.14
-48.38
-48.626
-48.875
-49.12
-49.356
-49.578
-49.779
-49.951
-50.087
-50.18
-50.222
-50.203
-50.116
-49.952
-49.703
-49.363
-48.923
-48.377
-47.718
-46.943
-46.046
-45.024
-43.873
-42.591
-41.179
-39.635
-37.962
-36.162
-34.239
-32.201
-30.056
-27.814
-25.489
-23.093
-20.644
-18.157
-15.652
-13.145
-10.657
-8.205
-5.809
-3.488
-1.263
0.844
2.81
4.614
6.235
7.654
8.851
9.811
10.525
10.985
11.184
11.113
10.757
10.103
9.141
7.862
6.262
4.341
2.108
-0.414
-3.189
-6.176
-9.331
-12.614
-15.993
-19.428
-22.879
-26.296
-29.613
-32.77
-35.711
-38.377
-40.714
-42.684
-44.282
-45.546
-46.56
-47.406
-48.143
-48.841
-49.582
-50.47
-51.62
-53.148
-55.122
-57.646
-60.929
-65.095
-70.134
-75.877
-81.86
-87.53
-92.436
-96.031
-97.584
-96.637
-93.132
-87.445
-80.675
-74.223
-69.273
-66.964
-68.738
-74.599
-82.453
-89.936
-93.666
-91.889
-86.989
-79.41
-65.714
-39.444
10.712
93.455
208.069
349.003
505.822
664.963
816.632
948.731
1046.492
1097.598
1090.716
1023.078
901.572
738.795
552.831
362.132
184.3
34.389
-76.744
-145.258
-175.528
-175.814
-159.966
-140.182
-122.243
-111.05
-103.782
-94.127
-80.782
-61.825
-39.845
-22.281
-12.169
-10.579
-16.959
-27.531
-39.625
-52.261
-64.116
-73.926
-81.097
-85.221
-86.272
-84.95
-82.047
-78.062
-73.817
-70.414
-68.421
-68.115
-69.557
-72.384
-76.264
-80.963
-86.052
-91.009
-95.482
-99.25
-102.226
-104.48
-106.045
-106.919
-107.149
-106.798
-105.933
-104.615
-102.879
-100.745
-98.249
-95.454
-92.436
-89.272
-86.031
-82.758
-79.478
-76.207
-72.958
-69.731
-66.523
-63.324
-60.117
-56.888
-53.628
-50.327
-46.975
-43.557
-40.055
-36.448
-32.722
-28.865
-24.868
-20.725
-16.432
-11.988
-7.392
-2.648
2.24
7.267
12.43
17.724
23.143
28.68
34.325
40.068
45.896
51.797
57.754
63.751
69.769
75.788
81.788
87.747
93.643
99.451
105.15
110.713
116.118
121.338
126.349
131.127
135.648
139.887
143.822
147.432
150.694
153.591
156.104
158.217
159.917
161.191
162.03
162.425
162.37
161.862
160.899
159.482
157.613
155.298
152.545
149.364
145.765
141.765
137.378
132.623
127.519
122.087
116.35
110.332
104.056
97.55
90.84
83.952
76.917
69.76
62.512
55.2
47.854
40.501
33.17
25.885
18.675
11.563
4.574
-2.269
-8.946
-15.435
-21.719
-27.781
-33.605
-39.177
-44.485
-49.519
-54.271
-58.734
-62.903
-66.774
-70.346
-73.619
-76.593
-79.272
-81.659
-83.759
-85.579
-87.125
-88.408
-89.436
-90.219
-90.768
-91.096
-91.214
-91.136
-90.875
-90.444
-89.856
-89.126
-88.267
-87.292
-86.216
-85.05
-83.807
-82.5
-81.139
-79.736
-78.302
-76.844
-75.373
-73.895
-72.419
-70.95
-69.495
-68.058
-66.645
-65.258
-63.903
-62.581
-61.295
-60.048
-58.841
-57.676
-56.554
-55.474
-54.439
-53.447
-52.498
-51.592
-50.73
-49.909
-49.129
-48.39
-47.69
-47.03
-46.407
-45.822
-45.273
-44.762
-44.288
-43.85
-43.451
-43.092
-42.772
-42.495
-42.261
-42.074
-41.934
-41.844
-41.806
-41.822
-41.893
-42.021
-42.207
-42.453
-42.76
-43.128
-43.557
-44.047
-44.599
-45.21
-45.881
-46.608
-47.391
-48.226
-49.11
-50.041
-51.014
-52.025
-53.069
-54.141
-55.235
-56.346
-57.465
-58.585
-59.698
-60.797
-61.871
-62.911
-63.907
-64.851
-65.731
-66.538
-67.262
-67.895
-68.426
-68.846
-69.147
-69.321
-69.36
-69.256
-69.004
-68.598
-68.033
-67.306
-66.414
-65.356
-64.131
-62.739
-61.181
-59.461
-57.581
-55.546
-53.363
-51.038
-48.581
-46.001
-43.309
-40.519
-37.646
-34.706
-31.719
-28.703
-25.68
-22.671
-19.699
-16.787
-13.957
-11.23
-8.625
-6.163
-3.865
-1.749
0.162
1.849
3.297
4.487
5.406
6.042
6.385
6.432
6.182
5.633
4.781
3.614
2.118
0.291
-1.871
-4.365
-7.177
-10.292
-13.681
-17.296
-21.085
-24.996
-28.976
-32.986
-36.984
-40.92
-44.73
-48.334
-51.655
-54.627
-57.196
-59.316
-60.969
-62.159
-62.934
-63.391
-63.629
-63.755
-63.876
-64.097
-64.545
-65.353
-66.633
-68.529
-71.222
-74.831
-79.387
-84.771
-90.594
-96.408
-101.785
-106.17
-108.931
-109.566
-107.788
-103.824
-98.643
-93.323
-88.71
-85.811
-85.615
-88.838
-96.028
-105.401
-112.531
-113.298
-103.647
-83.596
-57.669
-27.018
9.108
58.002
133.811
243.785
389.76
562.863
741.956
906.952
1037.304
1118.812
1145.487
1113.756
1027.931
893.17
718.877
523.509
325.178
147.55
10.919
-81.067
-131.354
-152.665
-161.542
-161.454
-153.92
-140.27
-119.266
-98.265
-82.269
-69.614
-60.136
-50.35
-39.515
-32.328
-30.435
-34.579
-44.209
-55.739
-67.308
-78.052
-86.446
-92.18
-95.361
-95.878
-94.299
-91.407
-87.609
-83.593
-80.408
-78.594
-78.382
-79.845
-82.656
-86.488
-91.122
-96.156
-101.064
-105.479
-109.174
-112.048
-114.16
-115.544
-116.193
-116.151
-115.482
-114.259
-112.545
-110.381
-107.79
-104.808
-101.504
-97.955
-94.246
-90.454
-86.63
-82.803
-78.995
-75.218
-71.475
-67.764
-64.076
-60.393
-56.702
-52.994
-49.26
-45.493
-41.681
-37.808
-33.855
-29.809
-25.661
-21.404
-17.037
-12.556
-7.962
-3.258
1.55
6.456
11.455
16.54
21.707
26.95
32.261
37.632
43.052
48.51
53.994
59.489
64.978
70.444
75.868
81.231
86.513
91.691
96.746
101.655
106.396
110.948
115.289
119.397
123.251
126.833
130.123
133.102
135.754
138.065
140.019
141.604
142.811
143.629
144.053
144.076
143.694
142.907
141.714
140.118
138.121
135.731
132.955
129.803
126.289
122.426
118.23
113.721
108.916
103.838
98.508
92.95
87.187
81.244
75.146
68.92
62.589
56.181
49.721
43.234
36.746
30.279
23.858
17.506
11.243
5.091
-0.931
-6.805
-12.513
-18.041
-23.373
-28.496
-33.4
-38.074
-42.509
-46.699
-50.639
-54.325
-57.757
-60.933
-63.855
-66.525
-68.949
-71.131
-73.077
-74.795
-76.294
-77.581
-78.667
-79.562
-80.277
-80.824
-81.213
-81.457
-81.567
-81.556
-81.433
-81.212
-80.903
-80.516
-80.063
-79.554
-78.997
-78.404
-77.781
-77.138
-76.48
-75.816
-75.151
-74.489
-73.834
-73.191
-72.561
-71.946
-71.348
-70.768
-70.204
-69.657
-69.126
-68.61
-68.107
-67.615
-67.132
-66.656
-66.184
-65.715
-65.246
-64.775
-64.299
-63.818
-63.329
-62.831
-62.323
-61.803
-61.272
-60.729
-60.173
-59.605
-59.026
-58.436
-57.838
-57.233
-56.624
-56.013
-55.404
-54.8
-54.206
-53.625
-53.062
-52.522
-52.008
-51.527
-51.082
-50.678
-50.32
-50.011
-49.756
-49.558
-49.42
-49.345
-49.335
-49.391
-49.515
-49.707
-49.967
-50.293
-50.684
-51.139
-51.655
-52.227
-52.853
-53.527
-54.245
-55.001
-55.789
-56.602
-57.431
-58.269
-59.107
-59.936
-60.744
-61.524
-62.263
-62.952
-63.579
-64.135
-64.609
-64.991
-65.27
-65.437
-65.483
-65.399
-65.178
-64.813
-64.296
-63.625
-62.794
-61.801
-60.644
-59.323
-57.838
-56.191
-54.385
-52.423
-50.311
-48.056
-45.664
-43.145
-40.509
-37.768
-34.936
-32.031
-29.071
-26.074
-23.061
-20.054
-17.077
-14.154
-11.306
-8.554
-5.917
-3.415
-1.071
1.097
3.067
4.823
6.351
7.635
8.659
9.411
9.88
10.071
9.985
9.624
8.981
8.041
6.79
5.225
3.343
1.147
-1.359
-4.166
-7.254
-10.571
-14.066
-17.679
-21.35
-25.053
-28.75
-32.393
-35.924
-39.244
-42.255
-44.896
-47.108
-48.855
-50.139
-50.918
-51.184
-51.099
-50.815
-50.525
-50.464
-50.652
-51.071
-51.892
-53.301
-55.361
-58.169
-61.564
-65.14
-68.849
-72.642
-76.224
-79.271
-81.36
-82.033
-81.354
-80.013
-78.574
-77.574
-77.785
-79.903
-84.734
-93.274
-104.617
-115.516
-122.989
-123.85
-118.029
-109.419
-97.689
-79.146
-45.117
17.987
114.966
242.098
389.492
541.34
687.214
822.28
940.638
1034.719
1094.357
1106.029
1061.454
961.951
812.639
627.449
426.264
227.855
54.459
-75.624
-154.898
-182.411
-165.355
-120.204
-63.636
-12.69
14.798
13.862
-11.63
-51.428
-87.024
-108.697
-115.564
-110.886
-103.945
-99.255
-95.711
-91.922
-85.604
-76.81
-67.986
-60.753
-55.729
-52.753
-51.429
-51.518
-52.759
-54.607
-56.194
-56.968
-57.041
-56.928
-56.994
-57.372
-58.056
-59.007
-60.383
-62.269
-64.457
-66.614
-68.509
-70.024
-71.156
-71.945
-72.307
-72.177
-71.584
-70.591
-69.286
-67.732
-65.931
-63.896
-61.673
-59.307
-56.847
-54.298
-51.597
-48.709
-45.627
-42.364
-38.975
-35.485
-31.888
-28.192
-24.408
-20.544
-16.615
-12.614
-8.509
-4.284
0.067
4.536
9.09
13.714
18.41
23.186
28.067
33.067
38.185
43.431
48.815
54.342
60.01
65.807
71.706
77.684
83.726
89.816
95.942
102.086
108.224
114.329
120.375
126.335
132.179
137.879
143.403
148.72
153.805
158.632
163.183
167.436
171.37
174.965
178.201
181.061
183.53
185.593
187.234
188.444
189.212
189.534
189.405
188.824
187.793
186.314
184.394
182.04
179.262
176.073
172.488
168.524
164.2
159.536
154.554
149.277
143.731
137.941
131.934
125.736
119.375
112.877
106.272
99.585
92.845
86.077
79.308
72.563
65.865
59.238
52.705
46.287
40.003
33.871
27.91
22.133
16.555
11.188
6.043
1.128
-3.55
-7.985
-12.172
-16.109
-19.795
-23.23
-26.416
-29.356
-32.053
-34.514
-36.744
-38.749
-40.539
-42.121
-43.504
-44.698
-45.713
-46.56
-47.247
-47.786
-48.187
-48.46
-48.615
-48.661
-48.609
-48.467
-48.245
-47.949
-47.59
-47.173
-46.707
-46.197
-45.65
-45.07
-44.464
-43.836
-43.189
-42.527
-41.853
-41.17
-40.48
-39.785
-39.086
-38.384
-37.68
-36.974
-36.266
-35.556
-34.845
-34.131
-33.414
-32.695
-31.973
-31.248
-30.52
-29.79
-29.059
-28.327
-27.595
-26.865
-26.138
-25.416
-24.7
-23.994
-23.3
-22.619
-21.955
-21.311
-20.689
-20.093
-19.526
-18.992
-18.494
-18.035
-17.62
-17.251
-16.933
-16.669
-16.464
-16.32
-16.24
-16.229
-16.289
-16.422
-16.63
-16.916
-17.279
-17.719
-18.238
-18.833
-19.503
-20.245
-21.057
-21.936
-22.876
-23.874
-24.925
-26.023
-27.161
-28.334
-29.534
-30.754
-31.985
-33.219
-34.447
-35.66
-36.85
-38.006
-39.12
-40.181
-41.18
-42.108
-42.954
-43.71
-44.368
-44.918
-45.353
-45.667
-45.854
-45.91
-45.831
-45.612
-45.253
-44.754
-44.116
-43.341
-42.432
-41.393
-40.231
-38.953
-37.568
-36.084
-34.511
-32.86
-31.147
-29.39
-27.608
-25.822
-24.053
-22.323
-20.655
-19.068
-17.582
-16.21
-14.968
-13.868
-12.929
-12.169
-11.607
-11.259
-11.137
-11.245
-11.59
-12.164
-12.958
-13.963
-15.169
-16.575
-18.194
-20.039
-22.121
-24.448
-27.02
-29.824
-32.834
-36.01
-39.308
-42.69
-46.143
-49.654
-53.203
-56.752
-60.237
-63.57
-66.684
-69.495
-71.875
-73.779
-75.234
-76.348
-77.41
-78.691
-80.249
-82.121
-84.325
-86.629
-88.805
-90.53
-91.089
-90.043
-87.574
-83.979
-79.774
-75.748
-72.289
-69.825
-69.286
-71.096
-74.877
-80.014
-85.54
-90.646
-95.381
-99.766
-103.554
-106.828
-110.017
-114.14
-119.269
-123.024
-122.743
-115.835
-102.21
-86.408
-70.204
-50.285
-19.49
34.178
118.923
232.925
369.406
517.269
663.787
800.743
917.896
1002.303
1040.951
1020.229
934.805
788.903
597.104
383.421
173.16
-9.187
-147.188
-235.129
-275.738
-278.901
-255.72
-217.362
-173.633
-134.164
-106.933
-93.567
-91.596
-93.11
-90.526
-82.997
-73.096
-66.346
-66.942
-74.496
-86.306
-98.977
-110.046
-118.138
-122.987
-124.953
-124.218
-121.247
-116.779
-111.353
-105.746
-101.05
-97.811
-96.249
-96.443
-98.087
-100.883
-104.616
-108.876
-113.145
-117.067
-120.415
-123.092
-125.158
-126.63
-127.489
-127.772
-127.529
-126.821
-125.707
-124.214
-122.353
-120.149
-117.656
-114.945
-112.097
-109.181
-106.246
-103.316
-100.41
-97.538
-94.704
-91.901
-89.116
-86.326
-83.514
-80.668
-77.777
-74.829
-71.81
-68.7
-65.479
-62.132
-58.646
-55.014
-51.228
-47.285
-43.183
-38.923
-34.509
-29.947
-25.244
-20.403
-15.43
-10.333
-5.119
0.2
5.614
11.11
16.674
22.289
27.937
33.599
39.254
44.882
50.461
55.968
61.38
66.675
71.829
76.82
81.624
86.22
90.586
94.699
98.54
102.089
105.326
108.234
110.798
113.001
114.831
116.276
117.327
117.974
118.213
118.039
117.45
116.445
115.028
113.201
110.972
108.349
105.342
101.966
98.233
94.161
89.768
85.072
80.095
74.857
69.382
63.691
57.81
51.761
45.569
39.261
32.86
26.391
19.881
13.354
6.834
0.345
-6.089
-12.446
-18.706
-24.847
-30.85
-36.697
-42.372
-47.859
-53.145
-58.218
-63.067
-67.682
-72.058
-76.188
-80.068
-83.697
-87.073
-90.195
-93.066
-95.688
-98.065
-100.201
-102.1
-103.771
-105.219
-106.453
-107.481
-108.313
-108.958
-109.427
-109.73
-109.878
-109.881
-109.75
-109.497
-109.131
-108.663
-108.103
-107.46
-106.744
-105.964
-105.126
-104.239
-103.308
-102.34
-101.339
-100.31
-99.258
-98.185
-97.094
-95.989
-94.871
-93.744
-92.608
-91.466
-90.319
-89.167
-88.014
-86.858
-85.702
-84.546
-83.391
-82.237
-81.086
-79.938
-78.795
-77.657
-76.526
-75.403
-74.29
-73.188
-72.1
-71.029
-69.977
-68.948
-67.946
-66.974
-66.037
-65.138
-64.283
-63.475
-62.719
-62.018
-61.377
-60.797
-60.284
-59.839
-59.464
-59.161
-58.932
-58.776
-58.694
-58.684
-58.745
-58.875
-59.071
-59.331
-59.649
-60.023
-60.448
-60.917
-61.426
-61.968
-62.536
-63.122
-63.718
-64.315
-64.903
-65.474
-66.016
-66.521
-66.977
-67.376
-67.705
-67.957
-68.12
-68.185
-68.143
-67.986
-67.705
-67.294
-66.746
-66.056
-65.221
-64.238
-63.106
-61.823
-60.391
-58.812
-57.088
-55.223
-53.222
-51.091
-48.837
-46.468
-43.994
-41.427
-38.778
-36.063
-33.299
-30.502
-27.692
-24.889
-22.111
-19.381
-16.717
-14.137
-11.659
-9.302
-7.082
-5.021
-3.135
-1.443
0.042
1.306
2.336
3.122
3.658
3.943
3.979
3.766
3.298
2.561
1.542
0.234
-1.365
-3.253
-5.424
-7.867
-10.559
-13.458
-16.516
-19.685
-22.919
-26.186
-29.446
-32.648
-35.728
-38.602
-41.196
-43.448
-45.305
-46.728
-47.697
-48.212
-48.318
-48.093
-47.632
-47.051
-46.474
-46.022
-45.827
-46.001
-46.691
-48.108
-50.424
-53.706
-57.864
-62.605
-67.587
-72.511
-76.971
-80.401
-82.311
-82.4
-80.909
-78.665
-76.518
-75.333
-76.034
-79.416
-86.362
-96.625
-107.606
-116.055
-118.733
-114.2
-104.961
-92.544
-74.606
-45.462
5.227
86.066
197.174
333.851
486.315
640.827
787.25
912.562
1001.401
1043.868
1031.15
964.303
853.99
709.261
542.883
366.757
191.583
35.545
-84.883
-160.582
-188.849
-179.682
-150.165
-113.845
-83.261
-64.96
-56.846
-55.87
-55.892
-51.538
-43.556
-34.927
-30.244
-32.731
-41.483
-53.596
-65.606
-75.135
-81.479
-84.521
-84.488
-81.676
-76.555
-70.008
-63.035
-56.629
-51.453
-47.866
-46.066
-46.03
-47.588
-50.459
-54.237
-58.43
-62.66
-66.656
-70.198
-73.201
-75.615
-77.393
-78.547
-79.114
-79.124
-78.612
-77.617
-76.158
-74.266
-71.99
-69.377
-66.498
-63.43
-60.241
-57.003
-53.766
-50.559
-47.403
-44.308
-41.273
-38.291
-35.343
-32.404
-29.455
-26.478
-23.457
-20.374
-17.209
-13.938
-10.542
-7.004
-3.311
0.547
4.581
8.795
13.191
17.769
22.525
27.452
32.546
37.802
43.211
48.767
54.461
60.28
66.213
72.246
78.363
84.547
90.776
97.029
103.283
109.513
115.694
121.799
127.802
133.676
139.392
144.925
150.247
155.33
160.15
164.682
168.901
172.784
176.312
179.464
182.224
184.575
186.506
188.005
189.063
189.673
189.831
189.534
188.781
187.575
185.92
183.82
181.287
178.329
174.962
171.2
167.06
162.563
157.729
152.581
147.143
141.441
135.5
129.348
123.012
116.52
109.901
103.184
96.396
89.566
82.721
75.886
69.089
62.353
55.702
49.158
42.741
36.472
30.368
24.447
18.724
13.214
7.927
2.877
-1.928
-6.48
-10.772
-14.799
-18.559
-22.049
-25.269
-28.22
-30.905
-33.328
-35.493
-37.408
-39.079
-40.515
-41.726
-42.72
-43.51
-44.105
-44.518
-44.761
-44.844
-44.78
-44.581
-44.258
-43.823
-43.287
-42.661
-41.956
-41.181
-40.348
-39.465
-38.543
-37.589
-36.613
-35.623
-34.626
-33.63
-32.642
-31.666
-30.711
-29.779
-28.876
-28.006
-27.171
-26.376
-25.621
-24.909
-24.24
-23.617
-23.038
-22.505
-22.016
-21.573
-21.174
-20.819
-20.508
-20.239
-20.013
-19.829
-19.687
-19.587
-19.527
-19.509
-19.53
-19.592
-19.694
-19.835
-20.015
-20.233
-20.489
-20.782
-21.112
-21.477
-21.878
-22.314
-22.783
-23.286
-23.822
-24.39
-24.989
-25.619
-26.278
-26.966
-27.681
-28.422
-29.186
-29.972
-30.777
-31.599
-32.433
-33.277
-34.127
-34.977
-35.823
-36.66
-37.482
-38.282
-39.055
-39.793
-40.49
-41.139
-41.735
-42.269
-42.735
-43.127
-43.437
-43.66
-43.789
-43.818
-43.741
-43.552
-43.246
-42.82
-42.27
-41.592
-40.784
-39.845
-38.774
-37.572
-36.24
-34.781
-33.198
-31.496
-29.682
-27.763
-25.748
-23.648
-21.475
-19.246
-16.975
-14.68
-12.379
-10.091
-7.836
-5.633
-3.502
-1.46
0.473
2.281
3.943
5.439
6.752
7.862
8.752
9.405
9.807
9.946
9.815
9.411
8.731
7.771
6.521
4.971
3.119
0.963
-1.497
-4.251
-7.287
-10.576
-14.074
-17.733
-21.503
-25.336
-29.194
-33.035
-36.812
-40.47
-43.944
-47.173
-50.104
-52.686
-54.869
-56.621
-57.94
-58.869
-59.498
-59.924
-60.218
-60.457
-60.724
-61.119
-61.756
-62.741
-64.137
-66.031
-68.595
-71.946
-76.099
-80.923
-86.029
-90.922
-95.162
-98.236
-99.456
-98.294
-94.551
-88.44
-80.783
-72.768
-65.509
-60.045
-57.792
-59.173
-62.588
-65.89
-66.153
-61.638
-54.829
-47.602
-37.576
-18.784
20.496
91.51
196.007
329.975
483.728
643.418
799.208
938.964
1047.341
1110.207
1113.205
1051.163
929.701
762.45
570.703
375.825
197.588
51.707
-53.006
-115.088
-139.943
-137.082
-119.164
-96.561
-77.626
-68.418
-68.295
-73.874
-78.842
-77.153
-68.362
-55.65
-45.006
-40.754
-43.019
-50.008
-58.937
-68.142
-77.54
-86.721
-94.645
-100.587
-104.139
-105.275
-104.439
-101.951
-97.987
-93.183
-88.612
-84.978
-82.626
-81.649
-81.799
-82.902
-84.859
-87.375
-90.013
-92.474
-94.628
-96.463
-98.09
-99.554
-100.814
-101.843
-102.609
-103.099
-103.308
-103.219
-102.809
-102.069
-101.029
-99.72
-98.177
-96.41
-94.381
-92.051
-89.388
-86.385
-83.06
-79.457
-75.639
-71.654
-67.543
-63.34
-59.064
-54.726
-50.328
-45.862
-41.316
-36.692
-32.015
-27.305
-22.585
-17.864
-13.136
-8.384
-3.582
1.291
6.256
11.329
16.515
21.814
27.22
32.717
38.285
43.907
49.573
55.268
60.983
66.701
72.402
78.065
83.665
89.176
94.569
99.818
104.896
109.78
114.447
118.877
123.052
126.955
130.568
133.873
136.852
139.489
141.767
143.672
145.19
146.311
147.024
147.324
147.207
146.67
145.714
144.34
142.552
140.358
137.764
134.782
131.423
127.701
123.632
119.232
114.522
109.521
104.25
98.734
92.994
87.057
80.946
74.687
68.305
61.827
55.277
48.68
42.063
35.449
28.864
22.33
15.871
9.509
3.263
-2.847
-8.803
-14.591
-20.194
-25.601
-30.801
-35.783
-40.54
-45.065
-49.353
-53.4
-57.204
-60.765
-64.083
-67.162
-70.003
-72.613
-74.996
-77.16
-79.111
-80.859
-82.411
-83.777
-84.968
-85.993
-86.864
-87.59
-88.183
-88.655
-89.014
-89.273
-89.442
-89.53
-89.546
-89.499
-89.398
-89.25
-89.061
-88.839
-88.589
-88.317
-88.026
-87.72
-87.402
-87.075
-86.741
-86.4
-86.052
-85.699
-85.34
-84.975
-84.603
-84.223
-83.834
-83.435
-83.026
-82.604
-82.17
-81.722
-81.259
-80.781
-80.288
-79.779
-79.256
-78.717
-78.165
-77.601
-77.026
-76.441
-75.849
-75.251
-74.652
-74.054
-73.46
-72.875
-72.303
-71.749
-71.216
-70.711
-70.239
-69.804
-69.411
-69.065
-68.771
-68.534
-68.356
-68.242
-68.194
-68.214
-68.304
-68.464
-68.694
-68.993
-69.36
-69.792
-70.287
-70.841
-71.45
-72.109
-72.814
-73.558
-74.334
-75.137
-75.958
-76.787
-77.616
-78.436
-79.236
-80.005
-80.733
-81.409
-82.02
-82.557
-83.006
-83.357
-83.599
-83.72
-83.711
-83.562
-83.265
-82.813
-82.201
-81.425
-80.481
-79.368
-78.085
-76.634
-75.017
-73.235
-71.296
-69.204
-66.967
-64.593
-62.095
-59.485
-56.779
-53.994
-51.146
-48.257
-45.348
-42.444
-39.57
-36.748
-34.001
-31.349
-28.816
-26.426
-24.202
-22.167
-20.337
-18.731
-17.368
-16.268
-15.45
-14.923
-14.686
-14.732
-15.059
-15.671
-16.585
-17.811
-19.351
-21.203
-23.364
-25.834
-28.608
-31.664
-34.951
-38.406
-41.961
-45.565
-49.193
-52.828
-56.447
-59.99
-63.356
-66.441
-69.169
-71.49
-73.387
-74.821
-75.721
-76.116
-76.176
-76.201
-76.534
-77.355
-78.62
-80.251
-82.291
-84.796
-87.763
-90.871
-93.573
-95.527
-96.716
-97.364
-97.568
-97.186
-95.954
-93.995
-91.854
-90.192
-89.622
-90.254
-92.313
-96.373
-103.03
-112.772
-124.365
-134.559
-140.232
-138.632
-130.418
-119.62
-105.895
-85.59
-48.8
19.021
121.317
253.651
403.73
553.269
695.113
826.965
945.991
1047.84
1117.982
1139.497
1102.03
1004.614
855.293
668.924
464.833
262.067
83.083
-52.179
-137.665
-177.37
-185.968
-182.671
-175.234
-162.554
-142.635
-113.578
-80.161
-53.595
-38.533
-33.635
-36.349
-40.355
-43.247
-48.029
-55.603
-66.244
-79.357
-91.692
-100.836
-106.317
-108.211
-107.13
-104.008
-99.511
-94.104
-88.618
-84.137
-81.18
-79.943
-80.467
-82.406
-85.457
-89.445
-93.951
-98.449
-102.598
-106.131
-108.912
-110.99
-112.37
-113.031
-113.021
-112.391
-111.199
-109.52
-107.398
-104.856
-101.941
-98.705
-95.219
-91.566
-87.819
-84.046
-80.294
-76.591
-72.957
-69.401
-65.919
-62.508
-59.151
-55.827
-52.517
-49.208
-45.884
-42.531
-39.132
-35.667
-32.118
-28.467
-24.703
-20.818
-16.804
-12.655
-8.369
-3.946
0.614
5.305
10.124
15.068
20.132
25.311
30.598
35.983
41.454
47.001
52.61
58.263
63.943
69.63
75.302
80.939
86.516
92.01
97.396
102.651
107.749
112.666
117.378
121.861
126.091
130.047
133.707
137.051
140.06
142.717
145.006
146.913
148.425
149.533
150.226
150.5
150.348
149.769
148.762
147.328
145.473
143.201
140.522
137.447
133.989
130.162
125.985
121.475
116.654
111.542
106.164
100.542
94.702
88.669
82.468
76.125
69.666
63.118
56.505
49.854
43.188
36.532
29.91
23.343
16.855
10.465
4.194
-1.941
-7.921
-13.73
-19.353
-24.777
-29.989
-34.98
-39.74
-44.261
-48.539
-52.568
-56.345
-59.87
-63.142
-66.163
-68.935
-71.462
-73.748
-75.8
-77.622
-79.223
-80.609
-81.79
-82.772
-83.567
-84.182
-84.627
-84.911
-85.045
-85.038
-84.899
-84.639
-84.267
-83.793
-83.226
-82.576
-81.852
-81.062
-80.215
-79.318
-78.38
-77.406
-76.403
-75.377
-74.334
-73.277
-72.211
-71.141
-70.07
-69
-67.935
-66.876
-65.825
-64.785
-63.755
-62.739
-61.736
-60.749
-59.778
-58.826
-57.893
-56.982
-56.093
-55.229
-54.39
-53.577
-52.792
-52.034
-51.305
-50.605
-49.935
-49.297
-48.692
-48.122
-47.588
-47.094
-46.639
-46.227
-45.859
-45.537
-45.262
-45.037
-44.863
-44.744
-44.681
-44.677
-44.733
-44.852
-45.033
-45.276
-45.582
-45.947
-46.369
-46.844
-47.368
-47.936
-48.543
-49.187
-49.863
-50.568
-51.298
-52.051
-52.823
-53.609
-54.402
-55.192
-55.97
-56.722
-57.438
-58.105
-58.711
-59.248
-59.703
-60.07
-60.341
-60.509
-60.564
-60.49
-60.269
-59.888
-59.34
-58.621
-57.737
-56.7
-55.53
-54.253
-52.894
-51.474
-50.002
-48.477
-46.883
-45.206
-43.425
-41.536
-39.548
-37.472
-35.316
-33.083
-30.771
-28.361
-25.825
-23.121
-20.202
-17.04
-13.63
-9.996
-6.199
-2.318
1.548
5.316
8.929
12.332
15.479
18.321
20.808
22.876
24.458
25.469
25.805
25.383
24.141
22.059
19.168
15.535
11.262
6.445
1.169
-4.483
-10.418
-16.544
-22.772
-29.003
-35.152
-41.11
-46.737
-51.901
-56.469
-60.345
-63.479
-65.859
-67.504
-68.463
-68.801
-68.619
-68.049
-67.211
-66.22
-65.209
-64.311
-63.684
-63.503
-63.9
-65.035
-67.144
-70.38
-74.758
-80.094
-85.913
-91.676
-96.921
-101.082
-103.458
-103.493
-100.946
-96.246
-90.528
-84.96
-80.643
-78.647
-79.929
-85.425
-94.181
-102.643
-107.078
-103.574
-91.812
-75.743
-54.872
-25.938
19.095
93.617
201.014
337.565
494.25
652.795
801.097
929.973
1027.582
1088.239
1103.315
1064.971
975.384
839.172
668.411
480.978
293.314
122.915
-16.778
-117.403
-176.622
-198.921
-191.897
-167.66
-137.43
-110.805
-95.62
-91.974
-96.093
-100.604
-97.962
-87.162
-71.308
-56.25
-46.845
-43.369
-43.731
-45.733
-48.467
-52.206
-57.228
-62.868
-67.834
-71.465
-73.766
-74.788
-74.559
-73.07
-70.385
-67.183
-64.475
-62.776
-62.21
-62.703
-63.995
-65.91
-68.314
-70.833
-72.998
-74.526
-75.281
-75.266
-74.608
-73.377
-71.604
-69.365
-66.746
-63.824
-60.665
-57.312
-53.792
-50.158
-46.47
-42.795
-39.187
-35.674
-32.27
-28.977
-25.783
-22.673
-19.63
-16.63
-13.659
-10.701
-7.741
-4.765
-1.76
1.294
4.415
7.622
10.935
14.367
17.931
21.633
25.477
29.466
33.601
37.881
42.304
46.869
51.573
56.415
61.388
66.486
71.699
77.017
82.425
87.908
93.448
99.024
104.617
110.204
115.761
121.264
126.688
132.008
137.197
142.229
147.079
151.721
156.129
160.279
164.146
167.708
170.943
173.831
176.351
178.489
180.227
181.552
182.453
182.921
182.947
182.528
181.659
180.341
178.576
176.368
173.724
170.655
167.172
163.29
159.026
154.399
149.43
144.142
138.558
132.704
126.605
120.288
113.783
107.115
100.315
93.411
86.432
79.405
72.36
65.323
58.322
51.383
44.53
37.787
31.178
24.723
18.444
12.359
6.485
0.839
-4.565
-9.716
-14.603
-19.218
-23.554
-27.608
-31.376
-34.859
-38.056
-40.972
-43.609
-45.974
-48.073
-49.915
-51.508
-52.862
-53.988
-54.898
-55.603
-56.116
-56.449
-56.615
-56.627
-56.496
-56.237
-55.862
-55.382
-54.81
-54.159
-53.439
-52.663
-51.839
-50.98
-50.093
-49.187
-48.27
-47.348
-46.428
-45.515
-44.611
-43.722
-42.85
-41.996
-41.161
-40.347
-39.553
-38.778
-38.022
-37.283
-36.561
-35.853
-35.159
-34.477
-33.807
-33.147
-32.498
-31.857
-31.226
-30.603
-29.989
-29.384
-28.788
-28.202
-27.627
-27.063
-26.513
-25.978
-25.459
-24.96
-24.483
-24.031
-23.607
-23.213
-22.854
-22.534
-22.255
-22.023
-21.841
-21.713
-21.642
-21.632
-21.686
-21.804
-21.989
-22.242
-22.561
-22.947
-23.398
-23.911
-24.485
-25.114
-25.797
-26.527
-27.299
-28.107
-28.944
-29.803
-30.676
-31.555
-32.43
-33.295
-34.14
-34.955
-35.733
-36.463
-37.137
-37.744
-38.277
-38.724
-39.078
-39.33
-39.473
-39.5
-39.405
-39.184
-38.833
-38.349
-37.733
-36.985
-36.105
-35.096
-33.962
-32.708
-31.342
-29.871
-28.306
-26.657
-24.941
-23.173
-21.37
-19.551
-17.733
-15.938
-14.183
-12.489
-10.87
-9.343
-7.925
-6.632
-5.484
-4.498
-3.69
-3.076
-2.668
-2.478
-2.519
-2.797
-3.31
-4.057
-5.04
-6.263
-7.745
-9.499
-11.527
-13.834
-16.413
-19.254
-22.342
-25.648
-29.12
-32.704
-36.347
-39.999
-43.628
-47.191
-50.634
-53.892
-56.88
-59.524
-61.769
-63.568
-64.891
-65.733
-66.11
-66.081
-65.745
-65.207
-64.587
-64.016
-63.613
-63.495
-63.766
-64.561
-66.094
-68.542
-71.954
-76.194
-80.93
-85.783
-90.422
-94.441
-97.23
-98.203
-97.062
-94.162
-90.38
-86.636
-83.864
-82.87
-84.534
-90.054
-98.838
-107.711
-113.6
-113.169
-106.385
-97.526
-86.232
-68.294
-34.792
27.128
121.072
242.15
380.082
520.571
655.359
779.746
886.395
966.135
1004.304
986.509
908.081
773.056
596.769
401.662
209.442
40.503
-91.578
-180.442
-226.326
-235.753
-217.146
-181.618
-139.894
-102.294
-77.663
-67.795
-69.986
-76.878
-81.192
-81.899
-81.06
-82.876
-89.971
-100.583
-111.607
-120.197
-124.774
-125.182
-122.082
-116.355
-109.007
-101.448
-94.779
-89.516
-85.967
-84.258
-84.333
-86.13
-89.362
-93.422
-97.854
-102.372
-106.753
-110.884
-114.623
-117.802
-120.351
-122.283
-123.612
-124.349
-124.5
-124.053
-123.037
-121.509
-119.526
-117.151
-114.439
-111.449
-108.253
-104.922
-101.53
-98.133
-94.762
-91.442
-88.183
-84.989
-81.853
-78.764
-75.697
-72.633
-69.555
-66.445
-63.29
-60.075
-56.783
-53.4
-49.912
-46.308
-42.58
-38.723
-34.734
-30.612
-26.36
-21.983
-17.489
-12.884
-8.174
-3.369
1.526
6.5
11.544
16.647
21.798
26.983
32.185
37.39
42.578
47.73
52.828
57.851
62.779
67.59
72.264
76.78
81.117
85.253
89.17
92.846
96.263
99.403
102.248
104.784
106.996
108.871
110.399
111.57
112.377
112.814
112.877
112.564
111.874
110.808
109.369
107.562
105.392
102.868
100
96.799
93.279
89.453
85.338
80.951
76.31
71.434
66.343
61.058
55.6
49.99
44.25
38.405
32.474
26.482
20.45
14.4
8.353
2.329
-3.652
-9.571
-15.411
-21.154
-26.786
-32.29
-37.654
-42.864
-47.908
-52.776
-57.458
-61.945
-66.232
-70.31
-74.175
-77.824
-81.253
-84.461
-87.446
-90.208
-92.749
-95.07
-97.174
-99.064
-100.746
-102.223
-103.503
-104.591
-105.494
-106.22
-106.776
-107.17
-107.409
-107.501
-107.455
-107.277
-106.977
-106.561
-106.037
-105.414
-104.698
-103.897
-103.019
-102.07
-101.056
-99.986
-98.865
-97.699
-96.494
-95.257
-93.992
-92.706
-91.403
-90.088
-88.767
-87.442
-86.118
-84.799
-83.488
-82.188
-80.901
-79.631
-78.379
-77.148
-75.94
-74.758
-73.603
-72.478
-71.386
-70.327
-69.304
-68.32
-67.376
-66.473
-65.614
-64.801
-64.036
-63.319
-62.653
-62.039
-61.479
-60.972
-60.519
-60.123
-59.781
-59.495
-59.265
-59.089
-58.968
-58.9
-58.885
-58.921
-59.007
-59.141
-59.321
-59.545
-59.81
-60.112
-60.449
-60.815
-61.206
-61.617
-62.043
-62.477
-62.912
-63.343
-63.761
-64.16
-64.532
-64.869
-65.164
-65.408
-65.594
-65.713
-65.759
-65.722
-65.597
-65.377
-65.056
-64.627
-64.086
-63.427
-62.648
-61.746
-60.717
-59.562
-58.277
-56.866
-55.329
-53.668
-51.889
-49.996
-47.996
-45.901
-43.721
-41.471
-39.164
-36.816
-34.444
-32.067
-29.702
-27.365
-25.073
-22.842
-20.691
-18.639
-16.707
-14.914
-13.278
-11.817
-10.547
-9.484
-8.642
-8.024
-7.636
-7.483
-7.574
-7.927
-8.559
-9.479
-10.695
-12.21
-14.018
-16.108
-18.457
-21.025
-23.767
-26.639
-29.599
-32.62
-35.669
-38.705
-41.676
-44.51
-47.137
-49.502
-51.557
-53.257
-54.589
-55.558
-56.211
-56.643
-56.934
-57.161
-57.413
-57.776
-58.354
-59.253
-60.556
-62.38
-64.912
-68.293
-72.557
-77.55
-82.879
-88.086
-92.75
-96.38
-98.362
-98.144
-95.475
-90.781
-85.059
-79.428
-75.001
-72.688
-73.386
-78.227
-86.677
-95.798
-102.488
-103.044
-96.459
-85.651
-69.855
-45.583
-5.881
59.523
153.489
272.331
408.41
550.556
690.953
822.475
934.032
1012.775
1044.359
1018.79
937.099
808.028
645.876
467.386
287.746
123.145
-11.615
-107.269
-161.718
-182.558
-180.372
-162.49
-133.804
-96.157
-54.716
-20.751
-2.726
-4.2
-21.213
-42.249
-59.653
-70.685
-76.504
-82.38
-89.859
-97.727
-104.507
-107.33
-105.342
-99.582
-90.964
-80.941
-71.061
-61.964
-54.071
-47.891
-43.479
-40.764
-39.719
-39.967
-40.992
-42.548
-44.464
-46.614
-49.043
-51.685
-54.397
-57.153
-59.92
-62.634
-65.24
-67.607
-69.609
-71.201
-72.372
-73.142
-73.551
-73.597
-73.268
-72.559
-71.44
-69.912
-67.999
-65.702
-63.045
-60.064
-56.804
-53.349
-49.772
-46.101
-42.353
-38.522
-34.597
-30.584
-26.489
-22.311
-18.064
-13.758
-9.396
-4.992
-0.547
3.951
8.522
13.203
18.026
23.005
28.146
33.448
38.903
44.504
50.239
56.087
62.031
68.056
74.147
80.294
86.478
92.677
98.863
105.009
111.082
117.054
122.895
128.579
134.078
139.367
144.425
149.23
153.763
158.003
161.93
165.522
168.761
171.628
174.108
176.186
177.848
179.086
179.892
180.26
180.187
179.673
178.717
177.324
175.497
173.245
170.575
167.499
164.031
160.184
155.976
151.425
146.551
141.377
135.923
130.215
124.277
118.134
111.813
105.339
98.739
92.04
85.268
78.451
71.614
64.784
57.985
51.241
44.576
38.013
31.571
25.271
19.13
13.167
7.395
1.83
-3.516
-8.632
-13.509
-18.139
-22.516
-26.634
-30.491
-34.084
-37.413
-40.48
-43.285
-45.834
-48.131
-50.181
-51.992
-53.571
-54.929
-56.073
-57.015
-57.765
-58.334
-58.735
-58.978
-59.076
-59.041
-58.885
-58.619
-58.256
-57.807
-57.283
-56.696
-56.056
-55.373
-54.657
-53.917
-53.16
-52.395
-51.629
-50.868
-50.119
-49.386
-48.675
-47.989
-47.331
-46.705
-46.113
-45.555
-45.034
-44.55
-44.102
-43.691
-43.316
-42.976
-42.67
-42.398
-42.157
-41.945
-41.761
-41.603
-41.468
-41.355
-41.261
-41.185
-41.124
-41.077
-41.041
-41.016
-40.999
-40.989
-40.986
-40.987
-40.993
-41.003
-41.016
-41.033
-41.053
-41.076
-41.104
-41.136
-41.172
-41.214
-41.26
-41.313
-41.372
-41.437
-41.508
-41.585
-41.669
-41.758
-41.853
-41.953
-42.056
-42.162
-42.268
-42.374
-42.475
-42.571
-42.657
-42.732
-42.792
-42.834
-42.855
-42.85
-42.816
-42.749
-42.644
-42.496
-42.302
-42.055
-41.751
-41.387
-40.958
-40.46
-39.89
-39.244
-38.519
-37.715
-36.828
-35.857
-34.803
-33.664
-32.444
-31.142
-29.764
-28.313
-26.795
-25.22
-23.596
-21.936
-20.25
-18.551
-16.852
-15.167
-13.512
-11.899
-10.343
-8.856
-7.453
-6.15
-4.963
-3.909
-3.002
-2.256
-1.683
-1.294
-1.101
-1.109
-1.323
-1.748
-2.388
-3.255
-4.361
-5.717
-7.327
-9.195
-11.312
-13.667
-16.241
-18.997
-21.898
-24.903
-27.967
-31.057
-34.132
-37.146
-40.059
-42.812
-45.35
-47.634
-49.598
-51.189
-52.397
-53.218
-53.695
-53.939
-53.98
-53.859
-53.76
-53.822
-54.234
-55.238
-56.819
-58.968
-61.936
-65.877
-70.682
-76.194
-81.823
-86.825
-91.07
-94.314
-95.926
-95.524
-92.954
-88.387
-83.094
-78.65
-75.694
-74.919
-77.346
-83.365
-93.065
-105.944
-118.411
-126.187
-127.249
-118.234
-97.634
-64.942
-14.136
57.203
147.984
257.288
376.333
499.09
625.477
751.74
874.224
982.587
1057.894
1083.563
1049.018
954.248
808.333
627.091
431.142
239.603
73.679
-49.012
-124.064
-152.829
-145.252
-119.815
-88.235
-60.438
-46.61
-47.019
-59.925
-82.242
-103.655
-116.217
-117.87
-108.054
-90.867
-74.14
-61.052
-52.937
-51.083
-52.696
-56.313
-61.855
-67.7
-73.538
-79.104
-83.554
-86.617
-87.961
-87.424
-85.273
-82.109
-78.853
-76.222
-74.557
-74.025
-74.519
-75.822
-77.77
-80.035
-82.22
-84.143
-85.721
-86.928
-87.846
-88.486
-88.793
-88.797
-88.534
-88.017
-87.273
-86.296
-85.074
-83.646
-82.056
-80.335
-78.486
-76.45
-74.166
-71.615
-68.788
-65.715
-62.45
-59.013
-55.426
-51.726
-47.929
-44.05
-40.1
-36.057
-31.898
-27.616
-23.214
-18.718
-14.157
-9.538
-4.861
-0.114
4.728
9.679
14.748
19.954
25.306
30.805
36.447
42.213
48.077
54.019
60.021
66.068
72.144
78.228
84.295
90.318
96.269
102.118
107.834
113.386
118.74
123.868
128.744
133.344
137.648
141.633
145.28
148.57
151.483
154.003
156.114
157.802
159.052
159.856
160.206
160.096
159.524
158.491
156.999
155.053
152.662
149.835
146.585
142.928
138.882
134.464
129.697
124.604
119.209
113.538
107.617
101.474
95.137
88.636
81.998
75.253
68.429
61.554
54.657
47.763
40.899
34.089
27.358
20.729
14.224
7.864
1.667
-4.349
-10.168
-15.777
-21.163
-26.315
-31.227
-35.89
-40.301
-44.456
-48.353
-51.993
-55.378
-58.509
-61.391
-64.029
-66.429
-68.599
-70.547
-72.281
-73.811
-75.146
-76.298
-77.275
-78.089
-78.751
-79.27
-79.656
-79.921
-80.074
-80.126
-80.084
-79.96
-79.761
-79.496
-79.173
-78.798
-78.378
-77.92
-77.427
-76.906
-76.36
-75.793
-75.209
-74.61
-74
-73.38
-72.753
-72.121
-71.485
-70.846
-70.205
-69.564
-68.924
-68.284
-67.647
-67.013
-66.384
-65.76
-65.143
-64.534
-63.935
-63.347
-62.772
-62.21
-61.664
-61.135
-60.626
-60.137
-59.673
-59.234
-58.824
-58.444
-58.097
-57.786
-57.512
-57.277
-57.084
-56.933
-56.826
-56.765
-56.75
-56.783
-56.864
-56.993
-57.171
-57.397
-57.671
-57.99
-58.354
-58.76
-59.205
-59.687
-60.204
-60.75
-61.323
-61.918
-62.532
-63.159
-63.794
-64.431
-65.064
-65.687
-66.294
-66.876
-67.426
-67.939
-68.406
-68.82
-69.174
-69.461
-69.674
-69.805
-69.848
-69.795
-69.641
-69.379
-69.003
-68.508
-67.889
-67.144
-66.27
-65.263
-64.123
-62.85
-61.443
-59.903
-58.233
-56.436
-54.516
-52.478
-50.329
-48.076
-45.729
-43.298
-40.798
-38.243
-35.648
-33.029
-30.407
-27.798
-25.224
-22.702
-20.251
-17.889
-15.634
-13.505
-11.521
-9.703
-8.068
-6.635
-5.419
-4.435
-3.696
-3.212
-2.987
-3.024
-3.326
-3.9
-4.759
-5.917
-7.383
-9.159
-11.245
-13.633
-16.307
-19.244
-22.402
-25.735
-29.195
-32.735
-36.319
-39.909
-43.458
-46.904
-50.171
-53.178
-55.858
-58.156
-60.024
-61.443
-62.414
-62.977
-63.221
-63.229
-63.092
-62.91
-62.788
-62.838
-63.177
-63.904
-65.144
-67.107
-69.948
-73.698
-78.211
-83.106
-87.96
-92.419
-96.022
-98.114
-98.124
-95.792
-91.476
-86.144
-80.753
-76.171
-73.3
-73.158
-76.948
-84.02
-91.032
-94.526
-91.049
-81.008
-69.418
-56.641
-38.705
-5.947
56.366
153.735
282.332
432.042
587.526
738.317
877.298
994.912
1079.592
1116.877
1095.536
1014.626
882.682
716.451
534.725
354.417
191.392
56.75
-40.878
-98.4
-121.516
-117.988
-100.663
-81.749
-66.737
-60.388
-60.776
-62.128
-62.134
-57.704
-49.88
-43.746
-41.436
-44.448
-52.027
-60.393
-67.558
-72.695
-75.443
-76.636
-76.605
-74.954
-71.937
-68.175
-64.284
-61.149
-59.234
-58.486
-58.97
-60.812
-63.937
-68.199
-73.297
-78.672
-83.939
-88.89
-93.304
-97.075
-100.132
-102.384
-103.831
-104.546
-104.581
-103.991
-102.836
-101.131
-98.917
-96.254
-93.199
-89.833
-86.239
-82.492
-78.667
-74.819
-70.978
-67.171
-63.41
-59.691
-56.011
-52.353
-48.695
-45.023
-41.33
-37.605
-33.838
-30.013
-26.112
-22.122
-18.031
-13.829
-9.512
-5.076
-0.518
4.158
8.947
13.842
18.833
23.913
29.075
34.311
39.611
44.966
50.362
55.789
61.232
66.677
72.106
77.501
82.844
88.113
93.29
98.355
103.284
108.059
112.657
117.058
121.241
125.186
128.872
132.282
135.396
138.199
140.675
142.809
144.59
146.006
147.05
147.712
147.988
147.875
147.37
146.474
145.189
143.519
141.469
139.048
136.264
133.13
129.658
125.863
121.76
117.369
112.706
107.792
102.647
97.293
91.752
86.047
80.201
74.237
68.18
62.051
55.875
49.675
43.471
37.287
31.143
25.058
19.053
13.146
7.353
1.691
-3.825
-9.182
-14.367
-19.369
-24.179
-28.788
-33.189
-37.376
-41.344
-45.089
-48.609
-51.902
-54.969
-57.81
-60.426
-62.822
-65
-66.967
-68.727
-70.286
-71.653
-72.835
-73.839
-74.675
-75.351
-75.876
-76.261
-76.514
-76.647
-76.669
-76.589
-76.419
-76.166
-75.842
-75.455
-75.014
-74.528
-74.004
-73.451
-72.876
-72.286
-71.688
-71.088
-70.492
-69.906
-69.333
-68.777
-68.243
-67.732
-67.246
-66.788
-66.358
-65.956
-65.583
-65.238
-64.919
-64.625
-64.353
-64.102
-63.867
-63.645
-63.432
-63.224
-63.016
-62.803
-62.58
-62.344
-62.088
-61.809
-61.501
-61.159
-60.779
-60.355
-59.883
-59.36
-58.78
-58.141
-57.44
-56.673
-55.84
-54.938
-53.968
-52.927
-51.817
-50.638
-49.39
-48.077
-46.699
-45.26
-43.764
-42.215
-40.617
-38.977
-37.3
-35.593
-33.862
-32.114
-30.357
-28.598
-26.846
-25.107
-23.391
