Name
Date of Birth,"Mar 27, 1959"
Recorded Date,2022-09-24 01:03:18 -0500
Classification,Sinus Rhythm
Symptoms,
Software Version,1.90
Device,"Watch4,2"
Sample Rate,510.227 hertz


Lead,Lead I
Unit,µV

-9.287
-5.06
-0.734
3.533
7.613
11.437
14.963
18.182
21.086
23.65
25.861
27.746
29.349
30.736
31.992
33.152
34.241
35.291
36.326
37.385
38.498
39.662
40.856
42.061
43.257
44.433
45.581
46.665
47.646
48.479
49.115
49.525
49.69
49.59
49.213
48.549
47.592
46.352
44.847
43.09
41.096
38.877
36.446
33.824
31.036
28.105
25.058
21.916
18.702
15.437
12.142
8.835
5.533
2.25
-1.001
-4.207
-7.353
-10.423
-13.405
-16.283
-19.047
-21.683
-24.18
-26.528
-28.72
-30.747
-32.606
-34.292
-35.802
-37.134
-38.287
-39.262
-40.062
-40.688
-41.147
-41.443
-41.584
-41.576
-41.429
-41.151
-40.753
-40.243
-39.633
-38.933
-38.154
-37.307
-36.403
-35.455
-34.473
-33.469
-32.457
-31.446
-30.449
-29.478
-28.542
-27.654
-26.822
-26.055
-25.364
-24.754
-24.235
-23.812
-23.49
-23.276
-23.173
-23.184
-23.312
-23.558
-23.922
-24.405
-25.003
-25.717
-26.543
-27.478
-28.517
-29.657
-30.891
-32.213
-33.617
-35.096
-36.641
-38.244
-39.897
-41.59
-43.313
-45.057
-46.812
-48.567
-50.312
-52.037
-53.731
-55.385
-56.986
-58.526
-59.993
-61.379
-62.674
-63.869
-64.956
-65.927
-66.775
-67.493
-68.074
-68.513
-68.803
-68.941
-68.921
-68.741
-68.397
-67.886
-67.208
-66.361
-65.345
-64.161
-62.809
-61.292
-59.611
-57.77
-55.773
-53.623
-51.326
-48.889
-46.318
-43.621
-40.806
-37.883
-34.861
-31.75
-28.561
-25.306
-21.996
-18.643
-15.26
-11.86
-8.458
-5.071
-1.716
1.589
4.826
7.976
11.018
13.935
16.708
19.321
21.76
24.012
26.061
27.895
29.495
30.85
31.947
32.777
33.332
33.606
33.595
33.304
32.739
31.907
30.807
29.432
27.77
25.817
23.573
21.039
18.228
15.158
11.854
8.361
4.729
1.009
-2.752
-6.518
-10.25
-13.902
-17.41
-20.692
-23.665
-26.258
-28.409
-30.068
-31.221
-31.872
-32.072
-31.912
-31.473
-30.854
-30.169
-29.537
-29.119
-29.067
-29.502
-30.621
-32.699
-35.913
-40.321
-45.71
-51.503
-57.137
-62.159
-65.962
-67.84
-67.282
-64.099
-58.972
-53.537
-49.35
-47.463
-49.015
-55.154
-66.377
-82.607
-100.947
-115.531
-122.46
-118.999
-103.787
-78.5
-38.792
22.495
108.238
222.251
359.245
507.782
661.782
811.298
948.065
1063.308
1141.154
1169.872
1140.395
1052.9
917.015
740.726
538.624
324.938
114.283
-66.959
-198.833
-271.113
-283.624
-257.339
-218.406
-186.767
-174.565
-178.814
-187.892
-190.78
-180.39
-156.948
-126.739
-97.976
-76.868
-65.573
-62.844
-65.684
-72.119
-81.858
-94.851
-110.567
-127.203
-142.43
-154.903
-164.2
-170.374
-173.546
-173.814
-171.542
-167.712
-163.665
-160.249
-157.754
-156.13
-155.104
-154.458
-154.025
-153.498
-152.43
-150.566
-147.862
-144.405
-140.471
-136.338
-132.189
-128.206
-124.542
-121.267
-118.438
-116.1
-114.227
-112.783
-111.711
-110.886
-110.221
-109.658
-109.111
-108.502
-107.71
-106.568
-104.949
-102.776
-99.991
-96.57
-92.489
-87.716
-82.265
-76.194
-69.58
-62.533
-55.128
-47.408
-39.422
-31.219
-22.858
-14.418
-5.954
2.512
10.95
19.334
27.64
35.831
43.899
51.856
59.721
67.518
75.252
82.913
90.488
97.962
105.318
112.538
119.592
126.44
133.052
139.4
145.459
151.21
156.625
161.675
166.332
170.569
174.366
177.705
180.573
182.957
184.85
186.251
187.161
187.587
187.536
187.015
186.03
184.593
182.715
180.409
177.691
174.576
171.083
167.232
163.048
158.555
153.779
148.747
143.485
138.024
132.392
126.617
120.728
114.755
108.727
102.671
96.615
90.587
84.612
78.714
72.917
67.243
61.71
56.339
51.144
46.141
41.344
36.766
32.419
28.311
24.452
20.849
17.51
14.439
11.641
9.118
6.871
4.9
3.205
1.782
0.629
-0.258
-0.885
-1.257
-1.381
-1.265
-0.915
-0.341
0.449
1.445
2.639
4.02
5.58
7.309
9.198
11.237
13.418
15.732
18.169
20.721
23.377
26.13
28.97
31.888
34.874
37.92
41.016
44.154
47.324
50.519
53.728
56.944
60.158
63.362
66.548
69.709
72.837
75.925
78.967
81.955
84.884
87.748
90.54
93.255
95.887
98.432
100.884
103.24
105.494
107.642
109.682
111.611
113.426
115.124
116.704
118.166
119.507
120.729
121.831
122.814
123.681
124.433
125.072
125.601
126.023
126.342
126.562
126.687
126.72
126.668
126.535
126.326
126.048
125.707
125.308
124.86
124.369
123.842
123.285
122.707
122.114
121.513
120.912
120.318
119.739
119.181
118.652
118.16
117.712
117.313
116.971
116.691
116.48
116.341
116.282
116.307
116.42
116.625
116.928
117.332
117.84
118.455
119.178
120.011
120.955
122.008
123.172
124.442
125.817
127.294
128.869
130.539
132.296
134.135
136.048
138.028
140.066
142.151
144.269
146.406
148.547
150.678
152.782
154.843
156.843
158.769
160.605
162.341
163.964
165.459
166.812
168.006
169.027
169.862
170.499
170.928
171.139
171.125
170.891
170.439
169.771
168.881
167.751
166.365
164.715
162.798
160.615
158.178
155.503
152.617
149.575
146.427
143.223
140.007
136.8
133.63
130.542
127.59
124.851
122.402
120.291
118.566
117.268
116.387
115.891
115.703
115.697
115.774
115.843
115.782
115.48
114.826
113.695
111.991
109.564
106.134
101.544
95.85
89.332
82.581
76.21
70.69
66.653
64.954
66.103
70.009
75.807
81.801
86.473
88.65
87.04
80.533
68.557
52.821
37.758
27.149
24.026
29.673
42.556
67.409
112.079
180.633
278.048
399.525
533.678
675.576
817.76
953.344
1074.88
1165.271
1206.942
1187.711
1104.401
965.979
789.174
593.034
395.854
214.41
62.653
-46.969
-108.853
-127.021
-110.361
-76.373
-41.416
-13.59
1.016
6.587
11.857
20.585
37.203
59.671
80.295
95.52
102.841
102.523
98.705
93.281
86.508
79.093
71.37
64.004
58.302
54.753
53.008
52.84
54.021
55.996
58.071
59.653
60.127
59.246
57.2
54.193
50.517
46.615
42.948
39.849
37.546
36.118
35.513
35.688
36.575
38.069
40.057
42.45
45.198
48.276
51.661
55.305
59.132
63.063
67.038
71.023
74.999
78.956
82.888
86.792
90.687
94.595
98.53
102.501
106.509
110.551
114.635
118.775
122.984
127.274
131.658
136.142
140.73
145.425
150.225
155.124
160.114
165.186
170.33
175.54
180.806
186.12
191.471
196.845
202.229
207.606
212.959
218.267
223.511
228.667
233.713
238.626
243.382
247.957
252.326
256.465
260.348
263.95
267.247
270.214
272.827
275.063
276.9
278.318
279.295
279.814
279.859
279.415
278.47
277.013
275.038
272.538
269.513
265.961
261.886
257.294
252.193
246.594
240.509
233.955
226.95
219.514
211.67
203.443
194.858
185.944
176.73
167.245
157.523
147.595
137.495
127.256
116.914
106.502
96.055
85.608
75.194
64.848
54.602
44.487
34.534
24.772
15.227
5.925
-3.111
-11.859
-20.302
-28.423
-36.207
-43.641
-50.716
-57.423
-63.756
-69.712
-75.289
-80.486
-85.305
-89.75
-93.826
-97.539
-100.898
-103.912
-106.592
-108.95
-110.999
-112.752
-114.225
-115.432
-116.391
-117.118
-117.63
-117.945
-118.078
-118.049
-117.871
-117.562
-117.137
-116.609
-115.992
-115.298
-114.54
-113.727
-112.869
-111.975
-111.054
-110.111
-109.154
-108.187
-107.215
-106.242
-105.271
-104.305
-103.346
-102.395
-101.455
-100.526
-99.608
-98.702
-97.807
-96.924
-96.05
-95.185
-94.327
-93.475
-92.627
-91.782
-90.939
-90.096
-89.254
-88.412
-87.57
-86.73
-85.892
-85.057
-84.229
-83.41
-82.602
-81.809
-81.034
-80.28
-79.553
-78.856
-78.192
-77.567
-76.982
-76.442
-75.95
-75.509
-75.121
-74.787
-74.511
-74.293
-74.135
-74.037
-74
-74.024
-74.11
-74.255
-74.46
-74.723
-75.041
-75.412
-75.832
-76.297
-76.803
-77.343
-77.912
-78.503
-79.107
-79.719
-80.328
-80.928
-81.507
-82.058
-82.571
-83.036
-83.445
-83.789
-84.058
-84.245
-84.343
-84.344
-84.244
-84.036
-83.714
-83.277
-82.719
-82.041
-81.239
-80.314
-79.265
-78.095
-76.805
-75.399
-73.882
-72.261
-70.543
-68.741
-66.867
-64.935
-62.962
-60.963
-58.957
-56.962
-54.997
-53.076
-51.216
-49.434
-47.747
-46.174
-44.736
-43.449
-42.329
-41.389
-40.643
-40.105
-39.783
-39.676
-39.784
-40.11
-40.664
-41.469
-42.543
-43.895
-45.53
-47.446
-49.639
-52.1
-54.806
-57.71
-60.761
-63.91
-67.114
-70.349
-73.581
-76.756
-79.8
-82.623
-85.141
-87.299
-89.056
-90.372
-91.227
-91.628
-91.624
-91.303
-90.779
-90.163
-89.559
-89.094
-88.895
-89.095
-89.901
-91.577
-94.3
-98.113
-102.847
-108.08
-113.352
-118.237
-122.169
-124.463
-124.59
-122.345
-118.243
-113.555
-109.686
-107.868
-109.118
-114.259
-123.787
-137.552
-153.92
-169.66
-180.823
-183.375
-173.594
-148.014
-103.521
-37.583
49.341
153.025
267.996
387.689
508.331
629.962
750.237
863.823
959.621
1020.674
1032.579
987.095
885.039
735.815
553.324
353.952
154.583
-27.208
-174.149
-273.21
-318.69
-311.493
-262.067
-188.877
-110.852
-49.545
-19.798
-21.215
-46.741
-81.03
-107.757
-122.535
-126.158
-123.225
-121.198
-121.785
-123.495
-124.731
-122.915
-117.258
-109.169
-100.294
-91.956
-85.016
-79.648
-75.725
-73.291
-72.431
-73.095
-75.253
-78.61
-82.657
-87.222
-91.844
-97.158
-105.229
-115.274
-125.098
-131.071
-126.618
-112.401
-94.926
-80.801
-79.421
-91.076
-107.047
-120.628
-124.449
-117.551
-106.586
-95.583
-87.423
-82.905
-79.383
-75.729
-72.036
-68.226
-64.704
-61.544
-58.367
-55.041
-51.6
-48.017
-44.258
-40.327
-36.228
-31.98
-27.632
-23.188
-18.612
-13.892
-9.029
-4.025
1.114
6.381
11.772
17.277
22.876
28.554
34.297
40.09
45.918
51.766
57.615
63.447
69.244
74.984
80.644
86.203
91.636
96.921
102.033
106.95
111.648
116.105
120.3
124.213
127.823
131.113
134.064
136.66
138.887
140.733
142.185
143.235
143.876
144.103
143.913
143.306
142.284
140.851
139.011
136.773
134.147
131.142
127.771
124.049
119.991
115.615
110.94
105.987
100.776
95.33
89.672
83.825
77.814
71.662
65.393
59.032
52.602
46.128
39.633
33.14
26.671
20.248
13.892
7.623
1.46
-4.58
-10.48
-16.225
-21.8
-27.193
-32.392
-37.386
-42.166
-46.723
-51.05
-55.141
-58.992
-62.598
-65.958
-69.07
-71.934
-74.551
-76.921
-79.047
-80.933
-82.582
-83.998
-85.187
-86.155
-86.907
-87.451
-87.794
-87.943
-87.908
-87.695
-87.315
-86.776
-86.087
-85.257
-84.296
-83.215
-82.022
-80.727
-79.342
-77.875
-76.337
-74.737
-73.086
-71.393
-69.667
-67.918
-66.154
-64.384
-62.616
-60.858
-59.119
-57.405
-55.723
-54.081
-52.485
-50.941
-49.454
-48.03
-46.674
-45.391
-44.184
-43.058
-42.016
-41.06
-40.194
-39.419
-38.737
-38.149
-37.654
-37.253
-36.944
-36.727
-36.6
-36.562
-36.609
-36.74
-36.951
-37.241
-37.605
-38.041
-38.545
-39.113
-39.742
-40.428
-41.167
-41.956
-42.79
-43.666
-44.579
-45.526
-46.503
-47.504
-48.526
-49.562
-50.608
-51.659
-52.71
-53.756
-54.791
-55.81
-56.81
-57.785
-58.731
-59.643
-60.516
-61.345
-62.127
-62.855
-63.524
-64.131
-64.669
-65.134
-65.522
-65.828
-66.047
-66.174
-66.204
-66.133
-65.955
-65.666
-65.261
-64.736
-64.087
-63.313
-62.412
-61.384
-60.229
-58.947
-57.541
-56.012
-54.364
-52.6
-50.725
-48.745
-46.668
-44.503
-42.258
-39.947
-37.582
-35.179
-32.754
-30.321
-27.9
-25.512
-23.178
-20.923
-18.769
-16.738
-14.851
-13.129
-11.592
-10.26
-9.151
-8.277
-7.652
-7.288
-7.201
-7.404
-7.903
-8.687
-9.745
-11.064
-12.634
-14.458
-16.535
-18.861
-21.431
-24.243
-27.296
-30.59
-34.109
-37.808
-41.625
-45.505
-49.407
-53.325
-57.268
-61.229
-65.168
-69.016
-72.689
-76.102
-79.202
-81.904
-84.084
-85.737
-86.974
-88.027
-89.292
-91.124
-93.711
-97.165
-101.54
-106.508
-111.569
-116.176
-119.459
-120.658
-119.25
-114.803
-107.223
-97.204
-85.766
-73.769
-62.412
-52.899
-46.475
-44.551
-48.272
-57.798
-72.601
-92.669
-116.443
-140.496
-161.415
-174.867
-180.439
-182.774
-182.496
-176.469
-153.318
-94.76
5.204
143.255
306.168
472.433
634.111
788.068
929.214
1051.814
1136.694
1164.428
1128.085
1031.21
890.489
723.776
542.572
356.89
176.587
17.141
-104.729
-181.158
-214.221
-214.582
-194.037
-160.03
-117.05
-71.943
-36.153
-18.409
-22.533
-43.894
-69.209
-89.835
-102.181
-106.461
-108.716
-111.72
-114.738
-116.991
-116.149
-111.182
-103.512
-94.897
-86.775
-80.211
-75.506
-72.492
-71.216
-71.833
-74.11
-77.576
-81.832
-86.442
-91.165
-95.948
-100.61
-104.904
-108.638
-111.687
-113.998
-115.575
-116.41
-116.471
-115.755
-114.297
-112.165
-109.444
-106.207
-102.521
-98.446
-94.058
-89.443
-84.69
-79.884
-75.09
-70.345
-65.673
-61.09
-56.598
-52.193
-47.864
-43.585
-39.336
-35.102
-30.87
-26.634
-22.382
-18.103
-13.781
-9.406
-4.968
-0.463
4.112
8.759
13.477
18.261
23.105
28
32.938
37.912
42.914
47.938
52.975
58.015
63.048
68.063
73.047
77.987
82.865
87.666
92.373
96.967
101.43
105.745
109.892
113.854
117.612
121.149
124.447
127.488
130.258
132.74
134.92
136.784
138.319
139.516
140.364
140.856
140.985
140.748
140.142
139.166
137.822
136.112
134.042
131.617
128.847
125.742
122.312
118.573
114.539
110.227
105.655
100.843
95.81
90.578
85.168
79.603
73.906
68.099
62.207
56.252
50.257
44.246
38.241
32.265
26.34
20.486
14.723
9.071
3.547
-1.831
-7.049
-12.093
-16.948
-21.604
-26.051
-30.281
-34.285
-38.058
-41.596
-44.894
-47.952
-50.768
-53.344
-55.68
-57.78
-59.647
-61.286
-62.702
-63.903
-64.894
-65.685
-66.283
-66.696
-66.936
-67.01
-66.929
-66.704
-66.344
-65.86
-65.263
-64.563
-63.769
-62.891
-61.939
-60.922
-59.848
-58.725
-57.561
-56.364
-55.139
-53.895
-52.636
-51.368
-50.097
-48.828
-47.564
-46.311
-45.072
-43.85
-42.649
-41.471
-40.32
-39.198
-38.107
-37.049
-36.028
-35.044
-34.099
-33.195
-32.334
-31.516
-30.745
-30.02
-29.344
-28.719
-28.145
-27.625
-27.161
-26.754
-26.407
-26.122
-25.901
-25.745
-25.657
-25.638
-25.691
-25.816
-26.015
-26.289
-26.64
-27.068
-27.573
-28.155
-28.815
-29.55
-30.36
-31.243
-32.197
-33.219
-34.304
-35.451
-36.653
-37.907
-39.207
-40.548
-41.922
-43.325
-44.748
-46.185
-47.628
-49.068
-50.498
-51.908
-53.289
-54.632
-55.927
-57.165
-58.335
-59.428
-60.435
-61.347
-62.154
-62.848
-63.42
-63.863
-64.169
-64.333
-64.348
-64.209
-63.914
-63.46
-62.847
-62.074
-61.143
-60.055
-58.815
-57.427
-55.897
-54.232
-52.44
-50.53
-48.513
-46.4
-44.206
-41.945
-39.634
-37.292
-34.94
-32.598
-30.294
-28.051
-25.896
-23.854
-21.946
-20.193
-18.617
-17.238
-16.075
-15.148
-14.47
-14.056
-13.922
-14.083
-14.552
-15.337
-16.429
-17.817
-19.494
-21.458
-23.714
-26.277
-29.152
-32.336
-35.831
-39.636
-43.75
-48.158
-52.819
-57.664
-62.611
-67.604
-72.613
-77.616
-82.589
-87.456
-92.085
-96.358
-100.182
-103.499
-106.3
-108.505
-109.963
-110.714
-110.972
-111.015
-111.218
-111.706
-112.281
-112.974
-114.035
-115.489
-117.265
-119.108
-120.399
-121.007
-121.322
-121.371
-120.965
-120.057
-118.506
-116.522
-114.892
-114.044
-114.226
-116.052
-120.072
-126.557
-135.806
-147.73
-161.599
-176.299
-188.545
-193.476
-187.235
-167.212
-134.785
-93.709
-43.383
19.637
101.328
209.149
342.601
495.009
658.252
820.198
967.864
1088.474
1165.056
1181.869
1133.921
1025.206
868.817
685.222
490.923
299.927
128.258
-11.497
-110.94
-168.076
-193.462
-202.308
-204.462
-204.619
-200.241
-186.122
-163.544
-137.046
-111.401
-91.763
-79.492
-73.72
-74.439
-80.534
-89.935
-100.794
-111.206
-119.524
-125.333
-128.615
-128.847
-126.032
-120.831
-114.073
-106.944
-100.688
-95.805
-92.481
-91.054
-91.547
-93.788
-97.556
-102.299
-107.325
-112.233
-116.74
-120.592
-123.716
-126.044
-127.494
-128.117
-128.007
-127.218
-125.816
-123.848
-121.321
-118.281
-114.795
-110.926
-106.766
-102.402
-97.907
-93.354
-88.796
-84.262
-79.777
-75.347
-70.965
-66.619
-62.289
-57.953
-53.595
-49.201
-44.756
-40.244
-35.644
-30.938
-26.113
-21.154
-16.056
-10.813
-5.424
0.11
5.784
11.588
17.514
23.55
29.683
35.903
42.199
48.556
54.961
61.397
67.847
74.295
80.721
87.103
93.418
99.643
105.754
111.724
117.529
123.142
128.538
133.69
138.575
143.166
147.441
151.376
154.952
158.147
160.945
163.329
165.286
166.804
167.873
168.488
168.643
168.336
167.568
166.34
164.658
162.528
159.959
156.964
153.554
149.746
145.557
141.007
136.117
130.912
125.416
119.656
113.659
107.455
101.074
94.545
87.9
81.17
74.386
67.579
60.78
54.019
47.325
40.727
34.25
27.92
21.762
15.797
10.046
4.528
-0.741
-5.746
-10.472
-14.91
-19.049
-22.882
-26.405
-29.612
-32.504
-35.08
-37.342
-39.294
-40.943
-42.294
-43.358
-44.144
-44.663
-44.93
-44.957
-44.761
-44.358
-43.763
-42.996
-42.073
-41.013
-39.834
-38.553
-37.189
-35.76
-34.281
-32.77
-31.242
-29.713
-28.195
-26.703
-25.248
-23.841
-22.492
-21.209
-20
-18.871
-17.827
-16.871
-16.007
-15.236
-14.559
-13.976
-13.486
-13.086
-12.773
-12.543
-12.392
-12.313
-12.302
-12.352
-12.455
-12.605
-12.796
-13.02
-13.269
-13.539
-13.821
-14.11
-14.4
-14.685
-14.961
-15.224
-15.471
-15.698
-15.905
-16.091
-16.255
-16.4
-16.525
-16.634
-16.729
-16.814
-16.892
-16.968
-17.046
-17.131
-17.23
-17.347
-17.489
-17.661
-17.869
-18.119
-18.416
-18.764
-19.166
-19.628
-20.15
-20.736
-21.387
-22.103
-22.884
-23.729
-24.637
-25.604
-26.625
-27.697
-28.812
-29.962
-31.14
-32.336
-33.538
-34.738
-35.923
-37.081
-38.201
-39.27
-40.275
-41.203
-42.04
-42.775
-43.394
-43.884
-44.234
-44.432
-44.469
-44.337
-44.028
-43.536
-42.856
-41.985
-40.921
-39.665
-38.216
-36.579
-34.757
-32.758
-30.59
-28.265
-25.794
-23.193
-20.481
-17.677
-14.804
-11.884
-8.941
-6.001
-3.091
-0.235
2.542
5.215
7.761
10.155
12.37
14.381
16.161
17.687
18.937
19.889
20.527
20.835
20.808
20.44
19.73
18.67
17.245
15.442
13.255
10.681
7.722
4.392
0.714
-3.273
-7.512
-11.94
-16.497
-21.126
-25.786
-30.432
-35.013
-39.469
-43.719
-47.688
-51.309
-54.526
-57.282
-59.554
-61.36
-62.766
-63.899
-64.882
-65.806
-66.762
-67.852
-69.198
-70.93
-73.174
-76.007
-79.553
-84.044
-89.602
-96.171
-103.437
-110.754
-117.448
-123.011
-126.836
-128.092
-126.266
-121.392
-114.205
-106.348
-99.309
-94.005
-91.485
-92.949
-98.972
-107.891
-115.722
-117.648
-109.887
-93.152
-70.091
-39.253
4.136
68.554
162.356
284.654
427.946
581.51
733.198
873.927
994.52
1084.292
1130.206
1119.599
1047.682
915.227
734.038
527.469
318.788
135.008
-3.679
-94.872
-142.632
-162.537
-172.039
-176.35
-180.306
-181.916
-177.362
-171.025
-162.067
-151.162
-140.561
-127.312
-113.521
-101.87
-92.103
-85.581
-81.704
-78.975
-77.547
-77.584
-78.984
-81.333
-84.164
-86.945
-88.98
-90.066
-90.118
-88.994
-87.158
-85.401
-84.141
-83.714
-84.462
-86.35
-89.263
-93.079
-97.319
-101.375
-104.897
-107.663
-109.54
-110.575
-110.794
-110.198
-108.902
-107.048
-104.727
-102.015
-98.948
-95.529
-91.807
-87.863
-83.774
-79.627
-75.474
-71.338
-67.232
-63.162
-59.121
-55.097
-51.066
-47.002
-42.885
-38.706
-34.459
-30.143
-25.746
-21.255
-16.655
-11.93
-7.069
-2.071
3.067
8.342
13.748
19.275
24.912
30.645
36.461
42.347
48.294
54.288
60.317
66.364
72.413
78.446
84.443
90.384
96.246
102.006
107.642
113.129
118.445
123.566
128.47
133.134
137.536
141.653
145.467
148.955
152.1
154.884
157.29
159.305
160.916
162.112
162.884
163.226
163.134
162.606
161.64
160.24
158.408
156.15
153.475
150.392
146.914
143.054
138.829
134.256
129.355
124.148
118.657
112.906
106.92
100.723
94.343
87.806
81.139
74.369
67.524
60.631
53.718
46.81
39.933
33.113
26.374
19.739
13.229
6.866
0.668
-5.347
-11.162
-16.763
-22.135
-27.267
-32.149
-36.773
-41.131
-45.22
-49.035
-52.575
-55.841
-58.834
-61.558
-64.016
-66.215
-68.162
-69.865
-71.334
-72.578
-73.611
-74.442
-75.085
-75.553
-75.859
-76.017
-76.041
-75.943
-75.738
-75.439
-75.059
-74.612
-74.109
-73.563
-72.985
-72.387
-71.778
-71.168
-70.567
-69.981
-69.418
-68.884
-68.384
-67.922
-67.502
-67.125
-66.794
-66.509
-66.269
-66.073
-65.92
-65.807
-65.731
-65.689
-65.677
-65.692
-65.729
-65.784
-65.854
-65.935
-66.022
-66.113
-66.204
-66.292
-66.375
-66.449
-66.512
-66.563
-66.6
-66.621
-66.627
-66.617
-66.591
-66.55
-66.494
-66.426
-66.348
-66.262
-66.171
-66.08
-65.991
-65.909
-65.84
-65.787
-65.756
-65.75
-65.774
-65.832
-65.926
-66.061
-66.237
-66.456
-66.718
-67.023
-67.37
-67.759
-68.185
-68.647
-69.14
-69.66
-70.201
-70.759
-71.326
-71.895
-72.459
-73.012
-73.544
-74.047
-74.513
-74.933
-75.297
-75.595
-75.817
-75.954
-75.995
-75.931
-75.751
-75.447
-75.012
-74.439
-73.721
-72.854
-71.834
-70.662
-69.335
-67.855
-66.225
-64.449
-62.533
-60.484
-58.312
-56.027
-53.642
-51.173
-48.636
-46.051
-43.435
-40.81
-38.195
-35.613
-33.083
-30.625
-28.258
-26
-23.872
-21.896
-20.095
-18.49
-17.101
-15.946
-15.041
-14.402
-14.04
-13.959
-14.159
-14.644
-15.422
-16.509
-17.922
-19.665
-21.741
-24.146
-26.865
-29.882
-33.167
-36.668
-40.332
-44.11
-47.954
-51.833
-55.71
-59.534
-63.243
-66.758
-70
-72.913
-75.444
-77.546
-79.213
-80.456
-81.329
-81.937
-82.362
-82.694
-83.042
-83.504
-84.218
-85.339
-86.975
-89.279
-92.477
-96.665
-101.826
-107.76
-113.939
-119.789
-124.868
-128.633
-130.445
-129.917
-126.979
-122.181
-116.839
-112.392
-109.815
-109.717
-112.915
-119.995
-130.541
-142.985
-153.446
-156.252
-148.127
-127.408
-93.522
-48.616
9.149
83.381
175.489
287.821
416.782
554.468
694.546
827.356
942.145
1028.549
1070.174
1051.517
966.32
814.161
609.357
380.263
153.81
-40.517
-180.159
-261.497
-287.235
-271.419
-236.233
-195.537
-161.963
-142.068
-132.131
-128.496
-123.811
-111.41
-91.547
-67.315
-45.444
-31.606
-26.56
-28.568
-34.359
-41.896
-50.956
-61.214
-71.694
-81.026
-88.271
-93.246
-96.228
-97.544
-97.338
-96
-94.502
-93.758
-94.233
-96.033
-98.898
-102.457
-106.484
-110.677
-114.542
-117.724
-120.038
-121.405
-121.923
-121.711
-120.821
-119.327
-117.328
-114.877
-112.017
-108.797
-105.236
-101.385
-97.322
-93.102
-88.77
-84.357
-79.875
-75.33
-70.727
-66.052
-61.283
-56.411
-51.43
-46.344
-41.16
-35.875
-30.484
-24.98
-19.356
-13.605
-7.725
-1.712
4.433
10.703
17.09
23.579
30.156
36.807
43.521
50.283
57.083
63.906
70.736
77.559
84.358
91.117
97.814
104.432
110.948
117.343
123.596
129.688
135.597
141.304
146.788
152.03
157.011
161.712
166.115
170.202
173.957
177.364
180.409
183.078
185.36
187.243
188.72
189.783
190.428
190.651
190.451
189.83
188.789
187.333
185.469
183.203
180.547
177.511
174.108
170.353
166.261
161.85
157.138
152.145
146.89
141.395
135.682
129.773
123.691
117.459
111.101
104.642
98.103
91.51
84.886
78.255
71.638
65.059
58.539
52.1
45.76
39.539
33.455
27.524
21.761
16.18
10.793
5.612
0.648
-4.093
-8.602
-12.873
-16.901
-20.683
-24.217
-27.502
-30.538
-33.325
-35.867
-38.168
-40.231
-42.062
-43.668
-45.056
-46.234
-47.211
-47.997
-48.603
-49.038
-49.315
-49.446
-49.443
-49.318
-49.085
-48.755
-48.341
-47.854
-47.308
-46.712
-46.079
-45.418
-44.74
-44.055
-43.372
-42.7
-42.047
-41.422
-40.829
-40.278
-39.771
-39.316
-38.916
-38.576
-38.297
-38.084
-37.937
-37.859
-37.851
-37.912
-38.043
-38.243
-38.509
-38.84
-39.234
-39.688
-40.198
-40.762
-41.376
-42.037
-42.742
-43.487
-44.269
-45.085
-45.931
-46.803
-47.699
-48.615
-49.547
-50.492
-51.448
-52.412
-53.38
-54.352
-55.324
-56.294
-57.261
-58.221
-59.174
-60.116
-61.046
-61.963
-62.864
-63.748
-64.613
-65.457
-66.28
-67.08
-67.854
-68.6
-69.317
-70
-70.649
-71.258
-71.825
-72.347
-72.819
-73.237
-73.599
-73.899
-74.135
-74.302
-74.397
-74.414
-74.35
-74.199
-73.959
-73.625
-73.192
-72.657
-72.016
-71.267
-70.406
-69.431
-68.34
-67.131
-65.803
-64.356
-62.789
-61.104
-59.303
-57.389
-55.367
-53.243
-51.023
-48.717
-46.333
-43.885
-41.385
-38.846
-36.285
-33.717
-31.16
-28.632
-26.151
-23.734
-21.397
-19.16
-17.039
-15.053
-13.219
-11.556
-10.083
-8.82
-7.783
-6.989
-6.451
-6.176
-6.171
-6.443
-6.996
-7.845
-8.998
-10.461
-12.243
-14.344
-16.761
-19.483
-22.48
-25.705
-29.111
-32.65
-36.275
-39.951
-43.64
-47.3
-50.888
-54.343
-57.606
-60.624
-63.338
-65.697
-67.669
-69.243
-70.471
-71.459
-72.323
-73.17
-74.08
-75.11
-76.358
-77.941
-79.969
-82.568
-85.805
-89.776
-94.718
-100.761
-107.814
-115.554
-123.274
-130.173
-135.691
-139.211
-139.876
-137.215
-131.315
-122.956
-113.945
-106.057
-100.485
-98.399
-101.052
-109.19
-121.182
-132.884
-139.098
-134.187
-117.538
-92.829
-60.097
-18.783
37.734
123.137
243.085
398.991
583.308
774.784
951.995
1091.909
1177.375
1201.68
1162.938
1068.187
924.267
740.135
532.949
320.132
126.073
-25.899
-128.399
-183.813
-206.62
-216.878
-223.429
-227.246
-224.006
-206.969
-176.566
-138.3
-98.831
-64.761
-39.586
-24.419
-19.122
-22.396
-32.723
-48.008
-65.799
-84.024
-100.367
-112.943
-121.028
-124.382
-123.331
-118.935
-112.239
-104.325
-96.873
-91.167
-87.541
-86.238
-87.134
-89.423
-93.879
-101.059
-108.739
-115.977
-119.689
-116.372
-109.77
-102.392
-97.89
-101.36
-108.43
-115.379
-119.687
-117.11
-110.706
-103.605
-96.547
-91.488
-87.414
-82.987
-78.537
-73.929
-69.282
-64.901
-60.612
-56.263
-51.902
-47.528
-43.103
-38.618
-34.075
-29.466
-24.805
-20.109
-15.344
-10.479
-5.507
-0.417
4.794
10.126
15.585
21.17
26.875
32.691
38.605
44.608
50.689
56.839
63.044
69.289
75.558
81.835
88.101
94.339
100.525
106.64
112.661
118.562
124.322
129.916
135.321
140.511
145.463
150.154
154.561
158.662
162.436
165.863
168.924
171.603
173.884
175.754
177.202
178.22
178.8
178.939
178.635
177.889
176.705
175.087
173.044
170.585
167.723
164.472
160.848
156.868
152.553
147.925
143.007
137.822
132.398
126.759
120.933
114.947
108.83
102.608
96.31
89.963
83.595
77.233
70.901
64.626
58.43
52.338
46.37
40.546
34.885
29.402
24.114
19.032
14.169
9.535
5.138
0.983
-2.923
-6.577
-9.979
-13.127
-16.023
-18.671
-21.073
-23.236
-25.166
-26.87
-28.356
-29.634
-30.713
-31.603
-32.316
-32.862
-33.253
-33.501
-33.617
-33.613
-33.501
-33.292
-32.996
-32.625
-32.189
-31.696
-31.157
-30.58
-29.973
-29.343
-28.699
-28.044
-27.386
-26.73
-26.079
-25.438
-24.81
-24.197
-23.603
-23.029
-22.475
-21.944
-21.435
-20.949
-20.484
-20.04
-19.617
-19.214
-18.83
-18.464
-18.116
-17.785
-17.473
-17.178
-16.901
-16.643
-16.402
-16.181
-15.98
-15.798
-15.638
-15.5
-15.387
-15.3
-15.241
-15.215
-15.222
-15.266
-15.348
-15.472
-15.641
-15.856
-16.121
-16.439
-16.813
-17.246
-17.743
-18.307
-18.939
-19.641
-20.416
-21.262
-22.178
-23.16
-24.204
-25.306
-26.464
-27.672
-28.928
-30.226
-31.565
-32.942
-34.356
-35.799
-37.265
-38.741
-40.218
-41.684
-43.124
-44.526
-45.873
-47.151
-48.348
-49.46
-50.477
-51.388
-52.174
-52.814
-53.29
-53.598
-53.732
-53.691
-53.476
-53.099
-52.585
-51.979
-51.317
-50.621
-49.896
-49.128
-48.317
-47.456
-46.531
-45.544
-44.488
-43.346
-42.112
-40.778
-39.303
-37.653
-35.796
-33.61
-30.955
-27.748
-23.942
-19.574
-14.769
-9.607
-4.072
1.64
7.066
11.998
16.425
20.224
23.656
25.979
25.058
21.138
15.892
12.239
15.788
26.186
37.766
44.9
39.634
21.59
-1.481
-23.574
-38.246
-44.307
-47.323
-50.627
-56.409
-65.183
-74.479
-83.135
-91.142
-98.335
-104.969
-111.047
-116.214
-120.392
-123.688
-126.125
-127.729
-128.557
-128.707
-128.344
-127.652
-126.796
-125.899
-125.086
-124.51
-124.314
-124.603
-125.544
-127.421
-130.37
-134.355
-139.157
-144.206
-148.935
-152.953
-155.631
-156.128
-153.956
-149.096
-142.197
-134.789
-128.504
-124.574
-124.337
-129.39
-139.453
-151.916
-163.562
-169.795
-169.499
-166.472
-160.548
-147.781
-118.13
-55.508
46.9
185.676
350.328
523.736
693.906
853.329
990.232
1091.408
1142.957
1132.071
1059.665
936.595
773.748
586.89
390.335
196.679
26.794
-100.727
-177.992
-203.258
-186.082
-146.013
-97.669
-55.98
-36.295
-40.271
-65.416
-103.513
-137.773
-161.079
-172.495
-174.199
-174.224
-175.336
-176.289
-176.083
-172.337
-164.765
-155.037
-144.343
-133.935
-124.832
-117.309
-111.481
-107.38
-104.801
-103.584
-103.635
-104.801
-106.888
-109.7
-113.038
-116.729
-120.604
-124.461
-128.065
-131.176
-133.62
-135.305
-136.186
-136.251
-135.511
-133.983
-131.713
-128.777
-125.246
-121.194
-116.695
-111.815
-106.637
-101.256
-95.763
-90.252
-84.788
-79.405
-74.122
-68.945
-63.867
-58.879
-53.96
-49.08
-44.217
-39.354
-34.477
-29.577
-24.642
-19.654
-14.599
-9.462
-4.234
1.09
6.512
12.033
17.648
23.351
29.134
34.983
40.888
46.839
52.826
58.839
64.867
70.896
76.912
82.901
88.847
94.73
100.532
106.231
111.807
117.237
122.5
127.575
132.438
137.07
141.449
145.554
149.367
152.868
156.04
158.866
161.33
163.419
165.12
166.423
167.32
167.803
167.869
167.514
166.738
165.543
163.931
161.908
159.48
156.656
153.447
149.865
145.924
141.64
137.031
132.116
126.914
121.448
115.739
109.812
103.689
97.395
90.956
84.395
77.738
71.011
64.238
57.444
50.654
43.89
37.176
30.534
23.984
17.547
11.241
5.084
-0.909
-6.723
-12.343
-17.758
-22.957
-27.93
-32.669
-37.168
-41.42
-45.423
-49.172
-52.668
-55.908
-58.895
-61.63
-64.117
-66.359
-68.363
-70.133
-71.677
-73.004
-74.121
-75.039
-75.767
-76.316
-76.696
-76.919
-76.996
-76.939
-76.759
-76.468
-76.077
-75.598
-75.041
-74.418
-73.738
-73.013
-72.252
-71.464
-70.658
-69.843
-69.027
-68.217
-67.42
-66.644
-65.894
-65.176
-64.495
-63.855
-63.26
-62.714
-62.219
-61.777
-61.39
-61.059
-60.784
-60.565
-60.403
-60.296
-60.243
-60.244
-60.296
-60.397
-60.545
-60.739
-60.975
-61.252
-61.566
-61.916
-62.299
-62.713
-63.155
-63.624
-64.117
-64.632
-65.167
-65.719
-66.287
-66.868
-67.461
-68.063
-68.674
-69.293
-69.917
-70.545
-71.178
-71.812
-72.448
-73.085
-73.72
-74.354
-74.986
-75.613
-76.236
-76.853
-77.463
-78.065
-78.657
-79.237
-79.804
-80.354
-80.884
-81.392
-81.873
-82.323
-82.739
-83.115
-83.448
-83.733
-83.966
-84.142
-84.255
-84.301
-84.275
-84.172
-83.985
-83.71
-83.343
-82.878
-82.313
-81.644
-80.867
-79.98
-78.98
-77.868
-76.642
-75.301
-73.845
-72.277
-70.599
-68.814
-66.928
-64.946
-62.877
-60.733
-58.526
-56.27
-53.98
-51.672
-49.361
-47.066
-44.804
-42.588
-40.433
-38.355
-36.371
-34.498
-32.755
-31.16
-29.729
-28.479
-27.423
-26.578
-25.952
-25.548
-25.368
-25.417
-25.703
-26.247
-27.066
-28.169
-29.56
-31.243
-33.208
-35.44
-37.911
-40.566
-43.35
-46.209
-49.092
-51.967
-54.795
-57.524
-60.091
-62.422
-64.445
-66.116
-67.387
-68.215
-68.598
-68.559
-68.176
-67.586
-66.903
-66.237
-65.717
-65.468
-65.636
-66.366
-67.755
-69.916
-73.03
-77.206
-82.442
-88.546
-95.063
-101.49
-107.378
-112.187
-115.232
-115.898
-113.915
-109.716
-104.275
-98.597
-93.62
-90.147
-89.22
-92.182
-98.322
-104.078
-105.789
-99.552
-85.481
-68.869
-50.304
-26.196
12.454
79.98
181.889
314.363
467.468
625.787
777.773
915.044
1026.929
1101.909
1126.013
1087.804
986.262
827.912
628.195
409.187
192.129
-0.328
-147.867
-239.872
-273.665
-255.954
-205.264
-141.579
-83.619
-48.848
-40.821
-54.366
-79.842
-101.369
-112.039
-113.053
-107.89
-104.165
-104.555
-106.605
-108.224
-106.961
-102.222
-95.496
-87.987
-80.555
-73.967
-68.75
-65.145
-63.22
-62.844
-63.69
-65.512
-68.17
-71.436
-75.055
-78.836
-82.56
-86.062
-89.223
-91.879
-93.9
-95.218
-95.786
-95.6
-94.689
-93.082
-90.834
-88.017
-84.699
-80.946
-76.825
-72.393
-67.724
-62.897
-57.987
-53.07
-48.199
-43.403
-38.704
-34.107
-29.608
-25.194
-20.843
-16.525
-12.219
-7.908
-3.577
0.788
5.204
9.687
14.257
18.928
23.713
28.621
33.66
38.834
44.142
49.583
55.148
60.831
66.622
72.514
78.497
84.562
90.697
96.889
103.124
109.385
115.656
121.917
128.146
134.321
140.419
146.416
152.289
158.012
163.56
168.909
174.034
178.909
183.511
187.814
191.796
195.435
198.71
201.6
204.089
206.161
207.802
209.002
209.752
210.046
209.88
209.253
208.166
206.622
204.629
202.193
199.325
196.038
192.347
188.269
183.821
179.026
173.903
168.478
162.773
156.815
150.629
144.244
137.685
130.982
124.163
117.257
110.291
103.294
96.295
89.318
82.391
75.538
68.782
62.145
55.648
49.308
43.144
37.169
31.398
25.842
20.513
15.417
10.563
5.956
1.599
-2.505
-6.355
-9.951
-13.295
-16.391
-19.24
-21.85
-24.224
-26.372
-28.299
-30.016
-31.532
-32.857
-34.001
-34.978
-35.797
-36.471
-37.011
-37.429
-37.737
-37.945
-38.064
-38.104
-38.075
-37.986
-37.846
-37.664
-37.446
-37.2
-36.934
-36.653
-36.365
-36.073
-35.785
-35.503
-35.234
-34.981
-34.748
-34.537
-34.353
-34.197
-34.071
-33.977
-33.916
-33.887
-33.892
-33.93
-33.999
-34.101
-34.233
-34.395
-34.586
-34.805
-35.052
-35.326
-35.627
-35.954
-36.307
-36.686
-37.091
-37.521
-37.977
-38.457
-38.962
-39.491
-40.042
-40.617
-41.213
-41.83
-42.467
-43.122
-43.795
-44.484
-45.189
-45.908
-46.64
-47.384
-48.139
-48.903
-49.676
-50.457
-51.242
-52.032
-52.822
-53.612
-54.397
-55.174
-55.939
-56.688
-57.416
-58.117
-58.786
-59.417
-60.003
-60.54
-61.02
-61.438
-61.786
-62.059
-62.25
-62.353
-62.363
-62.273
-62.079
-61.773
-61.352
-60.811
-60.147
-59.354
-58.431
-57.375
-56.183
-54.857
-53.395
-51.798
-50.069
-48.211
-46.229
-44.129
-41.92
-39.609
-37.208
-34.732
-32.197
-29.62
-27.019
-24.413
-21.823
-19.271
-16.777
-14.361
-12.042
-9.839
-7.771
-5.862
-4.133
-2.605
-1.297
-0.227
0.588
1.131
1.39
1.362
1.042
0.427
-0.492
-1.733
-3.313
-5.238
-7.512
-10.134
-13.092
-16.372
-19.946
-23.763
-27.771
-31.92
-36.159
-40.457
-44.776
-49.065
-53.263
-57.286
-61.054
-64.508
-67.596
-70.268
-72.509
-74.323
-75.761
-76.929
-77.917
-78.817
-79.728
-80.744
-81.994
-83.607
-85.68
-88.35
-91.802
-96.149
-101.429
-107.478
-113.819
-119.964
-125.481
-129.843
-132.495
-132.957
-130.918
-126.797
-121.799
-117.13
-113.678
-112.237
-113.501
-118.132
-126.729
-136.879
-143.306
-141.797
-128.61
-105.135
-77.955
-47.279
-9.85
42.226
123.817
238.508
381.787
545.286
710.262
862.586
990.177
1077.53
1113.778
1089.531
1002.122
859.136
675.476
471.046
265.425
77.872
-76.856
-189.894
-257.903
-287.669
-289.429
-273.801
-251.654
-226.961
-202.063
-179.298
-156.473
-134.404
-114.564
-96.802
-85.224
-81.643
-84.997
-94.469
-106.409
-117.666
-126.971
-133.142
-135.752
-134.894
-130.712
-123.882
-115.552
-106.868
-98.932
-92.465
-87.851
-85.285
-84.692
-85.848
-88.39
-91.789
-95.424
-98.835
-101.703
-103.839
-105.214
-105.805
-105.588
-104.607
-102.94
-100.661
-97.843
-94.53
-90.734
-86.49
-81.853
-76.899
-71.726
-66.423
-61.068
-55.719
-50.412
-45.175
-40.022
-34.959
-29.978
-25.06
-20.183
-15.329
-10.49
-5.655
-0.812
4.055
8.968
13.943
18.995
24.133
29.361
34.684
40.104
45.618
51.219
56.899
62.647
68.452
74.306
80.199
86.119
92.054
97.988
103.907
109.795
115.635
121.408
127.093
132.67
138.115
143.407
148.524
153.443
158.141
162.595
166.784
170.685
174.279
177.545
180.464
183.019
185.194
186.973
188.344
189.296
189.819
189.907
189.556
188.763
187.528
185.853
183.744
181.206
178.25
174.885
171.126
166.986
162.484
157.637
152.467
146.995
141.246
135.242
129.011
122.578
115.971
109.216
102.342
95.377
88.347
81.282
74.207
67.151
60.138
53.194
46.344
39.609
33.011
26.57
20.304
14.23
8.361
2.711
-2.709
-7.891
-12.827
-17.511
-21.94
-26.113
-30.027
-33.685
-37.088
-40.24
-43.146
-45.812
-48.244
-50.45
-52.44
-54.222
-55.808
-57.207
-58.432
-59.495
-60.409
-61.185
-61.836
-62.377
-62.818
-63.173
-63.454
-63.672
-63.839
-63.965
-64.059
-64.132
-64.19
-64.241
-64.291
-64.345
-64.409
-64.485
-64.578
-64.69
-64.824
-64.981
-65.163
-65.372
-65.607
-65.871
-66.162
-66.481
-66.828
-67.201
-67.599
-68.021
-68.466
-68.932
-69.416
-69.917
-70.432
-70.959
-71.496
-72.041
-72.591
-73.144
-73.699
-74.255
-74.811
-75.367
-75.922
-76.478
-77.035
-77.594
-78.157
-78.724
-79.297
-79.877
-80.463
-81.057
-81.659
-82.27
-82.889
-83.517
-84.152
-84.796
-85.447
-86.104
-86.767
-87.433
-88.102
-88.773
-89.443
-90.111
-90.775
-91.434
-92.085
-92.727
-93.356
-93.969
-94.563
-95.132
-95.673
-96.179
-96.645
-97.064
-97.431
-97.739
-97.983
-98.156
-98.253
-98.268
-98.196
-98.033
-97.772
-97.411
-96.945
-96.37
-95.685
-94.888
-93.977
-92.953
-91.815
-90.565
-89.203
-87.732
-86.156
-84.476
-82.698
-80.827
-78.868
-76.831
-74.722
-72.553
-70.336
-68.087
-65.821
-63.556
-61.311
-59.104
-56.956
-54.887
-52.915
-51.056
-49.326
-47.741
-46.317
-45.072
-44.023
-43.184
-42.568
-42.185
-42.044
-42.155
-42.522
-43.14
-44.007
-45.12
-46.485
-48.121
-50.043
-52.255
-54.759
-57.551
-60.619
-63.951
-67.519
-71.272
-75.158
-79.121
-83.112
-87.103
-91.054
-94.908
-98.593
-102.012
-105.076
-107.726
-109.91
-111.592
-112.755
-113.41
-113.604
-113.434
-113.014
-112.459
-111.894
-111.447
-111.241
-111.395
-112.085
-113.547
-115.963
-119.401
-123.701
-128.436
-133.147
-137.439
-140.84
-142.765
-142.687
-140.313
-136.11
-131.37
-127.458
-125.457
-126.292
-130.687
-139.311
-152.695
-168.471
-181.564
-187.517
-181.683
-163.822
-138.679
-105.879
-63.459
-6.383
77.475
191.249
332.74
497.137
667.918
830.07
967.626
1060.939
1097.827
1070.185
978.609
834.295
652.22
450.567
247.667
60.291
-95.907
-207.988
-270.898
-287.362
-266.577
-225.111
-178.203
-139.387
-118.782
-116.431
-127.622
-142.68
-151.938
-153.109
-148.346
-143.327
-142.312
-144.777
-147.999
-148.803
-145.97
-140.325
-133.194
-125.763
-118.689
-112.434
-107.598
-104.555
-103.318
-103.704
-105.371
-108.039
-111.537
-115.642
-120.09
-124.629
-129.029
-133.102
-136.692
-139.667
-141.929
-143.415
-144.099
-143.979
-143.084
-141.463
-139.186
-136.325
-132.946
-129.109
-124.873
-120.31
-115.505
-110.541
-105.502
-100.445
-95.407
-90.412
-85.474
-80.597
-75.772
-70.979
-66.19
-61.385
-56.552
-51.68
-46.762
-41.788
-36.744
-31.618
-26.4
-21.084
-15.666
-10.146
-4.523
1.198
7.008
12.897
18.851
24.857
30.904
36.981
43.076
49.174
55.262
61.325
67.347
73.311
79.198
84.989
90.662
96.197
101.573
106.77
111.765
116.539
121.071
125.341
129.331
133.021
136.393
139.43
142.117
144.438
146.381
147.933
149.084
149.826
150.154
150.062
149.549
148.616
147.263
145.496
143.32
140.744
137.778
134.434
130.725
126.668
122.279
117.577
112.584
107.32
101.808
96.072
90.137
84.027
77.767
71.384
64.902
58.349
51.749
45.129
38.514
31.929
25.399
18.947
12.595
6.364
0.276
-5.652
-11.402
-16.959
-22.307
-27.436
-32.332
-36.988
-41.394
-45.546
-49.436
-53.064
-56.425
-59.521
-62.352
-64.92
-67.228
-69.28
-71.083
-72.642
-73.964
-75.057
-75.931
-76.595
-77.059
-77.333
-77.43
-77.361
-77.139
-76.774
-76.281
-75.67
-74.955
-74.147
-73.257
-72.299
-71.281
-70.214
-69.108
-67.974
-66.818
-65.649
-64.476
-63.304
-62.14
-60.99
-59.859
-58.751
-57.672
-56.625
-55.613
-54.639
-53.706
-52.815
-51.969
-51.169
-50.415
-49.709
-49.049
-48.436
-47.869
-47.346
-46.868
-46.431
-46.036
-45.679
-45.361
-45.077
-44.828
-44.61
-44.424
-44.266
-44.135
-44.031
-43.951
-43.896
-43.865
-43.856
-43.869
-43.903
-43.959
-44.035
-44.131
-44.247
-44.382
-44.534
-44.705
-44.892
-45.096
-45.316
-45.55
-45.797
-46.057
-46.328
-46.608
-46.897
-47.192
-47.492
-47.795
-48.099
-48.404
-48.705
-49.001
-49.29
-49.568
-49.831
-50.077
-50.3
-50.497
-50.661
-50.789
-50.875
-50.914
-50.901
-50.829
-50.693
-50.488
-50.209
-49.85
-49.405
-48.871
-48.243
-47.518
-46.692
-45.764
-44.731
-43.592
-42.346
-40.994
-39.536
-37.974
-36.308
-34.542
-32.681
-30.727
-28.686
-26.566
-24.376
-22.125
-19.828
-17.498
-15.15
-12.801
-10.469
-8.172
-5.929
-3.754
-1.665
0.322
2.192
3.925
5.504
6.911
8.127
9.137
9.925
10.479
10.787
10.845
10.65
10.201
9.492
8.504
7.224
5.639
3.741
1.527
-0.997
-3.813
-6.889
-10.176
-13.615
-17.148
-20.721
-24.29
-27.809
-31.233
-34.499
-37.528
-40.244
-42.581
-44.484
-45.908
-46.834
-47.295
-47.366
-47.186
-46.903
-46.633
-46.493
-46.616
-47.149
-48.241
-50.045
-52.661
-56.207
-60.919
-66.907
-74.085
-82.132
-90.386
-98.127
-104.821
-109.864
-112.402
-111.913
-108.407
-102.541
-95.874
-89.847
-85.349
-83.248
-84.581
-90.064
-98.011
-104.284
-104.306
-93.255
-71.089
-42.369
-6.427
38.805
98.847
186.209
303.227
446.804
612.115
783.407
946.764
1087.646
1186.837
1229.718
1205.617
1112.806
959.071
761.032
543.531
330.842
148.858
16.212
-65.546
-103.01
-112.823
-111.342
-101.318
-82.447
-54.19
-20.634
5.237
13.516
3.579
-16.355
-34.599
-43.844
-44.071
-40.79
-38.197
-36.917
-35.66
-31.95
-25.128
-16.443
-7.082
1.856
9.607
15.829
20.29
22.921
23.914
23.605
22.279
20.126
17.345
14.148
10.727
7.314
4.095
1.219
-1.141
-2.855
-3.843
-4.054
-3.476
-2.136
-0.068
2.675
6.012
9.875
14.198
18.909
23.949
29.239
34.697
40.244
45.805
51.328
56.785
62.157
67.44
72.643
77.782
82.88
87.968
93.069
98.201
103.38
108.619
113.932
119.338
124.852
130.487
136.255
142.16
148.208
154.399
160.731
167.197
173.789
180.496
187.307
194.211
201.197
208.253
215.363
222.511
229.68
236.851
244.002
251.109
258.148
265.092
271.913
278.584
285.075
291.359
297.406
303.188
308.676
313.844
318.665
323.113
327.164
330.795
333.985
336.716
338.969
340.73
341.986
342.727
342.946
342.638
341.802
340.437
338.547
336.138
333.22
329.803
325.902
321.533
316.715
311.471
305.824
299.801
293.429
286.737
279.758
272.522
265.063
257.413
249.607
241.678
233.66
225.587
217.49
209.403
201.356
193.38
185.503
177.752
170.154
162.731
155.505
148.497
141.724
135.202
128.944
122.961
117.264
111.858
106.749
101.939
97.428
93.215
89.296
85.665
82.314
79.235
76.416
73.846
71.51
69.396
67.487
65.767
64.221
62.832
61.582
60.454
59.43
58.496
57.632
56.825
56.058
55.318
54.59
53.861
53.121
52.358
51.562
50.726
49.841
48.903
47.905
46.845
45.721
44.531
43.277
41.96
40.584
39.151
37.668
36.139
34.572
32.975
31.355
29.721
28.082
26.447
24.826
23.228
21.663
20.139
18.667
17.253
15.907
14.635
13.444
12.339
11.327
10.412
9.596
8.884
8.276
7.774
7.377
7.083
6.89
6.794
6.789
6.87
7.029
7.258
7.548
7.888
8.268
8.676
9.098
9.522
9.934
10.319
10.663
10.951
11.168
11.301
11.334
11.254
11.048
10.701
10.203
9.54
8.701
7.676
6.454
5.027
3.386
1.523
-0.566
-2.886
-5.441
-8.232
-11.259
-14.523
-18.019
-21.747
-25.699
-29.872
-34.257
-38.846
-43.629
-48.595
-53.733
-59.028
-64.468
-70.037
-75.722
-81.506
-87.376
-93.315
-99.308
-105.339
-111.395
-117.46
-123.518
-129.556
-135.558
-141.513
-147.407
-153.229
-158.967
-164.614
-170.165
-175.614
-180.96
-186.202
-191.339
-196.375
-201.312
-206.154
-210.902
-215.559
-220.129
-224.616
-229.028
-233.375
-237.666
-241.909
-246.114
-250.288
-254.44
-258.576
-262.696
-266.799
-270.885
-274.96
-279.042
-283.15
-287.299
-291.501
-295.763
-300.083
-304.457
-308.869
-313.281
-317.653
-321.939
-326.094
-330.09
-333.894
-337.466
-340.754
-343.681
-346.17
-348.164
-349.605
-350.457
-350.714
-350.384
-349.516
-348.218
-346.58
-344.726
-342.803
-340.938
-339.301
-338.072
-337.389
-337.485
-338.651
-341.053
-344.734
-349.497
-354.822
-360.179
-365.101
-368.937
-370.961
-370.645
-367.758
-362.892
-357.406
-352.702
-349.981
-350.209
-354.158
-362.251
-374.166
-387.929
-400.076
-406.591
-403.192
-386.06
-351.709
-296.725
-219.614
-122.206
-8.352
116.43
248.072
385.782
527.482
668.649
797.779
897.596
952.698
950.582
890.305
779.72
627.6
448.946
257.891
69.479
-93.713
-215.125
-287.64
-313.887
-311.247
-298.923
-287.317
-280.69
-275.821
-267.216
-255.68
-244.185
-235.614
-233.059
-236.184
-242.585
-250.279
-256.894
-260.326
-259.94
-255.811
-248.416
-238.847
-228.201
-217.314
-207.132
-198.577
-192.077
-187.761
-185.539
-185.057
-186.005
-188.144
-191.175
-194.796
-198.764
-202.835
-206.782
-210.416
-213.52
-215.924
-217.52
-218.231
-218.028
-216.914
-214.916
-212.093
-208.525
-204.285
-199.443
-194.07
-188.233
-182.015
-175.512
-168.816
-162.018
-155.183
-148.354
-141.561
-134.82
-128.131
-121.486
-114.865
-108.242
-101.599
-94.926
-88.214
-81.461
-74.657
-67.793
-60.86
-53.851
-46.764
-39.597
-32.352
-25.034
-17.651
-10.212
-2.732
4.773
12.29
19.805
27.305
34.777
42.208
49.581
56.882
64.095
71.201
78.183
85.02
91.691
98.176
104.455
110.506
116.311
121.849
127.102
132.052
136.681
140.974
144.914
148.488
151.683
154.486
156.888
158.879
160.452
161.601
162.324
162.618
162.486
161.928
160.951
159.561
157.767
155.578
153.008
150.07
146.78
143.157
139.218
134.986
130.482
125.73
120.754
115.579
110.231
104.735
99.117
93.402
87.616
81.784
75.931
70.08
64.258
58.485
52.785
47.179
41.687
36.328
31.119
26.076
21.213
16.544
12.078
7.826
3.796
-0.007
-3.577
-6.911
-10.008
-12.867
-15.491
-17.882
-20.045
-21.986
-23.711
-25.227
-26.544
-27.671
-28.617
-29.393
-30.008
-30.475
-30.805
-31.008
-31.098
-31.085
-30.982
-30.801
-30.552
-30.246
-29.895
-29.507
-29.093
-28.662
-28.22
-27.776
-27.337
-26.91
-26.499
-26.11
-25.746
-25.411
-25.108
-24.838
-24.603
-24.402
-24.236
-24.104
-24.006
-23.94
-23.906
-23.901
-23.923
-23.972
-24.044
-24.139
-24.252
-24.384
-24.53
-24.691
-24.862
-25.045
-25.236
-25.436
-25.643
-25.858
-26.08
-26.309
-26.545
-26.789
-27.041
-27.302
-27.573
-27.856
-28.151
-28.461
-28.787
-29.132
-29.497
-29.885
-30.297
-30.734
-31.199
-31.692
-32.214
-32.766
-33.348
-33.961
-34.603
-35.275
-35.974
-36.699
-37.448
-38.216
-38.999
-39.795
-40.596
-41.399
-42.197
-42.984
-43.753
-44.498
-45.213
-45.889
-46.521
-47.099
-47.618
-48.068
-48.443
-48.734
-48.933
-49.033
-49.026
-48.905
-48.665
-48.298
-47.799
-47.163
-46.384
-45.461
-44.389
-43.166
-41.791
-40.264
-38.586
-36.759
-34.788
-32.678
-30.434
-28.064
-25.577
-22.983
-20.292
-17.515
-14.664
-11.752
-8.795
-5.806
-2.802
0.201
3.183
6.122
8.998
11.787
14.467
17.013
19.401
21.609
23.615
25.4
26.946
28.238
29.257
29.985
30.406
30.506
30.276
29.705
28.787
27.516
25.892
23.927
21.628
19.005
16.057
12.772
9.143
5.172
0.864
-3.769
-8.708
-13.934
-19.406
-25.063
-30.838
-36.664
-42.484
-48.257
-53.935
-59.452
-64.725
-69.649
-74.132
-78.103
-81.506
-84.302
-86.477
-88.042
-89.059
-89.632
-89.89
-89.975
-90.019
-90.142
-90.467
-91.102
-92.228
-94.136
-97.027
-100.95
-105.777
-111.145
-116.635
-121.907
-126.443
-129.45
-130.257
-128.582
-124.751
-119.715
-114.759
-111.072
-109.614
-111.769
-117.828
-125.977
-133.929
-138.626
-138.904
-137.719
-135.976
-130.15
-111.271
-64.389
19.989
141.195
290.278
451.59
613.356
770.263
917.416
1046.724
1143.681
1189.107
1168.871
1081.25
935.111
748.255
541.325
332.105
137.471
-27.819
-151.969
-229.331
-261.149
-254.876
-224.535
-182.945
-142.635
-113.384
-96.175
-88.491
-83.404
-74.238
-60.87
-46.74
-37.748
-37.765
-45.883
-58.821
-72.395
-83.736
-91.943
-96.692
-98.009
-96.104
-91.448
-85.002
-77.943
-71.463
-66.329
-62.966
-61.635
-62.306
-64.783
-68.736
-73.617
-78.759
-83.679
-88.038
-91.628
-94.416
-96.369
-97.455
-97.713
-97.218
-96.037
-94.238
-91.86
-88.91
-85.418
-81.439
-77.049
-72.348
-67.43
-62.377
-57.25
-52.088
-46.922
-41.769
-36.638
-31.524
-26.414
-21.286
-16.126
-10.929
-5.686
-0.39
4.976
10.431
15.99
21.667
27.47
33.4
39.461
45.652
51.969
58.403
64.942
71.575
78.287
85.07
91.911
98.795
105.71
112.637
119.561
126.463
133.324
140.123
146.838
153.444
159.918
166.233
172.366
178.29
183.978
189.406
194.547
199.376
203.87
208.005
211.757
215.108
218.036
220.524
222.556
224.118
225.198
225.786
225.876
225.464
224.547
223.126
221.205
218.789
215.887
212.509
208.668
204.379
199.66
194.53
189.012
183.128
176.906
170.372
163.555
156.485
149.192
141.709
134.067
126.299
118.436
110.51
102.555
94.601
86.679
78.82
71.051
63.402
55.898
48.565
41.425
34.502
27.814
21.38
15.215
9.334
3.75
-1.528
-6.489
-11.128
-15.438
-19.418
-23.064
-26.378
-29.362
-32.018
-34.351
-36.369
-38.077
-39.485
-40.601
-41.436
-42
-42.305
-42.362
-42.185
-41.786
-41.178
-40.375
-39.389
-38.235
-36.926
-35.476
-33.896
-32.201
-30.403
-28.515
-26.549
-24.516
-22.429
-20.299
-18.136
-15.951
-13.753
-11.553
-9.36
-7.181
-5.026
-2.9
-0.812
1.231
3.224
5.16
7.033
8.838
10.569
12.222
13.792
15.274
16.664
17.959
19.156
20.25
21.239
22.12
22.892
23.552
24.099
24.532
24.85
25.054
25.144
25.121
24.985
24.739
24.385
23.924
23.36
22.695
21.932
21.074
20.125
19.089
17.97
16.772
15.498
14.155
12.747
11.279
9.757
8.185
6.57
4.918
3.234
1.525
-0.203
-1.943
-3.689
-5.433
-7.17
-8.894
-10.596
-12.273
-13.917
-15.523
-17.086
-18.601
-20.062
-21.465
-22.804
-24.075
-25.273
-26.393
-27.43
-28.38
-29.238
-30
-30.662
-31.221
-31.672
-32.012
-32.239
-32.351
-32.343
-32.216
-31.967
-31.595
-31.103
-30.49
-29.758
-28.91
-27.949
-26.879
-25.705
-24.433
-23.067
-21.614
-20.08
-18.475
-16.805
-15.08
-13.311
-11.51
-9.692
-7.875
-6.073
-4.306
-2.591
-0.947
0.606
2.053
3.379
4.571
5.614
6.493
7.192
7.693
7.986
8.057
7.896
7.494
6.842
5.937
4.785
3.389
1.75
-0.138
-2.296
-4.739
-7.472
-10.498
-13.81
-17.394
-21.236
-25.301
-29.527
-33.854
-38.217
-42.56
-46.844
-51.02
-55.022
-58.773
-62.176
-65.146
-67.628
-69.575
-70.962
-71.793
-72.099
-71.955
-71.48
-70.819
-70.123
-69.56
-69.304
-69.512
-70.321
-71.928
-74.598
-78.496
-83.649
-89.844
-96.565
-103.318
-109.736
-115.282
-119.239
-121.07
-120.512
-118.031
-114.975
-112.529
-111.363
-112.338
-116.402
-123.932
-134.94
-146.881
-154.423
-154.408
-144.898
-125.246
-97.781
-58.646
-0.687
79.435
185.925
313.93
452.233
595.06
734.006
862.613
973.696
1051.576
1082.587
1056.296
972.081
840.781
673.794
486.085
291.396
101.571
-64.391
-190.331
-269.258
-299.722
-290.755
-258.39
-213.251
-166.788
-131.507
-109.967
-103.238
-107.263
-109.718
-106.207
-97.174
-85.316
-78.433
-79.525
-86.785
-98.131
-109.986
-119.668
-126.537
-130.346
-131.105
-129.208
-125.253
-119.769
-113.516
-107.661
-103.01
-99.973
-98.818
-99.402
-101.392
-104.541
-108.393
-112.308
-115.839
-118.706
-120.751
-122.012
-122.531
-122.296
-121.365
-119.83
-117.763
-115.232
-112.273
-108.887
-105.106
-100.996
-96.639
-92.131
-87.561
-82.984
-78.438
-73.95
-69.536
-65.202
-60.946
-56.751
-52.598
-48.472
-44.364
-40.268
-36.174
-32.068
-27.931
-23.742
-19.484
-15.144
-10.713
-6.187
-1.56
3.168
7.994
12.912
17.914
22.994
28.146
33.363
38.637
43.96
49.321
54.707
60.107
65.505
70.886
76.231
81.521
86.736
91.855
96.856
101.717
106.415
110.927
115.229
119.299
123.113
126.649
129.885
132.8
135.374
137.588
139.425
140.869
141.907
142.527
142.72
142.479
141.798
140.675
139.11
137.104
134.661
131.788
128.492
124.784
120.676
116.183
111.321
106.11
100.569
94.721
88.59
82.2
75.577
68.748
61.74
54.582
47.302
39.93
32.493
25.021
17.542
10.084
2.674
-4.663
-11.901
-19.018
-25.991
-32.801
-39.429
-45.859
-52.075
-58.064
-63.815
-69.317
-74.562
-79.543
-84.256
-88.697
-92.864
-96.756
-100.375
-103.724
-106.806
-109.626
-112.19
-114.506
-116.58
-118.423
-120.042
-121.449
-122.652
-123.665
-124.496
-125.158
-125.662
-126.018
-126.237
-126.329
-126.303
-126.169
-125.934
-125.605
-125.19
-124.695
-124.124
-123.484
-122.777
-122.007
-121.179
-120.293
-119.353
-118.36
-117.315
-116.219
-115.072
-113.875
-112.628
-111.331
-109.984
-108.587
-107.14
-105.643
-104.098
-102.504
-100.862
-99.173
-97.439
-95.661
-93.842
-91.984
-90.091
-88.166
-86.215
-84.243
-82.255
-80.258
-78.258
-76.263
-74.28
-72.316
-70.38
-68.48
-66.625
-64.822
-63.081
-61.41
-59.818
-58.314
-56.906
-55.601
-54.406
-53.328
-52.374
-51.548
-50.855
-50.299
-49.884
-49.612
-49.484
-49.503
-49.666
-49.974
-50.423
-51.01
-51.732
-52.582
-53.554
-54.641
-55.834
-57.124
-58.503
-59.959
-61.481
-63.057
-64.674
-66.318
-67.975
-69.629
-71.265
-72.866
-74.418
-75.904
-77.308
-78.616
-79.812
-80.882
-81.811
-82.586
-83.195
-83.626
-83.869
-83.912
-83.748
-83.37
-82.772
-81.95
-80.902
-79.625
-78.12
-76.389
-74.435
-72.264
-69.88
-67.291
-64.508
-61.542
-58.406
-55.116
-51.688
-48.145
-44.509
-40.805
-37.057
-33.294
-29.541
-25.827
-22.18
-18.624
-15.184
-11.883
-8.745
-5.797
-3.064
-0.568
1.669
3.629
5.296
6.654
7.69
8.404
8.795
8.86
8.593
7.979
7.002
5.66
3.953
1.886
-0.525
-3.261
-6.288
-9.549
-12.987
-16.545
-20.169
-23.824
-27.469
-31.04
-34.467
-37.661
-40.535
-43.041
-45.125
-46.734
-47.855
-48.505
-48.743
-48.691
-48.441
-48.064
-47.658
-47.327
-47.194
-47.411
-48.078
-49.326
-51.371
-54.327
-58.182
-62.724
-67.458
-71.844
-75.441
-77.711
-77.984
-75.773
-70.982
-64.266
-56.876
-49.995
-44.661
-41.726
-42.153
-47.101
-55.564
-63.714
-67.755
-63.771
-51.591
-35.66
-15.512
13.347
59.385
134.288
240.741
373.039
521.17
673.443
821.923
958.161
1070.715
1143.392
1157.778
1106.323
991.932
827.051
634.184
432.315
238.774
72.487
-55.555
-139.505
-179.979
-187.945
-174.707
-148.134
-116.311
-85.897
-62.62
-52.636
-55.844
-64.743
-72.826
-76.273
-75.259
-75.41
-79.589
-86.004
-92.516
-96.474
-96.608
-93.963
-89.392
-83.014
-75.602
-68.503
-62.532
-58.243
-55.813
-54.811
-55.095
-56.917
-60.114
-64.186
-68.747
-73.365
-77.759
-81.905
-85.639
-88.734
-91.091
-92.668
-93.466
-93.552
-92.962
-91.706
-89.836
-87.403
-84.465
-81.098
-77.364
-73.335
-69.094
-64.721
-60.296
-55.876
-51.498
-47.187
-42.953
-38.794
-34.696
-30.637
-26.589
-22.532
-18.45
-14.324
-10.139
-5.877
-1.52
2.946
7.536
12.261
17.127
22.141
27.303
32.611
38.058
43.637
49.336
55.145
61.054
67.049
73.118
79.248
85.422
91.625
97.839
104.043
110.217
116.338
122.38
128.32
134.133
139.792
145.271
150.545
155.588
160.377
164.886
169.093
172.974
176.511
179.682
182.47
184.86
186.835
188.385
189.499
190.169
190.39
190.159
189.476
188.342
186.762
184.742
182.291
179.42
176.141
172.47
168.422
164.017
159.275
154.218
148.87
143.255
137.399
131.329
125.07
118.65
112.096
105.435
98.693
91.897
85.072
78.244
71.436
64.672
57.974
51.362
44.857
38.476
32.235
26.15
20.233
14.496
8.951
3.604
-1.536
-6.463
-11.173
-15.663
-19.929
-23.972
-27.792
-31.391
-34.77
-37.934
-40.887
-43.635
-46.182
-48.535
-50.702
-52.688
-54.501
-56.148
-57.636
-58.974
-60.168
-61.225
-62.153
-62.959
-63.649
-64.228
-64.703
-65.079
-65.36
-65.552
-65.658
-65.683
-65.631
-65.504
-65.308
-65.044
-64.716
-64.327
-63.879
-63.374
-62.816
-62.206
-61.545
-60.836
-60.079
-59.277
-58.432
-57.544
-56.615
-55.647
-54.642
-53.602
-52.529
-51.425
-50.292
-49.134
-47.954
-46.755
-45.54
-44.313
-43.078
-41.84
-40.602
-39.369
-38.145
-36.935
-35.742
-34.571
-33.425
-32.31
-31.229
-30.186
-29.186
-28.233
-27.331
-26.484
-25.697
-24.974
-24.319
-23.737
-23.231
-22.805
-22.461
-22.204
-22.035
-21.957
-21.971
-22.079
-22.282
-22.579
-22.971
-23.456
-24.032
-24.696
-25.447
-26.28
-27.191
-28.175
-29.227
-30.341
-31.511
-32.731
-33.993
-35.289
-36.612
-37.95
-39.296
-40.639
-41.968
-43.27
-44.535
-45.751
-46.906
-47.989
-48.987
-49.89
-50.686
-51.364
-51.915
-52.328
-52.594
-52.706
-52.654
-52.434
-52.04
-51.469
-50.719
-49.787
-48.674
-47.382
-45.914
-44.276
-42.471
-40.507
-38.392
-36.136
-33.752
-31.253
-28.654
-25.974
-23.235
-20.459
-17.672
-14.9
-12.169
-9.505
-6.932
-4.477
-2.164
-0.018
1.938
3.68
5.184
6.424
7.378
8.024
8.347
8.336
7.983
7.286
6.246
4.862
3.134
1.059
-1.372
-4.162
-7.305
-10.8
-14.635
-18.785
-23.217
-27.884
-32.725
-37.689
-42.727
-47.787
-52.831
-57.805
-62.634
-67.255
-71.594
-75.591
-79.23
-82.485
-85.3
-87.66
-89.577
-91.097
-92.368
-93.487
-94.405
-95.135
-95.843
-96.86
-98.627
-101.413
-105.165
-109.778
-115.413
-122.247
-129.743
-136.454
-140.838
-141.609
-139.219
-135.759
-130.896
-123.297
-110.992
-90.92
-67.064
-47.572
-39.877
-51.859
-81.08
-117.173
-150.611
-172.875
-184.377
-188.729
-184.532
-163.25
-109.047
-13.878
119.976
278.856
441.618
597.817
743.033
875.505
992.056
1079.302
1122
1107.347
1032.587
904.491
732.291
533.017
322.925
119.121
-55.085
-186.783
-271.063
-309.435
-315.815
-301.121
-272.964
-240.293
-206.657
-176.527
-152.153
-129.833
-107.575
-83.389
-59.368
-42.283
-35.194
-39.409
-53.672
-73.071
-94.734
-116.551
-135.546
-150.514
-160.919
-166.166
-166.852
-164.057
-158.498
-151.446
-144.711
-139.316
-135.795
-134.423
-134.852
-136.658
-139.561
-142.989
-146.204
-148.789
-150.519
-151.317
-151.335
-150.652
-149.282
-147.317
-144.862
-141.988
-138.75
-135.169
-131.232
-126.978
-122.475
-117.801
-113.045
-108.261
-103.478
-98.72
-93.999
-89.324
-84.695
-80.103
-75.535
-70.98
-66.431
-61.882
-57.327
-52.749
-48.13
-43.449
-38.683
-33.818
-28.843
-23.749
-18.532
-13.191
-7.727
-2.145
3.551
9.353
15.256
21.254
27.338
33.5
39.728
46.007
52.324
58.662
65.002
71.323
77.604
83.822
89.952
95.969
101.847
107.557
113.073
118.366
123.407
128.169
132.624
136.744
140.504
143.879
146.848
149.388
151.483
153.115
154.272
154.943
155.12
154.798
153.976
152.652
150.831
148.518
145.722
142.453
138.725
134.554
129.959
124.962
119.585
113.854
107.798
101.447
94.832
87.987
80.946
73.745
66.421
59.011
51.552
44.081
36.638
29.257
21.975
14.826
7.843
1.058
-5.501
-11.805
-17.829
-23.551
-28.949
-34.006
-38.706
-43.035
-46.981
-50.537
-53.696
-56.453
-58.809
-60.762
-62.317
-63.479
-64.257
-64.66
-64.7
-64.393
-63.754
-62.801
-61.555
-60.036
-58.267
-56.271
-54.074
-51.698
-49.171
-46.518
-43.763
-40.932
-38.05
-35.141
-32.228
-29.333
-26.479
-23.684
-20.968
-18.35
-15.845
-13.469
-11.236
-9.158
-7.247
-5.511
-3.959
-2.597
-1.429
-0.46
0.311
0.883
1.257
1.438
1.428
1.235
0.865
0.325
-0.373
-1.222
-2.21
-3.326
-4.558
-5.894
-7.322
-8.831
-10.407
-12.04
-13.717
-15.427
-17.16
-18.905
-20.652
-22.393
-24.119
-25.821
-27.493
-29.129
-30.724
-32.273
-33.773
-35.221
-36.616
-37.957
-39.245
-40.481
-41.667
-42.805
-43.9
-44.953
-45.971
-46.958
-47.919
-48.859
-49.784
-50.7
-51.611
-52.524
-53.443
-54.372
-55.316
-56.279
-57.262
-58.27
-59.304
-60.365
-61.453
-62.57
-63.713
-64.881
-66.071
-67.28
-68.504
-69.737
-70.973
-72.204
-73.423
-74.62
-75.787
-76.913
-77.989
-79.004
-79.948
-80.809
-81.577
-82.242
-82.794
-83.222
-83.516
-83.667
-83.668
-83.511
-83.191
-82.702
-82.04
-81.203
-80.187
-78.995
-77.626
-76.081
-74.365
-72.483
-70.44
-68.245
-65.907
-63.438
-60.852
-58.168
-55.404
-52.581
-49.722
-46.85
-43.989
-41.164
-38.397
-35.71
-33.121
-30.653
-28.325
-26.162
-24.187
-22.417
-20.872
-19.568
-18.521
-17.745
-17.251
-17.036
-17.102
-17.453
-18.099
-19.065
-20.369
-22.021
-24.026
-26.38
-29.071
-32.085
-35.385
-38.912
-42.599
-46.381
-50.197
-54.011
-57.772
-61.416
-64.861
-68.002
-70.748
-73.036
-74.814
-76.05
-76.742
-76.916
-76.649
-76.069
-75.324
-74.566
-73.958
-73.646
-73.771
-74.466
-75.9
-78.335
-81.974
-86.853
-92.777
-99.322
-106.01
-112.439
-118.108
-122.256
-124.185
-123.581
-120.899
-117.248
-113.771
-111.508
-111.32
-114.158
-121.232
-131.764
-142.102
-148.459
-146.723
-136.365
-121.631
-102.27
-74.309
-29.106
46.293
155.996
295.728
455.857
621.785
782.713
929.973
1051.688
1135.361
1167.576
1138.261
1048.387
906.92
727.869
528.736
326.496
138.503
-17.914
-128.129
-186.792
-199.851
-179.241
-144.254
-111.107
-86.832
-76.915
-77.973
-82.21
-86.57
-87.352
-85.214
-85.589
-90.238
-98.691
-108.884
-116.743
-120.403
-120.064
-116.362
-110.267
-102.464
-93.913
-85.72
-78.768
-73.633
-70.31
-68.582
-68.406
-69.733
-72.247
-75.589
-79.405
-83.371
-87.367
-91.294
-94.949
-98.112
-100.647
-102.475
-103.571
-103.956
-103.621
-102.564
-100.826
-98.474
-95.58
-92.218
-88.451
-84.333
-79.938
-75.346
-70.644
-65.916
-61.225
-56.607
-52.084
-47.666
-43.351
-39.13
-34.982
-30.879
-26.794
-22.708
-18.607
-14.477
-10.304
-6.069
-1.756
2.652
7.168
11.8
16.554
21.433
26.435
31.557
36.791
42.125
47.548
53.051
58.622
64.252
69.927
75.633
81.356
87.08
92.787
98.457
104.069
109.601
115.029
120.33
125.48
130.456
135.232
139.786
144.093
148.13
151.875
155.305
158.4
161.138
163.503
165.476
167.044
168.193
168.913
169.197
169.04
168.439
167.393
165.905
163.979
161.624
158.846
155.659
152.076
148.112
143.785
139.115
134.123
128.833
123.267
117.453
111.415
105.18
98.777
92.233
85.576
78.835
72.039
65.216
58.394
51.602
44.866
38.214
31.669
25.256
18.998
12.914
7.023
1.344
-4.109
-9.322
-14.283
-18.983
-23.412
-27.566
-31.439
-35.029
-38.336
-41.36
-44.102
-46.567
-48.759
-50.683
-52.346
-53.754
-54.916
-55.84
-56.536
-57.014
-57.285
-57.361
-57.254
-56.975
-56.538
-55.955
-55.238
-54.4
-53.454
-52.411
-51.283
-50.082
-48.818
-47.503
-46.145
-44.754
-43.338
-41.905
-40.461
-39.013
-37.566
-36.126
-34.696
-33.281
-31.884
-30.511
-29.163
-27.844
-26.558
-25.307
-24.095
-22.923
-21.795
-20.711
-19.675
-18.688
-17.752
-16.869
-16.039
-15.265
-14.547
-13.887
-13.285
-12.743
-12.26
-11.838
-11.477
-11.179
-10.943
-10.772
-10.666
-10.626
-10.653
-10.75
-10.917
-11.154
-11.463
-11.845
-12.298
-12.823
-13.42
-14.087
-14.824
-15.628
-16.499
-17.435
-18.432
-19.488
-20.6
-21.764
-22.979
-24.238
-25.54
-26.878
-28.25
-29.651
-31.076
-32.52
-33.979
-35.447
-36.919
-38.389
-39.851
-41.299
-42.728
-44.13
-45.498
-46.827
-48.109
-49.336
-50.502
-51.6
-52.624
-53.566
-54.421
-55.18
-55.84
-56.392
-56.833
-57.155
-57.354
-57.425
-57.364
-57.165
-56.826
-56.344
-55.717
-54.943
-54.021
-52.951
-51.735
-50.372
-48.867
-47.221
-45.44
-43.529
-41.496
-39.347
-37.093
-34.744
-32.315
-29.819
-27.273
-24.695
-22.102
-19.513
-16.949
-14.43
-11.973
-9.598
-7.324
-5.168
-3.151
-1.295
0.38
1.854
3.109
4.126
4.891
5.389
5.615
5.564
5.232
4.609
3.681
2.434
0.858
-1.052
-3.298
-5.873
-8.762
-11.936
-15.345
-18.942
-22.674
-26.498
-30.378
-34.273
-38.138
-41.915
-45.532
-48.921
-52.024
-54.785
-57.152
-59.103
-60.66
-61.888
-62.908
-63.827
-64.725
-65.692
-66.826
-68.23
-70.024
-72.319
-75.172
-78.725
-83.213
-88.724
-95.248
-102.571
-110.116
-117.304
-123.648
-128.425
-130.793
-130.331
-126.852
-120.666
-113.169
-105.794
-99.645
-96.417
-96.833
-99.376
-102.512
-104.113
-103.136
-103.123
-106.061
-108.769
-102.218
-70.172
0.382
111.433
254.922
415.341
578.833
737.945
887.299
1017.099
1111.272
1152.241
1127.032
1037.383
897.154
721.449
527.218
327.322
132.136
-40.458
-173.992
-258.974
-292.062
-283.248
-249.774
-205.756
-165.493
-137.544
-121.832
-115.829
-110.942
-99.421
-80.451
-57.074
-36.948
-25.538
-22.811
-26.62
-33.814
-42.626
-53.02
-64.367
-74.986
-83.603
-89.72
-93.405
-95.057
-94.91
-93.01
-89.952
-87.088
-85.361
-85.137
-86.444
-88.887
-92.109
-95.925
-99.965
-103.654
-106.62
-108.675
-109.758
-110.016
-109.57
-108.465
-106.786
-104.623
-102.031
-99.062
-95.76
-92.149
-88.288
-84.259
-80.118
-75.913
-71.68
-67.43
-63.173
-58.908
-54.616
-50.274
-45.868
-41.395
-36.856
-32.254
-27.582
-22.83
-17.987
-13.043
-7.989
-2.816
2.484
7.912
13.467
19.143
24.93
30.816
36.793
42.852
48.986
55.185
61.437
67.731
74.053
80.39
86.724
93.036
99.306
105.514
111.638
117.659
123.553
129.301
134.879
140.268
145.445
150.39
155.082
159.501
163.628
167.443
170.929
174.069
176.848
179.25
181.262
182.873
184.072
184.852
185.206
185.128
184.617
183.673
182.297
180.494
178.27
175.633
172.594
169.167
165.365
161.206
156.708
151.889
146.772
141.378
135.729
129.85
123.764
117.496
111.071
104.515
97.852
91.108
84.308
77.477
70.641
63.824
57.049
50.34
43.721
37.213
30.837
24.613
18.559
12.693
7.03
1.584
-3.632
-8.609
-13.337
-17.81
-22.02
-25.965
-29.642
-33.049
-36.187
-39.058
-41.663
-44.007
-46.094
-47.929
-49.52
-50.873
-51.995
-52.895
-53.581
-54.063
-54.35
-54.454
-54.385
-54.155
-53.776
-53.259
-52.617
-51.863
-51.008
-50.065
-49.045
-47.961
-46.822
-45.64
-44.424
-43.184
-41.928
-40.665
-39.403
-38.148
-36.906
-35.684
-34.487
-33.319
-32.184
-31.088
-30.033
-29.024
-28.063
-27.155
-26.301
-25.504
-24.766
-24.09
-23.476
-22.925
-22.438
-22.015
-21.657
-21.361
-21.129
-20.959
-20.85
-20.802
-20.813
-20.883
-21.009
-21.191
-21.428
-21.719
-22.064
-22.462
-22.912
-23.415
-23.971
-24.58
-25.241
-25.954
-26.719
-27.536
-28.404
-29.322
-30.29
-31.306
-32.369
-33.478
-34.633
-35.831
-37.07
-38.351
-39.669
-41.024
-42.413
-43.834
-45.283
-46.757
-48.254
-49.771
-51.302
-52.845
-54.394
-55.945
-57.492
-59.029
-60.55
-62.048
-63.514
-64.943
-66.327
-67.658
-68.93
-70.134
-71.264
-72.312
-73.271
-74.135
-74.897
-75.55
-76.088
-76.506
-76.799
-76.962
-76.992
-76.887
-76.645
-76.266
-75.75
-75.097
-74.312
-73.395
-72.353
-71.192
-69.918
-68.541
-67.071
-65.521
-63.906
-62.244
-60.554
-58.853
-57.163
-55.504
-53.898
-52.366
-50.924
-49.591
-48.386
-47.327
-46.437
-45.736
-45.244
-44.979
-44.957
-45.194
-45.703
-46.494
-47.567
-48.922
-50.56
-52.488
-54.723
-57.28
-60.162
-63.369
-66.897
-70.729
-74.845
-79.21
-83.767
-88.459
-93.229
-98.025
-102.812
-107.547
-112.176
-116.633
-120.829
-124.681
-128.13
-131.119
-133.602
-135.57
-137.037
-138.062
-138.757
-139.208
-139.506
-139.762
-140.089
-140.618
-141.484
-142.778
-144.634
-147.281
-150.857
-155.353
-160.532
-165.865
-170.83
-175.039
-178.016
-179.11
-177.79
-173.904
-168.094
-161.668
-155.815
-151.47
-149.367
-150.342
-155.504
-163.913
-171.596
-174.423
-168.322
-153.278
-134.513
-112.775
-84.149
-39.551
34.33
142.15
279.435
435.537
596.941
754.26
897.994
1017.079
1096.883
1119.387
1076.841
971.738
814.938
627.643
428.88
234.693
63.556
-70.957
-162.079
-207.315
-214.2
-198.028
-169.918
-141.831
-125.747
-123.143
-134.406
-155.115
-171.716
-178.016
-172.812
-157.91
-141.751
-128.83
-118.733
-110.537
-102.701
-95.353
-90.016
-87.772
-88.652
-91.663
-96.121
-101.545
-106.906
-111.415
-114.577
-115.995
-116.124
-115.944
-115.908
-116.301
-117.477
-119.422
-122.054
-125.287
-128.676
-131.66
-133.948
-135.366
-135.829
-135.433
-134.243
-132.302
-129.746
-126.703
-123.259
-119.485
-115.427
-111.114
-106.614
-102.007
-97.354
-92.706
-88.091
-83.516
-78.981
-74.472
-69.967
-65.438
-60.862
-56.227
-51.525
-46.753
-41.905
-36.975
-31.952
-26.826
-21.586
-16.223
-10.732
-5.112
0.633
6.495
12.462
18.524
24.667
30.881
37.156
43.48
49.843
56.23
62.629
69.024
75.397
81.728
87.997
94.181
100.258
106.207
112.003
117.625
123.049
128.254
133.216
137.916
142.331
146.442
150.231
153.678
156.769
159.489
161.823
163.761
165.294
166.413
167.113
167.39
167.243
166.673
165.681
164.272
162.454
160.235
157.626
154.639
151.29
147.596
143.574
139.244
134.629
129.75
124.631
119.297
113.772
108.082
102.253
96.31
90.279
84.185
78.055
71.912
65.78
59.682
53.641
47.679
41.814
36.068
30.456
24.997
19.706
14.595
9.678
4.966
0.467
-3.812
-7.865
-11.687
-15.276
-18.631
-21.752
-24.641
-27.301
-29.736
-31.951
-33.952
-35.746
-37.34
-38.743
-39.963
-41.01
-41.892
-42.62
-43.202
-43.649
-43.97
-44.175
-44.274
-44.277
-44.194
-44.035
-43.809
-43.526
-43.194
-42.822
-42.419
-41.991
-41.545
-41.086
-40.622
-40.154
-39.689
-39.229
-38.776
-38.333
-37.902
-37.484
-37.079
-36.69
-36.314
-35.954
-35.609
-35.28
-34.966
-34.669
-34.388
-34.123
-33.876
-33.646
-33.433
-33.237
-33.059
-32.897
-32.75
-32.618
-32.501
-32.398
-32.307
-32.23
-32.166
-32.114
-32.076
-32.053
-32.044
-32.053
-32.079
-32.126
-32.195
-32.288
-32.408
-32.556
-32.736
-32.948
-33.194
-33.477
-33.796
-34.152
-34.547
-34.979
-35.45
-35.958
-36.504
-37.088
-37.709
-38.366
-39.059
-39.788
-40.551
-41.347
-42.175
-43.032
-43.917
-44.827
-45.76
-46.711
-47.677
-48.654
-49.635
-50.616
-51.591
-52.552
-53.492
-54.405
-55.282
-56.117
-56.903
-57.632
-58.299
-58.894
-59.413
-59.849
-60.195
-60.445
-60.592
-60.631
-60.557
-60.363
-60.047
-59.605
-59.031
-58.325
-57.486
-56.511
-55.401
-54.158
-52.783
-51.279
-49.652
-47.907
-46.053
-44.098
-42.054
-39.935
-37.757
-35.537
-33.292
-31.041
-28.803
-26.599
-24.448
-22.366
-20.369
-18.477
-16.706
-15.077
-13.61
-12.323
-11.233
-10.357
-9.711
-9.308
-9.159
-9.267
-9.633
-10.26
-11.156
-12.339
-13.825
-15.619
-17.726
-20.144
-22.86
-25.858
-29.107
-32.551
-36.135
-39.8
-43.493
-47.174
-50.8
-54.312
-57.643
-60.708
-63.425
-65.738
-67.591
-68.935
-69.764
-70.093
-69.987
-69.571
-68.948
-68.226
-67.535
-67.003
-66.775
-66.998
-67.771
-69.229
-71.593
-75
-79.456
-84.768
-90.482
-96.126
-101.311
-105.52
-108.038
-108.25
-105.901
-101.444
-95.888
-90.167
-85.125
-81.59
-80.638
-83.634
-89.586
-94.504
-94.741
-86.507
-70.833
-54.45
-37.622
-16.626
18.646
86.476
193.319
336.697
507.393
683.341
848.914
992.151
1098.912
1164.562
1180.897
1139.557
1042.528
890.876
695.993
480.678
266.927
82.292
-53.206
-135.596
-168.701
-168.317
-151.466
-128.508
-108.174
-92.805
-83.618
-81.668
-83.473
-86.851
-89.065
-88.959
-89.826
-93.057
-98.874
-106.137
-111.271
-112.725
-110.793
-106.143
-100.221
-94.048
-88.055
-82.91
-79.287
-77.445
-77.374
-78.871
-81.582
-85.231
-89.629
-94.526
-99.654
-104.785
-109.706
-114.23
-118.199
-121.484
-123.993
-125.672
-126.502
-126.487
-125.662
-124.087
-121.84
-118.999
-115.632
-111.807
-107.586
-103.047
-98.277
-93.363
-88.391
-83.42
-78.487
-73.619
-68.828
-64.115
-59.47
-54.871
-50.286
-45.694
-41.077
-36.422
-31.718
-26.95
-22.102
-17.158
-12.105
-6.934
-1.636
3.791
9.351
15.041
20.856
26.787
32.823
38.953
45.169
51.458
57.81
64.211
70.647
77.102
83.558
89.998
96.399
102.74
108.995
115.141
121.153
127.005
132.672
138.128
143.349
148.309
152.985
157.352
161.389
165.075
168.39
171.315
173.834
175.933
177.598
178.818
179.586
179.896
179.743
179.126
178.046
176.506
174.512
172.072
169.196
165.897
162.188
158.087
153.612
148.785
143.627
138.163
132.417
126.416
120.186
113.756
107.154
100.406
93.542
86.589
79.575
72.528
65.474
58.439
51.449
44.527
37.698
30.984
24.404
17.979
11.728
5.665
-0.191
-5.829
-11.236
-16.399
-21.311
-25.962
-30.346
-34.459
-38.296
-41.855
-45.136
-48.14
-50.867
-53.322
-55.507
-57.428
-59.09
-60.5
-61.664
-62.591
-63.288
-63.764
-64.029
-64.091
-63.96
-63.648
-63.164
-62.518
-61.723
-60.787
-59.723
-58.541
-57.253
-55.87
-54.402
-52.862
-51.26
-49.607
-47.915
-46.194
-44.454
-42.706
-40.959
-39.221
-37.503
-35.811
-34.154
-32.538
-30.972
-29.461
-28.012
-26.631
-25.321
-24.088
-22.937
-21.87
-20.891
-20.002
-19.207
-18.506
-17.901
-17.394
-16.984
-16.672
-16.458
-16.34
-16.315
-16.383
-16.539
-16.781
-17.104
-17.505
-17.978
-18.52
-19.124
-19.787
-20.504
-21.268
-22.077
-22.923
-23.803
-24.712
-25.644
-26.596
-27.563
-28.541
-29.526
-30.513
-31.5
-32.483
-33.456
-34.417
-35.362
-36.286
-37.185
-38.055
-38.893
-39.694
-40.456
-41.176
-41.85
-42.476
-43.051
-43.574
-44.041
-44.451
-44.801
-45.089
-45.312
-45.468
-45.555
-45.57
-45.51
-45.373
-45.157
-44.859
-44.476
-44.004
-43.443
-42.788
-42.037
-41.189
-40.242
-39.195
-38.049
-36.805
-35.463
-34.028
-32.501
-30.886
-29.189
-27.412
-25.563
-23.646
-21.669
-19.641
-17.568
-15.462
-13.333
-11.195
-9.064
-6.955
-4.884
-2.868
-0.921
0.937
2.685
4.309
5.791
7.116
8.269
9.232
9.985
10.512
10.803
10.848
10.643
10.179
9.449
8.453
7.191
5.671
3.899
1.869
-0.426
-2.989
-5.82
-8.912
-12.241
-15.791
-19.54
-23.447
-27.476
-31.576
-35.694
-39.785
-43.795
-47.681
-51.409
-54.919
-58.162
-61.073
-63.557
-65.556
-67.064
-68.09
-68.723
-69.029
-68.952
-68.63
-68.371
-68.457
-69.283
-70.994
-73.323
-76.309
-80.345
-85.387
-91.078
-96.751
-101.076
-103.437
-104.258
-103.459
-100.512
-95.382
-88.337
-80.663
-75.104
-73.359
-75.443
-81.586
-92.231
-107.451
-126.992
-147.593
-162.845
-167.588
-159.005
-137.859
-106.98
-65.528
-8.934
69.654
175.805
307.923
458.563
617.189
773.696
920.306
1047.343
1142.546
1189.302
1171.347
1083.31
929.996
727.843
501.618
274.944
69.571
-97.318
-215.108
-282.289
-303.76
-287.13
-246.563
-192.821
-137.01
-95.335
-72.947
-70.393
-82.529
-93.949
-97.661
-93.854
-85.881
-82.155
-85.671
-93.868
-103.48
-110.832
-114.462
-114.664
-111.855
-106.724
-99.946
-92.54
-85.823
-80.458
-76.751
-74.954
-75.01
-76.861
-80.396
-85.104
-90.324
-95.592
-100.56
-104.973
-108.75
-111.798
-114.015
-115.42
-116.064
-115.997
-115.278
-113.946
-112.016
-109.521
-106.515
-103.054
-99.222
-95.11
-90.798
-86.371
-81.888
-77.386
-72.893
-68.425
-63.986
-59.567
-55.153
-50.72
-46.254
-41.744
-37.182
-32.558
-27.855
-23.06
-18.162
-13.15
-8.023
-2.778
2.583
8.056
13.633
19.304
25.055
30.871
36.738
42.643
48.574
54.516
60.454
66.373
72.257
78.089
83.853
89.528
95.095
100.533
105.819
110.934
115.855
120.56
125.028
129.238
133.171
136.806
140.126
143.114
145.753
148.03
149.931
151.445
152.564
153.278
153.583
153.475
152.951
152.012
150.66
148.898
146.732
144.168
141.216
137.886
134.19
130.142
125.757
121.053
116.047
110.762
105.219
99.44
93.449
87.273
80.934
74.46
67.877
61.209
54.483
47.724
40.957
34.206
27.494
20.843
14.275
7.809
1.464
-4.743
-10.796
-16.68
-22.383
-27.892
-33.197
-38.289
-43.158
-47.799
-52.205
-56.372
-60.297
-63.979
-67.418
-70.614
-73.571
-76.29
-78.777
-81.037
-83.077
-84.903
-86.524
-87.947
-89.181
-90.234
-91.117
-91.836
-92.403
-92.823
-93.107
-93.261
-93.292
-93.207
-93.012
-92.714
-92.317
-91.828
-91.25
-90.59
-89.852
-89.04
-88.159
-87.212
-86.204
-85.139
-84.019
-82.848
-81.629
-80.365
-79.059
-77.713
-76.33
-74.912
-73.463
-71.984
-70.478
-68.948
-67.397
-65.83
-64.249
-62.661
-61.069
-59.481
-57.901
-56.338
-54.798
-53.288
-51.816
-50.389
-49.014
-47.7
-46.452
-45.277
-44.182
-43.173
-42.254
-41.433
-40.711
-40.095
-39.587
-39.191
-38.908
-38.741
-38.692
-38.76
-38.946
-39.25
-39.671
-40.208
-40.856
-41.614
-42.476
-43.438
-44.493
-45.634
-46.852
-48.138
-49.483
-50.876
-52.306
-53.763
-55.234
-56.708
-58.174
-59.62
-61.035
-62.408
-63.729
-64.986
-66.17
-67.27
-68.279
-69.185
-69.981
-70.659
-71.211
-71.631
-71.913
-72.049
-72.035
-71.866
-71.538
-71.048
-70.395
-69.576
-68.591
-67.443
-66.133
-64.665
-63.045
-61.277
-59.369
-57.33
-55.167
-52.891
-50.512
-48.039
-45.486
-42.864
-40.187
-37.467
-34.72
-31.961
-29.208
-26.479
-23.793
-21.169
-18.626
-16.185
-13.866
-11.687
-9.665
-7.815
-6.155
-4.699
-3.464
-2.468
-1.725
-1.246
-1.043
-1.124
-1.497
-2.167
-3.127
-4.372
-5.898
-7.707
-9.808
-12.21
-14.914
-17.916
-21.21
-24.779
-28.602
-32.648
-36.86
-41.183
-45.561
-49.942
-54.288
-58.557
-62.692
-66.627
-70.278
-73.569
-76.445
-78.851
-80.741
-82.107
-82.966
-83.383
-83.473
-83.332
-83.06
-82.784
-82.632
-82.758
-83.31
-84.389
-86.132
-88.756
-92.388
-97.023
-102.439
-108.153
-113.685
-118.654
-122.581
-124.808
-124.774
-122.302
-117.961
-112.859
-107.996
-104.22
-102.236
-102.968
-107.661
-115.296
-121.928
-123.891
-117.501
-103.323
-86.984
-68.402
-42.88
-0.817
71.556
177.973
312.825
465.266
621.771
773.304
911.089
1023.927
1096.571
1111.283
1060.709
947.414
782.642
587.839
381.863
182.897
11.978
-117.725
-199.499
-233.979
-232.863
-209.082
-172.207
-132.006
-97.217
-74.498
-69.057
-79.188
-95.227
-108.432
-114.004
-112.076
-108.462
-107.03
-107.385
-107.92
-106.064
-100.831
-93.467
-85.275
-77.269
-70.242
-64.714
-60.971
-59.146
-59.115
-60.506
-63.02
-66.465
-70.616
-75.233
-80.074
-84.877
-89.426
-93.556
-97.125
-100.027
-102.19
-103.575
-104.172
-104.001
-103.109
-101.564
-99.434
-96.783
-93.669
-90.151
-86.304
-82.215
-77.975
-73.673
-69.372
-65.113
-60.921
-56.811
-52.782
-48.828
-44.922
-41.03
-37.127
-33.193
-29.215
-25.179
-21.068
-16.862
-12.543
-8.093
-3.499
1.247
6.152
11.22
16.45
21.839
27.376
33.051
38.854
44.776
50.807
56.935
63.15
69.437
75.781
82.168
88.578
94.992
101.388
107.742
114.029
120.226
126.305
132.241
138.006
143.575
148.919
154.014
158.832
163.349
167.539
171.381
174.853
177.935
180.61
182.86
184.674
186.039
186.948
187.393
187.37
186.877
185.915
184.487
182.597
180.253
177.465
174.244
170.603
166.561
162.134
157.342
152.209
146.757
141.012
134.999
128.747
122.283
115.637
108.836
101.912
94.894
87.811
80.691
73.563
66.454
59.39
52.395
45.493
38.706
32.055
25.557
19.231
13.092
7.155
1.431
-4.068
-9.333
-14.356
-19.131
-23.654
-27.922
-31.932
-35.686
-39.184
-42.43
-45.425
-48.177
-50.691
-52.974
-55.034
-56.88
-58.521
-59.968
-61.23
-62.318
-63.243
-64.014
-64.643
-65.138
-65.509
-65.766
-65.917
-65.971
-65.935
-65.817
-65.624
-65.363
-65.04
-64.661
-64.231
-63.754
-63.236
-62.681
-62.091
-61.47
-60.821
-60.147
-59.45
-58.732
-57.995
-57.239
-56.467
-55.678
-54.874
-54.055
-53.222
-52.377
-51.52
-50.652
-49.777
-48.895
-48.008
-47.121
-46.236
-45.355
-44.483
-43.623
-42.78
-41.957
-41.159
-40.39
-39.656
-38.96
-38.308
-37.704
-37.153
-36.66
-36.228
-35.863
-35.568
-35.347
-35.205
-35.144
-35.17
-35.284
-35.49
-35.791
-36.189
-36.686
-37.282
-37.979
-38.776
-39.672
-40.666
-41.757
-42.941
-44.215
-45.575
-47.016
-48.533
-50.119
-51.769
-53.473
-55.226
-57.018
-58.842
-60.688
-62.548
-64.413
-66.273
-68.12
-69.943
-71.732
-73.479
-75.172
-76.802
-78.359
-79.833
-81.215
-82.495
-83.664
-84.714
-85.637
-86.425
-87.071
-87.568
-87.91
-88.093
-88.111
-87.962
-87.645
-87.159
-86.504
-85.68
-84.692
-83.542
-82.234
-80.775
-79.169
-77.425
-75.551
-73.556
-71.45
-69.245
-66.955
-64.594
-62.178
-59.725
-57.253
-54.781
-52.327
-49.913
-47.557
-45.277
-43.092
-41.017
-39.072
-37.275
-35.642
-34.194
-32.946
-31.914
-31.11
-30.547
-30.234
-30.172
-30.364
-30.809
-31.511
-32.482
-33.733
-35.268
-37.091
-39.2
-41.585
-44.225
-47.09
-50.128
-53.288
-56.514
-59.756
-62.974
-66.123
-69.158
-72.019
-74.631
-76.925
-78.838
-80.321
-81.327
-81.839
-81.882
-81.525
-80.894
-80.121
-79.306
-78.555
-77.995
-77.751
-77.958
-78.761
-80.232
-82.494
-85.788
-90.205
-95.687
-102.009
-108.626
-114.941
-120.509
-124.711
-126.702
-126.011
-122.576
-116.78
-109.74
-102.716
-96.668
-92.613
-92.024
-94.724
-98.185
-99.857
-96.365
-86.679
-74.797
-62.069
-44.777
-15.554
38.475
127.11
249.103
397.992
562.894
729.543
887.393
1023.419
1120.767
1165.019
1144.81
1059.012
916.35
732.5
529.185
326.183
144.787
3.039
-93.704
-146.882
-168.644
-176.653
-178.839
-177.432
-170.546
-153.238
-127.432
-99.214
-73.643
-55.413
-46.414
-46.266
-53.827
-66.895
-82.476
-97.269
-109.276
-117.86
-122.67
-123.583
-120.858
-115.034
-107.443
-100.07
-94.09
-89.906
-87.737
-87.562
-89.321
-92.964
-98.046
-103.78
-109.626
-115.254
-120.422
-125.028
-128.942
-132.008
-134.184
-135.522
-136.06
-135.834
-134.876
-133.194
-130.826
-127.837
-124.293
-120.269
-115.849
-111.116
-106.16
-101.068
-95.905
-90.717
-85.536
-80.383
-75.268
-70.192
-65.142
-60.102
-55.061
-50.008
-44.933
-39.828
-34.676
-29.464
-24.179
-18.812
-13.353
-7.799
-2.147
3.605
9.453
15.389
21.406
27.493
33.639
39.836
46.075
52.346
58.636
64.934
71.227
77.503
83.745
89.936
96.059
102.092
108.017
113.814
119.461
124.938
130.224
135.297
140.138
144.724
149.036
153.054
156.757
160.127
163.148
165.801
168.073
169.951
171.423
172.48
173.116
173.324
173.103
172.45
171.368
169.858
167.926
165.579
162.826
159.678
156.149
152.253
148.009
143.433
138.548
133.373
127.932
122.249
116.348
110.254
103.994
97.595
91.083
84.486
77.833
71.149
64.464
57.803
51.193
44.659
38.225
31.913
25.747
19.745
13.927
8.31
2.91
-2.259
-7.185
-11.857
-16.265
-20.402
-24.264
-27.846
-31.145
-34.161
-36.896
-39.351
-41.53
-43.438
-45.082
-46.47
-47.61
-48.512
-49.188
-49.65
-49.91
-49.983
-49.884
-49.626
-49.226
-48.699
-48.06
-47.324
-46.508
-45.625
-44.69
-43.718
-42.72
-41.711
-40.703
-39.705
-38.729
-37.785
-36.88
-36.022
-35.218
-34.473
-33.793
-33.179
-32.636
-32.165
-31.767
-31.443
-31.19
-31.007
-30.893
-30.842
-30.851
-30.915
-31.029
-31.186
-31.38
-31.604
-31.852
-32.116
-32.391
-32.668
-32.943
-33.207
-33.456
-33.683
-33.884
-34.054
-34.188
-34.284
-34.338
-34.347
-34.311
-34.229
-34.1
-33.924
-33.704
-33.44
-33.135
-32.793
-32.415
-32.008
-31.576
-31.123
-30.656
-30.18
-29.703
-29.23
-28.769
-28.326
-27.908
-27.521
-27.171
-26.864
-26.606
-26.4
-26.252
-26.164
-26.141
-26.184
-26.294
-26.473
-26.721
-27.037
-27.42
-27.866
-28.373
-28.937
-29.552
-30.214
-30.915
-31.648
-32.404
-33.176
-33.953
-34.725
-35.483
-36.215
-36.911
-37.558
-38.146
-38.663
-39.097
-39.439
-39.676
-39.8
-39.801
-39.67
-39.4
-38.984
-38.416
-37.691
-36.806
-35.759
-34.547
-33.171
-31.632
-29.934
-28.08
-26.078
-23.934
-21.659
-19.264
-16.763
-14.174
-11.513
-8.799
-6.053
-3.298
-0.558
2.145
4.788
7.348
9.802
12.127
14.298
16.292
18.084
19.651
20.971
22.023
22.788
23.25
23.401
23.231
22.734
21.902
20.719
19.174
17.259
14.966
12.294
9.249
5.844
2.109
-1.912
-6.171
-10.616
-15.199
-19.88
-24.615
-29.356
-34.051
-38.629
-43.018
-47.154
-50.972
-54.414
-57.447
-60.067
-62.31
-64.269
-66.043
-67.713
-69.366
-71.084
-72.969
-75.144
-77.714
-80.762
-84.399
-88.803
-94.135
-100.432
-107.503
-114.896
-122.057
-128.452
-133.518
-136.539
-136.857
-134.173
-128.901
-122.115
-115.063
-109.022
-105.125
-104.552
-108.682
-116.805
-125.401
-130.822
-128.785
-118.881
-105.821
-89.329
-66.172
-27.48
42.877
150.629
293.873
464.494
642.067
811.739
961.658
1075.738
1146.806
1167.768
1131.437
1044.327
914.358
748.438
560.913
363.896
170.318
1.783
-124.191
-200.042
-223.818
-204.811
-161.644
-108.051
-58.751
-29.443
-22.824
-37.934
-67.534
-95.024
-112.774
-119.365
-117.003
-113.992
-113.595
-114.375
-114.807
-112.344
-106.497
-98.9
-90.807
-83.195
-76.784
-71.905
-68.736
-67.308
-67.474
-68.944
-71.471
-74.91
-79.06
-83.696
-88.628
-93.629
-98.5
-103.073
-107.149
-110.572
-113.255
-115.14
-116.211
-116.487
-115.991
-114.772
-112.908
-110.465
-107.511
-104.119
-100.349
-96.283
-92.01
-87.615
-83.185
-78.775
-74.42
-70.139
-65.938
-61.809
-57.74
-53.706
-49.675
-45.625
-41.537
-37.396
-33.189
-28.902
-24.515
-20.011
-15.378
-10.604
-5.682
-0.61
4.615
9.987
15.502
21.15
26.918
32.797
38.774
44.841
50.983
57.189
63.444
69.729
76.03
82.325
88.594
94.813
100.957
107.001
112.92
118.686
124.274
129.656
134.807
139.699
144.308
148.61
152.58
156.196
159.438
162.286
164.724
166.735
168.309
169.433
170.1
170.303
170.041
169.312
168.118
166.463
164.354
161.8
158.812
155.404
151.591
147.39
142.823
137.91
132.676
127.145
121.345
115.303
109.049
102.611
96.02
89.308
82.503
75.638
68.742
61.846
54.977
48.164
41.434
34.812
28.323
21.987
15.827
9.86
4.104
-1.427
-6.72
-11.765
-16.551
-21.073
-25.325
-29.304
-33.008
-36.437
-39.594
-42.48
-45.102
-47.465
-49.577
-51.447
-53.085
-54.503
-55.712
-56.726
-57.558
-58.222
-58.732
-59.103
-59.35
-59.486
-59.526
-59.483
-59.37
-59.2
-58.985
-58.735
-58.459
-58.167
-57.867
-57.565
-57.267
-56.978
-56.702
-56.443
-56.202
-55.983
-55.784
-55.608
-55.455
-55.322
-55.209
-55.114
-55.034
-54.966
-54.909
-54.857
-54.807
-54.755
-54.699
-54.633
-54.555
-54.461
-54.348
-54.213
-54.055
-53.871
-53.662
-53.427
-53.166
-52.881
-52.575
-52.25
-51.909
-51.557
-51.198
-50.836
-50.478
-50.127
-49.79
-49.472
-49.179
-48.916
-48.688
-48.501
-48.36
-48.27
-48.237
-48.264
-48.356
-48.517
-48.751
-49.061
-49.448
-49.916
-50.466
-51.099
-51.815
-52.612
-53.49
-54.445
-55.474
-56.574
-57.737
-58.958
-60.231
-61.546
-62.896
-64.272
-65.665
-67.065
-68.462
-69.848
-71.212
-72.545
-73.838
-75.08
-76.264
-77.381
-78.42
-79.375
-80.237
-80.997
-81.649
-82.185
-82.599
-82.886
-83.038
-83.052
-82.924
-82.648
-82.224
-81.648
-80.92
-80.039
-79.006
-77.823
-76.494
-75.024
-73.415
-71.676
-69.813
-67.834
-65.747
-63.559
-61.282
-58.924
-56.496
-54.009
-51.474
-48.904
-46.312
-43.717
-41.133
-38.577
-36.067
-33.619
-31.252
-28.987
-26.84
-24.824
-22.954
-21.243
-19.706
-18.359
-17.218
-16.292
-15.59
-15.12
-14.89
-14.908
-15.178
-15.695
-16.448
-17.43
-18.642
-20.099
-21.811
-23.782
-26.008
-28.482
-31.195
-34.137
-37.284
-40.593
-44.005
-47.467
-50.923
-54.334
-57.676
-60.903
-63.959
-66.777
-69.262
-71.335
-72.958
-74.089
-74.72
-74.899
-74.621
-73.912
-72.996
-72.072
-71.372
-71.178
-71.485
-72.211
-73.599
-75.932
-79.155
-83.199
-87.603
-91.585
-95.094
-98.21
-100.471
-101.344
-100.552
-97.929
-94.368
-91.522
-89.991
-90.311
-93.448
-100.092
-111.174
-126.287
-141.605
-152.525
-155.384
-148.793
-136.091
-119.621
-96.536
-60.138
1.231
97.746
229.779
391.733
572.348
755.385
927.627
1073.961
1177.188
1223.409
1200.785
1107.253
950.577
746.836
521.221
299.04
106.275
-37.468
-127.6
-168.075
-172.79
-158.508
-134.727
-109.078
-87.836
-74.844
-74.338
-85.838
-101.51
-113.719
-117.529
-112.297
-103.384
-94.754
-86.724
-78.473
-67.994
-55.209
-42.81
-33.288
-28.046
-27.679
-31.707
-39.001
-48.782
-60.011
-70.996
-80.506
-87.916
-92.911
-95.956
-97.989
-99.464
-100.709
-102.183
-103.98
-106.109
-108.585
-111.038
-112.952
-114.082
-114.303
-113.579
-112.053
-109.817
-106.907
-103.45
-99.585
-95.416
-91.041
-86.517
-81.859
-77.097
-72.262
-67.38
-62.479
-57.566
-52.632
-47.656
-42.613
-37.49
-32.279
-26.975
-21.579
-16.084
-10.489
-4.795
0.997
6.883
12.861
18.931
25.095
31.346
37.675
44.068
50.51
56.988
63.49
70.003
76.515
83.011
89.479
95.905
102.273
108.568
114.772
120.863
126.822
132.628
138.261
143.7
148.926
153.918
158.658
163.126
167.305
171.176
174.721
177.926
180.775
183.253
185.349
187.051
188.35
189.238
189.71
189.761
189.39
188.595
187.378
185.742
183.692
181.234
178.379
175.135
171.515
167.533
163.206
158.55
153.584
148.327
142.801
137.027
131.027
124.824
118.442
111.905
105.237
98.461
91.604
84.688
77.737
70.775
63.825
56.908
50.045
43.257
36.562
29.98
23.526
17.216
11.066
5.089
-0.704
-6.302
-11.696
-16.877
-21.839
-26.577
-31.086
-35.363
-39.406
-43.214
-46.786
-50.123
-53.227
-56.101
-58.747
-61.169
-63.373
-65.363
-67.146
-68.728
-70.116
-71.316
-72.337
-73.186
-73.871
-74.399
-74.779
-75.018
-75.125
-75.107
-74.971
-74.725
-74.376
-73.931
-73.395
-72.775
-72.077
-71.306
-70.467
-69.568
-68.612
-67.605
-66.552
-65.459
-64.33
-63.17
-61.983
-60.775
-59.549
-58.31
-57.062
-55.808
-54.554
-53.303
-52.058
-50.823
-49.601
-48.396
-47.21
-46.047
-44.91
-43.803
-42.728
-41.689
-40.69
-39.734
-38.826
-37.969
-37.166
-36.422
-35.74
-35.122
-34.572
-34.092
-33.685
-33.353
-33.098
-32.921
-32.825
-32.811
-32.879
-33.03
-33.265
-33.583
-33.984
-34.468
-35.035
-35.684
-36.414
-37.224
-38.113
-39.08
-40.122
-41.237
-42.422
-43.672
-44.985
-46.355
-47.778
-49.247
-50.757
-52.302
-53.876
-55.472
-57.084
-58.704
-60.326
-61.942
-63.545
-65.127
-66.679
-68.194
-69.664
-71.08
-72.435
-73.721
-74.931
-76.056
-77.088
-78.019
-78.842
-79.55
-80.133
-80.587
-80.904
-81.08
-81.109
-80.989
-80.716
-80.288
-79.706
-78.969
-78.079
-77.038
-75.849
-74.516
-73.045
-71.442
-69.716
-67.874
-65.928
-63.89
-61.774
-59.598
-57.378
-55.133
-52.882
-50.646
-48.446
-46.302
-44.234
-42.258
-40.395
-38.664
-37.085
-35.681
-34.47
-33.469
-32.696
-32.165
-31.89
-31.882
-32.142
-32.674
-33.478
-34.562
-35.942
-37.634
-39.645
-41.98
-44.637
-47.603
-50.865
-54.395
-58.145
-62.063
-66.094
-70.185
-74.296
-78.386
-82.399
-86.27
-89.913
-93.243
-96.199
-98.726
-100.782
-102.357
-103.462
-104.153
-104.534
-104.706
-104.782
-104.89
-105.156
-105.741
-106.795
-108.433
-110.815
-114.148
-118.542
-124.012
-130.356
-137.058
-143.632
-149.682
-154.71
-158.162
-159.581
-158.684
-155.896
-152.425
-149.36
-147.386
-147.148
-149.193
-154.033
-162.196
-171.238
-175.948
-172.41
-156.991
-130.921
-100.703
-66.478
-25.675
28.208
109.193
220.837
360.035
520.991
687.004
844.29
979.067
1072.568
1110.335
1081.068
982.409
824.425
625.976
410.483
200.414
15.277
-131.741
-232.977
-287.764
-302.212
-285.093
-249.409
-207.355
-170.287
-148.023
-142.416
-150.339
-163.18
-171.865
-173.607
-169.842
-165.692
-164.855
-166.727
-168.871
-168.365
-164.2
-157.317
-149.034
-140.546
-132.583
-125.635
-120.272
-116.826
-115.255
-115.331
-116.701
-119.073
-122.264
-126.049
-130.172
-134.383
-138.446
-142.165
-145.372
-147.933
-149.748
-150.755
-150.924
-150.257
-148.789
-146.576
-143.695
-140.22
-136.216
-131.743
-126.86
-121.643
-116.176
-110.546
-104.836
-99.104
-93.385
-87.706
-82.079
-76.506
-70.974
-65.463
-59.941
-54.387
-48.789
-43.135
-37.417
-31.624
-25.744
-19.765
-13.679
-7.481
-1.168
5.26
11.798
18.442
25.18
31.999
38.883
45.819
52.792
59.788
66.795
73.795
80.773
87.712
94.594
101.401
108.111
114.704
121.157
127.446
133.55
139.445
145.109
150.519
155.652
160.486
165.002
169.179
172.997
176.439
179.488
182.128
184.347
186.132
187.473
188.363
188.795
188.766
188.275
187.323
185.913
184.049
181.74
178.994
175.823
172.239
168.257
163.895
159.169
154.102
148.713
143.027
137.067
130.859
124.428
117.801
111.006
104.069
97.019
89.882
82.687
75.46
68.229
61.02
53.859
46.77
39.776
32.9
26.163
19.585
13.182
6.971
0.966
-4.818
-10.372
-15.684
-20.748
-25.556
-30.102
-34.385
-38.399
-42.146
-45.626
-48.839
-51.788
-54.478
-56.912
-59.096
-61.036
-62.739
-64.213
-65.466
-66.507
-67.345
-67.99
-68.452
-68.742
-68.868
-68.843
-68.674
-68.374
-67.95
-67.412
-66.769
-66.029
-65.199
-64.286
-63.298
-62.24
-61.117
-59.936
-58.701
-57.415
-56.085
-54.713
-53.304
-51.861
-50.388
-48.891
-47.371
-45.834
-44.284
-42.724
-41.158
-39.591
-38.026
-36.468
-34.921
-33.387
-31.873
-30.381
-28.916
-27.482
-26.083
-24.723
-23.408
-22.141
-20.928
-19.773
-18.683
-17.661
-16.713
-15.844
-15.06
-14.364
-13.762
-13.258
-12.853
-12.552
-12.355
-12.265
-12.282
-12.406
-12.635
-12.97
-13.406
-13.942
-14.574
-15.298
-16.108
-17.001
-17.971
-19.011
-20.117
-21.28
-22.495
-23.755
-25.052
-26.379
-27.728
-29.09
-30.456
-31.817
-33.165
-34.489
-35.78
-37.029
-38.227
-39.365
-40.436
-41.43
-42.342
-43.163
-43.886
-44.506
-45.018
-45.415
-45.694
-45.852
-45.885
-45.793
-45.572
-45.223
-44.743
-44.134
-43.393
-42.522
-41.521
-40.389
-39.129
-37.743
-36.233
-34.602
-32.854
-30.995
-29.03
-26.967
-24.81
-22.569
-20.25
-17.864
-15.418
-12.924
-10.392
-7.836
-5.268
-2.706
-0.165
2.339
4.787
7.164
9.453
11.636
13.702
15.635
17.423
19.052
20.506
21.768
22.823
23.656
24.254
24.605
24.696
24.521
24.077
23.365
22.385
21.134
19.596
17.759
15.617
13.166
10.409
7.358
4.026
0.444
-3.339
-7.27
-11.291
-15.349
-19.403
-23.41
-27.316
-31.059
-34.555
-37.728
-40.519
-42.874
-44.755
-46.149
-47.057
-47.532
-47.682
-47.607
-47.427
-47.277
-47.268
-47.56
-48.335
-49.725
-51.913
-55.114
-59.416
-64.839
-71.264
-78.256
-85.322
-92.026
-97.745
-101.833
-103.905
-103.664
-101.273
-97.706
-94.056
-91.223
-90.103
-91.442
-95.545
-102.567
-112.021
-120.513
-123.005
-115.559
-94.04
-58.482
-13.618
40.806
105.47
182.861
282.785
406.839
552.48
717.399
887.089
1045.057
1174.034
1250.185
1257.798
1194.097
1064.721
886.148
680.913
467.159
262.141
84.945
-51.2
-138.273
-173.979
-169.043
-140.293
-102.627
-72.225
-58.143
-59.67
-73.766
-91.227
-103.326
-108.637
-108.781
-108.732
-112.41
-119.056
-125.708
-129.044
-127.598
-121.897
-113.181
-102.813
-91.682
-80.528
-70.261
-61.431
-54.212
-48.595
-44.389
-41.461
-39.729
-39.019
-39.094
-39.777
-40.984
-42.677
-44.811
-47.258
-49.822
-52.351
-54.753
-56.955
-58.893
-60.48
-61.595
-62.171
-62.203
-61.704
-60.692
-59.164
-57.077
-54.391
-51.11
-47.27
-42.926
-38.122
-32.877
-27.222
-21.21
-14.926
-8.476
-1.929
4.687
11.356
18.06
24.768
31.432
38.012
44.495
50.874
57.14
63.282
69.281
75.131
80.846
86.456
92
97.494
102.942
108.337
113.675
118.952
124.162
129.294
134.322
139.227
143.995
148.612
153.067
157.346
161.424
165.276
168.877
172.204
175.24
177.966
180.363
182.417
184.116
185.45
186.415
187.005
187.211
187.027
186.446
185.464
184.079
182.29
180.094
177.496
174.498
171.108
167.335
163.189
158.682
153.826
148.636
143.128
137.317
131.223
124.862
118.255
111.423
104.388
97.172
89.797
82.287
74.666
66.957
59.184
51.37
43.537
35.71
27.909
20.157
12.475
4.884
-2.597
-9.949
-17.155
-24.197
-31.06
-37.731
-44.198
-50.449
-56.475
-62.268
-67.821
-73.128
-78.185
-82.987
-87.531
-91.816
-95.84
-99.604
-103.109
-106.356
-109.348
-112.089
-114.583
-116.836
-118.854
-120.643
-122.21
-123.565
-124.714
-125.667
-126.433
-127.021
-127.441
-127.702
-127.814
-127.786
-127.628
-127.349
-126.958
-126.463
-125.873
-125.195
-124.438
-123.608
-122.713
-121.761
-120.758
-119.712
-118.629
-117.516
-116.38
-115.227
-114.063
-112.892
-111.721
-110.555
-109.396
-108.25
-107.12
-106.009
-104.92
-103.856
-102.82
-101.812
-100.836
-99.894
-98.986
-98.115
-97.281
-96.487
-95.734
-95.024
-94.357
-93.737
-93.163
-92.638
-92.163
-91.739
-91.366
-91.046
-90.778
-90.562
-90.399
-90.287
-90.228
-90.221
-90.266
-90.363
-90.512
-90.712
-90.964
-91.266
-91.62
-92.023
-92.475
-92.975
-93.522
-94.114
-94.75
-95.428
-96.145
-96.899
-97.686
-98.502
-99.344
-100.207
-101.085
-101.974
-102.868
-103.763
-104.653
-105.533
-106.396
-107.238
-108.052
-108.832
-109.571
-110.262
-110.897
-111.469
-111.97
-112.393
-112.73
-112.974
-113.116
-113.151
-113.071
-112.87
-112.543
-112.082
-111.484
-110.743
-109.858
-108.824
-107.642
-106.31
-104.829
-103.201
-101.43
-99.518
-97.47
-95.291
-92.987
-90.565
-88.035
-85.404
-82.685
-79.888
-77.027
-74.122
-71.19
-68.25
-65.325
-62.435
-59.603
-56.852
-54.204
-51.679
-49.294
-47.069
-45.021
-43.17
-41.537
-40.139
-38.992
-38.113
-37.513
-37.206
-37.199
-37.489
-38.074
-38.951
-40.122
-41.6
-43.396
-45.515
-47.959
-50.724
-53.796
-57.155
-60.765
-64.562
-68.481
-72.457
-76.426
-80.345
-84.164
-87.827
-91.267
-94.402
-97.151
-99.45
-101.241
-102.473
-103.135
-103.251
-102.895
-102.195
-101.274
-100.261
-99.286
-98.462
-97.913
-97.76
-98.098
-99.091
-100.976
-103.888
-107.899
-112.927
-118.582
-124.394
-129.858
-134.191
-136.509
-136.187
-132.782
-126.333
-117.872
-108.775
-100.384
-94.603
-92.252
-92.148
-93.351
-94.202
-94.397
-97.755
-105.425
-113.536
-112.352
-84.351
-15.863
95.191
240.967
405.177
572.696
736.339
891.964
1031.408
1140.898
1203.164
1202.517
1137.191
1016.648
853.439
666.147
470.2
279.821
114.811
-11.896
-94.446
-133.781
-141.249
-127.928
-101.647
-71.172
-44.929
-30.549
-33.417
-51.225
-74.03
-92.507
-101.844
-102.727
-101.122
-101.041
-102.242
-103.069
-101.012
-95.208
-86.913
-77.501
-68.119
-59.627
-52.6
-47.378
-44.118
-42.719
-42.847
-44.197
-46.497
-49.477
-52.863
-56.427
-59.993
-63.382
-66.445
-69.008
-70.884
-71.973
-72.238
-71.665
-70.262
-68.077
-65.191
-61.756
-57.994
-54.083
-50.145
-46.258
-42.458
-38.806
-35.362
-32.151
-29.152
-26.289
-23.485
-20.689
-17.879
-15.012
-12.001
-8.717
-4.994
-0.705
4.229
9.864
16.248
23.425
31.403
40.139
49.519
59.392
69.642
80.192
90.991
101.99
113.109
124.251
135.321
146.24
156.939
167.344
177.356
186.885
195.885
204.35
212.325
219.882
227.059
233.868
240.317
246.398
252.111
257.456
262.411
266.946
271.046
274.708
277.953
280.803
283.253
285.282
286.855
287.923
288.454
288.426
287.813
286.603
284.791
282.378
279.384
275.838
271.76
267.166
262.068
256.477
250.412
243.899
236.965
229.641
221.959
213.953
205.662
197.125
188.375
179.446
170.371
161.176
151.894
142.555
133.192
123.835
114.517
105.269
96.123
87.108
78.254
69.585
61.125
52.896
44.916
37.204
29.773
22.638
15.811
9.301
3.118
-2.73
-8.238
-13.402
-18.219
-22.688
-26.808
-30.582
-34.013
-37.105
-39.865
-42.297
-44.411
-46.216
-47.721
-48.938
-49.879
-50.557
-50.987
-51.184
-51.163
-50.941
-50.533
-49.956
-49.225
-48.357
-47.367
-46.269
-45.077
-43.807
-42.471
-41.083
-39.656
-38.2
-36.73
-35.255
-33.788
-32.337
-30.914
-29.528
-28.187
-26.899
-25.673
-24.514
-23.43
-22.424
-21.502
-20.667
-19.92
-19.265
-18.702
-18.23
-17.849
-17.558
-17.355
-17.237
-17.203
-17.25
-17.375
-17.575
-17.848
-18.19
-18.599
-19.073
-19.607
-20.201
-20.851
-21.556
-22.311
-23.117
-23.969
-24.866
-25.806
-26.788
-27.81
-28.87
-29.969
-31.103
-32.275
-33.482
-34.725
-36.005
-37.322
-38.677
-40.071
-41.506
-42.982
-44.5
-46.061
-47.665
-49.313
-51.002
-52.732
-54.501
-56.306
-58.145
-60.013
-61.906
-63.819
-65.747
-67.683
-69.621
-71.552
-73.47
-75.365
-77.228
-79.051
-80.821
-82.53
-84.167
-85.72
-87.179
-88.533
-89.771
-90.881
-91.852
-92.672
-93.331
-93.819
-94.126
-94.243
-94.163
-93.878
-93.384
-92.678
-91.755
-90.615
-89.258
-87.687
-85.905
-83.918
-81.731
-79.354
-76.798
-74.074
-71.197
-68.181
-65.044
-61.807
-58.491
-55.12
-51.719
-48.313
-44.93
-41.595
-38.338
-35.181
-32.149
-29.266
-26.553
-24.036
-21.741
-19.688
-17.899
-16.392
-15.183
-14.285
-13.712
-13.461
-13.532
-13.923
-14.636
-15.683
-17.078
-18.823
-20.918
-23.359
-26.132
-29.217
-32.583
-36.176
-39.938
-43.816
-47.755
-51.72
-55.675
-59.56
-63.311
-66.843
-70.066
-72.92
-75.341
-77.264
-78.672
-79.575
-80.028
-80.136
-79.979
-79.627
-79.179
-78.733
-78.402
-78.326
-78.594
-79.356
-80.907
-83.405
-86.857
-91.112
-95.645
-99.855
-103.279
-105.235
-104.853
-101.666
-95.669
-87.463
-78.544
-70.659
-65.289
-63.997
-68.576
-78.83
-92.195
-105.745
-115.132
-119.195
-121.211
-119.882
-110.174
-81.478
-18.058
85.651
224.842
387.677
556.753
721.746
877.277
1014.891
1123.498
1185.25
1182.067
1107.822
966.886
775.541
558.447
338.747
139.47
-21.435
-135.797
-203.577
-233.719
-237.268
-222.422
-193.953
-155.82
-116.469
-85.606
-70.769
-72.503
-82.334
-91.834
-96.247
-95.819
-95.717
-98.263
-102.524
-106.956
-108.754
-106.923
-102.293
-95.177
-86.573
-78.1
-70.742
-65.159
-61.705
-60.122
-60.175
-62
-65.444
-70.003
-75.239
-80.691
-86.014
-91.115
-95.845
-99.979
-103.403
-106.067
-107.96
-109.135
-109.627
-109.445
-108.637
-107.261
-105.376
-103.065
-100.398
-97.453
-94.322
-91.094
-87.858
-84.676
-81.586
-78.615
-75.774
-73.06
-70.46
-67.951
-65.498
-63.079
-60.675
-58.264
-55.828
-53.345
-50.792
-48.15
-45.401
-42.529
-39.523
-36.375
-33.077
-29.63
-26.034
-22.294
-18.418
-14.412
-10.281
-6.032
-1.674
2.782
7.326
11.944
16.623
21.344
26.088
30.834
35.558
40.237
44.845
49.358
53.748
57.99
62.058
65.926
69.568
72.96
76.078
78.9
81.403
83.568
85.376
86.81
87.856
88.499
88.73
88.54
87.922
86.873
85.391
83.476
81.133
78.368
75.187
71.603
67.628
63.279
58.572
53.529
48.171
42.524
36.612
30.463
24.106
17.568
10.881
4.073
-2.825
-9.784
-16.773
-23.764
-30.727
-37.636
-44.463
-51.183
-57.771
-64.205
-70.464
-76.526
-82.375
-87.994
-93.369
-98.486
-103.336
-107.908
-112.197
-116.198
-119.906
-123.321
-126.443
-129.275
-131.821
-134.086
-136.077
-137.803
-139.272
-140.496
-141.486
-142.254
-142.812
-143.174
-143.354
-143.363
-143.218
-142.931
-142.516
-141.986
-141.355
-140.635
-139.839
-138.977
-138.063
-137.105
-136.113
-135.097
-134.065
-133.024
-131.981
-130.941
-129.91
-128.893
-127.891
-126.909
-125.948
-125.01
-124.096
-123.205
-122.339
-121.496
-120.677
-119.879
-119.102
-118.344
-117.605
-116.882
-116.175
-115.481
-114.8
-114.13
-113.47
-112.82
-112.178
-111.545
-110.92
-110.304
-109.696
-109.098
-108.511
-107.936
-107.375
-106.829
-106.3
-105.792
-105.307
-104.848
-104.417
-104.017
-103.652
-103.323
-103.033
-102.785
-102.58
-102.421
-102.31
-102.246
-102.232
-102.267
-102.352
-102.486
-102.668
-102.896
-103.169
-103.485
-103.839
-104.228
-104.648
-105.095
-105.565
-106.05
-106.546
-107.046
-107.542
-108.029
-108.498
-108.94
-109.347
-109.71
-110.02
-110.269
-110.449
-110.549
-110.563
-110.481
-110.297
-110.003
-109.592
-109.058
-108.394
-107.595
-106.657
-105.577
-104.353
-102.982
-101.465
-99.802
-97.996
-96.049
-93.965
-91.747
-89.4
-86.933
-84.353
-81.668
-78.889
-76.027
-73.097
-70.117
-67.105
-64.079
-61.055
-58.053
-55.092
-52.194
-49.381
-46.669
-44.077
-41.619
-39.314
-37.184
-35.247
-33.515
-31.996
-30.697
-29.622
-28.78
-28.176
-27.81
-27.675
-27.761
-28.062
-28.588
-29.344
-30.327
-31.532
-32.938
-34.528
-36.287
-38.194
-40.212
-42.296
-44.398
-46.463
-48.448
-50.315
-52.031
-53.571
-54.895
-55.948
-56.659
-56.954
-56.787
-56.16
-55.123
-53.705
-51.878
-49.712
-47.442
-45.479
-44.269
-44.041
-44.659
-45.964
-48.126
-51.171
-54.753
-57.957
-59.377
-58.084
-54.161
-48.058
-39.75
-29.285
-17.175
-5.011
4.386
8.632
6.972
-0.132
-12.531
-30.132
-51.958
-75.598
-95.726
-105.493
-101.29
-81.947
-47.833
-1.871
57.341
133.171
227.045
341.315
472.593
613.132
755.063
887.185
996.826
1071.9
1100.825
1075.282
996.742
873.038
713.276
531.007
338.068
146.999
-21.566
-150.022
-229.257
-259.711
-256.856
-240.406
-221.667
-205.35
-188.871
-166.444
-138.614
-108.67
-80.439
-58.791
-45.302
-39.452
-40.473
-46.344
-54.774
-64.519
-74.343
-82.865
-89.412
-93.227
-93.812
-91.542
-87.135
-81.265
-74.845
-68.911
-64.056
-60.802
-59.428
-59.756
-61.541
-64.468
-68.052
-71.731
-75.083
-77.842
-79.91
-81.361
-82.28
-82.689
-82.591
-82.029
-81.046
-79.674
-77.949
-75.867
-73.418
-70.648
-67.621
-64.416
-61.124
-57.773
-54.339
-50.796
-47.094
-43.223
-39.228
-35.125
-30.912
-26.598
-22.173
-17.645
-13.043
-8.362
-3.581
1.327
6.389
11.608
16.961
22.427
27.98
33.61
39.334
45.15
51.053
57.039
63.099
69.231
75.441
81.719
88.039
94.376
100.704
107.003
113.259
119.453
125.564
131.57
137.444
143.162
148.702
154.041
159.155
164.018
168.606
172.898
176.878
180.531
183.839
186.79
189.367
191.559
193.357
194.752
195.735
196.3
196.443
196.162
195.458
194.331
192.785
190.827
188.463
185.703
182.559
179.044
175.174
170.965
166.437
161.608
156.501
151.136
145.534
139.719
133.714
127.543
121.229
114.795
108.266
101.664
95.015
88.34
81.661
75
68.377
61.81
55.319
48.918
42.621
36.439
30.384
24.466
18.695
13.076
7.618
2.328
-2.788
-7.723
-12.472
-17.037
-21.419
-25.619
-29.641
-33.489
-37.166
-40.677
-44.026
-47.208
-50.221
-53.066
-55.748
-58.288
-60.702
-63
-65.191
-67.283
-69.271
-71.147
-72.887
-74.443
-75.771
-76.83
-77.59
-78.037
-78.156
-77.918
-77.287
-76.215
-74.664
-72.622
-70.08
-67.02
-63.463
-59.476
-55.174
-50.744
-46.352
-42.104
-38.113
-34.496
-31.387
-28.961
-27.368
-26.675
-26.985
-28.463
-31.158
-35.008
-39.708
-44.551
-48.811
-51.952
-53.343
-52.274
-48.423
-41.82
-33.056
-23.777
-15.468
-8.822
-4.903
-4.918
-8.889
-16.143
-24.011
-26.773
-20.743
-4.282
23.532
61.342
111.053
175.99
257.995
359.291
477.141
608.065
747.961
884.25
1002.293
1082.742
1103.334
1056.666
945.317
780.525
586.872
385.318
194.949
36.998
-78.548
-148.562
-175.936
-173.529
-153.054
-122.141
-88.849
-60.428
-42.976
-41.612
-54.994
-74.227
-91.012
-100.535
-102.557
-102.296
-103.326
-105.447
-107.311
-106.564
-102.343
-95.84
-88.354
-80.949
-74.406
-69.169
-65.48
-63.455
-62.991
-63.791
-65.598
-68.236
-71.515
-75.236
-79.228
-83.295
-87.25
-90.94
-94.186
-96.846
-98.835
-100.096
-100.606
-100.372
-99.419
-97.797
-95.579
-92.829
-89.609
-85.977
-81.99
-77.719
-73.246
-68.655
-64.023
-59.407
-54.842
-50.353
-45.95
-41.634
-37.395
-33.214
-29.065
-24.931
-20.802
-16.668
-12.523
-8.36
-4.166
0.067
4.347
8.677
13.06
17.497
21.984
26.516
31.085
35.68
40.289
44.903
49.511
54.104
58.673
63.206
67.693
72.122
76.479
80.75
84.92
88.972
92.888
96.652
100.246
103.654
106.859
109.846
112.599
115.107
117.355
119.333
121.03
122.436
123.544
124.348
124.843
125.024
124.89
124.44
123.676
122.599
121.214
119.525
117.541
115.27
112.721
109.906
106.838
103.531
100.001
96.266
92.345
88.257
84.023
79.664
75.202
70.66
66.058
61.419
56.764
52.113
47.486
42.902
38.38
33.936
29.589
25.353
21.242
17.27
13.448
9.788
6.299
2.99
-0.132
-3.062
-5.793
-8.324
-10.65
-12.771
-14.688
-16.401
-17.914
-19.23
-20.354
-21.294
-22.055
-22.646
-23.075
-23.35
-23.482
-23.479
-23.349
-23.104
-22.751
-22.299
-21.759
-21.137
-20.442
-19.683
-18.867
-18.001
-17.092
-16.147
-15.171
-14.171
-13.153
-12.121
-11.081
-10.037
-8.995
-7.959
-6.931
-5.917
-4.919
-3.939
-2.979
-2.043
-1.131
-0.245
0.613
1.442
2.239
3.004
3.735
4.428
5.083
5.695
6.264
6.786
7.258
7.677
8.04
8.343
8.583
8.756
8.859
8.889
8.843
8.718
8.512
8.223
7.851
7.394
6.852
6.225
5.514
4.719
3.842
2.885
1.85
0.74
-0.442
-1.692
-3.005
-4.376
-5.8
-7.27
-8.781
-10.324
-11.895
-13.484
-15.084
-16.688
-18.287
-19.873
-21.437
-22.971
-24.466
-25.916
-27.311
-28.646
-29.915
-31.112
-32.232
-33.272
-34.228
-35.099
-35.884
-36.582
-37.193
-37.719
-38.162
-38.525
-38.812
-39.027
-39.177
-39.268
-39.305
-39.295
-39.247
-39.168
-39.064
-38.945
-38.819
-38.694
-38.577
-38.479
-38.408
-38.371
-38.377
-38.434
-38.549
-38.728
-38.977
-39.3
-39.702
-40.185
-40.752
-41.404
-42.14
-42.961
-43.865
-44.849
-45.909
-47.041
-48.239
-49.499
-50.812
-52.171
-53.571
-55.001
-56.457
-57.928
-59.408
-60.89
-62.365
-63.826
-65.265
-66.676
-68.05
-69.38
-70.661
-71.886
-73.05
-74.147
-75.173
-76.126
-77.001
-77.797
-78.513
-79.148
-79.702
-80.175
-80.569
-80.885
-81.128
-81.299
-81.404
-81.445
-81.428
-81.357
-81.237
-81.072
-80.866
-80.622
-80.344
-80.035
-79.697
-79.331
-78.939
-78.523
-78.084
-77.621
-77.135
-76.626
-76.092
-75.531
-74.941
-74.32
-73.664
-72.969
-72.232
-71.448
-70.614
-69.724
-68.774
-67.76
-66.677
-65.521
-64.288
-62.973
-61.575
-60.089
-58.516
-56.855
-55.105
-53.27
-51.352
-49.358
-47.297
-45.178
-43.013
-40.814
-38.597
-36.376
-34.169
-31.991
-29.857
-27.782
-25.781
-23.872
-22.074
-20.407
-18.891
-17.543
-16.382
-15.423
-14.683
-14.173
-13.899
-13.865
-14.078
-14.55
-15.304
-16.361
-17.737
-19.443
-21.487
-23.861
-26.554
-29.544
-32.784
-36.228
-39.826
-43.529
-47.304
-51.111
-54.899
-58.607
-62.147
-65.429
-68.385
-70.944
-73.056
-74.715
-75.926
-76.74
-77.257
-77.559
-77.748
-77.96
-78.319
-78.98
-80.111
-81.836
-84.365
-87.994
-92.873
-99.014
-106.18
-113.777
-121.207
-127.984
-133.445
-136.839
-137.676
-135.821
-131.948
-127.582
-124.239
-123.103
-125.178
-131.269
-141.71
-155.997
-171.898
-185.642
-193.097
-190.036
-172.494
-136.863
-79.681
0.242
100.061
215.068
339.495
469.819
606.434
747.645
887.713
1012.779
1102.843
1141.728
1119.136
1037.823
910.647
749.039
566.733
375.972
187.423
19.831
-108.942
-190.241
-221.833
-212.788
-181.462
-141.141
-104.328
-83.549
-80.16
-93.688
-118.964
-142.409
-158.082
-164.69
-163.724
-162.447
-163.573
-165.603
-167.195
-165.996
-161.491
-155.213
-148.314
-141.675
-136.044
-131.867
-129.402
-128.745
-129.784
-132.204
-135.73
-140.194
-145.36
-150.962
-156.79
-162.6
-168.181
-173.366
-177.952
-181.775
-184.745
-186.8
-187.921
-188.127
-187.444
-185.923
-183.651
-180.706
-177.165
-173.107
-168.6
-163.728
-158.587
-153.27
-147.87
-142.454
-137.062
-131.726
-126.46
-121.268
-116.147
-111.081
-106.045
-101.022
-96.003
-90.976
-85.939
-80.88
-75.786
-70.645
-65.445
-60.177
-54.839
-49.425
-43.934
-38.369
-32.734
-27.036
-21.284
-15.485
-9.646
-3.772
2.13
8.053
13.988
19.926
25.857
31.771
37.653
43.49
49.265
54.964
60.57
66.067
71.437
76.663
81.727
86.613
91.303
95.779
100.024
104.021
107.754
111.207
114.366
117.217
119.747
121.944
123.8
125.304
126.45
127.231
127.645
127.688
127.359
126.66
125.593
124.161
122.371
120.229
117.745
114.928
111.792
108.348
104.611
100.596
96.321
91.801
87.057
82.106
76.967
71.662
66.211
60.635
54.954
49.191
43.367
37.502
31.619
25.736
19.876
14.057
8.297
2.616
-2.971
-8.447
-13.798
-19.009
-24.068
-28.962
-33.681
-38.215
-42.555
-46.694
-50.624
-54.34
-57.837
-61.111
-64.16
-66.983
-69.579
-71.948
-74.092
-76.013
-77.717
-79.207
-80.489
-81.572
-82.461
-83.168
-83.7
-84.068
-84.283
-84.354
-84.293
-84.11
-83.818
-83.427
-82.948
-82.39
-81.766
-81.083
-80.353
-79.583
-78.784
-77.962
-77.126
-76.284
-75.447
-74.622
-73.819
-73.042
-72.294
-71.58
-70.903
-70.265
-69.669
-69.114
-68.599
-68.124
-67.692
-67.306
-66.964
-66.662
-66.39
-66.14
-65.906
-65.688
-65.491
-65.317
-65.168
-65.042
-64.943
-64.875
-64.84
-64.835
-64.849
-64.865
-64.874
-64.873
-64.874
-64.893
-64.93
-64.966
-64.96
-64.863
-64.654
-64.345
-63.963
-63.521
-63.011
-62.402
-61.722
-61.081
-60.511
-59.898
-58.973
-57.436
-55.216
-52.563
-49.794
-47.009
-44.344
-42.152
-41.138
-42.17
-45.59
-50.929
-57.315
-64.177
-71.105
-77.576
-82.687
-85.22
-84.565
-81.186
-76.226
-70.578
-64.778
-59.253
-54.61
-51.806
-51.422
-53.198
-56.266
-59.867
-63.589
-67.241
-70.664
-73.467
-75.326
-76.284
-76.679
-76.838
-76.922
-76.932
-76.778
-76.466
-76.051
-75.537
-74.88
-74.017
-72.916
-71.597
-70.121
-68.536
-66.865
-65.119
-63.296
-61.407
-59.471
-57.511
-55.547
-53.604
-51.701
-49.861
-48.107
-46.463
-44.95
-43.59
-42.403
-41.408
-40.628
-40.092
-39.83
-39.871
-40.238
-40.951
-42.023
-43.463
-45.276
-47.463
-50.028
-52.982
-56.331
-60.081
-64.233
-68.785
-73.723
-79.028
-84.659
-90.563
-96.68
-102.946
-109.3
-115.69
-122.057
-128.342
-134.47
-140.351
-145.899
-151.03
-155.664
-159.728
-163.174
-165.997
-168.236
-169.993
-171.371
-172.452
-173.338
-174.146
-175.013
-176.096
-177.547
-179.466
-181.998
-185.413
-189.856
-195.312
-201.569
-208.067
-214.174
-219.394
-223.092
-224.409
-222.793
-218.126
-210.825
-202.137
-193.558
-186.264
-181.359
-180.303
-183.143
-187.694
-191.268
-189.945
-181.393
-168
-150.754
-126.565
-89.277
-26.921
70.763
203.867
367.924
552.712
742.895
927.175
1089.33
1209.565
1274.163
1270.069
1197.061
1067.248
892.083
690.047
478.491
271.554
90.159
-49.937
-142.426
-185.666
-188.824
-167.748
-133.148
-97.304
-73.379
-64.652
-73.047
-94.744
-116.309
-131.165
-137.312
-135.954
-134.752
-137.029
-141.442
-146.07
-147.777
-145.451
-140.295
-133.47
-125.951
-118.594
-112.005
-106.573
-102.475
-99.882
-98.644
-98.643
-99.946
-101.911
-103.792
-105.33
-106.205
-105.937
-104.286
-100.666
-94.413
-86.021
-76.091
-64.802
-52.556
-39.669
-26.321
-13.228
-1.129
10.12
20.664
30.49
39.767
48.379
56.158
63.306
70.038
76.291
82.096
87.476
92.395
97.025
101.557
106.115
110.842
115.866
121.267
127.119
133.48
140.355
147.741
155.59
163.824
172.354
181.061
189.861
198.69
207.479
216.164
224.669
232.922
240.888
248.551
255.894
262.906
269.572
275.88
281.848
287.506
292.886
298.025
302.943
307.642
312.131
316.409
320.47
324.307
327.901
331.223
334.252
336.972
339.366
341.422
343.123
344.446
345.373
345.886
345.972
345.62
344.824
343.576
341.878
339.733
337.148
334.134
330.701
326.86
322.624
318.004
313.015
307.674
301.998
296.006
289.721
283.164
276.363
269.345
262.137
254.769
247.269
239.667
231.993
224.277
216.547
208.833
201.163
193.567
186.071
178.702
171.486
164.446
157.605
150.982
144.596
138.462
132.596
127.008
121.709
116.705
112.002
107.605
103.513
99.728
96.247
93.065
90.176
87.572
85.243
83.177
81.362
79.782
78.422
77.264
76.291
75.483
74.821
74.284
73.849
73.497
73.204
72.949
72.711
72.466
72.196
71.88
71.5
71.039
70.48
69.81
69.018
68.094
67.032
65.825
64.47
62.964
61.307
59.501
57.547
55.447
53.204
50.825
48.318
45.696
42.971
40.158
37.275
34.342
31.38
28.415
25.468
22.56
19.713
16.951
14.302
11.796
9.458
7.304
5.345
3.593
2.05
0.716
-0.419
-1.379
-2.18
-2.839
-3.369
-3.774
-4.061
-4.233
-4.299
-4.272
-4.15
-3.913
-3.53
-2.964
-2.167
-1.093
0.32
2.15
4.456
7.273
10.623
14.506
18.906
23.795
29.14
34.904
41.03
47.434
53.99
60.545
66.937
72.993
78.529
83.339
87.235
90.075
91.746
92.167
91.298
89.115
85.596
80.736
74.54
67.035
58.326
48.57
37.933
26.614
14.827
2.815
-9.163
-20.895
-32.209
-42.968
-53.077
-62.45
-70.987
-78.596
-85.186
-90.659
-94.996
-98.229
-100.391
-101.563
-101.846
-101.366
-100.303
-98.803
-96.967
-94.872
-92.56
-90.072
-87.477
-84.841
-82.234
-79.749
-77.438
-75.327
-73.452
-71.812
-70.387
-69.141
-67.997
-66.89
-65.801
-64.725
-63.681
-62.689
-61.752
-60.876
-60.074
-59.343
-58.696
-58.15
-57.709
-57.4
-57.259
-57.324
-57.648
-58.261
-59.158
-60.321
-61.723
-63.333
-65.135
-67.099
-69.183
-71.35
-73.549
-75.731
-77.865
-79.9
-81.788
-83.495
-85.012
-86.393
-87.752
-89.212
-90.881
-92.844
-95.181
-98.004
-101.433
-105.58
-110.555
-116.411
-123.269
-131.371
-140.798
-151.473
-163.121
-175.05
-186.506
-196.914
-205.462
-211.178
-213.67
-212.854
-209.098
-204.096
-199.618
-196.839
-197.663
-202.834
-210.417
-218.755
-225.637
-229.533
-233.423
-238.139
-238.998
-226.958
-187.304
-108.829
8.865
159.342
329.862
505.743
677.029
829.821
947.138
1015.193
1019.643
958.579
842.703
683.603
498.122
300.806
102.838
-77.907
-224.47
-326.583
-381.489
-400.56
-401.505
-395.482
-387.526
-375.383
-353.446
-322.566
-287.359
-252.598
-223.53
-202.208
-188.275
-181.695
-181.39
-185.501
-192.267
-200.284
-208.369
-215.489
-220.976
-224.018
-224.197
-221.898
-217.829
-212.644
-207.114
-202.117
-198.166
-195.727
-195.068
-196
-198.23
-201.413
-205.027
-208.483
-211.409
-213.553
-214.786
-215.162
-214.706
-213.44
-211.462
-208.888
-205.805
-202.281
-198.349
-194.015
-189.326
-184.362
-179.211
-173.969
-168.696
-163.421
-158.168
-152.944
-147.756
-142.601
-137.459
-132.306
-127.123
-121.904
-116.643
-111.34
-105.98
-100.547
-95.022
-89.386
-83.625
-77.734
-71.706
-65.538
-59.233
-52.792
-46.225
-39.541
-32.749
-25.855
-18.866
-11.792
-4.641
2.573
9.836
17.133
24.447
31.759
39.048
46.294
53.473
60.566
67.548
74.399
81.094
87.612
93.929
100.025
105.876
111.461
116.758
121.747
126.409
130.724
134.675
138.247
141.425
144.196
146.549
148.474
149.964
151.013
151.617
151.776
151.49
150.761
149.596
148.001
145.986
143.562
140.743
137.543
133.98
130.07
125.832
121.286
116.454
111.355
106.013
100.449
94.686
88.747
82.657
76.437
70.111
63.702
57.232
50.724
44.198
37.675
31.175
24.718
18.322
12.003
5.778
-0.339
-6.333
-12.195
-17.912
-23.475
-28.877
-34.112
-39.172
-44.055
-48.756
-53.273
-57.605
-61.75
-65.709
-69.482
-73.071
-76.479
-79.706
-82.757
-85.635
-88.343
-90.886
-93.267
-95.49
-97.562
-99.485
-101.265
-102.907
-104.416
-105.796
-107.052
-108.188
-109.21
-110.119
-110.921
-111.618
-112.213
-112.708
-113.107
-113.411
-113.623
-113.744
-113.777
-113.724
-113.585
-113.364
-113.061
-112.679
-112.22
-111.685
-111.077
-110.399
-109.653
-108.843
-107.971
-107.042
-106.059
-105.026
-103.946
-102.825
-101.667
-100.476
-99.257
-98.016
-96.758
-95.49
-94.216
-92.943
-91.679
-90.428
-89.199
-87.997
-86.829
-85.701
-84.618
-83.589
-82.617
-81.709
-80.871
-80.106
-79.421
-78.819
-78.304
-77.879
-77.544
-77.303
-77.157
-77.104
-77.146
-77.281
-77.508
-77.824
-78.228
-78.715
-79.281
-79.922
-80.631
-81.402
-82.227
-83.099
-84.009
-84.948
-85.907
-86.875
-87.845
-88.805
-89.745
-90.656
-91.526
-92.346
-93.104
-93.791
-94.396
-94.911
-95.326
-95.633
-95.825
-95.896
-95.84
-95.651
-95.325
-94.86
-94.252
-93.502
-92.607
-91.57
-90.393
-89.08
-87.637
-86.072
-84.394
-82.612
-80.743
-78.799
-76.796
-74.753
-72.686
-70.615
-68.56
-66.539
-64.571
-62.675
-60.868
-59.171
-57.602
-56.182
-54.931
-53.867
-53.007
-52.368
-51.965
-51.808
-51.903
-52.253
-52.862
-53.737
-54.894
-56.342
-58.086
-60.126
-62.461
-65.079
-67.958
-71.065
-74.347
-77.75
-81.222
-84.715
-88.196
-91.626
-94.963
-98.15
-101.12
-103.813
-106.176
-108.168
-109.743
-110.883
-111.608
-111.981
-112.122
-112.151
-112.153
-112.204
-112.39
-112.809
-113.573
-114.794
-116.526
-118.843
-121.908
-125.809
-130.525
-135.834
-141.226
-146.123
-150.028
-152.39
-152.514
-149.897
-144.377
-136.419
-127.184
-117.832
-109.458
-103.142
-99.987
-101.132
-105.592
-109.888
-110.532
-103.513
-88.747
-70.784
-48.94
-20.487
21.65
91.568
193.264
324.87
480.624
643.703
800.898
938.318
1038.156
1088.544
1078.771
1005.898
877.287
705.201
508.284
306.294
118.86
-35.829
-145.936
-208.186
-227.756
-215.903
-187.053
-152.528
-121.586
-100.835
-90.549
-88.633
-89.055
-85.487
-76.988
-66.162
-58.784
-58.723
-65.21
-75.002
-83.832
-89.54
-92.206
-92.081
-89.202
-83.651
-75.76
-66.644
-57.849
-50.194
-43.885
-39.042
-35.796
-34.26
-34.412
-35.862
-37.905
-40.052
-42.051
-43.716
-44.936
-45.588
-45.536
-44.753
-43.316
-41.288
-38.709
-35.61
-31.996
-27.892
-23.358
-18.453
-13.244
-7.807
-2.212
3.467
9.156
14.801
20.37
25.838
31.198
36.454
41.613
46.694
51.718
56.702
61.662
66.614
71.577
76.569
81.61
86.715
91.899
97.174
102.548
108.026
113.611
119.299
125.087
130.966
136.927
142.959
149.052
155.195
161.373
167.574
173.78
179.975
186.141
192.257
198.302
204.252
210.082
215.767
221.28
226.596
231.688
236.527
241.088
245.344
249.269
252.838
256.025
258.809
261.166
263.077
264.525
265.492
265.966
265.934
265.389
264.325
262.739
260.631
258.003
254.861
251.213
247.07
242.447
237.359
231.825
225.866
219.506
212.77
205.686
198.283
190.592
182.646
174.477
166.119
157.608
148.978
140.265
131.505
122.732
113.982
105.289
96.686
88.204
79.876
71.729
63.792
56.089
48.645
41.48
34.614
28.062
21.839
15.956
10.422
5.245
0.428
-4.027
-8.12
-11.853
-15.231
-18.261
-20.95
-23.309
-25.349
-27.084
-28.527
-29.694
-30.6
-31.264
-31.702
-31.933
-31.975
-31.847
-31.567
-31.154
-30.627
-30.002
-29.298
-28.529
-27.711
-26.859
-25.985
-25.102
-24.22
-23.349
-22.496
-21.669
-20.873
-20.112
-19.39
-18.707
-18.065
-17.463
-16.901
-16.374
-15.882
-15.42
-14.984
-14.571
-14.174
-13.79
-13.412
-13.036
-12.657
-12.268
-11.867
-11.447
-11.005
-10.538
-10.042
-9.517
-8.96
-8.37
-7.748
-7.094
-6.41
-5.698
-4.961
-4.204
-3.43
-2.645
-1.856
-1.067
-0.287
0.477
1.218
1.928
2.6
3.225
3.796
4.306
4.747
5.112
5.396
5.591
5.692
5.696
5.597
5.395
5.086
4.67
4.148
3.521
2.791
1.962
1.038
0.024
-1.073
-2.246
-3.487
-4.786
-6.134
-7.518
-8.927
-10.349
-11.771
-13.18
-14.562
-15.905
-17.195
-18.418
-19.561
-20.611
-21.554
-22.378
-23.07
-23.619
-24.014
-24.246
-24.307
-24.19
-23.889
-23.4
-22.719
-21.847
-20.782
-19.527
-18.085
-16.461
-14.662
-12.698
-10.579
-8.318
-5.93
-3.434
-0.849
1.803
4.499
7.215
9.926
12.604
15.225
17.764
20.195
22.494
24.636
26.595
28.343
29.855
31.103
32.065
32.717
33.039
33.015
32.637
31.896
30.788
29.302
27.419
25.124
22.405
19.255
15.671
11.662
7.246
2.459
-2.643
-8.004
-13.564
-19.271
-25.085
-30.962
-36.853
-42.699
-48.415
-53.922
-59.148
-64.024
-68.488
-72.512
-76.112
-79.352
-82.357
-85.239
-88.084
-90.983
-94.021
-97.288
-100.883
-104.909
-109.441
-114.642
-120.776
-127.935
-136.088
-144.998
-154.031
-162.509
-169.855
-175.236
-177.681
-176.818
-172.619
-165.526
-157.336
-149.927
-144.55
-143.179
-146.477
-152.292
-158.951
-164.301
-167.005
-170.259
-174.368
-173.736
-158.296
-112.74
-26.854
98.165
254.137
427.534
605.688
781.056
942.39
1074.165
1158.829
1177.577
1123.453
1003.083
832.864
636.554
436.253
249.573
89.299
-35.059
-118.844
-161.938
-168.466
-150.548
-121.944
-97.187
-87.741
-94.562
-112.261
-129.444
-135.704
-129.025
-113.034
-95.944
-84.165
-78.517
-77.38
-78.077
-79.183
-81.138
-84.287
-88.346
-92.885
-97.58
-102.067
-105.87
-108.654
-110.184
-110.702
-111.095
-111.923
-113.346
-115.527
-118.544
-122.398
-127.061
-132.187
-137.095
-141.344
-144.733
-147.148
-148.624
-149.169
-148.752
-147.446
-145.414
-142.778
-139.627
-136.012
-131.933
-127.435
-122.606
-117.535
-112.323
-107.033
-101.7
-96.35
-90.995
-85.643
-80.294
-74.934
-69.54
-64.101
-58.609
-53.063
-47.467
-41.816
-36.102
-30.311
-24.429
-18.447
-12.361
-6.171
0.122
6.515
13
19.569
26.21
32.911
39.665
46.463
53.294
60.15
67.015
73.877
80.72
87.526
94.276
100.951
107.529
113.988
120.306
126.46
132.426
138.181
143.701
148.964
153.945
158.624
162.977
166.985
170.628
173.887
176.747
179.191
181.207
182.782
183.909
184.579
184.788
184.534
183.815
182.634
180.997
178.909
176.38
173.422
170.049
166.275
162.12
157.602
152.744
147.568
142.099
136.363
130.388
124.2
117.829
111.303
104.652
97.904
91.089
84.234
77.367
70.515
63.704
56.958
50.301
43.756
37.344
31.083
24.991
19.085
13.376
7.879
2.601
-2.448
-7.262
-11.837
-16.171
-20.261
-24.107
-27.713
-31.08
-34.213
-37.118
-39.802
-42.273
-44.54
-46.614
-48.503
-50.219
-51.773
-53.176
-54.44
-55.574
-56.591
-57.5
-58.312
-59.036
-59.683
-60.262
-60.78
-61.245
-61.663
-62.041
-62.382
-62.691
-62.97
-63.222
-63.447
-63.646
-63.821
-63.969
-64.09
-64.182
-64.244
-64.272
-64.263
-64.213
-64.119
-63.976
-63.78
-63.528
-63.215
-62.838
-62.393
-61.878
-61.29
-60.627
-59.886
-59.067
-58.169
-57.19
-56.131
-54.993
-53.778
-52.488
-51.126
-49.696
-48.202
-46.65
-45.044
-43.39
-41.694
-39.964
-38.205
-36.425
-34.632
-32.834
-31.038
-29.253
-27.488
-25.751
-24.05
-22.394
-20.789
-19.244
-17.765
-16.358
-15.03
-13.786
-12.631
-11.568
-10.602
-9.736
-8.972
-8.31
-7.752
-7.297
-6.945
-6.693
-6.54
-6.481
-6.513
-6.632
-6.832
-7.108
-7.454
-7.864
-8.329
-8.843
-9.398
-9.986
-10.598
-11.225
-11.858
-12.49
-13.111
-13.713
-14.288
-14.828
-15.327
-15.779
-16.177
-16.517
-16.795
-17.007
-17.152
-17.227
-17.232
-17.169
-17.038
-16.844
-16.589
-16.279
-15.921
-15.523
-15.095
-14.649
-14.198
-13.755
-13.335
-12.954
-12.629
-12.374
-12.205
-12.136
-12.18
-12.352
-12.669
-13.147
-13.799
-14.64
-15.682
-16.934
-18.405
-20.103
-22.026
-24.174
-26.545
-29.142
-31.976
-35.059
-38.397
-41.989
-45.832
-49.911
-54.209
-58.698
-63.333
-68.063
-72.838
-77.606
-82.331
-86.973
-91.485
-95.803
-99.845
-103.526
-106.779
-109.549
-111.791
-113.497
-114.673
-115.368
-115.681
-115.701
-115.529
-115.282
-115.076
-115.045
-115.316
-115.986
-117.202
-119.201
-122.153
-126.099
-130.848
-135.955
-140.976
-145.568
-149.299
-151.55
-151.722
-149.531
-145.47
-140.636
-136.045
-132.567
-130.886
-131.804
-136.572
-144.464
-151.607
-154.055
-148.04
-134.161
-118.694
-103.187
-83.552
-49.008
16.358
119.04
254.952
411.857
573.42
728.747
868.673
984.061
1063.372
1090.582
1057.739
965.559
822.822
649.463
463.973
283.245
125.748
2.455
-81.753
-128.502
-150.495
-161.734
-170.182
-178.969
-184.436
-181.615
-171.381
-157.435
-144.458
-136.638
-134.368
-136.17
-140.825
-146.704
-152.452
-157.036
-159.247
-158.696
-155.861
-151.468
-146.33
-141.179
-136.577
-133.09
-131.303
-131.448
-133.448
-137.076
-141.956
-147.774
-154.284
-161.21
-168.263
-175.183
-181.72
-187.66
-192.876
-197.278
-200.795
-203.4
-205.067
-205.802
-205.653
-204.688
-202.985
-200.618
-197.653
-194.156
-190.208
-185.9
-181.326
-176.579
-171.724
-166.798
-161.831
-156.837
-151.827
-146.799
-141.739
-136.621
-131.428
-126.15
-120.781
-115.321
-109.762
-104.095
-98.312
-92.407
-86.38
-80.233
-73.969
-67.596
-61.122
-54.561
-47.929
-41.244
-34.524
-27.781
-21.032
-14.292
-7.575
-0.901
5.715
12.255
18.699
25.025
31.212
37.236
43.075
48.705
54.103
59.246
64.113
68.682
72.933
76.846
80.402
83.584
86.375
88.761
90.729
92.267
93.365
94.016
94.213
93.954
93.237
92.061
90.431
88.349
85.823
82.86
79.472
75.669
71.466
66.88
61.927
56.627
51.003
45.077
38.874
32.418
25.737
18.857
11.804
4.608
-2.706
-10.11
-17.577
-25.08
-32.594
-40.093
-47.553
-54.952
-62.266
-69.476
-76.562
-83.507
-90.294
-96.908
-103.336
-109.565
-115.586
-121.389
-126.965
-132.309
-137.416
-142.283
-146.907
-151.289
-155.428
-159.328
-162.991
-166.422
-169.626
-172.608
-175.376
-177.937
-180.299
-182.468
-184.455
-186.267
-187.913
-189.402
-190.742
-191.942
-193.009
-193.951
-194.775
-195.488
-196.097
-196.607
-197.024
-197.355
-197.605
-197.777
-197.879
-197.913
-197.884
-197.796
-197.654
-197.46
-197.217
-196.929
-196.598
-196.229
-195.822
-195.382
-194.912
-194.413
-193.889
-193.344
-192.779
-192.199
-191.606
-191.005
-190.399
-189.793
-189.19
-188.597
-188.018
-187.458
-186.923
-186.418
-185.949
-185.522
-185.141
-184.812
-184.54
-184.329
-184.184
-184.109
-184.108
-184.185
-184.342
-184.582
-184.906
-185.316
-185.812
-186.394
-187.063
-187.816
-188.652
-189.569
-190.564
-191.635
-192.776
-193.983
-195.251
-196.574
-197.944
-199.354
-200.796
-202.261
-203.739
-205.222
-206.7
-208.161
-209.596
-210.995
-212.345
-213.637
-214.86
-216.002
-217.053
-218.002
-218.84
-219.556
-220.142
-220.59
-220.891
-221.039
-221.027
-220.848
-220.498
-219.971
-219.264
-218.372
-217.293
-216.027
-214.574
-212.933
-211.108
-209.101
-206.917
-204.561
-202.04
-199.361
-196.533
-193.565
-190.469
-187.258
-183.945
-180.544
-177.072
-173.548
-169.991
-166.421
-162.86
-159.33
-155.851
-152.447
-149.14
-145.948
-142.89
-139.985
-137.251
-134.705
-132.368
-130.258
-128.392
-126.786
-125.453
-124.407
-123.656
-123.201
-123.043
-123.181
-123.616
-124.36
-125.423
-126.81
-128.522
-130.559
-132.908
-135.55
-138.451
-141.556
-144.811
-148.158
-151.544
-154.93
-158.272
-161.523
-164.625
-167.503
-170.086
-172.313
-174.128
-175.475
-176.33
-176.718
-176.706
-176.419
-175.979
-175.471
-174.989
-174.653
-174.588
-174.924
-175.791
-177.255
-179.45
-182.65
-186.978
-192.37
-198.557
-204.915
-210.782
-215.692
-218.995
-219.777
-217.562
-212.45
-205.047
-196.836
-189.446
-183.92
-181.476
-183.89
-190.647
-198.576
-204.679
-204.564
-197.661
-189.01
-178.368
-161.011
-126.575
-59.093
47.548
188.481
351.546
518.776
677.727
820.832
939.171
1023.596
1060.828
1037.789
951.323
805.631
614.101
398.421
180.318
-16.916
-173.693
-281.269
-340.371
-362.099
-359.584
-339.898
-306.35
-259.866
-206.639
-160.618
-132.578
-127.067
-139.144
-155.207
-167.026
-172.16
-172.272
-173.468
-177.342
-182.307
-187.01
-188.655
-185.926
-179.547
-170.27
-159.434
-148.834
-139.269
-130.888
-123.863
-118.199
-113.798
-110.64
-108.4
-106.338
-103.942
-100.894
-96.905
-91.897
-85.802
-78.467
-69.834
-59.968
-48.941
-36.894
-24.016
-10.404
3.836
18.591
