Name
Date of Birth,"Mar 27, 1959"
Recorded Date,2022-08-07 16:00:30 -0500
Classification,Sinus Rhythm
Symptoms,
Software Version,1.90
Device,"Watch4,2"
Sample Rate,510.227 hertz


Lead,Lead I
Unit,µV

-187.449
-258.908
-305.752
-316.462
-291.09
-235.787
-159.658
-71.967
23.269
124.349
231.902
347.935
471.426
598.134
717.743
814.806
873.113
879.198
829.076
727.298
585.557
421.428
251.885
94.069
-37.263
-134.371
-195.74
-226.465
-235.124
-229.378
-213.889
-192.028
-168.728
-148.801
-136.567
-133.449
-135.267
-137.626
-138.372
-137.694
-139.093
-144.804
-154.224
-165.315
-175.023
-181.596
-184.739
-184.654
-181.968
-177.231
-170.984
-164.068
-157.327
-151.266
-146.187
-142.182
-139.179
-137.085
-135.708
-134.734
-133.812
-132.715
-131.341
-129.628
-127.548
-125.09
-122.265
-119.164
-115.956
-112.776
-109.719
-106.854
-104.21
-101.826
-99.757
-98.015
-96.577
-95.394
-94.374
-93.466
-92.657
-91.912
-91.187
-90.404
-89.44
-88.203
-86.63
-84.662
-82.257
-79.379
-75.991
-72.097
-67.737
-62.973
-57.891
-52.548
-46.972
-41.196
-35.248
-29.166
-23.005
-16.798
-10.555
-4.297
1.962
8.204
14.405
20.564
26.698
32.829
38.984
45.178
51.407
57.668
63.953
70.25
76.546
82.817
89.031
95.16
101.178
107.063
112.795
118.348
123.692
128.796
133.633
138.176
142.404
146.295
149.828
152.986
155.757
158.129
160.098
161.655
162.795
163.512
163.802
163.664
163.098
162.107
160.692
158.86
156.62
153.983
150.962
147.573
143.832
139.76
135.375
130.7
125.757
120.57
115.162
109.56
103.788
97.873
91.839
85.713
79.52
73.287
67.038
60.797
54.589
48.434
42.357
36.377
30.514
24.788
19.216
13.813
8.596
3.577
-1.231
-5.818
-10.174
-14.294
-18.172
-21.803
-25.187
-28.322
-31.209
-33.851
-36.251
-38.412
-40.341
-42.043
-43.525
-44.796
-45.863
-46.735
-47.423
-47.936
-48.285
-48.481
-48.533
-48.454
-48.255
-47.946
-47.54
-47.045
-46.474
-45.835
-45.14
-44.397
-43.614
-42.8
-41.963
-41.108
-40.241
-39.368
-38.494
-37.621
-36.754
-35.895
-35.047
-34.211
-33.389
-32.582
-31.791
-31.018
-30.261
-29.523
-28.803
-28.101
-27.417
-26.751
-26.102
-25.471
-24.857
-24.259
-23.677
-23.111
-22.56
-22.026
-21.508
-21.007
-20.525
-20.063
-19.622
-19.206
-18.817
-18.458
-18.133
-17.845
-17.599
-17.397
-17.246
-17.149
-17.11
-17.133
-17.224
-17.384
-17.619
-17.931
-18.323
-18.796
-19.354
-19.998
-20.728
-21.545
-22.45
-23.441
-24.519
-25.682
-26.927
-28.251
-29.651
-31.12
-32.655
-34.247
-35.89
-37.574
-39.291
-41.03
-42.781
-44.532
-46.272
-47.988
-49.667
-51.295
-52.859
-54.345
-55.738
-57.025
-58.192
-59.226
-60.116
-60.849
-61.415
-61.803
-62.005
-62.011
-61.815
-61.409
-60.787
-59.946
-58.884
-57.6
-56.096
-54.374
-52.441
-50.305
-47.979
-45.475
-42.807
-39.991
-37.046
-33.991
-30.85
-27.646
-24.403
-21.145
-17.898
-14.69
-11.548
-8.502
-5.577
-2.797
-0.184
2.239
4.45
6.424
8.145
9.601
10.783
11.678
12.267
12.533
12.465
12.058
11.312
10.232
8.825
7.104
5.1
2.848
0.387
-2.233
-4.982
-7.836
-10.772
-13.773
-16.798
-19.784
-22.676
-25.419
-27.956
-30.292
-32.42
-34.316
-36.072
-37.818
-39.733
-42.138
-45.29
-49.237
-54.029
-59.675
-65.972
-72.791
-79.837
-86.369
-91.716
-95.451
-97.199
-96.906
-94.847
-91.046
-85.776
-80.013
-74.85
-71.464
-70.991
-73.935
-80.218
-89.808
-102.455
-117.173
-132.089
-144.61
-151.076
-147.119
-130.264
-98.941
-52.584
5.965
75.655
157.435
250.876
358.319
479.665
608.553
737.903
855.844
947.349
1000.552
1004.111
951.403
844.819
692.715
510.705
321.105
145.424
1.624
-98.446
-155.886
-177.902
-172.842
-152.391
-122.597
-89.663
-64.458
-51.204
-52.34
-65.495
-79.812
-90.03
-94.93
-95.454
-97.238
-101.949
-107.895
-113.72
-117.037
-116.865
-113.848
-108.604
-102.146
-95.764
-90.35
-86.363
-83.995
-83.228
-84.023
-86.354
-90.043
-94.657
-99.762
-105.072
-110.374
-115.543
-120.433
-124.822
-128.563
-131.601
-133.916
-135.511
-136.386
-136.522
-135.933
-134.676
-132.81
-130.404
-127.522
-124.215
-120.549
-116.601
-112.445
-108.16
-103.802
-99.405
-94.991
-90.573
-86.152
-81.726
-77.286
-72.811
-68.284
-63.694
-59.03
-54.288
-49.461
-44.538
-39.511
-34.372
-29.118
-23.748
-18.263
-12.667
-6.965
-1.166
4.72
10.679
16.7
22.773
28.887
35.03
41.191
47.357
53.515
59.651
65.749
71.794
77.766
83.647
89.418
95.06
100.553
105.876
111.01
115.936
120.634
125.086
129.273
133.178
136.785
140.077
143.041
145.663
147.931
149.836
151.368
152.521
153.29
153.669
153.659
153.257
152.465
151.286
149.724
147.785
145.476
142.807
139.788
136.431
132.752
128.764
124.485
119.933
115.126
110.085
104.83
99.382
93.764
87.997
82.103
76.106
70.027
63.889
57.712
51.519
45.329
39.161
33.036
26.969
20.978
15.078
9.284
3.609
-1.934
-7.334
-12.58
-17.663
-22.576
-27.31
-31.86
-36.222
-40.39
-44.363
-48.139
-51.718
-55.099
-58.284
-61.275
-64.075
-66.689
-69.12
-71.374
-73.456
-75.373
-77.131
-78.737
-80.198
-81.52
-82.709
-83.773
-84.717
-85.548
-86.271
-86.893
-87.418
-87.851
-88.199
-88.464
-88.653
-88.769
-88.817
-88.801
-88.724
-88.59
-88.404
-88.167
-87.884
-87.558
-87.191
-86.787
-86.348
-85.876
-85.373
-84.843
-84.286
-83.705
-83.102
-82.479
-81.838
-81.182
-80.514
-79.835
-79.151
-78.464
-77.777
-77.096
-76.423
-75.763
-75.121
-74.5
-73.905
-73.34
-72.811
-72.321
-71.873
-71.474
-71.124
-70.829
-70.59
-70.411
-70.294
-70.24
-70.252
-70.33
-70.476
-70.691
-70.974
-71.325
-71.743
-72.227
-72.775
-73.384
-74.052
-74.773
-75.544
-76.359
-77.213
-78.101
-79.015
-79.948
-80.894
-81.844
-82.789
-83.72
-84.63
-85.507
-86.343
-87.128
-87.853
-88.509
-89.088
-89.581
-89.979
-90.274
-90.46
-90.529
-90.474
-90.29
-89.97
-89.511
-88.909
-88.162
-87.267
-86.225
-85.034
-83.696
-82.214
-80.592
-78.831
-76.939
-74.921
-72.784
-70.537
-68.191
-65.755
-63.244
-60.673
-58.058
-55.417
-52.767
-50.127
-47.518
-44.957
-42.463
-40.053
-37.741
-35.545
-33.478
-31.561
-29.807
-28.232
-26.848
-25.666
-24.695
-23.945
-23.421
-23.122
-23.045
-23.191
-23.564
-24.181
-25.053
-26.184
-27.573
-29.214
-31.094
-33.201
-35.505
-37.96
-40.516
-43.12
-45.725
-48.301
-50.81
-53.196
-55.398
-57.332
-58.922
-60.118
-60.879
-61.176
-61.004
-60.378
-59.347
-58.007
-56.468
-54.844
-53.258
-51.819
-50.638
-49.827
-49.523
-49.926
-51.185
-53.323
-56.216
-59.559
-63.006
-66.253
-68.905
-70.398
-70.262
-68.265
-64.658
-60.235
-55.799
-52.102
-49.938
-49.979
-52.949
-58.583
-64.661
-68.451
-67.116
-59.175
-46.291
-29.247
-5.954
27.833
79.909
156.681
257.683
378.644
511.588
645.829
774.094
888.356
977.378
1030.249
1034.566
981.755
872.88
716.723
530.699
337.845
159.589
14.397
-86.446
-142.521
-158.619
-145.254
-116.622
-83.195
-55.883
-42.354
-42.05
-51.841
-63.418
-67.29
-61.161
-46.848
-30.053
-17.691
-11.76
-11.21
-14.049
-18.093
-22.827
-28.443
-34.36
-39.752
-44.075
-47.115
-49.019
-49.966
-50.014
-49.297
-48.324
-47.839
-48.272
-49.724
-52.076
-55.054
-58.443
-62.061
-65.621
-68.768
-71.278
-73.057
-74.101
-74.498
-74.318
-73.599
-72.405
-70.808
-68.867
-66.635
-64.161
-61.486
-58.669
-55.781
-52.872
-49.981
-47.132
-44.332
-41.583
-38.88
-36.204
-33.534
-30.855
-28.158
-25.433
-22.675
-19.868
-16.997
-14.046
-10.999
-7.84
-4.555
-1.134
2.432
6.147
10.012
14.025
18.184
22.486
26.928
31.509
36.225
41.069
46.036
51.117
56.303
61.581
66.937
72.355
77.815
83.301
88.792
94.267
99.704
105.082
110.376
115.564
120.621
125.525
130.25
134.772
139.069
143.116
146.892
150.374
153.543
156.379
158.865
160.984
162.725
164.073
165.02
165.557
165.678
165.38
164.662
163.524
161.97
160.004
157.635
154.873
151.731
148.223
144.364
140.174
135.671
130.878
125.815
120.508
114.98
109.256
103.364
97.33
91.181
84.946
78.651
72.324
65.993
59.684
53.425
47.239
41.151
35.186
29.364
23.707
18.233
12.962
7.909
3.089
-1.486
-5.804
-9.856
-13.634
-17.133
-20.348
-23.278
-25.921
-28.279
-30.353
-32.148
-33.668
-34.92
-35.911
-36.65
-37.147
-37.413
-37.459
-37.298
-36.943
-36.408
-35.707
-34.854
-33.865
-32.754
-31.536
-30.226
-28.84
-27.39
-25.891
-24.358
-22.802
-21.237
-19.674
-18.123
-16.597
-15.103
-13.652
-12.25
-10.906
-9.626
-8.416
-7.282
-6.228
-5.259
-4.377
-3.586
-2.889
-2.286
-1.779
-1.37
-1.057
-0.84
-0.72
-0.694
-0.76
-0.918
-1.164
-1.497
-1.912
-2.408
-2.982
-3.63
-4.349
-5.136
-5.988
-6.901
-7.874
-8.903
-9.984
-11.116
-12.294
-13.517
-14.781
-16.083
-17.419
-18.785
-20.178
-21.593
-23.027
-24.475
-25.932
-27.394
-28.855
-30.312
-31.759
-33.19
-34.601
-35.986
-37.341
-38.659
-39.934
-41.161
-42.333
-43.446
-44.492
-45.467
-46.365
-47.179
-47.903
-48.533
-49.062
-49.485
-49.797
-49.993
-50.07
-50.022
-49.849
-49.548
-49.118
-48.558
-47.87
-47.054
-46.114
-45.054
-43.875
-42.584
-41.187
-39.691
-38.103
-36.433
-34.69
-32.886
-31.036
-29.154
-27.255
-25.356
-23.474
-21.625
-19.828
-18.098
-16.45
-14.899
-13.459
-12.147
-10.979
-9.972
-9.139
-8.493
-8.047
-7.81
-7.79
-7.995
-8.42
-9.064
-9.93
-11.021
-12.352
-13.934
-15.767
-17.852
-20.179
-22.738
-25.511
-28.471
-31.569
-34.76
-37.996
-41.238
-44.46
-47.628
-50.693
-53.6
-56.278
-58.66
-60.705
-62.376
-63.643
-64.505
-64.98
-65.117
-65.008
-64.745
-64.419
-64.13
-63.974
-64.051
-64.453
-65.286
-66.701
-68.802
-71.614
-75.031
-78.751
-82.426
-85.748
-88.335
-89.707
-89.488
-87.462
-83.818
-79.371
-74.967
-71.247
-68.989
-68.918
-71.561
-77.445
-85.099
-90.869
-91.755
-84.735
-69.785
-50.756
-27.538
1.919
42.853
105.741
193.528
303.996
431.342
562.113
686.483
794.758
874.719
916.094
906.956
841.33
722.216
561.127
378.891
197.681
38.132
-84.08
-162.225
-196.817
-193.686
-162.837
-116.344
-65.601
-23.208
1.003
5.252
-7.486
-27.693
-44.477
-54.478
-57.962
-58.666
-61.841
-67.756
-74.8
-81.368
-85.049
-85.14
-82.426
-77.585
-71.773
-66.372
-61.942
-58.69
-56.841
-56.433
-57.461
-59.92
-63.535
-67.8
-72.382
-77.076
-81.698
-86.145
-90.262
-93.88
-96.928
-99.4
-101.302
-102.637
-103.397
-103.564
-103.159
-102.222
-100.797
-98.93
-96.664
-94.045
-91.132
-87.988
-84.68
-81.256
-77.748
-74.177
-70.552
-66.875
-63.142
-59.344
-55.461
-51.48
-47.386
-43.17
-38.824
-34.34
-29.71
-24.924
-19.976
-14.862
-9.579
-4.129
1.484
7.254
13.173
19.228
25.407
31.695
38.079
44.545
51.079
57.666
64.29
70.934
77.58
84.21
90.804
97.338
103.792
110.142
116.364
122.435
128.332
134.03
139.508
144.741
149.709
154.39
158.763
162.808
166.506
169.841
172.795
175.355
177.506
179.238
180.541
181.408
181.831
181.809
181.337
180.418
179.052
177.243
174.998
172.324
169.23
165.729
161.835
157.562
152.93
147.957
142.663
137.072
131.206
125.088
118.745
112.201
105.482
98.615
91.627
84.543
77.392
70.198
62.989
55.79
48.626
41.521
34.499
27.582
20.791
14.147
7.668
1.372
-4.725
-10.608
-16.264
-21.681
-26.849
-31.761
-36.409
-40.79
-44.9
-48.739
-52.306
-55.605
-58.638
-61.411
-63.929
-66.201
-68.234
-70.037
-71.622
-72.998
-74.179
-75.176
-76.002
-76.671
-77.195
-77.589
-77.867
-78.041
-78.126
-78.135
-78.082
-77.979
-77.839
-77.673
-77.494
-77.311
-77.136
-76.976
-76.84
-76.734
-76.665
-76.638
-76.657
-76.723
-76.841
-77.01
-77.232
-77.506
-77.831
-78.206
-78.628
-79.094
-79.602
-80.148
-80.728
-81.337
-81.973
-82.631
-83.306
-83.995
-84.693
-85.397
-86.101
-86.803
-87.497
-88.181
-88.851
-89.505
-90.138
-90.751
-91.34
-91.906
-92.446
-92.962
-93.452
-93.918
-94.361
-94.782
-95.183
-95.564
-95.929
-96.28
-96.619
-96.949
-97.271
-97.588
-97.902
-98.214
-98.525
-98.835
-99.145
-99.454
-99.762
-100.067
-100.369
-100.666
-100.955
-101.236
-101.504
-101.756
-101.99
-102.201
-102.385
-102.537
-102.652
-102.728
-102.759
-102.741
-102.669
-102.54
-102.349
-102.095
-101.773
-101.38
-100.914
-100.374
-99.758
-99.066
-98.299
-97.46
-96.552
-95.583
-94.561
-93.493
-92.39
-91.263
-90.123
-88.983
-87.854
-86.746
-85.67
-84.637
-83.659
-82.752
-81.93
-81.207
-80.594
-80.103
-79.745
-79.533
-79.473
-79.567
-79.815
-80.224
-80.803
-81.572
-82.55
-83.743
-85.157
-86.791
-88.642
-90.7
-92.946
-95.337
-97.83
-100.383
-102.955
-105.527
-108.068
-110.531
-112.856
-114.972
-116.813
-118.34
-119.525
-120.339
-120.773
-120.843
-120.596
-120.125
-119.536
-118.929
-118.404
-118.065
-118.025
-118.412
-119.377
-121.105
-123.709
-127.182
-131.384
-136.02
-140.723
-145.125
-148.773
-151.111
-151.742
-150.538
-147.789
-144.287
-140.963
-138.694
-138.266
-140.224
-144.95
-152.469
-161.666
-170.537
-175.921
-173.351
-159.989
-134.208
-95.424
-46.266
12.565
82.47
163.717
259.259
369.136
488.181
610.373
723.463
812.718
864.075
863.749
807.192
698.248
549.286
380.581
211.09
58.748
-62.321
-145.273
-187.782
-194.465
-176.536
-147.778
-121.419
-105.993
-102.704
-106.205
-108.555
-104.308
-92.77
-78.044
-66.571
-62.004
-64.547
-72.006
-80.698
-88.379
-94.218
-97.766
-98.994
-97.887
-94.488
-89.318
-83.181
-76.839
-71.062
-66.372
-63.061
-61.303
-61.062
-62.151
-64.294
-67.145
-70.285
-73.398
-76.259
-78.675
-80.577
-81.928
-82.689
-82.878
-82.535
-81.685
-80.362
-78.604
-76.428
-73.865
-70.966
-67.775
-64.357
-60.78
-57.101
-53.381
-49.663
-45.971
-42.324
-38.73
-35.188
-31.692
-28.232
-24.789
-21.35
-17.906
-14.444
-10.956
-7.426
-3.84
-0.188
3.543
7.359
11.263
15.26
19.351
23.532
27.801
32.151
36.575
41.067
45.618
50.223
54.872
59.556
64.263
68.982
73.701
78.405
83.077
87.702
92.26
96.733
101.102
105.348
109.449
113.387
117.141
120.693
124.023
127.113
129.944
132.5
134.765
136.723
138.362
139.669
140.633
141.246
141.5
141.389
140.911
140.061
138.842
137.253
135.3
132.987
130.322
127.315
123.976
120.32
116.362
112.118
107.607
102.848
97.864
92.676
87.307
81.781
76.123
70.357
64.508
58.602
52.663
46.715
40.784
34.892
29.062
23.317
17.677
12.161
6.79
1.58
-3.453
-8.294
-12.93
-17.348
-21.54
-25.496
-29.209
-32.675
-35.89
-38.851
-41.559
-44.015
-46.221
-48.182
-49.902
-51.389
-52.65
-53.694
-54.531
-55.172
-55.628
-55.91
-56.032
-56.006
-55.845
-55.562
-55.17
-54.683
-54.112
-53.472
-52.774
-52.03
-51.252
-50.45
-49.637
-48.82
-48.01
-47.215
-46.442
-45.699
-44.991
-44.324
-43.703
-43.131
-42.611
-42.147
-41.738
-41.387
-41.093
-40.856
-40.675
-40.547
-40.472
-40.445
-40.464
-40.527
-40.628
-40.766
-40.935
-41.133
-41.355
-41.597
-41.856
-42.128
-42.408
-42.695
-42.983
-43.271
-43.555
-43.833
-44.101
-44.359
-44.604
-44.833
-45.046
-45.241
-45.417
-45.573
-45.708
-45.821
-45.913
-45.982
-46.03
-46.057
-46.061
-46.045
-46.009
-45.953
-45.876
-45.781
-45.665
-45.53
-45.374
-45.197
-44.997
-44.773
-44.522
-44.243
-43.933
-43.59
-43.211
-42.792
-42.331
-41.823
-41.265
-40.653
-39.984
-39.253
-38.456
-37.59
-36.652
-35.638
-34.545
-33.37
-32.11
-30.763
-29.326
-27.799
-26.178
-24.465
-22.658
-20.759
-18.769
-16.692
-14.532
-12.298
-9.998
-7.64
-5.237
-2.8
-0.342
2.125
4.586
7.031
9.447
11.823
14.143
16.391
18.551
20.609
22.55
24.359
26.023
27.529
28.866
30.03
31.017
31.817
32.419
32.798
32.936
32.819
32.44
31.794
30.886
29.722
28.321
26.726
24.976
23.115
21.181
19.197
17.195
15.216
13.317
11.571
10.041
8.775
7.808
7.163
6.846
6.84
7.09
7.502
7.97
8.382
8.631
8.609
8.195
7.297
5.784
3.47
0.24
-3.965
-9.065
-14.745
-20.664
-26.533
-31.943
-36.375
-39.393
-40.619
-40.123
-38.671
-37.001
-35.661
-35.284
-36.452
-39.673
-45.4
-52.417
-57.432
-57.55
-50.881
-37.852
-20.554
1.629
33.354
82.025
153.116
246.767
356.38
471.21
583.591
688.951
784.52
866.871
927.31
954.335
938.625
877.225
774.56
641.572
492.849
342.402
204.371
90.64
7.322
-44.246
-69.258
-76.626
-73.08
-64.312
-53.944
-43.356
-35.775
-31.983
-29.177
-25.472
-17.991
-6.604
4.296
12.029
15.194
13.876
10.382
5.714
-0.15
-6.92
-14.091
-20.697
-25.917
-29.58
-31.87
-32.915
-32.788
-31.667
-30.083
-28.849
-28.48
-29.125
-30.727
-33.071
-35.987
-39.323
-42.767
-45.915
-48.519
-50.463
-51.732
-52.419
-52.573
-52.217
-51.416
-50.244
-48.76
-47.018
-45.044
-42.856
-40.496
-38.018
-35.479
-32.926
-30.384
-27.864
-25.371
-22.901
-20.446
-17.993
-15.525
-13.027
-10.49
-7.905
-5.264
-2.557
0.229
3.107
6.091
9.194
12.424
15.786
19.283
22.913
26.673
30.559
34.565
38.682
42.906
47.227
51.639
56.13
60.691
65.307
69.965
74.647
79.336
84.013
88.657
93.247
97.761
102.178
106.474
110.626
114.612
118.409
121.994
125.346
128.442
131.263
133.79
136.004
137.89
139.432
140.618
141.436
141.877
141.932
141.597
140.868
139.743
138.223
136.31
134.009
131.326
128.271
124.854
121.089
116.989
112.572
107.856
102.861
97.608
92.118
86.417
80.528
74.476
68.287
61.987
55.602
49.157
42.679
36.193
29.724
23.295
16.93
10.652
4.482
-1.559
-7.453
-13.181
-18.727
-24.074
-29.21
-34.121
-38.797
-43.229
-47.408
-51.329
-54.986
-58.376
-61.498
-64.351
-66.937
-69.257
-71.316
-73.118
-74.67
-75.978
-77.051
-77.897
-78.526
-78.949
-79.175
-79.216
-79.083
-78.788
-78.343
-77.76
-77.051
-76.229
-75.306
-74.295
-73.206
-72.052
-70.845
-69.595
-68.313
-67.009
-65.694
-64.376
-63.064
-61.766
-60.49
-59.244
-58.033
-56.865
-55.744
-54.675
-53.664
-52.713
-51.827
-51.009
-50.26
-49.584
-48.983
-48.459
-48.011
-47.641
-47.35
-47.138
-47.003
-46.945
-46.963
-47.056
-47.222
-47.459
-47.765
-48.138
-48.576
-49.076
-49.636
-50.253
-50.924
-51.646
-52.416
-53.231
-54.088
-54.982
-55.911
-56.871
-57.858
-58.867
-59.894
-60.935
-61.985
-63.039
-64.092
-65.138
-66.173
-67.191
-68.189
-69.159
-70.098
-71
-71.86
-72.674
-73.435
-74.138
-74.778
-75.35
-75.848
-76.267
-76.602
-76.848
-77.001
-77.055
-77.007
-76.852
-76.586
-76.206
-75.709
-75.091
-74.352
-73.489
-72.502
-71.392
-70.159
-68.804
-67.331
-65.742
-64.04
-62.231
-60.318
-58.309
-56.209
-54.026
-51.768
-49.446
-47.072
-44.661
-42.225
-39.78
-37.343
-34.93
-32.558
-30.245
-28.004
-25.853
-23.805
-21.877
-20.085
-18.449
-16.983
-15.703
-14.625
-13.761
-13.123
-12.723
-12.562
-12.643
-12.969
-13.545
-14.386
-15.503
-16.902
-18.587
-20.559
-22.808
-25.325
-28.084
-31.046
-34.168
-37.404
-40.713
-44.062
-47.417
-50.735
-53.964
-57.039
-59.896
-62.488
-64.769
-66.7
-68.268
-69.47
-70.35
-70.992
-71.471
-71.873
-72.287
-72.793
-73.509
-74.553
-76.018
-78.029
-80.732
-84.217
-88.518
-93.528
-98.916
-104.303
-109.321
-113.495
-116.325
-117.413
-116.508
-113.816
-110.128
-106.306
-103.07
-101.225
-101.477
-104.279
-109.992
-117.177
-122.42
-122.755
-115.057
-98.717
-76.367
-47.552
-10.732
38.11
107.233
198.576
310.52
438.257
569.005
692.627
797.821
871.69
908.212
901.377
851.372
765.076
647.264
507.518
356.33
203.909
67.064
-39.871
-109.432
-139.296
-137.841
-119.556
-95.941
-77.605
-70.262
-71.682
-78.092
-83.289
-81.772
-73.707
-62.345
-52.931
-49.243
-51.535
-58.097
-66.094
-73.889
-81.066
-87.033
-91.444
-94.085
-94.732
-93.656
-91.443
-88.463
-85.172
-82.3
-80.359
-79.622
-80.222
-81.999
-84.686
-88.086
-91.892
-95.664
-99.067
-101.89
-104.011
-105.446
-106.223
-106.333
-105.811
-104.722
-103.129
-101.085
-98.632
-95.784
-92.574
-89.06
-85.314
-81.417
-77.444
-73.446
-69.457
-65.501
-61.592
-57.738
-53.937
-50.18
-46.449
-42.732
-39.022
-35.313
-31.6
-27.87
-24.11
-20.304
-16.437
-12.5
-8.485
-4.386
-0.201
4.072
8.433
12.878
17.401
21.998
26.666
31.399
36.195
41.046
45.945
50.884
55.853
60.841
65.834
70.819
75.779
80.696
85.553
90.332
95.012
99.575
103.999
108.264
112.35
116.235
119.9
123.325
126.489
129.374
131.963
134.238
136.185
137.787
139.034
139.915
140.418
140.538
140.268
139.604
138.544
137.087
135.236
132.993
130.365
127.359
123.985
120.255
116.184
111.787
107.081
102.086
96.822
91.31
85.574
79.636
73.522
67.257
60.866
54.375
47.812
41.201
34.569
27.942
21.345
14.803
8.338
1.973
-4.269
-10.369
-16.307
-22.065
-27.627
-32.976
-38.101
-42.987
-47.626
-52.008
-56.126
-59.975
-63.551
-66.853
-69.879
-72.631
-75.111
-77.323
-79.272
-80.965
-82.41
-83.614
-84.59
-85.346
-85.894
-86.248
-86.418
-86.419
-86.263
-85.965
-85.536
-84.991
-84.343
-83.604
-82.788
-81.906
-80.97
-79.992
-78.982
-77.951
-76.906
-75.858
-74.813
-73.778
-72.76
-71.764
-70.795
-69.856
-68.95
-68.08
-67.247
-66.452
-65.695
-64.976
-64.293
-63.644
-63.027
-62.44
-61.878
-61.339
-60.819
-60.314
-59.821
-59.335
-58.854
-58.372
-57.887
-57.394
-56.892
-56.376
-55.843
-55.292
-54.721
-54.127
-53.509
-52.866
-52.198
-51.503
-50.781
-50.032
-49.257
-48.455
-47.628
-46.777
-45.903
-45.008
-44.093
-43.161
-42.214
-41.253
-40.283
-39.304
-38.319
-37.33
-36.341
-35.352
-34.366
-33.384
-32.408
-31.44
-30.479
-29.527
-28.583
-27.647
-26.718
-25.795
-24.876
-23.961
-23.046
-22.131
-21.213
-20.29
-19.36
-18.419
-17.466
-16.498
-15.511
-14.503
-13.471
-12.413
-11.326
-10.208
-9.057
-7.871
-6.649
-5.389
-4.092
-2.755
-1.378
0.037
1.49
2.978
4.5
6.049
7.62
9.204
10.791
12.371
13.933
15.466
16.959
18.398
19.769
21.062
22.262
23.354
24.327
25.163
25.847
26.366
26.71
26.871
26.843
26.618
26.19
25.555
24.709
23.653
22.382
20.886
19.162
17.207
15.024
12.624
10.018
7.22
4.253
1.148
-2.065
-5.349
-8.664
-11.976
-15.245
-18.439
-21.522
-24.464
-27.232
-29.788
-32.096
-34.118
-35.827
-37.248
-38.416
-39.341
-40.116
-40.901
-41.906
-43.506
-46.036
-49.561
-54.14
-59.84
-66.415
-73.564
-80.751
-86.835
-90.828
-92.289
-90.881
-86.567
-79.905
-71.345
-61.855
-53.529
-48.218
-47.239
-51.566
-61.109
-75.111
-93.042
-113.416
-133.146
-148.316
-154.201
-146.719
-123.936
-86.682
-36.762
24.252
94.956
177.836
275.318
387.596
514.427
648.11
776.934
887.568
962.722
989.61
960.76
875.589
744.405
583.235
412.505
251.974
116.193
15.296
-49.335
-81.187
-87.324
-79.734
-67.578
-59.192
-60.204
-69.101
-82.944
-96.212
-103.478
-104.32
-100.461
-95.569
-92.978
-93.025
-94.53
-95.928
-96.517
-96.571
-96.723
-97.408
-98.358
-99.375
-100.436
-101.262
-101.686
-101.64
-101.007
-100.037
-99.274
-98.987
-99.321
-100.444
-102.335
-104.943
-108.182
-111.745
-115.209
-118.278
-120.765
-122.564
-123.676
-124.101
-123.84
-122.95
-121.523
-119.639
-117.362
-114.732
-111.768
-108.505
-105.003
-101.328
-97.549
-93.729
-89.907
-86.103
-82.33
-78.592
-74.88
-71.184
-67.486
-63.761
-59.993
-56.171
-52.286
-48.329
-44.286
-40.142
-35.881
-31.49
-26.96
-22.285
-17.463
-12.494
-7.378
-2.121
3.27
8.786
14.419
20.16
26
31.929
37.935
44.002
50.115
56.256
62.407
68.545
74.649
80.693
86.654
92.505
98.222
103.777
109.145
114.299
119.216
123.868
128.234
132.29
136.015
139.389
142.393
145.012
147.23
149.035
150.415
151.364
151.873
151.939
151.56
150.736
149.469
147.765
145.63
143.074
140.108
136.746
133.004
128.901
124.456
119.691
114.63
109.297
103.718
97.919
91.928
85.772
79.479
73.077
66.592
60.053
53.484
46.913
40.364
33.86
27.424
21.078
14.842
8.734
2.772
-3.027
-8.65
-14.082
-19.313
-24.333
-29.132
-33.704
-38.044
-42.147
-46.012
-49.638
-53.026
-56.178
-59.096
-61.786
-64.252
-66.501
-68.54
-70.376
-72.018
-73.474
-74.753
-75.864
-76.816
-77.618
-78.28
-78.811
-79.218
-79.511
-79.699
-79.788
-79.788
-79.705
-79.547
-79.321
-79.034
-78.692
-78.301
-77.865
-77.391
-76.881
-76.341
-75.772
-75.18
-74.566
-73.932
-73.281
-72.616
-71.936
-71.244
-70.541
-69.827
-69.104
-68.373
-67.633
-66.886
-66.133
-65.375
-64.612
-63.847
-63.079
-62.311
-61.544
-60.777
-60.014
-59.255
-58.5
-57.751
-57.01
-56.277
-55.556
-54.847
-54.152
-53.474
-52.815
-52.177
-51.561
-50.97
-50.405
-49.867
-49.359
-48.882
-48.439
-48.032
-47.663
-47.332
-47.043
-46.798
-46.596
-46.438
-46.326
-46.258
-46.235
-46.257
-46.324
-46.435
-46.588
-46.784
-47.02
-47.296
-47.608
-47.952
-48.325
-48.723
-49.14
-49.571
-50.008
-50.445
-50.876
-51.299
-51.706
-52.092
-52.45
-52.776
-53.062
-53.303
-53.49
-53.611
-53.655
-53.612
-53.476
-53.239
-52.896
-52.438
-51.861
-51.161
-50.338
-49.392
-48.317
-47.101
-45.734
-44.213
-42.549
-40.76
-38.859
-36.861
-34.781
-32.643
-30.479
-28.31
-26.145
-23.975
-21.79
-19.596
-17.412
-15.274
-13.213
-11.247
-9.375
-7.594
-5.913
-4.34
-2.869
-1.475
-0.123
1.193
2.436
3.537
4.431
5.084
5.48
5.614
5.475
5.037
4.272
3.156
1.689
-0.139
-2.348
-4.977
-8.069
-11.615
-15.542
-19.742
-24.118
-28.606
-33.17
-37.762
-42.299
-46.702
-50.883
-54.768
-58.357
-61.618
-64.484
-66.974
-69.131
-71.09
-73.194
-75.762
-78.902
-82.691
-87.126
-91.992
-97.155
-102.346
-106.849
-109.986
-111.359
-110.684
-108.053
-103.934
-98.512
-92.095
-85.618
-80.168
-76.797
-76.372
-79.168
-84.955
-93.731
-105.6
-119.267
-131.624
-139.301
-139.008
-129.62
-114.105
-94.33
-68.665
-32.812
22.116
103.898
212.563
343.903
489.15
635.894
775.043
895.936
985.57
1032.499
1025.47
960.627
843.178
685.776
507.651
328.497
166.699
35.755
-57.22
-111.495
-131.689
-124.686
-100.623
-69.214
-40.751
-24.728
-23.009
-32.515
-45.345
-53.068
-53.791
-50.63
-49.424
-54.099
-64.237
-76.739
-87.696
-95.3
-99.515
-100.483
-98.732
-94.755
-89.016
-82.602
-76.66
-71.699
-67.981
-65.721
-64.924
-65.576
-67.583
-70.532
-73.927
-77.482
-80.974
-84.234
-87.165
-89.613
-91.445
-92.64
-93.214
-93.186
-92.583
-91.412
-89.682
-87.444
-84.753
-81.674
-78.274
-74.611
-70.746
-66.748
-62.685
-58.625
-54.619
-50.695
-46.873
-43.157
-39.546
-36.034
-32.608
-29.242
-25.917
-22.613
-19.31
-15.995
-12.652
-9.261
-5.808
-2.276
1.351
5.081
8.923
12.884
16.969
21.18
25.517
29.976
34.554
39.249
44.055
48.967
53.979
59.082
64.266
69.518
74.824
80.169
85.534
90.898
96.24
101.537
106.764
111.898
116.914
121.785
126.486
130.992
135.278
139.32
143.093
146.575
149.744
152.58
155.063
157.176
158.904
160.233
161.152
161.651
161.723
161.364
160.571
159.344
157.684
155.598
153.09
150.172
146.855
143.152
139.082
134.663
129.916
124.863
119.529
113.939
108.121
102.1
95.906
89.567
83.113
76.571
69.97
63.34
56.709
50.103
43.549
37.072
30.697
24.446
18.341
12.402
6.647
1.093
-4.244
-9.351
-14.216
-18.83
-23.185
-27.274
-31.094
-34.642
-37.918
-40.923
-43.66
-46.135
-48.352
-50.32
-52.047
-53.542
-54.817
-55.882
-56.749
-57.431
-57.942
-58.293
-58.498
-58.571
-58.524
-58.37
-58.122
-57.792
-57.392
-56.933
-56.426
-55.88
-55.306
-54.711
-54.105
-53.494
-52.884
-52.282
-51.691
-51.115
-50.557
-50.02
-49.504
-49.01
-48.537
-48.085
-47.653
-47.238
-46.837
-46.449
-46.07
-45.697
-45.327
-44.956
-44.582
-44.2
-43.809
-43.406
-42.987
-42.552
-42.097
-41.622
-41.126
-40.606
-40.064
-39.498
-38.909
-38.297
-37.665
-37.014
-36.345
-35.662
-34.967
-34.265
-33.558
-32.852
-32.15
-31.457
-30.779
-30.121
-29.488
-28.886
-28.32
-27.795
-27.317
-26.89
-26.519
-26.207
-25.958
-25.776
-25.662
-25.62
-25.649
-25.752
-25.929
-26.179
-26.502
-26.896
-27.358
-27.885
-28.474
-29.12
-29.817
-30.561
-31.343
-32.157
-32.996
-33.852
-34.716
-35.578
-36.43
-37.262
-38.063
-38.824
-39.534
-40.184
-40.763
-41.263
-41.675
-41.991
-42.204
-42.306
-42.293
-42.158
-41.899
-41.512
-40.995
-40.348
-39.571
-38.667
-37.64
-36.495
-35.239
-33.883
-32.437
-30.915
-29.33
-27.699
-26.038
-24.365
-22.699
-21.057
-19.456
-17.914
-16.452
-15.089
-13.846
-12.743
-11.799
-11.033
-10.461
-10.099
-9.962
-10.056
-10.387
-10.964
-11.795
-12.897
-14.285
-15.969
-17.954
-20.243
-22.829
-25.7
-28.835
-32.196
-35.742
-39.43
-43.22
-47.079
-50.974
-54.865
-58.698
-62.405
-65.915
-69.169
-72.115
-74.712
-76.944
-78.811
-80.352
-81.645
-82.767
-83.8
-84.832
-85.94
-87.211
-88.734
-90.583
-92.871
-95.775
-99.417
-103.817
-108.878
-114.303
-119.736
-124.839
-129.141
-132.031
-133.006
-131.835
-128.683
-124.198
-119.279
-114.822
-111.764
-111.242
-113.571
-117.665
-121.76
-123.365
-121.622
-118.211
-113.986
-107.91
-93.84
-61.48
-3.069
85.296
199.417
329.641
467.88
605.629
736.213
851.329
937.256
980.052
968.525
899.716
780.103
623.893
449.913
276.596
121.617
-2.356
-89.18
-139.018
-158.376
-155.891
-141.133
-121.888
-104.619
-94.526
-92.162
-95.404
-99.028
-97.51
-89.803
-78.171
-67.281
-60.862
-59.428
-61.498
-64.592
-67.437
-69.856
-71.662
-72.873
-73.166
-72.194
-70.153
-67.415
-64.254
-61.078
-58.409
-56.574
-55.89
-56.506
-58.273
-61.003
-64.459
-68.298
-72.119
-75.601
-78.518
-80.752
-82.303
-83.176
-83.38
-82.957
-81.973
-80.502
-78.596
-76.294
-73.622
-70.611
-67.326
-63.839
-60.227
-56.561
-52.885
-49.223
-45.591
-41.997
-38.438
-34.906
-31.384
-27.85
-24.289
-20.693
-17.051
-13.357
-9.596
-5.752
-1.808
2.249
6.428
10.734
15.17
19.737
24.431
29.248
34.18
39.215
44.346
49.565
54.863
60.229
65.653
71.12
76.618
82.13
87.64
93.129
98.576
103.961
109.262
114.455
119.52
124.432
129.167
133.704
138.019
142.089
145.892
149.406
152.61
155.485
158.013
160.177
161.962
163.355
164.344
164.92
165.076
164.807
164.11
162.984
161.431
159.454
157.059
154.254
151.049
147.457
143.491
139.169
134.509
129.531
124.256
118.708
112.912
106.892
100.675
94.289
87.761
81.119
74.392
67.608
60.795
53.982
47.195
40.461
33.806
27.254
20.828
14.551
8.443
2.523
-3.192
-8.686
-13.946
-18.957
-23.712
-28.2
-32.415
-36.352
-40.008
-43.381
-46.471
-49.281
-51.813
-54.072
-56.063
-57.795
-59.276
-60.515
-61.524
-62.312
-62.894
-63.281
-63.488
-63.528
-63.415
-63.163
-62.788
-62.302
-61.72
-61.056
-60.322
-59.532
-58.698
-57.832
-56.944
-56.045
-55.145
-54.252
-53.374
-52.519
-51.691
-50.897
-50.142
-49.429
-48.762
-48.144
-47.575
-47.058
-46.593
-46.18
-45.818
-45.507
-45.245
-45.03
-44.86
-44.733
-44.646
-44.596
-44.581
-44.599
-44.646
-44.72
-44.819
-44.939
-45.078
-45.236
-45.409
-45.596
-45.797
-46.01
-46.235
-46.472
-46.721
-46.983
-47.259
-47.549
-47.854
-48.177
-48.518
-48.879
-49.262
-49.669
-50.102
-50.563
-51.053
-51.574
-52.128
-52.716
-53.338
-53.996
-54.688
-55.416
-56.177
-56.972
-57.799
-58.657
-59.542
-60.454
-61.387
-62.34
-63.308
-64.286
-65.268
-66.25
-67.223
-68.182
-69.12
-70.029
-70.902
-71.732
-72.509
-73.226
-73.875
-74.447
-74.935
-75.33
-75.626
-75.813
-75.887
-75.842
-75.672
-75.373
-74.942
-74.377
-73.676
-72.838
-71.864
-70.756
-69.514
-68.142
-66.646
-65.031
-63.304
-61.473
-59.548
-57.543
-55.472
-53.349
-51.19
-49.013
-46.835
-44.676
-42.553
-40.485
-38.487
-36.579
-34.777
-33.1
-31.568
-30.198
-29.006
-28.009
-27.219
-26.65
-26.312
-26.207
-26.338
-26.708
-27.32
-28.19
-29.328
-30.739
-32.424
-34.385
-36.61
-39.087
-41.794
-44.686
-47.721
-50.853
-54.041
-57.254
-60.458
-63.608
-66.651
-69.519
-72.149
-74.492
-76.502
-78.134
-79.379
-80.243
-80.773
-81.062
-81.188
-81.234
-81.297
-81.46
-81.824
-82.49
-83.532
-85.064
-87.247
-90.18
-93.879
-98.238
-102.958
-107.692
-112.091
-115.69
-117.932
-118.333
-116.68
-113.209
-108.511
-103.438
-98.884
-95.619
-94.666
-96.397
-99.734
-102.886
-103.445
-100.39
-94.966
-88.024
-78.935
-62.17
-28.962
27.13
110.597
218.04
341.344
474.342
607.52
733.391
843.439
922.432
956.419
932.368
844.063
698.225
511.537
310.862
123.972
-27.176
-129.188
-184.534
-202.485
-193.933
-172.678
-144.555
-114.378
-90.535
-74.428
-67.377
-68.069
-67.676
-62.926
-54.416
-44.032
-37.763
-38.168
-44.046
-53.512
-63.661
-72.601
-79.455
-83.863
-85.969
-85.905
-84.028
-80.902
-76.93
-72.734
-69.219
-66.859
-65.869
-66.321
-67.951
-70.518
-73.854
-77.615
-81.355
-84.762
-87.635
-89.886
-91.571
-92.707
-93.276
-93.311
-92.862
-91.986
-90.739
-89.15
-87.23
-85.003
-82.52
-79.843
-77.042
-74.179
-71.293
-68.408
-65.538
-62.692
-59.872
-57.074
-54.286
-51.488
-48.666
-45.81
-42.909
-39.954
-36.931
-33.824
-30.615
-27.292
-23.842
-20.261
-16.543
-12.686
-8.689
-4.555
-0.287
4.107
8.623
13.255
17.996
22.84
27.777
32.799
37.893
43.049
48.251
53.486
58.736
63.985
69.213
74.402
79.533
84.585
89.538
94.371
99.064
103.597
107.95
112.103
116.038
119.737
123.183
126.361
129.256
131.855
134.147
136.122
137.772
139.09
140.071
140.712
141.012
140.972
140.592
139.879
138.835
137.47
135.791
133.81
131.538
128.989
126.179
123.122
119.838
116.345
112.66
108.806
104.8
100.665
96.42
92.087
87.686
83.237
78.76
74.275
69.8
65.354
60.954
56.617
52.357
48.188
44.125
40.179
36.362
32.682
29.148
25.769
22.55
19.496
16.612
13.901
11.363
9
6.81
4.793
2.945
1.263
-0.257
-1.621
-2.833
-3.901
-4.831
-5.63
-6.305
-6.864
-7.315
-7.665
-7.922
-8.094
-8.188
-8.213
-8.175
-8.081
-7.937
-7.752
-7.529
-7.276
-6.997
-6.698
-6.384
-6.058
-5.725
-5.388
-5.05
-4.714
-4.383
-4.057
-3.739
-3.429
-3.128
-2.837
-2.556
-2.285
-2.025
-1.776
-1.537
-1.309
-1.091
-0.885
-0.689
-0.505
-0.332
-0.172
-0.026
0.107
0.224
0.325
0.407
0.471
0.513
0.532
0.528
0.496
0.436
0.346
0.222
0.062
-0.137
-0.378
-0.662
-0.994
-1.376
-1.811
-2.302
-2.851
-3.459
-4.13
-4.865
-5.664
-6.529
-7.459
-8.455
-9.516
-10.639
-11.824
-13.067
-14.366
-15.717
-17.117
-18.561
-20.044
-21.562
-23.108
-24.677
-26.261
-27.855
-29.449
-31.035
-32.606
-34.151
-35.662
-37.129
-38.544
-39.895
-41.174
-42.371
-43.475
-44.479
-45.372
-46.146
-46.793
-47.305
-47.677
-47.903
-47.979
-47.9
-47.664
-47.27
-46.718
-46.006
-45.137
-44.113
-42.938
-41.616
-40.154
-38.559
-36.839
-35.007
-33.076
-31.061
-28.977
-26.843
-24.678
-22.499
-20.328
-18.185
-16.086
-14.051
-12.099
-10.249
-8.522
-6.939
-5.519
-4.282
-3.245
-2.424
-1.835
-1.491
-1.396
-1.554
-1.971
-2.656
-3.627
-4.898
-6.475
-8.362
-10.558
-13.052
-15.827
-18.855
-22.082
-25.457
-28.925
-32.436
-35.955
-39.441
-42.848
-46.115
-49.172
-51.953
-54.411
-56.506
-58.201
-59.493
-60.401
-60.992
-61.384
-61.695
-62.036
-62.522
-63.262
-64.368
-65.957
-68.125
-70.972
-74.635
-79.198
-84.657
-90.886
-97.57
-104.323
-110.736
-116.295
-120.394
-122.492
-122.267
-119.847
-115.808
-110.803
-105.584
-100.993
-97.814
-96.987
-98.376
-99.816
-98.835
-92.818
-80.569
-64.385
-45.453
-21.708
11.331
62.224
138.32
239.606
361.993
497.142
633.652
763.276
875.93
959.056
1000.721
988.866
919.128
796.152
632.679
448.902
265.726
102.845
-25.747
-113.796
-162.993
-180.755
-174.237
-152.555
-122.443
-90.88
-69.01
-61.001
-66.972
-81.884
-93.944
-98.048
-94.522
-86.727
-81.602
-81.626
-85.325
-90.984
-96.088
-99.379
-101.162
-101.467
-100.361
-98.187
-95.265
-91.922
-88.61
-85.859
-83.971
-83.225
-83.821
-85.649
-88.523
-92.243
-96.467
-100.804
-104.961
-108.668
-111.755
-114.193
-115.957
-117.042
-117.486
-117.335
-116.64
-115.463
-113.842
-111.805
-109.391
-106.65
-103.647
-100.462
-97.169
-93.836
-90.513
-87.229
-84.004
-80.845
-77.75
-74.713
-71.719
-68.745
-65.779
-62.807
-59.82
-56.807
-53.753
-50.641
-47.454
-44.178
-40.802
-37.321
-33.729
-30.023
-26.204
-22.275
-18.239
-14.105
-9.879
-5.565
-1.171
3.299
7.835
12.427
17.065
21.739
26.434
31.136
35.828
40.493
45.113
49.669
54.141
58.509
62.752
66.851
70.784
74.532
78.073
81.39
84.462
87.272
89.804
92.041
93.97
95.577
96.853
97.787
98.373
98.604
98.477
97.989
97.14
95.931
94.367
92.451
90.19
87.594
84.671
81.435
77.899
74.079
69.99
65.653
61.085
56.307
51.341
46.208
40.932
35.536
30.043
24.476
18.86
13.217
7.57
1.943
-3.644
-9.169
-14.613
-19.957
-25.182
-30.273
-35.212
-39.987
-44.584
-48.99
-53.196
-57.191
-60.968
-64.519
-67.838
-70.921
-73.765
-76.367
-78.725
-80.841
-82.714
-84.348
-85.746
-86.911
-87.849
-88.566
-89.068
-89.362
-89.457
-89.361
-89.082
-88.629
-88.011
-87.238
-86.318
-85.26
-84.075
-82.77
-81.354
-79.836
-78.224
-76.526
-74.75
-72.902
-70.991
-69.024
-67.007
-64.948
-62.853
-60.729
-58.581
-56.415
-54.238
-52.054
-49.869
-47.688
-45.514
-43.353
-41.209
-39.086
-36.988
-34.917
-32.878
-30.874
-28.908
-26.984
-25.104
-23.271
-21.489
-19.76
-18.089
-16.478
-14.93
-13.45
-12.04
-10.703
-9.443
-8.263
-7.165
-6.152
-5.227
-4.391
-3.647
-2.996
-2.44
-1.98
-1.616
-1.349
-1.178
-1.105
-1.127
-1.244
-1.455
-1.758
-2.15
-2.631
-3.196
-3.842
-4.566
-5.364
-6.232
-7.163
-8.153
-9.195
-10.285
-11.414
-12.575
-13.763
-14.967
-16.181
-17.397
-18.605
-19.796
-20.962
-22.093
-23.182
-24.219
-25.196
-26.104
-26.937
-27.685
-28.343
-28.903
-29.358
-29.702
-29.93
-30.036
-30.016
-29.867
-29.586
-29.17
-28.618
-27.93
-27.106
-26.148
-25.058
-23.838
-22.492
-21.026
-19.444
-17.755
-15.966
-14.088
-12.133
-10.117
-8.054
-5.96
-3.853
-1.749
0.336
2.385
4.381
6.31
8.154
9.9
11.53
13.026
14.371
15.55
16.549
17.359
17.971
18.379
18.581
18.575
18.358
17.924
17.262
16.363
15.222
13.836
12.205
10.337
8.25
5.972
3.547
1.017
-1.581
-4.209
-6.837
-9.427
-11.921
-14.266
-16.408
-18.307
-19.938
-21.261
-22.224
-22.817
-23.072
-23.076
-22.964
-22.802
-22.614
-22.502
-22.624
-23.212
-24.495
-26.538
-29.307
-32.871
-37.338
-42.636
-48.516
-54.384
-59.401
-62.948
-64.619
-63.932
-61.337
-58.241
-55.494
-53.914
-52.187
-46.959
-38.119
-28.262
-22.73
-28.236
-45.33
-69.621
-95.099
-114.646
-123.805
-117.997
-89.604
-30.62
64.255
193.436
348.365
514.766
677.766
824.823
942.757
1022.549
1056.735
1038.94
970.742
855.3
700.839
523.55
341.076
174.865
43.02
-46.34
-94.793
-111.926
-108.143
-93.069
-71.863
-49.138
-33.616
-29.288
-37.845
-55.98
-72.59
-81.608
-81.76
-75.092
-68.44
-65.151
-64.75
-66.378
-68.098
-69.264
-70.464
-71.645
-72.683
-73.37
-73.501
-73.065
-72.079
-70.569
-68.734
-67.076
-66.058
-66.007
-67.041
-69.062
-71.93
-75.465
-79.386
-83.299
-86.857
-89.833
-92.107
-93.683
-94.581
-94.816
-94.432
-93.497
-92.081
-90.236
-88.002
-85.404
-82.477
-79.283
-75.893
-72.382
-68.82
-65.252
-61.706
-58.195
-54.723
-51.285
-47.872
-44.466
-41.047
-37.6
-34.115
-30.583
-26.995
-23.339
-19.6
-15.761
-11.81
-7.736
-3.535
0.795
5.254
9.841
14.549
19.371
24.297
29.318
34.427
39.614
44.87
50.183
55.541
60.93
66.334
71.737
77.119
82.463
87.745
92.945
98.041
103.01
107.828
112.474
116.925
121.157
125.149
128.879
132.327
135.473
138.298
140.786
142.922
144.691
146.081
147.084
147.691
147.896
147.696
147.088
146.074
144.655
142.836
140.623
138.025
135.052
131.717
128.035
124.021
119.694
115.074
110.182
105.04
99.671
94.1
88.351
82.449
76.421
70.291
64.087
57.833
51.555
45.278
39.025
32.82
26.685
20.64
14.706
8.9
3.239
-2.261
-7.585
-12.722
-17.661
-22.392
-26.908
-31.201
-35.268
-39.106
-42.712
-46.087
-49.231
-52.147
-54.838
-57.309
-59.565
-61.613
-63.46
-65.113
-66.581
-67.874
-69
-69.969
-70.792
-71.479
-72.039
-72.483
-72.82
-73.061
-73.215
-73.29
-73.296
-73.239
-73.128
-72.969
-72.769
-72.534
-72.268
-71.977
-71.663
-71.331
-70.984
-70.624
-70.254
-69.874
-69.486
-69.092
-68.692
-68.286
-67.875
-67.459
-67.037
-66.61
-66.176
-65.736
-65.288
-64.833
-64.368
-63.895
-63.411
-62.916
-62.409
-61.891
-61.362
-60.822
-60.272
-59.714
-59.149
-58.58
-58.009
-57.438
-56.869
-56.305
-55.749
-55.203
-54.67
-54.153
-53.654
-53.176
-52.724
-52.298
-51.904
-51.543
-51.219
-50.933
-50.689
-50.49
-50.338
-50.236
-50.187
-50.193
-50.258
-50.384
-50.572
-50.825
-51.142
-51.524
-51.969
-52.475
-53.037
-53.65
-54.312
-55.018
-55.763
-56.545
-57.359
-58.202
-59.073
-59.967
-60.881
-61.808
-62.739
-63.666
-64.579
-65.468
-66.323
-67.133
-67.886
-68.571
-69.181
-69.704
-70.129
-70.441
-70.62
-70.65
-70.526
-70.245
-69.81
-69.23
-68.513
-67.678
-66.759
-65.78
-64.769
-63.741
-62.695
-61.636
-60.571
-59.505
-58.451
-57.406
-56.339
-55.233
-54.07
-52.82
-51.463
-49.95
-48.205
-46.179
-43.831
-41.143
-38.125
-34.767
-31.072
-27.086
-22.874
-18.552
-14.264
-10.091
-6.117
-2.478
0.757
3.513
5.767
7.661
9.213
10.286
10.75
10.418
9.065
6.563
2.572
-3.477
-11.716
-21.924
-33.662
-46.176
-58.824
-71.131
-82.24
-90.995
-96.737
-99.275
-98.946
-96.616
-92.878
-88.108
-83.028
-78.647
-75.863
-75.248
-76.683
-79.494
-83.245
-87.605
-92.174
-96.432
-99.443
-100.296
-98.776
-95.112
-89.652
-82.994
-75.563
-67.762
-60.779
-56.094
-54.738
-57.443
-64.336
-74.947
-88.95
-105.911
-124.598
-142.121
-154.536
-158.455
-150.769
-131.519
-103.668
-67.05
-21.169
36.542
113.353
210.348
325.41
455.026
588.631
717.117
830.506
915.26
959.283
951.535
887.859
771.555
614.741
438.602
263.634
111.602
-0.644
-70.78
-101.625
-103.201
-91.28
-73.314
-55.548
-44.648
-39.828
-41.818
-49.394
-54.809
-55.488
-51.561
-44.515
-40.328
-41.58
-47.251
-55.78
-64.514
-71.968
-77.981
-82.436
-85.196
-86.188
-85.568
-83.763
-81.213
-78.407
-75.892
-74.019
-73.101
-73.324
-74.588
-76.721
-79.537
-82.741
-85.974
-88.961
-91.46
-93.323
-94.537
-95.096
-94.997
-94.272
-92.971
-91.144
-88.856
-86.15
-83.05
-79.597
-75.836
-71.83
-67.655
-63.382
-59.077
-54.786
-50.54
-46.361
-42.263
-38.251
-34.323
-30.469
-26.672
-22.921
-19.208
-15.523
-11.857
-8.194
-4.516
-0.807
2.948
6.76
10.64
14.595
18.632
22.754
26.964
31.261
35.642
40.106
44.652
49.276
53.975
58.744
63.575
68.46
73.39
78.353
83.336
88.322
93.297
98.242
103.138
107.965
112.704
117.333
121.831
126.175
130.345
134.316
138.068
141.578
144.825
147.79
150.453
152.796
154.802
156.456
157.745
158.656
159.179
159.307
159.033
158.353
157.265
155.77
153.87
151.57
148.877
145.799
142.349
138.538
134.383
129.899
125.106
120.022
114.669
109.069
103.245
97.221
91.023
84.674
78.202
71.632
64.99
58.302
51.593
44.889
38.213
31.59
25.043
18.593
12.262
6.069
0.032
-5.831
-11.506
-16.978
-22.236
-27.268
-32.067
-36.623
-40.933
-44.992
-48.797
-52.346
-55.641
-58.681
-61.471
-64.013
-66.312
-68.375
-70.208
-71.82
-73.218
-74.411
-75.41
-76.224
-76.864
-77.341
-77.665
-77.847
-77.899
-77.832
-77.657
-77.385
-77.026
-76.591
-76.088
-75.528
-74.918
-74.265
-73.579
-72.863
-72.125
-71.37
-70.602
-69.826
-69.044
-68.261
-67.477
-66.696
-65.918
-65.146
-64.379
-63.618
-62.863
-62.116
-61.375
-60.642
-59.915
-59.196
-58.483
-57.778
-57.079
-56.387
-55.702
-55.024
-54.353
-53.69
-53.037
-52.393
-51.762
-51.145
-50.543
-49.96
-49.399
-48.862
-48.353
-47.876
-47.434
-47.032
-46.672
-46.36
-46.099
-45.893
-45.745
-45.66
-45.641
-45.689
-45.809
-46
-46.265
-46.604
-47.017
-47.504
-48.064
-48.696
-49.396
-50.163
-50.993
-51.883
-52.829
-53.825
-54.865
-55.944
-57.055
-58.19
-59.34
-60.498
-61.653
-62.797
-63.919
-65.01
-66.058
-67.055
-67.988
-68.848
-69.625
-70.308
-70.888
-71.356
-71.703
-71.921
-72.005
-71.949
-71.747
-71.397
-70.895
-70.242
-69.436
-68.478
-67.371
-66.118
-64.721
-63.188
-61.525
-59.74
-57.842
-55.844
-53.76
-51.605
-49.398
-47.155
-44.896
-42.641
-40.412
-38.227
-36.106
-34.067
-32.128
-30.308
-28.627
-27.107
-25.765
-24.618
-23.685
-22.979
-22.515
-22.303
-22.345
-22.643
-23.199
-24.019
-25.118
-26.51
-28.201
-30.194
-32.49
-35.077
-37.939
-41.049
-44.357
-47.81
-51.354
-54.939
-58.527
-62.08
-65.545
-68.865
-71.966
-74.777
-77.246
-79.325
-80.971
-82.179
-82.968
-83.402
-83.596
-83.648
-83.663
-83.766
-84.07
-84.694
-85.766
-87.363
-89.601
-92.685
-96.722
-101.712
-107.536
-113.815
-120.116
-126.079
-131.174
-134.707
-136.17
-135.344
-132.419
-128.163
-123.567
-119.507
-116.862
-116.848
-119.596
-123.374
-126.057
-124.817
-118.557
-110.361
-102.013
-91.223
-71.789
-31.652
39.547
142.601
272.451
418.122
564.769
702.916
822.846
912.409
964.239
969.438
923.07
829.878
694.536
528.266
348.294
170.725
16.527
-98.784
-171.244
-203.246
-207.197
-196.158
-177.771
-158.475
-139.832
-122.732
-108.57
-95.749
-83.815
-72.374
-62.155
-56.4
-56.398
-62.173
-72.265
-83.237
-92.963
-100.208
-104.031
-104.66
-102.427
-97.605
-91.055
-83.717
-76.392
-70.007
-65.22
-62.225
-61.07
-61.606
-63.485
-66.398
-69.984
-73.761
-77.367
-80.56
-83.177
-85.197
-86.628
-87.443
-87.65
-87.291
-86.396
-85.018
-83.198
-80.951
-78.31
-75.319
-72.037
-68.54
-64.904
-61.194
-57.458
-53.724
-50.008
-46.322
-42.667
-39.035
-35.411
-31.768
-28.088
-24.356
-20.559
-16.682
-12.71
-8.62
-4.397
-0.026
4.503
9.197
14.059
19.092
24.294
29.66
35.182
40.849
46.651
52.579
58.621
64.765
70.999
77.305
83.669
90.073
96.499
102.925
109.329
115.688
121.978
128.175
134.253
140.188
145.953
151.525
156.879
161.99
166.834
171.39
175.635
179.549
183.114
186.311
189.125
191.541
193.549
195.139
196.302
197.034
197.332
197.194
196.623
195.622
194.196
192.354
190.105
187.462
184.438
181.048
177.312
173.248
168.877
164.222
159.304
154.15
148.783
143.228
137.512
131.661
125.701
119.657
113.555
107.422
101.282
95.159
89.077
83.058
77.124
71.294
65.588
60.023
54.614
49.375
44.321
39.46
34.805
30.362
26.138
22.138
18.367
14.826
11.516
8.436
5.586
2.963
0.562
-1.621
-3.592
-5.356
-6.922
-8.295
-9.485
-10.501
-11.35
-12.044
-12.59
-13
-13.282
-13.448
-13.507
-13.467
-13.34
-13.133
-12.855
-12.514
-12.119
-11.676
-11.193
-10.675
-10.129
-9.56
-8.972
-8.37
-7.758
-7.14
-6.518
-5.895
-5.275
-4.659
-4.049
-3.448
-2.857
-2.278
-1.713
-1.163
-0.629
-0.113
0.384
0.861
1.317
1.75
2.161
2.548
2.91
3.245
3.553
3.832
4.081
4.298
4.483
4.632
4.745
4.818
4.852
4.842
4.788
4.687
4.537
4.337
4.085
3.778
3.417
3
2.525
1.994
1.405
0.759
0.056
-0.701
-1.513
-2.376
-3.289
-4.25
-5.255
-6.302
-7.387
-8.506
-9.656
-10.833
-12.031
-13.245
-14.471
-15.703
-16.933
-18.157
-19.367
-20.556
-21.719
-22.848
-23.937
-24.978
-25.965
-26.89
-27.748
-28.531
-29.233
-29.849
-30.374
-30.803
-31.132
-31.36
-31.483
-31.5
-31.41
-31.212
-30.909
-30.5
-29.989
-29.378
-28.671
-27.874
-26.993
-26.036
-25.013
-23.935
-22.814
-21.663
-20.494
-19.325
-18.172
-17.054
-15.985
-14.978
-14.047
-13.209
-12.477
-11.869
-11.398
-11.074
-10.909
-10.915
-11.105
-11.492
-12.082
-12.869
-13.847
-15.014
-16.374
-17.944
-19.735
-21.747
-23.981
-26.432
-29.097
-31.975
-35.041
-38.251
-41.551
-44.884
-48.212
-51.521
-54.804
-58.04
-61.185
-64.151
-66.854
-69.24
-71.274
-72.952
-74.257
-75.145
-75.656
-75.951
-76.298
-76.983
-78.166
-79.802
-81.805
-84.209
-87.063
-90.355
-93.809
-96.923
-99.333
-100.965
-101.96
-102.34
-101.958
-100.588
-98.305
-95.668
-93.499
-92.493
-92.932
-95.174
-99.637
-106.716
-116.854
-128.956
-139.758
-146.148
-145.346
-136.405
-122.151
-103.783
-78.885
-42.76
12.7
93.66
198.819
322.994
457.803
591.891
716.309
820.734
892.579
920.965
896.843
818.079
690.621
528.181
349.921
175.583
24.172
-92.152
-168.795
-207.493
-216.063
-202.835
-176.133
-143.485
-112.087
-88.233
-73.861
-67.86
-64.981
-60.066
-52.792
-45.156
-41.147
-43.641
-51.998
-63.822
-76.329
-87.438
-95.825
-101.131
-103.567
-103.291
-100.797
-96.809
-91.845
-86.614
-82.096
-78.8
-76.942
-76.603
-77.512
-79.384
-82.023
-85.075
-88.089
-90.755
-92.874
-94.354
-95.242
-95.565
-95.311
-94.511
-93.214
-91.47
-89.33
-86.823
-83.959
-80.762
-77.283
-73.584
-69.738
-65.813
-61.854
-57.893
-53.95
-50.039
-46.168
-42.337
-38.54
-34.76
-30.987
-27.212
-23.429
-19.632
-15.81
-11.949
-8.035
-4.054
0.001
4.137
8.356
12.662
17.054
21.53
26.084
30.709
35.399
40.148
44.949
49.795
54.677
59.586
64.509
69.436
74.353
79.246
84.098
88.892
93.611
98.235
102.746
107.124
111.35
115.402
119.262
122.909
126.323
129.487
132.38
134.986
137.287
139.269
140.916
142.215
143.155
143.725
143.918
143.727
143.147
142.175
140.81
139.053
136.906
134.375
131.466
128.186
124.546
120.559
116.237
111.598
106.657
101.434
95.948
90.22
84.273
78.129
71.812
65.346
58.755
52.064
45.298
38.481
31.639
24.795
17.973
11.198
4.49
-2.128
-8.635
-15.012
-21.24
-27.302
-33.181
-38.863
-44.335
-49.584
-54.601
-59.376
-63.902
-68.173
-72.184
-75.933
-79.418
-82.639
-85.598
-88.296
-90.738
-92.929
-94.875
-96.582
-98.058
-99.312
-100.353
-101.19
-101.835
-102.299
-102.591
-102.725
-102.711
-102.562
-102.29
-101.906
-101.423
-100.852
-100.205
-99.491
-98.722
-97.908
-97.058
-96.181
-95.286
-94.38
-93.471
-92.565
-91.669
-90.786
-89.923
-89.083
-88.269
-87.484
-86.731
-86.011
-85.327
-84.68
-84.07
-83.499
-82.967
-82.474
-82.02
-81.604
-81.228
-80.889
-80.587
-80.323
-80.094
-79.901
-79.743
-79.62
-79.531
-79.477
-79.458
-79.474
-79.525
-79.611
-79.734
-79.895
-80.094
-80.332
-80.612
-80.934
-81.301
-81.712
-82.171
-82.677
-83.231
-83.834
-84.485
-85.185
-85.933
-86.727
-87.567
-88.449
-89.372
-90.334
-91.33
-92.359
-93.415
-94.494
-95.591
-96.702
-97.818
-98.936
-100.046
-101.143
-102.218
-103.264
-104.273
-105.237
-106.147
-106.994
-107.769
-108.464
-109.07
-109.58
-109.983
-110.274
-110.446
-110.492
-110.407
-110.187
-109.829
-109.329
-108.688
-107.905
-106.981
-105.917
-104.716
-103.382
-101.921
-100.338
-98.641
-96.839
-94.944
-92.967
-90.924
-88.83
-86.702
-84.558
-82.415
-80.294
-78.213
-76.187
-74.235
-72.373
-70.618
-68.99
-67.507
-66.184
-65.038
-64.082
-63.329
-62.79
-62.473
-62.378
-62.507
-62.861
-63.444
-64.274
-65.361
-66.713
-68.332
-70.216
-72.357
-74.746
-77.36
-80.16
-83.099
-86.133
-89.218
-92.323
-95.412
-98.437
-101.333
-104.025
-106.441
-108.524
-110.228
-111.515
-112.364
-112.779
-112.796
-112.493
-111.959
-111.296
-110.609
-110.016
-109.642
-109.594
-110.016
-111.094
-112.957
-115.666
-119.144
-123.089
-127.163
-131.068
-134.385
-136.615
-137.395
-136.463
-133.996
-130.856
-127.933
-125.936
-125.746
-128.102
-133.37
-141.968
-152.53
-161.307
-165.013
-160.415
-146.288
-125.545
-99.115
-65.296
-20.718
42.713
130.47
242.122
374.949
520.36
666.301
800.037
905.286
964.943
966.373
905.322
786.647
625.488
442.856
258.008
89.793
-46.172
-141.641
-192.995
-203.216
-184.486
-151.061
-116.095
-92.331
-82.993
-84.317
-90.942
-93.48
-88.075
-77.508
-65.878
-59.197
-59.988
-66.587
-76.384
-86.415
-95.062
-101.682
-105.812
-107.485
-106.787
-104.02
-99.911
-95.001
-89.813
-85.135
-81.498
-79.164
-78.269
-78.644
-79.986
-82.094
-84.674
-87.297
-89.65
-91.489
-92.656
-93.152
-92.989
-92.152
-90.663
-88.572
-85.92
-82.771
-79.172
-75.143
-70.723
-65.962
-60.921
-55.684
-50.323
-44.906
-39.485
-34.092
-28.753
-23.485
-18.295
-13.184
-8.146
-3.166
1.766
6.656
11.512
16.341
21.156
25.972
30.805
35.664
40.56
45.499
50.486
55.523
60.613
65.754
70.943
76.175
81.446
86.754
92.094
97.462
102.852
108.257
113.669
119.079
124.477
129.85
135.185
140.468
145.682
150.81
155.835
160.738
165.5
170.102
174.522
178.742
182.741
186.498
189.994
193.211
196.13
198.734
201.009
202.939
204.512
205.719
206.549
206.996
207.055
206.722
205.996
204.878
203.37
201.476
199.203
196.559
193.554
190.2
186.511
182.502
178.192
173.598
168.742
163.645
158.328
152.817
147.135
141.308
135.36
129.318
123.208
117.055
110.884
104.72
98.587
92.507
86.502
80.593
74.798
69.135
63.621
58.27
53.096
48.11
43.323
38.743
34.379
30.235
26.318
22.628
19.17
15.941
12.943
10.173
7.626
5.3
3.189
1.286
-0.417
-1.926
-3.252
-4.403
-5.39
-6.222
-6.909
-7.463
-7.893
-8.209
-8.421
-8.538
-8.57
-8.523
-8.407
-8.228
-7.993
-7.709
-7.381
-7.014
-6.613
-6.183
-5.727
-5.248
-4.751
-4.236
-3.707
-3.166
-2.615
-2.054
-1.487
-0.912
-0.333
0.252
0.841
1.433
2.029
2.627
3.228
3.83
4.433
5.035
5.636
6.233
6.825
7.409
7.982
8.543
9.088
9.614
10.117
10.593
11.038
11.449
11.822
12.152
12.435
12.669
12.848
12.971
13.033
13.033
12.966
12.831
12.627
12.351
12.002
11.58
11.085
10.516
9.876
9.165
8.386
7.541
6.634
5.668
4.647
3.578
2.464
1.313
0.131
-1.075
-2.297
-3.526
-4.752
-5.967
-7.161
-8.325
-9.448
-10.521
-11.533
-12.474
-13.336
-14.108
-14.781
-15.346
-15.795
-16.119
-16.312
-16.366
-16.277
-16.041
-15.653
-15.111
-14.414
-13.56
-12.551
-11.386
-10.07
-8.606
-6.999
-5.256
-3.384
-1.393
0.703
2.892
5.158
7.485
9.856
12.25
14.645
17.019
19.352
21.625
23.818
25.911
27.883
29.712
31.38
32.871
34.17
35.258
36.117
36.731
37.088
37.189
37.038
36.633
35.968
35.028
33.799
32.281
30.47
28.368
25.975
23.293
20.341
17.161
13.808
10.339
6.799
3.206
-0.425
-4.074
-7.692
-11.193
-14.489
-17.516
-20.234
-22.625
-24.658
-26.272
-27.489
-28.457
-29.439
-30.722
-32.46
-34.619
-37.127
-40.023
-43.368
-47.136
-51.021
-54.55
-57.42
-59.596
-61.268
-62.497
-63.103
-62.885
-62.019
-60.971
-60.285
-60.548
-61.921
-64.544
-68.967
-75.654
-84.58
-95.55
-106.964
-115.487
-118.595
-113.604
-99.096
-77.218
-48.522
-11.755
35.254
99.117
184.805
292.33
420.178
560.515
701.449
831.346
934.24
995.265
1004.497
955.723
852.303
705.487
530.154
345.771
171.533
22.843
-87.472
-154.446
-180.367
-170.156
-135.955
-91.111
-47.885
-20.706
-14.177
-25.403
-47.655
-68.065
-80.872
-87.052
-89.147
-92.964
-100.028
-108.065
-115.363
-119.638
-120.031
-117.194
-111.754
-104.778
-97.592
-91.102
-85.782
-81.819
-79.209
-78.001
-78.253
-79.823
-82.336
-85.394
-88.736
-92.218
-95.755
-99.224
-102.428
-105.187
-107.41
-109.066
-110.142
-110.625
-110.495
-109.743
-108.402
-106.532
-104.195
-101.452
-98.353
-94.943
-91.282
-87.439
-83.484
-79.49
-75.508
-71.568
-67.688
-63.873
-60.124
-56.436
-52.793
-49.167
-45.537
-41.883
-38.193
-34.455
-30.66
-26.791
-22.834
-18.775
-14.604
-10.316
-5.906
-1.371
3.289
8.07
12.968
17.972
23.075
28.267
33.54
38.885
44.291
49.745
55.233
60.741
66.252
71.748
77.21
82.615
87.941
93.166
98.266
103.217
107.994
112.574
116.931
121.041
124.883
128.434
131.671
134.576
137.129
139.313
141.113
142.514
143.504
144.075
144.216
143.925
143.196
142.029
140.426
138.39
135.927
133.046
129.757
126.073
122.008
117.578
112.804
107.705
102.303
96.623
90.689
84.528
78.168
71.635
64.958
58.166
51.288
44.352
37.387
30.419
23.477
16.586
9.772
3.058
-3.531
-9.973
-16.25
-22.341
-28.23
-33.902
-39.343
-44.542
-49.488
-54.175
-58.595
-62.744
-66.62
-70.22
-73.546
-76.6
-79.384
-81.905
-84.167
-86.18
-87.95
-89.489
-90.806
-91.912
-92.818
-93.536
-94.079
-94.459
-94.688
-94.779
-94.745
-94.597
-94.349
-94.013
-93.6
-93.12
-92.586
-92.005
-91.388
-90.742
-90.075
-89.394
-88.704
-88.012
-87.322
-86.639
-85.965
-85.303
-84.655
-84.023
-83.409
-82.811
-82.231
-81.668
-81.122
-80.593
-80.079
-79.581
-79.097
-78.627
-78.17
-77.724
-77.29
-76.865
-76.45
-76.044
-75.645
-75.253
-74.869
-74.493
-74.124
-73.765
-73.415
-73.076
-72.751
-72.44
-72.146
-71.87
-71.616
-71.387
-71.183
-71.01
-70.869
-70.763
-70.696
-70.669
-70.684
-70.745
-70.851
-71.005
-71.207
-71.457
-71.756
-72.104
-72.499
-72.94
-73.427
-73.958
-74.531
-75.143
-75.791
-76.474
-77.185
-77.922
-78.68
-79.453
-80.235
-81.021
-81.803
-82.574
-83.329
-84.058
-84.754
-85.409
-86.015
-86.564
-87.047
-87.456
-87.783
-88.021
-88.163
-88.203
-88.134
-87.952
-87.652
-87.23
-86.684
-86.012
-85.213
-84.284
-83.227
-82.042
-80.732
-79.299
-77.748
-76.084
-74.313
-72.446
-70.494
-68.47
-66.386
-64.257
-62.099
-59.928
-57.761
-55.614
-53.505
-51.448
-49.462
-47.564
-45.775
-44.113
-42.596
-41.239
-40.056
-39.06
-38.263
-37.671
-37.29
-37.124
-37.179
-37.468
-38.005
-38.798
-39.855
-41.178
-42.76
-44.592
-46.658
-48.922
-51.349
-53.904
-56.542
-59.236
-61.947
-64.627
-67.235
-69.708
-71.988
-74.035
-75.785
-77.185
-78.221
-78.885
-79.217
-79.313
-79.204
-78.926
-78.64
-78.476
-78.615
-79.277
-80.468
-82.2
-84.695
-88.096
-92.294
-97.093
-101.923
-106.113
-109.521
-111.936
-112.835
-111.896
-109.076
-104.744
-100.195
-96.831
-95.187
-95.83
-99.454
-106.32
-116.596
-128.532
-137.885
-140.888
-134.24
-117.385
-93.149
-61.121
-19.535
35.804
113.137
213.851
335.741
473.815
615.183
749.542
864.745
945.921
984.833
974.069
914.102
813.782
680.313
525.623
361.918
200.278
58.297
-49.578
-117.394
-144.34
-139.227
-117.165
-88.239
-62.283
-48.991
-48.896
-61.513
-82.765
-101.348
-112.176
-114.024
-107.823
-99.594
-92.331
-85.89
-80.01
-73.634
-67.042
-61.753
-58.815
-58.81
-61.533
-66.144
-71.892
-77.891
-83.323
-87.666
-90.576
-92.025
-92.39
-92.269
-92.125
-92.33
-93.075
-94.325
-95.997
-97.918
-99.807
-101.328
-102.259
-102.485
-101.99
-100.86
-99.17
-96.991
-94.407
-91.508
-88.363
-85.02
-81.522
-77.895
-74.181
-70.439
-66.71
-63.024
-59.4
-55.835
-52.322
-48.847
-45.392
-41.932
-38.451
-34.936
-31.376
-27.767
-24.1
-20.365
-16.549
-12.639
-8.623
-4.491
-0.235
4.15
8.663
13.304
18.067
22.946
27.934
33.024
38.211
43.485
48.837
54.257
59.731
65.247
70.788
76.336
81.872
87.376
92.827
98.202
103.479
108.635
113.647
118.492
123.144
127.582
131.782
135.722
139.38
142.735
145.767
148.459
150.792
152.753
154.327
155.503
156.271
156.624
156.557
156.067
155.153
153.817
152.064
149.898
147.328
144.363
141.017
137.303
133.236
128.836
124.12
119.11
113.827
108.297
102.541
96.587
90.46
84.185
77.791
71.303
64.749
58.155
51.549
44.955
38.401
31.909
25.505
19.211
13.049
7.038
1.199
-4.452
-9.898
-15.126
-20.122
-24.875
-29.376
-33.616
-37.589
-41.289
-44.713
-47.859
-50.726
-53.315
-55.627
-57.667
-59.438
-60.947
-62.2
-63.204
-63.969
-64.503
-64.816
-64.918
-64.821
-64.537
-64.077
-63.453
-62.679
-61.767
-60.728
-59.577
-58.325
-56.983
-55.564
-54.078
-52.536
-50.949
-49.327
-47.677
-46.011
-44.335
-42.658
-40.986
-39.327
-37.686
-36.069
-34.48
-32.924
-31.406
-29.927
-28.493
-27.104
-25.765
-24.476
-23.239
-22.056
-20.928
-19.854
-18.837
-17.875
-16.968
-16.117
-15.321
-14.58
-13.893
-13.26
-12.68
-12.155
-11.683
-11.264
-10.899
-10.588
-10.33
-10.127
-9.979
-9.885
-9.847
-9.866
-9.941
-10.073
-10.264
-10.512
-10.819
-11.185
-11.608
-12.089
-12.625
-13.217
-13.863
-14.56
-15.307
-16.101
-16.939
-17.818
-18.735
-19.687
-20.667
-21.672
-22.697
-23.735
-24.78
-25.825
-26.863
-27.887
-28.888
-29.858
-30.789
-31.672
-32.499
-33.261
-33.948
-34.552
-35.065
-35.476
-35.779
-35.966
-36.029
-35.962
-35.761
-35.421
-34.938
-34.31
-33.534
-32.611
-31.54
-30.322
-28.958
-27.453
-25.811
-24.039
-22.143
-20.135
-18.026
-15.83
-13.563
-11.241
-8.88
-6.5
-4.119
-1.761
0.552
2.801
4.961
7.013
8.932
10.696
12.282
13.672
14.85
15.802
16.514
16.97
17.157
17.067
16.697
16.045
15.11
13.882
12.352
10.52
8.388
5.962
3.252
0.267
-2.98
-6.46
-10.137
-13.967
-17.897
-21.889
-25.911
-29.936
-33.939
-37.872
-41.67
-45.272
-48.621
-51.664
-54.391
-56.783
-58.799
-60.5
-62.015
-63.542
-65.409
-67.897
-71.08
-74.985
-79.643
-84.918
-90.619
-96.415
-101.538
-105.194
-107.012
-106.83
-104.678
-100.922
-95.882
-89.941
-84.237
-80.252
-79.059
-81.415
-87.485
-96.78
-108.927
-123.582
-139.686
-154.17
-162.82
-162.204
-149.376
-125.324
-94.361
-56.677
-11.174
45.986
123.902
224.22
343.848
477.437
612.192
738.266
846.43
925.182
964.54
953.401
886.166
764.551
599.53
412.578
226.509
64.09
-57.528
-133.214
-165.548
-163.552
-140.643
-108.567
-76.221
-52.401
-42.508
-47.01
-64.235
-86.867
-106.017
-118.232
-122.838
-122.74
-122.881
-124.378
-126.272
-127.363
-126.016
-122.231
-117.18
-111.707
-106.562
-102.319
-99.236
-97.456
-97.022
-97.827
-99.666
-102.375
-105.817
-109.806
-114.158
-118.72
-123.315
-127.785
-131.985
-135.742
-138.922
-141.449
-143.272
-144.375
-144.762
-144.444
-143.455
-141.855
-139.701
-137.049
-133.955
-130.468
-126.651
-122.575
-118.312
-113.934
-109.49
-105.007
-100.506
-95.993
-91.466
-86.919
-82.335
-77.691
-72.968
-68.157
-63.246
-58.23
-53.099
-47.841
-42.445
-36.903
-31.21
-25.363
-19.362
-13.209
-6.911
-0.475
6.088
12.765
19.543
26.412
33.359
40.371
47.434
54.533
61.649
68.766
75.865
82.923
89.919
96.828
103.627
110.291
116.796
123.116
129.226
135.102
140.719
146.054
151.084
155.786
160.14
164.127
167.728
170.926
173.708
176.061
177.973
179.436
180.443
180.99
181.075
180.697
179.858
178.563
176.818
174.634
172.02
168.99
165.56
161.746
157.569
153.05
148.211
143.076
137.67
132.02
126.153
120.096
113.878
107.527
101.072
94.54
87.96
81.358
74.763
68.199
61.691
55.264
48.939
42.739
36.683
30.79
25.076
19.558
14.25
9.162
4.306
-0.31
-4.679
-8.797
-12.658
-16.263
-19.609
-22.699
-25.535
-28.12
-30.461
-32.562
-34.432
-36.079
-37.513
-38.742
-39.779
-40.634
-41.318
-41.844
-42.222
-42.465
-42.585
-42.593
-42.502
-42.322
-42.065
-41.742
-41.364
-40.94
-40.479
-39.991
-39.485
-38.966
-38.444
-37.923
-37.41
-36.911
-36.429
-35.968
-35.534
-35.127
-34.751
-34.408
-34.098
-33.823
-33.582
-33.377
-33.207
-33.071
-32.969
-32.9
-32.864
-32.86
-32.887
-32.944
-33.03
-33.145
-33.286
-33.454
-33.648
-33.866
-34.108
-34.374
-34.663
-34.975
-35.309
-35.667
-36.047
-36.449
-36.875
-37.323
-37.795
-38.29
-38.81
-39.354
-39.924
-40.519
-41.142
-41.791
-42.468
-43.173
-43.905
-44.664
-45.449
-46.26
-47.094
-47.949
-48.825
-49.718
-50.626
-51.546
-52.474
-53.408
-54.344
-55.277
-56.202
-57.116
-58.012
-58.886
-59.732
-60.544
-61.317
-62.045
-62.722
-63.343
-63.9
-64.388
-64.801
-65.134
-65.379
-65.53
-65.584
-65.535
-65.379
-65.113
-64.735
-64.242
-63.634
-62.911
-62.075
-61.127
-60.068
-58.902
-57.634
-56.27
-54.814
-53.277
-51.665
-49.989
-48.264
-46.504
-44.722
-42.935
-41.155
-39.4
-37.688
-36.036
-34.46
-32.977
-31.601
-30.349
-29.241
-28.294
-27.521
-26.934
-26.542
-26.352
-26.373
-26.61
-27.066
-27.74
-28.627
-29.728
-31.05
-32.596
-34.365
-36.355
-38.552
-40.943
-43.514
-46.243
-49.097
-52.039
-55.031
-58.033
-61.007
-63.92
-66.733
-69.41
-71.922
-74.221
-76.259
-77.984
-79.343
-80.322
-80.961
-81.285
-81.297
-81.076
-80.739
-80.51
-80.746
-81.63
-83.13
-85.238
-87.987
-91.308
-95.061
-98.721
-101.27
-102.032
-100.804
-97.51
-92.188
-84.911
-75.889
-66.112
-57.372
-51.305
-49.022
-51.059
-57.83
-69.019
-82.681
-96.169
-106.071
-110.611
-112.092
-112.161
-108.792
-95.993
-62.225
2.284
98.271
220.631
358.503
497.856
630.009
746.491
836.857
894.625
910.519
877.703
798.11
674.515
517.434
344.041
171.384
19.655
-96.5
-171.568
-207.8
-214.436
-200.33
-173.706
-139.873
-103.866
-74.242
-54.975
-47.754
-50.059
-53.074
-53.056
-49.607
-44.129
-41.924
-44.835
-51.394
-60.195
-68.603
-74.672
-78.36
-79.857
-79.394
-77.51
-74.657
-71.111
-67.432
-64.439
-62.509
-61.78
-62.314
-63.861
-66.172
-69.1
-72.301
-75.328
-77.925
-79.93
-81.268
-82.01
-82.176
-81.747
-80.776
-79.327
-77.456
-75.224
-72.66
-69.772
-66.601
-63.205
-59.652
-56.022
-52.363
-48.702
-45.06
-41.446
-37.866
-34.321
-30.799
-27.28
-23.75
-20.197
-16.612
-12.99
-9.317
-5.575
-1.749
2.178
6.221
10.387
14.684
19.116
23.684
28.39
33.228
38.191
43.275
48.474
53.782
59.192
64.695
70.281
75.937
81.651
87.407
93.188
98.977
104.753
110.496
116.186
121.8
127.315
132.709
137.96
143.043
147.937
152.618
157.064
161.252
165.163
168.775
172.07
175.031
177.641
179.886
181.753
183.231
184.311
184.988
185.254
185.109
184.55
183.58
182.202
180.42
178.243
175.68
172.742
169.443
165.798
161.825
157.54
152.965
148.119
143.025
137.705
132.183
126.482
120.627
114.642
108.552
102.381
96.154
89.894
83.624
77.366
71.143
64.976
58.882
52.882
46.993
41.231
35.61
30.146
24.85
19.732
14.804
10.073
5.546
1.229
-2.873
-6.759
-10.426
-13.874
-17.103
-20.115
-22.914
-25.503
-27.887
-30.071
-32.063
-33.867
-35.493
-36.948
-38.239
-39.375
-40.365
-41.216
-41.939
-42.54
-43.029
-43.414
-43.703
-43.905
-44.027
-44.078
-44.065
-43.995
-43.875
-43.712
-43.512
-43.282
-43.027
-42.752
-42.463
-42.164
-41.859
-41.552
-41.245
-40.942
-40.646
-40.357
-40.079
-39.814
-39.561
-39.325
-39.104
-38.902
-38.72
-38.558
-38.418
-38.302
-38.211
-38.145
-38.106
-38.096
-38.114
-38.163
-38.242
-38.353
-38.496
-38.672
-38.882
-39.124
-39.401
-39.712
-40.056
-40.435
-40.849
-41.297
-41.78
-42.298
-42.851
-43.44
-44.064
-44.722
-45.415
-46.141
-46.898
-47.686
-48.502
-49.344
-50.209
-51.093
-51.994
-52.909
-53.832
-54.761
-55.692
-56.619
-57.539
-58.446
-59.336
-60.203
-61.043
-61.849
-62.618
-63.343
-64.019
-64.641
-65.204
-65.701
-66.127
-66.476
-66.743
-66.921
-67.007
-66.993
-66.877
-66.654
-66.321
-65.875
-65.316
-64.641
-63.851
-62.946
-61.926
-60.794
-59.551
-58.202
-56.749
-55.199
-53.556
-51.829
-50.027
-48.16
-46.242
-44.282
-42.295
-40.295
-38.298
-36.32
-34.377
-32.481
-30.646
-28.887
-27.221
-25.664
-24.23
-22.931
-21.779
-20.784
-19.961
-19.321
-18.873
-18.615
-18.546
-18.666
-18.982
-19.51
-20.264
-21.249
-22.463
-23.909
-25.587
-27.493
-29.614
-31.913
-34.342
-36.855
-39.404
-41.962
-44.509
-47.012
-49.427
-51.684
-53.697
-55.409
-56.79
-57.8
-58.442
-58.701
-58.527
-58.032
-57.441
-56.96
-56.849
-57.228
-57.984
-59.177
-61.075
-63.696
-66.902
-70.417
-73.596
-76.158
-78.37
-80.179
-81.23
-81.39
-80.574
-79.108
-78.17
-78.581
-80.426
-83.949
-89.523
-97.416
-107.88
-120.463
-132.413
-139.918
-140.19
-131.205
-113.853
-90.762
-61.17
-21.491
34.59
113.672
215.908
336.041
465.228
593.193
712.493
814.613
889.532
928.035
921.331
868.72
776.592
652.635
508.448
354.372
200.602
62.674
-46.745
-120.676
-158.257
-168.013
-160.862
-144.417
-124.742
-106.426
-92.388
-85.286
-84.75
-85.666
-83.437
-76.221
-65.408
-55.831
-50.768
-50.3
-53.047
-56.878
-60.691
-64.464
-67.873
-70.421
-71.812
-71.965
-71.136
-69.693
-67.818
-65.754
-64.043
-63.199
-63.469
-64.889
-67.267
-70.307
-73.796
-77.467
-80.92
-83.864
-86.14
-87.664
-88.479
-88.644
-88.176
-87.128
-85.587
-83.611
-81.255
-78.567
-75.566
-72.301
-68.84
-65.253
-61.612
-57.968
-54.345
-50.762
-47.229
-43.747
-40.31
-36.908
-33.522
-30.142
-26.762
-23.377
-19.982
-16.565
-13.114
-9.616
-6.057
-2.426
1.283
5.075
8.952
12.913
16.957
21.078
25.272
29.533
33.858
38.242
42.68
47.166
51.691
56.246
60.822
65.406
69.986
74.544
79.068
83.539
87.94
92.255
96.465
100.551
104.494
108.277
111.878
115.28
118.462
121.406
124.094
126.507
128.63
130.447
131.942
133.103
133.918
134.377
134.471
134.194
133.538
132.503
131.084
129.285
127.106
124.551
121.629
118.345
114.712
110.742
106.447
101.844
96.949
91.781
86.359
80.705
74.838
68.783
62.563
56.201
49.723
43.152
36.514
29.834
23.136
16.444
9.782
3.173
-3.361
-9.798
-16.117
-22.3
-28.328
-34.183
-39.852
-45.319
-50.571
-55.599
-60.393
-64.943
-69.245
-73.292
-77.081
-80.61
-83.877
-86.884
-89.631
-92.121
-94.359
-96.349
-98.098
-99.613
-100.901
-101.971
-102.833
-103.496
-103.969
-104.264
-104.391
-104.362
-104.187
-103.878
-103.446
-102.902
-102.257
-101.522
-100.705
-99.819
-98.87
-97.869
-96.823
-95.74
-94.628
-93.493
-92.342
-91.18
-90.013
-88.846
-87.683
-86.527
-85.383
-84.254
-83.141
-82.048
-80.977
-79.929
-78.907
-77.911
-76.944
-76.005
-75.097
-74.22
-73.374
-72.56
-71.779
-71.03
-70.315
-69.634
-68.987
-68.375
-67.799
-67.26
-66.759
-66.297
-65.875
-65.496
-65.159
-64.868
-64.622
-64.424
-64.275
-64.177
-64.132
-64.14
-64.202
-64.32
-64.494
-64.725
-65.012
-65.354
-65.752
-66.204
-66.707
-67.262
-67.864
-68.513
-69.204
-69.934
-70.701
-71.499
-72.325
-73.173
-74.038
-74.914
-75.795
-76.674
-77.543
-78.394
-79.22
-80.012
-80.762
-81.462
-82.101
-82.672
-83.165
-83.57
-83.88
-84.086
-84.18
-84.154
-84
-83.714
-83.289
-82.72
-82.005
-81.138
-80.12
-78.948
-77.622
-76.143
-74.513
-72.735
-70.813
-68.753
-66.56
-64.244
-61.814
-59.283
-56.665
-53.974
-51.227
-48.442
-45.639
-42.836
-40.054
-37.312
-34.629
-32.024
-29.516
-27.127
-24.878
-22.788
-20.876
-19.161
-17.658
-16.384
-15.351
-14.566
-14.032
-13.755
-13.741
-14.003
-14.555
-15.401
-16.55
-18
-19.748
-21.785
-24.09
-26.625
-29.353
-32.228
-35.212
-38.273
-41.373
-44.468
-47.503
-50.41
-53.123
-55.591
-57.755
-59.561
-60.987
-62.038
-62.755
-63.224
-63.506
-63.651
-63.748
-63.892
-64.167
-64.631
-65.322
-66.315
-67.789
-69.937
-72.838
-76.374
-80.352
-84.668
-89.058
-92.985
-95.854
-96.904
-96.29
-95.581
-95.087
-94.337
-92.113
-85.18
-74.964
-66.122
-61.569
-65.744
-77.014
-88.841
-99.343
-104.564
-100.631
-84.69
-46.94
19.953
116.148
237.275
372.063
509.77
644.652
771.343
882.486
966.798
1009.778
1000.786
938.325
828.699
685.56
525.721
364.582
218.175
98.94
12.569
-40.401
-66.833
-76.597
-76.427
-71.847
-66.217
-60.697
-58.433
-60.197
-63.397
-66.442
-66.41
-62.558
-58.141
-54.692
-53.144
-53.814
-54.866
-55.479
-56.002
-56.471
-56.955
-57.601
-58.168
-58.305
-58.076
-57.511
-56.528
-55.407
-54.61
-54.349
-54.825
-56.227
-58.469
-61.453
-65.071
-68.988
-72.793
-76.198
-78.995
-81.065
-82.41
-83.031
-82.929
-82.166
-80.831
-79.002
-76.745
-74.101
-71.093
-67.759
-64.163
-60.376
-56.47
-52.515
-48.551
-44.605
-40.69
-36.815
-32.973
-29.157
-25.349
-21.527
-17.677
-13.792
-9.863
-5.884
-1.845
2.269
6.473
10.779
15.194
19.725
24.372
29.137
34.018
39.009
44.106
49.298
54.577
59.938
65.372
70.87
76.423
82.018
87.641
93.279
98.916
104.533
110.112
115.631
121.071
126.409
131.623
136.691
141.589
146.295
150.786
155.039
159.034
162.749
166.164
169.26
172.018
174.424
176.46
178.115
179.376
180.233
180.679
180.708
180.316
179.501
178.263
176.606
174.533
172.052
169.17
165.9
162.253
158.245
153.894
149.218
144.237
138.974
133.453
127.697
121.733
115.586
109.284
102.853
96.321
89.714
83.062
76.389
69.722
63.087
56.509
50.01
43.615
37.344
31.218
25.256
19.474
13.89
8.518
3.37
-1.542
-6.208
-10.62
-14.771
-18.658
-22.276
-25.625
-28.704
-31.515
-34.062
-36.348
-38.379
-40.162
-41.705
-43.018
-44.109
-44.99
-45.671
-46.165
-46.482
-46.637
-46.64
-46.504
-46.242
-45.866
-45.388
-44.821
-44.176
-43.464
-42.697
-41.885
-41.039
-40.169
-39.282
-38.388
-37.495
-36.61
-35.739
-34.889
-34.064
-33.271
-32.512
-31.792
-31.114
-30.479
-29.89
-29.347
-28.851
-28.402
-27.999
-27.642
-27.331
-27.064
-26.841
-26.659
-26.517
-26.414
-26.348
-26.317
-26.318
-26.349
-26.409
-26.496
-26.607
-26.743
-26.9
-27.079
-27.278
-27.496
-27.733
-27.988
-28.261
-28.548
-28.851
-29.169
-29.501
-29.848
-30.211
-30.59
-30.985
-31.399
-31.832
-32.286
-32.761
-33.257
-33.776
-34.318
-34.884
-35.474
-36.09
-36.732
-37.4
-38.094
-38.815
-39.561
-40.331
-41.122
-41.93
-42.753
-43.585
-44.421
-45.256
-46.085
-46.904
-47.71
-48.498
-49.263
-50
-50.706
-51.374
-51.997
-52.565
-53.066
-53.49
-53.827
-54.069
-54.209
-54.239
-54.152
-53.941
-53.606
-53.141
-52.541
-51.797
-50.891
-49.815
-48.574
-47.177
-45.644
-43.991
-42.23
-40.383
-38.481
-36.545
-34.591
-32.616
-30.598
-28.534
-26.431
-24.311
-22.212
-20.152
-18.13
-16.145
-14.19
-12.256
-10.346
-8.438
-6.484
-4.473
-2.421
-0.381
1.551
3.311
4.865
6.186
7.265
8.069
8.542
8.646
8.355
7.631
6.453
4.767
2.494
-0.376
-3.806
-7.717
-11.968
-16.467
-21.148
-25.935
-30.752
-35.504
-40.08
-44.403
-48.427
-52.086
-55.337
-58.126
-60.4
-62.196
-63.581
-64.648
-65.539
-66.371
-67.247
-68.285
-69.592
-71.283
-73.53
-76.45
-80.043
-84.187
-88.58
-92.868
-96.731
-99.739
-101.346
-101.067
-98.631
-94.281
-88.771
-82.911
-77.567
-73.665
-72.034
-73.668
-78.364
-83.665
-86.793
-84.878
-76.806
-65.3
-51.609
-33.251
-4.844
43.471
119.792
224.088
351.883
493.921
637.238
772.119
887.194
969.222
1007.917
994.025
925.528
808.176
653.041
477.244
298.769
136.874
7.604
-82.109
-132.109
-150.68
-149.554
-135.83
-115.024
-91.349
-66.669
-45.631
-31.128
-21.301
-15.364
-11.512
-9.116
-11.164
-18.653
-31.02
-46.56
-61.929
-74.821
-84.205
-89.83
-92.115
-91.574
-88.899
-84.987
-80.755
-77.183
-74.937
-74.239
-75.158
-77.561
-81.155
-85.654
-90.67
-95.715
-100.443
-104.627
-108.122
-110.916
-113.01
-114.389
-115.076
-115.119
-114.558
-113.447
-111.826
-109.714
-107.149
-104.181
-100.873
-97.306
-93.558
-89.704
-85.798
-81.877
-77.971
-74.099
-70.274
-66.499
-62.772
-59.076
-55.404
-51.75
-48.107
-44.47
-40.827
-37.163
-33.461
-29.711
-25.902
-22.027
-18.081
-14.056
-9.951
-5.766
-1.501
2.84
7.253
11.739
16.294
20.915
25.598
30.336
35.122
39.948
44.805
49.679
54.558
59.425
64.266
69.063
73.799
78.455
83.011
87.448
91.747
95.885
99.844
103.603
107.14
110.437
113.473
116.229
118.688
120.831
122.644
124.112
125.221
125.961
126.32
126.292
125.871
125.051
123.832
122.214
120.199
117.791
114.997
111.828
108.293
104.405
100.181
95.637
90.79
85.661
80.271
74.642
68.797
62.76
56.557
50.213
43.753
37.205
30.596
23.951
17.297
10.661
4.069
-2.455
-8.885
-15.199
-21.374
-27.389
-33.224
-38.861
-44.283
-49.475
-54.425
-59.12
-63.551
-67.711
-71.592
-75.191
-78.505
-81.533
-84.275
-86.732
-88.908
-90.808
-92.438
-93.803
-94.914
-95.777
-96.405
-96.808
-96.998
-96.986
-96.788
-96.416
-95.885
-95.209
-94.402
-93.481
-92.458
-91.348
-90.165
-88.923
-87.633
-86.307
-84.958
-83.594
-82.226
-80.863
-79.511
-78.178
-76.869
-75.591
-74.348
-73.142
-71.979
-70.858
-69.784
-68.756
-67.775
-66.841
-65.954
-65.114
-64.318
-63.564
-62.852
-62.176
-61.536
-60.928
-60.347
-59.792
-59.259
-58.744
-58.244
-57.758
-57.281
-56.814
-56.353
-55.897
-55.447
-55.001
-54.561
-54.126
-53.698
-53.278
-52.868
-52.47
-52.088
-51.722
-51.375
-51.051
-50.751
-50.478
-50.235
-50.024
-49.848
-49.708
-49.608
-49.549
-49.532
-49.56
-49.633
-49.753
-49.919
-50.131
-50.389
-50.692
-51.038
-51.425
-51.849
-52.309
-52.798
-53.313
-53.849
-54.398
-54.955
-55.512
-56.06
-56.593
-57.101
-57.577
-58.011
-58.397
-58.724
-58.984
-59.17
-59.273
-59.285
-59.198
-59.006
-58.701
-58.278
-57.731
-57.056
-56.248
-55.306
-54.226
-53.008
-51.651
-50.158
-48.528
-46.766
-44.876
-42.863
-40.734
-38.498
-36.165
-33.748
-31.262
-28.721
-26.144
-23.547
-20.95
-18.37
-15.826
-13.336
-10.919
-8.593
-6.377
-4.289
-2.35
-0.579
1.004
2.383
3.543
4.47
5.154
5.588
5.768
5.687
5.339
4.709
3.788
2.568
1.045
-0.781
-2.905
-5.314
-7.982
-10.871
-13.943
-17.154
-20.468
-23.854
-27.276
-30.688
-34.036
-37.26
-40.303
-43.125
-45.685
-47.931
-49.834
-51.394
-52.648
-53.684
-54.597
-55.422
-56.203
-57.089
-58.228
-59.797
-61.971
-64.769
-68.226
-72.513
-77.702
-83.537
-89.624
-95.364
-100.118
-103.639
-105.616
-105.558
-103.286
-99.245
-94.301
-89.701
-86.791
-86.24
-88.688
-95.027
-104.65
-115.119
-123.775
-127.148
-123.984
-116.422
-103.43
-81.841
-45.363
15.546
103.345
214.331
340.851
471.445
599.116
719.509
825.361
907.935
954.676
952.784
898.208
794.084
650.718
484.859
313.193
152.636
18.626
-78.772
-137.232
-161.242
-158.991
-141.846
-117.043
-90.426
-70.135
-58.568
-57.37
-64.873
-72.638
-76.877
-76.739
-73.537
-72.87
-76.573
-83.253
-91.362
-98.009
-102.005
-103.863
-103.585
-101.441
-97.996
-93.668
-89.143
-85.247
-82.316
-80.439
-79.814
-80.454
-82.243
-85.036
-88.492
-92.16
-95.75
-99.051
-101.855
-104.078
-105.66
-106.538
-106.734
-106.294
-105.252
-103.655
-101.549
-98.96
-95.926
-92.5
-88.732
-84.69
-80.449
-76.077
-71.644
-67.199
-62.774
-58.391
-54.062
-49.79
-45.57
-41.388
-37.226
-33.068
-28.905
-24.725
-20.519
-16.269
-11.96
-7.577
-3.107
1.458
6.126
10.904
15.794
20.796
25.908
31.126
36.442
41.85
47.344
52.917
58.559
64.261
70.011
75.796
81.601
87.411
93.208
98.973
104.683
110.318
115.856
121.273
126.546
131.652
136.566
141.265
145.726
149.926
153.842
157.452
160.736
163.675
166.25
168.444
170.243
171.634
172.606
173.149
173.258
172.926
172.152
170.935
169.279
167.187
164.666
161.727
158.38
154.639
150.521
146.044
141.228
136.094
130.665
124.967
119.024
112.864
106.514
100.002
93.357
86.607
79.781
72.908
66.017
59.135
52.289
45.506
38.812
32.231
25.786
19.498
13.388
7.475
1.776
-3.694
-8.922
-13.896
-18.605
-23.043
-27.203
-31.08
-34.672
-37.978
-41
-43.738
-46.198
-48.384
-50.303
-51.963
-53.372
-54.541
-55.48
-56.201
-56.716
-57.038
-57.18
-57.156
-56.98
-56.664
-56.225
-55.674
-55.025
-54.293
-53.49
-52.628
-51.72
-50.775
-49.807
-48.823
-47.833
-46.847
-45.871
-44.912
-43.976
-43.07
-42.197
-41.362
-40.567
-39.815
-39.108
-38.446
-37.832
-37.264
-36.743
-36.268
-35.837
-35.448
-35.101
-34.793
-34.522
-34.285
-34.079
-33.902
-33.751
-33.624
-33.518
-33.431
-33.359
-33.302
-33.257
-33.223
-33.197
-33.179
-33.168
-33.163
-33.163
-33.17
-33.181
-33.199
-33.222
-33.253
-33.292
-33.34
-33.398
-33.467
-33.549
-33.645
-33.756
-33.885
-34.03
-34.195
-34.38
-34.586
-34.813
-35.063
-35.334
-35.628
-35.944
-36.281
-36.639
-37.016
-37.41
-37.821
-38.245
-38.679
-39.121
-39.565
-40.009
-40.448
-40.877
-41.291
-41.685
-42.054
-42.391
-42.692
-42.95
-43.16
-43.316
-43.411
-43.439
-43.396
-43.276
-43.074
-42.787
-42.409
-41.937
-41.37
-40.704
-39.938
-39.072
-38.104
-37.036
-35.87
-34.608
-33.254
-31.814
-30.294
-28.704
-27.055
-25.357
-23.624
-21.869
-20.105
-18.348
-16.61
-14.907
-13.252
-11.66
-10.145
-8.725
-7.415
-6.233
-5.195
-4.314
-3.603
-3.075
-2.737
-2.595
-2.652
-2.915
-3.391
-4.096
-5.039
-6.226
-7.661
-9.342
-11.262
-13.406
-15.747
-18.247
-20.864
-23.562
-26.311
-29.085
-31.855
-34.582
-37.214
-39.704
-42.003
-44.081
-45.913
-47.454
-48.688
-49.634
-50.347
-50.924
-51.471
-52.019
-52.598
-53.355
-54.42
-55.942
-58.083
-60.826
-64.159
-68.228
-73.082
-78.443
-83.923
-88.92
-92.766
-95.24
-96.091
-94.855
-91.384
-86.107
-79.819
-73.705
-69.103
-66.696
-67.035
-71
-78.153
-86.07
-92.153
-93.356
-88.066
-78.391
-64.947
-45.036
-13.946
36.333
111.723
210.869
328.849
457.59
586.955
709.406
815.329
892.476
928.75
912.739
841.109
719.331
560.64
384.752
210.407
54.862
-68.018
-151.624
-194.532
-200.951
-181.733
-149.191
-114.848
-89.775
-77.752
-76.493
-80.822
-81.698
-74.966
-62.392
-48.189
-38.675
-36.287
-39.651
-46.598
-54.434
-62.083
-69.364
-75.438
-79.877
-82.614
-83.677
-83.571
-82.74
-81.302
-79.654
-78.522
-78.339
-79.302
-81.402
-84.317
-87.772
-91.59
-95.458
-99.003
-101.981
-104.239
-105.733
-106.532
-106.677
-106.194
-105.146
-103.598
-101.609
-99.231
-96.493
-93.427
-90.085
-86.535
-82.852
-79.093
-75.293
-71.476
-67.659
-63.847
-60.044
-56.24
-52.419
-48.571
-44.694
-40.782
-36.835
-32.845
-28.801
-24.693
-20.51
-16.242
-11.883
-7.43
-2.879
1.767
6.503
11.326
16.225
21.194
26.228
31.32
36.463
41.649
46.869
52.113
57.368
62.623
67.862
73.068
78.227
83.318
88.326
93.231
98.014
102.655
107.135
111.435
115.534
119.413
123.053
126.435
129.54
132.351
134.851
137.026
138.86
140.341
141.458
142.203
142.566
142.544
142.131
141.326
140.129
138.542
136.568
134.214
131.487
128.397
124.956
121.177
117.077
112.67
107.977
103.017
97.811
92.38
86.748
80.938
74.974
68.881
62.684
56.409
50.081
43.725
37.367
31.032
24.742
18.522
12.393
6.377
0.494
-5.238
-10.802
-16.181
-21.36
-26.327
-31.071
-35.58
-39.847
-43.864
-47.627
-51.132
-54.376
-57.358
-60.08
-62.542
-64.748
-66.703
-68.41
-69.877
-71.111
-72.12
-72.912
-73.498
-73.887
-74.09
-74.119
-73.985
-73.7
-73.274
-72.72
-72.048
-71.271
-70.398
-69.441
-68.41
-67.314
-66.163
-64.965
-63.729
-62.462
-61.171
-59.864
-58.545
-57.219
-55.892
-54.567
-53.249
-51.939
-50.641
-49.358
-48.09
-46.84
-45.608
-44.395
-43.202
-42.028
-40.874
-39.74
-38.624
-37.528
-36.45
-35.39
-34.349
-33.327
-32.323
-31.338
-30.372
-29.427
-28.502
-27.598
-26.717
-25.86
-25.028
-24.222
-23.444
-22.697
-21.981
-21.299
-20.654
-20.046
-19.478
-18.952
-18.47
-18.034
-17.646
-17.307
-17.02
-16.786
-16.607
-16.484
-16.418
-16.409
-16.457
-16.562
-16.723
-16.939
-17.208
-17.528
-17.896
-18.309
-18.764
-19.257
-19.785
-20.342
-20.924
-21.526
-22.143
-22.768
-23.396
-24.02
-24.634
-25.233
-25.808
-26.355
-26.866
-27.335
-27.754
-28.118
-28.418
-28.649
-28.805
-28.878
-28.863
-28.756
-28.551
-28.246
-27.838
-27.324
-26.703
-25.975
-25.14
-24.2
-23.156
-22.013
-20.774
-19.444
-18.03
-16.54
-14.983
-13.372
-11.717
-10.031
-8.326
-6.618
-4.923
-3.258
-1.64
-0.084
1.394
2.78
4.054
5.2
6.2
7.041
7.71
8.195
8.483
8.56
8.413
8.038
7.439
6.618
5.574
4.293
2.766
0.993
-1.023
-3.274
-5.753
-8.456
-11.371
-14.466
-17.7
-21.025
-24.392
-27.776
-31.156
-34.517
-37.831
-41.034
-44.052
-46.817
-49.283
-51.429
-53.248
-54.714
-55.792
-56.529
-57.067
-57.665
-58.577
-59.918
-61.655
-63.687
-66.08
-68.957
-72.23
-75.536
-78.321
-80.121
-80.894
-80.919
-80.184
-78.446
-75.666
-72.094
-68.503
-66.007
-65.221
-66.185
-69.015
-73.998
-81.367
-90.994
-102.023
-111.785
-116.728
-115.034
-105.37
-87.526
-63.146
-29.381
18.589
82.996
166.698
265.962
372.18
480.982
587.743
689.524
783.154
858.423
901.818
900.806
849.533
750.992
616.224
461.529
302.733
155.004
31.416
-59.331
-113.889
-134.175
-127.07
-103.706
-74.3
-49.296
-36.707
-37.324
-48.356
-62.115
-70.909
-73.077
-70.792
-69.366
-72.575
-79.824
-88.363
-95.105
-98.693
-99.448
-97.963
-94.644
-89.791
-84.015
-78.375
-73.668
-70.186
-67.944
-66.842
-66.953
-68.348
-70.837
-74.004
-77.47
-81.005
-84.476
-87.817
-90.886
-93.493
-95.535
-96.988
-97.858
-98.164
-97.917
-97.109
-95.762
-93.931
-91.669
-89.038
-86.095
-82.883
-79.46
-75.887
-72.222
-68.523
-64.834
-61.175
-57.561
-53.994
-50.468
-46.975
-43.5
-40.02
-36.517
-32.973
-29.373
-25.705
-21.959
-18.121
-14.18
-10.124
-5.945
-1.639
2.796
7.362
12.055
16.873
21.809
26.855
32.001
37.24
42.563
47.959
53.417
58.926
64.47
70.035
75.605
81.159
86.679
92.143
97.529
102.814
107.975
112.988
117.832
122.482
126.916
131.111
135.046
138.701
142.056
145.093
147.794
150.143
152.128
153.735
154.955
155.778
156.199
156.211
155.813
155.003
153.782
152.154
150.124
147.699
144.887
141.701
138.154
134.261
130.039
125.507
120.686
115.598
110.265
104.712
98.962
93.041
86.974
80.787
74.507
68.157
61.764
55.353
48.948
42.573
36.249
30
23.845
17.804
11.896
6.138
0.545
-4.868
-10.087
-15.102
-19.902
-24.479
-28.825
-32.935
-36.805
-40.433
-43.817
-46.96
-49.861
-52.525
-54.955
-57.157
-59.137
-60.901
-62.459
-63.817
-64.985
-65.972
-66.788
-67.443
-67.946
-68.307
-68.538
-68.646
-68.644
-68.539
-68.342
-68.062
-67.707
-67.286
-66.808
-66.279
-65.706
-65.097
-64.457
-63.791
-63.105
-62.403
-61.688
-60.964
-60.233
-59.498
-58.76
-58.022
-57.284
-56.547
-55.813
-55.082
-54.354
-53.63
-52.911
-52.197
-51.487
-50.784
-50.086
-49.395
-48.711
-48.035
-47.368
-46.709
-46.062
-45.426
-44.803
-44.194
-43.601
-43.027
-42.472
-41.94
-41.433
-40.953
-40.504
-40.089
-39.71
-39.372
-39.076
-38.826
-38.626
-38.478
-38.385
-38.35
-38.375
-38.462
-38.614
-38.831
-39.116
-39.47
-39.892
-40.384
-40.945
-41.575
-42.274
-43.041
-43.873
-44.769
-45.727
-46.744
-47.817
-48.941
-50.114
-51.329
-52.582
-53.865
-55.173
-56.498
-57.833
-59.17
-60.501
-61.817
-63.11
-64.37
-65.59
-66.76
-67.871
-68.913
-69.879
-70.758
-71.544
-72.227
-72.801
-73.258
-73.591
-73.795
-73.865
-73.796
-73.583
-73.224
-72.717
-72.061
-71.255
-70.302
-69.205
-67.966
-66.594
-65.097
-63.485
-61.769
-59.964
-58.082
-56.141
-54.156
-52.144
-50.122
-48.107
-46.117
-44.171
-42.289
-40.492
-38.8
-37.235
-35.816
-34.562
-33.495
-32.628
-31.973
-31.541
-31.341
-31.388
-31.7
-32.292
-33.173
-34.351
-35.828
-37.602
-39.665
-41.994
-44.549
-47.288
-50.171
-53.159
-56.227
-59.339
-62.454
-65.527
-68.495
-71.308
-73.925
-76.304
-78.409
-80.221
-81.744
-83.029
-84.176
-85.284
-86.434
-87.702
-89.157
-90.883
-92.972
-95.508
-98.551
-102.166
-106.462
-111.519
-117.336
-123.802
-130.636
-137.439
-143.778
-149.141
-152.876
-154.422
-153.525
-150.185
-144.758
-137.99
-130.741
-124.027
-119.313
-117.092
-116.074
-114.646
-110.786
-104.336
-98.43
-94.826
-91.906
-82.722
-55.436
0.168
88.735
206.876
345.694
494.435
641.918
778.305
891.275
966.378
990.597
954.271
857.721
711.937
534.993
350.505
179.588
37.25
-66.619
-132.45
-165.168
-170.663
-159.885
-139.83
-116.983
-100.532
-92.097
-91.919
-97.667
-101.165
-99.797
-94.386
-87.319
-84.311
-87.387
-95.016
-105.136
-114.756
-122.081
-126.92
-129.105
-128.668
-125.936
-121.344
-115.576
-109.458
-103.788
-99.084
-95.706
-93.873
-93.549
-94.577
-96.701
-99.562
-102.753
-105.973
-109.001
-111.657
-113.841
-115.487
-116.547
-117.026
-116.961
-116.377
-115.289
-113.723
-111.7
-109.257
-106.448
-103.325
-99.942
-96.355
-92.622
-88.795
-84.933
-81.071
-77.227
-73.413
-69.629
-65.868
-62.124
-58.381
-54.617
-50.812
-46.949
-43.012
-38.985
-34.854
-30.604
-26.22
-21.692
-17.012
-12.174
-7.178
-2.022
3.289
8.751
14.356
20.093
25.951
31.918
37.982
44.13
50.347
56.614
62.914
69.229
75.537
81.815
88.04
94.187
100.23
106.144
111.904
117.482
122.855
127.996
132.881
137.486
141.789
145.768
149.401
152.671
155.561
158.053
160.136
161.798
163.028
163.821
164.171
164.076
163.535
162.551
161.127
159.271
156.991
154.299
151.207
147.731
143.887
139.695
135.175
130.349
125.24
119.873
114.273
108.465
102.477
96.334
90.064
83.693
77.248
70.755
64.24
57.73
51.247
44.817
38.462
32.204
26.063
20.06
14.211
8.534
3.044
-2.245
-7.323
-12.178
-16.801
-21.185
-25.325
-29.216
-32.856
-36.243
-39.378
-42.262
-44.897
-47.288
-49.438
-51.353
-53.04
-54.505
-55.757
-56.803
-57.652
-58.314
-58.797
-59.112
-59.27
-59.28
-59.153
-58.9
-58.531
-58.058
-57.489
-56.837
-56.109
-55.316
-54.466
-53.568
-52.629
-51.658
-50.662
-49.645
-48.615
-47.577
-46.534
-45.492
-44.454
-43.423
-42.402
-41.394
-40.401
-39.426
-38.47
-37.535
-36.623
-35.735
-34.873
-34.037
-33.229
-32.448
-31.695
-30.972
-30.277
-29.613
-28.978
-28.374
-27.801
-27.259
-26.75
-26.275
-25.834
-25.429
-25.062
-24.733
-24.446
-24.203
-24.007
-23.859
-23.764
-23.723
-23.741
-23.818
-23.959
-24.165
-24.438
-24.779
-25.191
-25.674
-26.229
-26.856
-27.555
-28.326
-29.166
-30.075
-31.051
-32.09
-33.189
-34.344
-35.551
-36.805
-38.101
-39.433
-40.793
-42.176
-43.572
-44.975
-46.373
-47.758
-49.118
-50.442
-51.72
-52.939
-54.088
-55.155
-56.13
-56.999
-57.753
-58.382
-58.874
-59.22
-59.411
-59.44
-59.298
-58.98
-58.482
-57.8
-56.931
-55.874
-54.629
-53.198
-51.584
-49.79
-47.822
-45.685
-43.389
-40.941
-38.354
-35.64
-32.813
-29.892
-26.897
-23.848
-20.767
-17.679
-14.605
-11.572
-8.603
-5.719
-2.942
-0.292
2.208
4.537
6.672
8.592
10.281
11.721
12.898
13.797
14.408
14.731
14.766
14.51
13.96
13.098
11.913
10.401
8.563
6.403
3.931
1.164
-1.871
-5.119
-8.527
-12.039
-15.604
-19.189
-22.752
-26.237
-29.576
-32.688
-35.496
-37.951
-40.012
-41.633
-42.798
-43.52
-43.85
-43.887
-43.74
-43.504
-43.277
-43.153
-43.231
-43.618
-44.444
-45.882
-48.077
-51.069
-54.8
-59.077
-63.583
-67.972
-71.772
-74.337
-75.109
-73.81
-70.476
-65.584
-60.009
-54.73
-50.798
-49.494
-51.197
-55.014
-59.631
-62.778
-63.555
-63.034
-60.959
-56.003
-42.324
-10.375
46.654
133.147
246.087
376.965
518.366
660.89
796.628
916.091
1004.965
1050.094
1040.539
973.494
855.116
697.36
517.629
334.308
166.249
30.005
-64.179
-115.174
-129.729
-117.575
-91.032
-58.099
-25.442
-2.316
8.824
6.971
-5.16
-17.724
-26.919
-32.333
-34.832
-39.551
-47.637
-56.694
-65.057
-70.312
-71.243
-68.591
-63.143
-55.746
-47.602
-39.849
-33.14
-27.882
-24.371
-22.562
-22.36
-23.685
-26.171
-29.332
-32.877
-36.577
-40.228
-43.738
-46.952
-49.683
-51.863
-53.47
-54.475
-54.875
-54.663
-53.822
-52.387
-50.418
-47.97
-45.109
-41.892
-38.368
-34.604
-30.667
-26.625
-22.542
-18.464
-14.415
-10.412
-6.462
-2.561
1.298
5.133
8.97
12.83
16.729
20.686
24.711
28.818
33.021
37.333
41.765
46.326
51.021
55.852
60.82
65.922
71.155
76.511
81.981
87.554
93.222
98.973
104.796
110.68
116.609
122.568
128.539
134.503
140.439
146.325
152.135
157.846
163.431
168.864
174.119
179.168
183.984
188.542
192.815
196.777
200.404
203.673
206.562
209.049
211.116
212.747
213.925
214.639
214.878
214.633
213.899
212.672
210.952
208.739
206.039
202.858
199.204
195.091
190.532
185.544
180.147
174.361
168.211
161.722
154.92
147.835
140.496
132.934
125.18
117.268
109.228
101.095
92.901
84.677
76.457
68.27
60.148
52.118
44.208
36.445
28.852
21.454
14.27
7.319
0.62
-5.814
-11.968
-17.833
-23.399
-28.659
-33.61
-38.247
-42.57
-46.581
-50.282
-53.677
-56.774
-59.579
-62.102
-64.353
-66.343
-68.086
-69.593
-70.879
-71.958
-72.844
-73.553
-74.1
-74.498
-74.763
-74.908
-74.948
-74.895
-74.763
-74.563
-74.306
-74.002
-73.661
-73.291
-72.9
-72.494
-72.081
-71.663
-71.248
-70.837
-70.433
-70.04
-69.659
-69.291
-68.936
-68.595
-68.267
-67.952
-67.649
-67.356
-67.072
-66.797
-66.528
-66.266
-66.009
-65.757
-65.508
-65.263
-65.022
-64.784
-64.552
-64.327
-64.109
-63.901
-63.706
-63.527
-63.366
-63.227
-63.112
-63.027
-62.974
-62.957
-62.979
-63.044
-63.155
-63.316
-63.529
-63.798
-64.125
-64.513
-64.962
-65.475
-66.053
-66.695
-67.402
-68.173
-69.006
-69.899
-70.85
-71.856
-72.912
-74.014
-75.157
-76.335
-77.541
-78.768
-80.009
-81.255
-82.498
-83.729
-84.938
-86.118
-87.257
-88.346
-89.376
-90.338
-91.222
-92.019
-92.72
-93.317
-93.8
-94.163
-94.397
-94.495
-94.452
-94.26
-93.916
-93.416
-92.756
-91.934
-90.948
-89.799
-88.486
-87.013
-85.381
-83.595
-81.66
-79.582
-77.371
-75.033
-72.581
-70.025
-67.379
-64.659
-61.879
-59.058
-56.212
-53.361
-50.523
-47.717
-44.962
-42.275
-39.674
-37.178
-34.804
-32.572
-30.5
-28.607
-26.91
-25.425
-24.166
-23.146
-22.372
-21.849
-21.581
-21.575
-21.843
-22.395
-23.237
-24.374
-25.806
-27.529
-29.531
-31.786
-34.257
-36.902
-39.677
-42.542
-45.464
-48.408
-51.334
-54.198
-56.94
-59.504
-61.84
-63.899
-65.639
-67.034
-68.088
-68.842
-69.384
-69.803
-70.174
-70.576
-71.092
-71.815
-72.844
-74.275
-76.174
-78.635
-81.817
-85.824
-90.652
-96.161
-101.981
-107.667
-112.803
-116.888
-119.308
-119.597
-117.587
-113.522
-108.173
-102.574
-97.721
-94.553
-94.16
-96.703
-100.847
-104.689
-105.514
-101.98
-95.326
-86.088
-73.025
-51.22
-12.379
50.561
140.929
256.082
389.305
531.435
671.515
799.054
901.187
965.005
980.194
938.803
841.126
695.371
516.758
328.898
155.266
14.762
-80.575
-132.77
-150.35
-143.135
-124.544
-101.557
-79.699
-67.468
-65.465
-73.065
-87.277
-98.309
-102.272
-99.583
-92.13
-85.931
-84.002
-85.631
-89.469
-93.399
-96.363
-98.373
-99.672
-100.435
-100.344
-99.275
-97.431
-94.94
-92.206
-89.821
-88.015
-86.991
-87.025
-88.088
-90.074
-92.897
-96.214
-99.606
-102.804
-105.562
-107.716
-109.249
-110.133
-110.341
-109.93
-108.959
-107.486
-105.578
-103.27
-100.58
-97.548
-94.219
-90.656
-86.935
-83.124
-79.286
-75.464
-71.684
-67.963
-64.307
-60.71
-57.167
-53.661
-50.17
-46.681
-43.184
-39.667
-36.123
-32.536
-28.887
-25.161
-21.345
-17.426
-13.4
-9.259
-5.001
-0.626
3.865
8.467
13.174
17.979
22.877
27.862
32.927
38.062
43.256
48.497
53.772
59.066
64.362
69.642
74.886
80.072
85.179
90.186
95.069
99.805
104.372
108.745
112.902
116.822
120.481
123.858
126.934
129.688
132.104
134.164
135.853
137.159
138.07
138.576
138.67
138.348
137.605
136.44
134.856
132.854
130.441
127.623
124.412
120.818
116.857
112.543
107.897
102.937
97.685
92.165
86.399
80.415
74.236
67.89
61.403
54.803
48.117
41.372
34.596
27.814
21.054
14.34
7.697
1.149
-5.283
-11.576
-17.711
-23.67
-29.434
-34.99
-40.323
-45.42
-50.272
-54.868
-59.203
-63.271
-67.068
-70.593
-73.845
-76.827
-79.54
-81.991
-84.184
-86.127
-87.827
-89.294
-90.537
-91.567
-92.395
-93.033
-93.492
-93.785
-93.925
-93.924
-93.795
-93.551
-93.203
-92.765
-92.248
-91.663
-91.022
-90.335
-89.612
-88.863
-88.096
-87.319
-86.541
-85.767
-85.004
-84.256
-83.527
-82.821
-82.142
-81.489
-80.866
-80.273
-79.71
-79.177
-78.675
-78.201
-77.756
-77.338
-76.945
-76.576
-76.229
-75.903
-75.597
-75.307
-75.034
-74.775
-74.531
-74.299
-74.079
-73.871
-73.673
-73.486
-73.31
-73.145
-72.991
-72.848
-72.718
-72.601
-72.5
-72.415
-72.349
-72.303
-72.279
-72.279
-72.304
-72.357
-72.44
-72.553
-72.698
-72.877
-73.09
-73.338
-73.622
-73.942
-74.298
-74.689
-75.113
-75.569
-76.054
-76.566
-77.1
-77.654
-78.224
-78.805
-79.392
-79.982
-80.568
-81.146
-81.71
-82.255
-82.773
-83.26
-83.709
-84.114
-84.471
-84.774
-85.018
-85.2
-85.314
-85.358
-85.328
-85.221
-85.036
-84.771
-84.425
-83.998
-83.493
-82.912
-82.258
-81.537
-80.757
-79.925
-79.052
-78.148
-77.225
-76.295
-75.372
-74.468
-73.595
-72.766
-71.993
-71.29
-70.669
-70.146
-69.734
-69.447
-69.298
-69.298
-69.459
-69.789
-70.29
-70.967
-71.82
-72.856
-74.086
-75.521
-77.165
-79.021
-81.09
-83.364
-85.829
-88.458
-91.209
-94.04
-96.907
-99.769
-102.598
-105.359
-108.017
-110.526
-112.831
-114.877
-116.621
-118.025
-119.051
-119.683
-119.941
-119.88
-119.603
-119.215
-118.795
-118.417
-118.168
-118.131
-118.4
-119.073
-120.195
-121.842
-124.171
-127.252
-131.062
-135.443
-139.982
-144.188
-147.648
-149.849
-150.145
-148.123
-143.66
-137.02
-129.053
-120.833
-113.31
-107.423
-104.389
-104.34
-105.673
-106.458
-103.967
-96.865
-87.482
-76.99
-63.122
-40.667
0.375
68.826
165.179
284.836
418.424
552.919
679.48
789.689
872.677
920.032
922.401
873.019
773.667
630.414
456.288
271.244
95.454
-49.864
-149.154
-198.69
-202.026
-173.31
-130.814
-88.468
-59.454
-47.309
-47.363
-53.703
-56.116
-50.056
-38.037
-24.149
-14.899
-13.109
-17.287
-25.046
-33.36
-40.607
-46.204
-49.641
-50.92
-50.12
-47.473
-43.617
-39.036
-34.198
-29.86
-26.567
-24.588
-24.058
-24.815
-26.568
-29.097
-32.094
-35.121
-37.847
-40.059
-41.633
-42.583
-42.942
-42.701
-41.892
-40.574
-38.801
-36.621
-34.071
-31.162
-27.919
-24.399
-20.668
-16.805
-12.884
-8.952
-5.043
-1.177
2.633
6.383
10.076
13.724
17.346
20.956
24.564
28.177
31.803
35.456
39.152
42.91
46.745
50.668
54.69
58.814
63.047
67.389
71.839
76.394
81.047
85.794
90.628
95.547
100.544
105.612
110.741
115.922
121.144
126.394
131.656
136.916
142.153
147.349
152.485
157.539
162.489
167.313
171.989
176.494
180.806
184.901
188.756
192.352
195.665
198.676
201.366
203.716
205.711
207.335
208.575
209.422
209.864
209.896
209.511
208.706
207.48
205.833
203.769
201.292
198.409
195.13
191.465
187.429
183.038
178.309
173.262
167.917
162.298
156.426
150.328
144.028
137.552
130.928
124.182
117.341
110.434
103.486
96.524
89.576
82.665
75.817
69.055
62.401
55.877
49.502
43.295
37.272
31.45
25.843
20.462
15.319
10.423
5.781
1.399
-2.72
-6.573
-10.159
-13.48
-16.538
-19.336
-21.879
-24.174
-26.226
-28.045
-29.64
-31.018
-32.192
-33.172
-33.969
-34.594
-35.06
-35.379
-35.562
-35.621
-35.568
-35.414
-35.172
-34.85
-34.462
-34.015
-33.521
-32.988
-32.425
-31.84
-31.239
-30.63
-30.018
-29.409
-28.807
-28.216
-27.639
-27.079
-26.539
-26.021
-25.527
-25.058
-24.614
-24.198
-23.81
-23.449
-23.118
-22.815
-22.541
-22.296
-22.08
-21.893
-21.735
-21.606
-21.505
-21.434
-21.393
-21.38
-21.398
-21.445
-21.522
-21.631
-21.771
-21.943
-22.149
-22.389
-22.666
-22.979
-23.33
-23.721
-24.153
-24.626
-25.142
-25.699
-26.3
-26.942
-27.626
-28.35
-29.113
-29.914
-30.749
-31.616
-32.513
-33.437
-34.383
-35.348
-36.327
-37.316
-38.309
-39.302
-40.287
-41.259
-42.213
-43.141
-44.038
-44.896
-45.709
-46.47
-47.171
-47.805
-48.364
-48.842
-49.23
-49.523
-49.715
-49.801
-49.775
-49.634
-49.375
-48.995
-48.495
-47.871
-47.125
-46.257
-45.269
-44.166
-42.952
-41.632
-40.213
-38.706
-37.122
-35.473
-33.772
-32.032
-30.267
-28.495
-26.732
-24.999
-23.31
-21.683
-20.135
-18.685
-17.352
-16.156
-15.112
-14.231
-13.528
-13.014
-12.704
-12.612
-12.74
-13.091
-13.662
-14.454
-15.478
-16.741
-18.245
-19.985
-21.956
-24.148
-26.554
-29.163
-31.942
-34.856
-37.859
-40.902
-43.957
-46.997
-50
-52.951
-55.797
-58.475
-60.931
-63.1
-64.94
-66.458
-67.632
-68.432
-68.926
-69.218
-69.516
-70.167
-71.355
-73.087
-75.334
-78.037
-81.135
-84.579
-88.02
-90.704
-92.067
-91.884
-90.185
-87.226
-83.121
-77.826
-71.636
-65.563
-60.827
-58.257
-58.203
-60.619
-65.457
-72.963
-83.441
-95.199
-104.477
-108.237
-103.633
-91.059
-74.673
-54.685
-28.242
11.182
73.73
162.813
275.002
402.333
532.776
657.66
770.754
864.212
930.016
957.345
936.204
864.36
744.405
587.128
411.518
236.596
84.491
-26.957
-93.792
-120.045
-120.187
-112.393
-104.784
-99.397
-93.036
-79.75
-59.98
-38.052
-18.444
-5.602
-1.013
-3.628
-12.071
-24.492
-38.827
-53.072
-65.487
-74.967
-80.895
-83.247
-82.385
-78.868
-73.599
-67.724
-62.328
-58.115
-55.51
-54.633
-55.367
-57.543
-60.874
-64.934
-69.25
-73.465
-77.318
-80.634
-83.354
-85.429
-86.82
-87.544
-87.631
-87.108
-86.008
-84.362
-82.189
-79.526
-76.424
-72.932
-69.122
-65.066
-60.834
-56.498
-52.112
-47.709
-43.317
-38.955
-34.63
-30.344
-26.091
-21.855
-17.626
-13.396
-9.155
-4.896
-0.605
3.732
8.127
12.59
17.13
21.751
26.457
31.251
36.132
41.096
46.14
51.256
56.439
61.683
66.981
72.329
77.716
83.134
88.573
94.022
99.469
104.9
110.297
115.644
120.923
126.114
131.199
136.156
140.965
145.605
150.054
154.292
158.298
162.05
165.529
168.716
171.591
174.138
176.34
178.182
179.651
180.735
181.425
181.712
181.59
181.053
180.101
178.731
176.944
174.745
172.138
169.131
165.733
161.955
157.812
153.318
148.492
143.352
137.918
132.212
126.257
120.078
113.698
107.143
100.439
93.613
86.691
79.701
72.668
65.62
58.581
51.577
44.633
37.771
31.014
24.383
17.899
11.579
5.443
-0.495
-6.219
-11.718
-16.979
-21.992
-26.751
-31.248
-35.48
-39.444
-43.137
-46.562
-49.718
-52.609
-55.24
-57.617
-59.745
-61.633
-63.29
-64.726
-65.951
-66.976
-67.814
-68.475
-68.973
-69.32
-69.528
-69.61
-69.579
-69.447
-69.226
-68.928
-68.565
-68.147
-67.686
-67.19
-66.67
-66.133
-65.588
-65.042
-64.5
-63.968
-63.451
-62.953
-62.478
-62.028
-61.606
-61.212
-60.849
-60.516
-60.214
-59.942
-59.7
-59.486
-59.3
-59.141
-59.006
-58.895
-58.807
-58.74
-58.693
-58.665
-58.655
-58.661
-58.684
-58.721
-58.774
-58.841
-58.924
-59.022
-59.136
-59.268
-59.419
-59.59
-59.783
-60.001
-60.244
-60.516
-60.819
-61.154
-61.524
-61.931
-62.377
-62.864
-63.392
-63.963
-64.577
-65.235
-65.936
-66.678
-67.462
-68.283
-69.141
-70.031
-70.95
-71.894
-72.857
-73.834
-74.819
-75.806
-76.787
-77.755
-78.702
-79.621
-80.502
-81.336
-82.115
-82.83
-83.47
-84.027
-84.492
-84.855
-85.11
-85.247
-85.261
-85.143
-84.889
-84.493
-83.954
-83.266
-82.429
-81.444
-80.31
-79.032
-77.612
-76.056
-74.373
-72.571
-70.662
-68.659
-66.577
-64.431
-62.238
-60.018
-57.787
-55.566
-53.371
-51.223
-49.141
-47.144
-45.255
-43.496
-41.886
-40.446
-39.195
-38.152
-37.331
-36.742
-36.395
-36.295
-36.453
-36.883
-37.596
-38.601
-39.907
-41.517
-43.428
-45.631
-48.106
-50.816
-53.722
-56.785
-59.965
-63.23
-66.545
-69.871
-73.16
-76.353
-79.392
-82.222
-84.788
-87.038
-88.941
-90.492
-91.722
-92.709
-93.524
-94.228
-94.891
-95.579
-96.369
-97.354
-98.616
-100.22
-102.273
-104.952
-108.363
-112.538
-117.361
-122.465
-127.406
-131.763
-134.995
-136.457
-135.712
-132.544
-127.118
-120.388
-113.576
-107.769
-104.263
-103.71
-105.521
-108.816
-111.931
-113.994
-115.987
-118.083
-119.147
-113.137
-90.036
-41.584
37.892
145.706
273.56
413.907
557.402
696.749
822.578
920.051
975.214
976.068
919.058
810.485
662.857
493.984
322.056
164.576
35.938
-55.383
-108.584
-129.459
-126.222
-109.461
-86.486
-63.713
-49.599
-46.658
-55.64
-73.469
-90.859
-103.56
-110.672
-113.196
-115.951
-120.387
-124.942
-128.413
-129.063
-126.533
-121.989
-116.355
-110.416
-104.917
-100.376
-97.075
-95.131
-94.477
-94.896
-96.229
-98.37
-101.155
-104.39
-107.905
-111.549
-115.181
-118.685
-121.908
-124.673
-126.858
-128.388
-129.225
-129.367
-128.827
-127.626
-125.807
-123.434
-120.566
-117.265
-113.588
-109.588
-105.33
-100.885
-96.326
-91.727
-87.141
-82.6
-78.124
-73.722
-69.393
-65.13
-60.92
-56.74
-52.572
-48.405
-44.228
-40.034
-35.812
-31.549
-27.234
-22.852
-18.397
-13.86
-9.239
-4.531
0.265
5.145
10.105
15.139
20.238
25.399
30.615
35.88
41.185
46.522
51.88
57.247
62.611
67.956
73.266
78.523
83.707
88.8
93.782
98.633
103.331
107.856
112.188
116.305
120.187
123.815
127.169
130.231
132.984
135.412
137.499
139.232
140.6
141.592
142.199
142.414
142.233
141.652
140.67
139.288
137.51
135.34
132.787
129.859
126.567
122.927
118.953
114.662
110.074
105.209
100.089
94.736
89.175
83.429
77.525
71.488
65.343
59.116
52.833
46.52
40.2
33.9
27.643
21.451
15.347
9.352
3.486
-2.232
-7.784
-13.155
-18.331
-23.297
-28.043
-32.56
-36.84
-40.876
-44.666
-48.205
-51.494
-54.532
-57.323
-59.869
-62.176
-64.249
-66.097
-67.728
-69.15
-70.373
-71.408
-72.265
-72.955
-73.49
-73.881
-74.14
-74.278
-74.307
-74.238
-74.082
-73.851
-73.554
-73.201
-72.803
-72.367
-71.903
-71.416
-70.915
-70.405
-69.89
-69.376
-68.866
-68.362
-67.866
-67.379
-66.903
-66.436
-65.978
-65.529
-65.085
-64.646
-64.21
-63.774
-63.336
-62.895
-62.448
-61.994
-61.532
-61.059
-60.575
-60.079
-59.569
-59.045
-58.508
-57.956
-57.392
-56.815
-56.228
-55.631
-55.027
-54.418
-53.808
-53.198
-52.592
-51.994
-51.407
-50.837
-50.287
-49.761
-49.265
-48.804
-48.38
-48
-47.666
-47.382
-47.152
-46.978
-46.861
-46.804
-46.807
-46.869
-46.991
-47.172
-47.41
-47.702
-48.045
-48.435
-48.868
-49.338
-49.839
-50.365
-50.908
-51.461
-52.016
-52.565
-53.1
-53.611
-54.09
-54.527
-54.913
-55.237
-55.49
-55.663
-55.745
-55.727
-55.601
-55.36
-54.995
-54.5
-53.87
-53.1
-52.186
-51.127
-49.92
-48.565
-47.064
-45.419
-43.634
-41.714
-39.666
-37.5
-35.226
-32.859
-30.413
-27.902
-25.344
-22.756
-20.156
-17.564
-14.995
-12.468
-10
-7.611
-5.321
-3.152
-1.123
0.744
2.431
3.92
5.193
6.238
7.044
7.606
7.916
7.964
7.73
7.2
6.363
5.213
3.747
1.974
-0.098
-2.444
-5.025
-7.798
-10.72
-13.747
-16.852
-19.998
-23.144
-26.239
-29.214
-32.004
-34.556
-36.822
-38.762
-40.363
-41.622
-42.582
-43.327
-43.934
-44.487
-45.077
-45.783
-46.718
-48
-49.72
-52.002
-54.996
-58.797
-63.442
-68.825
-74.603
-80.389
-85.813
-90.401
-93.653
-95.171
-94.673
-92.342
-88.976
-85.447
-82.48
-80.865
-81.263
-84.137
-89.949
-97.33
-102.79
-103.171
-95.129
-78.152
-55.479
-27.224
7.985
54.771
122.759
215.047
330.375
463.705
602.117
735.436
852.951
941.724
992.232
994.339
943.742
844.168
705.342
544.251
378.832
226.113
99.851
7.191
-50.511
-76.811
-79.022
-66.575
-47.969
-31.91
-24.845
-27.782
-38.845
-51.977
-61.117
-64.542
-63.413
-61.887
-63.039
-66.825
-71.584
-74.537
-74.359
-71.455
-66.597
-60.817
-54.851
-49.062
-43.962
-40.071
-37.584
-36.497
-36.69
-37.945
-40.085
-42.967
-46.379
-50.097
-53.949
-57.768
-61.401
-64.717
-67.565
-69.833
-71.461
-72.414
-72.688
-72.305
-71.295
-69.708
-67.614
-65.075
-62.154
-58.914
-55.411
-51.713
-47.891
-44.012
-40.139
-36.319
-32.575
-28.922
-25.364
-21.893
-18.499
-15.16
-11.85
-8.548
-5.239
-1.908
1.459
4.877
8.362
11.931
15.598
19.375
23.272
27.294
31.447
35.732
40.149
44.693
49.36
54.142
59.036
64.033
69.127
74.308
79.565
84.884
90.251
95.65
101.062
106.466
111.841
117.163
122.41
127.557
132.58
137.453
142.153
146.653
150.928
154.955
158.708
162.165
165.302
168.098
170.533
172.588
174.247
175.495
176.319
176.709
176.657
176.157
175.206
173.802
171.948
169.647
166.907
163.735
160.143
156.146
151.76
147.002
141.894
136.456
130.712
124.688
118.408
111.899
105.189
98.307
91.281
84.14
76.915
69.634
62.328
55.024
47.752
40.539
33.412
26.395
19.513
12.788
6.242
-0.105
-6.237
-12.136
-17.789
-23.183
-28.308
-33.155
-37.719
-41.993
-45.977
-49.667
-53.066
-56.174
-58.996
-61.535
-63.799
-65.792
-67.525
-69.006
-70.244
-71.252
-72.041
-72.624
-73.013
-73.222
-73.265
-73.156
-72.908
-72.536
-72.053
-71.473
-70.808
-70.073
-69.28
-68.439
-67.563
-66.661
-65.744
-64.82
-63.896
-62.981
-62.08
-61.199
-60.342
-59.515
-58.721
-57.963
-57.244
-56.566
-55.932
-55.342
-54.797
-54.298
-53.844
-53.435
-53.071
-52.751
-52.473
-52.236
-52.038
-51.879
-51.756
-51.666
-51.61
-51.583
-51.585
-51.614
-51.668
-51.747
-51.848
-51.972
-52.118
-52.286
-52.476
-52.688
-52.923
-53.181
-53.463
-53.768
-54.098
-54.453
-54.832
-55.237
-55.666
-56.119
-56.597
-57.098
-57.62
-58.163
-58.725
-59.303
-59.897
-60.503
-61.118
-61.74
-62.366
-62.992
-63.613
-64.226
-64.825
-65.406
-65.962
-66.487
-66.976
-67.423
-67.819
-68.158
-68.434
-68.638
-68.764
-68.806
-68.755
-68.606
-68.352
-67.989
-67.512
-66.915
-66.197
-65.353
-64.383
-63.286
-62.062
-60.712
-59.238
-57.643
-55.931
-54.107
-52.178
-50.15
-48.034
-45.84
-43.583
-41.276
-38.934
-36.573
-34.211
-31.865
-29.554
-27.291
-25.093
-22.975
-20.953
-19.045
-17.271
-15.646
-14.187
-12.908
-11.824
-10.948
-10.29
-9.851
-9.633
-9.639
-9.874
-10.354
-11.095
-12.102
-13.378
-14.924
-16.729
-18.783
-21.059
-23.512
-26.095
-28.765
-31.479
-34.211
-36.934
-39.6
-42.158
-44.543
-46.687
-48.547
-50.085
-51.257
-52.061
-52.517
-52.684
-52.664
-52.546
-52.406
-52.332
-52.402
-52.704
-53.349
-54.413
-56.014
-58.355
-61.511
-65.478
-70.15
-75.134
-79.975
-84.287
-87.489
-88.904
-88.213
-85.293
-80.387
-74.592
-69.131
-65.006
-63.528
-65.255
-69.32
-74.686
-79.521
-82.699
-85.185
-86.956
-86.496
-77.887
-51.604
-0.344
80.497
187.549
311.811
445.257
577.5
700.574
807.238
885.73
926.805
922.534
867.524
764.537
620.367
447.404
265.712
96.202
-41.794
-134.714
-183.154
-195.316
-181.665
-155.714
-124.12
-92.203
-68.802
-55.839
-53.927
-60.413
-65.558
-65.566
-60.98
-53.741
-49.503
-50.369
-54.982
-62.005
-69.294
-75.487
-80.116
-82.918
-84.033
-83.722
-82.348
-80.219
-77.473
-74.514
-72.053
-70.532
-70.168
-70.982
-72.716
-75.153
-78.153
-81.422
-84.545
-87.233
-89.311
-90.706
-91.483
-91.676
-91.281
-90.342
-88.926
-87.093
-84.895
-82.369
-79.524
-76.4
-73.059
-69.573
-66.02
-62.455
-58.909
-55.406
-51.956
-48.564
-45.229
-41.939
-38.674
-35.421
-32.169
-28.91
-25.635
-22.333
-18.987
-15.578
-12.088
-8.502
-4.809
-1
2.933
6.992
11.179
15.493
19.927
24.481
29.149
33.927
38.811
43.794
48.867
54.021
59.243
64.521
69.839
75.181
80.527
85.86
91.157
96.398
101.561
106.622
111.557
116.342
120.953
125.364
129.551
133.49
137.155
140.523
143.573
146.284
148.635
150.608
152.189
153.363
154.118
154.444
154.336
153.787
152.795
151.36
149.486
147.176
144.437
141.28
137.715
133.759
129.426
124.735
119.706
114.361
108.724
102.82
96.675
90.317
83.774
77.076
70.253
63.335
56.353
49.338
42.32
35.329
28.394
21.541
14.799
8.191
1.741
-4.527
-10.596
-16.445
-22.059
-27.423
-32.524
-37.353
-41.9
-46.159
-50.125
-53.795
-57.168
-60.246
-63.029
-65.522
-67.73
-69.66
-71.321
-72.722
-73.874
-74.789
-75.481
-75.964
-76.251
-76.357
-76.299
-76.092
-75.75
-75.288
-74.722
-74.066
-73.332
-72.535
-71.685
-70.795
-69.875
-68.934
-67.98
-67.023
-66.068
-65.121
-64.188
-63.272
-62.378
-61.508
-60.666
-59.852
-59.067
-58.313
-57.589
-56.895
-56.228
-55.588
-54.973
-54.38
-53.806
-53.25
-52.707
-52.177
-51.656
-51.142
-50.634
-50.131
-49.632
-49.136
-48.644
-48.156
-47.674
-47.199
-46.733
-46.279
-45.84
-45.419
-45.019
-44.643
-44.296
-43.981
-43.701
-43.459
-43.259
-43.104
-42.996
-42.938
-42.933
-42.983
-43.091
-43.258
-43.485
-43.775
-44.127
-44.542
-45.018
-45.555
-46.15
-46.801
-47.503
-48.252
-49.042
-49.869
-50.725
-51.603
-52.496
-53.395
-54.292
-55.177
-56.042
-56.878
-57.674
-58.423
-59.114
-59.741
-60.294
-60.766
-61.151
-61.442
-61.631
-61.715
-61.688
-61.546
-61.285
-60.903
-60.397
-59.769
-59.017
-58.143
-57.152
-56.048
-54.84
-53.535
-52.144
-50.679
-49.153
-47.579
-45.973
-44.348
-42.72
-41.101
-39.506
-37.951
-36.452
-35.027
-33.692
-32.462
-31.351
-30.375
-29.545
-28.874
-28.364
-28.022
-27.852
-27.864
-28.076
-28.504
-29.158
-30.046
-31.17
-32.525
-34.101
-35.879
-37.821
-39.888
-42.041
-44.243
-46.471
-48.695
-50.883
-52.986
-54.945
-56.699
-58.205
-59.424
-60.326
-60.906
-61.18
-61.197
-61.051
-60.822
-60.599
-60.471
-60.522
-60.86
-61.585
-62.774
-64.549
-67.07
-70.431
-74.653
-79.588
-84.844
-90.026
-94.783
-98.641
-101.069
-101.639
-100.119
-96.844
-92.775
-88.86
-85.774
-84.276
-85.151
-88.843
-95.492
-103.367
-108.743
-109.174
-102.963
-89.374
-69.734
-41.057
1.99
61.836
141.254
236.638
339.525
445.667
549.995
648.47
737.019
805.252
840.513
831.796
774.114
670.347
531.497
374.547
216.941
76.215
-34.008
-107.589
-145.08
-153.266
-141.954
-121.228
-98.697
-80.703
-71.747
-71.886
-78.97
-87.304
-90.889
-87.773
-78.936
-68.238
-59.154
-52.742
-48.388
-44.685
-41.333
-38.997
-38.508
-40.583
-45.014
-50.962
-57.752
-64.554
-70.689
-75.905
-79.8
-82.033
-82.653
-81.802
-79.906
-77.781
-75.855
-74.171
-72.847
-71.919
-71.455
-71.706
-72.533
-73.394
-73.995
-74.207
-73.953
-73.317
-72.252
-70.531
-68.165
-65.377
-62.331
-59.185
-56.023
-52.8
-49.528
-46.288
-43.1
-39.939
-36.767
-33.516
-30.149
-26.702
-23.203
-19.661
-16.075
-12.41
-8.636
-4.798
-0.964
2.905
6.85
10.958
15.348
19.941
24.596
29.314
34.134
38.976
43.801
48.378
52.283
55.539
58.349
60.84
63.277
65.922
68.89
72.617
77.871
84.9
93.722
104.236
115.795
127.809
139.852
151.096
160.433
167.149
170.6
170.329
166.737
160.31
151.639
141.925
132.432
124.098
117.996
115.125
115.764
120.007
127.415
136.616
146.267
155.419
163.036
168.106
169.903
167.757
161.694
152.77
142.155
130.65
118.922
107.523
97.004
88.07
80.99
75.317
70.381
65.709
61.056
56.366
51.569
46.412
40.743
34.683
28.505
22.454
16.64
11.043
5.606
0.347
-4.68
-9.453
-13.992
-18.334
-22.499
-26.47
-30.207
-33.677
-36.867
-39.779
-42.421
-44.801
-46.916
-48.765
-50.352
-51.684
-52.775
-53.641
-54.296
-54.752
-55.024
-55.126
-55.076
-54.893
-54.593
-54.188
-53.686
-53.1
-52.438
-51.714
-50.94
-50.123
-49.275
-48.402
-47.512
-46.615
-45.716
-44.823
-43.941
-43.074
-42.226
-41.402
-40.604
-39.834
-39.094
-38.383
-37.701
-37.049
-36.424
-35.825
-35.25
-34.698
-34.166
-33.653
-33.156
-32.675
-32.206
-31.749
-31.303
-30.869
-30.445
-30.033
-29.633
-29.248
-28.879
-28.527
-28.194
-27.882
-27.592
-27.326
-27.085
-26.872
-26.689
-26.537
-26.419
-26.338
-26.297
-26.297
-26.341
-26.432
-26.57
-26.759
-27
-27.293
-27.638
-28.036
-28.491
-29
-29.565
-30.183
-30.848
-31.561
-32.32
-33.114
-33.93
-34.758
-35.582
-36.403
-37.226
-38.033
-38.807
-39.564
-40.316
-41.071
-41.844
-42.609
-43.317
-43.984
-44.639
-45.175
-45.463
-45.57
-45.484
-45.176
-44.905
-43.963
-41.66
-38.975
-36.204
-35.148
-37.963
-42.267
-46.474
-48.224
-44.272
-37.505
-30.374
-24.564
-22.852
-23.28
-23.863
-24.173
-23.011
-21.1
-19.368
-17.658
-16.103
-14.658
-13.16
-11.748
-10.535
-9.507
-8.673
-8.058
-7.675
-7.53
-7.62
-7.934
-8.456
-9.203
-10.199
-11.457
-12.978
-14.762
-16.806
-19.099
-21.63
-24.369
-27.265
-30.272
-33.343
-36.436
-39.526
-42.582
-45.558
-48.404
-51.056
-53.459
-55.584
-57.401
-58.875
-60.003
-60.805
-61.338
-61.71
-62.017
-62.326
-62.72
-63.275
-64.075
-65.216
-66.764
-68.791
-71.403
-74.657
-78.54
-82.919
-87.498
-91.928
-95.859
-98.864
-100.448
-100.16
-97.758
-93.507
-88.002
-81.864
-75.83
-70.575
-66.787
-65.505
-66.461
-67.195
-65.351
-58.585
-46.398
-32.166
-17.124
1.493
28.858
73.66
142.334
233.597
342.62
461.741
580.276
689.717
780.2
839.846
859.036
830.396
753.088
632.265
479.462
312.744
149.942
10.443
-90.724
-150.993
-172.87
-165.833
-144.994
-118.593
-93.867
-77.972
-69.993
-69.67
-74.991
-78.359
-77.403
-71.986
-62.961
-55.319
-51.398
-50.737
-52.386
-54.097
-54.58
-54.172
-53.362
-52.53
-51.742
-50.714
-49.43
-48.216
-47.556
-47.714
-48.661
-50.315
-52.6
-55.547
-59.132
-63.115
-67.1
-70.736
-73.835
-76.328
-78.219
-79.488
-80.089
-80.037
-79.402
-78.278
-76.743
-74.845
-72.601
-70.037
-67.206
-64.177
-61.026
-57.825
-54.614
-51.421
-48.261
-45.142
-42.067
-39.032
-36.019
-33.007
-29.978
-26.921
-23.831
-20.702
-17.526
-14.286
-10.969
-7.558
-4.046
-0.425
3.309
7.16
11.129
15.214
19.41
23.712
28.113
32.609
37.195
41.865
46.613
51.429
56.303
61.223
66.177
71.149
76.124
81.082
86.005
90.875
95.669
100.369
104.952
109.398
113.684
117.791
121.695
125.378
128.817
131.992
134.885
137.477
139.75
141.688
143.277
144.503
145.355
145.825
145.903
145.585
144.865
143.744
142.22
140.296
137.976
135.267
132.179
128.722
124.909
120.757
116.282
111.503
106.441
101.118
95.556
89.779
83.812
77.681
71.41
65.027
58.558
52.03
45.468
38.9
32.352
25.847
19.412
13.068
6.838
0.743
-5.196
-10.962
-16.536
-21.904
-27.051
-31.965
-36.635
-41.051
-45.206
-49.096
-52.715
-56.063
-59.139
-61.943
-64.479
-66.751
-68.763
-70.523
-72.036
-73.312
-74.36
-75.189
-75.811
-76.236
-76.476
-76.543
-76.449
-76.206
-75.827
-75.323
-74.707
-73.991
-73.185
-72.302
-71.351
-70.344
-69.291
-68.2
-67.081
-65.942
-64.79
-63.632
-62.473
-61.319
-60.174
-59.042
-57.926
-56.829
-55.753
-54.701
-53.674
-52.672
-51.697
-50.75
-49.831
-48.94
-48.077
-47.243
-46.438
-45.662
-44.915
-44.198
-43.511
-42.854
-42.229
-41.634
-41.072
-40.542
-40.045
-39.582
-39.155
-38.764
-38.411
-38.098
-37.826
-37.598
-37.415
-37.28
-37.195
-37.161
-37.181
-37.257
-37.39
-37.581
-37.832
-38.142
-38.513
-38.944
-39.433
-39.981
-40.584
-41.241
-41.949
-42.705
-43.506
-44.347
-45.223
-46.131
-47.064
-48.018
-48.987
-49.963
-50.939
-51.909
-52.865
-53.799
-54.704
-55.571
-56.391
-57.157
-57.859
-58.49
-59.04
-59.502
-59.868
-60.13
-60.282
-60.317
-60.232
-60.02
-59.68
-59.207
-58.601
-57.862
-56.99
-55.985
-54.85
-53.589
-52.207
-50.708
-49.1
-47.39
-45.589
-43.709
-41.763
-39.766
-37.734
-35.681
-33.626
-31.587
-29.58
-27.621
-25.728
-23.916
-22.202
-20.607
-19.149
-17.845
-16.713
-15.768
-15.024
-14.495
-14.191
-14.114
-14.268
-14.656
-15.286
-16.174
-17.333
-18.767
-20.478
-22.466
-24.717
-27.218
-29.943
-32.845
-35.878
-38.998
-42.162
-45.342
-48.505
-51.607
-54.595
-57.4
-59.96
-62.23
-64.167
-65.735
-66.93
-67.765
-68.294
-68.615
-68.813
-68.971
-69.184
-69.537
-70.134
-71.074
-72.434
-74.315
-76.865
-80.171
-84.224
-88.869
-93.755
-98.513
-102.813
-106.233
-108.264
-108.472
-106.678
-103.238
-98.91
-94.433
-90.498
-87.724
-86.739
-88.352
-92.079
-95.336
-95.423
-89.501
-76.742
-60.293
-41.379
-18.464
12.329
60.088
131.567
227.595
345.89
476.681
607.115
725.49
817.96
874.993
889.875
857.758
781.323
664.449
516.608
354.861
195.241
57.146
-43.799
-105.169
-129.165
-124.833
-106.98
-83.372
-61.383
-49.348
-47.498
-56.057
-72.21
-86.278
-94.154
-95.201
-90.651
-86.121
-84.058
-83.731
-84.381
-84.558
-83.922
-83.091
-82.234
-81.574
-81.316
-81.527
-82.194
-82.945
-83.435
-83.689
-84.031
-84.769
-86.023
-87.735
-89.82
-92.352
-95.366
-98.706
-102.044
-105.035
-107.478
-109.308
-110.539
-111.162
-111.156
-110.54
-109.381
-107.774
-105.792
-103.478
-100.849
-97.925
-94.75
-91.386
-87.897
-84.342
-80.761
-77.169
-73.581
-69.996
-66.409
-62.812
-59.188
-55.513
-51.77
-47.947
-44.038
-40.038
-35.938
-31.726
-27.389
-22.914
-18.295
-13.528
-8.613
-3.549
1.658
7.003
12.476
18.066
23.761
29.551
35.423
41.366
47.366
53.405
59.468
65.536
71.588
77.604
83.561
89.435
95.203
100.841
106.324
111.629
116.732
121.609
126.238
130.596
134.662
138.417
141.84
144.914
147.624
149.954
151.893
153.43
154.556
155.264
155.552
155.415
154.854
153.872
152.471
150.66
148.446
145.84
142.855
139.505
135.808
131.781
127.446
122.823
117.935
112.806
107.46
101.924
96.222
90.381
84.427
78.386
72.286
66.15
60.006
53.877
47.787
41.759
35.815
29.976
24.26
18.686
13.271
8.031
2.979
-1.873
-6.512
-10.931
-15.121
-19.076
-22.792
-26.265
-29.495
-32.482
-35.226
-37.73
-39.998
-42.036
-43.847
-45.441
-46.823
-48.003
-48.99
-49.792
-50.421
-50.886
-51.199
-51.368
-51.406
-51.323
-51.129
-50.834
-50.449
-49.984
-49.447
-48.848
-48.196
-47.5
-46.766
-46.002
-45.215
-44.41
-43.593
-42.769
-41.941
-41.114
-40.291
-39.474
-38.666
-37.868
-37.083
-36.312
-35.554
-34.812
-34.084
-33.371
-32.673
-31.989
-31.319
-30.664
-30.022
-29.394
-28.78
-28.178
-27.59
-27.015
-26.453
-25.905
-25.371
-24.851
-24.347
-23.86
-23.391
-22.942
-22.515
-22.112
-21.735
-21.386
-21.068
-20.782
-20.532
-20.318
-20.144
-20.011
-19.922
-19.878
-19.88
-19.931
-20.03
-20.179
-20.377
-20.625
-20.921
-21.265
-21.655
-22.091
-22.568
-23.087
-23.643
-24.234
-24.856
-25.504
-26.174
-26.86
-27.556
-28.255
-28.95
-29.633
-30.298
-30.937
-31.541
-32.102
-32.613
-33.064
-33.449
-33.758
-33.983
-34.118
-34.154
-34.086
-33.907
-33.613
-33.198
-32.661
-31.996
-31.204
-30.282
-29.23
-28.049
-26.738
-25.301
-23.74
-22.06
-20.268
-18.37
-16.375
-14.296
-12.148
-9.944
-7.702
-5.437
-3.168
-0.912
1.312
3.487
5.594
7.615
9.529
11.318
12.96
14.434
15.722
16.808
17.68
18.328
18.742
18.918
18.853
18.538
17.966
17.124
16.003
14.596
12.903
10.921
8.664
6.151
3.409
0.482
-2.59
-5.772
-9.025
-12.321
-15.62
-18.868
-22.01
-24.99
-27.759
-30.288
-32.538
-34.456
-36.016
-37.223
-38.135
-38.869
-39.486
-40.007
-40.507
-41.144
-42.199
-43.969
-46.583
-50.018
-54.295
-59.479
-65.517
-72.053
-78.213
-82.973
-85.705
-86.115
-84.083
-79.566
-72.631
-63.915
-55.181
-48.554
-45.539
-47.253
-53.528
-62.808
-73.77
-84.324
-92.826
-100.299
-106.498
-108.559
-100.229
-70.065
-8.865
84.855
205.147
339.515
475.799
606.406
727.144
833.922
919.036
973.651
988.073
955.786
877.984
758.163
606.003
437.265
267.663
115.958
-2.097
-79.781
-116.052
-116.507
-93.436
-59.058
-25.558
-5.909
-4.468
-19.446
-44.688
-67.251
-80.019
-82.425
-76.788
-70.112
-66.03
-63.882
-62.695
-60.933
-58.299
-55.84
-54.18
-53.369
-53.355
-54.124
-55.492
-56.977
-58.193
-58.888
-59.123
-59.461
-60.251
-61.521
-63.337
-65.766
-68.791
-72.386
-76.318
-80.107
-83.442
-86.188
-88.264
-89.692
-90.488
-90.629
-90.168
-89.216
-87.857
-86.153
-84.149
-81.85
-79.295
-76.551
-73.686
-70.779
-67.881
-65.014
-62.193
-59.419
-56.686
-53.984
-51.294
-48.585
-45.838
-43.035
-40.166
-37.224
-34.197
-31.07
-27.825
-24.444
-20.913
-17.225
-13.372
-9.353
-5.166
-0.814
3.698
8.359
13.164
18.103
23.169
28.354
33.648
39.037
44.508
50.047
55.635
61.253
66.882
72.498
78.079
83.6
89.038
94.366
99.561
104.596
109.446
114.088
118.496
122.648
126.52
130.092
133.343
136.255
138.81
140.992
142.789
144.187
145.179
145.755
145.911
145.644
144.953
143.84
142.307
140.36
138.009
135.261
132.131
128.631
124.78
120.594
116.094
111.302
106.24
100.934
95.408
89.688
83.802
77.775
71.636
65.41
59.126
52.81
46.489
40.188
33.932
27.746
21.653
15.675
9.833
4.146
-1.368
-6.692
-11.812
-16.714
-21.387
-25.822
-30.01
-33.945
-37.621
-41.037
-44.191
-47.083
-49.716
-52.092
-54.217
-56.096
-57.738
-59.15
-60.343
-61.325
-62.109
-62.705
-63.125
-63.382
-63.488
-63.457
-63.302
-63.035
-62.67
-62.219
-61.696
-61.112
-60.478
-59.806
-59.106
-58.387
-57.659
-56.93
-56.207
-55.496
-54.803
-54.134
-53.492
-52.879
-52.3
-51.755
-51.244
-50.769
-50.328
-49.921
-49.545
-49.2
-48.882
-48.589
-48.319
-48.068
-47.833
-47.611
-47.399
-47.192
-46.988
-46.784
-46.576
-46.362
-46.139
-45.905
-45.659
-45.399
-45.125
-44.836
-44.533
-44.216
-43.886
-43.545
-43.195
-42.839
-42.48
-42.12
-41.765
-41.416
-41.08
-40.76
-40.461
-40.187
-39.943
-39.734
-39.563
-39.435
-39.353
-39.322
-39.343
-39.42
-39.556
-39.753
-40.011
-40.332
-40.717
-41.164
-41.674
-42.244
-42.872
-43.554
-44.286
-45.064
-45.882
-46.734
-47.612
-48.509
-49.417
-50.328
-51.233
-52.121
-52.984
-53.811
-54.591
-55.315
-55.971
-56.549
-57.04
-57.434
-57.723
-57.896
-57.948
-57.869
-57.655
-57.3
-56.799
-56.148
-55.345
-54.389
-53.28
-52.02
-50.612
-49.06
-47.372
-45.556
-43.624
-41.589
-39.465
-37.267
-35.013
-32.721
-30.409
-28.095
-25.797
-23.534
-21.325
-19.192
-17.158
-15.243
-13.469
-11.855
-10.42
-9.184
-8.161
-7.362
-6.795
-6.469
-6.397
-6.598
-7.09
-7.886
-8.999
-10.432
-12.183
-14.247
-16.606
-19.225
-22.067
-25.093
-28.263
-31.547
-34.91
-38.312
-41.701
-45.007
-48.162
-51.107
-53.786
-56.156
-58.2
-59.907
-61.31
-62.482
-63.489
-64.411
-65.347
-66.374
-67.605
-69.172
-71.175
-73.757
-77.1
-81.307
-86.408
-92.298
-98.627
-104.968
-110.933
-116.029
-119.721
-121.638
-121.577
-119.778
-117.106
-114.622
-113.234
-113.692
-116.656
-122.537
-131.347
-142.232
-152.294
-157.282
-153.36
-137.806
-110.973
-74.957
-30.222
24.628
94.559
184.528
295.476
424.273
561.392
695.115
812.749
901.107
949.976
950.576
900.313
802.953
667.057
507.92
342.038
185.858
54.501
-42.688
-103.795
-132.324
-135.459
-124.188
-105.882
-87.21
-76.745
-75.843
-84.538
-99.958
-112.52
-117.943
-115.855
-108.071
-100.926
-97.72
-98.177
-101.35
-105.15
-108.681
-112.17
-115.392
-118.113
-119.936
-120.523
-119.962
-118.398
-115.971
-113.044
-110.19
-107.902
-106.593
-106.446
-107.367
-109.23
-111.874
-115.005
-118.244
-121.266
-123.805
-125.72
-127.004
-127.654
-127.682
-127.13
-126.048
-124.492
-122.519
-120.164
-117.45
-114.41
-111.089
-107.544
-103.843
-100.049
-96.22
-92.397
-88.599
-84.839
-81.12
-77.437
-73.782
-70.143
-66.499
-62.839
-59.15
-55.423
-51.649
-47.817
-43.909
-39.914
-35.82
-31.62
-27.31
-22.891
-18.363
-13.729
-8.995
-4.17
0.736
5.713
10.751
15.842
20.973
26.133
31.307
36.482
41.641
46.769
51.847
56.856
61.773
66.579
71.252
75.77
80.111
84.253
88.175
91.856
95.275
98.414
101.254
103.778
105.969
107.814
109.3
110.415
111.152
111.502
111.462
111.028
110.198
108.975
107.359
105.357
102.974
100.218
97.098
93.627
89.818
85.684
81.244
76.516
71.519
66.274
60.804
55.131
49.279
43.272
37.135
30.891
24.567
18.187
11.774
5.354
-1.05
-7.416
-13.723
-19.948
-26.073
-32.079
-37.95
-43.669
-49.222
-54.596
-59.778
-64.757
-69.525
-74.072
-78.392
-82.479
-86.33
-89.942
-93.313
-96.444
-99.336
-101.991
-104.412
-106.606
-108.576
-110.329
-111.874
-113.217
-114.367
-115.335
-116.128
-116.758
-117.235
-117.569
-117.769
-117.847
-117.811
-117.672
-117.439
-117.121
-116.727
-116.266
-115.746
-115.175
-114.561
-113.911
-113.232
-112.529
-111.809
-111.076
-110.336
-109.593
-108.85
-108.111
-107.378
-106.655
-105.942
-105.242
-104.557
-103.885
-103.229
-102.589
-101.963
-101.353
-100.759
-100.18
-99.616
-99.068
-98.537
-98.022
-97.525
-97.046
-96.586
-96.146
-95.726
-95.33
-94.957
-94.61
-94.29
-93.999
-93.739
-93.513
-93.322
-93.169
-93.055
-92.982
-92.953
-92.969
-93.032
-93.144
-93.307
-93.522
-93.79
-94.113
-94.492
-94.927
-95.417
-95.963
-96.562
-97.213
-97.913
-98.661
-99.452
-100.282
-101.148
-102.045
-102.967
-103.908
-104.862
-105.822
-106.78
-107.728
-108.657
-109.56
-110.428
-111.251
-112.022
-112.732
-113.373
-113.935
-114.412
-114.794
-115.074
-115.244
-115.297
-115.225
-115.024
-114.688
-114.212
-113.593
-112.828
-111.916
-110.856
-109.649
-108.294
-106.795
-105.155
-103.377
-101.468
-99.434
-97.284
-95.027
-92.676
-90.244
-87.747
-85.202
-82.625
-80.034
-77.448
-74.885
-72.363
-69.898
-67.506
-65.204
-63.007
-60.933
-59.003
-57.23
-55.633
-54.225
-53.021
-52.034
-51.273
-50.74
-50.439
-50.371
-50.545
-50.976
-51.68
-52.661
-53.923
-55.466
-57.278
-59.344
-61.635
-64.101
-66.692
-69.355
-72.045
-74.731
-77.376
-79.937
-82.36
-84.578
-86.53
-88.172
-89.467
-90.379
-90.913
-91.091
-90.984
-90.711
-90.375
-90.08
-89.941
-90.052
-90.524
-91.468
-92.961
-95.11
-98.081
-101.97
-106.773
-112.365
-118.399
-124.466
-130.183
-135.044
-138.41
-139.744
-138.809
-135.81
-131.385
-126.451
-121.866
-118.347
-117.011
-118.262
-120.877
-123.071
-122.435
-117.714
-110.92
-103.286
-92.778
-73.497
-34.901
30.799
124.194
239.624
366.18
494.283
618.193
732.533
829.876
899.337
927.133
902.876
825.167
699.691
539.901
364.069
189.27
32.997
-89.779
-171.179
-209.813
-210.746
-185.482
-147.195
-106.542
-74.175
-56.416
-52.496
-59.586
-70.038
-75.482
-74.367
-67.978
-60.014
-55.575
-55.668
-58.957
-63.969
-68.57
-71.55
-72.807
-72.383
-70.516
-67.582
-63.933
-59.808
-55.578
-51.881
-49.178
-47.692
-47.517
-48.493
-50.375
-52.991
-56.059
-59.161
-61.974
-64.287
-65.976
-67.049
-67.53
-67.404
-66.697
-65.464
-63.756
-61.624
-59.102
-56.202
-52.95
-49.396
-45.603
-41.644
-37.589
-33.482
-29.351
-25.213
-21.077
-16.942
-12.803
-8.644
-4.445
-0.189
4.134
8.533
13.015
17.593
22.279
27.091
32.038
37.131
42.372
47.763
53.303
58.987
64.809
70.758
76.821
82.986
89.243
95.58
101.985
108.444
114.942
121.463
127.992
134.512
141.005
147.452
153.833
160.13
166.323
172.393
178.32
184.085
189.668
195.049
200.209
205.132
209.798
214.192
218.299
222.105
225.599
228.772
231.613
234.116
236.276
238.087
239.546
240.652
241.402
241.795
241.832
241.512
240.839
239.812
238.434
236.709
234.642
232.24
229.512
226.469
223.121
219.484
215.575
211.412
207.012
202.393
197.576
192.585
187.449
182.199
176.858
171.449
165.984
160.471
154.922
149.344
143.734
138.091
132.41
126.701
120.999
115.338
109.749
104.251
98.832
93.488
88.242
83.123
78.177
73.442
68.907
64.609
60.662
57.11
53.941
51.014
47.999
44.637
40.81
36.294
30.858
