Name
Date of Birth,"Mar 27, 1959"
Recorded Date,2022-08-06 17:04:31 -0500
Classification,Sinus Rhythm
Symptoms,
Software Version,1.90
Device,"Watch4,2"
Sample Rate,510.227 hertz


Lead,Lead I
Unit,µV

95.665
106.774
116.829
125.337
131.689
134.96
134.973
132.391
127.645
121.04
112.977
103.693
93.656
83.71
74.148
64.709
55.293
45.814
36.257
26.837
17.572
8.275
-0.981
-9.907
-18.272
-25.847
-32.529
-38.371
-43.36
-47.455
-50.709
-53.244
-55.197
-56.683
-57.762
-58.429
-58.679
-58.541
-58.083
-57.422
-56.716
-56.131
-55.818
-55.934
-56.652
-58.111
-60.398
-63.536
-67.49
-72.236
-77.828
-84.4
-91.99
-100.5
-109.656
-118.924
-127.705
-135.424
-141.325
-144.548
-144.596
-141.297
-134.88
-126.49
-117.441
-108.903
-102.606
-99.077
-96.835
-94.589
-90.384
-84.334
-80.324
-78.505
-75.24
-61.209
-21.231
52.477
159.251
290.835
431.61
568.907
694.649
801.856
883.404
933.578
946.657
917.582
849.421
744.649
605.156
443.472
271.823
107.658
-24.181
-114.079
-162.09
-177.318
-180.675
-183.616
-188.574
-193.413
-190.608
-178.425
-160.333
-140.402
-123.305
-110.902
-103.209
-100.492
-102.093
-107.228
-115.218
-124.808
-135.166
-145.67
-155.14
-162.604
-167.654
-170.103
-170.167
-168.392
-165.097
-160.77
-156.324
-152.418
-149.414
-147.504
-146.554
-146.351
-146.763
-147.51
-148.148
-148.35
-147.914
-146.786
-145.082
-142.942
-140.502
-137.896
-135.248
-132.66
-130.196
-127.874
-125.677
-123.56
-121.466
-119.374
-117.293
-115.241
-113.243
-111.284
-109.32
-107.29
-105.112
-102.717
-100.063
-97.101
-93.801
-90.161
-86.195
-81.951
-77.514
-72.94
-68.256
-63.486
-58.631
-53.707
-48.743
-43.765
-38.797
-33.864
-28.984
-24.179
-19.473
-14.873
-10.376
-5.963
-1.598
2.739
7.056
11.357
15.635
19.883
24.096
28.259
32.353
36.361
40.269
44.065
47.742
51.286
54.683
57.914
60.96
63.803
66.43
68.828
70.988
72.9
74.56
75.966
77.118
78.018
78.668
79.066
79.214
79.11
78.755
78.15
77.298
76.199
74.859
73.279
71.467
69.434
67.189
64.743
62.107
59.289
56.297
53.146
49.848
46.418
42.868
39.209
35.456
31.627
27.745
23.826
19.879
15.901
11.887
7.841
3.77
-0.317
-4.411
-8.506
-12.583
-16.612
-20.55
-24.359
-28.004
-31.461
-34.718
-37.742
-40.489
-42.91
-44.933
-46.511
-47.627
-48.267
-48.431
-48.169
-47.488
-46.418
-45.144
-43.822
-42.623
-41.775
-41.298
-41.165
-41.622
-42.944
-45.103
-48.034
-51.344
-54.345
-56.912
-59.02
-60.208
-59.996
-58.207
-54.845
-50.816
-47.709
-46.374
-47.393
-51.489
-59.149
-70.582
-85.462
-101.825
-116.322
-125.778
-127.171
-117.453
-93.709
-53.204
6.357
83.865
174.277
272.303
371.924
470.124
569.799
670.509
767.859
853.125
905.723
906.879
847.09
723.012
551.128
359.882
176.4
30.075
-63.547
-107.918
-113.623
-100.288
-85.434
-73.784
-65.408
-56.509
-42.845
-26.577
-11.621
-1.258
1.39
-3.925
-15.239
-30.211
-45.887
-59.827
-71.038
-79.158
-84.027
-85.732
-84.649
-81.627
-78.04
-75.113
-73.438
-73.211
-74.433
-77.099
-81.202
-86.507
-92.53
-98.81
-105.036
-111.037
-116.728
-121.972
-126.614
-130.56
-133.783
-136.298
-138.125
-139.259
-139.695
-139.455
-138.578
-137.121
-135.143
-132.697
-129.844
-126.655
-123.205
-119.577
-115.836
-112.03
-108.203
-104.387
-100.604
-96.874
-93.205
-89.599
-86.06
-82.596
-79.212
-75.918
-72.718
-69.614
-66.611
-63.712
-60.918
-58.236
-55.668
-53.22
-50.898
-48.706
-46.652
-44.742
-42.981
-41.369
-39.909
-38.6
-37.442
-36.432
-35.569
-34.85
-34.271
-33.83
-33.524
-33.349
-33.301
-33.374
-33.566
-33.87
-34.281
-34.795
-35.403
-36.101
-36.882
-37.741
-38.672
-39.667
-40.722
-41.83
-42.986
-44.185
-45.424
-46.696
-47.998
-49.325
-50.672
-52.037
-53.414
-54.8
-56.191
-57.583
-58.972
-60.358
-61.739
-63.112
-64.479
-65.839
-67.193
-68.544
-69.896
-71.253
-72.621
-74.003
-75.402
-76.821
-78.263
-79.733
-81.231
-82.755
-84.304
-85.874
-87.469
-89.089
-90.738
-92.409
-94.09
-95.768
-97.435
-99.089
-100.738
-102.385
-104.024
-105.655
-107.281
-108.91
-110.549
-112.187
-113.782
-115.281
-116.641
-117.832
-118.854
-119.715
-120.399
-120.852
-121.004
-120.783
-120.151
-119.109
-117.62
-115.59
-113.019
-110.021
-106.86
-103.994
-101.793
-100.345
-99.669
-99.789
-100.555
-101.777
-103.03
-103.328
-101.762
-98.024
-92.148
-84.477
-75.691
-66.316
-57.104
-49.65
-45.601
-45.931
-51.01
-60.457
-73.32
-88.805
-105.782
-122.06
-135.279
-143.341
-144.16
-136.453
-118.605
-87.413
-41.731
17.55
88.343
163.657
239.011
315.655
394.888
483.951
589.754
707.691
827.872
931.897
992.945
993.419
927.174
798.911
629.631
443.627
261.821
102.748
-23.662
-111.535
-159.825
-171.975
-151.787
-109.898
-56.701
-3.418
34.653
52.288
49.298
30.669
9.749
-6.974
-18.159
-25.574
-36.038
-51.587
-70.231
-89.099
-103.846
-112.703
-116.205
-114.958
-110.137
-102.877
-94.009
-84.754
-76.16
-68.689
-62.592
-57.891
-54.443
-52.117
-50.67
-49.708
-48.937
-48.233
-47.559
-46.987
-46.601
-46.39
-46.321
-46.388
-46.558
-46.788
-47.027
-47.174
-47.108
-46.766
-46.121
-45.173
-43.945
-42.432
-40.601
-38.423
-35.853
-32.878
-29.511
-25.761
-21.632
-17.147
-12.336
-7.263
-2.025
3.315
8.725
14.185
19.692
25.228
30.759
36.26
41.708
47.082
52.37
57.554
62.612
67.537
72.332
77.014
81.617
86.158
90.639
95.058
99.403
103.663
107.831
111.889
115.813
119.585
123.186
126.603
129.823
132.831
135.604
138.121
140.356
142.289
143.9
145.173
146.093
146.649
146.832
146.637
146.065
145.114
143.784
142.077
139.994
137.541
134.722
131.548
128.027
124.173
120
115.526
110.772
105.758
100.507
95.044
89.394
83.583
77.639
71.588
65.461
59.284
53.088
46.901
40.753
34.671
28.683
22.814
17.091
11.537
6.174
1.022
-3.899
-8.574
-12.985
-17.12
-20.967
-24.516
-27.758
-30.687
-33.301
-35.596
-37.573
-39.233
-40.581
-41.623
-42.369
-42.829
-43.016
-42.94
-42.611
-42.049
-41.274
-40.292
-39.112
-37.745
-36.199
-34.5
-32.685
-30.757
-28.718
-26.622
-24.512
-22.427
-20.416
-18.466
-16.536
-14.671
-12.94
-11.209
-9.315
-7.373
-5.383
-3.324
-1.58
0.857
4.966
9.33
13.514
14.921
10.443
3.509
-3.593
-7.46
-3.411
4.409
12.489
18.419
18.223
14.742
10.856
7.204
5.542
4.848
3.812
2.683
1.292
-0.272
-1.744
-3.296
-5.068
-7.01
-9.111
-11.386
-13.826
-16.419
-19.155
-22.004
-24.93
-27.939
-31.036
-34.208
-37.45
-40.75
-44.099
-47.489
-50.915
-54.365
-57.826
-61.287
-64.738
-68.166
-71.561
-74.911
-78.203
-81.427
-84.57
-87.622
-90.57
-93.406
-96.117
-98.696
-101.132
-103.417
-105.544
-107.505
-109.295
-110.909
-112.342
-113.591
-114.655
-115.533
-116.224
-116.731
-117.056
-117.201
-117.172
-116.974
-116.612
-116.093
-115.426
-114.619
-113.681
-112.621
-111.45
-110.179
-108.818
-107.378
-105.871
-104.308
-102.699
-101.057
-99.391
-97.713
-96.033
-94.361
-92.706
-91.077
-89.484
-87.933
-86.432
-84.988
-83.604
-82.287
-81.04
-79.865
-78.764
-77.739
-76.791
-75.917
-75.117
-74.389
-73.73
-73.137
-72.606
-72.131
-71.709
-71.335
-71.003
-70.707
-70.444
-70.206
-69.991
-69.792
-69.605
-69.426
-69.25
-69.073
-68.893
-68.705
-68.508
-68.298
-68.075
-67.836
-67.582
-67.312
-67.027
-66.728
-66.416
-66.094
-65.765
-65.431
-65.098
-64.769
-64.449
-64.144
-63.858
-63.598
-63.369
-63.176
-63.025
-62.92
-62.867
-62.868
-62.928
-63.05
-63.235
-63.485
-63.802
-64.185
-64.634
-65.148
-65.724
-66.36
-67.051
-67.794
-68.582
-69.409
-70.267
-71.151
-72.049
-72.955
-73.857
-74.745
-75.608
-76.433
-77.209
-77.922
-78.56
-79.109
-79.556
-79.888
-80.094
-80.161
-80.078
-79.836
-79.424
-78.833
-78.055
-77.083
-75.913
-74.541
-72.964
-71.182
-69.195
-67.008
-64.625
-62.056
-59.308
-56.392
-53.318
-50.102
-46.763
-43.319
-39.791
-36.198
-32.559
-28.896
-25.233
-21.593
-17.999
-14.47
-11.025
-7.687
-4.481
-1.433
1.435
4.111
6.587
8.857
10.912
12.73
14.296
15.601
16.637
17.401
17.89
18.094
18.018
17.688
17.143
16.438
15.613
14.688
13.668
12.543
11.334
10.109
8.94
7.903
7.05
6.38
5.919
5.751
5.848
6.09
6.23
5.834
4.658
2.742
0.132
-3.089
-6.732
-10.704
-14.631
-17.646
-19.335
-19.714
-18.867
-17.268
-15.382
-13.248
-11.253
-10.36
-10.901
-12.937
-16.609
-21.339
-26.607
-32.312
-38.029
-43.068
-47.277
-50.602
-51.151
-46.035
-33.089
-9.841
22.57
58.084
94.591
132.384
174.186
232.255
315.422
426.087
566.449
725.015
882.244
1019.869
1111.796
1138.725
1096.741
987.457
827.925
644.384
458.012
291.47
160.217
67.464
12.889
-11.416
-17.26
-11.427
-0.038
12.257
24.134
31.546
32.797
30.79
27.262
25.525
26.163
24.733
19.234
9.113
-4.344
-16.988
-26.71
-33.326
-36.713
-37.2
-35.172
-30.901
-25.303
-19.812
-15.243
-11.849
-9.816
-9.23
-10.11
-12.47
-16.009
-20.121
-24.422
-28.714
-32.831
-36.698
-40.183
-43.085
-45.327
-46.921
-47.87
-48.189
-47.881
-46.918
-45.324
-43.163
-40.501
-37.415
-33.972
-30.225
-26.244
-22.1
-17.862
-13.606
-9.383
-5.225
-1.156
2.81
6.665
10.401
14.024
17.548
20.983
24.341
27.63
30.856
34.024
37.145
40.227
43.28
46.311
49.323
52.32
55.306
58.28
61.245
64.199
67.141
70.069
72.983
75.884
78.773
81.65
84.516
87.369
90.209
93.033
95.838
98.618
101.369
104.083
106.754
109.373
111.933
114.424
116.837
119.161
121.387
123.503
125.499
127.363
129.086
130.656
132.063
133.299
134.352
135.216
135.882
136.343
136.592
136.624
136.434
136.018
135.373
134.497
133.388
132.047
130.474
128.671
126.642
124.391
121.924
119.248
116.371
113.301
110.049
106.626
103.045
99.317
95.457
91.479
87.398
83.23
78.99
74.693
70.358
65.998
61.629
57.269
52.93
48.629
44.379
40.193
36.086
32.069
28.155
24.353
20.674
17.128
13.723
10.467
7.367
4.427
1.654
-0.951
-3.383
-5.642
-7.728
-9.64
-11.382
-12.955
-14.364
-15.613
-16.707
-17.655
-18.461
-19.135
-19.683
-20.114
-20.438
-20.661
-20.795
-20.846
-20.824
-20.737
-20.594
-20.403
-20.171
-19.907
-19.617
-19.309
-18.988
-18.662
-18.335
-18.013
-17.7
-17.401
-17.118
-16.854
-16.613
-16.395
-16.201
-16.032
-15.888
-15.767
-15.669
-15.593
-15.535
-15.494
-15.467
-15.452
-15.446
-15.446
-15.45
-15.455
-15.459
-15.46
-15.455
-15.443
-15.422
-15.391
-15.347
-15.291
-15.221
-15.136
-15.036
-14.922
-14.793
-14.651
-14.496
-14.329
-14.152
-13.967
-13.776
-13.582
-13.388
-13.197
-13.012
-12.836
-12.675
-12.531
-12.409
-12.312
-12.244
-12.208
-12.209
-12.249
-12.332
-12.461
-12.64
-12.871
-13.157
-13.502
-13.907
-14.377
-14.913
-15.518
-16.193
-16.942
-17.767
-18.668
-19.647
-20.707
-21.847
-23.07
-24.375
-25.762
-27.233
-28.785
-30.419
-32.133
-33.926
-35.797
-37.744
-39.765
-41.859
-44.023
-46.255
-48.552
-50.913
-53.333
-55.809
-58.337
-60.914
-63.534
-66.192
-68.883
-71.601
-74.34
-77.093
-79.852
-82.611
-85.362
-88.095
-90.803
-93.476
-96.106
-98.682
-101.195
-103.635
-105.993
-108.26
-110.426
-112.482
-114.418
-116.225
-117.893
-119.415
-120.78
-121.979
-123.005
-123.85
-124.505
-124.964
-125.222
-125.273
-125.112
-124.737
-124.144
-123.333
-122.302
-121.054
-119.59
-117.913
-116.03
-113.946
-111.67
-109.21
-106.579
-103.79
-100.857
-97.796
-94.624
-91.359
-88.021
-84.628
-81.202
-77.76
-74.323
-70.911
-67.544
-64.244
-61.032
-57.93
-54.959
-52.141
-49.495
-47.04
-44.792
-42.762
-40.959
-39.393
-38.075
-37.022
-36.247
-35.759
-35.563
-35.665
-36.059
-36.739
-37.684
-38.858
-40.223
-41.741
-43.378
-45.107
-46.898
-48.716
-50.516
-52.242
-53.842
-55.275
-56.502
-57.482
-58.191
-58.633
-58.848
-58.924
-58.948
-58.982
-59.089
-59.336
-59.797
-60.567
-61.726
-63.322
-65.428
-68.184
-71.685
-75.929
-80.788
-85.935
-90.959
-95.48
-99.049
-101.033
-100.897
-98.477
-93.977
-87.986
-81.472
-75.348
-70.436
-68.242
-69.323
-71.977
-74.172
-73.489
-68.939
-64.267
-62.408
-60.952
-53.133
-25.847
33.646
128.046
253.195
398.462
549.008
694.175
822.577
921.686
980.123
984.802
930.217
818.218
658.79
474.541
289.258
128.229
11.763
-57.845
-88.458
-95.579
-96.665
-96.736
-91.838
-79.013
-57.757
-34.203
-20.491
-20.989
-31.944
-48.043
-61.065
-67.935
-72.108
-75.117
-78.01
-80.914
-81.601
-79.572
-75.775
-70.98
-66.261
-62.461
-59.903
-58.778
-59.184
-60.97
-63.841
-67.574
-71.982
-76.87
-82.078
-87.451
-92.801
-97.971
-102.831
-107.23
-111.056
-114.234
-116.708
-118.463
-119.509
-119.868
-119.588
-118.723
-117.33
-115.458
-113.161
-110.49
-107.509
-104.287
-100.892
-97.392
-93.832
-90.246
-86.655
-83.071
-79.494
-75.92
-72.334
-68.721
-65.07
-61.373
-57.625
-53.824
-49.964
-46.037
-42.038
-37.962
-33.806
-29.571
-25.257
-20.867
-16.408
-11.886
-7.312
-2.694
1.957
6.634
11.327
16.03
20.731
25.421
30.09
34.726
39.316
43.847
48.304
52.671
56.934
61.076
65.082
68.936
72.621
76.123
79.426
82.515
85.374
87.991
90.352
92.443
94.256
95.777
96.999
97.914
98.515
98.797
98.756
98.389
97.696
96.676
95.332
93.666
91.685
89.394
86.801
83.915
80.749
77.314
73.625
69.697
65.546
61.189
56.646
51.935
47.076
42.091
36.998
31.821
26.58
21.298
15.994
10.69
5.407
0.165
-5.017
-10.12
-15.126
-20.018
-24.781
-29.398
-33.857
-38.142
-42.244
-46.151
-49.853
-53.343
-56.613
-59.658
-62.473
-65.057
-67.406
-69.52
-71.4
-73.049
-74.468
-75.662
-76.637
-77.399
-77.955
-78.314
-78.483
-78.474
-78.295
-77.957
-77.471
-76.848
-76.098
-75.234
-74.266
-73.205
-72.064
-70.852
-69.582
-68.263
-66.907
-65.522
-64.119
-62.707
-61.294
-59.889
-58.5
-57.133
-55.797
-54.496
-53.238
-52.025
-50.864
-49.758
-48.708
-47.719
-46.791
-45.925
-45.122
-44.381
-43.703
-43.087
-42.53
-42.033
-41.592
-41.206
-40.873
-40.589
-40.352
-40.159
-40.007
-39.892
-39.812
-39.764
-39.743
-39.747
-39.772
-39.816
-39.873
-39.941
-40.016
-40.095
-40.175
-40.251
-40.321
-40.383
-40.434
-40.47
-40.492
-40.496
-40.48
-40.444
-40.387
-40.306
-40.201
-40.073
-39.919
-39.741
-39.538
-39.31
-39.058
-38.783
-38.485
-38.164
-37.822
-37.46
-37.078
-36.678
-36.263
-35.832
-35.39
-34.936
-34.475
-34.008
-33.539
-33.068
-32.6
-32.137
-31.681
-31.235
-30.802
-30.384
-29.983
-29.603
-29.246
-28.913
-28.607
-28.329
-28.081
-27.864
-27.679
-27.528
-27.409
-27.324
-27.273
-27.254
-27.269
-27.314
-27.39
-27.494
-27.624
-27.778
-27.953
-28.146
-28.353
-28.57
-28.794
-29.019
-29.24
-29.453
-29.652
-29.83
-29.982
-30.102
-30.183
-30.219
-30.204
-30.131
-29.993
-29.785
-29.5
-29.134
-28.679
-28.131
-27.485
-26.738
-25.885
-24.924
-23.852
-22.666
-21.368
-19.955
-18.43
-16.793
-15.046
-13.194
-11.24
-9.19
-7.05
-4.828
-2.534
-0.178
2.228
4.671
7.136
9.61
12.075
14.516
16.915
19.257
21.525
23.704
25.777
27.727
29.536
31.189
32.669
33.959
35.047
35.918
36.562
36.975
37.151
37.088
36.782
36.222
35.401
34.317
32.967
31.352
29.479
27.36
25.016
22.486
19.805
17.012
14.142
11.221
8.28
5.353
2.479
-0.29
-2.903
-5.318
-7.49
-9.376
-10.952
-12.212
-13.19
-13.959
-14.586
-15.127
-15.636
-16.162
-16.786
-17.596
-18.658
-20.039
-21.833
-24.177
-27.216
-30.993
-35.337
-39.918
-44.336
-48.131
-50.824
-51.841
-50.595
-46.85
-41.03
-33.96
-26.567
-20.078
-15.71
-14.46
-17.5
-24.322
-31.749
-37.797
-41.068
-40.658
-38.381
-30.465
-7.615
37.18
109.292
205.923
315.241
428.615
542.434
655.792
767.736
869.503
943.265
970.248
940.899
856.852
730.313
580.852
424.629
274.835
143.858
37.883
-38.675
-84.26
-104.951
-106.574
-96.787
-85.435
-76.685
-74.715
-79.636
-84.861
-86.648
-80.965
-66.945
-50.298
-34.904
-23.523
-17.539
-14.58
-13.144
-13.425
-15.553
-19.97
-26.466
-33.599
-40.043
-45.272
-49.077
-51.338
-52.153
-51.629
-50.091
-48.407
-47.316
-47.117
-47.905
-49.532
-51.712
-54.237
-56.835
-59.1
-60.76
-61.691
-61.843
-61.303
-60.172
-58.51
-56.4
-53.927
-51.141
-48.09
-44.816
-41.351
-37.752
-34.086
-30.403
-26.741
-23.125
-19.564
-16.064
-12.621
-9.221
-5.847
-2.488
0.862
4.201
7.526
10.843
14.159
17.483
20.824
24.19
27.59
31.026
34.503
38.017
41.566
45.142
48.738
52.348
55.969
59.596
63.225
66.851
70.469
74.072
77.652
81.202
84.709
88.164
91.553
94.865
98.087
101.207
104.214
107.093
109.834
112.424
114.85
117.101
119.165
121.03
122.687
124.124
125.333
126.305
127.032
127.508
127.728
127.687
127.38
126.806
125.962
124.848
123.463
121.809
119.888
117.704
115.261
112.565
109.624
106.446
103.039
99.416
95.585
91.559
87.35
82.97
78.433
73.752
68.94
64.013
58.984
53.867
48.679
43.432
38.141
32.821
27.486
22.149
16.825
11.527
6.27
1.065
-4.073
-9.132
-14.099
-18.961
-23.709
-28.329
-32.813
-37.15
-41.333
-45.351
-49.2
-52.871
-56.359
-59.658
-62.764
-65.673
-68.381
-70.886
-73.186
-75.28
-77.167
-78.848
-80.322
-81.592
-82.66
-83.527
-84.197
-84.675
-84.965
-85.072
-85.003
-84.765
-84.365
-83.813
-83.117
-82.287
-81.333
-80.264
-79.092
-77.827
-76.479
-75.059
-73.579
-72.048
-70.477
-68.876
-67.256
-65.627
-63.999
-62.381
-60.783
-59.213
-57.681
-56.194
-54.762
-53.392
-52.091
-50.866
-49.724
-48.67
-47.709
-46.847
-46.085
-45.428
-44.877
-44.433
-44.098
-43.871
-43.751
-43.737
-43.827
-44.019
-44.311
-44.699
-45.179
-45.748
-46.401
-47.135
-47.944
-48.824
-49.77
-50.776
-51.838
-52.948
-54.102
-55.293
-56.515
-57.761
-59.025
-60.299
-61.577
-62.854
-64.122
-65.375
-66.608
-67.814
-68.99
-70.129
-71.227
-72.28
-73.284
-74.236
-75.134
-75.974
-76.756
-77.477
-78.137
-78.736
-79.272
-79.747
-80.16
-80.514
-80.808
-81.045
-81.227
-81.357
-81.439
-81.477
-81.474
-81.436
-81.367
-81.274
-81.16
-81.031
-80.894
-80.754
-80.617
-80.487
-80.372
-80.276
-80.205
-80.163
-80.154
-80.182
-80.249
-80.358
-80.51
-80.707
-80.947
-81.231
-81.557
-81.925
-82.33
-82.771
-83.242
-83.739
-84.256
-84.785
-85.319
-85.849
-86.367
-86.862
-87.326
-87.747
-88.114
-88.419
-88.648
-88.791
-88.836
-88.774
-88.591
-88.278
-87.824
-87.222
-86.461
-85.536
-84.44
-83.168
-81.716
-80.083
-78.268
-76.269
-74.09
-71.733
-69.203
-66.507
-63.652
-60.65
-57.512
-54.255
-50.894
-47.448
-43.937
-40.383
-36.806
-33.231
-29.68
-26.174
-22.735
-19.386
-16.15
-13.051
-10.113
-7.36
-4.813
-2.493
-0.419
1.391
2.924
4.173
5.132
5.794
6.152
6.189
5.889
5.247
4.26
2.926
1.257
-0.735
-3.024
-5.569
-8.324
-11.247
-14.296
-17.444
-20.658
-23.895
-27.103
-30.212
-33.151
-35.868
-38.312
-40.437
-42.225
-43.675
-44.824
-45.753
-46.532
-47.232
-47.921
-48.663
-49.55
-50.676
-52.117
-53.979
-56.401
-59.485
-63.268
-67.621
-72.182
-76.546
-80.321
-83.058
-84.3
-83.608
-80.747
-76.106
-70.657
-65.501
-61.575
-59.626
-60.333
-64.458
-72.542
-82.651
-90.624
-92.613
-84.608
-66.899
-44.211
-16.597
16.958
60.653
126.362
218.105
335.485
476.934
627.752
771.453
891.705
967.002
984.242
941.535
842.768
700.89
535.189
361.531
197.165
61.085
-37.068
-92.616
-108.357
-98.843
-76.149
-50.12
-29.924
-17.059
-13.476
-19.707
-30.466
-42.47
-52.099
-57.599
-62.108
-67.13
-72.987
-78.845
-82.065
-81.697
-78.21
-72.415
-65.598
-58.647
-52.067
-46.452
-42.165
-39.29
-37.771
-37.421
-38.079
-39.616
-41.887
-44.709
-47.899
-51.32
-54.844
-58.345
-61.668
-64.636
-67.122
-69.049
-70.38
-71.105
-71.23
-70.765
-69.745
-68.225
-66.262
-63.908
-61.219
-58.243
-55.042
-51.687
-48.25
-44.801
-41.392
-38.051
-34.794
-31.627
-28.545
-25.539
-22.592
-19.677
-16.774
-13.868
-10.945
-7.994
-5.001
-1.947
1.182
4.403
7.729
11.168
14.727
18.413
22.227
26.171
30.241
34.433
38.743
43.17
47.709
52.357
57.109
61.958
66.896
71.915
77.004
82.15
87.337
92.55
97.77
102.981
108.161
113.292
118.351
123.318
128.171
132.888
137.446
141.823
145.998
149.948
153.654
157.096
160.253
163.109
165.647
167.851
169.708
171.206
172.332
173.08
173.439
173.406
172.976
172.147
170.919
169.294
167.274
164.867
162.08
158.922
155.406
151.543
147.35
142.842
138.037
132.954
127.613
122.036
116.244
110.26
104.109
97.814
91.399
84.89
78.31
71.686
65.039
58.396
51.78
45.212
38.717
32.315
26.027
19.873
13.872
8.041
2.395
-3.049
-8.278
-13.28
-18.044
-22.56
-26.821
-30.819
-34.549
-38.007
-41.191
-44.1
-46.733
-49.093
-51.183
-53.006
-54.568
-55.875
-56.934
-57.755
-58.347
-58.719
-58.884
-58.852
-58.636
-58.25
-57.706
-57.018
-56.2
-55.265
-54.229
-53.105
-51.906
-50.647
-49.341
-48
-46.638
-45.268
-43.9
-42.546
-41.218
-39.924
-38.676
-37.481
-36.348
-35.283
-34.295
-33.389
-32.569
-31.842
-31.21
-30.676
-30.243
-29.912
-29.683
-29.557
-29.532
-29.607
-29.78
-30.047
-30.406
-30.852
-31.38
-31.988
-32.668
-33.416
-34.226
-35.091
-36.006
-36.965
-37.96
-38.987
-40.037
-41.106
-42.186
-43.272
-44.357
-45.436
-46.502
-47.549
-48.572
-49.566
-50.526
-51.445
-52.321
-53.149
-53.924
-54.644
-55.305
-55.906
-56.443
-56.915
-57.322
-57.662
-57.935
-58.142
-58.283
-58.36
-58.374
-58.327
-58.222
-58.062
-57.849
-57.586
-57.277
-56.927
-56.538
-56.115
-55.663
-55.186
-54.69
-54.179
-53.661
-53.139
-52.62
-52.111
-51.616
-51.141
-50.693
-50.277
-49.899
-49.564
-49.278
-49.044
-48.868
-48.752
-48.701
-48.716
-48.8
-48.954
-49.178
-49.473
-49.837
-50.271
-50.772
-51.338
-51.967
-52.654
-53.396
-54.188
-55.024
-55.897
-56.801
-57.727
-58.667
-59.611
-60.551
-61.476
-62.376
-63.239
-64.055
-64.813
-65.5
-66.105
-66.616
-67.023
-67.315
-67.481
-67.512
-67.4
-67.137
-66.716
-66.131
-65.377
-64.451
-63.35
-62.072
-60.616
-58.984
-57.177
-55.201
-53.06
-50.762
-48.315
-45.733
-43.029
-40.219
-37.318
-34.346
-31.322
-28.268
-25.203
-22.148
-19.123
-16.15
-13.25
-10.447
-7.764
-5.224
-2.848
-0.659
1.325
3.084
4.604
5.875
6.889
7.638
8.11
8.287
8.149
7.687
6.892
5.761
4.299
2.516
0.432
-1.912
-4.477
-7.22
-10.104
-13.1
-16.178
-19.3
-22.417
-25.463
-28.371
-31.09
-33.57
-35.77
-37.677
-39.291
-40.654
-41.845
-42.939
-44.008
-45.128
-46.368
-47.814
-49.559
-51.686
-54.319
-57.625
-61.717
-66.628
-72.229
-78.165
-83.998
-89.273
-93.438
-95.894
-96.144
-93.932
-89.584
-84.02
-78.396
-73.878
-71.492
-72.104
-76.401
-84.496
-95.181
-106.094
-114.226
-116.041
-108.129
-87.316
-50.205
4.956
76.492
161.081
254.264
353.258
459.232
572.548
689.755
799.22
882.595
922.797
907.481
837.654
724.774
581.11
422.462
261.535
108.04
-22.996
-118.982
-173.808
-187.187
-168.332
-133.862
-98.026
-69.752
-54.631
-49.033
-45.665
-41.245
-32.354
-20.691
-12.7
-10.892
-16.121
-27.192
-39.901
-51.781
-61.834
-69.278
-74.079
-76.275
-75.866
-73.357
-69.575
-65.342
-61.462
-58.501
-56.821
-56.604
-57.81
-60.271
-63.697
-67.712
-71.885
-75.879
-79.452
-82.455
-84.861
-86.659
-87.846
-88.452
-88.526
-88.112
-87.254
-85.981
-84.301
-82.236
-79.825
-77.119
-74.187
-71.095
-67.906
-64.663
-61.395
-58.121
-54.852
-51.592
-48.335
-45.07
-41.777
-38.442
-35.056
-31.608
-28.089
-24.481
-20.766
-16.929
-12.952
-8.826
-4.542
-0.093
4.527
9.319
14.283
19.415
24.71
30.162
35.767
41.519
47.409
53.428
59.565
65.808
72.143
78.555
85.025
91.535
98.064
104.589
111.087
117.534
123.905
130.175
136.317
142.306
148.114
153.717
159.088
164.201
169.033
173.558
177.754
181.6
185.074
188.159
190.837
193.094
194.917
196.295
197.22
197.686
197.688
197.225
196.299
194.912
193.068
190.778
188.05
184.897
181.335
177.381
173.052
168.371
163.359
158.039
152.439
146.582
140.497
134.212
127.755
121.156
114.444
107.649
100.801
93.928
87.059
80.223
73.447
66.757
60.178
53.734
47.447
41.339
35.429
29.734
24.271
19.055
14.097
9.408
4.997
0.873
-2.961
-6.5
-9.743
-12.689
-15.34
-17.698
-19.769
-21.559
-23.074
-24.324
-25.319
-26.07
-26.589
-26.888
-26.982
-26.885
-26.611
-26.176
-25.595
-24.883
-24.057
-23.131
-22.121
-21.042
-19.907
-18.73
-17.526
-16.307
-15.085
-13.872
-12.68
-11.518
-10.396
-9.325
-8.312
-7.365
-6.491
-5.696
-4.985
-4.364
-3.835
-3.403
-3.068
-2.834
-2.7
-2.669
-2.739
-2.91
-3.181
-3.551
-4.017
-4.578
-5.232
-5.975
-6.806
-7.723
-8.722
-9.801
-10.959
-12.191
-13.497
-14.872
-16.314
-17.82
-19.386
-21.011
-22.689
-24.419
-26.197
-28.02
-29.885
-31.789
-33.728
-35.701
-37.704
-39.733
-41.787
-43.861
-45.953
-48.06
-50.18
-52.309
-54.444
-56.582
-58.72
-60.855
-62.982
-65.098
-67.198
-69.279
-71.337
-73.366
-75.364
-77.326
-79.248
-81.127
-82.96
-84.743
-86.472
-88.146
-89.76
-91.312
-92.8
-94.221
-95.573
-96.855
-98.064
-99.199
-100.259
-101.243
-102.15
-102.979
-103.73
-104.403
-104.998
-105.514
-105.955
-106.319
-106.61
-106.829
-106.979
-107.062
-107.08
-107.036
-106.933
-106.774
-106.56
-106.295
-105.98
-105.62
-105.216
-104.77
-104.286
-103.765
-103.209
-102.62
-102
-101.35
-100.671
-99.964
-99.229
-98.468
-97.681
-96.869
-96.031
-95.167
-94.277
-93.36
-92.414
-91.439
-90.431
-89.389
-88.311
-87.195
-86.038
-84.841
-83.599
-82.312
-80.979
-79.599
-78.171
-76.694
-75.168
-73.594
-71.974
-70.307
-68.596
-66.845
-65.057
-63.238
-61.394
-59.534
-57.665
-55.795
-53.934
-52.092
-50.278
-48.5
-46.766
-45.084
-43.464
-41.917
-40.454
-39.085
-37.821
-36.672
-35.647
-34.754
-34.001
-33.389
-32.918
-32.59
-32.412
-32.399
-32.564
-32.918
-33.467
-34.214
-35.155
-36.284
-37.582
-39.016
-40.548
-42.14
-43.755
-45.371
-46.961
-48.493
-49.921
-51.187
-52.23
-53.007
-53.483
-53.626
-53.437
-52.927
-52.148
-51.199
-50.172
-49.171
-48.305
-47.669
-47.379
-47.562
-48.32
-49.792
-52.149
-55.464
-59.736
-64.832
-70.389
-75.997
-81.267
-85.705
-88.786
-90.13
-89.573
-87.436
-84.567
-81.99
-80.567
-80.892
-83.581
-89.112
-97.457
-107.799
-117.263
-121.177
-115.476
-96.834
-65.683
-26.503
17.884
65.071
118.934
190.051
285.249
409.731
558.074
711.377
848.81
945.546
981.4
948.315
846.376
687.106
491.785
285.83
94.648
-58.883
-160.342
-207.078
-203.217
-164.318
-111.302
-61.72
-33.221
-31.017
-49.065
-78.214
-103.248
-116.312
-118.579
-113.883
-110.137
-111.042
-115.002
-119.564
-121.499
-119.627
-114.844
-108.07
-100.247
-92.035
-83.847
-76.233
-69.539
-63.835
-59.084
-55.172
-52.065
-49.779
-48.243
-47.324
-46.908
-46.917
-47.32
-48.127
-49.287
-50.702
-52.299
-54.01
-55.801
-57.669
-59.583
-61.489
-63.323
-65.001
-66.469
-67.711
-68.702
-69.422
-69.839
-69.892
-69.558
-68.844
-67.749
-66.278
-64.425
-62.166
-59.509
-56.491
-53.156
-49.569
-45.773
-41.782
-37.619
-33.304
-28.861
-24.326
-19.713
-15.018
-10.242
-5.386
-0.455
4.538
9.598
14.743
19.996
25.38
30.91
36.586
42.405
48.365
54.457
60.674
66.995
73.394
79.845
86.326
92.812
99.284
105.712
112.065
118.31
124.415
130.347
136.08
141.584
146.832
151.799
156.461
160.798
164.792
168.425
171.679
174.537
176.984
179.007
180.593
181.735
182.424
182.655
182.426
181.737
180.591
178.994
176.952
174.473
171.57
168.255
164.544
160.452
155.998
151.203
146.086
140.67
134.98
129.039
122.873
116.507
109.967
103.281
96.474
89.574
82.607
75.598
68.574
61.561
54.581
47.66
40.819
34.082
27.468
20.997
14.688
8.557
2.619
-3.113
-8.625
-13.907
-18.948
-23.742
-28.281
-32.558
-36.57
-40.313
-43.784
-46.984
-49.913
-52.571
-54.963
-57.091
-58.96
-60.577
-61.948
-63.08
-63.982
-64.662
-65.131
-65.398
-65.474
-65.37
-65.098
-64.67
-64.097
-63.392
-62.567
-61.634
-60.605
-59.492
-58.306
-57.06
-55.764
-54.431
-53.071
-51.695
-50.314
-48.938
-47.577
-46.24
-44.936
-43.674
-42.46
-41.303
-40.207
-39.179
-38.224
-37.346
-36.549
-35.836
-35.208
-34.668
-34.215
-33.851
-33.574
-33.383
-33.277
-33.252
-33.307
-33.438
-33.642
-33.914
-34.251
-34.649
-35.101
-35.603
-36.148
-36.733
-37.349
-37.992
-38.654
-39.332
-40.017
-40.705
-41.39
-42.067
-42.731
-43.376
-44
-44.596
-45.163
-45.697
-46.194
-46.653
-47.072
-47.45
-47.784
-48.076
-48.324
-48.529
-48.691
-48.81
-48.888
-48.926
-48.925
-48.887
-48.814
-48.709
-48.575
-48.414
-48.23
-48.026
-47.805
-47.571
-47.327
-47.078
-46.825
-46.573
-46.325
-46.084
-45.853
-45.636
-45.435
-45.251
-45.089
-44.949
-44.833
-44.744
-44.683
-44.652
-44.65
-44.681
-44.744
-44.841
-44.973
-45.139
-45.339
-45.574
-45.843
-46.145
-46.478
-46.841
-47.233
-47.651
-48.091
-48.553
-49.031
-49.522
-50.024
-50.53
-51.037
-51.539
-52.032
-52.51
-52.969
-53.402
-53.804
-54.17
-54.494
-54.77
-54.991
-55.152
-55.246
-55.267
-55.209
-55.066
-54.831
-54.501
-54.07
-53.534
-52.889
-52.132
-51.261
-50.274
-49.169
-47.948
-46.61
-45.16
-43.599
-41.931
-40.164
-38.305
-36.364
-34.353
-32.281
-30.161
-28.007
-25.833
-23.655
-21.491
-19.354
-17.259
-15.223
-13.261
-11.392
-9.634
-8.004
-6.514
-5.178
-4.009
-3.022
-2.231
-1.644
-1.263
-1.089
-1.127
-1.391
-1.892
-2.636
-3.626
-4.858
-6.322
-8.014
-9.917
-12.004
-14.239
-16.582
-18.992
-21.432
-23.878
-26.311
-28.698
-31.004
-33.172
-35.13
-36.829
-38.238
-39.347
-40.19
-40.791
-41.131
-41.31
-41.536
-42.003
-42.957
-44.493
-46.444
-48.787
-51.717
-55.226
-59.123
-63.109
-66.527
-68.995
-70.742
-71.756
-71.691
-70.38
-67.746
-64.024
-60.282
-57.508
-55.876
-55.59
-57.167
-61.049
-67.712
-77.416
-87.721
-94.314
-94.421
-85.238
-67.649
-46.96
-23.214
5.703
45.68
109.713
202.195
321.848
463.471
610.549
749.273
865.779
943.086
971.334
943.44
859.377
729.143
566.654
388.83
213.15
56.245
-68.747
-154.037
-198.756
-210.469
-197.543
-165.713
-120.737
-66.675
-12.019
28.519
46.211
39.223
13.877
-14.726
-36.956
-50.263
-56.576
-62.415
-70.433
-79.311
-86.983
-90.672
-89.783
-85.575
-79.299
-72.372
-65.879
-60.285
-55.964
-53.084
-51.544
-51.203
-51.869
-53.269
-55.057
-56.988
-58.862
-60.521
-61.906
-62.948
-63.587
-63.82
-63.685
-63.223
-62.505
-61.626
-60.627
-59.545
-58.383
-57.091
-55.657
-54.087
-52.396
-50.615
-48.775
-46.895
-44.998
-43.111
-41.228
-39.331
-37.365
-35.239
-32.893
-30.298
-27.455
-24.409
-21.185
-17.79
-14.235
-10.531
-6.684
-2.702
1.424
5.721
10.198
14.85
19.659
24.583
29.599
34.698
39.884
45.173
50.574
56.086
61.712
67.459
73.324
79.3
85.368
91.495
97.655
103.824
109.982
116.114
122.196
128.202
134.105
139.875
145.485
150.906
156.108
161.059
165.732
170.1
174.143
177.84
181.175
184.13
186.687
188.833
190.556
191.844
192.689
193.083
193.02
192.497
191.514
190.074
188.181
185.841
183.062
179.856
176.236
172.215
167.812
163.044
157.931
152.494
146.757
140.744
134.478
127.987
121.297
114.434
107.427
100.304
93.091
85.817
78.51
71.195
63.899
56.648
49.466
42.378
35.405
28.57
21.894
15.396
9.093
3.001
-2.864
-8.488
-13.861
-18.972
-23.812
-28.375
-32.654
-36.645
-40.347
-43.757
-46.875
-49.704
-52.247
-54.507
-56.491
-58.204
-59.656
-60.853
-61.807
-62.529
-63.028
-63.318
-63.412
-63.322
-63.062
-62.647
-62.09
-61.406
-60.609
-59.714
-58.734
-57.684
-56.576
-55.425
-54.242
-53.04
-51.831
-50.626
-49.435
-48.268
-47.135
-46.045
-45.004
-44.02
-43.1
-42.248
-41.47
-40.77
-40.15
-39.613
-39.161
-38.795
-38.514
-38.318
-38.206
-38.175
-38.224
-38.348
-38.543
-38.806
-39.132
-39.515
-39.949
-40.43
-40.952
-41.508
-42.093
-42.701
-43.325
-43.961
-44.602
-45.242
-45.877
-46.501
-47.11
-47.698
-48.262
-48.798
-49.303
-49.774
-50.207
-50.601
-50.953
-51.261
-51.525
-51.744
-51.916
-52.042
-52.122
-52.158
-52.151
-52.102
-52.015
-51.891
-51.732
-51.544
-51.327
-51.087
-50.826
-50.548
-50.258
-49.959
-49.655
-49.352
-49.051
-48.758
-48.476
-48.208
-47.958
-47.728
-47.521
-47.34
-47.188
-47.067
-46.98
-46.929
-46.918
-46.946
-47.018
-47.134
-47.295
-47.503
-47.758
-48.061
-48.411
-48.81
-49.256
-49.749
-50.287
-50.869
-51.493
-52.155
-52.854
-53.586
-54.346
-55.132
-55.938
-56.76
-57.595
-58.439
-59.285
-60.13
-60.969
-61.796
-62.605
-63.391
-64.147
-64.866
-65.542
-66.166
-66.734
-67.236
-67.666
-68.016
-68.28
-68.449
-68.517
-68.477
-68.321
-68.043
-67.638
-67.101
-66.428
-65.616
-64.663
-63.568
-62.33
-60.951
-59.431
-57.772
-55.978
-54.052
-51.999
-49.824
-47.536
-45.141
-42.651
-40.076
-37.432
-34.733
-31.995
-29.235
-26.472
-23.724
-21.009
-18.347
-15.753
-13.246
-10.843
-8.565
-6.431
-4.46
-2.669
-1.075
0.308
1.466
2.388
3.07
3.512
3.709
3.657
3.341
2.748
1.871
0.703
-0.758
-2.505
-4.527
-6.8
-9.286
-11.939
-14.714
-17.568
-20.465
-23.37
-26.24
-29.023
-31.65
-34.052
-36.17
-37.951
-39.349
-40.347
-40.948
-41.191
-41.158
-40.923
-40.574
-40.207
-39.92
-39.825
-40.044
-40.68
-41.877
-43.84
-46.693
-50.462
-55.011
-59.94
-64.783
-69.085
-72.266
-73.686
-72.888
-69.704
-64.549
-58.534
-52.93
-48.933
-47.677
-50.064
-56.569
-66.953
-79.583
-91.517
-99.28
-98.962
-86.742
-59.322
-13.637
51.201
132.707
227.284
329.961
437.034
547.806
659.331
766.101
858.512
923.23
948.257
924.68
850.029
726.7
564.625
383.174
204.87
56.204
-43.619
-92.685
-100.154
-86.276
-71.392
-63.388
-63.037
-65.383
-64.228
-60.06
-55.852
-54.336
-58.042
-66.408
-77.126
-88.315
-97.985
-104.579
-107.678
-107.355
-104.012
-98.492
-91.68
-84.351
-77.322
-71.323
-66.708
-63.585
-61.91
-61.477
-62.103
-63.633
-65.864
-68.586
-71.634
-74.876
-78.178
-81.421
-84.452
-87.101
-89.251
-90.829
-91.8
-92.159
-91.919
-91.1
-89.747
-87.924
-85.69
-83.106
-80.23
-77.115
-73.826
-70.432
-67.006
-63.619
-60.32
-57.138
-54.087
-51.17
-48.38
-45.702
-43.115
-40.589
-38.097
-35.62
-33.137
-30.632
-28.086
-25.476
-22.781
-19.98
-17.055
-13.992
-10.779
-7.404
-3.861
-0.144
3.748
7.814
12.055
16.47
21.059
25.82
30.749
35.839
41.082
46.47
51.989
57.625
63.359
69.172
75.042
80.946
86.86
92.756
98.608
104.388
110.066
115.615
121.006
126.208
131.194
135.935
140.404
144.575
148.423
151.925
155.059
157.804
160.142
162.058
163.537
164.568
165.141
165.249
164.887
164.054
162.749
160.976
158.741
156.051
152.919
149.358
145.385
141.017
136.275
131.183
125.764
120.045
114.053
107.816
101.363
94.724
87.931
81.013
74.001
66.925
59.816
52.702
45.612
38.573
31.613
24.755
18.025
11.444
5.034
-1.186
-7.198
-12.986
-18.537
-23.836
-28.874
-33.641
-38.13
-42.336
-46.256
-49.887
-53.23
-56.285
-59.055
-61.546
-63.762
-65.711
-67.4
-68.839
-70.037
-71.004
-71.752
-72.292
-72.636
-72.795
-72.783
-72.61
-72.29
-71.833
-71.252
-70.559
-69.763
-68.877
-67.911
-66.875
-65.778
-64.63
-63.44
-62.216
-60.967
-59.701
-58.424
-57.144
-55.867
-54.6
-53.349
-52.118
-50.913
-49.738
-48.597
-47.496
-46.437
-45.423
-44.459
-43.546
-42.688
-41.886
-41.144
-40.463
-39.845
-39.293
-38.807
-38.39
-38.042
-37.765
-37.559
-37.425
-37.363
-37.374
-37.456
-37.609
-37.831
-38.122
-38.478
-38.898
-39.379
-39.917
-40.509
-41.15
-41.837
-42.565
-43.329
-44.124
-44.946
-45.789
-46.647
-47.515
-48.388
-49.261
-50.128
-50.984
-51.824
-52.642
-53.434
-54.195
-54.921
-55.608
-56.251
-56.847
-57.395
-57.89
-58.331
-58.716
-59.046
-59.319
-59.537
-59.699
-59.808
-59.866
-59.875
-59.84
-59.762
-59.648
-59.501
-59.326
-59.128
-58.912
-58.685
-58.451
-58.215
-57.984
-57.764
-57.558
-57.373
-57.214
-57.085
-56.992
-56.939
-56.929
-56.967
-57.056
-57.199
-57.397
-57.654
-57.969
-58.342
-58.775
-59.265
-59.811
-60.41
-61.059
-61.754
-62.489
-63.261
-64.062
-64.886
-65.725
-66.572
-67.419
-68.257
-69.078
-69.871
-70.628
-71.34
-71.997
-72.59
-73.11
-73.548
-73.895
-74.141
-74.278
-74.298
-74.193
-73.955
-73.577
-73.053
-72.378
-71.548
-70.559
-69.407
-68.092
-66.614
-64.973
-63.172
-61.215
-59.106
-56.853
-54.463
-51.945
-49.312
-46.575
-43.748
-40.849
-37.894
-34.901
-31.889
-28.879
-25.89
-22.945
-20.061
-17.259
-14.559
-11.98
-9.543
-7.27
-5.18
-3.294
-1.631
-0.208
0.958
1.854
2.47
2.801
2.842
2.585
2.02
1.136
-0.073
-1.607
-3.467
-5.644
-8.126
-10.887
-13.888
-17.088
-20.443
-23.915
-27.472
-31.081
-34.708
-38.302
-41.804
-45.159
-48.314
-51.228
-53.86
-56.177
-58.178
-59.9
-61.424
-62.836
-64.196
-65.555
-66.97
-68.515
-70.273
-72.338
-74.763
-77.622
-81.08
-85.231
-90.072
-95.465
-101.03
-106.28
-110.791
-114.071
-115.473
-114.538
-111.141
-105.579
-98.734
-91.834
-86.037
-82.362
-82.163
-85.719
-91.357
-97.042
-99.96
-98.926
-96.526
-93.545
-86.898
-68.913
-27.192
45.692
148.58
273.344
407.303
543.075
676.507
801.411
908.63
978.286
989.962
934.51
811.125
636.312
438.005
240.859
72.275
-48.342
-118.801
-143.69
-139.738
-128.626
-119.929
-116.694
-115.676
-109.022
-96.268
-81.381
-68.22
-61.049
-60.563
-64.638
-71.294
-78.445
-84.254
-87.516
-87.661
-84.752
-79.355
-72.388
-64.731
-57.104
-50.247
-44.802
-41.06
-39.077
-38.723
-39.709
-41.783
-44.745
-48.352
-52.368
-56.618
-60.921
-65.122
-69.09
-72.673
-75.755
-78.271
-80.176
-81.459
-82.131
-82.212
-81.743
-80.786
-79.396
-77.628
-75.537
-73.173
-70.601
-67.889
-65.101
-62.298
-59.521
-56.79
-54.119
-51.506
-48.942
-46.41
-43.887
-41.343
-38.756
-36.105
-33.375
-30.548
-27.607
-24.533
-21.306
-17.912
-14.336
-10.57
-6.605
-2.436
1.938
6.516
11.294
16.267
21.429
26.775
32.299
37.993
43.848
49.852
55.994
62.259
68.632
75.094
81.624
88.202
94.805
101.409
107.989
114.519
120.973
127.324
133.545
139.607
145.482
151.145
156.566
161.721
166.582
171.126
175.33
179.17
182.628
185.685
188.324
190.531
192.294
193.602
194.447
194.825
194.732
194.166
193.129
191.625
189.659
187.241
184.379
181.088
177.382
173.278
168.795
163.952
158.773
153.281
147.501
141.459
135.182
128.697
122.034
115.222
108.289
101.265
94.18
87.062
79.94
72.841
65.793
58.821
51.95
45.202
38.601
32.166
25.917
19.87
14.043
8.45
3.103
-1.987
-6.809
-11.355
-15.62
-19.599
-23.289
-26.688
-29.798
-32.618
-35.154
-37.409
-39.388
-41.1
-42.552
-43.753
-44.715
-45.448
-45.966
-46.279
-46.403
-46.351
-46.137
-45.774
-45.276
-44.659
-43.934
-43.115
-42.216
-41.249
-40.226
-39.16
-38.062
-36.942
-35.812
-34.681
-33.559
-32.453
-31.373
-30.324
-29.315
-28.351
-27.437
-26.58
-25.782
-25.048
-24.38
-23.781
-23.252
-22.793
-22.405
-22.086
-21.837
-21.655
-21.538
-21.486
-21.495
-21.563
-21.687
-21.866
-22.095
-22.373
-22.696
-23.06
-23.464
-23.903
-24.375
-24.877
-25.406
-25.96
-26.534
-27.127
-27.736
-28.357
-28.988
-29.626
-30.267
-30.911
-31.553
-32.194
-32.829
-33.46
-34.083
-34.698
-35.305
-35.903
-36.49
-37.067
-37.633
-38.188
-38.732
-39.265
-39.786
-40.297
-40.798
-41.289
-41.77
-42.242
-42.705
-43.159
-43.606
-44.044
-44.476
-44.901
-45.32
-45.734
-46.145
-46.552
-46.957
-47.36
-47.762
-48.163
-48.564
-48.964
-49.365
-49.764
-50.163
-50.562
-50.96
-51.358
-51.754
-52.149
-52.542
-52.933
-53.32
-53.702
-54.08
-54.451
-54.814
-55.17
-55.515
-55.85
-56.172
-56.481
-56.774
-57.051
-57.309
-57.547
-57.763
-57.955
-58.121
-58.26
-58.368
-58.445
-58.489
-58.497
-58.468
-58.4
-58.291
-58.139
-57.941
-57.696
-57.401
-57.053
-56.652
-56.193
-55.675
-55.095
-54.452
-53.745
-52.972
-52.131
-51.222
-50.244
-49.195
-48.077
-46.888
-45.629
-44.302
-42.908
-41.449
-39.929
-38.351
-36.722
-35.048
-33.336
-31.592
-29.824
-28.041
-26.256
-24.48
-22.726
-21.006
-19.331
-17.715
-16.17
-14.71
-13.347
-12.092
-10.952
-9.937
-9.058
-8.331
-7.765
-7.363
-7.124
-7.044
-7.12
-7.36
-7.771
-8.354
-9.109
-10.035
-11.127
-12.391
-13.821
-15.397
-17.088
-18.852
-20.652
-22.476
-24.32
-26.197
-28.11
-30.014
-31.861
-33.6
-35.168
-36.555
-37.75
-38.678
-39.372
-39.955
-40.591
-41.637
-43.426
-46.002
-49.396
-53.602
-58.297
-63.248
-68.188
-72.325
-74.986
-75.943
-74.926
-72.063
-68.107
-63.403
-58.271
-53.78
-50.77
-49.846
-51.955
-57.303
-65.256
-75.66
-88.247
-101.965
-115.923
-128.802
-138.205
-142.037
-138.622
-125.905
-101.912
-65.063
-13.643
53.472
133.961
222.739
315.033
405.423
493.44
584.579
677.863
767.775
840.821
872.312
848.768
767.882
636.556
478.579
314.437
159.191
29.444
-68.128
-131.772
-161.922
-169.063
-165.252
-156.865
-147.854
-137.025
-120.323
-98.685
-75.61
-54.734
-40.149
-33.31
-33.36
-39.149
-48.948
-60.79
-72.756
-83.117
-90.754
-95.028
-95.877
-93.625
-88.776
-82.149
-74.839
-67.93
-62.147
-57.939
-55.441
-54.543
-55.097
-56.845
-59.401
-62.308
-65.207
-67.84
-70.039
-71.758
-72.965
-73.633
-73.773
-73.416
-72.595
-71.342
-69.69
-67.655
-65.264
-62.558
-59.577
-56.381
-53.034
-49.595
-46.123
-42.66
-39.23
-35.851
-32.533
-29.277
-26.077
-22.919
-19.78
-16.642
-13.489
-10.307
-7.078
-3.783
-0.401
3.087
6.695
10.437
14.322
18.359
22.553
26.907
31.42
36.09
40.91
45.877
50.984
56.225
61.591
67.074
72.661
78.342
84.101
89.925
95.796
101.694
107.598
113.487
119.339
125.128
130.831
136.421
141.873
147.16
152.257
157.136
161.772
166.139
170.212
173.969
177.387
180.446
183.125
185.409
187.281
188.728
189.739
190.305
190.418
190.073
189.267
188.001
186.275
184.093
181.462
178.39
174.887
170.967
166.644
161.935
156.861
151.44
145.696
139.653
133.336
126.772
119.988
113.012
105.874
98.603
91.228
83.779
76.286
68.776
61.279
53.823
46.433
39.136
31.957
24.919
18.045
11.356
4.871
-1.391
-7.415
-13.184
-18.687
-23.91
-28.845
-33.483
-37.818
-41.845
-45.561
-48.965
-52.058
-54.841
-57.319
-59.497
-61.38
-62.976
-64.295
-65.346
-66.139
-66.687
-67
-67.093
-66.978
-66.669
-66.18
-65.525
-64.718
-63.774
-62.706
-61.529
-60.257
-58.903
-57.48
-56.002
-54.481
-52.928
-51.356
-49.774
-48.193
-46.623
-45.072
-43.548
-42.058
-40.61
-39.21
-37.862
-36.571
-35.342
-34.178
-33.082
-32.056
-31.103
-30.223
-29.419
-28.689
-28.034
-27.454
-26.948
-26.516
-26.155
-25.864
-25.642
-25.486
-25.393
-25.362
-25.39
-25.474
-25.611
-25.799
-26.034
-26.313
-26.635
-26.994
-27.39
-27.818
-28.274
-28.757
-29.263
-29.789
-30.331
-30.887
-31.453
-32.027
-32.607
-33.189
-33.771
-34.352
-34.929
-35.5
-36.064
-36.619
-37.165
-37.7
-38.224
-38.735
-39.235
-39.723
-40.198
-40.661
-41.111
-41.55
-41.977
-42.394
-42.8
-43.199
-43.589
-43.975
-44.356
-44.736
-45.116
-45.5
-45.889
-46.285
-46.691
-47.11
-47.544
-47.995
-48.464
-48.954
-49.467
-50.003
-50.564
-51.15
-51.76
-52.397
-53.058
-53.744
-54.453
-55.187
-55.943
-56.721
-57.52
-58.339
-59.177
-60.033
-60.904
-61.787
-62.682
-63.584
-64.491
-65.399
-66.304
-67.203
-68.09
-68.962
-69.814
-70.641
-71.438
-72.2
-72.922
-73.599
-74.225
-74.797
-75.31
-75.761
-76.144
-76.458
-76.697
-76.859
-76.941
-76.937
-76.845
-76.66
-76.379
-75.997
-75.511
-74.918
-74.215
-73.4
-72.47
-71.425
-70.263
-68.984
-67.588
-66.076
-64.448
-62.709
-60.863
-58.913
-56.865
-54.727
-52.506
-50.214
-47.86
-45.456
-43.011
-40.539
-38.052
-35.565
-33.094
-30.651
-28.249
-25.903
-23.627
-21.438
-19.354
-17.389
-15.557
-13.869
-12.339
-10.981
-9.81
-8.835
-8.059
-7.484
-7.114
-6.966
-7.052
-7.382
-7.961
-8.786
-9.854
-11.16
-12.693
-14.429
-16.338
-18.382
-20.526
-22.739
-25.001
-27.301
-29.613
-31.904
-34.118
-36.183
-38.049
-39.686
-41.081
-42.264
-43.255
-44.036
-44.705
-45.465
-46.497
-48.034
-50.159
-52.706
-55.653
-59.193
-63.338
-67.939
-72.731
-77.095
-80.658
-83.596
-85.849
-87.044
-86.916
-85.281
-82.32
-79.071
-76.596
-75.305
-75.606
-78.154
-83.676
-92.9
-105.919
-120.145
-131.158
-135.62
-131.223
-119.062
-102.297
-79.57
-46.071
5.672
83.894
189.401
316.212
455.848
597.18
728.53
839.194
915.461
942.866
915.445
833.553
704.994
547.696
378.325
213.856
73.721
-30.954
-96.019
-125.054
-133.277
-135.645
-139.602
-146.696
-151.107
-146.353
-132.448
-112.741
-91.656
-72.926
-57.136
-43.56
-32.377
-24.159
-19.156
-17.13
-17.468
-19.891
-24.4
-30.935
-38.793
-46.465
-52.929
-57.896
-61.355
-63.457
-64.321
-63.965
-62.796
-61.773
-61.518
-62.232
-63.928
-66.308
-69.096
-72.184
-75.324
-78.124
-80.356
-81.902
-82.727
-82.968
-82.729
-82.044
-80.99
-79.632
-78.015
-76.202
-74.24
-72.159
-70.012
-67.838
-65.662
-63.507
-61.383
-59.287
-57.212
-55.139
-53.039
-50.893
-48.686
-46.409
-44.056
-41.613
-39.061
-36.383
-33.559
-30.573
-27.411
-24.056
-20.496
-16.722
-12.73
-8.518
-4.089
0.559
5.425
10.508
15.808
21.319
27.036
32.951
39.055
45.334
51.772
58.353
65.054
71.856
78.735
85.667
92.626
99.586
106.518
113.394
120.186
126.862
133.391
139.745
145.89
151.799
157.441
162.786
167.808
172.479
176.775
180.672
184.148
187.185
189.764
191.87
193.491
194.617
195.24
195.356
194.961
194.058
192.65
190.743
188.346
185.472
182.133
178.346
174.13
169.506
164.496
159.124
153.416
147.4
141.103
134.556
127.789
120.832
113.717
106.476
99.14
91.741
84.309
76.874
69.467
62.115
54.846
47.686
40.659
33.788
27.094
20.597
14.313
8.259
2.448
-3.11
-8.403
-13.424
-18.169
-22.632
-26.812
-30.709
-34.324
-37.659
-40.721
-43.513
-46.045
-48.324
-50.359
-52.162
-53.743
-55.115
-56.29
-57.282
-58.103
-58.768
-59.291
-59.684
-59.963
-60.139
-60.226
-60.236
-60.181
-60.071
-59.918
-59.73
-59.517
-59.286
-59.044
-58.797
-58.551
-58.31
-58.077
-57.857
-57.651
-57.46
-57.287
-57.13
-56.991
-56.869
-56.762
-56.67
-56.591
-56.523
-56.464
-56.411
-56.362
-56.316
-56.269
-56.219
-56.165
-56.103
-56.033
-55.952
-55.859
-55.754
-55.636
-55.505
-55.361
-55.204
-55.036
-54.858
-54.672
-54.48
-54.283
-54.084
-53.884
-53.688
-53.496
-53.311
-53.136
-52.973
-52.823
-52.69
-52.574
-52.477
-52.401
-52.347
-52.315
-52.305
-52.318
-52.353
-52.41
-52.488
-52.586
-52.702
-52.834
-52.979
-53.136
-53.3
-53.469
-53.639
-53.806
-53.966
-54.115
-54.249
-54.364
-54.455
-54.519
-54.553
-54.553
-54.516
-54.439
-54.321
-54.158
-53.95
-53.696
-53.395
-53.048
-52.654
-52.215
-51.732
-51.208
-50.646
-50.048
-49.419
-48.763
-48.084
-47.387
-46.678
-45.962
-45.246
-44.537
-43.841
-43.164
-42.514
-41.899
-41.323
-40.795
-40.32
-39.903
-39.55
-39.265
-39.053
-38.917
-38.858
-38.88
-38.984
-39.169
-39.437
-39.785
-40.212
-40.715
-41.291
-41.934
-42.641
-43.403
-44.214
-45.067
-45.952
-46.862
-47.787
-48.716
-49.64
-50.547
-51.425
-52.263
-53.05
-53.773
-54.42
-54.981
-55.444
-55.801
-56.04
-56.155
-56.138
-55.983
-55.683
-55.236
-54.637
-53.884
-52.975
-51.91
-50.693
-49.324
-47.81
-46.156
-44.372
-42.468
-40.46
-38.36
-36.183
-33.946
-31.664
-29.358
-27.048
-24.754
-22.496
-20.297
-18.177
-16.16
-14.27
-12.528
-10.953
-9.559
-8.358
-7.362
-6.585
-6.035
-5.72
-5.642
-5.805
-6.218
-6.886
-7.813
-8.998
-10.435
-12.11
-14.01
-16.115
-18.398
-20.833
-23.388
-26.024
-28.704
-31.393
-34.057
-36.668
-39.199
-41.618
-43.879
-45.934
-47.728
-49.221
-50.434
-51.392
-52.098
-52.611
-53.053
-53.616
-54.668
-56.57
-59.413
-63.205
-67.937
-73.407
-79.372
-85.401
-90.445
-93.324
-93.405
-90.391
-84.336
-75.763
-65.098
-53.049
-41.513
-32.915
-29.095
-31.169
-39.369
-53.169
-72.135
-95.398
-119.278
-137.958
-146.41
-141.025
-122.44
-94.075
-55.362
-2.953
68.244
163.537
280.936
413.573
554.786
695.456
826.408
937.435
1010.787
1029.951
986.62
880.198
726.011
547.968
368.152
209.105
84.41
-1.724
-48.942
-66.414
-65.366
-54.915
-44.78
-37.512
-33.297
-33.16
-33.817
-35.091
-37.461
-39.192
-42.563
-48.324
-55.317
-63.553
-70.73
-74.829
-75.843
-73.863
-69.627
-64.252
-58.391
-52.59
-47.509
-43.64
-41.169
-40.117
-40.373
-41.72
-43.975
-46.99
-50.551
-54.455
-58.566
-62.732
-66.811
-70.668
-74.137
-77.093
-79.47
-81.225
-82.342
-82.829
-82.7
-81.995
-80.776
-79.103
-77.036
-74.631
-71.94
-69.028
-65.966
-62.827
-59.684
-56.586
-53.563
-50.632
-47.8
-45.063
-42.412
-39.827
-37.281
-34.749
-32.216
-29.663
-27.077
-24.44
-21.73
-18.928
-16.013
-12.969
-9.783
-6.444
-2.943
0.726
4.566
8.577
12.756
17.1
21.612
26.289
31.131
36.139
41.307
46.631
52.107
57.724
63.469
69.326
75.274
81.288
87.347
93.426
99.5
105.545
111.532
117.437
123.236
128.902
134.406
139.715
144.79
149.595
154.107
158.306
162.18
165.726
168.939
171.814
174.358
176.57
178.44
179.948
181.058
181.732
181.949
181.7
180.994
179.841
178.232
176.155
173.599
170.535
166.943
162.796
158.045
152.665
146.67
140.096
133.03
125.578
117.814
109.801
101.588
93.212
84.738
76.231
67.746
59.357
51.142
43.189
35.628
28.558
22.024
16.038
10.555
5.496
0.817
-3.516
-7.533
-11.248
-14.688
-17.881
-20.832
-23.558
-26.091
-28.479
-30.806
-33.143
-35.515
-37.923
-40.329
-42.669
-44.904
-47.004
-48.935
-50.679
-52.225
-53.562
-54.706
-55.676
-56.474
-57.094
-57.513
-57.707
-57.677
-57.439
-57.016
-56.451
-55.772
-55.009
-54.195
-53.355
-52.506
-51.664
-50.828
-49.993
-49.163
-48.344
-47.544
-46.777
-46.048
-45.361
-44.716
-44.115
-43.556
-43.039
-42.559
-42.111
-41.696
-41.313
-40.965
-40.655
-40.385
-40.156
-39.969
-39.823
-39.716
-39.646
-39.611
-39.606
-39.629
-39.675
-39.744
-39.832
-39.939
-40.062
-40.2
-40.351
-40.515
-40.69
-40.874
-41.068
-41.269
-41.477
-41.692
-41.912
-42.138
-42.369
-42.605
-42.846
-43.092
-43.342
-43.597
-43.857
-44.122
-44.391
-44.665
-44.945
-45.231
-45.524
-45.825
-46.137
-46.459
-46.793
-47.141
-47.501
-47.876
-48.264
-48.666
-49.081
-49.509
-49.95
-50.402
-50.865
-51.338
-51.82
-52.311
-52.808
-53.31
-53.815
-54.322
-54.83
-55.336
-55.839
-56.337
-56.829
-57.312
-57.786
-58.248
-58.696
-59.128
-59.543
-59.938
-60.311
-60.661
-60.987
-61.287
-61.561
-61.809
-62.03
-62.225
-62.394
-62.539
-62.66
-62.757
-62.833
-62.889
-62.926
-62.945
-62.948
-62.937
-62.913
-62.877
-62.832
-62.778
-62.716
-62.647
-62.571
-62.489
-62.4
-62.305
-62.203
-62.093
-61.975
-61.849
-61.712
-61.565
-61.403
-61.226
-61.029
-60.809
-60.563
-60.285
-59.97
-59.613
-59.208
-58.751
-58.236
-57.656
-57.007
-56.284
-55.482
-54.596
-53.622
-52.557
-51.396
-50.138
-48.781
-47.326
-45.774
-44.125
-42.386
-40.561
-38.659
-36.686
-34.652
-32.564
-30.432
-28.267
-26.083
-23.892
-21.71
-19.554
-17.441
-15.39
-13.421
-11.553
-9.802
-8.183
-6.709
-5.394
-4.25
-3.29
-2.524
-1.96
-1.605
-1.47
-1.559
-1.87
-2.4
-3.143
-4.089
-5.228
-6.541
-8.006
-9.602
-11.311
-13.11
-14.974
-16.88
-18.805
-20.735
-22.664
-24.586
-26.491
-28.356
-30.148
-31.839
-33.437
-34.948
-36.379
-37.794
-39.299
-41.086
-43.449
-46.658
-50.881
-56.182
-62.551
-69.742
-77.333
-84.75
-91.151
-95.669
-97.564
-96.37
-91.932
-84.627
-75.192
-64.456
-53.647
-44.3
-38.048
-36.241
-39.562
-47.93
-60.822
-77.754
-97.925
-118.358
-134.162
-140.994
-135.034
-117.38
-93.441
-64.447
-29.838
16.449
86.943
187.25
317.989
472.76
633.935
781.794
896.609
961.922
968.428
916.828
814.996
672.672
505.452
328.411
155.78
6.834
-104.256
-171.802
-195.04
-182.832
-150.478
-108.528
-68.695
-43.202
-34.192
-42.634
-64.058
-85.049
-99.523
-105.528
-103.815
-101.667
-102.064
-103.724
-105.547
-104.936
-100.997
-95.061
-88.155
-81.156
-74.833
-69.589
-65.63
-63.074
-61.851
-61.718
-62.507
-64.115
-66.39
-69.156
-72.252
-75.516
-78.802
-81.999
-84.966
-87.543
-89.624
-91.138
-92.056
-92.379
-92.126
-91.318
-89.998
-88.222
-86.041
-83.509
-80.681
-77.605
-74.342
-70.956
-67.509
-64.061
-60.652
-57.305
-54.029
-50.825
-47.68
-44.581
-41.506
-38.428
-35.326
-32.182
-28.979
-25.704
-22.341
-18.872
-15.28
-11.551
-7.673
-3.635
0.569
4.942
9.487
14.202
19.084
24.128
29.328
34.678
40.173
45.804
51.564
57.442
63.426
69.503
75.657
81.872
88.128
94.404
100.678
106.928
113.128
119.255
125.282
131.183
136.933
142.504
147.87
153.006
157.886
162.485
166.779
170.746
174.363
177.612
180.473
182.932
184.972
186.582
187.752
188.473
188.74
188.548
187.895
186.782
185.211
183.187
180.717
177.809
174.475
170.729
166.586
162.065
157.183
151.963
146.426
140.596
134.499
128.161
121.607
114.866
107.967
100.936
93.804
86.598
79.346
72.077
64.816
57.59
50.425
43.343
36.368
29.521
22.824
16.294
9.95
3.809
-2.115
-7.807
-13.256
-18.452
-23.383
-28.045
-32.429
-36.532
-40.352
-43.886
-47.134
-50.099
-52.783
-55.189
-57.325
-59.195
-60.808
-62.172
-63.297
-64.194
-64.872
-65.343
-65.619
-65.711
-65.631
-65.391
-65.001
-64.474
-63.821
-63.054
-62.183
-61.219
-60.173
-59.056
-57.879
-56.65
-55.379
-54.077
-52.75
-51.409
-50.06
-48.71
-47.368
-46.038
-44.727
-43.439
-42.18
-40.953
-39.762
-38.608
-37.495
-36.424
-35.396
-34.412
-33.473
-32.58
-31.732
-30.931
-30.176
-29.469
-28.808
-28.196
-27.631
-27.114
-26.643
-26.22
-25.843
-25.512
-25.226
-24.984
-24.786
-24.63
-24.516
-24.443
-24.408
-24.412
-24.453
-24.529
-24.64
-24.784
-24.961
-25.17
-25.41
-25.681
-25.983
-26.316
-26.679
-27.071
-27.492
-27.941
-28.416
-28.916
-29.44
-29.985
-30.55
-31.133
-31.732
-32.345
-32.969
-33.604
-34.246
-34.894
-35.546
-36.198
-36.85
-37.498
-38.141
-38.777
-39.406
-40.025
-40.633
-41.228
-41.809
-42.374
-42.922
-43.449
-43.953
-44.434
-44.888
-45.315
-45.713
-46.082
-46.421
-46.73
-47.011
-47.263
-47.487
-47.683
-47.853
-47.997
-48.115
-48.211
-48.284
-48.336
-48.37
-48.387
-48.391
-48.384
-48.367
-48.341
-48.308
-48.27
-48.227
-48.182
-48.134
-48.087
-48.041
-48
-47.966
-47.94
-47.923
-47.917
-47.921
-47.935
-47.956
-47.983
-48.01
-48.035
-48.057
-48.074
-48.082
-48.08
-48.067
-48.044
-48.009
-47.959
-47.891
-47.798
-47.673
-47.51
-47.304
-47.046
-46.73
-46.348
-45.897
-45.378
-44.789
-44.127
-43.385
-42.549
-41.615
-40.586
-39.465
-38.258
-36.976
-35.633
-34.258
-32.892
-31.577
-30.339
-29.191
-28.13
-27.16
-26.284
-25.508
-24.833
-24.242
-23.715
-23.237
-22.804
-22.406
-22.021
-21.594
-21.044
-20.306
-19.347
-18.165
-16.775
-15.192
-13.445
-11.58
-9.672
-7.828
-6.143
-4.681
-3.491
-2.612
-2.105
-2.054
-2.556
-3.681
-5.455
-7.877
-10.929
-14.587
-18.795
-23.453
-28.405
-33.467
-38.487
-43.353
-47.976
-52.291
-56.239
-59.767
-62.849
-65.474
-67.655
-69.421
-70.823
-71.936
-72.868
-73.735
-74.71
-76.04
-77.901
-80.38
-83.404
-86.639
-89.692
-92.223
-93.815
-93.948
-92.218
-88.409
-82.782
-76.332
-70.159
-65.109
-62.135
-62.246
-66.229
-74.525
-85.422
-94.963
-99.58
-96.632
-86.455
-71.194
-49.342
-16.265
35.449
112.833
215.632
337.909
470.169
602.281
726.62
834.49
915.674
956.916
944.877
874.567
747.495
576.1
383.728
193.244
30.245
-86.494
-156.055
-183.8
-184.814
-176.15
-160.604
-140.645
-118.151
-92.505
-72.563
-62.998
-60.574
-63.981
-68.235
-70.779
-75.17
-82.035
-90.783
-100.22
-107.202
-110.268
-109.335
-104.711
-97.376
-88.435
-79.081
-70.304
-62.644
-56.4
-51.724
-48.629
-47.073
-46.819
-47.362
-48.311
-49.459
-50.648
-51.81
-52.874
-53.702
-54.261
-54.641
-54.904
-55.078
-55.16
-55.066
-54.725
-54.14
-53.32
-52.284
-51.065
-49.67
-48.122
-46.472
-44.762
-43.02
-41.245
-39.379
-37.371
-35.203
-32.869
-30.398
-27.836
-25.192
-22.476
-19.704
-16.876
-13.996
-11.061
-8.047
-4.926
-1.685
1.675
5.135
8.673
12.29
15.993
19.799
23.736
27.822
32.069
36.497
41.118
45.936
50.948
56.141
61.492
66.988
72.613
78.356
84.205
90.141
96.14
102.18
108.232
114.267
120.256
126.164
131.96
137.611
143.089
148.367
153.419
158.22
162.743
166.963
170.856
174.397
177.564
180.335
182.689
184.609
186.079
187.086
187.62
187.674
187.242
186.322
184.913
183.019
180.643
177.794
174.482
170.718
166.519
161.901
156.884
151.49
145.743
139.668
133.291
126.642
119.75
112.645
105.358
97.921
90.365
82.723
75.026
67.306
59.594
51.922
44.32
36.815
29.436
22.208
15.155
8.301
1.666
-4.731
-10.873
-16.744
-22.333
-27.626
-32.615
-37.293
-41.655
-45.697
-49.419
-52.822
-55.908
-58.682
-61.151
-63.322
-65.205
-66.811
-68.152
-69.24
-70.09
-70.716
-71.134
-71.361
-71.411
-71.303
-71.051
-70.673
-70.183
-69.597
-68.93
-68.196
-67.407
-66.577
-65.718
-64.84
-63.953
-63.066
-62.187
-61.324
-60.481
-59.664
-58.876
-58.12
-57.399
-56.712
-56.059
-55.441
-54.854
-54.298
-53.769
-53.263
-52.777
-52.305
-51.844
-51.388
-50.931
-50.471
-50
-49.516
-49.013
-48.489
-47.938
-47.36
-46.749
-46.106
-45.427
-44.713
-43.961
-43.172
-42.347
-41.487
-40.592
-39.667
-38.712
-37.732
-36.729
-35.707
-34.67
-33.623
-32.571
-31.517
-30.468
-29.429
-28.404
-27.4
-26.421
-25.472
-24.559
-23.686
-22.857
-22.076
-21.347
-20.673
-20.056
-19.499
-19.004
-18.573
-18.206
-17.905
-17.67
-17.501
-17.397
-17.359
-17.384
-17.472
-17.621
-17.829
-18.095
-18.416
-18.791
-19.217
-19.691
-20.211
-20.775
-21.379
-22.022
-22.7
-23.411
-24.152
-24.922
-25.718
-26.537
-27.38
-28.243
-29.125
-30.026
-30.945
-31.88
-32.831
-33.797
-34.777
-35.772
-36.781
-37.803
-38.838
-39.887
-40.949
-42.022
-43.108
-44.205
-45.311
-46.427
-47.551
-48.681
-49.815
-50.952
-52.09
-53.226
-54.358
-55.482
-56.596
-57.696
-58.779
-59.841
-60.877
-61.883
-62.853
-63.784
-64.67
-65.504
-66.281
-66.994
-67.639
-68.208
-68.695
-69.095
-69.4
-69.605
-69.703
-69.69
-69.559
-69.305
-68.924
-68.41
-67.762
-66.975
-66.048
-64.979
-63.768
-62.414
-60.917
-59.281
-57.506
-55.596
-53.556
-51.391
-49.107
-46.711
-44.212
-41.622
-38.952
-36.215
-33.427
-30.603
-27.76
-24.918
-22.094
-19.309
-16.578
-13.919
-11.349
-8.888
-6.553
-4.364
-2.338
-0.489
1.165
2.609
3.827
4.806
5.546
6.044
6.299
6.302
6.038
5.492
4.658
3.533
2.114
0.405
-1.586
-3.843
-6.324
-8.987
-11.783
-14.663
-17.608
-20.592
-23.582
-26.537
-29.374
-32.007
-34.386
-36.461
-38.192
-39.594
-40.625
-41.279
-41.726
-42.098
-42.548
-43.277
-44.269
-45.482
-47.081
-49.184
-51.737
-54.835
-58.378
-62.093
-66.089
-70.312
-74.38
-78.037
-81.061
-82.99
-83.667
-83.28
-81.914
-80.08
-78.551
-77.934
-78.759
-81.669
-87.353
-95.03
-101.884
-104.88
-100.838
-88.913
-72.959
-55.084
-32.963
-1.354
49.725
128.984
236.03
366.133
512.213
661.549
802.623
922.911
1002.466
1025.774
985.148
879.412
724.116
543.32
359.278
195.584
67
-23.275
-75.849
-98.821
-103.608
-96.733
-84.452
-71.894
-60.201
-52.758
-50.938
-51.328
-52.017
-50.343
-45.624
-41.804
-41.474
-45.873
-54.374
-63.902
-72.506
-79.24
-83.839
-86.718
-87.7
-86.617
-83.848
-79.895
-75.492
-71.486
-68.254
-65.991
-64.997
-65.327
-66.898
-69.573
-72.989
-76.702
-80.441
-84.004
-87.208
-89.961
-92.186
-93.816
-94.868
-95.395
-95.429
-94.996
-94.118
-92.807
-91.099
-89.044
-86.694
-84.1
-81.318
-78.403
-75.406
-72.382
-69.366
-66.378
-63.429
-60.519
-57.639
-54.783
-51.936
-49.076
-46.185
-43.245
-40.236
-37.141
-33.943
-30.622
-27.162
-23.546
-19.762
-15.801
-11.656
-7.321
-2.795
1.922
6.829
11.919
17.188
22.629
28.236
33.999
39.91
45.955
52.121
58.395
64.759
71.194
77.679
84.193
90.712
97.211
103.665
110.046
116.327
122.481
128.479
134.293
139.894
145.255
150.347
155.145
159.622
163.755
167.52
170.898
173.868
176.415
178.523
180.18
181.375
182.1
182.348
182.117
181.404
180.212
178.542
176.402
173.798
170.743
167.248
163.329
159.004
154.29
149.209
143.784
138.04
132.001
125.695
119.149
112.393
105.457
98.37
91.162
83.865
76.509
69.121
61.733
54.372
47.065
39.838
32.717
25.725
18.886
12.221
5.75
-0.51
-6.541
-12.328
-17.858
-23.119
-28.102
-32.799
-37.203
-41.309
-45.115
-48.619
-51.822
-54.725
-57.331
-59.646
-61.677
-63.429
-64.914
-66.14
-67.119
-67.861
-68.38
-68.688
-68.798
-68.724
-68.478
-68.076
-67.53
-66.855
-66.064
-65.172
-64.191
-63.135
-62.017
-60.849
-59.642
-58.408
-57.158
-55.901
-54.648
-53.406
-52.186
-50.994
-49.838
-48.725
-47.659
-46.647
-45.693
-44.8
-43.971
-43.208
-42.513
-41.887
-41.332
-40.848
-40.435
-40.092
-39.82
-39.617
-39.483
-39.415
-39.413
-39.473
-39.593
-39.771
-40.005
-40.291
-40.627
-41.01
-41.437
-41.904
-42.409
-42.948
-43.517
-44.112
-44.73
-45.366
-46.016
-46.677
-47.345
-48.017
-48.689
-49.358
-50.022
-50.676
-51.318
-51.944
-52.552
-53.138
-53.699
-54.233
-54.737
-55.208
-55.645
-56.045
-56.406
-56.727
-57.007
-57.243
-57.436
-57.583
-57.685
-57.741
-57.752
-57.719
-57.642
-57.524
-57.365
-57.17
-56.939
-56.677
-56.384
-56.066
-55.723
-55.36
-54.981
-54.587
-54.184
-53.775
-53.364
-52.956
-52.554
-52.163
-51.787
-51.431
-51.099
-50.795
-50.523
-50.288
-50.094
-49.943
-49.841
-49.79
-49.794
-49.856
-49.977
-50.159
-50.403
-50.711
-51.081
-51.514
-52.009
-52.564
-53.178
-53.848
-54.571
-55.346
-56.169
-57.036
-57.942
-58.884
-59.856
-60.853
-61.869
-62.897
-63.93
-64.961
-65.982
-66.986
-67.962
-68.904
-69.803
-70.649
-71.433
-72.146
-72.78
-73.325
-73.774
-74.117
-74.347
-74.456
-74.438
-74.287
-73.998
-73.565
-72.985
-72.256
-71.373
-70.337
-69.145
-67.799
-66.296
-64.64
-62.833
-60.88
-58.786
-56.558
-54.204
-51.735
-49.165
-46.507
-43.776
-40.987
-38.156
-35.303
-32.446
-29.609
-26.811
-24.071
-21.41
-18.848
-16.408
-14.111
-11.974
-10.01
-8.232
-6.652
-5.287
-4.15
-3.249
-2.586
-2.16
-1.972
-2.028
-2.335
-2.896
-3.705
-4.759
-6.046
-7.558
-9.287
-11.206
-13.285
-15.485
-17.757
-20.072
-22.408
-24.748
-27.089
-29.407
-31.651
-33.778
-35.732
-37.452
-38.947
-40.212
-41.205
-42.01
-42.75
-43.619
-45
-47.216
-50.337
-54.392
-59.328
-64.848
-70.728
-76.573
-81.483
-84.608
-85.432
-83.641
-79.41
-73.367
-65.866
-57.408
-49.225
-42.785
-39.568
-40.742
-46.427
-56.027
-69.29
-85.903
-104.991
-123.532
-136.489
-139.765
-130.234
-109.314
-82.221
-49.294
-9.006
43.773
120.11
222.372
347.809
490.855
635.979
770.491
882.303
956.587
983.69
955.53
869.823
732.895
558.209
365.695
177.128
13.331
-111.785
-192.218
-230.75
-236.224
-216.542
-181.707
-139.153
-96.801
-67.246
-55.252
-61.025
-78.617
-93.494
-98.599
-93.257
-80.586
-69.235
-63.095
-61.424
-63.1
-65.687
-68.022
-70.363
-72.557
-74.248
-75.226
-75.354
-74.586
-73.002
-70.872
-68.663
-66.817
-65.758
-65.682
-66.506
-68.096
-70.249
-72.654
-74.93
-76.786
-78.035
-78.59
-78.491
-77.782
-76.503
-74.734
-72.567
-70.078
-67.32
-64.331
-61.129
-57.76
-54.291
-50.791
-47.332
-43.965
-40.713
-37.595
-34.617
-31.775
-29.059
-26.448
-23.917
-21.448
-19.028
-16.645
-14.285
-11.929
-9.555
-7.139
-4.657
-2.088
0.589
3.388
6.325
9.411
12.656
16.067
19.649
23.408
27.351
31.483
35.808
40.327
45.041
49.947
55.041
60.316
65.763
71.369
77.122
83.005
89.001
95.089
101.248
107.455
113.684
119.908
126.101
132.233
138.273
144.192
149.959
155.541
160.909
166.03
170.876
175.415
179.621
183.467
186.928
189.98
192.602
194.775
196.483
197.711
198.447
198.682
198.409
197.625
196.328
194.521
192.209
189.4
186.105
182.336
178.111
173.447
168.366
162.89
157.046
150.861
144.363
137.583
130.554
123.308
115.88
108.303
100.613
92.844
85.03
77.206
69.406
61.66
54.002
46.46
39.063
31.839
24.811
18.005
11.44
5.136
-0.889
-6.621
-12.048
-17.158
-21.945
-26.402
-30.526
-34.315
-37.77
-40.895
-43.693
-46.172
-48.341
-50.209
-51.788
-53.091
-54.132
-54.926
-55.489
-55.839
-55.99
-55.962
-55.771
-55.434
-54.968
-54.391
-53.718
-52.966
-52.147
-51.278
-50.371
-49.439
-48.493
-47.542
-46.597
-45.665
-44.754
-43.87
-43.017
-42.199
-41.42
-40.681
-39.984
-39.329
-38.717
-38.145
-37.612
-37.116
-36.655
-36.226
-35.825
-35.449
-35.095
-34.76
-34.439
-34.13
-33.829
-33.535
-33.244
-32.955
-32.667
-32.377
-32.085
-31.792
-31.496
-31.2
-30.904
-30.61
-30.32
-30.037
-29.763
-29.501
-29.255
-29.027
-28.821
-28.641
-28.489
-28.37
-28.285
-28.239
-28.233
-28.271
-28.354
-28.485
-28.664
-28.892
-29.171
-29.499
-29.878
-30.305
-30.779
-31.3
-31.864
-32.47
-33.115
-33.796
-34.509
-35.249
-36.012
-36.795
-37.591
-38.396
-39.206
-40.014
-40.817
-41.609
-42.386
-43.144
-43.878
-44.585
-45.26
-45.9
-46.503
-47.066
-47.587
-48.066
-48.501
-48.892
-49.241
-49.548
-49.815
-50.044
-50.236
-50.394
-50.52
-50.617
-50.687
-50.735
-50.764
-50.778
-50.782
-50.78
-50.776
-50.775
-50.78
-50.796
-50.824
-50.869
-50.932
-51.018
-51.127
-51.263
-51.426
-51.619
-51.842
-52.096
-52.379
-52.69
-53.026
-53.383
-53.758
-54.144
-54.536
-54.927
-55.313
-55.689
-56.049
-56.389
-56.703
-56.985
-57.231
-57.433
-57.584
-57.675
-57.694
-57.632
-57.481
-57.235
-56.888
-56.436
-55.873
-55.197
-54.409
-53.508
-52.491
-51.354
-50.081
-48.671
-47.129
-45.47
-43.714
-41.882
-39.99
-38.065
-36.139
-34.233
-32.365
-30.536
-28.728
-26.935
-25.164
-23.431
-21.772
-20.205
-18.728
-17.339
-16.028
-14.779
-13.587
-12.423
-11.236
-10.006
-8.731
-7.445
-6.228
-5.14
-4.221
-3.501
-2.986
-2.694
-2.663
-2.919
-3.482
-4.37
-5.584
-7.15
-9.13
-11.535
-14.344
-17.5
-20.875
-24.362
-27.879
-31.316
-34.586
-37.619
-40.331
-42.683
-44.697
-46.338
-47.582
-48.517
-49.184
-49.688
-50.216
-50.776
-51.361
-52.19
-53.51
-55.336
-57.679
-60.254
-62.52
-64.43
-66.012
-66.857
-66.492
-64.689
-61.334
-57.103
-53.291
-50.449
-49.126
-50.409
-55.261
-64.469
-77.346
-90.78
-101.309
-106.837
-108.446
-108.826
-106.886
-96.396
-65.492
-2.298
95.25
218.078
349.105
470.668
574.87
665.34
748.783
827.62
893.575
925.971
904.065
816.291
664.93
470.97
265.97
81.266
-58.612
-144.429
-182.798
-187.276
-171.445
-144.699
-110.293
-71.601
-36.545
-12.949
-6.18
-15.605
-32.761
-49.406
-61.17
-67.551
-72.392
-78.571
-85.899
-92.908
-97.041
-96.81
-92.727
-86.139
-78.763
-71.85
-65.979
-61.41
-58.27
-56.738
-56.84
-58.321
-60.751
-63.705
-66.899
-70.204
-73.541
-76.773
-79.738
-82.292
-84.364
-85.947
-87.031
-87.599
-87.624
-87.09
-86.025
-84.486
-82.534
-80.224
-77.602
-74.708
-71.597
-68.331
-64.976
-61.6
-58.248
-54.949
-51.718
-48.563
-45.485
-42.48
-39.532
-36.615
-33.703
-30.777
-27.822
-24.824
-21.769
-18.638
-15.412
-12.073
-8.607
-5.002
-1.248
2.664
6.738
10.979
15.386
19.955
24.684
29.571
34.61
39.799
45.132
50.6
56.195
61.906
67.722
73.626
79.603
85.634
91.699
97.777
103.845
109.881
115.858
121.753
127.54
133.191
138.681
143.983
149.07
153.916
158.495
162.782
166.754
170.389
173.664
176.562
179.065
181.157
182.825
184.057
184.844
185.178
185.056
184.473
183.431
181.93
179.974
177.572
174.731
171.463
167.782
163.703
159.243
154.422
149.261
143.783
138.012
131.974
125.694
119.201
112.523
105.689
98.727
91.668
84.54
77.372
70.193
63.03
55.911
48.86
41.904
35.065
28.366
21.827
15.469
9.308
3.361
-2.357
-7.834
-13.058
-18.021
-22.713
-27.13
-31.267
-35.122
-38.693
-41.982
-44.991
-47.723
-50.186
-52.384
-54.326
-56.021
-57.479
-58.711
-59.73
-60.546
-61.174
-61.626
-61.917
-62.058
-62.065
-61.949
-61.726
-61.407
-61.005
-60.531
-59.999
-59.417
-58.798
-58.15
-57.483
-56.806
-56.127
-55.452
-54.789
-54.142
-53.518
-52.92
-52.351
-51.815
-51.313
-50.848
-50.419
-50.027
-49.673
-49.354
-49.071
-48.821
-48.603
-48.416
-48.255
-48.121
-48.011
-47.922
-47.852
-47.8
-47.764
-47.743
-47.735
-47.739
-47.753
-47.777
-47.809
-47.85
-47.898
-47.953
-48.015
-48.082
-48.157
-48.237
-48.324
-48.417
-48.518
-48.626
-48.741
-48.865
-48.998
-49.14
-49.292
-49.454
-49.627
-49.81
-50.004
-50.208
-50.421
-50.643
-50.872
-51.107
-51.347
-51.589
-51.832
-52.073
-52.31
-52.54
-52.762
-52.972
-53.169
-53.351
-53.515
-53.659
-53.783
-53.885
-53.963
-54.016
-54.045
-54.048
-54.025
-53.976
-53.901
-53.801
-53.676
-53.528
-53.359
-53.169
-52.962
-52.74
-52.507
-52.265
-52.019
-51.773
-51.531
-51.298
-51.079
-50.88
-50.705
-50.56
-50.45
-50.38
-50.354
-50.377
-50.454
-50.586
-50.776
-51.028
-51.342
-51.719
-52.159
-52.663
-53.228
-53.854
-54.538
-55.277
-56.067
-56.905
-57.783
-58.698
-59.641
-60.605
-61.582
-62.563
-63.538
-64.498
-65.432
-66.328
-67.176
-67.964
-68.679
-69.31
-69.844
-70.27
-70.576
-70.751
-70.785
-70.669
-70.394
-69.953
-69.34
-68.549
-67.576
-66.418
-65.075
-63.545
-61.829
-59.93
-57.854
-55.605
-53.19
-50.62
-47.904
-45.058
-42.095
-39.033
-35.891
-32.689
-29.447
-26.189
-22.936
-19.711
-16.537
-13.436
-10.429
-7.541
-4.795
-2.214
0.179
2.362
4.316
6.023
7.467
8.639
9.53
10.134
10.442
10.44
10.116
9.459
8.463
7.125
5.448
3.445
1.139
-1.43
-4.218
-7.182
-10.279
-13.47
-16.719
-19.983
-23.209
-26.336
-29.299
-32.039
-34.501
-36.637
-38.418
-39.853
-40.99
-41.918
-42.724
-43.48
-44.26
-45.15
-46.234
-47.599
-49.336
-51.5
-54.215
-57.693
-62.023
-67.201
-73.078
-79.201
-85.083
-90.301
-94.203
-96.006
-95.324
-91.981
-86.193
-79.146
-72.151
-66.28
-63.206
-63.692
-66.324
-69.685
-71.979
-72.76
-75.731
-82.626
-90.106
-88.605
-62.131
0.673
101.087
230.99
374.884
521.262
664.389
797.479
912.17
993.234
1022.026
990.714
901.317
764.954
600.948
425.01
251.335
96.594
-27.205
-111.347
-153.089
-161.859
-149.246
-126.066
-102.676
-82.083
-66.379
-56.383
-48.44
-41.248
-33.404
-25.316
-21.596
-24.448
-34.069
-48.837
-64.338
-77.552
-87.386
-93.172
-95.184
-93.91
-89.704
-83.446
-76.433
-69.835
-64.381
-60.542
-58.497
-58.165
-59.443
-62.058
-65.531
-69.388
-73.281
-76.957
-80.262
-83.107
-85.404
-87.104
-88.212
-88.758
-88.772
-88.265
-87.254
-85.761
-83.823
-81.494
-78.834
-75.898
-72.752
-69.461
-66.089
-62.7
-59.341
-56.04
-52.816
-49.678
-46.625
-43.654
-40.75
-37.893
-35.063
-32.241
-29.408
-26.545
-23.634
-20.651
-17.577
-14.394
-11.084
-7.635
-4.035
-0.273
3.657
7.76
12.04
16.496
21.128
25.937
30.92
36.076
41.399
46.884
52.521
58.302
64.213
70.24
76.365
82.568
88.829
95.125
101.433
107.727
113.981
120.167
126.258
132.225
138.038
143.669
149.088
154.267
159.175
163.787
168.076
172.016
175.584
178.759
181.519
183.848
185.729
187.149
188.096
188.561
188.538
188.024
187.018
185.52
183.536
181.073
178.14
174.752
170.922
166.668
162.009
156.966
151.564
145.826
139.779
133.45
126.87
120.067
113.072
105.917
98.634
91.254
83.808
76.328
68.844
61.386
53.982
46.661
39.449
32.37
25.449
18.708
12.166
5.843
-0.244
-6.082
-11.656
-16.957
-21.975
-26.704
-31.138
-35.274
-39.111
-42.648
-45.888
-48.833
-51.49
-53.864
-55.962
-57.794
-59.371
-60.703
-61.802
-62.681
-63.354
-63.834
-64.136
-64.273
-64.26
-64.11
-63.838
-63.458
-62.982
-62.424
-61.796
-61.11
-60.378
-59.61
-58.816
-58.006
-57.187
-56.368
-55.555
-54.756
-53.975
-53.218
-52.489
-51.792
-51.13
-50.505
-49.919
-49.372
-48.866
-48.399
-47.97
-47.579
-47.223
-46.9
-46.608
-46.345
-46.109
-45.896
-45.705
-45.533
-45.378
-45.238
-45.111
-44.994
-44.886
-44.786
-44.693
-44.605
-44.522
-44.444
-44.37
-44.299
-44.233
-44.169
-44.11
-44.054
-44.003
-43.956
-43.915
-43.882
-43.856
-43.841
-43.838
-43.85
-43.877
-43.924
-43.991
-44.08
-44.194
-44.334
-44.501
-44.696
-44.921
-45.176
-45.462
-45.777
-46.122
-46.496
-46.898
-47.326
-47.778
-48.253
-48.747
-49.261
-49.79
-50.333
-50.888
-51.453
-52.026
-52.604
-53.184
-53.765
-54.344
-54.918
-55.484
-56.039
-56.58
-57.106
-57.612
-58.099
-58.562
-59.002
-59.416
-59.804
-60.166
-60.501
-60.81
-61.095
-61.356
-61.597
-61.819
-62.026
-62.22
-62.406
-62.586
-62.765
-62.945
-63.13
-63.323
-63.525
-63.74
-63.97
-64.216
-64.48
-64.763
-65.067
-65.392
-65.739
-66.107
-66.496
-66.905
-67.332
-67.775
-68.231
-68.695
-69.164
-69.631
-70.093
-70.541
-70.97
-71.371
-71.735
-72.054
-72.319
-72.52
-72.646
-72.689
-72.637
-72.483
-72.218
-71.833
-71.323
-70.679
-69.898
-68.974
-67.906
-66.69
-65.325
-63.811
-62.149
-60.343
-58.394
-56.31
-54.096
-51.761
-49.317
-46.778
-44.158
-41.473
-38.742
-35.983
-33.217
-30.465
-27.744
-25.076
-22.479
-19.974
-17.584
-15.332
-13.24
-11.327
-9.614
-8.118
-6.857
-5.843
-5.082
-4.579
-4.337
-4.365
-4.677
-5.29
-6.21
-7.442
-8.989
-10.846
-13
-15.432
-18.099
-20.958
-23.964
-27.076
-30.261
-33.487
-36.705
-39.862
-42.888
-45.712
-48.28
-50.538
-52.432
-53.942
-55.069
-55.852
-56.377
-56.712
-56.923
-57.097
-57.325
-57.709
-58.362
-59.353
-60.777
-62.822
-65.625
-69.222
-73.489
-78.04
-82.435
-86.309
-89.215
-90.561
-89.846
-86.84
-81.925
-76.121
-70.513
-66.161
-64.044
-65.16
-70.718
-79.965
-89.562
-96.069
-95.431
-87.552
-77.444
-65.222
-48.239
-18.366
39.975
132.38
257.414
407.97
566.582
720.782
858.526
964.925
1028.608
1035.982
979.925
862.963
696.079
501.165
301.814
122.473
-17.606
-112.19
-162.483
-178.72
-175.021
-158.956
-136.397
-112.167
-87.646
-67.4
-54.217
-45.188
-39.081
-34.194
-30.24
-31.052
-38.296
-51.839
-69.941
-88.969
-106.314
-120.042
-129.141
-133.72
-133.931
-130.287
-123.74
-115.068
-105.258
-95.586
-86.796
-79.301
-73.377
-68.932
-65.787
-63.808
-62.698
-62.043
-61.633
-61.395
-61.293
-61.388
-61.7
-62.184
-62.85
-63.738
-64.825
-66.059
-67.345
-68.54
-69.56
-70.38
-70.97
-71.309
-71.358
-71.036
-70.304
-69.156
-67.586
-65.598
-63.189
-60.346
-57.091
-53.481
-49.581
-45.475
-41.219
-36.834
-32.346
-27.776
-23.148
-18.503
-13.858
-9.21
-4.56
0.091
4.742
9.385
14.032
18.715
23.467
28.328
33.321
38.457
43.743
49.185
54.781
60.53
66.42
72.43
78.541
84.738
91.002
97.318
103.663
110.007
116.319
122.568
128.723
134.756
140.636
146.335
151.825
157.082
162.082
166.804
171.225
175.323
179.076
182.46
185.457
188.049
190.217
191.947
193.226
194.044
194.393
194.268
193.667
192.589
191.036
189.012
186.524
183.58
180.193
176.376
172.145
167.517
162.515
157.159
151.474
145.484
139.218
132.702
125.965
119.037
111.947
104.726
97.405
90.015
82.585
75.146
67.728
60.359
53.067
45.88
38.823
31.92
25.194
18.666
12.356
6.281
0.457
-5.103
-10.385
-15.38
-20.079
-24.477
-28.569
-32.352
-35.826
-38.993
-41.856
-44.419
-46.69
-48.676
-50.387
-51.833
-53.025
-53.978
-54.703
-55.216
-55.53
-55.662
-55.625
-55.436
-55.11
-54.662
-54.108
-53.463
-52.74
-51.955
-51.121
-50.25
-49.355
-48.448
-47.538
-46.635
-45.749
-44.887
-44.056
-43.262
-42.509
-41.802
-41.144
-40.536
-39.98
-39.476
-39.023
-38.619
-38.264
-37.955
-37.689
-37.463
-37.274
-37.119
-36.993
-36.893
-36.816
-36.757
-36.712
-36.678
-36.652
-36.629
-36.606
-36.58
-36.549
-36.511
-36.462
-36.402
-36.328
-36.24
-36.137
-36.018
-35.885
-35.737
-35.576
-35.403
-35.22
-35.03
-34.835
-34.637
-34.439
-34.244
-34.055
-33.873
-33.702
-33.544
-33.4
-33.273
-33.165
-33.078
-33.012
-32.97
-32.953
-32.961
-32.995
-33.056
-33.144
-33.26
-33.405
-33.577
-33.777
-34.006
-34.263
-34.547
-34.857
-35.194
-35.556
-35.94
-36.347
-36.773
-37.218
-37.68
-38.157
-38.649
-39.154
-39.67
-40.198
-40.736
-41.284
-41.841
-42.407
-42.983
-43.568
-44.162
-44.767
-45.382
-46.008
-46.646
-47.296
-47.958
-48.631
-49.314
-50.008
-50.711
-51.422
-52.138
-52.86
-53.585
-54.31
-55.036
-55.758
-56.475
-57.183
-57.879
-58.56
-59.221
-59.859
-60.468
-61.044
-61.582
-62.078
-62.524
-62.917
-63.25
-63.518
-63.713
-63.83
-63.862
-63.803
-63.648
-63.391
-63.027
-62.554
-61.967
-61.265
-60.444
-59.504
-58.445
-57.267
-55.97
-54.557
-53.031
-51.396
-49.657
-47.821
-45.895
-43.889
-41.813
-39.679
-37.5
-35.289
-33.062
-30.832
-28.618
-26.433
-24.294
-22.216
-20.214
-18.303
-16.501
-14.824
-13.29
-11.913
-10.709
-9.691
-8.87
-8.257
-7.856
-7.673
-7.708
-7.969
-8.466
-9.21
-10.207
-11.46
-12.97
-14.729
-16.722
-18.927
-21.305
-23.816
-26.419
-29.075
-31.754
-34.423
-37.049
-39.586
-41.977
-44.165
-46.099
-47.737
-49.042
-49.994
-50.608
-50.925
-51.037
-51.04
-51.011
-51.023
-51.158
-51.508
-52.184
-53.305
-54.937
-57.176
-60.179
-64.023
-68.708
-74.049
-79.556
-84.715
-89.108
-92.254
-93.603
-92.772
-89.557
-84.346
-78.329
-72.661
-68.144
-65.582
-65.793
-69.382
-76.568
-85.251
-90.959
-89.819
-79.211
-60.02
-35.189
-3.834
37.908
96.701
179.18
284.365
406.401
537.398
667.073
787.365
888.628
956.073
975.253
933.781
827.634
665.94
467.302
258.816
67.559
-85.974
-188.681
-242.056
-254.363
-234.707
-196.993
-149.53
-100.924
-64.158
-42.965
-38.443
-46.523
-54.773
-58.218
-56.554
-52.047
-52.062
-59.015
-70.836
-85.038
-97.451
-105.698
-109.995
-110.717
-108.489
-104.198
-98.492
-92.116
-86.15
-81.382
-78.101
-76.438
-76.319
-77.462
-79.634
-82.521
-85.627
-88.605
-91.248
-93.385
-94.99
-96.073
-96.598
-96.586
-96.09
-95.131
-93.745
-91.972
-89.821
-87.324
-84.529
-81.48
-78.241
-74.88
-71.452
-68.019
-64.621
-61.282
-58.022
-54.847
-51.756
-48.744
-45.794
-42.883
-39.992
-37.104
-34.2
-31.265
-28.276
-25.209
-22.045
-18.764
-15.351
-11.792
-8.07
-4.173
-0.09
4.183
8.645
13.291
18.123
23.143
28.356
33.765
39.365
45.153
51.122
57.267
63.579
70.043
76.634
83.322
90.079
96.877
103.704
110.553
117.386
124.153
130.788
137.214
143.393
149.322
154.975
160.314
165.336
170.012
174.351
178.44
182.245
185.6
188.304
190.161
190.961
190.721
189.755
188.112
185.859
183.606
180.944
177.62
175.188
173.681
174.847
181.137
189.094
196.236
198.768
191.478
177.764
161.259
145.067
133.545
124.517
115.682
106.949
97.466
88.641
81.509
75.235
69.447
63.8
57.952
51.986
45.768
39.059
31.925
24.668
17.564
10.752
4.25
-2.007
-8.023
-13.726
-19.093
-24.152
-28.941
-33.483
-37.764
-41.74
-45.376
-48.666
-51.617
-54.244
-56.559
-58.568
-60.277
-61.696
-62.837
-63.714
-64.343
-64.739
-64.919
-64.898
-64.696
-64.333
-63.831
-63.209
-62.481
-61.66
-60.756
-59.784
-58.756
-57.687
-56.588
-55.469
-54.342
-53.216
-52.1
-51.004
-49.933
-48.895
-47.893
-46.932
-46.017
-45.152
-44.34
-43.583
-42.882
-42.238
-41.651
-41.12
-40.644
-40.222
-39.851
-39.529
-39.253
-39.019
-38.825
-38.667
-38.543
-38.447
-38.378
-38.332
-38.306
-38.296
-38.302
-38.319
-38.345
-38.38
-38.42
-38.465
-38.512
-38.56
-38.609
-38.656
-38.7
-38.742
-38.779
-38.81
-38.836
-38.856
-38.869
-38.874
-38.872
-38.863
-38.846
-38.821
-38.788
-38.748
-38.7
-38.645
-38.583
-38.514
-38.439
-38.357
-38.269
-38.175
-38.074
-37.967
-37.853
-37.733
-37.605
-37.469
-37.326
-37.175
-37.017
-36.852
-36.679
-36.501
-36.318
-36.129
-35.938
-35.745
-35.551
-35.358
-35.168
-34.983
-34.806
-34.638
-34.483
-34.344
-34.223
-34.123
-34.047
-33.997
-33.977
-33.989
-34.036
-34.121
-34.246
-34.414
-34.627
-34.887
-35.197
-35.558
-35.97
-36.435
-36.953
-37.523
-38.145
-38.817
-39.538
-40.305
-41.117
-41.969
-42.857
-43.778
-44.727
-45.697
-46.682
-47.675
-48.668
-49.653
-50.622
-51.566
-52.476
-53.343
-54.156
-54.907
-55.586
-56.184
-56.69
-57.097
-57.394
-57.572
-57.626
-57.546
-57.327
-56.961
-56.444
-55.772
-54.942
-53.951
-52.799
-51.486
-50.012
-48.381
-46.598
-44.666
-42.592
-40.384
-38.05
-35.604
-33.062
-30.442
-27.763
-25.047
-22.314
-19.586
-16.885
-14.228
-11.634
-9.118
-6.699
-4.396
-2.23
-0.225
1.599
3.225
4.641
5.839
6.819
7.581
8.126
8.454
8.556
8.413
8.009
7.328
6.356
5.085
3.52
1.681
-0.403
-2.695
-5.172
-7.834
-10.681
-13.696
-16.844
-20.061
-23.258
-26.375
-29.334
-32.013
-34.384
-36.473
-38.374
-40.374
-42.733
-45.503
-48.723
-52.38
-56.172
-59.823
-62.961
-64.853
-65.062
-63.65
-60.775
-56.889
-52.826
-49.18
-46.636
-46.252
-48.528
-53.419
-60.695
-69.596
-79.185
-88.969
-98.363
-106.561
-113.095
-117.673
-120.336
-121.632
-121.828
-119.448
-111.985
-97.461
-74.756
-46.201
-15.402
18.14
57.997
110.935
184.232
278.408
388.63
508.664
630.974
747.335
848.615
920.304
945.596
916.706
834.022
708.147
559.01
400.7
245.455
104.713
-15.365
-104.726
-157.367
-174.663
-160.743
-127.421
-87.112
-50.834
-27.577
-18.461
-20.675
-27.231
-31.216
-31.714
-30.774
-32.609
-40.128
-52.119
-65.393
-76.77
-84.532
-88.224
-88.216
-85.307
-80.129
-73.677
-67.308
-61.783
-57.511
-54.862
-53.825
-54.318
-56.275
-59.272
-62.753
-66.39
-69.934
-73.208
-76.155
-78.651
-80.574
-81.92
-82.711
-82.969
-82.72
-81.964
-80.694
-78.953
-76.793
-74.27
-71.45
-68.382
-65.125
-61.741
-58.292
-54.844
-51.442
-48.113
-44.876
-41.736
-38.694
-35.748
-32.887
-30.09
-27.336
-24.601
-21.865
-19.111
-16.319
-13.469
-10.54
-7.51
-4.362
-1.085
2.332
5.897
9.62
13.512
17.581
21.838
26.274
30.883
35.655
40.577
45.656
50.901
56.302
61.852
67.54
73.329
79.249
85.334
91.487
97.636
103.696
109.545
115.268
120.993
126.638
132.145
137.661
143.246
149.092
155.453
162.019
168.44
174.687
180.652
186.103
190.943
194.794
197.225
198.569
199.174
199.095
198.509
197.517
196.107
194.596
193.323
192.025
190.462
188.554
186.118
183.169
179.78
175.802
171.102
165.804
160.014
153.81
147.321
140.533
133.427
126.071
118.516
110.782
102.904
94.897
86.773
78.585
70.382
62.201
54.086
46.064
38.159
30.403
22.823
15.445
8.296
1.396
-5.233
-11.575
-17.615
-23.338
-28.732
-33.79
-38.504
-42.872
-46.892
-50.561
-53.879
-56.848
-59.472
-61.758
-63.716
-65.354
-66.686
-67.725
-68.484
-68.981
-69.232
-69.254
-69.065
-68.683
-68.127
-67.415
-66.566
-65.598
-64.53
-63.378
-62.159
-60.889
-59.583
-58.255
-56.918
-55.584
-54.266
-52.974
-51.718
-50.507
-49.349
-48.252
-47.22
-46.261
-45.377
-44.572
-43.848
-43.206
-42.645
-42.167
-41.768
-41.448
-41.204
-41.031
-40.927
-40.888
-40.909
-40.986
-41.113
-41.287
-41.502
-41.755
-42.04
-42.356
-42.698
-43.062
-43.446
-43.848
-44.263
-44.69
-45.127
-45.57
-46.018
-46.469
-46.922
-47.374
-47.825
-48.275
-48.721
-49.164
-49.604
-50.039
-50.471
-50.898
-51.321
-51.741
-52.157
-52.57
-52.98
-53.388
-53.793
-54.196
-54.595
-54.992
-55.383
-55.769
-56.149
-56.519
-56.88
-57.229
-57.565
-57.887
-58.194
-58.483
-58.755
-59.008
-59.241
-59.454
-59.645
-59.815
-59.962
-60.087
-60.191
-60.273
-60.334
-60.375
-60.397
-60.403
-60.392
-60.368
-60.331
-60.284
-60.23
-60.172
-60.113
-60.057
-60.008
-59.97
-59.948
-59.946
-59.97
-60.022
-60.108
-60.232
-60.396
-60.604
-60.858
-61.163
-61.518
-61.927
-62.39
-62.907
-63.478
-64.102
-64.777
-65.502
-66.272
-67.083
-67.932
-68.814
-69.722
-70.65
-71.591
-72.539
-73.485
-74.419
-75.333
-76.217
-77.059
-77.85
-78.577
-79.23
-79.796
-80.266
-80.628
-80.872
-80.988
-80.966
-80.799
-80.478
-79.997
-79.35
-78.532
-77.54
-76.371
-75.026
-73.506
-71.813
-69.951
-67.927
-65.75
-63.431
-60.98
-58.412
-55.741
-52.985
-50.157
-47.278
-44.365
-41.442
-38.53
-35.652
-32.83
-30.089
-27.454
-24.951
-22.602
-20.425
-18.44
-16.662
-15.106
-13.79
-12.728
-11.935
-11.424
-11.204
-11.28
-11.658
-12.341
-13.321
-14.586
-16.115
-17.878
-19.853
-22.017
-24.343
-26.808
-29.376
-32
-34.644
-37.261
-39.822
-42.313
-44.697
-46.925
-48.961
-50.784
-52.418
-53.95
-55.426
-56.824
-58.189
-59.639
-61.419
-63.835
-67.039
-70.952
-75.46
-80.618
-86.411
-92.61
-98.603
-103.46
-106.488
-107.558
-106.811
-104.154
-99.515
-93.11
-85.78
-79.172
-74.837
-73.443
-74.97
-79.581
-87.535
-98.762
-112.3
-124.534
-130.245
-125.63
-108.818
-81.925
-49.062
-11
34.723
95.936
181.056
292.364
426.684
572.154
713.238
835.243
923.807
967.981
959.614
896.056
780.315
623.415
445.535
268.018
114.192
1.077
-69.271
-102.898
-115.094
-122.557
-131.417
-141.592
-147.983
-144.409
-131.316
-112.596
-92.791
-76.24
-64.327
-57.101
-54.717
-56.463
-61.493
-69.007
-77.751
-86.856
-95.71
-103.238
-108.576
-111.466
-111.88
-110.138
-106.879
-102.522
-97.58
-92.947
-89.264
-86.84
-85.836
-86.098
-87.376
-89.522
-92.23
-95.035
-97.6
-99.675
-101.128
-101.989
-102.278
-101.981
-101.143
-99.821
-98.071
-95.96
-93.524
-90.777
-87.752
-84.492
-81.055
-77.516
-73.937
-70.375
-66.873
-63.451
-60.128
-56.912
-53.801
-50.787
-47.858
-44.993
-42.174
-39.39
-36.621
-33.853
-31.066
-28.235
-25.339
-22.358
-19.273
-16.071
-12.739
-9.264
-5.64
-1.858
2.087
6.196
10.473
14.921
19.54
24.333
29.297
34.428
39.722
45.17
50.765
56.494
62.345
68.3
74.343
80.455
86.615
92.801
98.991
105.159
111.281
117.33
123.278
129.099
134.765
140.248
145.521
150.557
155.33
159.814
163.987
167.825
171.306
174.412
177.124
179.426
181.303
182.744
183.737
184.275
184.352
183.966
183.114
181.8
180.027
177.802
175.133
172.032
168.51
164.584
160.27
155.587
150.555
145.196
139.535
133.595
127.404
120.987
114.373
107.59
100.666
93.63
86.509
79.334
72.13
64.927
57.751
50.629
43.585
36.643
29.828
23.161
16.662
10.35
4.242
-1.646
-7.3
-12.706
-17.854
-22.734
-27.337
-31.657
-35.689
-39.43
-42.876
-46.029
-48.889
-51.458
-53.741
-55.743
-57.469
-58.929
-60.128
-61.077
-61.786
-62.265
-62.524
-62.577
-62.435
-62.11
-61.615
-60.963
-60.166
-59.237
-58.186
-57.028
-55.772
-54.431
-53.016
-51.536
-50.005
-48.43
-46.824
-45.195
-43.554
-41.908
-40.268
-38.641
-37.034
-35.455
-33.91
-32.406
-30.949
-29.543
-28.194
-26.906
-25.682
-24.526
-23.441
-22.429
-21.493
-20.633
-19.853
-19.152
-18.532
-17.994
-17.54
-17.17
-16.884
-16.684
-16.569
-16.539
-16.593
-16.731
-16.952
-17.252
-17.631
-18.084
-18.61
-19.205
-19.865
-20.586
-21.362
-22.189
-23.062
-23.975
-24.924
-25.901
-26.903
-27.923
-28.957
-29.998
-31.042
-32.083
-33.115
-34.133
-35.131
-36.103
-37.045
-37.95
-38.813
-39.628
-40.392
-41.098
-41.744
-42.324
-42.836
-43.276
-43.643
-43.936
-44.153
-44.296
-44.366
-44.364
-44.295
-44.162
-43.97
-43.723
-43.428
-43.088
-42.709
-42.298
-41.86
-41.401
-40.927
-40.446
-39.963
-39.486
-39.022
-38.579
-38.162
-37.78
-37.44
-37.146
-36.907
-36.728
-36.615
-36.574
-36.609
-36.725
-36.926
-37.214
-37.589
-38.051
-38.598
-39.226
-39.928
-40.698
-41.528
-42.411
-43.339
-44.304
-45.296
-46.309
-47.337
-48.372
-49.406
-50.427
-51.423
-52.381
-53.287
-54.128
-54.888
-55.552
-56.103
-56.533
-56.832
-56.994
-57.007
-56.858
-56.527
-56.006
-55.29
-54.379
-53.277
-51.989
-50.529
-48.924
-47.214
-45.441
-43.634
-41.809
-39.968
-38.119
-36.269
-34.43
-32.609
-30.801
-28.988
-27.165
-25.33
-23.482
-21.601
-19.643
-17.535
-15.218
-12.666
-9.887
-6.909
-3.765
-0.492
2.859
6.215
9.472
12.526
15.297
17.722
19.746
21.292
22.25
22.491
21.915
20.477
18.182
15.063
11.157
6.524
1.249
-4.535
-10.648
-16.925
-23.224
-29.427
-35.431
-41.117
-46.339
-50.963
-54.907
-58.152
-60.735
-62.698
-64.079
-64.956
-65.446
-65.716
-65.96
-66.324
-66.937
-67.977
-69.592
-71.846
-74.684
-77.865
-81.074
-84.007
-86.278
-87.356
-86.747
-84.21
-79.977
-74.703
-69.092
-63.961
-60.28
-59.119
-61.832
-67.967
-74.389
-78.099
-76.056
-68.335
-60.304
-53.744
-45.99
-29.903
9.936
84.676
196.888
343.708
510.363
677.983
827.932
939.699
999.689
1000.647
944.046
840.243
700.459
539.373
370.179
205.134
62.011
-46.09
-113.347
-141.362
-144.508
-139.33
-135.029
-135.114
-136.08
-131.929
-122.227
-109.752
-97.575
-88.54
-82.674
-78.395
-74.797
-71.589
-68.771
-66.21
-63.985
-62.531
-62.316
-63.828
-66.997
-70.9
-74.675
-77.973
-80.497
-82.041
-82.557
-81.92
-80.353
-78.605
-77.272
-76.614
-76.735
-77.491
-78.654
-80.092
-81.575
-82.73
-83.317
-83.219
-82.402
-80.973
-79.038
-76.66
-73.921
-70.909
-67.684
-64.303
-60.818
-57.266
-53.702
-50.191
-46.783
-43.518
-40.419
-37.494
-34.742
-32.15
-29.695
-27.349
-25.091
-22.901
-20.765
-18.666
-16.582
-14.491
-12.368
-10.187
-7.918
-5.528
-2.988
-0.281
2.603
5.672
8.923
12.356
15.962
19.721
23.615
27.629
31.749
35.977
40.317
44.765
49.314
53.954
58.683
63.52
68.488
73.604
78.887
84.354
90.03
95.971
102.218
108.791
115.7
122.915
130.393
138.098
145.98
153.976
162.002
169.937
177.643
185.01
191.93
198.294
203.99
208.868
212.796
215.683
217.459
218.095
217.582
215.913
213.096
209.183
204.249
198.409
191.806
184.55
176.742
168.489
159.901
151.117
142.265
133.437
124.706
116.128
107.746
99.609
91.754
84.183
76.881
69.812
62.92
56.179
49.573
43.084
36.699
30.392
24.144
17.956
11.844
5.822
-0.096
-5.901
-11.585
-17.121
-22.477
-27.617
-32.501
-37.104
-41.411
-45.406
-49.081
-52.431
-55.452
-58.155
-60.555
-62.667
-64.502
-66.072
-67.388
-68.466
-69.326
-69.987
-70.467
-70.784
-70.954
-70.992
-70.914
-70.731
-70.457
-70.099
-69.668
-69.17
-68.617
-68.018
-67.382
-66.718
-66.036
-65.342
-64.646
-63.953
-63.271
-62.603
-61.955
-61.328
-60.727
-60.155
-59.612
-59.1
-58.62
-58.172
-57.756
-57.372
-57.019
-56.697
-56.404
-56.14
-55.903
-55.694
-55.51
-55.35
-55.215
-55.103
-55.014
-54.946
-54.897
-54.868
-54.856
-54.861
-54.88
-54.912
-54.954
-55.006
-55.064
-55.127
-55.193
-55.259
-55.324
-55.385
-55.44
-55.487
-55.524
-55.55
-55.561
-55.557
-55.535
-55.493
-55.429
-55.342
-55.23
-55.091
-54.924
-54.728
-54.501
-54.242
-53.951
-53.627
-53.27
-52.88
-52.457
-52.002
-51.516
-51.001
-50.458
-49.89
-49.299
-48.688
-48.061
-47.421
-46.771
-46.117
-45.461
-44.809
-44.164
-43.533
-42.918
-42.325
-41.758
-41.223
-40.722
-40.262
-39.845
-39.476
-39.158
-38.895
-38.689
-38.542
-38.457
-38.435
-38.476
-38.581
-38.749
-38.978
-39.269
-39.617
-40.02
-40.474
-40.976
-41.519
-42.1
-42.711
-43.347
-44
-44.662
-45.325
-45.981
-46.621
-47.236
-47.817
-48.355
-48.84
-49.263
-49.615
-49.886
-50.068
-50.152
-50.131
-49.995
-49.738
-49.355
-48.84
-48.187
-47.395
-46.459
-45.378
-44.153
-42.782
-41.268
-39.614
-37.823
-35.901
-33.854
-31.689
-29.417
-27.048
-24.595
-22.073
-19.497
-16.883
-14.25
-11.617
-9.002
-6.426
-3.905
-1.459
0.894
3.135
5.244
7.203
8.992
10.594
11.993
13.174
14.124
14.832
15.29
15.496
15.444
15.128
14.535
13.653
12.475
10.999
9.224
7.159
4.816
2.215
-0.607
-3.613
-6.763
-10.015
-13.34
-16.704
-20.07
-23.384
-26.584
-29.604
-32.39
-34.896
-37.086
-38.944
-40.468
-41.688
-42.676
-43.503
-44.25
-44.997
-45.817
-46.8
-48.056
-49.68
-51.781
-54.506
-57.938
-62.097
-66.904
-72.064
-77.184
-81.896
-85.756
-88.275
-89.087
-87.953
-84.967
-80.834
-76.528
-72.909
-70.701
-70.594
-73.176
-78.814
-87.181
-95.677
-100.061
-96.734
-83.28
-61.047
-33.196
0.253
41.723
98.117
176.646
278.795
402.245
538.707
676.302
801.822
898.928
951.016
945.217
877.628
754.436
592.228
413.194
237.73
84.781
-33.745
-114.311
-158.615
-174.814
-170.917
-152.141
-122.977
-88.221
-56.575
-37.398
-35.771
-49.728
-69.673
-85.926
-93.712
-93.643
-90.978
-89.537
-89.564
-89.793
-88.112
-83.846
-78.032
-71.734
-65.857
-60.98
-57.339
-55.07
-54.199
-54.564
-55.894
-57.967
-60.635
-63.753
-67.174
-70.735
-74.256
-77.582
-80.582
-83.148
-85.207
-86.711
-87.64
-87.994
-87.798
-87.094
-85.943
-84.402
-82.525
-80.36
-77.954
-75.364
-72.66
-69.909
-67.183
-64.529
-61.973
-59.534
-57.216
-55.014
-52.914
-50.892
-48.913
-46.948
-44.975
-42.972
-40.92
-38.797
-36.574
-34.228
-31.733
-29.069
-26.216
-23.159
-19.882
-16.374
-12.629
-8.642
-4.413
0.059
4.776
9.736
14.937
20.376
26.044
31.934
38.035
44.333
50.813
57.456
64.239
71.139
78.132
85.189
92.283
99.381
106.453
113.467
120.39
127.187
133.825
140.27
146.489
152.447
158.113
163.455
168.444
173.051
177.25
181.015
184.326
187.163
189.509
191.348
192.669
193.463
193.723
193.445
192.628
191.274
189.387
186.976
184.051
180.626
176.717
172.344
167.527
162.29
156.659
150.661
144.324
137.68
130.76
123.595
116.22
108.669
100.975
93.172
85.295
77.377
69.451
61.55
53.702
45.939
38.289
30.778
23.431
16.272
9.324
2.606
-3.864
-10.067
-15.99
-21.621
-26.948
-31.963
-36.661
-41.037
-45.089
-48.816
-52.219
-55.303
-58.071
-60.53
-62.687
-64.552
-66.134
-67.444
-68.496
-69.301
-69.875
-70.231
-70.383
-70.347
-70.138
-69.769
-69.256
-68.614
-67.856
-66.997
-66.051
-65.03
-63.949
-62.818
-61.651
-60.459
-59.252
-58.039
-56.831
-55.635
-54.458
-53.309
-52.192
-51.115
-50.08
-49.094
-48.159
-47.279
-46.455
-45.69
-44.985
-44.341
-43.756
-43.232
-42.768
-42.362
-42.014
-41.723
-41.486
-41.304
-41.173
-41.092
-41.06
-41.073
-41.131
-41.23
-41.368
-41.543
-41.752
-41.993
-42.263
-42.561
-42.883
-43.228
-43.593
-43.974
-44.371
-44.779
-45.197
-45.622
-46.052
-46.485
-46.919
-47.352
-47.782
-48.209
-48.63
-49.045
-49.453
-49.851
-50.241
-50.619
-50.987
-51.343
-51.686
-52.017
-52.335
-52.64
-52.933
-53.213
-53.483
-53.741
-53.989
-54.228
-54.46
-54.685
-54.905
-55.122
-55.338
-55.555
-55.775
-56.001
-56.235
-56.479
-56.735
-57.006
-57.292
-57.596
-57.919
-58.261
-58.625
-59.011
-59.419
-59.85
-60.305
-60.783
-61.284
-61.808
-62.353
-62.918
-63.502
-64.103
-64.718
-65.346
-65.983
-66.625
-67.271
-67.916
-68.556
-69.186
-69.802
-70.398
-70.97
-71.511
-72.015
-72.476
-72.888
-73.243
-73.537
-73.763
-73.915
-73.988
-73.975
-73.872
-73.672
-73.372
-72.966
-72.449
-71.818
-71.068
-70.197
-69.202
-68.082
-66.834
-65.459
-63.956
-62.327
-60.572
-58.693
-56.693
-54.576
-52.347
-50.01
-47.573
-45.044
-42.431
-39.748
-37.006
-34.219
-31.402
-28.572
-25.742
-22.932
-20.157
-17.432
-14.773
-12.195
-9.713
-7.344
-5.106
-3.015
-1.087
0.662
2.215
3.56
4.683
5.578
6.239
6.663
6.84
6.756
6.398
5.758
4.829
3.608
2.097
0.306
-1.743
-4.008
-6.444
-9.005
-11.645
-14.328
-17.016
-19.666
-22.229
-24.642
-26.853
-28.817
-30.494
-31.848
-32.859
-33.542
-33.952
-34.201
-34.405
-34.662
-35.073
-35.747
-36.797
-38.344
-40.495
-43.309
-46.858
-51.301
-56.728
-63.118
-70.336
-78.012
-85.684
-92.942
-99.264
-103.906
-106.289
-106.168
-103.621
-99.265
-94.076
-88.954
-84.848
-83.304
-84.65
-86.956
-88.166
-85.634
-78.475
-70.817
-65.337
-59.349
-46.177
-12.734
53.625
155.064
288.014
443.684
607.304
766.42
905.863
1006.523
1053.407
1036.266
955.655
822.252
652.206
466.01
281.312
116.948
-9.221
-89.769
-122.001
-114.386
-86.622
-54.15
-31.501
-27.172
-36.916
-54.885
-72.858
-83.099
-85.82
-84.317
-83.375
-86.734
-93.82
-101.856
-107.604
-109.464
-107.729
-103.328
-97.388
-90.659
-83.641
-77.007
-71.399
-67.119
-64.235
-62.656
-62.2
-62.743
-64.164
-66.276
-68.868
-71.776
-74.876
-78.032
-81.118
-83.975
-86.434
-88.383
-89.76
-90.531
-90.692
-90.26
-89.259
-87.737
-85.758
-83.382
-80.668
-77.673
-74.448
-71.059
-67.575
-64.065
-60.596
-57.216
-53.951
-50.812
-47.802
-44.91
-42.121
-39.412
-36.749
-34.108
-31.464
-28.798
-26.092
-23.326
-20.475
-17.519
-14.435
-11.205
-7.814
-4.249
-0.5
3.441
7.578
11.913
16.444
21.17
26.089
31.201
36.501
41.984
47.642
53.466
59.444
65.563
71.806
78.153
84.582
91.071
97.593
104.124
110.635
117.097
123.481
129.756
135.893
141.86
147.627
153.164
158.44
163.428
168.1
172.428
176.389
179.959
183.117
185.845
188.125
189.942
191.285
192.143
192.509
192.378
191.747
190.617
188.99
186.873
184.274
181.204
177.678
173.712
169.324
164.537
159.372
153.855
148.012
141.87
135.459
128.808
121.948
114.91
107.726
100.427
93.045
85.611
78.156
70.71
63.302
55.959
48.71
41.58
34.593
27.772
21.138
14.712
8.512
2.554
-3.148
-8.581
-13.735
-18.601
-23.173
-27.445
-31.417
-35.086
-38.454
-41.523
-44.298
-46.785
-48.989
-50.92
-52.586
-53.998
-55.167
-56.106
-56.826
-57.342
-57.666
-57.812
-57.796
-57.629
-57.328
-56.905
-56.375
-55.751
-55.047
-54.275
-53.449
-52.581
-51.681
-50.762
-49.832
-48.902
-47.98
-47.072
-46.187
-45.329
-44.504
-43.716
-42.97
-42.267
-41.612
-41.004
-40.447
-39.939
-39.483
-39.078
-38.722
-38.415
-38.157
-37.944
-37.776
-37.65
-37.564
-37.517
-37.505
-37.525
-37.576
-37.654
-37.756
-37.879
-38.021
-38.177
-38.346
-38.526
-38.713
-38.906
-39.104
-39.304
-39.506
-39.709
-39.911
-40.111
-40.309
-40.504
-40.696
-40.883
-41.065
-41.242
-41.413
-41.578
-41.736
-41.889
-42.035
-42.175
-42.308
-42.434
-42.554
-42.667
-42.774
-42.876
-42.972
-43.063
-43.151
-43.236
-43.32
-43.402
-43.485
-43.568
-43.652
-43.738
-43.827
-43.919
-44.014
-44.115
-44.222
-44.336
-44.46
-44.595
-44.743
-44.906
-45.086
-45.285
-45.505
-45.748
-46.015
-46.307
-46.627
-46.977
-47.359
-47.773
-48.222
-48.708
-49.23
-49.79
-50.389
-51.026
-51.701
-52.413
-53.161
-53.945
-54.765
-55.618
-56.503
-57.417
-58.359
-59.325
-60.31
-61.311
-62.32
-63.331
-64.338
-65.333
-66.307
-67.25
-68.156
-69.016
-69.825
-70.575
-71.257
-71.865
-72.392
-72.83
-73.17
-73.403
-73.516
-73.498
-73.341
-73.037
-72.582
-71.968
-71.19
-70.244
-69.131
-67.85
-66.399
-64.771
-62.953
-60.943
-58.75
-56.388
-53.88
-51.248
-48.509
-45.69
-42.826
-39.944
-37.062
-34.185
-31.297
-28.399
-25.504
-22.636
-19.835
-17.123
-14.502
-11.972
-9.529
-7.167
-4.89
-2.675
-0.477
1.715
3.885
5.987
7.93
9.654
11.128
12.327
13.237
13.834
14.07
13.915
13.345
12.334
10.867
8.909
6.399
3.334
-0.248
-4.266
-8.594
-13.129
-17.802
-22.527
-27.219
-31.789
-36.139
-40.201
-43.927
-47.268
-50.207
-52.731
-54.84
-56.579
-58.006
-59.198
-60.288
-61.406
-62.667
-64.203
-66.099
-68.455
-71.474
-75.263
-79.788
-84.844
-89.957
-94.595
-98.369
-100.808
-101.257
-99.278
-94.761
-88.191
-80.8
-73.809
-68.239
-65.097
-65.455
-70.282
-78.555
-86.889
-91.574
-88.378
-76.936
-61.407
-41.261
-14.594
24.178
88.286
182.251
305.542
455.589
616.643
771.803
904.042
991.097
1019.993
989.075
903.37
776.664
625.156
460.451
294.486
142.645
18.559
-68.286
-116.002
-135.166
-140.984
-143.059
-145.132
-144.102
-134.132
-115.196
-91.039
-66.744
-47.733
-35.939
-31.144
-32.773
-39.35
-49.293
-61.075
-72.741
-82.679
-90.082
-94.441
-95.688
-94.17
-90.404
-85.161
-79.488
-74.392
-70.492
-68.159
-67.498
-68.384
-70.639
-73.994
-78.044
-82.312
-86.437
-90.165
-93.323
-95.866
-97.765
-98.991
-99.562
-99.528
-98.926
-97.8
-96.196
-94.136
-91.661
-88.829
-85.695
-82.331
-78.812
-75.205
-71.572
-67.96
-64.397
-60.903
-57.488
-54.154
-50.898
-47.707
-44.563
-41.451
-38.358
-35.268
-32.169
-29.039
-25.858
-22.607
-19.271
-15.834
-12.286
-8.615
-4.813
-0.874
3.208
7.435
11.808
16.328
20.998
25.817
30.785
35.9
41.158
46.553
52.078
57.726
63.484
69.339
75.276
81.279
87.33
93.409
99.496
105.569
111.604
117.579
123.468
129.247
134.889
140.369
145.66
150.737
155.573
160.145
164.427
168.395
172.029
175.305
178.205
180.711
182.806
184.476
185.708
186.49
186.816
186.679
186.074
185
183.458
181.453
178.989
176.074
172.72
168.939
164.746
160.156
155.19
149.865
144.205
138.232
131.971
125.446
118.686
111.717
104.568
97.267
89.844
82.328
74.749
67.135
59.515
51.919
44.372
36.903
29.537
22.299
15.213
8.302
1.586
-4.915
-11.184
-17.203
-22.959
-28.44
-33.634
-38.533
-43.128
-47.415
-51.388
-55.047
-58.389
-61.415
-64.128
-66.532
-68.63
-70.431
-71.942
-73.172
-74.131
-74.831
-75.283
-75.501
-75.499
-75.291
-74.891
-74.316
-73.58
-72.701
-71.693
-70.574
-69.358
-68.063
-66.703
-65.292
-63.845
-62.376
-60.897
-59.422
-57.961
-56.526
-55.127
-53.774
-52.477
-51.244
-50.082
-48.998
-47.997
-47.085
-46.266
-45.542
-44.917
-44.392
-43.967
-43.642
-43.417
-43.289
-43.257
-43.316
-43.463
-43.693
-44.001
-44.38
-44.826
-45.33
-45.888
-46.492
-47.136
-47.814
-48.519
-49.244
-49.983
-50.729
-51.477
-52.219
-52.951
-53.665
-54.357
-55.02
-55.651
-56.245
-56.796
-57.302
-57.758
-58.162
-58.51
-58.801
-59.032
-59.204
-59.315
-59.366
-59.358
-59.292
-59.171
-58.997
-58.772
-58.5
-58.184
-57.828
-57.435
-57.01
-56.557
-56.08
-55.582
-55.069
-54.545
-54.013
-53.479
-52.947
-52.42
-51.904
-51.401
-50.917
-50.456
-50.022
-49.619
-49.251
-48.922
-48.636
-48.395
-48.202
-48.06
-47.971
-47.936
-47.957
-48.034
-48.168
-48.357
-48.603
-48.904
-49.259
-49.665
-50.121
-50.625
-51.173
-51.763
-52.392
-53.055
-53.751
-54.475
-55.223
-55.99
-56.774
-57.567
-58.365
-59.162
-59.951
-60.726
-61.479
-62.203
-62.892
-63.536
-64.13
-64.665
-65.134
-65.529
-65.843
-66.07
-66.201
-66.23
-66.152
-65.961
-65.653
-65.223
-64.668
-63.986
-63.174
-62.231
-61.158
-59.953
-58.617
-57.151
-55.558
-53.84
-52.002
-50.049
-47.989
-45.831
-43.585
-41.266
-38.888
-36.465
-34.013
-31.547
-29.086
-26.647
-24.249
-21.909
-19.645
-17.474
-15.416
-13.493
-11.722
-10.12
-8.699
-7.469
-6.442
-5.628
-5.032
-4.66
-4.517
-4.607
-4.938
-5.522
-6.365
-7.471
-8.839
-10.455
-12.307
-14.373
-16.621
-19.02
-21.535
-24.129
-26.767
-29.406
-32.004
-34.519
-36.915
-39.157
-41.211
-43.018
-44.517
-45.694
-46.565
-47.207
-47.691
-48.015
-48.235
-48.531
-49.199
-50.584
-52.876
-56.005
-59.899
-64.7
-70.427
-76.826
-83.194
-88.431
-91.771
-93.082
-92.43
-89.598
-84.46
-77.323
-69.419
-62.851
-59.392
-59.829
-64.284
-72.998
-86.09
-102.886
-121.148
-137.158
-146.952
-147.063
-134.652
-106.729
-60.1
6.367
90.19
186.923
290.906
398.753
511.568
629.269
747.844
856.653
938.508
974.963
952.433
867.679
725.093
539.294
333.783
132.396
-37.206
-154.071
-214.917
-226.794
-209.439
-185.617
-165.053
-150.088
-136.63
-117.557
-93.341
-68.135
-46.257
-32.411
-27.807
-30.808
-39.518
-51.414
-64.008
-75.684
-85.142
-91.456
-94.194
-93.41
-89.537
-83.405
-76.122
-68.686
-62.008
-56.711
-53.134
-51.417
-51.463
-53.011
-55.697
-59.105
-62.776
-66.378
-69.686
-72.517
-74.81
-76.536
-77.673
-78.251
-78.316
-77.898
-77.025
-75.728
-74.026
-71.954
-69.565
-66.907
-64.049
-61.057
-57.993
-54.917
-51.871
-48.879
-45.959
-43.116
-40.344
-37.635
-34.974
-32.34
-29.713
-27.077
-24.413
-21.704
-18.927
-16.06
-13.082
-9.976
-6.725
-3.318
0.258
4.011
7.946
12.067
16.376
20.872
25.553
30.42
35.47
40.699
46.103
51.673
57.401
63.276
69.287
75.418
81.652
87.97
94.351
100.774
107.215
113.65
120.053
126.398
132.658
138.805
144.81
150.646
156.284
161.694
166.851
171.726
176.293
180.528
184.406
187.905
191.005
193.686
195.933
197.73
199.064
199.924
200.303
200.195
199.596
198.506
196.927
194.862
192.321
189.312
185.847
181.942
177.613
172.879
167.76
162.279
156.461
150.332
143.917
137.247
130.35
123.256
115.996
108.6
101.101
93.528
85.912
78.285
70.674
63.11
55.62
48.232
40.97
33.86
26.924
20.184
13.658
7.365
1.321
-4.461
-9.969
-15.193
-20.125
-24.759
-29.09
-33.117
-36.839
-40.258
-43.377
-46.2
-48.735
-50.987
-52.968
-54.686
-56.152
-57.38
-58.38
-59.167
-59.754
-60.156
-60.388
-60.463
-60.398
-60.207
-59.904
-59.506
-59.024
-58.474
-57.868
-57.218
-56.536
-55.832
-55.118
-54.401
-53.69
-52.993
-52.316
-51.664
-51.042
-50.454
-49.902
-49.39
-48.918
-48.487
-48.097
-47.749
-47.442
-47.174
-46.945
-46.752
-46.595
-46.47
-46.375
-46.308
-46.266
-46.245
-46.243
-46.256
-46.282
-46.318
-46.362
-46.41
-46.462
-46.514
-46.566
-46.616
-46.664
-46.708
-46.748
-46.784
-46.817
-46.848
-46.877
-46.905
-46.934
-46.965
-46.998
-47.034
-47.075
-47.121
-47.172
-47.229
-47.293
-47.362
-47.438
-47.521
-47.611
-47.708
-47.812
-47.922
-48.039
-48.162
-48.291
-48.425
-48.564
-48.707
-48.853
-49.001
-49.15
-49.299
-49.447
-49.591
-49.73
-49.863
-49.988
-50.103
-50.206
-50.296
-50.372
-50.435
-50.483
-50.517
-50.537
-50.545
-50.541
-50.527
-50.504
-50.473
-50.438
-50.399
-50.36
-50.322
-50.289
-50.261
-50.243
-50.235
-50.241
-50.262
-50.301
-50.358
-50.436
-50.536
-50.66
-50.809
-50.985
-51.187
-51.418
-51.678
-51.966
-52.281
-52.622
-52.988
-53.374
-53.777
-54.194
-54.62
-55.05
-55.479
-55.9
-56.306
-56.692
-57.049
-57.371
-57.648
-57.873
-58.039
-58.136
-58.157
-58.096
-57.944
-57.696
-57.345
-56.886
-56.314
-55.625
-54.814
-53.878
-52.816
-51.625
-50.307
-48.861
-47.291
-45.6
-43.796
-41.886
-39.881
-37.789
-35.625
-33.401
-31.131
-28.831
-26.515
-24.198
-21.896
-19.625
-17.404
-15.251
-13.185
-11.225
-9.389
-7.696
-6.163
-4.804
-3.631
-2.651
-1.874
-1.31
-0.978
-0.891
-1.06
-1.494
-2.199
-3.175
-4.416
-5.903
-7.603
-9.479
-11.491
-13.603
-15.788
-18.013
-20.242
-22.429
-24.52
-26.462
-28.217
-29.744
-31.007
-31.983
-32.674
-33.124
-33.425
-33.67
-33.934
-34.292
-34.818
-35.612
-36.793
-38.455
-40.665
-43.506
-47.103
-51.558
-56.892
-62.923
-69.278
-75.538
-81.282
-86.026
-89.179
-90.175
-88.748
-85.243
-80.415
-75.046
-69.974
-66.128
-64.614
-66.569
-71.324
-75.847
-77.104
-73.094
-65.062
-56.263
-45.953
-27.544
10.107
75.873
171.044
287.55
411.32
533.842
650.589
757.427
850.194
914.726
933.431
898.462
808.965
675.824
519.923
356.582
200.531
65.28
-43.373
-117.857
-155.977
-162.452
-142.123
-106.324
-67.101
-35.311
-20.842
-24.997
-42.966
-65.249
-82.393
-91.349
-93.499
-93.502
-94.856
-97.234
-99.081
-98.412
-94.524
-88.39
-81.152
-73.807
-67.08
-61.4
-57.008
-53.999
-52.283
-51.646
-51.923
-52.987
-54.703
-56.91
-59.451
-62.182
-64.972
-67.709
-70.252
-72.444
-74.173
-75.368
-76
-76.073
-75.607
-74.623
-73.167
-71.297
-69.067
-66.532
-63.747
-60.759
-57.628
-54.419
-51.196
-48.025
-44.949
-41.993
-39.168
-36.473
-33.899
-31.429
-29.041
-26.704
-24.392
-22.084
-19.761
-17.404
-14.995
-12.511
-9.93
-7.232
-4.397
-1.411
1.738
5.061
8.565
12.257
16.137
20.205
24.461
28.905
33.536
38.35
43.343
48.509
53.839
59.323
64.948
70.699
76.559
82.508
88.525
94.586
100.667
106.742
112.785
118.767
124.659
130.433
136.059
141.507
146.748
151.752
156.492
160.939
165.067
168.852
172.27
175.298
177.916
180.108
181.856
183.148
183.971
184.318
184.181
183.557
182.444
180.844
178.761
176.201
173.173
169.689
165.765
161.415
156.66
151.521
146.021
140.186
134.042
127.617
120.941
114.045
106.959
99.716
92.349
84.888
77.366
69.816
62.267
54.751
47.297
39.933
32.686
25.582
18.645
11.896
5.356
-0.955
-7.021
-12.827
-18.36
-23.609
-28.564
-33.218
-37.566
-41.605
-45.334
-48.752
-51.864
-54.673
-57.186
-59.41
-61.355
-63.031
-64.45
-65.624
-66.567
-67.294
-67.818
-68.156
-68.322
-68.333
-68.202
-67.946
-67.579
-67.114
-66.566
-65.947
-65.269
-64.544
-63.783
-62.994
-62.188
-61.373
-60.556
-59.745
-58.945
-58.162
-57.4
-56.662
-55.952
-55.271
-54.621
-54.003
-53.416
-52.86
-52.333
-51.835
-51.363
-50.916
-50.49
-50.084
-49.695
-49.32
-48.957
-48.604
-48.259
-47.922
-47.59
-47.264
-46.943
-46.628
-46.319
-46.016
-45.72
-45.433
-45.156
-44.891
-44.638
-44.399
-44.176
-43.971
-43.785
-43.619
-43.475
-43.354
-43.257
-43.185
-43.14
-43.122
-43.131
-43.169
-43.236
-43.331
-43.454
-43.606
-43.784
-43.989
-44.217
-44.469
-44.74
-45.029
-45.333
-45.648
-45.972
-46.3
-46.629
-46.956
-47.278
-47.59
-47.89
-48.176
-48.444
-48.693
-48.92
-49.125
-49.307
-49.464
-49.597
-49.707
-49.793
-49.856
-49.9
-49.924
-49.932
-49.925
-49.908
-49.881
-49.849
-49.815
-49.783
-49.756
-49.738
-49.733
-49.746
-49.781
-49.842
-49.933
-50.058
-50.219
-50.42
-50.663
-50.951
-51.283
-51.662
-52.087
-52.558
-53.073
-53.632
-54.231
-54.868
-55.538
-56.237
-56.959
-57.698
-58.447
-59.199
-59.947
-60.681
-61.395
-62.08
-62.726
-63.325
-63.868
-64.345
-64.746
-65.063
-65.285
-65.404
-65.411
-65.298
-65.058
-64.685
-64.174
-63.519
-62.717
-61.766
-60.664
-59.409
-58.003
-56.447
-54.744
-52.899
-50.917
-48.806
-46.576
-44.238
-41.807
-39.297
-36.723
-34.104
-31.457
-28.801
-26.154
-23.535
-20.961
-18.451
-16.023
-13.699
-11.499
-9.444
-7.553
-5.844
-4.334
-3.039
-1.971
-1.138
-0.544
-0.197
-0.106
-0.289
-0.761
-1.533
-2.612
-4.004
-5.7
-7.693
-9.958
-12.458
-15.151
-17.99
-20.932
-23.944
-26.988
-30.02
-32.986
-35.816
-38.441
-40.805
-42.853
-44.542
-45.859
-46.805
-47.418
-47.786
-47.989
-48.122
-48.301
-48.625
-49.218
-50.222
-51.744
-53.921
-56.935
-60.872
-65.742
-71.432
-77.571
-83.715
-89.48
-94.359
-97.79
-99.404
-98.986
-96.738
-93.52
-90.351
-88.057
-87.331
-88.821
-92.964
-99.804
-108.544
-116.171
-118.17
-110.792
-91.613
-61.695
-24.168
20.389
74.033
143.012
233.69
347.227
479.596
619.522
754.021
869.412
952
992.959
983.952
924.145
819.578
676.665
510.134
334.87
165.674
23.675
-79.067
-139.693
-161.079
-159.083
-147.18
-129.893
-112.789
-94.613
-74.342
-57.847
-44.849
-35.751
-31.845
-30.162
-32.124
-38.923
-49.031
-61.916
-75.112
-86.138
-94.378
-99.3
-100.962
-99.911
-96.666
-92.021
-86.926
-82.299
-78.726
-76.523
-75.848
-76.629
-78.678
-81.731
-85.403
-89.224
-92.866
-96.106
-98.762
-100.789
-102.163
-102.854
-102.898
-102.356
-101.268
-99.678
-97.636
-95.162
-92.301
-89.111
-85.646
-81.98
-78.185
-74.329
-70.478
-66.685
-62.979
-59.384
-55.913
-52.568
-49.347
-46.239
-43.226
-40.293
-37.425
-34.607
-31.822
-29.049
-26.265
-23.448
-20.578
-17.634
-14.602
-11.464
-8.206
-4.817
-1.286
2.395
6.231
10.228
14.392
18.728
23.24
27.928
32.792
37.829
43.035
48.403
53.924
59.586
65.373
71.27
77.258
83.318
89.427
95.562
101.699
107.811
113.872
119.854
125.728
131.464
137.033
142.405
147.551
152.44
157.045
161.339
165.295
168.888
172.097
174.9
177.277
179.212
180.69
181.699
182.227
182.27
181.821
180.879
179.447
177.527
175.127
172.258
168.93
165.158
160.96
156.355
151.362
146.006
140.31
134.3
128.006
121.455
114.677
107.704
100.567
93.299
85.93
78.494
71.021
63.544
56.092
48.696
41.384
34.183
27.122
20.224
13.512
7.009
0.733
-5.296
-11.065
-16.558
-21.764
-26.674
-31.279
-35.574
-39.554
-43.217
-46.562
-49.591
-52.307
-54.713
-56.815
-58.622
-60.142
-61.385
-62.362
-63.086
-63.569
-63.826
-63.87
-63.716
-63.38
-62.877
-62.223
-61.433
-60.524
-59.51
-58.408
-57.23
-55.992
-54.707
-53.387
-52.045
-50.692
-49.338
-47.995
-46.67
-45.373
-44.111
-42.892
-41.722
-40.607
-39.552
-38.56
-37.635
-36.78
-35.997
-35.287
-34.65
-34.086
-33.596
-33.178
-32.83
-32.55
-32.335
-32.183
-32.091
-32.054
-32.071
-32.135
-32.245
-32.397
-32.586
-32.81
-33.066
-33.35
-33.659
-33.991
-34.343
-34.711
-35.094
-35.489
-35.894
-36.306
-36.723
-37.144
-37.566
-37.988
-38.409
-38.827
-39.243
-39.655
-40.062
-40.465
-40.863
-41.257
-41.647
-42.033
-42.416
-42.797
-43.176
-43.554
-43.933
-44.311
-44.69
-45.07
-45.45
-45.83
-46.209
-46.588
-46.964
-47.339
-47.71
-48.077
-48.44
-48.799
-49.153
-49.501
-49.844
-50.182
-50.512
-50.836
-51.151
-51.458
-51.756
-52.044
-52.322
-52.588
-52.844
-53.089
-53.322
-53.543
-53.752
-53.948
-54.132
-54.304
-54.465
-54.614
-54.755
-54.888
-55.014
-55.137
-55.257
-55.376
-55.496
-55.616
-55.738
-55.861
-55.984
-56.106
-56.226
-56.343
-56.456
-56.564
-56.666
-56.764
-56.856
-56.943
-57.023
-57.094
-57.151
-57.188
-57.198
-57.175
-57.11
-56.998
-56.832
-56.607
-56.317
-55.961
-55.535
-55.032
-54.443
-53.754
-52.955
-52.041
-51.014
-49.876
-48.642
-47.33
-45.962
-44.563
-43.15
-41.732
-40.31
-38.871
-37.402
-35.891
-34.335
-32.746
-31.134
-29.509
-27.872
-26.219
-24.532
-22.777
-20.916
-18.897
-16.694
-14.3
-11.737
-9.057
-6.328
-3.632
-1.037
1.412
3.679
5.735
7.547
9.074
10.254
11.011
11.257
10.892
9.839
8.058
5.552
2.374
-1.377
-5.569
-10.081
-14.81
-19.67
-24.591
-29.497
-34.303
-38.905
-43.19
-47.04
-50.325
-52.937
-54.816
-55.948
-56.391
-56.272
-55.738
-54.943
-54.044
-53.188
-52.529
-52.221
-52.374
-53.13
-54.699
-57.225
-60.771
-65.229
-70.187
-75.178
-79.808
-83.563
-85.813
-86.086
-84.128
-80.272
-75.684
-71.604
-68.925
-68.52
-71.249
-77.695
-87.929
-99.832
-108.94
-110.813
-102.27
-83.696
-57.245
-22.953
21.787
83.956
169.844
281.176
415.311
562.29
709.921
843.269
945.284
1003.415
1006.762
953.932
852.537
711.486
547.14
375.076
209.785
69.919
-34.061
-98.908
-127.026
-129.241
-114.9
-89.743
-60.715
-35.177
-20.21
-21.48
-37.546
-59.346
-78.292
-89.465
-92.916
-94.044
-96.489
-100.187
-103.82
-104.986
-102.769
-98.205
-92.421
-86.419
-80.955
-76.476
-73.246
-71.394
-70.844
-71.345
-72.71
-74.81
-77.498
-80.603
-83.959
-87.412
-90.824
-94.091
-97.077
-99.619
-101.606
-102.969
-103.679
-103.743
-103.186
-102.033
-100.333
-98.155
-95.559
-92.608
-89.362
-85.876
-82.212
-78.443
-74.637
-70.865
-67.176
-63.6
-60.154
-56.84
-53.654
-50.584
-47.611
-44.705
-41.843
-39.007
-36.177
-33.337
-30.469
-27.551
-24.56
-21.476
-18.281
-14.958
-11.495
-7.878
-4.099
-0.151
3.971
8.267
12.74
17.392
22.225
27.238
32.429
37.794
43.327
49.02
54.862
60.841
66.94
73.14
79.422
85.764
92.142
98.53
104.902
111.23
117.486
123.639
129.66
135.519
141.185
146.629
151.821
156.733
161.338
165.609
169.52
173.05
176.177
178.88
181.142
182.947
184.283
185.139
185.506
185.378
184.753
183.631
182.014
179.907
177.32
174.264
170.752
166.801
162.43
157.66
152.514
147.017
141.196
135.079
128.696
122.075
115.249
108.248
101.105
93.85
86.514
79.13
71.726
64.334
56.98
49.694
42.503
35.43
28.501
21.737
15.16
8.789
2.639
-3.272
-8.933
-14.331
-19.459
-24.308
-28.874
-33.154
-37.147
-40.854
-44.277
-47.421
-50.292
-52.897
-55.244
-57.343
-59.205
-60.841
-62.262
-63.481
-64.511
-65.363
-66.052
-66.59
-66.99
-67.265
-67.426
-67.487
-67.458
-67.351
-67.176
-66.944
-66.664
-66.344
-65.992
-65.616
-65.222
-64.815
-64.399
-63.98
-63.559
-63.138
-62.72
-62.304
-61.892
-61.482
-61.074
-60.666
-60.257
-59.845
-59.429
-59.005
-58.574
-58.132
-57.679
-57.213
-56.734
-56.239
-55.729
-55.204
-54.663
-54.107
-53.537
-52.952
-52.355
-51.747
-51.13
-50.506
-49.876
-49.244
-48.613
-47.985
-47.365
-46.754
-46.158
-45.579
-45.021
-44.489
-43.986
-43.516
-43.082
-42.688
-42.337
-42.032
-41.775
-41.568
-41.413
-41.311
-41.262
-41.268
-41.328
-41.441
-41.606
-41.822
-42.088
-42.4
-42.758
-43.157
-43.596
-44.071
-44.58
-45.118
-45.683
-46.27
-46.876
-47.498
-48.131
-48.773
-49.42
-50.067
-50.714
-51.355
-51.988
-52.612
-53.222
-53.818
-54.398
-54.96
-55.502
-56.025
-56.529
-57.012
-57.476
-57.92
-58.347
-58.758
-59.153
-59.535
-59.904
-60.264
-60.615
-60.959
-61.298
-61.633
-61.965
-62.297
-62.628
-62.959
-63.291
-63.624
-63.957
-64.289
-64.619
-64.945
-65.264
-65.573
-65.87
-66.149
-66.407
-66.641
-66.844
-67.012
-67.14
-67.221
-67.249
-67.218
-67.121
-66.952
-66.702
-66.365
-65.936
-65.408
-64.774
-64.031
-63.172
-62.195
-61.094
-59.869
-58.516
-57.034
-55.424
-53.688
-51.827
-49.846
-47.75
-45.547
-43.246
-40.858
-38.396
-35.872
-33.302
-30.7
-28.082
-25.465
-22.865
-20.299
-17.782
-15.334
-12.973
-10.719
-8.592
-6.611
-4.795
-3.161
-1.727
-0.507
0.49
1.256
1.785
2.064
2.079
1.816
1.266
0.424
-0.712
-2.139
-3.846
-5.812
-7.999
-10.368
-12.882
-15.503
-18.209
-20.966
-23.741
-26.487
-29.145
-31.664
-34.001
-36.113
-37.963
-39.524
-40.801
-41.833
-42.712
-43.522
-44.329
-45.192
-46.175
-47.368
-48.88
-50.807
-53.211
-56.165
-59.798
-64.211
-69.404
-75.196
-81.201
-86.965
-92.078
-96.117
-98.508
-98.737
-96.62
-92.508
-87.214
-81.636
-76.629
-72.958
-71.67
-74.069
-79.456
-84.788
-87.127
-82.94
-72.604
-61.335
-49.158
-33.396
-6.328
47.096
132.669
249.318
390.571
539.789
684.329
812.5
911.191
970.882
979.353
930.122
823.879
668.848
486.437
299.075
130.569
1.003
-85.971
-134.049
-155.147
-166.011
-173.196
-177.493
-176.107
-163.254
-139.356
-109.005
-77.429
-50.155
-29.907
-17.488
-12.784
-14.519
-21.409
-32.026
-44.55
-57.719
-70.223
-80.349
-87.308
-90.976
-91.447
-89.383
-85.571
-80.512
-74.997
-70.145
-66.547
-64.453
-63.925
-64.649
-66.337
-68.811
-71.702
-74.517
-76.93
-78.748
-79.9
-80.473
-80.51
-80.012
-79.024
-77.612
-75.84
-73.767
-71.428
-68.835
-66.017
-63.028
-59.932
-56.799
-53.692
-50.65
-47.696
-44.844
-42.102
-39.469
-36.941
-34.505
-32.142
-29.833
-27.563
-25.316
-23.075
-20.82
-18.523
-16.159
-13.702
-11.132
-8.43
-5.582
-2.573
0.609
3.974
7.529
11.279
15.231
19.388
23.755
28.335
33.128
38.131
43.339
48.746
54.344
60.121
66.061
72.149
78.364
84.687
91.093
97.558
104.054
110.554
117.027
123.443
129.769
135.974
142.022
147.883
153.523
158.908
164.009
168.794
173.234
177.301
180.969
184.214
187.014
189.349
191.201
192.555
193.398
193.72
193.515
192.779
191.511
189.712
187.389
184.55
181.207
177.374
173.069
168.31
163.122
157.528
151.555
145.233
138.592
131.665
124.485
117.086
109.503
101.772
93.93
86.01
78.05
70.084
62.146
54.269
46.486
38.827
31.322
23.999
16.883
9.998
3.367
-2.992
-9.06
-14.823
-20.268
-25.385
-30.165
-34.604
-38.697
-42.444
-45.847
-48.909
-51.635
-54.033
-56.111
-57.882
-59.356
-60.547
-61.471
-62.142
-62.576
-62.792
-62.806
-62.636
-62.301
-61.818
-61.205
-60.48
-59.661
-58.763
-57.803
-56.796
-55.757
-54.699
-53.635
-52.576
-51.534
-50.518
-49.536
-48.596
-47.705
-46.866
-46.086
-45.365
-44.708
-44.115
-43.586
-43.121
-42.72
-42.381
-42.101
-41.878
-41.709
-41.59
-41.517
-41.487
-41.494
-41.535
-41.605
-41.699
-41.815
-41.946
-42.09
-42.243
-42.401
-42.56
-42.719
-42.873
-43.021
-43.159
-43.287
-43.402
-43.502
-43.588
-43.658
-43.712
-43.749
-43.77
-43.773
-43.76
-43.731
-43.685
-43.624
-43.549
-43.46
-43.358
-43.245
-43.122
-42.99
-42.85
-42.704
-42.553
-42.399
-42.242
-42.083
-41.925
-41.769
-41.617
-41.469
-41.328
-41.195
-41.072
-40.961
-40.863
-40.78
-40.712
-40.664
-40.635
-40.628
-40.646
-40.689
-40.761
-40.863
-40.997
-41.164
-41.367
-41.608
-41.886
-42.204
-42.563
-42.963
-43.405
-43.891
-44.419
-44.989
-45.603
-46.257
-46.951
-47.684
-48.453
-49.256
-50.091
-50.953
-51.84
-52.749
-53.674
-54.612
-55.558
-56.505
-57.449
-58.382
-59.298
-60.19
-61.051
-61.873
-62.65
-63.374
-64.037
-64.632
-65.152
-65.588
-65.935
-66.184
-66.328
-66.362
-66.279
-66.075
-65.745
-65.285
-64.692
-63.965
-63.101
-62.101
-60.965
-59.693
-58.288
-56.753
-55.092
-53.311
-51.417
-49.418
-47.325
-45.15
-42.907
-40.609
-38.273
-35.914
-33.548
-31.194
-28.864
-26.576
-24.343
-22.183
-20.113
-18.153
-16.319
-14.627
-13.094
-11.733
-10.557
-9.576
-8.794
-8.213
-7.836
-7.672
-7.736
-8.044
-8.604
-9.421
-10.5
-11.832
-13.41
-15.212
-17.201
-19.338
-21.587
-23.915
-26.299
-28.714
-31.121
-33.475
-35.712
-37.77
-39.6
-41.155
-42.392
-43.307
-43.91
-44.247
-44.401
-44.431
-44.406
-44.409
-44.517
-44.82
-45.409
-46.358
-47.807
-49.977
-53.001
-56.876
-61.444
-66.327
-71.128
-75.479
-78.842
-80.549
-80.128
-77.545
-73.295
-68.29
-63.643
-60.458
-59.828
-63.039
-70.007
-78.751
-86.976
-92.697
-96.658
-101.211
-104.957
-101.393
-78.308
-24.407
61.83
173.184
294.857
413.886
526.888
634.046
736.218
828.071
895.658
923.642
900.337
823.311
697.973
537.194
359.956
185.204
34.417
-75.904
-142.29
-169.066
-170.611
-163.873
-155.953
-148.458
-138.626
-121.699
-99.091
-75.619
-55.433
-42.34
-37.674
-40.317
-48.63
-60.612
-73.772
-85.697
-95.052
-101.149
-103.47
-102.211
-97.892
-91.156
-83.284
-75.745
-69.328
-64.468
-61.478
-60.283
-60.758
-62.762
-65.824
-69.375
-73.064
-76.617
-79.838
-82.651
-84.96
-86.674
-87.8
-88.373
-88.414
-87.955
-87.015
-85.609
-83.779
-81.579
-79.063
-76.293
-73.334
-70.25
-67.109
-63.977
-60.899
-57.907
-55.021
-52.251
-49.597
-47.051
-44.598
-42.216
-39.882
-37.577
-35.282
-32.975
-30.633
-28.234
-25.755
-23.176
-20.478
-17.645
-14.662
-11.515
-8.195
-4.692
-1
2.885
6.966
11.249
15.735
20.426
25.321
30.417
35.711
41.197
46.866
52.707
58.707
64.851
71.12
77.495
83.956
90.48
97.042
103.616
110.176
116.693
123.139
129.484
135.698
141.75
147.61
153.248
158.633
163.736
168.529
172.983
177.073
180.774
184.064
186.92
189.325
191.261
192.714
193.672
194.127
194.07
193.497
192.409
190.806
188.693
186.077
182.968
179.379
175.325
170.822
165.891
160.553
154.831
148.752
142.341
135.629
128.645
121.419
113.986
106.376
98.626
90.767
82.834
74.86
66.88
58.926
51.029
43.22
35.53
27.986
20.616
13.443
6.493
-0.215
-6.66
-12.826
-18.697
-24.261
-29.508
-34.428
-39.016
-43.266
-47.178
-50.75
-53.984
-56.883
-59.454
-61.702
-63.637
-65.27
-66.611
-67.675
-68.475
-69.028
-69.349
-69.455
-69.364
-69.093
-68.661
-68.086
-67.386
-66.579
-65.682
-64.713
-63.688
-62.621
-61.529
-60.424
-59.318
-58.224
-57.152
-56.111
-55.11
-54.157
-53.258
-52.419
-51.644
-50.937
-50.301
-49.737
-49.247
-48.829
-48.483
-48.208
-48
-47.858
-47.777
-47.754
-47.783
-47.861
-47.981
-48.138
-48.326
-48.541
-48.775
-49.023
-49.281
-49.544
-49.806
-50.065
-50.315
-50.554
-50.778
-50.985
-51.172
-51.338
-51.479
-51.595
-51.685
-51.747
-51.782
-51.788
-51.765
-51.715
-51.636
-51.53
-51.397
-51.237
-51.053
-50.844
-50.613
-50.36
-50.088
-49.799
-49.495
-49.177
-48.848
-48.51
-48.165
-47.814
-47.46
-47.104
-46.749
-46.395
-46.046
-45.702
-45.366
-45.039
-44.724
-44.423
-44.138
-43.87
-43.622
-43.396
-43.194
-43.02
-42.875
-42.763
-42.686
-42.646
-42.646
-42.69
-42.779
-42.914
-43.099
-43.335
-43.622
-43.963
-44.358
-44.808
-45.311
-45.869
-46.48
-47.143
-47.856
-48.618
-49.424
-50.272
-51.157
-52.077
-53.025
-53.996
-54.984
-55.984
-56.987
-57.986
-58.973
-59.938
-60.873
-61.767
-62.612
-63.397
-64.112
-64.746
-65.29
-65.732
-66.065
-66.278
-66.362
-66.308
-66.109
-65.758
-65.249
-64.576
-63.735
-62.724
-61.54
-60.185
-58.659
-56.963
-55.102
-53.08
-50.904
-48.58
-46.118
-43.528
-40.823
-38.019
-35.133
-32.183
-29.191
-26.176
-23.163
-20.172
-17.228
-14.35
-11.558
-8.874
-6.317
-3.912
-1.68
0.358
2.183
3.778
5.127
6.215
7.032
7.576
7.846
7.839
7.546
6.951
6.037
4.799
3.234
1.345
-0.862
-3.375
-6.169
-9.199
-12.417
-15.774
-19.228
-22.752
-26.309
-29.846
-33.292
-36.561
-39.573
-42.273
-44.614
-46.549
-48.048
-49.113
-49.778
-50.119
-50.22
-50.158
-50.013
-49.878
-49.865
-50.091
-50.71
-51.927
-53.901
-56.679
-60.144
-63.971
-67.705
-70.938
-73.212
-73.917
-72.56
-68.989
-63.622
-57.557
-52.275
-49.01
-48.564
-51.937
-60.013
-72.655
-88.542
-104.128
-113.776
-113.646
-101.551
-76.635
-40.316
9.115
74.249
156.98
260.234
381.408
515.948
657.16
790.725
902.835
978.185
1000.951
967.651
880.125
745.875
584.595
413.514
251.842
121.887
31.022
-20.332
-40.298
-48.767
-56.417
-66.249
-76.715
-79.331
-71.9
-58.62
-44.54
-35.093
-31.96
-33.848
-39.437
-47.575
-57.508
-67.994
-77.042
-83.504
-87.23
-88.52
-88.053
-86.223
-82.989
-78.901
-75.051
-72.099
-70.361
-69.878
-70.331
-71.578
-73.731
-76.6
-79.748
-82.839
-85.55
-87.672
-89.191
-90.023
-90.06
-89.314
-87.822
-85.631
-82.827
-79.476
-75.625
-71.365
-66.799
-62.041
-57.236
-52.529
-48.051
-43.914
-40.19
-36.913
-34.07
-31.603
-29.458
-27.587
-25.94
-24.475
-23.142
-21.886
-20.654
-19.39
-18.014
-16.434
-14.567
-12.345
-9.733
-6.725
-3.341
0.373
4.375
8.631
13.113
17.807
22.702
27.79
33.069
38.536
44.175
49.958
55.856
61.84
67.895
74.017
80.208
86.481
92.843
99.298
105.843
112.463
119.139
125.844
132.545
139.203
145.785
152.258
158.593
164.762
170.734
176.476
181.955
187.136
191.985
196.468
200.554
204.217
207.431
210.177
212.438
214.203
215.462
216.207
216.432
216.134
215.311
213.965
212.099
209.721
206.84
203.467
199.621
195.318
190.581
185.433
179.9
174.009
167.791
161.274
154.492
147.478
140.264
132.884
125.374
117.767
110.097
102.399
94.705
87.049
79.46
71.97
64.608
57.399
50.369
43.542
36.938
30.577
24.477
18.654
13.12
7.888
2.968
-1.633
-5.911
-9.862
-13.485
-16.781
-19.753
-22.407
-24.749
-26.786
-28.529
-29.988
-31.175
-32.103
-32.787
-33.241
-33.481
-33.523
-33.384
-33.082
-32.633
-32.054
-31.364
-30.577
-29.712
-28.783
-27.806
-26.796
-25.767
-24.731
-23.703
-22.693
-21.712
-20.771
-19.878
-19.042
-18.27
-17.569
-16.944
-16.4
-15.94
-15.568
-15.286
-15.095
-14.996
-14.99
-15.073
-15.246
-15.506
-15.85
-16.273
-16.772
-17.342
-17.979
-18.676
-19.429
-20.231
-21.077
-21.96
-22.876
-23.817
-24.778
-25.753
-26.736
-27.722
-28.704
-29.678
-30.638
-31.579
-32.497
-33.385
-34.241
-35.059
-35.834
-36.564
-37.243
-37.87
-38.441
-38.954
-39.406
-39.798
-40.126
-40.393
-40.596
-40.737
-40.816
-40.835
-40.794
-40.697
-40.545
-40.341
-40.088
-39.79
-39.449
-39.07
-38.656
-38.212
-37.741
-37.249
-36.741
-36.22
-35.692
-35.164
-34.639
-34.125
-33.627
-33.151
-32.703
-32.289
-31.914
-31.584
-31.303
-31.076
-30.909
-30.804
-30.766
-30.798
-30.903
-31.085
-31.343
-31.682
-32.101
-32.601
-33.182
-33.844
-34.586
-35.405
-36.301
-37.271
-38.311
-39.418
-40.589
-41.818
-43.102
-44.433
-45.805
-47.212
-48.647
-50.1
-51.565
-53.031
-54.491
-55.933
-57.35
-58.731
-60.068
-61.35
-62.568
-63.712
-64.772
-65.74
-66.607
-67.363
-68.001
-68.514
-68.894
-69.136
-69.234
-69.184
-68.981
-68.624
-68.109
-67.435
-66.601
-65.608
-64.457
-63.15
-61.693
-60.09
-58.348
-56.475
-54.483
-52.384
-50.194
-47.927
-45.597
-43.223
-40.824
-38.422
-36.036
-33.684
-31.381
-29.148
-27.003
-24.968
-23.061
-21.297
-19.687
-18.246
-16.987
-15.928
-15.081
-14.449
-14.032
-13.828
-13.845
-14.104
-14.62
-15.401
-16.448
-17.758
-19.325
-21.151
-23.222
-25.501
-27.945
-30.499
-33.112
-35.757
-38.413
-41.061
-43.67
-46.173
-48.485
-50.537
-52.275
-53.682
-54.777
-55.562
-56.015
-56.203
-56.311
-56.655
-57.577
-59.249
-61.607
-64.514
-68.038
-72.313
-77.25
-82.355
-86.809
-89.948
-91.685
-92.354
-91.988
-90.289
-87.134
-83.03
-79.405
-77.847
-79.109
-83.215
-90.205
-100.461
-114.575
-131.269
-146.426
-155.913
-156.204
-147.675
-134.914
-118.518
-95.206
-56.999
7.692
102.51
222.97
359.042
496.649
626.425
742.746
838.97
907.938
937.926
916.879
840.625
710.721
539.678
350.096
164.797
9.106
-98.594
-156.084
-170.309
-159.107
-142.761
-130.329
-124.416
-121.678
-115.914
-107.429
-99.17
-93.843
-94.455
-100.679
-110.036
-120.528
-129.934
-136.413
-139.461
-139.106
-135.698
-130.146
-123.417
-116.285
-109.6
-104.141
-100.248
-98.032
-97.443
-98.217
-100.131
-103
-106.582
-110.642
-114.997
-119.468
-123.899
-128.147
-132.04
-135.439
-138.257
-140.434
-141.955
-142.822
-143.049
-142.679
-141.767
-140.373
-138.556
-136.374
-133.88
-131.144
-128.24
-125.248
-122.247
-119.29
-116.414
-113.644
-110.988
-108.443
-106.001
-103.639
-101.331
-99.054
-96.79
-94.525
-92.245
-89.937
-87.582
-85.166
-82.672
-80.088
-77.405
-74.614
-71.708
-68.682
-65.531
-62.253
-58.851
-55.324
-51.675
-47.905
-44.017
-40.016
-35.911
-31.709
-27.42
-23.054
-18.619
-14.124
-9.583
-5.014
-0.443
4.108
8.621
13.081
17.472
21.784
26.013
30.161
34.246
38.286
42.299
46.295
50.271
54.223
58.138
62.01
65.838
69.605
73.275
76.808
80.161
83.283
86.121
88.597
90.607
92.045
92.819
92.85
92.086
90.495
88.077
84.84
80.798
76.009
70.562
64.59
