Name
Date of Birth,"Mar 27, 1959"
Recorded Date,2022-07-29 11:11:28 -0500
Classification,Sinus Rhythm
Symptoms,
Software Version,1.90
Device,"Watch4,2"
Sample Rate,510.227 hertz


Lead,Lead I
Unit,µV

285.007
325.188
365.213
403.871
439.927
471.649
496.565
514.122
525.797
532.525
534.858
533.528
528.916
521.956
514.475
506.86
498.023
487.322
474.314
458.806
441.296
421.999
400.542
377.214
352.891
328.212
303.87
280.26
257.264
234.916
213.41
192.781
173.033
154.208
136.241
119.156
103.066
87.922
73.67
60.228
47.418
35.078
23.022
11.095
-0.774
-12.597
-24.379
-36.12
-47.832
-59.564
-71.343
-83.215
-95.264
-107.527
-120.041
-132.81
-145.779
-158.862
-171.939
-184.917
-197.742
-210.404
-222.907
-235.265
-247.495
-259.616
-271.659
-283.642
-295.552
-307.384
-319.132
-330.812
-342.474
-354.18
-366.016
-378.057
-390.36
-402.976
-415.939
-429.282
-443.039
-457.221
-471.813
-486.799
-502.162
-517.87
-533.887
-550.148
-566.549
-582.984
-599.344
-615.521
-631.432
-646.99
-662.092
-676.628
-690.477
-703.541
-715.776
-727.169
-737.723
-747.476
-756.492
-764.886
-772.844
-780.55
-788.151
-795.753
-803.398
-811.12
-818.973
-827.009
-835.284
-843.799
-852.452
-861.065
-869.416
-877.216
-884.101
-889.616
-893.196
-894.258
-892.307
-886.94
-877.843
-864.726
-847.293
-825.248
-798.318
-766.333
-729.249
-687.13
-640.148
-588.58
-532.847
-473.523
-411.325
-347.025
-281.332
-214.866
-148.202
-81.929
-16.663
46.954
108.256
166.664
221.668
272.805
319.742
362.257
400.265
433.848
463.208
488.604
510.277
528.428
543.251
554.989
563.922
570.367
574.717
577.338
578.607
578.934
578.635
577.95
577.047
575.978
574.735
573.288
571.601
569.646
567.415
564.877
561.996
558.736
555.016
550.764
545.894
540.282
533.865
526.62
518.553
509.737
500.288
490.341
480.047
469.564
459.03
448.569
438.291
428.28
418.607
409.313
400.442
392.044
384.131
376.741
369.908
363.627
357.899
352.639
347.63
342.702
337.801
332.959
328.345
324.146
320.413
317.357
315.668
315.914
317.994
321.504
325.676
329.38
333.819
340.002
345.68
351.013
352.928
348.512
344.354
342.809
350.667
378.138
422.756
485.136
556.935
619.004
661.554
673.409
654.915
619.97
575.163
524.878
465.779
389.869
302.67
221.234
166.463
151.74
172.322
207.594
235.573
245.834
240.16
228.418
218.348
210.526
202.475
191.736
178.815
165.758
153.818
143.451
134.412
126.788
120.868
116.343
112.319
108.035
103.193
97.91
92.488
86.952
81.17
75.15
69.102
63.3
57.95
53.138
48.836
45.036
41.779
39.088
36.959
35.357
34.222
33.513
33.233
33.395
34
35.024
36.411
38.106
40.068
42.257
44.638
47.177
49.838
52.601
55.464
58.427
61.487
64.638
67.864
71.146
74.47
77.826
81.208
84.606
88.014
91.423
94.831
98.239
101.647
105.048
108.436
111.8
115.135
118.435
121.695
124.907
128.064
131.16
134.19
137.148
140.029
142.824
145.522
148.114
150.589
152.937
155.146
157.204
159.098
160.818
162.352
163.69
164.82
165.733
166.417
166.864
167.063
167.007
166.686
166.091
165.216
164.054
162.601
160.852
158.805
156.458
153.813
150.871
147.636
144.112
140.304
136.22
131.868
127.26
122.407
117.323
112.024
106.526
100.848
95.01
89.032
82.935
76.741
70.473
64.153
57.806
51.454
45.122
38.834
32.614
26.487
20.475
14.6
8.886
3.352
-1.983
-7.1
-11.981
-16.613
-20.979
-25.069
-28.869
-32.372
-35.569
-38.454
-41.023
-43.273
-45.204
-46.818
-48.117
-49.107
-49.794
-50.185
-50.289
-50.118
-49.683
-48.997
-48.073
-46.927
-45.575
-44.032
-42.317
-40.446
-38.438
-36.309
-34.077
-31.759
-29.371
-26.93
-24.45
-21.947
-19.433
-16.923
-14.428
-11.958
-9.524
-7.134
-4.794
-2.512
-0.291
1.866
3.957
5.981
7.94
9.835
11.668
13.445
15.169
16.848
18.487
20.095
21.679
23.249
24.814
26.384
27.969
29.58
31.225
32.914
34.656
36.462
38.339
40.294
42.336
44.47
46.703
49.04
51.485
54.04
56.709
59.493
62.392
65.406
68.533
71.769
75.111
78.552
82.088
85.711
89.414
93.188
97.024
100.911
104.84
108.799
112.777
116.76
120.736
124.692
128.617
132.497
136.321
140.074
143.744
147.319
150.786
154.134
157.348
160.415
163.323
166.057
168.605
170.949
173.077
174.973
176.626
178.022
179.15
180.001
180.564
180.835
180.807
180.471
179.819
178.842
177.529
175.872
173.866
171.504
168.779
165.679
162.199
158.339
154.093
149.456
144.414
138.941
133.024
126.67
119.891
112.708
105.151
97.248
89.049
80.628
72.048
63.37
54.642
45.885
37.143
28.476
19.957
11.679
3.697
-3.985
-11.371
-18.48
-25.36
-32.065
-38.709
-45.482
-52.527
-59.946
-67.818
-76.167
-85.066
-94.628
-104.958
-116.149
-128.225
-141.114
-154.716
-168.907
-183.492
-198.246
-212.86
-226.922
-240.076
-252.014
-262.403
-270.921
-277.162
-280.684
-281.053
-277.842
-270.88
-260.293
-246.427
-229.879
-211.302
-191.159
-169.868
-147.966
-125.311
-101.079
-74.245
-43.414
-7.506
33.63
79.498
129.371
181.109
231.092
275.582
310.39
331.552
336.658
324.389
293.856
246.442
186.084
116.982
44.213
-26.662
-91.794
-148.012
-191.965
-222.596
-241.354
-249.991
-251.501
-249.666
-246.547
-243.976
-244.398
-248.74
-256.71
-267.902
-280.762
-293.255
-304.657
-314.464
-321.931
-327.074
-330.033
-330.937
-330.602
-330.019
-329.687
-329.942
-330.994
-332.764
-335.272
-338.56
-342.454
-346.745
-351.218
-355.661
-359.948
-363.987
-367.698
-371.012
-373.857
-376.167
-377.889
-379
-379.5
-379.404
-378.719
-377.453
-375.625
-373.261
-370.428
-367.2
-363.651
-359.861
-355.892
-351.787
-347.594
-343.351
-339.083
-334.808
-330.527
-326.23
-321.916
-317.592
-313.263
-308.935
-304.604
-300.26
-295.898
-291.51
-287.089
-282.632
-278.133
-273.59
-269.006
-264.386
-259.738
-255.074
-250.401
-245.725
-241.053
-236.388
-231.737
-227.106
-222.501
-217.925
-213.385
-208.889
-204.445
-200.063
-195.752
-191.519
-187.376
-183.33
-179.391
-175.569
-171.87
-168.304
-164.879
-161.601
-158.478
-155.516
-152.719
-150.094
-147.642
-145.366
-143.267
-141.344
-139.595
-138.017
-136.607
-135.361
-134.272
-133.336
-132.546
-131.895
-131.376
-130.981
-130.703
-130.531
-130.457
-130.471
-130.565
-130.728
-130.951
-131.226
-131.542
-131.892
-132.267
-132.659
-133.06
-133.463
-133.861
-134.247
-134.616
-134.964
-135.284
-135.575
-135.833
-136.055
-136.241
-136.388
-136.497
-136.565
-136.593
-136.58
-136.525
-136.429
-136.29
-136.109
-135.886
-135.62
-135.313
-134.964
-134.573
-134.137
-133.657
-133.129
-132.553
-131.926
-131.245
-130.508
-129.712
-128.857
-127.94
-126.959
-125.912
-124.798
-123.613
-122.357
-121.028
-119.626
-118.148
-116.597
-114.973
-113.282
-111.526
-109.711
-107.844
-105.933
-103.99
-102.025
-100.045
-98.061
-96.082
-94.121
-92.192
-90.307
-88.48
-86.725
-85.064
-83.521
-82.121
-80.886
-79.837
-78.991
-78.37
-77.995
-77.885
-78.055
-78.517
-79.282
-80.373
-81.821
-83.657
-85.897
-88.536
-91.554
-94.939
-98.68
-102.765
-107.168
-111.85
-116.787
-121.979
-127.456
-133.253
-139.377
-145.805
-152.487
-159.372
-166.437
-173.693
-181.154
-188.814
-196.661
-204.697
-212.962
-221.513
-230.354
-239.41
-248.528
-257.557
-266.396
-274.984
-283.293
-291.28
-298.868
-305.965
-312.488
-318.387
-323.604
-328.052
-331.581
-334.027
-335.311
-335.468
-334.633
-332.933
-330.441
-327.198
-323.234
-318.606
-313.394
-307.665
-301.451
-294.768
-287.66
-280.215
-272.58
-264.914
-257.307
-249.771
-242.253
-234.713
-227.153
-219.586
-212.018
-204.442
-196.857
-189.293
-181.821
-174.515
-167.41
-160.522
-153.835
-147.315
-140.952
-134.734
-128.656
-122.716
-116.911
-111.239
-105.702
-100.286
-94.957
-89.683
-84.435
-79.196
-73.97
-68.749
-63.533
-58.375
-53.391
-48.75
-44.63
-41.168
-38.427
-36.451
-35.355
-35.303
-36.48
-39.018
-42.906
-48.027
-54.333
-61.892
-70.653
-80.334
-90.231
-99.236
-106.565
-111.945
-115.307
-116.551
-115.463
-111.883
-106.519
-101.295
-97.784
-96.423
-96.611
-96.956
-96.389
-94.219
-88.402
-74.751
-49.062
-8.718
44.821
106.452
172.443
241.071
314.918
397.722
485.528
568.136
627.927
644.631
608.539
520.687
394.048
250.778
112.964
1.054
-72.348
-104.382
-102.002
-83.526
-65.685
-58.348
-63.709
-73.246
-80.049
-83.808
-86.509
-92.403
-103.193
-116.075
-127.788
-136.564
-141.795
-143.528
-142.085
-137.537
-130.233
-121.427
-112.497
-104.235
-97.046
-91.035
-86.143
-82.502
-80.259
-79.331
-79.522
-80.617
-82.426
-84.834
-87.763
-91.081
-94.567
-97.962
-101.057
-103.713
-105.882
-107.578
-108.784
-109.451
-109.528
-108.991
-107.879
-106.273
-104.251
-101.903
-99.327
-96.641
-94.037
-91.693
-89.695
-88.053
-86.677
-85.422
-84.198
-82.949
-81.629
-80.199
-78.578
-76.682
-74.453
-71.808
-68.652
-64.86
-60.234
-54.621
-47.977
-40.325
-31.796
-22.589
-12.838
-2.652
7.857
18.612
29.517
40.477
51.445
62.358
73.125
83.63
93.692
103.156
111.958
120.076
127.566
134.542
141.069
147.2
153.001
158.505
163.741
168.733
173.465
177.913
182.087
186.014
189.755
193.374
196.894
200.316
203.616
206.746
209.678
212.391
214.851
217.044
218.967
220.626
222.048
223.276
224.333
225.238
226.001
226.627
227.128
227.525
227.834
228.079
228.28
228.457
228.633
228.831
229.064
229.343
229.672
230.049
230.476
230.952
231.477
232.051
232.673
233.341
234.052
234.806
235.598
236.421
237.266
238.123
238.98
239.824
240.644
241.424
242.152
242.813
243.393
243.879
244.259
244.519
244.648
244.635
244.469
244.141
243.643
242.967
242.108
241.061
239.824
238.395
236.773
234.96
232.959
230.773
228.407
225.868
223.162
220.297
217.285
214.135
210.86
207.473
203.99
200.426
196.797
193.12
189.411
185.689
181.969
178.269
174.605
170.993
167.449
163.987
160.622
157.366
154.23
151.227
148.364
145.652
143.097
140.706
138.482
136.429
134.55
132.845
131.314
129.953
128.758
127.724
126.845
126.112
125.515
125.043
124.686
124.428
124.258
124.16
124.121
124.125
124.157
124.202
124.247
124.279
124.284
124.251
124.169
124.028
123.818
123.531
123.161
122.699
122.141
121.481
120.717
119.848
118.871
117.788
116.601
115.314
113.931
112.459
110.905
109.274
107.576
105.82
104.018
102.183
100.325
98.458
96.594
94.747
92.929
91.151
89.418
87.736
86.111
84.548
83.05
81.62
80.258
78.967
77.75
76.612
75.554
74.573
73.665
72.823
72.042
71.313
70.622
69.951
69.283
68.602
67.9
67.164
66.372
65.502
64.523
63.412
62.16
60.754
59.18
57.433
55.515
53.453
51.303
49.117
46.938
44.814
42.779
40.885
39.2
37.766
36.605
35.717
35.073
34.647
34.429
34.359
34.331
34.216
33.824
32.992
31.589
29.45
26.407
22.29
16.927
10.24
2.26
-6.957
-17.308
-28.672
-40.972
-53.973
-67.294
-80.544
-93.212
-104.811
-114.958
-123.088
-128.518
-130.826
-129.787
-125.518
-118.6
-109.465
-98.316
-85.575
-71.561
-56.076
-38.498
-17.441
8.965
41.87
81.662
128.487
181.729
239.256
297.484
351.315
395.168
424.824
437.482
430.857
403.664
357.149
295.163
223.88
150.356
79.987
16.471
-36.632
-76.114
-100.952
-112.45
-114.254
-111.165
-106.335
-101.352
-97.914
-97.893
-102.308
-111.17
-122.952
-135.161
-146.48
-156.626
-165.411
-172.621
-178.007
-181.433
-183.435
-185.098
-187.105
-189.742
-193.056
-196.899
-201.242
-206.102
-211.339
-216.635
-221.637
-226.065
-229.756
-232.686
-234.856
-236.251
-236.843
-236.602
-235.529
-233.624
-230.91
-227.411
-223.127
-218.08
-212.317
-205.912
-198.987
-191.66
-184.018
-176.12
-168.018
-159.751
-151.369
-142.914
-134.411
-125.885
-117.365
-108.885
-100.49
-92.221
-84.108
-76.174
-68.435
-60.904
-53.599
-46.537
-39.73
-33.192
-26.936
-20.973
-15.322
-9.995
-4.999
-0.339
3.986
7.978
11.641
14.983
18.012
20.74
23.176
25.331
27.216
28.84
30.218
31.362
32.285
33.001
33.525
33.872
34.057
34.097
34.006
33.8
33.492
33.097
32.627
32.094
31.51
30.885
30.227
29.548
28.854
28.155
27.456
26.765
26.085
25.421
24.776
24.153
23.552
22.975
22.423
21.898
21.401
20.933
20.495
20.089
19.716
19.377
19.073
18.803
18.569
18.37
18.206
18.079
17.989
17.936
17.922
17.948
18.015
18.125
18.279
18.478
18.724
19.017
19.359
19.751
20.193
20.686
21.232
21.83
22.482
23.187
23.945
24.754
25.612
26.518
27.468
28.46
29.491
30.556
31.652
32.775
33.923
35.089
36.271
37.463
38.661
39.859
41.053
42.235
43.402
44.547
45.665
46.75
47.796
48.799
49.754
50.655
51.499
52.281
52.997
53.643
54.216
54.714
55.135
55.478
55.742
55.927
56.035
56.065
56.021
55.902
55.711
55.449
55.119
54.722
54.26
53.736
53.151
52.509
51.813
51.064
50.266
49.423
48.536
47.61
46.647
45.651
44.622
43.566
42.484
41.38
40.256
39.114
37.957
36.786
35.603
34.409
33.204
31.988
30.76
29.52
28.266
26.998
25.716
24.418
23.105
21.777
20.435
19.082
17.718
16.344
14.963
13.577
12.187
10.797
9.408
8.022
6.643
5.273
3.917
2.578
1.257
-0.041
-1.314
-2.559
-3.771
-4.949
-6.09
-7.192
-8.251
-9.262
-10.22
-11.122
-11.964
-12.744
-13.456
-14.098
-14.668
-15.168
-15.603
-15.98
-16.304
-16.578
-16.809
-17.005
-17.173
-17.316
-17.436
-17.534
-17.612
-17.679
-17.743
-17.815
-17.907
-18.028
-18.191
-18.407
-18.687
-19.041
-19.47
-19.98
-20.583
-21.291
-22.135
-23.142
-24.325
-25.698
-27.266
-29.009
-30.902
-32.9
-34.936
-36.956
-38.905
-40.721
-42.367
-43.793
-44.953
-45.827
-46.377
-46.566
-46.384
-45.825
-44.91
-43.744
-42.47
-41.233
-40.234
-39.611
-39.486
-40.07
-41.569
-44.194
-48.102
-53.304
-59.725
-67.385
-76.403
-86.736
-98.023
-109.451
-120.084
-129.36
-137.135
-143.408
-147.671
-149.28
-148.297
-145.698
-143.041
-141.415
-140.38
-138.433
-134.865
-129.49
-121.261
-108.078
-86.423
-52.785
-6.615
50.259
116.316
190.15
269.377
350.337
426.637
490.535
537.388
565.037
571.534
555.697
517.182
457.214
380.729
295.268
206.827
120.463
41.34
-26.445
-79.007
-113.735
-131.257
-134.556
-126.567
-110.656
-90.662
-69.528
-50.316
-35.461
-25.546
-20.051
-18.14
-18.376
-19.013
-19.031
-17.518
-13.841
-8.154
-0.849
7.573
16.273
24.331
31.245
36.727
40.672
43.294
44.777
45.295
45.175
44.772
44.365
44.193
44.384
44.961
45.991
47.551
49.683
52.436
55.809
59.758
64.255
69.265
74.734
80.609
86.812
93.245
99.819
106.445
113.056
119.618
126.097
132.455
138.667
144.707
150.563
156.257
161.803
167.203
172.464
177.584
182.545
187.335
191.917
196.216
200.154
203.64
206.577
208.902
210.543
211.441
211.564
210.859
209.289
206.814
203.348
198.868
193.455
187.259
180.542
173.589
166.568
159.741
153.485
147.97
143.263
139.123
134.867
130.218
125.388
120.575
116.083
112.351
109.582
108.582
110.874
116.737
125.314
135.174
144.016
149.727
150.866
145.155
129.574
102.758
64.735
16.78
-38.269
-98.136
-161.313
-225.451
-287.64
-345.936
-399.143
-447.205
-491.34
-531.962
-568.8
-601.926
-631.519
-657.706
-680.578
-699.679
-714.04
-723.218
-727.294
-726.58
-721.659
-713.013
-701.059
-686.394
-669.803
-652.106
-633.954
-615.787
-597.856
-580.349
-563.479
-547.449
-532.394
-518.313
-505.118
-492.662
-480.777
-469.34
-458.185
-447.095
-435.811
-424.016
-411.479
-398.075
-383.734
-368.426
-352.131
-334.828
-316.544
-297.382
-277.449
-256.86
-235.72
-214.112
-192.148
-169.967
-147.717
-125.561
-103.622
-81.986
-60.723
-39.895
-19.554
0.253
19.502
38.194
56.32
73.86
90.795
107.098
122.753
137.757
152.103
165.788
178.803
191.14
202.791
213.752
224.017
233.579
242.431
250.564
257.978
264.676
270.666
275.958
280.563
284.494
287.767
290.399
292.408
293.813
294.632
294.883
294.586
293.763
292.435
290.623
288.351
285.64
282.515
278.997
275.11
270.875
266.313
261.446
256.295
250.88
245.219
239.329
233.23
226.936
220.463
213.826
207.039
200.113
193.06
185.89
178.612
171.235
163.765
156.21
148.577
140.872
133.102
125.274
117.397
109.476
101.521
93.538
85.533
77.513
69.484
61.452
53.425
45.41
37.415
29.449
21.521
13.64
5.817
-1.938
-9.616
-17.21
-24.712
-32.118
-39.424
-46.622
-53.707
-60.673
-67.511
-74.213
-80.768
-87.162
-93.384
-99.424
-105.275
-110.937
-116.412
-121.698
-126.794
-131.695
-136.395
-140.893
-145.186
-149.262
-153.11
-156.727
-160.116
-163.307
-166.323
-169.172
-171.853
-174.353
-176.649
-178.732
-180.575
-182.131
-183.357
-184.201
-184.613
-184.594
-184.148
-183.27
-181.944
-180.11
-177.725
-174.794
-171.354
-167.461
-163.168
-158.511
-153.542
-148.354
-143.066
-137.848
-132.854
-128.202
-123.988
-120.197
-116.885
-114.228
-112.186
-110.579
-109.027
-106.735
-103.012
-97.672
-90.494
-81.358
-70.698
-58.706
-46
-34.434
-25.641
-20.471
-19.291
-21.138
-23.903
-26.32
-26.766
-21.476
-6.403
21.727
65.308
122.336
187.039
257.809
333.839
413.922
500.287
584.298
651.57
692.583
693.735
652.737
577.374
471.482
348.509
224.389
113.724
35.482
-1.959
-3.753
15.924
39.057
54.48
61.183
65.298
72.024
81.488
90.349
93.594
89.364
79.222
65.49
50.888
36.886
24
12.839
3.687
-3.541
-9.211
-14.022
-18.858
-24.196
-30.199
-36.946
-44.276
-52.027
-60.022
-67.922
-75.383
-82.172
-88.168
-93.362
-97.82
-101.585
-104.67
-107.106
-108.889
-110.014
-110.488
-110.302
-109.465
-108.009
-105.987
-103.485
-100.589
-97.373
-93.893
-90.183
-86.268
-82.168
-77.894
-73.45
-68.851
-64.114
-59.259
-54.313
-49.294
-44.216
-39.087
-33.91
-28.683
-23.404
-18.067
-12.67
-7.209
-1.686
3.897
9.535
15.225
20.964
26.749
32.58
38.455
44.371
50.328
56.322
62.351
68.409
74.486
80.573
86.659
92.732
98.778
104.782
110.727
116.596
122.372
128.035
133.565
138.942
144.141
149.141
153.916
158.444
162.697
166.651
170.28
173.559
176.464
178.973
181.065
182.721
183.926
184.665
184.926
184.702
183.985
182.772
181.062
178.86
176.172
173.007
169.381
165.308
160.811
155.912
150.638
145.016
139.078
132.856
126.385
119.702
112.845
105.852
98.766
91.626
84.475
77.356
70.312
63.384
56.613
50.038
43.696
37.623
31.852
26.411
21.328
16.625
12.323
8.439
4.987
1.977
-0.586
-2.7
-4.367
-5.595
-6.394
-6.779
-6.771
-6.389
-5.657
-4.603
-3.254
-1.64
0.207
2.254
4.466
6.809
9.244
11.732
14.235
16.715
19.134
21.457
23.649
25.678
27.516
29.138
30.522
31.648
32.497
33.052
33.299
33.224
32.817
32.071
30.98
29.548
27.781
25.694
23.309
20.648
17.737
14.604
11.274
7.773
4.125
0.35
-3.535
-7.507
-11.536
-15.586
-19.612
-23.573
-27.437
-31.178
-34.78
-38.246
-41.599
-44.867
-48.084
-51.273
-54.441
-57.577
-60.648
-63.618
-66.44
-69.081
-71.543
-73.83
-75.95
-77.914
-79.711
-81.285
-82.557
-83.429
-83.781
-83.519
-82.566
-80.879
-78.48
-75.452
-71.945
-68.107
-64.043
-59.847
-55.603
-51.399
-47.364
-43.667
-40.485
-38.009
-36.474
-36.099
-37.109
-39.708
-43.987
-49.909
-57.313
-66.009
-75.833
-86.618
-98.189
-110.332
-122.775
-135.248
-147.526
-159.38
-170.538
-180.717
-189.589
-196.83
-202.237
-205.744
-207.404
-207.32
-205.585
-202.325
-197.705
-191.96
-185.377
-178.2
-170.593
-162.701
-154.698
-146.787
-139.224
-132.267
-126.086
-120.773
-116.359
-112.84
-110.215
-108.442
-107.432
-107.038
-107.078
-107.419
-107.99
-108.741
-109.612
-110.517
-111.331
-111.919
-112.191
-112.069
-111.489
-110.399
-108.746
-106.519
-103.733
-100.427
-96.672
-92.52
-88.012
-83.201
-78.141
-72.895
-67.567
-62.288
-57.188
-52.424
-48.144
-44.472
-41.514
-39.321
-37.904
-37.256
-37.328
-38.042
-39.301
-40.958
-42.82
-44.705
-46.392
-47.557
-47.83
-46.781
-43.851
-38.502
-30.496
-19.734
-6.28
9.472
27.165
46.544
66.963
87.676
108.803
130.812
154.415
181.575
214.052
252.262
297.24
348.143
400.054
450.913
499.586
545.341
593.023
638.215
667.11
666.389
620.702
531.46
417.874
298.762
193.789
110.708
43.964
-8.079
-47.172
-74.424
-87.583
-89.547
-85.713
-79.221
-73.444
-71.46
-74.396
-82.585
-95.456
-110.38
-124.347
-136.017
-144.71
-149.767
-151.108
-148.667
-142.649
-134.488
-125.727
-116.77
-108.019
-99.927
-92.358
-85.979
-79.973
-70.915
-59.206
-47.72
-41.218
-49.069
-70.965
-97.363
-118.736
-121.549
-104.419
-79.842
-57.556
-48.003
-53.182
-63.606
-73.359
-78.53
-77.916
-75.429
-72.918
-70.276
-67.651
-64.51
-60.766
-57.024
-53.549
-50.313
-47.353
-44.714
-42.386
-40.345
-38.54
-36.852
-35.201
-33.589
-32.001
-30.407
-28.791
-27.125
-25.377
-23.529
-21.558
-19.436
-17.142
-14.661
-11.978
-9.085
-5.979
-2.658
0.87
4.601
8.531
12.655
16.967
21.457
26.116
30.931
35.887
40.969
46.156
51.425
56.752
62.108
67.468
72.802
78.081
83.275
88.355
93.292
98.058
102.624
106.962
111.049
114.86
118.374
121.571
124.434
126.947
129.1
130.882
132.285
133.307
133.944
134.196
134.066
133.558
132.68
131.442
129.854
127.932
125.689
123.145
120.321
117.238
113.922
110.394
106.676
102.794
98.781
94.672
90.499
86.292
82.069
77.857
73.696
69.611
65.6
61.636
57.694
53.779
49.944
46.234
42.635
39.169
35.949
33.147
30.926
29.349
28.318
27.726
27.651
27.991
28.21
27.879
26.898
25.362
23.877
21.292
14.295
1.679
-14.507
-26.148
-21.335
4.522
45.317
84.038
100.939
88.02
52.415
13.047
-11.651
-14.48
0.099
19.984
35.635
44.161
47.113
48.527
50.446
52.633
54.702
56.271
57.509
58.923
60.639
62.587
64.779
67.214
69.852
72.615
75.379
78.054
80.627
83.125
85.55
87.882
90.104
92.204
94.174
96.011
97.698
99.211
100.531
101.64
102.524
103.167
103.555
103.673
103.508
103.048
102.281
101.199
99.793
98.057
95.985
93.573
90.821
87.73
84.303
80.545
76.464
72.071
67.378
62.401
57.156
51.663
45.941
40.014
33.907
27.644
21.254
14.765
8.206
1.607
-4.999
-11.581
-18.109
-24.551
-30.877
-37.058
-43.063
-48.866
-54.441
-59.764
-64.812
-69.564
-74
-78.102
-81.858
-85.256
-88.287
-90.945
-93.228
-95.137
-96.679
-97.865
-98.706
-99.216
-99.413
-99.317
-98.95
-98.333
-97.487
-96.435
-95.202
-93.815
-92.305
-90.7
-89.035
-87.347
-85.673
-84.049
-82.507
-81.072
-79.765
-78.616
-77.652
-76.899
-76.391
-76.152
-76.201
-76.562
-77.249
-78.263
-79.588
-81.176
-82.966
-84.918
-86.991
-89.153
-91.376
-93.599
-95.778
-97.891
-99.908
-101.813
-103.598
-105.22
-106.668
-107.99
-109.254
-110.591
-112.15
-114.017
-116.254
-118.892
-121.992
-125.685
-130.089
-135.269
-141.221
-147.823
-155.025
-162.95
-171.504
-180.325
-188.724
-195.577
-200.119
-202.245
-201.912
-199.011
-193.582
-185.803
-176.872
-169.27
-164.62
-163.069
-163.865
-165.499
-166.601
-165.931
-160.591
-145.783
-117.772
-74.971
-17.961
50.658
128.105
211.273
294.823
371.044
432.692
474.369
492.93
487.642
458.611
407.102
337.032
255.092
168.347
83.236
5.399
-61.185
-113.304
-148.851
-168.138
-173.812
-169.046
-157.345
-142.548
-127.438
-114.536
-105.863
-101.802
-101.624
-104.374
-108.535
-112.31
-114.755
-115.043
-112.605
-107.735
-100.884
-92.605
-83.86
-75.599
-68.345
-62.485
-58.188
-55.348
-53.934
-53.842
-54.821
-56.629
-59.033
-61.856
-64.996
-68.333
-71.744
-75.115
-78.315
-81.253
-83.895
-86.198
-88.141
-89.728
-90.945
-91.811
-92.37
-92.643
-92.672
-92.496
-92.15
-91.692
-91.163
-90.582
-89.963
-89.307
-88.599
-87.823
-86.952
-85.944
-84.765
-83.384
-81.767
-79.891
-77.729
-75.251
-72.428
-69.232
-65.641
-61.638
-57.211
-52.354
-47.063
-41.341
-35.197
-28.647
-21.707
-14.391
-6.719
1.292
9.619
18.234
27.11
36.217
45.525
54.995
64.59
74.268
83.988
93.708
103.385
112.976
122.439
131.73
140.807
149.631
158.161
166.36
174.19
181.616
188.607
195.131
201.164
206.683
211.666
216.099
219.967
223.262
225.978
228.111
229.662
230.635
231.036
230.876
230.167
228.926
227.171
224.926
222.214
219.063
215.502
211.561
207.272
202.668
197.782
192.649
187.303
181.778
176.108
170.326
164.465
158.555
152.626
146.708
140.824
135.001
129.258
123.617
118.095
112.706
107.463
102.378
97.458
92.709
88.135
83.737
79.514
75.462
71.576
67.847
64.268
60.826
57.508
54.302
51.191
48.161
45.193
42.271
39.378
36.494
33.604
30.689
27.733
24.721
21.637
18.469
15.205
11.834
8.347
4.736
0.997
-2.878
-6.889
-11.038
-15.326
-19.75
-24.306
-28.988
-33.79
-38.703
-43.717
-48.819
-53.998
-59.238
-64.525
-69.843
-75.175
-80.502
-85.807
-91.072
-96.276
-101.402
-106.432
-111.348
-116.134
-120.773
-125.251
-129.555
-133.674
-137.596
-141.313
-144.816
-148.1
-151.159
-153.991
-156.593
-158.966
-161.11
-163.03
-164.729
-166.214
-167.491
-168.57
-169.46
-170.171
-170.716
-171.108
-171.361
-171.489
-171.508
-171.433
-171.281
-171.067
-170.807
-170.514
-170.203
-169.886
-169.578
-169.288
-169.027
-168.804
-168.627
-168.502
-168.437
-168.435
-168.499
-168.63
-168.831
-169.099
-169.435
-169.834
-170.294
-170.809
-171.375
-171.988
-172.642
-173.332
-174.05
-174.789
-175.541
-176.301
-177.062
-177.815
-178.556
-179.279
-179.984
-180.669
-181.335
-181.984
-182.617
-183.239
-183.853
-184.464
-185.073
-185.681
-186.295
-186.919
-187.562
-188.23
-188.932
-189.679
-190.492
-191.385
-192.373
-193.466
-194.661
-195.965
-197.391
-198.951
-200.662
-202.531
-204.555
-206.738
-209.09
-211.607
-214.272
-217.045
-219.844
-222.61
-225.297
-227.862
-230.281
-232.506
-234.462
-236.101
-237.399
-238.339
-238.929
-239.158
-238.987
-238.437
-237.576
-236.519
-235.451
-234.507
-233.785
-233.348
-233.191
-233.382
-234.057
-235.313
-237.237
-239.82
-242.868
-246.386
-250.653
-255.596
-260.884
-265.784
-268.941
-269.574
-267.79
-263.324
-255.428
-244.102
-229.797
-213.837
-199.528
-187.485
-174.336
-159.913
-145.919
-135.401
-136.144
-144.845
-146.597
-128.616
-76.638
10.428
117.2
230.075
334.646
422.11
493.088
546.394
580.911
594.613
582.76
544.671
483.035
402.894
312.904
220.706
132.289
54.049
-9.079
-54.506
-81.114
-90.163
-85.46
-70.689
-49.595
-27.019
-6.851
8.495
17.358
19.647
16.666
9.587
-0.002
-9.762
-18.19
-24.494
-28.112
-29.263
-28.49
-26.197
-23.177
-20.445
-18.527
-17.69
-18.017
-19.285
-21.347
-24.121
-27.347
-30.731
-34.027
-37.011
-39.61
-41.842
-43.682
-45.086
-45.988
-46.325
-46.108
-45.371
-44.129
-42.396
-40.172
-37.468
-34.352
-30.897
-27.177
-23.277
-19.246
-15.117
-10.93
-6.712
-2.486
1.73
5.939
10.161
14.402
18.665
22.953
27.265
31.614
36.018
40.493
45.056
49.726
54.518
59.449
64.534
69.785
75.209
80.811
86.587
92.535
98.653
104.936
111.381
117.985
124.741
131.644
138.691
145.874
153.19
160.629
168.179
175.821
183.531
191.282
199.045
206.79
214.481
222.083
229.554
236.861
243.977
250.875
257.521
263.875
269.881
275.495
280.686
285.424
289.687
293.459
296.724
299.497
301.826
303.754
305.331
306.574
307.463
307.987
308.134
307.889
307.246
306.165
304.556
302.359
299.533
296.034
291.836
286.846
280.9
273.856
265.595
256.048
245.22
233.118
219.749
205.191
189.564
173.081
156.061
138.772
121.435
104.265
87.432
71.188
55.879
41.803
29.208
18.309
9.248
2.173
-2.757
-5.518
-6.198
-5.022
-2.362
1.449
6.123
11.391
17.038
22.805
28.369
33.462
37.878
41.398
43.839
44.985
44.584
42.519
38.798
33.557
27.063
19.583
11.373
2.659
-6.384
-15.59
-24.8
-33.902
-42.836
-51.517
-59.864
-67.749
-75.001
-81.516
-87.258
-92.273
-96.692
-100.672
-104.404
-108.051
-111.732
-115.528
-119.479
-123.575
-127.782
-132.069
-136.384
-140.727
-145.148
-149.696
-154.445
-159.443
-164.679
-170.104
-175.623
-181.139
-186.608
-192.005
-197.333
-202.644
-207.994
-213.455
-219.159
-225.18
-231.514
-238.11
-244.82
-251.469
-257.942
-264.16
-270.076
-275.667
-280.865
-285.598
-289.813
-293.413
-296.297
-298.334
-299.316
-299.087
-297.6
-294.866
-291.013
-286.231
-280.646
-274.357
-267.466
-260.031
-252.136
-243.862
-235.244
-226.337
-217.224
-208.011
-198.875
-189.966
-181.343
-173.021
-164.938
-156.976
-149.065
-141.15
-133.162
-125.069
-116.843
-108.461
-99.946
-91.324
-82.598
-73.751
-64.738
-55.509
-46.063
-36.421
-26.628
-16.757
-6.862
3.015
12.818
22.507
32.052
41.427
50.633
59.674
68.543
77.221
85.685
93.908
101.874
109.579
117.013
124.169
131.034
137.588
143.819
149.719
155.277
160.485
165.35
169.888
174.137
178.157
181.991
185.674
189.245
192.734
196.194
199.682
203.23
206.872
210.638
214.544
218.606
222.829
227.13
231.368
235.388
238.992
242.06
244.556
246.354
247.307
247.236
245.926
243.325
239.529
234.533
228.233
220.656
211.968
202.822
194.373
187.394
182.201
178.933
177.639
178.401
181.224
185.152
188.116
188.674
186.532
182.346
177.59
173.666
172.016
175.476
188.454
214.497
255.195
310.129
377.048
453.317
535.738
618.846
694.526
755.33
796.176
813.876
809.237
783.449
735.702
669.956
589.602
497.766
406.06
322.014
254.02
212.583
192.457
186.71
187.593
183.605
175.587
166.281
155.176
143.344
128.363
108.474
85.877
63.192
42.304
24.149
8.751
-3.96
-13.964
-21.357
-26.862
-31.686
-36.481
-41.489
-46.793
-52.282
-58.063
-64.329
-71.038
-78.029
-85.192
-92.395
-99.551
-106.59
-113.295
-119.485
-125.059
-129.929
-134.089
-137.544
-140.272
-142.278
-143.569
-144.134
-143.972
-143.082
-141.458
-139.134
-136.168
-132.634
-128.652
-124.314
-119.689
-114.841
-109.806
-104.612
-99.284
-93.83
-88.246
-82.541
-76.725
-70.816
-64.834
-58.795
-52.7
-46.552
-40.344
-34.07
-27.73
-21.32
-14.841
-8.296
-1.692
4.96
11.643
18.343
25.048
31.749
38.436
45.103
51.74
58.339
64.892
71.392
77.829
84.193
90.47
96.65
102.72
108.668
114.481
120.148
125.656
130.994
136.15
141.113
145.873
150.419
154.742
158.833
162.685
166.291
169.645
172.746
175.59
178.181
180.519
182.61
184.46
186.075
187.464
188.634
189.595
190.357
190.93
191.324
191.551
191.622
191.552
191.352
191.034
190.613
190.1
189.507
188.848
188.132
187.372
186.577
185.758
184.924
184.084
183.246
182.416
181.599
180.799
180.018
179.255
178.508
177.774
177.048
176.322
175.59
174.841
174.067
173.258
172.401
171.488
170.505
169.442
168.288
167.032
165.662
164.171
162.547
160.784
158.875
156.813
154.592
152.21
149.662
146.946
144.061
141.007
137.785
134.397
130.847
127.141
123.288
119.295
115.176
110.943
106.612
102.197
97.719
93.194
88.644
84.089
79.549
75.048
70.606
66.245
61.988
57.854
53.865
50.039
46.394
42.946
39.711
36.701
33.93
31.406
29.139
27.136
25.403
23.944
22.761
21.855
21.222
20.86
20.762
20.918
21.319
21.949
22.795
23.839
25.062
26.444
27.963
29.597
31.32
33.11
34.938
36.781
38.612
40.407
42.14
43.789
45.331
46.747
48.017
49.124
50.054
50.791
51.324
51.641
51.734
51.597
51.223
50.61
49.759
48.671
47.352
45.81
44.054
42.098
39.955
37.641
35.176
32.578
29.865
27.061
24.188
21.269
18.329
15.392
12.481
9.618
6.828
4.13
1.542
-0.921
-3.247
-5.424
-7.441
-9.288
-10.958
-12.445
-13.742
-14.842
-15.737
-16.425
-16.907
-17.189
-17.278
-17.185
-16.924
-16.51
-15.964
-15.304
-14.555
-13.731
-12.849
-11.929
-10.993
-10.072
-9.201
-8.406
-7.7
-7.099
-6.61
-6.233
-5.961
-5.769
-5.615
-5.465
-5.286
-5.05
-4.741
-4.337
-3.82
-3.177
-2.38
-1.427
-0.342
0.854
2.123
3.407
4.655
5.78
6.641
7.124
7.107
6.463
5.11
2.96
-0.034
-3.861
-8.493
-13.846
-19.811
-26.277
-33.104
-40.125
-47.255
-54.461
-61.639
-68.581
-74.89
-80.073
-83.621
-85.05
-83.807
-78.996
-70.134
-57.773
-42.882
-26.691
-8.948
12.378
38.183
66.65
90.432
100.956
94.966
76.609
63.643
76.408
128.003
223.133
344.371
465.096
558.169
597.343
579.971
514.554
416.834
307.206
185.449
50.977
-92.848
-236.989
-349.177
-405.683
-400.809
-345.709
-275.388
-217.581
-183.022
-170.439
-164.419
-153.289
-137.953
-123.89
-120.632
-137.948
-171.125
-207.262
-234.181
-236.547
-214.089
-181.309
-149.591
-131.619
-130.971
-138.583
-148.492
-156.16
-159.982
-163.347
-169.186
-180.639
-196.514
-212.263
-222.378
-217.157
-196.953
-172.514
-152.51
-150.267
-169.975
-198.394
-228.454
-253.569
-265.497
-272.071
-275.047
-268.035
-257.267
-240.212
-215.491
-196.079
-181.065
-172.558
-177.865
-188.058
-200.989
-215.165
-221.934
-224.938
-227.954
-230.783
-236.259
-242.207
-244.736
-243.996
-241.023
-236.806
-232.491
-228.228
-223.545
-218.741
-214.658
-211.414
-208.597
-205.77
-202.414
-198.623
-194.819
-191.194
-187.851
-184.515
-180.848
-177.055
-173.352
-169.324
-164.681
-158.846
-151.09
-142.145
-132.889
-123.362
-113.804
-104.763
-96.453
-89.804
-85.9
-83.87
-82.817
-82.597
-82.747
-83.014
-83.431
-83.202
-81.488
-78.968
-76.263
-73.6
-71.461
-69.838
-68.581
-68.11
-68.801
-70.376
-72.615
-75.358
-78.333
-81.623
-85.337
-89.356
-93.6
-98.063
-102.717
-107.591
-112.704
-117.941
-123.202
-128.409
-133.499
-138.493
-143.381
-148.071
-152.562
-156.933
-161.236
-165.542
-169.844
-173.979
-177.879
-181.673
-185.21
-187.933
-189.685
-190.639
-190.723
-190.479
-188.955
-182.723
-172.266
-160.847
-153.423
-159.702
-179.802
-203.825
-222.156
-221.105
-198.856
-168.588
-140.584
-125.646
-126.449
-133.247
-139.795
-142.104
-138.679
-133.53
-128.602
-123.69
-118.947
-113.753
-107.974
-102.26
-96.76
-91.299
-86.142
-81.608
-77.517
-73.871
-70.682
-67.256
-65.194
-66.127
-67.802
-69.527
-67.14
-55.65
-40.57
-25.58
-16.152
-19.788
-29.829
-40.628
-48.314
-46.496
-39.727
-32.62
-26.195
-23.26
-22.17
-20.813
-19.579
-18.191
-16.784
-15.776
-14.883
-13.873
-12.813
-11.713
-10.541
-9.31
-8.037
-6.735
-5.444
-4.209
-3.014
-1.863
-0.76
0.323
1.404
2.502
3.619
4.707
5.747
6.782
7.77
8.594
9.162
9.372
9.203
8.791
8.174
7.2
6.007
5.134
4.709
4.562
4.76
4.74
5.507
10.446
18.961
27.89
32.235
22.392
-1.407
-29.422
-52.07
-55.731
-39.042
-14.972
6.423
14.434
6.806
-6.785
-20.271
-29.656
-33.553
-35.886
-38.524
-41.302
-44.361
-47.103
-49.344
-51.605
-54.042
-56.557
-59.157
-61.867
-64.664
-67.52
-70.378
-73.14
-75.772
-78.3
-80.728
-83.038
-85.225
-87.301
-89.285
-91.2
-93.057
-94.85
-96.556
-98.147
-99.588
-100.819
-101.784
-102.432
-102.708
-102.574
-102.02
-101.045
-99.644
-97.809
-95.519
-92.772
-89.615
-86.156
-82.538
-78.891
-75.329
-72.018
-69.113
-66.721
-64.952
-63.591
-62.34
-61.493
-61.271
-61.558
-62.768
-63.661
-63.233
-63.648
-64.911
-69.963
-82.121
-97.063
-114.645
-128.351
-127.484
-113.196
-81.99
-41.057
-8.954
9.902
7.48
-17.189
-47.207
-76.515
-97.379
-95.553
-74.38
-35.664
22.831
90.099
166.99
261.293
366.881
478.593
578.699
636.775
640.827
588.459
491.426
373.44
240.999
99.964
-43.439
-181.102
-284.577
-334.798
-329.606
-281.149
-222.018
-176.361
-152.13
-146.609
-146.905
-146.113
-144.954
-145.585
-151.157
-160.673
-170.349
-178.067
-182.384
-182.938
-180.337
-174.844
-167.08
-158.379
-150.02
-142.701
-136.774
-132.227
-128.814
-126.798
-126.406
-127.082
-128.45
-130.431
-132.09
-134.279
-138.363
-142.312
-145.29
-143.851
-132.018
-111.329
-86.043
-64.893
-60.646
-77.529
-109.766
-143.02
-160.696
-152.237
-120.865
-81.903
-49.152
-32.914
-33.547
-40.829
-47.91
-50.512
-47.579
-43.149
-39.019
-35.09
-31.53
-27.657
-23.279
-18.979
-14.925
-11.03
-7.333
-3.822
-0.433
2.87
6.159
9.548
13.073
16.698
20.42
24.253
28.203
32.285
36.504
40.857
45.349
49.996
54.802
59.77
64.898
70.176
75.596
81.144
86.804
92.558
98.388
104.275
110.202
116.147
122.091
128.016
133.903
139.732
145.479
151.115
156.608
161.926
167.036
171.906
176.503
180.792
184.74
188.324
191.527
194.332
196.717
198.652
200.096
201.022
201.42
201.288
200.626
199.442
197.757
195.618
193.108
190.301
187.251
183.98
180.478
176.743
172.78
168.593
164.189
159.537
154.59
149.33
143.759
137.872
131.641
124.966
117.668
109.612
100.734
91.03
80.549
69.337
57.445
44.989
32.151
19.176
6.297
-6.325
-18.604
-30.436
-41.683
-52.114
-61.399
-69.293
-75.661
-80.41
-83.491
-84.858
-84.48
-82.477
-79.135
-74.79
-69.739
-64.177
-58.198
-51.923
-45.522
-39.225
-33.323
-28.016
-23.419
-19.657
-16.862
-15.165
-14.687
-15.373
-16.976
-19.239
-21.962
-25.023
-28.391
-32.006
-35.762
-39.555
-43.287
-46.917
-50.442
-53.808
-56.921
-59.683
-62.003
-63.907
-65.549
-67.065
-68.546
-70.053
-71.596
-73.205
-74.941
-76.826
-78.844
-80.961
-83.137
-85.373
-87.707
-90.174
-92.806
-95.589
-98.467
-101.396
-104.351
-107.308
-110.253
-113.163
-116
-118.755
-121.447
-124.089
-126.692
-129.253
-131.751
-134.168
-136.492
-138.712
-140.819
-142.8
-144.641
-146.33
-147.861
-149.227
-150.42
-151.43
-152.236
-152.822
-153.171
-153.268
-153.101
-152.654
-151.913
-150.867
-149.51
-147.833
-145.831
-143.497
-140.824
-137.809
-134.449
-130.745
-126.695
-122.304
-117.578
-112.533
-107.183
-101.547
-95.644
-89.496
-83.127
-76.563
-69.827
-62.942
-55.932
-48.821
-41.64
-34.42
-27.193
-19.996
-12.868
-5.844
1.039
7.749
14.26
20.549
26.589
32.356
37.821
42.95
47.716
52.095
56.066
59.619
62.758
65.504
67.903
70.004
71.846
73.468
74.897
76.169
77.342
78.458
79.543
80.641
81.781
82.992
84.319
85.771
87.289
88.786
90.16
91.298
92.153
92.714
92.924
92.681
91.856
90.324
88.032
85.043
81.349
76.836
71.569
65.799
60.058
55.282
52.257
51.226
52.39
55.875
61.33
68.522
76.746
84.183
89.341
91.624
90.867
87.996
84.95
83.057
84.271
91.832
108.916
138.749
183.458
242.759
312.735
387.758
463.169
534.922
604.645
676.527
746.816
806.873
839.177
820.767
746.529
625.244
477.545
336.991
222.132
139.017
88.513
58.177
41.043
34.716
33.749
38.688
48.115
58.363
68.178
74.009
73.387
66.669
54.773
40.414
26.738
15.213
6.639
1.355
-0.888
-0.37
2.411
6.458
10.562
13.984
16.392
17.669
17.974
17.387
15.918
13.74
11.107
8.252
5.395
2.698
0.257
-1.82
-3.423
-4.471
-4.87
-4.581
-3.619
-1.989
0.278
3.17
6.689
10.778
15.365
20.352
25.617
31.096
36.723
42.405
48.079
53.68
59.101
64.422
69.751
74.887
79.715
84.079
87.728
90.934
94.075
97.021
99.703
102.572
105.862
110.132
116.102
123.087
130.297
137.738
145.212
152.214
158.56
163.372
165.633
166.226
166.067
165.332
164.501
163.851
163.384
163.902
166.251
169.783
173.89
178.352
182.693
186.919
191.169
195.025
198.105
200.661
202.886
204.909
206.969
208.958
210.74
212.394
213.958
215.389
216.676
217.767
218.592
219.189
219.588
219.791
219.815
219.642
219.251
218.64
217.802
216.733
215.434
213.9
212.129
210.12
207.874
205.392
202.68
199.739
196.572
193.183
189.574
185.756
181.743
177.544
173.174
168.642
163.959
159.139
154.195
149.141
143.991
138.759
133.458
128.104
122.715
117.306
111.895
106.499
101.134
95.819
90.57
85.405
80.342
75.395
70.58
65.913
61.407
57.075
52.929
48.98
45.24
41.718
38.423
35.363
32.545
29.975
27.659
25.602
23.806
22.274
21.008
20.007
19.272
18.801
18.591
18.637
18.933
19.474
20.25
21.252
22.47
23.892
25.505
27.298
29.257
31.369
33.62
35.995
38.482
41.066
43.733
46.469
49.26
52.091
54.949
57.819
60.688
63.543
66.368
69.152
71.88
74.54
77.12
79.607
81.989
84.257
86.399
88.407
90.272
91.988
93.547
94.944
96.175
97.235
98.121
98.83
99.36
99.707
99.87
99.848
99.639
99.242
98.657
97.884
96.922
95.773
94.438
92.918
91.215
89.331
87.269
85.032
82.624
80.048
77.309
74.41
71.356
68.151
64.799
61.302
57.662
53.883
49.966
45.913
41.724
37.398
32.935
28.334
23.594
18.714
13.69
8.52
3.201
-2.272
-7.903
-13.698
-19.665
-25.814
-32.151
-38.686
-45.427
-52.382
-59.56
-66.971
-74.619
-82.51
-90.651
-99.052
-107.721
-116.666
-125.891
-135.399
-145.196
-155.287
-165.68
-176.372
-187.357
-198.629
-210.188
-222.037
-234.185
-246.624
-259.33
-272.276
-285.434
-298.766
-312.228
-325.754
-339.248
-352.622
-365.79
-378.679
-391.221
-403.33
-414.902
-425.824
-436
-445.379
-453.939
-461.658
-468.516
-474.52
-479.724
-484.25
-488.262
-491.904
-495.299
-498.551
-501.786
-505.154
-508.807
-512.883
-517.43
-522.399
-527.716
-533.294
-539.048
-544.88
-550.542
-555.629
-559.698
-562.267
-562.873
-561.117
-556.438
-548.149
-535.833
-519.318
-498.808
-474.979
-448.366
-419.238
-388.026
-355.163
-320.583
-283.743
-243.325
-197.416
-144.755
-84.987
-18.188
55.111
133.109
211.9
286.221
350.448
399.205
430.786
444.305
435.783
405.045
351.284
275.172
189.199
103.55
28.773
-23.268
-55.689
-72.398
-78.289
-82.945
-85.569
-85.501
-84.293
-80.792
-79.017
-82.465
-90.573
-102.641
-116.505
-129.384
-140.478
-149.616
-156.144
-159.996
-161.441
-160.744
-158.758
-156.546
-154.601
-153.181
-152.511
-152.542
-153.27
-154.75
-156.827
-159.289
-161.986
-164.714
-167.315
-169.684
-171.66
-173.121
-173.992
-174.189
-173.665
-172.396
-170.363
-167.581
-164.075
-159.864
-154.977
-149.451
-143.336
-136.719
-129.695
-122.364
-114.845
-107.23
-99.596
-92.022
-84.563
-77.267
-70.174
-63.307
-56.679
-50.311
-44.226
-38.447
-32.998
-27.889
-23.125
-18.708
-14.637
-10.907
-7.518
-4.462
-1.735
0.665
2.743
4.499
5.936
7.059
7.88
8.412
8.671
8.675
8.44
7.986
7.334
6.505
5.517
4.39
3.138
1.781
0.335
-1.185
-2.764
-4.387
-6.042
-7.716
-9.4
-11.083
-12.756
-14.412
-16.044
-17.647
-19.216
-20.748
-22.238
-23.683
-25.083
-26.434
-27.737
-28.992
-30.199
-31.36
-32.476
-33.551
-34.587
-35.587
-36.552
-37.486
-38.391
-39.267
-40.115
-40.936
-41.729
-42.492
-43.224
-43.922
-44.583
-45.203
-45.777
-46.302
-46.772
-47.183
-47.53
-47.808
-48.013
-48.14
-48.187
-48.148
-48.021
-47.801
-47.486
-47.072
-46.557
-45.939
-45.215
-44.383
-43.444
-42.396
-41.24
-39.977
-38.609
-37.137
-35.566
-33.899
-32.141
-30.298
-28.375
-26.38
-24.321
-22.204
-20.039
-17.834
-15.597
-13.336
-11.058
-8.77
-6.48
-4.194
-1.918
0.343
2.583
4.798
6.983
9.134
11.247
13.32
15.349
17.332
19.267
21.153
22.99
24.776
26.512
28.199
29.838
31.431
32.979
34.487
35.955
37.387
38.786
40.155
41.496
42.812
44.105
45.376
46.626
47.857
49.068
50.259
51.428
52.574
53.696
54.792
55.858
56.892
57.892
58.856
59.781
60.664
61.503
62.296
63.038
63.728
64.362
64.936
65.448
65.895
66.273
66.582
66.821
66.988
67.086
67.115
67.077
66.975
66.812
66.593
66.321
66.003
65.643
65.25
64.831
64.393
63.946
63.498
63.058
62.637
62.242
61.88
61.558
61.284
61.063
60.903
60.81
60.791
60.854
61.004
61.248
61.592
62.04
62.595
63.258
64.024
64.888
65.843
66.883
67.999
69.182
70.425
71.719
73.061
74.451
75.886
77.361
78.869
80.396
81.927
83.452
84.962
86.449
87.909
89.334
90.72
92.075
93.405
94.71
95.976
97.166
98.245
99.2
100.024
100.729
101.343
101.883
102.382
102.904
103.508
104.263
105.239
106.442
107.863
109.515
111.423
113.659
116.297
119.339
122.74
126.44
130.36
134.441
138.621
142.769
146.731
150.331
153.362
155.686
157.236
157.993
157.893
156.722
154.319
150.749
146.478
142.478
139.712
138.523
139.051
141.506
145.933
152.579
160.582
166.965
169.091
165.79
158.194
150.246
143.635
137.556
130.598
120.676
112.799
115.703
137.974
190.515
276.791
394.44
534.701
677.922
801.438
882.577
908.216
876.811
795.22
680.47
548.077
413.983
296.511
204.95
144.196
111.78
93.813
79.261
61.189
37.591
15.502
-0.453
-9.97
-14.853
-20.971
-31.741
-46.479
-63.59
-80.528
-95.043
-106.647
-115.172
-119.971
-120.91
-118.223
-112.349
-104.373
-95.602
-86.81
-78.443
-70.842
-64.067
-58.21
-53.427
-49.651
-46.698
-44.413
-42.64
-41.291
-40.38
-39.858
-39.595
-39.411
-39.053
-38.315
-37.089
-35.309
-32.928
-29.897
-26.17
-21.743
-16.672
-11.037
-4.911
1.66
8.645
15.997
23.64
31.474
39.386
47.294
55.149
62.914
70.561
78.065
85.4
92.567
99.585
106.471
113.23
119.863
126.361
132.725
138.965
145.091
151.11
157.025
162.832
168.531
174.118
179.589
184.936
190.146
195.205
200.101
204.827
209.372
213.732
217.898
221.863
225.62
229.164
232.49
235.591
238.459
241.087
243.471
245.606
247.486
249.108
250.47
251.569
252.403
252.973
253.278
253.319
253.096
252.612
251.871
250.877
249.633
248.145
246.42
244.462
242.28
239.881
237.271
234.457
231.446
228.246
224.863
221.303
217.573
213.677
209.619
205.403
201.031
196.507
191.832
187.004
182.025
176.894
171.608
166.165
160.563
154.797
148.863
142.758
136.476
130.014
123.366
116.527
109.495
102.263
94.831
87.193
79.349
71.297
63.036
54.569
45.897
37.023
27.953
18.695
9.257
-0.347
-10.103
-19.994
-30.001
-40.101
-50.27
-60.483
-70.713
-80.932
-91.108
-101.212
-111.21
-121.071
-130.761
-140.245
-149.489
-158.456
-167.112
-175.423
-183.356
-190.876
-197.954
-204.557
-210.658
-216.227
-221.241
-225.674
-229.504
-232.711
-235.28
-237.198
-238.458
-239.056
-238.993
-238.277
-236.921
-234.942
-232.359
-229.193
-225.471
-221.218
-216.466
-211.244
-205.582
-199.514
-193.076
-186.315
-179.278
-172.016
-164.582
-157.028
-149.413
-141.795
-134.235
-126.783
-119.486
-112.391
-105.551
-99.024
-92.878
-87.168
-81.931
-77.2
-72.999
-69.348
-66.251
-63.685
-61.598
-59.935
-58.667
-57.789
-57.322
-57.276
-57.66
-58.473
-59.717
-61.425
-63.639
-66.384
-69.666
-73.495
-77.906
-82.988
-88.885
-95.707
-103.5
-112.24
-121.854
-132.269
-143.385
-155.074
-167.16
-179.399
-191.568
-203.492
-215.036
-226.067
-236.415
-245.84
-254.051
-260.817
-265.992
-269.5
-271.325
-271.455
-269.934
-266.872
-262.467
-256.995
-250.69
-243.722
-236.219
-228.308
-220.153
-211.976
-204.032
-196.516
-189.571
-183.305
-177.791
-173.104
-169.278
-166.288
-164.042
-162.395
-161.232
-160.494
-160.157
-160.193
-160.553
-161.137
-161.818
-162.513
-163.167
-163.737
-164.206
-164.541
-164.701
-164.667
-164.445
-164.075
-163.614
-163.093
-162.503
-161.845
-161.16
-160.566
-160.275
-160.451
-161.182
-162.513
-164.41
-166.907
-170.137
-174.225
-179.301
-185.453
-192.567
-200.595
-209.655
-219.625
-230.194
-240.771
-250.174
-257.363
-262.012
-263.859
-262.766
-259.123
-253.059
-245.124
-237.162
-230.803
-226.706
-225.087
-224.955
-224.119
-221.259
-214.721
-201.108
-177.07
-139.7
-86.953
-19.478
59.856
148.82
244.7
342.432
435.866
517.746
581.07
621.668
637.746
627.29
588.687
523.228
434.799
329.859
216.209
100.449
-12.064
-115.194
-202.27
-269.155
-314.511
-339.485
-347.36
-341.505
-324.969
-302.144
-278.606
-258.321
-243.413
-234.536
-230.747
-231.01
-234.574
-239.759
-244.101
-246.026
-244.884
-240.763
-234.569
-227.08
-218.758
-210.341
-202.766
-196.603
-192.116
-189.272
-187.68
-187.012
-187.056
-187.557
-188.257
-188.95
-189.408
-189.412
-188.855
-187.657
-185.749
-183.116
-179.723
-175.545
-170.615
-165.001
-158.78
-152.037
-144.84
-137.236
-129.29
-121.077
-112.689
-104.227
-95.764
-87.345
-79.003
-70.76
-62.636
-54.645
-46.777
-39.001
-31.295
-23.641
-16.029
-8.456
-0.913
6.621
14.161
21.723
29.317
36.948
44.622
52.346
60.119
67.94
75.802
83.692
91.603
99.529
107.461
115.394
123.318
131.222
139.097
146.931
154.712
162.423
170.048
177.567
184.962
192.214
199.303
206.208
212.909
219.386
225.618
231.586
237.272
242.656
247.721
252.451
256.831
260.847
264.488
267.742
270.601
273.057
275.107
276.745
277.97
278.78
279.178
279.166
278.748
277.931
276.721
275.128
273.162
270.835
268.162
265.157
261.838
258.221
254.324
250.166
245.765
241.14
236.309
231.29
226.101
220.758
215.277
209.674
203.966
198.165
192.288
186.346
180.353
174.319
168.256
162.171
156.074
149.973
143.873
137.782
131.706
125.65
119.619
113.618
107.652
101.722
95.834
89.987
84.185
78.429
72.722
67.067
61.468
55.929
50.459
45.065
39.758
34.55
29.453
24.478
19.636
14.939
10.397
6.02
1.816
-2.205
-6.033
-9.653
-13.049
-16.202
-19.093
-21.702
-24.011
-26.005
-27.669
-28.993
-29.97
-30.598
-30.872
-30.786
-30.327
-29.474
-28.217
-26.556
-24.503
-22.082
-19.333
-16.308
-13.068
-9.68
-6.197
-2.658
0.922
4.55
8.236
11.995
15.816
19.664
23.507
27.321
31.093
34.823
38.54
42.297
46.166
50.239
54.57
59.171
63.995
68.937
73.861
78.603
83.033
87.063
90.614
93.619
96.01
97.716
98.64
98.667
97.652
95.418
91.839
86.85
80.465
72.786
63.974
54.246
43.791
32.773
21.337
9.601
-2.318
-14.31
-26.255
-38.021
-49.439
-60.3
-70.425
-79.673
-87.964
-95.284
-101.67
-107.206
-111.966
-116.009
-119.381
-122.1
-124.175
-125.603
-126.384
-126.512
-126.013
-124.942
-123.348
-121.276
-118.751
-115.776
-112.334
-108.393
-103.925
-98.916
-93.369
-87.307
-80.766
-73.789
-66.428
-58.741
-50.788
-42.619
-34.285
-25.836
-17.323
-8.798
-0.32
8.052
16.271
24.306
32.151
39.822
47.327
54.673
61.867
68.915
75.84
82.647
89.329
95.881
102.289
108.529
114.589
120.433
125.984
131.161
135.828
139.798
142.913
145.015
145.989
145.776
144.275
141.38
137.009
131.128
123.779
115.128
105.256
94.111
81.845
68.874
55.995
44.232
34.264
26.2
20.126
16.663
16.227
18.56
22.369
25.493
26.62
26.286
25.455
23.965
22.107
21.401
25.072
38.346
63.359
97.149
136.672
182.11
238.444
312.567
403.934
499.203
574.513
607.262
585.671
512.873
408.465
292.908
179.385
74.342
-26.058
-124.636
-217.497
-298.38
-360.076
-398.763
-415.752
-415.374
-402.083
-380.014
-354.025
-328.314
-305.703
-288.067
-275.731
-267.64
-262.937
-260.371
-257.701
-253.393
-246.748
-237.474
-226.092
-213.41
-199.929
-186.376
-173.791
-162.782
-153.633
-146.409
-140.774
-136.403
-133.099
-130.547
-128.412
-126.432
-124.323
-121.898
-119.11
-115.908
-112.26
-108.161
-103.585
-98.547
-93.118
-87.375
-81.404
-75.292
-69.105
-62.931
-56.87
-51.025
-45.511
-40.412
-35.775
-31.64
-28.028
-24.951
-22.424
-20.441
-18.97
-17.986
-17.465
-17.386
-17.738
-18.499
-19.638
-21.12
-22.911
-24.982
-27.309
-29.864
-32.621
-35.553
-38.635
-41.849
-45.177
-48.599
-52.088
-55.619
-59.164
-62.698
-66.197
-69.633
-72.981
-76.217
-79.318
-82.265
-85.038
-87.619
-89.989
-92.13
-94.026
-95.66
-97.018
-98.084
-98.846
-99.29
-99.407
-99.188
-98.626
-97.716
-96.451
-94.831
-92.854
-90.522
-87.835
-84.797
-81.413
-77.689
-73.634
-69.257
-64.57
-59.586
-54.318
-48.782
-42.995
-36.973
-30.735
-24.298
-17.683
-10.909
-3.996
3.032
10.154
17.346
24.583
31.84
39.091
46.309
53.468
60.543
67.506
74.334
81
87.48
93.751
99.79
105.575
111.087
116.306
121.216
125.801
130.047
133.944
137.482
140.653
143.451
145.872
147.915
149.578
150.862
151.77
152.305
152.474
152.284
151.746
150.869
149.669
148.158
146.355
144.276
141.941
139.371
136.586
133.61
130.464
127.172
123.758
120.245
116.658
113.018
109.348
105.668
101.998
98.356
94.759
91.222
87.757
84.376
81.091
77.908
74.837
71.883
69.05
66.34
63.757
61.299
58.965
56.752
54.655
52.668
50.783
48.993
47.286
45.652
44.078
42.548
41.049
39.564
38.075
36.566
35.018
33.414
31.74
29.981
28.122
26.151
24.059
21.837
19.477
16.974
14.325
11.526
8.577
5.478
2.234
-1.151
-4.672
-8.32
-12.086
-15.957
-19.922
-23.966
-28.075
-32.233
-36.422
-40.621
-44.81
-48.964
-53.059
-57.066
-60.953
-64.689
-68.244
-71.587
-74.69
-77.525
-80.067
-82.292
-84.184
-85.724
-86.895
-87.681
-88.065
-88.027
-87.555
-86.636
-85.259
-83.415
-81.094
-78.293
-75.021
-71.286
-67.099
-62.465
-57.38
-51.854
-45.915
-39.597
-32.938
-25.988
-18.796
-11.435
-4.004
3.399
10.682
17.764
24.6
31.144
37.345
43.152
48.517
53.427
57.908
61.997
65.713
69.076
72.119
74.907
77.579
80.252
83.016
85.945
89.061
92.39
95.966
99.796
103.831
107.962
112.013
115.781
119.124
121.921
124.037
125.312
125.5
124.386
121.797
117.564
111.557
103.62
93.569
81.28
66.736
50.045
31.446
11.225
-10.439
-33.435
-57.667
-83.022
-109.238
-136.074
-163.403
-190.873
-217.937
-243.82
-267.371
-287.503
-303.576
-315.178
-322.056
-324.815
-324.392
-321.819
-318.987
-317.54
-318.409
-322.261
-328.883
-336.223
-341.582
-342.379
-334.863
-315.695
-282.103
-231.25
-162.479
-78.172
17.919
121.907
228.694
332.432
426.014
501.501
553.512
581.567
588.963
575.794
540.909
482.8
398.239
296.357
193.165
101.856
38.786
7.305
-3.742
-3.977
-6.903
-19.807
-36.289
-51.711
-62.797
-68.6
-74.331
-82.746
-92.615
-101.647
-107.512
-109.389
-107.915
-103.833
-97.077
-87.553
-75.921
-63.323
-50.831
-39.22
-28.767
-19.444
-11.403
-4.814
0.362
4.286
7.205
9.399
11.01
12.096
12.758
13.076
13.138
13.07
12.949
12.83
12.77
12.769
12.758
12.644
12.225
11.214
9.368
6.458
2.344
-3.016
-9.69
-17.728
-27.125
-37.882
-49.93
-63.139
-77.469
-92.875
-109.22
-126.339
-143.92
-161.548
-178.913
-195.776
-211.954
-227.351
-241.828
-255.24
-267.537
-278.684
-288.683
-297.562
-305.227
-311.572
-316.606
-320.382
-323.077
-324.965
-326.21
-326.916
-327.188
-327.085
-326.689
-326.099
-325.324
-324.362
-323.228
-321.951
-320.652
-319.459
-318.415
-317.519
-316.709
-315.865
-314.934
-313.895
-312.703
-311.344
-309.803
-308.067
-306.177
-304.189
-302.129
-299.999
-297.768
-295.399
-292.895
-290.283
-287.606
-284.928
-282.29
-279.724
-277.277
-274.977
-272.842
-270.88
-269.076
-267.399
-265.836
-264.378
-263.021
-261.762
-260.59
-259.481
-258.415
-257.366
-256.307
-255.21
-254.042
-252.775
-251.385
-249.851
-248.158
-246.296
-244.252
-242.014
-239.572
-236.913
-234.027
-230.906
-227.54
-223.922
-220.049
-215.917
-211.53
-206.889
-202.002
-196.875
-191.517
-185.941
-180.158
-174.183
-168.031
-161.718
-155.264
-148.686
-142.006
-135.242
-128.415
-121.546
-114.655
-107.76
-100.881
-94.035
-87.239
-80.509
-73.86
-67.305
-60.858
-54.531
-48.334
-42.278
-36.372
-30.625
-25.044
-19.633
-14.396
-9.338
-4.458
0.243
4.765
9.112
13.287
17.293
21.137
24.822
28.357
31.748
35.003
38.128
41.131
44.018
46.797
49.473
52.051
54.534
56.927
59.233
61.453
63.59
65.646
67.62
69.512
71.324
73.054
74.702
76.264
77.742
79.131
80.431
81.639
82.753
83.771
84.691
85.51
86.227
86.839
87.343
87.735
88.014
88.178
88.226
88.155
87.966
87.661
87.242
86.714
86.081
85.35
84.528
83.623
82.643
81.6
80.503
79.364
78.193
77.004
75.809
74.622
73.456
72.323
71.238
70.211
69.255
68.382
67.602
66.924
66.359
65.915
65.604
65.435
65.415
65.554
65.858
66.333
66.982
67.807
68.804
69.965
71.285
72.756
74.37
76.113
77.975
79.942
82.005
84.155
86.38
88.661
90.982
93.323
95.672
98.014
100.331
102.606
104.817
106.943
108.97
110.884
112.663
114.28
115.704
116.893
117.824
118.489
118.877
118.977
118.781
118.285
117.509
116.504
115.322
114.017
112.641
111.239
109.879
108.623
107.525
106.649
106.016
105.596
105.371
105.314
105.386
105.604
105.911
106.119
106.048
105.448
104.062
101.776
98.411
93.725
87.717
80.51
72.377
64.01
56.016
48.528
41.745
35.775
30.167
24.567
18.524
10.92
0.96
-11.134
-25.071
-40.2
-54.531
-66.233
-73.639
-74.209
-65.844
-47.605
-18.206
23.256
75.31
136.261
204.416
276.738
350.309
422.249
487.652
541.188
579.877
601.142
603.04
585.176
547.116
489.892
418.202
338.339
255.741
175.921
103.125
40.463
-8.306
-41.126
-59.247
-65.623
-63.873
-58.132
-50.933
-43.973
-39.849
-40.123
-44.793
-53.085
-63.137
-72.558
-80.28
-85.951
-88.869
-88.898
-86.209
-80.994
-74.169
-66.966
-60.045
-53.737
-48.263
-43.538
-39.545
-36.367
-33.835
-31.696
-29.748
-27.771
-25.647
-23.334
-20.716
-17.679
-14.134
-9.969
-5.114
0.445
6.73
13.741
21.454
29.859
38.923
48.592
58.803
69.479
80.543
91.915
103.499
115.211
126.98
138.737
150.43
162.022
173.474
184.76
195.867
206.772
217.45
227.88
238.037
247.902
257.46
266.697
275.602
284.165
292.372
300.209
307.663
314.716
321.353
327.557
333.308
338.592
343.399
347.721
351.554
354.895
357.74
360.091
361.951
363.325
364.216
364.631
364.577
364.064
363.104
361.713
359.906
357.701
355.119
352.181
348.912
345.336
341.479
337.368
333.031
328.495
323.789
318.942
313.985
308.946
303.854
298.737
293.625
288.543
283.52
278.58
273.748
269.049
264.505
260.139
255.971
252.019
248.303
244.838
241.64
238.721
236.091
233.757
231.727
230.003
228.585
227.472
226.658
226.137
225.898
225.932
226.224
226.759
227.521
228.492
229.654
230.987
232.473
234.089
235.817
237.634
239.521
241.455
243.415
245.38
247.328
249.237
251.086
252.854
254.522
256.068
257.474
258.723
259.797
260.682
261.364
261.831
262.074
262.085
261.859
261.391
260.68
259.727
258.533
257.102
255.44
253.55
251.441
249.119
246.593
243.87
240.96
237.87
234.611
231.193
227.624
223.915
220.077
216.119
212.054
207.89
203.64
199.313
194.92
190.472
185.978
181.446
176.886
172.303
167.705
163.096
158.479
153.858
149.233
144.604
139.971
135.333
130.687
126.031
121.362
116.678
111.977
107.255
102.511
97.744
92.952
88.135
83.293
78.426
73.534
68.621
63.687
58.736
53.771
48.794
43.811
38.825
33.843
28.871
23.915
18.985
14.088
9.235
4.438
-0.289
-4.935
-9.484
-13.923
-18.237
-22.411
-26.429
-30.278
-33.944
-37.413
-40.671
-43.707
-46.508
-49.065
-51.37
-53.416
-55.194
-56.702
-57.935
-58.892
-59.575
-59.984
-60.123
-59.995
-59.605
-58.963
-58.078
-56.961
-55.625
-54.085
-52.36
-50.471
-48.443
-46.301
-44.069
-41.774
-39.444
-37.107
-34.79
-32.512
-30.298
-28.172
-26.158
-24.282
-22.569
-21.041
-19.728
-18.658
-17.856
-17.345
-17.139
-17.242
-17.665
-18.425
-19.536
-21.02
-22.891
-25.15
-27.807
-30.866
-34.317
-38.132
-42.251
-46.587
-51.072
-55.653
-60.281
-64.93
-69.545
-74.058
-78.432
-82.631
-86.631
-90.425
-93.982
-97.279
-100.353
-103.297
-106.259
-109.439
-112.996
-117.017
-121.542
-126.593
-132.261
-138.679
-145.982
-154.22
-163.277
-173.134
-183.991
-195.878
-208.562
-221.428
-233.234
-242.805
-249.784
-253.774
-254.017
-250.602
-244.024
-235.119
-226.761
-220.43
-213.928
-207.714
-203.648
-204.455
-217.581
-240.13
-257.592
-255.665
-217.925
-143.306
-48.976
52.667
150.312
241.238
335.664
429.104
507.813
558.13
559.929
510.196
423.687
314.03
199.794
92.664
-8.594
-102.315
-186.36
-257.722
-309.841
-340.297
-351.537
-347.914
-335.022
-318.141
-300.878
-286.223
-276.545
-272.797
-274.5
-280.119
-287.525
-294.369
-299.219
-301.229
-299.887
-295.409
-288.324
-279.414
-269.812
-260.704
-252.793
-246.423
-241.734
-238.581
-236.849
-236.412
-237.001
-238.31
-240.074
-242.077
-244.15
-246.152
-247.934
-249.342
-250.255
-250.589
-250.308
-249.412
-247.915
-245.852
-243.259
-240.19
-236.707
-232.865
-228.738
-224.402
-219.939
-215.448
-211.006
-206.669
-202.48
-198.467
-194.641
-191.003
-187.538
-184.215
-181.008
-177.895
-174.854
-171.868
-168.913
-165.96
-162.981
-159.94
-156.81
-153.565
-150.182
-146.636
-142.909
-138.982
-134.846
-130.492
-125.912
-121.095
-116.031
-110.71
-105.126
-99.277
-93.161
-86.779
-80.135
-73.238
-66.101
-58.741
-51.178
-43.432
-35.527
-27.491
-19.354
-11.148
-2.906
5.336
13.539
21.665
29.673
37.521
45.167
52.569
59.685
66.473
72.893
78.904
84.469
89.551
94.117
98.132
101.568
104.398
106.597
108.144
109.024
109.221
108.727
107.535
105.646
103.063
99.792
95.846
91.239
85.992
80.128
73.675
66.662
59.125
51.101
42.63
33.755
24.522
14.978
5.172
-4.846
-15.024
-25.31
-35.654
-46.002
-56.304
-66.509
-76.566
-86.429
-96.049
-105.382
-114.386
-123.021
-131.248
-139.032
-146.343
-153.151
-159.432
-165.164
-170.329
-174.912
-178.904
-182.298
-185.091
-187.284
-188.882
-189.895
-190.333
-190.213
-189.553
-188.374
-186.7
-184.559
-181.977
-178.985
-175.616
-171.9
-167.873
-163.568
-159.021
-154.266
-149.338
-144.272
-139.103
-133.864
-128.588
-123.307
-118.052
-112.852
-107.735
-102.727
-97.851
-93.13
-88.583
-84.228
-80.08
-76.152
-72.454
-68.992
-65.773
-62.799
-60.07
-57.584
-55.338
-53.327
-51.542
-49.977
-48.622
-47.465
-46.497
-45.705
-45.076
-44.598
-44.257
-44.039
-43.929
-43.914
-43.979
-44.111
-44.296
-44.521
-44.774
-45.043
-45.316
-45.584
-45.834
-46.058
-46.248
-46.395
-46.493
-46.536
-46.522
-46.446
-46.308
-46.104
-45.835
-45.501
-45.101
-44.634
-44.099
-43.497
-42.827
-42.089
-41.284
-40.413
-39.475
-38.474
-37.41
-36.285
-35.098
-33.849
-32.537
-31.162
-29.72
-28.212
-26.635
-24.989
-23.272
-21.486
-19.63
-17.704
-15.707
-13.635
-11.489
-9.266
-6.962
-4.577
-2.109
0.442
3.073
5.78
8.558
11.403
14.313
17.28
20.299
23.365
26.477
29.634
32.832
36.067
39.326
42.6
45.88
49.156
52.415
55.636
58.797
61.881
64.877
67.779
70.577
73.263
75.82
78.24
80.519
82.654
84.641
86.458
88.083
89.5
90.701
91.704
92.528
93.168
93.611
93.84
93.832
93.562
92.988
92.029
90.59
88.594
85.979
82.738
78.878
74.413
69.381
63.771
57.582
50.827
43.49
35.613
27.322
18.725
9.951
1.199
-7.398
-15.605
-22.999
-29.532
-35.464
-41.117
-47.036
-53.347
-59.565
-65.568
-71.735
-77.983
-83.847
-88.543
-90.57
-89.743
-87.733
-86.008
-85.56
-87.419
-92.587
-102.767
-120.975
-148.58
-184.018
-225.028
-269.089
-314.136
-358.813
-400.938
-436.805
-463.598
-481.098
-490.608
-494.473
-494.421
-491.009
-485.149
-478.763
-473.841
-471.179
-470.179
-469.133
-466.789
-462.957
-457.715
-450.974
-442.329
-431.511
-418.921
-405.605
-392.471
-379.951
-368.15
-356.932
-346.278
-336.291
-326.957
-318.102
-309.511
-300.976
-292.348
-283.625
-274.821
-265.917
-256.865
-247.564
-237.936
-227.965
-217.677
-207.109
-196.302
-185.274
-174.045
-162.679
-151.252
-139.848
-128.556
-117.418
-106.45
-95.673
-85.109
-74.784
-64.723
-54.922
-45.362
-36.033
-26.93
-18.054
-9.407
-0.975
7.264
15.327
23.231
30.988
38.604
46.088
53.446
60.682
67.795
74.78
81.63
88.34
94.907
101.33
107.607
113.733
119.705
125.517
131.167
136.648
141.95
147.065
151.982
156.692
161.184
165.449
169.477
173.259
176.786
180.05
183.045
185.76
188.189
190.324
192.16
193.692
194.915
195.827
196.426
196.712
196.687
196.352
195.711
194.768
193.528
191.998
190.185
188.096
185.74
183.127
180.267
177.172
173.854
170.326
166.603
162.698
158.628
154.406
150.051
145.577
141.002
136.342
131.615
126.837
122.026
117.199
112.373
107.566
102.793
98.071
93.417
88.845
84.371
80.01
75.775
71.68
67.738
63.961
60.362
56.952
53.742
50.742
47.963
45.413
43.102
41.038
39.227
37.677
36.392
35.377
34.636
34.17
33.982
34.071
34.436
35.075
35.983
37.156
38.587
40.268
42.19
44.342
46.712
49.288
52.053
54.994
58.093
61.332
64.692
68.153
71.694
75.292
78.922
82.562
86.184
89.763
93.272
96.683
99.969
103.103
106.057
108.803
111.317
113.57
115.539
117.199
118.527
119.501
120.103
120.314
120.118
119.503
118.456
116.969
115.036
112.653
109.818
106.533
102.801
98.629
94.026
89.003
83.577
77.765
71.589
65.072
58.243
51.13
43.764
36.18
28.412
20.499
12.478
4.39
-3.724
-11.821
-19.858
-27.791
-35.576
-43.168
-50.524
-57.601
-64.357
-70.754
-76.754
-82.321
-87.421
-92.024
-96.099
-99.62
-102.563
-104.906
-106.631
-107.723
-108.17
-107.966
-107.107
-105.597
-103.438
-100.641
-97.216
-93.178
-88.545
-83.338
-77.58
-71.297
-64.518
-57.275
-49.606
-41.551
-33.153
-24.459
-15.518
-6.375
2.918
12.315
21.77
31.24
40.683
50.063
59.34
68.475
77.427
86.151
94.608
102.764
110.587
118.048
125.123
131.785
138.018
143.817
149.174
154.077
158.5
162.406
165.767
168.579
170.855
172.609
173.864
174.641
174.979
174.95
174.64
174.129
173.483
172.723
171.86
170.93
170.003
169.156
168.459
167.906
167.438
167.039
166.705
166.431
166.226
165.957
165.388
164.316
162.53
159.906
156.511
152.287
147.013
140.705
133.536
125.986
119.078
113.565
109.533
107.067
106.2
106.593
108.099
109.885
109.796
106.053
98.028
85.926
71.196
56.156
42.563
32.956
31.608
42.664
69.152
112.023
169.314
237.394
312.768
391.205
466.729
532.4
581.421
609.319
615.045
599.539
564.346
511.399
443.993
367.686
289.189
214.17
145.956
86.224
36.022
-3.284
-30.756
-47.69
-56.972
-61.824
-64.336
-65.281
-65.075
-64.685
-65.47
-67.76
-70.729
-72.856
-73.157
-71.675
-68.821
-64.912
-59.801
-53.462
-46.455
-39.756
-34.205
-30.17
-27.686
-26.616
-26.962
-28.783
-31.966
-36.255
-41.309
-46.81
-52.545
-58.354
-64.117
-69.709
-74.985
-79.827
-84.164
-87.964
-91.222
-93.96
-96.18
-97.895
-99.144
-99.97
-100.442
-100.644
-100.649
-100.534
-100.355
-100.145
-99.938
-99.754
-99.601
-99.476
-99.365
-99.24
-99.085
-98.89
-98.641
-98.33
-97.941
-97.456
-96.857
-96.127
-95.251
-94.22
-93.029
-91.674
-90.154
-88.475
-86.643
-84.67
-82.568
-80.344
-78.005
-75.558
-73.012
-70.377
-67.662
-64.88
-62.04
-59.158
-56.246
-53.323
-50.402
-47.5
-44.63
-41.807
-39.045
-36.357
-33.757
-31.258
-28.871
-26.608
-24.48
-22.498
-20.67
-19.005
-17.508
-16.187
-15.044
-14.083
-13.306
-12.713
-12.305
-12.079
-12.034
-12.167
-12.475
-12.952
-13.594
-14.395
-15.347
-16.443
-17.675
-19.034
-20.51
-22.096
-23.78
-25.554
-27.408
-29.333
-31.32
-33.361
-35.449
-37.574
-39.73
-41.911
-44.11
-46.321
-48.541
-50.764
-52.986
-55.205
-57.417
-59.62
-61.813
-63.994
-66.16
-68.312
-70.447
-72.565
-74.666
-76.747
-78.809
-80.851
-82.872
-84.872
-86.851
-88.806
-90.739
-92.647
-94.53
-96.385
-98.211
-100.003
-101.76
-103.477
-105.15
-106.774
-108.344
-109.856
-111.303
-112.681
-113.982
-115.203
-116.336
-117.378
-118.323
-119.166
-119.903
-120.531
-121.047
-121.449
-121.735
-121.904
-121.957
-121.893
-121.712
-121.416
-121.006
-120.483
-119.85
-119.11
-118.266
-117.322
-116.285
-115.16
-113.955
-112.676
-111.333
-109.933
-108.488
-107.006
-105.498
-103.973
-102.443
-100.917
-99.405
-97.917
-96.461
-95.046
-93.678
-92.364
-91.107
-89.911
-88.779
-87.71
-86.707
-85.767
-84.891
-84.076
-83.321
-82.621
-81.973
-81.374
-80.818
-80.298
-79.808
-79.339
-78.881
-78.425
-77.961
-77.477
-76.963
-76.404
-75.791
-75.111
-74.352
-73.503
-72.55
-71.485
-70.296
-68.976
-67.519
-65.918
-64.17
-62.275
-60.234
-58.051
-55.73
-53.277
-50.699
-48.003
-45.199
-42.297
-39.308
-36.243
-33.116
-29.944
-26.745
-23.543
-20.361
-17.218
-14.139
-11.146
-8.264
-5.515
-2.917
-0.483
1.767
3.816
5.641
7.222
8.544
9.595
10.364
10.846
11.037
10.937
10.552
9.893
8.967
7.778
6.322
4.58
2.551
0.244
-2.321
-5.119
-8.118
-11.291
-14.587
-17.942
-21.299
-24.593
-27.759
-30.743
-33.469
-35.871
-37.874
-39.38
-40.307
-40.61
-40.285
-39.346
-37.833
-35.744
-33.079
-29.911
-26.34
-22.54
-18.716
-15.062
-11.724
-8.843
-6.665
-5.254
-4.487
-4.014
-3.115
-1.057
2.594
8.072
15.596
24.702
34.5
44.011
51.452
55.235
54.535
48.869
38.562
25.732
13.26
3.966
1.847
10.565
33.111
72.498
129.927
203.772
291.164
388.812
491.678
594.339
690.319
771.602
831.761
866.356
874.207
857.271
817.985
759.492
680.665
575.586
445.41
298.109
154.124
46.543
-6.335
-3.374
38.977
87.488
121.104
133.599
128.429
118.163
108.705
99.042
87.701
72.43
54.175
36.563
21.742
10.895
4.576
2.458
4.071
8.721
15.115
21.713
27.65
32.627
36.538
39.536
41.635
42.734
42.98
42.637
41.884
40.86
39.58
37.946
35.988
33.819
31.605
29.597
27.943
26.686
25.878
25.547
25.721
26.441
27.682
29.36
31.407
33.771
36.414
39.331
42.476
45.776
49.148
52.489
55.728
58.831
61.762
64.493
67.005
69.28
71.325
73.171
74.836
76.33
77.659
78.823
79.833
80.707
81.459
82.105
82.656
83.122
83.512
83.836
84.101
84.312
84.468
84.567
84.609
84.594
84.525
84.403
84.23
84.006
83.733
83.414
83.049
82.639
82.182
81.676
81.12
80.511
79.844
79.116
78.322
77.456
76.514
75.489
74.376
73.169
71.861
70.448
68.926
67.29
65.535
63.658
61.657
59.529
57.275
54.895
52.389
49.759
47.009
44.143
41.165
38.08
34.893
31.611
28.238
24.782
21.251
17.651
13.991
10.279
6.525
2.737
-1.075
-4.903
-8.736
-12.566
-16.384
-20.181
-23.948
-27.677
-31.361
-34.991
-38.562
-42.066
-45.499
-48.857
-52.135
-55.331
-58.444
-61.473
-64.416
-67.276
-70.052
-72.746
-75.36
-77.896
-80.356
-82.742
-85.057
-87.305
-89.487
-91.608
-93.669
-95.674
-97.626
-99.526
-101.377
-103.181
-104.941
-106.657
-108.332
-109.967
-111.562
-113.119
-114.638
-116.119
-117.561
-118.962
-120.321
-121.637
-122.905
-124.124
-125.291
-126.402
-127.455
-128.451
-129.383
-130.245
-131.034
-131.747
-132.382
-132.943
-133.422
-133.808
-134.118
-134.364
-134.557
-134.715
-134.824
-134.855
-134.836
-134.792
-134.668
-134.423
-134.024
-133.421
-132.663
-131.845
-130.922
-129.807
-128.745
-128.023
-127.478
-127.132
-127.044
-126.614
-127.479
-131.231
-135.607
-139.924
-140.02
-130.913
-118.126
-105.34
-98.035
-103.736
-115.791
-128.559
-138.174
-138.248
-133.345
-128.093
-123.518
-122.44
-123.217
-123.74
-124.406
-124.942
-125.485
-126.459
-127.578
-128.612
-129.63
-130.642
-131.615
-132.548
-133.453
-134.331
-135.218
-136.157
-137.125
-138.098
-139.078
-140.059
-141.035
-142.004
-142.956
-143.879
-144.769
-145.623
-146.436
-147.21
-147.945
-148.64
-149.293
-149.905
-150.473
-150.998
-151.477
-151.905
-152.269
-152.561
-152.774
-152.904
-152.951
-152.914
-152.791
-152.581
-152.287
-151.911
-151.461
-150.935
-150.325
-149.626
-148.837
-147.968
-147.044
-146.084
-145.093
-144.077
-143.032
-141.936
-140.772
-139.505
-138.067
-136.395
-134.419
-132.078
-129.341
-126.18
-122.582
-118.547
-114.049
-109.072
-103.647
-97.804
-91.607
-85.198
-78.678
-72.164
-65.849
-59.887
-54.51
-50.03
-46.642
-44.466
-43.549
-43.796
-45.232
-48.084
-52.225
-57.221
-62.577
-67.528
-71.712
-75.365
-78.256
-79.618
-79.109
-76.865
-73.458
-70.288
-67.912
-65.297
-61.698
-56.848
-50.04
-39.997
-24.675
-0.904
33.359
77.508
130.305
190.073
254.234
319.356
380.827
433.04
471.318
493.619
499.243
488.715
463.806
427.31
383.354
336.542
291.004
249.349
212.973
182.386
157.337
136.932
119.547
103.731
88.345
72.834
57.39
42.419
28.458
16.221
6.48
-0.335
-4.086
-4.885
-3.197
0.489
5.692
11.87
18.518
25.193
31.55
37.318
42.269
46.217
48.991
50.464
50.561
49.262
46.602
42.668
37.597
31.547
24.692
17.205
9.262
1.068
-7.216
-15.455
-23.518
-31.32
-38.782
-45.824
-52.397
-58.478
-64.053
-69.134
-73.747
-77.905
-81.64
-84.988
-87.987
-90.694
-93.144
-95.347
-97.31
-99.022
-100.473
-101.656
-102.551
-103.125
-103.355
-103.218
-102.694
-101.773
-100.442
-98.68
-96.475
-93.81
-90.68
-87.085
-83.033
-78.532
-73.596
-68.245
-62.502
-56.397
-49.961
-43.221
-36.208
-28.951
-21.483
-13.84
-6.058
1.826
9.777
17.755
25.72
33.631
41.447
49.131
56.645
63.951
71.012
77.792
84.256
90.374
96.12
101.468
106.393
110.871
114.877
118.403
121.445
123.977
125.979
127.439
128.34
128.701
128.559
127.901
126.714
125.073
123.041
120.673
118.047
115.143
111.899
108.393
104.747
100.756
96.174
91.204
85.862
80.131
74.648
67.83
58.141
47.862
37.709
31.843
35.236
42.453
49.878
52.114
41.732
25.352
8.586
-4.716
-8.207
-6.395
-3.855
-1.595
-2.401
-4.645
-6.234
-7.566
-8.372
-8.794
-9.259
-9.495
-9.286
-8.714
-7.805
-6.543
-4.949
-3.05
-0.871
1.532
4.095
6.818
9.703
12.723
15.859
19.092
22.398
25.763
29.175
32.612
36.053
39.484
42.886
46.248
49.558
52.802
55.973
59.06
62.057
64.958
67.757
70.45
73.035
75.511
77.876
80.13
82.276
84.315
86.25
88.085
89.826
91.477
93.043
94.532
95.95
97.303
98.601
99.849
101.056
102.23
103.377
104.504
105.619
106.725
107.829
108.932
110.038
111.149
112.265
113.386
114.512
115.641
116.772
117.903
119.03
120.152
121.264
122.362
123.443
124.502
125.535
126.536
127.502
128.429
129.312
130.149
130.937
131.673
132.356
132.985
133.559
134.079
134.546
134.961
135.328
135.65
135.935
136.189
136.421
136.638
136.852
137.073
137.314
137.587
137.9
138.267
138.697
139.2
139.788
140.471
141.256
142.153
143.17
144.316
145.595
147.015
148.577
150.284
152.133
154.122
156.243
158.488
160.848
163.311
165.867
168.504
171.211
173.977
176.789
179.637
182.503
185.371
188.216
191.015
193.75
196.402
198.955
201.395
203.704
205.869
207.886
209.749
211.446
212.954
214.234
215.255
216.007
216.49
216.712
216.686
216.419
215.935
215.288
214.532
213.731
212.936
212.158
211.41
210.734
210.196
209.888
209.884
210.18
210.744
211.575
212.658
214.008
215.617
217.342
219.031
220.531
221.675
222.379
222.61
222.23
221.031
218.975
216.184
213.062
210.29
208.425
207.867
208.939
211.921
216.694
222.77
229.305
234.87
238.035
237.634
233.001
224.308
213.1
201.571
191.971
187.603
192.259
209.873
244.062
294.838
358.142
430.082
508.281
594.569
692.709
798.494
898.626
971.413
996.685
968.383
893.742
790.958
674.134
546.978
411.55
270.886
140.158
41.616
-12.357
-22.374
-4.354
20.945
41.249
54.19
64.673
76.603
89.564
100.352
104.672
101.672
93.3
81.896
70.486
60.905
53.488
48.52
45.751
44.373
43.696
42.839
40.744
36.885
31.126
23.463
14.187
3.619
-8.02
-20.374
-33.055
-45.79
-58.325
-70.507
-82.27
-93.526
-104.2
-114.243
-123.613
-132.312
-140.372
-147.82
-154.704
-161.071
-166.961
-172.441
-177.582
-182.455
-187.143
-191.702
-196.167
-200.567
-204.916
-209.219
-213.485
-217.702
-221.846
-225.898
-229.842
-233.665
-237.36
-240.915
-244.313
-247.536
-250.565
-253.386
-255.989
-258.367
-260.512
-262.419
-264.086
-265.514
-266.709
-267.675
-268.414
-268.928
-269.217
-269.285
-269.138
-268.781
-268.221
-267.466
-266.527
-265.417
-264.15
-262.742
-261.207
-259.562
-257.821
-256.001
-254.12
-252.192
-250.236
-248.267
-246.303
-244.361
-242.459
-240.615
-238.846
-237.17
-235.603
-234.162
-232.862
-231.718
-230.743
-229.95
-229.35
-228.954
-228.77
-228.806
-229.066
-229.555
-230.276
-231.227
-232.406
-233.81
-235.433
-237.266
-239.3
-241.526
-243.931
-246.503
-249.229
-252.092
-255.079
-258.174
-261.358
-264.615
-267.925
-271.27
-274.63
-277.986
-281.316
-284.601
-287.82
-290.952
-293.979
-296.88
-299.636
-302.228
-304.641
-306.856
-308.86
-310.638
-312.18
-313.474
-314.513
-315.29
-315.802
-316.044
-316.017
-315.722
-315.161
-314.338
-313.259
-311.931
-310.363
-308.566
-306.551
-304.331
-301.92
-299.335
-296.591
-293.707
-290.702
-287.595
-284.408
-281.162
-277.88
-274.585
-271.3
-268.048
-264.852
-261.735
-258.719
-255.824
-253.072
-250.479
-248.064
-245.842
-243.825
-242.027
-240.457
-239.123
-238.03
-237.183
-236.584
-236.232
-236.124
-236.257
-236.623
-237.216
-238.025
-239.038
-240.241
-241.62
-243.158
-244.836
-246.635
-248.532
-250.506
-252.53
-254.581
-256.632
-258.658
-260.63
-262.523
-264.309
-265.962
-267.458
-268.771
-269.877
-270.752
-271.376
-271.728
-271.788
-271.542
-270.972
-270.068
-268.817
-267.213
-265.248
-262.918
-260.222
-257.158
-253.727
-249.933
-245.778
-241.27
-236.416
-231.225
-225.709
-219.88
-213.755
-207.349
-200.681
-193.767
-186.627
-179.281
-171.752
-164.058
-156.222
-148.266
-140.212
-132.085
-123.91
-115.713
-107.517
-99.347
-91.225
-83.176
-75.22
-67.378
-59.667
-52.105
-44.711
-37.501
-30.494
-23.708
-17.164
-10.88
-4.878
0.827
6.219
11.283
16.011
20.393
24.424
28.101
31.422
34.38
36.969
39.181
41.013
42.467
43.546
44.26
44.617
44.624
44.296
43.659
42.727
41.504
39.984
38.14
35.965
33.476
30.689
27.623
24.297
20.725
16.949
13.048
9.099
5.179
1.33
-2.448
-6.124
-9.632
-12.892
-15.791
-18.28
-20.396
-22.135
-23.466
-24.351
-24.71
-24.584
-24.172
-23.681
-23.339
-23.318
-23.619
-24.352
-25.792
-27.998
-30.888
-34.043
-36.531
-37.586
-36.853
-34.105
-29.293
-22.871
-15.451
-8.237
-3.422
-3.104
-8.892
-21.378
-39.698
-61.59
-84.049
-103.494
-115.255
-113.91
-94.338
-53.65
8.531
88.235
180.092
280.752
383.458
483.616
576.133
649.095
697.634
715.192
692.284
630.68
529.666
395.288
248.613
109.444
-1.716
-71.281
-103.292
-111.966
-112.151
-113.299
-115.916
-112.724
-99.101
-77.103
-51.919
-30.075
-15.276
-7.26
-4.298
-4.889
-7.692
-11.021
-13.586
-14.519
-13.403
-10.696
-7.123
-3.166
0.505
3.054
4.012
3.128
0.39
-3.869
-9.338
-15.744
-22.729
-29.919
-37.009
-43.785
-50.132
-55.991
-61.295
-65.97
-69.949
-73.2
-75.73
-77.542
-78.646
-79.065
-78.823
-77.975
-76.597
-74.76
-72.539
-69.982
-67.115
-63.96
-60.531
-56.832
-52.865
-48.626
-44.094
-39.264
-34.134
-28.702
-22.974
-16.951
-10.627
-4.004
2.92
10.142
17.651
25.434
33.474
41.751
50.24
58.916
67.745
76.698
85.747
94.864
104.023
113.196
122.355
131.471
140.516
149.459
158.27
166.919
175.373
183.604
191.582
199.282
206.679
213.75
220.473
226.83
232.802
238.371
243.524
248.246
252.524
256.349
259.71
262.601
265.016
266.953
268.409
269.385
269.883
269.906
269.459
268.548
267.181
265.367
263.117
260.445
257.363
253.888
250.037
245.829
241.281
236.413
231.245
225.796
220.085
214.134
207.961
201.585
195.028
188.309
181.448
174.466
167.382
160.217
152.99
145.72
138.427
131.129
123.844
116.591
109.389
102.253
95.202
88.252
81.419
74.715
68.155
61.751
55.513
49.452
43.575
37.892
32.409
27.133
22.07
17.225
12.604
8.208
4.041
0.104
-3.602
-7.078
-10.326
-13.349
-16.151
-18.735
-21.108
-23.277
-25.248
-27.031
-28.636
-30.073
-31.355
-32.493
-33.501
-34.392
-35.179
-35.877
-36.497
-37.052
-37.555
-38.019
-38.454
-38.872
-39.284
-39.701
-40.132
-40.589
-41.078
-41.607
-42.183
-42.811
-43.495
-44.237
-45.04
-45.904
-46.828
-47.811
-48.849
-49.939
-51.075
-52.25
-53.456
-54.685
-55.925
-57.166
-58.395
-59.599
-60.766
-61.883
-62.935
-63.909
-64.791
-65.569
-66.228
-66.755
-67.137
-67.361
-67.414
-67.284
-66.96
-66.433
-65.692
-64.729
-63.539
-62.116
-60.454
-58.551
-56.405
-54.014
-51.379
-48.499
-45.377
-42.016
-38.419
-34.592
-30.541
-26.274
-21.798
-17.124
-12.262
-7.223
-2.017
3.343
8.844
14.474
20.219
26.066
32.001
38.009
44.074
50.18
56.312
62.452
68.586
74.697
80.771
86.792
92.745
98.617
104.393
110.062
115.608
121.015
126.266
131.342
136.228
140.907
145.363
149.581
153.547
157.252
160.691
163.859
166.751
169.36
171.681
173.704
175.419
176.821
177.905
178.671
179.124
179.269
179.12
178.689
177.988
177.026
175.794
174.287
172.503
170.445
168.128
165.585
162.855
159.985
157.029
154.042
151.067
148.155
145.348
142.676
140.16
137.824
135.717
133.901
132.424
131.315
130.554
130.077
129.831
129.752
129.779
129.88
129.996
130.03
129.875
129.42
128.591
127.379
125.692
123.336
120.304
116.789
113.335
110.885
110.277
112.039
116.528
123.886
133.692
145.217
157.032
166.753
172.117
171.381
163.886
150.476
133.382
115.313
99.831
92.081
97.198
120.055
164.019
227.295
305.871
397.478
496.82
601.077
706.586
797.998
864.192
894.447
880.189
830.851
753.635
656.734
550.22
434.457
318.732
213.266
127.053
71.985
44.508
38.231
46.265
57.153
70.043
84.301
96.484
106.924
112.637
111.264
104.508
93.883
81.513
70.314
61.696
56.146
54.089
55.184
58.658
63.824
69.723
75.28
79.927
83.41
85.61
86.672
86.727
85.873
84.338
82.365
80.157
77.87
75.605
73.47
71.578
70.027
68.93
68.354
68.31
68.818
69.875
71.45
73.528
76.072
79.016
82.313
85.9
89.704
93.652
97.653
101.627
105.52
109.285
112.885
116.303
119.522
122.535
125.357
127.99
130.435
132.699
134.78
136.68
138.408
139.977
141.398
142.683
143.837
144.864
145.767
146.547
147.2
147.721
148.1
148.327
148.398
148.309
148.053
147.624
147.015
146.218
145.225
144.028
142.616
140.976
139.096
136.963
134.564
131.888
128.922
125.655
122.074
118.168
113.927
109.341
104.4
99.095
93.419
87.365
80.929
74.109
66.904
59.315
51.345
43.003
34.294
25.232
15.828
6.098
-3.94
-14.267
-24.86
-35.694
-46.743
-57.979
-69.373
-80.892
-92.503
-104.173
-115.865
-127.545
-139.176
-150.721
-162.143
-173.405
-184.471
-195.305
-205.87
-216.132
-226.058
-235.615
-244.771
-253.498
-261.769
-269.559
-276.845
-283.608
-289.83
-295.497
-300.598
-305.126
-309.074
-312.441
-315.227
-317.436
-319.075
-320.153
-320.681
-320.675
-320.149
-319.124
-317.621
-315.661
-313.271
-310.475
-307.302
-303.78
-299.94
-295.812
-291.428
-286.819
-282.018
-277.058
-271.971
-266.79
-261.546
-256.272
-250.997
-245.751
-240.561
-235.454
-230.455
-225.587
-220.871
-216.325
-211.969
-207.817
-203.882
-200.177
-196.71
-193.489
-190.519
-187.804
-185.346
-183.142
-181.192
-179.491
-178.033
-176.812
-175.82
-175.046
-174.481
-174.112
-173.926
-173.91
-174.049
-174.326
-174.727
-175.234
-175.832
-176.502
-177.23
-177.999
-178.792
-179.594
-180.39
-181.166
-181.908
-182.603
-183.237
-183.8
-184.283
-184.675
-184.969
-185.159
-185.24
-185.206
-185.056
-184.789
-184.403
-183.899
-183.279
-182.545
-181.699
-180.748
-179.694
-178.544
-177.303
-175.978
-174.576
-173.106
-171.575
-169.99
-168.361
-166.695
-165.002
-163.289
-161.566
-159.84
-158.12
-156.412
-154.725
-153.066
-151.441
-149.854
-148.311
-146.816
-145.374
-143.987
-142.658
-141.388
-140.176
-139.025
-137.935
-136.906
-135.935
-135.023
-134.169
-133.375
-132.643
-131.975
-131.372
-130.836
-130.366
-129.967
-129.637
-129.372
-129.171
-129.03
-128.949
-128.927
-128.968
-129.072
-129.242
-129.489
-129.817
-130.233
-130.736
-131.319
-131.981
-132.727
-133.562
-134.504
-135.559
-136.726
-138.012
-139.423
-140.953
-142.588
-144.284
-145.974
-147.613
-149.168
-150.614
-151.943
-153.123
-154.105
-154.861
-155.376
-155.649
-155.695
-155.508
-155.068
-154.409
-153.627
-152.868
-152.309
-152.074
-152.221
-152.782
-153.816
-155.443
-157.814
-161.039
-165.152
-170.082
-175.797
-182.409
-189.883
-197.908
-205.861
-212.708
-217.508
-219.957
-219.937
-217.228
-212.031
-204.79
-196.442
-189.219
-185.224
-184.954
-188.105
-193.737
-199.899
-204.668
-205.489
-197.609
-176.33
-139.472
-86.659
-19.522
58.548
144.125
232.427
315.628
385.194
434.844
460.679
461.529
437.954
390.659
322.554
240.018
151.316
63.977
-16.572
-87.148
-145.313
-188.357
-215.469
-228.569
-231.749
-229.658
-225.337
-220.233
-215.666
-213.503
-214.782
-219.257
-225.277
-230.336
-233.05
-233.236
-230.918
-225.965
-218.38
-208.436
-196.985
-185.484
-174.893
-165.555
-157.613
-151.029
-145.819
-142.092
-139.774
-138.548
-138.144
-138.35
-138.979
-139.964
-141.166
-142.34
-143.29
-143.828
-143.813
-143.197
-141.949
-140.035
-137.447
-134.198
-130.309
-125.847
-120.877
-115.452
-109.637
-103.493
-97.098
-90.552
-83.933
-77.304
-70.707
-64.163
-57.684
-51.283
-44.958
-38.696
-32.487
-26.321
-20.19
-14.095
-8.034
-1.999
4.021
10.035
16.052
22.071
28.09
34.107
40.117
46.112
52.084
58.016
63.9
69.729
75.497
81.2
86.831
92.384
97.853
103.234
108.52
113.704
118.776
123.727
128.548
133.23
137.765
142.143
146.355
150.391
154.242
157.9
161.355
164.598
167.622
170.419
172.982
175.307
177.39
179.228
180.82
182.163
183.26
184.111
184.718
185.084
185.213
185.108
184.776
184.224
183.457
182.486
181.317
179.962
178.432
176.738
174.894
172.912
170.807
168.593
166.286
163.901
161.455
158.965
156.446
153.916
151.39
148.884
146.414
143.994
141.637
139.356
137.164
135.069
133.083
131.212
129.465
127.846
126.361
125.014
123.805
122.737
121.809
121.019
120.365
119.843
119.448
119.174
119.014
118.958
118.998
119.122
119.317
119.572
119.873
120.204
120.551
120.898
121.228
121.526
121.775
121.957
122.058
122.061
121.949
121.71
121.327
120.788
120.081
119.195
118.118
116.842
115.359
113.661
111.742
109.597
107.222
104.616
101.777
98.705
95.402
91.873
88.12
84.152
79.973
75.594
71.024
66.272
61.352
56.275
51.055
45.708
40.248
34.692
29.056
23.359
17.616
11.846
6.063
0.285
-5.472
-11.193
-16.863
-22.467
-27.989
-33.416
-38.734
-43.929
-48.99
-53.904
-58.663
-63.257
-67.678
-71.918
-75.973
-79.836
-83.502
-86.968
-90.23
-93.284
-96.129
-98.765
-101.192
-103.41
-105.424
-107.236
-108.851
-110.274
-111.51
-112.563
-113.438
-114.14
-114.672
-115.039
-115.247
-115.302
-115.21
-114.98
-114.618
-114.134
-113.536
-112.831
-112.027
-111.133
-110.156
-109.104
-107.986
-106.811
-105.591
-104.336
-103.058
-101.77
-100.487
-99.222
-97.989
-96.801
-95.669
-94.605
-93.615
-92.707
-91.888
-91.166
-90.547
-90.041
-89.658
-89.413
-89.323
-89.402
-89.659
-90.096
-90.71
-91.495
-92.443
-93.544
-94.786
-96.163
-97.673
-99.33
-101.146
-103.127
-105.26
-107.522
-109.861
-112.221
-114.551
-116.797
-118.923
-120.907
-122.736
-124.429
-126.005
-127.482
-128.846
-130.034
-130.967
-131.585
-131.841
-131.717
-131.261
-130.537
-129.623
-128.628
-127.572
-126.445
-125.259
-123.96
-122.532
-120.956
-119.131
-117.087
-114.98
-112.81
-110.523
-107.917
-104.302
-99.003
-91.754
-82.251
-70.463
-56.906
-41.921
-26.324
-11.987
-0.712
6.386
8.869
7.554
4.131
-0.312
-3.785
-2.72
6.753
28.777
64.069
109.105
160.75
215.976
276.944
351.406
438.909
534.093
622.321
674.944
675.167
613.961
491.886
335.583
169.426
18.139
-90.265
-152.146
-170.826
-156.633
-133.982
-114.603
-102.042
-96.259
-87.891
-73.437
-56.192
-39.427
-27.891
-23.145
-22.853
-24.62
-26.203
-26.255
-24.264
-19.978
-13.516
-5.356
3.687
12.687
20.777
27.455
32.509
35.858
37.613
37.947
37.055
35.223
32.78
29.946
26.897
23.814
20.798
17.975
15.474
13.355
11.666
10.442
9.678
9.359
9.473
9.976
10.831
12.013
13.474
15.17
17.054
19.059
21.145
23.287
25.466
27.68
29.934
32.233
34.604
37.084
39.705
42.498
45.49
48.699
52.149
55.867
59.877
64.205
68.869
73.877
79.24
84.964
91.051
97.5
104.305
111.453
118.932
126.731
134.838
143.238
151.914
160.845
170.007
179.379
188.934
198.642
208.474
218.395
228.372
238.372
248.359
258.297
268.15
277.881
287.453
296.831
305.979
314.861
323.443
331.692
339.576
347.066
354.134
360.753
366.899
372.549
377.683
382.285
386.34
389.834
392.759
395.108
396.877
398.065
398.675
398.709
398.177
397.086
395.448
393.279
390.592
387.407
383.742
379.618
375.057
370.082
364.719
358.992
352.928
346.554
339.896
332.983
325.842
318.502
310.99
303.335
295.563
287.703
279.781
271.822
263.851
255.893
247.97
240.103
232.312
224.615
217.03
209.572
202.257
195.098
188.107
181.297
174.677
168.257
162.045
156.05
150.278
144.735
139.426
134.355
129.525
124.938
120.597
116.501
112.65
109.042
105.676
102.547
99.651
96.983
94.535
92.302
90.275
88.445
86.804
85.343
84.052
82.92
81.939
81.096
80.38
79.779
79.28
78.871
78.538
78.266
78.041
77.85
77.676
77.503
77.318
77.102
76.841
76.519
76.118
75.624
75.021
74.293
73.429
72.413
71.236
69.886
68.353
66.63
64.708
62.582
60.247
57.698
54.933
51.949
48.748
45.329
41.698
37.858
33.816
29.579
25.156
20.557
15.793
10.877
5.823
0.645
-4.64
-10.014
-15.457
-20.95
-26.47
-31.994
-37.501
-42.967
-48.369
-53.687
-58.899
-63.984
-68.924
-73.698
-78.289
-82.678
-86.848
-90.783
-94.468
-97.889
-101.036
-103.898
-106.471
-108.75
-110.732
-112.415
-113.802
-114.893
-115.692
-116.203
-116.432
-116.387
-116.079
-115.521
-114.729
-113.72
-112.518
-111.148
-109.637
-108.007
-106.285
-104.493
-102.656
-100.796
-98.931
-97.074
-95.242
-93.456
-91.738
-90.116
-88.617
-87.258
-86.058
-85.031
-84.19
-83.546
-83.103
-82.848
-82.775
-82.883
-83.186
-83.717
-84.497
-85.528
-86.799
-88.286
-89.965
-91.805
-93.756
-95.736
-97.657
-99.447
-101.067
-102.517
-103.802
-104.91
-105.803
-106.413
-106.698
-106.638
-106.238
-105.516
-104.473
-103.137
-101.566
-99.861
-98.208
-96.779
-95.709
-95.097
-94.94
-95.15
-95.757
-96.911
-98.561
-100.506
-102.205
-102.752
-101.687
-99.056
-94.911
-89.173
-81.797
-72.986
-63.987
-57.211
-54.238
-55.161
-59.106
-64.594
-70.324
-74.871
-75.177
-66.381
-44.551
-8.09
42.25
103.845
173.991
249.575
325.219
393.391
446.94
480.626
492.05
481.247
448.572
395.617
326.896
249.104
169.514
94.857
29.588
-23.564
-61.751
-83.718
-90.888
-86.244
-73.9
-58.244
-41.971
-27.003
-15.821
-9.771
-8.77
-12.058
-17.812
-23.927
-29.568
-34.268
-37.243
-38.256
-37.347
-34.727
-31.305
-28.145
-25.708
-24.188
-23.678
-24.044
-25.263
-27.304
-29.882
-32.629
-35.229
-37.488
-39.377
-40.951
-42.218
-43.148
-43.688
-43.789
-43.465
-42.74
-41.62
-40.109
-38.19
-35.877
-33.233
-30.35
-27.33
-24.239
-21.104
-17.936
-14.747
-11.55
-8.36
-5.179
-1.986
1.234
4.481
7.754
11.044
14.348
17.68
21.056
24.49
27.993
31.573
35.231
38.973
42.798
46.702
50.673
54.696
58.755
62.837
66.93
71.019
75.091
79.127
83.11
87.022
90.841
94.542
98.101
101.488
104.675
107.634
110.336
112.752
114.853
116.612
118.001
118.995
119.567
119.694
119.352
118.521
117.181
115.314
112.907
109.946
106.422
102.33
97.668
92.434
86.633
80.27
73.355
65.9
57.92
49.433
40.461
31.027
21.157
10.882
0.233
-10.754
-22.044
-33.599
-45.379
-57.345
-69.454
-81.665
-93.935
-106.221
-118.483
-130.677
-142.762
-154.698
-166.447
-177.969
-189.231
-200.196
-210.834
-221.113
-231.006
-240.488
-249.536
-258.128
-266.248
-273.881
-281.014
-287.639
-293.748
-299.339
-304.41
-308.962
-312.999
-316.528
-319.556
-322.093
-324.153
-325.748
-326.895
-327.612
-327.917
-327.829
-327.371
-326.563
-325.428
-323.989
-322.269
-320.292
-318.081
-315.66
-313.053
-310.284
-307.377
-304.355
-301.24
-298.054
-294.817
-291.55
-288.271
-284.999
-281.751
-278.542
-275.387
-272.3
-269.295
-266.384
-263.576
-260.882
-258.31
-255.866
-253.557
-251.387
-249.36
-247.478
-245.744
-244.159
-242.722
-241.434
-240.292
-239.295
-238.439
-237.72
-237.133
-236.672
-236.331
-236.103
-235.98
-235.955
-236.021
-236.169
-236.39
-236.677
-237.019
-237.407
-237.832
-238.283
-238.752
-239.226
-239.696
-240.153
-240.587
-240.989
-241.351
-241.663
-241.916
-242.103
-242.216
-242.247
-242.187
-242.028
-241.762
-241.384
-240.888
-240.267
-239.516
-238.63
-237.605
-236.437
-235.122
-233.657
-232.037
-230.258
-228.32
-226.219
-223.954
-221.523
-218.927
-216.164
-213.237
-210.147
-206.899
-203.494
-199.937
-196.23
-192.379
-188.39
-184.271
-180.027
-175.667
-171.201
-166.641
-162.002
-157.297
-152.54
-147.744
-142.926
-138.099
-133.278
-128.472
-123.694
-118.958
-114.277
-109.67
-105.153
-100.74
-96.453
-92.315
-88.343
-84.558
-80.97
-77.578
-74.396
-71.437
-68.718
-66.262
-64.081
-62.172
-60.543
-59.202
-58.14
-57.339
-56.754
-56.311
-55.968
-55.694
-55.465
-55.277
-55.091
-54.839
-54.483
-53.989
-53.343
-52.554
-51.601
-50.449
-49.127
-47.72
-46.369
-45.247
-44.448
-43.998
-43.901
-44.183
-44.959
-46.37
-48.527
-51.484
-55.171
-59.561
-64.761
-70.708
-77.134
-83.526
-88.933
-92.465
-93.839
-92.831
-89.334
-83.776
-76.308
-67.454
-58.927
-52.304
-48.441
-47.797
-49.463
-51.343
-52.378
-51.169
-44.584
-29.162
-1.123
42.492
99.547
164.196
232.952
303.788
379.868
467.698
564.006
656.776
725.922
746.227
704.625
605.46
465.145
311.605
172.05
60.115
-17.527
-64.391
-92.805
-109.731
-120.955
-128.844
-129.191
-121.402
-107.417
-90.573
-76.63
-68.77
-67.504
-71.894
-79.697
-88.821
-97.277
-103.554
-106.981
-107.248
-104.573
-99.546
-92.727
-84.965
-77.301
-70.342
-64.39
-59.541
-55.601
-52.427
-49.943
-47.941
-46.147
-44.338
-42.312
-39.939
-37.189
-34.019
-30.369
-26.177
-21.397
-16.03
-10.11
-3.682
3.211
10.535
18.245
26.272
34.531
42.931
51.375
59.766
68.028
76.097
83.919
91.451
98.659
105.522
112.036
118.21
124.048
129.551
134.72
139.56
144.081
148.299
152.232
155.904
159.332
162.535
165.533
168.34
170.971
173.44
175.756
177.926
179.958
181.865
183.658
185.351
186.956
188.484
189.945
191.349
192.704
194.018
195.292
196.53
197.731
198.896
200.022
201.108
202.15
203.143
204.081
204.956
205.762
206.489
207.13
207.673
208.109
208.428
208.619
208.676
208.589
208.351
207.956
207.397
206.67
205.772
204.698
203.448
202.018
200.41
198.623
196.659
194.522
192.215
189.744
187.114
184.334
181.411
178.355
175.175
171.882
168.487
165.003
161.441
157.816
154.14
150.426
146.689
142.94
139.194
135.461
131.754
128.083
124.458
120.886
117.377
113.936
110.569
107.282
104.078
100.961
97.932
94.995
92.15
89.398
86.74
84.176
81.707
79.332
77.051
74.864
72.769
70.767
68.857
67.036
65.303
63.657
62.097
60.621
59.229
57.919
56.692
55.547
54.488
53.513
52.628
51.834
51.135
50.536
50.042
49.658
49.392
49.249
49.236
49.36
49.625
50.039
50.605
51.328
52.211
53.256
54.466
55.839
57.377
59.079
60.942
62.964
65.141
67.468
69.941
72.551
75.292
78.154
81.128
84.201
87.364
90.602
93.901
97.248
100.625
104.016
107.403
110.768
114.092
117.355
120.539
123.624
126.593
129.428
132.114
134.635
136.976
139.126
141.071
142.803
144.31
145.584
146.619
147.41
147.953
148.247
148.29
148.086
147.637
146.949
146.028
144.881
143.516
141.941
140.168
138.207
136.071
133.774
131.33
128.754
126.062
123.272
120.4
117.459
114.462
111.422
108.352
105.261
102.16
99.057
95.959
92.873
89.808
86.77
83.762
80.786
77.842
74.926
72.032
69.155
66.283
63.403
60.504
57.576
54.61
51.597
48.531
45.405
42.213
38.951
35.611
32.182
28.653
25.019
21.274
17.418
13.451
9.369
5.175
0.876
-3.513
-7.99
-12.555
-17.223
-22.015
-26.934
-31.968
-37.106
-42.334
-47.638
-52.991
-58.337
-63.583
-68.634
-73.419
-77.906
-82.074
-85.875
-89.248
-92.109
-94.399
-96.127
-97.303
-97.908
-97.893
-97.193
-95.817
-93.902
-91.685
-89.423
-87.322
-85.463
-83.954
-83.016
-82.717
-83.024
-83.652
-83.904
-83.154
-81.049
-77.394
-72.166
-65.74
-58.574
-51.445
-45.89
-43.475
-45.558
-52.756
-64.427
-78.915
-94.194
-107.551
-115.092
-112.4
-94.683
-60.264
-11.684
48.076
117.238
198.98
298.548
413.066
529.029
622.989
670.958
663.841
608.563
523.104
428.315
333.498
238.596
145.062
53.744
-27.337
-85.689
-121.753
-138.472
-141.944
-142.924
-141.524
-137.32
-132.27
-125.96
-122.009
-123.392
-129.222
-138.31
-148.656
-157.749
-164.566
-168.676
-169.545
-167.298
-162.496
-155.829
-148.33
-141.169
-134.977
-130.044
-126.57
-124.481
-123.723
-124.279
-125.934
-128.425
-131.566
-135.165
-139.103
-143.286
-147.521
-151.622
-155.431
-158.805
-161.683
-164.04
-165.838
-167.068
-167.742
-167.872
-167.505
-166.693
-165.467
-163.876
-161.975
-159.83
-157.532
-155.153
-152.738
-150.328
-147.936
-145.568
-143.227
-140.902
-138.564
-136.196
-133.776
-131.29
-128.731
-126.088
-123.343
-120.479
-117.478
-114.324
-111.013
-107.538
-103.897
-100.092
-96.127
-92.012
-87.764
-83.395
-78.914
-74.333
-69.662
-64.914
-60.103
-55.241
-50.343
-45.423
-40.498
-35.587
-30.709
-25.883
-21.13
-16.468
-11.916
-7.495
-3.224
0.88
4.798
8.514
12.013
15.279
18.301
21.066
23.567
25.795
27.746
29.417
30.807
31.917
32.752
33.316
33.618
33.665
33.47
33.044
32.401
31.556
30.525
29.323
27.97
26.485
24.886
23.194
21.431
19.616
17.771
15.916
14.07
12.254
10.486
8.783
7.161
5.637
4.223
2.932
1.776
0.764
-0.098
-0.804
-1.35
-1.734
-1.959
-2.026
-1.939
-1.704
-1.33
-0.824
-0.196
0.543
1.381
2.306
3.305
4.363
5.468
6.604
7.757
8.913
10.059
11.181
12.268
13.307
14.288
15.202
16.041
16.797
17.464
18.036
18.51
18.882
19.152
19.32
19.387
19.356
19.232
19.021
18.728
18.364
17.934
17.45
16.919
16.353
15.762
15.157
14.548
13.947
13.365
12.813
12.3
11.837
11.431
11.089
10.818
10.622
10.504
10.466
10.51
10.634
10.838
11.118
11.472
11.895
12.379
12.917
13.502
14.123
14.769
15.431
16.096
16.753
17.391
17.997
18.56
19.069
19.513
19.878
20.155
20.333
20.401
20.35
20.17
19.856
19.401
18.803
18.059
17.169
16.134
14.956
13.641
12.192
10.618
8.926
7.124
5.226
3.242
1.188
-0.924
-3.077
-5.255
-7.443
-9.623
-11.781
-13.902
-15.972
-17.979
-19.908
-21.745
-23.479
-25.096
-26.587
-27.941
-29.146
-30.195
-31.082
-31.807
-32.373
-32.782
-33.039
-33.147
-33.117
-32.955
-32.672
-32.274
-31.765
-31.151
-30.446
-29.663
-28.823
-27.943
-27.039
-26.129
-25.231
-24.358
-23.528
-22.75
-22.03
-21.378
-20.806
-20.334
-20.001
-19.834
-19.847
-20.05
-20.437
-20.993
-21.708
-22.548
-23.465
-24.422
-25.365
-26.248
-27.042
-27.705
-28.205
-28.51
-28.546
-28.258
-27.62
-26.626
-25.334
-23.822
-22.136
-20.347
-18.533
-16.781
-15.275
-14.2
-13.732
-14.052
-15.175
-17.159
-20.226
-24.38
-29.469
-35.132
-40.484
-44.714
-47.649
-49.079
-48.836
-47.305
-44.595
-41.293
-39.235
-39.897
-43.808
-51.027
-60.378
-69.706
-77.64
-82.015
-78.994
-65.023
-37.019
6.826
65.492
136.49
217.791
305.835
394.992
478.669
549.202
600.203
628.351
631.83
609.13
560.9
490.179
402.514
306.086
208.771
116.844
35.583
-30.374
-78.104
-106.649
-117.652
-115.358
-104.471
-89.514
-74.25
-61.687
-54.067
-52.479
-56.582
-64.748
-74.797
-84.341
-91.807
-96.357
-97.459
-95.2
-90.054
-82.738
-74.372
-66.183
-58.882
-52.819
-48.156
-44.782
-42.641
-41.701
-41.741
-42.506
-43.816
-45.49
-47.434
-49.578
-51.754
-53.798
-55.567
-56.929
-57.833
-58.268
-58.209
-57.656
-56.627
-55.135
-53.229
-50.96
-48.356
-45.463
-42.328
-39.006
-35.583
-32.124
-28.67
-25.259
-21.901
-18.598
-15.35
-12.143
-8.948
-5.746
-2.512
0.771
4.111
7.522
11.021
14.625
18.353
22.221
26.236
30.402
34.726
39.206
43.839
48.617
53.526
58.553
63.689
68.922
74.241
79.631
85.076
90.558
96.061
101.564
107.046
112.483
117.849
123.117
128.264
133.262
138.085
142.707
147.102
151.244
155.109
158.675
161.92
164.823
167.364
169.528
171.3
172.668
173.621
174.153
174.257
173.93
173.173
171.989
170.381
168.357
165.926
163.102
159.898
156.332
152.421
148.188
143.654
138.845
133.787
128.507
123.033
117.395
111.623
105.746
99.796
93.802
87.793
81.798
75.846
69.962
64.174
58.505
52.978
47.614
42.432
37.451
32.686
28.15
23.854
19.808
16.017
12.485
9.215
6.207
3.456
0.961
-1.287
-3.296
-5.073
-6.631
-7.982
-9.138
-10.115
-10.926
-11.588
-12.116
-12.527
-12.835
-13.057
-13.209
-13.304
-13.358
-13.383
-13.394
-13.401
-13.417
-13.452
-13.515
-13.614
-13.756
-13.945
-14.186
-14.481
-14.829
-15.23
-15.68
-16.176
-16.712
-17.283
-17.881
-18.5
-19.13
-19.762
-20.39
-21.002
-21.59
-22.146
-22.66
-23.125
-23.533
-23.877
-24.151
-24.352
-24.473
-24.513
-24.467
-24.336
-24.116
-23.808
-23.413
-22.931
-22.364
-21.718
-20.996
-20.204
-19.352
-18.447
-17.501
-16.523
-15.525
-14.521
-13.521
-12.538
-11.583
-10.668
-9.804
-9.002
-8.272
-7.623
-7.063
-6.6
-6.241
-5.991
-5.853
-5.829
-5.92
-6.125
-6.444
-6.874
-7.411
-8.052
-8.795
-9.634
-10.565
-11.583
-12.68
-13.848
-15.077
-16.356
-17.675
-19.021
-20.382
-21.745
-23.1
-24.436
-25.746
-27.024
-28.264
-29.459
-30.605
-31.699
-32.738
-33.717
-34.631
-35.476
-36.249
-36.952
-37.586
-38.155
-38.668
-39.133
-39.562
-39.966
-40.356
-40.747
-41.148
-41.566
-42.008
-42.486
-43.016
-43.628
-44.348
-45.191
-46.169
-47.287
-48.54
-49.914
-51.377
-52.87
-54.328
-55.682
-56.871
-57.855
-58.608
-59.118
-59.362
-59.301
-58.91
-58.205
-57.224
-56.021
-54.658
-53.2
-51.769
-50.571
-49.839
-49.807
-50.678
-52.595
-55.643
-59.865
-65.294
-71.959
-79.829
-88.8
-98.678
-109.217
-120.206
-131.412
-142.467
-152.85
-161.865
-168.754
-173.039
-174.472
-172.931
-168.572
-161.602
-152.137
-140.765
-128.325
-114.824
-99.893
-82.825
-61.759
-34.994
-1.601
39.987
89.327
142.357
195.869
247.435
298.002
352.365
409.266
459.519
485.847
469.792
404.079
292.085
149.197
-3.257
-146.569
-260.764
-332.224
-358.722
-346.569
-313.109
-276.086
-244.705
-220.942
-200.34
-179.722
-160.019
-144.086
-135.686
-135.298
-141
-150.49
-160.628
-169.395
-176.039
-179.934
-181.209
-180.663
-178.968
-176.959
-175.6
-175.303
-176.21
-178.375
-181.512
-185.267
-189.32
-193.23
-196.677
-199.565
-201.853
-203.569
-204.766
-205.407
-205.475
-205.004
-203.997
-202.469
-200.437
-197.889
-194.867
-191.456
-187.749
-183.855
-179.84
-175.722
-171.519
-167.244
-162.906
-158.52
-154.084
-149.581
-145.011
-140.385
-135.713
-131.011
-126.279
-121.504
-116.68
-111.797
-106.848
-101.833
-96.75
-91.599
-86.384
-81.114
-75.798
-70.452
-65.085
-59.705
-54.32
-48.938
-43.565
-38.212
-32.885
-27.592
-22.343
-17.149
-12.022
-6.974
-2.018
2.836
7.576
12.19
16.669
21.002
25.183
29.202
33.052
36.725
40.214
43.513
46.615
49.515
52.208
54.689
56.956
59.005
60.838
62.453
63.852
65.036
66.008
66.773
67.333
67.696
67.866
67.849
67.654
67.287
66.76
66.08
65.257
64.301
63.22
62.025
60.723
59.324
57.837
56.267
54.624
52.915
51.148
49.329
47.465
45.563
43.628
41.668
39.687
37.691
35.684
33.67
31.654
29.638
27.627
25.621
23.623
21.636
19.659
17.695
15.745
13.81
11.891
9.989
8.106
6.244
4.407
2.596
0.816
-0.929
-2.636
-4.298
-5.912
-7.471
-8.971
-10.405
-11.767
-13.053
-14.257
-15.373
-16.397
-17.323
-18.147
-18.864
-19.47
-19.962
-20.334
-20.583
-20.705
-20.699
-20.559
-20.286
-19.876
-19.328
-18.643
-17.821
-16.863
-15.77
-14.547
-13.197
-11.725
-10.136
-8.438
-6.637
-4.743
-2.764
-0.709
1.411
3.587
5.808
8.065
10.347
12.645
14.947
17.244
19.526
21.784
24.008
26.187
28.312
30.376
32.367
34.28
36.105
37.836
39.465
40.987
42.395
43.684
44.848
45.884
46.788
47.557
48.189
48.683
49.038
49.257
49.34
49.289
49.105
48.793
48.355
47.792
47.106
46.301
45.38
44.346
43.201
41.944
40.58
39.115
37.561
35.928
34.218
32.43
30.564
28.636
26.65
24.584
22.401
20.065
17.564
14.934
12.206
9.36
6.406
3.433
0.584
-2.006
-4.286
-6.343
-8.275
-10.023
-11.668
-13.669
-16.405
-19.963
-24.243
-28.718
-34.352
-43.989
-58.774
-76.963
-91.469
-91.94
-74.102
-43.084
-13.815
-3.52
-19.503
-55.826
-95.792
-123.234
-131.622
-124.575
-112.795
-104.689
-102.826
-105.933
-110.358
-114.18
-117.534
-120.656
-123.809
-126.799
-129.121
-130.631
-131.373
-131.309
-130.422
-128.745
-126.364
-123.429
-120.077
-116.385
-112.439
-108.407
-104.492
-100.922
-97.912
-95.608
-94.119
-93.482
-93.683
-94.711
-96.508
-98.99
-102.053
-105.496
-109.081
-112.542
-115.501
-117.488
-118.036
-116.554
-112.412
-105.301
-95.139
-82.184
-67.05
-50.217
-31.947
-12.453
8.054
29.888
53.862
81.214
113.514
151.633
195.556
244.334
296.406
349.177
398.8
441.222
472.45
489.411
490.261
474.771
443.77
399.595
346.909
290.319
233.812
180.809
133.795
94.118
62.782
39.705
22.247
8.099
-4.06
-15.293
-25.857
-35.659
-45.218
-54.799
-63.022
-68.872
-72.063
-72.411
-70.558
-67.25
-62.585
-56.623
-50.01
-43.258
-36.738
-30.918
-25.79
-21.272
-17.505
-14.553
-12.394
-10.999
-10.227
-9.825
-9.608
-9.385
-8.942
-8.173
-6.981
-5.279
-3.025
-0.168
3.314
7.401
12.067
17.295
23.068
29.361
36.129
43.276
50.697
58.289
65.943
73.584
81.153
88.596
95.876
102.968
109.859
116.548
123.048
129.356
135.469
141.385
147.1
152.626
157.976
163.166
168.214
173.134
177.939
182.643
187.253
191.775
196.212
200.562
204.82
208.987
213.061
217.043
220.933
224.731
228.434
232.038
235.54
238.931
242.202
245.342
248.335
251.165
253.815
256.267
258.5
260.495
262.229
263.683
264.835
265.663
266.148
266.272
266.014
265.358
264.288
262.789
260.85
258.461
255.614
252.305
248.53
244.289
239.586
234.424
228.813
222.761
216.283
209.394
202.113
194.461
186.463
178.147
169.543
160.684
151.606
142.346
132.943
123.438
113.873
104.29
94.729
85.233
75.843
66.598
57.538
48.699
40.118
31.828
23.861
16.247
9.013
2.185
-4.217
-10.171
-15.663
-20.678
-25.206
-29.239
-32.773
-35.807
-38.341
-40.381
-41.935
-43.014
-43.633
-43.809
-43.563
-42.917
-41.899
-40.535
-38.854
-36.888
-34.668
-32.225
-29.592
-26.802
-23.886
-20.876
-17.803
-14.7
-11.594
-8.516
-5.493
-2.553
0.279
2.979
5.525
7.896
10.072
12.036
13.773
15.268
16.511
17.491
18.203
18.641
18.804
18.693
18.31
17.663
16.76
15.609
14.224
12.618
10.806
8.802
6.624
4.289
1.814
-0.783
-3.482
-6.265
-9.114
-12.009
-14.931
-17.862
-20.783
-23.676
-26.522
-29.305
-32.008
-34.613
-37.106
-39.47
-41.694
-43.763
-45.668
-47.399
-48.949
-50.312
-51.486
-52.469
-53.262
-53.866
-54.284
-54.522
-54.586
-54.484
-54.223
-53.813
-53.264
-52.586
-51.793
-50.895
-49.905
-48.836
-47.701
-46.513
-45.286
-44.034
-42.769
-41.507
-40.261
-39.045
-37.875
-36.765
-35.728
-34.779
-33.927
-33.185
-32.565
-32.075
-31.722
-31.513
-31.452
-31.547
-31.804
-32.228
-32.823
-33.589
-34.531
-35.65
-36.944
-38.409
-40.037
-41.821
-43.754
-45.828
-48.038
-50.377
-52.84
-55.424
-58.126
-60.938
-63.85
-66.846
-69.906
-73.016
-76.161
-79.331
-82.527
-85.74
-88.966
-92.198
-95.424
-98.62
-101.748
-104.753
-107.571
-110.153
-112.456
-114.446
-116.099
-117.374
-118.251
-118.716
-118.743
-118.312
-117.404
-116.001
-114.115
-111.815
-109.198
-106.385
-103.524
-100.715
-98.042
-95.591
-93.454
-91.754
-90.599
-90.061
-90.161
-90.953
-92.562
-94.945
-97.877
-100.845
-103.033
-103.65
-102.116
-98.002
-91.012
-81.359
-69.561
-56.682
-44.561
-34.978
-29.419
-28.591
-32.063
-38.377
-45.451
-50.314
-49.073
-37.569
-11.369
32.252
93.514
170.885
261.026
359.084
459.002
552.823
630.781
684.705
710.596
708.169
678.892
623.848
539.433
421.756
276.337
117.921
-27.958
-134.46
-189.58
-197.883
-178.086
-151.611
-131.098
-118.419
-107.901
-95.511
-81.386
-68.611
-61.889
-62.223
-67.545
-75.318
-82.26
-86.42
-87.484
-85.244
-80.059
-72.87
-64.504
-55.978
-48.46
-42.552
-38.494
-36.396
-36.076
-37.318
-39.96
-43.726
-48.327
-53.559
-59.24
-65.208
-71.302
-77.341
-83.177
-88.698
-93.83
-98.538
-102.794
-106.585
-109.939
-112.892
-115.478
-117.736
-119.682
-121.343
-122.767
-124.009
-125.14
-126.214
-127.255
-128.278
-129.29
-130.281
-131.238
-132.133
-132.92
-133.558
-134.02
-134.281
-134.325
-134.136
-133.691
-132.968
-131.949
-130.623
-128.984
-127.029
-124.756
-122.169
-119.277
-116.096
-112.645
-108.943
-105.008
-100.859
-96.516
-92.001
-87.337
-82.55
-77.664
-72.704
-67.7
-62.679
-57.673
-52.712
-47.825
-43.042
-38.391
-33.899
-29.593
-25.497
-21.633
-18.022
-14.679
-11.621
-8.861
-6.408
-4.27
-2.452
-0.959
0.211
1.058
1.585
1.797
1.7
1.305
0.622
-0.337
-1.558
-3.028
-4.733
-6.655
-8.779
-11.09
-13.574
-16.217
-19.004
-21.918
-24.945
-28.07
-31.278
-34.553
-37.875
-41.228
-44.6
-47.979
-51.359
-54.731
-58.09
-61.438
-64.776
-68.104
-71.424
-74.729
-78.006
-81.257
-84.488
-87.705
-90.926
-94.154
-97.386
-100.632
-103.889
-107.143
-110.367
-113.501
-116.468
-119.221
-121.721
-123.941
-125.858
-127.418
-128.56
-129.255
-129.468
-129.192
-128.425
-127.133
-125.309
-123.014
-120.357
-117.512
-114.673
-111.962
-109.461
-107.235
-105.379
-104.067
-103.473
-103.721
-104.848
-106.753
-109.42
-112.963
-117.279
-122.078
-126.713
-130.112
-131.6
-131.037
-128.252
-123.166
-115.804
-105.912
-94.208
-82.508
-71.762
-62.412
-54.326
-46.113
-36.831
-26.319
-12.806
6.533
34.045
72.789
124.138
186.816
258.6
335.775
413.728
488.704
560.936
631.653
698.046
753.273
782.208
765.835
696.329
577.444
422.399
257.345
106.081
-17.611
-102.081
-149.168
-171.359
-176.272
-173.223
-167.404
-154.529
-134.865
-111.854
-88.654
-71.11
-62.418
-61.944
-68.11
-78.905
-91.846
-104.304
-114.793
-122.511
-127.158
-129.467
-130.189
-129.792
-129.137
-129.216
-130.529
-133.349
-137.673
-143.077
-149.26
-156.03
-163.066
-170.108
-176.937
-183.313
-189.107
-194.275
-198.752
-202.506
-205.521
-207.755
-209.21
-209.92
-209.919
-209.271
-208.034
-206.251
-203.985
-201.299
-198.268
-194.992
-191.543
-187.975
-184.332
-180.643
-176.933
-173.234
-169.558
-165.896
-162.248
-158.609
-154.98
-151.373
-147.792
-144.234
-140.695
-137.167
-133.65
-130.147
-126.662
-123.198
-119.76
-116.353
-112.988
-109.679
-106.437
-103.269
-100.182
-97.179
-94.266
-91.448
-88.728
-86.109
-83.594
-81.187
-78.893
-76.72
-74.671
-72.753
-70.971
-69.329
-67.836
-66.496
-65.315
-64.298
-63.45
-62.776
-62.282
-61.972
-61.851
-61.921
-62.185
-62.643
-63.296
-64.144
-65.185
-66.416
-67.833
-69.433
-71.21
-73.159
-75.274
-77.548
-79.973
-82.542
-85.246
-88.073
-91.013
-94.053
-97.18
-100.379
-103.636
-106.934
-110.256
-113.586
-116.906
-120.198
-123.444
-126.627
-129.728
-132.73
-135.616
-138.371
-140.98
-143.428
-145.703
-147.794
-149.69
-151.382
-152.864
-154.127
-155.168
-155.982
-156.567
-156.921
-157.044
-156.937
-156.602
-156.044
-155.268
-154.28
-153.09
-151.707
-150.142
-148.408
-146.519
-144.49
-142.339
-140.082
-137.737
-135.323
-132.858
-130.362
-127.852
-125.347
-122.864
-120.42
-118.031
-115.71
-113.472
-111.329
-109.292
-107.37
-105.571
-103.904
-102.372
-100.98
-99.732
-98.628
-97.669
-96.854
-96.179
-95.641
-95.235
-94.953
-94.787
-94.727
-94.761
-94.876
-95.059
-95.295
-95.568
-95.861
-96.158
-96.442
-96.695
-96.902
-97.045
-97.11
-97.081
-96.943
-96.685
-96.295
-95.761
-95.077
-94.233
-93.224
-92.046
-90.696
-89.17
-87.47
-85.595
-83.547
-81.33
-78.946
-76.403
-73.705
-70.862
-67.883
-64.777
-61.557
-58.234
-54.821
-51.332
-47.782
-44.184
-40.555
-36.909
-33.261
-29.627
-26.022
-22.459
-18.953
-15.515
-12.159
-8.894
-5.729
-2.674
0.267
3.086
5.779
8.343
10.775
13.072
15.236
17.265
19.16
20.924
22.558
24.067
25.455
26.726
27.886
28.939
29.891
30.75
31.521
32.21
32.825
33.372
33.859
34.292
34.678
35.024
35.335
35.616
35.872
36.106
36.319
36.514
36.692
36.853
36.995
37.117
37.218
37.294
37.343
37.361
37.344
37.287
37.185
37.034
36.828
36.563
36.234
35.838
35.37
34.827
34.207
33.507
32.724
31.858
30.906
29.87
28.749
27.546
26.264
24.904
23.474
21.978
20.424
18.822
17.18
15.51
13.823
12.132
10.451
8.795
7.179
5.617
4.125
2.718
1.414
0.233
-0.808
-1.693
-2.405
-2.929
-3.248
-3.347
-3.214
-2.839
-2.213
-1.331
-0.18
1.248
2.962
4.97
7.267
9.845
12.701
15.827
19.214
22.852
26.725
30.813
35.109
39.598
44.273
49.126
54.129
59.258
64.477
69.746
75.066
80.431
85.838
91.3
96.761
102.166
107.503
112.74
117.86
122.895
127.712
132.16
136.415
140.581
144.795
149.283
153.757
157.824
161.605
165.169
168.071
170.086
170.664
169.1
166.091
162.441
158.155
153.447
148.835
144.514
141.379
140.471
140.934
141.882
143.172
144.358
145.195
145.72
145.164
142.716
139.058
134.825
130.27
125.896
121.73
117.661
114.13
111.541
109.663
108.321
107.407
106.701
106.314
106.386
106.863
107.725
109.026
110.795
113.056
115.849
119.161
122.958
127.149
131.642
136.383
141.328
146.527
152.025
157.713
163.523
169.711
176.564
183.926
191.732
199.911
207.855
217.289
229.576
242.082
254.225
261.671
259.208
253.035
245.308
240.079
247.22
260.534
278.225
301.105
317.27
327.836
332.241
324.268
313.216
302.824
294.647
295.263
300.017
304.645
308.664
309.119
307.403
305.66
303.555
301.39
299.109
296.366
293.493
290.786
288.262
285.946
283.885
282.064
280.395
278.744
276.939
274.838
272.414
269.672
266.545
262.915
258.644
253.622
247.84
241.402
234.297
226.393
217.774
208.72
199.913
192.469
187.099
183.981
183.229
184.933
189.093
195.694
203.772
211.127
216.295
218.969
219.756
220.107
221.209
223.966
230.422
244.927
271.812
313.291
369.693
437.753
512.066
590.676
671.995
753.897
837.719
915.753
973.541
998.837
975.68
903.292
798.278
677.504
561.499
461.242
373.895
299.083
237.553
191.21
165.072
158.941
167.867
186.529
209.026
230.885
249.127
261.316
266.146
263.96
256.486
246.108
235.329
225.751
218.309
213.564
211.53
211.862
213.817
216.291
218.101
218.555
217.359
214.431
209.932
203.989
196.745
188.472
179.517
170.173
160.648
151.113
141.634
132.291
123.211
114.483
106.18
98.337
90.946
83.989
77.464
71.363
65.664
60.343
55.35
50.629
46.126
41.776
37.533
33.369
29.257
25.185
21.15
17.159
13.236
9.418
5.734
2.207
-1.138
-4.284
-7.207
-9.879
-12.274
-14.365
-16.128
-17.544
-18.596
-19.272
-19.562
-19.461
-18.97
-18.096
-16.845
-15.223
-13.236
-10.891
-8.197
-5.169
-1.819
1.836
5.778
9.986
14.435
19.096
23.939
28.934
34.048
39.248
44.498
49.762
55.004
60.185
65.27
70.22
74.998
79.566
83.889
87.931
91.659
95.041
98.048
100.653
102.83
104.558
105.818
106.593
106.869
106.635
105.882
104.606
102.805
100.479
97.632
94.273
90.411
86.062
81.243
75.973
70.277
64.179
57.709
50.896
43.772
36.373
28.734
20.891
12.884
4.752
-3.466
-11.729
-19.998
-28.233
-36.395
-44.447
-52.352
-60.074
-67.581
-74.842
-81.825
-88.505
-94.855
-100.853
-106.477
-111.71
-116.536
-120.942
-124.919
-128.459
-131.557
-134.213
-136.428
-138.205
-139.551
-140.475
-140.989
-141.107
-140.845
-140.22
-139.255
-137.97
-136.39
-134.541
-132.448
-130.14
-127.646
-124.993
-122.21
-119.328
-116.375
-113.379
-110.369
-107.372
-104.415
-101.523
-98.723
-96.037
-93.488
-91.096
-88.88
-86.858
-85.046
-83.457
-82.103
-80.996
-80.143
-79.552
-79.227
-79.171
-79.386
-79.871
-80.622
-81.636
-82.906
-84.424
-86.18
-88.165
-90.365
-92.769
-95.362
-98.13
-101.056
-104.125
-107.32
-110.623
-114.017
-117.486
-121.01
-124.574
-128.161
-131.756
-135.342
-138.905
-142.43
-145.903
-149.311
-152.641
-155.882
-159.023
-162.055
-164.968
-167.756
-170.414
-172.936
-175.318
-177.559
-179.655
-181.605
-183.409
-185.066
-186.578
-187.945
-189.17
-190.259
-191.217
-192.048
-192.759
-193.357
-193.848
-194.239
-194.537
-194.748
-194.876
-194.929
-194.914
-194.838
-194.711
-194.54
-194.333
-194.097
-193.841
-193.57
-193.29
-193.005
-192.718
-192.434
-192.156
-191.888
-191.636
-191.405
-191.201
-191.033
-190.909
-190.832
-190.807
-190.837
-190.922
-191.061
-191.25
-191.481
-191.749
-192.048
-192.379
-192.746
-193.146
-193.58
-194.046
-194.543
-195.072
-195.632
-196.212
-196.793
-197.363
-197.916
-198.462
-199.023
-199.609
-200.216
-200.837
-201.461
-202.078
-202.664
-203.159
-203.471
-203.505
-203.187
-202.488
-201.415
-199.957
-198.1
-195.817
-193.066
-189.862
-186.232
-182.196
-177.764
-172.935
-167.764
-162.395
-157.067
-152.064
-147.609
-143.813
-140.72
-138.374
-136.76
-136.008
-136.235
-137.136
-138.449
-139.92
-141.199
-142.39
-143.633
-144.321
-143.688
-141.743
-138.46
-134.404
-130.724
-127.026
-122.596
-117.842
-113.02
-107.43
-100.469
-90.039
-72.455
-46.723
-12.979
29.87
79.882
133.86
191.452
248.043
300.641
349.253
384.795
400.295
388.384
341.446
267.887
178.481
84.649
-0.427
-75.109
-138.52
-187.344
-221.609
-239.015
-239.547
-227.787
-208.016
-184.915
-162.759
-144.452
-132.133
-126.942
-128.586
-135.622
-146.097
-157.81
-169.155
-179.035
-186.663
-191.789
-194.541
-195.374
-195.103
-194.717
-194.788
-195.557
-197.109
-199.26
-201.835
-204.654
-207.365
-209.619
-211.231
-212.123
-212.328
-211.955
-211.045
-209.608
-207.67
-205.215
-202.241
-198.767
-194.78
-190.296
-185.355
-180.018
-174.383
-168.545
-162.562
-156.47
-150.289
-144.024
-137.687
-131.286
-124.814
-118.276
-111.684
-105.051
-98.4
-91.744
-85.088
-78.437
-71.784
-65.122
-58.448
-51.757
-45.046
-38.314
-31.563
-24.797
-18.024
-11.253
-4.487
2.268
9.007
15.728
22.422
29.086
35.714
42.298
48.828
55.293
61.678
67.971
74.157
80.222
86.15
91.928
97.539
102.972
108.213
113.249
118.067
122.653
126.996
131.082
134.899
138.435
141.678
144.616
147.239
149.538
151.504
153.132
154.416
155.352
155.938
156.172
156.056
155.592
154.785
153.639
152.163
150.367
148.264
145.866
143.189
140.248
137.059
133.642
130.012
126.189
122.191
118.036
113.742
109.329
104.815
100.218
95.557
90.849
86.113
81.366
76.624
71.905
67.222
62.591
58.026
53.54
49.143
44.846
40.658
36.588
32.64
28.82
25.13
21.573
18.149
14.857
11.695
8.659
5.745
2.949
0.265
-2.313
-4.792
-7.177
-9.477
-11.697
-13.845
-15.929
-17.956
-19.933
-21.867
-23.767
-25.639
-27.49
-29.329
-31.16
-32.992
-34.829
-36.678
-38.544
-40.43
-42.341
-44.28
-46.249
-48.248
-50.279
-52.341
-54.432
-56.551
-58.694
-60.858
-63.037
-65.228
-67.424
-69.619
-71.808
-73.982
-76.137
-78.263
-80.354
-82.402
-84.399
-86.338
-88.209
-90.006
-91.719
-93.34
-94.861
-96.272
-97.567
-98.737
-99.774
-100.671
-101.422
-102.02
-102.461
-102.739
-102.85
-102.791
-102.559
-102.152
-101.569
-100.811
-99.878
-98.773
-97.497
-96.057
-94.456
-92.7
-90.796
-88.749
-86.568
-84.26
-81.833
-79.295
-76.654
-73.922
-71.107
-68.221
-65.275
-62.282
-59.253
-56.2
-53.136
-50.071
-47.016
-43.983
-40.98
-38.018
-35.106
-32.255
-29.477
-26.78
-24.174
-21.669
-19.272
-16.989
-14.827
-12.788
-10.877
-9.096
-7.449
-5.938
-4.566
-3.336
-2.252
-1.321
-0.545
0.074
0.536
0.841
0.992
0.991
0.847
0.569
0.165
-0.357
-0.995
-1.747
-2.609
-3.579
-4.655
-5.835
-7.115
-8.488
-9.944
-11.463
-13.026
-14.622
-16.244
-17.901
-19.595
-21.316
-23.05
-24.783
-26.493
-28.146
-29.684
-31.016
-32.052
-32.722
-32.984
-32.822
-32.226
-31.189
-29.699
-27.739
-25.312
-22.427
-19.092
-15.3
-11.055
-6.415
-1.5
3.482
8.305
12.805
16.874
20.443
23.48
25.987
27.978
29.528
30.742
31.677
32.406
32.998
33.542
34.284
35.573
37.817
41.542
47.242
55.136
65.26
77.404
91.017
105.639
120.912
136.265
151.31
166.348
182.279
200.696
223.527
251.981
286.47
327.29
374.182
425.341
477.394
525.468
564.169
589.398
598.553
589.457
560.722
513.439
451.241
380.1
306.979
237.303
174.86
123.286
85.838
63.526
55.017
56.653
63.588
72.58
81.825
89.37
93.131
92.01
86.063
76.876
67.001
57.77
49.438
42.261
36.581
32.699
30.724
30.056
29.496
28.293
26.213
23.225
19.464
14.948
9.596
3.529
-2.918
-9.386
-15.585
-21.373
-26.766
-31.776
-36.37
-40.501
-44.105
-47.152
-49.658
-51.635
-53.088
-54.003
-54.367
-54.197
-53.551
-52.523
-51.214
-49.686
-47.965
-46.07
-44.016
-41.823
-39.512
-37.082
-34.517
-31.809
-28.958
-25.974
-22.871
-19.653
-16.313
-12.839
-9.219
-5.445
-1.516
2.569
6.813
11.211
15.759
20.443
25.246
30.151
35.146
40.219
45.358
50.551
55.782
61.037
66.303
71.564
76.801
81.996
87.128
92.176
97.118
101.935
106.604
111.105
115.417
119.52
123.393
127.017
130.373
133.442
136.206
138.646
140.747
142.492
143.867
144.86
145.46
145.657
145.444
144.815
143.765
142.291
140.393
138.069
135.32
132.149
128.561
124.559
120.153
115.352
110.166
104.607
98.69
92.429
85.841
78.943
71.754
64.292
56.577
48.63
40.473
32.127
23.616
14.962
6.19
-2.677
-11.614
-20.597
-29.603
-38.606
-47.584
-56.513
-65.37
-74.132
-82.777
-91.284
-99.632
-107.801
-115.77
-123.523
-131.042
-138.311
-145.316
-152.044
-158.482
-164.622
-170.453
-175.969
-181.164
-186.034
-190.575
-194.785
-198.667
-202.22
-205.449
-208.358
-210.955
-213.247
-215.244
-216.956
-218.397
-219.58
-220.52
-221.231
-221.732
-222.04
-222.174
-222.152
-221.995
-221.722
-221.355
-220.913
-220.416
-219.886
-219.34
-218.798
-218.278
-217.796
-217.369
-217.011
-216.737
-216.558
-216.486
-216.532
-216.702
-217.005
-217.446
-218.029
-218.757
-219.631
-220.65
-221.811
-223.113
-224.549
-226.114
-227.799
-229.597
-231.497
-233.488
-235.559
-237.696
-239.886
-242.113
-244.363
-246.621
-248.869
-251.093
-253.277
-255.405
-257.462
-259.434
-261.307
-263.069
-264.707
-266.21
-267.568
-268.771
-269.809
-270.673
-271.356
-271.851
-272.151
-272.253
-272.151
-271.843
-271.326
-270.6
-269.664
-268.518
-267.161
-265.597
-263.826
-261.851
-259.676
-257.304
-254.74
-251.99
-249.061
-245.961
-242.697
-239.279
-235.714
-232.01
-228.174
-224.215
-220.14
-215.958
-211.674
-207.297
-202.838
-198.307
-193.718
-189.084
-184.417
-179.73
-175.034
-170.342
-165.661
-160.999
-156.36
-151.747
-147.168
-142.629
-138.139
-133.711
-129.357
-125.089
-120.914
-116.837
-112.86
-108.985
-105.206
-101.52
-97.922
-94.416
-91.016
-87.741
-84.603
-81.606
-78.742
-75.982
-73.291
-70.631
-67.949
-65.191
-62.31
-59.248
-55.966
-52.444
-48.674
-44.644
-40.313
-35.635
-30.573
-25.129
-19.345
-13.301
-7.067
-0.721
5.632
11.902
17.965
23.664
28.872
33.464
37.356
40.57
43.04
44.64
45.449
45.625
45.573
46.179
48.202
51.957
57.818
65.887
75.727
87.403
100.465
112.722
122.328
128.409
130.091
130.055
131.986
135.019
140.669
148.983
159.185
180.157
217.409
274.946
357.079
455.027
559.312
660.041
744.1
807.782
849.12
866.282
860.529
829.218
771.961
692.956
597.641
494.715
392.414
296.432
212.667
146.321
99.852
73.964
67.243
75.527
94.754
120.989
149.105
174.731
195.185
208.78
215.365
216.173
212.254
204.98
196.616
188.863
182.671
178.554
176.181
174.862
174.138
173.383
171.751
168.782
164.287
158.258
151.031
142.978
134.391
125.652
117.126
109.016
101.446
94.487
88.144
82.453
77.452
73.137
69.497
66.519
64.183
62.471
61.344
60.73
60.543
60.688
61.074
61.646
62.363
63.194
64.113
65.102
66.147
67.248
68.41
69.626
70.889
72.187
73.513
74.867
76.253
77.672
79.131
80.63
82.169
83.746
85.356
86.99
88.641
90.297
91.945
93.573
95.174
96.74
98.266
99.745
101.172
102.542
103.848
105.085
106.245
107.322
108.306
109.189
109.964
110.623
111.16
111.569
111.845
111.982
111.976
111.823
111.519
111.06
110.443
109.666
108.724
107.616
106.342
104.9
103.292
101.519
99.583
97.488
95.237
92.834
90.285
87.596
84.771
81.818
78.744
75.559
72.27
68.89
65.428
61.897
58.31
54.678
51.015
47.333
43.645
39.962
36.298
32.664
29.072
25.533
22.058
18.657
15.339
12.114
8.989
5.971
3.064
0.274
-2.395
-4.941
-7.361
-9.655
-11.82
-13.857
-15.767
-17.55
-19.209
-20.747
-22.167
-23.474
-24.673
-25.768
-26.767
-27.675
-28.498
-29.242
-29.914
-30.521
-31.069
-31.563
-32.01
-32.416
-32.785
-33.121
-33.429
-33.711
-33.969
-34.203
-34.415
-34.602
-34.764
-34.9
-35.007
-35.084
-35.127
-35.133
-35.1
-35.023
-34.9
-34.726
-34.497
-34.208
-33.856
-33.436
-32.945
-32.379
-31.735
-31.009
-30.198
-29.3
-28.313
-27.234
-26.062
-24.796
-23.438
-21.989
-20.45
-18.826
-17.121
-15.34
-13.49
-11.578
-9.611
-7.596
-5.542
-3.458
-1.353
0.766
2.888
5.006
7.109
9.19
11.24
13.25
15.214
17.123
18.972
20.754
22.461
24.087
25.628
27.078
28.431
29.682
30.829
31.869
32.801
33.624
34.34
34.949
35.455
35.86
36.169
36.387
36.517
36.566
36.537
36.438
36.275
36.054
35.78
35.459
35.096
34.696
34.264
33.803
33.314
32.799
32.26
31.698
31.116
30.515
29.894
29.254
28.596
27.92
27.224
26.504
25.752
24.958
24.115
23.212
22.241
21.189
20.046
18.803
17.458
16.009
14.449
12.774
10.973
9.036
6.96
4.734
2.35
-0.198
-2.914
-5.795
-8.83
-12.016
-15.349
-18.834
-22.489
-26.328
-30.354
-34.576
-38.992
-43.582
-48.321
-53.158
-58.02
-62.844
-67.576
-72.163
-76.563
-80.72
-84.574
-88.085
-91.203
-93.88
-96.086
-97.776
-98.943
-99.664
-100.033
-100.178
-100.262
-100.378
-100.633
-101.196
-102.229
-103.927
-106.469
-109.909
-114.326
-119.882
-126.586
-134.316
-142.68
-150.852
-157.972
-163.392
-166.617
-167.284
-165.438
-161.485
-156.306
-151.6
-149.238
-150.566
-155.918
-164.781
-175.759
-186.501
-193.874
-193.197
-179.078
-147.027
-96.732
-31.658
45.079
131.091
229.515
344.903
471.776
594.851
690.082
733.964
717.324
647.401
541.254
415.618
283.008
152.682
35.847
-52.522
-101.761
-112.852
-99.752
-80.822
-69.016
-66.961
-67.881
-66.057
-61.179
-56.209
-56.109
-62.367
-72.619
-84.103
-94.033
-100.952
-104.506
-104.367
-100.527
-93.507
-84.249
-73.934
-63.787
-54.526
-46.456
-39.753
-34.417
-30.434
-27.773
-26.277
-25.697
-25.854
-26.632
-27.922
-29.666
-31.732
-33.904
-36.002
-37.864
-39.371
-40.486
-41.182
-41.425
-41.203
-40.524
-39.409
-37.915
-36.092
-33.969
-31.593
-29.016
-26.311
-23.575
-20.885
-18.294
-15.839
-13.532
-11.382
-9.395
-7.565
-5.87
-4.292
-2.813
-1.418
-0.106
1.134
2.318
3.464
4.593
5.724
6.864
8.025
9.213
10.436
11.695
12.992
14.32
15.677
17.064
18.483
19.936
21.423
22.944
24.498
26.084
27.7
29.341
31
32.668
34.336
35.996
37.637
39.25
40.822
42.343
43.801
45.183
46.48
47.678
48.764
49.727
50.554
51.236
51.763
52.125
52.313
52.321
52.142
51.77
51.202
50.432
49.459
48.278
46.891
45.296
43.496
41.493
39.293
36.901
34.327
31.581
28.673
25.616
22.423
19.11
15.692
12.185
8.605
4.971
1.301
-2.386
-6.072
-9.737
-13.363
-16.932
-20.424
-23.824
-27.115
-30.281
-33.308
-36.182
-38.889
-41.418
-43.757
-45.895
-47.822
-49.532
-51.017
-52.273
-53.296
-54.085
-54.639
-54.961
-55.053
-54.92
-54.567
-54.002
-53.23
-52.263
-51.11
-49.781
-48.289
-46.648
-44.869
-42.968
-40.958
-38.853
-36.668
-34.414
-32.107
-29.757
-27.378
-24.982
-22.58
-20.184
-17.805
-15.453
-13.138
-10.868
-8.652
-6.495
-4.404
-2.383
-0.436
1.437
3.231
4.948
6.586
8.145
9.628
11.034
12.367
13.628
14.82
15.948
17.013
18.021
18.973
19.872
20.721
21.522
22.275
22.981
23.641
24.253
24.818
25.334
25.801
26.216
26.577
26.882
27.125
27.303
27.411
27.441
27.387
27.241
26.997
26.646
26.182
25.596
24.882
24.034
23.047
21.914
20.631
19.194
17.6
15.846
13.932
11.858
9.624
7.235
4.694
2.007
-0.818
-3.775
-6.853
-10.045
-13.338
-16.722
-20.183
-23.708
-27.283
-30.892
-34.519
-38.145
-41.752
-45.32
-48.831
-52.267
-55.607
-58.834
-61.93
-64.879
-67.672
-70.295
-72.737
-74.989
-77.044
-78.895
-80.537
-81.964
-83.166
-84.14
-84.883
-85.394
-85.675
-85.731
-85.568
-85.198
-84.634
-83.886
-82.966
-81.885
-80.649
-79.273
-77.776
-76.178
-74.51
-72.803
-71.081
-69.373
-67.7
-66.065
-64.457
-62.844
-61.173
-59.408
-57.519
-55.471
-53.237
-50.781
-48.07
-45.095
-41.838
-38.283
-34.415
-30.232
-25.757
-21.071
-16.309
-11.642
-7.284
-3.417
-0.182
2.282
3.823
4.253
3.395
1.163
-2.451
-7.385
-13.66
-21.396
-30.491
-40.462
-50.46
-59.516
-66.953
-72.663
-76.518
-77.873
-76.414
-72.481
-67.353
-63.014
-60.508
-59.108
-57.58
-55.515
-52.093
-45.745
-33.468
-10.589
25.835
75.556
137.005
208.758
288.208
371.61
453.082
523.738
576.337
606.832
612.301
590.843
542.769
469.996
377.29
273.255
165.866
61.712
-32.326
-110.742
-170.241
-208.898
-227.439
-229.667
-219.424
-200.794
-179.009
-158.24
-141.222
-129.92
-124.643
-124.248
-127.63
-133.181
-138.513
-142.014
-142.851
-140.62
-135.717
-128.923
-120.853
-112.354
-104.517
-97.992
-93.105
-89.991
-88.435
-88.174
-89.038
-90.754
-92.981
-95.496
-98.083
-100.538
-102.772
-104.681
-106.143
-107.103
-107.51
-107.324
-106.548
-105.202
-103.307
-100.914
-98.076
-94.834
-91.249
-87.385
-83.312
-79.122
-74.879
-70.627
-66.401
-62.22
-58.097
-54.044
-50.056
-46.109
-42.188
-38.278
-34.372
-30.467
-26.559
-22.634
-18.682
-14.687
-10.644
-6.549
-2.403
1.793
6.037
10.322
14.637
18.966
23.295
27.613
31.912
36.183
40.414
44.596
48.716
52.766
56.733
60.604
64.364
67.998
71.49
74.826
77.992
80.974
83.758
86.331
88.682
90.799
92.673
94.293
95.65
96.735
97.54
98.06
98.29
98.226
97.865
97.205
96.247
94.992
93.443
91.603
89.477
87.07
84.39
81.445
78.244
74.799
71.12
67.223
63.122
58.833
54.374
49.763
45.019
40.162
35.212
30.188
25.111
20.002
14.881
9.768
4.686
-0.347
-5.308
-10.178
-14.937
-19.565
-24.042
-28.35
-32.472
-36.391
-40.089
-43.553
-46.768
-49.722
-52.403
-54.8
-56.905
-58.711
-60.211
-61.402
-62.281
-62.848
-63.103
-63.049
-62.69
-62.031
-61.079
-59.842
-58.327
-56.545
-54.505
-52.219
-49.699
-46.959
-44.012
-40.873
-37.56
-34.088
-30.476
-26.74
-22.899
-18.969
-14.97
-10.918
-6.83
-2.722
1.39
5.49
9.563
13.594
17.571
21.48
25.311
29.054
32.7
36.24
39.669
42.98
46.169
49.232
52.162
54.956
57.608
60.116
62.475
64.682
66.734
68.629
70.367
71.948
73.372
74.638
75.746
76.694
77.482
78.106
78.561
78.844
78.95
78.877
78.622
78.184
77.558
76.747
75.75
74.569
73.202
71.646
69.894
67.94
65.778
63.403
60.809
57.989
54.94
51.663
48.172
44.481
40.595
36.518
32.239
27.761
23.103
18.286
