Name
Date of Birth,"Mar 27, 1959"
Recorded Date,2022-06-24 14:53:00 -0500
Classification,Atrial Fibrillation
Symptoms,
Software Version,1.90
Device,"Watch4,2"
Sample Rate,510.227 hertz


Lead,Lead I
Unit,µV

-79.466
-82.682
-85.784
-88.677
-91.28
-93.531
-95.409
-96.942
-98.18
-99.199
-100.063
-100.828
-101.544
-102.244
-102.957
-103.689
-104.433
-105.176
-105.927
-106.712
-107.547
-108.426
-109.296
-110.092
-110.737
-111.155
-111.279
-111.032
-110.338
-109.122
-107.318
-104.882
-101.795
-98.063
-93.712
-88.801
-83.405
-77.623
-71.596
-65.47
-59.408
-53.548
-47.958
-42.675
-37.796
-33.511
-29.996
-27.364
-25.528
-24.275
-23.537
-23.182
-22.763
-21.628
-19.049
-15.14
-11.176
-8.217
-6.326
-3.114
4.843
18.581
36.51
52.679
60.515
57.376
43.136
23.59
8.167
6.132
28.462
81.76
165.31
273.075
393.352
514.655
629.867
735.151
827.544
901.007
947.489
957.631
924.581
848.726
733.482
587.367
424.001
258.026
107.159
-13.337
-95.286
-138.689
-150.892
-141.097
-118.991
-90.275
-59.378
-33.304
-14.877
-6.282
-6.859
-9.737
-11.91
-12.7
-12.578
-15.593
-22.862
-32.547
-42.844
-51.33
-56.655
-59.027
-58.81
-56.509
-52.872
-48.774
-45.121
-42.53
-41.376
-41.732
-43.483
-46.528
-50.61
-55.315
-60.154
-64.692
-68.668
-71.973
-74.594
-76.521
-77.746
-78.276
-78.163
-77.489
-76.305
-74.65
-72.542
-69.998
-67.077
-63.856
-60.424
-56.878
-53.282
-49.673
-46.084
-42.535
-39.038
-35.606
-32.231
-28.89
-25.57
-22.261
-18.958
-15.66
-12.355
-9.025
-5.649
-2.212
1.298
4.887
8.56
12.322
16.174
20.114
24.136
28.229
32.386
36.6
40.865
45.171
49.51
53.867
58.229
62.583
66.913
71.199
75.422
79.56
83.59
87.49
91.237
94.807
98.175
101.317
104.208
106.826
109.146
111.146
112.803
114.096
115.006
115.514
115.606
115.266
114.481
113.242
111.542
109.375
106.739
103.633
100.06
96.025
91.537
86.607
81.247
75.474
69.306
62.764
55.871
48.653
41.136
33.349
25.321
17.085
8.672
0.116
-8.552
-17.297
-26.085
-34.883
-43.658
-52.376
-61.007
-69.519
-77.882
-86.067
-94.048
-101.8
-109.298
-116.52
-123.446
-130.058
-136.342
-142.283
-147.87
-153.095
-157.951
-162.433
-166.539
-170.269
-173.623
-176.604
-179.214
-181.461
-183.35
-184.891
-186.093
-186.967
-187.522
-187.772
-187.73
-187.409
-186.823
-185.983
-184.905
-183.602
-182.088
-180.379
-178.487
-176.426
-174.212
-171.858
-169.379
-166.789
-164.098
-161.319
-158.462
-155.54
-152.563
-149.541
-146.485
-143.404
-140.311
-137.222
-134.15
-131.107
-128.105
-125.155
-122.271
-119.465
-116.748
-114.126
-111.602
-109.184
-106.883
-104.707
-102.665
-100.758
-98.985
-97.348
-95.852
-94.501
-93.291
-92.211
-91.249
-90.397
-89.656
-89.039
-88.552
-88.187
-87.932
-87.778
-87.711
-87.72
-87.773
-87.814
-87.785
-87.635
-87.312
-86.793
-86.04
-85.012
-83.683
-81.999
-79.912
-77.386
-74.375
-70.856
-66.877
-62.469
-57.639
-52.519
-47.272
-42.158
-37.588
-33.78
-30.721
-28.433
-26.976
-26.277
-26.169
-26.078
-24.909
-21.935
-16.934
-9.805
-0.557
10.706
23.724
37.44
49.87
59.234
64.37
64.702
59.902
50.623
39.051
27.879
20.863
19.998
23.355
30.357
43.61
68.976
117.077
195.583
303.145
433.635
576.878
721.227
859.748
984.552
1083.659
1145.602
1158.257
1113.943
1015.599
873.276
702.808
524.353
356.512
213.675
106.745
39.359
8.928
11.231
36.127
71.996
108.042
131.155
136.376
125.648
104.823
86.002
75.837
74.721
80.47
86.603
89.524
89.485
87.128
84.011
80.486
75.506
68.366
58.972
47.905
35.937
23.775
11.991
0.972
-8.953
-17.595
-25.183
-32.221
-39.084
-46.038
-53.164
-60.368
-67.567
-74.667
-81.461
-87.655
-93.043
-97.509
-101.033
-103.699
-105.582
-106.736
-107.23
-107.153
-106.588
-105.614
-104.31
-102.719
-100.874
-98.816
-96.573
-94.176
-91.647
-88.989
-86.196
-83.265
-80.195
-76.99
-73.662
-70.218
-66.662
-62.999
-59.228
-55.356
-51.392
-47.342
-43.214
-39.016
-34.756
-30.45
-26.116
-21.771
-17.429
-13.102
-8.799
-4.533
-0.317
3.84
7.927
11.934
15.849
19.658
23.348
26.905
30.317
33.57
36.652
39.552
42.256
44.753
47.032
49.083
50.894
52.455
53.756
54.788
55.542
56.013
56.192
56.075
55.658
54.938
53.914
52.585
50.952
49.016
46.782
44.251
41.43
38.324
34.941
31.288
27.375
23.213
18.814
14.19
9.355
4.323
-0.889
-6.267
-11.794
-17.454
-23.23
-29.103
-35.057
-41.072
-47.131
-53.216
-59.307
-65.387
-71.437
-77.438
-83.375
-89.231
-94.99
-100.637
-106.158
-111.538
-116.767
-121.831
-126.72
-131.424
-135.932
-140.236
-144.331
-148.209
-151.867
-155.301
-158.507
-161.485
-164.236
-166.76
-169.059
-171.136
-172.993
-174.636
-176.07
-177.305
-178.346
-179.204
-179.891
-180.423
-180.816
-181.086
-181.248
-181.32
-181.321
-181.267
-181.173
-181.052
-180.914
-180.772
-180.641
-180.535
-180.465
-180.438
-180.463
-180.548
-180.705
-180.94
-181.257
-181.646
-182.106
-182.641
-183.263
-183.995
-184.851
-185.831
-186.935
-188.167
-189.524
-190.999
-192.564
-194.157
-195.724
-197.212
-198.579
-199.803
-200.837
-201.617
-202.081
-202.14
-201.734
-200.845
-199.435
-197.48
-195.011
-192.013
-188.525
-184.766
-180.915
-177.159
-173.725
-170.62
-167.859
-165.731
-164.455
-163.952
-164.063
-164.319
-164.188
-163.709
-162.849
-161.119
-158.137
-153.831
-148.54
-143.4
-139.603
-137.645
-138.072
-141.634
-149.019
-159.65
-170.861
-179.306
-181.483
-176.734
-168.295
-157.151
-141.398
-115.309
-67.132
10.798
119.034
253.437
400.645
546.165
678.582
784.756
856.284
887.061
871.697
812.455
714.381
585.986
440.129
289.273
147.352
27.436
-60.877
-113.557
-132.688
-125.076
-102.231
-74.812
-53.009
-44.587
-49.776
-65.289
-83.813
-97.939
-105.964
-109.478
-112.504
-118.112
-125.873
-133.664
-139.135
-141.347
-140.843
-138.669
-135.816
-132.863
-130.236
-128.422
-127.719
-128.204
-129.814
-132.347
-135.633
-139.549
-143.926
-148.586
-153.361
-158.104
-162.665
-166.862
-170.538
-173.58
-175.913
-177.509
-178.349
-178.412
-177.71
-176.296
-174.227
-171.566
-168.365
-164.661
-160.514
-156
-151.209
-146.243
-141.181
-136.074
-130.967
-125.892
-120.873
-115.934
-111.078
-106.291
-101.567
-96.908
-92.319
-87.811
-83.389
-79.047
-74.783
-70.594
-66.482
-62.449
-58.5
-54.637
-50.867
-47.2
-43.647
-40.223
-36.938
-33.799
-30.814
-27.988
-25.326
-22.835
-20.517
-18.376
-16.416
-14.641
-13.057
-11.669
-10.48
-9.494
-8.715
-8.145
-7.786
-7.639
-7.705
-7.982
-8.472
-9.173
-10.083
-11.199
-12.516
-14.03
-15.735
-17.624
-19.689
-21.919
-24.306
-26.838
-29.505
-32.296
-35.199
-38.202
-41.292
-44.458
-47.688
-50.969
-54.29
-57.636
-60.997
-64.36
-67.715
-71.052
-74.362
-77.637
-80.873
-84.067
-87.216
-90.32
-93.376
-96.386
-99.351
-102.271
-105.145
-107.974
-110.759
-113.505
-116.219
-118.906
-121.571
-124.221
-126.859
-129.492
-132.129
-134.769
-137.409
-140.05
-142.693
-145.352
-148.051
-150.804
-153.615
-156.485
-159.414
-162.396
-165.422
-168.462
-171.466
-174.385
-177.174
-179.802
-182.25
-184.482
-186.448
-188.084
-189.312
-190.082
-190.376
-190.168
-189.44
-188.204
-186.493
-184.384
-182.028
-179.55
-177.068
-174.711
-172.582
-170.784
-169.469
-168.816
-168.945
-169.912
-171.638
-173.857
-176.317
-178.763
-180.796
-181.934
-181.746
-179.863
-176.31
-171.742
-166.759
-161.853
-157.79
-155.165
-154.351
-156.015
-159.378
-161.491
-159.99
-152.491
-137.665
-117.567
-92.702
-60.468
-17.484
41.867
122.158
221.808
337.341
463.803
592.64
715.988
822.496
896.91
926.155
900.711
820.06
692.661
532.309
355.977
179.579
18.429
-113.412
-206.364
-256.807
-267.889
-249.769
-215.736
-176.939
-143.669
-121.861
-110.814
-108.774
-110.107
-108.396
-103.374
-96.328
-90.245
-89.682
-95.218
-105.067
-117.464
-129.731
-139.856
-147.467
-152.502
-155.055
-155.659
-154.87
-153.064
-150.935
-149.474
-149.165
-150.228
-152.769
-156.48
-161.047
-166.242
-171.604
-176.632
-181.049
-184.669
-187.422
-189.382
-190.559
-190.95
-190.628
-189.657
-188.093
-185.99
-183.362
-180.232
-176.659
-172.724
-168.528
-164.155
-159.654
-155.065
-150.414
-145.722
-141.009
-136.283
-131.53
-126.752
-121.956
-117.147
-112.343
-107.551
-102.767
-97.987
-93.207
-88.424
-83.639
-78.858
-74.084
-69.325
-64.593
-59.898
-55.259
-50.688
-46.194
-41.785
-37.47
-33.255
-29.149
-25.161
-21.298
-17.568
-13.979
-10.54
-7.262
-4.153
-1.219
1.533
4.099
6.474
8.651
10.628
12.401
13.963
15.31
16.432
17.321
17.97
18.371
18.518
18.405
18.029
17.386
16.48
15.314
13.891
12.212
10.278
8.092
5.661
2.99
0.087
-3.04
-6.386
-9.935
-13.666
-17.564
-21.621
-25.835
-30.22
-34.781
-39.507
-44.389
-49.416
-54.568
-59.819
-65.12
-70.391
-75.555
-80.541
-85.288
-89.761
-93.894
-97.61
-100.825
-103.435
-105.381
-106.65
-107.214
-107.051
-106.185
-104.652
-102.573
-100.173
-97.645
-95.179
-92.969
-91.131
-89.861
-89.425
-89.985
-91.668
-94.435
-97.98
-102.062
-106.515
-110.978
-115.012
-118.2
-120.03
-120.449
-120.031
-119.236
-118.411
-118.098
-118.731
-120.582
-124.114
-128.452
-130.714
-128.399
-119.116
-101.803
-78.68
-50.758
-16.097
29.023
91.596
177.455
285.973
413.478
553.134
695.103
831.667
952.318
1043.299
1092.285
1088.475
1029.297
921.334
777.061
613.065
444.947
286.743
150.205
43.572
-29.609
-70.856
-86.399
-86.603
-80.528
-75.964
-77.92
-85.585
-96.809
-107.657
-114.258
-116.374
-115.643
-115.392
-118.391
-124.992
-133.703
-141.717
-147.087
-149.535
-149.549
-147.96
-145.227
-141.284
-136.395
-131.333
-126.928
-123.723
-121.875
-121.274
-121.81
-123.548
-126.462
-130.285
-134.628
-139.106
-143.416
-147.365
-150.795
-153.537
-155.463
-156.515
-156.692
-156.032
-154.587
-152.405
-149.538
-146.042
-141.979
-137.415
-132.422
-127.082
-121.485
-115.724
-109.892
-104.058
-98.269
-92.559
-86.953
-81.458
-76.077
-70.796
-65.597
-60.468
-55.405
-50.402
-45.455
-40.556
-35.694
-30.862
-26.053
-21.262
-16.489
-11.734
-6.997
-2.286
2.392
7.028
11.609
16.125
20.569
24.931
29.203
33.375
37.435
41.373
45.178
48.838
52.338
55.664
58.8
61.734
64.45
66.938
69.182
71.171
72.893
74.336
75.489
76.338
76.871
77.075
76.939
76.454
75.611
74.405
72.83
70.888
68.582
65.92
62.906
59.546
55.848
51.821
47.48
42.84
37.917
32.728
27.293
21.64
15.8
9.803
3.668
-2.593
-8.978
-15.477
-22.069
-28.729
-35.434
-42.153
-48.849
-55.464
-61.911
-68.114
-74.003
-79.524
-84.632
-89.266
-93.353
-96.811
-99.555
-101.531
-102.719
-103.097
-102.663
-101.442
-99.473
-96.874
-93.836
-90.536
-87.155
-83.854
-80.742
-77.998
-75.888
-74.599
-74.212
-74.663
-75.666
-76.946
-78.321
-79.416
-79.68
-78.665
-76.083
-72.037
-67.182
-62.276
-57.943
-54.997
-54.5
-56.389
-59.362
-61.869
-61.314
-57.478
-53.371
-48.894
-41.392
-23.364
18.573
90.941
191.74
311.99
435.062
550.378
656.174
753.712
845.959
928.153
986.772
1007.013
977.537
896.513
771.721
617.413
450.063
285.731
139.314
21.054
-62.394
-110.937
-129.945
-124.746
-104.353
-75.976
-46.541
-26.624
-19.78
-25.804
-40.255
-52.255
-56.918
-54.435
-47.573
-42.624
-42.066
-44.995
-50.316
-56.113
-61.554
-66.565
-70.694
-73.844
-76.075
-77.481
-78.303
-78.652
-78.73
-79.061
-80.123
-82.172
-85.27
-89.23
-93.784
-98.7
-103.656
-108.256
-112.216
-115.361
-117.617
-119.011
-119.573
-119.328
-118.339
-116.684
-114.422
-111.601
-108.249
-104.396
-100.104
-95.457
-90.551
-85.463
-80.241
-74.919
-69.521
-64.064
-58.563
-53.012
-47.393
-41.702
-35.94
-30.115
-24.241
-18.32
-12.352
-6.336
-0.272
5.839
11.988
18.168
24.368
30.572
36.762
42.917
49.011
55.025
60.939
66.734
72.395
77.902
83.239
88.389
93.335
98.061
102.55
106.785
110.748
114.423
117.795
120.85
123.575
125.958
127.988
129.657
130.958
131.885
132.435
132.607
132.4
131.817
130.863
129.543
127.868
125.846
123.492
120.818
117.843
114.583
111.058
107.288
103.294
99.098
94.723
90.191
85.525
80.749
75.885
70.957
65.988
61.002
56.022
51.07
46.167
41.333
36.589
31.95
27.432
23.044
18.795
14.693
10.743
6.948
3.311
-0.171
-3.496
-6.662
-9.67
-12.521
-15.224
-17.787
-20.218
-22.526
-24.718
-26.804
-28.796
-30.705
-32.535
-34.284
-35.957
-37.562
-39.12
-40.662
-42.207
-43.768
-45.355
-46.976
-48.637
-50.339
-52.06
-53.758
-55.394
-56.937
-58.368
-59.675
-60.826
-61.769
-62.44
-62.775
-62.732
-62.287
-61.419
-60.114
-58.389
-56.282
-53.861
-51.247
-48.545
-45.846
-43.253
-40.857
-38.746
-37.096
-36.143
-36.026
-36.799
-38.368
-40.431
-42.676
-44.803
-46.309
-46.562
-45.149
-41.865
-36.957
-31.419
-26.378
-22.811
-22.006
-24.549
-29.565
-36.123
-42.609
-48.009
-54.301
-62.218
-69.103
-68.334
-47.758
2.93
85.738
195.022
318.542
443.967
564.547
677.389
779.315
863.615
920.932
939.669
911.757
837.132
718.598
567.114
401.04
237.93
98.786
-0.771
-59.09
-79.536
-72.294
-51.869
-25.229
0.844
18.594
27.37
25.904
16.138
6.786
1.399
1.135
5.654
9.603
10.522
8.967
5.489
2.255
0.636
0.103
0.046
-0.007
-0.442
-1.242
-2.142
-3.266
-5.048
-7.611
-10.939
-15.01
-19.611
-24.644
-30.197
-36.106
-41.988
-47.569
-52.613
-56.985
-60.718
-63.802
-66.155
-67.77
-68.696
-68.991
-68.748
-68.02
-66.815
-65.164
-63.118
-60.744
-58.137
-55.365
-52.466
-49.469
-46.389
-43.239
-40.03
-36.761
-33.417
-29.983
-26.453
-22.824
-19.104
-15.296
-11.399
-7.408
-3.318
0.871
5.153
9.519
13.959
18.461
23.011
27.59
32.174
36.744
41.283
45.773
50.198
54.542
58.786
62.914
66.908
70.749
74.42
77.9
81.171
84.213
87.01
89.545
91.802
93.767
95.425
96.763
97.771
98.439
98.757
98.719
98.319
97.553
96.42
94.92
93.055
90.829
88.247
85.317
82.046
78.443
74.519
70.283
65.744
60.912
55.798
50.414
44.772
38.886
32.771
26.443
19.922
13.228
6.381
-0.602
-7.703
-14.908
-22.199
-29.559
-36.973
-44.422
-51.892
-59.367
-66.82
-74.229
-81.576
-88.85
-96.056
-103.195
-110.255
-117.223
-124.081
-130.803
-137.36
-143.709
-149.78
-155.509
-160.835
-165.708
-170.104
-173.998
-177.341
-180.082
-182.152
-183.489
-184.08
-183.919
-182.993
-181.338
-179.01
-176.119
-172.849
-169.365
-165.802
-162.297
-158.961
-155.922
-153.33
-151.295
-149.948
-149.444
-149.811
-151.005
-152.861
-154.959
-156.845
-158.101
-158.139
-156.355
-152.353
-145.881
-137.215
-127.216
-116.668
-106.169
-96.343
-87.723
-80.724
-75.698
-71.173
-63.757
-50.399
-28.114
3.727
41.939
84.995
133.031
187.444
255.324
342.452
450.032
577.864
717.573
855.138
975.97
1062.885
1101.115
1083.014
1008.3
883.56
722.733
543.417
361.922
194.926
56.877
-44.15
-104.88
-128.257
-125.412
-109.381
-91.713
-82.717
-84.653
-93.936
-105.409
-111.245
-108.589
-99.845
-89.165
-82.776
-83.252
-89.459
-99.52
-110.642
-121.431
-131.779
-141.032
-148.526
-153.99
-157.261
-158.619
-158.732
-158.03
-156.947
-156.235
-156.448
-157.838
-160.516
-164.3
-168.847
-173.898
-179.07
-183.839
-187.873
-190.97
-193.022
-194.07
-194.143
-193.233
-191.41
-188.771
-185.387
-181.325
-176.625
-171.302
-165.418
-159.062
-152.337
-145.361
-138.215
-130.952
-123.621
-116.256
-108.883
-101.526
-94.186
-86.856
-79.538
-72.242
-64.981
-57.772
-50.622
-43.531
-36.502
-29.535
-22.634
-15.809
-9.069
-2.424
4.109
10.516
16.777
22.873
28.784
34.497
39.998
45.275
50.315
55.105
59.635
63.893
67.868
71.549
74.923
77.981
80.711
83.105
85.153
86.848
88.184
89.154
89.754
89.982
89.835
89.311
88.412
87.14
85.497
83.49
81.123
78.407
75.349
71.962
68.259
64.254
59.963
55.402
50.589
45.544
40.287
34.837
29.218
23.45
17.556
11.561
5.489
-0.637
-6.792
-12.952
-19.093
-25.189
-31.219
-37.159
-42.987
-48.682
-54.223
-59.589
-64.764
-69.729
-74.468
-78.968
-83.214
-87.197
-90.906
-94.333
-97.473
-100.321
-102.874
-105.131
-107.093
-108.761
-110.139
-111.233
-112.047
-112.592
-112.874
-112.905
-112.696
-112.259
-111.607
-110.754
-109.716
-108.508
-107.145
-105.646
-104.026
-102.303
-100.495
-98.62
-96.696
-94.739
-92.768
-90.799
-88.849
-86.933
-85.067
-83.265
-81.539
-79.903
-78.368
-76.943
-75.638
-74.462
-73.42
-72.521
-71.767
-71.166
-70.718
-70.428
-70.295
-70.321
-70.504
-70.845
-71.339
-71.983
-72.772
-73.702
-74.765
-75.956
-77.267
-78.689
-80.213
-81.831
-83.533
-85.309
-87.149
-89.041
-90.977
-92.947
-94.94
-96.95
-98.966
-100.98
-102.985
-104.975
-106.943
-108.883
-110.788
-112.654
-114.474
-116.246
-117.965
-119.628
-121.232
-122.779
-124.27
-125.709
-127.1
-128.449
-129.759
-131.038
-132.292
-133.525
-134.74
-135.939
-137.125
-138.304
-139.485
-140.671
-141.867
-143.076
-144.298
-145.537
-146.797
-148.07
-149.348
-150.624
-151.895
-153.17
-154.469
-155.805
-157.181
-158.599
-160.058
-161.554
-163.078
-164.605
-166.083
-167.466
-168.707
-169.773
-170.643
-171.278
-171.623
-171.613
-171.17
-170.231
-168.766
-166.759
-164.192
-161.088
-157.484
-153.442
-149.093
-144.591
-140.083
-135.694
-131.529
-127.696
-124.361
-121.789
-120.205
-119.642
-119.948
-120.924
-122.361
-123.894
-125.114
-125.45
-124.147
-121.719
-119.106
-116.17
-113.681
-110.838
-106.463
-103.891
-104.73
-110.038
-121.175
-132.607
-140.568
-144.025
-139.576
-127.207
-103.195
-59.514
7.619
100.671
216.007
344.94
481.478
618.959
751.3
869.92
960.247
1006.731
996.596
926.64
803.316
640.362
456.79
270.226
98.326
-42.269
-141.613
-196.482
-210.986
-197.243
-169.217
-137.397
-111.452
-96.481
-91.251
-93.939
-98.867
-99.602
-95.846
-89.265
-83.151
-81.882
-85.871
-93.247
-102.182
-110.367
-116.39
-119.98
-121.086
-119.91
-116.94
-112.786
-107.942
-102.995
-98.728
-95.67
-94.084
-94.088
-95.52
-98.088
-101.562
-105.592
-109.683
-113.449
-116.641
-119.105
-120.833
-121.841
-122.1
-121.622
-120.467
-118.696
-116.363
-113.511
-110.15
-106.304
-102.035
-97.418
-92.547
-87.514
-82.378
-77.18
-71.95
-66.707
-61.464
-56.227
-50.984
-45.714
-40.405
-35.05
-29.648
-24.197
-18.689
-13.111
-7.45
-1.697
4.152
10.099
16.143
22.282
28.509
34.815
41.189
47.615
54.082
60.578
67.091
73.61
80.121
86.611
93.067
99.472
105.812
112.069
118.225
124.261
130.157
135.893
141.45
146.806
151.941
156.837
161.472
165.829
169.89
173.637
177.055
180.131
182.852
185.206
187.183
188.774
189.973
190.777
191.181
191.186
190.79
189.998
188.815
187.247
185.304
182.993
180.327
177.319
173.982
170.334
166.391
162.171
157.695
152.982
148.057
142.943
137.664
132.244
126.707
121.077
115.377
109.629
103.852
98.062
92.277
86.517
80.796
75.13
69.535
64.025
58.621
53.338
48.191
43.189
38.342
33.66
29.151
24.825
20.688
16.743
12.995
9.454
6.135
3.044
0.181
-2.467
-4.919
-7.19
-9.28
-11.194
-12.937
-14.509
-15.903
-17.089
-18.012
-18.622
-18.885
-18.775
-18.276
-17.353
-15.947
-14.005
-11.474
-8.333
-4.588
-0.225
4.757
10.323
16.409
22.888
29.572
36.298
42.904
49.22
55.115
60.408
64.859
68.317
70.697
72.047
72.644
72.727
72.475
72.218
72.371
73.303
75.406
78.671
82.415
86.068
89.213
91.245
91.786
90.544
86.877
81.745
78.27
78.929
86.195
100.083
116.916
136.48
161.711
199.229
258.851
343.2
448.086
564.801
681.776
794.125
900.352
995.926
1073.674
1118.288
1112.904
1050.819
933.417
773.103
590.566
404.733
233.927
93.326
-8.834
-71.428
-99.037
-99.646
-84.195
-59.479
-32.118
-11.735
-1.346
-2.915
-14.808
-27.532
-36.834
-42.189
-44.674
-49.736
-59.258
-71.327
-83.889
-94.298
-101.428
-105.634
-107.33
-107.124
-105.651
-103.747
-102.385
-102.093
-103.101
-105.524
-109.27
-114.24
-120.302
-127.093
-134.15
-141.134
-147.751
-153.762
-159.069
-163.585
-167.234
-170.017
-171.945
-173.032
-173.325
-172.875
-171.716
-169.891
-167.447
-164.423
-160.893
-156.938
-152.642
-148.095
-143.359
-138.476
-133.481
-128.402
-123.259
-118.064
-112.81
-107.484
-102.08
-96.6
-91.048
-85.43
-79.743
-73.983
-68.151
-62.252
-56.293
-50.284
-44.236
-38.162
-32.08
-26.011
-19.976
-14.001
-8.109
-2.319
3.344
8.862
14.211
19.371
24.32
29.039
33.506
37.702
41.604
45.194
48.453
51.362
53.907
56.071
57.843
59.21
60.163
60.695
60.799
60.474
59.716
58.526
56.908
54.868
52.412
49.551
46.297
42.666
38.673
34.34
29.687
24.738
19.516
14.049
8.364
2.489
-3.546
-9.711
-15.976
-22.309
-28.68
-35.054
-41.403
-47.695
-53.901
-59.994
-65.946
-71.732
-77.329
-82.715
-87.872
-92.781
-97.426
-101.793
-105.869
-109.645
-113.114
-116.273
-119.119
-121.654
-123.883
-125.818
-127.469
-128.851
-129.976
-130.863
-131.531
-132.002
-132.298
-132.435
-132.433
-132.313
-132.1
-131.818
-131.49
-131.133
-130.765
-130.403
-130.067
-129.779
-129.551
-129.39
-129.299
-129.286
-129.368
-129.577
-129.934
-130.445
-131.118
-131.955
-132.959
-134.132
-135.458
-136.887
-138.371
-139.86
-141.304
-142.684
-143.969
-145.122
-146.107
-146.853
-147.291
-147.379
-147.072
-146.343
-145.222
-143.707
-141.792
-139.614
-137.388
-135.429
-134.089
-133.506
-133.646
-134.525
-136.26
-138.872
-142.094
-145.202
-147.321
-147.981
-147.147
-144.943
-141.305
-136.148
-129.954
-124.036
-120.028
-119.291
-122.505
-129.673
-140.997
-155.907
-172.082
-186.578
-195.88
-197.893
-193.792
-183.841
-165.602
-134.306
-81.934
-3.282
99.735
221.705
353.937
486.426
613.253
727.22
817.749
876.495
893.423
861.807
784.365
665.501
514.935
348.05
179.364
26.654
-93.007
-170.642
-204.567
-200.838
-172.84
-134.556
-96.647
-68.952
-56.41
-58.031
-71.398
-89.188
-103.185
-110.83
-111.778
-108.73
-106.264
-105.219
-104.608
-103.424
-100.218
-95.118
-89.282
-83.439
-78.223
-74.11
-71.323
-69.992
-70.144
-71.622
-74.163
-77.557
-81.636
-86.225
-91.141
-96.208
-101.209
-105.921
-110.197
-113.926
-117.026
-119.462
-121.197
-122.197
-122.478
-122.09
-121.085
-119.524
-117.454
-114.908
-111.94
-108.621
-105.028
-101.253
-97.357
-93.376
-89.338
-85.259
-81.152
-77.025
-72.868
-68.655
-64.371
-60.004
-55.553
-51.019
-46.4
-41.686
-36.872
-31.954
-26.933
-21.817
-16.612
-11.325
-5.969
-0.559
4.887
10.345
15.797
21.227
26.616
31.949
37.209
42.379
47.442
52.383
57.186
61.834
66.308
70.592
74.669
78.523
82.138
85.5
88.594
91.408
93.931
96.153
98.064
99.659
100.931
101.877
102.496
102.786
102.75
102.392
101.717
100.733
99.45
97.878
96.03
93.921
91.564
88.977
86.176
83.177
79.998
76.659
73.176
69.57
65.858
62.059
58.194
54.282
50.341
46.389
42.444
38.522
34.637
30.801
27.024
23.313
19.674
16.113
12.631
9.232
5.916
2.683
-0.465
-3.527
-6.505
-9.403
-12.228
-14.988
-17.69
-20.339
-22.944
-25.511
-28.049
-30.562
-33.047
-35.503
-37.934
-40.356
-42.793
-45.265
-47.781
-50.348
-52.97
-55.645
-58.366
-61.11
-63.827
-66.465
-68.977
-71.325
-73.486
-75.429
-77.099
-78.428
-79.341
-79.772
-79.693
-79.093
-77.943
-76.247
-74.038
-71.39
-68.447
-65.372
-62.308
-59.396
-56.776
-54.567
-52.947
-52.154
-52.352
-53.633
-55.922
-58.941
-62.431
-66.135
-69.659
-72.487
-74.091
-74.045
-72.432
-69.901
-67.047
-64.572
-63.254
-63.639
-66.447
-71.662
-77.525
-81.694
-81.783
-76.616
-67.437
-54.317
-34.601
-2.597
50.358
128.903
231.224
350.716
476.886
601.925
723.308
838.579
942.241
1024.328
1068.094
1057.969
988.44
862.411
694.281
506.554
319.768
153.268
21.885
-68.474
-118.078
-132.715
-122.815
-99.613
-71.997
-48.794
-36.765
-37.127
-48.601
-64.83
-77.446
-83.473
-83.429
-81.438
-82.706
-88.077
-95.785
-103.389
-108.593
-111.168
-111.773
-110.544
-107.839
-104.123
-100.002
-96.449
-94.027
-92.791
-92.756
-93.955
-96.37
-99.935
-104.369
-109.159
-113.915
-118.369
-122.28
-125.523
-127.992
-129.575
-130.254
-130.058
-129.011
-127.164
-124.572
-121.263
-117.283
-112.682
-107.511
-101.851
-95.793
-89.432
-82.871
-76.184
-69.421
-62.631
-55.844
-49.085
-42.372
-35.702
-29.065
-22.464
-15.905
-9.398
-2.956
3.42
9.729
15.964
22.122
28.19
34.157
40.01
45.733
51.307
56.71
61.92
66.911
71.661
76.153
80.367
84.287
87.898
91.185
94.135
96.736
98.976
100.846
102.335
103.435
104.139
104.441
104.338
103.829
102.912
101.59
99.865
97.743
95.228
92.329
89.057
85.422
81.437
77.119
72.482
67.547
62.335
56.868
51.169
45.261
39.17
32.919
26.531
20.029
13.431
6.759
0.032
-6.73
-13.508
-20.284
-27.038
-33.748
-40.393
-46.954
-53.417
-59.77
-65.998
-72.091
-78.035
-83.818
-89.433
-94.87
-100.116
-105.153
-109.97
-114.563
-118.938
-123.12
-127.123
-130.955
-134.619
-138.116
-141.443
-144.596
-147.548
-150.248
-152.646
-154.701
-156.383
-157.686
-158.58
-159.015
-158.933
-158.254
-156.93
-154.95
-152.302
-148.979
-145.017
-140.465
-135.422
-130.065
-124.562
-119.073
-113.769
-108.781
-104.241
-100.334
-97.306
-95.346
-94.503
-94.618
-95.338
-96.3
-97.18
-97.571
-96.856
-94.461
-90.182
-84.397
-78.063
-72.202
-67.644
-65.165
-65.612
-69.762
-76.935
-84.459
-89.094
-87.291
-78.196
-64.033
-44.168
-15.876
27.195
94.606
189.082
307.055
440.249
576.348
706.837
826.575
929.996
1010.014
1056.392
1057.875
1006.974
903.928
756.912
581.122
397.742
227.454
87.046
-12.173
-70.832
-95.462
-93.731
-77.542
-54.123
-30.673
-18.213
-19.93
-36.307
-63.149
-88.694
-107.29
-117.889
-121.997
-125.595
-130.903
-136.53
-141.164
-142.818
-141.054
-137.193
-132.33
-127.308
-122.844
-119.37
-117.117
-116.221
-116.645
-118.165
-120.591
-123.789
-127.561
-131.719
-136.124
-140.605
-144.996
-149.11
-152.71
-155.619
-157.73
-158.971
-159.31
-158.726
-157.209
-154.803
-151.587
-147.634
-143.017
-137.793
-132.011
-125.747
-119.094
-112.152
-105.031
-97.809
-90.538
-83.262
-76.015
-68.818
-61.687
-54.617
-47.593
-40.608
-33.666
-26.773
-19.942
-13.176
-6.476
0.156
6.715
13.196
19.588
25.881
32.062
38.115
44.023
49.765
55.317
60.66
65.776
70.65
75.266
79.611
83.668
87.424
90.865
93.98
96.754
99.174
101.228
102.904
104.193
105.086
105.578
105.663
105.338
104.599
103.446
101.879
99.899
97.508
94.709
91.507
87.906
83.913
79.535
74.784
69.675
64.225
58.455
52.389
46.049
39.461
32.656
25.663
18.51
11.225
3.835
-3.627
-11.12
-18.596
-26.011
-33.329
-40.52
-47.571
-54.461
-61.163
-67.657
-73.931
-79.968
-85.745
-91.215
-96.297
-100.92
-105.029
-108.594
-111.626
-114.107
-115.981
-117.186
-117.63
-117.25
-116.062
-114.034
-111.081
-107.231
-102.572
-97.322
-91.943
-86.803
-82.024
-77.731
-73.965
-70.589
-67.557
-64.64
-61.185
-56.641
-50.748
-43.395
-34.833
-25.605
-15.973
-6.315
2.521
9.652
14.228
15.56
13.482
8.371
0.52
-9.774
-21.71
-33.936
-44.559
-50.648
-48.602
-36.422
-12.721
23.069
69.355
127.137
198.566
284.361
385.944
500.871
623.385
747.875
866.878
971.737
1052.655
1099.314
1102.257
1056.822
965.518
833.984
673.897
500.966
329.953
178.709
60.327
-21.934
-69.63
-91.61
-98.541
-96.045
-89.282
-83.458
-81.995
-88.386
-102.934
-120.386
-135.678
-146.115
-151.639
-155.738
-160.931
-166.861
-171.928
-174.123
-172.736
-168.62
-162.986
-156.837
-150.807
-145.374
-141.05
-138.178
-136.846
-136.915
-138.111
-140.205
-143.017
-146.364
-150.035
-153.809
-157.469
-160.778
-163.504
-165.48
-166.581
-166.727
-165.889
-164.045
-161.2
-157.42
-152.794
-147.412
-141.362
-134.718
-127.543
-119.931
-111.991
-103.84
-95.604
-87.373
-79.211
-71.175
-63.303
-55.625
-48.159
-40.904
-33.841
-26.965
-20.276
-13.781
-7.491
-1.41
4.467
10.137
15.601
20.857
25.898
30.719
35.315
39.675
43.788
47.642
51.22
54.508
57.5
60.185
62.559
64.616
66.351
67.758
68.837
69.584
69.997
70.071
69.804
69.193
68.236
66.93
65.273
63.262
60.896
58.173
55.093
51.656
47.862
43.712
39.211
34.369
29.195
23.702
17.9
11.801
5.425
-1.207
-8.075
-15.157
-22.436
-29.89
-37.49
-45.195
-52.968
-60.774
-68.591
-76.408
-84.205
-91.956
-99.635
-107.217
-114.679
-122
-129.133
-136.006
-142.536
-148.652
-154.307
-159.483
-164.165
-168.315
-171.867
-174.733
-176.84
-178.144
-178.639
-178.295
-177.068
-174.995
-172.199
-168.937
-165.612
-162.562
-159.918
-157.755
-156.106
-154.844
-153.941
-153.21
-151.981
-149.62
-145.777
-140.241
-133.19
-125.091
-115.973
-106.021
-96.199
-87.556
-81.147
-78.022
-78.431
-82.103
-89.426
-99.751
-110.587
-119.498
-123.536
-121.383
-115.382
-106.239
-91.151
-63.841
-14.051
64.396
169.702
294.492
427.5
560.301
689.395
811.503
920.156
1003.632
1046.571
1037.219
973.245
861.165
715.288
552.392
386.923
231.879
97.227
-9.776
-85.577
-131.309
-152.012
-156.672
-153.46
-149.682
-150.578
-155.889
-163.684
-170.027
-170.815
-166.129
-158.499
-152.067
-150.262
-153.661
-160.857
-169.324
-177.55
-185.023
-191.31
-196.366
-199.832
-201.293
-200.962
-199.349
-196.906
-194.242
-192.051
-190.712
-190.562
-191.795
-194.268
-197.791
-202.112
-206.807
-211.37
-215.402
-218.617
-220.859
-222.117
-222.369
-221.598
-219.838
-217.164
-213.665
-209.415
-204.462
-198.837
-192.579
-185.769
-178.512
-170.924
-163.121
-155.186
-147.177
-139.143
-131.127
-123.161
-115.267
-107.45
-99.706
-92.043
-84.476
-77.024
-69.706
-62.532
-55.505
-48.63
-41.914
-35.365
-28.998
-22.825
-16.861
-11.123
-5.63
-0.406
4.53
9.158
13.466
17.44
21.071
24.348
27.265
29.814
31.992
33.795
35.219
36.26
36.913
37.177
37.048
36.524
35.605
34.288
32.573
30.462
27.96
25.074
21.813
18.188
14.212
9.898
5.258
0.31
-4.929
-10.442
-16.21
-22.215
-28.436
-34.841
-41.392
-48.057
-54.81
-61.635
-68.524
-75.465
-82.437
-89.418
-96.389
-103.328
-110.205
-116.969
-123.54
-129.835
-135.789
-141.363
-146.536
-151.285
-155.545
-159.212
-162.19
-164.411
-165.848
-166.517
-166.374
-165.335
-163.459
-160.941
-158.048
-155.118
-152.297
-149.508
-146.826
-144.467
-142.511
-140.991
-139.772
-138.458
-136.956
-135.484
-134.047
-132.52
-130.805
-128.689
-126.227
-123.824
-121.648
-119.865
-118.823
-118.781
-119.912
-122.376
-125.908
-129.928
-133.954
-135.802
-132.032
-120.057
-97.171
-63.898
-24.327
21.19
73.616
136.304
217.469
318.444
436.261
566.46
698.206
823.189
932.832
1014.936
1058.285
1051.909
991.475
880.959
731.965
562.486
389.194
227.479
90.585
-14.124
-82.813
-116.109
-122.76
-114.605
-103.474
-101.354
-111.932
-132.043
-155.977
-174.172
-182.036
-180.799
-173.669
-166.648
-162.765
-161.407
-161.432
-161.084
-159.768
-158.165
-156.693
-155.449
-154.481
-153.805
-153.358
-152.97
-152.507
-151.891
-151.306
-151.265
-152.051
-153.685
-156.191
-159.582
-163.795
-168.712
-173.999
-179.101
-183.645
-187.457
-190.434
-192.573
-193.866
-194.291
-193.906
-192.843
-191.207
-189.074
-186.493
-183.467
-180.03
-176.254
-172.218
-168.019
-163.735
-159.4
-155.022
-150.582
-146.007
-141.229
-136.208
-130.907
-125.328
-119.501
-113.396
-107.056
-100.649
-94.289
-88.037
-81.836
-75.362
-68.34
-60.804
-52.769
-44.174
-35.169
-25.933
-16.95
-9.316
-3.351
1.803
6.771
11.564
14.236
11.254
1.615
-11.171
-19.291
-14.248
7.986
44.392
86.054
124.397
154.384
175.346
190.455
201.671
209.059
212.336
210.665
204.411
195.351
184.937
174.408
165.072
157.629
152.252
148.82
146.664
144.814
142.715
140.085
136.581
132.134
126.849
120.832
114.456
108.199
102.293
96.824
91.827
87.178
82.744
78.474
74.274
70.063
65.835
61.582
57.316
53.075
48.87
44.695
40.553
36.433
32.327
28.261
24.268
20.405
16.753
13.363
10.266
7.481
5.008
2.847
0.992
-0.575
-1.879
-2.94
-3.77
-4.377
-4.768
-4.958
-4.97
-4.831
-4.573
-4.226
-3.812
-3.357
-2.88
-2.402
-1.937
-1.497
-1.088
-0.719
-0.4
-0.143
0.042
0.145
0.158
0.075
-0.112
-0.405
-0.807
-1.318
-1.933
-2.65
-3.463
-4.366
-5.351
-6.41
-7.534
-8.713
-9.936
-11.195
-12.478
-13.774
-15.074
-16.365
-17.637
-18.88
-20.084
-21.239
-22.334
-23.362
-24.313
-25.181
-25.96
-26.642
-27.223
-27.696
-28.058
-28.304
-28.433
-28.441
-28.327
-28.091
-27.734
-27.258
-26.668
-25.968
-25.163
-24.26
-23.266
-22.188
-21.035
-19.816
-18.537
-17.207
-15.837
-14.435
-13.013
-11.58
-10.148
-8.728
-7.335
-5.981
-4.684
-3.456
-2.316
-1.277
-0.353
0.443
1.105
1.625
1.995
2.209
2.263
2.153
1.877
1.431
0.81
0.011
-0.962
-2.095
-3.365
-4.758
-6.264
-7.883
-9.626
-11.496
-13.487
-15.601
-17.846
-20.218
-22.707
-25.269
-27.824
-30.311
-32.681
-34.909
-37.011
-38.954
-40.667
-42.078
-43.079
-43.604
-43.661
-43.19
-42.091
-40.374
-38.095
-35.479
-32.992
-30.895
-29.241
-28.088
-27.371
-27.024
-27.12
-27.377
-27.145
-26.063
-23.956
-20.901
-17.393
-13.684
-9.685
-5.714
-2.429
-0.452
-0.556
-3.01
-7.568
-14.372
-23.722
-35.68
-49.35
-62.304
-71.417
-73.801
-68.614
-57.518
-41.984
-21.912
6.579
51.254
119.942
217.491
343.077
490.442
647.533
799.934
933.526
1032.942
1088.863
1095.94
1051.282
959.887
826.565
659.539
474.173
286.323
116.056
-18.102
-107.86
-152.559
-159.852
-144.059
-117.379
-89.307
-68.235
-55.77
-50.771
-50.845
-49.351
-43.82
-35.505
-26.705
-22.422
-24.584
-31.625
-41.379
-50.921
-58.528
-64.015
-67.249
-68.293
-67.422
-65.046
-61.9
-58.807
-56.527
-55.521
-56.026
-58.154
-61.803
-66.745
-72.668
-79.141
-85.648
-91.8
-97.355
-102.164
-106.203
-109.472
-111.943
-113.633
-114.612
-114.943
-114.679
-113.868
-112.52
-110.664
-108.363
-105.693
-102.746
-99.614
-96.35
-92.988
-89.554
-86.059
-82.514
-78.922
-75.265
-71.519
-67.669
-63.705
-59.622
-55.42
-51.086
-46.603
-41.959
-37.14
-32.142
-26.966
-21.612
-16.085
-10.393
-4.548
1.434
7.531
13.727
20.005
26.346
32.733
39.143
45.555
51.946
58.292
64.568
70.747
76.801
82.702
88.42
93.929
99.199
104.203
108.913
113.305
117.353
121.033
124.323
127.202
129.651
131.654
133.194
134.261
134.843
134.934
134.53
133.629
132.234
130.349
127.982
125.146
121.852
118.118
113.963
109.406
104.474
99.191
93.586
87.688
81.529
75.144
68.566
61.831
54.974
48.032
41.041
34.034
27.05
20.12
13.277
6.554
-0.022
-6.42
-12.614
-18.579
-24.295
-29.742
-34.903
-39.764
-44.314
-48.547
-52.461
-56.057
-59.338
-62.31
-64.98
-67.359
-69.462
-71.3
-72.884
-74.226
-75.342
-76.251
-76.976
-77.537
-77.955
-78.249
-78.442
-78.556
-78.613
-78.628
-78.605
-78.557
-78.496
-78.444
-78.434
-78.486
-78.613
-78.825
-79.127
-79.517
-79.989
-80.514
-81.043
-81.529
-81.933
-82.227
-82.396
-82.406
-82.21
-81.757
-80.984
-79.854
-78.336
-76.398
-74.029
-71.256
-68.129
-64.745
-61.209
-57.617
-54.077
-50.699
-47.588
-44.857
-42.578
-40.864
-39.91
-39.81
-40.547
-41.978
-43.706
-45.293
-46.4
-46.516
-44.977
-41.376
-35.59
-27.95
-19.396
-11
-3.688
1.517
3.354
1.93
-1.002
-3.409
-2.366
2.114
6.531
11.195
19.473
40.569
88.766
168.803
276.776
401.163
524.538
639.025
743.909
839.593
924.692
987.963
1011.953
982.204
893.659
751.609
570.902
371.865
173.941
-3.376
-142.535
-232.755
-270.573
-260.093
-214.723
-152.316
-88.948
-39.918
-12.88
-5.5
-12.115
-22.113
-26.368
-23.947
-16.662
-9.325
-7.57
-11.811
-20.643
-32.46
-44.699
-56.506
-68.113
-79.125
-89.221
-98.383
-106.359
-113.011
-118.528
-122.978
-126.454
-129.353
-132.138
-134.985
-137.906
-140.838
-143.601
-146.098
-148.281
-149.97
-150.906
-150.949
-150.068
-148.3
-145.756
-142.505
-138.574
-134.029
-128.972
-123.496
-117.697
-111.633
-105.323
-98.791
-92.069
-85.188
-78.183
-71.079
-63.878
-56.591
-49.237
-41.836
-34.414
-26.994
-19.59
-12.212
-4.875
2.407
9.614
16.726
23.728
30.603
37.336
43.907
50.294
56.477
62.441
68.171
73.654
78.878
83.829
88.496
92.868
96.935
100.687
104.113
107.204
109.952
112.347
114.386
116.062
117.372
118.311
118.88
119.076
118.902
118.357
117.445
116.17
114.535
112.548
110.216
107.548
104.552
101.24
97.624
93.718
89.534
85.09
80.4
75.482
70.356
65.039
59.553
53.917
48.152
42.282
36.328
30.313
24.261
18.193
12.133
6.104
0.127
-5.774
-11.58
-17.269
-22.822
-28.22
-33.445
-38.48
-43.31
-47.921
-52.301
-56.436
-60.318
-63.936
-67.285
-70.356
-73.145
-75.648
-77.862
-79.789
-81.43
-82.786
-83.861
-84.661
-85.192
-85.462
-85.481
-85.256
-84.799
-84.121
-83.235
-82.153
-80.891
-79.461
-77.878
-76.157
-74.314
-72.365
-70.324
-68.208
-66.03
-63.807
-61.553
-59.283
-57.014
-54.759
-52.536
-50.361
-48.252
-46.228
-44.304
-42.496
-40.818
-39.286
-37.91
-36.7
-35.663
-34.804
-34.131
-33.652
-33.375
-33.304
-33.443
-33.793
-34.356
-35.137
-36.132
-37.329
-38.718
-40.293
-42.054
-44.013
-46.178
-48.541
-51.096
-53.829
-56.725
-59.762
-62.901
-66.079
-69.234
-72.309
-75.258
-78.061
-80.677
-83.055
-85.128
-86.821
-88.085
-88.908
-89.267
-89.144
-88.556
-87.546
-86.217
-84.727
-83.201
-81.749
-80.483
-79.499
-78.922
-78.884
-79.505
-80.943
-83.304
-86.577
-90.647
-95.278
-100.103
-104.737
-108.688
-111.296
-112.027
-110.603
-107.18
-102.352
-96.796
-91.317
-86.833
-84.233
-84.547
-87.621
-91.179
-92.742
-89.792
-81.438
-70.222
-56.887
-38.463
-9.267
40.1
116.407
218.553
341.344
475.766
610.699
738.197
848.204
928.023
966.523
953.533
886.666
772.104
621.111
449.692
274.114
110.499
-26.356
-126.3
-185.87
-208.535
-203.093
-181.53
-153.694
-128.233
-111.195
-102.769
-101.549
-103.027
-102.585
-100.328
-98.235
-99.827
-107.356
-119.585
-133.539
-145.836
-154.556
-159.259
-160.207
-158.054
-153.4
-146.975
-139.92
-133.381
-128.07
-124.424
-122.577
-122.432
-123.865
-126.644
-130.356
-134.517
-138.761
-142.778
-146.329
-149.31
-151.629
-153.216
-154.069
-154.197
-153.601
-152.309
-150.359
-147.771
-144.585
-140.842
-136.582
-131.877
-126.807
-121.458
-115.928
-110.283
-104.571
-98.832
-93.093
-87.373
-81.686
-76.027
-70.38
-64.737
-59.097
-53.459
-47.828
-42.198
-36.563
-30.92
-25.266
-19.604
-13.941
-8.282
-2.635
2.988
8.571
14.098
19.549
24.907
30.156
35.283
40.273
45.11
49.782
54.275
58.577
62.674
66.554
70.201
73.603
76.746
79.621
82.215
84.517
86.521
88.216
89.598
90.662
91.403
91.82
91.912
91.679
91.126
90.258
89.08
87.601
85.83
83.78
81.463
78.893
76.086
73.057
69.823
66.402
62.812
59.072
55.201
51.217
47.14
42.99
38.786
34.549
30.296
26.047
21.819
17.628
13.492
9.427
5.445
1.561
-2.214
-5.868
-9.39
-12.772
-16.007
-19.09
-22.017
-24.784
-27.389
-29.833
-32.117
-34.243
-36.212
-38.029
-39.696
-41.218
-42.603
-43.854
-44.98
-45.985
-46.877
-47.664
-48.354
-48.955
-49.472
-49.914
-50.287
-50.599
-50.858
-51.072
-51.249
-51.395
-51.522
-51.642
-51.766
-51.904
-52.063
-52.254
-52.487
-52.772
-53.119
-53.534
-54.017
-54.576
-55.219
-55.954
-56.787
-57.719
-58.747
-59.875
-61.105
-62.443
-63.891
-65.438
-67.078
-68.804
-70.618
-72.534
-74.555
-76.675
-78.885
-81.174
-83.534
-85.955
-88.415
-90.866
-93.264
-95.564
-97.729
-99.742
-101.573
-103.194
-104.583
-105.701
-106.513
-106.995
-107.103
-106.819
-106.19
-105.247
-104.013
-102.607
-101.165
-99.921
-99.25
-99.344
-100.198
-101.801
-104.13
-107.086
-110.524
-113.9
-116.23
-116.87
-115.57
-112.268
-107.096
-100.134
-91.481
-82.035
-73.487
-67.166
-64.024
-64.587
-68.744
-76.729
-88.102
-100.146
-109.366
-112.454
-107.753
-97.547
-84.009
-65.66
-38.051
7.393
78.562
175.934
295.767
430
566.38
695.38
805.611
883.769
920.674
908.638
847.202
743.688
607.536
451.7
289.849
135.853
4.693
-91.591
-148.055
-166.621
-155.731
-128.431
-95.262
-65.626
-45.981
-35.754
-32.216
-29.51
-22.003
-9.833
3.678
13.613
16.682
13.183
5.377
-3.968
-13.4
-22.255
-29.624
-35.115
-38.538
-39.856
-39.639
-38.389
-36.323
-33.948
-32.008
-30.968
-31.067
-32.301
-34.349
-36.916
-39.78
-42.617
-45.054
-46.841
-47.841
-48.013
-47.419
-46.103
-44.094
-41.45
-38.244
-34.535
-30.366
-25.781
-20.818
-15.546
-10.057
-4.428
1.283
7.031
12.786
18.522
24.214
29.849
35.428
40.948
46.398
51.765
57.03
62.18
67.212
72.124
76.917
81.588
86.132
90.542
94.811
98.932
102.893
106.678
110.272
113.663
116.841
119.798
122.529
125.027
127.285
129.297
131.059
132.568
133.817
134.801
135.515
135.954
136.116
135.999
135.601
134.92
133.956
132.71
131.182
129.376
127.291
124.932
122.302
119.404
116.245
112.831
109.168
105.264
101.128
96.771
92.202
87.434
82.479
77.349
72.059
66.624
61.057
55.375
49.593
43.728
37.797
31.817
25.805
19.78
13.758
7.758
1.796
-4.11
-9.944
-15.69
-21.331
-26.854
-32.242
-37.483
-42.562
-47.467
-52.188
-56.712
-61.03
-65.133
-69.014
-72.665
-76.081
-79.259
-82.195
-84.887
-87.336
-89.542
-91.507
-93.235
-94.73
-95.997
-97.042
-97.873
-98.499
-98.928
-99.169
-99.234
-99.133
-98.878
-98.481
-97.954
-97.309
-96.558
-95.714
-94.791
-93.8
-92.754
-91.666
-90.548
-89.414
-88.274
-87.143
-86.029
-84.945
-83.901
-82.904
-81.964
-81.088
-80.282
-79.55
-78.896
-78.323
-77.834
-77.429
-77.11
-76.874
-76.719
-76.644
-76.646
-76.719
-76.859
-77.06
-77.317
-77.623
-77.974
-78.363
-78.784
-79.228
-79.691
-80.165
-80.644
-81.121
-81.588
-82.039
-82.467
-82.867
-83.235
-83.565
-83.857
-84.109
-84.324
-84.507
-84.663
-84.797
-84.916
-85.027
-85.139
-85.259
-85.391
-85.54
-85.713
-85.919
-86.17
-86.477
-86.847
-87.289
-87.812
-88.423
-89.134
-89.945
-90.852
-91.855
-92.957
-94.174
-95.534
-97.056
-98.747
-100.61
-102.646
-104.848
-107.204
-109.682
-112.218
-114.756
-117.24
-119.633
-121.917
-124.051
-125.98
-127.634
-128.926
-129.797
-130.223
-130.18
-129.647
-128.647
-127.221
-125.46
-123.539
-121.615
-119.828
-118.32
-117.189
-116.541
-116.531
-117.359
-119.187
-122.06
-125.878
-130.392
-135.308
-140.316
-144.985
-148.682
-150.792
-150.984
-149.302
-146.255
-142.661
-139.336
-137.161
-137.247
-139.926
-144.276
-148.75
-150.851
-149.422
-145.675
-140.242
-132.513
-117.361
-85.306
-28.198
59.245
174.372
308.135
451.166
592.432
724.094
839.209
926.643
976.571
979.019
927.091
823.009
673.752
492.863
300.173
115.128
-41.782
-154.703
-219.566
-239.046
-225.526
-197.497
-168.138
-149.201
-146.431
-155.782
-172.745
-189.751
-198.628
-198.357
-190.59
-179.37
-170.676
-166.614
-166.481
-168.913
-172.247
-176.188
-181.345
-187.79
-194.84
-201.569
-207.453
-212.358
-216.263
-219.228
-221.245
-222.505
-223.679
-225.362
-227.788
-230.998
-234.808
-238.919
-243.114
-247.132
-250.584
-253.208
-254.879
-255.533
-255.229
-254.061
-252.086
-249.385
-246.053
-242.148
-237.725
-232.844
-227.558
-221.946
-216.106
-210.11
-204.014
-197.863
-191.683
-185.497
-179.323
-173.157
-166.991
-160.825
-154.668
-148.535
-142.444
-136.404
-130.421
-124.5
-118.645
-112.864
-107.162
-101.547
-96.031
-90.628
-85.354
-80.231
-75.277
-70.51
-65.947
-61.6
-57.484
-53.61
-49.99
-46.636
-43.558
-40.769
-38.281
-36.108
-34.26
-32.749
-31.586
-30.778
-30.334
-30.258
-30.552
-31.217
-32.251
-33.653
-35.418
-37.541
-40.014
-42.83
-45.983
-49.464
-53.263
-57.364
-61.754
-66.414
-71.324
-76.459
-81.792
-87.29
-92.922
-98.654
-104.455
-110.285
-116.109
-121.884
-127.57
-133.126
-138.509
-143.675
-148.578
-153.177
-157.436
-161.33
-164.843
-167.96
-170.666
-172.946
-174.785
-176.165
-177.06
-177.426
-177.204
-176.328
-174.739
-172.38
-169.196
-165.126
-160.111
-154.092
-147.013
-138.835
-129.525
-119.057
-107.417
-94.631
-80.766
-65.956
-50.402
-34.326
-17.95
-1.528
14.647
30.316
45.267
59.399
72.818
85.664
98.021
110.064
122.05
134.174
146.609
159.257
171.465
182.555
192.032
199.193
203.381
204.229
201.259
195.4
189.751
187.193
190.502
200.976
216.564
236.67
263.923
303.202
362.636
448.025
557.891
686.816
825.977
965.194
1097.554
1214.249
1303.608
1353.982
1354.096
1300.396
1198.445
1060.548
903.605
743.325
593.674
465.967
367.454
300.492
261.359
241.584
231.065
223.655
217.523
213.515
213.962
217.907
222.206
224.328
222.145
215.656
206.475
196.109
186.069
177.795
172.352
170.164
171.072
174.394
179.124
184.387
189.496
193.77
196.63
197.765
197.072
194.664
190.828
185.816
179.854
173.167
165.936
158.338
150.569
142.852
135.409
128.415
121.979
116.171
111.039
106.621
102.93
99.929
97.54
95.689
94.309
93.35
92.771
92.509
92.479
92.586
92.731
92.847
92.892
92.835
92.653
92.336
91.881
91.308
90.652
89.935
89.172
88.373
87.541
86.688
85.831
84.983
84.157
83.361
82.597
81.871
81.185
80.535
79.915
79.316
78.726
78.133
77.531
76.911
76.268
75.594
74.88
74.119
73.304
72.427
71.478
70.447
69.324
68.097
66.758
65.299
63.709
61.982
60.111
58.088
55.908
53.566
51.058
48.38
45.531
42.509
39.314
35.948
32.414
28.717
24.86
20.851
16.695
12.401
7.976
3.424
-1.248
-6.035
-10.931
-15.927
-21.017
-26.193
-31.445
-36.761
-42.126
-47.528
-52.955
-58.399
-63.851
-69.298
-74.731
-80.138
-85.511
-90.845
-96.128
-101.342
-106.471
-111.508
-116.453
-121.322
-126.122
-130.85
-135.502
-140.074
-144.56
-148.951
-153.22
-157.315
-161.185
-164.782
-168.075
-171.05
-173.674
-175.896
-177.654
-178.878
-179.529
-179.602
-179.093
-177.985
-176.293
-174.063
-171.384
-168.422
-165.325
-162.219
-159.243
-156.528
-154.206
-152.456
-151.489
-151.432
-152.343
-154.133
-156.524
-159.261
-162.088
-164.601
-166.303
-166.755
-165.625
-162.982
-159.528
-155.938
-152.721
-150.615
-150.229
-151.88
-156.058
-161.82
-165.988
-165.792
-158.649
-143.354
-122.12
-95.655
-61.484
-15.678
47.911
133.144
237.363
355.267
479.988
603.442
719.385
818.96
889.898
919.349
896.01
816.606
686.227
519.207
336.769
159.551
7.649
-104.782
-173.564
-200.038
-191.95
-162.788
-124.708
-89.366
-68.097
-63.449
-72.977
-91.028
-106.684
-114.822
-115.861
-112.11
-109.264
-109.656
-111.832
-113.992
-113.978
-111.289
-106.969
-101.982
-97.095
-92.778
-89.332
-87.115
-86.316
-86.9
-88.691
-91.426
-94.908
-98.981
-103.433
-108.048
-112.603
-116.863
-120.656
-123.879
-126.443
-128.306
-129.446
-129.84
-129.497
-128.466
-126.806
-124.589
-121.879
-118.725
-115.193
-111.364
-107.331
-103.203
-99.065
-94.97
-90.961
-87.067
-83.31
-79.709
-76.266
-72.965
-69.791
-66.738
-63.803
-60.99
-58.297
-55.715
-53.23
-50.831
-48.511
-46.268
-44.097
-41.995
-39.96
-37.992
-36.095
-34.276
-32.538
-30.88
-29.3
-27.795
-26.365
-25.007
-23.72
-22.502
-21.351
-20.268
-19.253
-18.311
-17.443
-16.65
-15.935
-15.3
-14.748
-14.282
-13.905
-13.622
-13.437
-13.358
-13.395
-13.557
-13.854
-14.297
-14.895
-15.66
-16.6
-17.723
-19.033
-20.534
-22.232
-24.132
-26.242
-28.57
-31.118
-33.889
-36.885
-40.107
-43.556
-47.226
-51.102
-55.174
-59.435
-63.888
-68.548
-73.426
-78.515
-83.805
-89.284
-94.931
-100.721
-106.607
-112.515
-118.371
-124.103
-129.654
-134.986
-140.052
-144.778
-149.076
-152.842
-155.988
-158.475
-160.284
-161.383
-161.775
-161.497
-160.627
-159.345
-157.841
-156.269
-154.789
-153.543
-152.651
-152.317
-152.792
-154.242
-156.775
-160.309
-164.511
-169.089
-173.756
-178.047
-181.396
-183.247
-183.106
-181.015
-177.703
-173.876
-170.147
-167.285
-165.925
-166.495
-169.471
-173.864
-176.568
-174.674
-165.265
-146.56
-119.969
-85.944
-42.387
13.755
88.208
185.903
305.678
444.098
595.02
748.076
894.231
1021.241
1113.525
1159.022
1148.839
1082.825
969.991
822.904
656.373
484.081
319.112
175.038
62.699
-13.452
-57.055
-78.913
-91.931
-103.23
-113.871
-121.329
-121.782
-115.666
-106.529
-97.822
-92.732
-92.533
-96.878
-104.985
-115.695
-127.712
-139.728
-150.798
-160.254
-167.362
-171.707
-173.362
-172.567
-169.863
-166.039
-161.642
-157.234
-153.588
-151.199
-150.261
-150.836
-152.72
-155.595
-159.257
-163.378
-167.47
-171.146
-174.088
-176.085
-177.104
-177.131
-176.132
-174.122
-171.155
-167.29
-162.619
-157.217
-151.129
-144.416
-137.147
-129.415
-121.336
-113.025
-104.6
-96.15
-87.741
-79.428
-71.254
-63.251
-55.442
-47.836
-40.429
-33.226
-26.238
-19.474
-12.949
-6.668
-0.631
5.161
10.705
15.999
21.035
25.806
30.307
34.528
38.462
42.097
45.422
48.43
51.116
53.48
55.519
57.236
58.63
59.704
60.462
60.908
61.047
60.882
60.418
59.66
58.616
57.291
55.694
53.833
51.716
49.355
46.759
43.939
40.908
37.678
34.263
30.676
26.931
23.044
19.029
14.902
10.678
6.373
2.004
-2.415
-6.866
-11.333
-15.802
-20.256
-24.681
-29.06
-33.381
-37.628
-41.788
-45.847
-49.793
-53.612
-57.294
-60.826
-64.199
-67.402
-70.426
-73.264
-75.908
-78.353
-80.592
-82.623
-84.443
-86.048
-87.437
-88.611
-89.569
-90.312
-90.843
-91.163
-91.277
-91.188
-90.901
-90.422
-89.758
-88.915
-87.902
-86.725
-85.395
-83.919
-82.307
-80.569
-78.713
-76.749
-74.686
-72.536
-70.309
-68.016
-65.668
-63.274
-60.845
-58.392
-55.925
-53.455
-50.989
-48.538
-46.11
-43.714
-41.359
-39.056
-36.81
-34.631
-32.527
-30.505
-28.574
-26.738
-25.003
-23.373
-21.853
-20.448
-19.162
-17.998
-16.96
-16.055
-15.289
-14.67
-14.204
-13.897
-13.754
-13.778
-13.973
-14.34
-14.876
-15.576
-16.438
-17.461
-18.646
-19.989
-21.488
-23.136
-24.928
-26.86
-28.926
-31.112
-33.399
-35.774
-38.23
-40.771
-43.413
-46.165
-49.019
-51.972
-55.02
-58.147
-61.337
-64.548
-67.709
-70.756
-73.633
-76.293
-78.713
-80.844
-82.614
-83.957
-84.787
-85.051
-84.736
-83.811
-82.253
-80.081
-77.33
-74.107
-70.606
-66.997
-63.451
-60.155
-57.227
-54.85
-53.275
-52.661
-53.137
-54.68
-56.992
-59.796
-62.867
-65.812
-68.184
-69.607
-69.616
-68.202
-66.121
-64.085
-62.781
-63.084
-65.553
-70.509
-78.515
-88.71
-97.87
-102.91
-100.608
-88.908
-69.703
-44.237
-10.614
34.57
97.828
185.242
295.9
425.24
566.029
707.701
841.918
958.445
1044.087
1086.007
1072.054
998.116
868.402
695.433
499.572
301.836
123.588
-18.6
-117.385
-173.952
-196.883
-196.298
-181.831
-158.884
-131.698
-107.173
-88.143
-77.099
-73.581
-71.206
-68.17
-64.715
-61.693
-63.358
-70.589
-81.229
-93.567
-104.854
-112.965
-117.687
-119.121
-117.526
-113.647
-108.265
-101.956
-95.511
-89.916
-85.641
-82.87
-81.687
-81.833
-82.976
-84.88
-87.113
-89.109
-90.539
-91.211
-91.02
-90.029
-88.27
-85.719
-82.435
-78.519
-74.047
-69.098
-63.722
-57.932
-51.788
-45.382
-38.818
-32.219
-25.676
-19.242
-12.966
-6.883
-1.018
4.606
9.988
15.145
20.087
24.819
29.342
33.653
37.76
41.681
45.434
49.037
52.505
55.848
59.076
62.199
65.225
68.158
70.999
73.748
76.406
78.978
81.469
83.883
86.224
88.495
90.699
92.838
94.913
96.923
98.866
100.739
102.536
104.255
105.889
107.432
108.876
110.214
111.439
112.542
113.516
114.35
115.037
115.568
115.935
116.131
116.15
115.985
115.63
115.082
114.338
113.396
112.255
110.915
109.376
107.641
105.715
103.6
101.304
98.831
96.189
93.388
90.437
87.347
84.128
80.794
77.355
73.827
70.223
66.556
62.841
59.092
55.323
51.549
47.785
44.043
40.336
36.677
33.077
29.548
26.1
22.74
19.479
16.322
13.276
10.349
7.543
4.863
2.311
-0.111
-2.403
-4.564
-6.596
-8.499
-10.276
-11.93
-13.463
-14.879
-16.18
-17.373
-18.463
-19.455
-20.354
-21.167
-21.902
-22.567
-23.169
-23.716
-24.216
-24.674
-25.1
-25.5
-25.883
-26.256
-26.627
-27.005
-27.403
-27.834
-28.308
-28.835
-29.426
-30.091
-30.84
-31.679
-32.609
-33.632
-34.752
-35.974
-37.306
-38.752
-40.313
-41.99
-43.786
-45.702
-47.738
-49.885
-52.125
-54.448
-56.849
-59.335
-61.923
-64.619
-67.421
-70.322
-73.314
-76.384
-79.513
-82.659
-85.754
-88.736
-91.556
-94.177
-96.574
-98.704
-100.502
-101.897
-102.815
-103.205
-103.044
-102.304
-100.969
-99.062
-96.631
-93.757
-90.585
-87.245
-83.851
-80.536
-77.417
-74.601
-72.27
-70.662
-69.911
-70.054
-70.985
-72.373
-73.855
-75.104
-75.618
-74.745
-72.072
-67.43
-61.069
-54.031
-47.541
-42.599
-40.407
-41.495
-45.094
-50.27
-55.266
-58.912
-61.93
-64.025
-63.543
-54.537
-27.507
24.86
107.039
215.757
342.805
481.089
621.789
757.743
879.571
972.641
1023.736
1022.14
965.357
860.346
719.362
558.533
393.506
238.785
106.977
6.893
-57.935
-89.498
-94.713
-84.027
-66.61
-51.127
-43.48
-44.15
-51.825
-61.424
-67.601
-69.316
-67.885
-67.253
-70.699
-78.011
-86.792
-93.958
-97.989
-98.978
-97.672
-94.937
-90.965
-86.099
-81.32
-77.429
-74.898
-73.936
-74.361
-76.021
-79
-83.152
-88.093
-93.51
-99.087
-104.584
-109.877
-114.768
-119.043
-122.592
-125.364
-127.338
-128.516
-128.892
-128.475
-127.316
-125.474
-123.006
-119.973
-116.423
-112.423
-108.057
-103.417
-98.599
-93.672
-88.681
-83.666
-78.657
-73.675
-68.733
-63.828
-58.945
-54.08
-49.237
-44.419
-39.635
-34.887
-30.173
-25.499
-20.868
-16.288
-11.768
-7.316
-2.945
1.332
5.498
9.536
13.426
17.151
20.699
24.056
27.211
30.154
32.874
35.364
37.617
39.626
41.382
42.878
44.106
45.059
45.728
46.105
46.182
45.954
45.413
44.555
43.373
41.863
40.022
37.853
35.358
32.54
29.405
25.956
22.202
18.155
13.828
9.235
4.385
-0.708
-6.026
-11.538
-17.213
-23.023
-28.95
-34.987
-41.124
-47.34
-53.612
-59.92
-66.243
-72.56
-78.831
-84.984
-90.939
-96.624
-101.985
-107.004
-111.673
-115.955
-119.792
-123.102
-125.805
-127.859
-129.251
-129.929
-129.834
-128.995
-127.527
-125.706
-123.919
-122.479
-121.588
-121.371
-121.883
-123.038
-124.664
-126.416
-127.687
-127.855
-126.367
-122.919
-117.495
-110.365
-101.905
-92.568
-83.137
-74.595
-68.116
-64.766
-65.201
-69.551
-77.76
-88.981
-100.997
-111.482
-117.597
-117.923
-114.3
-107.503
-95.619
-73.124
-29.368
44.071
147.819
276.036
417.099
559.758
698.13
828.993
947.99
1046.313
1112.283
1134.466
1106.933
1033.105
920.484
779.167
620.601
455.484
296.913
159.035
53.69
-14.632
-48.803
-55.861
-47.336
-31.111
-13.438
-2.793
-1.593
-10.751
-28.146
-45.694
-59.952
-70.438
-78.179
-87.235
-98.057
-108.684
-117.862
-123.808
-126.145
-125.826
-123.275
-119.269
-115.089
-111.582
-109.283
-108.505
-109.142
-111.049
-114.31
-118.808
-124.133
-129.948
-135.954
-141.916
-147.748
-153.267
-158.174
-162.282
-165.496
-167.763
-169.09
-169.464
-168.851
-167.285
-164.842
-161.601
-157.652
-153.067
-147.901
-142.238
-136.18
-129.836
-123.326
-116.737
-110.132
-103.564
-97.071
-90.686
-84.43
-78.307
-72.306
-66.428
-60.674
-55.054
-49.58
-44.257
-39.088
-34.077
-29.226
-24.542
-20.034
-15.707
-11.572
-7.639
-3.921
-0.431
2.816
5.807
8.535
10.991
13.172
15.072
16.688
18.018
19.061
19.815
20.279
20.451
20.331
19.918
19.213
18.218
16.934
15.366
13.519
11.399
9.014
6.37
3.477
0.347
-3.008
-6.576
-10.341
-14.291
-18.41
-22.681
-27.086
-31.61
-36.233
-40.938
-45.705
-50.515
-55.348
-60.184
-65.003
-69.786
-74.514
-79.168
-83.727
-88.174
-92.489
-96.656
-100.656
-104.472
-108.089
-111.492
-114.669
-117.607
-120.297
-122.73
-124.898
-126.798
-128.426
-129.779
-130.858
-131.661
-132.192
-132.454
-132.454
-132.197
-131.693
-130.952
-129.989
-128.82
-127.463
-125.935
-124.255
-122.445
-120.528
-118.526
-116.46
-114.347
-112.202
-110.048
-107.906
-105.795
-103.733
-101.732
-99.806
-97.973
-96.251
-94.658
-93.2
-91.875
-90.68
-89.623
-88.72
-87.998
-87.468
-87.133
-86.996
-87.063
-87.338
-87.824
-88.494
-89.292
-90.16
-91.042
-91.906
-92.736
-93.51
-94.19
-94.716
-95.004
-94.989
-94.641
-93.931
-92.854
-91.404
-89.543
-87.335
-85
-82.846
-81.194
-80.225
-79.887
-80.119
-81.079
-82.867
-85.353
-88.025
-90.07
-90.979
-90.793
-89.728
-87.68
-84.435
-79.973
-75.015
-71.043
-69.24
-70.203
-74.12
-81.118
-91.659
-105.366
-119.848
-131.934
-138.365
-137.56
-131.384
-120.707
-103.34
-74.665
-26.262
48.405
148.794
270.89
406.669
544.75
677.34
795.045
885.47
940.577
951.255
912.279
827.872
702.297
545.857
375.196
205.684
57.027
-55.167
-127.235
-161.719
-169.023
-161.648
-145.827
-125.88
-105.733
-87.935
-75.784
-70.01
-66.605
-61.799
-54.117
-45.025
-38.699
-37.668
-41.747
-49.289
-57.962
-66.667
-75.023
-82.259
-88.053
-92.306
-95.04
-96.764
-97.877
-98.482
-98.959
-99.975
-101.94
-105.038
-109.211
-114.115
-119.437
-124.947
-130.338
-135.24
-139.391
-142.647
-144.958
-146.373
-146.938
-146.683
-145.655
-143.921
-141.535
-138.536
-134.971
-130.886
-126.346
-121.445
-116.257
-110.834
-105.222
-99.449
-93.538
-87.513
-81.383
-75.143
-68.799
-62.365
-55.859
-49.305
-42.719
-36.112
-29.492
-22.868
-16.253
-9.66
-3.104
3.399
9.832
16.174
22.4
28.485
34.408
40.153
45.704
51.047
56.169
61.057
65.699
70.089
74.217
78.073
81.648
84.933
87.922
90.611
92.996
95.074
96.844
98.306
99.462
100.315
100.868
101.126
101.092
100.772
100.169
99.289
98.134
96.705
95.008
93.043
90.816
88.331
85.59
82.6
79.369
75.905
72.218
68.312
64.193
59.865
55.337
50.62
45.722
40.653
35.421
30.038
24.523
18.897
13.175
7.359
1.438
-4.594
-10.733
-16.964
-23.275
-29.649
-36.064
-42.483
-48.843
-55.071
-61.103
-66.884
-72.375
-77.547
-82.341
-86.68
-90.481
-93.65
-96.137
-97.924
-98.979
-99.303
-98.948
-97.952
-96.434
-94.645
-92.784
-91.06
-89.711
-88.758
-88.255
-88.506
-89.728
-91.895
-94.869
-98.123
-101.073
-103.658
-105.717
-106.697
-106.115
-103.623
-99.304
-94.329
-89.966
-86.72
-85.193
-85.943
-89.313
-95.925
-104.572
-111.204
-112.095
-103.843
-85.689
-60.844
-29.304
12.036
69.615
152.718
263.832
398.603
548.132
700.353
846.891
981.559
1096.032
1180.653
1222.964
1212.102
1145.873
1028.824
873.041
696.007
514.548
345.553
202.802
94.204
21.578
-19.134
-35.725
-38.378
-35.298
-33.323
-37.079
-45.743
-56.734
-65.403
-67.267
-61.847
-51.189
-39.45
-30.386
-25.472
-24.29
-25.04
-26.675
-29.47
-33.904
-40.358
-48.399
-56.654
-64.272
-71.092
-77.046
-82.176
-86.52
-90.013
-92.979
-96.211
-100.163
-104.919
-110.414
-116.297
-122.218
-128.003
-133.365
-137.914
-141.434
-143.799
-144.963
-145.053
-144.181
-142.41
-139.839
-136.556
-132.629
-128.152
-123.217
-117.908
-112.333
-106.578
-100.705
-94.771
-88.815
-82.865
-76.946
-71.061
-65.198
-59.362
-53.563
-47.819
-42.154
-36.581
-31.106
-25.736
-20.478
-15.339
-10.331
-5.462
-0.742
3.814
8.19
12.366
16.322
20.041
23.512
26.724
29.669
32.339
34.728
36.831
38.643
40.16
41.378
42.293
42.9
43.199
43.188
42.868
42.241
41.309
40.079
38.555
36.747
34.661
32.309
29.701
26.852
23.774
20.482
16.991
13.318
9.481
5.497
1.386
-2.835
-7.147
-11.53
-15.964
-20.429
-24.905
-29.375
-33.819
-38.218
-42.555
-46.816
-50.987
-55.057
-59.015
-62.849
-66.551
-70.113
-73.529
-76.789
-79.885
-82.807
-85.552
-88.117
-90.504
-92.714
-94.747
-96.604
-98.289
-99.81
-101.17
-102.371
-103.405
-104.273
-104.985
-105.557
-106.019
-106.388
-106.678
-106.897
-107.059
-107.167
-107.224
-107.21
-107.084
-106.811
-106.366
-105.733
-104.907
-103.862
-102.555
-100.939
-98.962
-96.593
-93.82
-90.629
-87.016
-83.011
-78.668
-74.063
-69.326
-64.579
-59.932
-55.516
-51.442
-47.808
-44.771
-42.536
-41.238
-40.906
-41.401
-42.418
-43.625
-44.713
-45.276
-44.778
-42.741
-39.03
-34.035
-28.539
-23.557
-20.045
-18.752
-20.661
-26.067
-33.754
-41.63
-46.86
-47.951
-45.798
-41.019
-32.607
-14.958
20.715
80.524
167.471
277.104
400.425
530.456
658.791
778.364
880.827
953.079
982.053
957.091
874.945
740.503
567.722
377.672
191.74
31.532
-87.411
-160.25
-189.225
-183.093
-154.353
-113.971
-71.023
-35.106
-12.199
-2.889
-4.943
-10.636
-12.11
-7.975
0.124
7.849
10.151
6.2
-2.567
-14.373
-26.869
-38.521
-48.646
-56.832
-63.09
-67.663
-70.816
-72.756
-73.78
-74.512
-75.693
-77.793
-80.967
-85.087
-89.857
-95.015
-100.347
-105.558
-110.288
-114.303
-117.489
-119.832
-121.407
-122.276
-122.459
-121.998
-120.948
-119.349
-117.247
-114.689
-111.714
-108.386
-104.766
-100.897
-96.821
-92.565
-88.148
-83.583
-78.876
-74.021
-69.019
-63.879
-58.614
-53.24
-47.769
-42.21
-36.567
-30.846
-25.055
-19.208
-13.315
-7.39
-1.449
4.487
10.395
16.246
22.019
27.691
33.242
38.654
43.906
48.977
53.847
58.498
62.912
67.068
70.947
74.531
77.802
80.745
83.346
85.593
87.476
88.984
90.109
90.845
91.189
91.139
90.694
89.854
88.622
87.005
85.009
82.643
79.918
76.844
73.436
69.709
65.678
61.362
56.779
51.948
46.889
41.624
36.175
30.564
24.815
18.949
12.99
6.961
0.882
-5.224
-11.343
-17.457
-23.55
-29.609
-35.621
-41.573
-47.456
-53.258
-58.968
-64.574
-70.067
-75.441
-80.693
-85.82
-90.816
-95.68
-100.408
-104.998
-109.453
-113.766
-117.927
-121.929
-125.773
-129.467
-133.032
-136.485
-139.829
-143.07
-146.211
-149.25
-152.182
-154.985
-157.613
-160.023
-162.174
-164.039
-165.607
-166.85
-167.721
-168.164
-168.105
-167.495
-166.313
-164.536
-162.144
-159.155
-155.601
-151.561
-147.18
-142.594
-137.935
-133.341
-128.915
-124.768
-121.051
-117.959
-115.665
-114.238
-113.585
-113.467
-113.615
-113.751
-113.507
-112.35
-109.748
-105.404
-99.5
-92.716
-85.82
-79.644
-75.147
-73.209
-74.719
-79.449
-85.224
-89.361
-88.986
-83.018
-73.026
-59.322
-40.205
-10.434
38.133
111.473
211.637
335.058
474.366
620.079
761.223
887.232
985.344
1042.911
1049.702
998.164
888.61
729.008
535.315
331.535
142.831
-7.753
-106.018
-151.722
-152.762
-124.968
-86.503
-49.784
-26.493
-22.307
-34.185
-57.314
-81.688
-97.782
-104.176
-102.585
-97.517
-94.337
-93.817
-94.803
-96.408
-97.343
-97.429
-97.166
-96.8
-96.675
-97.092
-98.003
-99.01
-99.813
-100.443
-101.21
-102.417
-104.171
-106.407
-109.023
-112.067
-115.541
-119.217
-122.682
-125.564
-127.646
-128.85
-129.198
-128.668
-127.22
-124.887
-121.762
-117.952
-113.546
-108.592
-103.109
-97.144
-90.777
-84.106
-77.243
-70.27
-63.236
-56.184
-49.144
-42.137
-35.182
-28.279
-21.414
-14.585
-7.795
-1.054
5.621
12.222
18.747
25.193
31.559
37.842
44.032
50.12
56.095
61.943
67.646
73.187
78.544
83.7
88.64
93.35
97.818
102.031
105.979
109.65
113.034
116.122
118.902
121.365
123.5
125.301
126.761
127.873
128.63
129.028
129.065
128.739
128.05
126.998
125.583
123.81
121.684
119.211
116.401
113.26
109.8
106.032
101.969
97.622
93.003
88.123
82.995
77.632
72.049
66.259
60.278
54.121
47.808
41.358
34.791
28.125
21.375
14.554
7.682
0.776
-6.147
-13.073
-19.988
-26.875
-33.709
-40.469
-47.14
-53.714
-60.2
-66.598
-72.899
-79.091
-85.162
-91.093
-96.868
-102.453
-107.788
-112.819
-117.494
-121.776
-125.652
-129.09
-132.042
-134.45
-136.244
-137.382
-137.864
-137.684
-136.836
-135.345
-133.266
-130.706
-127.833
-124.791
-121.707
-118.707
-115.915
-113.482
-111.555
-110.292
-109.878
-110.387
-111.793
-113.967
-116.605
-119.345
-121.866
-123.682
-124.179
-122.975
-119.852
-114.974
-109.1
-102.907
-96.838
-91.576
-87.794
-85.86
-86.2
-87.601
-86.702
-80.736
-67.07
-44.859
-16.977
15.597
54.105
101.239
164.508
249.228
355.416
480.939
616.542
749.639
868.82
959.611
1009.434
1009.767
954.526
845.856
693.629
512.964
325.103
150.938
7.009
-95.816
-157.371
-183.182
-181.678
-164.757
-141.041
-119.06
-106.059
-102.258
-105.183
-108.837
-107.228
-100.154
-90.882
-84.78
-85.586
-93.33
-105.784
-119.534
-132.362
-143.182
-151.328
-156.853
-159.81
-160.266
-158.81
-156.147
-152.975
-150.24
-148.626
-148.388
-149.64
-152.277
-156.015
-160.596
-165.66
-170.663
-175.179
-178.97
-181.896
-183.964
-185.206
-185.595
-185.145
-183.93
-182.021
-179.48
-176.358
-172.665
-168.431
-163.723
-158.626
-153.243
-147.679
-142.001
-136.262
-130.505
-124.761
-119.058
-113.418
-107.844
-102.332
-96.885
-91.51
-86.221
-81.031
-75.945
-70.963
-66.085
-61.311
-56.647
-52.101
-47.682
-43.4
-39.267
-35.297
-31.505
-27.907
-24.517
-21.344
-18.398
-15.685
-13.212
-10.985
-9.011
-7.294
-5.837
-4.645
-3.721
-3.068
-2.688
-2.58
-2.745
-3.181
-3.885
-4.853
-6.082
-7.564
-9.295
-11.268
-13.476
-15.914
-18.574
-21.449
-24.53
-27.809
-31.274
-34.914
-38.717
-42.665
-46.744
-50.937
-55.228
-59.605
-64.055
-68.565
-73.121
-77.708
-82.311
-86.918
-91.512
-96.069
-100.566
-104.986
-109.318
-113.566
-117.733
-121.808
-125.779
-129.633
-133.343
-136.885
-140.218
-143.278
-146.005
-148.345
-150.254
-151.718
-152.717
-153.214
-153.164
-152.505
-151.183
-149.188
-146.512
-143.144
-139.121
-134.504
-129.407
-124.017
-118.49
-112.955
-107.546
-102.375
-97.571
-93.282
-89.613
-86.699
-84.728
-83.779
-83.833
-84.711
-85.968
-87.114
-87.694
-87.082
-84.587
-79.717
-72.237
-62.568
-51.71
-40.585
-30.072
-21.064
-14.386
-10.791
-9.655
-8.338
-3.853
6.232
21.867
41.409
66.208
101.075
154.507
233.307
336.136
455.241
577.425
692.362
798.572
896.869
988.526
1068.522
1120.776
1128.562
1079.342
969.585
809.421
617.063
415.294
226.869
71.349
-38.016
-98.976
-115.92
-100.811
-70.419
-36.613
-10.678
0.39
-1.437
-12.718
-25.453
-30.692
-27.023
-16.451
-4.081
3.911
6.364
4.686
0.376
-4.619
-9.842
-15.416
-20.403
-24.268
-27.002
-28.614
-29.328
-29.352
-28.702
-27.689
-27.133
-27.566
-29.135
-31.845
-35.414
-39.546
-44.054
-48.588
-52.687
-56.065
-58.566
-60.121
-60.804
-60.671
-59.744
-58.108
-55.851
-53.038
-49.733
-45.977
-41.81
-37.307
-32.56
-27.665
-22.701
-17.719
-12.754
-7.834
-2.979
1.805
6.519
11.175
15.773
20.306
24.765
29.139
33.423
37.618
41.722
45.736
49.658
53.483
57.204
60.811
64.29
67.626
70.802
73.799
76.603
79.2
81.58
83.732
85.647
87.315
88.728
89.878
90.757
91.357
91.67
91.69
91.412
90.831
89.944
88.749
87.248
85.441
83.33
80.921
78.218
75.228
71.96
68.424
64.632
60.597
56.334
51.859
47.19
42.344
37.343
32.205
26.953
21.606
16.188
10.721
5.226
-0.272
-5.752
-11.19
-16.563
-21.849
-27.026
-32.074
-36.97
-41.697
-46.236
-50.569
-54.682
-58.56
-62.191
-65.564
-68.668
-71.496
-74.044
-76.307
-78.284
-79.976
-81.384
-82.513
-83.369
-83.961
-84.295
-84.382
-84.232
-83.858
-83.273
-82.491
-81.528
-80.401
-79.13
-77.737
-76.246
-74.678
-73.057
-71.405
-69.745
-68.098
-66.483
-64.915
-63.405
-61.972
-60.63
-59.395
-58.28
-57.297
-56.454
-55.759
-55.223
-54.848
-54.634
-54.571
-54.656
-54.891
-55.288
-55.866
-56.638
-57.604
-58.761
-60.107
-61.628
-63.302
-65.087
-66.911
-68.708
-70.422
-72.005
-73.425
-74.63
-75.555
-76.13
-76.276
-75.943
-75.107
-73.746
-71.856
-69.463
-66.61
-63.409
-60.042
-56.676
-53.478
-50.599
-48.137
-46.237
-45.128
-44.981
-45.873
-47.767
-50.432
-53.6
-57.06
-60.455
-63.225
-64.855
-64.989
-63.589
-61.099
-58.216
-55.632
-54.132
-54.848
-58.051
-62.553
-66.841
-68.738
-67.592
-66.171
-65.878
-64.568
-55.71
-26.953
31.789
122.102
238.004
366.716
495.649
617.901
730.373
829.841
909.031
957.726
964.261
921.526
831.368
699.277
536.755
359.742
183.843
27.678
-92.757
-169.894
-204.09
-202.865
-178.036
-141.309
-100.999
-65.308
-41.965
-33.743
-40.876
-59.419
-79.174
-92.633
-96.3
-88.345
-74.229
-61.132
-52.901
-53.196
-60.807
-70.669
-79.664
-85.534
-87.986
-88.922
-89.14
-88.678
-87.591
-85.899
-84.294
-83.514
-83.816
-85.142
-87.242
-89.866
-92.794
-95.723
-98.241
-100.039
-100.97
-101.001
-100.199
-98.625
-96.325
-93.36
-89.809
-85.734
-81.181
-76.199
-70.84
-65.177
-59.314
-53.329
-47.284
-41.228
-35.193
-29.204
-23.282
-17.429
-11.634
-5.896
-0.224
5.372
10.875
16.275
21.573
26.767
31.856
36.837
41.706
46.458
51.085
55.579
59.924
64.106
68.104
71.906
75.499
78.873
82.018
84.926
87.586
89.991
92.133
94.006
95.599
96.906
97.918
98.627
99.029
99.118
98.891
98.342
97.471
96.275
94.754
92.91
90.744
88.257
85.455
82.343
78.926
75.212
71.211
66.931
62.386
57.585
52.544
47.276
41.797
36.122
30.268
24.253
18.094
11.811
5.424
-1.048
-7.583
-14.161
-20.761
-27.361
-33.941
-40.478
-46.954
-53.348
-59.641
-65.813
-71.847
-77.723
-83.426
-88.94
-94.25
-99.341
-104.201
-108.819
-113.187
-117.294
-121.136
-124.704
-127.994
-131.001
-133.725
-136.162
-138.312
-140.176
-141.757
-143.062
-144.099
-144.881
-145.416
-145.717
-145.798
-145.673
-145.354
-144.853
-144.178
-143.337
-142.345
-141.215
-139.961
-138.597
-137.134
-135.587
-133.973
-132.306
-130.597
-128.856
-127.083
-125.291
-123.496
-121.721
-119.997
-118.349
-116.79
-115.339
-114.011
-112.812
-111.74
-110.776
-109.875
-109.002
-108.13
-107.23
-106.282
-105.248
-104.077
-102.728
-101.153
-99.313
-97.198
-94.805
-92.139
-89.244
-86.168
-82.992
-79.862
-76.92
-74.314
-72.191
-70.65
-69.832
-69.937
-71.11
-73.406
-76.714
-80.733
-85.127
-89.617
-93.854
-97.402
-99.846
-100.933
-100.995
-100.797
-101.126
-102.786
-106.404
-112.517
-121.898
-134.224
-146.902
-156.881
-161.061
-157.879
-149.793
-138.549
-122.29
-96.806
-54.094
13.26
105.259
217.928
343.828
471.255
590.864
691.995
761.814
789.884
767.226
691.763
569.107
411.603
237.798
66.467
-83.704
-197.894
-269.883
-299.351
-292.495
-261.727
-218.715
-174.187
-138.825
-115.636
-103.31
-98.482
-92.627
-82.127
-68.553
-54.369
-45.042
-43.128
-47.323
-55.636
-65.271
-74.268
-81.592
-86.759
-89.827
-90.88
-90.249
-88.466
-85.874
-83.009
-80.688
-79.333
-79.081
-79.922
-81.527
-83.56
-85.839
-88.085
-89.938
-91.2
-91.753
-91.555
-90.696
-89.234
-87.18
-84.581
-81.489
-77.943
-74.004
-69.725
-65.148
-60.344
-55.376
-50.29
-45.133
-39.933
-34.71
-29.48
-24.252
-19.026
-13.811
-8.617
-3.462
1.636
6.664
11.612
16.476
21.254
25.941
30.528
35.01
39.376
43.614
47.711
51.649
55.409
58.973
62.331
65.47
68.382
71.058
73.489
75.668
77.589
79.245
80.631
81.74
82.567
83.106
83.357
83.318
82.989
82.374
81.473
80.292
78.836
77.11
75.123
72.88
70.39
67.662
64.706
61.532
58.153
54.58
50.828
46.912
42.847
38.65
34.336
29.923
25.427
20.866
16.257
11.618
6.965
2.315
-2.313
-6.902
-11.436
-15.899
-20.276
-24.552
-28.714
-32.749
-36.647
-40.399
-43.996
-47.429
-50.693
-53.78
-56.685
-59.405
-61.936
-64.277
-66.427
-68.388
-70.164
-71.764
-73.196
-74.468
-75.592
-76.578
-77.44
-78.188
-78.833
-79.382
-79.842
-80.224
-80.54
-80.8
-81.017
-81.196
-81.348
-81.482
-81.609
-81.734
-81.858
-81.98
-82.099
-82.226
-82.373
-82.562
-82.808
-83.119
-83.501
-83.96
-84.494
-85.095
-85.735
-86.365
-86.945
-87.44
-87.813
-88.04
-88.076
-87.87
-87.376
-86.543
-85.33
-83.717
-81.689
-79.247
-76.427
-73.275
-69.861
-66.314
-62.766
-59.35
-56.215
-53.468
-51.24
-49.713
-49.024
-49.234
-50.279
-51.94
-53.933
-55.988
-57.754
-58.784
-58.683
-57.224
-54.625
-51.503
-48.54
-46.556
-46.399
-48.84
-54.777
-63.944
-74.1
-82.831
-87.582
-87.042
-82.945
-75.426
-61.523
-36.816
6.001
72.477
161.57
269.973
391.432
516.056
635.574
738.366
810.278
840.384
819.687
747.236
629.774
478.178
308.934
139.425
-12.573
-130.257
-204.262
-233.428
-224.271
-190.513
-146.908
-105.31
-75.754
-62.388
-64.449
-79.587
-101.215
-124.019
-144.666
-158.944
-166.06
-165.291
-157.101
-146.004
-135.159
-127.421
-123.824
-121.649
-119.192
-115.598
-110.898
-106.719
-103.81
-102.096
-101.428
-101.401
-101.833
-102.783
-104.178
-105.854
-107.679
-109.495
-111.104
-112.342
-113.075
-113.188
-112.635
-111.41
-109.493
-106.898
-103.675
-99.876
-95.558
-90.773
-85.555
-79.958
-74.052
-67.922
-61.667
-55.36
-49.051
-42.781
-36.577
-30.461
-24.451
-18.547
-12.732
-6.999
-1.345
4.226
9.704
15.086
20.376
25.576
30.688
35.71
40.636
45.459
50.174
54.773
59.245
63.575
67.745
71.741
75.554
79.17
82.579
85.769
88.723
91.428
93.874
96.048
97.937
99.53
100.812
101.772
102.402
102.696
102.647
102.246
101.483
100.35
98.847
96.972
94.73
92.123
89.154
85.829
82.164
78.177
73.884
69.298
64.42
59.253
53.818
48.138
42.243
36.172
29.961
23.657
17.331
11.054
4.897
-1.072
-6.806
-12.254
-17.36
-22.072
-26.325
-30.051
-33.197
-35.714
-37.56
-38.739
-39.305
-39.313
-38.825
-37.957
-36.898
-35.948
-35.429
-35.518
-36.179
-37.366
-39.213
-41.753
-44.753
-47.592
-49.327
-49.319
-47.527
-44.056
-38.689
-31.287
-22.03
-11.842
-2.554
4.408
8.663
10.198
8.941
4.942
-1.71
-8.953
-12.315
-8.127
6.541
31.712
64.229
104.145
153.096
214.844
296.286
397.922
516.604
647.215
778.64
902.994
1012.105
1093.939
1140.368
1142.084
1093.598
999.034
863.865
699.824
522.666
345.809
188.194
65.52
-15.373
-51.703
-54.574
-41.499
-26.099
-22.007
-32.711
-52.835
-76.683
-95.634
-105.379
-107.804
-106.302
-105.978
-109.157
-114.968
-121.694
-126.921
-130.151
-131.952
-132.431
-132.227
-131.832
-131.331
-131.158
-131.588
-132.29
-133.249
-134.819
-137.032
-139.905
-143.404
-147.215
-151.2
-155.432
-159.725
-163.691
-167
-169.352
-170.596
-170.763
-169.832
-167.746
-164.518
-160.218
-154.958
-148.87
-142.048
-134.549
-126.432
-117.787
-108.727
-99.384
-89.887
-80.333
-70.794
-61.326
-51.98
-42.794
-33.799
-25.008
-16.42
-8.044
0.104
8.003
15.629
22.967
30.007
36.746
43.178
49.297
55.093
60.556
65.678
70.449
74.859
78.896
82.549
85.81
88.676
91.149
93.234
94.936
96.261
97.218
97.817
98.07
97.987
97.581
96.863
95.848
94.55
92.987
91.175
89.134
86.88
84.434
81.812
79.033
76.113
73.067
69.909
66.653
63.312
59.901
56.431
52.917
49.372
45.812
42.251
38.704
35.181
31.689
28.234
24.826
21.469
18.171
14.936
11.766
8.667
5.653
2.733
-0.09
-2.819
-5.474
-8.068
-10.604
-13.083
-15.501
-17.851
-20.122
-22.288
-24.299
-26.108
-27.669
-28.951
-29.942
-30.622
-30.954
-30.891
-30.375
-29.36
-27.84
-25.816
-23.289
-20.286
-16.862
-13.117
-9.209
-5.3
-1.534
1.956
5.039
7.57
9.414
10.415
10.399
9.292
7.124
4.015
0.266
-3.763
-7.752
-11.237
-13.636
-14.583
-13.855
-11.509
-8.169
-4.511
-0.979
1.936
3.737
4.265
3.452
1.586
0.988
5.035
16.108
36.722
66.562
102.093
143.397
191.352
248.493
321.816
412.056
516.34
630.379
743.745
848.364
935.729
994.411
1014.843
987.621
909.359
784.391
623.743
445.262
267.096
106.807
-20.827
-108.418
-154.211
-162.199
-143.492
-110.906
-76.857
-54.043
-47.415
-55.632
-73.722
-91.006
-101.626
-105.294
-104.123
-104.177
-107.885
-113.81
-120.209
-124.511
-125.892
-125.347
-123.541
-121.023
-118.59
-116.762
-115.993
-116.666
-118.715
-121.885
-126.042
-131.087
-136.745
-142.737
-148.777
-154.543
-159.831
-164.475
-168.306
-171.207
-173.115
-174.003
-173.857
-172.697
-170.555
-167.484
-163.552
-158.823
-153.361
-147.227
-140.502
-133.277
-125.657
-117.748
-109.631
-101.366
-93.007
-84.592
-76.158
-67.733
-59.327
-50.941
-42.586
-34.28
-26.044
-17.902
-9.874
-1.973
5.782
13.374
20.783
27.984
34.957
41.679
48.127
54.273
60.094
65.561
70.655
75.357
79.651
83.526
86.971
89.977
92.537
94.649
96.31
97.519
98.276
98.582
98.442
97.862
96.85
95.415
93.571
91.329
88.706
85.72
82.389
78.733
74.773
70.532
66.036
61.309
56.378
51.268
46.007
40.623
35.143
29.595
24.005
18.398
12.801
7.236
1.729
-3.701
-9.03
-14.241
-19.314
-24.231
-28.976
-33.532
-37.888
-42.029
-45.947
-49.631
-53.074
-56.27
-59.215
-61.907
-64.345
-66.529
-68.461
-70.145
-71.587
-72.795
-73.776
-74.541
-75.101
-75.467
-75.654
-75.676
-75.545
-75.276
-74.883
-74.379
-73.78
-73.1
-72.354
-71.556
-70.723
-69.873
-69.027
-68.2
-67.412
-66.68
-66.02
-65.448
-64.978
-64.619
-64.378
-64.264
-64.287
-64.457
-64.783
-65.268
-65.916
-66.731
-67.713
-68.865
-70.181
-71.645
-73.251
-74.993
-76.876
-78.919
-81.132
-83.514
-86.061
-88.768
-91.623
-94.609
-97.688
-100.797
-103.873
-106.861
-109.714
-112.4
-114.871
-117.06
-118.895
-120.294
-121.19
-121.553
-121.36
-120.602
-119.313
-117.544
-115.373
-112.944
-110.417
-107.961
-105.726
-103.796
-102.256
-101.26
-101.058
-101.881
-103.777
-106.553
-109.956
-113.874
-118.079
-122.095
-125.294
-126.881
-127.116
-127.595
-128.749
-130.366
-131.231
-128.304
-123.034
-119.247
-118.883
-125.103
-135.4
-143.541
-148.266
-146.59
-135.17
-111.71
-67.469
5.006
105.716
231.34
372.009
513.46
646.399
761.682
849.318
904.897
921.266
892.617
821.105
707.719
560.282
395.243
228.202
79.839
-33.074
-107.8
-148.03
-166.053
-174.951
-177.501
-173.586
-161.763
-143.062
-125.483
-115.672
-115.104
-120.592
-126.092
-128.006
-127.292
-127.399
-130.444
-136.269
-143.27
-149.026
-152.675
-154.524
-154.513
-152.879
-150.035
-146.314
-142.428
-139.213
-136.951
-135.708
-135.643
-136.735
-138.901
-142
-145.634
-149.278
-152.546
-155.205
-157.097
-158.181
-158.425
-157.782
-156.266
-153.949
-150.913
-147.231
-142.954
-138.106
-132.717
-126.857
-120.618
-114.11
-107.449
-100.719
-93.976
-87.271
-80.642
-74.12
-67.732
-61.485
-55.369
-49.383
-43.537
-37.845
-32.322
-26.976
-21.806
-16.805
-11.973
-7.311
-2.824
1.482
5.604
9.537
13.271
16.796
20.1
23.177
26.021
28.634
31.013
33.16
35.075
36.76
38.219
39.454
40.468
41.263
41.843
42.211
42.371
42.33
42.092
41.666
41.057
40.274
39.326
38.218
36.96
35.555
34.009
32.326
30.511
28.566
26.495
24.302
21.989
19.564
17.033
14.403
11.681
8.869
5.97
2.987
-0.076
-3.218
-6.435
-9.724
-13.082
-16.5
-19.967
-23.471
-27.008
-30.583
-34.211
-37.907
-41.676
-45.52
-49.438
-53.423
-57.462
-61.525
-65.561
-69.514
-73.333
-76.974
-80.411
-83.609
-86.519
-89.078
-91.205
-92.832
-93.914
-94.433
-94.37
-93.735
-92.564
-90.934
-88.994
-86.917
-84.876
-83.032
-81.532
-80.502
-80.109
-80.584
-82.125
-84.854
-88.734
-93.533
-98.989
-104.833
-110.686
-116.018
-120.237
-122.861
-123.856
-123.703
-122.949
-122.279
-122.487
-124.25
-128.438
-134.947
-141.831
-146.847
-147.67
-143.563
-136.655
-127.169
-111.996
-84.459
-34.016
45.687
153.305
281.602
418.773
555.299
687.143
811.555
922.981
1011.363
1062.229
1062.602
1008.745
904.998
762.877
598.693
427.5
264.112
122.759
13.917
-57.646
-93.391
-101.52
-94.824
-83.591
-76.107
-77.045
-84.375
-95.031
-104.352
-107.757
-105.599
-100.577
-96.755
-97.547
-103.243
-112.133
-121.718
-130.536
-138.151
-144.317
-149.083
-152.146
-153.22
-152.584
-150.701
-147.988
-144.991
-142.303
-140.301
-139.321
-139.531
-140.818
-143.002
-145.863
-149.063
-152.161
-154.794
-156.707
-157.759
-157.939
-157.26
-155.72
-153.351
-150.238
-146.468
-142.119
-137.253
-131.904
-126.113
-119.961
-113.543
-106.968
-100.352
-93.774
-87.288
-80.944
-74.775
-68.804
-63.053
-57.519
-52.189
-47.061
-42.136
-37.419
-32.919
-28.631
-24.546
-20.655
-16.948
-13.42
-10.068
-6.889
-3.882
-1.048
1.612
4.091
6.382
8.481
10.387
12.097
13.612
14.932
16.055
16.98
17.708
18.239
18.57
18.702
18.631
18.357
17.877
17.193
16.303
15.208
13.911
12.413
10.718
8.83
6.755
4.501
2.075
-0.515
-3.258
-6.144
-9.161
-12.294
-15.531
-18.856
-22.254
-25.707
-29.197
-32.706
-36.215
-39.708
-43.165
-46.569
-49.902
-53.149
-56.299
-59.339
-62.258
-65.044
-67.686
-70.176
-72.509
-74.678
-76.678
-78.502
-80.145
-81.609
-82.899
-84.017
-84.968
-85.752
-86.373
-86.837
-87.155
-87.336
-87.385
-87.309
-87.115
-86.821
-86.459
-86.057
-85.633
-85.204
-84.781
-84.374
-83.997
-83.648
-83.308
-82.956
-82.569
-82.126
-81.623
-81.04
-80.357
-79.559
-78.618
-77.506
-76.203
-74.677
-72.914
-70.949
-68.848
-66.665
-64.468
-62.367
-60.558
-59.361
-59.079
-59.86
-61.68
-64.522
-68.484
-73.525
-79.299
-85.054
-89.867
-93.161
-94.832
-94.884
-93.17
-89.792
-85.344
-81.124
-79.01
-80.448
-86.095
-96.392
-110.946
-128.09
-145.752
-160.865
-171.578
-178.574
-181.581
-179.044
-165.147
-130.778
-70.431
17.877
129.102
253.903
385.255
515.132
636.774
741.817
817.423
851.362
833.318
760.136
636.549
474.689
293.887
114.164
-43.934
-163.547
-237.897
-267.1
-258.732
-227.754
-187.739
-150.705
-127.983
-121.739
-129.571
-146.46
-161.693
-170.092
-171.667
-168.103
-165.116
-165.236
-167.138
-169.17
-168.963
-165.775
-160.638
-154.526
-148.265
-142.407
-137.254
-133.176
-130.418
-128.992
-128.754
-129.471
-130.951
-133.034
-135.548
-138.302
-141.112
-143.794
-146.154
-148.059
-149.412
-150.14
-150.217
-149.619
-148.324
-146.352
-143.756
-140.595
-136.934
-132.831
-128.328
-123.49
-118.395
-113.132
-107.801
-102.477
-97.207
-92.033
-86.981
-82.077
-77.339
-72.769
-68.353
-64.082
-59.955
-55.974
-52.147
-48.474
-44.947
-41.56
-38.308
-35.189
-32.204
-29.352
-26.632
-24.045
-21.596
-19.29
-17.134
-15.132
-13.283
-11.588
-10.044
-8.65
-7.404
-6.3
-5.334
-4.502
-3.8
-3.225
-2.774
-2.442
-2.226
-2.123
-2.129
-2.243
-2.465
-2.796
-3.238
-3.791
-4.461
-5.251
-6.164
-7.203
-8.369
-9.662
-11.082
-12.63
-14.307
-16.116
-18.062
-20.148
-22.378
-24.755
-27.282
-29.961
-32.792
-35.767
-38.877
-42.118
-45.492
-49.014
-52.694
-56.532
-60.525
-64.661
-68.923
-73.285
-77.704
-82.11
-86.435
-90.612
-94.586
-98.324
-101.787
-104.928
-107.684
-109.975
-111.738
-112.934
-113.541
-113.549
-112.973
-111.857
-110.314
-108.519
-106.635
-104.823
-103.215
-101.911
-101.05
-100.769
-101.192
-102.488
-104.831
-108.293
-112.872
-118.439
-124.639
-131.041
-137.143
-142.192
-145.374
-146.1
-143.978
-138.999
-131.8
-123.228
-114.094
-105.661
-98.649
-92.498
-86.792
-80.556
-73.299
-67.084
-62.397
-56.306
-42.45
-9.284
53.04
146.017
264.268
395.454
526.761
653.358
775.154
893.453
1005.384
1098.816
1156.166
1161.105
1106.521
996.037
842.774
665.594
482.215
308.933
159.491
43.407
-35.606
-79.059
-92.78
-88.074
-73.786
-58.12
-50.474
-52.309
-63.587
-81.687
-97.83
-108.487
-113.331
-113.41
-113.619
-115.744
-118.431
-120.105
-118.681
-113.68
-106.179
-97.279
-87.982
-78.984
-70.789
-63.934
-58.715
-55.178
-53.219
-52.584
-53.062
-54.476
-56.582
-59.156
-62.009
-64.922
-67.693
-70.132
-72.007
-73.165
-73.522
-73.006
-71.598
-69.314
-66.179
-62.262
-57.66
-52.457
-46.74
-40.591
-34.082
-27.312
-20.387
-13.415
-6.508
0.255
6.822
13.147
19.201
24.973
30.455
35.656
40.597
45.286
49.726
53.919
57.861
61.556
65.012
68.233
71.226
73.998
76.549
78.88
80.991
82.88
84.544
85.976
87.171
88.125
88.838
89.312
89.552
89.561
89.344
88.907
88.257
87.397
86.333
85.071
83.613
81.966
80.134
78.122
75.936
73.584
71.074
68.411
65.604
62.66
59.587
56.392
53.081
49.658
46.125
42.487
38.748
34.91
30.979
26.958
22.853
18.673
14.426
10.12
5.759
1.346
-3.116
-7.619
-12.159
-16.73
-21.325
-25.942
-30.569
-35.187
-39.785
-44.355
-48.9
-53.438
-57.976
-62.513
-67.043
-71.558
-76.044
-80.485
-84.843
-89.055
-93.062
-96.806
-100.25
-103.374
-106.137
-108.486
-110.35
-111.643
-112.309
-112.332
-111.694
-110.387
-108.437
-105.891
-102.846
-99.484
-95.967
-92.448
-89.082
-85.985
-83.286
-81.16
-79.827
-79.47
-80.157
-81.769
-84.026
-86.622
-89.23
-91.441
-92.683
-92.381
-90.199
-86.268
-81.261
-75.943
-71.087
-67.509
-65.853
-66.734
-69.936
-73.655
-75.493
-72.805
-64.221
-50.663
-31.81
-5.333
33.699
93.089
176.555
281.928
402.942
529.687
654.772
775.203
887.394
984.846
1057.213
1089.38
1068.529
990.882
859.903
689.46
500.793
314.074
149.817
23.203
-61.034
-103.753
-112.543
-100.701
-79.241
-58.185
-47.292
-48.457
-59.999
-77.586
-91.219
-96.417
-93.952
-86.555
-81.112
-81.062
-85.504
-92.69
-99.84
-105.355
-109.064
-110.925
-110.823
-108.652
-104.531
-98.89
-92.243
-85.207
-78.484
-72.527
-67.72
-64.286
-62.143
-61.119
-61.001
-61.424
-61.93
-62.149
-61.751
-60.526
-58.433
-55.437
-51.52
-46.71
-41.061
-34.638
-27.523
-19.778
-11.443
-2.572
6.769
16.488
26.472
36.606
46.777
56.896
66.897
76.726
86.338
95.703
104.797
113.61
122.143
130.386
138.326
145.948
153.237
160.185
166.789
173.045
178.951
184.5
189.681
194.488
198.911
202.939
206.56
209.763
212.533
214.863
216.747
218.182
219.168
219.705
219.794
219.438
218.644
217.416
215.761
213.687
211.199
208.309
205.026
201.363
197.332
192.949
188.229
183.19
177.85
172.229
166.347
160.228
153.892
147.365
140.67
133.832
126.878
119.833
112.724
105.577
98.42
91.279
84.179
77.147
70.206
63.382
56.698
50.175
43.834
37.697
31.781
26.106
20.687
15.54
10.678
6.112
1.853
-2.091
-5.714
-9.013
-11.985
-14.63
-16.95
-18.949
-20.632
-22.006
-23.081
-23.867
-24.376
-24.623
-24.621
-24.387
-23.939
-23.293
-22.47
-21.488
-20.366
-19.125
-17.785
-16.366
-14.887
-13.37
-11.832
-10.294
-8.774
-7.29
-5.859
-4.497
-3.22
-2.042
-0.977
-0.036
0.77
1.432
1.941
2.292
2.478
2.495
2.342
2.016
1.517
0.847
0.007
-0.998
-2.164
-3.485
-4.953
-6.562
-8.301
-10.163
-12.136
-14.211
-16.377
-18.623
-20.937
-23.307
-25.721
-28.166
-30.63
-33.101
-35.564
-38.008
-40.418
-42.784
-45.094
-47.337
-49.501
-51.577
-53.555
-55.425
-57.181
-58.814
-60.316
-61.682
-62.907
-63.986
-64.917
-65.699
-66.331
-66.813
-67.146
-67.335
-67.382
-67.291
-67.067
-66.715
-66.243
-65.658
-64.97
-64.187
-63.323
-62.389
-61.405
-60.388
-59.356
-58.326
-57.317
-56.348
-55.437
-54.601
-53.851
-53.201
-52.664
-52.255
-51.992
-51.888
-51.956
-52.205
-52.645
-53.285
-54.133
-55.187
-56.439
-57.885
-59.524
-61.366
-63.435
-65.743
-68.29
-71.071
-74.077
-77.294
-80.699
-84.249
-87.869
-91.491
-95.049
-98.495
-101.801
-104.915
-107.766
-110.278
-112.354
-113.925
-114.959
-115.423
-115.291
-114.58
-113.327
-111.613
-109.611
-107.478
-105.358
-103.407
-101.739
-100.468
-99.769
-99.865
-100.916
-102.956
-105.845
-109.272
-112.897
-116.394
-119.316
-121.024
-120.948
-118.862
-114.993
-110.063
-105.056
-100.855
-98.33
-98.56
-101.727
-106.688
-111.638
-113.766
-111.63
-105.92
-96.458
-82.054
-57.48
-14.349
53.219
148.734
268.802
405.308
551.09
696.743
834.277
954.021
1041.9
1085.124
1072.833
1002.377
879.706
716.47
530.47
339.189
160.321
11.785
-95.276
-156.172
-173.347
-159.708
-130.848
-100.584
-81.824
-77.983
-85.659
-99.007
-107.476
-106.206
-96.484
-82.009
-70.572
-65.964
-67.336
-73.101
-80.323
-87.595
-95.367
-103.374
-110.722
-116.849
-121.413
-124.425
-126.328
-127.371
-127.581
-127.377
-127.555
-128.605
-130.743
-133.936
-137.849
-142.198
-146.763
-151.217
-155.157
-158.317
-160.561
-161.852
-162.266
-161.868
-160.711
-158.872
-156.441
-153.488
-150.064
-146.23
-142.041
-137.58
-132.952
-128.241
-123.503
-118.787
-114.122
-109.524
-105.011
-100.582
-96.217
-91.908
-87.654
-83.457
-79.325
-75.256
-71.241
-67.268
-63.328
-59.413
-55.515
-51.63
-47.753
-43.885
-40.029
-36.19
-32.379
-28.601
-24.857
-21.151
-17.485
-13.862
-10.285
-6.758
-3.284
0.131
3.481
6.756
9.949
13.05
16.051
18.943
21.717
24.362
26.87
29.231
31.437
33.479
35.349
37.038
38.541
39.851
40.964
41.874
42.579
43.077
43.368
43.451
43.33
43.006
42.484
41.769
40.868
39.787
38.535
37.121
35.555
33.849
32.012
30.06
28.003
25.857
23.634
21.348
19.013
16.644
14.254
11.856
9.462
7.085
4.736
2.425
0.162
-2.045
-4.189
-6.264
-8.264
-10.186
-12.028
-13.788
-15.467
-17.067
-18.589
-20.037
-21.416
-22.732
-23.992
-25.203
-26.374
-27.512
-28.626
-29.727
-30.823
-31.925
-33.041
-34.183
-35.359
-36.58
-37.854
-39.191
-40.598
-42.081
-43.649
-45.305
-47.054
-48.9
-50.842
-52.881
-55.018
-57.25
-59.575
-61.989
-64.485
-67.058
-69.699
-72.4
-75.151
-77.941
-80.758
-83.589
-86.42
-89.241
-92.038
-94.796
-97.502
-100.141
-102.7
-105.165
-107.523
-109.761
-111.864
-113.821
-115.621
-117.256
-118.716
-119.997
-121.093
-122.003
-122.729
-123.272
-123.637
-123.832
-123.864
-123.741
-123.472
-123.063
-122.523
-121.861
-121.089
-120.219
-119.261
-118.226
-117.128
-115.982
-114.807
-113.617
-112.419
-111.209
-109.995
-108.786
-107.606
-106.489
-105.457
-104.524
-103.706
-103.026
-102.498
-102.133
-101.911
-101.779
-101.682
-101.581
-101.456
-101.322
-101.171
-100.959
-100.615
-100.039
-99.172
-98.006
-96.533
-94.712
-92.485
-89.859
-86.999
-84.259
-81.985
-80.377
-79.431
-79.042
-79.308
-80.366
-82.141
-84.295
-86.238
-87.472
-88.034
-88.268
-88.175
-87.582
-86.42
-84.829
-83.602
-83.784
-85.759
-89.426
-95.004
-102.833
-113.115
-126.037
-140.131
-151.925
-158.568
-157.598
-147.819
-131.464
-109.732
-80.597
-40.344
18.413
102.785
212.739
344.281
489.707
636.688
775.526
895.798
983.83
1029.076
1022.14
958.437
842.932
684.676
497.97
302.201
116.534
-38.503
-146.745
-203.82
-212.775
-186.34
-143.083
-96.522
-59.578
-39.818
-34.751
-40.516
-48.878
-51.006
-46.388
-37.515
-28.818
-25.771
-29.021
-36.505
-46.101
-55.214
-62.365
-67.214
-69.654
-69.879
-68.312
-65.521
-61.978
-58.214
-54.992
-52.854
-52.055
-52.715
-54.672
-57.587
-61.204
-65.153
-68.918
-72.169
-74.704
-76.397
-77.277
-77.378
-76.683
-75.237
-73.13
-70.418
-67.162
-63.407
-59.162
-54.479
-49.444
-44.149
-38.706
-33.197
-27.67
-22.173
-16.74
-11.395
-6.163
-1.051
3.95
8.838
13.604
18.239
22.729
27.067
31.257
35.303
39.206
42.967
46.579
50.039
53.342
56.481
59.446
62.228
64.814
67.198
69.376
71.345
73.104
74.651
75.986
77.111
78.026
78.735
79.237
79.536
79.633
79.532
79.238
78.754
78.084
77.232
76.204
75.008
73.647
72.131
70.463
68.652
66.707
64.636
62.447
60.149
57.75
55.257
52.679
50.022
47.289
44.484
41.609
38.666
35.659
32.589
29.457
26.267
23.024
19.733
16.399
13.024
9.605
6.146
2.648
-0.888
-4.458
-8.061
-11.699
-15.364
-19.044
-22.73
-26.419
-30.12
-33.855
-37.639
-41.471
-45.349
-49.269
-53.218
-57.183
-61.124
-64.978
-68.683
-72.184
-75.44
-78.434
-81.127
-83.463
-85.371
-86.764
-87.583
-87.812
-87.431
-86.427
-84.827
-82.682
-80.098
-77.264
-74.348
-71.505
-68.891
-66.621
-64.822
-63.658
-63.336
-64.027
-65.796
-68.532
-71.961
-75.772
-79.631
-83.1
-85.582
-86.456
-85.315
-82.222
-77.787
-72.723
-67.786
-63.832
-61.574
-61.766
-64.314
-67.302
-68.157
-64.159
-54.152
-39.807
-21.543
2.938
39.473
97.489
182.146
291.775
419.389
553.745
686.462
813.533
930.462
1029.91
1099.982
1125.221
1094.462
1006.221
867.381
693.972
506.049
321.741
158.584
29.179
-60.998
-111.3
-127.177
-119.004
-97.104
-71.284
-51.33
-40.904
-39.394
-43.669
-45.955
-42.528
-34.597
-25.18
-19.812
-20.937
-27.349
-36.841
-46.657
-55.354
-62.409
-67.369
-70.222
-71.028
-70.047
-67.99
-65.4
-62.749
-60.755
-59.884
-60.326
-62.162
-65.175
-69
-73.358
-77.861
-81.997
-85.439
-87.986
-89.519
-90.075
-89.677
-88.311
-86.035
-82.94
-79.099
-74.588
-69.46
-63.742
-57.504
-50.842
-43.865
-36.699
-29.432
-22.122
-14.821
-7.566
-0.391
6.677
13.629
20.47
27.195
33.791
40.243
46.531
52.648
58.591
64.358
69.949
75.358
80.574
85.59
90.394
94.973
99.312
103.396
107.205
110.727
113.953
116.874
119.485
121.778
123.75
125.397
126.716
127.705
128.361
128.682
128.667
128.316
127.631
126.612
125.262
123.584
121.583
119.265
116.636
113.704
110.476
106.962
103.174
99.124
94.825
90.29
85.534
80.573
75.421
70.094
64.603
58.964
53.189
47.294
41.292
35.194
29.014
22.766
16.466
10.133
3.784
-2.57
-8.916
-15.238
-21.52
-27.744
-33.896
-39.965
-45.941
-51.81
-57.55
-63.141
-68.568
-73.831
-78.941
-83.908
-88.727
-93.391
-97.899
-102.249
-106.438
-110.453
-114.246
-117.774
-120.99
-123.86
-126.378
-128.533
-130.299
-131.643
-132.498
-132.8
-132.529
-131.679
-130.245
-128.279
-125.804
-122.814
-119.49
-116.099
-112.891
-110.168
-108.039
-106.386
-105.291
-105.062
-105.747
-107.16
-108.882
-110.135
-110.596
-110.517
-109.812
-108.023
-104.911
-100.517
-95.567
-91.618
-89.621
-89.769
-92.497
-98.253
-107.423
-119.457
-131.657
-140.639
-143.402
-138.777
-128.275
-111.93
-87.14
-49.538
7.713
88.736
191.623
312.249
443.665
577.255
706.567
821.499
908.915
956.384
951.992
892.686
783.976
636.824
468.28
294.31
130.286
-7.815
-109.52
-169.538
-188.547
-177.354
-150.238
-120.202
-99.671
-92.286
-94.845
-102.003
-104.556
-98.36
-85.126
-68.874
-56.74
-52.155
-54.439
-61.899
-71.353
-81.107
-90.934
-99.972
-107.504
-113.185
-116.683
-118.195
-118.337
-117.47
-116.025
-114.791
-114.336
-114.939
-116.735
-119.513
-122.928
-126.727
-130.524
-133.857
-136.438
-138.087
-138.725
-138.404
-137.161
-135.009
-132.03
-128.306
-123.903
-118.881
-113.272
-107.109
-100.462
-93.425
-86.104
-78.591
-70.945
-63.22
-55.457
-47.691
-39.96
-32.286
-24.677
-17.149
-9.73
-2.445
4.672
11.596
18.312
24.805
31.062
37.069
42.807
48.26
53.409
58.237
62.724
66.85
70.593
73.939
76.877
79.397
81.496
83.167
84.407
85.216
85.595
85.546
85.072
84.178
82.868
81.152
79.04
76.545
73.678
70.454
66.889
63.001
58.807
54.326
49.579
44.585
39.364
33.938
28.33
22.561
16.654
10.63
4.511
-1.68
-7.923
-14.195
-20.477
-26.749
-32.992
-39.188
-45.318
-51.364
-57.313
-63.148
-68.856
-74.424
-79.841
-85.099
-90.192
-95.118
-99.872
-104.453
-108.861
-113.098
-117.164
-121.062
-124.79
-128.346
-131.733
-134.954
-138.017
-140.926
-143.686
-146.302
-148.779
-151.125
-153.347
-155.446
-157.419
-159.266
-160.99
-162.607
-164.142
-165.613
-167.028
-168.393
-169.71
-170.978
-172.193
-173.329
-174.337
-175.17
-175.786
-176.156
-176.271
-176.1
-175.601
-174.725
-173.404
-171.6
-169.306
-166.506
-163.195
-159.402
-155.176
-150.611
-145.875
-141.112
-136.462
-132.08
-128.08
-124.577
-121.718
-119.666
-118.545
-118.413
-119.181
-120.593
-122.375
-124.244
-125.824
-126.644
-126.251
-124.306
-120.843
-116.47
-111.882
-107.625
-104.442
-103.026
-103.799
-107.318
-112.583
-116.349
-115.775
-108.106
-92.505
-72.131
-48.207
-19.085
19.113
75.242
155.342
258.93
382.408
515.642
646.605
765.618
860.215
918.36
929.539
884.358
782.01
630.563
446.236
253.151
74.796
-69.034
-165.913
-216.106
-225.556
-205.308
-170.461
-131.367
-99.556
-85.012
-88.361
-107.749
-134.744
-156.561
-168.442
-170.021
-164.781
-159.927
-157.966
-158.041
-159.408
-160.865
-162.477
-165.385
-169.967
-175.958
-183.186
-191.536
-200.526
-209.418
-217.632
-224.723
-230.728
-236.238
-241.531
-246.568
-251.382
-255.951
-260.246
-264.293
-267.907
-270.698
-272.439
-273.036
-272.455
-270.776
-268.054
-264.304
-259.593
-254.02
-247.674
-240.648
-233.028
-224.879
-216.27
-207.267
-197.928
-188.312
-178.468
-168.432
-158.23
-147.874
-137.383
-126.784
-116.111
-105.403
-94.696
-84.021
-73.409
-62.894
-52.511
-42.297
-32.286
-22.508
-12.996
-3.787
5.081
13.567
21.637
29.26
36.41
43.062
49.195
54.79
59.83
64.306
68.208
71.528
74.262
76.404
77.956
78.922
79.308
79.125
78.384
77.1
75.293
72.982
70.192
66.946
63.272
59.199
54.756
49.975
44.89
39.534
33.943
28.151
22.194
16.109
9.933
3.699
-2.556
-8.799
-14.997
-21.118
-27.134
-33.015
-38.736
-44.272
-49.602
-54.704
-59.562
-64.159
-68.484
-72.525
-76.275
-79.728
-82.881
-85.733
-88.287
-90.546
-92.516
-94.204
-95.618
-96.771
-97.675
-98.343
-98.79
-99.032
-99.085
-98.969
-98.699
-98.295
-97.775
-97.158
-96.46
-95.7
-94.893
-94.057
-93.206
-92.353
-91.512
-90.694
-89.91
-89.168
-88.477
-87.842
-87.268
-86.758
-86.316
-85.942
-85.635
-85.395
-85.22
-85.107
-85.053
-85.054
-85.104
-85.199
-85.333
-85.5
-85.694
-85.908
-86.136
-86.373
-86.611
-86.846
-87.071
-87.283
-87.475
-87.645
-87.787
-87.9
-87.98
-88.026
-88.036
-88.01
-87.948
-87.852
-87.721
-87.559
-87.367
-87.148
-86.904
-86.638
-86.352
-86.049
-85.73
-85.398
-85.055
-84.704
-84.346
-83.981
-83.612
-83.237
-82.857
-82.472
-82.08
-81.679
-81.268
-80.843
-80.403
-79.946
-79.469
-78.967
-78.44
-77.882
-77.29
-76.662
-75.992
-75.277
-74.514
-73.701
-72.833
-71.911
-70.934
-69.903
-68.823
-67.698
-66.533
-65.332
-64.104
-62.858
-61.603
-60.347
-59.097
-57.86
-56.645
-55.462
-54.323
-53.241
-52.222
-51.275
-50.409
-49.634
-48.961
-48.4
-47.946
-47.594
-47.345
-47.207
-47.199
-47.343
-47.641
-48.091
-48.693
-49.441
-50.328
-51.336
-52.416
-53.512
-54.57
-55.538
-56.399
-57.14
-57.725
-58.114
-58.224
-57.963
-57.284
-56.165
-54.579
-52.553
-50.096
-47.19
-43.989
-40.749
-37.696
-35.104
-33.078
-31.493
-30.382
-29.984
-30.374
-31.448
-32.92
-34.166
-34.848
-35.142
-35.003
-34.03
-31.834
-28.18
-23.258
-18.082
-13.588
-9.969
-7.58
-7.044
-8.858
-13.539
-20.402
-26.601
-29.016
-24.975
-13.296
4.92
29.208
60.651
103.094
162.481
243.553
348.509
474.745
616.432
764.978
909.246
1037.933
1137.143
1193.588
1197.693
1143.605
1034.057
879.231
694.18
499.037
313.913
155.3
35.612
-41.393
-78.778
-82.031
-62.21
-30.14
4.397
29.059
39.709
37.988
28.333
21.248
21.28
26.623
34.035
37.259
33.607
24.576
12.379
-0.135
-11.23
-20.165
-26.639
-30.828
-32.885
-33.172
-32.313
-30.753
-29.108
-28.268
-28.683
-30.523
-33.839
-38.343
-43.723
-49.748
-55.997
-61.941
-67.255
-71.741
-75.301
-77.999
-79.843
-80.809
-80.948
-80.336
-79.037
-77.118
-74.614
-71.539
-67.949
-63.924
-59.563
-54.976
-50.24
-45.403
-40.507
-35.577
-30.637
-25.707
-20.787
-15.865
-10.941
-6.018
-1.102
3.792
8.664
13.518
18.354
23.178
27.989
32.779
37.543
42.273
46.956
51.58
56.13
60.587
64.937
69.168
73.269
77.23
81.042
84.693
88.175
91.48
94.599
97.524
100.245
102.755
105.046
107.114
108.952
110.557
111.924
113.052
113.939
114.585
114.992
115.163
115.099
114.808
114.296
113.57
112.639
111.514
110.204
108.721
107.077
105.287
103.363
101.319
99.169
96.928
94.609
92.226
89.794
87.323
84.826
82.315
79.798
77.284
74.778
72.284
69.806
67.345
64.901
62.474
60.061
57.661
55.271
52.889
50.509
48.124
45.724
43.299
40.837
38.327
35.758
33.118
30.395
27.581
24.672
21.665
18.554
15.33
11.971
8.462
4.796
0.97
-3.011
-7.138
-11.393
-15.743
-20.137
-24.52
-28.839
-33.048
-37.119
-41.017
-44.699
-48.107
-51.167
-53.812
-55.998
-57.695
-58.878
-59.545
-59.712
-59.452
-58.897
-58.168
-57.382
-56.639
-56.022
-55.643
-55.62
-56.054
-57.062
-58.777
-61.278
-64.57
-68.54
-72.889
-77.249
-81.214
-84.247
-85.754
-85.216
-82.272
-76.979
-69.873
-61.548
-52.697
-44.175
-36.716
-31.153
-27.561
-24.19
-18.666
-8.594
6.848
25.45
46.042
70.626
105.186
159.687
240.391
346.319
470.433
601.391
730.951
855.399
971.24
1071.712
1143.245
1168.867
1135.364
1039.782
891.749
709.787
517.764
337.079
183.602
68.568
-7.31
-48.047
-60.069
-56.219
-44.831
-33.036
-29.63
-34.549
-46.63
-63.096
-75.233
-79.803
-77.002
-68.424
-59.76
-54.144
-51.576
-51.191
-51.317
-51.668
-53.069
-56.142
-60.905
-66.399
-71.585
-76.087
-79.652
-82.096
-83.392
-83.429
-82.466
-81.267
-80.416
-80.177
-80.627
-81.586
-82.788
-84.031
-85.025
-85.37
-84.805
-83.194
-80.489
-76.781
-72.176
-66.758
-60.63
-53.904
-46.66
-38.968
-30.904
-22.539
-13.969
-5.308
3.354
11.945
20.408
28.703
36.796
44.666
52.305
59.718
66.901
73.839
80.514
86.906
93.005
98.806
104.306
109.507
114.406
119.005
123.301
127.294
130.978
134.347
137.395
140.114
142.499
144.553
146.276
147.676
148.758
149.53
149.997
150.171
150.058
149.666
149.005
148.081
146.906
145.488
143.84
141.974
139.902
137.64
135.201
132.598
129.846
126.96
123.956
120.848
117.653
114.385
111.061
107.698
104.313
100.922
97.539
94.181
90.862
87.596
84.397
81.276
78.247
75.319
72.504
69.812
67.254
64.837
62.57
60.458
58.508
56.722
55.102
53.644
52.346
51.204
50.211
49.359
48.636
48.033
47.541
47.154
46.864
46.66
46.531
46.465
46.456
46.495
46.575
46.681
46.797
46.913
47.027
47.147
47.275
47.406
47.522
47.598
47.618
47.576
47.46
47.254
46.94
46.511
45.985
45.414
44.857
44.353
43.923
43.567
43.286
43.12
43.131
43.397
43.978
44.896
46.151
47.781
49.846
52.327
55.108
57.893
60.256
61.952
62.934
63.225
62.837
61.731
59.905
57.748
56.116
55.657
56.594
58.799
61.94
65.978
70.984
76.421
80.974
83.278
82.243
77.361
68.714
55.839
38.917
20.064
2.089
-11.692
-19.747
-24.416
-27.06
-25.43
-12.814
22.584
89.177
187.192
309.981
445.047
581.183
712.397
834.012
939.359
1018.344
1057.027
1043.476
975.057
857.013
701.916
527.654
351.842
191.877
62.862
-25.635
-72.721
-84.285
-68.716
-38.15
-0.874
35.689
60.441
69.96
63.893
46.025
27.878
15.056
8.416
6.721
4.645
0.294
-5.036
-10.032
-12.667
-12.372
-9.828
-5.849
-1.658
1.884
4.281
5.201
4.686
2.803
-0.487
-5.002
-10.434
-16.512
-22.895
-29.348
-35.752
-41.902
-47.615
-52.78
-57.314
-61.194
-64.431
-67.007
-68.912
-70.181
-70.843
-70.952
-70.565
-69.715
-68.458
-66.863
-65.004
-62.973
-60.837
-58.635
-56.403
-54.16
-51.92
-49.691
-47.469
-45.232
-42.969
-40.674
-38.34
-35.969
-33.559
-31.1
-28.588
-26.019
-23.392
-20.711
-17.982
-15.211
-12.407
-9.584
-6.758
-3.95
-1.176
1.548
4.206
6.782
9.261
11.623
13.854
15.937
17.855
19.59
21.122
22.434
23.506
24.323
24.867
25.121
25.071
24.703
24.003
22.959
21.563
19.805
17.678
15.177
12.298
9.04
5.404
1.392
-2.992
-7.741
-12.846
-18.296
-24.08
-30.183
-36.588
-43.279
-50.235
-57.435
-64.859
-72.483
-80.283
-88.233
-96.308
-104.482
-112.726
-121.016
-129.322
-137.619
-145.88
-154.079
-162.191
-170.193
-178.06
-185.77
-193.304
-200.642
-207.765
-214.658
-221.305
-227.693
-233.811
-239.647
-245.195
-250.448
-255.401
-260.05
-264.396
-268.437
-272.176
-275.617
-278.763
-281.621
-284.197
-286.499
-288.535
-290.315
-291.847
-293.141
-294.209
-295.061
-295.708
-296.161
-296.431
-296.528
-296.462
-296.244
-295.882
-295.387
-294.766
-294.029
-293.184
-292.24
-291.205
-290.086
-288.89
-287.623
-286.293
-284.904
-283.462
-281.972
-280.439
-278.868
-277.266
-275.637
-273.988
-272.324
-270.652
-268.982
-267.323
-265.686
-264.082
-262.525
-261.028
-259.606
-258.272
-257.036
-255.906
-254.891
-253.999
-253.24
-252.622
-252.152
-251.839
-251.689
-251.706
-251.895
-252.251
-252.758
-253.404
-254.176
-255.073
-256.109
-257.292
-258.621
-260.103
-261.737
-263.522
-265.451
-267.487
-269.574
-271.666
-273.727
-275.757
-277.764
-279.725
-281.608
-283.351
-284.867
-286.11
-287.015
-287.469
-287.449
-287.016
-286.318
-285.658
-285.307
-285.401
-286.141
-287.665
-289.841
-292.375
-294.715
-296.166
-296.375
-295.155
-292.184
-287.285
-280.627
-272.73
-264.622
-257.309
-251.207
-246.615
-244.141
-244.479
-248.066
-254.897
-264.346
-275.689
-288.828
-302.855
-314.965
-322.179
-321.635
-312.538
-298.086
-279.961
-255.887
-220.517
-164.281
-79.862
31.848
165.611
312.264
459.679
599.481
722.558
816.318
870.471
874.613
822.179
716.454
566.07
385.293
193.846
10.961
-146.282
-264.29
-338.545
-371.775
-369.953
-345.052
-308.624
-270.584
-242.673
-228.411
-225.963
-231.113
-234.177
-231.325
-224.299
-215.853
-211.677
-213.982
-220.941
-230.334
-239.217
-245.621
-249.161
-249.919
-248.207
-244.44
-239.153
-232.964
-226.562
-220.829
-216.402
-213.506
-212.224
-212.418
-213.793
-216.102
-218.99
-221.924
-224.483
-226.416
-227.568
-227.93
-227.524
-226.312
-224.292
-221.525
-218.066
-213.971
-209.284
-204.014
-198.184
-191.854
-185.102
-178.028
-170.734
-163.29
-155.74
-148.125
-140.468
-132.794
-125.119
-117.443
-109.755
-102.053
-94.342
-86.633
-78.939
-71.267
-63.615
-55.986
-48.38
-40.806
-33.276
-25.804
-18.406
-11.1
-3.906
3.15
10.043
16.749
23.249
29.522
35.551
41.318
46.806
51.997
56.875
61.426
65.634
69.485
72.965
76.061
78.764
81.066
82.959
84.442
85.51
86.164
86.406
86.237
85.662
84.686
83.311
81.544
79.393
76.865
73.973
70.729
67.149
63.25
59.056
54.589
49.872
44.929
39.779
34.448
28.96
23.341
17.617
11.814
5.958
0.079
-5.785
-11.602
-17.351
-23.017
-28.605
-34.109
-39.512
-44.802
-49.963
-54.976
-59.814
-64.434
-68.761
-72.728
-76.277
-79.361
-81.958
-84.023
-85.49
-86.292
-86.344
-85.592
-84.03
-81.64
-78.409
-74.365
-69.557
-64.103
-58.222
-52.11
-45.946
-39.914
-34.133
-28.775
-24.105
-20.336
-17.627
-15.97
-15.132
-14.885
-15.049
-15.31
-15.217
-14.252
-11.856
-7.992
-3.229
1.896
6.646
10.194
11.962
11.02
7.21
2.511
-0.449
0.977
8.139
18.705
30.818
46.542
71.544
116.559
191.207
296.945
429.547
578.869
731.344
878.004
1009.32
1113.815
1183.649
1208.183
1180.942
1105.357
985.372
832.667
664.881
496.623
346.832
229.886
147.361
97.009
68.816
50.505
39.864
34.887
33.762
36.789
37.446
32.345
24.241
14.56
7.616
5.335
4.251
2.873
0.41
-3.355
-6.716
-9.123
-11.117
-12.972
-14.915
-17.103
-19.547
-22.157
-24.733
-27.074
-28.982
-30.537
-32.185
-34.172
-36.523
-39.279
-42.453
-45.999
-49.841
-53.697
-57.065
-59.611
-61.18
-61.683
-61.126
-59.508
-56.812
-53.101
-48.514
-43.163
-37.137
-30.504
-23.291
-15.569
-7.444
0.972
9.555
18.213
26.881
35.505
44.038
52.442
60.685
68.753
76.64
84.334
91.813
99.052
106.021
112.7
119.074
125.133
130.868
136.266
141.315
146
150.309
154.225
157.735
160.824
163.475
165.679
167.43
168.725
169.565
169.954
169.895
169.397
168.468
167.119
165.361
163.206
160.669
157.767
154.517
150.939
147.054
142.884
138.452
133.785
128.908
123.847
118.626
113.273
107.814
102.278
96.69
91.076
85.461
79.87
74.328
68.859
63.485
58.226
53.1
48.125
43.315
38.682
34.234
29.976
25.91
22.039
18.361
14.875
11.575
8.454
5.508
2.729
0.108
-2.365
-4.71
-6.944
-9.082
-11.143
-13.144
-15.103
-17.043
-18.982
-20.928
-22.893
-24.894
-26.953
-29.107
-31.384
-33.797
-36.362
-39.086
-41.972
-45.022
-48.22
-51.524
-54.896
-58.298
-61.707
-65.115
-68.496
-71.805
-74.98
-77.948
-80.66
-83.097
-85.236
-87.052
-88.55
-89.762
-90.768
-91.696
-92.643
-93.696
-94.932
-96.419
-98.258
-100.54
-103.386
-106.961
-111.345
-116.506
-122.33
-128.568
-134.888
-140.965
-146.316
-150.271
-152.371
-152.455
-150.683
-147.615
-143.979
-140.514
-138.068
-137.784
-139.958
-143.509
-146.844
-147.685
-145.492
-142.143
-138.31
-132.78
-119.479
-88.539
-32.882
50.992
159.135
282.651
413.777
544.036
667.05
774.85
855.222
895.552
883.842
815.619
694.125
530.632
344.46
155.604
-12.941
-141.096
-219.029
-244.447
-228.007
-189.268
-145.989
-113.31
-98.808
-99.642
-109.462
-119.891
-122.783
-116.792
-104.72
-91.466
-82.944
-80.825
-83.928
-90.509
-98.135
-105.879
-113.517
-120.007
-124.824
-127.806
-128.758
-127.978
-125.822
-122.429
-118.323
-114.43
-111.309
-109.212
-108.221
-108.098
-108.634
-109.697
-110.919
-111.823
-112.107
-111.591
-110.225
-108.078
-105.167
-101.479
-97.075
-92.026
-86.398
-80.245
-73.583
-66.427
-58.827
-50.861
-42.626
-34.202
-25.641
-16.982
-8.257
0.507
9.283
18.059
26.835
35.605
44.352
53.059
61.702
70.262
78.732
87.101
95.361
103.499
111.5
119.346
127.018
134.494
141.748
148.755
155.484
161.91
168.014
173.773
179.17
184.184
188.799
192.998
196.77
200.099
202.973
205.381
207.312
208.761
209.723
210.195
210.176
209.666
208.669
207.191
205.239
202.824
199.957
196.65
192.92
188.785
184.266
179.384
174.163
168.626
162.801
156.715
150.399
143.88
137.184
130.336
123.364
116.292
109.144
101.944
94.717
87.487
80.286
73.141
66.083
59.139
52.335
45.693
39.236
32.982
26.952
21.166
15.646
10.423
5.526
0.979
-3.2
-7.009
-10.453
-13.541
-16.281
-18.689
-20.781
-22.563
-24.026
-25.149
-25.896
-26.257
-26.247
-25.885
-25.187
-24.14
-22.708
-20.842
-18.51
-15.675
-12.259
-8.248
-3.693
1.256
6.304
11.138
15.542
19.376
22.54
25.202
27.709
30.467
34.129
39.242
46.089
54.817
65.343
77.057
89.076
100.562
110.413
117.758
122.059
122.76
119.59
112.885
103.301
91.568
78.721
65.553
52.775
41.602
34.221
33.473
41.72
60.222
87.133
119.379
156.687
201.93
262.458
345.019
448.284
563.963
677.866
777.516
860.784
930.239
989.141
1035.609
1054.603
1028.478
945.537
802.336
613.628
404.68
201.36
29.234
-98.207
-178.743
-217.165
-223.627
-205.424
-169.962
-123.34
-73.105
-31.655
-4.814
5.949
4.689
2.819
5.478
12.765
22.228
27.22
25.304
17.903
6.87
-4.451
-14.019
-21.438
-26.524
-29.61
-31.155
-31.451
-30.883
-29.982
-29.338
-29.608
-31.182
-34.062
-38.084
-42.915
-48.156
-53.503
-58.626
-63.149
-66.86
-69.674
-71.551
-72.566
-72.805
-72.298
-71.105
-69.297
-66.903
-63.978
-60.582
-56.765
-52.611
-48.19
-43.542
-38.714
-33.735
-28.622
-23.394
-18.056
-12.592
-7.004
-1.304
4.496
10.373
16.314
22.311
28.355
34.434
40.533
46.633
52.716
58.761
64.745
70.636
76.404
82.012
87.432
92.637
97.602
102.303
106.718
110.824
114.601
118.034
121.103
123.793
126.087
127.971
129.433
130.463
131.054
131.2
130.896
130.141
128.935
127.28
125.182
122.645
119.677
116.29
112.495
108.307
103.741
98.815
93.549
87.963
82.079
75.922
69.515
62.883
56.052
49.047
41.895
34.62
27.249
19.807
12.319
4.81
-2.696
-10.175
-17.603
-24.958
-32.218
-39.361
-46.369
-53.222
-59.902
-66.393
-72.68
-78.747
-84.583
-90.175
-95.513
-100.589
-105.394
-109.925
-114.175
-118.142
-121.824
-125.222
-128.337
-131.169
-133.723
-136.003
-138.013
-139.76
-141.249
-142.489
-143.486
-144.25
-144.789
-145.114
-145.234
-145.161
-144.905
-144.478
-143.893
-143.162
-142.298
-141.314
-140.225
-139.044
-137.785
-136.462
-135.088
-133.678
-132.245
-130.802
-129.361
-127.935
-126.536
-125.176
-123.865
-122.612
-121.429
-120.324
-119.305
-118.38
-117.554
-116.834
-116.226
-115.734
-115.361
-115.111
-114.985
-114.985
-115.111
-115.362
-115.736
-116.229
-116.838
-117.556
-118.378
-119.297
-120.304
-121.393
-122.552
-123.775
-125.051
-126.371
-127.724
-129.1
-130.488
-131.879
-133.261
-134.624
-135.958
-137.253
-138.501
-139.693
-140.822
-141.882
-142.867
-143.771
-144.588
-145.315
-145.95
-146.491
-146.935
-147.283
-147.537
-147.703
-147.79
-147.804
-147.755
-147.653
-147.51
-147.338
-147.149
-146.952
-146.752
-146.558
-146.382
-146.234
-146.128
-146.074
-146.085
-146.175
-146.357
-146.645
-147.048
-147.574
-148.221
-148.996
-149.903
-150.953
-152.165
-153.551
-155.115
-156.861
-158.787
-160.881
-163.128
-165.492
-167.925
-170.386
-172.831
-175.221
-177.529
-179.718
-181.758
-183.627
-185.283
-186.693
-187.841
-188.722
-189.361
-189.811
-190.132
-190.394
-190.69
-191.112
-191.777
-192.794
-194.254
-196.24
-198.733
-201.734
-205.351
-209.608
-214.431
-219.666
-224.909
-229.722
-234.013
-237.624
-239.969
-240.737
-239.872
-237.264
-234.188
-231.991
-230.157
-228.899
-227.446
-223.641
-218.054
-210.656
-201.779
-194.402
-189.46
-186.523
-182.062
-168.401
-138.189
-86.13
-13.314
74.131
168.96
263.097
351.037
426.523
480.134
501.565
481.385
416.644
312.45
181.027
38.259
-100.236
-220.94
-315.128
-376.874
-405.557
-404.333
-376.534
-331.23
-277.604
-225.679
-188.282
-169.121
-166.644
-174.754
-181.981
-183.939
-180.815
-174.752
-170.941
-170.392
-171.512
-173.07
-172.888
-170.003
-164.991
-158.366
-151.007
-144.083
-138.077
-133.11
-129.291
-126.611
-125.009
-124.413
-124.569
-124.983
-125.29
-125.304
-124.888
-124.018
-122.681
-120.823
-118.431
-115.555
-112.24
-108.522
-104.441
-100.007
-95.23
-90.162
-84.855
-79.38
-73.82
-68.229
-62.645
-57.1
-51.612
-46.199
-40.879
-35.662
-30.543
-25.52
-20.597
-15.778
-11.078
-6.501
-2.045
2.293
6.521
10.635
14.63
18.497
22.229
25.818
29.255
32.528
35.621
38.523
41.227
43.726
46.016
48.091
49.946
51.574
52.974
54.143
55.078
55.777
56.238
56.461
56.448
56.201
55.724
55.022
54.099
52.963
51.622
50.084
48.359
46.459
44.396
42.182
39.833
37.362
34.786
32.12
29.38
26.582
23.741
20.874
17.997
15.126
12.278
9.468
6.714
4.03
1.433
-1.063
-3.444
-5.695
-7.806
-9.765
-11.563
-13.189
-14.636
-15.896
-16.965
-17.836
-18.505
-18.972
-19.234
-19.294
-19.157
-18.828
-18.314
-17.623
-16.763
-15.743
-14.575
-13.268
-11.831
-10.275
-8.611
-6.853
-5.015
-3.114
-1.165
0.814
2.803
4.782
6.734
8.643
10.497
12.282
13.988
15.605
17.127
18.545
19.852
21.04
22.099
23.02
23.8
24.437
24.935
25.297
25.525
25.629
25.617
25.497
25.269
24.922
24.436
23.799
23.009
22.071
20.992
19.782
18.463
17.075
15.687
14.366
13.158
12.09
11.168
10.411
9.858
9.55
9.524
9.787
10.338
11.2
12.434
14.08
16.115
18.436
20.893
23.342
25.686
27.826
29.604
30.862
31.546
31.755
31.65
31.423
31.425
31.937
33.151
35.421
38.146
40.305
41.931
42.342
41.943
42.148
41.658
39.925
35.646
25.485
8.86
-13.909
-39.039
-57.558
-59.319
-34.811
19.008
98.511
196.366
301.402
404.038
494.82
560.661
592.11
585.847
544.366
480.032
406.125
326.433
241.35
149.747
52.221
-38.624
-106.8
-143.434
-145.175
-119.142
-80.356
-40.501
-9.519
6.172
8.117
0.569
-9.859
-17.048
-19.778
-19.731
-20.574
-24.347
-30.21
-36.739
-42.098
-45.485
-47.473
-48.475
-48.761
-48.98
-49.574
-50.695
-52.546
-55.044
-57.906
-61.075
-64.495
-67.835
-70.87
-73.487
-75.546
-77.082
-78.148
-78.663
-78.588
-77.958
-76.774
-75.064
-72.863
-70.144
-66.928
-63.28
-59.269
-54.989
-50.509
-45.859
-41.072
-36.18
-31.208
-26.187
-21.132
-16.043
-10.936
-5.835
-0.764
4.245
9.172
14.006
18.733
23.343
27.826
32.168
36.355
40.376
44.214
47.85
51.266
54.44
57.354
59.996
62.353
64.416
66.178
67.632
68.773
69.601
70.111
70.302
70.172
69.72
68.95
67.863
66.464
64.76
62.757
60.466
57.897
55.061
51.971
48.64
45.081
41.309
37.34
33.19
28.876
24.415
19.826
15.127
10.338
5.476
0.561
-4.391
-9.361
-14.334
-19.293
-24.221
-29.105
-33.93
-38.682
-43.346
-47.911
-52.364
-56.696
-60.898
-64.962
-68.881
-72.649
-76.262
-79.715
-83.004
-86.127
-89.082
-91.867
-94.482
-96.928
-99.21
-101.332
-103.305
-105.136
-106.833
-108.406
-109.866
-111.22
-112.475
-113.636
-114.705
-115.685
-116.583
-117.403
-118.154
-118.841
-119.471
-120.052
-120.587
-121.08
-121.531
-121.94
-122.299
-122.604
-122.856
-123.062
-123.241
-123.407
-123.561
-123.706
-123.834
-123.931
-123.979
-123.943
-123.77
-123.408
-122.81
-121.933
-120.753
-119.255
-117.416
-115.209
-112.583
-109.5
-105.965
-102
-97.64
-92.918
-87.86
-82.532
-77.076
-71.664
-66.447
-61.555
-57.045
-52.966
-49.447
-46.584
-44.395
-42.779
-41.431
-40.013
-38.315
-36.098
-32.977
-28.697
-23.164
-16.547
-9.537
-2.783
3.269
7.907
10.327
10.147
8.326
7.168
9.23
16.233
27.122
39.866
55.432
77.075
110.345
160.997
229.107
310.649
400.575
492.026
577.69
650.058
698.285
711.291
685.019
620.626
525.514
413.398
294.785
180.425
81.402
3.542
-47.056
-69.736
-69.115
-48.375
-15.063
23.986
62.256
89.607
102.047
99.703
86.32
70.975
58.589
50.39
45.551
40.227
33.113
25.093
17.435
12.392
10.696
11.605
14.235
17.318
20.029
22.226
23.745
24.398
24.178
23.163
21.623
20.085
18.93
18.296
18.256
18.808
19.956
21.78
24.303
27.46
31.199
35.494
40.337
45.762
51.771
58.303
65.285
72.628
80.24
88.067
96.064
104.186
112.393
120.648
128.915
137.178
145.425
153.635
161.781
169.832
177.759
185.546
193.184
200.664
207.979
215.118
222.067
228.816
235.35
241.653
247.709
253.501
259.007
264.212
269.104
273.672
277.907
281.802
285.35
288.543
291.377
293.849
295.954
297.689
299.051
300.039
300.653
300.895
300.766
300.271
299.415
298.203
296.645
294.747
292.52
289.973
287.119
283.969
280.537
276.835
272.88
268.687
264.273
259.654
254.85
249.878
244.756
239.504
234.139
228.681
223.148
217.558
211.929
206.278
200.625
194.985
189.375
183.812
178.31
172.885
167.55
162.317
157.198
152.204
147.343
142.624
138.054
133.64
129.386
125.298
121.377
117.627
114.049
110.642
107.407
104.342
101.445
98.711
96.137
93.719
91.452
89.33
87.346
85.495
83.771
82.167
80.677
79.293
78.01
76.821
75.72
74.702
73.761
72.893
72.093
71.357
70.683
70.066
69.505
68.996
68.535
68.121
67.751
67.421
67.129
66.874
66.652
66.462
66.304
66.176
66.078
66.01
65.972
65.963
65.984
66.035
66.118
66.23
66.375
66.55
66.759
67.001
67.276
67.583
67.922
68.293
68.696
69.128
69.587
70.071
70.577
71.105
71.654
72.222
72.809
73.413
74.036
74.679
75.339
76.013
76.695
77.374
78.044
78.695
79.319
79.906
80.449
80.943
81.391
81.793
82.15
82.46
82.716
82.916
83.059
83.145
83.177
83.158
83.09
82.983
82.85
82.692
82.505
82.27
81.95
81.511
80.923
80.152
79.179
77.987
76.558
74.885
72.966
70.804
68.412
65.801
62.995
60.042
56.983
53.907
50.948
48.149
45.493
42.907
40.176
37.129
33.67
29.583
24.677
19.053
12.969
6.924
1.688
-2.28
-4.691
-5.082
-3.324
0.215
4.822
9.165
11.618
11.113
6.629
-3.212
-19.268
-41.915
-70.966
-105.075
-142.525
-181.934
-221.42
-258.187
-289.372
-311.953
-323.236
-321.699
-306.012
-274.845
-227.623
-165.544
-91.782
-10.661
73.13
156.984
240.473
322.647
400.88
468.668
516.279
533.973
514.432
456.167
362.037
239.915
103.497
-32.498
-150.858
-237.303
-287.939
-305.058
-297.79
-278.136
-252.721
-226.946
-206.164
-193.203
-191.098
-199.413
-211.935
-223.336
-230.454
-232.854
-234.305
-237.363
-241.906
-247.079
-251.026
-252.857
-253.186
-252.747
-252.21
-252.105
-252.73
-254.222
-256.625
-259.868
-263.739
-268.018
-272.528
-277.034
-281.268
-285.065
-288.323
-290.987
-293.057
-294.489
-295.22
-295.233
-294.54
-293.157
-291.104
-288.387
-285.009
-281.019
-276.491
-271.507
-266.166
-260.53
-254.641
-248.544
-242.275
-235.868
-229.354
-222.747
-216.047
-209.27
-202.434
-195.563
-188.683
-181.808
-174.945
-168.105
-161.295
-154.527
-147.814
-141.166
-134.594
-128.115
-121.745
-115.504
-109.411
-103.483
-97.733
-92.175
-86.819
-81.674
-76.75
-72.053
-67.587
-63.358
-59.373
-55.634
-52.146
-48.91
-45.928
-43.2
-40.726
-38.504
-36.53
-34.8
-33.312
-32.06
-31.038
-30.242
-29.663
-29.297
-29.137
-29.178
-29.411
-29.831
-30.428
-31.196
-32.127
-33.215
-34.452
-35.83
-37.343
-38.983
-40.744
-42.621
-44.608
-46.697
-48.884
-51.166
-53.545
-56.02
-58.593
-61.267
-64.043
-66.925
-69.914
-73.008
-76.199
-79.48
-82.845
-86.289
-89.807
-93.395
-97.048
-100.757
-104.514
-108.303
-112.105
-115.895
-119.643
-123.327
-126.933
-130.452
-133.891
-137.252
-140.532
-143.732
-146.842
-149.838
-152.69
-155.356
-157.785
-159.959
-161.86
-163.465
-164.749
-165.654
-166.114
-166.074
-165.455
-164.148
-162.117
-159.385
-156.055
-152.348
-148.471
-144.566
-140.759
-137.15
-133.613
-129.807
-125.289
-119.532
-112.114
-102.87
-91.789
-78.863
-64.541
-49.718
-35.246
-21.987
-10.611
-1.327
5.693
9.918
11.421
10.913
8.816
5.623
1.675
-3.224
-7.819
-8.933
-4.364
6.872
23.606
42.937
65.342
95.942
142.755
211.874
303.388
410.591
522.707
632.517
737.088
834.648
921.849
989.586
1023.978
1013.043
952.541
844.981
701.339
539.893
377.489
232.683
121.947
49.45
14.755
10.57
21.503
38.44
52.973
56.379
49.34
32.735
10.268
-7.794
-17.382
-17.975
-11.151
-3.721
0.717
2.161
0.97
-1.222
-4.03
-8.502
-15.192
-23.947
-33.981
-44.413
-54.546
-63.883
-72.1
-78.948
-84.339
-88.612
-92.41
-96.217
-100.375
-105.046
-110.125
-115.434
-120.788
-125.888
-130.37
-134.013
-136.668
-138.265
-138.875
-138.577
-137.442
-135.574
-133.066
-129.977
-126.371
-122.312
-117.862
-113.114
-108.153
-103.039
-97.836
-92.588
-87.335
-82.116
-76.951
-71.844
-66.81
-61.869
-57.051
-52.392
-47.92
-43.657
-39.623
-35.838
-32.321
-29.091
-26.165
-23.559
-21.291
-19.38
-17.849
-16.718
-16.003
-15.714
-15.858
-16.44
-17.461
-18.919
-20.81
-23.125
-25.857
-28.994
-32.524
-36.434
-40.707
-45.322
-50.257
-55.491
-60.996
-66.745
-72.71
-78.86
-85.162
-91.587
-98.1
-104.669
-111.26
-117.84
-124.375
-130.833
-137.181
-143.389
-149.426
-155.263
-160.873
-166.232
-171.315
-176.103
-180.575
-184.717
-188.514
-191.955
-195.032
-197.739
-200.071
-202.028
-203.611
-204.824
-205.673
-206.167
-206.316
-206.134
-205.635
-204.836
-203.756
-202.413
-200.829
-199.024
-197.021
-194.844
-192.514
-190.054
-187.488
-184.838
-182.126
-179.372
-176.596
-173.818
-171.053
-168.318
-165.626
-162.99
-160.418
-157.921
-155.504
-153.17
-150.923
-148.763
-146.688
-144.696
-142.78
-140.936
-139.153
-137.424
-135.738
-134.083
-132.447
-130.817
-129.18
-127.523
-125.833
-124.095
-122.298
-120.429
-118.477
-116.432
-114.284
-112.027
-109.653
-107.158
-104.539
-101.796
-98.928
-95.939
-92.834
-89.618
-86.302
-82.895
-79.409
-75.86
-72.262
-68.633
-64.99
-61.356
-57.749
-54.191
-50.706
-47.316
-44.044
-40.916
-37.954
-35.181
-32.619
-30.292
-28.219
-26.419
-24.91
-23.708
-22.826
-22.276
-22.068
-22.21
-22.707
-23.562
-24.774
-26.341
-28.258
-30.518
-33.11
-36.021
-39.236
-42.738
-46.509
-50.527
-54.77
-59.214
-63.831
-68.597
-73.483
-78.46
-83.498
-88.566
-93.634
-98.671
-103.649
-108.538
-113.312
-117.945
-122.417
-126.71
-130.804
-134.685
-138.337
-141.75
-144.913
-147.815
-150.446
-152.798
-154.867
-156.652
-158.157
-159.385
-160.341
-161.031
-161.463
-161.647
-161.596
-161.318
-160.817
-160.103
-159.197
-158.126
-156.933
-155.654
-154.309
-152.92
-151.507
-150.083
-148.658
-147.218
-145.721
-144.132
-142.42
-140.565
-138.566
-136.397
-134.007
-131.339
-128.32
-124.907
-121.099
-116.879
-112.234
-107.185
-101.77
-96.089
-90.333
-84.665
-79.238
-74.206
-69.664
-65.764
-62.741
-60.761
-59.948
-60.271
-61.434
-63.145
-65.18
-67.178
-68.708
-69.354
-68.638
-66.544
-63.799
-61.128
-59.202
-58.791
-60.364
-64.248
-70.944
-79.361
-86.357
-89.148
-84.702
-72.042
-53.421
-28.354
5.695
53.711
123.124
215.661
327.607
451.975
578.801
701.031
813.842
909.581
980.05
1016.513
1010.123
960.446
872.248
751.176
608.65
455.713
303.578
168.983
64.515
-4.568
-37.571
-42.301
-30.745
-10.255
11.718
27.673
36.359
36.605
30.693
27.113
29.522
38.315
51.223
61.589
66.306
65.83
61.392
55.368
48.811
41.672
34.576
28.257
23.162
19.515
17.11
15.599
14.809
14.448
13.911
12.627
10.289
6.861
2.561
-2.279
-7.367
-12.401
-17.011
-20.921
-23.989
-26.151
-27.44
-27.92
-27.643
-26.675
-25.097
-22.963
-20.309
-17.183
-13.631
-9.722
-5.554
-1.199
3.29
7.872
12.523
17.226
21.962
26.732
31.549
36.417
41.334
46.291
51.272
56.27
61.285
66.319
71.371
76.442
81.525
86.615
91.705
96.784
101.836
106.844
111.788
116.649
121.415
126.07
130.604
135.001
139.248
143.332
147.241
150.962
154.48
157.782
160.851
163.676
166.245
168.545
170.566
172.296
173.725
174.846
175.651
176.133
176.287
176.109
175.595
174.745
173.559
172.038
170.185
168.004
165.501
162.683
159.56
156.142
152.44
148.467
144.235
139.76
135.057
130.14
125.025
119.729
114.268
108.656
102.909
97.04
91.061
84.986
78.824
72.588
66.287
59.932
53.533
47.102
40.65
34.187
27.724
21.264
14.813
8.376
1.956
-4.443
-10.815
-17.161
-23.476
-29.748
-35.969
-42.132
-48.239
-54.304
-60.341
-66.348
-72.325
-78.266
-84.152
-89.967
-95.675
-101.219
-106.544
-111.597
-116.333
-120.733
-124.774
-128.41
-131.59
-134.242
-136.296
-137.726
-138.512
-138.633
-138.109
-136.987
-135.356
-133.377
-131.19
-128.906
-126.633
-124.449
-122.443
-120.73
-119.404
-118.613
-118.55
-119.288
-120.814
-122.993
-125.435
-127.686
-129.296
-129.582
-127.796
-123.461
-116.304
-106.558
-95.165
-83.181
-71.539
-61.433
-53.452
-47.061
-41.731
-35.973
-28.819
-21.889
-15.343
-6.759
9.497
44.756
108.385
201.316
318.586
447.912
576.471
700.194
818.069
929.733
1031.8
1112.356
1155.956
1149.979
1089.841
979.345
830.337
660.325
485.931
324.444
192.155
98.002
45.204
30.425
41.267
64.124
87.649
101.696
104.46
99.634
92.234
90.258
96.693
109.388
124.469
135.707
140.469
139.719
135.064
129.152
123.268
117.46
112.409
108.746
106.725
106.572
108.095
110.734
114.157
117.95
121.327
123.718
124.86
124.62
123.161
120.782
117.697
114.277
111.056
108.378
106.452
105.39
105.141
105.678
107.01
109.067
111.746
114.968
118.656
122.764
127.272
132.114
137.198
142.416
147.647
152.804
157.829
162.669
167.288
171.654
175.738
179.535
183.049
186.272
189.193
191.799
194.07
195.999
197.588
198.834
199.743
200.314
200.542
200.425
199.96
199.142
197.966
196.427
194.517
192.235
189.584
186.566
183.191
179.465
175.396
170.995
166.274
161.246
155.923
150.318
144.447
138.325
131.969
125.398
118.63
111.685
104.584
97.346
89.994
82.551
75.038
67.478
59.896
52.314
44.757
37.248
29.81
22.467
15.239
8.148
1.214
-5.544
-12.107
-18.46
-24.585
-30.471
-36.101
-41.466
-46.555
-51.363
-55.882
-60.11
-64.045
-67.692
-71.056
-74.146
-76.972
-79.544
-81.876
-83.984
-85.887
-87.605
-89.154
-90.555
-91.829
-93.001
-94.099
-95.15
-96.176
-97.2
-98.242
-99.323
-100.47
-101.703
-103.035
-104.476
-106.037
-107.735
-109.6
-111.657
-113.916
-116.382
-119.057
-121.935
-125.012
-128.275
-131.682
-135.191
-138.753
-142.323
-145.881
-149.409
-152.878
-156.266
-159.519
-162.573
-165.393
-167.941
-170.176
-172.115
-173.771
-175.133
-176.323
-177.522
-178.944
-180.944
-183.798
-187.549
-192.228
-197.895
-204.417
-211.568
-218.892
-225.434
-230.258
-232.886
-233.033
-230.581
-225.722
-218.744
-210.259
-201.764
-195.249
-192.347
-194.12
-201.046
-212.248
-225.997
-241.499
-257.154
-271.376
-283.476
-288.606
-280.536
-253.305
-200.591
-123.464
-27.982
78.907
189.752
303.286
421.125
542.317
661.98
767.076
841.876
873.028
851.804
779.219
661.435
508.941
338.038
165.874
11.793
-106.098
-178.756
-206.074
-196.223
-164.111
-124.06
-86.598
-60.36
-48.696
-51.168
-66.483
-89.091
-114.113
-138.001
-155.737
-165.723
-166.898
-159.706
-149.015
-138.367
-130.739
-127.209
-125.046
-122.536
-118.888
-114.201
-110.14
-107.48
-106.17
-106.077
-106.803
-108.175
-110.235
-112.886
-115.963
-119.317
-122.791
-126.193
-129.281
-131.851
-133.742
-134.857
-135.177
-134.682
-133.35
-131.204
-128.292
-124.666
-120.391
-115.512
-110.068
-104.128
-97.773
-91.1
-84.218
-77.211
-70.135
-63.043
-55.968
-48.94
-41.982
-35.102
-28.296
-21.57
-14.937
-8.416
-2.031
4.2
10.264
16.147
21.836
27.312
32.557
37.549
42.27
46.695
50.802
54.564
57.955
60.952
63.538
65.697
67.416
68.686
69.496
69.842
69.721
69.13
68.069
66.538
64.538
62.076
59.158
55.793
51.993
47.77
43.141
38.125
32.74
27.01
20.956
14.604
7.978
1.109
-5.976
-13.247
-20.674
-28.227
-35.872
-43.578
-51.314
-59.048
-66.752
-74.396
-81.952
-89.392
-96.691
-103.828
-110.78
-117.528
-124.051
-130.333
-136.358
-142.115
-147.593
-152.784
-157.683
-162.287
-166.598
-170.623
-174.368
-177.841
-181.051
-184.008
-186.726
-189.22
-191.502
-193.587
-195.488
-197.222
-198.812
-200.279
-201.641
-202.915
-204.115
-205.258
-206.36
-207.436
-208.488
-209.523
-210.548
-211.573
-212.622
-213.714
-214.849
-216.03
-217.252
-218.498
-219.756
-220.996
-222.164
-223.214
-224.097
-224.778
-225.239
-225.44
-225.333
-224.872
-223.995
-222.679
-220.905
-218.629
-215.821
-212.493
-208.69
-204.534
-200.145
-195.548
-190.864
-186.3
-182.046
-178.367
-175.355
-172.896
-171.08
-170.083
-169.755
-169.723
-169.406
-167.939
-164.939
-160.462
-154.131
-145.541
-134.842
-122.643
-110.131
-99.076
-90.526
-84.631
-82.172
-83.319
-86.56
-89.948
-90.568
-86.206
-78.166
-67.48
-52.1
-26.492
18.946
91.014
189.358
307.569
434.8
561.915
683.831
796.221
892.632
963.317
994.863
975.628
902.387
778.488
615.979
434.209
252.194
89.759
-35.68
-115.651
-148.305
-138.728
-101.346
-52.051
-6.427
19.92
22.402
4.255
-26.102
-53.638
-71.006
-78.521
-79.559
-82.209
-89.666
-99.653
-110.04
-118.084
-122.762
-125.274
-126.346
-126.16
-125.278
-124.451
-124.14
-124.697
-126.211
-128.396
-131.179
-134.726
-138.908
-143.4
-147.93
-152.2
-156.011
-159.284
-161.89
-163.678
-164.583
-164.604
-163.753
-162.065
-159.576
-156.318
-152.343
-147.713
-142.488
-136.726
-130.5
-123.895
-117.007
-109.946
-102.796
-95.618
-88.464
-81.376
-74.386
-67.522
-60.795
-54.199
-47.738
-41.42
-35.254
-29.254
-23.423
-17.759
-12.26
