Name
Date of Birth,"Mar 27, 1959"
Recorded Date,2022-02-07 18:36:57 -0500
Classification,Sinus Rhythm
Symptoms,
Software Version,1.90
Device,"Watch4,2"
Sample Rate,510.227 hertz


Lead,Lead I
Unit,µV

-60.196
-78.2
-97.936
-118.55
-139.329
-161.084
-185.636
-212.721
-240.336
-263.691
-276.268
-275.582
-262.72
-242.265
-221.902
-205.894
-195.701
-191.2
-189.019
-187.397
-185.584
-182.086
-177.442
-171.636
-164.051
-154.741
-142.582
-126.63
-106.861
-83.607
-57.997
-31.262
-4.013
23.325
50.273
76.34
100.96
123.811
145.026
164.856
183.33
200.323
215.673
229.305
241.342
251.919
261.015
268.497
274.257
278.287
280.673
281.552
281.016
279.143
276.067
271.998
267.203
261.951
256.439
250.793
245.095
239.387
233.69
228.011
222.336
216.626
210.835
204.911
198.786
192.411
185.724
178.632
171.038
162.849
153.998
144.459
134.233
123.347
111.874
99.929
87.639
75.162
62.642
50.225
38.087
26.38
15.257
4.865
-4.691
-13.33
-20.984
-27.598
-33.131
-37.549
-40.877
-43.214
-44.667
-45.361
-45.408
-44.928
-44.08
-43.033
-41.957
-40.988
-40.2
-39.645
-39.377
-39.472
-40.021
-41.121
-42.81
-45.064
-47.852
-51.146
-54.939
-59.202
-63.855
-68.788
-73.88
-79.07
-84.363
-89.766
-95.262
-100.796
-106.27
-111.578
-116.664
-121.485
-125.996
-130.136
-133.807
-136.946
-139.539
-141.589
-143.107
-144.04
-144.268
-143.687
-142.237
-139.897
-136.689
-132.643
-127.764
-122.073
-115.62
-108.462
-100.691
-92.384
-83.588
-74.355
-64.766
-54.946
-45.081
-35.356
-25.904
-16.836
-8.238
-0.178
7.259
14.005
20.024
25.275
29.722
33.343
36.102
37.982
39.012
39.247
38.786
37.755
36.242
34.315
32.039
29.454
26.608
23.552
20.315
16.938
13.477
9.978
6.488
3.05
-0.327
-3.649
-6.942
-10.26
-13.639
-17.092
-20.629
-24.24
-27.91
-31.631
-35.38
-39.133
-42.878
-46.602
-50.294
-53.947
-57.54
-61.038
-64.4
-67.57
-70.5
-73.154
-75.501
-77.513
-79.17
-80.449
-81.34
-81.845
-81.968
-81.704
-81.043
-79.96
-78.436
-76.473
-74.091
-71.322
-68.192
-64.714
-60.891
-56.748
-52.354
-47.751
-42.924
-37.789
-32.243
-26.264
-19.984
-13.563
-7.075
-0.621
5.632
11.407
16.29
20.031
22.733
24.645
25.987
27.06
28.119
29.47
31.696
35.186
39.902
45.635
51.992
58.378
64.412
69.776
73.887
76.33
76.963
75.702
72.835
68.957
64.407
59.406
54.305
49.312
44.605
40.445
36.751
33.18
29.559
25.785
21.774
17.564
13.12
8.304
3.146
-2.198
-7.626
-13.038
-18.386
-23.698
-28.954
-34.085
-39.058
-43.855
-48.461
-52.877
-57.083
-61.037
-64.705
-68.061
-71.084
-73.765
-76.092
-78.054
-79.639
-80.84
-81.654
-82.084
-82.135
-81.813
-81.127
-80.084
-78.7
-76.989
-74.97
-72.664
-70.092
-67.276
-64.245
-61.027
-57.654
-54.159
-50.58
-46.95
-43.308
-39.688
-36.123
-32.644
-29.285
-26.077
-23.053
-20.247
-17.687
-15.401
-13.412
-11.744
-10.416
-9.445
-8.836
-8.594
-8.727
-9.249
-10.186
-11.564
-13.398
-15.702
-18.482
-21.736
-25.462
-29.644
-34.249
-39.247
-44.601
-50.267
-56.216
-62.411
-68.803
-75.34
-81.92
-88.415
-94.753
-100.91
-106.913
-112.864
-118.826
-124.815
-130.932
-137.343
-144.135
-151.269
-158.499
-165.376
-171.597
-177.116
-181.938
-185.982
-189.142
-191.453
-193.279
-195.339
-198.228
-202.077
-206.812
-212.56
-219.683
-228.463
-239.034
-251.15
-264.407
-278.994
-294.473
-308.796
-319.8
-325.222
-324.344
-320.095
-314.161
-305.068
-288.329
-253.659
-192.051
-100.826
18.369
155.453
295.947
428.426
541.436
627.229
684.314
710.002
703.378
666.272
597.782
501.394
386.608
264.358
150.467
60.316
0.992
-26.105
-25.845
-9.741
12.114
31.856
42.318
42.958
36.338
25.987
18.634
17.1
20.801
27.924
33.976
36.818
36.679
34.25
31.247
28.338
25.124
21.517
17.579
13.503
9.718
6.385
3.376
0.629
-1.937
-4.533
-7.458
-10.959
-15.24
-20.365
-26.201
-32.592
-39.344
-46.177
-52.812
-59.045
-64.728
-69.787
-74.215
-78.006
-81.163
-83.726
-85.733
-87.215
-88.194
-88.679
-88.686
-88.254
-87.438
-86.297
-84.881
-83.221
-81.338
-79.246
-76.956
-74.473
-71.793
-68.906
-65.808
-62.498
-58.982
-55.269
-51.361
-47.259
-42.961
-38.467
-33.776
-28.895
-23.828
-18.584
-13.171
-7.602
-1.891
3.946
9.893
15.939
22.07
28.273
34.536
40.844
47.182
53.537
59.892
66.23
72.534
78.784
84.962
91.049
97.026
102.874
108.571
114.099
119.437
124.566
129.464
134.113
138.491
142.582
146.365
149.825
152.944
155.708
158.102
160.114
161.732
162.945
163.746
164.126
164.079
163.6
162.686
161.335
159.547
157.325
154.671
151.591
148.093
144.186
139.881
135.19
130.129
124.713
118.96
112.888
106.52
99.877
92.986
85.875
78.57
71.101
63.5
55.794
48.013
40.184
32.333
24.484
16.665
8.902
1.224
-6.34
-13.759
-21.001
-28.033
-34.824
-41.345
-47.572
-53.481
-59.052
-64.259
-69.074
-73.465
-77.406
-80.877
-83.863
-86.353
-88.346
-89.851
-90.888
-91.492
-91.696
-91.53
-91.012
-90.156
-88.981
-87.514
-85.795
-83.867
-81.749
-79.44
-76.919
-74.154
-71.121
-67.775
-64.028
-59.821
-55.15
-50.07
-44.728
-39.252
-33.664
-27.961
-22.123
-15.972
-9.257
-1.668
7.231
17.699
29.716
43.08
57.402
71.993
86.008
98.553
108.618
115.459
118.726
118.388
114.728
108.36
100.125
90.882
81.574
72.985
65.575
59.546
54.86
51.243
48.296
45.721
43.248
40.698
38.075
35.435
32.918
30.775
29.235
28.388
28.231
28.643
29.436
30.487
31.686
32.914
34.085
35.126
35.993
36.697
37.239
37.6
37.742
37.594
37.107
36.291
35.181
33.856
32.413
30.913
29.407
27.948
26.565
25.281
24.108
23.028
22.026
21.106
20.284
19.592
19.062
18.7
18.499
18.442
18.496
18.642
18.86
19.13
19.436
19.773
20.138
20.542
20.999
21.513
22.083
22.703
23.363
24.059
24.788
25.545
26.331
27.142
27.979
28.842
29.731
30.643
31.572
32.51
33.446
34.371
35.276
36.152
36.99
37.782
38.52
39.198
39.809
40.346
40.802
41.171
41.444
41.615
41.678
41.627
41.457
41.164
40.746
40.2
39.526
38.724
37.796
36.742
35.567
34.273
32.866
31.348
29.728
28.01
26.203
24.316
22.357
20.336
18.265
16.155
14.018
11.865
9.708
7.558
5.428
3.33
1.274
-0.726
-2.659
-4.514
-6.28
-7.945
-9.5
-10.937
-12.247
-13.423
-14.46
-15.353
-16.098
-16.691
-17.13
-17.414
-17.542
-17.514
-17.333
-17.002
-16.525
-15.91
-15.163
-14.296
-13.318
-12.243
-11.084
-9.856
-8.574
-7.256
-5.918
-4.575
-3.241
-1.933
-0.664
0.548
1.692
2.755
3.725
4.59
5.339
5.959
6.445
6.796
7.015
7.102
7.053
6.857
6.503
5.988
5.308
4.458
3.437
2.245
0.897
-0.572
-2.116
-3.692
-5.265
-6.815
-8.332
-9.79
-11.147
-12.349
-13.334
-14.054
-14.48
-14.569
-14.271
-13.597
-12.619
-11.507
-10.506
-9.844
-9.681
-10.129
-11.264
-13.032
-15.311
-17.885
-20.395
-22.466
-23.763
-24.077
-23.332
-21.673
-19.358
-16.63
-13.872
-11.626
-10.556
-11.189
-13.955
-19.052
-26.374
-35.986
-47.319
-58.545
-67.407
-71.478
-69.521
-62.656
-52.349
-38.711
-18.782
13.797
66.535
144.883
249.136
374.785
511.686
647.208
769.667
866.657
930.49
956.156
939.475
882.608
788.007
661.453
515.836
364.401
223.653
109.68
29.973
-14.455
-28.843
-24.301
-11.356
2.673
11.288
11.579
4.65
-7.786
-20.997
-29.791
-32.888
-30.865
-26.497
-23.45
-22.79
-23.995
-25.984
-27.533
-28.553
-29.425
-30.216
-30.958
-31.49
-31.696
-31.706
-31.614
-31.465
-31.412
-31.73
-32.648
-34.343
-36.854
-40.056
-43.789
-47.865
-52.025
-55.947
-59.396
-62.217
-64.33
-65.742
-66.469
-66.524
-65.961
-64.855
-63.267
-61.249
-58.843
-56.076
-53.002
-49.693
-46.226
-42.68
-39.114
-35.565
-32.059
-28.609
-25.218
-21.882
-18.586
-15.306
-12.024
-8.727
-5.402
-2.042
1.365
4.83
8.369
11.998
15.734
19.595
23.589
27.718
31.982
36.379
40.896
45.519
50.22
54.961
59.717
64.475
69.228
73.978
78.727
83.468
88.2
92.921
97.631
102.338
107.038
111.718
116.389
121.068
125.791
130.623
135.589
140.683
145.891
151.178
156.503
161.831
167.105
172.248
177.196
181.885
186.261
190.282
193.871
196.927
199.329
200.937
201.664
201.466
200.309
198.18
195.085
191.03
186.056
180.242
173.631
166.272
158.214
149.512
140.271
130.636
120.775
110.857
101.01
91.33
81.904
72.815
64.121
55.88
48.122
40.855
34.129
27.993
22.478
17.599
13.32
9.564
6.231
3.238
0.515
-1.988
-4.313
-6.504
-8.588
-10.588
-12.518
-14.394
-16.266
-18.183
-20.184
-22.286
-24.48
-26.726
-28.974
-31.185
-33.329
-35.382
-37.334
-39.177
-40.914
-42.555
-44.116
-45.601
-46.999
-48.3
-49.495
-50.587
-51.591
-52.532
-53.441
-54.344
-55.265
-56.225
-57.235
-58.301
-59.424
-60.596
-61.806
-63.049
-64.321
-65.618
-66.938
-68.275
-69.619
-70.958
-72.278
-73.565
-74.801
-75.972
-77.065
-78.067
-78.967
-79.759
-80.435
-80.99
-81.416
-81.708
-81.859
-81.862
-81.711
-81.402
-80.93
-80.294
-79.491
-78.522
-77.389
-76.094
-74.641
-73.035
-71.281
-69.386
-67.357
-65.203
-62.932
-60.554
-58.081
-55.522
-52.892
-50.2
-47.462
-44.689
-41.894
-39.092
-36.294
-33.515
-30.768
-28.065
-25.42
-22.845
-20.352
-17.954
-15.664
-13.491
-11.449
-9.547
-7.796
-6.204
-4.781
-3.532
-2.467
-1.59
-0.908
-0.424
-0.143
-0.069
-0.202
-0.547
-1.102
-1.869
-2.848
-4.036
-5.432
-7.035
-8.839
-10.843
-13.041
-15.428
-17.998
-20.744
-23.66
-26.736
-29.964
-33.333
-36.833
-40.453
-44.18
-48.002
-51.906
-55.877
-59.902
-63.966
-68.053
-72.148
-76.234
-80.295
-84.314
-88.275
-92.161
-95.954
-99.637
-103.194
-106.608
-109.862
-112.939
-115.823
-118.498
-120.95
-123.163
-125.123
-126.818
-128.235
-129.364
-130.196
-130.723
-130.938
-130.836
-130.414
-129.669
-128.602
-127.213
-125.505
-123.482
-121.15
-118.517
-115.593
-112.387
-108.913
-105.185
-101.218
-97.029
-92.636
-88.059
-83.317
-78.433
-73.428
-68.328
-63.156
-57.938
-52.701
-47.47
-42.274
-37.138
-32.089
-27.153
-22.354
-17.718
-13.268
-9.027
-5.018
-1.26
2.225
5.417
8.296
10.844
13.046
14.886
16.351
17.429
18.11
18.387
18.258
17.723
16.782
15.439
13.696
11.564
9.055
6.185
2.97
-0.571
-4.423
-8.559
-12.95
-17.565
-22.375
-27.356
-32.496
-37.775
-43.168
-48.651
-54.199
-59.789
-65.396
-70.985
-76.501
-81.886
-87.078
-92.025
-96.692
-101.041
-105.037
-108.637
-111.771
-114.382
-116.426
-117.859
-118.67
-118.849
-118.355
-117.233
-115.623
-113.707
-111.77
-110.065
-108.647
-107.596
-107.033
-106.906
-107.12
-107.415
-107.13
-105.691
-102.89
-98.548
-92.6
-85.29
-76.837
-67.8
-59.437
-53.037
-49.583
-49.893
-54.469
-62.833
-73.75
-85.571
-95.678
-102.603
-106.601
-107.19
-103.278
-90.745
-62.585
-13.603
58.887
151.903
258.246
371.391
484.081
591.192
687.541
763.622
810.102
817.635
779.727
697.898
578.86
434.448
280.515
132.593
5.232
-90.437
-149.261
-171.682
-164.032
-137.125
-102.717
-71.609
-50.897
-41.192
-38.945
-38.498
-34.489
-26.375
-16.912
-9.777
-8.465
-13.473
-23.087
-35.067
-47.141
-57.863
-66.438
-72.56
-76.335
-77.988
-77.946
-76.768
-74.951
-73.136
-72.013
-71.911
-72.935
-75.034
-77.94
-81.4
-85.181
-88.924
-92.281
-95.052
-97.123
-98.472
-99.153
-99.174
-98.542
-97.308
-95.525
-93.239
-90.49
-87.297
-83.683
-79.696
-75.399
-70.867
-66.16
-61.315
-56.364
-51.327
-46.223
-41.07
-35.875
-30.635
-25.353
-20.034
-14.684
-9.316
-3.934
1.464
6.878
12.309
17.758
23.22
28.691
34.164
39.634
45.091
50.525
55.924
61.28
66.585
71.833
77.016
82.13
87.168
92.123
96.99
101.763
106.434
110.998
115.446
119.772
123.97
128.032
131.952
135.724
139.341
142.796
146.085
149.2
152.135
154.886
157.445
159.808
161.971
163.927
165.673
167.205
168.52
169.614
170.485
171.132
171.554
171.748
171.715
171.456
170.971
170.261
169.327
168.173
166.801
165.215
163.419
161.419
159.219
156.825
154.244
151.484
148.55
145.451
142.195
138.791
135.246
131.57
127.774
123.866
119.856
115.755
111.573
107.321
103.008
98.645
94.241
89.808
85.354
80.89
76.423
71.964
67.521
63.102
58.716
54.37
50.071
45.826
41.641
37.523
33.477
29.508
25.62
21.817
18.104
14.483
10.956
7.528
4.198
0.968
-2.161
-5.19
-8.118
-10.946
-13.676
-16.308
-18.846
-21.29
-23.643
-25.907
-28.085
-30.178
-32.19
-34.123
-35.978
-37.758
-39.464
-41.099
-42.664
-44.16
-45.589
-46.951
-48.247
-49.478
-50.644
-51.746
-52.783
-53.756
-54.664
-55.507
-56.285
-56.998
-57.643
-58.221
-58.73
-59.17
-59.538
-59.834
-60.057
-60.204
-60.276
-60.27
-60.187
-60.026
-59.786
-59.468
-59.072
-58.599
-58.051
-57.43
-56.737
-55.976
-55.15
-54.263
-53.318
-52.32
-51.274
-50.184
-49.057
-47.898
-46.712
-45.505
-44.283
-43.053
-41.82
-40.593
-39.376
-38.177
-37.003
-35.861
-34.758
-33.699
-32.694
-31.747
-30.866
-30.058
-29.327
-28.681
-28.125
-27.663
-27.301
-27.043
-26.892
-26.851
-26.924
-27.112
-27.417
-27.841
-28.383
-29.044
-29.824
-30.723
-31.74
-32.873
-34.12
-35.48
-36.95
-38.526
-40.207
-41.986
-43.862
-45.828
-47.88
-50.011
-52.217
-54.491
-56.826
-59.214
-61.649
-64.122
-66.625
-69.151
-71.69
-74.234
-76.775
-79.303
-81.811
-84.289
-86.728
-89.121
-91.458
-93.731
-95.93
-98.048
-100.076
-102.006
-103.829
-105.538
-107.124
-108.582
-109.903
-111.082
-112.111
-112.986
-113.7
-114.25
-114.63
-114.836
-114.866
-114.717
-114.388
-113.876
-113.183
-112.308
-111.252
-110.017
-108.606
-107.02
-105.265
-103.343
-101.26
-99.021
-96.633
-94.103
-91.439
-88.649
-85.742
-82.728
-79.618
-76.422
-73.152
-69.818
-66.434
-63.013
-59.566
-56.108
-52.653
-49.216
-45.815
-42.465
-39.185
-35.991
-32.9
-29.928
-27.092
-24.408
-21.889
-19.55
-17.405
-15.464
-13.742
-12.25
-11
-10.001
-9.257
-8.773
-8.552
-8.596
-8.904
-9.472
-10.294
-11.367
-12.693
-14.27
-16.093
-18.156
-20.445
-22.944
-25.632
-28.483
-31.458
-34.518
-37.619
-40.719
-43.782
-46.762
-49.619
-52.304
-54.763
-56.959
-58.85
-60.394
-61.557
-62.311
-62.659
-62.65
-62.342
-61.771
-61.017
-60.198
-59.493
-59.116
-59.178
-59.689
-60.682
-62.232
-64.35
-66.876
-69.388
-71.344
-72.397
-72.409
-71.27
-68.766
-64.743
-59.378
-53.337
-47.593
-43.012
-40.098
-39.249
-40.632
-43.662
-47.197
-49.432
-49.288
-47.409
-44.752
-41.415
-33.662
-14.155
24.607
88.11
175.165
279.333
392.617
505.576
612.519
708.984
788.062
844.332
869.594
856.52
804.705
715.878
598.21
465.132
329.24
204.651
102.324
27.353
-19.76
-43.443
-50.141
-46.88
-39.196
-31.685
-28.187
-29.337
-33.923
-38.449
-39.284
-35.778
-29.613
-24.552
-23.211
-25.666
-30.794
-36.65
-42.107
-47.148
-51.587
-54.95
-56.984
-57.592
-56.924
-55.434
-53.426
-51.052
-48.695
-46.906
-46.027
-46.202
-47.399
-49.402
-52.041
-55.18
-58.57
-61.892
-64.887
-67.402
-69.384
-70.854
-71.834
-72.33
-72.37
-72.009
-71.307
-70.313
-69.067
-67.592
-65.917
-64.092
-62.176
-60.225
-58.297
-56.425
-54.625
-52.909
-51.277
-49.721
-48.227
-46.776
-45.34
-43.895
-42.421
-40.897
-39.304
-37.618
-35.815
-33.87
-31.759
-29.461
-26.96
-24.241
-21.293
-18.106
-14.673
-10.99
-7.057
-2.873
1.562
6.245
11.172
16.338
21.733
27.346
33.162
39.166
45.337
51.654
58.092
64.625
71.223
77.857
84.496
91.105
97.652
104.102
110.418
116.567
122.512
128.218
133.651
138.777
143.563
147.978
151.993
155.58
158.713
161.37
163.529
165.172
166.283
166.85
166.862
166.313
165.199
163.518
161.274
158.472
155.121
151.234
146.826
141.915
136.524
130.675
124.395
117.714
110.663
103.273
95.58
87.62
79.431
71.051
62.518
53.874
45.156
36.405
27.661
18.962
10.346
1.851
-6.489
-14.637
-22.562
-30.232
-37.617
-44.69
-51.425
-57.801
-63.794
-69.389
-74.569
-79.321
-83.635
-87.503
-90.921
-93.886
-96.398
-98.46
-100.079
-101.261
-102.017
-102.359
-102.303
-101.864
-101.062
-99.915
-98.446
-96.677
-94.633
-92.337
-89.816
-87.096
-84.204
-81.166
-78.01
-74.762
-71.449
-68.097
-64.733
-61.38
-58.064
-54.807
-51.632
-48.558
-45.607
-42.794
-40.138
-37.652
-35.35
-33.243
-31.342
-29.653
-28.183
-26.936
-25.915
-25.121
-24.552
-24.206
-24.08
-24.166
-24.459
-24.95
-25.629
-26.485
-27.508
-28.682
-29.996
-31.435
-32.984
-34.627
-36.348
-38.131
-39.961
-41.82
-43.693
-45.565
-47.419
-49.24
-51.015
-52.73
-54.371
-55.926
-57.383
-58.733
-59.966
-61.073
-62.046
-62.88
-63.568
-64.108
-64.494
-64.727
-64.804
-64.725
-64.492
-64.107
-63.573
-62.893
-62.073
-61.119
-60.037
-58.834
-57.519
-56.1
-54.586
-52.987
-51.312
-49.572
-47.777
-45.937
-44.064
-42.166
-40.255
-38.342
-36.435
-34.545
-32.682
-30.855
-29.072
-27.343
-25.675
-24.076
-22.552
-21.111
-19.759
-18.501
-17.341
-16.286
-15.337
-14.499
-13.774
-13.163
-12.668
-12.29
-12.027
-11.879
-11.845
-11.923
-12.11
-12.403
-12.799
-13.293
-13.882
-14.56
-15.322
-16.162
-17.075
-18.053
-19.09
-20.179
-21.313
-22.485
-23.687
-24.913
-26.153
-27.4
-28.647
-29.885
-31.106
-32.301
-33.463
-34.583
-35.654
-36.669
-37.62
-38.501
-39.306
-40.029
-40.664
-41.206
-41.651
-41.995
-42.234
-42.365
-42.386
-42.298
-42.098
-41.787
-41.366
-40.836
-40.2
-39.46
-38.621
-37.686
-36.66
-35.55
-34.362
-33.106
-31.788
-30.419
-29.012
-27.577
-26.13
-24.684
-23.254
-21.855
-20.503
-19.215
-18.002
-16.878
-15.854
-14.941
-14.15
-13.492
-12.976
-12.609
-12.399
-12.353
-12.475
-12.767
-13.22
-13.825
-14.574
-15.46
-16.486
-17.653
-18.954
-20.386
-21.943
-23.615
-25.392
-27.248
-29.136
-31.009
-32.829
-34.562
-36.204
-37.74
-39.134
-40.346
-41.32
-41.997
-42.357
-42.351
-41.906
-41.016
-39.733
-38.187
-36.608
-35.164
-33.944
-33.067
-32.622
-32.582
-32.796
-32.933
-32.61
-31.632
-29.895
-27.269
-23.649
-19.02
-13.653
-8.179
-3.016
1.763
6.02
9.66
12.025
11.785
8.972
4.562
-0.175
-2.351
-0.889
3.045
8.761
13.093
13.785
12.757
12.976
21.569
47.54
96.429
171.035
268.442
381.012
499.695
614.827
718.825
804.998
867.241
900.24
898.064
856.954
776.94
662.273
523.186
375.118
234.184
114.599
26.225
-30.579
-60.407
-69.67
-68.154
-61.329
-53.295
-50.08
-52.291
-59.86
-71.186
-79.982
-83.932
-83.463
-80.222
-78.587
-80.24
-84.263
-89.529
-94.444
-98.39
-101.615
-103.925
-104.951
-104.557
-102.786
-99.876
-96.075
-91.52
-86.356
-80.955
-75.855
-71.388
-67.682
-64.752
-62.507
-60.876
-59.797
-59.101
-58.562
-58.061
-57.557
-57.074
-56.68
-56.402
-56.248
-56.248
-56.426
-56.78
-57.271
-57.811
-58.328
-58.795
-59.192
-59.517
-59.744
-59.817
-59.687
-59.322
-58.693
-57.783
-56.571
-55.028
-53.154
-50.973
-48.53
-45.9
-43.129
-40.238
-37.245
-34.16
-30.999
-27.794
-24.557
-21.284
-17.971
-14.615
-11.216
-7.779
-4.296
-0.739
2.921
6.723
10.69
14.83
19.152
23.656
28.342
33.205
38.234
43.401
48.686
54.066
59.522
65.033
70.574
76.113
81.618
87.056
92.396
97.609
102.667
107.541
112.203
116.629
120.797
124.688
128.282
131.556
134.492
137.07
139.275
141.091
142.505
143.506
144.083
144.232
143.948
143.232
142.085
140.51
138.515
136.108
133.301
130.107
126.543
122.624
118.371
113.803
108.945
103.817
98.445
92.853
87.067
81.112
75.015
68.801
62.496
56.125
49.713
43.286
36.867
30.48
24.146
17.889
11.727
5.68
-0.234
-6
-11.603
-17.03
-22.271
-27.315
-32.157
-36.789
-41.207
-45.41
-49.394
-53.162
-56.713
-60.052
-63.181
-66.105
-68.83
-71.363
-73.71
-75.879
-77.878
-79.715
-81.398
-82.937
-84.34
-85.616
-86.773
-87.82
-88.765
-89.616
-90.38
-91.064
-91.676
-92.219
-92.701
-93.125
-93.495
-93.813
-94.083
-94.305
-94.48
-94.608
-94.69
-94.722
-94.705
-94.636
-94.513
-94.333
-94.094
-93.793
-93.427
-92.994
-92.49
-91.913
-91.26
-90.53
-89.72
-88.829
-87.855
-86.797
-85.654
-84.427
-83.116
-81.721
-80.243
-78.684
-77.048
-75.335
-73.551
-71.7
-69.786
-67.815
-65.792
-63.725
-61.621
-59.486
-57.329
-55.156
-52.977
-50.798
-48.628
-46.475
-44.345
-42.248
-40.189
-38.176
-36.216
-34.314
-32.476
-30.707
-29.013
-27.398
-25.865
-24.418
-23.06
-21.792
-20.618
-19.538
-18.553
-17.663
-16.866
-16.163
-15.55
-15.025
-14.585
-14.227
-13.946
-13.738
-13.599
-13.523
-13.506
-13.543
-13.628
-13.757
-13.926
-14.128
-14.362
-14.623
-14.908
-15.214
-15.538
-15.879
-16.235
-16.604
-16.987
-17.382
-17.791
-18.214
-18.653
-19.108
-19.583
-20.08
-20.602
-21.153
-21.737
-22.356
-23.017
-23.724
-24.481
-25.295
-26.17
-27.111
-28.125
-29.215
-30.387
-31.645
-32.992
-34.43
-35.962
-37.588
-39.308
-41.123
-43.032
-45.031
-47.12
-49.294
-51.549
-53.879
-56.279
-58.739
-61.253
-63.811
-66.403
-69.018
-71.645
-74.273
-76.891
-79.484
-82.042
-84.549
-86.993
-89.357
-91.628
-93.79
-95.827
-97.724
-99.465
-101.037
-102.427
-103.622
-104.613
-105.392
-105.951
-106.285
-106.391
-106.264
-105.901
-105.3
-104.459
-103.375
-102.054
-100.498
-98.714
-96.714
-94.508
-92.113
-89.545
-86.822
-83.957
-80.961
-77.841
-74.612
-71.294
-67.913
-64.498
-61.086
-57.721
-54.448
-51.313
-48.353
-45.589
-43.032
-40.681
-38.535
-36.605
-34.904
-33.456
-32.279
-31.378
-30.749
-30.378
-30.22
-30.199
-30.229
-30.205
-30.05
-29.719
-29.189
-28.462
-27.544
-26.437
-25.139
-23.64
-21.935
-20.031
-17.951
-15.739
-13.496
-11.379
-9.574
-8.301
-7.755
-8.092
-9.448
-11.905
-15.535
-20.424
-26.612
-34.091
-42.768
-52.375
-62.596
-73.122
-83.508
-93.189
-101.656
-108.439
-113.388
-116.904
-119.471
-121.545
-123.779
-126.811
-131.116
-137.139
-144.182
-149.961
-152.154
-148.333
-137.239
-119.652
-95.662
-64.287
-22.826
33.064
106.759
199.181
307.727
427.428
550.941
669.313
773.615
853.104
897.875
900.735
856.995
768.335
642.169
490.649
331.522
182.583
58.485
-31.046
-86.538
-113.939
-120.586
-116.329
-106.225
-93.888
-85.3
-81.516
-83.003
-88.435
-91.341
-89.01
-81.716
-71.268
-62.382
-57.207
-55.091
-54.833
-54.734
-54.218
-53.503
-52.451
-50.811
-48.199
-44.451
-39.806
-34.389
-28.182
-21.276
-13.864
-6.33
0.83
7.464
13.665
19.497
25.024
30.206
34.981
39.56
44.258
49.219
54.602
60.467
66.807
73.984
82.344
91.831
102.286
113.264
123.918
133.685
142.127
148.365
151.712
151.885
148.682
142.654
135.062
126.748
118.4
110.985
105.168
101.453
100.403
101.772
104.654
108.513
112.947
117.501
122
126.183
129.614
132.352
134.823
137.256
139.813
142.577
145.445
148.429
151.672
155.14
158.686
162.225
165.688
169.074
172.468
175.906
179.379
182.913
186.562
190.361
194.341
198.526
202.917
207.54
212.454
217.677
223.194
228.973
234.956
241.076
247.268
253.44
259.477
265.279
270.749
275.811
280.417
284.491
287.943
290.664
292.517
293.407
293.284
292.113
289.882
286.608
282.321
277.096
271.056
264.302
256.915
248.965
240.492
231.563
222.268
212.702
202.98
193.198
183.419
173.707
164.119
154.683
145.416
136.299
127.271
118.299
109.369
100.479
91.65
82.888
74.191
65.561
56.997
48.503
40.09
31.761
23.519
15.376
7.354
-0.512
-8.17
-15.582
-22.727
-29.59
-36.164
-42.447
-48.433
-54.129
-59.545
-64.692
-69.579
-74.214
-78.601
-82.748
-86.67
-90.382
-93.903
-97.25
-100.437
-103.476
-106.379
-109.159
-111.824
-114.38
-116.83
-119.18
-121.433
-123.595
-125.672
-127.667
-129.584
-131.425
-133.193
-134.889
-136.514
-138.067
-139.544
-140.944
-142.262
-143.496
-144.641
-145.693
-146.646
-147.498
-148.242
-148.875
-149.393
-149.791
-150.066
-150.214
-150.234
-150.122
-149.878
-149.5
-148.989
-148.346
-147.574
-146.673
-145.648
-144.503
-143.242
-141.871
-140.395
-138.822
-137.158
-135.412
-133.591
-131.705
-129.764
-127.776
-125.754
-123.706
-121.643
-119.575
-117.514
-115.468
-113.448
-111.463
-109.521
-107.631
-105.802
-104.04
-102.352
-100.744
-99.221
-97.788
-96.447
-95.202
-94.055
-93.006
-92.056
-91.205
-90.45
-89.789
-89.22
-88.739
-88.341
-88.022
-87.775
-87.595
-87.474
-87.408
-87.387
-87.406
-87.457
-87.533
-87.626
-87.73
-87.839
-87.945
-88.043
-88.127
-88.192
-88.234
-88.249
-88.232
-88.182
-88.096
-87.972
-87.809
-87.606
-87.363
-87.082
-86.762
-86.407
-86.017
-85.596
-85.148
-84.675
-84.182
-83.673
-83.153
-82.624
-82.093
-81.563
-81.038
-80.524
-80.022
-79.538
-79.075
-78.635
-78.221
-77.833
-77.475
-77.146
-76.845
-76.573
-76.328
-76.108
-75.911
-75.734
-75.574
-75.426
-75.289
-75.155
-75.022
-74.883
-74.733
-74.567
-74.379
-74.162
-73.913
-73.625
-73.293
-72.913
-72.481
-71.993
-71.446
-70.837
-70.165
-69.428
-68.626
-67.76
-66.832
-65.844
-64.801
-63.706
-62.567
-61.393
-60.194
-58.981
-57.764
-56.557
-55.374
-54.228
-53.133
-52.102
-51.146
-50.28
-49.516
-48.868
-48.352
-47.98
-47.764
-47.718
-47.849
-48.17
-48.685
-49.396
-50.305
-51.411
-52.718
-54.237
-55.975
-57.937
-60.122
-62.528
-65.144
-67.957
-70.94
-74.056
-77.263
-80.52
-83.788
-87.038
-90.236
-93.343
-96.308
-99.071
-101.575
-103.772
-105.618
-107.078
-108.15
-108.855
-109.244
-109.399
-109.383
-109.27
-109.144
-109.072
-109.111
-109.303
-109.687
-110.36
-111.508
-113.246
-115.584
-118.475
-121.794
-125.345
-128.848
-131.812
-133.537
-133.927
-133.587
-132.966
-132.231
-130.1
-124.256
-114.296
-102.14
-91.879
-88.198
-92.349
-102.171
-113.34
-120.764
-121.11
-110.886
-86.127
-43.499
20.12
103.367
201.216
307.945
415.832
519.634
614.869
694.006
750.682
776.652
764.465
713.387
625.073
507.08
372.537
234.413
107.338
3.039
-73.058
-120.755
-145.109
-153.375
-152.833
-148.46
-143.689
-141.126
-140.776
-141.84
-142.131
-139.01
-132.126
-122.861
-114.031
-107.822
-104.607
-103.517
-102.92
-102.088
-101.256
-100.588
-100.118
-99.605
-98.502
-96.686
-94.397
-91.683
-88.544
-85.069
-81.363
-77.737
-74.654
-72.296
-70.628
-69.592
-69.037
-68.81
-68.785
-68.721
-68.337
-67.483
-66.093
-64.166
-61.77
-58.947
-55.73
-52.184
-48.383
-44.392
-40.267
-36.049
-31.774
-27.491
-23.256
-19.127
-15.144
-11.33
-7.696
-4.241
-0.956
2.17
5.155
8.026
10.803
13.505
16.152
18.762
21.355
23.955
26.586
29.272
32.036
34.899
37.878
40.988
44.241
47.648
51.217
54.954
58.865
62.955
67.227
71.685
76.329
81.156
86.163
91.342
96.684
102.177
107.807
113.555
119.403
125.33
131.313
137.328
143.35
149.351
155.303
161.177
166.944
172.572
178.032
183.293
188.324
193.095
197.577
201.741
205.561
209.01
212.064
214.703
216.905
218.653
219.931
220.727
221.029
220.83
220.124
218.908
217.183
214.953
212.222
209
205.298
201.13
196.511
191.46
185.997
180.143
173.922
167.359
160.481
153.315
145.889
138.235
130.381
122.359
114.2
105.935
97.594
89.208
80.806
72.417
64.067
55.785
47.595
39.521
31.585
23.809
16.211
8.808
1.617
-5.351
-12.082
-18.568
-24.8
-30.771
-36.476
-41.912
-47.078
-51.971
-56.593
-60.946
-65.033
-68.857
-72.424
-75.741
-78.815
-81.653
-84.264
-86.657
-88.841
-90.827
-92.622
-94.238
-95.683
-96.967
-98.1
-99.09
-99.946
-100.675
-101.286
-101.784
-102.176
-102.468
-102.664
-102.768
-102.786
-102.719
-102.572
-102.347
-102.046
-101.673
-101.229
-100.717
-100.137
-99.491
-98.781
-98.007
-97.17
-96.272
-95.312
-94.293
-93.214
-92.077
-90.883
-89.633
-88.328
-86.971
-85.563
-84.107
-82.604
-81.059
-79.475
-77.855
-76.205
-74.529
-72.832
-71.119
-69.398
-67.673
-65.95
-64.236
-62.537
-60.859
-59.209
-57.592
-56.014
-54.482
-53.002
-51.58
-50.221
-48.931
-47.715
-46.58
-45.528
-44.567
-43.698
-42.928
-42.259
-41.695
-41.238
-40.892
-40.657
-40.536
-40.528
-40.634
-40.853
-41.183
-41.622
-42.168
-42.817
-43.565
-44.408
-45.342
-46.36
-47.457
-48.627
-49.863
-51.157
-52.503
-53.892
-55.316
-56.767
-58.236
-59.714
-61.191
-62.659
-64.108
-65.527
-66.909
-68.241
-69.516
-70.723
-71.852
-72.896
-73.845
-74.69
-75.425
-76.041
-76.532
-76.891
-77.113
-77.192
-77.124
-76.905
-76.532
-76
-75.309
-74.456
-73.441
-72.263
-70.921
-69.418
-67.753
-65.929
-63.948
-61.811
-59.524
-57.089
-54.511
-51.795
-48.947
-45.973
-42.879
-39.673
-36.361
-32.951
-29.45
-25.867
-22.209
-18.484
-14.7
-10.867
-6.992
-3.085
0.846
4.791
8.742
12.689
16.623
20.534
24.413
28.249
32.032
35.75
39.394
42.95
46.406
49.748
52.962
56.035
58.953
61.703
64.272
66.645
68.81
70.756
72.47
73.94
75.151
76.091
76.747
77.109
77.167
76.914
76.345
75.455
74.244
72.714
70.866
68.705
66.237
63.46
60.382
57.019
53.387
49.509
45.412
41.124
36.684
32.137
27.526
22.895
18.281
13.721
9.253
4.917
0.75
-3.205
-6.91
-10.334
-13.444
-16.209
-18.619
-20.678
-22.389
-23.781
-24.913
-25.865
-26.764
-27.787
-29.065
-30.696
-32.807
-35.475
-38.647
-42.187
-45.747
-48.788
-50.858
-51.507
-50.232
-46.712
-40.836
-32.658
-22.696
-11.783
-0.656
9.754
18.37
24.421
27.354
26.838
23.736
19.675
16.024
14.853
17.217
22.836
32.94
49.021
74.392
114.325
171.695
247.614
339.396
441.44
549.064
656.245
758.431
850.583
923.749
970.926
984.951
960.576
899.785
805.885
685.269
548.639
406.75
272.411
157.981
71.257
13.888
-17.186
-27.202
-23.871
-12.31
2.305
12.278
15.163
9.962
-1.659
-12.684
-20.342
-24.562
-26.399
-30.055
-37.093
-46.34
-56.372
-64.841
-70.127
-72.106
-70.983
-67.137
-61.136
-53.559
-44.981
-36.066
-27.589
-19.998
-13.495
-8.245
-4.192
-1.196
0.845
2.152
2.991
3.474
3.64
3.526
3.13
2.514
1.757
0.873
-0.132
-1.228
-2.364
-3.445
-4.402
-5.225
-5.932
-6.54
-7.052
-7.431
-7.632
-7.642
-7.468
-7.136
-6.665
-6.05
-5.3
-4.442
-3.532
-2.643
-1.816
-1.056
-0.353
0.304
0.918
1.477
1.973
2.421
2.841
3.25
3.667
4.098
4.558
5.085
5.731
6.554
7.599
8.885
10.414
12.189
14.218
16.504
19.044
21.816
24.793
27.965
31.335
34.908
38.686
42.644
46.739
50.93
55.178
59.457
63.761
68.069
72.347
76.575
80.746
84.86
88.931
92.924
96.763
100.374
103.695
106.696
109.369
111.692
113.641
115.188
116.299
116.966
117.188
116.922
116.117
114.711
112.644
109.927
106.632
102.816
98.526
93.775
88.564
82.926
76.899
70.505
63.758
56.649
49.196
41.485
33.619
25.703
17.834
10.04
2.312
-5.337
-12.881
-20.278
-27.485
-34.492
-41.279
-47.797
-53.977
-59.734
-65.031
-69.913
-74.428
-78.619
-82.517
-86.112
-89.393
-92.373
-95.064
-97.474
-99.61
-101.458
-103.029
-104.365
-105.523
-106.57
-107.533
-108.387
-109.114
-109.708
-110.17
-110.518
-110.764
-110.897
-110.927
-110.877
-110.773
-110.646
-110.511
-110.362
-110.194
-109.999
-109.783
-109.574
-109.393
-109.252
-109.16
-109.126
-109.159
-109.278
-109.486
-109.773
-110.132
-110.552
-111.026
-111.554
-112.132
-112.752
-113.405
-114.078
-114.759
-115.439
-116.104
-116.741
-117.334
-117.869
-118.333
-118.715
-119.008
-119.2
-119.282
-119.243
-119.075
-118.772
-118.325
-117.727
-116.973
-116.058
-114.976
-113.728
-112.312
-110.726
-108.972
-107.052
-104.97
-102.73
-100.337
-97.798
-95.121
-92.313
-89.384
-86.345
-83.207
-79.981
-76.68
-73.317
-69.905
-66.46
-62.995
-59.525
-56.065
-52.63
-49.234
-45.893
-42.62
-39.43
-36.336
-33.353
-30.492
-27.768
-25.192
-22.774
-20.525
-18.454
-16.571
-14.882
-13.394
-12.113
-11.044
-10.189
-9.551
-9.131
-8.93
-8.947
-9.178
-9.621
-10.271
-11.123
-12.17
-13.404
-14.817
-16.399
-18.139
-20.027
-22.05
-24.196
-26.451
-28.802
-31.235
-33.735
-36.288
-38.877
-41.489
-44.106
-46.715
-49.299
-51.842
-54.331
-56.749
-59.082
-61.317
-63.44
-65.439
-67.3
-69.014
-70.569
-71.955
-73.165
-74.189
-75.021
-75.656
-76.087
-76.31
-76.324
-76.125
-75.714
-75.09
-74.254
-73.208
-71.955
-70.499
-68.843
-66.994
-64.958
-62.743
-60.357
-57.809
-55.111
-52.272
-49.305
-46.221
-43.035
-39.76
-36.408
-32.994
-29.534
-26.043
-22.536
-19.029
-15.539
-12.082
-8.677
-5.342
-2.097
1.04
4.049
6.91
9.602
12.107
14.406
16.484
18.325
19.919
21.251
22.31
23.086
23.569
23.754
23.637
23.217
22.496
21.483
20.191
18.632
16.82
14.758
12.452
9.908
7.131
4.126
0.902
-2.528
-6.135
-9.883
-13.734
-17.654
-21.625
-25.629
-29.642
-33.632
-37.557
-41.361
-45.001
-48.416
-51.509
-54.223
-56.554
-58.567
-60.434
-62.334
-64.373
-66.674
-69.398
-72.592
-76.162
-79.816
-83.028
-85.327
-86.461
-86.223
-84.357
-80.738
-75.516
-69.168
-62.558
-56.563
-51.717
-48.479
-47.464
-49.215
-54.086
-62.182
-73.025
-85.913
-99.831
-113.004
-123.589
-129.601
-130.381
-126.883
-118.959
-105.496
-82.185
-42.157
18.582
101.13
201.495
311.952
426.454
539.313
646.865
745.141
825.854
881.097
902.189
882.71
823.665
728.132
603.914
463.946
320.919
189.655
83.418
8.534
-34.521
-50.296
-47.403
-34.984
-19.451
-7.436
-4.739
-12.043
-29.07
-51.801
-71.391
-83.735
-86.767
-80.766
-72.097
-64.293
-58.836
-57.069
-56.447
-55.774
-55.659
-55.857
-57.287
-60.327
-64.004
-67.927
-71.817
-75.241
-78.137
-80.481
-82.177
-83.477
-84.898
-86.706
-88.982
-91.708
-94.695
-97.775
-100.837
-103.686
-106.06
-107.805
-108.851
-109.2
-108.935
-108.128
-106.822
-105.077
-102.958
-100.523
-97.821
-94.904
-91.809
-88.582
-85.277
-81.933
-78.573
-75.213
-71.854
-68.486
-65.097
-61.668
-58.176
-54.604
-50.941
-47.174
-43.295
-39.292
-35.151
-30.86
-26.406
-21.778
-16.969
-11.971
-6.783
-1.405
4.159
9.902
15.816
21.891
28.119
34.488
40.985
47.597
54.306
61.095
67.943
74.828
81.724
88.605
95.441
102.203
108.86
115.38
121.731
127.88
133.794
139.441
144.788
149.804
154.459
158.722
162.567
165.966
168.895
171.332
173.256
174.651
175.503
175.798
175.53
174.691
173.281
171.3
168.752
165.644
161.986
157.792
153.078
147.864
142.172
136.028
129.46
122.497
115.173
107.521
99.579
91.383
82.972
74.385
65.662
56.843
47.969
39.079
30.213
21.41
12.707
4.141
-4.254
-12.444
-20.398
-28.088
-35.487
-42.57
-49.316
-55.707
-61.724
-67.355
-72.588
-77.414
-81.828
-85.826
-89.409
-92.577
-95.336
-97.691
-99.653
-101.232
-102.441
-103.294
-103.809
-104.002
-103.892
-103.499
-102.844
-101.949
-100.835
-99.525
-98.041
-96.406
-94.642
-92.77
-90.812
-88.788
-86.718
-84.62
-82.513
-80.413
-78.335
-76.294
-74.302
-72.373
-70.516
-68.74
-67.053
-65.463
-63.973
-62.59
-61.315
-60.151
-59.099
-58.16
-57.331
-56.612
-56
-55.493
-55.086
-54.776
-54.558
-54.427
-54.377
-54.404
-54.502
-54.666
-54.889
-55.167
-55.494
-55.864
-56.274
-56.719
-57.193
-57.693
-58.215
-58.754
-59.308
-59.874
-60.448
-61.028
-61.611
-62.195
-62.778
-63.358
-63.933
-64.501
-65.059
-65.606
-66.141
-66.66
-67.163
-67.647
-68.111
-68.551
-68.966
-69.354
-69.711
-70.035
-70.325
-70.575
-70.785
-70.95
-71.069
-71.137
-71.152
-71.111
-71.01
-70.849
-70.623
-70.33
-69.969
-69.538
-69.034
-68.458
-67.807
-67.083
-66.284
-65.413
-64.469
-63.455
-62.373
-61.226
-60.017
-58.751
-57.431
-56.063
-54.652
-53.204
-51.725
-50.223
-48.705
-47.179
-45.652
-44.132
-42.628
-41.149
-39.701
-38.293
-36.935
-35.632
-34.393
-33.225
-32.134
-31.128
-30.212
-29.391
-28.67
-28.053
-27.542
-27.14
-26.848
-26.666
-26.594
-26.629
-26.77
-27.011
-27.351
-27.782
-28.299
-28.895
-29.561
-30.289
-31.069
-31.892
-32.745
-33.619
-34.501
-35.381
-36.247
-37.088
-37.893
-38.649
-39.346
-39.974
-40.522
-40.98
-41.339
-41.592
-41.731
-41.751
-41.647
-41.417
-41.06
-40.577
-39.97
-39.245
-38.408
-37.467
-36.433
-35.317
-34.133
-32.891
-31.604
-30.286
-28.949
-27.608
-26.278
-24.971
-23.703
-22.489
-21.343
-20.28
-19.31
-18.437
-17.665
-16.997
-16.443
-16.017
-15.736
-15.612
-15.655
-15.879
-16.29
-16.892
-17.675
-18.603
-19.644
-20.762
-21.936
-23.162
-24.428
-25.706
-26.959
-28.128
-29.15
-29.991
-30.59
-30.866
-30.811
-30.468
-29.952
-29.511
-29.331
-29.537
-30.312
-31.78
-33.876
-36.451
-39.196
-41.648
-43.566
-44.793
-44.991
-43.986
-41.933
-39.155
-36.139
-33.509
-31.564
-30.428
-31.197
-34.793
-40.782
-49.056
-58.037
-65.741
-73.563
-81.557
-89.051
-96.007
-97.968
-92.045
-78.319
-55.575
-25.283
12.961
64.161
132.356
221.568
332.85
460.117
593.2
719.445
825.16
899.982
938.94
939.581
902.453
830.734
726.364
595.482
449.538
301.839
169.409
66.186
-2.42
-37.323
-45.717
-38.198
-23.654
-8.598
1.3
3.357
-2.032
-13.052
-24.484
-31.042
-31.148
-25.427
-17.207
-10.472
-6.544
-5.172
-5.401
-6.184
-7.586
-9.94
-13.11
-16.727
-20.13
-22.857
-24.842
-26
-26.251
-25.666
-24.434
-22.955
-21.77
-21.157
-21.157
-21.732
-22.743
-24.028
-25.422
-26.684
-27.54
-27.84
-27.537
-26.641
-25.227
-23.357
-21.082
-18.474
-15.612
-12.564
-9.383
-6.12
-2.821
0.458
3.649
6.701
9.579
12.262
14.74
17.012
19.086
20.973
22.695
24.27
25.713
27.037
28.256
29.391
30.462
31.495
32.513
33.541
34.603
35.72
36.912
38.197
39.588
41.099
42.742
44.526
46.466
48.57
50.85
53.313
55.964
58.808
61.845
65.075
68.493
72.091
75.86
79.786
83.858
88.057
92.366
96.765
101.231
105.742
110.272
114.796
119.286
123.715
128.054
132.276
136.35
140.25
143.947
147.415
150.627
153.559
156.186
158.488
160.444
162.034
163.243
164.056
164.461
164.449
164.01
163.142
161.842
160.111
157.952
155.371
152.377
148.98
145.194
141.033
136.516
131.662
126.49
121.024
115.287
109.305
103.103
96.708
90.148
83.45
76.643
69.754
62.811
55.842
48.874
41.933
35.046
28.236
21.528
14.944
8.507
2.235
-3.853
-9.74
-15.41
-20.851
-26.05
-30.997
-35.684
-40.105
-44.254
-48.128
-51.725
-55.044
-58.088
-60.858
-63.357
-65.592
-67.568
-69.292
-70.771
-72.015
-73.033
-73.834
-74.429
-74.828
-75.043
-75.085
-74.965
-74.695
-74.286
-73.749
-73.097
-72.338
-71.485
-70.547
-69.533
-68.452
-67.314
-66.126
-64.895
-63.629
-62.334
-61.016
-59.68
-58.33
-56.972
-55.608
-54.243
-52.878
-51.516
-50.16
-48.811
-47.47
-46.139
-44.818
-43.508
-42.21
-40.924
-39.651
-38.39
-37.141
-35.905
-34.683
-33.474
-32.28
-31.1
-29.936
-28.79
-27.662
-26.553
-25.467
-24.405
-23.369
-22.361
-21.385
-20.443
-19.537
-18.672
-17.851
-17.076
-16.351
-15.68
-15.067
-14.514
-14.025
-13.604
-13.254
-12.979
-12.783
-12.667
-12.636
-12.691
-12.836
-13.073
-13.403
-13.828
-14.349
-14.966
-15.68
-16.49
-17.394
-18.393
-19.482
-20.661
-21.926
-23.273
-24.698
-26.198
-27.766
-29.399
-31.09
-32.834
-34.625
-36.456
-38.321
-40.213
-42.125
-44.049
-45.978
-47.904
-49.821
-51.719
-53.592
-55.432
-57.232
-58.984
-60.68
-62.314
-63.88
-65.37
-66.779
-68.1
-69.33
-70.463
-71.496
-72.424
-73.247
-73.96
-74.562
-75.052
-75.428
-75.69
-75.837
-75.869
-75.786
-75.588
-75.276
-74.852
-74.318
-73.674
-72.924
-72.07
-71.115
-70.062
-68.913
-67.673
-66.345
-64.933
-63.442
-61.879
-60.247
-58.553
-56.802
-55.001
-53.155
-51.271
-49.353
-47.408
-45.442
-43.461
-41.472
-39.484
-37.503
-35.541
-33.608
-31.715
-29.874
-28.097
-26.398
-24.791
-23.289
-21.906
-20.655
-19.546
-18.593
-17.807
-17.201
-16.784
-16.565
-16.549
-16.745
-17.159
-17.798
-18.661
-19.744
-21.041
-22.546
-24.259
-26.188
-28.334
-30.698
-33.273
-36.057
-39.045
-42.229
-45.586
-49.075
-52.643
-56.245
-59.841
-63.409
-66.934
-70.386
-73.715
-76.865
-79.773
-82.388
-84.686
-86.613
-88.107
-89.176
-89.889
-90.424
-91.054
-92.003
-93.42
-95.477
-98.278
-101.795
-105.939
-110.389
-114.627
-118.223
-120.752
-121.802
-121.213
-119.01
-115.347
-110.764
-105.997
-101.76
-98.984
-98.524
-100.937
-106.601
-115.486
-127.071
-140.179
-152.851
-162.811
-167.651
-166.175
-158.478
-144.107
-122.208
-89.486
-41.031
26.02
112.887
216.217
329.772
448.088
564.024
672.608
768.873
844.352
893.159
908.161
883.034
818.454
715.86
582.099
431.194
277.051
136.586
25.288
-50.3
-89.234
-96.905
-85.569
-66.265
-47.974
-38.699
-39.162
-46.554
-56.866
-62.944
-62.215
-56.158
-47.556
-41.561
-40.301
-42.888
-48.057
-53.737
-58.958
-63.812
-67.904
-70.816
-72.446
-72.78
-72.079
-70.753
-69.027
-67.122
-65.515
-64.736
-65.072
-66.587
-69.153
-72.539
-76.579
-81.106
-85.85
-90.476
-94.715
-98.422
-101.549
-104.12
-106.151
-107.642
-108.611
-109.113
-109.209
-108.953
-108.388
-107.54
-106.439
-105.139
-103.695
-102.165
-100.605
-99.045
-97.498
-95.971
-94.462
-92.962
-91.458
-89.93
-88.351
-86.697
-84.946
-83.08
-81.082
-78.93
-76.601
-74.072
-71.322
-68.334
-65.097
-61.599
-57.833
-53.793
-49.477
-44.885
-40.02
-34.887
-29.49
-23.833
-17.927
-11.779
-5.404
1.183
7.965
14.923
22.033
29.271
36.609
44.018
51.467
58.926
66.359
73.732
81.011
88.159
95.139
101.915
108.45
114.709
120.657
126.259
131.482
136.296
140.672
144.582
148.001
150.907
153.281
155.103
156.361
157.043
157.14
156.646
155.56
153.882
151.616
148.77
145.354
141.381
136.869
131.837
126.307
120.304
113.855
106.991
99.743
92.144
84.229
76.035
67.6
58.963
50.161
41.234
32.223
23.165
14.1
5.066
-3.9
-12.763
-21.487
-30.039
-38.387
-46.502
-54.355
-61.921
-69.175
-76.097
-82.668
-88.869
-94.687
-100.11
-105.128
-109.733
-113.922
-117.691
-121.04
-123.972
-126.492
-128.605
-130.321
-131.65
-132.604
-133.198
-133.447
-133.367
-132.977
-132.295
-131.342
-130.138
-128.704
-127.062
-125.233
-123.239
-121.103
-118.846
-116.489
-114.053
-111.558
-109.025
-106.473
-103.919
-101.381
-98.876
-96.419
-94.026
-91.709
-89.482
-87.354
-85.338
-83.44
-81.67
-80.033
-78.536
-77.181
-75.973
-74.913
-74.002
-73.241
-72.628
-72.162
-71.84
-71.658
-71.612
-71.697
-71.908
-72.238
-72.681
-73.229
-73.876
-74.613
-75.433
-76.329
-77.292
-78.315
-79.389
-80.508
-81.662
-82.844
-84.048
-85.265
-86.49
-87.714
-88.933
-90.141
-91.331
-92.499
-93.64
-94.749
-95.822
-96.855
-97.844
-98.785
-99.676
-100.513
-101.295
-102.021
-102.689
-103.299
-103.852
-104.349
-104.789
-105.175
-105.509
-105.791
-106.023
-106.207
-106.345
-106.44
-106.495
-106.511
-106.493
-106.443
-106.364
-106.261
-106.136
-105.994
-105.836
-105.669
-105.497
-105.325
-105.158
-105.002
-104.865
-104.754
-104.677
-104.644
-104.659
-104.73
-104.864
-105.065
-105.338
-105.685
-106.109
-106.61
-107.195
-107.867
-108.632
-109.496
-110.464
-111.542
-112.738
-114.057
-115.502
-117.075
-118.771
-120.588
-122.528
-124.591
-126.78
-129.095
-131.523
-134.054
-136.677
-139.371
-142.11
-144.86
-147.568
-150.198
-152.722
-155.122
-157.39
-159.517
-161.491
-163.303
-164.945
-166.411
-167.7
-168.807
-169.714
-170.424
-170.947
-171.314
-171.58
-171.777
-171.908
-171.965
-171.917
-171.73
-171.373
-170.797
-169.941
-168.751
-167.17
-165.157
-162.686
-159.716
-156.192
-152.04
-147.154
-141.457
-134.9
-127.446
-119.079
-109.79
-99.566
-88.425
-76.409
-63.562
-49.942
-35.598
-20.572
-4.932
11.242
27.837
44.704
61.7
78.689
95.527
112.079
128.194
143.698
158.444
172.301
185.155
196.925
207.532
216.902
224.995
231.79
237.306
241.619
244.812
246.974
248.223
248.678
248.49
247.856
246.956
245.962
245.042
244.315
243.892
243.868
244.292
245.17
246.491
248.186
250.121
252.175
254.183
255.973
257.446
258.488
258.922
258.559
257.306
255.115
252.079
248.422
244.241
239.664
234.993
230.639
227.016
224.477
223.09
222.599
222.799
223.39
223.88
223.733
222.263
219.341
215.833
212.973
212.426
214.954
219.715
226.807
237.112
253.514
282.154
327.46
391.922
475.547
573.41
680.621
791.506
898.756
995.84
1073.228
1121.123
1131.595
1097.96
1020.053
902.921
756.801
599.21
447.949
319.279
225.322
166.63
138.034
131.611
135.92
145.236
155.623
161.345
161.913
156.812
147.171
139.189
135.262
135.2
137.334
137.115
132.83
125.347
115.902
106.445
97.745
89.738
82.816
77.096
72.466
68.799
65.69
62.798
60.012
57.064
53.469
48.93
43.354
36.788
29.478
21.657
13.48
5.204
-2.824
-10.365
-17.271
-23.472
-29.004
-33.883
-38.105
-41.705
-44.738
-47.252
-49.297
-50.906
-52.098
-52.914
-53.416
-53.667
-53.739
-53.682
-53.52
-53.274
-52.953
-52.558
-52.085
-51.523
-50.851
-50.056
-49.13
-48.064
-46.855
-45.492
-43.964
-42.26
-40.368
-38.278
-35.988
-33.496
-30.801
-27.908
-24.822
-21.552
-18.109
-14.504
-10.746
-6.848
-2.819
1.327
5.576
9.912
14.319
18.779
23.272
27.776
32.27
36.729
41.132
45.454
49.671
53.759
57.694
61.452
65.009
68.343
71.432
74.254
76.79
79.019
80.924
82.49
83.701
84.545
85.01
85.089
84.774
84.061
82.946
81.428
79.51
77.193
74.484
71.39
67.919
64.084
59.898
55.375
50.533
45.39
39.965
34.281
28.359
22.222
15.895
9.4
2.764
-3.989
-10.833
-17.744
-24.695
-31.663
-38.623
-45.551
-52.424
-59.221
-65.92
-72.501
-78.944
-85.233
-91.35
-97.279
-103.007
-108.52
-113.808
-118.858
-123.663
-128.216
-132.509
-136.537
-140.299
-143.79
-147.009
-149.957
-152.635
-155.044
-157.187
-159.069
-160.694
-162.066
-163.193
-164.08
-164.735
-165.165
-165.377
-165.379
-165.181
-164.79
-164.214
-163.463
-162.544
-161.467
-160.24
-158.873
-157.372
-155.748
-154.007
-152.158
-150.21
-148.169
-146.044
-143.842
-141.569
-139.233
-136.84
-134.397
-131.91
-129.384
-126.827
-124.242
-121.636
-119.014
-116.38
-113.741
-111.099
-108.461
-105.831
-103.214
-100.613
-98.033
-95.479
-92.955
-90.464
-88.01
-85.597
-83.229
-80.909
-78.64
-76.425
-74.268
-72.171
-70.136
-68.166
-66.263
-64.43
-62.667
-60.977
-59.362
-57.821
-56.357
-54.971
-53.662
-52.432
-51.28
-50.207
-49.212
-48.294
-47.453
-46.688
-45.996
-45.377
-44.827
-44.346
-43.931
-43.579
-43.287
-43.053
-42.872
-42.742
-42.66
-42.621
-42.621
-42.658
-42.727
-42.824
-42.945
-43.087
-43.245
-43.415
-43.595
-43.779
-43.964
-44.147
-44.325
-44.494
-44.651
-44.794
-44.919
-45.026
-45.11
-45.171
-45.206
-45.216
-45.198
-45.152
-45.077
-44.974
-44.843
-44.685
-44.501
-44.292
-44.06
-43.806
-43.535
-43.247
-42.947
-42.637
-42.321
-42.003
-41.687
-41.376
-41.075
-40.787
-40.517
-40.267
-40.043
-39.848
-39.684
-39.556
-39.466
-39.419
-39.416
-39.46
-39.555
-39.701
-39.901
-40.156
-40.467
-40.834
-41.258
-41.737
-42.271
-42.859
-43.498
-44.186
-44.92
-45.696
-46.511
-47.359
-48.237
-49.138
-50.056
-50.987
-51.924
-52.861
-53.794
-54.716
-55.621
-56.504
-57.359
-58.181
-58.966
-59.708
-60.403
-61.048
-61.639
-62.174
-62.65
-63.065
-63.419
-63.714
-63.952
-64.139
-64.278
-64.377
-64.442
-64.483
-64.507
-64.522
-64.534
-64.546
-64.565
-64.599
-64.656
-64.743
-64.865
-65.027
-65.23
-65.478
-65.77
-66.099
-66.456
-66.833
-67.228
-67.649
-68.105
-68.604
-69.149
-69.746
-70.395
-71.09
-71.821
-72.566
-73.303
-74.024
-74.72
-75.383
-76.007
-76.564
-77.019
-77.338
-77.457
-77.3
-76.837
-76.067
-75.06
-73.982
-72.969
-72.12
-71.557
-71.419
-71.748
-72.454
-73.235
-73.589
-73.143
-71.745
-69.318
-65.732
-60.891
-54.951
-48.419
-42.144
-36.846
-32.835
-30.231
-29.345
-30.664
-34.421
-40.551
-48.567
-57.844
-68.202
-79.173
-89.288
-96.632
-99.137
-95.829
-87.515
-75.051
-58.437
-35.105
-0.384
50.381
120.957
210.875
316.162
429.974
542.538
645.096
729.182
787.579
815.121
806.564
758.817
671.733
549.682
404.117
252.225
112.975
2.076
-72.527
-113.803
-130.575
-131.924
-126.284
-116.368
-103.478
-92.034
-83.704
-80.103
-81.14
-81.802
-79.91
-75.735
-70.531
-67.803
-68.783
-72.519
-77.824
-83.011
-87.208
-90.094
-91.246
-90.647
-88.447
-84.853
-80.232
-74.847
-68.927
-62.932
-57.391
-52.627
-48.785
-45.841
-43.656
-42.132
-41.16
-40.521
-39.934
-39.206
-38.263
-37.154
-36.007
-34.903
-33.892
-33.026
-32.34
-31.863
-31.586
-31.44
-31.361
-31.313
-31.286
-31.303
-31.395
-31.567
-31.799
-32.048
-32.239
-32.315
-32.226
-31.922
-31.381
-30.589
-29.559
-28.347
-27
-25.541
-23.984
-22.322
-20.536
-18.624
-16.581
-14.4
-12.094
-9.67
-7.133
-4.495
-1.757
1.093
4.07
7.212
10.551
14.104
17.883
21.888
26.111
30.545
35.177
39.983
44.942
50.035
55.24
60.541
65.916
71.336
76.775
82.198
87.571
92.864
98.045
103.086
107.958
112.636
117.096
121.318
125.284
128.974
132.37
135.454
138.209
140.621
142.679
144.371
145.688
146.626
147.182
147.354
147.146
146.561
145.605
144.286
142.616
140.606
138.271
135.625
132.685
129.47
125.998
122.291
118.368
114.25
109.96
105.518
100.947
96.268
91.501
86.666
81.783
76.869
71.944
67.023
62.123
57.258
52.442
47.689
43.008
38.41
33.904
29.496
25.192
20.996
16.912
12.942
9.086
5.346
1.719
-1.795
-5.199
-8.495
-11.689
-14.782
-17.78
-20.687
-23.508
-26.248
-28.909
-31.498
-34.017
-36.47
-38.86
-41.19
-43.461
-45.675
-47.834
-49.936
-51.983
-53.972
-55.904
-57.775
-59.583
-61.325
-62.996
-64.594
-66.112
-67.547
-68.894
-70.147
-71.3
-72.35
-73.289
-74.113
-74.816
-75.394
-75.841
-76.154
-76.328
-76.361
-76.249
-75.99
-75.583
-75.027
-74.323
-73.471
-72.472
-71.33
-70.048
-68.629
-67.079
-65.402
-63.607
-61.699
-59.688
-57.58
-55.387
-53.117
-50.78
-48.389
-45.953
-43.484
-40.995
-38.496
-36.001
-33.522
-31.071
-28.66
-26.303
-24.01
-21.794
-19.667
-17.64
-15.723
-13.927
-12.26
-10.733
-9.353
-8.128
-7.064
-6.169
-5.446
-4.901
-4.536
-4.354
-4.358
-4.547
-4.921
-5.48
-6.222
-7.143
-8.24
-9.509
-10.945
-12.541
-14.292
-16.189
-18.226
-20.392
-22.68
-25.079
-27.579
-30.169
-32.84
-35.58
-38.377
-41.221
-44.099
-47.002
-49.916
-52.832
-55.737
-58.622
-61.476
-64.289
-67.051
-69.754
-72.388
-74.946
-77.421
-79.806
-82.095
-84.282
-86.363
-88.334
-90.191
-91.931
-93.553
-95.054
-96.435
-97.695
-98.835
-99.856
-100.759
-101.548
-102.224
-102.791
-103.252
-103.611
-103.873
-104.04
-104.119
-104.114
-104.03
-103.87
-103.642
-103.348
-102.994
-102.584
-102.123
-101.613
-101.058
-100.462
-99.827
-99.155
-98.449
-97.709
-96.937
-96.135
-95.303
-94.441
-93.55
-92.629
-91.678
-90.696
-89.683
-88.636
-87.555
-86.439
-85.288
-84.1
-82.875
-81.613
-80.314
-78.978
-77.606
-76.198
-74.756
-73.281
-71.776
-70.245
-68.69
-67.119
-65.538
-63.955
-62.38
-60.824
-59.296
-57.81
-56.376
-55.007
-53.718
-52.52
-51.427
-50.452
-49.608
-48.908
-48.367
-47.996
-47.804
-47.798
-47.987
-48.376
-48.972
-49.776
-50.787
-52.001
-53.418
-55.041
-56.871
-58.904
-61.131
-63.541
-66.121
-68.858
-71.731
-74.708
-77.753
-80.822
-83.872
-86.873
-89.788
-92.588
-95.239
-97.694
-99.91
-101.848
-103.472
-104.751
-105.665
-106.193
-106.332
-106.142
-105.73
-105.259
-104.947
-104.99
-105.54
-106.687
-108.514
-110.987
-113.905
-116.944
-119.555
-121.125
-121.192
-119.467
-115.738
-110.03
-102.647
-94.024
-85.083
-77.006
-70.726
-67.086
-66.735
-69.83
-76.347
-85.503
-95.075
-102.602
-105.61
-102.891
-95.321
-83.1
-65.158
-37.794
5.123
68.198
153.308
258.114
376.708
501.373
623.856
736.043
828.465
893.032
921.796
908.359
852.938
758.015
631.628
488.041
340.958
206.383
98.347
22.579
-20.242
-35.274
-33.267
-23.387
-12.549
-6.755
-6.473
-9.706
-14.141
-15.203
-11.668
-5.365
1.315
4.648
3.331
-1.591
-8.547
-15.275
-20.431
-23.416
-23.704
-21.3
-16.383
-9.24
-0.537
9.02
18.786
28.003
36.117
42.872
48.133
51.955
54.536
56.067
56.805
57.09
57.168
57.208
57.346
57.651
58.195
59.05
60.232
61.724
63.503
65.543
67.824
70.327
73.001
75.791
78.64
81.49
84.298
87.019
89.603
92.003
94.171
96.077
97.71
99.07
100.164
101.005
101.614
102.02
102.264
102.386
102.421
102.405
102.366
102.334
102.343
102.424
102.605
102.909
103.359
103.976
104.787
105.821
107.096
108.617
110.384
112.384
114.61
117.058
119.714
122.553
125.561
128.727
132.057
135.571
139.271
143.146
147.171
151.303
155.515
159.796
164.138
168.533
172.977
177.456
181.979
186.575
191.241
195.944
200.622
205.163
209.488
213.542
217.284
220.689
223.721
226.323
228.45
230.066
231.124
231.586
231.384
230.414
228.631
226.03
222.652
218.6
213.948
208.739
203.024
196.84
190.238
183.279
176.009
168.455
160.667
152.698
144.632
136.588
128.641
120.829
113.164
105.612
98.163
90.827
83.609
76.509
69.535
62.692
56.001
49.503
43.223
37.172
31.348
25.726
20.301
15.084
10.094
5.363
0.915
-3.238
-7.083
-10.601
-13.784
-16.631
-19.152
-21.369
-23.3
-24.959
-26.356
-27.5
-28.404
-29.085
-29.564
-29.859
-29.993
-29.985
-29.858
-29.636
-29.342
-28.993
-28.608
-28.198
-27.779
-27.364
-26.968
-26.604
-26.282
-26.015
-25.814
-25.689
-25.648
-25.7
-25.849
-26.098
-26.45
-26.906
-27.464
-28.123
-28.879
-29.728
-30.662
-31.676
-32.762
-33.911
-35.114
-36.359
-37.638
-38.938
-40.25
-41.56
-42.859
-44.134
-45.376
-46.573
-47.715
-48.792
-49.796
-50.718
-51.55
-52.285
-52.917
-53.439
-53.847
-54.137
-54.306
-54.353
-54.277
-54.078
-53.758
-53.321
-52.77
-52.111
-51.349
-50.492
-49.547
-48.524
-47.432
-46.282
-45.084
-43.85
-42.591
-41.319
-40.047
-38.786
-37.549
-36.348
-35.193
-34.098
-33.072
-32.127
-31.272
-30.516
-29.869
-29.339
-28.932
-28.655
-28.513
-28.513
-28.656
-28.947
-29.386
-29.976
-30.716
-31.605
-32.641
-33.822
-35.144
-36.602
-38.192
-39.907
-41.74
-43.685
-45.733
-47.876
-50.106
-52.414
-54.789
-57.224
-59.708
-62.231
-64.784
-67.358
-69.943
-72.531
-75.111
-77.677
-80.218
-82.728
-85.199
-87.624
-89.995
-92.308
-94.554
-96.73
-98.831
-100.851
-102.786
-104.633
-106.388
-108.048
-109.61
-111.071
-112.43
-113.686
-114.835
-115.878
-116.812
-117.638
-118.354
-118.959
-119.455
-119.839
-120.113
-120.275
-120.325
-120.265
-120.095
-119.813
-119.422
-118.922
-118.312
-117.594
-116.768
-115.835
-114.794
-113.646
-112.393
-111.035
-109.573
-108.01
-106.347
-104.586
-102.73
-100.782
-98.746
-96.625
-94.423
-92.146
-89.799
-87.387
-84.916
-82.395
-79.828
-77.225
-74.594
-71.943
-69.281
-66.618
-63.964
-61.328
-58.72
-56.151
-53.632
-51.174
-48.791
-46.499
-44.313
-42.249
-40.323
-38.554
-36.957
-35.548
-34.339
-33.338
-32.554
-31.996
-31.671
-31.589
-31.757
-32.176
-32.846
-33.766
-34.933
-36.343
-37.984
-39.835
-41.881
-44.109
-46.518
-49.116
-51.906
-54.881
-58.033
-61.347
-64.814
-68.423
-72.154
-75.976
-79.852
-83.745
-87.624
-91.473
-95.261
-98.951
-102.472
-105.701
-108.574
-111.095
-113.304
-115.308
-117.183
-118.918
-120.563
-122.272
-124.098
-125.973
-127.661
-128.661
-128.619
-127.505
-125.35
-122.183
-118.056
-113.059
-107.59
-102.493
-98.464
-95.714
-94.211
-93.806
-94.547
-96.694
-100.217
-104.724
-109.805
-115.352
-121.57
-128.229
-134.173
-137.876
-137.678
-133.153
-125.146
-113.531
-97.44
-73.517
-36.795
15.779
86.221
172.226
268.284
369.308
468.116
559.63
639.954
702.377
741.368
749.758
720.122
651.038
544.98
411.115
265.605
124.919
5.021
-82.425
-134.029
-151.95
-142.869
-116.786
-83.39
-51.065
-27.603
-17.789
-22.656
-40.174
-63.928
-85.583
-97.732
-96.549
-83.102
-62.563
-43.695
-32.714
-32.246
-41.807
-55.194
-67.423
-75.978
-79.3
-79.961
-79.971
-79.609
-79.611
-79.45
-78.899
-78.73
-79.194
-80.391
-82.388
-84.935
-87.783
-90.767
-93.629
-96.07
-97.925
-99.147
-99.727
-99.722
-99.191
-98.161
-96.678
-94.806
-92.589
-90.059
-87.256
-84.215
-80.985
-77.632
-74.202
-70.727
-67.231
-63.722
-60.206
-56.684
-53.142
-49.563
-45.936
-42.254
-38.51
-34.702
-30.822
-26.855
-22.792
-18.62
-14.328
-9.91
-5.355
-0.66
4.178
9.158
14.277
19.529
24.911
30.42
36.05
41.797
47.653
53.611
59.662
65.796
71.999
78.258
84.555
90.872
97.192
103.495
109.759
115.963
122.086
128.104
133.996
139.737
145.306
150.679
155.832
160.745
165.395
169.761
173.825
177.565
180.966
184.011
186.686
188.979
190.877
192.373
193.459
194.129
194.381
194.214
193.628
192.627
191.216
189.403
187.198
184.612
181.659
178.355
174.718
170.766
166.518
161.997
157.225
152.224
147.019
141.634
136.095
130.425
124.651
118.797
112.889
106.951
101.008
95.081
89.194
83.369
77.624
71.981
66.456
61.067
55.828
50.753
45.856
41.146
36.632
32.323
28.224
24.339
20.671
17.222
13.99
10.975
8.173
5.581
3.192
1.002
-0.997
-2.814
-4.457
-5.935
-7.26
-8.44
-9.488
-10.414
-11.23
-11.947
-12.577
-13.13
-13.618
-14.051
-14.439
-14.794
-15.124
-15.439
-15.747
-16.056
-16.374
-16.706
-17.06
-17.438
-17.847
-18.289
-18.768
-19.284
-19.839
-20.435
-21.07
-21.745
-22.457
-23.205
-23.987
-24.799
-25.638
-26.501
-27.382
-28.279
-29.185
-30.096
-31.007
-31.913
-32.809
-33.689
-34.549
-35.382
-36.183
-36.948
-37.673
-38.351
-38.979
-39.554
-40.072
-40.529
-40.924
-41.255
-41.519
-41.717
-41.847
-41.91
-41.907
-41.838
-41.706
-41.514
-41.263
-40.959
-40.604
-40.204
-39.763
-39.288
-38.783
-38.256
-37.713
-37.16
-36.605
-36.056
-35.519
-35.004
-34.516
-34.065
-33.658
-33.303
-33.006
-32.775
-32.617
-32.538
-32.543
-32.638
-32.828
-33.115
-33.505
-33.998
-34.597
-35.304
-36.117
-37.038
-38.063
-39.191
-40.419
-41.742
-43.157
-44.657
-46.236
-47.886
-49.601
-51.372
-53.189
-55.044
-56.925
-58.822
-60.725
-62.621
-64.5
-66.35
-68.159
-69.917
-71.611
-73.231
-74.767
-76.209
-77.547
-78.772
-79.876
-80.852
-81.693
-82.393
-82.947
-83.351
-83.601
-83.695
-83.632
-83.411
-83.034
-82.5
-81.814
-80.978
-79.997
-78.876
-77.622
-76.241
-74.741
-73.132
-71.421
-69.62
-67.738
-65.786
-63.776
-61.718
-59.623
-57.504
-55.37
-53.233
-51.103
-48.991
-46.906
-44.857
-42.855
-40.906
-39.021
-37.205
-35.467
-33.812
-32.246
-30.774
-29.399
-28.126
-26.956
-25.89
-24.931
-24.077
-23.329
-22.686
-22.144
-21.701
-21.354
-21.098
-20.929
-20.841
-20.828
-20.886
-21.007
-21.186
-21.418
-21.696
-22.016
-22.372
-22.759
-23.171
-23.604
-24.054
-24.515
-24.984
-25.459
-25.935
-26.413
-26.889
-27.364
-27.841
-28.32
-28.805
-29.3
-29.811
-30.343
-30.903
-31.496
-32.129
-32.806
-33.533
-34.315
-35.157
-36.065
-37.042
-38.092
-39.221
-40.432
-41.725
-43.101
-44.55
-46.063
-47.634
-49.258
-50.939
-52.68
-54.478
-56.331
-58.238
-60.193
-62.188
-64.201
-66.188
-68.109
-69.926
-71.612
-73.161
-74.557
-75.77
-76.763
-77.483
-77.874
-77.913
-77.554
-76.731
-75.441
-73.728
-71.704
-69.598
-67.588
-65.793
-64.371
-63.437
-62.951
-62.813
-62.774
-62.444
-61.609
-60.112
-57.655
-54.113
-49.577
-44.243
-38.59
-33.173
-28.224
-24.031
-21.21
-20.172
-21.102
-24.061
-28.663
-34.375
-41.07
-47.883
-52.6
-53.149
-47.544
-34.834
-16.78
5.349
32.664
67.687
115.629
181.411
264.79
362.722
469.456
576.121
676.358
763.929
830.657
870.61
877.156
844.835
774.532
670.639
542.681
406.497
277.314
168.373
89.153
39.157
13.722
7.019
9.771
17.007
24.245
24.344
16.008
-0.854
-23.86
-44.989
-60.467
-69.646
-73.451
-76.329
-80.196
-84.273
-87.551
-88.373
-86.272
-82.056
-76.487
-70.247
-63.882
-57.803
-52.418
-48.014
-44.697
-42.425
-41.109
-40.684
-41.071
-42.154
-43.788
-45.83
-48.164
-50.685
-53.275
-55.805
-58.128
-60.105
-61.64
-62.678
-63.19
-63.181
-62.657
-61.639
-60.165
-58.293
-56.105
-53.674
-51.05
-48.299
-45.498
-42.721
-40.063
-37.582
-35.239
-32.989
-30.841
-28.721
-26.481
-24.107
-21.603
-18.94
-16.439
-13.873
-10.204
-5.628
-0.905
2.091
-0.603
-9.192
-20.028
-27.72
-24.419
-8.287
14.802
36.628
47.88
45.286
34.015
21.687
15.12
17.093
25.027
34.61
42.999
49.17
53.755
58.064
62.525
67.007
71.407
75.568
79.515
83.393
87.225
90.982
94.675
98.292
101.788
105.117
108.226
111.068
113.628
115.899
117.868
119.519
120.842
121.828
122.474
122.779
122.738
122.349
121.612
120.531
119.11
117.357
115.283
112.898
110.216
107.252
104.024
100.551
96.852
92.951
88.87
84.632
80.263
75.788
71.231
66.618
61.975
57.326
52.697
48.11
43.588
39.153
34.826
30.624
26.565
22.664
18.936
15.392
12.042
8.895
5.957
3.233
0.726
-1.563
-3.635
-5.493
-7.142
-8.587
-9.836
-10.898
-11.785
-12.507
-13.078
-13.512
-13.823
-14.029
-14.143
-14.184
-14.167
-14.11
-14.03
-13.942
-13.862
-13.806
-13.788
-13.821
-13.918
-14.089
-14.345
-14.694
-15.144
-15.699
-16.366
-17.147
-18.043
-19.054
-20.179
-21.416
-22.759
-24.204
-25.745
-27.372
-29.078
-30.853
-32.684
-34.562
-36.473
-38.404
-40.342
-42.272
-44.181
-46.055
-47.878
-49.637
-51.318
-52.908
-54.393
-55.763
-57.005
-58.109
-59.066
-59.866
-60.503
-60.971
-61.264
-61.379
-61.313
-61.066
-60.636
-60.025
-59.237
-58.273
-57.14
-55.843
-54.388
-52.785
-51.041
-49.167
-47.173
-45.07
-42.87
-40.586
-38.232
-35.819
-33.363
-30.876
-28.373
-25.868
-23.375
-20.907
-18.479
-16.102
-13.79
-11.556
-9.41
-7.363
-5.426
-3.609
-1.919
-0.365
1.046
2.309
3.417
4.367
5.154
5.777
6.233
6.522
6.642
6.596
6.383
6.007
5.47
4.776
3.93
2.936
1.8
0.528
-0.873
-2.396
-4.033
-5.776
-7.617
-9.547
-11.557
-13.638
-15.78
-17.974
-20.21
-22.479
-24.772
-27.078
-29.389
-31.696
-33.989
-36.259
-38.498
-40.697
-42.847
-44.942
-46.973
-48.932
-50.814
-52.61
-54.316
-55.925
-57.432
-58.832
-60.121
-61.296
-62.352
-63.288
-64.101
-64.789
-65.352
-65.789
-66.101
-66.288
-66.352
-66.295
-66.119
-65.828
-65.426
-64.915
-64.302
-63.59
-62.786
-61.896
-60.926
-59.883
-58.774
-57.607
-56.389
-55.129
-53.834
-52.512
-51.171
-49.818
-48.463
-47.112
-45.773
-44.453
-43.159
-41.898
-40.676
-39.498
-38.371
-37.298
-36.284
-35.331
-34.443
-33.62
-32.865
-32.177
-31.556
-31.002
-30.512
-30.085
-29.718
-29.406
-29.145
-28.931
-28.757
-28.618
-28.508
-28.419
-28.345
-28.28
-28.217
-28.15
-28.072
-27.977
-27.858
-27.71
-27.528
-27.305
-27.038
-26.724
-26.36
-25.944
-25.475
-24.956
-24.389
-23.78
-23.132
-22.453
-21.749
-21.03
-20.306
-19.588
-18.886
-18.21
-17.571
-16.981
-16.455
-16.005
-15.645
-15.382
-15.23
-15.196
-15.295
-15.537
-15.926
-16.465
-17.155
-18
-19.014
-20.206
-21.584
-23.146
-24.892
-26.816
-28.912
-31.169
-33.556
-36.04
-38.577
-41.125
-43.658
-46.151
-48.58
-50.918
-53.112
-55.106
-56.849
-58.293
-59.413
-60.211
-60.676
-60.806
-60.677
-60.389
-60.12
-60.121
-60.521
-61.353
-62.627
-64.346
-66.524
-69.177
-72.102
-74.8
-76.9
-78.229
-78.738
-78.49
-77.391
-75.195
-71.976
-68.379
-65.117
-62.698
-61.51
-61.64
-63.268
-66.991
-72.52
-77.983
-81.341
-80.525
-74.658
-65.704
-54.699
-39.829
-17.167
20.763
80.608
162.986
264.739
378.611
494.144
604.404
703.241
783.084
839.277
865.368
855.54
810.495
732.077
625.961
502.585
372.007
246.275
137.513
53.892
-1.631
-30.891
-39.403
-35.807
-26.309
-16.326
-11.96
-13.972
-21.972
-33.552
-42.053
-44.749
-41.692
-34.572
-28.041
-24.367
-23.341
-24.212
-25.632
-27.301
-29.845
-33.503
-38.07
-43.03
-47.744
-51.943
-55.563
-58.475
-60.588
-61.945
-62.788
-63.537
-64.655
-66.359
-68.656
-71.478
-74.68
-78.098
-81.541
-84.766
-87.515
-89.639
-91.097
-91.903
-92.12
-91.802
-90.987
-89.728
-88.088
-86.116
-83.852
-81.336
-78.602
-75.694
-72.669
-69.566
-66.416
-63.238
-60.037
-56.814
-53.561
-50.267
-46.913
-43.485
-39.973
-36.363
-32.647
-28.814
-24.853
-20.75
-16.495
-12.082
-7.503
-2.75
2.184
7.307
12.624
18.13
23.815
29.667
35.663
41.776
47.975
54.226
60.501
66.778
73.049
79.313
85.569
91.819
98.053
104.245
110.375
116.421
122.37
128.212
133.951
139.606
145.2
150.77
156.331
161.878
167.379
172.771
177.979
182.912
187.494
191.674
195.403
198.64
201.342
203.469
204.966
205.769
205.801
204.969
203.21
200.484
196.796
192.192
186.748
180.569
173.751
166.375
158.513
150.227
141.576
132.621
123.426
114.063
104.623
95.216
85.937
76.868
68.058
59.526
51.266
43.249
35.451
27.856
20.455
13.256
6.269
-0.49
-7.004
-13.256
-19.241
-24.971
-30.456
-35.705
-40.718
-45.481
-49.971
-54.159
-58.019
-61.526
-64.668
-67.439
-69.842
-71.886
-73.586
-74.965
-76.041
-76.828
-77.343
-77.597
-77.61
-77.4
-76.99
-76.405
-75.669
-74.807
-73.845
-72.805
-71.707
-70.57
-69.408
-68.236
-67.065
-65.909
-64.78
-63.689
-62.647
-61.666
-60.754
-59.92
-59.17
-58.509
-57.942
-57.468
-57.089
-56.804
-56.61
-56.505
-56.484
-56.542
-56.674
-56.873
-57.132
-57.443
-57.799
-58.191
-58.611
-59.05
-59.499
-59.95
-60.395
-60.825
-61.232
-61.61
-61.952
-62.251
-62.501
-62.698
-62.837
-62.912
-62.921
-62.861
-62.728
-62.521
-62.239
-61.882
-61.45
-60.945
-60.368
-59.722
-59.01
-58.234
-57.4
-56.511
-55.571
-54.585
-53.559
-52.497
-51.405
-50.289
-49.153
-48.005
-46.849
-45.691
-44.536
-43.391
-42.259
-41.146
-40.056
-38.994
-37.964
-36.969
-36.014
-35.101
-34.232
-33.411
-32.639
-31.917
-31.248
-30.632
-30.07
-29.562
-29.108
-28.709
-28.364
-28.073
-27.835
-27.649
-27.515
-27.431
-27.396
-27.409
-27.469
-27.574
-27.722
-27.912
-28.141
-28.409
-28.712
-29.05
-29.421
-29.821
-30.251
-30.708
-31.191
-31.698
-32.228
-32.779
-33.35
-33.941
-34.549
-35.173
-35.813
-36.467
-37.134
-37.813
-38.502
-39.2
-39.906
-40.618
-41.334
-42.053
-42.772
-43.491
-44.208
-44.92
-45.626
-46.325
-47.014
-47.693
-48.358
-49.01
-49.645
-50.263
-50.861
-51.438
-51.991
-52.52
-53.023
-53.497
-53.942
-54.355
-54.735
-55.081
-55.391
-55.664
-55.898
-56.094
-56.25
-56.365
-56.44
-56.474
-56.468
-56.422
-56.336
-56.21
-56.046
-55.843
-55.604
-55.327
-55.014
-54.666
-54.284
-53.868
-53.419
-52.938
-52.426
-51.885
-51.315
-50.717
-50.091
-49.439
-48.762
-48.059
-47.33
-46.578
-45.802
-45.003
-44.181
-43.336
-42.468
-41.577
-40.664
-39.727
-38.766
-37.78
-36.769
-35.734
-34.673
-33.588
-32.479
-31.346
-30.192
-29.017
-27.823
-26.612
-25.387
-24.148
-22.9
-21.647
-20.392
-19.14
-17.899
-16.676
-15.479
-14.317
-13.2
-12.137
-11.14
-10.22
-9.387
-8.653
-8.027
-7.521
-7.145
-6.911
-6.828
-6.906
-7.151
-7.569
-8.166
-8.949
-9.92
-11.075
-12.411
-13.922
-15.603
-17.458
-19.486
-21.678
-24.03
-26.531
-29.172
-31.946
-34.832
-37.794
-40.797
-43.792
-46.741
-49.617
-52.391
-55.041
-57.533
-59.812
-61.836
-63.567
-64.961
-65.999
-66.64
-66.836
-66.62
-66.091
-65.393
-64.759
-64.373
-64.343
-64.835
-65.958
-67.681
-69.928
-72.402
-74.625
-76.22
-76.821
-76.048
-73.735
-69.875
-64.56
-58.237
-51.546
-45.147
-39.902
-36.569
-35.699
-37.685
-42.579
-50.252
-59.85
-69.222
-75.932
-77.619
-73.217
-64.535
-52.933
-37.069
-12.958
27.406
91.225
179.371
288.199
409.247
531.271
646.902
749.948
834.01
894.805
925.63
920.036
875.659
792.111
674.552
534.372
385.96
245.745
128.962
44.334
-6.939
-29.031
-31.779
-25.555
-17.884
-15.637
-20.561
-30.792
-43.496
-52.981
-56.615
-55.196
-50.969
-48.52
-49.965
-54.754
-61.695
-68.539
-74.141
-78.478
-81.225
-82.242
-81.622
-79.458
-76.139
-72.258
-68.19
-64.273
-61.025
-58.814
-57.809
-58.069
-59.444
-61.683
-64.609
-68
-71.534
-74.964
-78.082
-80.709
-82.79
-84.3
-85.204
-85.52
-85.279
-84.503
-83.237
-81.535
-79.43
-76.975
-74.223
-71.224
-68.044
-64.749
-61.398
-58.055
-54.762
-51.54
-48.405
-45.358
-42.395
-39.51
-36.686
-33.898
-31.126
-28.355
-25.565
-22.744
-19.874
-16.935
-13.909
-10.779
-7.533
-4.159
-0.649
3.004
6.804
10.753
14.852
19.097
23.484
28.013
32.678
37.475
42.398
47.437
52.582
57.824
63.147
68.536
73.973
79.439
84.912
90.37
95.791
101.151
106.425
111.589
116.617
121.483
126.163
130.633
134.866
138.84
142.532
145.921
148.985
151.706
154.068
156.053
157.65
158.846
159.632
160.001
159.947
159.467
158.561
157.23
155.478
153.312
150.739
147.772
144.422
140.706
136.641
132.246
127.542
122.551
117.297
111.804
106.1
100.208
94.158
87.977
81.692
75.331
68.922
62.492
56.068
49.675
43.339
37.083
30.931
24.903
19.019
13.298
7.757
2.411
-2.725
-7.642
-12.327
-16.774
-20.976
-24.929
-28.63
-32.079
-35.277
-38.227
-40.932
-43.399
-45.635
-47.65
-49.451
-51.052
-52.463
-53.698
-54.771
-55.696
-56.487
-57.16
-57.73
-58.212
-58.621
-58.973
-59.282
-59.562
-59.826
-60.088
-60.361
-60.655
-60.982
-61.351
-61.77
-62.249
-62.792
-63.406
-64.095
-64.862
-65.71
-66.639
-67.649
-68.739
-69.907
-71.149
-72.462
-73.84
-75.277
-76.766
-78.299
-79.868
-81.463
-83.075
-84.694
-86.31
-87.912
-89.49
-91.032
-92.528
-93.967
-95.339
-96.632
-97.837
-98.944
-99.943
-100.827
-101.586
-102.213
-102.701
-103.044
-103.236
-103.272
-103.149
-102.863
-102.412
-101.795
-101.011
-100.061
-98.945
-97.668
-96.231
-94.64
-92.899
-91.015
-88.995
-86.846
-84.577
-82.198
-79.717
-77.145
-74.494
-71.775
-69
-66.182
-63.333
-60.466
-57.594
-54.73
-51.889
-49.082
-46.323
-43.625
-41.001
-38.463
-36.024
-33.695
-31.487
-29.412
-27.479
-25.697
-24.074
-22.619
-21.337
-20.234
-19.316
-18.584
-18.042
-17.692
-17.534
-17.567
-17.789
-18.198
-18.789
-19.558
-20.499
-21.605
-22.867
-24.278
-25.827
-27.503
-29.297
-31.195
-33.185
-35.254
-37.388
-39.573
-41.794
-44.037
-46.285
-48.526
-50.742
-52.92
-55.045
-57.103
-59.081
-60.965
-62.743
-64.404
-65.936
-67.331
-68.578
-69.671
-70.601
-71.365
-71.956
-72.373
-72.611
-72.672
-72.554
-72.259
-71.79
-71.151
-70.346
-69.382
-68.266
-67.007
-65.615
-64.099
-62.472
-60.747
-58.936
-57.052
-55.112
-53.129
-51.119
-49.097
-47.077
-45.077
-43.111
-41.193
-39.338
-37.559
-35.87
-34.283
-32.809
-31.459
-30.242
-29.167
-28.242
-27.471
-26.862
-26.418
-26.14
-26.032
-26.091
-26.317
-26.706
-27.254
-27.954
-28.798
-29.778
-30.884
-32.104
-33.425
-34.835
-36.317
-37.855
-39.435
-41.037
-42.645
-44.241
-45.806
-47.322
-48.773
-50.141
-51.409
-52.559
-53.576
-54.446
-55.153
-55.684
-56.026
-56.17
-56.106
-55.826
-55.323
-54.593
-53.634
-52.446
-51.033
-49.399
-47.552
-45.503
-43.262
-40.845
-38.266
-35.541
-32.684
-29.713
-26.644
-23.497
-20.292
-17.05
-13.794
-10.544
-7.319
-4.14
-1.024
2.018
4.976
7.841
10.601
13.232
15.711
18.018
20.133
22.043
23.736
25.208
26.468
27.539
28.445
29.206
29.831
30.317
30.68
30.933
31.108
31.262
31.43
31.668
32.056
32.612
33.309
34.066
34.69
35.008
34.936
34.33
33.029
31.044
28.465
25.582
22.89
20.621
18.797
17.51
16.913
17.05
17.838
18.8
19.172
18.68
17.407
15.407
12.52
8.372
2.769
-4.081
-11.622
-19.623
-28.357
-37.538
-45.603
-50.38
-49.657
-42.875
-31.998
-18.582
-2.183
21.125
58.556
116.673
198.777
302.685
421.835
547.102
669.053
779.751
870.292
932.837
959.387
942.615
881.85
779.752
644.855
492.012
335.689
191.963
75.068
-7.932
-55.668
-72.444
-67.846
-52.201
-33.118
-17.72
-10.271
-10.214
-16.108
-23.509
-26.912
-25.375
-20.133
-14.213
-11.592
-13.128
-17.821
-24.259
-30.694
-36.423
-41.206
-44.652
-46.74
-47.588
-47.391
-46.516
-45.25
-43.83
-42.698
-42.346
-43.041
-44.843
-47.637
-51.212
-55.375
-59.935
-64.601
-69.021
-72.957
-76.286
-78.972
-81.042
-82.507
-83.369
-83.662
-83.454
-82.804
-81.758
-80.354
-78.61
-76.57
-74.298
-71.859
-69.322
-66.733
-64.118
-61.491
-58.863
-56.232
-53.595
-50.936
-48.234
-45.471
-42.634
-39.711
-36.692
-33.564
-30.307
-26.907
-23.347
-19.613
-15.696
-11.589
-7.288
-2.79
1.904
6.793
11.871
17.132
22.574
28.191
33.976
39.923
46.022
52.262
58.629
65.111
71.689
78.346
85.061
91.811
98.576
105.329
112.046
118.701
125.267
131.718
138.024
144.159
150.094
155.802
161.255
166.428
171.293
175.827
180.006
183.808
187.212
190.199
192.753
194.857
196.498
197.665
198.348
198.54
198.236
197.434
196.133
194.336
192.046
189.273
186.025
182.314
178.155
173.564
168.56
163.163
157.395
151.281
144.845
138.114
131.116
123.881
116.437
108.815
101.046
93.162
85.193
77.171
69.126
61.09
53.092
45.161
37.327
29.617
22.057
14.672
7.488
0.525
-6.194
-12.651
-18.827
-24.708
-30.279
-35.528
-40.446
-45.023
-49.255
-53.136
-56.663
-59.837
-62.658
-65.129
-67.255
-69.042
-70.497
-71.63
-72.452
-72.973
-73.208
-73.17
-72.873
-72.334
-71.569
-70.595
-69.429
-68.089
-66.594
-64.961
-63.209
-61.355
-59.418
-57.415
-55.362
-53.277
-51.174
-49.068
-46.975
-44.908
-42.879
-40.9
-38.982
-37.135
-35.369
-33.692
-32.11
-30.63
-29.257
-27.996
-26.85
-25.822
-24.913
-24.124
-23.456
-22.907
-22.477
-22.163
-21.963
-21.874
-21.891
-22.011
-22.23
-22.541
-22.942
-23.426
-23.989
-24.624
-25.328
-26.095
-26.919
-27.796
-28.721
-29.689
-30.695
-31.734
-32.803
-33.897
-35.011
-36.143
-37.287
-38.441
-39.601
-40.762
-41.923
-43.079
-44.228
-45.365
-46.49
-47.598
-48.687
-49.754
-50.797
-51.814
-52.802
-53.758
-54.68
-55.567
-56.414
-57.221
-57.986
-58.704
-59.376
-59.997
-60.567
-61.083
-61.544
-61.948
-62.293
-62.578
-62.802
-62.964
-63.065
-63.104
-63.081
-62.998
-62.856
-62.656
-62.4
-62.092
-61.735
-61.331
-60.884
-60.4
-59.882
-59.337
-58.768
-58.183
-57.586
-56.985
-56.386
-55.795
-55.219
-54.666
-54.141
-53.652
-53.206
-52.809
-52.469
-52.19
-51.98
-51.844
-51.787
-51.815
-51.93
-52.137
-52.44
-52.839
-53.337
-53.934
-54.632
-55.427
-56.32
-57.307
-58.386
-59.552
-60.8
-62.126
-63.521
-64.98
-66.494
-68.055
-69.655
-71.284
-72.932
-74.588
-76.244
-77.887
-79.508
-81.095
-82.636
-84.122
-85.54
-86.88
-88.13
-89.281
-90.32
-91.239
-92.028
-92.678
-93.181
-93.529
-93.715
-93.733
-93.577
-93.244
-92.729
-92.028
-91.142
-90.067
-88.805
-87.358
-85.726
-83.912
-81.922
-79.759
-77.429
-74.94
-72.297
-69.51
-66.587
-63.538
-60.374
-57.106
-53.748
-50.313
-46.818
-43.279
-39.712
-36.137
-32.57
-29.031
-25.537
-22.107
-18.756
-15.499
-12.352
-9.331
-6.453
-3.734
-1.188
1.169
3.326
5.27
6.99
8.478
9.731
10.747
11.522
12.05
12.315
12.305
12.014
11.44
10.585
9.457
8.066
6.436
4.606
2.616
0.51
-1.679
-3.926
-6.202
-8.47
-10.684
-12.785
-14.719
-16.445
-17.933
-19.158
-20.114
-20.815
-21.307
-21.677
-22.011
-22.399
-22.93
-23.677
-24.721
-26.134
-27.998
-30.433
-33.543
-37.376
-41.888
-46.915
-52.215
-57.533
-62.535
-66.78
-69.836
-71.359
-71.306
-70.02
-67.955
-65.7
-63.946
-63.29
-64.432
-67.447
-71
-73.348
-72.65
-68.071
-61.247
-53.09
-41.85
-23.289
10.454
65.866
143.166
238.566
344.047
449.411
548.907
637.454
708.28
756.952
775.908
757.833
702.54
611.284
490.882
354.779
215.666
88.267
-13.506
-82.8
-118.052
-123.052
-107.561
-82.097
-54.834
-33.763
-22.957
-21.477
-27.228
-34.349
-36.636
-32.977
-24.506
-14.689
-8.041
-5.668
-6.779
-10.409
-15.269
-20.867
-27.121
-33.509
-39.388
-44.415
-48.523
-51.674
-53.874
-55.233
-55.962
-56.506
-57.476
-59.188
-61.657
-64.827
-68.514
-72.516
-76.695
-80.818
-84.594
-87.864
-90.566
-92.689
-94.306
-95.476
-96.212
-96.559
-96.565
-96.258
-95.683
-94.875
-93.864
-92.698
-91.415
-90.04
-88.598
-87.099
-85.542
-83.926
-82.234
-80.443
-78.541
-76.518
-74.367
-72.082
-69.653
-67.067
-64.31
-61.369
-58.232
-54.889
-51.329
-47.545
-43.532
-39.291
-34.824
-30.136
-25.232
-20.114
-14.788
-9.259
-3.535
2.376
8.464
14.718
21.124
27.665
34.324
41.081
47.915
54.805
61.728
68.66
75.577
82.452
89.261
95.977
102.572
109.02
115.293
121.364
127.208
132.797
138.108
143.116
147.798
152.134
156.103
159.687
162.87
165.638
167.977
169.877
171.33
172.329
172.871
172.954
172.578
171.747
170.466
168.744
166.588
164.013
161.03
157.656
153.908
149.805
145.366
140.615
135.572
130.264
124.714
118.948
112.992
106.872
100.616
94.249
87.797
81.287
74.744
68.192
61.657
55.16
48.724
42.37
36.118
29.986
23.991
18.149
12.472
6.973
1.664
-3.448
-8.354
-13.049
-17.528
-21.787
-25.825
-29.641
-33.237
-36.614
-39.777
-42.729
-45.477
-48.025
-50.383
-52.557
-54.555
-56.387
-58.061
-59.587
-60.974
-62.232
-63.371
-64.4
-65.329
-66.166
-66.92
-67.599
-68.211
-68.762
-69.258
-69.705
-70.107
-70.469
-70.794
-71.085
-71.343
-71.57
-71.768
-71.935
-72.071
-72.176
-72.248
-72.285
-72.284
-72.243
-72.159
-72.029
-71.85
-71.618
-71.331
-70.985
-70.577
-70.104
-69.563
-68.952
-68.268
-67.511
-66.677
-65.768
-64.782
-63.72
-62.584
-61.375
-60.095
-58.749
-57.339
-55.871
-54.348
-52.777
-51.164
-49.515
-47.837
-46.139
-44.427
-42.71
-40.997
-39.295
-37.615
-35.964
-34.35
-32.784
-31.272
-29.823
-28.445
-27.146
-25.934
-24.814
-23.795
-22.881
-22.079
-21.392
-20.826
-20.383
-20.066
-19.877
-19.816
-19.884
-20.081
-20.404
-20.852
-21.423
-22.112
-22.916
-23.83
-24.848
-25.965
-27.173
-28.467
-29.838
-31.28
-32.785
-34.344
-35.95
-37.595
-39.27
-40.968
-42.68
-44.399
-46.115
-47.822
-49.512
-51.178
-52.813
-54.411
-55.966
-57.472
-58.925
-60.319
-61.652
-62.92
-64.118
-65.246
-66.301
-67.282
-68.187
-69.016
-69.769
-70.447
-71.049
-71.577
-72.033
-72.416
-72.73
-72.976
-73.155
-73.27
-73.323
-73.316
-73.253
-73.134
-72.964
-72.744
-72.477
-72.165
-71.811
-71.416
-70.982
-70.512
-70.007
-69.468
-68.897
-68.295
-67.663
-67.003
-66.314
-65.597
-64.853
-64.081
-63.281
-62.453
-61.598
-60.715
-59.805
-58.867
-57.901
-56.909
-55.889
-54.842
-53.767
-52.665
-51.535
-50.376
-49.188
-47.972
-46.728
-45.455
-44.154
-42.826
-41.47
-40.088
-38.68
-37.246
-35.788
-34.306
-32.802
-31.277
-29.734
-28.175
-26.602
-25.019
-23.429
-21.834
-20.239
-18.647
-17.06
-15.482
-13.918
-12.371
-10.846
-9.348
-7.885
-6.464
-5.095
-3.785
-2.545
-1.383
-0.309
0.668
1.542
2.305
2.953
3.479
3.874
4.133
4.246
4.208
4.015
3.662
3.145
2.462
1.613
0.606
-0.554
-1.865
-3.331
-4.964
-6.77
-8.75
-10.901
-13.216
-15.687
-18.299
-21.024
-23.816
-26.629
-29.418
-32.144
-34.781
-37.293
-39.635
-41.75
-43.572
-45.046
-46.135
-46.816
-47.061
-46.866
-46.242
-45.235
-43.945
-42.482
-40.951
-39.46
-38.115
-37.016
-36.291
-36.107
-36.575
-37.761
-39.641
-42.036
-44.731
-47.518
-50.096
-52.085
-53.148
-53.005
-51.625
-49.41
-46.898
-44.587
-42.968
-42.515
-43.553
-46.239
-50.404
-54.459
-55.778
-52.141
-41.171
-22.428
2.27
33.325
71.556
119.364
182.231
260.829
353.136
455.245
557.593
653.2
735.628
796.388
831.469
835.718
805.169
741.831
647.279
528.475
398.197
268.857
156.736
73.546
20.064
-7.424
-19.354
-26.429
-30.566
-32.178
-30.758
-25.032
-19.192
-16.108
-14.962
-15.489
-15.547
-14.541
-14.72
-16.894
-21.34
-27.596
-34.008
-39.806
-44.633
-47.853
-49.359
-49.267
-47.696
-45.104
-41.919
-38.369
-34.85
-31.922
-29.919
-28.992
-29.15
-30.178
-31.88
-34.121
-36.657
-39.188
-41.477
-43.337
-44.674
-45.5
-45.82
-45.636
-44.98
-43.885
-42.399
-40.578
-38.464
-36.092
-33.502
-30.738
-27.857
-24.919
-21.983
-19.106
-16.324
-13.66
-11.126
-8.725
-6.455
-4.31
-2.275
-0.328
1.55
3.376
5.168
6.939
8.711
10.504
12.341
14.243
16.226
18.306
20.496
22.809
25.256
27.845
30.583
33.473
36.52
39.727
43.099
46.636
50.338
54.202
58.224
62.397
66.712
71.16
75.724
80.39
85.139
89.952
94.807
99.681
104.55
109.389
114.17
118.866
123.451
127.895
132.172
136.253
140.11
143.718
147.048
150.078
152.782
155.139
157.128
158.731
159.929
160.709
161.057
160.964
160.421
159.423
157.967
156.053
153.683
150.864
147.604
143.913
139.807
135.301
130.415
125.17
119.59
113.7
107.527
101.1
94.45
87.608
80.606
73.478
66.255
58.973
51.665
44.364
37.102
29.912
22.825
15.871
9.079
2.476
-3.912
-10.06
-15.948
-21.553
-26.859
-31.849
-36.51
-40.831
-44.803
-48.421
-51.68
-54.581
-57.124
-59.313
-61.156
-62.66
-63.837
-64.699
-65.261
-65.541
-65.555
-65.323
-64.866
-64.205
-63.363
-62.362
-61.226
-59.978
-58.642
-57.24
-55.796
-54.332
-52.87
-51.43
-50.033
-48.697
-47.44
-46.278
-45.225
-44.295
-43.498
-42.846
-42.344
-41.999
-41.814
-41.792
-41.932
-42.231
-42.687
-43.292
-44.039
-44.92
-45.922
-47.033
-48.24
-49.528
-50.88
-52.281
-53.714
-55.159
-56.599
-58.015
-59.389
-60.703
-61.938
-63.076
-64.1
-64.993
-65.74
-66.326
-66.737
-66.96
-66.984
-66.799
-66.397
-65.77
-64.914
-63.825
-62.502
-60.945
-59.156
-57.139
-54.9
-52.447
-49.79
-46.938
-43.905
-40.706
-37.354
-33.868
-30.265
-26.564
-22.784
-18.947
-15.072
-11.181
-7.297
-3.44
0.367
4.103
7.746
11.275
14.669
17.91
20.977
23.852
26.518
28.96
31.162
33.111
34.796
36.206
37.332
38.169
38.71
38.953
38.896
38.54
37.885
36.937
35.699
34.181
32.389
30.334
28.028
25.482
22.711
19.729
16.552
13.197
9.681
6.021
2.236
-1.655
-5.633
-9.679
-13.773
-17.897
-22.031
-26.155
-30.253
-34.306
-38.296
-42.208
-46.024
-49.731
-53.314
-56.761
-60.059
-63.197
-66.167
-68.96
-71.57
-73.99
-76.215
-78.244
-80.072
-81.701
-83.128
-84.356
-85.386
-86.221
-86.865
-87.323
-87.6
-87.702
-87.636
-87.41
-87.03
-86.506
-85.846
-85.058
-84.152
-83.137
-82.022
-80.817
-79.531
-78.173
-76.755
-75.283
-73.767
-72.216
-70.638
-69.04
-67.428
-65.809
-64.189
-62.572
-60.964
-59.369
-57.791
-56.232
-54.696
-53.184
-51.698
-50.24
-48.81
-47.408
-46.034
-44.689
-43.373
-42.086
-40.827
-39.597
-38.394
-37.219
-36.071
-34.949
-33.854
-32.784
-31.74
-30.722
-29.73
-28.767
-27.833
-26.931
-26.065
-25.241
-24.464
-23.74
-23.078
-22.485
-21.972
-21.545
-21.212
-20.979
-20.853
-20.838
-20.941
-21.168
-21.523
-22.012
-22.639
-23.408
-24.323
-25.381
-26.574
-27.892
-29.327
-30.874
-32.538
-34.322
-36.227
-38.255
-40.405
-42.674
-45.054
-47.526
-50.049
-52.583
-55.088
-57.537
-59.922
-62.227
-64.426
-66.478
-68.32
-69.892
-71.148
-72.036
-72.495
-72.518
-72.151
-71.502
-70.758
-70.088
-69.62
-69.454
-69.676
-70.232
-70.942
-71.604
-71.997
-71.961
-71.422
-70.313
-68.515
-66.127
-63.503
-60.913
-58.542
-56.494
-54.802
-53.651
-53.479
-54.618
-57.104
-60.991
-66.459
-73.095
-79.815
-85.419
-87.994
-86.878
-83.002
-75.86
-64.191
-43.978
-8.952
44.449
117.845
208.477
310.621
419.786
529.826
635.089
728.26
798.429
836.279
834.554
791.813
713.028
606.881
484.67
356.583
233.314
123.899
34.106
-31.316
-73.784
-97.047
-103.937
-100.443
-90.118
-76.761
-67.38
-64.309
-67.868
-75.976
-82.223
-83.902
-81.561
-77.166
-74.636
-75.425
-78.754
-83.546
-88.388
-92.678
-96.29
-98.917
-100.49
-101.065
-100.776
-99.898
-98.623
-97.117
-95.737
-94.915
-94.911
-95.789
-97.454
-99.721
-102.414
-105.375
-108.36
-111.055
-113.249
-114.835
-115.783
-116.13
-115.907
-115.123
-113.819
-112.066
-109.924
-107.449
-104.687
-101.662
-98.424
-95.034
-91.556
-88.057
-84.585
-81.164
-77.81
-74.532
-71.33
-68.2
-65.131
-62.102
-59.098
-56.106
-53.114
-50.11
-47.082
-44.01
-40.878
-37.665
-34.357
-30.941
-27.408
-23.747
-19.953
-16.021
-11.948
-7.735
-3.382
1.113
5.748
10.522
15.433
20.474
25.638
30.917
36.299
41.77
47.314
52.913
58.547
64.196
69.836
75.443
80.992
86.457
91.811
97.026
102.075
106.928
111.557
115.935
120.035
123.828
127.291
130.397
133.125
135.453
137.361
138.833
139.853
140.409
140.489
140.086
139.195
137.814
135.943
133.586
130.75
127.445
123.685
119.486
114.866
109.847
104.455
98.716
92.66
86.318
79.723
72.911
65.918
58.781
51.541
44.235
36.905
29.59
22.331
15.167
8.137
1.279
-5.37
-11.774
-17.898
-23.712
-29.184
-34.287
-38.995
-43.285
-47.138
-50.537
-53.466
-55.916
-57.879
-59.35
-60.329
-60.817
-60.82
-60.345
-59.405
-58.012
-56.184
-53.941
-51.304
-48.297
-44.947
-41.282
-37.332
-33.127
-28.7
-24.085
-19.315
-14.425
-9.449
-4.423
0.62
5.644
10.618
15.508
20.283
24.914
29.373
33.632
37.668
41.459
44.983
48.223
51.164
53.792
56.097
58.069
59.704
60.997
61.948
62.557
62.828
62.765
62.377
61.672
60.662
59.359
57.776
55.93
53.837
51.514
48.98
46.253
43.354
40.302
37.118
33.821
30.432
26.97
23.455
19.904
16.335
12.765
9.209
5.683
2.199
-1.23
-4.593
-7.881
-11.084
-14.197
-17.213
-20.127
-22.937
-25.64
-28.235
-30.722
-33.103
-35.38
-37.554
-39.63
-41.612
-43.506
-45.315
-47.047
-48.707
-50.302
-51.839
-53.324
-54.763
-56.162
-57.529
-58.867
-60.184
-61.482
-62.767
-64.042
-65.311
-66.575
-67.837
-69.098
-70.357
-71.616
-72.873
-74.126
-75.375
-76.615
-77.845
-79.061
-80.259
-81.435
-82.585
-83.704
-84.787
-85.83
-86.827
-87.774
-88.666
-89.499
-90.267
-90.966
-91.594
-92.146
-92.62
-93.013
-93.323
-93.549
-93.691
-93.747
-93.718
-93.605
-93.41
-93.133
-92.779
-92.349
-91.848
-91.278
-90.646
-89.954
-89.208
-88.412
-87.572
-86.694
-85.782
-84.842
-83.88
-82.9
-81.909
-80.91
-79.91
-78.913
-77.922
-76.941
-75.974
-75.024
-74.092
-73.181
-72.292
-71.425
-70.581
-69.76
-68.96
-68.18
-67.418
-66.671
-65.936
-65.211
-64.49
-63.771
-63.048
-62.319
-61.578
-60.821
-60.044
-59.243
-58.413
-57.551
-56.651
-55.711
-54.726
-53.693
-52.609
-51.473
-50.281
-49.033
-47.727
-46.365
-44.945
-43.469
-41.939
-40.358
-38.727
-37.05
-35.333
-33.58
-31.798
-29.993
-28.172
-26.344
-24.516
-22.697
-20.896
-19.123
-17.387
-15.698
-14.066
-12.5
-11.012
-9.612
-8.312
-7.124
-6.06
-5.134
-4.357
-3.742
-3.3
-3.042
-2.979
-3.116
-3.46
-4.017
-4.792
-5.79
-7.015
-8.47
-10.155
-12.069
-14.209
-16.572
-19.15
-21.931
-24.902
-28.049
-31.363
-34.844
-38.486
-42.28
-46.21
-50.256
-54.397
-58.606
-62.847
-67.067
-71.211
-75.224
-79.054
-82.662
-86.003
-89.028
-91.673
-93.86
-95.521
-96.606
-97.078
-96.918
-96.109
-94.657
-92.606
-90.039
-87.057
-83.77
-80.272
-76.658
-73.043
-69.532
-66.271
-63.438
-61.146
-59.465
-58.361
-57.632
-57.063
-56.438
-55.404
-53.53
-50.454
-45.847
-39.71
-32.519
-24.751
-16.83
-9.332
-2.778
2.452
5.897
8.128
11.32
17.604
29.155
47.086
69.856
96.607
128.614
168.646
222.506
295.477
387.632
496.234
615.006
733.77
844.832
939.82
1008.858
1046.698
1047.966
1010.316
937.886
834.541
708.255
570.443
432.411
307.988
207.385
135.145
90.055
65.752
56.472
56.44
62.213
71.058
77.199
77.997
72.65
62.684
54.057
49.573
48.922
50.328
49.954
46.309
40.127
32.459
24.805
17.885
11.94
7.414
4.406
2.82
2.519
3.185
4.565
6.435
8.301
9.579
9.918
9.199
7.498
5.015
1.898
-1.731
-5.641
-9.557
-13.268
-16.652
-19.725
-22.56
-25.179
-27.574
-29.707
-31.526
-33.025
-34.216
-35.102
-35.693
-35.994
-36.013
-35.794
-35.375
-34.777
-34.006
-33.016
-31.759
-30.223
-28.41
-26.356
-24.119
-21.729
-19.197
-16.55
-13.798
-10.95
-8.015
-4.978
-1.817
1.473
4.884
8.391
11.963
15.593
19.281
23.038
26.886
30.836
34.894
39.072
43.377
47.805
52.352
56.999
61.719
66.495
71.31
76.151
81.006
85.856
90.679
95.452
100.152
104.753
109.229
113.552
117.696
121.637
125.353
128.827
132.042
134.982
137.631
139.976
142.002
143.698
145.053
146.057
146.702
146.982
146.893
146.435
145.608
144.415
142.861
140.952
138.698
136.108
133.194
129.97
126.451
122.652
118.592
114.289
109.763
105.034
100.122
95.051
89.84
84.513
79.09
73.593
68.044
62.462
56.867
51.279
45.715
40.193
34.729
29.338
24.035
18.832
13.74
8.769
3.928
-0.776
-5.338
-9.752
-14.018
-18.131
-22.093
-25.904
-29.564
-33.077
-36.446
-39.675
-42.769
-45.734
-48.575
-51.3
-53.914
-56.425
-58.84
-61.166
-63.41
-65.58
-67.683
-69.724
-71.711
-73.648
-75.542
-77.396
-79.216
-81.003
-82.762
-84.493
-86.199
-87.879
-89.534
-91.162
-92.762
-94.332
-95.868
-97.366
-98.824
-100.236
-101.598
-102.905
-104.151
-105.331
-106.44
-107.471
-108.42
-109.281
-110.047
-110.715
-111.278
-111.733
-112.073
-112.296
-112.396
-112.372
-112.22
-111.938
-111.523
-110.976
-110.295
-109.48
-108.532
-107.453
-106.245
-104.911
-103.454
-101.88
-100.193
-98.399
-96.504
-94.516
-92.441
-90.288
-88.064
-85.778
-83.439
-81.057
-78.639
-76.196
-73.737
-71.273
-68.812
-66.364
-63.94
-61.548
-59.199
-56.902
-54.666
-52.5
-50.414
-48.415
-46.514
-44.716
-43.031
-41.465
-40.024
-38.716
-37.544
-36.514
-35.629
-34.893
-34.309
-33.878
-33.602
-33.482
-33.517
-33.708
-34.052
-34.549
-35.195
-35.989
-36.925
-38.001
-39.212
-40.553
-42.018
-43.602
-45.297
-47.096
-48.993
-50.979
-53.045
-55.182
-57.382
-59.633
-61.927
-64.253
-66.601
-68.961
-71.322
-73.675
-76.009
-78.314
-80.581
-82.8
-84.964
-87.062
-89.087
-91.031
-92.887
-94.648
-96.308
-97.862
-99.303
-100.627
-101.83
-102.909
-103.86
-104.681
-105.371
-105.928
-106.353
-106.646
-106.808
-106.842
-106.75
-106.537
-106.208
-105.766
-105.218
-104.57
-103.828
-103.001
-102.094
-101.115
-100.073
-98.976
-97.831
-96.646
-95.428
-94.187
-92.928
-91.658
-90.384
-89.112
-87.848
-86.597
-85.364
-84.153
-82.969
-81.815
-80.694
-79.608
-78.559
-77.547
-76.571
-75.632
-74.727
-73.854
-73.008
-72.186
-71.382
-70.592
-69.809
-69.027
-68.238
-67.434
-66.609
-65.753
-64.86
-63.92
-62.927
-61.873
-60.752
-59.558
-58.284
-56.928
-55.483
-53.947
-52.317
-50.591
-48.768
-46.846
-44.828
-42.715
-40.511
-38.22
-35.848
-33.403
-30.895
-28.336
-25.74
-23.122
-20.498
-17.886
-15.307
-12.779
-10.322
-7.954
-5.693
-3.556
-1.562
0.271
1.927
3.388
4.641
5.675
6.478
7.047
7.379
7.476
7.34
6.969
6.355
5.492
4.373
2.993
1.351
-0.553
-2.708
-5.093
-7.673
-10.415
-13.287
-16.272
-19.351
-22.496
-25.672
-28.829
-31.906
-34.851
-37.596
-40.05
-42.162
-43.939
-45.452
-46.87
-48.359
-50.02
-51.975
-54.388
-57.309
-60.642
-64.13
-67.323
-69.838
-71.518
-72.192
-71.555
-69.469
-66.041
-61.646
-57.023
-52.868
-49.504
-47.322
-47.071
-49.369
-54.546
-62.683
-73.253
-85.463
-98.926
-112.505
-123.655
-129.91
-128.747
-118.561
-100.557
-75.778
-43.363
-1.577
53.961
127.854
220.022
328.123
446.744
566.011
678.072
774.853
846.961
889.255
896.168
863.122
791.507
684.602
551.106
406.992
268.109
149.416
61.847
5.546
-24.129
-33.999
-34.036
-29.416
-24.176
-23.717
-28.278
-37.813
-50.436
-59.908
-63.82
-62.186
-56.582
-51.846
-50.375
-51.908
-55.645
-59.855
-63.83
-67.976
-72.381
-76.717
-80.458
-83.216
-84.959
-85.873
-86.085
-85.647
-84.706
-83.651
-83.003
-83.067
-83.899
-85.422
-87.489
-89.95
-92.659
-95.359
-97.705
-99.477
-100.577
-100.966
-100.689
-99.781
-98.248
-96.14
-93.537
-90.496
-87.073
-83.313
-79.235
-74.887
-70.331
-65.627
-60.842
-56.024
-51.197
-46.38
-41.586
-36.815
-32.068
-27.338
-22.608
-17.869
-13.114
-8.336
-3.528
1.314
6.205
11.153
16.171
21.268
26.45
31.719
37.076
42.523
48.055
53.671
59.361
65.122
70.946
76.827
82.759
88.733
94.739
100.764
106.797
112.822
118.824
124.784
130.683
136.5
142.216
147.807
153.252
158.527
163.61
168.477
173.104
177.468
181.548
185.321
188.765
191.862
194.592
196.937
198.882
200.414
201.519
202.189
202.414
202.189
201.511
200.379
198.793
196.757
194.278
191.363
188.023
184.272
180.125
175.6
170.718
165.499
159.969
154.153
148.077
141.771
135.262
128.583
121.763
114.834
107.827
100.776
93.71
86.662
79.662
72.74
65.925
59.244
52.723
46.388
40.262
34.365
28.718
23.336
18.237
13.432
8.933
4.747
0.882
-2.66
-5.877
-8.768
-11.338
-13.592
-15.535
-17.178
-18.531
-19.606
-20.417
-20.98
-21.311
-21.428
-21.349
-21.093
-20.681
-20.133
-19.469
-18.71
-17.876
-16.987
-16.065
-15.126
-14.191
-13.277
-12.4
-11.577
-10.821
-10.147
-9.564
-9.085
-8.718
-8.47
-8.347
-8.354
-8.494
-8.769
-9.177
-9.72
-10.393
-11.194
-12.118
-13.159
-14.311
-15.565
-16.913
-18.347
-19.857
-21.432
-23.064
-24.74
-26.451
-28.186
-29.934
-31.684
-33.426
-35.15
-36.847
-38.507
-40.122
-41.685
-43.187
-44.623
-45.987
-47.274
-48.48
-49.601
-50.636
-51.581
-52.437
-53.203
-53.879
-54.467
-54.968
-55.384
-55.719
-55.975
-56.157
-56.268
-56.312
-56.295
-56.22
-56.094
-55.919
-55.703
-55.449
-55.163
-54.849
-54.513
-54.158
-53.79
-53.411
-53.027
-52.64
-52.253
-51.869
-51.49
-51.119
-50.758
-50.407
-50.067
-49.74
-49.425
-49.123
-48.832
-48.553
-48.285
-48.025
-47.773
-47.527
-47.285
-47.046
-46.808
-46.568
-46.326
-46.078
-45.824
-45.562
-45.289
-45.004
-44.705
-44.392
-44.063
-43.718
-43.355
-42.974
-42.576
-42.159
-41.725
-41.273
-40.804
-40.32
-39.822
-39.311
-38.789
-38.259
-37.722
-37.183
-36.643
-36.107
-35.577
-35.059
-34.555
-34.07
-33.608
-33.173
-32.77
-32.402
-32.075
-31.793
-31.559
-31.378
-31.254
-31.192
-31.193
-31.263
-31.403
-31.617
-31.907
-32.276
-32.725
-33.256
-33.869
-34.567
-35.348
-36.211
-37.157
-38.183
-39.286
-40.463
-41.71
-43.022
-44.395
-45.821
-47.295
-48.809
-50.356
-51.927
-53.514
-55.108
-56.699
-58.276
-59.83
-61.349
-62.822
-64.238
-65.586
-66.854
-68.033
-69.109
-70.073
-70.914
-71.62
-72.182
-72.59
-72.835
-72.908
-72.8
-72.507
-72.023
-71.342
-70.463
-69.382
-68.1
-66.617
-64.935
-63.057
-60.987
-58.732
-56.299
-53.697
-50.937
-48.031
-44.993
-41.84
-38.588
-35.257
-31.866
-28.438
-24.995
-21.562
-18.163
-14.821
-11.56
-8.404
-5.375
-2.497
0.209
2.721
5.02
7.087
8.902
10.447
11.709
12.682
13.362
13.749
13.838
13.62
13.088
12.24
11.074
9.59
7.79
5.679
3.273
0.61
-2.268
-5.315
-8.489
-11.768
-15.132
-18.553
-21.985
-25.365
-28.63
-31.722
-34.595
-37.195
-39.455
-41.365
-42.981
-44.44
-45.937
-47.65
-49.697
-52.161
-55.127
-58.525
-62.19
-65.937
-69.447
-72.463
-74.818
-76.337
-76.926
-76.759
-76.121
-75.201
-74.29
-73.568
-73.251
-73.771
-75.415
-78.249
-82.239
-87.39
-93.789
-101.165
-108.224
-112.986
-113.277
-108.133
-98.553
-85.814
-70.255
-48.805
-15.187
37.539
114.953
216.891
338.176
469.957
600.813
721.247
822.395
896.23
935.93
934.107
886.161
791.753
656.425
493.996
323.811
166.711
41.054
-43.378
-87.563
-99.08
-90.339
-73.922
-57.225
-45.923
-42.59
-45.363
-52.281
-59.01
-60.71
-56.71
-48.247
-38.562
-31.653
-28.631
-28.843
-31.038
-33.857
-37.132
-41.066
-45.415
-49.805
-53.655
-56.633
-58.841
-60.331
-61.111
-61.321
-61.203
-61.175
-61.749
-63.157
-65.382
-68.337
-71.83
-75.652
-79.592
-83.378
-86.729
-89.488
-91.596
-93.046
-93.899
-94.203
-93.998
-93.343
-92.3
-90.915
-89.23
-87.283
-85.118
-82.787
-80.353
-77.862
-75.343
-72.815
-70.284
-67.751
-65.205
-62.632
-60.008
-57.316
-54.546
-51.685
-48.724
-45.648
-42.441
-39.085
-35.565
-31.865
-27.972
-23.877
-19.571
-15.052
-10.32
-5.375
-0.223
5.133
10.687
16.436
22.373
28.488
34.773
41.214
47.799
54.511
61.331
68.237
75.207
82.218
89.242
96.253
103.223
110.122
116.92
123.587
130.09
136.398
142.478
148.3
153.831
159.04
163.9
168.379
172.452
176.093
179.279
181.988
184.201
185.902
187.076
187.712
187.8
187.336
186.315
184.739
182.609
179.931
176.715
172.971
168.716
163.967
158.744
153.069
146.967
140.467
133.597
126.389
118.875
111.09
103.068
94.847
86.463
77.955
69.358
60.712
52.053
43.418
34.842
26.361
18.007
9.812
1.807
-5.981
-13.524
-20.799
-27.783
-34.458
-40.805
-46.811
-52.462
-57.749
-62.665
-67.204
-71.365
-75.147
-78.552
-81.584
-84.251
-86.561
-88.524
-90.153
-91.46
-92.462
-93.173
-93.612
-93.797
-93.745
-93.477
-93.012
-92.369
-91.569
-90.63
-89.57
-88.41
-87.165
-85.853
-84.489
-83.089
-81.665
-80.23
-78.796
-77.371
-75.966
-74.587
-73.239
-71.929
-70.659
-69.432
-68.248
-67.108
-66.01
-64.953
-63.933
-62.948
-61.992
-61.062
-60.151
-59.256
-58.369
-57.485
-56.599
-55.706
-54.798
-53.872
-52.923
-51.946
-50.939
-49.897
-48.818
-47.702
-46.547
-45.353
-44.121
-42.852
-41.548
-40.212
-38.848
-37.459
-36.052
-34.631
-33.202
-31.771
-30.347
-28.936
-27.545
-26.182
-24.854
-23.57
-22.336
-21.16
-20.049
-19.008
-18.046
-17.167
-16.377
-15.68
-15.08
-14.582
-14.187
-13.898
-13.715
-13.64
-13.672
-13.809
-14.051
-14.395
-14.837
-15.375
-16.004
-16.719
-17.515
-18.387
-19.327
-20.329
-21.387
-22.494
-23.641
-24.823
-26.032
-27.26
-28.501
-29.748
-30.994
-32.233
-33.46
-34.667
-35.851
-37.006
-38.128
-39.213
-40.258
-41.26
-42.218
-43.128
-43.992
-44.807
-45.575
-46.295
-46.968
-47.597
-48.182
-48.727
-49.233
-49.705
-50.145
-50.557
-50.946
-51.315
-51.668
-52.011
-52.346
-52.679
-53.013
-53.351
-53.699
-54.06
-54.437
-54.834
-55.253
-55.699
-56.173
-56.678
-57.216
-57.788
-58.396
-59.039
-59.719
-60.435
-61.186
-61.973
-62.793
-63.645
-64.526
-65.434
-66.366
-67.317
-68.283
-69.259
-70.24
-71.221
-72.196
-73.158
-74.103
-75.023
-75.913
-76.766
-77.576
-78.335
-79.038
-79.676
-80.244
-80.733
-81.137
-81.449
-81.662
-81.769
-81.766
-81.645
-81.401
-81.029
-80.524
-79.881
-79.096
-78.167
-77.09
-75.864
-74.488
-72.962
-71.29
-69.472
-67.512
-65.414
-63.184
-60.826
-58.347
-55.755
-53.058
-50.264
-47.385
-44.431
-41.415
-38.35
-35.253
-32.139
-29.027
-25.932
-22.876
-19.878
-16.958
-14.14
-11.444
-8.888
-6.494
-4.28
-2.265
-0.467
1.098
2.414
3.47
4.252
4.748
4.948
4.846
4.445
3.747
2.758
1.48
-0.093
-1.962
-4.123
-6.569
-9.291
-12.279
-15.517
-18.98
-22.621
-26.386
-30.224
-34.088
-37.955
-41.801
-45.594
-49.286
-52.81
-56.098
-59.093
-61.756
-64.041
-65.894
-67.319
-68.388
-69.247
-70.108
-71.161
-72.523
-74.278
-76.495
-79.096
-81.923
-84.794
-87.395
-89.466
-90.814
-91.237
-90.625
-89.133
-87.005
-84.413
-81.632
-78.839
-76.283
-74.437
-73.603
-73.858
-75.165
-77.474
-80.792
-84.755
-88.057
-88.844
-85.144
-76.347
-63.498
-47.381
-28.103
-2.185
36.37
92.263
169.529
266.482
377.245
496.257
614.884
726.034
822.997
895.316
934.19
931.645
882.435
788.838
658
502.671
340.708
189.622
65.565
-20.78
-68.88
-83.7
-75.13
-55.965
-34.295
-17.1
-10.317
-14.048
-27.529
-47.461
-65.607
-76.674
-78.515
-70.768
-58.749
-48.211
-41.629
-40.954
-44.968
-50.619
-56.618
-61.702
-65.365
-68.235
-70.417
-71.909
-72.719
-72.61
-71.628
-70.124
-68.537
-67.391
-66.961
-67.272
-68.289
-69.864
-71.825
-73.992
-76.078
-77.779
-78.925
-79.438
-79.313
-78.614
-77.383
-75.647
-73.476
-70.938
-68.092
-64.991
-61.669
-58.159
-54.51
-50.783
-47.038
-43.326
-39.671
-36.087
-32.577
-29.135
-25.752
-22.413
-19.093
-15.773
-12.439
-9.073
-5.662
-2.192
1.357
5.005
8.771
12.674
16.729
20.945
25.332
29.895
34.637
39.559
44.657
49.929
55.373
60.982
66.754
72.678
78.747
84.947
91.265
97.685
104.187
110.75
117.351
123.965
130.565
137.125
143.615
150.004
156.263
162.361
168.265
173.944
179.367
184.504
189.325
193.8
197.903
201.609
204.893
207.735
210.114
212.014
213.42
214.32
214.705
214.569
213.906
212.717
211.002
208.767
206.017
202.763
199.018
194.798
190.12
185.006
179.478
173.561
167.284
160.676
153.766
146.589
139.177
131.565
123.788
115.882
107.884
99.828
91.75
83.686
75.669
67.732
59.907
52.226
44.716
37.405
30.319
23.482
16.915
10.638
4.67
-0.975
-6.282
-11.241
-15.842
-20.078
-23.945
-27.44
-30.563
-33.316
-35.703
-37.731
-39.407
-40.743
-41.748
-42.438
-42.826
-42.93
-42.766
-42.352
-41.709
-40.855
-39.81
-38.595
-37.231
-35.738
-34.137
-32.448
-30.69
-28.884
-27.048
-25.201
-23.359
-21.54
-19.76
-18.034
-16.375
-14.797
-13.312
-11.931
-10.663
-9.517
-8.499
-7.616
-6.872
-6.269
-5.81
-5.496
-5.326
-5.298
-5.41
-5.658
-6.037
-6.543
-7.169
-7.909
-8.754
-9.698
-10.732
-11.847
-13.034
-14.285
-15.59
-16.941
-18.326
-19.738
-21.166
-22.601
-24.034
-25.457
-26.86
-28.234
-29.573
-30.869
-32.115
-33.304
-34.432
-35.492
-36.482
-37.395
-38.231
-38.986
-39.659
-40.247
-40.752
-41.173
-41.51
-41.764
-41.939
-42.034
-42.054
-42.001
-41.877
-41.688
-41.437
-41.128
-40.766
-40.356
-39.903
-39.413
-38.891
-38.342
-37.774
-37.191
-36.6
-36.006
-35.416
-34.833
-34.264
-33.715
-33.188
-32.69
-32.225
-31.796
-31.406
-31.061
-30.761
-30.511
-30.311
-30.164
-30.072
-30.035
-30.054
-30.131
-30.265
-30.457
-30.706
-31.011
-31.371
-31.785
-32.252
-32.768
-33.333
-33.942
-34.593
-35.284
-36.01
-36.768
-37.555
-38.367
-39.199
-40.05
-40.913
-41.787
-42.666
-43.547
-44.428
-45.303
-46.17
-47.025
-47.866
-48.689
-49.492
-50.271
-51.026
-51.752
-52.448
-53.112
-53.742
-54.334
-54.889
-55.404
-55.879
-56.312
-56.702
-57.049
-57.352
-57.612
-57.828
-57.999
-58.127
-58.211
-58.251
-58.247
-58.199
-58.107
-57.972
-57.793
-57.57
-57.305
-56.995
-56.642
-56.244
-55.802
-55.315
-54.782
-54.203
-53.577
-52.905
-52.186
-51.42
-50.608
-49.751
-48.847
-47.899
-46.907
-45.872
-44.794
-43.675
-42.517
-41.324
-40.096
-38.839
-37.557
-36.256
-34.942
-33.623
-32.306
-30.999
-29.713
-28.458
-27.246
-26.089
-24.996
-23.979
-23.049
-22.218
-21.495
-20.893
-20.421
-20.087
-19.9
-19.869
-20.005
-20.316
-20.805
-21.471
-22.311
-23.325
-24.522
-25.908
-27.487
-29.257
-31.218
-33.364
-35.69
-38.185
-40.82
-43.56
-46.362
-49.187
-52.014
-54.826
-57.614
-60.357
-63.001
-65.494
-67.788
-69.837
-71.626
-73.14
-74.34
-75.269
-76.038
-76.782
-77.741
-79.121
-80.965
-83.322
-86.22
-89.513
-93.107
-96.901
-100.511
-103.6
-106.05
-107.674
-108.446
-108.644
-108.271
-107.242
-105.873
-104.464
-103.262
-102.775
-103.301
-104.782
-107.474
-111.845
-117.42
-122.99
-127.248
-128.14
-125.078
-119.544
-111.435
-99.814
-81.413
-49.497
0.038
69.418
158.25
261.357
374.482
491.682
604.635
705.437
782.654
825.485
826.798
781.927
693.066
568.202
419.411
264.397
120.986
3.417
-79.056
-127.357
-147.676
-146.697
-133.092
-111.323
-85.501
-63.105
-47.044
-39.122
-38.252
-37.648
-34.455
-28.716
-22.074
-19.211
-21.858
-28.882
-38.684
-48.747
-57.534
-64.704
-69.886
-73.057
-74.474
-74.399
-73.272
-71.589
-69.787
-68.331
-67.694
-68.13
-69.65
-72.144
-75.394
-79.166
-83.228
-87.29
-91.058
-94.355
-97.108
-99.306
-100.982
-102.15
-102.825
-103.053
-102.889
-102.38
-101.558
-100.441
-99.053
-97.437
-95.649
-93.752
-91.792
-89.792
-87.769
-85.728
-83.673
-81.601
-79.499
-77.343
-75.116
-72.802
-70.388
-67.861
-65.204
-62.396
-59.416
-56.242
-52.857
-49.246
-45.395
-41.292
-36.931
-32.307
-27.416
-22.26
-16.838
-11.151
-5.2
1.01
7.475
14.186
21.134
28.306
35.688
43.261
51.006
58.9
66.919
75.036
83.224
91.451
99.686
107.897
116.048
124.106
132.034
139.796
147.354
154.673
161.716
168.447
174.833
180.839
186.433
191.585
196.266
200.45
204.111
207.229
209.782
211.756
213.136
213.91
214.072
213.616
212.54
210.848
208.543
205.635
202.135
198.058
193.421
188.246
182.557
176.378
169.74
162.672
155.207
147.381
139.229
130.788
122.097
113.196
104.124
94.922
85.63
76.287
66.935
57.61
48.353
39.199
30.184
21.343
12.707
4.308
-3.826
-11.668
-19.194
-26.382
-33.213
-39.669
-45.736
-51.401
-56.657
-61.494
-65.91
-69.902
-73.47
-76.618
-79.349
-81.672
-83.595
-85.129
-86.286
-87.081
-87.528
-87.645
-87.45
-86.962
-86.199
-85.183
-83.933
-82.472
-80.82
-78.999
-77.028
-74.93
-72.725
-70.433
-68.072
-65.662
-63.221
-60.766
-58.312
-55.875
-53.469
-51.107
-48.801
-46.562
-44.401
-42.326
-40.344
-38.464
-36.689
-35.027
-33.479
-32.05
-30.742
-29.555
-28.491
-27.549
-26.728
-26.027
-25.445
-24.979
-24.626
-24.383
-24.247
-24.213
-24.279
-24.438
-24.688
-25.024
-25.441
-25.934
-26.499
-27.131
-27.825
-28.576
-29.38
-30.231
-31.125
-32.057
-33.022
-34.016
-35.034
-36.071
-37.123
-38.186
-39.255
-40.326
-41.395
-42.457
-43.509
-44.545
-45.562
-46.556
-47.524
-48.46
-49.361
-50.225
-51.046
-51.822
-52.55
-53.227
-53.85
-54.416
-54.923
-55.369
-55.753
-56.074
-56.329
-56.52
-56.644
-56.702
-56.694
-56.62
-56.481
-56.278
-56.01
-55.68
-55.289
-54.839
-54.332
-53.77
-53.157
-52.495
-51.787
-51.037
-50.249
-49.427
-48.574
-47.696
-46.796
-45.879
-44.951
-44.014
-43.074
-42.136
-41.202
-40.279
-39.368
-38.475
-37.603
-36.755
-35.935
-35.147
-34.395
-33.683
-33.014
-32.393
-31.823
-31.308
-30.851
-30.456
-30.127
-29.865
-29.674
-29.556
-29.512
-29.545
-29.655
-29.843
-30.11
-30.456
-30.881
-31.385
-31.965
-32.622
-33.355
-34.16
-35.038
-35.985
-36.999
-38.079
-39.219
-40.417
-41.666
-42.962
-44.296
-45.662
-47.049
-48.447
-49.847
-51.237
-52.605
-53.941
-55.233
-56.471
-57.643
-58.739
-59.747
-60.657
-61.455
-62.126
-62.66
-63.041
-63.257
-63.296
-63.142
-62.783
-62.209
-61.413
-60.384
-59.11
-57.576
-55.774
-53.703
-51.369
-48.78
-45.95
-42.895
-39.637
-36.215
-32.661
-29.006
-25.278
-21.49
-17.656
-13.793
-9.922
-6.068
-2.245
1.557
5.352
9.15
12.967
16.819
20.737
24.776
28.979
33.364
37.937
42.669
47.526
52.479
57.496
62.535
67.545
72.448
77.161
81.626
85.782
89.569
92.909
95.698
97.86
99.355
100.172
100.323
99.825
98.702
96.99
94.742
92.008
88.828
85.208
81.156
76.7
71.831
66.506
60.633
54.085
46.824
38.894
30.309
21.027
11.097
0.748
-9.49
-18.952
-27.191
-33.997
-39.206
-42.598
-44.063
-43.853
-42.816
-42.187
-42.983
-45.772
-50.944
-58.409
-67.355
-76.544
-83.726
-87.196
-86.812
-82.392
-73.679
-57.555
-28.009
20.376
91.842
185.066
294.275
412.919
531.844
644.118
743.492
820.784
868.942
880.391
848.783
774.719
662.842
523.418
372.655
227.004
101.021
5.051
-58.353
-92.8
-104.239
-100.31
-87.737
-70.856
-55.174
-44.985
-41.261
-44.06
-49.863
-54.003
-55.667
-55.296
-54.728
-56.922
-62.136
-69.075
-76.49
-82.572
-86.154
-87.236
-86.041
-82.967
-78.628
-73.556
-68.131
-62.879
-58.47
-55.256
-53.383
-52.886
-53.564
-55.198
-57.657
-60.707
-64.01
-67.326
-70.454
-73.231
-75.623
-77.606
-79.13
-80.197
-80.831
-81.048
-80.892
-80.409
-79.621
-78.564
-77.282
-75.81
-74.204
-72.519
-70.805
-69.113
-67.476
-65.906
-64.414
-62.996
-61.641
-60.333
-59.046
-57.747
-56.408
-55.002
-53.503
-51.888
-50.131
-48.202
-46.077
-43.732
-41.146
-38.301
-35.183
-31.778
-28.075
-24.069
-19.755
-15.132
-10.201
-4.963
0.581
6.424
12.559
18.977
25.665
32.608
39.79
47.189
54.783
62.544
70.447
78.459
86.551
94.687
102.833
110.953
119.009
126.965
134.781
142.42
149.843
157.014
163.896
170.453
176.651
182.457
187.841
192.772
197.225
201.175
204.601
207.482
209.804
211.551
212.713
213.283
213.255
212.628
211.403
209.585
207.182
204.205
200.668
196.588
191.984
186.88
181.299
175.27
168.821
161.983
154.788
147.272
139.469
131.416
123.149
114.705
106.122
97.437
88.687
79.909
71.138
62.409
53.756
45.212
36.807
28.571
20.533
12.718
5.152
-2.143
-9.146
-15.839
-22.204
-28.228
-33.899
-39.206
-44.142
-48.701
-52.88
-56.678
-60.095
-63.135
-65.801
-68.101
-70.042
-71.633
-72.886
-73.814
-74.428
-74.744
-74.777
-74.542
-74.056
-73.336
-72.398
-71.261
-69.941
-68.456
-66.824
-65.062
-63.189
-61.219
-59.172
-57.062
-54.907
-52.72
-50.518
-48.314
-46.122
-43.954
-41.824
-39.742
-37.718
-35.763
-33.886
-32.094
-30.396
-28.797
-27.303
-25.92
-24.652
-23.502
-22.475
-21.572
-20.796
-20.148
-19.63
-19.241
-18.983
-18.855
-18.856
-18.984
-19.24
-19.619
-20.121
-20.742
-21.48
-22.331
-23.292
-24.358
-25.526
-26.79
-28.147
-29.591
-31.117
-32.721
-34.396
-36.139
-37.942
-39.801
-41.71
-43.663
-45.656
-47.681
-49.734
-51.809
-53.901
-56.002
-58.109
-60.215
-62.316
-64.405
-66.477
-68.528
-70.552
-72.546
-74.503
-76.42
-78.293
-80.117
-81.89
-83.608
-85.267
-86.865
-88.399
-89.868
-91.268
-92.599
-93.859
-95.047
-96.162
-97.204
-98.172
-99.066
-99.886
-100.634
-101.31
-101.915
-102.451
-102.919
-103.32
-103.658
-103.933
-104.149
-104.308
-104.412
-104.465
-104.469
-104.428
-104.344
-104.222
-104.065
-103.877
-103.661
-103.42
-103.16
-102.883
-102.594
-102.296
-101.992
-101.688
-101.385
-101.089
-100.801
-100.526
-100.267
-100.025
-99.804
-99.605
-99.43
-99.282
-99.161
-99.069
-99.006
-98.974
-98.972
-99
-99.06
-99.148
-99.265
-99.409
-99.578
-99.769
-99.98
-100.208
-100.447
-100.695
-100.948
-101.199
-101.444
-101.677
-101.894
-102.088
-102.253
-102.383
-102.472
-102.513
-102.503
-102.434
-102.301
-102.1
-101.827
-101.477
-101.046
-100.532
-99.931
-99.241
-98.46
-97.587
-96.622
-95.566
-94.42
-93.187
-91.871
-90.476
-89.009
-87.48
-85.896
-84.267
-82.605
-80.922
-79.232
-77.547
-75.882
-74.25
-72.664
-71.139
-69.692
-68.337
-67.088
-65.961
-64.972
-64.133
-63.46
-62.963
-62.653
-62.533
-62.61
-62.89
-63.376
-64.081
-65.009
-66.158
-67.526
-69.106
-70.884
-72.843
-74.95
-77.161
-79.433
-81.72
-83.983
-86.191
-88.303
-90.279
-92.076
-93.635
-94.906
-95.85
-96.426
-96.606
-96.382
-95.75
-94.748
-93.463
-91.974
-90.36
-88.691
-87
-85.347
-83.808
-82.449
-81.351
-80.565
-80.128
-80.14
-80.647
-81.581
-82.796
-83.971
-84.673
-84.545
-83.171
-80.02
-74.743
-67.207
-57.52
-46.179
-33.865
-21.256
-9.115
1.616
10.676
18.89
27.502
38.181
51.294
65.391
79.938
96.043
118.477
154.568
209.377
285.233
378.734
482.984
592.289
699.4
798.415
882.947
942.955
970.915
961.11
910.976
824.434
707.523
569.493
424.265
286.061
168.924
83.602
31.046
6.651
3.071
9.751
20.858
31.742
35.729
31.534
18.642
-1.024
-19.938
-34.433
-43.517
-47.78
-51.292
-55.695
-60.23
-63.972
-65.353
-64.054
-60.959
-56.839
-52.436
-48.305
-44.773
-42.168
-40.664
-40.24
-40.789
-42.147
-44.182
-46.778
-49.781
-53.037
-56.411
-59.764
-62.973
-65.92
-68.472
-70.502
-71.936
-72.724
-72.848
-72.333
-71.21
-69.522
-67.335
-64.718
-61.741
-58.473
-54.979
-51.321
-47.568
-43.786
-40.043
-36.399
-32.895
-29.558
-26.402
-23.427
-20.625
-17.986
-15.489
-13.109
-10.824
-8.613
-6.458
-4.341
-2.243
-0.141
1.985
4.157
6.395
8.715
11.131
13.657
16.305
19.083
21.999
25.057
28.263
31.621
35.135
38.808
42.64
46.63
50.772
55.063
59.492
64.05
68.722
73.492
78.343
83.255
88.208
93.18
98.145
103.081
107.96
112.756
117.443
121.993
126.38
130.576
134.555
138.291
141.76
144.937
147.802
150.333
152.51
154.318
155.741
156.767
157.384
157.584
157.361
156.713
155.638
154.139
152.22
149.889
147.155
144.033
140.535
136.681
132.488
127.98
123.177
118.107
112.793
107.264
101.549
95.675
89.673
83.574
77.406
71.199
64.984
58.788
52.641
46.569
40.598
34.753
29.057
23.532
18.199
13.075
8.176
3.518
-0.889
-5.033
-8.907
-12.506
-15.825
-18.863
-21.622
-24.103
-26.312
-28.254
-29.938
-31.373
-32.572
-33.546
-34.311
-34.88
-35.271
-35.499
-35.582
-35.538
-35.384
-35.138
-34.818
-34.441
-34.025
-33.586
-33.14
-32.703
-32.288
-31.91
-31.581
-31.311
-31.111
-30.99
-30.955
-31.012
-31.166
-31.421
-31.78
-32.243
-32.811
-33.482
-34.253
-35.122
-36.084
-37.133
-38.262
-39.465
-40.733
-42.058
-43.432
-44.844
-46.286
-47.748
-49.221
-50.694
-52.157
-53.603
-55.021
-56.403
-57.74
-59.024
-60.249
-61.406
-62.491
-63.498
-64.42
-65.255
-65.998
-66.646
-67.196
-67.647
-67.996
-68.244
-68.389
-68.433
-68.376
-68.221
-67.968
-67.621
-67.183
-66.657
-66.046
-65.354
-64.586
-63.745
-62.836
-61.864
-60.832
-59.746
-58.611
-57.43
-56.208
-54.95
-53.66
-52.343
-51.002
-49.643
-48.268
-46.884
-45.493
-44.1
-42.71
-41.327
-39.955
-38.599
-37.264
-35.953
-34.671
-33.422
-32.21
-31.039
-29.914
-28.838
-27.816
-26.852
-25.949
-25.112
-24.344
-23.65
-23.032
-22.495
-22.043
-21.679
-21.407
-21.23
-21.152
-21.175
-21.303
-21.538
-21.882
-22.336
-22.902
-23.581
-24.373
-25.277
-26.293
-27.419
-28.654
-29.995
-31.44
-32.985
-34.627
-36.362
-38.184
-40.089
-42.072
-44.127
-46.246
-48.425
-50.656
-52.931
-55.243
-57.583
-59.943
-62.314
-64.686
-67.05
-69.397
-71.715
-73.995
-76.227
-78.4
-80.506
-82.534
-84.475
-86.32
-88.059
-89.685
-91.189
-92.563
-93.799
-94.889
-95.828
-96.609
-97.225
-97.672
-97.944
-98.038
-97.948
-97.671
-97.205
-96.548
-95.698
-94.653
-93.416
-91.986
-90.366
-88.56
-86.57
-84.403
-82.064
-79.56
-76.898
-74.087
-71.137
-68.059
-64.863
-61.561
-58.167
-54.693
-51.154
-47.568
-43.953
-40.328
-36.713
-33.131
-29.601
-26.149
-22.797
-19.564
-16.469
-13.53
-10.764
-8.191
-5.831
-3.7
-1.815
-0.188
1.171
2.252
3.052
3.57
3.813
3.789
3.5
2.942
2.108
0.992
-0.408
-2.089
-4.041
-6.249
-8.69
-11.333
-14.147
-17.105
-20.176
-23.333
-26.545
-29.775
-32.98
-36.108
-39.08
-41.791
-44.175
-46.226
-48.002
-49.639
-51.252
-52.892
-54.633
-56.611
-58.881
-61.365
-63.819
-65.753
-66.794
-66.914
-66.145
-64.5
-62.03
-58.814
-55.203
-51.991
-49.82
-48.787
-48.779
-49.606
-51.255
-54.015
-57.875
-62.43
-67.312
-72.45
-78.116
-84.131
-89.179
-91.363
-88.623
-80.353
-67.584
-50.639
-28.995
1.127
45.691
108.716
193.138
296.593
412.747
535.857
657.403
770.333
868.335
941.794
982.979
984.881
942.396
857.203
735.59
589.309
435.53
291.162
171.113
84.971
32.965
10.419
8.796
16.997
27.607
34.344
32.308
21.837
4.386
-16.861
-35.31
-46.613
-48.688
-40.81
-27.21
-13.201
-2.009
3.763
4.938
4.139
2.216
-0.06
-2.66
-6.299
-10.355
-14.165
-17.565
-20.126
-21.75
-22.63
-22.811
-22.626
-22.745
-23.529
-25.091
-27.45
-30.394
-33.714
-37.267
-40.784
-43.936
-46.533
-48.471
-49.739
-50.425
-50.587
-50.266
-49.535
-48.462
-47.111
-45.536
-43.772
-41.853
-39.823
-37.736
-35.647
-33.593
-31.593
-29.653
-27.768
-25.927
-24.115
-22.31
-20.485
-18.622
-16.702
-14.709
-12.628
-10.441
-8.125
-5.661
-3.027
-0.202
2.827
6.074
9.549
13.257
17.204
21.391
25.816
30.48
35.379
40.512
45.873
51.456
57.25
63.244
69.423
75.769
82.264
88.884
95.605
102.4
109.243
116.103
122.95
129.752
136.476
143.089
149.556
155.844
161.917
167.741
173.284
178.511
183.391
187.895
191.992
195.657
198.864
201.591
203.817
205.526
206.701
207.33
207.404
206.916
205.863
204.244
202.062
199.322
196.035
192.21
187.864
183.015
177.682
171.889
165.66
159.024
152.009
144.646
136.969
129.01
120.806
112.392
103.805
95.081
86.259
77.374
68.464
59.563
50.708
41.931
33.266
24.743
16.394
8.245
0.323
-7.348
-14.745
-21.848
-28.639
-35.103
-41.227
-46.999
-52.411
-57.456
-62.13
-66.431
-70.358
-73.915
-77.104
-79.933
-82.408
-84.54
-86.339
-87.818
-88.991
-89.874
-90.48
-90.829
-90.936
-90.82
-90.499
-89.991
-89.315
-88.488
-87.53
-86.459
-85.291
-84.044
-82.735
-81.378
-79.988
-78.581
-77.168
-75.763
-74.376
-73.018
-71.698
-70.426
-69.208
-68.053
-66.964
-65.948
-65.008
-64.146
-63.365
-62.666
-62.049
-61.512
-61.056
-60.678
-60.376
-60.147
-59.987
-59.892
-59.859
-59.884
-59.96
-60.085
-60.253
-60.459
-60.7
-60.971
-61.268
-61.587
-61.925
-62.278
-62.643
-63.018
-63.398
-63.783
-64.17
-64.558
-64.944
-65.328
-65.709
-66.087
-66.461
-66.832
-67.202
-67.57
-67.938
-68.307
-68.681
-69.059
-69.446
-69.844
-70.254
-70.681
-71.126
-71.593
-72.084
-72.601
-73.147
-73.723
-74.332
-74.973
-75.648
-76.358
-77.104
-77.884
-78.698
-79.547
-80.428
-81.34
-82.282
-83.25
-84.243
-85.257
-86.288
-87.334
-88.389
-89.45
-90.511
-91.567
-92.612
-93.641
-94.648
-95.626
-96.569
-97.47
-98.323
-99.12
-99.856
-100.525
-101.121
-101.637
-102.07
-102.415
-102.667
-102.822
-102.878
-102.831
-102.68
-102.423
-102.058
-101.587
-101.007
-100.322
-99.531
-98.638
-97.645
-96.554
-95.371
-94.099
-92.744
-91.312
-89.808
-88.24
-86.615
-84.94
-83.225
-81.477
-79.706
-77.919
-76.127
-74.336
-72.557
-70.797
-69.065
-67.366
-65.71
-64.103
-62.55
-61.058
-59.632
-58.277
-56.996
-55.793
-54.67
-53.63
-52.674
-51.801
-51.012
-50.305
-49.678
-49.13
-48.657
-48.254
-47.918
-47.643
-47.422
-47.249
-47.117
-47.018
-46.944
-46.887
-46.839
-46.793
-46.741
-46.675
-46.589
-46.476
-46.33
-46.146
-45.918
-45.642
-45.316
-44.935
-44.501
-44.011
-43.466
-42.868
-42.22
-41.528
-40.798
-40.038
-39.258
-38.469
-37.684
-36.915
-36.178
-35.485
-34.849
-34.283
-33.798
-33.409
-33.128
-32.969
-32.945
-33.066
-33.339
-33.771
-34.366
-35.121
-36.031
-37.089
-38.292
-39.643
-41.146
-42.804
-44.62
-46.591
-48.712
-50.969
-53.34
-55.788
-58.282
-60.79
-63.293
-65.778
-68.219
-70.588
-72.846
-74.939
-76.822
-78.432
-79.673
-80.502
-80.931
-81.041
-81.008
-80.989
-81.061
-81.336
-81.97
-83.021
-84.426
-85.911
-86.994
-87.35
-86.883
-85.524
-83.113
-79.46
-74.534
-68.672
-62.565
-56.746
-51.411
-46.662
-42.803
-40.478
-40.358
-42.799
-47.655
-54.687
-63.353
-72.463
-80.542
-85.338
-85.675
-82.187
-75.046
-63.724
-44.181
-9.052
47.57
128.82
231.746
348.857
472.769
595.6
712.238
817.165
900.977
955.635
971.959
944.024
874.214
766.742
631.22
481.362
329.355
189.734
75.258
-7.583
-56.637
-75.53
-73.994
-62.248
-49.263
-43.354
-46.466
-56.317
-69.206
-78.467
-81.142
-78.39
-72.749
-68.848
-68.925
-72.351
-77.827
-83.388
-88.221
-92.486
-96.079
-98.852
-100.48
-100.767
-99.939
-98.294
-96.003
-93.243
-90.27
-87.447
-85.259
-83.97
-83.557
-83.933
-84.957
-86.469
-88.31
-90.238
-91.916
-93.105
-93.697
-93.639
-92.958
-91.69
-89.846
-87.471
-84.646
-81.445
-77.936
-74.176
-70.203
-66.066
-61.826
-57.55
-53.304
-49.15
-45.127
-41.262
-37.571
-34.057
-30.721
-27.56
-24.561
-21.707
-18.98
-16.362
-13.836
-11.387
-8.994
-6.633
-4.28
-1.906
0.508
2.98
5.52
8.14
10.854
13.677
16.624
19.705
22.922
26.276
29.769
33.397
37.151
41.01
44.942
48.914
52.902
56.895
60.893
64.889
68.877
72.843
76.774
80.675
84.555
88.413
92.244
96.042
99.814
103.59
107.421
111.351
115.398
119.552
123.785
128.074
132.389
136.695
140.945
145.053
148.937
152.538
155.801
158.683
161.121
163.017
164.254
164.729
164.361
163.101
160.915
157.752
153.589
148.413
142.234
135.13
127.171
118.417
108.937
98.788
88.047
76.839
65.3
53.556
41.749
30.003
18.438
7.23
-3.472
-13.525
-22.779
-31.168
-38.635
-45.123
-50.616
-55.085
-58.506
-60.905
-62.315
-62.763
-62.317
-61.037
-58.98
-56.293
-53.122
-49.626
-46.012
-42.415
-38.932
-35.664
-32.661
-29.979
-27.688
-25.821
-24.396
-23.455
-23.003
-23.063
-23.68
-24.811
-26.386
-28.315
-30.445
-32.675
-34.947
-37.198
-39.395
-41.517
-43.521
-45.391
-47.135
-48.729
-50.155
-51.378
-52.328
-52.991
-53.383
-53.537
-53.527
-53.403
-53.181
-52.885
-52.532
-52.123
-51.666
-51.15
-50.544
-49.837
-49.029
-48.128
-47.167
-46.156
-45.087
-43.947
-42.708
-41.351
-39.866
-38.242
-36.464
-34.529
-32.436
-30.194
-27.826
-25.347
-22.765
-20.088
-17.319
-14.465
-11.538
-8.552
-5.522
-2.464
0.606
3.671
6.709
9.705
12.641
15.505
18.287
20.977
23.562
26.031
28.374
30.581
32.642
34.548
36.289
37.855
39.241
40.439
41.446
42.257
42.87
43.283
43.495
43.506
43.318
42.933
42.353
41.582
40.626
39.49
38.18
36.705
35.074
33.295
31.379
29.336
27.178
24.914
22.557
20.118
17.609
15.042
12.428
9.779
7.107
4.424
1.743
-0.925
-3.568
-6.176
-8.736
-11.24
-13.678
-16.041
-18.319
-20.507
-22.595
-24.58
-26.453
-28.212
-29.853
-31.371
-32.767
-34.038
-35.186
-36.21
-37.112
-37.895
-38.563
-39.118
-39.565
-39.909
-40.156
-40.311
-40.38
-40.371
-40.29
-40.144
-39.941
-39.688
-39.392
-39.06
-38.699
-38.317
-37.92
-37.513
-37.104
-36.697
-36.299
-35.913
-35.543
-35.193
-34.866
-34.562
-34.282
-34.026
-33.793
-33.581
-33.388
-33.21
-33.044
-32.885
-32.727
-32.566
-32.394
-32.205
-31.992
-31.748
-31.465
-31.137
-30.755
-30.315
-29.809
-29.232
-28.579
-27.843
-27.021
-26.109
-25.103
-24
-22.798
-21.498
-20.099
-18.604
-17.016
-15.342
-13.588
-11.764
-9.88
-7.947
-5.98
-3.994
-2.005
-0.03
1.913
3.806
5.633
7.374
9.012
10.528
11.908
13.134
14.193
15.068
15.745
16.214
16.469
16.507
16.329
15.929
15.299
14.432
13.323
11.97
10.375
8.537
6.461
4.162
1.674
-0.958
-3.691
-6.484
-9.314
-12.163
-15.004
-17.795
-20.481
-23.001
-25.299
-27.332
-29.042
-30.361
-31.282
-31.865
-32.263
-32.719
-33.439
-34.573
-36.296
-38.742
-41.874
-45.551
-49.474
-53.152
-56.243
-58.47
-59.413
-58.849
-56.853
-53.641
-49.73
-45.818
-42.317
-39.7
-38.808
-40.192
-44.046
-50.376
-58.678
-68.259
-78.718
-88.856
-96.145
-98.007
-91.899
-76.63
-53.359
-23.295
13.402
58.918
117.612
193.916
290.259
404.581
531.857
664.299
792.319
907.27
998.613
1055.628
1069.467
1033.031
946.244
816.354
656.462
484.953
320.477
179.054
71.866
2.973
-30.097
-35.081
-22.649
-3.82
12.412
20.053
16.687
4.461
-11.984
-27.014
-35.8
-37.88
-35.747
-32.807
-32.399
-35.092
-39.635
-44.91
-49.952
-54.445
-58.423
-61.634
-63.706
-64.544
-64.258
-62.913
-60.565
-57.355
-53.54
-49.572
-46.037
-43.252
-41.245
-39.996
-39.407
-39.36
-39.744
-40.355
-40.906
-41.235
-41.334
-41.223
-40.979
-40.659
-40.245
-39.739
-39.152
-38.452
-37.618
-36.637
-35.484
-34.163
-32.707
-31.127
-29.438
-27.646
-25.703
-23.576
-21.241
-18.663
-15.844
-12.799
-9.549
-6.148
-2.645
0.936
4.573
8.264
12.018
15.833
19.715
23.667
27.676
31.735
35.841
39.992
44.194
48.463
52.81
57.263
61.836
66.529
71.33
76.218
81.171
86.175
91.22
96.304
101.426
106.593
111.796
117.018
122.24
127.441
132.606
137.718
142.775
147.791
152.787
157.795
162.828
167.881
172.921
177.889
182.709
187.291
191.558
195.454
198.927
201.934
204.431
206.373
207.7
208.348
208.238
207.275
205.395
202.559
198.77
194.073
188.544
182.29
175.406
167.973
160.064
151.741
143.062
134.088
124.884
115.521
106.09
96.701
87.448
78.412
69.642
61.156
52.947
44.983
37.24
29.699
22.351
15.201
8.26
1.541
-4.942
-11.171
-17.146
-22.881
-28.388
-33.681
-38.762
-43.621
-48.239
-52.591
-56.653
-60.405
-63.838
-66.948
-69.742
-72.232
-74.437
-76.379
-78.082
-79.56
-80.832
-81.912
-82.818
-83.571
-84.194
-84.712
-85.149
-85.531
-85.881
-86.221
-86.571
-86.947
-87.364
-87.831
-88.359
-88.958
-89.636
-90.402
-91.264
-92.226
-93.293
-94.47
-95.759
-97.159
-98.668
-100.284
-102.002
-103.815
-105.717
-107.699
-109.753
-111.869
-114.037
-116.247
-118.488
-120.749
-123.018
-125.284
-127.536
-129.763
-131.953
-134.096
-136.182
-138.201
-140.144
-142.004
-143.772
-145.444
-147.012
-148.472
-149.819
-151.051
-152.164
-153.157
-154.028
-154.777
-155.404
-155.911
-156.301
-156.576
-156.739
-156.796
-156.751
-156.608
-156.374
-156.053
-155.652
-155.176
-154.63
-154.022
-153.356
-152.638
-151.875
-151.07
-150.231
-149.36
-148.463
-147.544
-146.607
-145.655
-144.69
-143.715
-142.733
-141.744
-140.751
-139.754
-138.753
-137.75
-136.744
-135.734
-134.719
-133.699
-132.673
-131.638
-130.593
-129.536
-128.467
-127.382
-126.282
-125.163
-124.027
-122.871
-121.694
-120.497
-119.279
-118.041
-116.782
-115.504
-114.209
-112.897
-111.571
-110.233
-108.887
-107.535
-106.181
-104.829
-103.482
-102.145
-100.822
-99.517
-98.237
-96.984
-95.765
-94.585
-93.448
-92.361
-91.328
-90.354
-89.444
-88.603
-87.833
-87.141
-86.528
-85.999
-85.555
-85.198
-84.932
-84.755
-84.669
-84.674
-84.767
-84.948
-85.213
-85.559
-85.982
-86.477
-87.039
-87.663
-88.341
-89.068
-89.837
-90.639
-91.466
-92.311
-93.162
-94.013
-94.851
-95.668
-96.453
-97.196
-97.888
-98.518
-99.076
-99.553
-99.939
-100.225
-100.402
-100.461
-100.394
-100.195
-99.855
-99.372
-98.739
-97.954
-97.015
-95.919
-94.668
-93.261
-91.701
-89.99
-88.132
-86.133
-83.997
-81.734
-79.353
-76.862
-74.275
-71.605
-68.866
-66.076
-63.253
-60.416
-57.584
-54.78
-52.022
-49.333
-46.734
-44.243
-41.88
-39.665
-37.615
-35.749
-34.083
-32.635
-31.418
-30.444
-29.719
-29.245
-29.021
-29.044
-29.313
-29.835
-30.61
-31.638
-32.922
-34.461
-36.253
-38.292
-40.556
-43.005
-45.602
-48.31
-51.101
-53.972
-56.902
-59.858
-62.799
-65.666
-68.411
-71.004
-73.388
-75.477
-77.232
-78.678
-79.933
-81.225
-82.739
-84.575
-86.842
-89.669
-93.102
-97.038
-101.194
-105.093
-108.309
-110.633
-111.891
-111.826
-110.315
-107.481
-103.667
-99.505
-95.653
-92.488
-90.388
-89.971
-91.815
-96.329
-103.69
-113.76
-125.689
-138.035
-149.22
-156.974
-160.184
-159.728
-155.672
-147.695
-132.847
-104
-55.407
17.169
114.379
231.015
361.428
497.342
628.986
747.249
839.791
897.295
913.528
884.727
814.524
707.699
572.054
420.493
265.7
123.139
7.38
-74.264
-119.872
-133.747
-126.869
-110.309
-93.696
-85.877
-88.607
-99.271
-113.457
-123.318
-125.385
-120.468
-110.894
-101.862
-95.948
-92.772
-91.635
-90.821
-89.668
-88.909
-88.972
-89.946
-91.752
-93.909
-95.869
-97.486
-98.644
-99.136
-98.957
-98.238
-97.134
-95.998
-95.266
-95.114
-95.591
-96.67
-98.182
-99.952
-101.807
-103.517
-104.837
-105.627
-105.836
-105.475
-104.617
-103.325
-101.651
-99.658
-97.419
-94.994
-92.43
-89.773
-87.062
-84.338
-81.655
-79.047
-76.537
-74.136
-71.841
-69.637
-67.51
-65.435
-63.383
-61.33
-59.256
-57.137
-54.953
-52.681
-50.296
-47.774
-45.089
-42.216
-39.134
-35.823
-32.266
-28.45
-24.365
-20.001
-15.352
-10.414
-5.18
0.351
6.182
12.312
18.737
25.451
32.446
39.708
47.224
54.975
62.94
71.096
79.419
87.881
96.454
105.106
113.805
122.518
131.209
139.843
148.383
156.794
165.036
173.075
180.872
188.392
195.6
202.462
208.945
215.018
220.653
225.821
230.498
234.66
238.288
241.363
243.871
245.799
247.138
247.882
248.027
247.575
246.528
244.892
242.676
239.893
236.556
232.684
228.295
223.412
218.059
212.262
206.049
199.449
192.494
185.215
177.646
169.82
161.773
153.538
145.151
136.647
128.06
119.425
110.776
102.144
93.563
85.064
76.675
68.425
60.341
52.447
44.769
37.326
30.138
23.225
16.601
10.28
4.275
-1.404
-6.749
-11.754
-16.414
-20.726
-24.689
-28.304
-31.572
-34.498
-37.086
-39.343
-41.276
-42.893
-44.203
-45.217
-45.945
-46.4
-46.593
-46.537
-46.245
-45.73
-45.006
-44.085
-42.98
-41.706
-40.275
-38.7
-36.994
-35.168
-33.234
-31.204
-29.088
-26.898
-24.643
-22.334
-19.978
-17.585
-15.163
-12.72
-10.263
-7.798
-5.333
-2.873
-0.424
2.008
4.419
6.804
9.158
11.477
13.758
15.996
18.188
20.33
22.419
24.453
26.426
28.337
30.182
31.957
33.66
35.288
36.837
38.304
39.686
40.98
42.183
43.293
44.307
45.222
46.035
46.744
47.348
47.843
48.228
48.502
48.662
48.709
48.641
48.457
48.158
47.743
47.213
46.567
45.809
44.937
43.956
42.866
41.672
40.375
38.98
37.492
35.913
34.25
32.508
30.692
28.808
26.863
24.863
22.815
20.725
18.601
16.451
14.28
12.097
9.908
7.722
5.545
3.384
1.246
-0.862
-2.935
-4.965
-6.947
-8.875
-10.744
-12.55
-14.288
-15.954
-17.545
-19.059
-20.493
-21.847
-23.118
-24.307
-25.415
-26.442
-27.389
-28.259
-29.055
-29.779
-30.434
-31.025
-31.556
-32.031
-32.455
-32.834
-33.172
-33.476
-33.75
-34
-34.232
-34.45
-34.659
-34.866
-35.074
-35.287
-35.511
-35.749
-36.005
-36.281
-36.58
-36.904
-37.255
-37.634
-38.04
-38.473
-38.933
-39.416
-39.921
-40.444
-40.982
-41.532
-42.087
-42.645
-43.198
-43.741
-44.268
-44.772
-45.248
-45.687
-46.084
-46.432
-46.725
-46.958
-47.123
-47.217
-47.233
-47.168
-47.018
-46.78
-46.45
-46.027
-45.509
-44.897
-44.191
-43.395
-42.51
-41.541
-40.495
-39.38
-38.208
-36.988
-35.733
-34.457
-33.174
-31.901
-30.649
-29.432
-28.262
-27.15
-26.11
-25.157
-24.302
-23.556
-22.932
-22.436
-22.08
-21.868
-21.796
-21.861
-22.061
-22.396
-22.875
-23.51
-24.304
-25.262
-26.388
-27.684
-29.144
-30.752
-32.471
-34.269
-36.12
-38.01
-39.932
-41.87
-43.79
-45.652
-47.403
-48.998
-50.39
-51.5
-52.291
-52.786
-53.069
-53.317
-53.707
-54.33
-55.313
-56.825
-58.868
-61.321
-63.917
-66.187
-67.831
-68.785
-68.849
-67.736
-65.427
-62.057
-58.049
-54.177
-50.851
-48.138
-46.408
-46.235
-47.989
-52.018
-58.296
-66.255
-75.716
-86.266
-96.391
-104.215
-107.625
-105.497
-98.557
-87.382
-71.474
-47.184
-8.381
49.642
129.563
228.418
339.008
454.645
568.049
674.567
770.328
847.36
895.857
904.267
863.041
770.731
634.511
469.885
297.207
136.114
2.093
-95.993
-156.058
-180.784
-176.412
-152.108
-118.172
-85.577
-63.733
-55.641
-58.528
-65.092
-66.277
-58.44
-43.28
