Name
Date of Birth,"Mar 27, 1959"
Recorded Date,2022-07-19 10:13:05 -0500
Classification,Sinus Rhythm
Symptoms,
Software Version,1.90
Device,"Watch4,2"
Sample Rate,510.227 hertz


Lead,Lead I
Unit,µV

95.858
102.79
109.338
115.369
120.723
125.188
128.61
130.907
132.018
131.928
130.667
128.288
124.915
120.742
115.922
110.58
104.812
98.667
92.229
85.618
78.962
72.417
66.11
60.121
54.523
49.373
44.681
40.433
36.557
32.918
29.422
26.012
22.648
19.328
16.035
12.733
9.399
6.006
2.532
-1.034
-4.708
-8.511
-12.437
-16.467
-20.556
-24.631
-28.64
-32.556
-36.355
-40.033
-43.583
-47
-50.288
-53.464
-56.539
-59.521
-62.412
-65.211
-67.922
-70.558
-73.131
-75.66
-78.161
-80.643
-83.114
-85.582
-88.054
-90.53
-93.01
-95.487
-97.955
-100.413
-102.858
-105.287
-107.697
-110.081
-112.435
-114.756
-117.035
-119.262
-121.43
-123.527
-125.546
-127.475
-129.304
-131.021
-132.615
-134.075
-135.39
-136.544
-137.522
-138.308
-138.886
-139.245
-139.375
-139.267
-138.912
-138.3
-137.43
-136.303
-134.919
-133.276
-131.363
-129.167
-126.692
-123.958
-120.996
-117.828
-114.479
-110.973
-107.343
-103.634
-99.877
-96.082
-92.237
-88.326
-84.353
-80.345
-76.349
-72.411
-68.555
-64.779
-61.074
-57.446
-53.901
-50.43
-46.995
-43.54
-40.053
-36.592
-33.263
-30.166
-27.36
-24.866
-22.678
-20.796
-19.229
-17.985
-17.07
-16.466
-16.171
-16.223
-16.7
-17.687
-19.199
-21.143
-23.365
-25.738
-28.181
-30.647
-33.112
-35.536
-37.922
-40.338
-42.863
-45.572
-48.468
-51.496
-54.598
-57.745
-60.975
-64.403
-68.145
-72.302
-77.034
-82.4
-88.299
-94.505
-100.464
-105.508
-109.134
-110.809
-109.939
-106.301
-100.066
-91.826
-82.944
-74.823
-68.362
-64.471
-64.071
-67.376
-73.678
-81.235
-86.94
-87.226
-79.01
-59.25
-24.466
27.196
94.474
174.736
263.622
358.003
459.937
570.347
684.407
790.609
868.899
900.39
877.375
803.466
692.756
560.462
416.696
270.432
129.246
4.904
-87.498
-141.306
-155.446
-135.18
-94.861
-45.571
1.209
31.288
40.526
29.28
3.954
-20.567
-36.379
-41.45
-37.798
-32.866
-29.788
-28.03
-26.601
-23.229
-17.64
-11.18
-4.726
0.84
4.943
7.564
8.673
8.313
6.736
4.171
0.793
-3.232
-7.771
-12.686
-17.824
-22.998
-28.012
-32.711
-36.983
-40.744
-43.954
-46.582
-48.601
-50.029
-50.913
-51.306
-51.258
-50.809
-49.983
-48.823
-47.391
-45.755
-43.992
-42.157
-40.275
-38.367
-36.441
-34.495
-32.525
-30.509
-28.409
-26.199
-23.857
-21.368
-18.724
-15.909
-12.904
-9.692
-6.26
-2.598
1.298
5.431
9.802
14.407
19.236
24.278
29.515
34.931
40.513
46.243
52.103
58.075
64.136
70.264
76.436
82.626
88.805
94.945
101.013
106.978
112.81
118.475
123.941
129.176
134.149
138.828
143.185
147.19
150.817
154.04
156.836
159.184
161.068
162.47
163.378
163.782
163.674
163.052
161.913
160.261
158.099
155.437
152.285
148.657
144.572
140.048
135.109
129.778
124.084
118.057
111.728
105.133
98.305
91.282
84.102
76.803
69.425
62.005
54.583
47.198
39.886
32.683
25.626
18.747
12.077
5.648
-0.515
-6.386
-11.942
-17.164
-22.035
-26.539
-30.667
-34.408
-37.758
-40.714
-43.276
-45.447
-47.232
-48.639
-49.679
-50.364
-50.71
-50.734
-50.456
-49.897
-49.078
-48.025
-46.762
-45.315
-43.709
-41.972
-40.129
-38.207
-36.232
-34.229
-32.223
-30.236
-28.291
-26.41
-24.611
-22.912
-21.327
-19.872
-18.556
-17.389
-16.378
-15.528
-14.84
-14.314
-13.951
-13.746
-13.694
-13.786
-14.014
-14.366
-14.828
-15.387
-16.025
-16.727
-17.473
-18.245
-19.024
-19.791
-20.527
-21.21
-21.822
-22.344
-22.758
-23.046
-23.19
-23.176
-22.99
-22.619
-22.055
-21.29
-20.319
-19.139
-17.75
-16.155
-14.36
-12.372
-10.199
-7.853
-5.347
-2.695
0.088
2.986
5.98
9.052
12.18
15.339
18.506
21.655
24.76
27.796
30.735
33.553
36.234
38.759
41.107
43.257
45.175
46.834
48.219
49.312
50.102
50.585
50.762
50.655
50.311
49.771
49.073
48.248
47.305
46.265
45.161
44.029
42.924
41.89
40.939
40.094
39.391
38.834
38.399
37.992
37.455
36.648
35.484
33.915
31.9
29.378
26.271
22.521
18.083
12.96
7.099
0.347
-7.305
-15.729
-24.598
-33.238
-40.976
-47.302
-51.511
-52.88
-51.286
-46.775
-39.856
-32.088
-24.783
-18.991
-16.544
-17.631
-19.907
-21.783
-20.898
-17.176
-15.415
-15.769
-13.497
1.672
44.959
122.572
230.641
357.912
488.51
613.53
728.764
828.113
904.239
943.353
930.451
860.318
735.168
567.441
378.581
190.64
25.294
-100.826
-178.934
-210.294
-202.657
-164.978
-111.65
-54.104
-3.473
25.332
29.232
11.109
-20.661
-49.172
-66.626
-72.291
-68.785
-64.253
-61.994
-61.056
-60.498
-58.2
-53.843
-48.859
-44.165
-40.498
-38.333
-37.617
-38.243
-40.091
-42.919
-46.495
-50.664
-55.303
-60.24
-65.314
-70.345
-75.107
-79.458
-83.3
-86.538
-89.119
-91.01
-92.18
-92.639
-92.431
-91.589
-90.151
-88.152
-85.613
-82.58
-79.119
-75.301
-71.212
-66.916
-62.449
-57.843
-53.114
-48.271
-43.318
-38.242
-33.016
-27.623
-22.053
-16.302
-10.372
-4.261
2.039
8.535
15.231
22.127
29.218
36.496
43.954
51.579
59.354
67.255
75.258
83.337
91.472
99.639
107.816
115.978
124.101
132.16
140.13
147.986
155.698
163.238
170.577
177.686
184.534
191.095
197.339
203.239
208.768
213.903
218.618
222.893
226.707
230.042
232.88
235.209
237.017
238.294
239.034
239.232
238.887
238.001
236.576
234.62
232.14
229.147
225.655
221.679
217.237
212.347
207.031
201.313
195.219
188.775
182.011
174.957
167.647
160.111
152.385
144.503
136.5
128.409
120.265
112.103
103.954
95.852
87.828
79.913
72.133
64.518
57.092
49.88
42.903
36.182
29.734
23.575
17.72
12.18
6.965
2.082
-2.462
-6.665
-10.525
-14.042
-17.22
-20.064
-22.581
-24.781
-26.675
-28.276
-29.599
-30.659
-31.474
-32.062
-32.441
-32.63
-32.65
-32.519
-32.259
-31.888
-31.426
-30.891
-30.303
-29.679
-29.036
-28.389
-27.755
-27.145
-26.574
-26.051
-25.587
-25.189
-24.864
-24.618
-24.454
-24.375
-24.38
-24.469
-24.638
-24.881
-25.193
-25.566
-25.988
-26.451
-26.941
-27.447
-27.956
-28.455
-28.929
-29.365
-29.748
-30.067
-30.308
-30.46
-30.51
-30.447
-30.263
-29.949
-29.5
-28.91
-28.175
-27.294
-26.268
-25.101
-23.798
-22.364
-20.808
-19.14
-17.371
-15.514
-13.581
-11.585
-9.541
-7.466
-5.378
-3.301
-1.253
0.743
2.667
4.497
6.209
7.783
9.211
10.477
11.568
12.467
13.143
13.578
13.76
13.681
13.332
12.713
11.831
10.707
9.386
7.905
6.301
4.599
2.809
0.957
-0.917
-2.768
-4.538
-6.192
-7.715
-9.081
-10.249
-11.215
-12.018
-12.743
-13.528
-14.464
-15.587
-16.941
-18.589
-20.617
-23.127
-26.192
-29.813
-34.019
-38.941
-44.62
-50.972
-57.747
-64.394
-70.347
-75.228
-78.565
-79.693
-78.309
-74.513
-68.692
-61.941
-55.417
-49.791
-46.098
-45.912
-48.813
-52.28
-54.093
-50.937
-43.046
-35.628
-28.91
-18.907
3.004
50.263
127.968
231.805
352.34
478.461
603.273
720.964
823.58
895.073
914.688
870.091
758.249
592.113
398.129
202.236
28.852
-104.822
-191.528
-231.189
-229.674
-196.724
-146.412
-92.322
-48.013
-24.136
-21.261
-33.789
-50.603
-61.179
-62.822
-57.859
-52.261
-50.209
-51.212
-53.163
-53.353
-50.761
-46.292
-41.018
-35.917
-31.685
-28.757
-27.414
-27.747
-29.594
-32.644
-36.638
-41.401
-46.766
-52.502
-58.387
-64.197
-69.724
-74.863
-79.526
-83.624
-87.109
-89.948
-92.119
-93.644
-94.574
-94.95
-94.821
-94.228
-93.2
-91.787
-90.054
-88.07
-85.914
-83.643
-81.288
-78.874
-76.418
-73.925
-71.398
-68.825
-66.176
-63.432
-60.581
-57.616
-54.533
-51.328
-47.986
-44.498
-40.858
-37.06
-33.106
-28.999
-24.74
-20.338
-15.803
-11.151
-6.4
-1.567
3.333
8.285
13.272
18.276
23.278
28.261
33.204
38.087
42.888
47.583
52.147
56.555
60.785
64.81
68.607
72.15
75.418
78.386
81.034
83.341
85.287
86.854
88.026
88.79
89.133
89.045
88.519
87.548
86.132
84.27
81.964
79.221
76.047
72.453
68.451
64.056
59.285
54.157
48.693
42.916
36.851
30.525
23.966
17.203
10.268
3.192
-3.992
-11.253
-18.556
-25.869
-33.16
-40.397
-47.549
-54.585
-61.478
-68.2
-74.726
-81.033
-87.099
-92.905
-98.435
-103.675
-108.612
-113.238
-117.547
-121.533
-125.196
-128.535
-131.555
-134.259
-136.656
-138.752
-140.561
-142.093
-143.362
-144.384
-145.175
-145.752
-146.134
-146.34
-146.39
-146.303
-146.1
-145.8
-145.421
-144.985
-144.507
-144.007
-143.499
-142.999
-142.522
-142.078
-141.681
-141.339
-141.06
-140.849
-140.712
-140.65
-140.665
-140.755
-140.916
-141.145
-141.436
-141.783
-142.179
-142.614
-143.08
-143.565
-144.06
-144.553
-145.033
-145.486
-145.901
-146.265
-146.566
-146.794
-146.937
-146.984
-146.927
-146.757
-146.466
-146.047
-145.496
-144.806
-143.973
-142.996
-141.875
-140.609
-139.202
-137.656
-135.981
-134.186
-132.284
-130.288
-128.213
-126.073
-123.885
-121.667
-119.433
-117.197
-114.971
-112.769
-110.607
-108.504
-106.478
-104.547
-102.727
-101.035
-99.49
-98.107
-96.897
-95.865
-95.014
-94.355
-93.903
-93.685
-93.727
-94.038
-94.633
-95.515
-96.675
-98.1
-99.757
-101.584
-103.528
-105.535
-107.559
-109.579
-111.558
-113.45
-115.208
-116.769
-118.083
-119.127
-119.867
-120.286
-120.431
-120.363
-120.196
-120.095
-120.176
-120.561
-121.403
-122.811
-124.913
-127.854
-131.683
-136.51
-142.514
-149.691
-157.941
-166.992
-176.206
-184.964
-192.806
-199.065
-203.077
-204.628
-203.722
-200.981
-197.839
-195.483
-194.717
-196.401
-201.025
-208.182
-216.785
-224.556
-227.954
-223.585
-208.449
-179.652
-134.714
-73.427
1.64
86.54
175.537
264.676
354.923
445.729
532.195
606.61
653.751
657.455
612.627
518.674
382.032
222.492
57.77
-91.653
-201.233
-264.101
-282.934
-269.047
-245.12
-222.679
-204.427
-189.403
-171.035
-148.937
-126.856
-107.813
-95.727
-91.864
-95.151
-104.227
-116.342
-128.373
-138.732
-146.665
-151.904
-154.548
-154.367
-151.374
-146.526
-141.3
-136.694
-133.179
-130.833
-129.452
-129.129
-129.953
-131.596
-133.529
-135.308
-136.579
-137.187
-137.312
-137.061
-136.236
-134.823
-132.886
-130.128
-127.612
-126.321
-124.872
-122.854
-117.761
-106.611
-92.828
-78.717
-67.682
-64.354
-64.724
-65.394
-64.039
-56.795
-46.46
-35.858
-25.61
-17.434
-10.338
-3.049
4.178
11.504
18.848
25.955
33
40.118
47.26
54.409
61.578
68.757
75.928
83.073
90.154
97.128
103.998
110.766
117.419
123.948
130.34
136.583
142.668
148.59
154.334
159.885
165.231
170.358
175.254
179.908
184.308
188.443
192.301
195.873
199.15
202.122
204.782
207.122
209.136
210.818
212.166
213.177
213.85
214.185
214.183
213.849
213.186
212.203
210.906
209.304
207.409
205.231
202.787
200.089
197.153
193.995
190.63
187.077
183.357
179.493
175.507
171.421
167.258
163.04
158.79
154.531
150.282
146.061
141.882
137.761
133.719
129.775
125.951
122.261
118.712
115.306
112.048
108.939
105.984
103.181
100.527
98.017
95.655
93.449
91.409
89.539
87.834
86.276
84.841
83.521
82.324
81.279
80.422
79.761
79.273
78.924
78.692
78.574
78.593
78.714
78.822
78.889
79.02
79.468
80.518
82.226
84.34
86.57
88.828
90.975
92.669
93.243
91.865
88.233
82.824
76.451
69.643
62.799
56.414
51.352
48.783
49.256
52.291
56.821
62.013
67.359
72.465
76.748
79.287
79.556
77.833
74.932
71.561
68.106
64.732
61.589
59.054
57.416
56.613
56.324
56.231
56.182
56.18
56.299
56.528
56.814
57.151
57.582
58.162
58.917
59.825
60.829
61.884
62.968
64.076
65.208
66.366
67.538
68.715
69.886
71.037
72.159
73.243
74.278
75.256
76.164
76.992
77.738
78.406
78.996
79.501
79.904
80.179
80.311
80.296
80.129
79.809
79.341
78.734
78.014
77.228
76.416
75.616
74.851
74.125
73.461
72.89
72.458
72.217
72.193
72.39
72.82
73.503
74.428
75.545
76.755
77.904
78.881
79.623
80.073
80.169
79.817
78.914
77.365
75.151
72.261
68.605
64.184
59.071
53.506
47.987
43.01
38.899
36.049
34.986
35.852
38.602
42.83
47.477
51.969
56.07
58.948
59.727
58.114
55.44
55.26
61.416
76.26
97.049
117.606
135.559
150.908
171.865
213.94
284.735
386.972
514.36
646.838
765.605
854.396
897.714
888.385
825.87
711.854
557.841
385.267
215.205
71.541
-26.933
-77.627
-83.968
-58.075
-18.988
20.576
48.773
58.645
53.264
37.564
20.431
10.104
7.436
9.933
12.512
11.072
5.995
-0.275
-4.986
-6.835
-6.31
-4.417
-2.076
0.251
2.258
3.49
3.662
2.7
0.689
-2.148
-5.636
-9.67
-14.111
-18.778
-23.498
-28.119
-32.487
-36.496
-40.059
-43.098
-45.576
-47.473
-48.773
-49.484
-49.635
-49.263
-48.411
-47.121
-45.416
-43.337
-40.933
-38.267
-35.413
-32.428
-29.346
-26.195
-22.992
-19.75
-16.477
-13.17
-9.81
-6.384
-2.884
0.696
4.352
8.086
11.906
15.82
19.834
23.95
28.167
32.482
36.892
41.391
45.97
50.617
55.314
60.046
64.801
69.565
74.324
79.063
83.765
88.415
92.996
97.492
101.883
106.151
110.275
114.235
118.012
121.588
124.942
128.056
130.911
133.49
135.776
137.754
139.408
140.725
141.692
142.298
142.535
142.395
141.872
140.963
139.666
137.98
135.908
133.455
130.627
127.431
123.878
119.98
115.752
111.209
106.369
101.249
95.872
90.259
84.434
78.419
72.24
65.923
59.494
52.978
46.403
39.794
33.178
26.58
20.025
13.537
7.14
0.855
-5.297
-11.296
-17.124
-22.763
-28.2
-33.42
-38.412
-43.165
-47.673
-51.927
-55.926
-59.666
-63.148
-66.373
-69.345
-72.068
-74.55
-76.798
-78.823
-80.635
-82.246
-83.668
-84.917
-86.007
-86.954
-87.771
-88.476
-89.084
-89.61
-90.069
-90.477
-90.847
-91.193
-91.528
-91.865
-92.217
-92.593
-93.005
-93.46
-93.968
-94.535
-95.166
-95.864
-96.632
-97.471
-98.382
-99.363
-100.411
-101.525
-102.698
-103.925
-105.201
-106.517
-107.866
-109.239
-110.626
-112.017
-113.404
-114.778
-116.13
-117.452
-118.734
-119.972
-121.157
-122.286
-123.352
-124.35
-125.278
-126.131
-126.91
-127.614
-128.242
-128.799
-129.287
-129.715
-130.092
-130.427
-130.729
-131.012
-131.287
-131.568
-131.868
-132.198
-132.569
-132.995
-133.488
-134.066
-134.746
-135.54
-136.464
-137.53
-138.751
-140.14
-141.703
-143.441
-145.354
-147.444
-149.719
-152.199
-154.894
-157.807
-160.94
-164.287
-167.837
-171.573
-175.463
-179.452
-183.489
-187.525
-191.52
-195.452
-199.286
-202.976
-206.468
-209.694
-212.605
-215.173
-217.361
-219.139
-220.522
-221.542
-222.285
-222.883
-223.424
-223.995
-224.7
-225.621
-226.876
-228.577
-230.778
-233.572
-237.103
-241.419
-246.494
-252.148
-257.894
-263.26
-267.9
-271.299
-272.86
-272.195
-269.159
-264.125
-258.244
-252.553
-247.505
-243.874
-242.737
-244.492
-249.048
-254.385
-255.835
-250.68
-237.972
-217.907
-192.885
-160.524
-115.874
-55.358
25.433
124.414
235.669
354.888
472.74
577.909
658.495
697.206
681.323
608.702
482.699
317.673
135.817
-43.359
-197.256
-308.556
-374.442
-397.622
-392.54
-376.28
-354.949
-334.549
-314.355
-291.879
-272.664
-256.365
-243.169
-234.701
-227.903
-224.941
-227.679
-234.287
-243.78
-253.047
-259.509
-263.194
-264.012
-261.798
-256.891
-249.741
-241.362
-233.244
-226.248
-220.549
-216.217
-213.364
-212.019
-212.151
-213.438
-215.226
-217.072
-218.737
-220.03
-220.886
-221.225
-220.939
-220.018
-218.526
-216.502
-213.998
-211.049
-207.645
-203.808
-199.57
-194.961
-190.043
-184.879
-179.533
-174.075
-168.551
-162.99
-157.419
-151.851
-146.293
-140.743
-135.186
-129.599
-123.971
-118.295
-112.564
-106.775
-100.912
-94.962
-88.915
-82.764
-76.507
-70.144
-63.675
-57.103
-50.438
-43.69
-36.874
-30.008
-23.108
-16.188
-9.265
-2.357
4.518
11.339
18.086
24.741
31.281
37.685
43.928
49.988
55.844
61.474
66.857
71.973
76.802
81.328
85.534
89.405
92.925
96.082
98.864
101.262
103.268
104.878
106.088
106.898
107.31
107.33
106.963
106.22
105.111
103.65
101.851
99.731
97.309
94.607
91.647
88.453
85.05
81.465
77.724
73.855
69.884
65.835
61.731
57.592
53.442
49.299
45.185
41.122
37.128
33.223
29.424
25.75
22.215
18.831
15.604
12.534
9.619
6.855
4.24
1.771
-0.561
-2.77
-4.876
-6.9
-8.859
-10.767
-12.645
-14.519
-16.421
-18.386
-20.435
-22.573
-24.803
-27.126
-29.541
-32.06
-34.677
-37.353
-40.039
-42.696
-45.321
-47.971
-50.714
-53.584
-56.58
-59.654
-62.81
-66.159
-69.742
-73.466
-77.119
-80.45
-83.431
-86.369
-89.592
-93.175
-97.195
-101.866
-107.694
-115.387
-125.177
-136.561
-148.691
-160.964
-172.918
-184.006
-193.3
-199.573
-202.157
-201.331
-198.026
-193.026
-186.831
-179.925
-173.009
-167.065
-162.702
-159.745
-157.441
-155.159
-152.588
-149.593
-146.088
-141.785
-136.488
-130.394
-123.952
-117.537
-111.334
-105.322
-99.36
-93.426
-87.561
-81.742
-75.928
-70.062
-64.116
-58.145
-52.243
-46.474
-40.859
-35.378
-30
-24.731
-19.603
-14.664
-9.975
-5.572
-1.487
2.238
5.564
8.45
10.871
12.831
14.349
15.439
16.114
16.38
16.257
15.796
15.051
14.077
12.921
11.609
10.191
8.729
7.292
5.968
4.819
3.878
3.189
2.775
2.622
2.701
2.942
3.231
3.481
3.594
3.457
2.973
2.036
0.555
-1.577
-4.54
-8.444
-13.28
-18.869
-24.785
-30.556
-35.775
-39.92
-42.358
-42.653
-40.624
-36.699
-32.081
-27.884
-25.04
-24.719
-27.757
-34.521
-45.109
-56.918
-66.039
-70.516
-67.091
-54.698
-33.321
3.456
58.795
133.301
227.71
332.869
441.499
552.15
659.675
760.371
846.639
901.754
911.277
869.051
775.257
638.698
475.549
300.575
130.947
-11.925
-113.882
-168.832
-180.164
-164.371
-138.639
-112.107
-88.456
-64.854
-36.617
-5.351
24.769
49.576
64.54
68.646
63.586
51.412
34.984
17.479
1.331
-11.831
-20.781
-25.068
-24.917
-20.843
-13.832
-5.399
2.946
10.208
15.708
19.18
20.713
20.438
18.624
15.778
12.48
9.165
6.169
3.654
1.619
0.092
-0.913
-1.415
-1.439
-1.013
-0.176
1.063
2.715
4.775
7.233
10.054
13.18
16.547
20.091
23.767
27.549
31.417
35.356
39.355
43.405
47.512
51.696
55.97
60.339
64.81
69.382
74.067
78.88
83.833
88.934
94.185
99.582
105.121
110.799
116.606
122.529
128.551
134.653
140.815
147.021
153.253
159.49
165.713
171.898
178.025
184.072
190.018
195.837
201.506
207
212.296
217.371
222.201
226.763
231.037
235.001
238.637
241.925
244.852
247.4
249.557
251.313
252.659
253.59
254.102
254.194
253.866
253.124
251.973
250.423
248.485
246.172
243.498
240.483
237.144
233.503
229.583
225.406
221
216.389
211.603
206.669
201.618
196.478
191.281
186.055
180.831
175.638
170.504
165.458
160.525
155.731
151.099
146.653
142.41
138.39
134.609
131.08
127.814
124.82
122.104
119.671
117.522
115.656
114.069
112.758
111.714
110.929
110.39
110.085
109.998
110.114
110.414
110.878
111.487
112.217
113.048
113.954
114.914
115.903
116.897
117.874
118.809
119.68
120.467
121.147
121.702
122.113
122.364
122.439
122.327
122.016
121.496
120.761
119.806
118.629
117.23
115.609
113.771
111.72
109.464
107.012
104.374
101.564
98.595
95.483
92.244
88.897
85.462
81.958
78.407
74.827
71.242
67.672
64.139
60.663
57.265
53.963
50.776
47.721
44.816
42.073
39.506
37.123
34.935
32.948
31.164
29.584
28.203
27.018
26.022
25.207
24.562
24.074
23.731
23.523
23.437
23.46
23.575
23.761
23.998
24.265
24.541
24.804
25.032
25.202
25.297
25.307
25.22
25.021
24.69
24.194
23.507
22.615
21.503
20.163
18.597
16.811
14.832
12.709
10.486
8.203
5.888
3.551
1.218
-1.073
-3.281
-5.346
-7.226
-8.899
-10.328
-11.49
-12.411
-13.133
-13.753
-14.41
-15.194
-16.18
-17.457
-19.09
-21.17
-23.803
-27.044
-30.979
-35.751
-41.405
-47.885
-54.984
-62.175
-68.85
-74.472
-78.406
-79.988
-78.867
-75.061
-69.099
-62.277
-56.035
-51.488
-49.749
-51.81
-57.932
-67.423
-78.468
-87.819
-91.925
-87.5
-71.012
-39.177
10.629
78.333
160.111
250.658
343.767
436.177
530.192
625.466
717.573
797.668
845.531
842.326
778.891
651.434
474.114
274.025
76.666
-88.664
-201.598
-260.421
-269.109
-241.928
-199.301
-152.992
-114.12
-89.167
-74.699
-67.211
-60.187
-47.713
-31.424
-15.746
-6.39
-7.446
-18.586
-36.832
-58.49
-80.855
-101.906
-120.184
-135.136
-146.316
-153.706
-158.045
-159.968
-160.249
-160.157
-160.603
-162.056
-164.791
-168.629
-173.176
-178.202
-183.365
-188.158
-192.288
-195.591
-197.989
-199.599
-200.527
-200.795
-200.47
-199.63
-198.314
-196.573
-194.448
-191.953
-189.142
-186.069
-182.776
-179.316
-175.721
-172.009
-168.199
-164.299
-160.311
-156.247
-152.12
-147.942
-143.735
-139.512
-135.28
-131.046
-126.809
-122.567
-118.32
-114.066
-109.805
-105.542
-101.283
-97.034
-92.809
-88.615
-84.46
-80.349
-76.287
-72.279
-68.333
-64.455
-60.652
-56.931
-53.302
-49.777
-46.368
-43.087
-39.944
-36.953
-34.124
-31.47
-29.003
-26.735
-24.676
-22.838
-21.232
-19.867
-18.756
-17.906
-17.329
-17.032
-17.023
-17.307
-17.891
-18.779
-19.972
-21.471
-23.276
-25.385
-27.793
-30.495
-33.485
-36.752
-40.288
-44.08
-48.113
-52.372
-56.841
-61.499
-66.327
-71.303
-76.407
-81.614
-86.903
-92.25
-97.632
-103.027
-108.411
-113.761
-119.057
-124.275
-129.396
-134.4
-139.266
-143.977
-148.516
-152.868
-157.019
-160.957
-164.671
-168.153
-171.395
-174.392
-177.14
-179.638
-181.886
-183.885
-185.639
-187.154
-188.437
-189.498
-190.345
-190.992
-191.45
-191.734
-191.858
-191.837
-191.684
-191.414
-191.043
-190.584
-190.053
-189.462
-188.825
-188.155
-187.464
-186.764
-186.064
-185.374
-184.702
-184.054
-183.435
-182.851
-182.302
-181.79
-181.313
-180.87
-180.457
-180.07
-179.701
-179.343
-178.986
-178.619
-178.231
-177.809
-177.339
-176.806
-176.196
-175.494
-174.687
-173.761
-172.703
-171.499
-170.139
-168.611
-166.906
-165.015
-162.93
-160.645
-158.153
-155.451
-152.539
-149.415
-146.081
-142.542
-138.804
-134.879
-130.78
-126.521
-122.115
-117.582
-112.94
-108.21
-103.411
-98.561
-93.679
-88.788
-83.912
-79.077
-74.307
-69.625
-65.051
-60.609
-56.32
-52.203
-48.272
-44.534
-41.002
-37.69
-34.623
-31.831
-29.338
-27.156
-25.293
-23.755
-22.541
-21.642
-21.034
-20.671
-20.506
-20.503
-20.632
-20.869
-21.177
-21.502
-21.78
-21.942
-21.934
-21.718
-21.269
-20.569
-19.627
-18.47
-17.148
-15.765
-14.429
-13.248
-12.336
-11.795
-11.715
-12.236
-13.556
-15.785
-18.928
-22.823
-27.097
-31.361
-35.264
-38.358
-40.088
-40.028
-38.065
-34.638
-30.744
-27.486
-25.824
-26.599
-30.641
-38.493
-49.914
-63.389
-76.347
-85.721
-88.214
-80.667
-59.888
-22.594
32.241
102.24
184.11
273.457
367.815
469.037
575.335
679.573
769.181
825.429
834.905
794.645
710.444
594.414
456.927
306.76
153.268
10.167
-102.998
-173.931
-200.28
-191.383
-167.54
-142.373
-121.842
-106.472
-90.426
-72.383
-54.983
-40.867
-33.965
-35.507
-43.506
-55.291
-67.553
-77.695
-84.704
-88.207
-88.006
-84.082
-76.832
-67.303
-57.063
-47.443
-39.118
-32.328
-27.134
-23.668
-21.994
-21.862
-22.759
-24.197
-25.881
-27.674
-29.495
-31.172
-32.52
-33.439
-33.91
-33.964
-33.612
-32.829
-31.591
-29.91
-27.819
-25.363
-22.582
-19.504
-16.166
-12.622
-8.932
-5.173
-1.394
2.375
6.112
9.808
13.463
17.08
20.679
24.289
27.933
31.63
35.399
39.251
43.201
47.267
51.46
55.795
60.282
64.923
69.723
74.681
79.793
85.05
90.439
95.944
101.548
107.237
112.992
118.795
124.627
130.466
136.292
142.081
147.81
153.453
158.983
164.371
169.591
174.616
179.418
183.97
188.247
192.224
195.878
199.187
202.13
204.688
206.845
208.585
209.897
210.771
211.2
211.177
210.702
209.776
208.4
206.582
204.331
201.656
198.571
195.093
191.24
187.031
182.489
177.638
172.504
167.114
161.496
155.681
149.698
143.579
137.354
131.055
124.712
118.357
112.019
105.728
99.51
93.395
87.406
81.57
75.907
70.439
65.185
60.162
55.384
50.864
46.612
42.637
38.945
35.539
32.423
29.595
27.054
24.795
22.814
21.102
19.652
18.454
17.496
16.766
16.251
15.938
15.814
15.864
16.074
16.428
16.914
17.515
18.22
19.013
19.88
20.81
21.789
22.806
23.851
24.914
25.986
27.06
28.129
29.189
30.237
31.27
32.285
33.283
34.264
35.23
36.185
37.129
38.069
39.007
39.95
40.903
41.872
42.86
43.874
44.917
45.995
47.113
48.272
49.475
50.724
52.02
53.366
54.762
56.208
57.701
59.239
60.82
62.439
64.089
65.757
67.433
69.104
70.758
72.378
73.95
75.457
76.884
78.219
79.45
80.562
81.536
82.354
83
83.46
83.721
83.769
83.59
83.173
82.513
81.614
80.474
79.085
77.432
75.492
73.251
70.707
67.861
64.713
61.269
57.541
53.56
49.38
45.052
40.615
36.099
31.526
26.941
22.409
18.003
13.797
9.841
6.167
2.809
-0.204
-2.872
-5.22
-7.307
-9.238
-11.11
-13.007
-15.027
-17.272
-19.847
-22.913
-26.653
-31.168
-36.446
-42.314
-48.448
-54.484
-60.053
-64.731
-68.038
-69.618
-69.425
-67.955
-66.164
-65.114
-65.837
-69.017
-75.018
-84.258
-96.7
-110.84
-124.484
-133.985
-134.008
-122.044
-97.216
-59.685
-14.082
38.291
100.415
174.228
265.593
375.715
496.648
618.93
726.427
803.591
840.009
825.307
758.17
641.818
483.956
304.125
122.22
-39.153
-157.704
-226.376
-245.766
-226.776
-190.096
-150.349
-120.363
-107.179
-107.423
-117.029
-127.988
-132.59
-130.761
-125.32
-121.588
-124.331
-132.888
-143.496
-152.592
-158.374
-160.811
-160.842
-159.144
-155.464
-150.207
-144.679
-139.684
-135.731
-133.033
-131.281
-130.444
-130.828
-132.321
-134.497
-137.051
-139.666
-142.17
-144.572
-146.727
-148.432
-149.604
-150.218
-150.284
-149.844
-148.901
-147.443
-145.504
-143.122
-140.339
-137.202
-133.741
-129.998
-126.031
-121.9
-117.675
-113.405
-109.119
-104.84
-100.581
-96.346
-92.134
-87.93
-83.71
-79.459
-75.164
-70.815
-66.404
-61.918
-57.345
-52.676
-47.904
-43.021
-38.027
-32.921
-27.703
-22.382
-16.966
-11.469
-5.906
-0.291
5.36
11.031
16.706
22.365
27.991
33.565
39.067
44.476
49.769
54.923
59.915
64.72
69.317
73.682
77.791
81.623
85.157
88.375
91.258
93.789
95.952
97.735
99.126
100.117
100.701
100.873
100.631
99.976
98.912
97.444
95.581
93.333
90.713
87.737
84.421
80.786
76.852
72.641
68.177
63.485
58.592
53.525
48.312
42.981
37.562
32.082
26.571
21.056
15.565
10.124
4.758
-0.508
-5.653
-10.653
-15.491
-20.149
-24.61
-28.86
-32.889
-36.686
-40.245
-43.559
-46.627
-49.446
-52.019
-54.347
-56.436
-58.291
-59.921
-61.335
-62.542
-63.555
-64.384
-65.043
-65.545
-65.902
-66.13
-66.242
-66.251
-66.17
-66.013
-65.792
-65.52
-65.206
-64.861
-64.494
-64.113
-63.725
-63.336
-62.948
-62.566
-62.189
-61.818
-61.452
-61.089
-60.725
-60.353
-59.969
-59.564
-59.132
-58.664
-58.15
-57.58
-56.944
-56.233
-55.438
-54.549
-53.557
-52.451
-51.224
-49.869
-48.38
-46.75
-44.975
-43.05
-40.973
-38.743
-36.363
-33.833
-31.157
-28.341
-25.393
-22.326
-19.151
-15.882
-12.533
-9.122
-5.665
-2.182
1.312
4.798
8.261
11.682
15.038
18.309
21.473
24.509
27.397
30.116
32.646
34.969
37.078
38.963
40.616
42.02
43.151
43.991
44.532
44.768
44.695
44.317
43.646
42.711
41.566
40.256
38.827
37.309
35.718
34.084
32.45
30.865
29.39
28.059
26.885
25.893
25.121
24.564
24.176
23.859
23.458
22.868
22.039
20.918
19.442
17.509
14.994
11.785
7.835
3.099
-2.535
-9.097
-16.508
-24.463
-32.315
-39.338
-44.934
-48.547
-49.608
-47.917
-43.623
-37.32
-30.459
-24.528
-20.602
-19.801
-22.974
-30.007
-39.954
-50.836
-59.146
-61.371
-54.363
-34.485
1.29
54.941
126.05
210.528
302.51
395.529
485.828
574.378
660.386
739.921
804.781
837.001
820.445
747.315
614.989
437.618
240.336
47.343
-113.539
-224.611
-285.447
-301.429
-285.813
-253.626
-211.572
-166.369
-126.669
-97.998
-84.89
-86.848
-95.103
-102.013
-104.799
-104.453
-106.333
-114.061
-126.696
-141.366
-154.74
-164.913
-171.44
-174.6
-175.042
-173.301
-170.324
-167.332
-164.968
-163.586
-163.499
-164.702
-167.166
-170.818
-175.214
-179.768
-184.085
-187.906
-191.103
-193.691
-195.659
-196.973
-197.672
-197.828
-197.511
-196.784
-195.674
-194.174
-192.293
-190.073
-187.573
-184.874
-182.061
-179.195
-176.311
-173.44
-170.603
-167.816
-165.094
-162.438
-159.829
-157.255
-154.711
-152.197
-149.712
-147.25
-144.794
-142.323
-139.82
-137.273
-134.675
-132.022
-129.305
-126.521
-123.668
-120.751
-117.775
-114.745
-111.663
-108.531
-105.355
-102.138
-98.891
-95.62
-92.335
-89.044
-85.76
-82.495
-79.265
-76.083
-72.964
-69.924
-66.977
-64.142
-61.436
-58.874
-56.475
-54.255
-52.23
-50.417
-48.832
-47.487
-46.398
-45.574
-45.027
-44.767
-44.8
-45.133
-45.769
-46.71
-47.956
-49.505
-51.354
-53.495
-55.921
-58.621
-61.584
-64.797
-68.243
-71.906
-75.767
-79.807
-84.005
-88.338
-92.783
-97.316
-101.913
-106.547
-111.195
-115.831
-120.428
-124.961
-129.406
-133.739
-137.936
-141.975
-145.835
-149.495
-152.938
-156.146
-159.103
-161.797
-164.215
-166.348
-168.188
-169.729
-170.968
-171.902
-172.532
-172.86
-172.889
-172.625
-172.074
-171.245
-170.146
-168.789
-167.187
-165.353
-163.3
-161.045
-158.602
-155.99
-153.224
-150.324
-147.305
-144.186
-140.983
-137.714
-134.395
-131.041
-127.668
-124.289
-120.918
-117.568
-114.249
-110.973
-107.747
-104.578
-101.473
-98.438
-95.475
-92.588
-89.777
-87.042
-84.385
-81.802
-79.294
-76.857
-74.487
-72.179
-69.931
-67.738
-65.594
-63.494
-61.433
-59.405
-57.407
-55.435
-53.486
-51.557
-49.646
-47.755
-45.886
-44.043
-42.229
-40.449
-38.708
-37.013
-35.372
-33.789
-32.271
-30.824
-29.458
-28.184
-27.014
-25.962
-25.039
-24.257
-23.629
-23.169
-22.887
-22.784
-22.866
-23.138
-23.611
-24.309
-25.247
-26.431
-27.866
-29.554
-31.489
-33.658
-36.032
-38.563
-41.206
-43.92
-46.68
-49.475
-52.282
-55.066
-57.779
-60.364
-62.786
-65.033
-67.081
-68.899
-70.49
-71.895
-73.206
-74.564
-76.068
-77.763
-79.689
-81.899
-84.474
-87.516
-91.137
-95.376
-100.282
-105.972
-112.444
-119.596
-127.142
-134.453
-140.872
-145.918
-149.057
-149.743
-147.936
-143.833
-138.077
-132.184
-127.367
-124.329
-124.007
-127.011
-132.851
-140.513
-147.927
-151.447
-148.125
-135.756
-111.538
-73.265
-20.163
47.651
126.968
211.224
294.944
373.833
446.207
512.781
570.62
613.263
630.534
611.645
553.644
459.518
337.22
200.916
63.193
-62.262
-159.244
-220.781
-246.934
-245.573
-233.198
-220.243
-210.649
-204.061
-195.536
-184.299
-172.725
-162.991
-157.756
-157.221
-159.716
-163.878
-167.911
-170.171
-170.074
-167.504
-162.804
-156.747
-149.996
-143.052
-136.498
-130.94
-126.712
-123.926
-122.488
-122.107
-122.524
-123.548
-124.986
-126.637
-128.326
-129.867
-131.064
-131.803
-132.007
-131.612
-130.597
-128.931
-126.588
-123.584
-119.974
-115.812
-111.159
-106.063
-100.552
-94.676
-88.498
-82.093
-75.546
-68.914
-62.234
-55.531
-48.824
-42.127
-35.451
-28.788
-22.115
-15.415
-8.681
-1.909
4.896
11.74
18.63
25.576
32.583
39.653
46.783
53.973
61.219
68.517
75.856
83.222
90.6
97.975
105.335
112.669
119.962
127.203
134.377
141.471
148.473
155.367
162.139
168.769
175.242
181.54
187.647
193.546
199.221
204.657
209.84
214.756
219.394
223.742
227.789
231.525
234.941
238.032
240.792
243.215
245.298
247.04
248.441
249.504
250.232
250.631
250.706
250.465
249.917
249.071
247.938
246.524
244.84
242.896
240.705
238.279
235.634
232.782
229.742
226.533
223.179
219.7
216.113
212.436
208.685
204.879
201.039
197.178
193.311
189.451
185.619
181.838
178.128
174.503
170.967
167.514
164.142
160.857
157.664
154.568
151.581
148.716
146.007
143.506
141.264
139.324
137.717
136.458
135.579
135.123
135.131
135.648
136.697
138.286
140.428
143.115
146.303
149.915
153.832
157.914
162.031
166.039
169.78
173.111
175.894
178.016
179.358
179.728
179.014
177.245
174.581
171.381
168.036
164.825
162.166
160.73
161.004
163.102
166.674
170.805
174.691
177.845
179.529
178.676
174.478
168.085
162.575
161.165
166.155
175.853
186.854
200.506
221.764
259.097
321.078
407.79
513.368
629.628
747.934
861.522
961.907
1037.61
1073.486
1056.36
983.354
858.68
695.992
516.832
339.489
183.793
67.816
-2.509
-25.878
-10.714
24.212
63.994
93.807
104.468
98.57
81.24
62.111
50.046
45.869
46.985
47.981
44.513
37.064
28.276
21.118
16.983
15.32
15.041
15.141
15.097
14.548
12.948
9.949
5.477
-0.353
-7.275
-15.072
-23.611
-32.726
-42.171
-51.719
-61.161
-70.29
-78.98
-87.131
-94.639
-101.451
-107.533
-112.856
-117.427
-121.282
-124.45
-126.97
-128.879
-130.194
-130.958
-131.23
-131.075
-130.572
-129.778
-128.726
-127.44
-125.938
-124.227
-122.314
-120.188
-117.825
-115.211
-112.339
-109.207
-105.821
-102.182
-98.286
-94.132
-89.722
-85.059
-80.157
-75.027
-69.683
-64.142
-58.427
-52.565
-46.584
-40.512
-34.375
-28.197
-22.005
-15.823
-9.679
-3.598
2.396
8.277
14.021
19.6
24.989
30.164
35.102
39.782
44.182
48.282
52.067
55.519
58.626
61.375
63.758
65.767
67.395
68.641
69.504
69.985
70.089
69.821
69.189
68.204
66.879
65.226
63.262
61.004
58.468
55.676
52.647
49.402
45.963
42.352
38.592
34.707
30.719
26.652
22.53
18.374
14.207
10.051
5.926
1.851
-2.154
-6.074
-9.892
-13.594
-17.168
-20.603
-23.889
-27.019
-29.988
-32.789
-35.421
-37.882
-40.173
-42.294
-44.248
-46.039
-47.672
-49.154
-50.489
-51.686
-52.754
-53.7
-54.534
-55.265
-55.903
-56.459
-56.943
-57.365
-57.736
-58.067
-58.368
-58.649
-58.919
-59.189
-59.465
-59.757
-60.071
-60.414
-60.791
-61.206
-61.664
-62.168
-62.72
-63.321
-63.972
-64.673
-65.423
-66.22
-67.062
-67.946
-68.87
-69.829
-70.818
-71.833
-72.87
-73.921
-74.982
-76.045
-77.104
-78.151
-79.179
-80.178
-81.141
-82.06
-82.924
-83.726
-84.457
-85.108
-85.673
-86.143
-86.511
-86.77
-86.914
-86.938
-86.835
-86.603
-86.235
-85.73
-85.085
-84.298
-83.367
-82.293
-81.074
-79.712
-78.206
-76.56
-74.774
-72.853
-70.798
-68.615
-66.308
-63.884
-61.349
-58.71
-55.977
-53.158
-50.262
-47.299
-44.279
-41.212
-38.109
-34.979
-31.833
-28.682
-25.535
-22.405
-19.299
-16.227
-13.199
-10.225
-7.312
-4.468
-1.7
0.985
3.58
6.077
8.47
10.754
12.923
14.972
16.894
18.685
20.34
21.856
23.23
24.46
25.541
26.473
27.252
27.876
28.344
28.651
28.791
28.762
28.557
28.173
27.606
26.852
25.906
24.768
23.437
21.913
20.194
18.277
16.157
13.832
11.3
8.559
5.607
2.441
-0.936
-4.517
-8.294
-12.26
-16.414
-20.765
-25.317
-30.065
-35.004
-40.126
-45.416
-50.85
-56.393
-61.987
-67.575
-73.105
-78.534
-83.835
-88.969
-93.889
-98.539
-102.855
-106.794
-110.338
-113.461
-116.129
-118.348
-120.167
-121.681
-123.051
-124.392
-125.769
-127.261
-128.959
-130.973
-133.433
-136.431
-139.979
-144.138
-149.038
-154.707
-161.09
-167.92
-174.63
-180.684
-185.668
-189.054
-190.227
-188.874
-184.974
-178.949
-171.857
-164.736
-158.314
-153.616
-151.966
-152.762
-153.548
-151.905
-144.094
-130.247
-115.703
-100.944
-84.465
-60.283
-13.394
63.274
170.417
305.234
451.8
593.24
713.466
792.764
819.749
792.329
714.309
597.581
456.621
302.981
149.79
13.299
-92.33
-157.831
-183.271
-181.925
-170.907
-161.123
-157.193
-155.749
-150.711
-142.077
-132.413
-124.831
-122.927
-126.7
-134.037
-143.383
-152.575
-159.556
-163.636
-164.514
-162.268
-157.754
-151.852
-145.212
-138.67
-133.032
-128.67
-125.777
-124.364
-124.173
-125.006
-126.703
-129.027
-131.773
-134.782
-137.902
-141.006
-143.959
-146.577
-148.717
-150.284
-151.209
-151.471
-151.056
-149.955
-148.198
-145.837
-142.923
-139.506
-135.625
-131.312
-126.621
-121.614
-116.363
-110.946
-105.415
-99.806
-94.146
-88.448
-82.716
-76.95
-71.131
-65.235
-59.245
-53.149
-46.938
-40.61
-34.155
-27.561
-20.821
-13.924
-6.866
0.354
7.737
15.281
22.978
30.819
38.79
46.875
55.057
63.322
71.652
80.03
88.438
96.857
105.265
113.641
121.963
130.207
138.345
146.352
154.2
161.864
169.314
176.524
183.467
190.116
196.445
202.429
208.044
213.268
218.079
222.457
226.385
229.847
232.83
235.322
237.315
238.803
239.784
240.257
240.226
239.696
238.676
237.177
235.214
232.803
229.963
226.714
223.081
219.088
214.764
210.137
205.238
200.098
194.75
189.227
183.563
177.792
171.949
166.066
160.177
154.315
148.512
142.798
137.203
131.756
126.482
121.406
116.552
111.938
107.583
103.502
99.708
96.212
93.021
90.14
87.573
85.32
83.379
81.745
80.413
79.373
78.617
78.131
77.901
77.914
78.151
78.597
79.233
80.04
80.998
82.088
83.29
84.582
85.946
87.36
88.805
90.262
91.712
93.139
94.524
95.853
97.112
98.287
99.368
100.345
101.208
101.951
102.569
103.058
103.416
103.643
103.74
103.709
103.555
103.285
102.905
102.424
101.85
101.192
100.462
99.671
98.831
97.954
97.053
96.139
95.228
94.333
93.467
92.642
91.872
91.168
90.541
90.005
89.567
89.236
89.021
88.927
88.962
89.129
89.431
89.869
90.443
91.15
91.987
92.948
94.022
95.198
96.462
97.8
99.198
100.64
102.108
103.585
105.057
106.508
107.923
109.285
110.571
111.76
112.833
113.771
114.554
115.166
115.585
115.798
115.801
115.586
115.146
114.464
113.514
112.274
110.737
108.898
106.755
104.317
101.597
98.624
95.452
92.13
88.702
85.201
81.638
78.038
74.446
70.916
67.514
64.288
61.258
58.452
55.904
53.604
51.515
49.551
47.578
45.515
43.306
40.884
38.185
35.114
31.552
27.423
22.639
17.053
10.632
3.451
-4.286
-12.062
-19.287
-25.467
-30.016
-32.329
-32.154
-29.618
-25.33
-20.65
-16.995
-15.364
-16.718
-21.884
-30.952
-43.083
-56.297
-67.237
-72.346
-68.476
-52.492
-21.521
26.638
91.423
168.923
254.177
341.361
427.889
516.356
605.503
690.306
761.681
800.533
791.849
730.365
615.558
461.537
290.423
121.075
-24.667
-130.694
-194.008
-215.207
-203.839
-176.723
-146.056
-124.908
-121.686
-134.763
-159.776
-186.895
-206.843
-217.773
-221.67
-224.268
-230.249
-239.604
-250.109
-258.796
-264.202
-266.834
-267.761
-267.978
-267.974
-268.042
-268.623
-270.028
-272.375
-275.616
-279.546
-284.011
-288.904
-294.081
-299.383
-304.641
-309.712
-314.456
-318.711
-322.344
-325.258
-327.392
-328.731
-329.27
-328.999
-327.943
-326.159
-323.708
-320.659
-317.068
-312.976
-308.446
-303.555
-298.395
-293.068
-287.65
-282.196
-276.749
-271.344
-266.006
-260.757
-255.602
-250.528
-245.53
-240.608
-235.766
-231.015
-226.354
-221.779
-217.282
-212.857
-208.502
-204.213
-199.99
-195.828
-191.728
-187.69
-183.721
-179.826
-176.01
-172.274
-168.619
-165.045
-161.553
-158.142
-154.814
-151.566
-148.399
-145.314
-142.315
-139.404
-136.586
-133.864
-131.244
-128.729
-126.325
-124.038
-121.872
-119.831
-117.921
-116.147
-114.513
-113.023
-111.684
-110.499
-109.472
-108.606
-107.904
-107.37
-107.004
-106.807
-106.779
-106.916
-107.219
-107.685
-108.311
-109.095
-110.034
-111.126
-112.372
-113.771
-115.32
-117.018
-118.859
-120.841
-122.958
-125.202
-127.563
-130.03
-132.596
-135.252
-137.99
-140.803
-143.679
-146.607
-149.577
-152.579
-155.603
-158.635
-161.657
-164.657
-167.633
-170.586
-173.534
-176.485
-179.434
-182.38
-185.322
-188.251
-191.158
-194.014
-196.764
-199.359
-201.753
-203.907
-205.801
-207.391
-208.611
-209.398
-209.67
-209.384
-208.536
-207.108
-205.083
-202.476
-199.304
-195.655
-191.712
-187.637
-183.595
-179.768
-176.273
-173.306
-171.164
-170.021
-169.97
-170.939
-172.568
-174.541
-176.681
-178.645
-179.998
-180.459
-179.777
-178.167
-176.547
-175.728
-176.324
-178.957
-183.985
-191.449
-201.213
-212.339
-222.612
-229.52
-230.484
-222.882
-204.379
-172.79
-126.044
-62.564
16.322
106.296
202.64
299.994
396.175
495.262
598.785
702.876
797.677
860.978
871.565
819.959
705.881
545.495
363.766
182.627
23.48
-99.449
-181.645
-224.389
-235.85
-225.454
-200.606
-167.247
-130.556
-98.709
-79.34
-76.331
-88.485
-108.094
-127.586
-142.756
-152.873
-160.966
-169.189
-177.549
-184.936
-188.98
-188.436
-183.919
-176.77
-168.933
-161.861
-156.011
-151.591
-148.735
-147.574
-148.197
-150.364
-153.54
-157.25
-161.214
-165.28
-169.362
-173.278
-176.761
-179.641
-181.844
-183.344
-184.141
-184.197
-183.449
-181.885
-179.542
-176.471
-172.739
-168.393
-163.47
-158.029
-152.144
-145.903
-139.405
-132.724
-125.913
-119.013
-112.051
-105.049
-98.026
-90.983
-83.912
-76.808
-69.668
-62.497
-55.305
-48.1
-40.884
-33.661
-26.436
-19.217
-12.015
-4.843
2.284
9.351
16.337
23.221
29.98
36.592
43.038
49.301
55.363
61.209
66.824
72.193
77.303
82.14
86.691
90.941
94.876
98.485
101.756
104.677
107.24
109.435
111.256
112.697
113.754
114.424
114.707
114.603
114.115
113.247
112.005
110.398
108.435
106.127
103.487
100.532
97.276
93.737
89.934
85.886
81.613
77.136
72.477
67.658
62.703
57.633
52.473
47.248
41.982
36.698
31.422
26.176
20.985
15.871
10.856
5.961
1.205
-3.392
-7.813
-12.043
-16.065
-19.868
-23.44
-26.77
-29.852
-32.678
-35.244
-37.547
-39.585
-41.359
-42.869
-44.118
-45.111
-45.852
-46.349
-46.609
-46.641
-46.455
-46.062
-45.475
-44.706
-43.768
-42.676
-41.446
-40.091
-38.627
-37.071
-35.438
-33.744
-32.005
-30.238
-28.456
-26.676
-24.912
-23.177
-21.487
-19.852
-18.287
-16.801
-15.407
-14.115
-12.934
-11.873
-10.94
-10.143
-9.488
-8.981
-8.627
-8.428
-8.39
-8.512
-8.797
-9.245
-9.855
-10.626
-11.557
-12.643
-13.881
-15.267
-16.796
-18.463
-20.261
-22.184
-24.227
-26.381
-28.64
-30.998
-33.445
-35.976
-38.581
-41.253
-43.984
-46.765
-49.587
-52.444
-55.325
-58.223
-61.13
-64.038
-66.939
-69.826
-72.69
-75.525
-78.325
-81.081
-83.789
-86.443
-89.036
-91.565
-94.024
-96.409
-98.716
-100.941
-103.078
-105.124
-107.074
-108.924
-110.668
-112.301
-113.82
-115.219
-116.495
-117.642
-118.656
-119.534
-120.27
-120.859
-121.299
-121.584
-121.709
-121.67
-121.463
-121.083
-120.528
-119.792
-118.872
-117.763
-116.463
-114.968
-113.275
-111.381
-109.282
-106.978
-104.469
-101.754
-98.836
-95.716
-92.4
-88.896
-85.21
-81.353
-77.337
-73.171
-68.869
-64.443
-59.908
-55.275
-50.557
-45.767
-40.92
-36.034
-31.127
-26.218
-21.327
-16.473
-11.674
-6.952
-2.326
2.194
6.595
10.862
14.974
18.902
22.615
26.098
29.334
32.31
35.025
37.481
39.698
41.718
43.579
45.318
46.962
48.517
49.998
51.433
52.858
54.325
55.877
57.526
59.289
61.189
63.216
65.315
67.388
69.274
70.834
71.996
72.685
72.823
72.328
71.099
69.057
66.17
62.367
57.493
51.505
44.505
36.773
28.866
21.383
14.833
9.835
7.162
7.211
9.859
14.605
20.33
25.794
30.062
31.946
30.009
24.693
18.531
14.146
14.037
17.582
21.791
27.423
41.116
73.936
134.727
225.434
338.248
459.339
581.233
699.431
808.702
903.879
969.6
987.649
950.902
858.658
719.811
553.857
377.411
208.153
66.553
-36.07
-94.979
-112.936
-102.697
-76.072
-41.212
-5.833
23.62
41.487
43.747
32.494
16.219
3.034
-2.882
-2.091
0.319
0.743
-0.749
-2.722
-3.048
-0.933
2.672
6.718
10.411
13.205
14.775
14.95
13.683
11.124
7.579
3.292
-1.59
-6.884
-12.376
-17.847
-23.055
-27.844
-32.146
-35.893
-39.037
-41.546
-43.395
-44.596
-45.195
-45.243
-44.788
-43.879
-42.552
-40.864
-38.884
-36.691
-34.374
-31.996
-29.599
-27.211
-24.849
-22.52
-20.229
-17.962
-15.69
-13.388
-11.039
-8.626
-6.142
-3.571
-0.894
1.911
4.863
7.979
11.269
14.743
18.412
22.28
26.35
30.621
35.085
39.738
44.575
49.593
54.785
60.144
65.659
71.32
77.115
83.027
89.04
95.134
101.284
107.469
113.663
119.842
125.977
132.043
138.011
143.853
149.541
155.049
160.35
165.415
170.221
174.742
178.955
182.838
186.371
189.535
192.312
194.689
196.653
198.193
199.303
199.975
200.208
200.002
199.358
198.282
196.781
194.864
192.544
189.837
186.76
183.332
179.576
175.515
171.173
166.577
161.754
156.732
151.538
146.203
140.753
135.217
129.623
123.998
118.369
112.762
107.201
101.71
96.311
91.025
85.87
80.865
76.026
71.365
66.895
62.626
58.566
54.721
51.095
47.692
44.512
41.553
38.813
36.286
33.967
31.846
29.915
28.162
26.574
25.14
23.846
22.677
21.618
20.657
19.776
18.962
18.201
17.476
16.774
16.082
15.385
14.671
13.929
13.147
12.317
11.43
10.478
9.454
8.354
7.172
5.907
4.555
3.114
1.586
-0.028
-1.726
-3.503
-5.355
-7.273
-9.251
-11.278
-13.344
-15.439
-17.552
-19.671
-21.783
-23.875
-25.933
-27.945
-29.897
-31.776
-33.567
-35.258
-36.835
-38.287
-39.604
-40.776
-41.793
-42.647
-43.332
-43.842
-44.175
-44.327
-44.295
-44.078
-43.678
-43.099
-42.345
-41.421
-40.336
-39.102
-37.734
-36.249
-34.666
-33.002
-31.279
-29.518
-27.742
-25.975
-24.233
-22.537
-20.907
-19.369
-17.947
-16.667
-15.548
-14.613
-13.881
-13.375
-13.114
-13.108
-13.362
-13.88
-14.674
-15.76
-17.166
-18.908
-20.99
-23.415
-26.178
-29.271
-32.676
-36.358
-40.256
-44.313
-48.479
-52.717
-57.001
-61.284
-65.503
-69.584
-73.451
-77.048
-80.335
-83.266
-85.815
-87.987
-89.817
-91.381
-92.773
-94.07
-95.355
-96.721
-98.256
-100.068
-102.255
-104.933
-108.283
-112.385
-117.179
-122.468
-127.81
-132.691
-136.702
-139.332
-139.928
-138.118
-133.931
-127.882
-121.214
-115.233
-110.815
-108.769
-109.925
-114.616
-122.281
-131.151
-138.087
-139.636
-132.708
-114.346
-81.641
-31.798
35.56
117.229
208.577
303.975
400.037
498.803
600.249
698.668
784.881
841.667
851.148
807.487
710.09
566.205
397.017
221.588
61.772
-56.698
-126.18
-148.736
-136.283
-113.194
-92.679
-78.984
-71.148
-61.077
-47.196
-32.749
-20.674
-15.012
-16.33
-22.239
-30.792
-39.622
-46.587
-50.931
-52.371
-51.058
-47.788
-43.365
-38.439
-33.77
-30.104
-27.815
-27.042
-27.726
-29.573
-32.316
-35.752
-39.636
-43.721
-47.812
-51.732
-55.306
-58.424
-60.992
-62.926
-64.186
-64.75
-64.6
-63.746
-62.227
-60.087
-57.383
-54.168
-50.479
-46.37
-41.906
-37.161
-32.223
-27.161
-22.019
-16.834
-11.632
-6.43
-1.245
3.923
9.089
14.266
19.458
24.666
29.886
35.116
40.364
45.636
50.938
56.271
61.633
67.02
72.429
77.854
83.288
88.716
94.122
99.492
104.817
110.083
115.281
120.399
125.422
130.34
135.141
139.813
144.341
148.711
152.907
156.915
160.721
164.312
167.672
170.789
173.65
176.241
178.553
180.574
182.295
183.707
184.8
185.571
186.012
186.123
185.9
185.343
184.454
183.238
181.699
179.846
177.686
175.232
172.494
169.487
166.227
162.73
159.014
155.097
151.001
146.745
142.353
137.846
133.247
128.58
123.868
119.134
114.401
109.692
105.029
100.433
95.924
91.522
87.246
83.113
79.137
75.335
71.717
68.296
65.081
62.078
59.292
56.727
54.385
52.265
50.364
48.679
47.203
45.931
44.852
43.958
43.236
42.674
42.259
41.975
41.809
41.744
41.764
41.853
41.994
42.171
42.368
42.568
42.756
42.916
43.035
43.099
43.094
43.009
42.834
42.559
42.176
41.678
41.061
40.32
39.454
38.459
37.338
36.091
34.721
33.233
31.631
29.922
28.114
26.216
24.24
22.195
20.094
17.949
15.772
13.577
11.378
9.188
7.019
4.886
2.801
0.778
-1.17
-3.031
-4.794
-6.449
-7.985
-9.394
-10.668
-11.803
-12.792
-13.633
-14.323
-14.86
-15.242
-15.472
-15.55
-15.481
-15.269
-14.919
-14.441
-13.848
-13.154
-12.372
-11.518
-10.607
-9.657
-8.685
-7.706
-6.733
-5.777
-4.854
-3.98
-3.172
-2.446
-1.814
-1.289
-0.884
-0.614
-0.491
-0.52
-0.699
-1.031
-1.527
-2.2
-3.074
-4.162
-5.468
-6.994
-8.743
-10.714
-12.898
-15.266
-17.77
-20.36
-22.997
-25.648
-28.286
-30.863
-33.318
-35.585
-37.604
-39.332
-40.746
-41.822
-42.536
-42.905
-42.965
-42.782
-42.466
-42.124
-41.861
-41.813
-42.106
-42.833
-44.141
-46.207
-49.125
-52.91
-57.415
-62.284
-67.209
-71.971
-76.262
-79.657
-81.794
-82.48
-82.06
-81.446
-81.421
-82.349
-84.559
-88.623
-95.118
-104.373
-114.452
-121.204
-121.283
-113.023
-98.718
-82.565
-64.224
-38.838
2.368
67.874
158.093
266.535
383.244
498.725
606.741
701.198
773.81
810.276
795.615
722.569
591.169
417.121
227.465
48.514
-92.285
-179.746
-216.803
-214.579
-193.935
-173.85
-160.072
-152.189
-144.583
-131.365
-114.281
-97.509
-84.41
-77.832
-77.547
-81.964
-90.212
-100.805
-111.683
-121.296
-128.861
-134.176
-137.584
-139.285
-138.987
-136.818
-133.602
-130.353
-127.772
-126.108
-125.237
-125.054
-125.73
-127.311
-129.539
-131.929
-134.005
-135.515
-136.39
-136.639
-136.218
-135.057
-133.139
-130.526
-127.314
-123.573
-119.348
-114.648
-109.48
-103.895
-97.96
-91.761
-85.394
-78.929
-72.415
-65.895
-59.402
-52.961
-46.6
-40.327
-34.137
-28.032
-22.01
-16.079
-10.253
-4.537
1.073
6.585
12.011
17.354
22.614
27.787
32.875
37.873
42.78
47.588
52.285
56.864
61.32
65.65
69.851
73.919
77.85
81.637
85.277
88.765
92.094
95.258
98.249
101.056
103.673
106.09
108.299
110.288
112.048
113.568
114.838
115.848
116.587
117.046
117.214
117.084
116.647
115.898
114.83
113.441
111.726
109.684
107.316
104.623
101.607
98.273
94.626
90.673
86.422
81.883
77.067
71.987
66.657
61.092
55.311
49.333
43.177
36.866
30.423
23.872
17.239
10.549
3.83
-2.892
-9.588
-16.231
-22.794
-29.249
-35.57
-41.731
-47.707
-53.475
-59.011
-64.296
-69.309
-74.032
-78.45
-82.547
-86.311
-89.729
-92.794
-95.495
-97.829
-99.791
-101.38
-102.595
-103.439
-103.917
-104.037
-103.807
-103.239
-102.347
-101.146
-99.654
-97.889
-95.874
-93.629
-91.179
-88.548
-85.762
-82.846
-79.827
-76.73
-73.583
-70.41
-67.237
-64.088
-60.987
-57.956
-55.018
-52.193
-49.502
-46.963
-44.594
-42.41
-40.426
-38.654
-37.106
-35.789
-34.708
-33.869
-33.273
-32.92
-32.808
-32.932
-33.285
-33.859
-34.644
-35.628
-36.796
-38.132
-39.621
-41.245
-42.985
-44.824
-46.743
-48.724
-50.749
-52.801
-54.865
-56.924
-58.965
-60.972
-62.932
-64.833
-66.664
-68.415
-70.078
-71.646
-73.115
-74.486
-75.761
-76.947
-78.047
-79.07
-80.025
-80.925
-81.782
-82.605
-83.404
-84.191
-84.982
-85.796
-86.649
-87.558
-88.537
-89.604
-90.773
-92.059
-93.47
-95.012
-96.686
-98.497
-100.458
-102.585
-104.901
-107.421
-110.15
-113.093
-116.254
-119.625
-123.196
-126.938
-130.801
-134.746
-138.738
-142.741
-146.726
-150.642
-154.427
-158.023
-161.358
-164.369
-167.015
-169.262
-171.083
-172.477
-173.434
-173.975
-174.186
-174.158
-173.99
-173.777
-173.576
-173.505
-173.758
-174.49
-175.745
-177.369
-179.023
-180.386
-181.184
-181.064
-179.586
-176.38
-171.397
-165.31
-159.218
-154.108
-151.093
-151.284
-155.501
-164.57
-177.519
-190.492
-200.838
-206.957
-208.427
-208.107
-202.642
-182.777
-140.335
-67.792
31.201
142.894
254.398
356.363
448.819
534.077
610.415
669.94
695.103
674.898
606.323
491.762
347.434
190.139
34.952
-98.299
-195.673
-251.697
-264.6
-241.526
-198.163
-146.763
-100.898
-74.939
-70.928
-86.975
-115.798
-142.258
-159.639
-166.893
-166.093
-164.76
-165.904
-168.69
-172.12
-173.821
-173.168
-171.336
-169.125
-167.33
-166.562
-166.846
-168.144
-170.413
-173.443
-177.038
-181.086
-185.467
-190.004
-194.548
-198.935
-202.991
-206.622
-209.74
-212.252
-214.101
-215.25
-215.687
-215.43
-214.514
-212.971
-210.845
-208.183
-205.023
-201.424
-197.45
-193.174
-188.683
-184.042
-179.305
-174.515
-169.703
-164.893
-160.104
-155.338
-150.59
-145.857
-141.137
-136.434
-131.755
-127.1
-122.467
-117.853
-113.252
-108.661
-104.081
-99.512
-94.957
-90.419
-85.902
-81.414
-76.966
-72.567
-68.223
-63.94
-59.72
-55.57
-51.496
-47.503
-43.595
-39.777
-36.057
-32.442
-28.939
-25.557
-22.304
-19.186
-16.213
-13.391
-10.728
-8.232
-5.909
-3.768
-1.814
-0.054
1.506
2.86
4.003
4.932
5.643
6.133
6.402
6.449
6.276
5.885
5.278
4.461
3.439
2.217
0.803
-0.794
-2.565
-4.5
-6.587
-8.815
-11.169
-13.637
-16.202
-18.85
-21.564
-24.33
-27.129
-29.947
-32.765
-35.568
-38.339
-41.06
-43.716
-46.291
-48.768
-51.132
-53.37
-55.467
-57.412
-59.193
-60.799
-62.221
-63.452
-64.485
-65.314
-65.935
-66.346
-66.544
-66.53
-66.304
-65.869
-65.228
-64.387
-63.352
-62.131
-60.731
-59.164
-57.438
-55.567
-53.561
-51.434
-49.201
-46.875
-44.472
-42.007
-39.496
-36.956
-34.402
-31.851
-29.318
-26.82
-24.369
-21.981
-19.67
-17.447
-15.326
-13.318
-11.432
-9.678
-8.064
-6.595
-5.278
-4.115
-3.109
-2.259
-1.564
-1.022
-0.63
-0.382
-0.272
-0.291
-0.433
-0.687
-1.042
-1.487
-2.008
-2.591
-3.223
-3.89
-4.576
-5.267
-5.948
-6.607
-7.229
-7.802
-8.314
-8.754
-9.11
-9.373
-9.534
-9.586
-9.523
-9.34
-9.035
-8.61
-8.072
-7.425
-6.678
-5.839
-4.921
-3.937
-2.899
-1.819
-0.705
0.431
1.573
2.704
3.806
4.862
5.855
6.767
7.58
8.277
8.843
9.27
9.554
9.686
9.653
9.435
9.003
8.338
7.428
6.265
4.843
3.166
1.242
-0.899
-3.21
-5.648
-8.176
-10.763
-13.383
-15.995
-18.547
-20.986
-23.252
-25.288
-27.055
-28.53
-29.7
-30.587
-31.219
-31.631
-31.906
-32.14
-32.439
-32.911
-33.64
-34.672
-36.085
-38.05
-40.671
-43.927
-47.643
-51.417
-54.85
-57.713
-59.736
-60.412
-59.397
-56.731
-52.888
-49.001
-46.117
-44.808
-45.7
-49.688
-57.479
-67.789
-77.235
-82.109
-78.642
-67.647
-54.228
-38.675
-19.684
8.198
58.044
134.093
235.692
361.151
496.454
627.782
741.798
817.092
839.19
802.073
705.608
565.392
403.504
240.165
95.84
-17.283
-92.955
-129.225
-132.007
-109.171
-74.262
-41.177
-17.456
-9.164
-12.799
-19.716
-25.516
-25.211
-19.728
-15.34
-14.155
-17.269
-23.765
-29.481
-32.77
-33.762
-32.597
-30.356
-27.811
-25.092
-22.675
-21.161
-20.752
-21.46
-23.202
-25.722
-28.831
-32.429
-36.31
-40.239
-44.042
-47.558
-50.687
-53.372
-55.548
-57.165
-58.199
-58.635
-58.485
-57.774
-56.532
-54.8
-52.622
-50.035
-47.089
-43.837
-40.339
-36.664
-32.864
-28.974
-25.023
-21.024
-16.989
-12.926
-8.83
-4.686
-0.482
3.794
8.15
12.59
17.122
21.757
26.504
31.377
36.384
41.527
46.808
52.228
57.784
63.473
69.287
75.214
81.243
87.363
93.564
99.836
106.166
112.537
118.934
125.342
131.741
138.112
144.433
150.68
156.829
162.856
168.736
174.444
179.954
185.24
190.275
195.036
199.496
203.632
207.42
210.836
213.859
216.471
218.652
220.387
221.661
222.463
222.783
222.614
221.952
220.794
219.143
217
214.373
211.269
207.701
203.682
199.229
194.36
189.098
183.466
177.49
171.197
164.616
157.778
150.715
143.458
136.043
128.502
120.87
113.181
105.47
97.769
90.113
82.534
75.062
67.728
60.559
53.582
46.822
40.301
34.04
28.057
22.367
16.985
11.921
7.184
2.779
-1.29
-5.021
-8.417
-11.48
-14.216
-16.633
-18.74
-20.549
-22.072
-23.325
-24.322
-25.081
-25.62
-25.957
-26.112
-26.104
-25.953
-25.678
-25.3
-24.837
-24.307
-23.728
-23.117
-22.49
-21.862
-21.245
-20.653
-20.096
-19.581
-19.117
-18.708
-18.358
-18.068
-17.838
-17.665
-17.545
-17.474
-17.446
-17.451
-17.481
-17.525
-17.57
-17.605
-17.616
-17.588
-17.505
-17.352
-17.114
-16.775
-16.322
-15.739
-15.011
-14.125
-13.069
-11.832
-10.403
-8.772
-6.931
-4.874
-2.596
-0.096
2.627
5.572
8.734
12.103
15.669
19.418
23.337
27.409
31.616
35.936
40.352
44.842
49.388
53.968
58.557
63.129
67.655
72.108
76.462
80.689
84.765
88.662
92.358
95.839
99.09
102.093
104.825
107.252
109.341
111.074
112.435
113.411
114.006
114.222
114.079
113.621
112.89
111.926
110.763
109.418
107.909
106.279
104.58
102.884
101.255
99.729
98.34
97.125
96.081
95.183
94.362
93.496
92.491
91.273
89.759
87.874
85.526
82.598
79.023
74.714
69.496
63.318
56.25
48.492
40.57
33.042
26.29
20.804
17.216
15.845
16.677
19.213
22.048
23.866
24.099
22.122
17.104
8.739
-2.574
-14.282
-21.158
-18.529
-4.18
19.981
50.184
84.937
126.153
182.341
261.833
367.857
498.594
640.81
777.221
889.713
961.423
985.666
959.768
888.715
781.385
642.372
484.672
322.022
170.503
53.026
-22.929
-59.216
-64.021
-53.652
-33.105
-2.929
33.168
70.147
96.629
103.075
89.922
65.914
41.829
25.455
18.098
14.661
11.189
6.704
2.062
0.204
2.614
8.258
15.477
22.677
28.782
33.567
37.075
39.146
39.606
38.586
36.476
33.626
30.346
26.789
22.955
18.962
15.028
11.34
8.02
5.139
2.713
0.76
-0.66
-1.515
-1.813
-1.592
-0.909
0.187
1.669
3.511
5.671
8.091
10.703
13.428
16.212
19.023
21.837
24.643
27.437
30.218
33.001
35.812
38.676
41.607
44.617
47.709
50.891
54.176
57.572
61.09
64.735
68.507
72.405
76.428
80.568
84.814
89.154
93.568
98.041
102.555
107.096
111.645
116.186
120.7
125.168
129.571
133.888
138.098
142.177
146.101
149.848
153.393
156.715
159.789
162.594
165.111
167.318
169.198
170.735
171.911
172.715
173.133
173.156
172.777
171.989
170.789
169.177
167.153
164.721
161.887
158.658
155.044
151.055
146.706
142.009
136.982
131.641
126.004
120.091
113.923
107.522
100.91
94.111
87.148
80.044
72.822
65.505
58.116
50.676
43.206
35.726
28.256
20.813
13.414
6.075
-1.189
-8.368
-15.448
-22.422
-29.28
-36.016
-42.625
-49.103
-55.445
-61.651
-67.718
-73.648
-79.439
-85.094
-90.615
-96.004
-101.265
-106.401
-111.415
-116.313
-121.098
-125.773
-130.341
-134.807
-139.173
-143.441
-147.612
-151.689
-155.67
-159.556
-163.346
-167.037
-170.628
-174.113
-177.489
-180.75
-183.892
-186.907
-189.791
-192.535
-195.132
-197.577
-199.861
-201.978
-203.919
-205.677
-207.244
-208.613
-209.777
-210.729
-211.465
-211.977
-212.262
-212.314
-212.132
-211.712
-211.053
-210.154
-209.016
-207.64
-206.031
-204.193
-202.132
-199.855
-197.37
-194.689
-191.824
-188.786
-185.59
-182.249
-178.779
-175.196
-171.517
-167.761
-163.945
-160.09
-156.219
-152.356
-148.523
-144.747
-141.049
-137.455
-133.988
-130.672
-127.526
-124.567
-121.813
-119.282
-116.995
-114.969
-113.222
-111.768
-110.617
-109.782
-109.275
-109.099
-109.25
-109.722
-110.511
-111.619
-113.062
-114.846
-116.969
-119.425
-122.205
-125.29
-128.656
-132.266
-136.055
-139.961
-143.923
-147.893
-151.839
-155.717
-159.468
-163.02
-166.29
-169.216
-171.764
-173.894
-175.566
-176.791
-177.604
-178.092
-178.393
-178.597
-178.791
-179.073
-179.527
-180.263
-181.407
-183.054
-185.358
-188.536
-192.624
-197.569
-203.22
-209.109
-214.77
-219.778
-223.417
-224.919
-224.023
-220.729
-215.349
-209.12
-203.227
-198.529
-196.633
-197.855
-200.34
-202.712
-202.987
-201.62
-203.018
-206.93
-208.98
-197.77
-156.812
-81.25
25.594
151.449
278.005
400.811
519.212
631.065
734.216
810.179
837.362
804.532
706.453
557.146
383.31
208.589
57.943
-54.064
-128.396
-170.756
-194.907
-215.442
-236.709
-258.262
-275.183
-280.687
-274.491
-260.626
-244.259
-230.398
-220.978
-215.67
-213.821
-215.146
-219.836
-227.316
-236.235
-245.234
-253.013
-259.115
-263.8
-266.897
-267.918
-266.897
-264.236
-260.682
-257.38
-254.907
-253.292
-252.674
-253.216
-254.962
-257.897
-261.712
-265.772
-269.62
-272.997
-275.724
-277.757
-279.044
-279.499
-279.118
-277.975
-276.151
-273.727
-270.748
-267.211
-263.128
-258.532
-253.482
-248.063
-242.36
-236.453
-230.399
-224.234
-217.992
-211.697
-205.367
-199.01
-192.617
-186.168
-179.659
-173.092
-166.472
-159.807
-153.093
-146.32
-139.483
-132.582
-125.619
-118.6
-111.534
-104.426
-97.291
-90.144
-83.004
-75.894
-68.831
-61.833
-54.918
-48.104
-41.41
-34.857
-28.464
-22.25
-16.236
-10.443
-4.892
0.396
5.399
10.099
14.475
18.51
22.185
25.485
28.394
30.901
32.991
34.656
35.887
36.678
37.025
36.926
36.381
35.392
33.965
32.106
29.826
27.136
24.05
20.585
16.757
12.588
8.1
3.316
-1.739
-7.038
-12.555
-18.259
-24.122
-30.113
-36.202
-42.358
-48.55
-54.748
-60.922
-67.043
-73.081
-79.01
-84.803
-90.434
-95.88
-101.119
-106.13
-110.893
-115.392
-119.61
-123.533
-127.151
-130.452
-133.429
-136.076
-138.39
-140.369
-142.014
-143.326
-144.311
-144.974
-145.323
-145.366
-145.114
-144.577
-143.77
-142.704
-141.393
-139.854
-138.1
-136.148
-134.013
-131.711
-129.257
-126.667
-123.956
-121.139
-118.229
-115.241
-112.189
-109.087
-105.946
-102.781
-99.602
-96.421
-93.248
-90.092
-86.961
-83.861
-80.799
-77.777
-74.8
-71.868
-68.985
-66.149
-63.361
-60.618
-57.919
-55.26
-52.639
-50.051
-47.491
-44.954
-42.436
-39.931
-37.437
-34.948
-32.46
-29.97
-27.473
-24.968
-22.451
-19.919
-17.369
-14.798
-12.203
-9.585
-6.942
-4.274
-1.581
1.133
3.864
6.605
9.346
12.08
14.797
17.487
20.137
22.735
25.269
27.733
30.118
32.412
34.604
36.679
38.625
40.432
42.089
43.585
44.911
46.057
47.021
47.806
48.414
48.84
49.072
49.091
48.881
48.438
47.758
46.842
45.7
44.345
42.81
41.146
39.401
37.616
35.824
34.046
32.314
30.672
29.169
27.865
26.808
26.037
25.583
25.446
25.602
25.998
26.551
27.164
27.737
28.151
28.301
28.102
27.478
26.394
24.767
22.411
19.233
15.274
10.7
5.906
1.302
-2.852
-6.13
-7.85
-7.58
-5.283
-1.286
3.487
7.987
11.533
13.264
11.793
7.383
2.351
-1.06
0.226
5.656
10.099
13.005
17.747
34.428
78.167
153.204
255.073
370.86
483.007
586.647
680.586
763.475
833.407
872.57
862.654
794.995
666.281
493.675
305.137
125.327
-19.537
-115.967
-166.343
-177.2
-161.549
-131.841
-93.374
-52.584
-17.519
5.597
11.73
2.409
-12.754
-24.992
-29.68
-27.015
-22.619
-20.496
-20.718
-21.975
-21.89
-19.483
-15.675
-11.473
-7.686
-4.851
-3.24
-2.987
-4.124
-6.493
-9.766
-13.685
-18.096
-22.821
-27.679
-32.486
-37.016
-41.121
-44.738
-47.8
-50.267
-52.113
-53.3
-53.826
-53.728
-53.047
-51.829
-50.115
-47.931
-45.318
-42.329
-39.025
-35.479
-31.744
-27.849
-23.818
-19.661
-15.385
-10.998
-6.491
-1.844
2.961
7.935
13.085
18.409
23.909
29.593
35.467
41.536
47.799
54.25
60.881
67.682
74.643
81.746
88.971
96.292
103.687
111.133
118.606
126.085
133.543
140.955
148.294
155.535
162.649
169.609
176.384
182.945
189.262
195.307
201.052
206.47
211.535
216.22
220.503
224.361
227.775
230.725
233.194
235.166
236.63
237.575
237.994
237.881
237.234
236.052
234.341
232.105
229.354
226.1
222.357
218.143
213.476
208.38
202.878
196.998
190.767
184.216
177.378
170.287
162.977
155.485
147.846
140.098
132.279
124.423
116.569
108.752
101.006
93.365
85.862
78.528
71.392
64.482
57.823
51.438
45.349
39.574
34.128
29.025
24.276
19.887
15.864
12.208
8.92
5.995
3.427
1.209
-0.67
-2.223
-3.465
-4.413
-5.087
-5.505
-5.689
-5.662
-5.447
-5.069
-4.551
-3.916
-3.19
-2.396
-1.556
-0.692
0.174
1.022
1.834
2.592
3.28
3.884
4.393
4.794
5.081
5.247
5.287
5.2
4.987
4.648
4.19
3.616
2.936
2.158
1.293
0.353
-0.647
-1.694
-2.771
-3.862
-4.951
-6.018
-7.048
-8.023
-8.926
-9.743
-10.457
-11.055
-11.525
-11.857
-12.041
-12.068
-11.933
-11.632
-11.161
-10.522
-9.714
-8.742
-7.613
-6.337
-4.929
-3.404
-1.778
-0.068
1.703
3.516
5.347
7.178
8.99
10.764
12.477
14.104
15.62
17.003
18.23
19.28
20.13
20.76
21.151
21.295
21.184
20.812
20.165
19.226
17.971
16.385
14.464
12.207
9.616
6.698
3.473
-0.029
-3.752
-7.647
-11.677
-15.802
-19.994
-24.209
-28.388
-32.475
-36.411
-40.14
-43.623
-46.835
-49.758
-52.407
-54.813
-57.006
-59.066
-61.076
-63.118
-65.309
-67.73
-70.436
-73.516
-77.1
-81.265
-86.02
-91.198
-96.385
-101.18
-105.28
-108.349
-109.982
-109.813
-107.7
-104.083
-100.012
-96.574
-94.474
-94.321
-96.965
-103.137
-113.02
-124.388
-132.879
-134.883
-128.206
-114.572
-97.478
-75.673
-44.8
2.208
73.251
167.974
279.803
401.2
521.316
629.361
716.758
770.624
777.167
731.816
634.053
490.702
322.93
149.613
-8.089
-126.219
-199.489
-228.631
-222.564
-202.182
-175.32
-147.027
-122.216
-97.826
-79.517
-71.361
-69.296
-71.937
-74.004
-72.164
-70.134
-69.463
-70.832
-73.925
-75.884
-75.621
-73.648
-70.607
-67.478
-64.841
-62.922
-62.097
-62.612
-64.433
-67.347
-71.034
-75.235
-79.746
-84.353
-88.819
-92.906
-96.442
-99.351
-101.595
-103.143
-103.971
-104.062
-103.416
-102.068
-100.065
-97.447
-94.264
-90.561
-86.395
-81.835
-76.96
-71.85
-66.57
-61.165
-55.67
-50.111
-44.508
-38.875
-33.222
-27.543
-21.837
-16.106
-10.356
-4.595
1.17
6.939
12.71
18.484
24.257
30.022
35.769
41.491
47.177
52.816
58.393
63.891
69.297
74.599
79.787
84.852
89.785
94.576
99.217
103.7
108.017
112.16
116.118
119.883
123.446
126.798
129.932
132.84
135.515
137.952
140.143
142.083
143.768
145.194
146.356
147.251
147.877
148.233
148.317
148.13
147.675
146.953
145.968
144.727
143.234
141.499
139.528
137.33
134.916
132.297
129.484
126.491
123.329
120.014
116.563
112.99
109.313
105.549
101.716
97.833
93.916
89.984
86.055
82.145
78.273
74.456
70.708
67.048
63.489
60.046
56.732
53.56
50.539
47.68
44.991
42.478
40.146
38
36.043
34.274
32.696
31.306
30.103
29.081
28.237
27.564
27.055
26.702
26.494
26.421
26.474
26.64
26.908
27.266
27.701
28.202
28.756
29.352
29.977
30.62
31.269
31.915
32.547
33.158
33.739
34.282
34.783
35.237
35.639
35.988
36.282
36.521
36.705
36.836
36.919
36.956
36.954
36.919
36.858
36.779
36.692
36.606
36.532
36.479
36.458
36.481
36.558
36.7
36.917
37.218
37.614
38.113
38.725
39.455
40.31
41.295
42.413
43.667
45.059
46.588
48.252
50.049
51.975
54.023
56.186
58.452
60.809
63.242
65.735
68.273
70.838
73.41
75.97
78.501
80.987
83.41
85.753
87.992
90.106
92.076
93.882
95.505
96.927
98.128
99.093
99.815
100.289
100.504
100.447
100.093
99.423
98.43
97.108
95.458
93.486
91.205
88.642
85.849
82.875
79.766
76.56
73.276
69.949
66.628
63.372
60.251
57.316
54.589
52.102
49.89
47.941
46.221
44.646
43.085
41.454
39.685
37.697
35.416
32.738
29.535
25.725
21.213
15.852
9.616
2.583
-5.073
-12.879
-20.291
-26.847
-31.944
-34.931
-35.548
-33.87
-30.325
-26.057
-22.237
-19.663
-19.309
-22.088
-28.067
-36.44
-45.54
-52.405
-53.733
-46.682
-28.101
5.405
55.049
119.096
194.878
277.983
365.656
460.185
561.149
662.553
753.926
817.323
835.972
804.717
726.03
609.997
474.239
333.333
200.64
90.506
9.674
-40.342
-61.128
-59.169
-40.053
-7.556
30.985
64.752
83.886
82.093
61.875
35.094
12.664
0.764
-0.717
1.615
3.134
2.684
0.937
0.574
2.559
5.963
9.898
13.3
15.488
16.478
16.27
14.846
12.408
9.126
5.125
0.558
-4.452
-9.798
-15.347
-20.951
-26.471
-31.776
-36.758
-41.335
-45.455
-49.094
-52.238
-54.891
-57.078
-58.83
-60.184
-61.172
-61.815
-62.149
-62.218
-62.078
-61.797
-61.424
-60.988
-60.509
-59.999
-59.455
-58.876
-58.246
-57.536
-56.722
-55.787
-54.715
-53.499
-52.128
-50.584
-48.851
-46.915
-44.765
-42.394
-39.8
-36.977
-33.927
-30.654
-27.167
-23.481
-19.606
-15.553
-11.336
-6.966
-2.459
2.167
6.895
11.707
16.582
21.498
26.43
31.353
36.242
41.069
45.809
50.435
54.92
59.238
63.364
67.272
70.94
74.345
77.465
80.28
82.772
84.926
86.726
88.162
89.222
89.898
90.184
90.077
89.574
88.677
87.388
85.711
83.653
81.223
78.431
75.29
71.813
68.016
63.917
59.536
54.891
50.005
44.898
39.594
34.116
28.486
22.726
16.86
10.909
4.894
-1.164
-7.246
-13.332
-19.407
-25.453
-31.454
-37.398
-43.269
-49.056
-54.75
-60.338
-65.814
-71.169
-76.396
-81.49
-86.446
-91.261
-95.93
-100.453
-104.827
-109.051
-113.126
-117.052
-120.83
-124.461
-127.948
-131.29
-134.491
-137.551
-140.471
-143.253
-145.896
-148.4
-150.766
-152.99
-155.074
-157.013
-158.808
-160.455
-161.953
-163.299
-164.493
-165.531
-166.411
-167.133
-167.695
-168.096
-168.335
-168.411
-168.326
-168.08
-167.674
-167.111
-166.392
-165.521
-164.5
-163.334
-162.028
-160.587
-159.016
-157.323
-155.514
-153.598
-151.587
-149.49
-147.317
-145.082
-142.796
-140.474
-138.131
-135.779
-133.432
-131.105
-128.814
-126.572
-124.396
-122.298
-120.294
-118.398
-116.627
-114.997
-113.523
-112.219
-111.099
-110.177
-109.465
-108.973
-108.709
-108.678
-108.884
-109.332
-110.03
-110.984
-112.196
-113.668
-115.401
-117.394
-119.647
-122.153
-124.897
-127.867
-131.052
-134.447
-138.059
-141.89
-145.934
-150.186
-154.635
-159.26
-164.04
-168.934
-173.884
-178.836
-183.74
-188.558
-193.266
-197.83
-202.208
-206.358
-210.219
-213.748
-216.92
-219.696
-222.055
-224.032
-225.681
-227.101
-228.434
-229.768
-231.198
-232.855
-234.838
-237.256
-240.222
-243.778
-248.029
-253.186
-259.305
-266.309
-274.001
-281.873
-289.411
-296.231
-301.707
-305.082
-306.054
-304.731
-301.582
-297.741
-294.401
-292.528
-293.44
-298.519
-306.937
-315.952
-323.157
-325.992
-325.375
-324.687
-322.068
-311.4
-282.782
-225.78
-138.69
-27.484
97.471
224.579
345.458
450.616
529.181
570.588
563.891
507.888
409.186
275.86
122.572
-37.581
-192.339
-323.419
-417.941
-471.013
-485.018
-474.113
-454.266
-434.168
-417.675
-402.992
-386.151
-368.004
-351.061
-337.523
-329.677
-327.092
-327.65
-329.503
-330.622
-329.319
-325.093
-318.098
-308.78
-297.969
-286.488
-274.961
-264.072
-254.48
-246.468
-240.058
-235.128
-231.37
-228.519
-226.396
-224.781
-223.454
-222.239
-220.938
-219.372
-217.445
-215.079
-212.221
-208.856
-204.958
-200.523
-195.59
-190.216
-184.462
-178.388
-172.039
-165.45
-158.679
-151.794
-144.876
-138.009
-131.252
-124.642
-118.208
-111.965
-105.924
-100.091
-94.449
-88.971
-83.636
-78.43
-73.344
-68.376
-63.513
-58.739
-54.04
-49.4
-44.81
-40.262
-35.748
-31.262
-26.802
-22.369
-17.965
-13.6
-9.278
-5.003
-0.78
3.389
7.497
11.54
15.51
19.404
23.214
26.932
30.549
34.055
37.439
40.694
43.808
46.772
49.575
52.206
54.658
56.919
58.981
60.833
62.467
63.875
65.048
65.98
66.663
67.093
67.266
67.179
66.83
66.219
65.349
64.222
62.843
61.217
59.351
57.255
54.937
52.408
49.68
46.765
43.679
40.436
37.051
33.541
29.923
26.215
22.435
18.6
14.731
10.844
6.96
3.098
-0.724
-4.487
-8.172
-11.761
-15.237
-18.582
-21.782
-24.822
-27.689
-30.37
-32.855
-35.135
-37.204
-39.055
-40.685
-42.091
-43.272
-44.23
-44.967
-45.487
-45.794
-45.896
-45.799
-45.514
-45.05
-44.419
-43.633
-42.705
-41.649
-40.482
-39.218
-37.874
-36.467
-35.015
-33.535
-32.045
-30.564
-29.108
-27.696
-26.343
-25.067
-23.883
-22.803
-21.84
-21.006
-20.31
-19.758
-19.358
-19.111
-19.021
-19.089
-19.313
-19.692
-20.222
-20.896
-21.709
-22.651
-23.715
-24.888
-26.158
-27.514
-28.939
-30.421
-31.944
-33.493
-35.05
-36.598
-38.122
-39.603
-41.026
-42.374
-43.63
-44.779
-45.808
-46.706
-47.461
-48.065
-48.514
-48.802
-48.93
-48.9
-48.716
-48.383
-47.911
-47.307
-46.584
-45.753
-44.828
-43.82
-42.746
-41.621
-40.465
-39.299
-38.141
-37.014
-35.938
-34.935
-34.032
-33.247
-32.591
-32.081
-31.732
-31.564
-31.607
-31.88
-32.393
-33.154
-34.17
-35.439
-36.957
-38.694
-40.6
-42.628
-44.738
-46.898
-49.1
-51.316
-53.508
-55.635
-57.641
-59.496
-61.2
-62.731
-64.056
-65.172
-66.101
-66.936
-67.834
-68.905
-70.219
-71.803
-73.668
-75.883
-78.517
-81.61
-85.192
-89.21
-93.649
-98.641
-104.21
-110.191
-116.257
-121.775
-126.091
-128.798
-129.332
-127.014
-121.66
-113.403
-102.855
-91.318
-79.992
-69.977
-62.778
-59.726
-59.915
-60.815
-59.757
-54.091
-45.185
-36.252
-25.457
-7.119
28.1
89.707
178.193
286.735
406.029
526.981
642.956
746.552
827.287
868.978
856.083
782.764
649.902
472.4
277.381
89.504
-64.605
-165.474
-212.951
-211.789
-173.727
-118.955
-58.947
-6.023
25.022
32.634
18.174
-11.052
-38.057
-55.155
-60.711
-56.663
-51.617
-49.08
-48.269
-48.197
-46.128
-41.445
-35.54
-29.331
-23.754
-19.453
-16.418
-14.628
-14.05
-14.456
-15.66
-17.541
-19.979
-22.866
-26.074
-29.465
-32.873
-36.12
-39.068
-41.609
-43.656
-45.159
-46.098
-46.453
-46.237
-45.494
-44.254
-42.55
-40.41
-37.846
-34.895
-31.611
-28.056
-24.306
-20.416
-16.416
-12.331
-8.174
-3.944
0.362
4.765
9.299
13.988
18.849
23.895
29.133
34.572
40.231
46.123
52.261
58.654
65.306
72.219
79.394
86.825
94.502
102.41
110.53
118.844
127.332
135.977
144.756
153.648
162.627
171.669
180.747
189.833
198.896
207.902
216.819
225.612
234.246
242.687
250.9
258.849
266.501
273.824
280.785
287.353
293.498
299.194
304.414
309.135
313.336
317
320.109
322.654
324.623
326.012
326.818
327.041
326.684
325.754
324.261
322.216
319.636
316.539
312.944
308.876
304.361
299.428
294.107
288.429
282.429
276.142
269.602
262.846
255.911
248.833
241.65
234.396
227.109
219.822
212.571
205.386
198.299
191.339
184.532
177.905
171.479
165.276
159.313
153.608
148.174
143.023
138.164
133.606
129.352
125.407
121.769
118.438
115.41
112.681
110.242
108.087
106.205
104.587
103.221
102.096
101.197
100.514
100.03
99.734
99.61
99.645
99.826
100.141
100.576
101.121
101.765
102.496
103.307
104.189
105.132
106.13
107.175
108.261
109.384
110.538
111.719
112.925
114.153
115.403
116.672
117.962
119.27
120.597
121.943
123.308
124.692
126.095
127.517
128.957
130.416
131.893
133.387
134.896
136.417
137.949
139.487
141.026
142.563
144.09
145.602
147.092
148.554
149.981
151.365
152.7
153.976
155.188
156.326
157.383
158.346
159.204
159.945
160.558
161.032
161.354
161.515
161.503
161.313
160.943
160.389
159.648
158.716
157.589
156.267
154.75
153.043
151.147
149.067
146.809
144.388
141.821
139.124
136.305
133.366
130.299
127.103
123.783
120.347
116.804
113.167
109.455
105.702
101.961
98.286
94.725
91.315
88.09
85.091
82.368
79.988
78.022
76.523
75.539
75.09
75.18
75.797
76.915
78.481
80.399
82.531
84.716
86.811
88.692
90.257
91.364
91.755
91.24
89.791
87.591
85.036
82.513
80.296
78.76
78.47
79.859
83.024
87.377
91.713
95.004
96.201
94.129
87.98
77.088
62.507
48.088
36.669
29.991
28.986
31.856
42.397
69.783
120.59
199.784
303.402
417.724
532.54
643.582
749.79
852.002
944.021
1006.121
1016.954
963.253
841.516
667.055
466.788
266.797
93.242
-37.006
-120.145
-160.022
-167.872
-154.36
-125.787
-86.547
-41.189
0.507
28.08
36.402
27.103
9.816
-5.566
-14.729
-18.106
-19.738
-22.653
-27.092
-31.622
-33.982
-33.196
-29.359
-23.357
-16.972
-11.385
-7.064
-4.264
-2.804
-2.515
-3.561
-5.807
-8.802
-12.159
-15.509
-18.593
-21.336
-23.661
-25.427
-26.553
-27.032
-26.875
-26.125
-24.822
-22.989
-20.653
-17.855
-14.645
-11.075
-7.211
-3.126
1.104
5.396
9.686
13.936
18.112
22.194
26.17
30.038
33.807
37.503
41.144
44.738
48.298
51.832
55.355
58.887
62.445
66.044
69.696
73.41
77.194
81.053
84.993
89.01
93.101
97.259
101.477
105.751
110.076
114.445
118.851
123.284
127.733
132.189
136.64
141.071
145.465
149.804
154.069
158.243
162.304
166.233
170.009
173.61
177.018
180.212
183.172
185.88
188.318
190.469
192.316
193.846
195.046
195.905
196.413
196.565
196.353
195.777
194.834
193.527
191.857
189.831
187.454
184.736
181.688
178.321
174.65
170.69
166.461
161.981
157.271
152.352
147.249
141.983
136.579
131.062
125.455
119.783
114.07
108.339
102.613
96.915
91.265
85.682
80.186
74.793
69.519
64.377
59.378
54.532
49.847
45.33
40.985
36.815
32.821
29.003
25.357
21.882
18.571
15.418
12.414
9.549
6.814
4.196
1.682
-0.74
-3.086
-5.369
-7.606
-9.81
-11.998
-14.184
-16.385
-18.615
-20.888
-23.217
-25.615
-28.093
-30.663
-33.333
-36.112
-39.005
-42.02
-45.16
-48.43
-51.833
-55.368
-59.036
-62.837
-66.767
-70.822
-74.999
-79.29
-83.687
-88.182
-92.766
-97.428
-102.158
-106.943
-111.771
-116.628
-121.502
-126.379
-131.243
-136.081
-140.878
-145.619
-150.293
-154.887
-159.388
-163.785
-168.068
-172.229
-176.261
-180.156
-183.908
-187.511
-190.96
-194.255
-197.392
-200.371
-203.193
-205.86
-208.378
-210.757
-213.006
-215.135
-217.156
-219.083
-220.929
-222.71
-224.438
-226.126
-227.784
-229.426
-231.071
-232.735
-234.433
-236.179
-237.986
-239.867
-241.839
-243.913
-246.092
-248.376
-250.769
-253.276
-255.915
-258.707
-261.666
-264.796
-268.1
-271.582
-275.239
-279.059
-283.013
-287.047
-291.112
-295.164
-299.17
-303.101
-306.91
-310.535
-313.912
-316.976
-319.678
-321.989
-323.874
-325.307
-326.3
-326.888
-327.133
-327.148
-327.042
-326.93
-326.941
-327.185
-327.749
-328.762
-330.401
-332.79
-335.954
-339.74
-343.857
-348.036
-352.049
-355.602
-358.205
-359.323
-358.716
-356.742
-354.097
-351.421
-349.34
-348.363
-349.271
-353.368
-360.012
-366.01
-368.619
-364.979
-356.133
-347.964
-340.806
-330.403
-307.387
-257.603
-176.277
-67.741
58.675
190.961
321.475
444.039
549.708
622.718
644.553
604.411
501.179
349.511
174.331
-1.382
-155.956
-275.5
-355.429
-396.565
-407.429
-400.406
-386.727
-372.913
-360.545
-348.084
-333.316
-317.668
-304.028
-294.718
-291.753
-294.557
-300.956
-308.97
-316.407
-321.51
-323.698
-322.974
-319.724
-314.74
-308.812
-302.621
-296.892
-292.278
-289.075
-287.314
-286.867
-287.457
-288.833
-290.811
-293.186
-295.729
-298.268
-300.637
-302.662
-304.244
-305.306
-305.772
-305.617
-304.826
-303.384
-301.316
-298.677
-295.513
-291.878
-287.82
-283.368
-278.573
-273.501
-268.22
-262.816
-257.348
-251.854
-246.363
-240.898
-235.468
-230.083
-224.734
-219.397
-214.056
-208.699
-203.321
-197.922
-192.495
-187.029
-181.514
-175.94
-170.302
-164.599
-158.83
-152.995
-147.097
-141.144
-135.147
-129.12
-123.077
-117.027
-110.982
-104.955
-98.958
-93.006
-87.114
-81.296
-75.568
-69.95
-64.46
-59.118
-53.945
-48.958
-44.179
-39.626
-35.319
-31.276
-27.515
-24.054
-20.907
-18.091
-15.619
-13.504
-11.755
-10.381
-9.388
-8.781
-8.564
-8.735
-9.294
-10.237
-11.557
-13.247
-15.298
-17.697
-20.429
-23.48
-26.831
-30.463
-34.354
-38.48
-42.818
-47.342
-52.025
-56.841
-61.76
-66.756
-71.799
-76.863
-81.917
-86.937
-91.894
-96.763
-101.519
-106.139
-110.601
-114.883
-118.969
-122.84
-126.48
-129.877
-133.018
-135.894
-138.495
-140.816
-142.853
-144.602
-146.064
-147.24
-148.134
-148.752
-149.1
-149.189
-149.027
-148.629
-148.006
-147.173
-146.145
-144.939
-143.571
-142.059
-140.421
-138.674
-136.838
-134.929
-132.965
-130.963
-128.94
-126.91
-124.889
-122.891
-120.928
-119.014
-117.161
-115.378
-113.677
-112.064
-110.549
-109.136
-107.832
-106.639
-105.559
-104.592
-103.736
-102.991
-102.351
-101.813
-101.37
-101.015
-100.74
-100.537
-100.395
-100.305
-100.254
-100.231
-100.225
-100.223
-100.214
-100.186
-100.128
-100.029
-99.879
-99.668
-99.388
-99.031
-98.588
-98.052
-97.418
-96.68
-95.834
-94.876
-93.804
-92.618
-91.32
-89.916
-88.413
-86.818
-85.139
-83.387
-81.572
-79.707
-77.801
-75.862
-73.896
-71.917
-69.937
-67.972
-66.037
-64.142
-62.302
-60.531
-58.841
-57.241
-55.735
-54.322
-53.002
-51.782
-50.672
-49.694
-48.862
-48.183
-47.661
-47.294
-47.071
-46.979
-46.988
-47.049
-47.125
-47.185
-47.198
-47.15
-47.009
-46.735
-46.29
-45.621
-44.678
-43.423
-41.829
-39.894
-37.646
-35.134
-32.406
-29.528
-26.558
-23.568
-20.653
-17.895
-15.392
-13.207
-11.423
-10.222
-9.691
-9.773
-10.22
-10.491
-9.991
-8.308
-5.002
0.498
8.361
18.35
29.741
40.909
50.263
56.741
59.266
56.993
50.042
39.431
27.343
17.567
13.85
19.526
38.279
73.127
126.109
196.584
280.179
371.326
463.969
555.199
646.778
736.938
820.453
887.939
920.913
905.644
837.207
715.243
555.064
379.593
210.441
73.722
-14.157
-52.737
-49.5
-23.402
5.573
29.41
46.64
61.57
80.402
102.375
123.802
141.554
152.658
157.032
156.091
150.666
142.202
132.688
123.704
116.107
110.126
105.537
102.25
100.608
100.587
101.456
102.258
102.366
101.591
100.078
97.989
95.22
91.758
87.9
84.097
80.734
78.016
75.953
74.483
73.628
73.419
73.83
74.798
76.227
78.042
80.212
82.723
85.545
88.624
91.885
95.267
98.728
102.242
105.796
109.383
112.999
116.648
120.344
124.092
127.901
131.78
135.732
139.763
143.883
148.101
152.434
156.899
161.509
166.272
171.191
176.269
181.504
186.894
192.432
198.109
203.919
209.854
215.906
222.066
228.32
234.655
241.054
247.498
253.964
260.43
266.869
273.256
279.562
285.761
291.824
297.722
303.426
308.907
314.135
319.08
323.714
328.009
331.936
335.469
338.582
341.253
343.459
345.181
346.402
347.107
347.284
346.922
346.016
344.562
342.558
340.007
336.915
333.291
329.145
324.494
319.355
313.75
307.702
301.237
294.383
287.17
279.63
271.795
263.7
255.38
246.871
238.211
229.434
220.58
211.684
202.784
193.914
185.111
176.406
167.834
159.425
151.208
143.21
135.458
127.976
120.784
113.902
107.347
101.133
95.272
89.772
84.642
79.883
75.499
71.489
67.849
64.575
61.66
59.094
56.868
54.969
53.384
52.096
51.091
50.35
49.856
49.59
49.533
49.666
49.968
50.421
51.005
51.7
52.488
53.349
54.266
55.221
56.196
57.175
58.142
59.083
59.983
60.831
61.616
62.327
62.956
63.496
63.943
64.291
64.537
64.679
64.717
64.652
64.486
64.223
63.865
63.418
62.889
62.283
61.608
60.872
60.081
59.245
58.37
57.466
56.54
55.602
54.659
53.718
52.788
51.878
50.995
50.145
49.335
48.57
47.855
47.194
46.588
46.034
45.53
45.071
44.652
44.267
43.909
43.567
43.234
42.905
42.572
42.229
41.863
41.46
41.007
40.492
39.904
39.23
38.459
37.578
36.578
35.463
34.229
32.866
31.36
29.677
27.796
25.703
23.385
20.84
18.068
15.072
11.875
8.526
5.062
1.523
-2.064
-5.695
-9.344
-12.966
-16.514
-19.915
-23.116
-26.091
-28.804
-31.241
-33.427
-35.399
-37.235
-39.051
-40.945
-43.021
-45.394
-48.149
-51.403
-55.26
-59.838
-65.359
-71.934
-79.492
-87.839
-96.512
-104.949
-112.732
-119.335
-124.017
-126.426
-126.664
-125.287
-123.711
-123.426
-125.405
-130.626
-140.026
-153.717
-170.786
-189.253
-205.637
-215.916
-216.56
-204.146
-175.037
-127.708
-63.977
13.386
100.018
193.238
295.519
406.582
519.912
622.421
693.65
716.903
686.87
609.051
496.711
362.141
215.512
66.15
-74.232
-188.365
-264.672
-300.675
-303.878
-291.113
-273.625
-255.676
-236.779
-212.381
-183.486
-154.88
-131.049
-116.959
-114.265
-121.659
-137.416
-158.63
-181.663
-203.604
-222.301
-236.169
-244.612
-247.688
-245.818
-240.078
-232.168
-223.812
-216.217
-210.187
-206.082
-203.919
-203.627
-204.95
-207.367
-210.26
-213.21
-215.937
-218.255
-220.127
-221.495
-222.304
-222.581
-222.367
-221.664
-220.473
-218.794
-216.605
-213.919
-210.768
-207.169
-203.172
-198.834
-194.212
-189.383
-184.406
-179.318
-174.157
-168.948
-163.714
-158.474
-153.236
-147.989
-142.729
-137.454
-132.164
-126.859
-121.534
-116.177
-110.781
-105.342
-99.857
-94.33
-88.76
-83.149
-77.503
-71.832
-66.147
-60.463
-54.794
-49.151
-43.548
-37.998
-32.514
-27.113
-21.808
-16.612
-11.54
-6.608
-1.832
2.77
7.18
11.383
15.36
19.095
22.571
25.77
28.679
31.283
33.569
35.522
37.132
38.388
39.282
39.807
39.958
39.731
39.126
38.143
36.785
35.058
32.969
30.527
27.743
24.63
21.203
17.478
13.473
9.208
4.703
-0.019
-4.933
-10.015
-15.239
-20.577
-26.002
-31.485
-36.999
-42.514
-48.003
-53.437
-58.79
-64.034
-69.144
-74.095
-78.862
-83.424
-87.759
-91.848
-95.673
-99.218
-102.471
-105.418
-108.051
-110.361
-112.343
-113.993
-115.31
-116.294
-116.948
-117.276
-117.284
-116.982
-116.378
-115.486
-114.319
-112.891
-111.22
-109.322
-107.216
-104.922
-102.459
-99.848
-97.11
-94.267
-91.34
-88.351
-85.322
-82.273
-79.224
-76.197
-73.211
-70.283
-67.432
-64.674
-62.024
-59.496
-57.103
-54.858
-52.769
-50.845
-49.094
-47.521
-46.129
-44.922
-43.899
-43.058
-42.397
-41.912
-41.598
-41.448
-41.454
-41.608
-41.899
-42.317
-42.85
-43.487
-44.213
-45.015
-45.879
-46.791
-47.737
-48.702
-49.672
-50.633
-51.572
-52.476
-53.334
-54.135
-54.868
-55.522
-56.09
-56.564
-56.94
-57.212
-57.376
-57.433
-57.381
-57.228
-56.979
-56.641
-56.22
-55.727
-55.171
-54.566
-53.921
-53.244
-52.543
-51.83
-51.118
-50.423
-49.761
-49.143
-48.583
-48.096
-47.695
-47.396
-47.203
-47.115
-47.137
-47.273
-47.537
-47.952
-48.534
-49.289
-50.225
-51.345
-52.645
-54.12
-55.744
-57.476
-59.281
-61.125
-62.99
-64.869
-66.738
-68.563
-70.306
-71.914
-73.353
-74.595
-75.598
-76.345
-76.849
-77.143
-77.293
-77.373
-77.434
-77.542
-77.783
-78.225
-78.95
-80
-81.435
-83.419
-86.065
-89.373
-93.196
-97.145
-100.763
-103.724
-105.594
-105.762
-103.833
-99.735
-93.983
-87.801
-82.405
-78.885
-78.519
-82.608
-92.047
-105.713
-120.166
-131.699
-137.39
-137.907
-135.971
-129.734
-113.65
-78.759
-15.537
76.886
192.412
322.418
455.92
581.836
689.252
763.365
788.567
758.293
673.823
544.61
388.751
222.217
60.587
-77.847
-180.225
-239.901
-258.574
-250.506
-232.333
-214.113
-200.365
-188.286
-172.949
-155.139
-137.559
-123.158
-115.15
-113.255
-115.324
-119.665
-123.93
-126.114
-125.565
-122.093
-116.008
-108.179
-99.391
-90.283
-81.616
-74.108
-68.112
-63.728
-60.846
-59.161
-58.413
-58.398
-58.895
-59.657
-60.481
-61.183
-61.573
-61.543
-61.009
-59.888
-58.144
-55.754
-52.697
-48.992
-44.692
-39.841
-34.488
-28.685
-22.46
-15.866
-8.97
-1.843
5.433
12.801
20.224
27.674
35.132
42.586
50.031
57.473
64.935
72.432
79.969
87.548
95.164
102.817
110.51
118.246
126.022
133.834
141.672
149.524
157.377
165.217
173.022
180.77
188.434
195.99
203.415
210.689
217.788
224.691
231.373
237.812
243.988
249.876
255.454
260.698
265.585
270.091
274.197
277.883
281.13
283.92
286.237
288.07
289.406
290.236
290.554
290.354
289.635
288.398
286.645
284.383
281.62
278.365
274.633
270.44
265.801
260.738
255.272
249.425
243.222
236.691
229.859
222.753
215.405
207.845
200.103
192.214
184.208
176.119
167.98
159.822
151.678
143.578
135.553
127.631
119.839
112.203
104.748
97.494
90.462
83.671
77.134
70.867
64.88
59.182
53.78
48.678
43.879
39.384
35.19
31.295
27.693
24.377
21.34
18.571
16.06
13.794
11.761
9.945
8.333
6.908
5.653
4.553
3.589
2.744
2
1.341
0.748
0.205
-0.303
-0.793
-1.279
-1.775
-2.293
-2.845
-3.442
-4.094
-4.808
-5.593
-6.454
-7.395
-8.421
-9.534
-10.736
-12.026
-13.404
-14.869
-16.42
-18.052
-19.762
-21.546
-23.399
-25.313
-27.282
-29.298
-31.353
-33.436
-35.537
-37.647
-39.754
-41.849
-43.92
-45.956
-47.946
-49.879
-51.745
-53.533
-55.233
-56.835
-58.329
-59.708
-60.964
-62.089
-63.078
-63.925
-64.626
-65.176
-65.574
-65.817
-65.902
-65.829
-65.599
-65.211
-64.669
-63.976
-63.136
-62.157
-61.049
-59.825
-58.496
-57.076
-55.579
-54.02
-52.416
-50.78
-49.123
-47.457
-45.794
-44.148
-42.539
-40.981
-39.489
-38.076
-36.754
-35.539
-34.442
-33.471
-32.622
-31.898
-31.305
-30.856
-30.58
-30.495
-30.612
-30.94
-31.477
-32.218
-33.156
-34.257
-35.47
-36.746
-38.037
-39.307
-40.543
-41.71
-42.761
-43.645
-44.288
-44.638
-44.666
-44.34
-43.646
-42.61
-41.275
-39.725
-38.09
-36.481
-35.019
-33.844
-33.058
-32.795
-33.176
-34.327
-36.471
-39.721
-44.008
-49.143
-54.679
-60.06
-64.863
-68.55
-70.35
-69.883
-67.205
-62.79
-57.977
-54.186
-52.336
-53.415
-58.385
-67.349
-79.416
-92.685
-103.73
-108.639
-103.994
-86.309
-51.961
0.447
68.999
150.785
241.226
337.214
440.885
551.948
664.141
766.838
841.718
870.429
846.276
769.296
647.836
501.122
345.202
197.245
76.228
-12.21
-67.592
-96.087
-113.836
-128.894
-143.344
-155.934
-159.393
-151.639
-135.593
-115.278
-95.908
-79.957
-67.501
-58.322
-51.824
-47.915
-46.883
-47.996
-50.461
-53.699
-56.793
-59.413
-61.613
-62.973
-62.994
-61.755
-59.428
-56.472
-53.855
-51.986
-50.9
-50.812
-51.852
-54.007
-57.245
-61.199
-65.193
-68.845
-71.98
-74.478
-76.366
-77.612
-78.14
-78.002
-77.325
-76.205
-74.716
-72.882
-70.677
-68.124
-65.287
-62.24
-59.081
-55.865
-52.619
-49.364
-46.11
-42.865
-39.638
-36.413
-33.165
-29.876
-26.535
-23.14
-19.7
-16.208
-12.654
-9.025
-5.305
-1.488
2.428
6.443
10.556
14.76
19.048
23.406
27.818
32.27
36.748
41.241
45.737
50.22
54.677
59.09
63.445
67.723
71.906
75.974
79.908
83.688
87.295
90.71
93.914
96.889
99.616
102.079
104.262
106.15
107.727
108.981
109.899
110.473
110.692
110.551
110.045
109.17
107.927
106.318
104.345
102.015
99.336
96.317
92.97
89.309
85.348
81.106
76.599
71.848
66.873
61.698
56.345
50.838
45.202
39.461
33.641
27.768
21.866
15.962
10.079
4.243
-1.522
-7.194
-12.748
-18.164
-23.422
-28.503
-33.389
-38.063
-42.513
-46.725
-50.689
-54.396
-57.838
-61.011
-63.911
-66.537
-68.888
-70.967
-72.775
-74.319
-75.604
-76.638
-77.427
-77.983
-78.314
-78.433
-78.351
-78.08
-77.635
-77.029
-76.275
-75.39
-74.387
-73.282
-72.089
-70.825
-69.504
-68.14
-66.748
-65.343
-63.936
-62.541
-61.168
-59.829
-58.533
-57.288
-56.101
-54.979
-53.928
-52.95
-52.05
-51.23
-50.491
-49.833
-49.256
-48.758
-48.337
-47.99
-47.712
-47.497
-47.341
-47.238
-47.181
-47.163
-47.176
-47.211
-47.261
-47.317
-47.369
-47.409
-47.428
-47.416
-47.365
-47.269
-47.12
-46.912
-46.64
-46.301
-45.89
-45.408
-44.853
-44.225
-43.526
-42.76
-41.929
-41.041
-40.101
-39.118
-38.102
-37.064
-36.02
-34.987
-33.98
-33.016
-32.113
-31.292
-30.57
-29.966
-29.493
-29.169
-29.009
-29.033
-29.259
-29.704
-30.382
-31.303
-32.482
-33.928
-35.65
-37.648
-39.919
-42.459
-45.273
-48.369
-51.761
-55.456
-59.451
-63.737
-68.307
-73.146
-78.233
-83.533
-88.992
-94.556
-100.181
-105.827
-111.461
-117.033
-122.478
-127.719
-132.677
-137.286
-141.493
-145.26
-148.556
-151.37
-153.709
-155.598
-157.107
-158.319
-159.316
-160.194
-161.043
-161.937
-163.015
-164.481
-166.451
-168.947
-171.817
-174.677
-177.141
-178.896
-179.532
-178.56
-175.644
-170.704
-164.235
-157.374
-151.304
-147.025
-145.405
-147.178
-152.775
-162.025
-173.497
-184.457
-191.698
-192.082
-182.521
-159.902
-121.435
-64.781
9.282
96.099
190.635
287.194
383.073
481.202
580.753
676.452
758.86
807.885
806.245
746.58
626.191
458.791
269.611
83.19
-71.129
-172.622
-220.565
-224.409
-203.017
-176.537
-150.943
-123.089
-90.463
-52.597
-15.544
9.207
17.743
13.455
1.151
-10.852
-18.681
-24.422
-28.811
-33.156
-37.774
-40.062
-38.735
-34.069
-26.924
-19.258
-12.565
-7.203
-3.264
-0.809
0.07
-0.682
-2.833
-5.803
-9.035
-12.218
-15.17
-17.825
-20.109
-21.906
-23.168
-23.921
-24.213
-24.083
-23.559
-22.635
-21.315
-19.626
-17.599
-15.292
-12.769
-10.097
-7.349
-4.581
-1.828
0.883
3.533
6.112
8.616
11.057
13.458
15.838
18.208
20.578
22.959
25.368
27.828
30.357
32.976
35.695
38.525
41.474
44.549
47.755
51.092
54.555
58.138
61.834
65.64
69.551
73.561
77.662
81.844
86.097
90.412
94.774
99.17
103.582
107.992
112.379
116.724
121.006
125.201
129.287
133.241
137.039
140.659
144.077
147.273
150.225
152.911
155.314
157.415
159.199
160.652
161.761
162.515
162.908
162.932
162.583
161.86
160.762
159.29
157.449
155.244
152.682
149.773
146.529
142.963
139.091
134.931
130.503
125.826
120.924
115.82
110.538
105.105
99.545
93.885
88.152
82.37
76.566
70.765
64.992
59.27
53.62
48.064
42.621
37.309
32.143
27.138
22.306
17.659
13.206
8.956
4.913
1.084
-2.528
-5.923
-9.1
-12.06
-14.806
-17.342
-19.673
-21.807
-23.75
-25.51
-27.098
-28.522
-29.792
-30.921
-31.919
-32.796
-33.563
-34.232
-34.812
-35.313
-35.743
-36.112
-36.426
-36.69
-36.912
-37.094
-37.239
-37.351
-37.43
-37.477
-37.491
-37.471
-37.414
-37.317
-37.176
-36.988
-36.747
-36.448
-36.086
-35.655
-35.147
-34.558
-33.88
-33.108
-32.234
-31.253
-30.156
-28.941
-27.6
-26.13
-24.527
-22.787
-20.908
-18.89
-16.732
-14.435
-12.001
-9.431
-6.73
-3.903
-0.957
2.103
5.268
8.529
11.877
15.3
18.785
22.321
25.895
29.494
33.104
36.708
40.292
43.841
47.34
50.773
54.118
57.358
60.473
63.448
66.263
68.901
71.345
73.579
75.593
77.379
78.927
80.227
81.268
82.041
82.541
82.763
82.701
82.351
81.709
80.781
79.577
78.109
76.384
74.405
72.165
69.665
66.917
63.93
60.718
57.302
53.709
49.981
46.181
42.368
38.589
34.881
31.271
27.796
24.504
21.448
18.68
16.237
14.141
12.426
11.112
10.173
9.559
9.167
8.873
8.596
8.266
7.799
7.113
6.101
4.646
2.685
0.161
-3.047
-6.993
-11.644
-16.823
-22.051
-26.726
-30.376
-32.547
-32.689
-30.482
-25.928
-19.41
-12.094
-5.435
-0.369
2.443
2.055
-2.097
-9.51
-18.983
-26.962
-28.125
-19.832
-0.628
29.798
68.768
116.7
175.46
245.912
330.607
428.612
537.301
651.056
757.714
843.784
889.729
878.188
803.22
664.868
479.826
276.317
80.393
-80.003
-188.424
-245.827
-259.168
-243.165
-213.057
-175.812
-138.027
-106.82
-86.792
-82.245
-92.051
-107.421
-120.508
-127.044
-126.891
-125.248
-125.768
-128.304
-131.571
-133.249
-132.374
-129.92
-126.942
-124.28
-122.526
-122.005
-122.868
-125.154
-128.71
-133.186
-138.308
-143.905
-149.776
-155.726
-161.557
-167.03
-171.983
-176.346
-180.05
-183.05
-185.324
-186.836
-187.585
-187.619
-186.985
-185.743
-183.943
-181.621
-178.828
-175.629
-172.099
-168.327
-164.377
-160.291
-156.099
-151.822
-147.475
-143.072
-138.611
-134.074
-129.446
-124.719
-119.89
-114.963
-109.937
-104.806
-99.563
-94.202
-88.724
-83.134
-77.44
-71.647
-65.767
-59.812
-53.802
-47.759
-41.704
-35.652
-29.625
-23.638
-17.713
-11.872
-6.134
-0.521
4.947
10.244
15.346
20.229
24.868
29.239
33.318
37.082
40.508
43.572
46.253
48.532
50.39
51.807
52.769
53.259
53.267
52.781
51.795
50.302
48.299
45.786
42.766
39.243
35.224
30.72
25.744
20.309
14.434
8.138
1.444
-5.625
-13.043
-20.781
-28.81
-37.099
-45.615
-54.323
-63.189
-72.178
-81.253
-90.378
-99.517
-108.633
-117.692
-126.658
-135.498
-144.18
-152.673
-160.948
-168.979
-176.74
-184.208
-191.363
-198.187
-204.664
-210.781
-216.527
-221.894
-226.876
-231.468
-235.671
-239.484
-242.91
-245.954
-248.622
-250.924
-252.869
-254.469
-255.737
-256.689
-257.341
-257.708
-257.809
-257.663
-257.287
-256.701
-255.922
-254.969
-253.86
-252.61
-251.237
-249.755
-248.177
-246.517
-244.785
-242.992
-241.146
-239.253
-237.319
-235.349
-233.344
-231.308
-229.24
-227.139
-225.004
-222.834
-220.623
-218.368
-216.063
-213.702
-211.277
-208.781
-206.202
-203.532
-200.76
-197.875
-194.868
-191.729
-188.446
-185.009
-181.41
-177.641
-173.692
-169.558
-165.231
-160.705
-155.978
-151.046
-145.908
-140.562
-135.009
-129.251
-123.291
-117.132
-110.78
-104.239
-97.515
-90.614
-83.546
-76.319
-68.943
-61.43
-53.792
-46.043
-38.203
-30.29
-22.323
-14.322
-6.306
1.702
9.682
17.613
25.479
33.265
40.952
48.523
55.958
63.237
70.344
77.26
83.966
90.444
96.676
102.651
108.364
113.808
118.975
123.847
128.401
132.62
136.496
140.017
143.18
145.986
148.451
150.612
152.524
154.239
155.804
157.251
158.602
159.894
161.167
162.46
163.815
165.25
166.777
168.423
170.199
172.069
173.95
175.705
177.166
178.21
178.742
178.653
177.838
176.193
173.628
170.104
165.638
160.184
153.636
146.013
137.428
128.21
118.955
110.213
102.467
96.402
92.693
91.574
93.185
97.19
102.423
107.92
112.653
114.876
114.477
113.618
113.85
117.501
124.254
128.639
129.493
130.209
139.798
173.531
239.291
334.967
450.634
571.448
687.306
793.061
883.635
949.618
974.684
941.179
839.927
675.936
470.534
257.94
71.296
-65.63
-142.174
-166.931
-155.62
-121.59
-78.82
-33.232
10.464
41.263
54.766
49.8
30.508
10.231
-3.506
-8.485
-6.233
-3.637
-3.443
-5.046
-7.538
-8.611
-7.829
-6.358
-4.893
-4.257
-5.088
-7.39
-11.098
-16.083
-22.004
-28.587
-35.66
-43.026
-50.469
-57.802
-64.832
-71.405
-77.461
-82.952
-87.825
-92.054
-95.618
-98.522
-100.808
-102.53
-103.736
-104.469
-104.772
-104.692
-104.289
-103.632
-102.794
-101.832
-100.781
-99.671
-98.52
-97.342
-96.151
-94.943
-93.707
-92.429
-91.105
-89.731
-88.312
-86.846
-85.33
-83.758
-82.126
-80.434
-78.689
-76.899
-75.069
-73.211
-71.335
-69.461
-67.609
-65.797
-64.04
-62.35
-60.741
-59.23
-57.832
-56.562
-55.434
-54.464
-53.67
-53.077
-52.706
-52.578
-52.709
-53.115
-53.811
-54.812
-56.132
-57.782
-59.764
-62.084
-64.755
-67.792
-71.217
-75.031
-79.223
-83.767
-88.644
-93.835
-99.319
-105.063
-111.023
-117.166
-123.479
-129.971
-136.654
-143.518
-150.53
-157.637
-164.786
-171.946
-179.108
-186.272
-193.417
-200.52
-207.572
-214.592
-221.613
-228.63
-235.576
-242.33
-248.771
-254.82
-260.429
-265.576
-270.229
-274.332
-277.82
-280.637
-282.754
-284.137
-284.729
-284.43
-283.129
-280.78
-277.428
-273.186
-268.166
-262.44
-256.055
-249.049
-241.483
-233.433
-224.97
-216.139
-206.973
-197.525
-187.881
-178.17
-168.53
-159.043
-149.728
-140.553
-131.495
-122.56
-113.769
-105.139
-96.668
-88.355
-80.219
-72.304
-64.659
-57.309
-50.255
-43.472
-36.934
-30.636
-24.602
-18.867
-13.459
-8.391
-3.671
0.688
4.672
8.272
11.499
14.384
16.958
19.242
21.253
23.002
24.504
25.783
26.864
27.775
28.538
29.179
29.724
30.201
30.639
31.062
31.487
31.929
32.4
32.914
33.484
34.119
34.827
35.615
36.487
37.451
38.508
39.659
40.902
42.232
43.644
45.131
46.681
48.284
49.925
51.59
53.261
54.922
56.55
58.124
59.621
61.018
62.293
63.422
64.381
65.15
65.709
66.042
66.133
65.967
65.526
64.798
63.768
62.425
60.761
58.767
56.437
53.771
50.776
47.457
43.826
39.883
35.622
31.046
26.164
20.986
15.529
9.819
3.892
-2.199
-8.381
-14.586
-20.745
-26.804
-32.723
-38.45
-43.932
-49.108
-53.904
-58.269
-62.166
-65.55
-68.384
-70.674
-72.467
-73.858
-74.997
-75.997
-76.933
-77.892
-78.961
-80.246
-81.869
-83.935
-86.494
-89.623
-93.468
-98.057
-103.289
-108.823
-113.993
-118.123
-120.689
-121.124
-118.843
-113.664
-105.731
-95.789
-85.415
-75.975
-68.378
-63.542
-62.016
-63.425
-66.739
-69.616
-68.342
-59.65
-40.61
-8.238
39.589
103.933
183.262
272.564
365.993
457.323
544.064
627.875
705.47
772.159
817.99
824.906
785.427
697.659
564.994
407.559
242.919
88.576
-33.603
-117.255
-162.463
-175.89
-175.455
-171.052
-166.038
-159.902
-146.066
-123.715
-96.942
-69.797
-47.571
-32.425
-23.791
-21.817
-25.827
-34.203
-45.383
-57.564
-68.941
-78.745
-86.614
-91.714
-93.698
-92.912
-89.943
-85.843
-81.843
-78.488
-76.003
-74.777
-74.895
-76.245
-78.684
-81.691
-84.575
-86.988
-88.75
-89.732
-89.982
-89.502
-88.242
-86.281
-83.749
-80.72
-77.259
-73.384
-69.068
-64.34
-59.264
-53.916
-48.399
-42.781
-37.094
-31.37
-25.633
-19.897
-14.184
-8.493
-2.808
2.878
8.565
14.245
19.906
25.544
31.167
36.784
42.406
48.037
53.677
59.325
64.977
70.628
76.27
81.892
87.477
93.013
98.488
103.892
109.216
114.448
119.574
124.581
129.456
134.185
138.752
143.142
147.338
151.323
155.082
158.601
161.862
164.853
167.558
169.964
172.059
173.832
175.271
176.366
177.11
177.495
177.517
177.172
176.458
175.375
173.925
172.113
169.944
167.428
164.574
161.393
157.899
154.109
150.038
145.705
141.131
136.336
131.345
126.182
120.872
115.441
109.916
104.324
98.693
93.049
87.421
81.834
76.316
70.891
65.586
60.424
55.427
50.619
46.019
41.644
37.513
33.638
30.033
26.709
23.674
20.934
18.494
16.356
14.522
12.988
11.752
10.808
10.148
9.762
9.639
9.766
10.129
10.711
11.497
12.467
13.603
14.886
16.295
17.809
19.407
21.067
22.768
24.488
26.206
27.901
29.553
31.143
32.654
34.069
35.371
36.548
37.585
38.473
39.2
39.76
40.144
40.348
40.37
40.208
39.862
39.335
38.63
37.752
36.709
35.508
34.159
32.672
31.06
29.335
27.514
25.61
23.642
21.626
19.58
17.522
15.472
13.447
11.468
9.55
7.713
5.974
4.349
2.854
1.504
0.312
-0.71
-1.551
-2.202
-2.655
-2.906
-2.951
-2.787
-2.414
-1.833
-1.048
-0.061
1.119
2.486
4.029
5.735
7.588
9.569
11.659
13.835
16.074
18.354
20.648
22.933
25.186
27.385
29.507
31.528
33.421
35.16
36.722
38.085
39.229
40.136
40.786
41.168
41.28
41.116
40.67
39.929
38.87
37.474
35.736
33.65
31.219
28.451
25.358
21.966
18.326
14.488
10.499
6.404
2.227
-1.993
-6.2
-10.321
-14.272
-17.975
-21.383
-24.454
-27.151
-29.456
-31.379
-32.963
-34.288
-35.446
-36.526
-37.621
-38.839
-40.293
-42.099
-44.431
-47.51
-51.467
-56.289
-61.774
-67.518
-73.083
-78.086
-82.034
-84.293
-84.456
-82.506
-79.034
-75.245
-72.404
-71.511
-73.437
-78.994
-88.547
-101.644
-116.465
-129.975
-138.757
-139.259
-128.129
-102.25
-58.644
3.569
82.025
173.218
272.385
376.055
483.951
594.103
701.753
797.647
868.146
899.69
882.327
814.352
699.627
548.314
378.167
207.303
57.403
-52.067
-115.886
-138.084
-133.316
-121.304
-111.804
-107.721
-106.729
-103.208
-97.038
-90.886
-87.576
-90.229
-99.123
-112.578
-128.329
-143.556
-156.198
-165.392
-170.805
-172.703
-171.54
-167.754
-162.467
-156.895
-151.941
-148.237
-145.94
-144.95
-145.264
-146.903
-149.576
-152.978
-156.844
-160.901
-165.094
-169.387
-173.62
-177.606
-181.172
-184.179
-186.567
-188.318
-189.387
-189.744
-189.389
-188.343
-186.668
-184.424
-181.653
-178.396
-174.687
-170.577
-166.133
-161.429
-156.542
-151.531
-146.433
-141.272
-136.063
-130.815
-125.527
-120.191
-114.785
-109.292
-103.707
-98.025
-92.25
-86.379
-80.41
-74.337
-68.161
-61.881
-55.503
-49.033
-42.481
-35.856
-29.175
-22.454
-15.712
-8.97
-2.243
4.45
11.094
17.673
24.168
30.562
36.839
42.98
48.967
54.781
60.402
65.811
70.989
75.92
80.586
84.97
89.059
92.839
96.299
99.427
102.216
104.658
106.749
108.485
109.866
110.892
111.567
111.893
111.879
111.533
110.863
109.882
108.601
107.036
105.2
103.11
100.783
98.237
95.491
92.564
89.477
86.252
82.908
79.468
75.954
72.388
68.79
65.181
61.581
58.01
54.485
51.024
47.643
44.356
41.178
38.118
35.19
32.4
29.758
27.269
24.938
22.769
20.763
18.923
17.248
15.736
14.386
13.196
12.16
11.275
10.535
9.934
9.465
9.12
8.892
8.771
8.749
8.816
8.962
9.178
9.454
9.78
10.147
10.545
10.965
11.399
11.838
12.274
12.7
13.108
13.493
13.848
14.169
14.45
14.686
14.876
15.014
15.099
15.129
15.102
15.016
14.871
14.666
14.401
14.078
13.697
13.261
12.773
12.235
11.652
11.03
10.374
9.689
8.981
8.256
7.522
6.785
6.053
5.333
4.633
3.962
3.326
2.736
2.199
1.722
1.312
0.977
0.725
0.56
0.489
0.515
0.644
0.88
1.228
1.69
2.267
2.962
3.773
4.7
5.741
6.89
8.137
9.473
10.889
12.374
13.917
15.505
17.125
18.765
20.416
22.069
23.712
25.326
26.898
28.411
29.854
31.214
32.478
33.63
34.659
35.561
36.337
36.982
37.486
37.831
37.991
37.951
37.706
37.252
36.586
35.71
34.633
33.381
32.004
30.545
29.039
27.512
25.981
24.485
23.079
21.821
20.77
19.97
19.443
19.217
19.314
19.72
20.409
21.332
22.383
23.471
24.503
25.349
25.912
26.12
25.83
24.87
23.144
20.635
17.53
14.229
11.057
8.244
6.139
5.187
5.76
8.007
11.441
14.961
17.637
18.979
18.385
15.052
8.534
-1.306
-12.392
-20.21
-22.273
-17.459
-5.953
9.527
32.326
69.319
124.079
201.096
296.451
400.035
507.638
613.272
712.215
800.721
866.519
894.922
874.663
800.297
675.063
513.834
338.309
170.901
35.975
-51.735
-92.45
-95.028
-78.514
-61.009
-49.204
-43.856
-40.27
-32.981
-22.953
-13.235
-6.621
-5.558
-9.479
-16.253
-24.131
-31.245
-36.098
-38.225
-37.682
-34.863
-30.522
-25.399
-20.076
-15.169
-11.28
-8.697
-7.465
-7.476
-8.467
-10.194
-12.478
-15.123
-17.896
-20.613
-23.096
-25.154
-26.68
-27.591
-27.809
-27.306
-26.064
-24.068
-21.342
-17.94
-13.912
-9.314
-4.198
1.398
7.415
13.781
20.413
27.22
34.13
41.096
48.078
55.043
61.968
68.835
75.637
82.388
89.091
95.743
102.337
108.862
115.31
121.681
127.974
134.187
140.313
146.344
152.271
158.086
163.778
169.333
174.734
179.963
185.002
189.84
194.464
198.862
203.023
206.933
210.585
213.968
217.073
219.891
222.41
224.621
226.515
228.084
229.32
230.216
230.765
230.961
230.8
230.278
229.393
228.143
226.525
224.541
222.191
219.478
216.405
212.977
209.2
205.081
200.628
195.852
190.763
185.373
179.695
173.745
167.535
161.083
154.405
147.517
140.438
133.185
125.779
118.24
110.587
102.843
95.027
87.162
79.269
71.37
63.487
55.641
47.852
40.142
32.533
25.043
17.693
10.503
3.49
-3.326
-9.929
-16.303
-22.432
-28.303
-33.903
-39.219
-44.242
-48.962
-53.371
-57.462
-61.229
-64.668
-67.775
-70.55
-72.991
-75.1
-76.88
-78.335
-79.472
-80.296
-80.817
-81.046
-80.992
-80.669
-80.092
-79.275
-78.234
-76.99
-75.559
-73.963
-72.223
-70.361
-68.399
-66.362
-64.272
-62.153
-60.028
-57.923
-55.86
-53.863
-51.955
-50.157
-48.491
-46.979
-45.638
-44.488
-43.544
-42.822
-42.333
-42.09
-42.102
-42.374
-42.913
-43.721
-44.8
-46.147
-47.761
-49.636
-51.762
-54.129
-56.726
-59.538
-62.547
-65.735
-69.082
-72.565
-76.163
-79.85
-83.601
-87.391
-91.191
-94.976
-98.718
-102.391
-105.968
-109.423
-112.732
-115.872
-118.823
-121.566
-124.083
-126.36
-128.388
-130.156
-131.661
-132.898
-133.867
-134.57
-135.012
-135.198
-135.137
-134.838
-134.313
-133.579
-132.654
-131.56
-130.324
-128.971
-127.528
-126.023
-124.486
-122.946
-121.428
-119.958
-118.561
-117.27
-116.127
-115.171
-114.435
-113.947
-113.727
-113.79
-114.141
-114.774
-115.665
-116.786
-118.114
-119.63
-121.331
-123.208
-125.246
-127.413
-129.654
-131.926
-134.197
-136.446
-138.655
-140.822
-142.975
-145.186
-147.578
-150.257
-153.296
-156.752
-160.672
-165.135
-170.224
-176.029
-182.614
-190.055
-198.495
-207.984
-218.424
-229.54
-240.794
-251.581
-261.397
-269.715
-275.879
-279.501
-280.61
-279.713
-278.045
-276.876
-276.983
-279.05
-283.818
-291.576
-301.763
-312.69
-321.317
-324.395
-319.148
-302.833
-272.639
-225.805
-162.113
-85.059
0.703
89.787
180.147
276.041
378.352
482.086
576.937
641.03
654.153
607.9
500.307
344.849
166.496
-12.477
-166.598
-276.049
-337.677
-355.909
-347.015
-332.743
-323.303
-322.019
-323.707
-318.444
-305.788
-288.524
-272.284
-264.379
-262.181
-262.034
-260.118
-250.959
-238.221
-225.956
-217.027
-215.707
-219.593
-225.713
-232.555
-237.795
-242.051
-245.883
-248.562
-250.031
-249.967
-248.43
-246.422
-244.549
-243.051
-242.285
-242.306
-243.028
-244.4
-246.081
-247.556
-248.551
-248.936
-248.622
-247.673
-246.142
-244.039
-241.47
-238.551
-235.342
-231.902
-228.26
-224.431
-220.472
-216.443
-212.381
-208.324
-204.289
-200.278
-196.297
-192.335
-188.37
-184.382
-180.359
-176.29
-172.174
-168.008
-163.784
-159.491
-155.116
-150.65
-146.082
-141.401
-136.6
-131.673
-126.622
-121.453
-116.175
-110.796
-105.322
-99.761
-94.12
-88.409
-82.638
-76.82
-70.965
-65.09
-59.213
-53.353
-47.533
-41.776
-36.103
-30.538
-25.104
-19.828
-14.731
-9.839
-5.174
-0.761
3.378
7.219
10.74
13.921
16.743
19.187
21.237
22.879
24.099
24.888
25.238
25.144
24.6
23.607
22.165
20.278
17.952
15.195
12.019
8.438
4.466
0.124
-4.568
-9.588
-14.91
-20.51
-26.359
-32.431
-38.695
-45.122
-51.682
-58.345
-65.082
-71.86
-78.651
-85.425
-92.154
-98.81
-105.366
-111.798
-118.08
-124.191
-130.109
-135.815
-141.291
-146.52
-151.488
-156.181
-160.589
-164.703
-168.517
-172.024
-175.222
-178.11
-180.689
-182.961
-184.93
-186.602
-187.981
-189.077
-189.897
-190.451
-190.749
-190.8
-190.617
-190.211
-189.592
-188.773
-187.763
-186.575
-185.218
-183.704
-182.042
-180.241
-178.312
-176.263
-174.103
-171.84
-169.483
-167.037
-164.511
-161.909
-159.237
-156.498
-153.696
-150.834
-147.913
-144.934
-141.9
-138.811
-135.668
-132.471
-129.219
-125.912
-122.552
-119.137
-115.669
-112.146
-108.569
-104.941
-101.263
-97.537
-93.767
-89.955
-86.104
-82.218
-78.304
-74.365
-70.407
-66.434
-62.453
-58.473
-54.501
-50.546
-46.619
-42.73
-38.893
-35.122
-31.429
-27.83
-24.338
-20.967
-17.731
-14.645
-11.72
-8.969
-6.403
-4.034
-1.876
0.058
1.76
3.218
4.423
5.365
6.032
6.42
6.53
6.361
5.913
5.181
4.153
2.828
1.216
-0.67
-2.82
-5.214
-7.83
-10.629
-13.549
-16.532
-19.528
-22.496
-25.416
-28.255
-30.964
-33.495
-35.792
-37.825
-39.596
-41.1
-42.313
-43.245
-43.918
-44.412
-44.883
-45.448
-46.189
-47.164
-48.384
-49.892
-51.782
-54.128
-56.976
-60.327
-64.091
-68.257
-72.938
-78.08
-83.463
-88.625
-92.834
-95.547
-96.459
-95.12
-90.974
-83.764
-73.541
-61.056
-47.685
-34.321
-21.777
-11.204
-3.352
1.435
4.404
9.328
18.725
33.614
53.683
76.027
103.791
143.258
197.701
272.101
361.955
457.231
556.071
652.307
740.227
816.16
861.443
858.59
800.019
681.219
516.297
331.715
151.052
1.29
-99.232
-150.017
-158.076
-140.838
-118.45
-99.34
-85.591
-73.565
-56.978
-36.359
-15.013
3.803
16.543
23.058
25.282
24.812
23.805
24.211
26.649
31.181
37.533
44.939
52.702
60.331
67.139
72.391
75.774
77.235
76.919
75.212
72.419
68.745
64.48
59.909
55.279
50.858
46.811
43.198
40.089
37.529
35.544
34.177
33.424
33.232
33.557
34.349
35.564
37.178
39.143
41.397
43.874
46.498
49.221
52.021
54.883
57.805
60.789
63.838
66.974
70.234
73.645
77.228
80.998
84.961
89.128
93.517
98.14
103.006
108.12
113.48
119.082
124.921
130.986
137.262
143.728
150.359
157.134
164.029
171.022
178.087
185.2
192.331
199.455
206.541
213.56
220.479
227.264
233.883
240.3
246.484
252.401
258.02
263.308
268.237
272.779
276.907
280.597
283.826
286.573
288.819
290.549
291.75
292.41
292.524
292.085
291.093
289.549
287.459
284.831
281.674
278.003
273.834
269.184
264.077
258.534
252.581
246.247
239.562
232.558
225.268
217.727
209.971
202.037
193.96
185.779
177.531
169.251
160.976
152.742
144.582
136.531
128.62
120.88
113.34
106.026
98.963
92.173
85.676
79.489
73.627
68.102
62.925
58.102
53.641
49.542
45.808
42.436
39.424
36.767
34.455
32.481
30.833
29.499
28.466
27.717
27.238
27.01
27.016
27.238
27.656
28.252
29.005
29.896
30.906
32.015
33.205
34.458
35.757
37.086
38.429
39.774
41.106
42.415
43.691
44.925
46.108
47.235
48.299
49.296
50.223
51.076
51.854
52.557
53.184
53.736
54.216
54.625
54.968
55.249
55.472
55.643
55.768
55.853
55.903
55.926
55.928
55.914
55.892
55.867
55.846
55.834
55.836
55.854
55.894
55.956
56.041
56.149
56.28
56.429
56.596
56.778
56.97
57.168
57.369
57.567
57.758
57.934
58.088
58.209
58.285
58.305
58.255
58.125
57.899
57.566
57.116
56.54
55.834
54.992
54.004
52.862
51.559
50.088
48.446
46.63
44.636
42.463
40.117
37.607
34.946
32.143
29.199
26.109
22.861
19.447
15.873
12.138
8.246
4.207
0.041
-4.22
-8.52
-12.812
-17.059
-21.22
-25.265
-29.15
-32.819
-36.214
-39.27
-41.929
-44.158
-45.932
-47.232
-48.062
-48.42
-48.342
-47.941
-47.334
-46.66
-46.064
-45.641
-45.535
-45.979
-47.127
-49.024
-51.548
-54.298
-56.819
-58.777
-59.761
-59.305
-57.165
-53.344
-48.435
-43.795
-40.915
-41.098
-45.496
-54.964
-69.751
-89.289
-111.611
-133.308
-150.5
-159.004
-154.789
-134.348
-94.572
-35.121
40.587
128.037
221.447
317.152
417.104
520.045
620.087
707.436
762.108
766.51
713.972
603.697
448.906
272.734
95.175
-60.965
-176.396
-245.499
-266.963
-249.661
-212.556
-170.104
-137.117
-122.804
-124.809
-138.547
-154.64
-164.419
-166.89
-164.359
-162.2
-164.706
-171.547
-180.182
-187.527
-192.056
-194.083
-194.527
-194.338
-193.978
-193.791
-194.323
-195.882
-198.538
-202.187
-206.544
-211.399
-216.628
-222.019
-227.322
-232.301
-236.752
-240.559
-243.659
-245.978
-247.455
-248.046
-247.733
-246.526
-244.458
-241.56
-237.874
-233.447
-228.324
-222.57
-216.253
-209.449
-202.245
-194.712
-186.905
-178.87
-170.645
-162.261
-153.746
-145.117
-136.382
-127.552
-118.641
-109.664
-100.644
-91.598
-82.541
-73.487
-64.447
-55.438
-46.479
-37.592
-28.796
-20.114
-11.568
-3.185
5.009
12.988
20.733
28.222
35.441
42.372
48.999
55.308
61.285
66.921
72.202
77.118
81.658
85.814
89.579
92.946
95.911
98.472
100.625
102.371
103.711
104.647
105.184
105.326
105.081
104.455
103.458
102.101
100.397
98.358
96
93.338
90.389
87.171
83.702
80.002
76.09
71.984
67.707
63.278
58.716
54.044
49.283
44.452
39.576
34.674
29.769
24.882
20.033
15.244
10.535
5.923
1.428
-2.933
-7.144
-11.19
-15.055
-18.726
-22.191
-25.438
-28.459
-31.245
-33.788
-36.085
-38.13
-39.922
-41.457
-42.737
-43.761
-44.53
-45.046
-45.314
-45.336
-45.118
-44.667
-43.991
-43.1
-42.002
-40.711
-39.238
-37.597
-35.803
-33.869
-31.809
-29.638
-27.373
-25.028
-22.619
-20.162
-17.675
-15.173
-12.673
-10.192
-7.745
-5.347
-3.011
-0.752
1.418
3.487
5.441
7.27
8.963
10.508
11.897
13.118
14.167
15.037
15.725
16.229
16.549
16.69
16.657
16.455
16.093
15.578
14.918
14.122
13.198
12.155
11.002
9.751
8.417
7.016
5.57
4.099
2.625
1.172
-0.235
-1.578
-2.835
-3.988
-5.026
-5.929
-6.68
-7.255
-7.623
-7.762
-7.66
-7.304
-6.694
-5.838
-4.755
-3.485
-2.075
-0.553
1.058
2.753
4.547
6.448
8.465
10.616
12.895
15.301
17.843
20.512
23.308
26.256
29.391
32.79
36.547
40.705
45.275
50.24
55.532
61.083
66.799
72.542
78.198
83.661
88.825
93.634
98.029
101.908
105.173
107.692
109.317
109.987
109.677
108.376
106.142
103.038
99.181
94.771
89.991
84.995
79.909
74.797
69.72
64.794
60.092
55.657
51.526
47.634
43.937
40.449
37.114
33.837
30.467
26.769
22.54
17.69
12.116
5.675
-1.66
-9.837
-18.558
-27.17
-35.009
-41.522
-46.152
-48.327
-47.778
-44.568
-39.29
-33.339
-28.145
-24.779
-24.268
-27.428
-34.218
-43.636
-53.668
-61
-61.8
-52.564
-29.781
10.082
67.534
139.446
222.253
310.808
402.867
502.844
610.312
718.573
815.326
876.549
882.597
827.124
711.27
551.644
373.098
196.84
46.838
-59.291
-118.724
-136.003
-127.184
-112.502
-101.419
-97.021
-95.771
-90.518
-81.045
-70.185
-60.905
-56.858
-58.158
-62.665
-68.818
-74.549
-77.96
-78.444
-75.79
-70.163
-62.446
-53.562
-44.204
-35.194
-27.317
-20.954
-16.308
-13.404
-12.001
-11.884
-12.87
-14.712
-17.188
-20.146
-23.436
-26.914
-30.428
-33.784
-36.83
-39.474
-41.655
-43.339
-44.501
-45.13
-45.255
-44.935
-44.226
-43.18
-41.836
-40.227
-38.403
-36.432
-34.383
-32.331
-30.322
-28.384
-26.534
-24.78
-23.12
-21.544
-20.025
-18.528
-17.027
-15.501
-13.937
-12.321
-10.635
-8.861
-6.98
-4.978
-2.844
-0.568
1.857
4.436
7.168
10.052
13.081
16.248
19.545
22.966
26.504
30.152
33.901
37.741
41.661
45.65
49.693
53.774
57.874
61.976
66.058
70.1
74.08
77.975
81.762
85.42
88.927
92.259
95.395
98.313
100.994
103.417
105.564
107.418
108.963
110.184
111.069
111.605
111.784
111.598
111.04
110.105
108.792
107.099
105.026
102.578
99.759
96.574
93.034
89.15
84.934
80.403
75.574
70.465
65.098
59.494
53.677
47.671
41.501
35.192
28.77
22.262
15.695
9.094
2.485
-4.105
-10.651
-17.13
-23.517
-29.791
-35.93
-41.914
-47.723
-53.341
-58.75
-63.936
-68.885
-73.585
-78.026
-82.198
-86.096
-89.714
-93.05
-96.102
-98.871
-101.36
-103.573
-105.517
-107.199
-108.628
-109.814
-110.769
-111.505
-112.035
-112.375
-112.538
-112.54
-112.396
-112.123
-111.737
-111.253
-110.687
-110.054
-109.369
-108.646
-107.901
-107.147
-106.395
-105.66
-104.953
-104.284
-103.664
-103.102
-102.606
-102.181
-101.833
-101.567
-101.386
-101.291
-101.281
-101.357
-101.516
-101.756
-102.073
-102.463
-102.919
-103.437
-104.009
-104.629
-105.289
-105.981
-106.697
-107.43
-108.17
-108.912
-109.647
-110.367
-111.066
-111.737
-112.375
-112.974
-113.529
-114.036
-114.49
-114.888
-115.23
-115.513
-115.737
-115.902
-116.011
-116.067
-116.08
-116.056
-116.003
-115.929
-115.845
-115.762
-115.69
-115.639
-115.611
-115.613
-115.653
-115.739
-115.884
-116.094
-116.377
-116.74
-117.189
-117.73
-118.364
-119.089
-119.894
-120.771
-121.718
-122.739
-123.847
-125.05
-126.35
-127.744
-129.226
-130.78
-132.388
-134.015
-135.609
-137.131
-138.547
-139.824
-140.949
-141.891
-142.612
-143.075
-143.228
-143.017
-142.401
-141.35
-139.866
-137.982
-135.744
-133.206
-130.443
-127.513
-124.489
-121.451
-118.449
-115.569
-112.894
-110.521
-108.658
-107.447
-106.898
-106.889
-107.026
-106.745
-105.574
-102.989
-98.344
-91.349
-82.014
-70.851
-59.369
-49.342
-42.551
-39.771
-40.36
-43.672
-48.397
-56.133
-71.159
-92.754
-116.866
-131.946
-118.442
-67.155
20.266
133.658
251.856
362.564
466.392
564.707
658.936
742.316
796.104
802.845
755.767
656.603
515.612
350.639
177.105
11.543
-125.325
-220.765
-270.828
-280.986
-268.851
-251.22
-236.231
-226.014
-216.825
-204.676
-190.822
-177.972
-169.018
-166.583
-170.553
-179.72
-192.254
-205.155
-216.193
-224.467
-229.627
-231.944
-231.774
-228.992
-224.074
-218.304
-212.715
-207.944
-204.261
-201.452
-199.36
-198.14
-197.667
-197.499
-197.266
-196.625
-195.35
-193.409
-190.743
-187.228
-182.819
-177.542
-171.419
-164.509
-156.866
-148.52
-139.527
-129.955
-119.867
-109.335
-98.441
-87.271
-75.92
-64.49
-53.06
-41.691
-30.434
-19.33
-8.419
2.269
12.72
22.931
32.897
42.605
52.043
61.199
70.069
78.655
86.958
94.977
102.71
110.153
117.305
124.167
130.734
137.004
142.971
148.629
153.976
159.012
163.738
168.157
172.268
176.074
179.578
182.784
185.694
188.309
190.63
192.658
194.394
195.839
196.994
197.858
198.433
198.719
198.717
198.428
197.853
196.992
195.846
194.418
192.709
190.722
188.46
185.928
183.13
180.071
176.758
173.199
169.402
165.375
161.13
156.676
152.028
147.197
142.199
137.048
131.761
126.358
120.856
115.275
109.638
103.966
98.28
92.606
86.966
81.384
75.886
70.496
65.238
60.136
55.217
50.503
46.018
41.784
37.825
34.16
30.81
27.795
25.13
22.833
20.919
19.4
18.288
17.593
17.322
17.483
18.078
19.11
20.58
22.484
24.819
27.579
30.756
34.34
38.319
42.679
47.404
52.476
57.875
63.582
69.572
75.823
82.309
89.003
95.879
102.908
110.061
117.309
124.622
131.97
139.323
146.652
153.926
161.117
168.197
175.137
181.91
188.492
194.857
200.983
206.846
212.427
217.706
222.666
227.292
231.57
235.488
239.036
242.208
244.999
247.405
249.426
251.061
252.315
253.192
253.7
253.847
253.642
253.097
252.225
251.042
249.562
247.804
245.784
243.519
241.03
238.335
235.453
232.404
229.205
225.875
222.433
218.898
215.287
211.615
207.899
204.153
200.39
196.624
192.863
189.112
185.374
181.652
177.949
174.263
170.594
166.935
163.286
159.647
156.016
152.391
148.763
145.124
141.464
137.776
134.053
130.284
126.46
122.568
118.607
114.58
110.487
106.323
102.074
97.715
93.232
88.62
83.875
78.999
73.996
68.879
63.68
58.453
53.25
48.114
43.076
38.151
33.376
28.805
24.499
20.521
16.911
13.695
10.906
8.553
6.619
5.053
3.762
2.633
1.572
0.479
-0.751
-2.216
-4.032
-6.309
-9.167
-12.787
-17.255
-22.519
-28.398
-34.472
-40.247
-45.306
-49.139
-51.091
-50.741
-48.06
-43.5
-38.204
-33.426
-30.037
-28.817
-30.61
-35.88
-44.201
-53.968
-62.258
-65.728
-61.358
-46.272
-17.506
27.954
90.751
167.796
254.43
345.074
436.658
532.17
633.096
734.435
826.143
888.905
901.915
857.163
755.397
606.914
434.15
256.706
91.795
-41.436
-133.495
-181.737
-187.015
-160.712
-117.802
-70.706
-33.527
-14.895
-14.527
-28.614
-47.051
-60.15
-65.349
-64.211
-62.441
-64.531
-70.453
-78.045
-84.262
-87.839
-89.455
-90.14
-90.891
-92.181
-94.212
-97.376
-101.915
-107.786
-114.81
-122.685
-131.166
-140.113
-149.342
-158.639
-167.795
-176.604
-184.922
-192.67
-199.778
-206.198
-211.902
-216.862
-221.074
-224.571
-227.392
-229.585
-231.194
-232.25
-232.795
-232.883
-232.578
-231.956
-231.073
-229.965
-228.658
-227.168
-225.508
-223.69
-221.715
-219.566
-217.233
-214.712
-212.001
-209.109
-206.039
-202.79
-199.36
-195.751
-191.969
-188.025
-183.931
-179.7
-175.347
-170.891
-166.354
-161.764
-157.142
-152.51
-147.891
-143.305
-138.774
-134.322
-129.971
-125.74
-121.652
-117.729
-113.994
-110.468
-107.171
-104.123
-101.342
-98.844
-96.645
-94.76
-93.201
-91.979
-91.101
-90.576
-90.41
-90.605
-91.164
-92.083
-93.36
-94.989
-96.961
-99.267
-101.894
-104.825
-108.045
-111.533
-115.27
-119.232
-123.395
-127.732
-132.217
-136.82
-141.514
-146.266
-151.046
-155.823
-160.565
-165.243
-169.824
-174.278
-178.577
-182.692
-186.594
-190.259
-193.661
-196.777
-199.586
-202.067
-204.203
-205.978
-207.379
-208.395
-209.017
-209.238
-209.055
-208.465
-207.469
-206.071
-204.274
-202.087
-199.52
-196.585
-193.295
-189.667
-185.718
-181.467
-176.935
-172.143
-167.114
-161.873
-156.443
-150.851
-145.122
-139.283
-133.361
-127.382
-121.376
-115.367
-109.384
-103.454
-97.602
-91.854
-86.235
-80.77
-75.482
-70.395
-65.53
-60.908
-56.548
-52.469
-48.688
-45.22
-42.08
-39.279
-36.83
-34.741
-33.021
-31.676
-30.712
-30.132
-29.936
-30.126
-30.699
-31.652
-32.978
-34.671
-36.72
-39.115
-41.843
-44.891
-48.241
-51.877
-55.779
-59.928
-64.302
-68.878
-73.631
-78.536
-83.567
-88.695
-93.894
-99.136
-104.392
-109.631
-114.826
-119.949
-124.972
-129.866
-134.604
-139.158
-143.504
-147.618
-151.477
-155.059
-158.347
-161.324
-163.981
-166.307
-168.298
-169.949
-171.259
-172.227
-172.859
-173.158
-173.129
-172.776
-172.108
-171.14
-169.89
-168.377
-166.622
-164.645
-162.47
-160.125
-157.639
-155.037
-152.339
-149.566
-146.748
-143.924
-141.144
-138.453
-135.88
-133.458
-131.212
-129.163
-127.329
-125.705
-124.262
-122.973
-121.811
-120.763
-119.833
-119.003
-118.24
-117.497
-116.718
-115.871
-114.956
-113.964
-112.889
-111.758
-110.621
-109.586
-108.795
-108.368
-108.419
-109.06
-110.395
-112.541
-115.595
-119.663
-124.892
-131.356
-138.987
-147.575
-156.773
-166.183
-175.456
-184.151
-191.619
-197.307
-201.006
-203.073
-204.192
-205
-206.099
-207.994
-211.481
-217.714
-225.923
-232.99
-236.249
-232.831
-223.2
-212.149
-199.47
-181.265
-150.054
-94.564
-11.384
95.386
217.482
344.447
468.629
581.704
674.094
732.912
742.823
698.263
601.469
460.836
295.537
123.713
-37.834
-168.402
-255.139
-294.02
-286.905
-247.18
-192.917
-138.477
-97.575
-77.923
-77.933
-92.302
-110.478
-122.849
-126.89
-124.114
-120.009
-118.632
-119.663
-121.439
-121.449
-118.689
-114.116
-108.788
-103.651
-99.378
-96.315
-94.668
-94.55
-95.837
-98.253
-101.595
-105.703
-110.421
-115.563
-120.918
-126.274
-131.448
-136.321
-140.791
-144.762
-148.163
-150.947
-153.092
-154.602
-155.504
-155.826
-155.597
-154.847
-153.602
-151.899
-149.789
-147.333
-144.602
-141.648
-138.507
-135.205
-131.759
-128.183
-124.482
-120.65
-116.672
-112.536
-108.238
-103.78
-99.168
-94.406
-89.497
-84.44
-79.24
-73.903
-68.443
-62.871
-57.204
-51.457
-45.652
-39.812
-33.966
-28.139
-22.354
-16.634
-11.001
-5.479
-0.092
5.138
10.189
15.04
19.669
24.054
28.174
32.01
35.544
38.76
41.643
44.182
46.365
48.182
49.629
50.701
51.395
51.712
51.652
51.22
50.423
49.268
47.767
45.93
43.772
41.308
38.557
35.538
32.27
28.775
25.077
21.198
17.164
12.999
8.728
4.376
-0.029
-4.464
-8.902
-13.319
-17.692
-21.997
-26.213
-30.319
-34.297
-38.129
-41.801
-45.298
-48.609
-51.724
-54.633
-57.332
-59.814
-62.077
-64.121
-65.944
-67.549
-68.94
-70.122
-71.1
-71.883
-72.479
-72.898
-73.149
-73.244
-73.194
-73.012
-72.709
-72.299
-71.794
-71.206
-70.55
-69.835
-69.075
-68.279
-67.459
-66.624
-65.782
-64.942
-64.109
-63.29
-62.49
-61.714
-60.963
-60.241
-59.548
-58.885
-58.251
-57.646
-57.066
-56.51
-55.973
-55.452
-54.942
-54.44
-53.939
-53.433
-52.918
-52.386
-51.831
-51.246
-50.625
-49.958
-49.239
-48.462
-47.618
-46.702
-45.708
-44.628
-43.458
-42.193
-40.827
-39.357
-37.779
-36.087
-34.28
-32.355
-30.311
-28.146
-25.859
-23.45
-20.92
-18.271
-15.505
-12.625
-9.632
-6.53
-3.325
-0.022
3.373
6.852
10.407
14.028
17.703
21.419
25.162
28.921
32.68
36.427
40.147
43.826
47.452
51.016
54.502
57.899
61.192
64.366
67.413
70.32
73.074
75.661
78.068
80.288
82.322
84.17
85.827
87.286
88.536
89.575
90.414
91.063
91.531
91.83
91.98
92.019
92.011
92.014
92.073
92.225
92.494
92.916
93.544
94.433
95.625
97.139
98.971
101.13
103.641
106.506
109.692
113.108
116.611
120.094
123.486
126.745
129.836
132.68
135.183
137.293
138.975
140.24
141.148
141.634
141.612
141.209
140.618
140.221
140.674
142.459
145.957
151.793
160.371
171.614
185.485
201.506
218.324
234.709
249.545
261.273
270.362
279.522
289.112
299.202
309.297
315.711
322.256
338.886
372.949
431.679
512.898
603.726
694.895
781.827
863.605
941.401
1010.145
1055.319
1059.751
1014.455
918.817
781.504
621.951
457.672
305.414
183.633
99.978
55.834
47.056
59.908
83.984
111.008
132.565
146.012
147.664
137.138
120.773
102.933
88.727
80.459
74.326
68.698
63.055
57.416
54.161
54.004
56.066
59.559
63.375
66.657
69.062
70.369
70.411
69.254
67.123
64.205
60.664
56.671
52.36
47.838
43.267
38.802
34.579
30.773
27.514
24.875
22.914
21.658
21.103
21.235
22.012
23.372
25.257
27.619
30.411
33.59
37.096
40.853
44.781
48.795
52.834
56.855
60.827
64.73
68.555
72.301
75.982
79.616
83.218
86.795
90.35
93.885
97.406
100.923
104.444
107.977
111.53
115.105
118.704
122.329
125.974
129.636
133.307
136.975
140.631
144.266
147.872
151.441
154.965
158.432
161.834
165.158
168.395
171.53
174.55
177.44
180.186
182.772
185.184
187.406
189.423
191.223
192.79
194.112
195.176
195.972
196.488
196.714
196.644
196.268
195.582
194.581
193.263
191.627
189.673
187.405
184.826
181.944
178.764
175.297
171.554
167.546
163.287
158.791
154.074
149.154
144.047
138.773
133.353
127.805
122.15
116.409
110.603
104.752
98.875
92.994
87.127
81.293
75.51
69.795
64.164
58.633
53.215
47.924
42.771
37.764
32.914
28.226
23.707
19.359
15.187
11.19
7.37
3.726
0.254
-3.049
-6.187
-9.165
-11.991
-14.671
-17.214
-19.629
-21.923
-24.107
-26.19
-28.182
-30.092
-31.932
-33.71
-35.438
-37.123
-38.777
-40.409
-42.026
-43.636
-45.248
-46.866
-48.498
-50.148
-51.82
-53.517
-55.243
-56.998
-58.784
-60.603
-62.452
-64.331
-66.239
-68.172
-70.126
-72.098
-74.082
-76.072
-78.061
-80.043
-82.011
-83.958
-85.875
-87.754
-89.587
-91.365
-93.079
-94.721
-96.281
-97.75
-99.12
-100.384
-101.533
-102.56
-103.459
-104.224
-104.851
-105.336
-105.676
-105.867
-105.907
-105.795
-105.531
-105.118
-104.556
-103.849
-103.001
-102.021
-100.92
-99.709
-98.4
-97.006
-95.541
-94.022
-92.464
-90.882
-89.285
-87.686
-86.101
-84.546
-83.039
-81.598
-80.238
-78.975
-77.828
-76.812
-75.945
-75.234
-74.685
-74.303
-74.103
-74.099
-74.319
-74.783
-75.5
-76.48
-77.725
-79.228
-80.98
-82.95
-85.092
-87.362
-89.725
-92.147
-94.607
-97.069
-99.489
-101.829
-104.036
-106.068
-107.889
-109.48
-110.85
-112.039
-113.111
-114.132
-115.186
-116.358
-117.753
-119.486
-121.634
-124.272
-127.439
-131.203
-135.744
-141.136
-147.29
-153.988
-160.788
-167.237
-173.02
-177.697
-180.577
-181.327
-180.064
-177.175
-173.645
-170.519
-168.564
-168.886
-172.795
-179.688
-187.026
-192.43
-193.797
-192.201
-190.946
-189.235
-180.603
-154.576
-102.745
-23.126
77.021
184.964
294.163
399.623
495.292
575.883
626.441
630.797
584.965
490.413
357.042
205.443
51.338
-89.034
-195.92
-262.832
-289.775
-284.631
-266.581
-246.985
-230.579
-217.66
-202.451
-184.446
-166.496
-151.097
-142.12
-140.158
-143.436
-150.703
-159.242
-166.49
-171.611
-174.03
-173.675
-171.25
-167.071
-161.31
-155.04
-149.294
-144.538
-141.149
-139.073
-137.97
-137.823
-138.651
-140.102
-141.85
-143.657
-145.247
-146.531
-147.491
-148.008
-147.987
-147.413
-146.269
-144.564
-142.34
-139.61
-136.394
-132.735
-128.667
-124.231
-119.482
-114.475
-109.276
-103.963
-98.592
-93.205
-87.836
-82.51
-77.246
-72.058
-66.948
-61.906
-56.924
-52
-47.137
-42.337
-37.599
-32.916
-28.28
-23.686
-19.132
-14.616
-10.14
-5.703
-1.307
3.046
7.348
11.59
15.767
19.876
23.913
27.877
31.765
35.573
39.3
42.944
46.504
49.977
53.358
56.645
59.832
62.916
65.893
68.759
71.507
74.133
76.631
78.994
81.219
83.298
85.228
87.002
88.615
90.064
91.345
92.454
93.387
94.14
94.711
95.095
95.292
95.298
95.114
94.737
94.167
93.404
92.448
91.3
89.959
88.427
86.705
84.796
82.704
80.433
77.991
75.384
72.623
69.718
66.684
63.535
60.282
56.94
53.523
50.044
46.516
42.95
39.357
35.747
32.136
28.542
24.983
21.478
18.048
14.713
11.498
8.422
5.508
2.771
0.22
-2.129
-4.26
-6.149
-7.769
-9.098
-10.131
-10.859
-11.278
-11.396
-11.228
-10.81
-10.202
-9.443
-8.553
-7.541
-6.391
-5.094
