Name
Date of Birth,"Mar 27, 1959"
Recorded Date,2022-09-04 09:00:22 -0500
Classification,Sinus Rhythm
Symptoms,
Software Version,1.90
Device,"Watch4,2"
Sample Rate,510.227 hertz


Lead,Lead I
Unit,µV

7.489
7.561
7.652
7.762
7.891
8.039
8.204
8.383
8.574
8.775
8.983
9.194
9.405
9.612
9.811
9.998
10.17
10.322
10.451
10.551
10.62
10.652
10.643
10.589
10.485
10.328
10.114
9.838
9.497
9.089
8.611
8.061
7.435
6.734
5.954
5.096
4.158
3.141
2.044
0.869
-0.384
-1.711
-3.111
-4.581
-6.118
-7.718
-9.377
-11.091
-12.855
-14.664
-16.513
-18.394
-20.301
-22.227
-24.165
-26.105
-28.039
-29.958
-31.852
-33.713
-35.53
-37.293
-38.993
-40.618
-42.16
-43.607
-44.951
-46.181
-47.289
-48.265
-49.102
-49.792
-50.33
-50.709
-50.926
-50.975
-50.854
-50.561
-50.094
-49.455
-48.643
-47.661
-46.513
-45.205
-43.742
-42.134
-40.389
-38.521
-36.543
-34.47
-32.319
-30.108
-27.856
-25.581
-23.305
-21.045
-18.821
-16.651
-14.554
-12.552
-10.664
-8.91
-7.312
-5.887
-4.653
-3.628
-2.825
-2.252
-1.916
-1.822
-1.978
-2.402
-3.106
-4.099
-5.388
-6.977
-8.862
-11.03
-13.456
-16.098
-18.909
-21.843
-24.859
-27.927
-31.013
-34.082
-37.089
-39.975
-42.686
-45.174
-47.396
-49.308
-50.89
-52.158
-53.167
-54.022
-54.827
-55.656
-56.585
-57.7
-59.079
-60.793
-62.929
-65.55
-68.753
-72.738
-77.602
-83.271
-89.561
-96.053
-102.175
-107.416
-111.15
-112.516
-111.033
-106.816
-100.272
-92.409
-84.767
-78.677
-75.324
-76.352
-81.569
-88.18
-94.886
-100.251
-103.116
-105.499
-103.19
-85.899
-45.705
23.942
120.921
232.798
350.136
469.156
589.106
708.903
819.376
901.249
933.649
906.349
820.503
687.606
527.336
356.135
189.886
46.817
-61.306
-127.057
-150.625
-144.643
-121.646
-92.81
-68.581
-51.305
-43.347
-45.507
-52.184
-60.06
-65.765
-67.632
-69.393
-73.049
-78.754
-85.438
-90.135
-91.567
-90.156
-86.723
-82.483
-78.203
-74.331
-71.46
-69.951
-69.902
-71.204
-73.576
-76.792
-80.688
-85.09
-89.807
-94.649
-99.452
-104.085
-108.435
-112.368
-115.775
-118.585
-120.752
-122.276
-123.168
-123.454
-123.18
-122.403
-121.186
-119.584
-117.65
-115.437
-113.005
-110.425
-107.763
-105.087
-102.445
-99.868
-97.379
-94.985
-92.688
-90.481
-88.345
-86.261
-84.21
-82.177
-80.15
-78.116
-76.06
-73.963
-71.807
-69.575
-67.249
-64.816
-62.261
-59.574
-56.743
-53.76
-50.62
-47.316
-43.844
-40.195
-36.364
-32.346
-28.135
-23.73
-19.129
-14.331
-9.34
-4.16
1.203
6.739
12.439
18.289
24.278
30.389
36.607
42.912
49.285
55.706
62.152
68.6
75.026
81.406
87.714
93.925
100.012
105.951
111.714
117.278
122.618
127.708
132.527
137.051
141.26
145.133
148.651
151.799
154.562
156.925
158.88
160.416
161.528
162.212
162.465
162.289
161.684
160.657
159.212
157.36
155.11
152.476
149.47
146.111
142.414
138.4
134.089
129.503
124.665
119.599
114.329
108.88
103.278
97.55
91.722
85.82
79.87
73.897
67.927
61.985
56.092
50.271
44.544
38.929
33.445
28.109
22.935
17.937
13.128
8.518
4.116
-0.071
-4.038
-7.779
-11.293
-14.579
-17.638
-20.471
-23.082
-25.476
-27.659
-29.637
-31.42
-33.016
-34.437
-35.693
-36.796
-37.758
-38.591
-39.309
-39.925
-40.45
-40.897
-41.278
-41.605
-41.887
-42.136
-42.362
-42.572
-42.776
-42.98
-43.192
-43.418
-43.663
-43.931
-44.226
-44.552
-44.91
-45.302
-45.729
-46.192
-46.69
-47.223
-47.787
-48.382
-49.005
-49.651
-50.316
-50.998
-51.69
-52.389
-53.089
-53.785
-54.474
-55.15
-55.809
-56.447
-57.06
-57.645
-58.2
-58.722
-59.208
-59.657
-60.068
-60.439
-60.771
-61.062
-61.313
-61.524
-61.695
-61.827
-61.92
-61.976
-61.994
-61.978
-61.928
-61.846
-61.734
-61.596
-61.433
-61.248
-61.045
-60.826
-60.595
-60.355
-60.11
-59.862
-59.615
-59.372
-59.137
-58.912
-58.699
-58.502
-58.321
-58.16
-58.02
-57.902
-57.807
-57.737
-57.693
-57.675
-57.686
-57.724
-57.792
-57.889
-58.015
-58.172
-58.359
-58.575
-58.82
-59.094
-59.394
-59.721
-60.072
-60.445
-60.837
-61.246
-61.668
-62.099
-62.535
-62.97
-63.399
-63.816
-64.218
-64.597
-64.949
-65.268
-65.548
-65.783
-65.968
-66.096
-66.163
-66.163
-66.089
-65.936
-65.701
-65.377
-64.962
-64.45
-63.838
-63.123
-62.302
-61.373
-60.334
-59.183
-57.921
-56.549
-55.068
-53.481
-51.793
-50.01
-48.14
-46.193
-44.181
-42.115
-40.008
-37.874
-35.726
-33.579
-31.444
-29.335
-27.263
-25.242
-23.286
-21.41
-19.631
-17.962
-16.418
-15.012
-13.759
-12.668
-11.744
-10.992
-10.416
-10.025
-9.838
-9.871
-10.134
-10.635
-11.378
-12.358
-13.563
-14.964
-16.516
-18.17
-19.879
-21.599
-23.301
-24.951
-26.513
-27.943
-29.181
-30.177
-30.889
-31.284
-31.334
-31.034
-30.419
-29.567
-28.607
-27.667
-26.85
-26.256
-25.984
-26.145
-26.855
-28.229
-30.35
-33.312
-37.268
-42.279
-48.28
-55.016
-61.96
-68.491
-74.056
-78.059
-79.803
-78.844
-75.133
-69.115
-61.977
-55.038
-49.253
-45.511
-44.695
-47.123
-52.214
-58.312
-62.367
-60.964
-50.99
-29.29
7.222
61.289
132.874
218.276
312.504
409.403
506.321
607.198
712.578
818.059
913.634
975.86
983.289
925.912
800.801
624.86
427.483
235.399
77.011
-31.006
-90.26
-108.296
-99.763
-79.125
-51.581
-21.831
4.28
22.102
26.145
16.535
1.409
-11.752
-18.282
-17.802
-15.63
-15.025
-15.865
-17.323
-16.971
-13.753
-8.802
-2.833
2.567
4.593
3.245
0.165
-1.721
3.51
15.828
29.6
39.158
36.4
20.931
0.754
-17.879
-28.277
-29.137
-26.16
-22.827
-21.506
-22.896
-24.6
-25.536
-25.813
-25.391
-24.687
-23.851
-22.612
-20.926
-18.901
-16.594
-14.064
-11.398
-8.682
-5.998
-3.435
-1.036
1.214
3.324
5.296
7.151
8.906
10.58
12.193
13.757
15.279
16.771
18.25
19.73
21.228
22.76
24.337
25.971
27.674
29.452
31.312
33.26
35.3
37.437
39.678
42.029
44.497
47.088
49.807
52.658
55.645
58.769
62.031
65.428
68.957
72.613
76.39
80.28
84.276
88.367
92.544
96.794
101.105
105.462
109.853
114.26
118.666
123.056
127.409
131.709
135.934
140.066
144.086
147.974
151.711
155.277
158.654
161.824
164.769
167.47
169.913
172.08
173.958
175.532
176.792
177.727
178.329
178.588
178.501
178.062
177.268
176.118
174.612
172.75
170.536
167.974
165.071
161.833
158.27
154.393
150.214
145.746
141.004
136.004
130.763
125.298
119.629
113.776
107.759
101.601
95.322
88.947
82.497
75.997
69.469
62.937
56.423
49.95
43.54
37.216
30.997
24.906
18.961
13.182
7.588
2.195
-2.981
-7.924
-12.621
-17.061
-21.23
-25.122
-28.726
-32.037
-35.048
-37.757
-40.161
-42.259
-44.051
-45.54
-46.731
-47.627
-48.235
-48.565
-48.623
-48.422
-47.971
-47.283
-46.371
-45.248
-43.929
-42.43
-40.765
-38.951
-37.005
-34.943
-32.782
-30.54
-28.232
-25.877
-23.489
-21.086
-18.682
-16.293
-13.933
-11.617
-9.358
-7.169
-5.06
-3.043
-1.128
0.678
2.367
3.932
5.368
6.672
7.839
8.869
9.758
10.508
11.119
11.593
11.931
12.138
12.217
12.173
12.013
11.741
11.364
10.89
10.326
9.679
8.958
8.169
7.322
6.424
5.485
4.511
3.511
2.493
1.464
0.43
-0.6
-1.622
-2.631
-3.621
-4.588
-5.529
-6.441
-7.321
-8.167
-8.979
-9.753
-10.491
-11.192
-11.857
-12.486
-13.08
-13.643
-14.174
-14.677
-15.155
-15.608
-16.041
-16.456
-16.855
-17.241
-17.617
-17.986
-18.349
-18.71
-19.07
-19.431
-19.794
-20.16
-20.53
-20.904
-21.28
-21.657
-22.035
-22.409
-22.779
-23.139
-23.488
-23.821
-24.136
-24.428
-24.692
-24.926
-25.123
-25.279
-25.391
-25.453
-25.461
-25.41
-25.297
-25.117
-24.869
-24.549
-24.155
-23.684
-23.136
-22.51
-21.806
-21.025
-20.167
-19.236
-18.235
-17.168
-16.043
-14.866
-13.645
-12.392
-11.118
-9.835
-8.557
-7.299
-6.074
-4.898
-3.785
-2.75
-1.805
-0.964
-0.24
0.353
0.801
1.09
1.207
1.138
0.874
0.402
-0.283
-1.183
-2.299
-3.632
-5.184
-6.965
-8.981
-11.235
-13.726
-16.454
-19.411
-22.581
-25.935
-29.429
-33.016
-36.65
-40.292
-43.908
-47.466
-50.925
-54.24
-57.356
-60.227
-62.813
-65.074
-66.969
-68.478
-69.621
-70.457
-71.094
-71.633
-72.145
-72.702
-73.391
-74.297
-75.517
-77.136
-79.182
-81.728
-84.938
-88.895
-93.604
-98.917
-104.409
-109.589
-114.032
-117.142
-118.204
-116.779
-112.705
-106.244
-98.302
-90.045
-82.607
-77.429
-76.307
-79.096
-83.599
-87.647
-87.68
-83.894
-81.482
-80.624
-79.102
-68.304
-29.805
45.682
160.36
308.998
470.021
626.048
762.324
862.201
922.189
937.629
903.251
823.78
699.911
537.429
353.639
166.013
-0.849
-123.817
-196.247
-221.893
-216.45
-199.968
-181.773
-164.398
-144.943
-118.54
-87.412
-56.718
-31.348
-16.331
-12.838
-19.259
-33.652
-52.762
-72.895
-91.35
-106.208
-116.168
-120.893
-120.649
-116.01
-108.173
-98.863
-89.686
-81.725
-75.658
-71.729
-69.888
-70.022
-71.842
-74.824
-78.379
-82.095
-85.693
-89.014
-91.992
-94.539
-96.591
-98.149
-99.253
-99.929
-100.193
-100.052
-99.506
-98.583
-97.328
-95.784
-94.005
-92.047
-89.968
-87.833
-85.708
-83.642
-81.668
-79.812
-78.086
-76.49
-75.022
-73.666
-72.399
-71.197
-70.039
-68.903
-67.766
-66.604
-65.392
-64.107
-62.728
-61.232
-59.603
-57.822
-55.875
-53.75
-51.437
-48.926
-46.213
-43.292
-40.156
-36.8
-33.22
-29.414
-25.38
-21.118
-16.629
-11.917
-6.988
-1.851
3.484
9.003
14.692
20.533
26.508
32.597
38.776
45.022
51.309
57.612
63.904
70.158
76.346
82.439
88.411
94.234
99.88
105.325
110.54
115.5
120.178
124.55
128.593
132.292
135.624
138.566
141.114
143.259
144.992
146.318
147.224
147.674
147.67
147.221
146.279
144.828
142.87
140.363
137.33
133.879
130.019
125.729
121.215
116.65
111.888
106.994
102.082
96.637
91.563
88.011
84.536
80.688
74.183
60.821
43.202
25.13
10.587
7.033
13.294
22.336
29.408
27.019
13.47
-4.107
-21.532
-34.57
-40.3
-42.896
-44.957
-47.283
-51.522
-56.376
-60.712
-64.917
-68.773
-72.355
-75.943
-79.361
-82.461
-85.287
-87.824
-90.032
-91.932
-93.552
-94.9
-96.011
-96.923
-97.63
-98.134
-98.453
-98.596
-98.573
-98.398
-98.078
-97.621
-97.042
-96.355
-95.57
-94.699
-93.755
-92.746
-91.683
-90.577
-89.436
-88.27
-87.086
-85.893
-84.698
-83.507
-82.326
-81.162
-80.019
-78.902
-77.814
-76.76
-75.742
-74.764
-73.827
-72.933
-72.084
-71.281
-70.524
-69.814
-69.152
-68.536
-67.965
-67.44
-66.958
-66.517
-66.117
-65.753
-65.425
-65.129
-64.863
-64.624
-64.409
-64.215
-64.039
-63.877
-63.727
-63.584
-63.447
-63.312
-63.175
-63.034
-62.887
-62.73
-62.561
-62.378
-62.177
-61.958
-61.717
-61.455
-61.169
-60.857
-60.521
-60.159
-59.771
-59.357
-58.918
-58.455
-57.969
-57.46
-56.931
-56.384
-55.82
-55.243
-54.654
-54.058
-53.458
-52.856
-52.257
-51.662
-51.077
-50.502
-49.942
-49.399
-48.875
-48.373
-47.895
-47.442
-47.017
-46.619
-46.249
-45.907
-45.593
-45.305
-45.042
-44.8
-44.577
-44.369
-44.173
-43.986
-43.803
-43.619
-43.43
-43.23
-43.014
-42.775
-42.506
-42.202
-41.855
-41.458
-41.006
-40.491
-39.909
-39.255
-38.523
-37.709
-36.81
-35.824
-34.747
-33.579
-32.319
-30.969
-29.53
-28.007
-26.404
-24.728
-22.987
-21.192
-19.353
-17.483
-15.595
-13.702
-11.82
-9.965
-8.152
-6.395
-4.711
-3.115
-1.622
-0.25
0.985
2.066
2.977
3.703
4.228
4.54
4.628
4.486
4.111
3.5
2.645
1.538
0.169
-1.466
-3.367
-5.535
-7.964
-10.638
-13.534
-16.611
-19.825
-23.135
-26.503
-29.898
-33.289
-36.642
-39.913
-43.044
-45.983
-48.687
-51.113
-53.223
-54.992
-56.419
-57.557
-58.518
-59.405
-60.304
-61.283
-62.375
-63.641
-65.175
-67.021
-69.143
-71.569
-74.394
-77.694
-81.585
-86.017
-90.579
-94.94
-99.002
-102.242
-103.83
-103.355
-100.196
-95.019
-90.701
-88
-86.245
-84.027
-76.537
-63.352
-49.136
-38.152
-38.758
-54.494
-79.399
-106.404
-120.215
-105.505
-57.13
29.165
147.799
287.766
444.741
608.392
765.426
901.351
992.409
1019.487
977.329
869.679
711.599
525.9
331.428
146.423
-9.178
-122.594
-188.18
-206.677
-189.593
-153.082
-108.318
-66.783
-38.511
-24.655
-26.07
-38.179
-48.725
-52.84
-49.521
-41.062
-36.062
-37.751
-44.38
-53.845
-62.266
-67.889
-71.585
-73.611
-73.738
-72.14
-69.088
-65.153
-61.436
-58.501
-56.33
-55.088
-55.007
-56.129
-58.43
-61.634
-65.145
-68.587
-71.793
-74.585
-76.898
-78.674
-79.822
-80.356
-80.366
-79.911
-79.042
-77.799
-76.178
-74.206
-71.931
-69.405
-66.699
-63.885
-61.026
-58.186
-55.411
-52.73
-50.166
-47.724
-45.402
-43.192
-41.077
-39.037
-37.062
-35.14
-33.259
-31.41
-29.572
-27.722
-25.841
-23.905
-21.896
-19.796
-17.585
-15.243
-12.759
-10.117
-7.312
-4.339
-1.191
2.144
5.68
9.434
13.417
17.631
22.076
26.751
31.643
36.733
41.987
47.353
52.792
58.28
63.798
69.345
74.916
80.502
86.098
91.701
97.307
102.92
108.536
114.136
119.726
125.326
130.979
136.764
142.723
148.858
155.158
161.578
168.064
174.556
180.966
187.18
193.101
198.638
203.723
208.314
212.341
215.716
218.327
220.03
220.722
220.356
218.897
216.348
212.739
208.12
202.59
196.301
189.372
181.907
173.988
165.664
157.011
148.128
139.123
130.125
121.24
112.538
104.089
95.949
88.143
80.676
73.515
66.581
59.825
53.22
46.754
40.44
34.277
28.254
22.363
16.596
10.945
5.411
-0.01
-5.325
-10.526
-15.592
-20.487
-25.158
-29.565
-33.685
-37.503
-41.014
-44.216
-47.107
-49.692
-51.987
-54.003
-55.752
-57.243
-58.481
-59.48
-60.255
-60.828
-61.222
-61.459
-61.558
-61.537
-61.412
-61.2
-60.914
-60.563
-60.155
-59.697
-59.199
-58.67
-58.119
-57.557
-56.99
-56.427
-55.876
-55.345
-54.838
-54.362
-53.918
-53.511
-53.141
-52.812
-52.523
-52.273
-52.062
-51.887
-51.747
-51.638
-51.556
-51.496
-51.455
-51.426
-51.407
-51.391
-51.374
-51.352
-51.322
-51.28
-51.225
-51.153
-51.064
-50.956
-50.829
-50.682
-50.514
-50.326
-50.117
-49.887
-49.638
-49.369
-49.082
-48.778
-48.458
-48.125
-47.78
-47.427
-47.067
-46.705
-46.342
-45.983
-45.632
-45.292
-44.967
-44.662
-44.38
-44.125
-43.901
-43.71
-43.556
-43.441
-43.366
-43.333
-43.343
-43.396
-43.492
-43.63
-43.81
-44.03
-44.29
-44.587
-44.921
-45.289
-45.69
-46.122
-46.582
-47.069
-47.581
-48.114
-48.666
-49.236
-49.818
-50.411
-51.011
-51.615
-52.219
-52.82
-53.413
-53.994
-54.561
-55.109
-55.635
-56.134
-56.604
-57.04
-57.439
-57.799
-58.115
-58.385
-58.605
-58.773
-58.886
-58.94
-58.934
-58.864
-58.727
-58.52
-58.24
-57.886
-57.453
-56.939
-56.341
-55.658
-54.887
-54.028
-53.077
-52.036
-50.902
-49.677
-48.36
-46.953
-45.458
-43.876
-42.212
-40.469
-38.653
-36.768
-34.822
-32.823
-30.781
-28.707
-26.613
-24.511
-22.415
-20.339
-18.299
-16.307
-14.377
-12.522
-10.754
-9.088
-7.538
-6.119
-4.847
-3.735
-2.801
-2.055
-1.513
-1.183
-1.07
-1.176
-1.506
-2.064
-2.867
-3.925
-5.246
-6.835
-8.693
-10.814
-13.182
-15.77
-18.531
-21.419
-24.387
-27.394
-30.413
-33.415
-36.367
-39.227
-41.937
-44.447
-46.713
-48.698
-50.363
-51.695
-52.719
-53.496
-54.14
-54.759
-55.43
-56.224
-57.223
-58.501
-60.127
-62.184
-64.73
-67.86
-71.771
-76.552
-82.121
-88.274
-94.563
-100.401
-105.269
-108.542
-109.367
-107.283
-102.433
-95.273
-86.883
-78.838
-72.477
-68.98
-69.947
-75.141
-81.75
-88.383
-93.481
-95.784
-97.192
-93.51
-74.668
-33.114
37.317
134.377
245.77
362.549
481.3
600.825
719.506
827.537
905.448
933.813
904.098
819.156
691.627
540.377
380.483
225.526
91.576
-9.732
-72.44
-98.206
-100.456
-94.82
-90.179
-89.479
-89.218
-84.412
-75.351
-64.904
-56.071
-51.293
-50.555
-52.826
-57.054
-61.637
-65.347
-67.442
-67.869
-67.623
-67.35
-66.969
-66.611
-66.513
-66.897
-68.143
-70.13
-72.08
-73.734
-75.42
-77.291
-79.502
-82.08
-84.757
-87.5
-90.535
-93.784
-96.912
-99.667
-101.802
-103.213
-103.999
-104.184
-103.729
-102.675
-101.105
-99.109
-96.797
-94.233
-91.431
-88.43
-85.285
-82.062
-78.843
-75.686
-72.622
-69.675
-66.857
-64.173
-61.62
-59.188
-56.858
-54.613
-52.435
-50.31
-48.229
-46.179
-44.151
-42.126
-40.069
-37.965
-35.817
-33.626
-31.395
-29.115
-26.74
-24.254
-21.683
-18.998
-16.114
-12.965
-9.477
-5.631
-1.516
2.838
7.534
12.481
17.31
21.919
26.418
30.753
35.283
39.359
40.667
39.518
38.076
39.646
50.718
71.335
94.825
114.701
121.735
114.688
102.366
91.617
89.638
98.167
110.614
122.758
131.902
136.992
140.664
144.222
147.528
150.674
153.252
155.116
156.615
157.862
158.783
159.379
159.663
159.619
159.229
158.464
157.264
155.614
153.547
151.085
148.233
145.005
141.414
137.476
133.217
128.659
123.819
118.716
113.373
107.812
102.06
96.141
90.081
83.906
77.64
71.31
64.94
58.556
52.182
45.841
39.556
33.348
27.237
21.244
15.386
9.68
4.141
-1.215
-6.376
-11.332
-16.071
-20.586
-24.869
-28.917
-32.723
-36.287
-39.607
-42.684
-45.518
-48.113
-50.474
-52.605
-54.513
-56.206
-57.693
-58.982
-60.085
-61.01
-61.769
-62.372
-62.831
-63.157
-63.361
-63.453
-63.445
-63.345
-63.166
-62.915
-62.603
-62.238
-61.828
-61.382
-60.905
-60.406
-59.889
-59.36
-58.824
-58.286
-57.749
-57.216
-56.69
-56.174
-55.668
-55.174
-54.691
-54.221
-53.762
-53.313
-52.873
-52.441
-52.016
-51.594
-51.176
-50.76
-50.343
-49.924
-49.502
-49.076
-48.644
-48.206
-47.76
-47.307
-46.845
-46.375
-45.896
-45.409
-44.914
-44.412
-43.903
-43.389
-42.868
-42.343
-41.814
-41.282
-40.748
-40.212
-39.677
-39.144
-38.613
-38.086
-37.564
-37.049
-36.542
-36.043
-35.555
-35.077
-34.611
-34.157
-33.717
-33.292
-32.882
-32.487
-32.11
-31.749
-31.406
-31.082
-30.775
-30.486
-30.215
-29.962
-29.727
-29.51
-29.312
-29.131
-28.97
-28.827
-28.703
-28.599
-28.514
-28.448
-28.403
-28.378
-28.373
-28.389
-28.426
-28.485
-28.565
-28.667
-28.79
-28.934
-29.098
-29.279
-29.477
-29.69
-29.914
-30.148
-30.389
-30.633
-30.878
-31.122
-31.36
-31.59
-31.807
-32.009
-32.19
-32.348
-32.476
-32.572
-32.629
-32.643
-32.61
-32.525
-32.383
-32.179
-31.908
-31.566
-31.147
-30.647
-30.061
-29.386
-28.617
-27.753
-26.791
-25.732
-24.574
-23.32
-21.97
-20.528
-18.998
-17.384
-15.691
-13.923
-12.088
-10.193
-8.245
-6.254
-4.227
-2.177
-0.117
1.938
3.974
5.977
7.929
9.816
11.62
13.328
14.927
16.403
17.746
18.941
19.972
20.825
21.488
21.95
22.203
22.238
22.047
21.629
20.991
20.135
19.065
17.777
16.256
14.492
12.482
10.228
7.734
5.015
2.081
-1.038
-4.294
-7.64
-11.026
-14.41
-17.765
-21.053
-24.225
-27.221
-29.961
-32.378
-34.426
-36.06
-37.257
-38.015
-38.348
-38.307
-37.973
-37.435
-36.799
-36.179
-35.686
-35.441
-35.531
-36.075
-37.29
-39.3
-42.11
-45.581
-49.287
-52.785
-55.805
-57.96
-58.679
-57.646
-54.773
-50.466
-46.019
-42.647
-41.016
-41.938
-46.298
-54.448
-66.215
-79.208
-88.534
-89.895
-80.639
-61.89
-36.619
-5.603
32.698
85.97
162.374
265.215
395.052
541.587
686.883
812.934
898.455
928.256
900.18
817.734
693.112
546.895
394.904
253.493
139.192
55.549
2.495
-25.854
-44.456
-59.71
-72.754
-82.249
-81.339
-69.125
-50.144
-29.062
-11.438
-0.311
4.113
1.652
-7.514
-22.433
-41.554
-62.805
-83.989
-103.182
-119.112
-130.78
-137.486
-139.175
-136.353
-129.94
-121.164
-111.355
-101.428
-92.039
-83.651
-76.411
-70.361
-65.435
-61.391
-57.893
-54.76
-51.943
-49.496
-47.575
-46.262
-45.579
-45.542
-46.134
-47.323
-49.059
-51.265
-53.825
-56.623
-59.541
-62.465
-65.317
-68.021
-70.484
-72.598
-74.262
-75.405
-75.992
-76.021
-75.508
-74.469
-72.924
-70.906
-68.47
-65.681
-62.618
-59.363
-55.969
-52.483
-48.951
-45.423
-41.942
-38.534
-35.207
-31.95
-28.753
-25.605
-22.493
-19.402
-16.304
-13.164
-9.943
-6.595
-3.084
0.616
4.525
8.649
12.99
17.535
22.256
27.115
32.075
37.109
42.195
47.325
52.499
57.715
62.974
68.265
73.564
78.85
84.106
89.324
94.502
99.652
104.802
109.99
115.262
120.643
126.133
131.702
137.29
142.819
148.195
153.341
158.203
162.73
166.879
170.607
173.867
176.601
178.737
180.191
180.862
180.673
179.581
177.584
174.725
171.076
166.742
161.815
156.37
150.475
144.184
137.548
130.618
123.45
116.109
108.677
101.259
93.945
86.809
79.891
73.201
66.722
60.412
54.239
48.175
42.207
36.335
30.564
24.906
19.377
13.991
8.751
3.642
-1.346
-6.225
-10.992
-15.63
-20.115
-24.41
-28.484
-32.308
-35.86
-39.129
-42.112
-44.809
-47.231
-49.39
-51.299
-52.964
-54.39
-55.583
-56.551
-57.306
-57.861
-58.233
-58.441
-58.503
-58.438
-58.261
-57.989
-57.634
-57.208
-56.719
-56.177
-55.591
-54.97
-54.325
-53.665
-53
-52.338
-51.69
-51.061
-50.458
-49.888
-49.352
-48.855
-48.398
-47.983
-47.61
-47.281
-46.995
-46.753
-46.553
-46.395
-46.277
-46.199
-46.157
-46.15
-46.175
-46.228
-46.307
-46.409
-46.53
-46.668
-46.82
-46.983
-47.156
-47.336
-47.52
-47.708
-47.896
-48.083
-48.268
-48.448
-48.622
-48.791
-48.954
-49.111
-49.263
-49.411
-49.555
-49.696
-49.835
-49.973
-50.109
-50.244
-50.379
-50.513
-50.649
-50.785
-50.923
-51.065
-51.209
-51.358
-51.511
-51.669
-51.833
-52.002
-52.177
-52.358
-52.546
-52.74
-52.941
-53.149
-53.365
-53.587
-53.817
-54.052
-54.293
-54.538
-54.787
-55.039
-55.293
-55.549
-55.806
-56.066
-56.327
-56.591
-56.857
-57.127
-57.401
-57.68
-57.963
-58.253
-58.55
-58.854
-59.166
-59.486
-59.817
-60.158
-60.509
-60.871
-61.243
-61.626
-62.018
-62.418
-62.827
-63.241
-63.662
-64.086
-64.513
-64.942
-65.371
-65.798
-66.22
-66.635
-67.039
-67.429
-67.8
-68.147
-68.466
-68.751
-68.996
-69.197
-69.346
-69.439
-69.469
-69.43
-69.314
-69.117
-68.831
-68.452
-67.972
-67.387
-66.693
-65.887
-64.963
-63.921
-62.757
-61.471
-60.061
-58.528
-56.871
-55.091
-53.191
-51.174
-49.043
-46.803
-44.46
-42.023
-39.501
-36.907
-34.252
-31.551
-28.818
-26.07
-23.323
-20.593
-17.896
-15.247
-12.661
-10.156
-7.747
-5.454
-3.294
-1.283
0.564
2.234
3.712
4.987
6.053
6.907
7.542
7.952
8.118
8.023
7.656
7.009
6.08
4.871
3.389
1.649
-0.314
-2.462
-4.755
-7.153
-9.628
-12.15
-14.683
-17.173
-19.548
-21.744
-23.705
-25.391
-26.774
-27.835
-28.574
-29.034
-29.302
-29.459
-29.603
-29.823
-30.206
-30.879
-31.964
-33.552
-35.782
-38.822
-42.783
-47.696
-53.403
-59.501
-65.592
-71.341
-76.336
-80.066
-82.046
-82.009
-80.314
-77.974
-76.013
-75.052
-75.602
-78.392
-84.203
-93.429
-103.867
-110.857
-110.412
-100.218
-82.542
-62.074
-38.391
-6.585
42.255
118.221
222.854
350.177
491.246
633.539
764.216
871.492
941.021
959.701
923.878
837.056
709.258
557.137
394.914
236.753
100.331
-1.159
-60.951
-81.229
-76.81
-64.644
-54.67
-50.531
-48.467
-43.164
-35.109
-26.871
-21.402
-21.634
-27.139
-35.826
-46.064
-55.652
-62.705
-66.626
-67.246
-64.868
-60.379
-54.617
-48.289
-42.233
-37.225
-33.647
-31.648
-31.176
-31.982
-33.866
-36.66
-40.147
-44.106
-48.355
-52.75
-57.158
-61.469
-65.543
-69.219
-72.391
-74.994
-76.997
-78.399
-79.214
-79.463
-79.191
-78.46
-77.33
-75.857
-74.099
-72.11
-69.953
-67.7
-65.42
-63.178
-61.023
-58.985
-57.079
-55.312
-53.68
-52.172
-50.772
-49.455
-48.203
-46.999
-45.828
-44.676
-43.526
-42.358
-41.151
-39.886
-38.546
-37.113
-35.574
-33.915
-32.125
-30.193
-28.112
-25.874
-23.471
-20.894
-18.137
-15.191
-12.05
-8.709
-5.167
-1.421
2.527
6.675
11.017
15.545
20.249
25.119
30.142
35.303
40.585
45.971
51.442
56.978
62.557
68.155
73.751
79.319
84.835
90.273
95.608
100.814
105.865
110.736
115.401
119.837
124.018
127.924
131.532
134.821
137.773
140.372
142.601
144.447
145.898
146.946
147.583
147.805
147.609
146.996
145.967
144.527
142.682
140.441
137.815
134.816
131.457
127.756
123.729
119.395
114.776
109.893
104.77
99.43
93.899
88.203
82.368
76.422
70.39
64.301
58.181
52.057
45.955
39.899
33.915
28.027
22.256
16.624
11.15
5.854
0.751
-4.144
-8.816
-13.256
-17.452
-21.396
-25.082
-28.505
-31.661
-34.549
-37.168
-39.521
-41.61
-43.44
-45.018
-46.35
-47.447
-48.318
-48.974
-49.427
-49.691
-49.778
-49.703
-49.48
-49.123
-48.647
-48.068
-47.399
-46.656
-45.851
-44.999
-44.112
-43.202
-42.281
-41.36
-40.447
-39.553
-38.687
-37.855
-37.065
-36.323
-35.635
-35.004
-34.435
-33.93
-33.491
-33.117
-32.811
-32.57
-32.393
-32.278
-32.224
-32.226
-32.281
-32.386
-32.536
-32.727
-32.955
-33.215
-33.502
-33.813
-34.144
-34.491
-34.85
-35.22
-35.597
-35.979
-36.363
-36.749
-37.134
-37.516
-37.896
-38.271
-38.642
-39.008
-39.369
-39.727
-40.082
-40.436
-40.789
-41.143
-41.501
-41.864
-42.235
-42.615
-43.008
-43.415
-43.839
-44.283
-44.747
-45.235
-45.747
-46.286
-46.85
-47.442
-48.06
-48.704
-49.374
-50.07
-50.789
-51.53
-52.294
-53.077
-53.878
-54.696
-55.529
-56.373
-57.228
-58.09
-58.957
-59.827
-60.697
-61.564
-62.426
-63.28
-64.124
-64.954
-65.769
-66.566
-67.342
-68.096
-68.826
-69.531
-70.21
-70.863
-71.49
-72.091
-72.668
-73.222
-73.754
-74.266
-74.761
-75.24
-75.706
-76.161
-76.607
-77.048
-77.484
-77.919
-78.355
-78.794
-79.237
-79.686
-80.143
-80.609
-81.085
-81.571
-82.068
-82.576
-83.095
-83.624
-84.163
-84.709
-85.261
-85.815
-86.369
-86.918
-87.457
-87.981
-88.485
-88.962
-89.405
-89.807
-90.161
-90.459
-90.694
-90.857
-90.941
-90.938
-90.842
-90.645
-90.342
-89.925
-89.391
-88.734
-87.952
-87.042
-86.002
-84.83
-83.528
-82.097
-80.538
-78.855
-77.054
-75.141
-73.125
-71.015
-68.822
-66.56
-64.242
-61.883
-59.498
-57.102
-54.71
-52.34
-50.006
-47.728
-45.521
-43.407
-41.402
-39.524
-37.789
-36.213
-34.808
-33.584
-32.548
-31.705
-31.063
-30.637
-30.436
-30.471
-30.745
-31.262
-32.019
-33.008
-34.211
-35.598
-37.135
-38.789
-40.53
-42.335
-44.174
-46.018
-47.823
-49.532
-51.094
-52.462
-53.595
-54.457
-55.014
-55.267
-55.251
-55.041
-54.712
-54.317
-53.891
-53.487
-53.19
-53.091
-53.294
-53.859
-54.85
-56.43
-58.711
-61.687
-65.198
-68.837
-72.111
-74.642
-76.011
-75.629
-73.105
-68.351
-61.795
-54.52
-47.595
-41.996
-38.737
-38.895
-43.521
-51.556
-59.491
-63.926
-61.15
-51.436
-39.736
-25.457
-5.704
26.343
84.991
174.961
294.633
439.886
594.545
742.414
868.206
951.778
980.416
951.257
867.617
742.071
591.392
428.665
267.483
124.02
11.154
-62.696
-97.083
-104.257
-99.873
-93.536
-88.626
-81.258
-65.849
-43.053
-17.099
6.822
23.97
33.009
34.18
28.043
16.379
1.304
-14.834
-29.642
-41.943
-51.223
-56.868
-58.75
-57.244
-53.072
-47.612
-42.325
-37.924
-34.794
-33.281
-33.415
-35.135
-38.282
-42.317
-46.629
-50.861
-54.763
-58.155
-61.001
-63.238
-64.804
-65.748
-66.135
-66
-65.382
-64.298
-62.749
-60.766
-58.395
-55.689
-52.718
-49.552
-46.261
-42.913
-39.561
-36.242
-32.985
-29.81
-26.728
-23.742
-20.847
-18.033
-15.292
-12.617
-9.999
-7.427
-4.882
-2.348
0.193
2.757
5.357
8.005
10.714
13.495
16.356
19.303
22.344
25.481
28.721
32.072
35.538
39.125
42.837
46.678
50.65
54.757
58.996
63.367
67.866
72.485
77.219
82.059
86.993
92.01
97.094
102.231
107.404
112.595
117.785
122.953
128.078
133.139
138.114
142.981
147.716
152.298
156.705
160.913
164.904
168.655
172.147
175.361
178.279
180.884
183.16
185.091
186.666
187.87
188.694
189.129
189.168
188.807
188.042
186.873
185.301
183.331
180.966
178.216
175.09
171.598
167.756
163.576
159.076
154.274
149.189
143.841
138.252
132.444
126.439
120.261
113.934
107.482
100.928
94.297
87.613
80.901
74.184
67.486
60.831
54.242
47.743
41.354
35.097
28.993
23.059
17.313
11.772
6.449
1.358
-3.49
-8.086
-12.42
-16.488
-20.285
-23.806
-27.052
-30.021
-32.716
-35.14
-37.296
-39.191
-40.83
-42.22
-43.371
-44.29
-44.988
-45.475
-45.762
-45.861
-45.786
-45.549
-45.165
-44.648
-44.013
-43.273
-42.445
-41.542
-40.579
-39.569
-38.526
-37.462
-36.39
-35.32
-34.263
-33.229
-32.227
-31.264
-30.347
-29.482
-28.674
-27.926
-27.242
-26.625
-26.077
-25.598
-25.191
-24.854
-24.589
-24.393
-24.266
-24.206
-24.208
-24.271
-24.39
-24.562
-24.78
-25.041
-25.34
-25.671
-26.03
-26.412
-26.812
-27.226
-27.649
-28.076
-28.506
-28.934
-29.357
-29.774
-30.184
-30.584
-30.975
-31.357
-31.728
-32.091
-32.444
-32.789
-33.126
-33.457
-33.781
-34.102
-34.42
-34.737
-35.055
-35.376
-35.702
-36.037
-36.381
-36.738
-37.109
-37.496
-37.9
-38.325
-38.77
-39.237
-39.726
-40.239
-40.776
-41.335
-41.917
-42.52
-43.143
-43.783
-44.438
-45.107
-45.786
-46.474
-47.168
-47.866
-48.566
-49.266
-49.963
-50.656
-51.343
-52.022
-52.69
-53.347
-53.99
-54.619
-55.233
-55.83
-56.41
-56.974
-57.521
-58.052
-58.568
-59.069
-59.558
-60.035
-60.503
-60.965
-61.423
-61.88
-62.34
-62.806
-63.282
-63.771
-64.278
-64.803
-65.35
-65.921
-66.517
-67.14
-67.79
-68.468
-69.173
-69.906
-70.666
-71.451
-72.259
-73.088
-73.933
-74.792
-75.659
-76.53
-77.398
-78.257
-79.101
-79.922
-80.714
-81.469
-82.177
-82.831
-83.42
-83.936
-84.369
-84.709
-84.946
-85.072
-85.079
-84.958
-84.703
-84.309
-83.768
-83.079
-82.238
-81.242
-80.091
-78.785
-77.326
-75.716
-73.96
-72.063
-70.032
-67.877
-65.608
-63.237
-60.779
-58.25
-55.666
-53.045
-50.405
-47.766
-45.148
-42.569
-40.049
-37.607
-35.262
-33.037
-30.954
-29.031
-27.289
-25.746
-24.416
-23.315
-22.455
-21.839
-21.472
-21.357
-21.502
-21.92
-22.625
-23.621
-24.911
-26.495
-28.363
-30.503
-32.892
-35.49
-38.261
-41.164
-44.164
-47.238
-50.354
-53.473
-56.545
-59.502
-62.283
-64.836
-67.108
-69.054
-70.652
-71.898
-72.823
-73.493
-73.951
-74.249
-74.446
-74.602
-74.808
-75.163
-75.748
-76.689
-78.163
-80.272
-83.024
-86.265
-89.595
-92.576
-94.797
-95.753
-94.895
-91.858
-86.62
-79.748
-72.386
-65.812
-61.139
-59.324
-61.275
-67.511
-77.648
-89.977
-101.653
-109.308
-109.481
-98.916
-74.327
-32.545
27.218
102.222
188.512
281.223
377.857
480.475
587.864
693.393
784.265
841.371
851.117
810.498
726.431
612.898
481.273
340.321
198.241
65.367
-41.396
-108.907
-134.176
-123.635
-94.708
-64.944
-42.676
-31.001
-27.486
-25.899
-24.763
-23.73
-22.037
-22.775
-26.603
-32.352
-39.806
-46.325
-50.14
-51.513
-50.585
-48.164
-45.242
-42.215
-39.544
-37.863
-37.462
-38.367
-40.476
-43.52
-47.242
-51.482
-56.064
-60.747
-65.342
-69.69
-73.628
-77.075
-79.975
-82.268
-83.932
-84.96
-85.349
-85.131
-84.366
-83.106
-81.411
-79.336
-76.927
-74.243
-71.357
-68.342
-65.278
-62.223
-59.216
-56.285
-53.453
-50.731
-48.128
-45.637
-43.237
-40.914
-38.658
-36.46
-34.315
-32.212
-30.135
-28.067
-25.992
-23.896
-21.766
-19.591
-17.358
-15.057
-12.679
-10.219
-7.672
-5.033
-2.294
0.553
3.516
6.602
9.815
13.16
16.643
20.266
24.028
27.928
31.962
36.126
40.414
44.818
49.331
53.94
58.636
63.406
68.236
73.111
78.015
82.93
87.839
92.722
97.561
102.334
107.023
111.606
116.064
120.376
124.523
128.485
132.243
135.778
139.071
142.105
144.863
147.331
149.494
151.338
152.854
154.031
154.862
155.341
155.464
155.227
154.631
153.676
152.364
150.7
148.69
146.341
143.663
140.668
137.368
133.776
129.908
125.781
121.411
116.817
112.018
107.033
101.883
96.589
91.173
85.656
80.06
74.408
68.723
63.025
57.336
51.679
46.072
40.536
35.09
29.751
24.537
19.462
14.541
9.787
5.213
0.828
-3.36
-7.341
-11.111
-14.666
-18.002
-21.117
-24.012
-26.687
-29.143
-31.384
-33.413
-35.236
-36.858
-38.286
-39.527
-40.588
-41.48
-42.21
-42.789
-43.226
-43.532
-43.717
-43.791
-43.763
-43.644
-43.444
-43.172
-42.836
-42.445
-42.007
-41.528
-41.016
-40.476
-39.913
-39.331
-38.735
-38.126
-37.509
-36.884
-36.252
-35.616
-34.976
-34.331
-33.683
-33.03
-32.373
-31.712
-31.045
-30.372
-29.693
-29.007
-28.312
-27.609
-26.897
-26.175
-25.445
-24.705
-23.958
-23.203
-22.442
-21.676
-20.908
-20.139
-19.374
-18.614
-17.862
-17.124
-16.402
-15.701
-15.026
-14.38
-13.769
-13.197
-12.669
-12.187
-11.758
-11.383
-11.067
-10.812
-10.62
-10.493
-10.434
-10.443
-10.52
-10.667
-10.883
-11.167
-11.518
-11.934
-12.411
-12.949
-13.542
-14.186
-14.878
-15.613
-16.385
-17.19
-18.02
-18.871
-19.735
-20.606
-21.477
-22.342
-23.193
-24.024
-24.828
-25.599
-26.33
-27.018
-27.656
-28.241
-28.768
-29.234
-29.637
-29.973
-30.241
-30.44
-30.569
-30.628
-30.618
-30.54
-30.397
-30.191
-29.926
-29.606
-29.234
-28.815
-28.355
-27.858
-27.33
-26.777
-26.206
-25.624
-25.037
-24.453
-23.88
-23.323
-22.79
-22.288
-21.822
-21.398
-21.021
-20.697
-20.429
-20.221
-20.078
-20.001
-19.993
-20.056
-20.191
-20.398
-20.676
-21.023
-21.436
-21.914
-22.45
-23.042
-23.683
-24.368
-25.091
-25.847
-26.627
-27.423
-28.228
-29.033
-29.829
-30.606
-31.354
-32.065
-32.729
-33.337
-33.881
-34.353
-34.746
-35.051
-35.263
-35.374
-35.38
-35.274
-35.053
-34.714
-34.253
-33.672
-32.97
-32.149
-31.214
-30.171
-29.028
-27.792
-26.475
-25.087
-23.639
-22.146
-20.62
-19.073
-17.518
-15.968
-14.438
-12.943
-11.501
-10.129
-8.843
-7.659
-6.595
-5.665
-4.883
-4.255
-3.79
-3.496
-3.383
-3.474
-3.786
-4.332
-5.121
-6.16
-7.447
-8.972
-10.711
-12.621
-14.659
-16.782
-18.952
-21.146
-23.337
-25.494
-27.576
-29.529
-31.304
-32.862
-34.173
-35.205
-35.954
-36.448
-36.757
-37.011
-37.337
-37.831
-38.582
-39.665
-41.169
-43.2
-45.858
-49.207
-53.309
-58.287
-64.205
-71.023
-78.534
-86.238
-93.525
-99.871
-104.748
-107.497
-107.681
-105.232
-100.508
-94.706
-89.178
-84.703
-82.11
-82.48
-86.351
-93.441
-101.607
-106.21
-102.769
-88.862
-65.427
-34.797
2.247
47.066
106.401
186.576
289.752
415.457
554.186
691.491
811.344
895.872
931.118
908.759
828.614
696.853
527.274
341.354
159.96
6.038
-102.178
-160.563
-171.187
-146.37
-105.858
-63.526
-32.622
-20.666
-24.528
-39.456
-56.455
-67.068
-70.336
-68.459
-66.295
-67.763
-72.438
-77.841
-81.146
-81.111
-78.234
-73.582
-68.265
-62.888
-57.877
-53.811
-51.007
-49.533
-49.322
-50.142
-51.82
-54.254
-57.277
-60.688
-64.314
-67.996
-71.606
-75.029
-78.121
-80.764
-82.882
-84.431
-85.407
-85.82
-85.689
-85.055
-83.974
-82.501
-80.693
-78.603
-76.281
-73.791
-71.202
-68.584
-66.009
-63.529
-61.176
-58.974
-56.933
-55.052
-53.327
-51.737
-50.261
-48.878
-47.572
-46.327
-45.131
-43.965
-42.808
-41.639
-40.437
-39.182
-37.858
-36.447
-34.934
-33.306
-31.553
-29.664
-27.634
-25.454
-23.114
-20.607
-17.924
-15.058
-12.006
-8.763
-5.326
-1.697
2.122
6.127
10.31
14.663
19.175
23.834
28.626
33.534
38.542
43.629
48.776
53.961
59.16
64.35
69.506
74.602
79.613
84.512
89.273
93.871
98.28
102.474
106.431
110.125
113.536
116.641
119.421
121.858
123.936
125.64
126.956
127.875
128.387
128.487
128.17
127.435
126.282
124.713
122.735
120.353
117.578
114.422
110.897
107.019
102.806
98.278
93.454
88.358
83.013
77.444
71.677
65.738
59.655
53.455
47.167
40.819
34.438
28.054
21.693
15.382
9.148
3.015
-2.993
-8.852
-14.541
-20.039
-25.328
-30.39
-35.21
-39.773
-44.067
-48.083
-51.81
-55.244
-58.378
-61.211
-63.741
-65.969
-67.897
-69.531
-70.877
-71.941
-72.733
-73.263
-73.544
-73.587
-73.408
-73.02
-72.439
-71.682
-70.765
-69.704
-68.516
-67.219
-65.828
-64.361
-62.833
-61.259
-59.656
-58.038
-56.419
-54.812
-53.23
-51.683
-50.184
-48.742
-47.364
-46.06
-44.834
-43.692
-42.639
-41.676
-40.808
-40.033
-39.353
-38.767
-38.272
-37.867
-37.548
-37.31
-37.15
-37.062
-37.041
-37.08
-37.175
-37.319
-37.507
-37.732
-37.989
-38.272
-38.575
-38.894
-39.223
-39.558
-39.892
-40.223
-40.545
-40.857
-41.154
-41.434
-41.696
-41.938
-42.158
-42.357
-42.534
-42.688
-42.821
-42.933
-43.024
-43.097
-43.152
-43.191
-43.216
-43.228
-43.229
-43.22
-43.203
-43.179
-43.149
-43.112
-43.07
-43.023
-42.97
-42.913
-42.85
-42.782
-42.708
-42.627
-42.539
-42.442
-42.336
-42.218
-42.087
-41.941
-41.779
-41.598
-41.397
-41.174
-40.928
-40.658
-40.361
-40.037
-39.685
-39.306
-38.897
-38.461
-37.998
-37.508
-36.993
-36.456
-35.899
-35.324
-34.736
-34.137
-33.531
-32.922
-32.314
-31.711
-31.117
-30.538
-29.978
-29.44
-28.93
-28.453
-28.013
-27.614
-27.262
-26.958
-26.709
-26.516
-26.384
-26.313
-26.305
-26.363
-26.485
-26.672
-26.922
-27.234
-27.604
-28.029
-28.506
-29.028
-29.59
-30.187
-30.811
-31.454
-32.11
-32.77
-33.424
-34.064
-34.679
-35.26
-35.797
-36.28
-36.699
-37.044
-37.305
-37.472
-37.536
-37.488
-37.317
-37.016
-36.578
-35.994
-35.261
-34.373
-33.327
-32.119
-30.751
-29.221
-27.534
-25.69
-23.695
-21.554
-19.272
-16.859
-14.323
-11.675
-8.925
-6.089
-3.182
-0.223
2.77
5.777
8.779
11.754
14.682
17.544
20.323
23.002
25.566
27.995
30.27
32.371
34.284
35.992
37.483
38.745
39.765
40.538
41.07
41.361
41.409
41.207
40.736
39.981
38.94
37.608
35.99
34.096
31.938
29.546
26.972
24.263
21.471
18.637
15.785
12.957
10.208
7.598
5.212
3.116
1.355
-0.019
-0.982
-1.541
-1.713
-1.552
-1.143
-0.571
0.05
0.597
0.98
1.092
0.838
0.075
-1.482
-3.976
-7.339
-11.391
-15.723
-19.901
-23.652
-26.507
-27.666
-26.741
-23.905
-19.699
-15.341
-12.121
-10.918
-12.804
-19.142
-29.351
-40.675
-50.4
-55.826
-57.453
-58.323
-57.359
-47.613
-17.479
42.766
135.156
251.695
377.821
504.214
625.48
736.421
832.656
901.405
926.818
902.414
827.533
709.521
564.296
405.798
248.138
109.107
1.267
-70.252
-105.343
-114.299
-109.836
-95.714
-76.46
-55.689
-34.199
-20.581
-18.508
-23.327
-32.213
-38.733
-39.849
-39.861
-40.515
-42.588
-45.768
-47.113
-45.629
-42.017
-37.046
-31.811
-27.024
-22.988
-20.121
-18.732
-18.827
-20.228
-22.665
-25.91
-29.803
-34.191
-38.893
-43.71
-48.465
-53.013
-57.227
-61.007
-64.28
-66.998
-69.137
-70.702
-71.713
-72.212
-72.253
-71.895
-71.186
-70.175
-68.908
-67.442
-65.843
-64.18
-62.515
-60.894
-59.342
-57.879
-56.512
-55.24
-54.053
-52.932
-51.85
-50.785
-49.723
-48.648
-47.55
-46.41
-45.211
-43.935
-42.566
-41.089
-39.494
-37.767
-35.9
-33.885
-31.719
-29.397
-26.919
-24.281
-21.481
-18.515
-15.38
-12.075
-8.599
-4.952
-1.137
2.845
6.988
11.284
15.725
20.301
25.002
29.814
34.723
39.716
44.776
49.886
55.029
60.186
65.338
70.465
75.548
80.565
85.496
90.32
95.016
99.564
103.943
108.134
112.116
115.871
119.38
122.625
125.589
128.257
130.613
132.643
134.334
135.677
136.661
137.28
137.526
137.397
136.889
136.004
134.741
133.104
131.098
128.729
126.006
122.937
119.534
115.809
111.776
107.451
102.848
97.986
92.884
87.561
82.036
76.332
70.469
64.472
58.362
52.163
45.899
39.594
33.272
26.957
20.672
14.442
8.289
2.235
-3.698
-9.492
-15.127
-20.585
-25.85
-30.907
-35.743
-40.344
-44.702
-48.806
-52.648
-56.224
-59.527
-62.555
-65.306
-67.78
-69.978
-71.903
-73.558
-74.949
-76.082
-76.966
-77.609
-78.022
-78.215
-78.201
-77.994
-77.607
-77.055
-76.354
-75.518
-74.563
-73.505
-72.36
-71.143
-69.868
-68.549
-67.202
-65.837
-64.469
-63.108
-61.765
-60.45
-59.172
-57.939
-56.759
-55.637
-54.579
-53.589
-52.672
-51.83
-51.064
-50.377
-49.768
-49.238
-48.784
-48.405
-48.097
-47.857
-47.681
-47.563
-47.498
-47.481
-47.505
-47.564
-47.652
-47.762
-47.888
-48.025
-48.167
-48.309
-48.446
-48.574
-48.69
-48.789
-48.869
-48.929
-48.965
-48.978
-48.965
-48.927
-48.862
-48.773
-48.658
-48.52
-48.358
-48.175
-47.971
-47.75
-47.513
-47.264
-47.004
-46.737
-46.467
-46.196
-45.93
-45.67
-45.422
-45.188
-44.971
-44.776
-44.605
-44.461
-44.345
-44.262
-44.211
-44.195
-44.216
-44.274
-44.37
-44.505
-44.68
-44.894
-45.148
-45.441
-45.774
-46.147
-46.558
-47.009
-47.499
-48.026
-48.593
-49.196
-49.838
-50.516
-51.229
-51.978
-52.761
-53.576
-54.424
-55.302
-56.21
-57.145
-58.108
-59.095
-60.107
-61.14
-62.192
-63.262
-64.346
-65.44
-66.543
-67.65
-68.758
-69.861
-70.957
-72.04
-73.105
-74.148
-75.163
-76.144
-77.085
-77.98
-78.823
-79.605
-80.322
-80.964
-81.526
-82.001
-82.382
-82.662
-82.833
-82.89
-82.826
-82.634
-82.309
-81.846
-81.238
-80.483
-79.576
-78.517
-77.304
-75.937
-74.418
-72.747
-70.93
-68.971
-66.874
-64.646
-62.294
-59.827
-57.255
-54.588
-51.838
-49.018
-46.141
-43.226
-40.288
-37.346
-34.418
-31.525
-28.685
-25.92
-23.249
-20.689
-18.258
-15.971
-13.848
-11.906
-10.163
-8.631
-7.325
-6.254
-5.428
-4.855
-4.536
-4.467
-4.644
-5.062
-5.723
-6.638
-7.811
-9.241
-10.928
-12.864
-15.037
-17.435
-20.031
-22.782
-25.646
-28.579
-31.54
-34.503
-37.428
-40.265
-42.955
-45.421
-47.594
-49.418
-50.838
-51.814
-52.326
-52.378
-52.002
-51.26
-50.221
-48.967
-47.594
-46.212
-44.934
-43.851
-43.083
-42.818
-43.2
-44.297
-46.011
-47.996
-49.865
-51.313
-51.982
-51.39
-49.109
-44.908
-39.152
-32.906
-27.35
-23.361
-21.701
-23.303
-29.055
-39.359
-52.183
-63.118
-67.987
-64.012
-52.412
-36.209
-14.386
17.939
69.165
147.111
251.568
376.008
510.864
646.217
774.269
885.744
967.812
1003.427
977.598
885.23
731.482
535.846
324.947
124.339
-42.567
-163.626
-235.579
-261.778
-250.985
-210.804
-151.509
-85.244
-25.877
13.304
27.7
21.371
6.227
-6.467
-12.822
-14.333
-17.398
-26.032
-38.764
-52.775
-64.244
-70.703
-72.427
-70.377
-65.622
-59.565
-53.549
-48.303
-44.316
-41.95
-41.082
-41.557
-43.281
-45.813
-48.633
-51.46
-54.049
-56.232
-57.993
-59.259
-59.975
-60.198
-59.995
-59.44
-58.618
-57.601
-56.489
-55.39
-54.364
-53.447
-52.627
-51.859
-51.136
-50.471
-49.878
-49.376
-48.959
-48.609
-48.327
-48.09
-47.86
-47.574
-47.126
-46.428
-45.443
-44.153
-42.583
-40.786
-38.786
-36.603
-34.264
-31.778
-29.155
-26.401
-23.501
-20.44
-17.22
-13.856
-10.38
-6.826
-3.201
0.498
4.286
8.194
12.239
16.437
20.81
25.368
30.114
35.043
40.14
45.379
50.745
56.222
61.798
67.464
73.202
78.993
84.814
90.642
96.45
102.212
107.899
113.482
118.935
124.234
129.357
134.285
138.999
143.476
147.7
151.649
155.304
158.647
161.659
164.321
166.618
168.535
170.059
171.179
171.885
172.171
172.031
171.462
170.461
169.029
167.168
164.881
162.174
159.053
155.53
151.614
147.319
142.66
137.654
132.318
126.672
120.736
114.531
108.081
101.407
94.533
87.484
80.284
72.958
65.533
58.034
50.488
42.921
35.36
27.83
20.356
12.963
5.675
-1.485
-8.495
-15.334
-21.981
-28.419
-34.628
-40.593
-46.3
-51.735
-56.887
-61.747
-66.307
-70.561
-74.506
-78.137
-81.456
-84.461
-87.156
-89.543
-91.627
-93.415
-94.913
-96.131
-97.077
-97.762
-98.197
-98.395
-98.368
-98.13
-97.695
-97.077
-96.29
-95.349
-94.269
-93.064
-91.751
-90.342
-88.853
-87.297
-85.688
-84.038
-82.361
-80.666
-78.965
-77.267
-75.581
-73.916
-72.277
-70.671
-69.104
-67.58
-66.104
-64.678
-63.305
-61.987
-60.724
-59.519
-58.37
-57.278
-56.241
-55.259
-54.331
-53.454
-52.628
-51.85
-51.118
-50.43
-49.785
-49.179
-48.61
-48.077
-47.576
-47.105
-46.663
-46.247
-45.856
-45.488
-45.142
-44.817
-44.513
-44.227
-43.96
-43.712
-43.481
-43.269
-43.074
-42.896
-42.736
-42.594
-42.469
-42.363
-42.275
-42.205
-42.153
-42.118
-42.1
-42.099
-42.113
-42.141
-42.183
-42.237
-42.303
-42.381
-42.468
-42.564
-42.669
-42.782
-42.901
-43.028
-43.16
-43.298
-43.441
-43.59
-43.744
-43.903
-44.068
-44.24
-44.418
-44.604
-44.797
-44.999
-45.209
-45.428
-45.657
-45.895
-46.144
-46.404
-46.676
-46.96
-47.257
-47.567
-47.892
-48.23
-48.582
-48.947
-49.325
-49.713
-50.111
-50.515
-50.924
-51.333
-51.74
-52.141
-52.531
-52.905
-53.257
-53.583
-53.875
-54.128
-54.335
-54.49
-54.588
-54.621
-54.584
-54.474
-54.284
-54.01
-53.648
-53.194
-52.646
-52.002
-51.26
-50.418
-49.476
-48.436
-47.299
-46.069
-44.749
-43.345
-41.862
-40.31
-38.699
-37.042
-35.35
-33.638
-31.921
-30.214
-28.535
-26.897
-25.314
-23.801
-22.371
-21.041
-19.828
-18.746
-17.809
-17.028
-16.413
-15.976
-15.724
-15.655
-15.771
-16.071
-16.558
-17.245
-18.145
-19.263
-20.604
-22.168
-23.945
-25.923
-28.083
-30.384
-32.789
-35.259
-37.755
-40.251
-42.72
-45.119
-47.401
-49.504
-51.361
-52.92
-54.133
-54.958
-55.391
-55.45
-55.176
-54.652
-53.938
-53.096
-52.224
-51.409
-50.757
-50.393
-50.399
-50.905
-52.132
-54.195
-57.089
-60.632
-64.323
-67.61
-70.059
-71.115
-70.181
-66.936
-61.341
-54.003
-46.338
-39.827
-35.742
-35.239
-39.165
-47.82
-60.722
-75.921
-90.07
-99.466
-100.05
-87.902
-59.656
-12.07
55.437
139.241
234.534
335.654
438.836
546.417
658.468
767.945
862.739
922.291
926.891
870.86
757.825
599.17
415.122
223.722
41.918
-109.151
-214.808
-270.228
-276.654
-245.046
-192.388
-130.708
-72.427
-30.746
-8.76
-6.737
-19.358
-33.441
-43.64
-48.701
-49.884
-53.45
-60.535
-69.19
-77.917
-83.518
-84.482
-81.573
-75.535
-67.781
-60.172
-53.523
-48.139
-44.338
-42.209
-41.75
-42.955
-45.493
-48.697
-52.154
-55.643
-58.969
-62.067
-64.82
-67.062
-68.753
-69.934
-70.632
-70.87
-70.658
-69.973
-68.843
-67.324
-65.467
-63.334
-60.978
-58.449
-55.812
-53.131
-50.471
-47.879
-45.386
-43.012
-40.769
-38.658
-36.674
-34.804
-33.03
-31.332
-29.694
-28.093
-26.514
-24.936
-23.339
-21.704
-20.01
-18.239
-16.373
-14.397
-12.297
-10.061
-7.678
-5.138
-2.434
0.441
3.497
6.739
10.175
13.81
17.648
21.692
25.943
30.4
35.059
39.915
44.96
50.184
55.577
61.124
66.811
72.622
78.538
84.54
90.608
96.717
102.846
108.968
115.058
121.09
127.035
132.867
138.558
144.079
149.404
154.505
159.355
163.93
168.204
172.153
175.755
178.988
181.834
184.274
186.294
187.879
189.019
189.706
189.932
189.696
188.994
187.828
186.201
184.119
181.59
178.624
175.233
171.431
167.236
162.665
157.738
152.478
146.906
141.047
134.927
128.572
122.009
115.266
108.371
101.354
94.243
87.068
79.856
72.637
65.437
58.284
51.203
44.22
37.358
30.64
24.086
17.715
11.546
5.595
-0.125
-5.6
-10.82
-15.776
-20.461
-24.868
-28.995
-32.839
-36.398
-39.673
-42.666
-45.38
-47.818
-49.988
-51.894
-53.546
-54.951
-56.121
-57.063
-57.791
-58.315
-58.648
-58.801
-58.787
-58.619
-58.309
-57.87
-57.315
-56.657
-55.907
-55.076
-54.177
-53.219
-52.212
-51.165
-50.087
-48.985
-47.867
-46.74
-45.609
-44.482
-43.363
-42.258
-41.172
-40.109
-39.073
-38.066
-37.092
-36.153
-35.251
-34.387
-33.563
-32.779
-32.037
-31.336
-30.677
-30.058
-29.479
-28.939
-28.436
-27.969
-27.535
-27.134
-26.763
-26.421
-26.107
-25.821
-25.56
-25.325
-25.113
-24.925
-24.758
-24.612
-24.485
-24.377
-24.285
-24.209
-24.147
-24.099
-24.063
-24.039
-24.025
-24.02
-24.024
-24.034
-24.051
-24.074
-24.102
-24.136
-24.175
-24.221
-24.274
-24.336
-24.407
-24.49
-24.585
-24.694
-24.818
-24.957
-25.114
-25.29
-25.485
-25.701
-25.941
-26.205
-26.495
-26.813
-27.159
-27.535
-27.943
-28.383
-28.856
-29.364
-29.907
-30.487
-31.104
-31.76
-32.456
-33.191
-33.965
-34.778
-35.629
-36.517
-37.438
-38.391
-39.373
-40.38
-41.409
-42.457
-43.518
-44.59
-45.666
-46.741
-47.809
-48.865
-49.902
-50.912
-51.89
-52.829
-53.722
-54.562
-55.344
-56.061
-56.705
-57.27
-57.751
-58.139
-58.427
-58.611
-58.683
-58.638
-58.472
-58.181
-57.76
-57.207
-56.522
-55.702
-54.748
-53.662
-52.444
-51.098
-49.628
-48.041
-46.342
-44.542
-42.649
-40.676
-38.637
-36.547
-34.422
-32.278
-30.132
-28.001
-25.902
-23.852
-21.869
-19.968
-18.167
-16.485
-14.94
-13.552
-12.34
-11.321
-10.509
-9.916
-9.553
-9.424
-9.536
-9.892
-10.501
-11.373
-12.515
-13.935
-15.637
-17.62
-19.878
-22.391
-25.129
-28.053
-31.122
-34.301
-37.557
-40.859
-44.176
-47.47
-50.69
-53.795
-56.733
-59.455
-61.942
-64.14
-66.015
-67.595
-68.916
-70.049
-71.12
-72.139
-73.043
-73.956
-74.997
-76.286
-78.057
-80.297
-82.881
-86.023
-90.045
-94.873
-100.003
-104.621
-107.826
-109.089
-109.379
-109.086
-106.436
-101.397
-92.11
-77.261
-62.487
-50.964
-47.144
-56.936
-76.027
-98.777
-118.36
-126.595
-123.47
-111.535
-93.718
-67.94
-26.159
36.902
126.112
236.932
357.698
483.344
606.331
719.244
815.903
880.993
901.374
872.616
797.18
686.505
553.163
407.741
259.663
120.116
4.977
-75.244
-117.519
-128.336
-124.251
-116.19
-107.757
-98.301
-82.692
-60.86
-37.392
-16.364
-1.601
5.416
4.94
-2.306
-14.42
-28.94
-43.187
-55.012
-64.853
-73.374
-78.837
-80.89
-77.283
-65.924
-52.018
-38.947
-30.56
-31.887
-38.769
-47.617
-55.961
-59.375
-60.101
-60.647
-61.433
-64.083
-67.488
-70.216
-72.401
-73.853
-74.726
-75.33
-75.521
-75.175
-74.335
-73.038
-71.317
-69.229
-66.843
-64.226
-61.468
-58.666
-55.878
-53.143
-50.503
-47.986
-45.606
-43.376
-41.292
-39.341
-37.511
-35.788
-34.161
-32.615
-31.133
-29.695
-28.28
-26.867
-25.436
-23.968
-22.445
-20.849
-19.164
-17.376
-15.472
-13.441
-11.274
-8.961
-6.491
-3.852
-1.037
1.965
5.159
8.551
12.148
15.951
19.959
24.171
28.58
33.181
37.966
42.922
48.038
53.298
58.687
64.187
69.777
75.436
81.14
86.866
92.587
98.277
103.908
109.453
114.884
120.172
125.289
130.208
134.903
139.346
143.511
147.375
150.913
154.104
156.927
159.362
161.394
163.006
164.186
164.925
165.214
165.048
164.424
163.34
161.8
159.807
157.369
154.493
151.193
147.481
143.373
138.888
134.046
128.869
123.38
117.604
111.567
105.297
98.821
92.168
85.368
78.449
71.441
64.375
57.28
50.186
43.12
36.111
29.187
22.373
15.696
9.177
2.841
-3.293
-9.205
-14.878
-20.295
-25.444
-30.311
-34.887
-39.164
-43.136
-46.798
-50.148
-53.185
-55.912
-58.331
-60.448
-62.267
-63.797
-65.046
-66.025
-66.745
-67.216
-67.453
-67.468
-67.276
-66.89
-66.327
-65.6
-64.726
-63.72
-62.598
-61.374
-60.063
-58.68
-57.238
-55.752
-54.234
-52.695
-51.148
-49.604
-48.071
-46.558
-45.075
-43.627
-42.22
-40.86
-39.551
-38.296
-37.098
-35.959
-34.88
-33.861
-32.903
-32.006
-31.168
-30.389
-29.666
-28.997
-28.38
-27.812
-27.289
-26.808
-26.367
-25.96
-25.586
-25.239
-24.918
-24.617
-24.335
-24.068
-23.812
-23.565
-23.324
-23.088
-22.853
-22.618
-22.383
-22.146
-21.906
-21.664
-21.419
-21.171
-20.921
-20.669
-20.415
-20.16
-19.905
-19.65
-19.398
-19.149
-18.905
-18.667
-18.438
-18.22
-18.014
-17.822
-17.648
-17.492
-17.359
-17.249
-17.166
-17.112
-17.09
-17.103
-17.153
-17.244
-17.377
-17.555
-17.781
-18.057
-18.383
-18.763
-19.197
-19.688
-20.236
-20.843
-21.511
-22.241
-23.033
-23.889
-24.808
-25.792
-26.839
-27.949
-29.121
-30.354
-31.646
-32.995
-34.398
-35.854
-37.358
-38.907
-40.496
-42.12
-43.773
-45.451
-47.145
-48.849
-50.556
-52.258
-53.946
-55.614
-57.251
-58.85
-60.403
-61.901
-63.334
-64.694
-65.972
-67.159
-68.247
-69.226
-70.089
-70.827
-71.434
-71.902
-72.226
-72.399
-72.418
-72.278
-71.975
-71.507
-70.873
-70.073
-69.107
-67.978
-66.691
-65.249
-63.661
-61.935
-60.08
-58.109
-56.036
-53.874
-51.64
-49.349
-47.02
-44.671
-42.322
-39.989
-37.692
-35.45
-33.283
-31.211
-29.253
-27.429
-25.76
-24.265
-22.963
-21.871
-21.004
-20.373
-19.986
-19.853
-19.983
-20.388
-21.081
-22.065
-23.348
-24.932
-26.815
-28.988
-31.427
-34.097
-36.959
-39.975
-43.112
-46.341
-49.63
-52.945
-56.248
-59.49
-62.624
-65.612
-68.403
-70.956
-73.24
-75.241
-76.998
-78.589
-80.095
-81.589
-83.113
-84.706
-86.44
-88.392
-90.631
-93.22
-96.178
-99.567
-103.581
-108.32
-113.71
-119.536
-125.305
-130.469
-134.679
-137.461
-138.079
-136.12
-131.641
-125.071
-117.559
-110.468
-104.656
-101.133
-101.541
-105.688
-111.177
-115.851
-116.262
-112.025
-107.573
-102.634
-92.961
-69.627
-19.254
62.944
173.103
302.081
438.202
574.42
703.44
814.761
893.217
920.631
889.145
801.339
669.919
515.433
351.643
190.914
44.902
-78.765
-167.119
-212.913
-216.492
-182.009
-125.57
-64.852
-16.319
6.83
5.025
-14.062
-38.14
-55.689
-64.478
-67.107
-68.672
-73.173
-80.106
-87.07
-91.382
-91.671
-88.095
-81.856
-74.711
-67.798
-61.811
-57.155
-53.825
-51.856
-51.44
-52.463
-54.554
-57.399
-60.651
-64.091
-67.676
-71.286
-74.724
-77.821
-80.466
-82.597
-84.209
-85.299
-85.827
-85.781
-85.176
-84.056
-82.483
-80.515
-78.199
-75.58
-72.718
-69.682
-66.548
-63.395
-60.282
-57.245
-54.311
-51.49
-48.789
-46.206
-43.731
-41.341
-39.015
-36.735
-34.487
-32.262
-30.044
-27.814
-25.554
-23.243
-20.863
-18.402
-15.845
-13.18
-10.397
-7.488
-4.445
-1.267
2.052
5.519
9.139
12.92
16.865
20.98
25.265
29.722
34.352
39.149
44.108
49.222
54.48
59.872
65.386
71.005
76.715
82.498
88.334
94.204
100.087
105.958
111.796
117.575
123.271
128.86
134.316
139.614
144.729
149.638
154.316
158.74
162.887
166.736
170.265
173.455
176.287
178.745
180.812
182.477
183.727
184.553
184.949
184.909
184.433
183.519
182.171
180.392
178.189
175.571
172.549
169.136
165.347
161.198
156.707
151.895
146.782
141.39
135.744
129.866
123.782
117.516
111.096
104.547
97.896
91.169
84.393
77.595
70.8
64.035
57.322
50.687
44.153
37.739
31.468
25.356
19.423
13.682
8.149
2.835
-2.249
-7.093
-11.69
-16.035
-20.124
-23.954
-27.524
-30.836
-33.891
-36.692
-39.245
-41.554
-43.627
-45.471
-47.095
-48.508
-49.721
-50.744
-51.59
-52.27
-52.797
-53.184
-53.444
-53.59
-53.635
-53.591
-53.471
-53.286
-53.047
-52.766
-52.453
-52.117
-51.767
-51.411
-51.057
-50.712
-50.38
-50.067
-49.778
-49.516
-49.283
-49.083
-48.916
-48.785
-48.689
-48.629
-48.604
-48.614
-48.657
-48.73
-48.833
-48.961
-49.111
-49.279
-49.463
-49.657
-49.858
-50.062
-50.266
-50.464
-50.653
-50.831
-50.993
-51.136
-51.258
-51.356
-51.427
-51.471
-51.485
-51.468
-51.419
-51.338
-51.224
-51.078
-50.899
-50.687
-50.442
-50.166
-49.859
-49.521
-49.155
-48.76
-48.34
-47.896
-47.431
-46.947
-46.446
-45.932
-45.407
-44.874
-44.336
-43.796
-43.257
-42.722
-42.192
-41.672
-41.163
-40.669
-40.191
-39.731
-39.291
-38.872
-38.478
-38.107
-37.763
-37.447
-37.159
-36.901
-36.673
-36.478
-36.317
-36.189
-36.097
-36.04
-36.019
-36.034
-36.085
-36.173
-36.295
-36.451
-36.64
-36.861
-37.112
-37.391
-37.695
-38.023
-38.372
-38.738
-39.12
-39.512
-39.912
-40.317
-40.721
-41.121
-41.513
-41.891
-42.251
-42.587
-42.896
-43.17
-43.405
-43.595
-43.734
-43.815
-43.832
-43.779
-43.649
-43.438
-43.138
-42.744
-42.252
-41.657
-40.954
-40.141
-39.213
-38.17
-37.009
-35.731
-34.335
-32.823
-31.197
-29.461
-27.619
-25.678
-23.643
-21.524
-19.33
-17.073
-14.765
-12.421
-10.053
-7.68
-5.315
-2.977
-0.681
1.556
3.718
5.786
7.744
9.572
11.252
12.765
14.094
15.222
16.135
16.82
17.271
17.48
17.445
17.157
16.605
15.778
14.67
13.278
11.601
9.643
7.416
4.942
2.257
-0.601
-3.596
-6.695
-9.873
-13.103
-16.349
-19.569
-22.707
-25.709
-28.528
-31.12
-33.438
-35.45
-37.153
-38.578
-39.808
-40.915
-41.945
-42.944
-43.958
-45.066
-46.372
-47.966
-49.907
-52.285
-55.249
-58.929
-63.357
-68.333
-73.434
-78.19
-82.163
-84.88
-85.784
-84.377
-80.528
-74.814
-68.293
-62.033
-57.115
-54.597
-55.583
-61.157
-70.297
-79.389
-85.077
-84.943
-80.006
-73.681
-64.468
-45.048
-4.139
67.464
169.871
293.406
423.292
549.93
668.783
776.135
867.633
929.975
946.187
908.562
816.884
680.571
518.471
346.489
180.051
37.265
-69.761
-134.71
-158.983
-156.549
-143.553
-129.393
-118.501
-108.302
-94.047
-77.187
-60.715
-47.269
-40.206
-39.676
-44.015
-52.373
-62.579
-71.702
-78.502
-82.551
-83.743
-82.807
-80.197
-75.741
-70.116
-64.7
-60.265
-57.256
-55.81
-55.537
-56.292
-58.263
-61.268
-64.846
-68.649
-72.323
-75.641
-78.592
-81.101
-83.024
-84.314
-84.977
-85.032
-84.55
-83.59
-82.181
-80.369
-78.206
-75.742
-73.041
-70.176
-67.217
-64.242
-61.323
-58.513
-55.846
-53.346
-51.028
-48.895
-46.94
-45.144
-43.476
-41.914
-40.442
-39.04
-37.688
-36.36
-35.026
-33.658
-32.232
-30.723
-29.109
-27.367
-25.476
-23.419
-21.181
-18.751
-16.118
-13.271
-10.198
-6.889
-3.335
0.47
4.531
8.85
13.43
18.267
23.358
28.692
34.261
40.05
46.046
52.23
58.583
65.083
71.707
78.429
85.224
92.062
98.914
105.749
112.534
119.238
125.829
132.272
138.536
144.589
150.398
155.933
161.164
166.064
170.603
174.757
178.503
181.818
184.683
187.08
188.995
190.414
191.33
191.734
191.622
190.993
189.849
188.192
186.03
183.371
180.226
176.609
172.536
168.024
163.094
157.767
152.068
146.021
139.652
132.989
126.062
118.898
111.529
103.984
96.294
88.49
80.603
72.663
64.699
56.741
48.818
40.955
33.179
25.516
17.989
10.619
3.428
-3.566
-10.345
-16.893
-23.196
-29.242
-35.02
-40.522
-45.739
-50.667
-55.302
-59.641
-63.684
-67.432
-70.887
-74.052
-76.934
-79.537
-81.869
-83.939
-85.757
-87.332
-88.675
-89.798
-90.713
-91.433
-91.968
-92.333
-92.54
-92.601
-92.529
-92.336
-92.035
-91.638
-91.155
-90.599
-89.979
-89.307
-88.591
-87.841
-87.065
-86.271
-85.468
-84.661
-83.857
-83.062
-82.282
-81.521
-80.784
-80.075
-79.395
-78.749
-78.137
-77.562
-77.024
-76.525
-76.065
-75.644
-75.263
-74.922
-74.621
-74.358
-74.134
-73.948
-73.798
-73.684
-73.604
-73.557
-73.543
-73.561
-73.609
-73.687
-73.795
-73.931
-74.095
-74.285
-74.501
-74.741
-75.004
-75.289
-75.593
-75.918
-76.26
-76.619
-76.994
-77.384
-77.787
-78.202
-78.626
-79.059
-79.498
-79.941
-80.387
-80.833
-81.28
-81.724
-82.166
-82.604
-83.038
-83.467
-83.89
-84.305
-84.71
-85.104
-85.484
-85.85
-86.2
-86.533
-86.847
-87.142
-87.418
-87.675
-87.911
-88.127
-88.322
-88.496
-88.649
-88.781
-88.892
-88.985
-89.06
-89.119
-89.165
-89.198
-89.22
-89.231
-89.232
-89.222
-89.199
-89.163
-89.11
-89.038
-88.945
-88.831
-88.695
-88.536
-88.353
-88.149
-87.924
-87.677
-87.408
-87.112
-86.786
-86.423
-86.019
-85.566
-85.058
-84.491
-83.857
-83.156
-82.385
-81.541
-80.619
-79.61
-78.5
-77.281
-75.952
-74.511
-72.963
-71.32
-69.6
-67.832
-66.054
-64.287
-62.544
-60.83
-59.134
-57.449
-55.769
-54.08
-52.387
-50.692
-48.989
-47.287
-45.584
-43.86
-42.085
-40.199
-38.13
-35.842
-33.324
-30.58
-27.657
-24.601
-21.478
-18.382
-15.385
-12.546
-9.917
-7.526
-5.402
-3.611
-2.233
-1.375
-1.158
-1.659
-2.927
-4.984
-7.801
-11.32
-15.436
-19.994
-24.86
-29.923
-35.093
-40.308
-45.493
-50.54
-55.336
-59.747
-63.642
-66.923
-69.498
-71.319
-72.4
-72.807
-72.672
-72.154
-71.389
-70.52
-69.689
-69.021
-68.654
-68.685
-69.217
-70.457
-72.532
-75.445
-79.061
-82.983
-86.763
-90.095
-92.556
-93.54
-92.653
-89.763
-85.275
-80.26
-75.688
-72.343
-71.034
-72.613
-77.962
-86.15
-93.861
-97.576
-93.525
-81.752
-67.069
-49.992
-28.779
3.041
59.322
145.405
260.714
399.776
546.353
687.205
809.166
897.231
941.391
931.468
864.082
743.876
581.637
397.916
214.007
52.374
-68.197
-141.628
-169.264
-163.34
-140.335
-112.384
-89.837
-75.887
-70.875
-73.619
-78.654
-82.329
-80.888
-73.48
-64.422
-56.31
-50.77
-47.602
-43.701
-38.286
-32.802
-28.428
-26.448
-27.147
-29.517
-33.118
-38.048
-43.783
-49.345
-54.033
-57.346
-59.373
-60.937
-62.472
-63.977
-65.596
-67.45
-69.574
-72.043
-74.663
-76.946
-78.628
-79.621
-79.883
-79.508
-78.563
-77.058
-75.078
-72.748
-70.154
-67.377
-64.474
-61.465
-58.398
-55.322
-52.271
-49.284
-46.38
-43.561
-40.828
-38.161
-35.538
-32.943
-30.364
-27.79
-25.214
-22.623
-20.003
-17.344
-14.635
-11.862
-9.013
-6.07
-3.017
0.155
3.454
6.885
10.452
14.161
18.019
22.031
26.203
30.539
35.041
39.713
44.556
49.568
54.744
60.079
65.567
71.2
76.968
82.858
88.858
94.954
101.129
107.362
113.631
119.911
126.175
132.4
138.562
144.633
150.586
156.394
162.031
167.476
172.702
177.681
182.38
186.764
190.806
194.493
197.818
200.772
203.343
205.522
207.309
208.708
209.72
210.331
210.514
210.239
209.492
208.276
206.61
204.514
201.994
199.039
195.639
191.795
187.512
182.788
177.604
171.93
165.768
159.162
152.196
144.956
137.501
129.869
122.085
114.178
106.198
98.205
90.251
82.372
74.611
67.028
59.714
52.767
46.244
40.141
34.404
28.984
23.859
19.025
14.487
10.23
6.233
2.477
-1.039
-4.309
-7.339
-10.16
-12.834
-15.427
-17.972
-20.456
-22.833
-25.063
-27.132
-29.032
-30.759
-32.295
-33.624
-34.748
-35.688
-36.467
-37.098
-37.577
-37.885
-38.004
-37.932
-37.688
-37.305
-36.807
-36.214
-35.542
-34.811
-34.046
-33.268
-32.484
-31.692
-30.888
-30.077
-29.266
-28.469
-27.696
-26.95
-26.237
-25.556
-24.911
-24.304
-23.737
-23.206
-22.711
-22.249
-21.823
-21.436
-21.093
-20.795
-20.543
-20.335
-20.174
-20.058
-19.988
-19.959
-19.97
-20.018
-20.101
-20.216
-20.362
-20.536
-20.733
-20.953
-21.19
-21.443
-21.707
-21.979
-22.255
-22.532
-22.806
-23.074
-23.333
-23.58
-23.813
-24.028
-24.225
-24.4
-24.552
-24.678
-24.777
-24.847
-24.889
-24.899
-24.88
-24.829
-24.747
-24.637
-24.498
-24.333
-24.143
-23.931
-23.698
-23.448
-23.185
-22.912
-22.633
-22.352
-22.074
-21.804
-21.547
-21.307
-21.089
-20.897
-20.736
-20.609
-20.521
-20.475
-20.475
-20.524
-20.624
-20.779
-20.99
-21.259
-21.587
-21.973
-22.418
-22.922
-23.482
-24.097
-24.765
-25.482
-26.246
-27.053
-27.898
-28.776
-29.681
-30.606
-31.544
-32.487
-33.426
-34.352
-35.258
-36.133
-36.969
-37.757
-38.488
-39.154
-39.744
-40.252
-40.668
-40.985
-41.194
-41.289
-41.264
-41.113
-40.831
-40.416
-39.862
-39.17
-38.337
-37.364
-36.252
-35.001
-33.614
-32.096
-30.451
-28.684
-26.804
-24.819
-22.741
-20.582
-18.358
-16.084
-13.777
-11.454
-9.134
-6.834
-4.572
-2.363
-0.222
1.836
3.796
5.639
7.35
8.912
10.314
11.541
12.584
13.43
14.072
14.51
14.744
14.772
14.585
14.166
13.498
12.576
11.395
9.956
8.266
6.333
4.18
1.85
-0.61
-3.153
-5.735
-8.326
-10.893
-13.382
-15.729
-17.859
-19.7
-21.208
-22.348
-23.09
-23.421
-23.355
-22.936
-22.247
-21.393
-20.475
-19.602
-18.899
-18.49
-18.502
-19.112
-20.535
-22.913
-26.277
-30.475
-35.148
-39.897
-44.342
-48.002
-50.293
-50.759
-49.216
-46.043
-42.24
-38.93
-37.103
-37.62
-41.205
-48.313
-58.862
-71.509
-83.55
-91.737
-92.753
-83.338
-60.426
-21.119
37.121
113.336
202.81
300.582
400.903
502.329
608.533
716.952
819.769
901.833
940.442
923.813
852.543
737.629
598.989
451.015
302.853
162.135
37.56
-58.475
-117.749
-139.518
-132.352
-110.93
-85.238
-60.478
-37.366
-13.253
10.5
30.954
45.637
51.189
47.133
35.396
18.112
-1.553
-20.341
-36.626
-49.492
-58.057
-62.327
-62.8
-60.115
-55.662
-51.12
-47.378
-44.933
-44.217
-45.208
-47.794
-51.87
-56.932
-62.353
-67.777
-72.952
-77.7
-81.987
-85.739
-88.873
-91.417
-93.429
-94.94
-95.983
-96.568
-96.694
-96.395
-95.717
-94.709
-93.425
-91.921
-90.252
-88.481
-86.669
-84.864
-83.102
-81.407
-79.798
-78.285
-76.87
-75.55
-74.311
-73.141
-72.028
-70.957
-69.913
-68.877
-67.83
-66.755
-65.632
-64.446
-63.179
-61.816
-60.341
-58.741
-57.004
-55.12
-53.078
-50.869
-48.484
-45.912
-43.148
-40.184
-37.015
-33.636
-30.045
-26.241
-22.224
-17.998
-13.569
-8.942
-4.128
0.863
6.017
11.319
16.752
22.295
27.929
33.631
39.377
45.141
50.899
56.624
62.287
67.862
73.321
78.635
83.777
88.72
93.438
97.904
102.094
105.986
109.557
112.788
115.66
118.157
120.264
121.968
123.26
124.13
124.573
124.585
124.164
123.313
122.036
120.338
118.229
115.72
112.824
109.558
105.938
101.985
97.719
93.163
88.34
83.275
77.995
72.526
66.897
61.134
55.266
49.32
43.326
37.309
31.297
25.316
19.39
13.544
7.802
2.186
-3.283
-8.585
-13.702
-18.618
-23.316
-27.784
-32.011
-35.987
-39.705
-43.159
-46.346
-49.263
-51.911
-54.289
-56.402
-58.253
-59.848
-61.194
-62.299
-63.171
-63.822
-64.261
-64.501
-64.553
-64.43
-64.144
-63.708
-63.134
-62.437
-61.629
-60.722
-59.73
-58.666
-57.543
-56.371
-55.165
-53.933
-52.688
-51.439
-50.194
-48.963
-47.752
-46.569
-45.419
-44.309
-43.242
-42.224
-41.258
-40.348
-39.495
-38.702
-37.97
-37.301
-36.696
-36.156
-35.68
-35.271
-34.927
-34.649
-34.437
-34.292
-34.211
-34.196
-34.244
-34.356
-34.529
-34.761
-35.053
-35.402
-35.806
-36.265
-36.776
-37.339
-37.952
-38.613
-39.323
-40.078
-40.878
-41.721
-42.606
-43.531
-44.494
-45.494
-46.528
-47.595
-48.692
-49.816
-50.965
-52.135
-53.325
-54.529
-55.746
-56.972
-58.204
-59.439
-60.673
-61.905
-63.132
-64.352
-65.562
-66.762
-67.949
-69.123
-70.281
-71.423
-72.548
-73.654
-74.743
-75.811
-76.861
-77.891
-78.901
-79.892
-80.864
-81.818
-82.754
-83.674
-84.579
-85.47
-86.35
-87.219
-88.08
-88.935
-89.786
-90.634
-91.482
-92.331
-93.181
-94.035
-94.891
-95.75
-96.61
-97.47
-98.328
-99.182
-100.029
-100.865
-101.688
-102.492
-103.274
-104.029
-104.753
-105.44
-106.084
-106.681
-107.224
-107.708
-108.125
-108.469
-108.733
-108.911
-108.997
-108.982
-108.861
-108.626
-108.271
-107.789
-107.175
-106.423
-105.528
-104.487
-103.295
-101.951
-100.456
-98.808
-97.01
-95.065
-92.976
-90.75
-88.391
-85.908
-83.308
-80.601
-77.797
-74.906
-71.94
-68.914
-65.84
-62.737
-59.621
-56.511
-53.426
-50.385
-47.409
-44.518
-41.732
-39.067
-36.541
-34.171
-31.973
-29.969
-28.173
-26.601
-25.265
-24.177
-23.346
-22.779
-22.481
-22.444
-22.668
-23.147
-23.885
-24.893
-26.179
-27.742
-29.583
-31.694
-34.064
-36.68
-39.518
-42.533
-45.683
-48.921
-52.21
-55.521
-58.816
-62.043
-65.141
-68.029
-70.639
-72.915
-74.806
-76.274
-77.302
-77.893
-78.081
-77.931
-77.523
-76.944
-76.293
-75.683
-75.223
-75.009
-75.179
-75.922
-77.365
-79.539
-82.305
-85.294
-88.131
-90.524
-92.098
-92.36
-90.922
-87.672
-83.089
-78.309
-74.487
-72.411
-72.825
-76.58
-84.353
-96.407
-110.485
-121.882
-126.305
-119.833
-103.174
-81.086
-54.717
-24.119
17.024
82.245
178.905
310.412
470.289
637.427
787.941
897.615
949.429
938.494
870.63
758.191
612.099
445.449
270.55
100.179
-45.826
-151.791
-210.447
-221.306
-196.36
-153.509
-107.164
-71.263
-53.747
-52.896
-64.211
-78.479
-86.854
-87.815
-83.675
-79.541
-79.423
-82.92
-87.363
-89.842
-89.225
-86.098
-81.571
-76.692
-71.967
-67.765
-64.632
-62.87
-62.489
-63.356
-65.186
-67.757
-70.951
-74.583
-78.43
-82.29
-85.988
-89.386
-92.378
-94.872
-96.795
-98.106
-98.791
-98.857
-98.33
-97.255
-95.688
-93.689
-91.316
-88.622
-85.661
-82.495
-79.195
-75.833
-72.477
-69.176
-65.961
-62.854
-59.867
-57.004
-54.257
-51.611
-49.042
-46.53
-44.061
-41.619
-39.194
-36.766
-34.314
-31.818
-29.258
-26.616
-23.874
-21.017
-18.029
-14.899
-11.615
-8.171
-4.559
-0.772
3.199
7.36
11.719
16.281
21.049
26.026
31.213
36.608
42.208
48.007
53.996
60.166
66.505
73.001
79.638
86.399
93.267
100.219
107.235
114.292
121.363
128.424
135.445
142.4
149.259
155.992
162.57
168.962
175.141
181.076
186.739
192.103
197.141
201.828
206.14
210.055
213.553
216.615
219.223
221.365
223.026
224.198
224.873
225.046
224.714
223.875
222.533
220.69
218.354
215.533
212.239
208.485
204.288
199.665
194.637
189.226
183.456
177.354
170.945
164.26
157.326
150.175
142.838
135.346
127.73
120.023
112.255
104.459
96.665
88.902
81.2
73.587
66.089
58.733
51.542
44.539
37.746
31.183
24.868
18.817
13.046
7.566
2.389
-2.478
-7.026
-11.252
-15.153
-18.73
-21.983
-24.917
-27.536
-29.848
-31.861
-33.586
-35.034
-36.217
-37.15
-37.847
-38.324
-38.597
-38.682
-38.596
-38.356
-37.979
-37.481
-36.88
-36.191
-35.431
-34.615
-33.758
-32.875
-31.981
-31.087
-30.206
-29.351
-28.529
-27.752
-27.027
-26.36
-25.757
-25.223
-24.76
-24.371
-24.057
-23.818
-23.653
-23.56
-23.535
-23.576
-23.677
-23.835
-24.042
-24.293
-24.582
-24.902
-25.247
-25.609
-25.983
-26.361
-26.737
-27.105
-27.457
-27.788
-28.092
-28.362
-28.595
-28.785
-28.927
-29.02
-29.059
-29.042
-28.968
-28.835
-28.643
-28.391
-28.08
-27.711
-27.284
-26.802
-26.268
-25.683
-25.051
-24.376
-23.662
-22.911
-22.128
-21.317
-20.483
-19.628
-18.758
-17.877
-16.988
-16.096
-15.206
-14.321
-13.446
-12.585
-11.742
-10.92
-10.123
-9.354
-8.616
-7.913
-7.245
-6.617
-6.031
-5.488
-4.992
-4.543
-4.145
-3.799
-3.507
-3.271
-3.092
-2.972
-2.912
-2.914
-2.98
-3.111
-3.309
-3.574
-3.909
-4.314
-4.789
-5.336
-5.952
-6.639
-7.394
-8.217
-9.106
-10.059
-11.073
-12.145
-13.274
-14.454
-15.682
-16.955
-18.266
-19.61
-20.982
-22.376
-23.784
-25.199
-26.613
-28.019
-29.406
-30.768
-32.094
-33.374
-34.6
-35.761
-36.846
-37.848
-38.756
-39.56
-40.252
-40.825
-41.271
-41.584
-41.759
-41.791
-41.678
-41.417
-41.007
-40.449
-39.744
-38.895
-37.904
-36.778
-35.521
-34.143
-32.652
-31.059
-29.378
-27.625
-25.815
-23.966
-22.097
-20.228
-18.38
-16.572
-14.822
-13.15
-11.574
-10.113
-8.788
-7.62
-6.625
-5.82
-5.221
-4.839
-4.69
-4.781
-5.113
-5.686
-6.501
-7.566
-8.895
-10.501
-12.386
-14.551
-16.992
-19.7
-22.665
-25.865
-29.256
-32.795
-36.434
-40.131
-43.858
-47.579
-51.241
-54.777
-58.109
-61.162
-63.884
-66.234
-68.168
-69.659
-70.71
-71.347
-71.633
-71.651
-71.475
-71.19
-70.911
-70.738
-70.759
-71.128
-72.038
-73.636
-76.002
-79.012
-82.303
-85.536
-88.44
-90.62
-91.59
-90.907
-88.264
-84.014
-79.267
-75.069
-72.124
-71.278
-73.41
-79.053
-88.697
-100.4
-109.261
-112.488
-108.707
-97.946
-83.537
-62.108
-24.326
35.822
123.344
234.184
353.675
472.129
584.927
689.184
785.301
866.878
916.056
916.9
861.024
747.565
591.696
416.608
242.313
91.156
-20.728
-90.582
-120.714
-123.621
-117.173
-110.079
-106.027
-103.358
-96.036
-84.002
-70.71
-59.383
-53.656
-54.012
-58.497
-65.467
-73.072
-79.563
-83.789
-85.148
-83.657
-79.889
-74.728
-68.933
-63.132
-57.995
-54.092
-51.721
-50.94
-51.603
-53.42
-56.139
-59.561
-63.461
-67.624
-71.86
-75.984
-79.835
-83.272
-86.181
-88.483
-90.132
-91.106
-91.402
-91.041
-90.065
-88.537
-86.523
-84.083
-81.272
-78.147
-74.776
-71.238
-67.614
-63.985
-60.408
-56.922
-53.555
-50.325
-47.239
-44.295
-41.477
-38.763
-36.136
-33.583
-31.092
-28.654
-26.253
-23.872
-21.491
-19.094
-16.664
-14.188
-11.652
-9.043
-6.351
-3.569
-0.689
2.292
5.383
8.59
11.922
15.386
18.991
22.741
26.642
30.699
34.913
39.284
43.811
48.487
53.308
58.266
63.35
68.548
73.847
79.23
84.681
90.181
95.709
101.243
106.761
112.237
117.647
122.967
128.169
133.229
138.119
142.815
147.291
151.523
155.485
159.156
162.512
165.532
168.196
170.485
172.383
173.874
174.945
175.585
175.785
175.539
174.843
173.696
172.1
170.057
167.575
164.662
161.33
157.592
153.465
148.967
144.117
138.938
133.454
127.689
121.67
115.423
108.977
102.36
95.602
88.731
81.778
74.771
67.74
60.713
53.718
46.783
39.934
33.197
26.596
20.153
13.89
7.826
1.979
-3.634
-8.999
-14.105
-18.942
-23.5
-27.776
-31.764
-35.464
-38.876
-42.001
-44.846
-47.414
-49.715
-51.756
-53.548
-55.101
-56.43
-57.546
-58.464
-59.199
-59.765
-60.179
-60.455
-60.61
-60.659
-60.618
-60.501
-60.324
-60.101
-59.845
-59.57
-59.289
-59.011
-58.749
-58.512
-58.309
-58.146
-58.031
-57.967
-57.96
-58.012
-58.124
-58.296
-58.528
-58.819
-59.165
-59.563
-60.01
-60.5
-61.027
-61.586
-62.171
-62.773
-63.388
-64.006
-64.623
-65.229
-65.819
-66.386
-66.923
-67.424
-67.883
-68.293
-68.651
-68.951
-69.187
-69.358
-69.458
-69.487
-69.44
-69.319
-69.121
-68.847
-68.498
-68.075
-67.582
-67.02
-66.392
-65.704
-64.96
-64.163
-63.32
-62.436
-61.517
-60.568
-59.595
-58.603
-57.6
-56.589
-55.577
-54.568
-53.569
-52.582
-51.613
-50.666
-49.746
-48.855
-47.997
-47.176
-46.393
-45.651
-44.951
-44.296
-43.686
-43.122
-42.603
-42.13
-41.702
-41.317
-40.975
-40.674
-40.411
-40.186
-39.996
-39.838
-39.711
-39.613
-39.542
-39.496
-39.474
-39.475
-39.498
-39.541
-39.604
-39.687
-39.79
-39.912
-40.053
-40.214
-40.396
-40.598
-40.822
-41.068
-41.338
-41.631
-41.948
-42.29
-42.657
-43.051
-43.47
-43.914
-44.385
-44.881
-45.403
-45.948
-46.515
-47.102
-47.707
-48.326
-48.955
-49.589
-50.222
-50.85
-51.466
-52.063
-52.634
-53.172
-53.669
-54.117
-54.507
-54.831
-55.08
-55.245
-55.317
-55.289
-55.152
-54.899
-54.523
-54.017
-53.376
-52.595
-51.67
-50.599
-49.379
-48.009
-46.489
-44.82
-43.006
-41.05
-38.959
-36.74
-34.404
-31.965
-29.435
-26.831
-24.171
-21.471
-18.751
-16.031
-13.329
-10.664
-8.055
-5.522
-3.087
-0.771
1.404
3.414
5.241
6.862
8.26
9.417
10.323
10.968
11.346
11.444
11.245
10.734
9.899
8.731
7.225
5.383
3.213
0.741
-1.997
-4.954
-8.085
-11.346
-14.7
-18.108
-21.527
-24.905
-28.177
-31.286
-34.18
-36.812
-39.138
-41.131
-42.795
-44.182
-45.387
-46.511
-47.634
-48.831
-50.193
-51.835
-53.878
-56.432
-59.563
-63.334
-67.907
-73.388
-79.752
-86.801
-94.075
-101.04
-107.275
-112.304
-115.464
-116.256
-114.513
-110.607
-105.577
-100.454
-96.153
-93.648
-94.018
-98.345
-105.503
-111.869
-114.024
-108.185
-94.833
-79.342
-61.077
-37.141
-0.61
63.355
159.427
285.825
438.724
602.056
759.584
895.746
988.916
1023.923
996.147
908.082
773.32
611.916
439.783
272.655
126.684
12.354
-62.441
-98.079
-105.522
-97.505
-86.477
-78.007
-71.262
-64.635
-54.342
-40.618
-25.76
-10.921
-0.621
2.523
-1.8
-13.93
-30.928
-49.609
-68.163
-84.573
-97.813
-107.306
-112.379
-113.055
-110.065
-104.449
-97.444
-90.322
-83.921
-78.831
-75.453
-73.849
-73.892
-75.303
-77.635
-80.385
-83.219
-85.919
-88.338
-90.423
-92.091
-93.276
-93.991
-94.268
-94.134
-93.6
-92.657
-91.298
-89.553
-87.474
-85.117
-82.543
-79.796
-76.924
-73.98
-71.021
-68.107
-65.283
-62.574
-59.998
-57.56
-55.264
-53.11
-51.086
-49.168
-47.332
-45.554
-43.809
-42.081
-40.347
-38.584
-36.77
-34.88
-32.894
-30.792
-28.556
-26.171
-23.62
-20.89
-17.971
-14.855
-11.536
-8.006
-4.26
-0.294
3.897
8.311
12.949
17.807
22.881
28.162
33.64
39.301
45.131
51.113
57.226
63.452
69.767
76.146
82.565
88.996
95.411
101.781
108.078
114.27
120.328
126.221
131.922
137.4
142.628
147.579
152.226
156.546
160.515
164.112
167.316
170.111
172.481
174.412
175.893
176.914
177.47
177.556
177.171
176.314
174.99
173.204
170.962
168.276
165.158
161.621
157.683
153.362
148.677
143.651
138.307
132.669
126.762
120.615
114.252
107.703
100.996
94.158
87.219
80.207
73.149
66.074
59.008
51.977
45.006
38.121
31.344
24.696
18.2
11.873
5.734
-0.2
-5.915
-11.398
-16.636
-21.62
-26.343
-30.796
-34.976
-38.879
-42.503
-45.85
-48.92
-51.716
-54.243
-56.507
-58.513
-60.27
-61.788
-63.074
-64.141
-65
-65.662
-66.139
-66.444
-66.591
-66.591
-66.458
-66.205
-65.845
-65.391
-64.855
-64.25
-63.588
-62.879
-62.136
-61.367
-60.582
-59.792
-59.002
-58.222
-57.457
-56.715
-55.999
-55.316
-54.668
-54.059
-53.492
-52.967
-52.488
-52.053
-51.664
-51.321
-51.021
-50.764
-50.549
-50.373
-50.235
-50.131
-50.058
-50.014
-49.995
-49.998
-50.02
-50.058
-50.109
-50.169
-50.236
-50.308
-50.382
-50.456
-50.527
-50.595
-50.658
-50.714
-50.762
-50.802
-50.833
-50.853
-50.864
-50.865
-50.855
-50.835
-50.806
-50.768
-50.721
-50.666
-50.604
-50.537
-50.465
-50.391
-50.316
-50.241
-50.169
-50.101
-50.038
-49.983
-49.936
-49.898
-49.87
-49.854
-49.849
-49.857
-49.877
-49.909
-49.955
-50.014
-50.087
-50.172
-50.271
-50.383
-50.507
-50.645
-50.796
-50.959
-51.135
-51.324
-51.525
-51.737
-51.962
-52.196
-52.441
-52.694
-52.954
-53.219
-53.489
-53.762
-54.036
-54.31
-54.584
-54.857
-55.127
-55.394
-55.658
-55.917
-56.17
-56.417
-56.656
-56.887
-57.107
-57.315
-57.51
-57.69
-57.852
-57.995
-58.116
-58.211
-58.279
-58.315
-58.317
-58.28
-58.202
-58.079
-57.908
-57.686
-57.412
-57.081
-56.692
-56.241
-55.726
-55.144
-54.492
-53.766
-52.963
-52.081
-51.116
-50.067
-48.931
-47.709
-46.397
-44.997
-43.508
-41.932
-40.27
-38.525
-36.698
-34.796
-32.822
-30.782
-28.685
-26.538
-24.35
-22.132
-19.897
-17.656
-15.424
-13.213
-11.037
-8.911
-6.85
-4.866
-2.971
-1.179
0.497
2.044
3.445
4.688
5.758
6.642
7.329
7.807
8.068
8.112
7.935
7.538
6.918
6.062
4.964
3.618
2.022
0.176
-1.912
-4.229
-6.748
-9.424
-12.213
-15.07
-17.953
-20.834
-23.678
-26.447
-29.095
-31.566
-33.805
-35.769
-37.415
-38.696
-39.594
-40.126
-40.35
-40.375
-40.303
-40.207
-40.166
-40.272
-40.624
-41.318
-42.448
-44.059
-46.227
-49.138
-52.893
-57.448
-62.622
-67.975
-72.98
-77.245
-80.29
-81.369
-80.028
-76.31
-70.558
-63.784
-57.295
-51.972
-48.769
-49.301
-53.56
-58.972
-62.981
-62.144
-55.163
-46.428
-38.274
-27.734
-8.251
32.652
106.158
212.519
346.428
498.085
651.802
794.868
913.259
990.153
1013.8
976.866
880.502
734.753
555.156
361.029
171.427
5.143
-122.152
-201.871
-231.561
-215.331
-166.042
-100.026
-35.214
8.969
24.658
14.736
-11.055
-35.487
-49.692
-54.134
-52.66
-53.302
-58.858
-67.069
-75.614
-81.325
-82.87
-80.775
-75.689
-68.821
-61.647
-55.134
-49.777
-45.78
-43.151
-42.003
-42.447
-44.323
-47.179
-50.559
-54.176
-57.863
-61.549
-65.101
-68.306
-71.034
-73.252
-74.966
-76.201
-76.955
-77.202
-76.947
-76.237
-75.128
-73.682
-71.955
-69.994
-67.856
-65.612
-63.334
-61.095
-58.951
-56.933
-55.063
-53.349
-51.788
-50.376
-49.096
-47.92
-46.826
-45.787
-44.784
-43.797
-42.806
-41.789
-40.721
-39.578
-38.338
-36.982
-35.491
-33.849
-32.042
-30.056
-27.883
-25.513
-22.94
-20.156
-17.152
-13.923
-10.463
-6.768
-2.839
1.327
5.725
10.35
15.193
20.245
25.492
30.919
36.51
42.246
48.108
54.075
60.123
66.229
72.368
78.515
84.642
90.722
96.727
102.629
108.399
114.008
119.429
124.633
129.594
134.286
138.684
142.764
146.504
149.883
152.881
155.481
157.669
159.429
160.753
161.631
162.057
162.029
161.545
160.608
159.22
157.388
155.121
152.427
149.319
145.81
141.916
137.654
133.043
128.102
122.853
117.319
111.524
105.492
99.248
92.819
86.229
79.505
72.674
65.762
58.793
51.795
44.792
37.809
30.868
23.992
17.202
10.518
3.958
-2.462
-8.725
-14.82
-20.732
-26.452
-31.97
-37.278
-42.37
-47.24
-51.884
-56.3
-60.487
-64.445
-68.174
-71.678
-74.96
-78.023
-80.873
-83.515
-85.955
-88.2
-90.258
-92.135
-93.84
-95.381
-96.766
-98.003
-99.102
-100.068
-100.911
-101.637
-102.254
-102.766
-103.18
-103.501
-103.735
-103.885
-103.955
-103.95
-103.873
-103.726
-103.513
-103.235
-102.894
-102.492
-102.031
-101.511
-100.936
-100.305
-99.621
-98.885
-98.098
-97.264
-96.383
-95.456
-94.488
-93.478
-92.43
-91.346
-90.229
-89.082
-87.908
-86.71
-85.492
-84.258
-83.011
-81.756
-80.496
-79.235
-77.976
-76.725
-75.483
-74.254
-73.042
-71.85
-70.679
-69.533
-68.413
-67.32
-66.255
-65.217
-64.206
-63.222
-62.261
-61.324
-60.406
-59.505
-58.617
-57.74
-56.868
-55.998
-55.125
-54.244
-53.351
-52.44
-51.507
-50.548
-49.559
-48.536
-47.476
-46.376
-45.234
-44.049
-42.818
-41.542
-40.22
-38.855
-37.446
-35.997
-34.512
-32.995
-31.45
-29.884
-28.304
-26.717
-25.131
-23.556
-21.999
-20.472
-18.984
-17.546
-16.17
-14.866
-13.646
-12.52
-11.501
-10.597
-9.819
-9.175
-8.675
-8.324
-8.131
-8.099
-8.233
-8.537
-9.012
-9.658
-10.475
-11.461
-12.611
-13.922
-15.385
-16.995
-18.741
-20.614
-22.603
-24.695
-26.877
-29.135
-31.453
-33.816
-36.206
-38.605
-40.995
-43.356
-45.671
-47.92
-50.083
-52.143
-54.082
-55.881
-57.525
-58.997
-60.283
-61.369
-62.243
-62.892
-63.31
-63.487
-63.417
-63.098
-62.525
-61.699
-60.621
-59.294
-57.722
-55.911
-53.868
-51.603
-49.127
-46.451
-43.59
-40.56
-37.38
-34.071
-30.655
-27.155
-23.595
-20
-16.397
-12.809
-9.259
-5.769
-2.36
0.946
4.126
7.156
10.018
12.692
15.162
17.413
19.432
21.209
22.742
24.03
25.072
25.862
26.386
26.628
26.585
26.254
25.638
24.749
23.602
22.224
20.66
18.96
17.173
15.345
13.508
11.699
9.965
8.368
6.985
5.89
5.135
4.767
4.824
5.307
6.203
7.454
8.957
10.623
12.365
14.075
15.653
16.983
17.931
18.407
18.289
17.362
15.534
12.831
9.434
5.843
2.56
-0.096
-1.683
-1.59
0.543
4.75
10.557
16.594
21.596
25.053
26.379
24.703
19.627
11.421
2.567
-1.744
2.929
18.674
43.519
73.745
108.688
150.733
208.136
288.963
395.024
524.258
666.184
805.732
927.789
1015.848
1055.62
1037.707
960.833
831.199
663.892
481.252
304.028
153.388
44.624
-20.311
-46.169
-47.139
-40.24
-32.952
-27.658
-21.378
-8.892
8.211
25.8
40.387
48.205
48.787
43.696
33.762
21.003
8.199
-2.92
-11.402
-16.907
-19.9
-20.845
-19.68
-16.967
-13.993
-11.694
-10.666
-11.144
-12.868
-15.676
-19.706
-24.821
-30.59
-36.661
-42.688
-48.45
-53.93
-59.035
-63.605
-67.571
-70.916
-73.653
-75.837
-77.503
-78.655
-79.33
-79.574
-79.432
-78.966
-78.229
-77.273
-76.164
-74.967
-73.746
-72.551
-71.414
-70.357
-69.391
-68.518
-67.732
-67.018
-66.353
-65.721
-65.106
-64.489
-63.855
-63.185
-62.456
-61.649
-60.744
-59.721
-58.562
-57.25
-55.771
-54.113
-52.263
-50.214
-47.959
-45.491
-42.8
-39.883
-36.731
-33.341
-29.71
-25.837
-21.721
-17.365
-12.775
-7.957
-2.922
2.318
7.751
13.36
19.128
25.035
31.062
37.184
43.379
49.621
55.883
62.138
68.357
74.511
80.571
86.507
92.288
97.885
103.268
108.411
113.284
117.862
122.119
126.032
129.577
132.735
135.486
137.814
139.704
141.143
142.121
142.633
142.672
142.237
141.328
139.948
138.103
135.801
133.051
129.866
126.26
122.251
117.856
113.097
107.996
102.578
96.866
90.89
84.676
78.254
71.653
64.904
58.036
51.081
44.07
37.032
29.998
22.998
16.061
9.214
2.485
-4.1
-10.518
-16.746
-22.762
-28.546
-34.082
-39.353
-44.345
-49.045
-53.444
-57.532
-61.302
-64.749
-67.871
-70.666
-73.133
-75.276
-77.099
-78.605
-79.804
-80.702
-81.311
-81.639
-81.701
-81.508
-81.075
-80.417
-79.549
-78.487
-77.249
-75.85
-74.308
-72.639
-70.862
-68.992
-67.046
-65.04
-62.99
-60.91
-58.814
-56.718
-54.634
-52.574
-50.552
-48.577
-46.662
-44.814
-43.045
-41.361
-39.77
-38.279
-36.894
-35.619
-34.458
-33.416
-32.493
-31.693
-31.017
-30.463
-30.032
-29.723
-29.533
-29.46
-29.502
-29.654
-29.913
-30.274
-30.735
-31.289
-31.932
-32.66
-33.466
-34.347
-35.296
-36.308
-37.378
-38.499
-39.666
-40.873
-42.114
-43.383
-44.674
-45.981
-47.298
-48.619
-49.939
-51.251
-52.55
-53.831
-55.088
-56.316
-57.511
-58.667
-59.782
-60.852
-61.873
-62.841
-63.753
-64.608
-65.402
-66.133
-66.799
-67.398
-67.929
-68.39
-68.781
-69.101
-69.351
-69.53
-69.64
-69.682
-69.656
-69.566
-69.413
-69.2
-68.931
-68.609
-68.238
-67.824
-67.372
-66.886
-66.373
-65.839
-65.29
-64.733
-64.173
-63.615
-63.068
-62.536
-62.027
-61.548
-61.104
-60.702
-60.349
-60.05
-59.811
-59.638
-59.535
-59.506
-59.553
-59.681
-59.892
-60.188
-60.57
-61.037
-61.59
-62.227
-62.947
-63.745
-64.617
-65.556
-66.556
-67.61
-68.707
-69.837
-70.991
-72.157
-73.327
-74.491
-75.636
-76.75
-77.822
-78.841
-79.793
-80.663
-81.436
-82.093
-82.619
-83.003
-83.231
-83.292
-83.175
-82.869
-82.366
-81.664
-80.757
-79.639
-78.297
-76.719
-74.902
-72.856
-70.599
-68.148
-65.514
-62.716
-59.78
-56.737
-53.614
-50.422
-47.159
-43.818
-40.409
-36.954
-33.492
-30.059
-26.677
-23.35
-20.078
-16.875
-13.757
-10.728
-7.771
-4.859
-1.991
0.794
3.422
5.82
7.944
9.767
11.272
12.435
13.221
13.587
13.503
12.963
11.957
10.465
8.452
5.872
2.728
-0.922
-4.982
-9.355
-13.969
-18.754
-23.629
-28.5
-33.272
-37.87
-42.244
-46.374
-50.231
-53.805
-57.088
-60.056
-62.738
-65.2
-67.534
-69.863
-72.293
-74.92
-77.899
-81.435
-85.663
-90.617
-96.147
-101.875
-107.406
-112.365
-116.294
-118.7
-119.2
-117.64
-114.42
-110.538
-107.132
-105.23
-105.679
-109.123
-115.977
-126.173
-138.435
-150.198
-158.306
-159.486
-150.713
-129.285
-92.569
-38.248
33.018
117.29
209.99
305.536
401.818
501.064
600.589
693.788
768.912
808.035
801.444
749.095
657.126
538.703
406.095
268.455
137.829
28.804
-48.439
-88.989
-98.308
-92.661
-84.162
-79.151
-78.111
-74.75
-67.209
-57.947
-49.631
-45.973
-47.833
-53.348
-60.948
-68.935
-75.68
-80.165
-81.78
-80.419
-76.574
-71.071
-64.694
-58.11
-51.982
-46.871
-43.089
-40.75
-39.781
-39.973
-41.124
-43.061
-45.586
-48.512
-51.702
-55.024
-58.339
-61.518
-64.4
-66.86
-68.828
-70.258
-71.127
-71.428
-71.17
-70.385
-69.134
-67.473
-65.454
-63.124
-60.526
-57.716
-54.763
-51.737
-48.707
-45.724
-42.82
-40.014
-37.319
-34.736
-32.261
-29.877
-27.559
-25.289
-23.053
-20.839
-18.638
-16.434
-14.209
-11.948
-9.631
-7.244
-4.774
-2.208
0.466
3.255
6.168
9.21
12.383
15.693
19.146
22.747
26.502
30.414
34.487
38.722
43.119
47.678
52.393
57.261
62.272
67.418
72.69
78.075
83.56
89.132
94.774
100.469
106.201
111.948
117.692
123.41
129.081
134.682
140.19
145.581
150.833
155.92
160.82
165.51
169.965
174.165
178.088
181.712
185.018
187.989
190.607
192.856
194.724
196.197
197.265
197.922
198.159
197.974
197.364
196.328
194.869
192.992
190.701
188.006
184.916
181.444
177.603
173.41
168.881
164.037
158.897
153.483
147.819
141.929
135.838
129.571
123.155
116.617
109.983
103.28
96.536
89.776
83.028
76.316
69.666
63.101
56.647
50.323
44.153
38.154
32.347
26.747
21.37
16.229
11.336
6.701
2.332
-1.765
-5.585
-9.126
-12.386
-15.367
-18.071
-20.503
-22.667
-24.572
-26.224
-27.635
-28.815
-29.774
-30.525
-31.081
-31.455
-31.663
-31.717
-31.634
-31.428
-31.115
-30.709
-30.226
-29.681
-29.088
-28.461
-27.814
-27.158
-26.507
-25.872
-25.262
-24.687
-24.155
-23.674
-23.249
-22.886
-22.589
-22.361
-22.203
-22.117
-22.104
-22.163
-22.292
-22.489
-22.753
-23.08
-23.467
-23.909
-24.402
-24.941
-25.521
-26.135
-26.778
-27.445
-28.128
-28.822
-29.521
-30.219
-30.909
-31.587
-32.246
-32.883
-33.492
-34.069
-34.611
-35.114
-35.577
-35.996
-36.371
-36.701
-36.985
-37.224
-37.416
-37.564
-37.667
-37.728
-37.746
-37.725
-37.666
-37.57
-37.44
-37.278
-37.087
-36.87
-36.627
-36.364
-36.081
-35.781
-35.468
-35.143
-34.81
-34.47
-34.127
-33.783
-33.439
-33.097
-32.76
-32.428
-32.102
-31.784
-31.474
-31.172
-30.879
-30.596
-30.321
-30.056
-29.8
-29.554
-29.317
-29.089
-28.871
-28.663
-28.465
-28.279
-28.104
-27.942
-27.794
-27.661
-27.544
-27.445
-27.364
-27.303
-27.263
-27.244
-27.25
-27.28
-27.336
-27.419
-27.529
-27.668
-27.836
-28.034
-28.262
-28.521
-28.811
-29.132
-29.483
-29.865
-30.278
-30.72
-31.191
-31.689
-32.211
-32.756
-33.321
-33.9
-34.491
-35.088
-35.687
-36.283
-36.87
-37.442
-37.994
-38.519
-39.012
-39.468
-39.88
-40.241
-40.548
-40.795
-40.978
-41.093
-41.137
-41.107
-41.001
-40.817
-40.555
-40.215
-39.796
-39.299
-38.724
-38.076
-37.357
-36.571
-35.725
-34.824
-33.88
-32.903
-31.904
-30.898
-29.898
-28.917
-27.972
-27.077
-26.245
-25.49
-24.825
-24.263
-23.818
-23.505
-23.339
-23.333
-23.499
-23.848
-24.391
-25.136
-26.082
-27.232
-28.584
-30.145
-31.926
-33.938
-36.182
-38.66
-41.37
-44.302
-47.438
-50.748
-54.179
-57.68
-61.201
-64.696
-68.133
-71.473
-74.669
-77.666
-80.401
-82.821
-84.894
-86.589
-87.867
-88.721
-89.19
-89.351
-89.339
-89.273
-89.224
-89.279
-89.539
-90.109
-91.106
-92.628
-94.719
-97.465
-101.022
-105.433
-110.618
-116.348
-122.135
-127.46
-131.866
-134.749
-135.385
-133.428
-128.952
-122.316
-114.424
-106.336
-98.986
-93.668
-91.832
-92.715
-93.574
-92.21
-86.49
-77.794
-70.066
-61.725
-46.459
-14.156
45.824
135.561
249.178
376.267
505.576
628.467
734.943
814.351
856.134
849.462
794.098
696.305
563.366
411.531
254.591
107.286
-8.837
-84.662
-119.168
-120.671
-110.401
-101.313
-98.09
-99.854
-98.473
-91.587
-82.294
-73.706
-69.816
-71.505
-76.774
-84.064
-91.814
-98.529
-103.206
-105.243
-104.58
-101.738
-97.571
-92.798
-87.957
-83.63
-80.348
-78.422
-77.955
-78.833
-80.786
-83.573
-87.003
-90.878
-95.002
-99.204
-103.323
-107.198
-110.692
-113.696
-116.132
-117.956
-119.148
-119.698
-119.612
-118.932
-117.719
-116.035
-113.946
-111.502
-108.752
-105.762
-102.602
-99.352
-96.09
-92.873
-89.737
-86.71
-83.811
-81.048
-78.426
-75.929
-73.534
-71.226
-68.991
-66.818
-64.7
-62.62
-60.559
-58.5
-56.424
-54.314
-52.155
-49.933
-47.633
-45.242
-42.752
-40.154
-37.442
-34.609
-31.646
-28.543
-25.291
-21.884
-18.313
-14.573
-10.659
-6.567
-2.297
2.149
6.77
11.559
16.511
21.618
26.87
32.254
37.758
43.367
49.065
54.833
60.652
66.5
72.355
78.195
83.996
89.732
95.38
100.914
106.31
111.544
116.591
121.427
126.031
130.379
134.451
138.225
141.684
144.808
147.581
149.989
152.018
153.659
154.901
155.739
156.167
156.183
155.785
154.977
153.761
152.144
150.133
147.738
144.973
141.851
138.39
134.606
130.519
126.151
121.523
116.658
111.582
106.317
100.889
95.323
89.647
83.884
78.062
72.207
66.344
60.498
54.694
48.957
43.308
37.771
32.366
27.114
22.032
17.138
12.448
7.975
3.733
-0.267
-4.018
-7.512
-10.742
-13.707
-16.404
-18.833
-20.995
-22.894
-24.535
-25.922
-27.062
-27.964
-28.636
-29.088
-29.33
-29.374
-29.231
-28.914
-28.436
-27.809
-27.047
-26.163
-25.171
-24.083
-22.914
-21.676
-20.382
-19.043
-17.672
-16.28
-14.877
-13.473
-12.077
-10.697
-9.339
-8.011
-6.717
-5.462
-4.25
-3.083
-1.963
-0.892
0.128
1.098
2.017
2.886
3.705
4.475
5.197
5.873
6.505
7.094
7.642
8.15
8.622
9.058
9.461
9.832
10.174
10.487
10.775
11.037
11.275
11.49
11.683
11.853
12
12.124
12.223
12.296
12.342
12.359
12.345
12.298
12.217
12.099
11.943
11.746
11.508
11.226
10.901
10.53
10.114
9.653
9.145
8.592
7.995
7.353
6.669
5.943
5.177
4.372
3.53
2.653
1.742
0.8
-0.171
-1.168
-2.188
-3.228
-4.286
-5.357
-6.438
-7.527
-8.621
-9.715
-10.807
-11.895
-12.974
-14.044
-15.101
-16.144
-17.171
-18.182
-19.176
-20.153
-21.114
-22.059
-22.99
-23.909
-24.816
-25.714
-26.605
-27.491
-28.373
-29.255
-30.139
-31.026
-31.92
-32.821
-33.733
-34.656
-35.593
-36.544
-37.51
-38.492
-39.491
-40.507
-41.539
-42.588
-43.654
-44.736
-45.832
-46.94
-48.06
-49.186
-50.316
-51.444
-52.567
-53.678
-54.771
-55.841
-56.88
-57.882
-58.84
-59.747
-60.595
-61.377
-62.086
-62.714
-63.255
-63.702
-64.051
-64.297
-64.435
-64.462
-64.376
-64.175
-63.857
-63.423
-62.872
-62.204
-61.421
-60.525
-59.52
-58.411
-57.202
-55.902
-54.52
-53.069
-51.56
-50.006
-48.423
-46.826
-45.229
-43.65
-42.103
-40.603
-39.165
-37.806
-36.542
-35.393
-34.374
-33.501
-32.79
-32.254
-31.905
-31.754
-31.805
-32.063
-32.532
-33.221
-34.143
-35.314
-36.739
-38.42
-40.358
-42.541
-44.952
-47.563
-50.329
-53.201
-56.127
-59.061
-61.964
-64.794
-67.504
-70.035
-72.32
-74.293
-75.907
-77.131
-77.936
-78.317
-78.305
-77.962
-77.408
-76.769
-76.152
-75.669
-75.432
-75.562
-76.206
-77.495
-79.509
-82.346
-86.102
-90.782
-96.331
-102.511
-108.868
-114.97
-120.434
-124.817
-127.631
-128.474
-127.1
-123.737
-119.07
-113.63
-107.617
-101.307
-95.203
-89.844
-85.709
-81.085
-72.237
-56.674
-32.306
-1.048
31.265
64.336
99.486
141.68
203.357
288.131
395.408
523.721
658.584
786.275
893.589
958.714
967.936
916.434
803.796
645.942
466.925
287.025
129.39
10.138
-68.874
-109.836
-124.478
-129.378
-131.43
-132.878
-131.161
-119.66
-98.676
-72.754
-46.395
-25.056
-10.857
-3.255
-2.252
-7.033
-15.844
-26.933
-38.502
-48.807
-57.144
-63.302
-66.602
-66.816
-64.422
-60.13
-55.048
-50.417
-46.769
-44.313
-43.421
-44.162
-46.428
-50.058
-54.53
-59.198
-63.695
-67.768
-71.239
-74.095
-76.295
-77.788
-78.634
-78.919
-78.707
-78.064
-77.014
-75.55
-73.701
-71.51
-69.042
-66.383
-63.611
-60.794
-57.986
-55.22
-52.525
-49.92
-47.412
-45.001
-42.675
-40.416
-38.215
-36.069
-33.969
-31.909
-29.872
-27.835
-25.78
-23.689
-21.548
-19.345
-17.068
-14.704
-12.245
-9.686
-7.02
-4.244
-1.354
1.66
4.803
8.081
11.499
15.06
18.766
22.621
26.624
30.774
35.067
39.498
44.06
48.746
53.546
58.45
63.445
68.517
73.65
78.83
84.038
89.255
94.461
99.637
104.76
109.809
114.759
119.59
124.276
128.796
133.125
137.242
141.124
144.75
148.098
151.15
153.886
156.289
158.341
160.029
161.339
162.259
162.779
162.893
162.594
161.879
160.745
159.195
157.23
154.855
152.076
148.901
145.342
141.41
137.119
132.485
127.527
122.263
116.714
110.904
104.855
98.592
92.14
85.525
78.775
71.916
64.975
57.979
50.957
43.934
36.939
29.997
23.133
16.374
9.742
3.259
-3.053
-9.174
-15.087
-20.774
-26.22
-31.412
-36.338
-40.986
-45.348
-49.416
-53.186
-56.653
-59.817
-62.676
-65.233
-67.491
-69.454
-71.128
-72.522
-73.643
-74.501
-75.106
-75.471
-75.607
-75.529
-75.251
-74.786
-74.15
-73.358
-72.424
-71.365
-70.193
-68.924
-67.572
-66.149
-64.67
-63.147
-61.591
-60.016
-58.435
-56.856
-55.286
-53.735
-52.209
-50.717
-49.269
-47.866
-46.507
-45.208
-43.98
-42.835
-41.785
-40.823
-39.927
-39.115
-38.402
-37.749
-37.122
-36.496
-35.831
-35.155
-34.525
-33.905
-33.228
-32.653
-32.364
-32.245
-32.301
-32.567
-32.63
-33.582
-36.484
-39.811
-43.096
-43.538
-37.787
-29.542
-21.27
-16.641
-20.702
-28.981
-37.687
-44.22
-44.286
-40.948
-37.309
-34.055
-33.079
-33.275
-33.228
-33.204
-33.019
-32.766
-32.729
-32.717
-32.578
-32.36
-32.072
-31.694
-31.23
-30.689
-30.077
-29.422
-28.756
-28.067
-27.344
-26.593
-25.818
-25.02
-24.205
-23.376
-22.53
-21.677
-20.822
-19.971
-19.132
-18.309
-17.507
-16.735
-15.996
-15.298
-14.647
-14.047
-13.505
-13.026
-12.615
-12.279
-12.021
-11.846
-11.76
-11.765
-11.865
-12.064
-12.363
-12.765
-13.271
-13.882
-14.597
-15.415
-16.335
-17.355
-18.47
-19.677
-20.971
-22.345
-23.794
-25.309
-26.883
-28.507
-30.173
-31.87
-33.59
-35.32
-37.051
-38.772
-40.47
-42.134
-43.754
-45.318
-46.815
-48.232
-49.56
-50.786
-51.902
-52.897
-53.762
-54.486
-55.063
-55.486
-55.747
-55.844
-55.77
-55.524
-55.105
-54.512
-53.747
-52.812
-51.71
-50.446
-49.027
-47.459
-45.751
-43.914
-41.961
-39.906
-37.766
-35.558
-33.301
-31.015
-28.718
-26.431
-24.173
-21.962
-19.814
-17.749
-15.784
-13.941
-12.24
-10.698
-9.333
-8.159
-7.19
-6.441
-5.921
-5.631
-5.575
-5.756
-6.187
-6.885
-7.869
-9.143
-10.712
-12.571
-14.712
-17.124
-19.784
-22.646
-25.664
-28.789
-31.979
-35.205
-38.429
-41.6
-44.652
-47.505
-50.087
-52.35
-54.254
-55.777
-56.904
-57.642
-58.034
-58.16
-58.119
-58.03
-58.004
-58.157
-58.623
-59.521
-61.013
-63.31
-66.513
-70.611
-75.459
-80.701
-85.964
-90.951
-95.253
-98.385
-100.061
-100.159
-98.969
-97.385
-96.273
-96.352
-98.219
-102.062
-107.97
-115.995
-125.086
-133.18
-137.011
-131.994
-115.755
-87.616
-48.406
-1.413
53.919
119.671
197.502
291.186
398.948
516.681
639.736
755.895
852.545
915.025
926.571
882.663
785.444
643.634
478.434
307.319
148.702
23.747
-61.601
-106.937
-119.827
-119.975
-117.583
-116.358
-116.751
-111.714
-100.026
-85.947
-72.851
-64.957
-63.711
-67.321
-73.97
-81.874
-89.146
-94.264
-96.428
-95.457
-91.703
-86.014
-79.241
-72.041
-65.174
-59.387
-55.049
-52.293
-51.041
-51.004
-51.94
-53.669
-55.964
-58.6
-61.425
-64.288
-67.055
-69.619
-71.837
-73.597
-74.837
-75.516
-75.628
-75.186
-74.228
-72.811
-70.997
-68.846
-66.404
-63.712
-60.834
-57.846
-54.814
-51.811
-48.902
-46.108
-43.514
-41.201
-39.082
-37.093
-35.149
-33.105
-31.067
-29.194
-27.403
-25.635
-24.088
-22.847
-22.156
-22.335
-23.021
-23.8
-24.653
-25.46
-25.956
-26.037
-25.261
-23.116
-20.025
-16.421
-12.377
-8.116
-3.762
0.694
4.867
8.348
11.456
14.485
17.539
20.842
24.383
28.081
32.125
36.688
41.627
46.828
52.207
57.623
63.106
68.694
74.321
79.941
85.543
91.104
96.62
102.093
107.475
112.721
117.802
122.679
127.333
131.748
135.898
139.763
143.32
146.55
149.434
151.959
154.11
155.877
157.249
158.219
158.783
158.938
158.685
158.027
156.965
155.5
153.638
151.387
148.757
145.759
142.406
138.714
134.7
130.38
125.775
120.906
115.794
110.462
104.933
99.232
93.384
87.414
81.348
75.213
69.034
62.836
56.645
50.484
44.378
38.35
32.421
26.613
20.944
15.433
10.098
4.954
0.015
-4.706
-9.198
-13.451
-17.457
-21.209
-24.702
-27.935
-30.903
-33.608
-36.052
-38.236
-40.167
-41.849
-43.291
-44.502
-45.491
-46.27
-46.852
-47.25
-47.476
-47.547
-47.476
-47.278
-46.969
-46.563
-46.075
-45.521
-44.912
-44.264
-43.589
-42.898
-42.203
-41.514
-40.841
-40.192
-39.574
-38.994
-38.458
-37.97
-37.535
-37.154
-36.829
-36.561
-36.35
-36.194
-36.09
-36.036
-36.027
-36.058
-36.124
-36.218
-36.334
-36.465
-36.604
-36.744
-36.877
-36.997
-37.097
-37.17
-37.211
-37.215
-37.176
-37.092
-36.958
-36.774
-36.537
-36.247
-35.904
-35.509
-35.062
-34.566
-34.024
-33.439
-32.814
-32.154
-31.465
-30.751
-30.019
-29.276
-28.528
-27.782
-27.045
-26.326
-25.63
-24.966
-24.34
-23.76
-23.232
-22.762
-22.357
-22.022
-21.761
-21.578
-21.477
-21.459
-21.528
-21.682
-21.923
-22.25
-22.662
-23.157
-23.734
-24.389
-25.12
-25.923
-26.794
-27.729
-28.723
-29.771
-30.868
-32.008
-33.186
-34.398
-35.636
-36.896
-38.173
-39.461
-40.755
-42.051
-43.342
-44.626
-45.897
-47.152
-48.387
-49.599
-50.786
-51.945
-53.074
-54.172
-55.237
-56.268
-57.263
-58.221
-59.14
-60.021
-60.861
-61.659
-62.415
-63.127
-63.794
-64.415
-64.988
-65.512
-65.984
-66.402
-66.763
-67.066
-67.306
-67.482
-67.591
-67.629
-67.593
-67.481
-67.288
-67.012
-66.65
-66.197
-65.65
-65.007
-64.263
-63.418
-62.469
-61.416
-60.256
-58.991
-57.621
-56.147
-54.572
-52.899
-51.13
-49.272
-47.329
-45.31
-43.221
-41.072
-38.874
-36.639
-34.381
-32.114
-29.854
-27.617
-25.42
-23.279
-21.213
-19.237
-17.367
-15.619
-14.008
-12.552
-11.268
-10.173
-9.282
-8.609
-8.167
-7.968
-8.021
-8.328
-8.894
-9.718
-10.805
-12.166
-13.809
-15.739
-17.958
-20.464
-23.248
-26.291
-29.567
-33.036
-36.655
-40.38
-44.173
-48.001
-51.83
-55.623
-59.33
-62.891
-66.245
-69.335
-72.117
-74.547
-76.605
-78.303
-79.69
-80.853
-81.887
-82.86
-83.833
-84.889
-86.121
-87.632
-89.532
-91.87
-94.72
-98.264
-102.595
-107.685
-113.321
-119.005
-124.218
-128.609
-131.759
-133.081
-132.192
-128.987
-123.958
-118.306
-113.067
-109.027
-106.987
-107.839
-112.494
-119.891
-126.297
-127.696
-120.202
-104.546
-86.987
-69.119
-49.182
-19.378
36.848
126.719
249.606
398.925
555.947
705.079
832.753
923.566
966.639
951.929
875.755
743.681
570.457
379.812
194.678
36.954
-77.264
-145.168
-170.382
-164.3
-145.578
-127.286
-116.527
-116.616
-120.99
-121.758
-116.765
-103.5
-84.688
-67.527
-54.617
-47.748
-47.497
-50.74
-55.312
-60.564
-65.603
-69.908
-73.473
-75.845
-76.316
-74.92
-72.035
-67.9
-63.186
-58.792
-55.057
-52.258
-50.787
-50.603
-51.587
-53.674
-56.444
-59.371
-62.158
-64.544
-66.357
-67.609
-68.274
-68.318
-67.814
-66.841
-65.463
-63.757
-61.754
-59.458
-56.904
-54.14
-51.226
-48.24
-45.248
-42.306
-39.454
-36.715
-34.106
-31.634
-29.293
-27.076
-24.965
-22.939
-20.984
-19.09
-17.241
-15.423
-13.615
-11.79
-9.925
-7.999
-5.992
-3.889
-1.675
0.665
3.141
5.763
8.538
11.473
14.575
17.852
21.312
24.958
28.796
32.826
37.047
41.46
46.06
50.841
55.796
60.915
66.187
71.599
77.138
82.787
88.528
94.344
100.212
106.111
112.017
117.908
123.756
129.537
135.225
140.792
146.212
151.459
156.506
161.327
165.897
170.191
174.186
177.858
181.188
184.156
186.744
188.936
190.719
192.081
193.013
193.506
193.555
193.158
192.314
191.022
189.286
187.113
184.509
181.484
178.05
174.221
170.014
165.445
160.533
155.3
149.767
143.958
137.898
131.611
125.124
118.464
111.66
104.738
97.728
90.657
83.552
76.441
69.349
62.301
55.323
48.436
41.664
35.026
28.543
22.233
16.113
10.198
4.502
-0.963
-6.186
-11.158
-15.874
-20.326
-24.512
-28.43
-32.077
-35.455
-38.566
-41.413
-44
-46.334
-48.42
-50.268
-51.886
-53.284
-54.473
-55.462
-56.264
-56.889
-57.348
-57.652
-57.812
-57.839
-57.743
-57.534
-57.222
-56.818
-56.33
-55.767
-55.138
-54.449
-53.709
-52.923
-52.096
-51.235
-50.343
-49.425
-48.485
-47.527
-46.553
-45.567
-44.571
-43.566
-42.555
-41.539
-40.518
-39.494
-38.467
-37.438
-36.408
-35.379
-34.351
-33.326
-32.306
-31.293
-30.288
-29.294
-28.312
-27.345
-26.395
-25.465
-24.556
-23.673
-22.817
-21.993
-21.203
-20.451
-19.739
-19.07
-18.448
-17.874
-17.35
-16.878
-16.461
-16.098
-15.792
-15.542
-15.351
-15.217
-15.142
-15.123
-15.161
-15.253
-15.399
-15.596
-15.842
-16.133
-16.468
-16.844
-17.258
-17.707
-18.187
-18.696
-19.23
-19.787
-20.362
-20.952
-21.555
-22.166
-22.783
-23.403
-24.023
-24.642
-25.258
-25.869
-26.473
-27.072
-27.663
-28.247
-28.825
-29.395
-29.96
-30.521
-31.078
-31.633
-32.189
-32.746
-33.307
-33.874
-34.447
-35.029
-35.62
-36.222
-36.834
-37.457
-38.091
-38.736
-39.39
-40.054
-40.726
-41.404
-42.088
-42.774
-43.46
-44.143
-44.82
-45.487
-46.139
-46.771
-47.378
-47.954
-48.492
-48.987
-49.432
-49.82
-50.143
-50.396
-50.569
-50.658
-50.654
-50.55
-50.342
-50.022
-49.587
-49.032
-48.353
-47.549
-46.617
-45.557
-44.367
-43.05
-41.606
-40.038
-38.348
-36.541
-34.622
-32.596
-30.472
-28.256
-25.959
-23.592
-21.17
-18.706
-16.216
-13.717
-11.226
-8.761
-6.339
-3.975
-1.685
0.516
2.614
4.592
6.433
8.123
9.646
10.991
12.146
13.102
13.85
14.39
14.725
14.853
14.771
14.464
13.919
13.127
12.083
10.783
9.237
7.455
5.457
3.287
0.989
-1.394
-3.818
-6.255
-8.673
-11.029
-13.27
-15.331
-17.138
-18.645
-19.803
-20.57
-20.945
-20.952
-20.651
-20.149
-19.537
-18.897
-18.346
-17.996
-17.961
-18.379
-19.326
-20.927
-23.42
-26.941
-31.487
-36.869
-42.579
-48.081
-52.974
-56.677
-58.452
-57.845
-54.747
-49.745
-44.237
-39.492
-36.611
-36.915
-41.653
-51.557
-65.265
-78.962
-88.403
-90.276
-84.96
-74.857
-58.18
-29.601
19.834
99.358
209.345
343.583
492.095
642.384
783.907
904.929
991.213
1028.308
1005.393
921.632
784.839
609.959
416.462
222.057
44.869
-97.106
-192.603
-237.142
-234.547
-199.962
-150.894
-102.569
-68.914
-53.346
-52.144
-59.122
-63.242
-59.67
-50.089
-38.585
-32.63
-34.928
-43.502
-55.35
-66.211
-74.289
-79.772
-82.404
-82.31
-79.835
-75.278
-69.693
-64.403
-59.992
-56.763
-55.026
-54.801
-56.063
-58.728
-62.33
-66.264
-70.152
-73.729
-76.806
-79.348
-81.299
-82.595
-83.276
-83.412
-83.058
-82.274
-81.093
-79.526
-77.607
-75.387
-72.921
-70.289
-67.566
-64.822
-62.127
-59.526
-57.054
-54.736
-52.585
-50.603
-48.787
-47.12
-45.585
-44.168
-42.854
-41.627
-40.469
-39.357
-38.267
-37.18
-36.073
-34.93
-33.736
-32.472
-31.123
-29.673
-28.107
-26.411
-24.571
-22.574
-20.409
-18.064
-15.529
-12.796
-9.862
-6.723
-3.371
0.199
3.999
8.034
12.299
16.78
21.457
26.301
31.282
36.372
41.528
46.717
51.917
57.112
62.305
67.503
72.693
77.857
82.958
87.958
92.844
97.605
102.236
106.749
111.153
115.463
119.723
123.954
128.142
132.252
136.204
139.901
143.276
146.282
148.886
151.069
152.79
154.006
154.69
154.795
154.272
153.067
151.084
148.258
144.58
140.075
134.826
128.951
122.534
115.648
108.366
100.738
92.831
84.711
76.419
68.008
59.545
51.108
42.814
34.762
27.004
19.567
12.437
5.571
-1.052
-7.445
-13.63
-19.611
-25.39
-30.971
-36.331
-41.451
-46.326
-50.964
-55.391
-59.635
-63.703
-67.591
-71.284
-74.754
-77.985
-80.964
-83.674
-86.106
-88.261
-90.143
-91.771
-93.169
-94.353
-95.337
-96.132
-96.744
-97.187
-97.476
-97.626
-97.656
-97.582
-97.42
-97.192
-96.913
-96.599
-96.26
-95.908
-95.546
-95.184
-94.827
-94.483
-94.156
-93.854
-93.58
-93.342
-93.143
-92.988
-92.879
-92.818
-92.805
-92.839
-92.92
-93.046
-93.213
-93.418
-93.657
-93.927
-94.222
-94.538
-94.87
-95.214
-95.563
-95.913
-96.258
-96.594
-96.916
-97.218
-97.495
-97.744
-97.96
-98.138
-98.277
-98.372
-98.421
-98.421
-98.369
-98.262
-98.099
-97.876
-97.593
-97.248
-96.839
-96.367
-95.833
-95.237
-94.58
-93.867
-93.099
-92.279
-91.413
-90.503
-89.555
-88.573
-87.564
-86.532
-85.484
-84.426
-83.364
-82.305
-81.255
-80.22
-79.208
-78.224
-77.275
-76.366
-75.504
-74.695
-73.944
-73.258
-72.641
-72.1
-71.639
-71.263
-70.977
-70.784
-70.687
-70.689
-70.789
-70.989
-71.288
-71.684
-72.175
-72.756
-73.425
-74.174
-74.998
-75.889
-76.841
-77.845
-78.89
-79.968
-81.069
-82.181
-83.294
-84.398
-85.479
-86.527
-87.529
-88.475
-89.35
-90.145
-90.845
-91.439
-91.915
-92.261
-92.465
-92.516
-92.405
-92.121
-91.656
-91.002
-90.155
-89.11
-87.863
-86.412
-84.759
-82.904
-80.852
-78.607
-76.174
-73.56
-70.774
-67.827
-64.731
-61.498
-58.143
-54.68
-51.13
-47.513
-43.848
-40.157
-36.46
-32.778
-29.137
-25.562
-22.076
-18.706
-15.475
-12.408
-9.53
-6.868
-4.443
-2.273
-0.37
1.256
2.594
3.634
4.369
4.796
4.919
4.74
4.261
3.483
2.413
1.061
-0.561
-2.432
-4.535
-6.853
-9.36
-12.035
-14.852
-17.776
-20.77
-23.804
-26.845
-29.869
-32.868
-35.816
-38.676
-41.404
-43.928
-46.202
-48.244
-50.058
-51.601
-52.906
-54.064
-55.271
-56.943
-59.442
-62.833
-67.09
-72.176
-77.829
-83.699
-89.198
-93.082
-94.053
-91.457
-85.071
-75.016
-61.961
-46.658
-30.236
-15.034
-3.864
1.132
-1.36
-11.688
-29.481
-53.978
-83.423
-114.65
-142.06
-159.703
-164.028
-151.475
-121.244
-74.685
-10.04
71.574
168.802
283.161
411.358
549.742
691.225
819.304
916.984
966.579
954.399
880.082
750.121
579.264
390.113
203.667
42.692
-75.255
-144.917
-168.342
-158.872
-132.218
-100.007
-72.786
-53.652
-44.192
-44.337
-48.36
-52.792
-54.074
-51.061
-48.18
-47.766
-50.575
-55.743
-59.571
-60.302
-58.149
-53.692
-48.238
-42.657
-37.22
-32.44
-28.881
-26.782
-26.144
-26.805
-28.496
-30.997
-34.172
-37.826
-41.728
-45.697
-49.572
-53.206
-56.482
-59.296
-61.57
-63.263
-64.363
-64.87
-64.806
-64.212
-63.143
-61.661
-59.822
-57.68
-55.289
-52.711
-50.017
-47.28
-44.568
-41.927
-39.387
-36.967
-34.677
-32.517
-30.476
-28.537
-26.672
-24.861
-23.086
-21.331
-19.581
-17.817
-16.016
-14.158
-12.222
-10.19
-8.046
-5.773
-3.357
-0.786
1.949
4.858
7.946
11.222
14.695
18.374
22.265
26.375
30.71
35.271
40.063
45.082
50.326
55.788
61.46
67.33
73.387
79.614
85.995
92.51
99.139
105.858
112.643
119.47
126.31
133.136
139.92
146.631
153.239
159.715
166.028
172.147
178.043
183.686
189.047
194.098
198.813
203.165
207.129
210.683
213.805
216.476
218.679
220.399
221.625
222.347
222.56
222.26
221.447
220.123
218.294
215.968
213.156
209.87
206.127
201.944
197.341
192.339
186.964
181.239
175.193
168.852
162.245
155.404
148.358
141.14
133.78
126.312
118.766
111.176
103.573
95.987
88.451
80.993
73.641
66.424
59.365
52.49
45.82
39.374
33.172
27.227
21.555
16.166
11.071
6.275
1.784
-2.397
-6.268
-9.829
-13.083
-16.031
-18.68
-21.037
-23.108
-24.903
-26.433
-27.708
-28.742
-29.547
-30.138
-30.529
-30.735
-30.773
-30.658
-30.406
-30.034
-29.557
-28.99
-28.35
-27.651
-26.906
-26.13
-25.333
-24.529
-23.728
-22.938
-22.17
-21.431
-20.729
-20.069
-19.458
-18.901
-18.402
-17.965
-17.592
-17.286
-17.049
-16.882
-16.785
-16.757
-16.8
-16.91
-17.086
-17.327
-17.629
-17.99
-18.406
-18.875
-19.391
-19.951
-20.551
-21.187
-21.854
-22.55
-23.269
-24.008
-24.765
-25.535
-26.317
-27.106
-27.901
-28.698
-29.495
-30.289
-31.078
-31.86
-32.633
-33.393
-34.141
-34.873
-35.588
-36.285
-36.963
-37.621
-38.257
-38.871
-39.463
-40.031
-40.577
-41.099
-41.599
-42.077
-42.533
-42.97
-43.387
-43.787
-44.17
-44.537
-44.889
-45.228
-45.555
-45.871
-46.178
-46.478
-46.772
-47.062
-47.35
-47.638
-47.927
-48.219
-48.516
-48.819
-49.13
-49.45
-49.779
-50.121
-50.475
-50.842
-51.223
-51.619
-52.028
-52.452
-52.889
-53.337
-53.796
-54.264
-54.74
-55.22
-55.704
-56.187
-56.667
-57.14
-57.604
-58.052
-58.481
-58.885
-59.26
-59.6
-59.899
-60.153
-60.356
-60.501
-60.585
-60.601
-60.544
-60.409
-60.19
-59.882
-59.481
-58.983
-58.384
-57.68
-56.87
-55.951
-54.922
-53.783
-52.534
-51.176
-49.709
-48.138
-46.464
-44.693
-42.83
-40.881
-38.855
-36.763
-34.616
-32.427
-30.211
-27.98
-25.751
-23.538
-21.358
-19.222
-17.145
-15.14
-13.22
-11.401
-9.698
-8.126
-6.701
-5.437
-4.346
-3.442
-2.734
-2.224
-1.916
-1.813
-1.92
-2.253
-2.824
-3.638
-4.7
-6.013
-7.569
-9.355
-11.341
-13.479
-15.721
-18.017
-20.325
-22.613
-24.844
-26.978
-28.966
-30.75
-32.278
-33.513
-34.419
-34.956
-35.118
-34.936
-34.484
-33.895
-33.285
-32.745
-32.371
-32.269
-32.549
-33.321
-34.681
-36.671
-39.377
-42.981
-47.552
-53.031
-59.221
-65.658
-71.835
-77.347
-81.617
-83.857
-83.647
-80.979
-76.131
-70.008
-63.706
-58.013
-54.046
-53.471
-55.669
-57.767
-57.68
-52.251
-42.399
-34.378
-27.981
-19.286
0.924
49.472
132.722
248.751
390.076
538.481
680.178
802.088
889.206
934.726
931.991
881.395
792.308
671.237
527.729
371.562
210.934
62.084
-56.798
-133.79
-162.391
-149.233
-113.338
-72.409
-43.631
-37.259
-49.993
-74.759
-100.202
-115.663
-119.056
-112.932
-103.162
-94.885
-88.886
-83.425
-76.11
-66.658
-57.005
-49.019
-43.939
-41.792
-41.673
-43.188
-46.167
-49.899
-53.338
-55.682
-56.54
-56.18
-55.451
-54.818
-54.375
-54.29
-54.721
-55.744
-57.358
-59.294
-61.023
-62.229
-62.813
-62.738
-62.076
-60.882
-59.17
-57.022
-54.572
-51.919
-49.131
-46.264
-43.335
-40.394
-37.514
-34.748
-32.142
-29.723
-27.492
-25.443
-23.561
-21.821
-20.194
-18.655
-17.185
-15.765
-14.379
-13.009
-11.638
-10.245
-8.807
-7.3
-5.697
-3.976
-2.12
-0.113
2.055
4.394
6.912
9.618
12.519
15.623
18.937
22.468
26.218
30.191
34.385
38.797
43.42
48.243
53.255
58.441
63.785
69.27
74.873
80.574
86.349
92.172
98.017
103.857
109.662
115.403
121.049
126.57
131.935
137.114
142.075
146.79
151.229
155.365
159.171
162.622
165.694
168.364
170.614
172.426
173.783
174.674
175.087
175.014
174.452
173.398
171.853
169.821
167.308
164.323
160.878
156.987
152.668
147.937
142.817
137.329
131.498
125.35
118.913
112.214
105.284
98.152
90.849
83.407
75.858
68.231
60.56
52.874
45.203
37.578
30.027
22.576
15.252
8.079
1.081
-5.722
-12.31
-18.665
-24.772
-30.617
-36.189
-41.477
-46.474
-51.175
-55.576
-59.675
-63.472
-66.969
-70.169
-73.077
-75.699
-78.044
-80.12
-81.937
-83.507
-84.841
-85.952
-86.853
-87.56
-88.084
-88.442
-88.648
-88.716
-88.66
-88.495
-88.235
-87.894
-87.484
-87.018
-86.509
-85.967
-85.404
-84.829
-84.251
-83.68
-83.121
-82.583
-82.071
-81.589
-81.143
-80.735
-80.37
-80.048
-79.771
-79.541
-79.358
-79.221
-79.129
-79.082
-79.079
-79.117
-79.196
-79.312
-79.465
-79.651
-79.869
-80.116
-80.389
-80.687
-81.005
-81.343
-81.697
-82.064
-82.442
-82.829
-83.222
-83.618
-84.015
-84.41
-84.802
-85.189
-85.568
-85.937
-86.296
-86.643
-86.976
-87.294
-87.597
-87.882
-88.15
-88.399
-88.627
-88.834
-89.019
-89.181
-89.318
-89.43
-89.516
-89.575
-89.606
-89.609
-89.583
-89.529
-89.446
-89.334
-89.194
-89.028
-88.836
-88.622
-88.386
-88.131
-87.86
-87.576
-87.281
-86.978
-86.669
-86.356
-86.042
-85.731
-85.424
-85.126
-84.838
-84.565
-84.31
-84.077
-83.867
-83.685
-83.533
-83.414
-83.33
-83.283
-83.276
-83.309
-83.385
-83.503
-83.664
-83.868
-84.113
-84.396
-84.715
-85.066
-85.443
-85.841
-86.254
-86.674
-87.096
-87.513
-87.92
-88.312
-88.684
-89.03
-89.345
-89.624
-89.859
-90.04
-90.156
-90.197
-90.152
-90.013
-89.77
-89.417
-88.947
-88.357
-87.645
-86.809
-85.845
-84.747
-83.501
-82.101
-80.552
-78.861
-77.045
-75.129
-73.136
-71.089
-69.024
-66.964
-64.924
-62.912
-60.915
-58.924
-56.942
-54.985
-53.084
-51.271
-49.554
-47.934
-46.409
-44.955
-43.552
-42.175
-40.77
-39.308
-37.799
-36.27
-34.793
-33.451
-32.291
-31.335
-30.589
-30.054
-29.759
-29.743
-30.038
-30.694
-31.769
-33.331
-35.489
-38.309
-41.779
-45.847
-50.404
-55.328
-60.562
-66.057
-71.753
-77.579
-83.424
-89.161
-94.708
-99.952
-104.725
-108.92
-112.484
-115.488
-118.192
-120.865
-123.686
-126.794
-130.288
-133.977
-137.415
-140.043
-141.168
-140.264
-137.174
-131.904
-124.476
-115.495
-106.092
-97.366
-90.454
-86.134
-84.533
-85.791
-90.482
-98.473
-108.904
-121.168
-134.575
-148.743
-163.99
-178.74
-188.925
-191.651
-185.751
-173.177
-158.252
-140.933
-114.531
-68.115
6.687
111.098
237.092
371.222
505.735
635.558
755.167
856.92
924.031
941.269
903.678
817.286
698.709
563.639
423.326
284.394
152.993
41.778
-39.668
-86.694
-102.645
-102.28
-96.768
-91.506
-87.541
-80.037
-67.876
-54.18
-42.148
-35.098
-33.565
-36.04
-41.303
-48.11
-55.588
-62.543
-67.418
-69.65
-69.486
-67.399
-64.044
-59.747
-54.438
-48.669
-43.409
-39.135
-36.066
-34.184
-33.192
-33.047
-33.942
-35.73
-38.047
-40.618
-43.137
-45.435
-47.499
-49.204
-50.395
-51.017
-51.053
-50.531
-49.527
-48.079
-46.206
-43.954
-41.362
-38.483
-35.383
-32.114
-28.734
-25.306
-21.887
-18.537
-15.3
-12.203
-9.261
-6.481
-3.852
-1.365
0.998
3.263
5.447
7.567
9.648
11.707
13.765
15.844
17.965
20.147
22.411
24.775
27.252
29.856
32.599
35.489
38.535
41.743
45.118
48.667
52.393
56.302
60.396
64.674
69.136
73.78
78.599
83.588
88.736
94.032
99.463
105.013
110.666
116.403
122.203
128.047
133.909
139.767
145.596
151.37
157.062
162.648
168.099
173.391
178.496
183.39
188.047
192.444
196.557
200.363
203.843
206.977
209.747
212.138
214.134
215.725
216.901
217.652
217.973
217.861
217.314
216.333
214.921
213.082
210.823
208.155
205.088
201.636
197.813
193.635
189.123
184.294
179.17
173.774
168.129
162.258
156.186
149.938
143.54
137.018
130.397
123.704
116.963
110.2
103.438
96.702
90.013
83.394
76.865
70.445
64.152
58.004
52.015
46.201
40.574
35.146
29.926
24.924
20.147
15.599
11.286
7.21
3.372
-0.229
-3.594
-6.725
-9.629
-12.308
-14.771
-17.024
-19.076
-20.936
-22.613
-24.119
-25.464
-26.659
-27.716
-28.645
-29.457
-30.165
-30.779
-31.309
-31.765
-32.159
-32.499
-32.795
-33.057
-33.292
-33.509
-33.716
-33.92
-34.128
-34.346
-34.578
-34.83
-35.106
-35.408
-35.74
-36.104
-36.5
-36.93
-37.393
-37.888
-38.415
-38.972
-39.556
-40.165
-40.796
-41.447
-42.114
-42.794
-43.485
-44.183
-44.886
-45.592
-46.297
-47
-47.698
-48.389
-49.07
-49.739
-50.394
-51.033
-51.655
-52.256
-52.836
-53.393
-53.925
-54.432
-54.913
-55.366
-55.792
-56.189
-56.559
-56.902
-57.219
-57.51
-57.777
-58.022
-58.247
-58.452
-58.64
-58.812
-58.97
-59.114
-59.247
-59.37
-59.482
-59.584
-59.678
-59.763
-59.841
-59.911
-59.974
-60.031
-60.082
-60.128
-60.17
-60.208
-60.244
-60.279
-60.313
-60.349
-60.388
-60.429
-60.475
-60.526
-60.583
-60.646
-60.715
-60.79
-60.872
-60.96
-61.053
-61.152
-61.254
-61.361
-61.471
-61.584
-61.699
-61.816
-61.935
-62.055
-62.176
-62.296
-62.416
-62.534
-62.648
-62.757
-62.859
-62.95
-63.028
-63.088
-63.127
-63.14
-63.123
-63.072
-62.981
-62.846
-62.661
-62.422
-62.124
-61.764
-61.336
-60.837
-60.263
-59.611
-58.881
-58.068
-57.172
-56.191
-55.126
-53.975
-52.741
-51.424
-50.024
-48.546
-46.991
-45.365
-43.671
-41.918
-40.112
-38.264
-36.386
-34.492
-32.594
-30.709
-28.853
-27.042
-25.292
-23.618
-22.034
-20.555
-19.196
-17.972
-16.901
-15.997
-15.275
-14.747
-14.424
-14.317
-14.434
-14.775
-15.339
-16.126
-17.141
-18.398
-19.908
-21.678
-23.711
-26.005
-28.552
-31.335
-34.329
-37.489
-40.767
-44.115
-47.488
-50.853
-54.176
-57.408
-60.493
-63.362
-65.944
-68.188
-70.045
-71.472
-72.458
-73.015
-73.197
-73.104
-72.817
-72.421
-72.016
-71.698
-71.589
-71.821
-72.477
-73.661
-75.555
-78.251
-81.762
-85.953
-90.371
-94.515
-97.992
-100.307
-100.89
-99.37
-95.573
-89.846
-83.375
-77.398
-72.782
-70.411
-71.181
-75.628
-83.724
-93.296
-99.774
-98.68
-87.056
-65.766
-37.488
-2.855
40.345
99.704
182.511
290.995
422.739
567.608
712.328
842.649
943.16
999.268
998.047
934.206
810.282
640.311
449.872
264.773
111.446
7.285
-47.91
-62.74
-55.804
-46.482
-41.904
-42.961
-44.79
-40.765
-31.609
-21.315
-13.644
-12.039
-16.43
-24.627
-34.929
-45.5
-54.69
-61.465
-65.215
-65.935
-64.206
-60.866
-56.686
-52.341
-48.48
-45.647
-44.127
-43.972
-45.054
-47.122
-49.94
-53.315
-57.043
-60.928
-64.842
-68.66
-72.258
-75.528
-78.34
-80.591
-82.234
-83.242
-83.607
-83.342
-82.472
-81.046
-79.137
-76.812
-74.131
-71.154
-67.933
-64.529
-61.016
-57.465
-53.947
-50.512
-47.194
-44.018
-40.997
-38.136
-35.432
-32.871
-30.431
-28.093
-25.843
-23.668
-21.554
-19.484
-17.437
-15.392
-13.329
-11.228
-9.07
-6.839
-4.517
-2.089
0.457
3.133
5.949
8.915
12.044
15.344
18.828
22.504
26.379
30.459
34.748
39.25
43.962
48.882
54.006
59.324
64.828
70.506
76.342
82.32
88.421
94.625
100.907
107.242
113.604
119.966
126.297
132.569
138.75
144.808
150.714
156.435
161.941
167.201
172.186
176.866
181.215
185.205
188.813
192.013
194.786
197.112
198.972
200.352
201.239
201.622
201.495
200.853
199.692
198.016
195.827
193.134
189.946
186.275
182.139
177.556
172.546
167.133
161.343
155.203
148.742
141.99
134.979
127.742
120.312
112.723
105.009
97.203
89.339
81.451
73.57
65.729
57.958
50.287
42.744
35.357
28.152
21.153
14.382
7.859
1.604
-4.368
-10.043
-15.41
-20.46
-25.187
-29.588
-33.661
-37.407
-40.831
-43.938
-46.735
-49.233
-51.442
-53.377
-55.05
-56.479
-57.677
-58.663
-59.454
-60.066
-60.517
-60.824
-61.004
-61.074
-61.049
-60.946
-60.781
-60.568
-60.321
-60.054
-59.781
-59.512
-59.258
-59.029
-58.833
-58.677
-58.566
-58.504
-58.495
-58.539
-58.636
-58.785
-58.984
-59.229
-59.514
-59.833
-60.181
-60.55
-60.933
-61.322
-61.71
-62.09
-62.454
-62.796
-63.111
-63.391
-63.633
-63.832
-63.982
-64.081
-64.125
-64.111
-64.037
-63.9
-63.701
-63.437
-63.11
-62.719
-62.266
-61.753
-61.182
-60.556
-59.88
-59.158
-58.396
-57.599
-56.774
-55.929
-55.07
-54.205
-53.341
-52.487
-51.648
-50.833
-50.046
-49.294
-48.583
-47.917
-47.3
-46.736
-46.229
-45.78
-45.392
-45.068
-44.808
-44.613
-44.484
-44.421
-44.424
-44.493
-44.628
-44.826
-45.087
-45.41
-45.792
-46.231
-46.724
-47.267
-47.858
-48.492
-49.164
-49.872
-50.611
-51.376
-52.163
-52.969
-53.788
-54.618
-55.455
-56.296
-57.136
-57.974
-58.806
-59.629
-60.44
-61.238
-62.019
-62.782
-63.522
-64.239
-64.929
-65.588
-66.215
-66.806
-67.357
-67.866
-68.328
-68.74
-69.098
-69.4
-69.642
-69.82
-69.931
-69.971
-69.938
-69.827
-69.635
-69.359
-68.995
-68.539
-67.99
-67.343
-66.597
-65.749
-64.798
-63.741
-62.577
-61.308
-59.933
-58.453
-56.869
-55.185
-53.403
-51.53
-49.568
-47.527
-45.412
-43.234
-41.005
-38.736
-36.44
-34.132
-31.826
-29.537
-27.281
-25.071
-22.923
-20.849
-18.863
-16.982
-15.221
-13.598
-12.126
-10.822
-9.698
-8.767
-8.04
-7.52
-7.211
-7.114
-7.236
-7.587
-8.178
-9.018
-10.113
-11.464
-13.067
-14.91
-16.969
-19.208
-21.586
-24.061
-26.595
-29.156
-31.71
-34.22
-36.639
-38.904
-40.961
-42.755
-44.237
-45.361
-46.104
-46.473
-46.514
-46.316
-45.963
-45.52
-45.061
-44.673
-44.474
-44.602
-45.192
-46.344
-48.193
-50.949
-54.725
-59.504
-65.046
-70.795
-76.15
-80.607
-83.601
-84.487
-82.872
-78.683
-72.479
-65.654
-59.634
-55.555
-54.448
-57.102
-63.837
-74.275
-86.536
-97.222
-102.657
-98.981
-82.374
-49.554
2.804
75.671
165.551
267.587
376.31
488.778
608.223
735.034
861.798
973.977
1047.904
1062.965
1013.496
904.492
750.743
572.716
385.332
202.917
42.994
-82.143
-163.77
-199.729
-200.832
-179.76
-147.793
-115.801
-87.493
-64.725
-47.607
-32.065
-16.187
1.294
18.749
30.958
35.669
32.107
21.48
7.832
-6.614
-20.479
-31.87
-40.319
-45.743
-47.876
-47.294
-44.849
-41.034
-36.698
-33.061
-30.752
-30.053
-31.084
-33.517
-36.994
-41.287
-45.968
-50.476
-54.489
-57.824
-60.411
-62.356
-63.714
-64.49
-64.751
-64.578
-64.033
-63.172
-62.022
-60.588
-58.909
-57.051
-55.088
-53.101
-51.144
-49.246
-47.43
-45.708
-44.088
-42.569
-41.141
-39.787
-38.497
-37.258
-36.062
-34.9
-33.755
-32.605
-31.428
-30.199
-28.895
-27.501
-25.999
-24.375
-22.618
-20.716
-18.66
-16.444
-14.061
-11.502
-8.758
-5.824
-2.692
0.64
4.176
7.916
11.86
16.005
20.346
24.876
29.587
34.468
39.508
44.692
50.003
55.425
60.938
66.52
72.15
77.802
83.452
89.073
94.637
100.117
105.484
110.709
115.764
120.622
125.254
129.635
133.738
137.541
141.02
144.153
146.921
149.305
151.289
152.858
154
154.703
154.961
154.767
154.117
153.011
151.45
149.437
146.979
144.083
140.76
137.023
132.887
128.37
123.491
118.271
112.734
106.904
100.807
94.469
87.92
81.187
74.3
67.286
60.175
52.996
45.777
38.544
31.326
24.147
17.034
10.01
3.098
-3.68
-10.304
-16.756
-23.017
-29.072
-34.906
-40.506
-45.863
-50.966
-55.809
-60.385
-64.691
-68.725
-72.487
-75.98
-79.206
-82.172
-84.883
-87.348
-89.576
-91.577
-93.362
-94.944
-96.333
-97.542
-98.584
-99.471
-100.215
-100.829
-101.325
-101.715
-102.011
-102.222
-102.362
-102.439
-102.464
-102.447
-102.397
-102.323
-102.232
-102.133
-102.032
-101.936
-101.85
-101.779
-101.727
-101.697
-101.691
-101.71
-101.756
-101.828
-101.925
-102.046
-102.191
-102.356
-102.542
-102.744
-102.963
-103.195
-103.439
-103.694
-103.957
-104.228
-104.506
-104.788
-105.075
-105.365
-105.658
-105.951
-106.244
-106.536
-106.826
-107.111
-107.39
-107.662
-107.926
-108.179
-108.421
-108.65
-108.866
-109.068
-109.255
-109.427
-109.584
-109.725
-109.851
-109.961
-110.054
-110.131
-110.192
-110.235
-110.262
-110.27
-110.261
-110.233
-110.185
-110.118
-110.031
-109.923
-109.794
-109.645
-109.477
-109.289
-109.085
-108.865
-108.631
-108.386
-108.133
-107.874
-107.613
-107.353
-107.098
-106.849
-106.612
-106.39
-106.186
-106.004
-105.848
-105.721
-105.626
-105.567
-105.546
-105.565
-105.627
-105.732
-105.884
-106.082
-106.326
-106.618
-106.956
-107.339
-107.765
-108.233
-108.739
-109.279
-109.847
-110.44
-111.051
-111.673
-112.298
-112.919
-113.527
-114.114
-114.67
-115.186
-115.651
-116.056
-116.39
-116.643
-116.805
-116.865
-116.814
-116.642
-116.342
-115.905
-115.325
-114.596
-113.712
-112.67
-111.467
-110.102
-108.574
-106.884
-105.033
-103.026
-100.866
-98.561
-96.117
-93.543
-90.849
-88.05
-85.161
-82.196
-79.174
-76.113
-73.032
-69.951
-66.891
-63.867
-60.899
-58.004
-55.2
-52.508
-49.947
-47.532
-45.281
-43.208
-41.326
-39.648
-38.182
-36.928
-35.889
-35.065
-34.464
-34.105
-34
-34.155
-34.576
-35.261
-36.204
-37.399
-38.824
-40.438
-42.2
-44.063
-45.988
-47.948
-49.906
-51.813
-53.604
-55.202
-56.534
-57.547
-58.194
-58.44
-58.269
-57.693
-56.755
-55.537
-54.137
-52.653
-51.197
-49.888
-48.846
-48.179
-48.034
-48.6
-50.021
-52.366
-55.52
-59.145
-62.877
-66.367
-69.203
-70.908
-71.012
-69.229
-65.902
-62
-58.576
-56.512
-56.569
-59.435
-65.846
-76.409
-89.167
-99.792
-104.449
-99.093
-83.917
-63.65
-38.107
-5.65
38.881
107.809
204.691
328.247
474.551
628.177
775.585
902.182
989.442
1024.556
997.272
905.63
757.415
567.394
357.637
150.451
-32.149
-171.108
-256.775
-286.995
-267.516
-214.434
-146.05
-79.974
-32.885
-9.117
-4.723
-11.802
-17.228
-16.131
-10.64
-4.559
-5.24
-14.842
-30.325
-48.392
-64.488
-75.905
-82.65
-84.992
-83.488
-79.106
-72.692
-65.211
-57.994
-51.993
-47.594
-45.002
-44.159
-44.772
-46.571
-49.186
-52.062
-54.812
-57.22
-59.11
-60.463
-61.293
-61.569
-61.311
-60.572
-59.378
-57.762
-55.758
-53.375
-50.638
-47.596
-44.294
-40.798
-37.177
-33.492
-29.808
-26.17
-22.609
-19.151
-15.811
-12.598
-9.513
-6.547
-3.684
-0.91
1.787
4.423
7.012
9.576
12.137
14.715
17.327
19.992
22.723
25.537
28.448
31.468
34.607
37.874
41.277
44.825
48.526
52.388
56.418
60.621
65.001
69.562
74.303
79.226
84.326
89.598
95.034
100.624
106.357
112.219
118.194
124.265
130.413
136.617
142.857
149.108
155.346
161.547
167.684
173.73
179.659
185.443
191.055
196.466
201.651
206.581
211.232
215.577
219.592
223.254
226.541
229.432
231.908
233.952
235.55
236.688
237.356
237.547
237.257
236.481
235.22
233.477
231.257
228.566
225.414
221.812
217.775
213.317
208.457
203.214
197.609
191.664
185.404
178.853
172.039
164.99
157.732
150.295
142.71
135.005
127.21
119.357
111.475
103.593
95.74
87.943
80.231
72.628
65.159
57.845
50.709
43.77
37.045
30.55
24.3
18.307
12.582
7.133
1.969
-2.906
-7.488
-11.773
-15.763
-19.456
-22.857
-25.968
-28.795
-31.345
-33.625
-35.645
-37.415
-38.945
-40.249
-41.339
-42.227
-42.929
-43.457
-43.826
-44.049
-44.141
-44.114
-43.982
-43.757
-43.451
-43.076
-42.643
-42.161
-41.642
-41.093
-40.524
-39.942
-39.354
-38.766
-38.186
-37.617
-37.066
-36.536
-36.03
-35.553
-35.105
-34.688
-34.304
-33.953
-33.633
-33.345
-33.087
-32.859
-32.657
-32.482
-32.33
-32.2
-32.091
-31.999
-31.925
-31.865
-31.82
-31.786
-31.764
-31.752
-31.75
-31.757
-31.772
-31.796
-31.827
-31.866
-31.911
-31.963
-32.021
-32.084
-32.152
-32.225
-32.303
-32.386
-32.475
-32.569
-32.669
-32.777
-32.891
-33.014
-33.145
-33.285
-33.434
-33.592
-33.761
-33.94
-34.129
-34.33
-34.541
-34.764
-34.997
-35.242
-35.497
-35.763
-36.039
-36.326
-36.624
-36.934
-37.257
-37.593
-37.944
-38.311
-38.695
-39.098
-39.522
-39.967
-40.434
-40.926
-41.443
-41.987
-42.559
-43.161
-43.793
-44.457
-45.153
-45.883
-46.646
-47.444
-48.275
-49.14
-50.038
-50.968
-51.928
-52.919
-53.938
-54.982
-56.05
-57.136
-58.239
-59.352
-60.469
-61.586
-62.694
-63.788
-64.861
-65.904
-66.91
-67.872
-68.782
-69.63
-70.41
-71.112
-71.729
-72.252
-72.673
-72.985
-73.182
-73.256
-73.202
-73.015
-72.69
-72.225
-71.616
-70.862
-69.96
-68.913
-67.72
-66.384
-64.911
-63.304
-61.574
-59.729
-57.781
-55.743
-53.631
-51.46
-49.248
-47.012
-44.77
-42.54
-40.34
-38.187
-36.1
-34.096
-32.195
-30.417
-28.779
-27.302
-26
-24.891
-23.987
-23.297
-22.827
-22.582
-22.57
-22.803
-23.291
-24.044
-25.065
-26.357
-27.918
-29.738
-31.793
-34.047
-36.457
-38.981
-41.58
-44.222
-46.875
-49.504
-52.062
-54.492
-56.743
-58.768
-60.528
-61.982
-63.098
-63.875
-64.359
-64.638
-64.806
-64.929
-65.061
-65.267
-65.623
-66.212
-67.119
-68.391
-70.101
-72.423
-75.462
-79.214
-83.57
-88.152
-92.46
-96.047
-98.32
-98.509
-96.135
-91.096
-83.658
-74.734
-65.662
-57.714
-52.338
-51.446
-55.016
-60.783
-66.809
-70.069
-70.536
-72.316
-74.214
-70.928
-52.265
-3.675
80.006
195.181
332.529
479.091
626.679
766.67
887.241
973.253
1006.804
979.867
895.651
765.652
608.295
439.191
271.721
121.742
4.633
-68.575
-94.923
-83.547
-54.266
-25.401
-8.306
-7.608
-16.786
-27.26
-35.045
-36.533
-34.141
-33.627
-36.334
-43.038
-52.278
-59.702
-63.663
-64.056
-60.994
-55.759
-49.364
-42.236
-35.167
-29.025
-24.194
-20.846
-18.996
-18.426
-18.98
-20.545
-22.908
-25.824
-29.105
-32.616
-36.231
-39.827
-43.238
-46.276
-48.808
-50.761
-52.098
-52.803
-52.876
-52.334
-51.218
-49.598
-47.541
-45.106
-42.355
-39.342
-36.138
-32.823
-29.481
-26.191
-23.015
-19.993
-17.152
-14.508
-12.072
-9.841
-7.805
-5.947
-4.255
-2.72
-1.337
-0.1
1
1.975
2.838
3.6
4.271
