Name
Date of Birth,"Mar 27, 1959"
Recorded Date,2022-08-05 21:40:22 -0500
Classification,Sinus Rhythm
Symptoms,
Software Version,1.90
Device,"Watch4,2"
Sample Rate,510.227 hertz


Lead,Lead I
Unit,µV

91.21
102.513
111.72
117.47
119.019
116.241
109.591
100.218
89.042
76.642
63.934
52.043
41.713
33.329
26.712
21.092
15.97
11.175
6.458
1.656
-3.288
-8.417
-13.53
-18.219
-22.294
-25.704
-28.435
-30.78
-33.063
-35.236
-37.37
-39.621
-41.694
-44.524
-49.006
-53.754
-58.32
-60.309
-56.876
-51.228
-45.464
-42.908
-48.093
-56.985
-66.238
-73.588
-74.911
-73.855
-74.091
-74.833
-77.31
-78.031
-72.73
-65.035
-57.048
-52.206
-55.364
-62.285
-69.392
-74.374
-73.345
-69.103
-64.503
-60.199
-57.938
-56.748
-55.377
-54.062
-52.628
-51.17
-49.951
-48.808
-47.61
-46.406
-45.204
-43.994
-42.784
-41.587
-40.407
-39.268
-38.197
-37.177
-36.195
-35.25
-34.338
-33.453
-32.593
-31.75
-30.915
-30.086
-29.258
-28.426
-27.585
-26.729
-25.849
-24.942
-24
-23.018
-21.99
-20.912
-19.779
-18.589
-17.338
-16.022
-14.641
-13.19
-11.669
-10.077
-8.412
-6.674
-4.866
-2.988
-1.044
0.963
3.027
5.145
7.309
9.515
11.756
14.025
16.317
18.625
20.942
23.262
25.577
27.88
30.164
32.421
34.645
36.829
38.966
41.05
43.075
45.035
46.924
48.737
50.469
52.113
53.667
55.123
56.479
57.731
58.875
59.909
60.831
61.64
62.336
62.919
63.39
63.75
64
64.142
64.179
64.113
63.948
63.689
63.338
62.901
62.383
61.789
61.126
60.4
59.615
58.775
57.887
56.955
55.987
54.994
53.979
52.944
51.909
50.889
49.899
48.957
48.063
47.208
46.413
45.7
45.043
44.423
43.825
43.224
42.653
42.17
41.75
41.343
41.091
41.161
41.456
41.984
42.777
43.479
45.04
48.385
52.186
56.035
57.495
53.647
47.704
41.804
39.133
44.068
52.707
61.738
68.883
70.393
68.911
67.119
65.595
65.965
67.253
68.207
69.041
69.576
69.871
70.152
70.237
69.973
69.386
68.468
67.191
65.551
63.554
61.203
58.515
55.503
52.146
48.425
44.34
39.89
35.08
29.928
24.463
18.731
12.787
6.688
0.487
-5.777
-12.056
-18.3
-24.45
-30.428
-36.165
-41.599
-46.668
-51.315
-55.507
-59.248
-62.593
-65.656
-68.538
-71.319
-74.094
-76.949
-79.986
-83.327
-87.075
-91.31
-96.178
-101.902
-108.585
-116.245
-124.725
-133.528
-142.097
-149.889
-156.13
-159.95
-160.893
-158.733
-153.658
-146.958
-140.146
-134.491
-131.947
-133.178
-136.431
-140.458
-143.618
-145.892
-151.61
-161.428
-170.109
-166.336
-132.474
-57.568
57.771
203.88
364.735
528.944
691.148
845.502
981.816
1083.029
1130.125
1111.403
1028.163
891.964
719.27
527.164
329.712
141.141
-21.725
-143.107
-212.831
-230.932
-210.303
-172.953
-140.303
-125.827
-131.757
-148.769
-163.202
-165.895
-154.704
-134.826
-115.807
-104.176
-101.467
-105.844
-113.513
-122.187
-131.484
-141.377
-151.432
-160.254
-166.783
-170.743
-172.228
-171.688
-169.466
-165.783
-161.365
-157.347
-154.447
-152.98
-152.975
-154.165
-156.355
-159.391
-162.895
-166.33
-169.289
-171.546
-173.031
-173.814
-173.939
-173.411
-172.275
-170.613
-168.509
-166.03
-163.219
-160.094
-156.685
-153.059
-149.291
-145.461
-141.645
-137.89
-134.22
-130.655
-127.202
-123.855
-120.609
-117.446
-114.339
-111.266
-108.209
-105.146
-102.058
-98.92
-95.702
-92.373
-88.904
-85.268
-81.446
-77.418
-73.167
-68.679
-63.941
-58.942
-53.678
-48.14
-42.322
-36.219
-29.826
-23.142
-16.17
-8.915
-1.383
6.416
14.468
22.757
31.263
39.965
48.837
57.852
66.981
76.192
85.45
94.719
103.962
113.14
122.212
131.138
139.878
148.39
156.632
164.564
172.147
179.342
186.111
192.417
198.227
203.509
208.232
212.368
215.894
218.786
221.028
222.603
223.499
223.708
223.226
222.05
220.184
217.634
214.41
210.526
205.998
200.847
195.098
188.776
181.913
174.539
166.692
158.407
149.724
140.683
131.328
121.701
111.847
101.811
91.638
81.374
71.064
60.753
50.484
40.3
30.24
20.346
10.653
1.196
-7.99
-16.877
-25.437
-33.643
-41.475
-48.913
-55.939
-62.542
-68.711
-74.438
-79.72
-84.555
-88.946
-92.897
-96.414
-99.508
-102.191
-104.475
-106.379
-107.919
-109.116
-109.992
-110.569
-110.87
-110.921
-110.746
-110.37
-109.818
-109.114
-108.283
-107.348
-106.331
-105.253
-104.136
-102.998
-101.857
-100.729
-99.63
-98.571
-97.565
-96.621
-95.747
-94.949
-94.231
-93.597
-93.048
-92.584
-92.203
-91.903
-91.679
-91.525
-91.435
-91.401
-91.412
-91.46
-91.535
-91.624
-91.717
-91.802
-91.869
-91.907
-91.904
-91.852
-91.74
-91.56
-91.303
-90.962
-90.531
-90.004
-89.377
-88.647
-87.81
-86.867
-85.816
-84.658
-83.394
-82.026
-80.556
-78.989
-77.328
-75.578
-73.744
-71.831
-69.847
-67.799
-65.693
-63.537
-61.341
-59.111
-56.857
-54.585
-52.305
-50.023
-47.748
-45.486
-43.244
-41.028
-38.843
-36.695
-34.589
-32.528
-30.517
-28.557
-26.651
-24.8
-23.005
-21.268
-19.587
-17.961
-16.392
-14.88
-13.424
-12.025
-10.683
-9.394
-8.158
-6.971
-5.833
-4.741
-3.695
-2.689
-1.725
-0.801
0.082
0.922
1.718
2.475
3.196
3.883
4.538
5.153
5.727
6.256
6.738
7.171
7.554
7.88
8.148
8.363
8.532
8.664
8.763
8.827
8.851
8.827
8.761
8.68
8.607
8.577
8.6
8.656
8.745
8.878
9.064
9.339
9.689
10.014
10.354
10.862
11.673
12.977
14.768
16.758
18.839
21.112
23.418
25.464
26.903
27.172
26.263
24.851
23.296
21.687
20.338
19.556
19.811
21.952
26.037
31.246
37.073
43.214
49.314
55.232
60.593
64.631
67.23
68.932
70.086
70.981
71.802
72.456
73.039
73.883
75.025
76.24
77.358
78.187
78.64
78.802
78.686
78.231
77.433
76.308
74.868
73.152
71.169
68.885
66.286
63.367
60.129
56.601
52.83
48.869
44.785
40.633
36.446
32.244
28.035
23.848
19.754
15.832
12.157
8.803
5.795
3.166
0.997
-0.764
-2.279
-3.774
-5.66
-8.273
-11.659
-15.859
-20.875
-26.406
-32.205
-37.956
-42.838
-46.224
-47.945
-47.746
-45.745
-42.607
-38.585
-33.94
-29.59
-26.104
-23.881
-23.817
-26.063
-29.973
-35.588
-42.891
-51.271
-60.824
-69.873
-73.905
-69.6
-54.004
-26.637
6.759
42.505
80.647
124.606
187.946
283.311
415.927
586.258
779.721
972.971
1142.149
1260.977
1311.796
1288.723
1195.417
1044.955
853.952
639.672
418.52
208.132
29.415
-99.759
-168.615
-176.418
-139.161
-80.912
-24.256
10.239
17.492
5.171
-15.635
-28.766
-27.206
-14.27
3.788
17.178
21.694
19.303
12.851
5.863
-0.248
-5.817
-10.491
-13.74
-15.337
-15.243
-13.834
-11.595
-8.725
-5.539
-2.748
-1.01
-0.651
-1.722
-3.987
-7.101
-10.83
-14.852
-18.674
-21.935
-24.42
-26.027
-26.812
-26.842
-26.135
-24.756
-22.806
-20.357
-17.48
-14.227
-10.623
-6.73
-2.636
1.566
5.773
9.916
13.956
17.864
21.627
25.243
28.718
32.073
35.335
38.526
41.66
44.752
47.816
50.874
53.953
57.081
60.289
63.601
67.04
70.625
74.373
78.296
82.404
86.706
91.203
95.904
100.813
105.935
111.275
116.835
122.612
128.605
134.807
141.21
147.802
154.568
161.492
168.553
175.731
183
190.336
197.711
205.096
212.46
219.771
226.996
234.102
241.053
247.815
254.352
260.629
266.612
272.266
277.56
282.461
286.94
290.97
294.524
297.578
300.112
302.106
303.544
304.413
304.701
304.401
303.507
302.02
299.939
297.271
294.024
290.208
285.837
280.928
275.5
269.575
263.176
256.331
249.067
241.415
233.405
225.073
216.452
207.578
198.488
189.219
179.806
170.288
160.701
151.081
141.464
131.883
122.371
112.962
103.684
94.568
85.64
76.925
68.446
60.226
52.282
44.632
37.291
30.27
23.58
17.229
11.223
5.565
0.258
-4.701
-9.312
-13.582
-17.515
-21.122
-24.411
-27.394
-30.084
-32.494
-34.64
-36.537
-38.201
-39.649
-40.897
-41.962
-42.86
-43.609
-44.225
-44.723
-45.119
-45.428
-45.663
-45.837
-45.963
-46.053
-46.117
-46.164
-46.203
-46.243
-46.289
-46.347
-46.423
-46.52
-46.641
-46.786
-46.958
-47.155
-47.377
-47.621
-47.885
-48.165
-48.459
-48.763
-49.071
-49.381
-49.687
-49.985
-50.272
-50.542
-50.794
-51.022
-51.225
-51.4
-51.544
-51.657
-51.736
-51.782
-51.794
-51.772
-51.717
-51.629
-51.509
-51.36
-51.184
-50.982
-50.759
-50.518
-50.262
-49.995
-49.723
-49.449
-49.179
-48.918
-48.671
-48.441
-48.236
-48.058
-47.913
-47.804
-47.737
-47.713
-47.738
-47.812
-47.94
-48.122
-48.36
-48.656
-49.01
-49.423
-49.895
-50.427
-51.018
-51.67
-52.38
-53.149
-53.976
-54.86
-55.8
-56.795
-57.844
-58.944
-60.094
-61.293
-62.537
-63.826
-65.158
-66.53
-67.94
-69.387
-70.87
-72.385
-73.931
-75.507
-77.111
-78.742
-80.398
-82.078
-83.781
-85.505
-87.249
-89.012
-90.79
-92.582
-94.385
-96.196
-98.011
-99.826
-101.637
-103.44
-105.228
-106.998
-108.744
-110.459
-112.139
-113.777
-115.366
-116.9
-118.371
-119.774
-121.099
-122.34
-123.489
-124.538
-125.48
-126.308
-127.015
-127.593
-128.035
-128.335
-128.487
-128.484
-128.321
-127.993
-127.495
-126.825
-125.981
-124.963
-123.77
-122.404
-120.868
-119.166
-117.304
-115.288
-113.125
-110.823
-108.394
-105.847
-103.194
-100.45
-97.628
-94.746
-91.823
-88.88
-85.938
-83.018
-80.144
-77.338
-74.624
-72.023
-69.555
-67.239
-65.094
-63.139
-61.396
-59.885
-58.624
-57.629
-56.914
-56.492
-56.376
-56.571
-57.072
-57.878
-58.986
-60.398
-62.131
-64.194
-66.587
-69.309
-72.352
-75.703
-79.343
-83.236
-87.322
-91.538
-95.824
-100.123
-104.398
-108.601
-112.673
-116.541
-120.116
-123.32
-126.093
-128.381
-130.14
-131.352
-132.028
-132.23
-132.067
-131.656
-131.124
-130.605
-130.227
-130.127
-130.428
-131.273
-132.858
-135.351
-138.82
-143.174
-148.144
-153.372
-158.489
-163.019
-166.315
-167.755
-166.938
-164.014
-159.678
-154.745
-150.223
-147.225
-146.764
-150.085
-157.074
-165.017
-170.834
-171.286
-164.946
-154.864
-142.438
-124.502
-94.555
-40.787
46.756
168.262
318.919
488.855
663.517
831.409
977.85
1083.886
1134.281
1117.556
1033.019
892.246
712.593
513.826
313.807
128.883
-27.099
-144.664
-219.435
-255.298
-261.635
-247.968
-224.133
-198.313
-175.143
-159.777
-152.876
-149.134
-145.071
-136.662
-123.82
-112.851
-106.866
-106.904
-112.421
-119.834
-127.379
-135.001
-142.072
-147.825
-151.802
-153.689
-153.618
-152.175
-149.693
-146.257
-142.387
-139.036
-136.802
-135.934
-136.431
-137.949
-140.214
-143.094
-146.247
-149.158
-151.493
-153.064
-153.807
-153.833
-153.207
-151.936
-150.084
-147.746
-144.996
-141.907
-138.53
-134.881
-131.013
-127
-122.92
-118.86
-114.878
-111.002
-107.251
-103.632
-100.14
-96.767
-93.494
-90.295
-87.148
-84.034
-80.935
-77.832
-74.701
-71.515
-68.242
-64.853
-61.318
-57.616
-53.724
-49.626
-45.307
-40.754
-35.958
-30.912
-25.608
-20.04
-14.202
-8.089
-1.7
4.966
11.903
19.106
26.567
34.273
42.209
50.357
58.696
67.205
75.859
84.631
93.491
102.409
111.352
120.285
129.173
137.977
146.661
155.184
163.508
171.594
179.404
186.899
194.043
200.801
207.138
213.024
218.428
223.321
227.679
231.479
234.701
237.328
239.345
240.743
241.512
241.65
241.157
240.033
238.286
235.924
232.96
229.408
225.287
220.617
215.423
209.73
203.568
196.968
189.962
182.587
174.878
166.873
158.612
150.133
141.477
132.683
123.792
114.842
105.873
96.923
88.028
79.224
70.546
62.024
53.69
45.572
37.696
30.086
22.763
15.746
9.053
2.698
-3.306
-8.95
-14.226
-19.128
-23.655
-27.804
-31.579
-34.982
-38.021
-40.702
-43.035
-45.033
-46.707
-48.073
-49.146
-49.942
-50.479
-50.776
-50.851
-50.722
-50.409
-49.93
-49.305
-48.551
-47.687
-46.728
-45.692
-44.594
-43.45
-42.272
-41.074
-39.868
-38.665
-37.477
-36.312
-35.179
-34.086
-33.04
-32.047
-31.112
-30.238
-29.429
-28.688
-28.015
-27.411
-26.876
-26.408
-26.006
-25.668
-25.39
-25.17
-25.003
-24.887
-24.816
-24.788
-24.797
-24.84
-24.912
-25.011
-25.131
-25.271
-25.426
-25.593
-25.77
-25.954
-26.142
-26.331
-26.52
-26.705
-26.884
-27.056
-27.217
-27.366
-27.501
-27.621
-27.724
-27.81
-27.879
-27.929
-27.961
-27.976
-27.973
-27.955
-27.922
-27.875
-27.817
-27.75
-27.675
-27.597
-27.516
-27.436
-27.36
-27.29
-27.229
-27.181
-27.147
-27.131
-27.137
-27.168
-27.226
-27.316
-27.441
-27.605
-27.813
-28.067
-28.372
-28.73
-29.145
-29.621
-30.159
-30.763
-31.433
-32.172
-32.98
-33.859
-34.808
-35.826
-36.912
-38.064
-39.277
-40.55
-41.878
-43.254
-44.675
-46.134
-47.625
-49.141
-50.674
-52.218
-53.763
-55.301
-56.823
-58.32
-59.78
-61.194
-62.551
-63.84
-65.05
-66.171
-67.193
-68.105
-68.897
-69.56
-70.083
-70.459
-70.679
-70.736
-70.622
-70.333
-69.864
-69.214
-68.38
-67.362
-66.161
-64.781
-63.226
-61.499
-59.608
-57.56
-55.364
-53.03
-50.569
-47.994
-45.319
-42.56
-39.737
-36.869
-33.978
-31.084
-28.212
-25.384
-22.625
-19.958
-17.403
-14.981
-12.714
-10.621
-8.723
-7.043
-5.599
-4.408
-3.487
-2.849
-2.507
-2.468
-2.733
-3.3
-4.167
-5.337
-6.82
-8.627
-10.759
-13.216
-15.995
-19.08
-22.455
-26.089
-29.927
-33.916
-37.998
-42.116
-46.231
-50.296
-54.255
-58.042
-61.575
-64.777
-67.586
-69.943
-71.798
-73.136
-73.966
-74.346
-74.385
-74.178
-73.83
-73.469
-73.212
-73.197
-73.557
-74.384
-75.817
-78.078
-81.307
-85.525
-90.596
-96.137
-101.712
-106.942
-111.299
-114.049
-114.567
-112.591
-108.411
-102.804
-96.843
-91.521
-87.698
-86.832
-89.458
-93.842
-97.464
-97.209
-91.966
-85.407
-80.271
-74.334
-59.078
-19.067
57.625
172.694
318.073
477.974
638.555
791.507
930.33
1046.915
1128.412
1158.173
1123.534
1022.279
861.177
657.436
434.509
214.76
21.385
-127.016
-222.218
-263.214
-257.471
-221.017
-169.302
-116.602
-77.174
-54.836
-47.502
-50.176
-51.298
-46.112
-36.37
-25.028
-19.059
-21.467
-30.191
-42.557
-54.808
-64.277
-70.288
-72.891
-72.434
-69.407
-64.489
-58.417
-52.007
-46.334
-42.17
-39.795
-39.343
-40.641
-43.322
-47.114
-51.613
-56.272
-60.704
-64.644
-67.925
-70.559
-72.576
-73.959
-74.745
-74.993
-74.745
-74.068
-73.007
-71.582
-69.835
-67.819
-65.601
-63.267
-60.895
-58.555
-56.294
-54.138
-52.103
-50.195
-48.409
-46.734
-45.148
-43.622
-42.128
-40.645
-39.146
-37.606
-35.995
-34.278
-32.42
-30.391
-28.164
-25.714
-23.021
-20.064
-16.828
-13.298
-9.464
-5.319
-0.855
3.936
9.059
14.518
20.312
26.441
32.899
39.678
46.769
54.157
61.824
69.75
77.909
86.277
94.824
103.517
112.323
121.205
130.124
139.041
147.914
156.699
165.352
173.83
182.087
190.079
197.763
205.095
212.033
218.538
224.572
230.097
235.081
239.491
243.298
246.478
249.005
250.862
252.032
252.503
252.265
251.315
249.652
247.28
244.205
240.438
235.995
230.894
225.158
218.811
211.882
204.402
196.406
187.931
179.016
169.701
160.029
150.043
139.788
129.31
118.652
107.861
96.982
86.059
75.137
64.257
53.463
42.793
32.287
21.98
11.908
2.103
-7.406
-16.591
-25.428
-33.896
-41.974
-49.648
-56.904
-63.731
-70.122
-76.073
-81.582
-86.65
-91.279
-95.477
-99.251
-102.612
-105.571
-108.142
-110.341
-112.184
-113.688
-114.873
-115.758
-116.362
-116.707
-116.811
-116.697
-116.385
-115.895
-115.247
-114.461
-113.556
-112.549
-111.459
-110.301
-109.091
-107.843
-106.572
-105.288
-104.003
-102.726
-101.466
-100.23
-99.024
-97.852
-96.718
-95.623
-94.571
-93.56
-92.591
-91.661
-90.77
-89.915
-89.092
-88.298
-87.529
-86.781
-86.05
-85.332
-84.621
-83.914
-83.207
-82.494
-81.773
-81.038
-80.287
-79.515
-78.72
-77.899
-77.049
-76.169
-75.255
-74.308
-73.327
-72.31
-71.258
-70.171
-69.051
-67.898
-66.715
-65.503
-64.266
-63.006
-61.726
-60.429
-59.12
-57.802
-56.479
-55.154
-53.832
-52.516
-51.211
-49.921
-48.649
-47.399
-46.176
-44.983
-43.823
-42.701
-41.62
-40.583
-39.593
-38.654
-37.769
-36.94
-36.171
-35.463
-34.818
-34.24
-33.729
-33.287
-32.916
-32.615
-32.385
-32.227
-32.14
-32.124
-32.178
-32.3
-32.49
-32.745
-33.063
-33.443
-33.881
-34.374
-34.918
-35.51
-36.145
-36.818
-37.526
-38.261
-39.019
-39.793
-40.577
-41.366
-42.151
-42.926
-43.684
-44.417
-45.117
-45.777
-46.389
-46.944
-47.435
-47.852
-48.189
-48.438
-48.591
-48.642
-48.582
-48.406
-48.108
-47.682
-47.122
-46.425
-45.585
-44.602
-43.472
-42.195
-40.771
-39.201
-37.488
-35.633
-33.642
-31.52
-29.272
-26.907
-24.431
-21.856
-19.19
-16.446
-13.638
-10.778
-7.886
-4.98
-2.078
0.799
3.629
6.391
9.063
11.622
14.052
16.332
18.444
20.37
22.09
23.584
24.835
25.827
26.544
26.974
27.105
26.929
26.444
25.653
24.556
23.15
21.423
19.363
16.966
14.232
11.166
7.784
4.105
0.164
-3.985
-8.28
-12.659
-17.061
-21.441
-25.751
-29.936
-33.93
-37.646
-41.002
-43.932
-46.382
-48.306
-49.696
-50.564
-50.973
-51.041
-50.88
-50.615
-50.381
-50.306
-50.534
-51.195
-52.392
-54.276
-57.062
-60.903
-65.841
-71.698
-78.05
-84.456
-90.51
-95.655
-99.191
-100.448
-99.021
-95.269
-90.131
-84.523
-79.321
-75.421
-73.79
-75.449
-79.871
-83.979
-84.243
-78.221
-66.584
-52.174
-34.688
-7.859
39.6
116.687
224.957
356.352
496.384
635.621
769.72
896.34
1011.547
1101.94
1148.855
1137.658
1063.503
933.551
764.929
577.604
389.582
216.688
70.928
-38.571
-107.984
-138.559
-136.016
-113.184
-82.887
-57.905
-48.439
-54.226
-69.819
-85.657
-92.356
-87.66
-74.185
-58.024
-44.22
-34.333
-27.869
-22.631
-17.862
-14.509
-13.382
-15.177
-19.683
-25.506
-31.477
-37.067
-41.757
-45.218
-47.399
-48.238
-48.105
-47.884
-48.243
-49.479
-51.7
-54.756
-58.393
-62.433
-66.584
-70.425
-73.682
-76.228
-78.035
-79.212
-79.872
-80.087
-79.941
-79.532
-78.924
-78.172
-77.326
-76.42
-75.506
-74.647
-73.886
-73.25
-72.753
-72.387
-72.136
-71.975
-71.871
-71.782
-71.679
-71.535
-71.33
-71.044
-70.652
-70.125
-69.436
-68.555
-67.454
-66.108
-64.495
-62.597
-60.399
-57.893
-55.071
-51.931
-48.467
-44.676
-40.556
-36.104
-31.324
-26.22
-20.8
-15.075
-9.06
-2.772
3.765
10.528
17.49
24.622
31.893
39.271
46.72
54.206
61.691
69.137
76.506
83.758
90.855
97.757
104.426
110.824
116.915
122.662
128.032
132.992
137.513
141.565
145.123
148.162
150.663
152.605
153.974
154.757
154.945
154.531
153.513
151.892
149.672
146.862
143.472
139.517
135.013
129.982
124.446
118.429
111.959
105.065
97.778
90.13
82.157
73.892
65.371
56.63
47.707
38.637
29.458
20.206
10.917
1.625
-7.634
-16.827
-25.921
-34.885
-43.688
-52.303
-60.702
-68.862
-76.76
-84.374
-91.687
-98.684
-105.349
-111.673
-117.646
-123.261
-128.512
-133.399
-137.918
-142.073
-145.865
-149.3
-152.382
-155.12
-157.523
-159.599
-161.36
-162.818
-163.983
-164.869
-165.49
-165.859
-165.99
-165.899
-165.6
-165.107
-164.435
-163.6
-162.616
-161.496
-160.254
-158.903
-157.456
-155.924
-154.319
-152.649
-150.925
-149.155
-147.348
-145.509
-143.646
-141.765
-139.869
-137.964
-136.054
-134.141
-132.23
-130.322
-128.419
-126.525
-124.639
-122.765
-120.903
-119.053
-117.218
-115.396
-113.589
-111.796
-110.018
-108.253
-106.502
-104.765
-103.04
-101.328
-99.629
-97.942
-96.268
-94.606
-92.958
-91.323
-89.702
-88.096
-86.506
-84.932
-83.375
-81.837
-80.319
-78.82
-77.342
-75.886
-74.452
-73.04
-71.652
-70.287
-68.945
-67.627
-66.333
-65.063
-63.817
-62.596
-61.4
-60.229
-59.085
-57.967
-56.876
-55.813
-54.779
-53.775
-52.801
-51.858
-50.946
-50.067
-49.221
-48.408
-47.629
-46.885
-46.176
-45.504
-44.868
-44.269
-43.71
-43.19
-42.711
-42.275
-41.883
-41.535
-41.235
-40.982
-40.779
-40.626
-40.525
-40.476
-40.48
-40.537
-40.648
-40.81
-41.024
-41.288
-41.6
-41.958
-42.359
-42.799
-43.277
-43.787
-44.326
-44.889
-45.473
-46.072
-46.681
-47.295
-47.907
-48.51
-49.099
-49.666
-50.202
-50.7
-51.151
-51.546
-51.878
-52.138
-52.316
-52.404
-52.394
-52.277
-52.046
-51.692
-51.21
-50.592
-49.833
-48.93
-47.88
-46.679
-45.327
-43.824
-42.171
-40.37
-38.425
-36.338
-34.115
-31.763
-29.289
-26.701
-24.009
-21.226
-18.365
-15.443
-12.478
-9.489
-6.496
-3.522
-0.589
2.281
5.065
7.742
10.293
12.698
14.936
16.984
18.821
20.426
21.782
22.871
23.678
24.189
24.394
24.294
23.89
23.18
22.16
20.816
19.135
17.113
14.75
12.048
9.022
5.691
2.087
-1.731
-5.707
-9.781
-13.897
-18.015
-22.092
-26.07
-29.885
-33.455
-36.697
-39.553
-41.965
-43.878
-45.28
-46.183
-46.647
-46.788
-46.703
-46.488
-46.261
-46.136
-46.244
-46.721
-47.652
-49.156
-51.443
-54.651
-58.799
-63.729
-68.991
-74.083
-78.582
-81.949
-83.491
-82.651
-79.172
-73.456
-66.601
-59.727
-53.906
-50.147
-49.446
-52.95
-59.83
-66.632
-69.813
-65.198
-52.427
-36.047
-15.661
11.32
52.354
122.212
225.66
361.384
523.378
693.187
856.646
1000.14
1105.75
1165.761
1172.837
1122.623
1022.403
876.511
693.58
491.333
286.392
102.909
-35.208
-120.171
-151.762
-140.518
-107.185
-64.263
-23.427
3.398
15.771
13.374
-0.014
-12.526
-20.316
-23.723
-24.345
-28.557
-37.827
-49.042
-59.87
-67.471
-70.462
-69.323
-64.691
-57.396
-48.709
-40.17
-32.719
-26.758
-22.545
-20.123
-19.504
-20.698
-23.381
-26.917
-30.873
-34.994
-39.075
-43.022
-46.673
-49.791
-52.269
-54.097
-55.274
-55.814
-55.724
-54.981
-53.612
-51.689
-49.281
-46.469
-43.328
-39.915
-36.308
-32.587
-28.832
-25.126
-21.525
-18.063
-14.758
-11.615
-8.63
-5.795
-3.088
-0.479
2.062
4.561
7.044
9.53
12.043
14.607
17.248
19.991
22.858
25.867
29.035
32.375
35.899
39.618
43.539
47.666
52.002
56.553
61.321
66.31
71.519
76.946
82.587
88.435
94.481
100.711
107.11
113.658
120.334
127.114
133.973
140.882
147.814
154.737
161.619
168.428
175.129
181.689
188.073
194.247
200.177
205.829
211.169
216.167
220.791
225.012
228.802
232.137
234.991
237.344
239.175
240.468
241.209
241.386
240.992
240.019
238.468
236.338
233.636
230.37
226.55
222.191
217.312
211.932
206.073
199.762
193.025
185.891
178.391
170.557
162.424
154.025
145.396
136.573
127.592
118.489
109.3
100.062
90.808
81.574
72.394
63.299
54.321
45.491
36.835
28.38
20.152
12.172
4.461
-2.964
-10.087
-16.894
-23.376
-29.524
-35.333
-40.798
-45.918
-50.694
-55.128
-59.225
-62.991
-66.432
-69.56
-72.382
-74.912
-77.162
-79.145
-80.875
-82.367
-83.636
-84.698
-85.567
-86.261
-86.794
-87.182
-87.441
-87.585
-87.629
-87.587
-87.471
-87.296
-87.071
-86.808
-86.516
-86.204
-85.879
-85.547
-85.214
-84.885
-84.564
-84.252
-83.953
-83.667
-83.396
-83.14
-82.897
-82.668
-82.45
-82.242
-82.042
-81.848
-81.656
-81.465
-81.272
-81.073
-80.867
-80.651
-80.421
-80.177
-79.914
-79.631
-79.326
-78.998
-78.644
-78.265
-77.859
-77.427
-76.969
-76.485
-75.978
-75.447
-74.895
-74.324
-73.735
-73.13
-72.513
-71.885
-71.249
-70.609
-69.966
-69.325
-68.687
-68.056
-67.434
-66.824
-66.228
-65.65
-65.09
-64.552
-64.038
-63.549
-63.087
-62.655
-62.255
-61.886
-61.552
-61.252
-60.988
-60.76
-60.569
-60.415
-60.299
-60.22
-60.179
-60.177
-60.212
-60.285
-60.396
-60.546
-60.732
-60.956
-61.216
-61.512
-61.845
-62.212
-62.615
-63.052
-63.524
-64.031
-64.571
-65.145
-65.752
-66.392
-67.063
-67.764
-68.495
-69.255
-70.043
-70.857
-71.697
-72.561
-73.446
-74.351
-75.273
-76.209
-77.156
-78.11
-79.067
-80.023
-80.972
-81.911
-82.836
-83.74
-84.619
-85.467
-86.279
-87.048
-87.769
-88.435
-89.038
-89.573
-90.033
-90.411
-90.702
-90.899
-90.996
-90.988
-90.869
-90.634
-90.277
-89.794
-89.181
-88.433
-87.549
-86.526
-85.365
-84.065
-82.627
-81.053
-79.349
-77.517
-75.563
-73.493
-71.314
-69.033
-66.661
-64.206
-61.68
-59.095
-56.465
-53.807
-51.139
-48.479
-45.845
-43.259
-40.739
-38.307
-35.982
-33.782
-31.722
-29.82
-28.092
-26.553
-25.224
-24.12
-23.253
-22.637
-22.282
-22.197
-22.387
-22.849
-23.576
-24.566
-25.817
-27.339
-29.142
-31.23
-33.605
-36.264
-39.193
-42.375
-45.782
-49.358
-53.05
-56.8
-60.552
-64.265
-67.897
-71.394
-74.691
-77.71
-80.369
-82.603
-84.347
-85.545
-86.184
-86.275
-85.878
-85.101
-84.039
-82.797
-81.515
-80.32
-79.348
-78.747
-78.61
-79.08
-80.43
-82.814
-86.24
-90.577
-95.368
-100.089
-104.334
-107.512
-108.803
-107.667
-103.981
-98.118
-91.205
-84.695
-79.847
-77.849
-80.294
-87.221
-96.231
-104.738
-109.234
-108.111
-104.631
-99.728
-89.287
-65.295
-13.88
75.491
201.808
358.039
531.512
707.53
876.854
1027.123
1142.418
1207.219
1205.21
1131.591
992.913
802.28
581.614
352.147
134.782
-47.002
-176.457
-245.956
-256.278
-221.915
-164.693
-102.68
-54.092
-29.816
-27.404
-41.599
-60.45
-70.218
-68.232
-56.675
-41.519
-31.432
-28.617
-31.305
-37.579
-44.828
-52.059
-59.472
-66.656
-72.931
-78.003
-81.868
-84.457
-85.728
-85.78
-84.81
-83.393
-82.422
-82.338
-83.168
-84.878
-87.27
-90.143
-93.348
-96.563
-99.355
-101.481
-102.859
-103.483
-103.458
-102.856
-101.703
-100.068
-98.046
-95.706
-93.111
-90.317
-87.361
-84.306
-81.231
-78.198
-75.255
-72.433
-69.743
-67.188
-64.76
-62.444
-60.216
-58.059
-55.955
-53.892
-51.852
-49.816
-47.759
-45.655
-43.476
-41.196
-38.786
-36.224
-33.486
-30.558
-27.425
-24.075
-20.5
-16.689
-12.632
-8.319
-3.742
1.106
6.227
11.626
17.302
23.251
29.466
35.937
42.65
49.592
56.743
64.083
71.589
79.235
86.993
94.833
102.723
110.629
118.514
126.343
134.076
141.675
149.101
156.315
163.279
169.953
176.302
182.288
187.879
193.039
197.738
201.947
205.638
208.787
211.37
213.369
214.766
215.547
215.703
215.226
214.113
212.363
209.979
206.969
203.342
199.111
194.293
188.908
182.979
176.529
169.589
162.189
154.361
146.14
137.563
128.669
119.494
110.081
100.469
90.699
80.812
70.85
60.851
50.857
40.907
31.038
21.288
11.692
2.284
-6.904
-15.842
-24.502
-32.858
-40.886
-48.565
-55.877
-62.806
-69.338
-75.463
-81.171
-86.458
-91.32
-95.757
-99.77
-103.363
-106.543
-109.318
-111.697
-113.694
-115.321
-116.592
-117.525
-118.137
-118.444
-118.467
-118.223
-117.734
-117.019
-116.098
-114.99
-113.717
-112.296
-110.747
-109.088
-107.337
-105.51
-103.624
-101.694
-99.734
-97.757
-95.775
-93.8
-91.841
-89.907
-88.006
-86.144
-84.327
-82.559
-80.844
-79.184
-77.581
-76.036
-74.548
-73.116
-71.74
-70.416
-69.143
-67.918
-66.737
-65.597
-64.494
-63.425
-62.385
-61.371
-60.38
-59.408
-58.451
-57.508
-56.575
-55.65
-54.731
-53.816
-52.904
-51.993
-51.083
-50.174
-49.266
-48.359
-47.455
-46.554
-45.658
-44.77
-43.891
-43.023
-42.17
-41.334
-40.519
-39.728
-38.964
-38.231
-37.533
-36.874
-36.257
-35.686
-35.165
-34.697
-34.285
-33.934
-33.644
-33.421
-33.265
-33.179
-33.166
-33.227
-33.364
-33.577
-33.868
-34.236
-34.681
-35.203
-35.8
-36.471
-37.214
-38.027
-38.908
-39.852
-40.859
-41.923
-43.042
-44.212
-45.428
-46.685
-47.978
-49.303
-50.654
-52.025
-53.411
-54.806
-56.203
-57.597
-58.98
-60.347
-61.691
-63.003
-64.277
-65.507
-66.684
-67.801
-68.853
-69.832
-70.732
-71.549
-72.275
-72.907
-73.439
-73.866
-74.185
-74.391
-74.481
-74.449
-74.293
-74.01
-73.597
-73.052
-72.374
-71.561
-70.611
-69.525
-68.302
-66.943
-65.448
-63.819
-62.059
-60.17
-58.157
-56.025
-53.782
-51.433
-48.986
-46.448
-43.829
-41.137
-38.382
-35.573
-32.721
-29.837
-26.932
-24.019
-21.112
-18.227
-15.378
-12.583
-9.858
-7.22
-4.689
-2.286
-0.03
2.061
3.972
5.687
7.19
8.466
9.5
10.28
10.802
11.057
11.037
10.735
10.141
9.257
8.094
6.665
4.979
3.036
0.829
-1.648
-4.386
-7.376
-10.611
-14.086
-17.796
-21.717
-25.8
-29.983
-34.201
-38.406
-42.578
-46.702
-50.752
-54.668
-58.35
-61.697
-64.649
-67.175
-69.26
-70.868
-71.92
-72.428
-72.584
-72.722
-73.185
-74.16
-75.586
-77.348
-79.555
-82.329
-85.566
-88.815
-91.365
-92.71
-92.91
-92.318
-90.952
-88.625
-85.342
-81.535
-78.225
-76.508
-76.856
-79.286
-84.015
-91.265
-101.071
-113.194
-126.537
-139.24
-148.388
-150.031
-140.486
-117.463
-82.643
-39.7
9.735
66.998
139.474
234.889
355.699
498.915
653.113
804.721
938.147
1036.535
1087.468
1078.883
1008.668
884.182
714.152
516.367
308.34
106.472
-66.134
-193.186
-267.227
-287.404
-266.933
-224.069
-173.063
-128.519
-97.872
-79.648
-71.396
-65.502
-55.535
-42.387
-28.872
-20.213
-20.197
-27.888
-40.186
-53.407
-64.972
-73.412
-78.33
-80.083
-78.886
-75.291
-70.243
-64.384
-58.466
-53.549
-50.137
-48.41
-48.466
-49.986
-52.583
-55.993
-59.773
-63.379
-66.505
-68.966
-70.667
-71.689
-72.072
-71.813
-70.984
-69.678
-67.959
-65.899
-63.535
-60.879
-57.986
-54.934
-51.809
-48.707
-45.693
-42.801
-40.059
-37.482
-35.076
-32.841
-30.756
-28.795
-26.934
-25.153
-23.435
-21.762
-20.109
-18.443
-16.733
-14.944
-13.047
-11.016
-8.827
-6.458
-3.889
-1.102
1.915
5.174
8.687
12.468
16.529
20.879
25.528
30.48
35.737
41.301
47.169
53.335
59.788
66.518
73.507
80.74
88.195
95.848
103.675
111.647
119.733
127.901
136.116
144.343
152.543
160.68
168.714
176.606
184.315
191.804
199.031
205.96
212.552
218.772
224.584
229.956
234.857
239.258
243.133
246.458
249.212
251.378
252.939
253.886
254.211
253.908
252.976
251.419
249.241
246.453
243.066
239.097
234.565
229.49
223.897
217.814
211.269
204.293
196.919
189.183
181.119
172.766
164.16
155.341
146.348
137.219
127.994
118.71
109.406
100.117
90.881
81.731
72.7
63.82
55.121
46.63
38.374
30.375
22.657
15.236
8.131
1.354
-5.082
-11.168
-16.897
-22.265
-27.27
-31.912
-36.192
-40.114
-43.684
-46.91
-49.8
-52.367
-54.621
-56.576
-58.247
-59.647
-60.794
-61.702
-62.388
-62.868
-63.16
-63.28
-63.245
-63.071
-62.775
-62.372
-61.878
-61.307
-60.673
-59.988
-59.265
-58.514
-57.747
-56.971
-56.196
-55.428
-54.675
-53.941
-53.232
-52.551
-51.901
-51.284
-50.702
-50.154
-49.64
-49.161
-48.714
-48.298
-47.912
-47.553
-47.22
-46.909
-46.618
-46.344
-46.084
-45.834
-45.591
-45.353
-45.115
-44.874
-44.629
-44.376
-44.112
-43.837
-43.547
-43.24
-42.916
-42.573
-42.208
-41.822
-41.414
-40.982
-40.528
-40.051
-39.553
-39.033
-38.493
-37.934
-37.357
-36.763
-36.154
-35.532
-34.897
-34.252
-33.599
-32.939
-32.277
-31.613
-30.952
-30.296
-29.648
-29.011
-28.388
-27.784
-27.2
-26.641
-26.111
-25.612
-25.149
-24.726
-24.346
-24.013
-23.731
-23.503
-23.333
-23.223
-23.178
-23.198
-23.288
-23.449
-23.683
-23.994
-24.382
-24.85
-25.399
-26.029
-26.741
-27.535
-28.41
-29.365
-30.398
-31.507
-32.689
-33.941
-35.258
-36.637
-38.073
-39.558
-41.089
-42.658
-44.258
-45.881
-47.52
-49.166
-50.81
-52.444
-54.057
-55.641
-57.185
-58.68
-60.114
-61.48
-62.767
-63.964
-65.061
-66.05
-66.921
-67.665
-68.273
-68.738
-69.052
-69.208
-69.202
-69.03
-68.688
-68.173
-67.483
-66.62
-65.583
-64.374
-62.997
-61.456
-59.755
-57.902
-55.904
-53.771
-51.513
-49.143
-46.676
-44.131
-41.524
-38.875
-36.205
-33.535
-30.886
-28.278
-25.729
-23.258
-20.881
-18.618
-16.489
-14.515
-12.712
-11.099
-9.689
-8.498
-7.539
-6.821
-6.344
-6.11
-6.121
-6.387
-6.931
-7.772
-8.921
-10.383
-12.16
-14.242
-16.62
-19.264
-22.12
-25.134
-28.249
-31.412
-34.588
-37.734
-40.793
-43.693
-46.347
-48.667
-50.586
-52.058
-53.068
-53.627
-53.774
-53.58
-53.135
-52.568
-52.045
-51.697
-51.598
-51.823
-52.432
-53.586
-55.612
-58.747
-62.979
-68.228
-74.414
-81.168
-88.006
-94.443
-99.395
-102.746
-106.01
-109.167
-111.53
-111.289
-104.104
-91.468
-79.979
-76.227
-87.187
-109.732
-132.713
-147.731
-149.395
-139.652
-122.877
-95.009
-45.65
34.738
149.628
290.804
442.369
592.944
735.75
866.932
980.5
1062.143
1096.493
1072.021
988.838
858.562
693.445
508.194
315.633
126.875
-38.935
-164.051
-239.128
-261.23
-240.891
-197.487
-146.873
-104.485
-79.96
-71.308
-73.457
-76.98
-73.121
-61.943
-47.858
-37.519
-35.705
-42.077
-53.465
-66.088
-77.665
-87.036
-93.544
-97.177
-97.867
-95.822
-91.876
-86.723
-81.032
-75.838
-71.884
-69.53
-69
-70.135
-72.565
-76.006
-80.065
-84.192
-87.994
-91.226
-93.748
-95.593
-96.813
-97.41
-97.434
-96.966
-96.071
-94.81
-93.226
-91.329
-89.151
-86.757
-84.222
-81.635
-79.077
-76.599
-74.232
-71.996
-69.9
-67.944
-66.118
-64.4
-62.761
-61.178
-59.628
-58.092
-56.549
-54.97
-53.322
-51.571
-49.685
-47.636
-45.4
-42.955
-40.282
-37.363
-34.185
-30.737
-27.013
-23.003
-18.701
-14.098
-9.191
-3.979
1.539
7.358
13.473
19.875
26.553
33.49
40.668
48.067
55.663
63.431
71.342
79.367
87.471
95.622
103.785
111.921
119.994
127.965
135.795
143.445
150.877
158.05
164.929
171.476
177.655
183.434
188.781
193.666
198.062
201.943
205.288
208.076
210.291
211.918
212.945
213.365
213.173
212.368
210.95
208.925
206.301
203.09
199.305
194.964
190.087
184.695
178.815
172.473
165.698
158.521
150.976
143.096
134.915
126.472
117.801
108.94
99.927
90.797
81.587
72.333
63.07
53.832
44.651
35.559
26.587
17.762
9.112
0.663
-7.562
-15.541
-23.255
-30.684
-37.815
-44.632
-51.125
-57.284
-63.101
-68.572
-73.693
-78.463
-82.883
-86.954
-90.681
-94.07
-97.127
-99.862
-102.285
-104.407
-106.239
-107.793
-109.084
-110.124
-110.927
-111.506
-111.876
-112.05
-112.042
-111.865
-111.531
-111.055
-110.448
-109.723
-108.891
-107.964
-106.952
-105.865
-104.712
-103.503
-102.246
-100.948
-99.616
-98.257
-96.877
-95.481
-94.073
-92.657
-91.237
-89.814
-88.392
-86.97
-85.551
-84.136
-82.724
-81.318
-79.917
-78.522
-77.135
-75.756
-74.386
-73.028
-71.682
-70.35
-69.035
-67.737
-66.461
-65.207
-63.979
-62.779
-61.611
-60.476
-59.379
-58.321
-57.305
-56.334
-55.411
-54.537
-53.715
-52.947
-52.237
-51.586
-50.998
-50.473
-50.016
-49.628
-49.31
-49.066
-48.896
-48.801
-48.781
-48.838
-48.97
-49.177
-49.458
-49.812
-50.237
-50.73
-51.29
-51.913
-52.596
-53.335
-54.129
-54.972
-55.861
-56.793
-57.765
-58.774
-59.816
-60.891
-61.993
-63.123
-64.275
-65.45
-66.643
-67.852
-69.075
-70.311
-71.556
-72.809
-74.068
-75.332
-76.599
-77.868
-79.137
-80.405
-81.67
-82.933
-84.19
-85.442
-86.688
-87.926
-89.156
-90.375
-91.584
-92.779
-93.958
-95.12
-96.259
-97.373
-98.456
-99.504
-100.513
-101.475
-102.387
-103.241
-104.032
-104.754
-105.399
-105.96
-106.43
-106.802
-107.067
-107.219
-107.251
-107.156
-106.927
-106.557
-106.042
-105.376
-104.553
-103.569
-102.42
-101.102
-99.612
-97.948
-96.111
-94.101
-91.919
-89.569
-87.057
-84.389
-81.572
-78.613
-75.523
-72.311
-68.989
-65.571
-62.069
-58.5
-54.881
-51.234
-47.58
-43.942
-40.344
-36.806
-33.354
-30.011
-26.804
-23.753
-20.881
-18.208
-15.754
-13.543
-11.595
-9.929
-8.557
-7.489
-6.735
-6.302
-6.199
-6.424
-6.976
-7.847
-9.033
-10.536
-12.359
-14.5
-16.954
-19.707
-22.743
-26.043
-29.582
-33.322
-37.214
-41.206
-45.239
-49.255
-53.203
-57.032
-60.689
-64.136
-67.312
-70.151
-72.586
-74.546
-76.002
-76.989
-77.534
-77.636
-77.383
-76.929
-76.563
-76.743
-77.73
-79.526
-82.132
-85.585
-89.832
-94.741
-99.694
-103.507
-105.384
-105.092
-102.589
-97.943
-91.214
-82.556
-73.103
-64.996
-59.902
-58.93
-62.76
-71.664
-86.278
-105.361
-124.58
-139.333
-144.937
-141.515
-134.928
-125.714
-110.825
-80.408
-16.08
89.088
233.819
409.922
595.1
773.071
930.452
1050.903
1128.184
1153.929
1120.801
1032.826
894.073
715.714
516.762
314.472
129.91
-16.874
-114.721
-159.077
-154.66
-117.947
-67.887
-22.276
2.562
3.288
-14.697
-42.693
-66.531
-79.764
-83.698
-81.601
-80.464
-83.157
-87.714
-91.849
-92.864
-89.987
-84.429
-77.402
-69.947
-62.777
-56.344
-51.12
-47.389
-45.194
-44.428
-44.886
-46.394
-48.792
-51.876
-55.423
-59.257
-63.209
-67.108
-70.784
-74.042
-76.733
-78.776
-80.127
-80.766
-80.696
-79.939
-78.542
-76.583
-74.137
-71.27
-68.048
-64.529
-60.787
-56.91
-52.982
-49.089
-45.289
-41.617
-38.095
-34.731
-31.524
-28.46
-25.516
-22.655
-19.85
-17.078
-14.32
-11.556
-8.764
-5.917
-2.991
0.039
3.195
6.494
9.954
13.589
17.412
21.432
25.653
30.079
34.714
39.563
44.629
49.914
55.42
61.144
67.083
73.231
79.579
86.116
92.827
99.693
106.696
113.813
121.02
128.29
135.596
142.908
150.197
157.429
164.573
171.595
178.462
185.139
191.594
197.791
203.699
209.283
214.513
219.359
223.79
227.78
231.304
234.336
236.856
238.844
240.284
241.161
241.463
241.181
240.309
238.846
236.791
234.148
230.926
227.132
222.782
217.891
212.478
206.564
200.172
193.329
186.062
178.4
170.374
162.017
153.362
144.445
135.301
125.966
116.477
106.872
97.186
87.458
77.722
68.015
58.372
48.826
39.411
30.157
21.095
12.253
3.657
-4.667
-12.698
-20.414
-27.798
-34.835
-41.511
-47.815
-53.739
-59.276
-64.422
-69.174
-73.533
-77.498
-81.075
-84.267
-87.083
-89.53
-91.619
-93.361
-94.769
-95.857
-96.641
-97.135
-97.357
-97.324
-97.054
-96.564
-95.874
-95.002
-93.967
-92.786
-91.479
-90.064
-88.557
-86.975
-85.335
-83.651
-81.937
-80.207
-78.473
-76.747
-75.039
-73.359
-71.716
-70.119
-68.575
-67.09
-65.67
-64.32
-63.044
-61.843
-60.722
-59.68
-58.718
-57.837
-57.035
-56.31
-55.662
-55.087
-54.581
-54.142
-53.765
-53.445
-53.179
-52.96
-52.784
-52.647
-52.544
-52.469
-52.42
-52.39
-52.377
-52.377
-52.385
-52.398
-52.413
-52.425
-52.431
-52.429
-52.415
-52.387
-52.343
-52.28
-52.198
-52.094
-51.969
-51.821
-51.649
-51.456
-51.24
-51.003
-50.746
-50.471
-50.18
-49.876
-49.562
-49.241
-48.915
-48.588
-48.264
-47.945
-47.635
-47.337
-47.054
-46.789
-46.546
-46.327
-46.137
-45.979
-45.855
-45.769
-45.723
-45.722
-45.766
-45.86
-46.004
-46.2
-46.451
-46.758
-47.121
-47.542
-48.02
-48.555
-49.146
-49.792
-50.491
-51.239
-52.035
-52.875
-53.756
-54.674
-55.624
-56.602
-57.605
-58.625
-59.659
-60.7
-61.744
-62.782
-63.81
-64.82
-65.806
-66.761
-67.678
-68.55
-69.371
-70.133
-70.83
-71.455
-72
-72.459
-72.825
-73.092
-73.255
-73.307
-73.244
-73.062
-72.757
-72.325
-71.763
-71.069
-70.241
-69.277
-68.175
-66.937
-65.562
-64.051
-62.407
-60.633
-58.731
-56.707
-54.565
-52.312
-49.955
-47.5
-44.958
-42.336
-39.646
-36.898
-34.106
-31.282
-28.442
-25.603
-22.783
-19.999
-17.271
-14.617
-12.058
-9.612
-7.295
-5.125
-3.116
-1.285
0.352
1.779
2.979
3.939
4.646
5.087
5.254
5.139
4.74
4.061
3.105
1.869
0.344
-1.478
-3.602
-6.027
-8.749
-11.757
-15.035
-18.556
-22.271
-26.128
-30.071
-34.05
-38.025
-41.957
-45.8
-49.489
-52.945
-56.095
-58.874
-61.231
-63.123
-64.527
-65.439
-65.917
-66.066
-65.985
-65.785
-65.574
-65.438
-65.492
-65.856
-66.631
-67.958
-70.057
-73.092
-77.111
-82.052
-87.643
-93.484
-99.161
-104.072
-107.367
-108.323
-106.622
-102.319
-95.99
-88.74
-81.763
-76.374
-74.561
-76.947
-81.668
-86.744
-89.635
-89.786
-91.716
-97.48
-102.871
-98.285
-66.523
7.204
124.849
280.292
459.916
645.901
827.457
993.482
1128.282
1219.246
1251.728
1217.117
1121.234
973.586
789.018
585.261
377.565
184.208
22.843
-93.289
-160.309
-183.403
-171.472
-138.911
-96.088
-52.522
-21.817
-8.145
-11.896
-28.48
-44.652
-54.809
-58.896
-58.898
-61.13
-66.982
-73.988
-80.342
-83.586
-82.861
-78.951
-72.568
-64.826
-57.184
-50.685
-45.849
-42.85
-41.645
-42.209
-44.527
-48.396
-53.309
-58.749
-64.384
-69.978
-75.406
-80.51
-85.055
-88.898
-91.998
-94.358
-96
-96.94
-97.172
-96.724
-95.673
-94.095
-92.077
-89.705
-87.044
-84.18
-81.201
-78.191
-75.232
-72.381
-69.667
-67.11
-64.716
-62.476
-60.382
-58.413
-56.539
-54.734
-52.971
-51.224
-49.466
-47.668
-45.797
-43.82
-41.704
-39.42
-36.946
-34.258
-31.341
-28.181
-24.766
-21.082
-17.115
-12.843
-8.251
-3.33
1.921
7.498
13.383
19.549
25.963
32.587
39.388
46.342
53.437
60.674
68.052
75.575
83.229
90.982
98.806
106.673
114.564
122.464
130.375
138.315
146.311
154.404
162.606
170.908
179.26
187.58
195.765
203.692
211.263
218.401
225.037
231.113
236.566
241.337
245.347
248.509
250.718
251.852
251.82
250.57
248.1
244.464
239.749
234.084
227.581
220.336
212.436
203.951
194.951
185.504
175.688
165.586
155.308
144.987
134.74
124.663
114.816
105.218
95.86
86.701
77.71
68.866
60.158
51.594
43.19
34.964
26.94
19.143
11.578
4.232
-2.903
-9.838
-16.567
-23.071
-29.318
-35.265
-40.874
-46.112
-50.953
-55.386
-59.407
-63.019
-66.235
-69.074
-71.551
-73.675
-75.458
-76.905
-78.03
-78.85
-79.383
-79.652
-79.679
-79.49
-79.108
-78.555
-77.85
-77.01
-76.051
-74.983
-73.818
-72.568
-71.246
-69.863
-68.433
-66.966
-65.474
-63.968
-62.458
-60.952
-59.458
-57.982
-56.528
-55.1
-53.704
-52.342
-51.017
-49.731
-48.487
-47.286
-46.131
-45.023
-43.963
-42.951
-41.987
-41.071
-40.204
-39.383
-38.61
-37.884
-37.204
-36.571
-35.986
-35.448
-34.96
-34.521
-34.132
-33.793
-33.506
-33.269
-33.084
-32.951
-32.871
-32.846
-32.875
-32.96
-33.103
-33.302
-33.56
-33.875
-34.247
-34.676
-35.161
-35.701
-36.296
-36.943
-37.642
-38.392
-39.192
-40.04
-40.935
-41.875
-42.857
-43.879
-44.94
-46.035
-47.163
-48.32
-49.504
-50.711
-51.939
-53.185
-54.445
-55.715
-56.992
-58.272
-59.552
-60.828
-62.098
-63.357
-64.603
-65.833
-67.045
-68.237
-69.407
-70.552
-71.67
-72.759
-73.819
-74.846
-75.84
-76.8
-77.725
-78.613
-79.465
-80.28
-81.058
-81.799
-82.502
-83.169
-83.799
-84.392
-84.949
-85.471
-85.959
-86.412
-86.833
-87.221
-87.578
-87.903
-88.198
-88.463
-88.698
-88.902
-89.077
-89.221
-89.336
-89.421
-89.475
-89.499
-89.491
-89.45
-89.375
-89.264
-89.114
-88.924
-88.691
-88.413
-88.088
-87.711
-87.282
-86.796
-86.252
-85.645
-84.973
-84.234
-83.424
-82.541
-81.586
-80.555
-79.45
-78.27
-77.016
-75.688
-74.29
-72.82
-71.283
-69.682
-68.019
-66.299
-64.529
-62.715
-60.868
-58.998
-57.119
-55.243
-53.381
-51.552
-49.77
-48.056
-46.426
-44.895
-43.475
-42.185
-41.038
-40.053
-39.243
-38.615
-38.176
-37.935
-37.899
-38.081
-38.485
-39.104
-39.93
-40.953
-42.171
-43.597
-45.238
-47.09
-49.15
-51.413
-53.873
-56.534
-59.38
-62.367
-65.443
-68.545
-71.621
-74.648
-77.609
-80.491
-83.266
-85.856
-88.185
-90.191
-91.807
-93.011
-93.784
-94.049
-93.85
-93.36
-92.831
-92.706
-93.404
-95.025
-97.602
-101.163
-105.473
-110.309
-115.288
-119.379
-121.523
-121.235
-118.274
-112.777
-105.397
-96.536
-86.743
-77.655
-71.299
-69.197
-72.431
-81.359
-95.435
-114.284
-137.638
-162.66
-184.167
-197.64
-198.432
-186.058
-165.338
-136.841
-98.882
-45.461
35.996
149.43
292.663
458.699
629.982
793.59
937.728
1046.981
1113.404
1126.739
1079.279
975.131
819.393
625.466
414.198
204.302
17.879
-126.492
-220.636
-262.909
-259.544
-225.004
-174.15
-121.555
-83.167
-65.317
-66.818
-81.13
-93.41
-95.335
-86.506
-70.687
-57.283
-50.958
-50.872
-55.181
-60.61
-65.789
-71.132
-76.195
-80.3
-83.09
-84.382
-84.352
-83.249
-81.103
-78.004
-74.531
-71.574
-69.665
-68.954
-69.349
-70.576
-72.438
-74.79
-77.289
-79.478
-81.068
-81.918
-82.013
-81.458
-80.315
-78.607
-76.401
-73.787
-70.837
-67.617
-64.172
-60.532
-56.757
-52.924
-49.109
-45.378
-41.771
-38.309
-35.001
-31.847
-28.837
-25.952
-23.17
-20.469
-17.836
-15.251
-12.7
-10.161
-7.61
-5.021
-2.368
0.378
3.238
6.234
9.384
12.701
16.197
19.883
23.765
27.853
32.156
36.68
41.432
46.417
51.637
57.092
62.78
68.695
74.829
81.169
87.703
94.414
101.282
108.287
115.406
122.612
129.877
137.173
144.468
151.728
158.919
166.007
172.955
179.728
186.289
192.603
198.633
204.346
209.707
214.685
219.248
223.367
227.014
230.164
232.794
234.883
236.412
237.367
237.735
237.507
236.677
235.243
233.205
230.567
227.337
223.526
219.147
214.217
208.756
202.786
196.334
189.428
182.096
174.373
166.292
157.888
149.198
140.259
131.11
121.79
112.337
102.791
93.19
83.573
73.977
64.441
54.998
45.685
36.534
27.576
18.841
10.356
2.146
-5.766
-13.36
-20.616
-27.521
-34.06
-40.222
-46.001
-51.39
-56.387
-60.991
-65.204
-69.03
-72.476
-75.548
-78.257
-80.613
-82.629
-84.319
-85.696
-86.777
-87.577
-88.114
-88.405
-88.469
-88.322
-87.983
-87.47
-86.801
-85.991
-85.059
-84.018
-82.885
-81.674
-80.397
-79.069
-77.7
-76.301
-74.882
-73.451
-72.017
-70.585
-69.162
-67.752
-66.359
-64.986
-63.636
-62.31
-61.011
-59.739
-58.495
-57.279
-56.093
-54.935
-53.806
-52.705
-51.632
-50.586
-49.568
-48.577
-47.613
-46.677
-45.771
-44.895
-44.051
-43.241
-42.466
-41.729
-41.032
-40.378
-39.769
-39.208
-38.697
-38.24
-37.84
-37.5
-37.222
-37.009
-36.862
-36.785
-36.778
-36.842
-36.978
-37.186
-37.466
-37.817
-38.24
-38.732
-39.292
-39.919
-40.609
-41.359
-42.166
-43.026
-43.934
-44.885
-45.874
-46.896
-47.944
-49.014
-50.099
-51.193
-52.29
-53.386
-54.474
-55.549
-56.606
-57.64
-58.647
-59.624
-60.567
-61.473
-62.342
-63.172
-63.961
-64.709
-65.416
-66.083
-66.711
-67.299
-67.851
-68.366
-68.849
-69.3
-69.724
-70.122
-70.499
-70.856
-71.198
-71.528
-71.848
-72.162
-72.471
-72.779
-73.086
-73.396
-73.708
-74.024
-74.344
-74.665
-74.988
-75.308
-75.623
-75.928
-76.218
-76.487
-76.729
-76.939
-77.108
-77.231
-77.298
-77.303
-77.237
-77.094
-76.864
-76.539
-76.113
-75.577
-74.926
-74.153
-73.253
-72.222
-71.055
-69.75
-68.305
-66.721
-64.997
-63.134
-61.136
-59.009
-56.759
-54.393
-51.923
-49.361
-46.722
-44.024
-41.285
-38.526
-35.769
-33.035
-30.349
-27.732
-25.207
-22.795
-20.516
-18.392
-16.447
-14.704
-13.185
-11.909
-10.895
-10.161
-9.722
-9.592
-9.773
-10.266
-11.074
-12.202
-13.668
-15.484
-17.651
-20.167
-23.029
-26.221
-29.725
-33.509
-37.511
-41.675
-45.946
-50.268
-54.61
-58.93
-63.17
-67.264
-71.127
-74.68
-77.873
-80.656
-82.974
-84.812
-86.184
-87.147
-87.819
-88.299
-88.668
-89.013
-89.401
-89.914
-90.664
-91.734
-93.264
-95.448
-98.382
-102.106
-106.555
-111.412
-116.244
-120.579
-123.734
-124.92
-123.577
-119.346
-112.276
-103.182
-93.289
-83.865
-76.457
-71.897
-69.645
-69.075
-68.839
-69.205
-72.728
-79.927
-89.021
-91.374
-72.895
-22.59
66.234
189.799
337.014
498.15
662.115
821.595
968.331
1086.526
1162.601
1182.176
1136.042
1028.247
865.881
663.733
442.373
221.297
23.269
-133.383
-238.069
-288.82
-293.063
-262.239
-211.456
-154.108
-101.478
-62.259
-37.325
-23.82
-15.466
-6.512
3.052
10.619
11.592
3.01
-13.424
-34.069
-54.509
-71.055
-82.487
-88.946
-90.891
-89.083
-84.439
-77.94
-70.884
-64.8
-60.568
-58.475
-58.587
-60.587
-64.085
-68.752
-74.046
-79.309
-84.11
-88.215
-91.528
-94.125
-96.05
-97.29
-97.886
-97.909
-97.418
-96.472
-95.103
-93.315
-91.14
-88.64
-85.895
-82.996
-80.028
-77.046
-74.083
-71.165
-68.304
-65.511
-62.784
-60.112
-57.472
-54.845
-52.214
-49.564
-46.879
-44.136
-41.304
-38.354
-35.257
-31.992
-28.538
-24.879
-20.999
-16.885
-12.529
-7.922
-3.063
2.055
7.436
13.083
18.999
25.183
31.632
38.341
45.304
52.51
59.948
67.602
75.454
83.484
91.671
99.988
108.411
116.911
125.456
134.015
142.555
151.041
159.437
167.706
175.812
183.716
191.383
198.775
205.855
212.59
218.944
224.886
230.385
235.413
239.942
243.949
247.412
250.312
252.632
254.358
255.479
255.987
255.878
255.15
253.805
251.847
249.284
246.127
242.391
238.091
233.246
227.88
222.015
215.679
208.9
201.708
194.137
186.219
177.989
169.484
160.74
151.793
142.682
133.443
124.112
114.725
105.318
95.924
86.576
77.305
68.143
59.118
50.256
41.583
33.123
24.897
16.924
9.222
1.807
-5.309
-12.115
-18.6
-24.759
-30.586
-36.079
-41.235
-46.056
-50.543
-54.702
-58.538
-62.058
-65.27
-68.186
-70.814
-73.167
-75.257
-77.097
-78.699
-80.076
-81.241
-82.208
-82.988
-83.595
-84.041
-84.338
-84.496
-84.528
-84.444
-84.253
-83.965
-83.589
-83.133
-82.604
-82.009
-81.354
-80.646
-79.89
-79.09
-78.251
-77.376
-76.468
-75.531
-74.566
-73.576
-72.56
-71.522
-70.46
-69.377
-68.272
-67.147
-66.003
-64.84
-63.661
-62.465
-61.256
-60.036
-58.806
-57.568
-56.327
-55.084
-53.842
-52.606
-51.379
-50.164
-48.966
-47.789
-46.636
-45.511
-44.418
-43.361
-42.342
-41.365
-40.433
-39.549
-38.715
-37.934
-37.21
-36.543
-35.937
-35.393
-34.913
-34.498
-34.149
-33.867
-33.652
-33.503
-33.42
-33.402
-33.447
-33.555
-33.723
-33.948
-34.229
-34.563
-34.945
-35.374
-35.844
-36.353
-36.897
-37.471
-38.074
-38.7
-39.347
-40.013
-40.695
-41.39
-42.096
-42.811
-43.532
-44.258
-44.986
-45.715
-46.442
-47.167
-47.887
-48.601
-49.309
-50.008
-50.698
-51.379
-52.048
-52.704
-53.347
-53.975
-54.587
-55.182
-55.759
-56.317
-56.855
-57.373
-57.869
-58.343
-58.792
-59.214
-59.608
-59.97
-60.298
-60.587
-60.833
-61.033
-61.183
-61.278
-61.315
-61.288
-61.194
-61.027
-60.785
-60.461
-60.052
-59.553
-58.962
-58.274
-57.486
-56.598
-55.606
-54.511
-53.311
-52.006
-50.598
-49.086
-47.474
-45.763
-43.956
-42.058
-40.073
-38.009
-35.871
-33.669
-31.414
-29.118
-26.796
-24.463
-22.136
-19.832
-17.569
-15.367
-13.242
-11.212
-9.292
-7.498
-5.847
-4.354
-3.04
-1.921
-1.01
-0.323
0.129
0.334
0.286
-0.018
-0.577
-1.39
-2.465
-3.815
-5.458
-7.401
-9.649
-12.203
-15.05
-18.176
-21.553
-25.131
-28.857
-32.678
-36.541
-40.406
-44.233
-47.97
-51.552
-54.896
-57.916
-60.547
-62.731
-64.425
-65.623
-66.335
-66.621
-66.587
-66.331
-65.97
-65.629
-65.43
-65.522
-66.057
-67.17
-69.058
-71.977
-76.077
-81.366
-87.634
-94.368
-101.009
-107.042
-111.8
-114.519
-114.652
-112.026
-107.191
-101.453
-96.222
-92.692
-91.929
-94.88
-102.071
-113.184
-126.287
-138.031
-144.586
-141.857
-125.889
-92.961
-39.444
35.93
130.452
239.873
358.778
483.949
616.052
753.005
888.678
1009.142
1094.445
1128.977
1102.883
1018.915
889.393
725.324
541.315
350.571
165.208
4.831
-115.315
-188.711
-214.906
-205.574
-176.893
-140.741
-109.076
-89.035
-80.356
-80.711
-82.883
-79.961
-71.204
-59.634
-51.161
-49.68
-54.98
-64.756
-75.668
-86.045
-95.295
-102.416
-107.115
-109.379
-109.257
-107.446
-104.565
-100.841
-96.863
-93.584
-91.579
-91.139
-92.29
-94.666
-97.966
-102.01
-106.444
-110.779
-114.636
-117.77
-120.084
-121.642
-122.493
-122.642
-122.133
-121.035
-119.43
-117.39
-114.965
-112.185
-109.088
-105.745
-102.236
-98.645
-95.055
-91.516
-88.062
-84.713
-81.479
-78.358
-75.345
-72.427
-69.578
-66.78
-64.016
-61.269
-58.523
-55.756
-52.942
-50.052
-47.061
-43.945
-40.686
-37.266
-33.67
-29.885
-25.9
-21.706
-17.297
-12.666
-7.806
-2.711
2.624
8.202
14.022
20.082
26.378
32.901
39.643
46.589
53.725
61.031
68.488
76.072
83.76
91.522
99.332
107.158
114.968
122.728
130.403
137.958
145.358
152.564
159.54
166.251
172.661
178.734
184.437
189.737
194.604
199.009
202.925
206.326
209.192
211.502
213.239
214.389
214.941
214.888
214.225
212.95
211.068
208.582
205.501
201.838
197.608
192.828
187.52
181.706
175.413
168.668
161.503
153.95
146.042
137.816
129.308
120.556
111.599
102.474
93.221
83.879
74.485
65.077
55.693
46.366
37.133
28.024
19.073
10.307
1.755
-6.558
-14.609
-22.378
-29.845
-36.995
-43.813
-50.288
-56.411
-62.175
-67.576
-72.612
-77.282
-81.589
-85.537
-89.132
-92.381
-95.293
-97.879
-100.152
-102.123
-103.808
-105.22
-106.375
-107.289
-107.978
-108.459
-108.746
-108.853
-108.796
-108.588
-108.246
-107.784
-107.215
-106.553
-105.809
-104.994
-104.119
-103.194
-102.224
-101.216
-100.171
-99.096
-97.998
-96.881
-95.754
-94.617
-93.465
-92.296
-91.109
-89.899
-88.667
-87.408
-86.115
-84.788
-83.431
-82.047
-80.646
-79.23
-77.795
-76.336
-74.84
-73.313
-71.779
-70.259
-68.786
-67.366
-65.979
-64.621
-63.3
-62.024
-60.825
-59.687
-58.506
-57.32
-56.281
-55.523
-55.233
-55.401
-55.735
-56.127
-56.676
-57.222
-57.465
-57.058
-55.431
-52.581
-49.189
-45.613
-41.945
-38.506
-35.604
-33.72
-33.713
-35.642
-38.688
-42.356
-46.35
-50.321
-54.145
-57.451
-59.487
-60.159
-60.032
-59.471
-58.784
-58.172
-57.56
-57.062
-57.031
-57.511
-58.288
-59.204
-60.078
-60.841
-61.59
-62.339
-63.025
-63.638
-64.193
-64.712
-65.24
-65.785
-66.31
-66.793
-67.222
-67.592
-67.918
-68.205
-68.456
-68.673
-68.855
-69.005
-69.128
-69.225
-69.301
-69.359
-69.4
-69.428
-69.448
-69.463
-69.479
-69.498
-69.515
-69.529
-69.536
-69.533
-69.518
-69.489
-69.442
-69.371
-69.273
-69.142
-68.973
-68.762
-68.5
-68.181
-67.799
-67.345
-66.814
-66.199
-65.494
-64.694
-63.792
-62.784
-61.665
-60.433
-59.085
-57.618
-56.033
-54.329
-52.507
-50.572
-48.526
-46.376
-44.129
-41.796
-39.387
-36.917
-34.4
-31.853
-29.295
-26.743
-24.218
-21.738
-19.322
-16.989
-14.758
-12.649
-10.682
-8.88
-7.264
-5.856
-4.674
-3.739
-3.067
-2.673
-2.564
-2.747
-3.227
-4.012
-5.12
-6.562
-8.349
-10.481
-12.958
-15.769
-18.895
-22.302
-25.937
-29.743
-33.663
-37.646
-41.653
-45.642
-49.569
-53.371
-56.972
-60.304
-63.305
-65.929
-68.133
-69.889
-71.212
-72.168
-72.881
-73.472
-74.038
-74.661
-75.426
-76.443
-77.828
-79.702
-82.153
-85.304
-89.363
-94.435
-100.49
-107.309
-114.395
-121.158
-127.021
-131.27
-133.069
-131.868
-127.519
-120.428
-111.636
-102.389
-93.997
-87.869
-85.396
-86.567
-89.649
-92.228
-91.822
-88.838
-84.931
-78.286
-62.626
-25.461
44.816
149.987
282.662
426.819
568.03
701.531
827.488
947.817
1056.981
1139.514
1176.629
1151.76
1059.494
905.308
704.931
481.941
260.687
65.752
-84.972
-183.988
-232.611
-240.185
-218.668
-179.968
-134.387
-92.282
-61.952
-46.015
-43.171
-45.864
-46.532
-43.367
-37.919
-35.526
-39.901
-50.217
-63.426
-75.335
-83.499
-87.425
-87.435
-84.385
-78.993
-72.017
-64.621
-57.964
-52.765
-49.492
-48.248
-48.874
-51.17
-54.792
-59.257
-64.014
-68.652
-72.876
-76.485
-79.416
-81.629
-83.099
-83.854
-83.946
-83.419
-82.316
-80.692
-78.582
-76.039
-73.134
-69.932
-66.517
-62.979
-59.396
-55.847
-52.388
-49.048
-45.848
-42.798
-39.896
-37.133
-34.491
-31.939
-29.454
-27.011
-24.588
-22.161
-19.699
-17.172
-14.551
-11.808
-8.92
-5.868
-2.63
0.809
4.463
8.344
12.459
16.816
21.42
26.278
31.394
36.771
42.41
48.306
54.458
60.857
67.494
74.356
81.428
88.69
96.123
103.702
111.403
119.199
127.061
134.958
142.859
150.729
158.536
166.243
173.816
181.217
188.413
195.367
202.044
208.409
214.43
220.075
225.312
230.113
234.452
238.303
241.643
244.454
246.716
248.416
249.541
250.083
250.035
249.395
248.163
246.342
243.939
240.964
237.427
233.345
228.735
223.617
218.014
211.949
205.449
198.543
191.259
183.629
175.685
167.46
158.988
150.304
141.444
132.441
123.331
114.15
104.93
95.707
86.512
77.377
68.334
59.411
50.636
42.036
33.636
25.458
17.525
9.855
2.466
-4.627
-11.411
-17.874
-24.008
-29.804
-35.258
-40.367
-45.127
-49.54
-53.606
-57.329
-60.713
-63.765
-66.493
-68.904
-71.009
-72.818
-74.345
-75.6
-76.597
-77.35
-77.872
-78.179
-78.285
-78.205
-77.954
-77.547
-77
-76.326
-75.542
-74.66
-73.695
-72.66
-71.568
-70.43
-69.259
-68.065
-66.858
-65.65
-64.448
-63.261
-62.098
-60.966
-59.871
-58.819
-57.816
-56.866
-55.972
-55.14
-54.371
-53.668
-53.032
-52.466
-51.97
-51.544
-51.187
-50.9
-50.681
-50.528
-50.44
-50.413
-50.446
-50.536
-50.68
-50.874
-51.116
-51.402
-51.729
-52.093
-52.491
-52.92
-53.374
-53.852
-54.348
-54.86
-55.383
-55.915
-56.453
-56.992
-57.53
-58.063
-58.59
-59.107
-59.612
-60.103
-60.579
-61.037
-61.477
-61.899
-62.301
-62.685
-63.05
-63.397
-63.727
-64.041
-64.34
-64.625
-64.898
-65.161
-65.416
-65.664
-65.908
-66.148
-66.389
-66.631
-66.876
-67.127
-67.385
-67.654
-67.934
-68.227
-68.536
-68.862
-69.205
-69.568
-69.95
-70.352
-70.774
-71.216
-71.676
-72.154
-72.647
-73.154
-73.672
-74.197
-74.727
-75.258
-75.786
-76.306
-76.813
-77.303
-77.771
-78.212
-78.621
-78.994
-79.324
-79.608
-79.839
-80.013
-80.124
-80.166
-80.134
-80.023
-79.827
-79.542
-79.165
-78.691
-78.116
-77.439
-76.655
-75.763
-74.763
-73.652
-72.43
-71.098
-69.657
-68.11
-66.46
-64.711
-62.869
-60.939
-58.927
-56.842
-54.691
-52.482
-50.223
-47.923
-45.594
-43.246
-40.89
-38.54
-36.209
-33.916
-31.676
-29.508
-27.429
-25.457
-23.61
-21.905
-20.358
-18.979
-17.782
-16.777
-15.977
-15.396
-15.043
-14.926
-15.053
-15.428
-16.055
-16.936
-18.067
-19.435
-21.032
-22.85
-24.889
-27.164
-29.679
-32.434
-35.425
-38.644
-42.077
-45.709
-49.503
-53.401
-57.343
-61.272
-65.139
-68.908
-72.533
-75.951
-79.093
-81.872
-84.208
-86.05
-87.353
-88.077
-88.216
-87.787
-86.837
-85.483
-83.858
-82.102
-80.368
-78.783
-77.454
-76.527
-76.206
-76.689
-78.091
-80.348
-83.212
-86.4
-89.629
-92.544
-94.631
-95.317
-94.203
-91.444
-87.728
-83.834
-80.715
-79.434
-80.96
-86.518
-95.903
-106.191
-114.111
-116.5
-112.699
-106.917
-101.242
-92.492
-72.454
-26.488
56.746
177.34
328.289
495.191
660.6
813.58
941.82
1032.341
1077.2
1066.293
998.66
882.097
723.22
537.359
340.5
148.602
-14.507
-133.321
-203.39
-229.204
-228.93
-220.309
-211.007
-202.868
-191.7
-172.371
-146.234
-117.746
-91.271
-71.058
-58.91
-54.162
-55.536
-61.524
-70.402
-80.565
-91.012
-100.614
-107.908
-112.28
-113.675
-112.219
-108.609
-103.669
-97.903
-92.082
-87.273
-84.003
-82.477
-82.737
-84.441
-87.241
-90.894
-94.958
-98.874
-102.311
-105.077
-107.092
-108.442
-109.165
-109.255
-108.777
-107.815
-106.438
-104.707
-102.659
-100.305
-97.698
-94.913
-92.037
-89.166
-86.36
-83.653
-81.067
-78.612
-76.289
-74.095
-72.008
-70.002
-68.052
-66.14
-64.249
-62.362
-60.455
-58.497
-56.46
-54.308
-52.016
-49.562
-46.925
-44.087
-41.034
-37.753
-34.237
-30.48
-26.475
-22.215
-17.693
-12.904
-7.844
-2.513
3.087
8.954
15.08
21.456
28.069
34.903
41.941
49.164
56.549
64.073
71.709
79.43
87.206
95.006
102.797
110.544
118.214
125.771
133.179
140.403
147.407
154.156
160.618
166.758
172.546
177.951
182.944
187.5
191.593
195.2
198.301
200.879
202.918
204.407
205.336
205.699
205.494
204.721
203.384
201.489
199.044
196.063
192.561
188.555
184.066
179.116
173.732
167.94
161.769
155.251
148.417
141.3
133.935
126.355
118.596
110.692
102.679
94.592
86.464
78.329
70.221
62.17
54.207
46.36
38.657
31.123
23.782
16.654
9.76
3.117
-3.26
-9.358
-15.166
-20.674
-25.877
-30.771
-35.354
-39.625
-43.587
-47.245
-50.603
-53.668
-56.451
-58.959
-61.205
-63.2
-64.957
-66.489
-67.811
-68.937
-69.882
-70.66
-71.285
-71.773
-72.136
-72.39
-72.545
-72.615
-72.611
-72.545
-72.426
-72.264
-72.068
-71.845
-71.601
-71.343
-71.075
-70.801
-70.523
-70.243
-69.963
-69.682
-69.399
-69.115
-68.826
-68.533
-68.23
-67.917
-67.591
-67.247
-66.882
-66.495
-66.08
-65.636
-65.16
-64.649
-64.102
-63.517
-62.892
-62.226
-61.52
-60.772
-59.982
-59.151
-58.279
-57.367
-56.416
-55.428
-54.406
-53.351
-52.268
-51.157
-50.024
-48.871
-47.702
-46.521
-45.33
-44.135
-42.939
-41.745
-40.558
-39.382
-38.219
-37.075
-35.95
-34.85
-33.776
-32.731
-31.717
-30.736
-29.791
-28.883
-28.015
-27.187
-26.402
-25.662
-24.968
-24.322
-23.726
-23.181
-22.688
-22.25
-21.869
-21.545
-21.28
-21.078
-20.938
-20.863
-20.855
-20.915
-21.045
-21.245
-21.517
-21.861
-22.279
-22.77
-23.336
-23.975
-24.688
-25.472
-26.328
-27.254
-28.246
-29.302
-30.418
-31.59
-32.813
-34.082
-35.392
-36.736
-38.106
-39.496
-40.898
-42.302
-43.698
-45.076
-46.425
-47.733
-48.99
-50.184
-51.303
-52.335
-53.269
-54.094
-54.798
-55.371
-55.802
-56.082
-56.202
-56.153
-55.93
-55.526
-54.938
-54.163
-53.2
-52.048
-50.711
-49.191
-47.492
-45.619
-43.58
-41.383
-39.04
-36.561
-33.96
-31.254
-28.463
-25.609
-22.714
-19.802
-16.899
-14.029
-11.219
-8.493
-5.873
-3.378
-1.032
1.144
3.125
4.891
6.424
7.705
8.72
9.454
9.894
10.036
9.883
9.436
8.697
7.655
6.292
4.598
2.57
0.209
-2.48
-5.489
-8.802
-12.382
-16.168
-20.097
-24.108
-28.148
-32.181
-36.147
-39.977
-43.591
-46.892
-49.803
-52.276
-54.26
-55.71
-56.625
-57.017
-56.94
-56.524
-55.896
-55.182
-54.522
-54.019
-53.777
-53.951
-54.751
-56.371
-58.894
-62.26
-66.264
-70.655
-75.168
-79.418
-82.792
-84.636
-84.58
-82.642
-79.266
-75.24
-71.475
-69.01
-69.277
-72.847
-78.475
-84.043
-86.784
-86.337
-86.16
-89.172
-95.29
-96.451
-77.413
-24.515
70.673
204.218
363.015
534.034
703.432
861.516
997.985
1096.813
1143.119
1124.706
1039.068
895.015
708.072
498.686
287.364
94.441
-62.322
-171.42
-230.229
-244.931
-227.101
-191.503
-149.903
-112.591
-87.555
-75.598
-74.346
-76.866
-75.753
-69.659
-61.2
-55.837
-57.144
-64.331
-74.228
-82.764
-88.082
-90.23
-89.393
-86.134
-80.943
-74.258
-67.201
-60.984
-56.112
-52.806
-51.209
-51.234
-52.81
-55.791
-59.706
-63.968
-68.19
-72.09
-75.46
-78.234
-80.336
-81.695
-82.335
-82.315
-81.689
-80.521
-78.863
-76.744
-74.212
-71.328
-68.155
-64.78
-61.292
-57.772
-54.299
-50.927
-47.69
-44.612
-41.705
-38.968
-36.39
-33.947
-31.612
-29.362
-27.177
-25.033
-22.91
-20.774
-18.595
-16.344
-13.992
-11.515
-8.889
-6.094
-3.108
0.082
3.492
7.131
11.008
15.132
19.515
24.162
29.08
34.272
39.74
45.482
51.497
57.778
64.315
71.094
78.102
85.319
92.726
100.299
108.011
115.836
123.742
131.698
139.67
147.622
155.517
163.317
170.981
178.472
185.749
192.773
199.504
205.904
211.936
217.565
222.757
227.48
231.703
235.399
238.544
241.115
243.092
244.459
245.203
245.314
244.786
243.617
241.807
239.36
236.285
232.593
228.299
223.419
217.976
211.992
205.494
198.511
191.075
183.22
174.982
166.397
157.506
148.347
138.962
129.391
119.676
109.858
99.976
90.072
80.184
70.35
60.607
50.991
41.534
32.269
23.224
14.429
5.907
-2.319
-10.227
-17.802
-25.026
-31.888
-38.377
-44.484
-50.206
-55.537
-60.479
-65.031
-69.199
-72.987
-76.405
-79.46
-82.166
-84.534
-86.579
-88.315
-89.759
-90.927
-91.836
-92.503
-92.948
-93.186
-93.237
-93.119
-92.847
-92.44
-91.914
-91.283
-90.564
-89.77
-88.914
-88.009
-87.065
-86.094
-85.106
-84.109
-83.111
-82.12
-81.142
-80.182
-79.246
-78.335
-77.455
-76.606
-75.791
-75.01
-74.263
-73.552
-72.874
-72.231
-71.619
-71.039
-70.489
-69.966
-69.469
-68.997
-68.546
-68.114
-67.702
-67.306
-66.925
-66.559
-66.206
-65.866
-65.537
-65.219
-64.912
-64.614
-64.326
-64.047
-63.776
-63.514
-63.26
-63.014
-62.777
-62.549
-62.329
-62.118
-61.916
-61.723
-61.54
-61.367
-61.205
-61.054
-60.915
-60.789
-60.677
-60.581
-60.501
-60.439
-60.396
-60.374
-60.373
-60.394
-60.44
-60.511
-60.608
-60.733
-60.888
-61.073
-61.29
-61.541
-61.827
-62.15
-62.51
-62.91
-63.35
-63.832
-64.356
-64.924
-65.535
-66.191
-66.892
-67.637
-68.427
-69.259
-70.133
-71.045
-71.994
-72.976
-73.986
-75.022
-76.077
-77.147
-78.226
-79.308
-80.387
-81.457
-82.509
-83.537
-84.532
-85.486
-86.39
-87.236
-88.014
-88.715
-89.331
-89.852
-90.271
-90.578
-90.764
-90.822
-90.743
-90.52
-90.146
-89.614
-88.919
-88.056
-87.023
-85.817
-84.437
-82.883
-81.157
-79.261
-77.199
-74.977
-72.599
-70.074
-67.411
-64.62
-61.713
-58.702
-55.601
-52.429
-49.203
-45.943
-42.67
-39.406
-36.173
-32.995
-29.895
-26.898
-24.024
-21.294
-18.732
-16.358
-14.195
-12.265
-10.588
-9.182
-8.065
-7.252
-6.754
-6.583
-6.741
-7.228
-8.045
-9.197
-10.694
-12.544
-14.748
-17.304
-20.203
-23.428
-26.959
-30.761
-34.783
-38.967
-43.258
-47.601
-51.952
-56.268
-60.494
-64.564
-68.399
-71.918
-75.059
-77.77
-80.004
-81.741
-82.984
-83.778
-84.222
-84.415
-84.463
-84.465
-84.519
-84.746
-85.272
-86.208
-87.68
-89.85
-92.82
-96.638
-101.226
-106.24
-111.281
-115.943
-119.678
-121.899
-122.114
-119.907
-115.298
-109.069
-102.072
-95.046
-89.025
-84.871
-83.247
-85.097
-89.215
-91.772
-89.728
-79.848
-61.936
-39.998
-13.403
21.692
72.73
150.628
257.469
387.881
532.576
678.901
819.299
947.939
1054.61
1126.527
1147.527
1104.955
997.478
832.8
628.673
408.222
194.794
11.518
-126.656
-213.346
-252.188
-254.323
-228.793
-186.315
-135.11
-83.842
-46.805
-29.997
-33.947
-52.76
-71.823
-84.469
-89.962
-90.318
-92.571
-98.641
-106.227
-113.628
-118.024
-118.108
-114.822
-109.027
-101.688
-94.128
-87.336
-81.772
-77.771
-75.561
-75.064
-76.187
-78.779
-82.365
-86.421
-90.595
-94.596
-98.203
-101.293
-103.734
-105.428
-106.373
-106.611
-106.178
-105.109
-103.432
-101.177
-98.396
-95.155
-91.527
-87.583
-83.405
-79.076
-74.683
-70.311
-66.023
-61.86
-57.847
-53.997
-50.308
-46.773
-43.378
-40.094
-36.899
-33.771
-30.689
-27.629
-24.568
-21.477
-18.33
-15.103
-11.771
-8.314
-4.714
-0.955
2.977
7.093
11.4
15.903
20.611
25.528
30.66
36.011
41.584
47.377
53.39
59.619
66.058
72.696
79.521
86.518
93.669
100.954
108.352
115.837
123.384
130.964
138.547
146.101
153.595
160.993
168.262
175.365
182.267
188.933
195.327
201.414
207.161
212.535
217.504
222.04
226.114
229.701
232.776
235.319
237.31
238.733
239.575
239.824
239.473
238.518
236.956
234.791
232.028
228.674
224.741
220.244
215.201
209.631
203.558
197.007
190.006
182.585
174.775
166.611
158.127
149.361
140.348
131.128
121.739
112.22
102.609
92.944
83.264
73.604
64.001
54.49
45.105
35.877
26.837
18.015
9.436
1.125
-6.894
-14.602
-21.981
-29.014
-35.69
-41.996
-47.926
-53.473
-58.634
-63.408
-67.795
-71.799
-75.425
-78.68
-81.573
-84.114
-86.317
-88.194
-89.761
-91.033
-92.026
-92.757
-93.245
-93.507
-93.562
-93.427
-93.122
-92.663
-92.069
-91.358
-90.546
-89.65
-88.685
-87.666
-86.607
-85.521
-84.419
-83.312
-82.21
-81.123
-80.057
-79.02
-78.017
-77.054
-76.133
-75.259
-74.434
-73.657
-72.931
-72.254
-71.626
-71.045
-70.511
-70.02
-69.571
-69.16
-68.786
-68.445
-68.134
-67.85
-67.59
-67.352
-67.132
-66.928
-66.737
-66.556
-66.386
-66.223
-66.066
-65.916
-65.77
-65.629
-65.492
-65.36
-65.233
-65.112
-64.996
-64.888
-64.788
-64.698
-64.619
-64.553
-64.501
-64.465
-64.446
-64.445
-64.465
-64.505
-64.566
-64.651
-64.758
-64.889
-65.045
-65.226
-65.431
-65.661
-65.917
-66.196
-66.499
-66.824
-67.171
-67.539
-67.925
-68.328
-68.748
-69.182
-69.629
-70.087
-70.555
-71.03
-71.511
-71.996
-72.482
-72.967
-73.451
-73.93
-74.404
-74.87
-75.328
-75.777
-76.214
-76.64
-77.052
-77.449
-77.83
-78.194
-78.538
-78.862
-79.163
-79.441
-79.693
-79.919
-80.117
-80.285
-80.422
-80.524
-80.591
-80.619
-80.605
-80.546
-80.44
-80.283
-80.073
-79.807
-79.482
-79.095
-78.643
-78.123
-77.531
-76.866
-76.123
-75.299
-74.393
-73.4
-72.321
-71.154
-69.897
-68.552
-67.119
-65.598
-63.994
-62.307
-60.54
-58.698
-56.786
-54.808
-52.772
-50.685
-48.557
-46.398
-44.222
-42.043
-39.877
-37.74
-35.648
-33.62
-31.673
-29.824
-28.086
-26.475
-25.003
-23.685
-22.538
-21.578
-20.817
-20.269
-19.945
-19.855
-20.008
-20.409
-21.054
-21.94
-23.064
-24.43
-26.05
-27.939
-30.099
-32.533
-35.239
-38.205
-41.417
-44.847
-48.44
-52.139
-55.884
-59.621
-63.311
-66.906
-70.349
-73.571
-76.485
-79.011
-81.085
-82.652
-83.669
-84.116
-84.005
-83.392
-82.379
-81.084
-79.638
-78.186
-76.864
-75.813
-75.163
-75.062
-75.722
-77.332
-79.98
-83.589
-87.902
-92.562
-97.201
-101.343
-104.337
-105.561
-104.591
-101.544
-97.108
-92.09
-87.543
-84.652
-84.442
-88.134
-95.565
-104.036
-110.672
-112.43
-108.119
-100.67
-90.612
-74.016
-43.289
14.118
106.643
232.73
385.32
552.193
721.12
885.139
1034.092
1153.628
1226.383
1232.884
1164.585
1025.921
833.388
613.249
391.191
189.822
25.321
-93.106
-164.297
-192.791
-184.748
-152.952
-108.227
-62.466
-31.707
-19.938
-26.36
-44.556
-59.282
-65.057
-62.954
-56.298
-53.54
-57.669
-66.407
-77.546
-87.684
-94.671
-98.557
-99.677
-98.424
-95.395
-91.221
-86.329
-81.29
-76.976
-73.944
-72.467
-72.716
-74.522
-77.582
-81.7
-86.527
-91.551
-96.388
-100.72
-104.337
-107.214
-109.339
-110.683
-111.267
-111.14
-110.349
-108.967
-107.045
-104.606
-101.692
-98.358
-94.68
-90.757
-86.682
-82.546
-78.416
-74.335
-70.333
-66.429
-62.626
-58.924
-55.307
-51.751
-48.238
-44.756
-41.289
-37.826
-34.348
-30.832
-27.255
-23.596
-19.838
-15.968
-11.974
-7.844
-3.573
0.846
5.413
10.128
14.993
20.01
25.18
30.504
35.983
41.614
47.394
53.319
59.385
65.581
71.898
78.323
84.842
91.439
98.098
104.799
111.523
118.247
124.95
131.608
138.197
144.69
151.064
157.292
163.347
169.206
174.84
180.227
185.341
190.16
194.662
198.825
202.63
206.058
209.094
211.721
213.926
215.698
217.025
217.9
218.317
218.271
217.761
216.787
215.351
213.458
211.114
208.328
205.11
201.473
197.432
193.002
188.201
183.049
177.565
171.773
165.695
159.355
152.776
145.985
139.007
131.866
124.588
117.199
109.723
102.185
94.609
87.017
79.434
71.881
64.378
56.947
49.607
42.375
35.269
28.306
21.499
14.863
8.41
2.152
-3.903
-9.745
-15.368
-20.766
-25.934
-30.869
-35.57
-40.035
-44.265
-48.261
-52.025
-55.56
-58.869
-61.956
-64.826
-67.483
-69.933
-72.179
-74.228
-76.084
-77.752
-79.237
-80.544
-81.677
-82.643
-83.445
-84.088
-84.576
-84.915
-85.108
-85.16
-85.074
-84.855
-84.507
-84.033
-83.437
-82.722
-81.891
-80.947
-79.892
-78.731
-77.465
-76.096
-74.629
-73.065
-71.409
-69.663
-67.831
-65.918
-63.929
-61.869
-59.743
-57.557
-55.32
-53.036
-50.715
-48.364
-45.99
-43.603
-41.21
-38.82
-36.442
-34.085
-31.756
-29.465
-27.22
-25.028
-22.899
-20.84
-18.859
-16.964
-15.161
-13.459
-11.864
-10.382
-9.02
-7.783
-6.676
-5.703
-4.867
-4.173
-3.621
-3.212
-2.947
-2.826
-2.846
-3.007
-3.304
-3.734
-4.292
-4.974
-5.773
-6.685
-7.702
-8.818
-10.026
-11.32
-12.691
-14.133
-15.638
-17.199
-18.807
-20.456
-22.136
-23.841
-25.563
-27.294
-29.025
-30.751
-32.465
-34.159
-35.827
-37.463
-39.062
-40.62
-42.131
-43.593
-45.002
-46.357
-47.654
-48.895
-50.077
-51.201
-52.267
-53.276
-54.228
-55.123
-55.963
-56.749
-57.481
-58.159
-58.787
-59.364
-59.892
-60.372
-60.805
-61.193
-61.537
-61.837
-62.094
-62.309
-62.481
-62.611
-62.699
-62.746
-62.751
-62.712
-62.63
-62.503
-62.328
-62.105
-61.83
-61.5
-61.112
-60.664
-60.152
-59.574
-58.928
-58.212
-57.425
-56.566
-55.635
-54.634
-53.561
-52.419
-51.209
-49.935
-48.599
-47.206
-45.762
-44.274
-42.752
-41.207
-39.65
-38.094
-36.552
-35.039
-33.567
-32.153
-30.805
-29.535
-28.357
-27.282
-26.325
-25.503
-24.828
-24.312
-23.966
-23.802
-23.828
-24.051
-24.468
-25.077
-25.88
-26.882
-28.101
-29.554
-31.248
-33.189
-35.378
-37.809
-40.473
-43.346
-46.384
-49.538
-52.758
-55.998
-59.225
-62.401
-65.471
-68.367
-71.005
-73.307
-75.21
-76.666
-77.631
-78.088
-78.044
-77.549
-76.69
-75.576
-74.327
-73.073
-71.963
-71.152
-70.774
-71.007
-72.073
-74.139
-77.28
-81.38
-86.06
-90.886
-95.474
-99.33
-101.862
-102.592
-101.227
-98.071
-94.224
-90.859
-88.916
-89.43
-93.282
-101.046
-113.202
-127.737
-139.979
-145.994
-141.606
-126.086
-103.181
-71.982
-30.015
28.071
113.34
227.941
368.812
530.099
696.846
857.239
998.587
1103.855
1159.333
1151.969
1076.646
938.922
753.082
541.635
328.1
135.498
-18.653
-125.989
-186.253
-206.403
-196.567
-168.135
-131.064
-96.071
-72.267
-61.999
-63.141
-67.236
-65.869
-57.561
-45.416
-36.081
-34.261
-39.89
-50.226
-61.518
-71.567
-79.407
-84.565
-87.223
-87.446
-85.476
-82.107
-77.94
-73.547
-69.841
-67.433
-66.619
-67.58
-70.134
-73.929
-78.699
-84.06
-89.476
-94.552
-99.028
-102.751
-105.736
-108.016
-109.582
-110.471
-110.759
-110.51
-109.79
-108.644
-107.087
-105.153
-102.91
-100.439
-97.836
-95.188
-92.553
-89.965
-87.447
-85.011
-82.657
-80.377
-78.15
-75.946
-73.741
-71.516
-69.253
-66.934
-64.534
-62.023
-59.369
-56.542
-53.519
-50.279
-46.804
-43.078
-39.088
-34.825
-30.282
-25.457
-20.345
-14.943
-9.247
-3.256
3.029
9.604
16.462
23.595
30.991
38.635
46.509
54.59
62.854
71.277
79.828
88.477
97.19
105.934
114.672
123.367
131.981
140.474
148.807
156.94
164.835
172.451
179.751
186.696
193.252
199.382
205.053
210.236
214.9
219.018
222.568
225.525
227.874
229.596
230.681
231.119
230.904
230.034
228.513
226.344
223.537
220.105
216.064
211.433
206.234
200.491
194.233
187.489
180.291
172.672
164.667
156.314
147.649
138.711
129.54
120.175
110.656
101.022
91.314
81.569
71.826
62.123
52.495
42.977
33.603
24.404
15.409
6.645
-1.862
-10.089
-18.017
-25.627
-32.906
-39.84
-46.419
-52.638
-58.49
-63.974
-69.09
-73.839
-78.226
-82.255
-85.936
-89.275
-92.284
-94.975
-97.359
-99.451
-101.266
-102.818
-104.125
-105.203
-106.068
-106.739
-107.231
-107.562
-107.75
-107.81
-107.759
-107.613
-107.385
-107.089
-106.74
-106.347
-105.922
-105.474
-105.012
-104.543
-104.072
-103.605
-103.146
-102.698
-102.263
-101.844
-101.442
-101.056
-100.688
-100.337
-100.001
-99.68
-99.371
-99.073
-98.783
-98.498
-98.217
-97.937
-97.654
-97.366
-97.07
-96.763
-96.443
-96.108
-95.755
-95.383
-94.99
-94.575
-94.139
-93.681
-93.203
-92.704
-92.188
-91.654
-91.105
-90.544
-89.973
-89.394
-88.809
-88.221
-87.633
-87.047
-86.465
-85.891
-85.325
-84.771
-84.23
-83.704
-83.195
-82.704
-82.232
-81.782
-81.354
-80.95
-80.571
-80.217
-79.889
-79.588
-79.315
-79.069
-78.851
-78.66
-78.496
-78.359
-78.249
-78.164
-78.106
-78.072
-78.063
-78.078
-78.118
-78.181
-78.268
-78.378
-78.513
-78.67
-78.852
-79.059
-79.291
-79.55
-79.835
-80.149
-80.491
-80.864
-81.267
-81.701
-82.167
-82.666
-83.198
-83.763
-84.361
-84.992
-85.654
-86.348
-87.071
-87.821
-88.597
-89.394
-90.209
-91.039
-91.879
-92.726
-93.573
-94.416
-95.249
-96.066
-96.861
-97.628
-98.359
-99.047
-99.683
-100.261
-100.771
-101.208
-101.562
-101.825
-101.99
-102.049
-101.994
-101.818
-101.515
-101.076
-100.498
-99.773
-98.899
-97.872
-96.691
-95.354
-93.861
-92.216
-90.42
-88.479
-86.396
-84.178
-81.832
-79.369
-76.796
-74.126
-71.37
-68.543
-65.661
-62.744
-59.808
-56.875
-53.966
-51.103
-48.307
-45.601
-43.005
-40.537
-38.218
-36.066
-34.101
-32.345
-30.818
-29.535
-28.515
-27.769
-27.312
-27.153
-27.291
-27.725
-28.455
-29.481
-30.816
-32.471
-34.45
-36.756
-39.387
-42.331
-45.572
-49.081
-52.809
-56.703
-60.706
-64.764
-68.837
-72.881
-76.844
-80.661
-84.251
-87.53
-90.427
-92.876
-94.821
-96.243
-97.146
-97.578
-97.639
-97.412
-97.001
-96.531
-96.107
-95.851
-95.89
-96.309
-97.255
-98.994
-101.69
-105.372
-109.937
-114.984
-120.049
-124.744
-128.488
-130.482
-130.143
-127.276
-122.176
-115.799
-109.473
-104.419
-101.778
-103.117
-108.519
-115.715
-122.352
-125.27
-123.358
-120.279
-117.095
-109.874
-90.32
-43.718
41.018
163.641
317.895
490.626
665.533
832.079
976.555
1083.427
1142.593
1143.095
1084.356
975.396
823.468
642.737
447.718
252.951
81.061
-51.055
-135.953
-174.454
-179.086
-163.959
-137.778
-107.423
-78.961
-57.027
-45.885
-45.189
-47.8
-47.086
-40.213
-29.081
-19.936
-16.809
-19.857
-27.24
-35.864
-44.197
-51.881
-58.04
-62.325
-64.657
-64.971
-63.737
-61.393
-58.064
-54.238
-50.857
-48.518
-47.509
-47.891
-49.359
-51.637
-54.575
-57.836
-60.916
-63.481
-65.336
-66.406
-66.789
-66.548
-65.693
-64.292
-62.437
-60.205
-57.669
-54.875
-51.842
-48.622
-45.287
-41.917
-38.596
-35.381
-32.301
-29.373
-26.605
-23.99
-21.518
-19.165
-16.9
-14.7
-12.541
-10.4
-8.255
-6.077
-3.834
-1.492
0.986
3.63
6.468
9.526
12.826
16.388
20.228
24.361
28.798
33.55
38.628
44.041
49.797
55.9
62.348
69.142
76.273
83.732
91.505
99.574
107.918
116.513
125.331
134.342
143.513
152.809
162.192
171.622
181.059
190.458
199.776
208.968
217.99
226.797
235.343
243.585
251.479
258.984
266.059
272.666
278.77
284.336
289.333
293.734
297.512
300.647
303.121
304.92
306.032
306.453
306.179
305.214
303.564
301.239
298.254
294.625
290.374
285.526
280.108
274.151
267.687
260.752
253.384
245.62
237.503
229.073
220.374
211.448
202.339
193.09
183.744
174.344
164.931
155.547
146.231
137.02
127.951
119.059
110.375
101.928
93.747
85.856
78.276
71.027
64.126
57.585
51.416
45.627
40.224
35.21
30.586
26.35
22.499
19.027
15.927
13.19
10.805
8.76
7.041
5.634
4.524
3.694
3.127
2.806
2.714
2.832
3.142
3.628
4.27
5.052
5.957
6.968
8.071
9.251
10.494
11.785
13.115
14.47
15.841
17.218
18.591
19.953
21.296
22.613
23.897
25.143
26.344
27.496
28.595
29.635
30.613
31.526
32.37
33.143
33.842
34.464
35.008
35.471
35.852
36.149
36.36
36.484
36.519
36.465
36.321
36.085
35.756
35.333
34.816
34.203
33.495
32.691
31.791
30.796
29.706
28.524
27.252
25.892
24.448
22.923
21.322
19.65
17.912
16.114
14.261
12.362
10.422
8.448
6.449
4.432
2.404
0.373
-1.653
-3.666
-5.658
-7.623
-9.553
-11.441
-13.281
-15.065
-16.787
-18.441
-20.023
-21.527
-22.949
-24.285
-25.533
-26.691
-27.757
-28.731
-29.614
-30.407
-31.112
-31.732
-32.272
-32.735
-33.126
-33.453
-33.719
-33.934
-34.102
-34.233
-34.333
-34.411
-34.473
-34.528
-34.583
-34.646
-34.723
-34.821
-34.946
-35.104
-35.3
-35.539
-35.824
-36.159
-36.547
-36.99
-37.488
-38.043
-38.652
-39.315
-40.028
-40.789
-41.592
-42.431
-43.3
-44.192
-45.097
-46.007
-46.913
-47.804
-48.67
-49.5
-50.282
-51.005
-51.657
-52.227
-52.703
-53.074
-53.329
-53.459
-53.454
-53.307
-53.009
-52.555
-51.94
-51.159
-50.208
-49.084
-47.788
-46.319
-44.679
-42.872
-40.902
-38.778
-36.509
-34.11
-31.594
-28.976
-26.273
-23.502
-20.685
-17.843
-15
-12.176
-9.391
-6.668
-4.028
-1.498
0.899
3.144
5.222
7.116
8.811
10.288
11.527
12.524
13.278
13.789
14.051
14.05
13.767
13.199
12.347
11.213
9.804
8.122
6.177
4.005
1.65
-0.835
-3.389
-5.98
-8.578
-11.156
-13.695
-16.134
-18.396
-20.417
-22.125
-23.473
-24.475
-25.118
-25.366
-25.309
-25.092
-24.999
-25.484
-26.807
-28.992
-32.013
-35.818
-40.348
-45.531
-50.891
-55.421
-58.345
-59.345
-58.472
-56.061
-52.25
-47.036
-40.937
-35.388
-32.06
-32.114
-35.898
-43.214
-53.972
-68.25
-85.994
-104.563
-118.756
-124.375
-117.706
-99.561
-75.78
-47.092
-11.382
38.329
116.045
226.16
366.328
529.447
697.486
857.611
997.958
1102.241
1161.669
1164.941
1104.23
984.581
810.481
595.519
363.344
135.39
-59.828
-198.046
-274.145
-290.614
-261.202
-209.367
-148.598
-91.066
-49.68
-25.099
-18.052
-25.62
-35.791
-44.317
-50.733
-56.13
-67.118
-85.211
-107.209
-129.695
-148.136
-160.487
-167.366
-169.559
-168.214
-164.555
-159.771
-155.318
-152.314
-151.279
-152.33
-155.296
-159.909
-165.867
-172.705
-179.822
-186.75
-193.188
-198.945
-203.981
-208.274
-211.777
-214.504
-216.495
-217.774
-218.377
-218.337
-217.671
-216.414
-214.623
-212.353
-209.684
-206.702
-203.492
-200.144
-196.723
-193.278
-189.847
-186.456
-183.122
-179.855
-176.65
-173.491
-170.364
-167.26
-164.165
-161.069
-157.953
-154.795
-151.575
-148.273
-144.873
-141.362
-137.723
-133.943
-130.011
-125.919
-121.658
-117.225
-112.612
-107.813
-102.82
-97.629
-92.233
-86.631
-80.819
-74.796
-68.564
-62.128
-55.495
-48.674
-41.68
-34.524
-27.226
-19.804
-12.279
-4.676
2.982
10.666
18.35
26.004
33.596
41.095
48.469
55.685
62.71
69.51
76.053
82.307
88.238
93.818
99.014
103.798
108.142
112.02
115.407
118.282
120.624
122.414
123.639
124.286
124.347
123.816
122.691
120.974
118.669
115.784
112.329
108.319
103.77
98.702
93.137
87.1
80.618
73.72
66.437
58.803
50.853
42.622
34.148
25.469
16.623
7.652
-1.406
-10.511
-19.623
-28.703
-37.712
-46.613
-55.368
-63.943
-72.305
-80.422
-88.265
-95.807
-103.024
-109.894
-116.398
-122.52
-128.245
-133.564
-138.467
-142.95
-147.008
-150.643
-153.854
-156.648
-159.03
-161.01
-162.599
-163.809
-164.656
-165.155
-165.325
-165.184
-164.753
-164.053
-163.106
-161.934
-160.559
-159.005
-157.294
-155.448
-153.49
-151.441
-149.32
-147.148
-144.942
-142.719
-140.496
-138.285
-136.101
-133.954
-131.854
-129.811
-127.832
-125.922
-124.087
-122.33
-120.653
-119.056
-117.539
-116.101
-114.74
-113.451
-112.23
-111.073
-109.974
-108.927
-107.926
-106.964
-106.035
-105.13
-104.245
-103.371
-102.502
-101.633
-100.757
-99.87
-98.967
-98.044
-97.098
-96.128
-95.13
-94.104
-93.049
-91.966
-90.853
-89.713
-88.548
-87.359
-86.15
-84.924
-83.684
-82.436
-81.183
-79.931
-78.684
-77.449
-76.229
-75.032
-73.861
-72.722
-71.622
-70.564
-69.554
-68.596
-67.695
-66.854
-66.077
-65.367
-64.726
-64.157
-63.661
-63.238
-62.891
-62.619
-62.422
-62.3
-62.251
-62.275
-62.369
-62.53
-62.756
-63.043
-63.387
-63.784
-64.229
-64.718
-65.244
-65.801
-66.384
-66.987
-67.602
-68.223
-68.842
-69.452
-70.047
-70.62
-71.165
-71.673
-72.14
-72.558
-72.922
-73.225
-73.461
-73.624
-73.707
-73.706
-73.614
-73.428
-73.142
-72.753
-72.257
-71.651
-70.934
-70.103
-69.157
-68.096
-66.92
-65.63
-64.228
-62.719
-61.105
-59.392
-57.585
-55.692
-53.722
-51.681
-49.578
-47.423
-45.224
-42.992
-40.738
-38.473
-36.209
-33.961
-31.745
-29.579
-27.481
-25.469
-23.56
-21.774
-20.126
-18.633
-17.305
-16.152
-15.186
-14.418
-13.86
-13.522
-13.409
-13.528
-13.882
-14.473
-15.303
-16.364
-17.642
-19.125
-20.805
-22.684
-24.775
-27.084
-29.608
-32.342
-35.28
-38.408
-41.713
-45.155
-48.675
-52.211
-55.704
-59.105
-62.381
-65.476
-68.324
-70.846
-72.948
-74.555
-75.625
-76.11
-75.974
-75.219
-73.863
-71.965
-69.656
-67.071
-64.355
-61.674
-59.162
-56.957
-55.243
-54.256
-54.212
-55.2
-57.094
-59.585
-62.323
-64.955
-67.07
-68.093
-67.423
-64.783
-60.529
-55.577
-50.97
-47.824
-47.239
-50.197
-57.84
-69.801
-83.048
-94.162
-99.453
-97.08
-89.582
-77.743
-58.236
-25.053
32.455
122.832
245.39
395.239
563.214
736
902.881
1049.514
1156.923
1207.856
1188.187
1094.771
936.492
732.411
507.978
287.643
95.727
-51.45
-149.338
-200.277
-216.398
-211.253
-191.497
-163.067
-130.586
-96.859
-68.522
-48.815
-34.741
-24.542
-15.501
-7.172
-3.594
-6.307
-15.228
-28.566
-42.599
-54.973
-64.048
-69.119
-70.618
-68.889
-64.532
-58.515
-51.549
-44.501
-38.529
-34.209
-31.763
-31.27
-32.415
-34.849
-38.311
-42.35
-46.407
-50.105
-53.206
-55.6
-57.344
-58.466
-58.956
-58.86
-58.247
-57.187
-55.748
-53.965
-51.854
-49.449
-46.813
-44.027
-41.181
-38.356
-35.605
-32.96
-30.442
-28.061
-25.818
-23.703
-21.697
-19.767
-17.888
-16.038
-14.194
-12.334
-10.431
-8.449
-6.356
-4.119
-1.713
0.887
3.7
6.746
10.04
13.595
17.42
21.52
25.904
30.578
35.547
40.815
46.383
52.249
58.408
64.856
71.582
78.572
85.812
93.281
100.958
108.818
116.834
124.975
133.21
141.504
149.82
158.123
166.371
174.525
182.544
190.388
198.014
205.383
212.453
219.185
225.54
231.482
236.976
241.987
246.486
250.443
253.832
256.629
258.813
260.366
261.273
261.522
261.105
260.017
258.257
255.828
252.737
248.992
244.609
239.604
233.997
227.813
221.077
213.82
206.072
197.869
189.246
180.24
170.893
161.244
151.334
141.207
130.905
120.471
109.946
99.373
88.794
78.249
67.776
57.415
47.201
37.17
27.356
17.789
8.5
-0.485
-9.14
-17.443
-25.376
-32.92
-40.062
-46.791
-53.098
-58.978
-64.427
-69.445
-74.033
-78.197
-81.942
-85.277
-88.212
-90.759
-92.933
-94.749
-96.223
-97.373
-98.218
-98.777
-99.069
-99.114
-98.933
-98.545
-97.97
-97.229
-96.341
-95.326
-94.204
-92.993
-91.711
-90.375
-89.003
-87.608
-86.206
-84.808
-83.427
-82.073
-80.757
-79.486
-78.27
-77.114
-76.026
-75.014
-74.085
-73.246
-72.502
-71.859
-71.32
-70.889
-70.57
-70.365
-70.274
-70.299
-70.438
-70.693
-71.067
-71.561
-72.175
-72.905
-73.748
-74.697
-75.749
-76.895
-78.126
-79.438
-80.825
-82.29
-83.837
-85.469
-87.186
-88.985
-90.854
-92.776
-94.728
-96.674
-98.578
-100.408
-102.126
-103.705
-105.115
-106.309
-107.247
-107.888
-108.185
-108.119
-107.652
-106.726
-105.34
-103.523
-101.341
-98.94
-96.399
-93.719
-91.054
-88.663
-86.796
-85.764
-85.646
-86.283
-87.798
-90.445
-94.098
-98.312
-102.303
-105.026
-106.073
-105.601
-103.3
-98.712
-91.924
-83.699
-75.667
-69.868
-67.472
-68.669
-73.909
-83.982
-97.672
-111.333
-120.964
-121.623
-112.712
-99.139
-80.848
-55.118
-14.467
55.149
157.685
290.48
446.379
609.128
767.312
908.089
1015.156
1077.919
1084.19
1031.229
926.331
776.675
598.152
406.976
220.185
63.113
-46.921
-103.806
-112.714
-94.668
-70.566
-50.551
-37.606
-26.671
-11.541
6.621
24.152
37.308
42.186
38.266
27.64
12.563
-4.009
-19.025
-31.086
-39.778
-44.806
-46.222
-44.461
-40.114
-34.349
-28.8
-24.386
-21.43
-20.14
-20.517
-22.509
-26.053
-30.789
-36.103
-41.571
-46.953
-52.051
-56.757
-60.954
-64.51
-67.38
-69.606
-71.216
-72.231
-72.672
-72.549
-71.889
-70.75
-69.186
-67.252
-65.021
-62.562
-59.955
-57.283
-54.606
-51.967
-49.398
-46.917
-44.53
-42.236
-40.023
-37.868
-35.752
-33.659
-31.57
-29.469
-27.332
-25.135
-22.854
-20.467
-17.952
-15.291
-12.465
-9.457
-6.256
-2.852
0.763
4.594
8.644
12.921
17.426
22.162
27.13
32.327
37.749
43.392
49.245
55.298
61.536
67.94
74.493
81.171
87.952
94.81
101.716
108.642
115.557
122.429
129.225
135.912
142.454
148.817
154.966
160.867
166.486
171.788
176.743
181.319
185.488
189.223
192.499
195.293
197.586
199.36
200.602
201.299
201.445
201.032
200.06
198.53
196.445
193.815
190.649
186.961
182.768
178.089
172.947
167.366
161.373
154.996
148.266
141.216
133.878
126.289
118.485
110.501
102.375
94.146
85.85
77.524
69.206
60.93
52.732
44.643
36.696
28.92
21.342
13.989
6.884
0.048
-6.499
-12.742
-18.665
-24.256
-29.505
-34.406
-38.953
-43.143
-46.976
-50.454
-53.58
-56.36
-58.801
-60.913
-62.706
-64.193
-65.387
-66.304
-66.96
-67.372
-67.557
-67.535
-67.323
-66.942
-66.409
-65.743
-64.962
-64.083
-63.122
-62.096
-61.02
-59.907
-58.77
-57.623
-56.476
-55.339
-54.221
-53.132
-52.077
-51.062
-50.093
-49.173
-48.306
-47.494
-46.738
-46.038
-45.394
-44.805
-44.271
-43.786
-43.35
-42.958
-42.605
-42.288
-42.001
-41.739
-41.498
-41.273
-41.06
-40.855
-40.654
-40.454
-40.253
-40.047
-39.835
-39.616
-39.387
-39.148
-38.899
-38.638
-38.367
-38.086
-37.796
-37.498
-37.193
-36.882
-36.568
-36.251
-35.935
-35.62
-35.31
-35.006
-34.712
-34.429
-34.162
-33.912
-33.683
-33.477
-33.297
-33.145
-33.023
-32.932
-32.873
-32.848
-32.855
-32.896
-32.97
-33.077
-33.216
-33.387
-33.587
-33.817
-34.074
-34.358
-34.665
-34.995
-35.345
-35.715
-36.102
-36.504
-36.921
-37.35
-37.79
-38.239
-38.695
-39.158
-39.625
-40.094
-40.564
-41.033
-41.501
-41.967
-42.43
-42.89
-43.346
-43.799
-44.25
-44.699
-45.147
-45.595
-46.043
-46.494
-46.949
-47.408
-47.875
-48.35
-48.836
-49.333
-49.845
-50.373
-50.918
-51.482
-52.066
-52.672
-53.301
-53.954
-54.632
-55.337
-56.069
-56.829
-57.617
-58.434
-59.28
-60.154
-61.055
-61.984
-62.938
-63.917
-64.919
-65.942
-66.985
-68.045
-69.121
-70.209
-71.308
-72.413
-73.523
-74.635
-75.744
-76.847
-77.942
-79.025
-80.091
-81.137
-82.161
-83.157
-84.122
-85.054
-85.948
-86.802
-87.613
-88.377
-89.092
-89.756
-90.368
-90.924
-91.423
-91.865
-92.248
-92.57
-92.832
-93.031
-93.169
-93.243
-93.255
-93.202
-93.085
-92.904
-92.658
-92.347
-91.972
-91.532
-91.028
-90.46
-89.83
-89.136
-88.381
-87.565
-86.689
-85.752
-84.755
-83.698
-82.581
-81.401
-80.16
-78.854
-77.485
-76.049
-74.546
-72.974
-71.332
-69.617
-67.828
-65.963
-64.021
-62.001
-59.902
-57.723
-55.465
-53.128
-50.714
-48.223
-45.659
-43.022
-40.317
-37.546
-34.713
-31.823
-28.88
-25.89
-22.86
-19.799
-16.715
-13.621
-10.532
-7.461
-4.424
-1.438
1.48
4.311
7.04
9.65
12.126
14.452
16.612
18.587
20.359
21.91
23.224
24.286
25.082
25.599
25.827
25.762
25.405
24.752
23.795
22.516
20.895
18.923
16.596
13.915
10.891
7.537
3.882
-0.022
-4.121
-8.358
-12.677
-17.043
-21.418
-25.752
-29.978
-34.005
-37.748
-41.146
-44.152
-46.733
-48.876
-50.586
-51.926
-53.018
-53.975
-54.924
-55.983
-57.254
-58.883
-61.018
-63.774
-67.323
-71.877
-77.549
-84.345
-92.061
-100.21
-108.301
-115.911
-122.469
-127.308
-129.87
-129.871
-127.755
-124.701
-121.856
-119.956
-119.646
-121.693
-126.763
-135.086
-144.311
-149.723
-147.187
-133.885
-110.967
-81.529
-44.447
4.664
73.131
168.075
288.717
428.687
579.067
729.37
870.879
993.339
1083.435
1126.549
1111.091
1034.978
904.539
734.951
546.321
357.067
186.445
49.598
-46.562
-100.768
-120.359
-117.115
-99.684
-76.283
-53.942
-36.463
-29.14
-33.155
-43.346
-55.634
-65.028
-69.649
-73.06
-76.716
-80.952
-84.968
-85.98
-83.188
-77.344
-69.413
-60.809
-52.514
-45.041
-38.972
-34.66
-32.137
-31.264
-31.785
-33.443
-36.043
-39.391
-43.265
-47.472
-51.833
-56.168
-60.298
-64.028
-67.205
-69.741
-71.583
-72.714
-73.137
-72.88
-71.997
-70.57
-68.676
-66.381
-63.75
-60.842
-57.734
-54.513
-51.267
-48.081
-45.014
-42.099
-39.357
-36.795
-34.408
-32.177
-30.074
-28.06
-26.102
-24.174
-22.253
-20.316
-18.336
-16.281
-14.122
-11.83
-9.378
-6.743
-3.904
-0.84
2.463
6.017
9.832
13.914
18.27
22.907
27.83
33.042
38.547
44.341
50.421
56.781
63.41
70.295
77.419
84.762
92.3
100.011
107.866
115.837
123.892
132.001
140.128
148.238
156.295
164.262
172.1
179.77
187.236
194.457
201.396
208.016
214.28
220.155
225.607
230.604
235.118
239.12
242.586
245.495
247.826
249.563
250.693
251.206
251.095
250.359
248.996
247.013
244.414
241.212
237.419
233.051
228.127
222.67
216.702
210.251
203.345
196.015
188.293
180.214
171.814
163.129
154.197
145.056
135.745
126.302
116.767
107.177
97.57
87.985
78.456
69.019
59.708
50.555
41.589
32.84
24.333
16.092
8.138
0.492
-6.831
-13.815
-20.449
-26.721
-32.625
-38.155
-43.308
-48.084
-52.484
-56.513
-60.176
-63.483
-66.441
-69.065
-71.365
-73.357
-75.056
-76.48
-77.645
-78.572
-79.278
-79.784
-80.109
-80.275
-80.3
-80.205
-80.009
-79.73
-79.386
-78.995
-78.572
-78.133
-77.693
-77.266
-76.863
-76.495
-76.174
-75.908
-75.705
-75.57
-75.51
-75.526
-75.622
-75.799
-76.057
-76.396
-76.815
-77.309
-77.877
-78.515
-79.217
-79.979
-80.794
-81.656
-82.56
-83.499
-84.466
-85.456
-86.462
-87.48
-88.503
-89.528
-90.549
-91.563
-92.566
-93.554
-94.526
-95.479
-96.411
-97.323
-98.213
-99.083
-99.933
-100.765
-101.581
-102.385
-103.178
-103.964
-104.746
-105.527
-106.313
-107.106
-107.912
-108.733
-109.576
-110.443
-111.338
-112.266
-113.23
-114.231
-115.274
-116.358
-117.487
-118.659
-119.877
-121.139
-122.446
-123.797
-125.19
-126.622
-128.093
-129.598
-131.133
-132.696
-134.28
-135.881
-137.495
-139.115
-140.736
-142.352
-143.957
-145.545
-147.11
-148.646
-150.146
-151.604
-153.013
-154.368
-155.661
-156.888
-158.043
-159.119
-160.114
-161.021
-161.837
-162.557
-163.178
-163.696
-164.107
-164.408
-164.596
-164.669
-164.623
-164.457
-164.169
-163.758
-163.221
-162.559
-161.771
-160.855
-159.811
-158.639
-157.338
-155.908
-154.348
-152.658
-150.838
-148.888
-146.809
-144.602
-142.267
-139.805
-137.218
-134.505
-131.668
-128.71
-125.631
-122.433
-119.118
-115.689
-112.151
-108.506
-104.759
-100.914
-96.979
-92.959
-88.861
-84.692
-80.46
-76.172
-71.839
-67.471
-63.076
-58.667
-54.257
-49.859
-45.491
-41.169
-36.912
-32.737
-28.664
-24.712
-20.899
-17.244
-13.76
-10.464
-7.369
-4.491
-1.848
0.544
2.67
4.518
6.076
7.334
8.283
8.918
9.245
9.268
8.989
8.402
7.491
6.243
4.656
2.731
0.473
-2.105
-4.986
-8.136
-11.497
-15.01
-18.615
-22.261
-25.913
-29.528
-33.048
-36.402
-39.498
-42.259
-44.628
-46.555
-48.001
-48.952
-49.426
-49.484
-49.234
-48.793
-48.29
-47.861
-47.633
-47.743
-48.303
-49.456
-51.428
-54.393
-58.398
-63.314
-68.802
-74.467
-79.981
-84.887
-88.491
-90.19
-89.649
-87.136
-83.549
-79.787
-76.762
-75.471
-76.947
-82.39
-91.214
-100.278
-106.501
-106.678
-101.004
-93.66
-83.698
-66.247
-31.394
34.965
136.392
267.678
418.364
573.527
725.723
871.109
1001.281
1104.942
1164.423
1162.411
1094.223
964.763
788.106
585.557
375.711
177.622
12.12
-106.384
-169.663
-178.372
-148.969
-103.315
-61.18
-40.426
-43.874
-63.492
-89.288
-106.877
-110.254
-102.348
-88.157
-75.951
-69.723
-68.44
-70.172
-72.356
-74.183
-76.417
-79.368
-82.817
-86.254
-89.014
-90.892
-91.904
-92.021
-91.334
-90.173
-89.187
-88.94
-89.819
-91.969
-95.298
-99.658
-104.824
-110.432
-115.992
-121.144
-125.679
-129.498
-132.639
-135.136
-137.019
-138.369
-139.297
-139.885
-140.191
-140.253
-140.085
-139.737
-139.288
-138.819
-138.415
-138.132
-137.993
-138.012
-138.188
-138.508
-138.95
-139.477
-140.045
-140.617
-141.164
-141.659
-142.071
-142.365
-142.499
-142.431
-142.118
-141.52
-140.604
-139.337
-137.692
-135.644
-133.171
-130.258
-126.891
-123.055
-118.738
-113.928
-108.615
-102.793
-96.46
-89.619
-82.272
-74.43
-66.106
-57.318
-48.088
-38.44
-28.405
-18.013
-7.3
3.695
14.93
26.363
37.946
49.632
61.371
73.111
84.801
96.389
107.821
119.045
130.011
140.667
150.964
160.857
170.298
179.247
187.662
195.507
202.748
209.353
215.296
220.553
225.105
228.936
232.036
234.399
236.021
236.905
237.057
236.488
235.213
233.249
230.621
227.352
223.473
219.017
214.017
208.513
202.544
196.152
189.381
182.275
174.88
167.242
159.407
151.421
143.329
135.176
127.005
118.859
110.777
102.799
94.961
87.297
79.839
72.616
65.655
58.979
52.609
46.563
40.855
35.498
30.499
25.865
21.598
17.697
14.16
10.98
8.15
5.658
3.492
1.637
0.076
-1.209
-2.237
-3.028
-3.603
-3.984
-4.193
-4.252
-4.181
-4.003
-3.738
-3.405
-3.024
-2.612
-2.186
-1.762
-1.352
-0.971
-0.63
-0.337
-0.103
0.068
0.168
0.196
0.148
0.025
-0.173
-0.444
-0.783
-1.186
-1.647
-2.159
-2.715
-3.305
-3.921
-4.553
-5.192
-5.826
-6.448
-7.046
-7.613
-8.139
-8.617
-9.041
-9.403
-9.699
-9.925
-10.078
-10.156
-10.157
-10.083
-9.933
-9.71
-9.418
-9.061
-8.644
-8.175
-7.659
-7.106
-6.526
-5.926
-5.32
-4.717
-4.131
-3.573
-3.057
-2.596
-2.203
-1.893
-1.68
-1.576
-1.595
-1.748
-2.049
-2.508
-3.134
-3.939
-4.928
-6.11
-7.491
-9.075
-10.867
-12.868
-15.08
-17.503
-20.135
-22.974
-26.017
-29.257
-32.688
-36.304
-40.096
-44.053
-48.165
-52.421
-56.805
-61.304
-65.903
-70.584
-75.331
-80.124
-84.945
-89.775
-94.593
-99.38
-104.115
-108.778
-113.348
-117.806
-122.131
-126.304
-130.306
-134.119
-137.724
-141.104
-144.244
-147.127
-149.74
-152.068
-154.099
-155.822
-157.225
-158.3
-159.038
-159.43
-159.471
-159.156
-158.483
-157.45
-156.057
-154.306
-152.2
-149.744
-146.943
-143.807
-140.342
-136.56
-132.47
-128.085
-123.42
-118.49
-113.309
-107.895
-102.266
-96.44
-90.437
-84.277
-77.978
-71.562
-65.049
-58.463
-51.825
-45.158
-38.486
-31.835
-25.232
-18.704
-12.278
-5.981
0.164
6.132
11.898
17.436
22.726
27.746
32.477
36.903
41.002
44.755
48.15
51.176
53.829
56.105
57.998
59.502
60.619
61.354
61.715
61.707
61.328
60.58
59.469
58.01
56.219
54.119
51.73
49.079
46.204
43.15
39.962
36.69
33.38
30.07
26.806
23.623
20.549
17.629
14.904
12.416
10.228
8.362
6.777
5.449
4.369
3.441
2.543
1.411
-0.395
-3.12
-6.777
-11.355
-16.806
-22.971
-29.644
-36.166
-41.328
-44.315
-44.795
-42.675
-38.213
-31.737
-23.519
-14.632
-7.161
-2.809
-2.801
-7.787
-17.306
-30.872
-48.284
-68.173
-87.768
-103.026
-108.334
-99.002
-73.305
-33.287
16.142
70.725
130.635
202.861
297.228
420.938
572.011
735.857
889.878
1008.412
1072.886
1074.48
1012.914
897.503
736.857
542.743
333.881
128.571
-48.447
-175.127
-246.086
-263.049
-237.652
-190.587
-133.897
-79.736
-41.762
-21.056
-17.016
-23.593
-25.795
-18.418
-2.649
17.224
31.548
36.597
33.915
25.326
14.162
2.367
-9.321
-19.521
-27.411
-32.763
-35.554
-35.971
-34.24
-30.685
-26.124
-21.762
-18.438
-16.491
-15.903
-16.424
-17.809
-19.85
-22.187
-24.318
-25.917
-26.846
-27.095
-26.783
-26.001
-24.785
-23.197
-21.32
-19.208
-16.896
-14.417
-11.785
-9.043
-6.264
-3.499
-0.79
1.833
4.358
6.783
9.108
11.35
13.533
15.671
17.774
19.853
21.912
23.97
26.045
28.16
30.335
32.596
34.965
37.462
40.107
42.911
45.884
49.034
52.365
55.883
59.593
63.501
67.609
71.919
76.43
81.141
86.046
91.14
96.411
101.846
107.431
113.149
118.982
124.909
130.909
136.956
143.025
149.091
155.123
161.094
166.972
172.727
178.326
183.738
188.93
193.872
198.531
202.878
206.883
210.52
213.762
216.586
218.969
220.892
222.338
223.291
223.74
223.674
223.087
221.973
220.333
218.169
215.485
212.289
208.593
204.41
199.756
194.651
189.115
183.172
176.847
170.168
163.164
155.865
148.306
140.517
132.535
124.395
116.131
107.78
99.377
90.958
82.556
74.206
65.941
57.793
49.792
41.966
34.344
26.951
19.811
12.944
6.371
0.108
-5.83
-11.431
-16.685
-21.584
-26.124
-30.3
-34.112
-37.56
-40.649
-43.384
-45.77
-47.817
-49.535
-50.937
-52.034
-52.841
-53.373
-53.647
-53.679
-53.487
-53.089
-52.502
-51.745
-50.837
-49.795
-48.638
-47.383
-46.047
-44.648
-43.199
-41.717
-40.214
-38.703
-37.197
-35.705
-34.237
-32.801
-31.405
-30.056
-28.757
-27.514
-26.33
-25.208
-24.148
-23.153
-22.222
-21.356
-20.553
-19.812
-19.131
-18.509
-17.943
-17.43
-16.968
-16.552
-16.18
-15.848
-15.552
-15.291
-15.059
-14.854
-14.674
-14.516
-14.378
-14.259
-14.157
-14.073
-14.004
-13.953
-13.918
-13.903
-13.906
-13.931
-13.979
-14.052
-14.151
-14.28
-14.44
-14.633
-14.862
-15.127
-15.431
-15.776
-16.162
-16.592
-17.067
-17.588
-18.156
-18.773
-19.438
-20.154
-20.919
-21.735
-22.601
-23.517
-24.482
-25.495
-26.554
-27.658
-28.805
-29.992
-31.216
-32.476
-33.767
-35.087
-36.432
-37.8
-39.186
-40.588
-42.003
-43.429
-44.863
-46.304
-47.748
-49.195
-50.642
-52.089
-53.533
-54.974
-56.409
-57.839
-59.262
-60.676
-62.08
-63.475
-64.858
-66.231
-67.591
-68.938
-70.272
-71.593
-72.901
-74.194
-75.472
-76.736
-77.983
-79.214
-80.428
-81.624
-82.801
-83.957
-85.089
-86.196
-87.274
-88.321
-89.333
-90.306
-91.236
-92.12
-92.954
-93.736
-94.461
-95.127
-95.733
-96.274
-96.751
-97.162
-97.504
-97.779
-97.985
-98.124
-98.195
-98.202
-98.148
-98.038
-97.879
-97.677
-97.441
-97.181
-96.904
-96.623
-96.345
-96.08
-95.835
-95.618
-95.441
-95.315
-95.253
-95.265
-95.361
-95.551
-95.843
-96.245
-96.761
-97.388
-98.121
-98.962
-99.915
-100.997
-102.22
-103.594
-105.122
-106.807
-108.641
-110.619
-112.718
-114.9
-117.12
-119.337
-121.512
-123.62
-125.629
-127.495
-129.158
-130.542
-131.573
-132.193
-132.355
-132.021
-131.173
-129.821
-128.008
-125.816
-123.341
-120.689
-117.975
-115.332
-112.896
-110.793
-109.201
-108.355
-108.442
-109.57
-111.653
-114.339
-117.221
-119.893
-121.804
-122.317
-120.913
-117.243
-111.567
-104.977
-98.633
-93.66
-91.501
-93.231
-99.398
-110.491
-124.507
-137.715
-147.826
-151.247
-145.992
-130.896
-99.283
-45.655
33.723
139.034
260.849
389.483
518.421
646.316
776.609
905.213
1019.305
1097.446
1115.852
1065.381
949.421
781.758
586.622
383.749
191.376
29.932
-90.425
-164.894
-195.575
-197.093
-181.614
-158.667
-137.114
-118.48
-105.257
-98.487
-93.4
-87.192
-76.691
-61.578
-47.528
-38.171
-35.178
-38.195
-44.02
-51.212
-59.708
-69.157
-79.011
-88.044
-95.224
-100.386
-103.728
-105.381
-105.414
-104.027
-101.933
-100.216
-99.548
-100.138
-101.931
-104.688
-108.232
-112.406
-116.813
-120.936
-124.451
-127.211
-129.203
-130.543
-131.285
-131.444
-131.096
-130.327
-129.208
-127.799
-126.126
-124.201
-122.071
-119.799
-117.454
-115.095
-112.751
-110.437
-108.157
-105.908
-103.678
-101.452
-99.206
-96.922
-94.585
-92.179
-89.693
-87.106
-84.399
-81.546
-78.524
-75.306
-71.875
-68.214
-64.31
-60.155
-55.741
-51.066
-46.128
-40.925
-35.458
-29.726
-23.731
-17.477
-10.971
-4.221
2.763
9.966
17.372
24.963
32.716
40.61
48.619
56.717
64.874
73.06
81.243
89.391
97.467
105.437
113.263
120.908
128.335
135.507
142.387
148.938
155.125
160.914
166.272
171.17
175.578
179.469
182.82
185.609
187.817
189.427
190.427
190.804
190.552
189.666
188.144
185.988
183.203
179.797
175.781
171.169
165.977
160.225
153.936
147.135
139.849
132.106
123.941
115.385
106.475
97.248
87.741
77.994
68.046
57.938
47.711
37.403
27.055
16.707
6.396
-3.839
-13.963
-23.941
-33.738
-43.322
-52.664
-61.736
-70.51
-78.962
-87.072
-94.818
-102.182
-109.15
-115.709
-121.847
-127.556
-132.83
-137.664
-142.057
-146.009
-149.523
-152.604
-155.259
-157.495
-159.322
-160.753
-161.798
-162.473
-162.791
-162.768
-162.421
-161.766
-160.822
-159.605
-158.135
-156.429
-154.504
-152.38
-150.072
-147.597
-144.973
-142.213
-139.335
-136.353
-133.281
-130.133
-126.922
-123.661
-120.361
-117.035
-113.692
-110.344
-107.001
-103.671
-100.364
-97.089
-93.855
-90.672
-87.55
-84.5
-81.532
-78.656
-75.884
-73.226
-70.694
-68.298
-66.046
-63.947
-62.012
-60.249
-58.668
-57.278
-56.09
-55.116
-54.367
-53.853
-53.583
-53.565
-53.8
-54.29
-55.036
-56.039
-57.31
-58.852
-60.667
-62.757
-65.122
-67.754
-70.645
-73.765
-77.067
-80.509
-84.041
-87.619
-91.21
-94.774
-98.266
-101.64
-104.839
-107.808
-110.508
-112.891
-114.909
-116.54
-117.775
-118.665
-119.318
-119.845
-120.343
-120.889
-121.558
-122.448
-123.674
-125.344
-127.55
-130.344
-133.83
-138.223
-143.625
-149.999
-157.141
-164.511
-171.512
-177.661
-182.261
-184.466
-183.81
-180.075
-173.468
-165.196
-156.658
-149.023
-144.059
-142.581
-143.097
-143.926
-143.022
-139.945
-138.967
-142.738
-148.167
-145.016
-115.282
-44.727
68.861
216.011
378.537
540.728
695.348
838.674
965.264
1064.006
1117.499
1110.914
1040.301
910.045
734.919
537.412
338.061
160.812
25.018
-64.705
-109.857
-124.962
-128.818
-128.86
-131.148
-133.854
-131.626
-127.547
-121.242
-113.611
-107.156
-99.479
-92.264
-87.873
-86.43
-88.88
-93.701
-98.958
-104.395
-109.828
-115.182
-119.987
-123.353
-124.886
-124.677
-123.029
-120.272
-116.58
-112.311
-108.21
-104.934
-102.83
-101.973
-102.183
-103.219
-104.892
-106.898
-108.776
-110.146
-110.781
-110.582
-109.587
-107.855
-105.411
-102.308
-98.636
-94.477
-89.9
-84.961
-79.691
-74.132
-68.357
-62.446
-56.483
-50.551
-44.701
-38.965
-33.364
-27.908
-22.595
-17.419
-12.366
-7.412
-2.542
2.26
7.007
11.714
16.401
21.089
25.806
30.574
35.415
40.344
45.376
50.524
55.799
61.209
66.759
72.453
78.294
84.286
90.432
96.734
103.189
109.794
116.542
123.426
130.435
137.553
144.765
152.05
159.386
166.748
174.112
181.448
188.727
195.919
202.99
209.907
216.637
223.144
229.395
235.353
240.985
246.254
251.129
255.576
259.564
263.062
266.044
268.481
270.351
271.631
272.3
272.342
271.742
270.489
268.573
265.988
262.733
258.809
254.22
248.976
243.088
236.572
229.445
221.729
213.449
204.631
195.306
185.505
175.264
164.618
153.606
142.268
130.647
118.783
106.722
94.506
82.18
69.789
57.378
44.99
32.67
20.46
8.405
-3.456
-15.08
-26.429
-37.466
-48.155
-58.461
-68.355
-77.807
-86.791
-95.282
-103.261
-110.709
-117.61
-123.952
-129.725
-134.923
-139.541
-143.578
-147.037
-149.92
-152.235
-153.992
-155.201
-155.875
-156.031
-155.683
-154.852
-153.557
-151.819
-149.661
-147.107
-144.181
-140.909
-137.317
-133.432
-129.282
-124.894
-120.294
-115.511
-110.571
-105.501
-100.327
-95.074
-89.767
-84.429
-79.082
-73.748
-68.446
-63.195
-58.011
-52.911
-47.906
-43.011
-38.237
-33.592
-29.086
-24.726
-20.519
-16.47
-12.583
-8.862
-5.309
-1.925
1.29
4.334
7.21
9.92
12.465
14.848
17.074
19.147
21.071
22.851
24.493
26.003
27.387
28.652
29.803
30.846
31.789
32.635
33.391
34.061
34.649
35.161
35.6
35.97
36.275
36.517
36.702
36.831
36.909
36.938
36.921
36.861
36.762
36.626
36.457
36.257
36.031
35.78
35.509
35.219
34.912
34.592
34.259
33.915
33.561
33.199
32.829
32.451
32.068
31.679
31.285
30.887
30.486
30.081
29.674
29.263
28.85
28.433
28.013
27.588
27.157
26.719
26.272
25.813
25.341
24.851
24.34
23.804
23.238
22.638
22
21.318
20.588
19.805
18.966
18.065
17.1
16.065
14.959
13.777
12.517
11.176
9.752
8.242
6.645
4.96
3.186
1.324
-0.627
-2.665
-4.789
-6.997
-9.285
-11.651
-14.089
-16.595
-19.162
-21.783
-24.451
-27.157
-29.892
-32.646
-35.409
-38.171
-40.92
-43.646
-46.337
-48.982
-51.57
-54.09
-56.531
-58.882
-61.132
-63.271
-65.288
-67.176
-68.923
-70.522
-71.964
-73.242
-74.349
-75.279
-76.027
-76.588
-76.96
-77.14
-77.127
-76.922
-76.524
-75.938
-75.165
-74.211
-73.082
-71.784
-70.326
-68.715
-66.961
-65.074
-63.066
-60.946
-58.727
-56.421
-54.04
-51.595
-49.101
-46.569
-44.012
-41.443
-38.876
-36.324
-33.798
-31.312
-28.877
-26.504
-24.205
-21.989
-19.864
-17.839
-15.922
-14.117
-12.431
-10.867
-9.429
-8.119
-6.936
-5.882
-4.953
-4.149
-3.463
-2.893
-2.433
-2.077
-1.819
-1.654
-1.574
-1.572
-1.642
-1.775
-1.964
-2.199
-2.473
-2.776
-3.101
-3.44
-3.785
-4.13
-4.47
-4.803
-5.129
-5.446
-5.754
-6.056
-6.351
-6.644
-6.94
-7.24
-7.549
-7.869
-8.206
-8.569
-8.966
-9.405
-9.89
-10.428
-11.02
-11.672
-12.391
-13.173
-14.019
-14.929
-15.901
-16.952
-18.095
-19.34
-20.696
-22.162
-23.733
-25.404
-27.161
-28.971
-30.802
-32.613
-34.362
-36.02
-37.548
-38.91
-40.073
-40.984
-41.601
-41.876
-41.744
-41.168
-40.145
-38.689
-36.889
-34.826
-32.519
-30.13
-27.927
-26.165
-25.176
-25.087
-25.779
-27.368
-30.114
-33.96
-38.589
-43.374
-47.33
-50.022
-51.558
-51.658
-49.904
-46.19
-40.817
-35.079
-31.013
-29.881
-32.028
-37.911
-47.915
-62.216
-80.324
-98.766
-111.904
-115.052
-104.951
-81.93
-48.368
-3.135
56.985
136.904
241.689
369.938
516.286
673.392
830.364
975.635
1094.948
1171.822
1192.181
1148.065
1041.149
879.812
680.026
463.415
252.121
72.121
-57.534
-133.205
-162.043
-164.22
-160.804
-160.188
-162.679
-162.095
-151.408
-131.468
-107.244
-83.848
-65.811
-54.714
-50.186
-51.435
-57.176
-65.888
-75.905
-86
-95.264
-102.58
-107.18
-108.808
-107.482
-103.75
-98.532
-92.506
-86.366
-81.065
-77.235
-75.177
-75.023
-76.554
-79.406
-83.291
-87.793
-92.359
-96.586
-100.221
-103.127
-105.327
-106.858
-107.72
-107.964
-107.676
-106.933
-105.805
-104.343
-102.568
-100.522
-98.28
-95.929
-93.565
-91.28
-89.128
-87.146
-85.354
-83.762
-82.369
-81.161
-80.113
-79.189
-78.36
-77.602
-76.888
-76.194
-75.485
-74.723
-73.868
-72.88
-71.726
-70.375
-68.798
-66.969
-64.864
-62.462
-59.746
-56.703
-53.317
-49.573
-45.458
-40.96
-36.069
-30.782
-25.095
-19.008
-12.526
-5.655
1.592
9.2
17.15
25.421
33.99
42.828
51.904
61.187
70.639
80.224
89.899
99.623
109.35
119.035
128.629
138.086
147.355
156.388
165.136
173.551
181.585
189.192
196.328
202.95
209.018
214.492
219.338
223.523
227.017
229.796
231.837
233.122
233.637
233.373
232.323
230.485
227.862
224.459
220.287
215.36
209.696
203.316
196.248
188.52
180.165
171.222
161.728
151.727
141.263
130.386
119.144
107.589
95.773
83.75
71.574
59.3
46.982
34.673
22.428
10.297
-1.669
-13.421
-24.913
-36.101
-46.942
-57.398
-67.431
-77.008
-86.098
-94.673
-102.709
-110.185
-117.084
-123.391
-129.097
-134.194
-138.681
-142.557
-145.829
-148.502
-150.59
-152.108
-153.072
-153.506
-153.431
-152.875
-151.866
-150.434
-148.61
-146.428
-143.921
-141.125
-138.073
-134.802
-131.346
-127.74
-124.019
-120.217
-116.367
-112.501
-108.65
-104.844
-101.111
-97.48
-93.974
-90.618
-87.434
-84.44
-81.655
-79.094
-76.769
-74.691
-72.867
-71.303
-70.002
-68.964
-68.187
-67.669
-67.403
-67.382
-67.597
-68.036
-68.69
-69.543
-70.582
-71.792
-73.157
-74.661
-76.287
-78.017
-79.836
-81.724
-83.665
-85.64
-87.633
-89.627
-91.604
-93.547
-95.442
-97.272
-99.024
-100.684
-102.24
-103.681
-104.998
-106.182
-107.226
-108.126
-108.877
-109.476
-109.921
-110.213
-110.353
-110.342
-110.185
-109.887
-109.453
-108.889
-108.204
-107.406
-106.504
-105.507
-104.426
-103.272
-102.056
-100.79
-99.485
-98.156
-96.814
-95.472
-94.144
-92.842
-91.579
-90.367
-89.217
-88.139
-87.145
-86.243
-85.441
-84.748
-84.169
-83.711
-83.378
-83.173
-83.099
-83.157
-83.346
-83.666
-84.113
-84.684
-85.375
-86.179
-87.09
-88.101
-89.203
-90.387
-91.642
-92.957
-94.32
-95.718
-97.138
-98.566
-99.986
-101.385
-102.749
-104.062
-105.311
-106.482
-107.563
-108.539
-109.399
-110.132
-110.724
-111.167
-111.45
-111.565
-111.504
-111.262
-110.833
-110.214
-109.403
-108.397
-107.198
-105.807
-104.225
-102.457
-100.506
-98.38
-96.086
-93.633
-91.033
-88.296
-85.437
-82.471
-79.412
-76.278
-73.086
-69.852
-66.594
-63.331
-60.081
-56.863
-53.696
-50.601
-47.598
-44.711
-41.961
-39.372
-36.963
-34.758
-32.775
-31.033
-29.55
-28.336
-27.403
-26.761
-26.421
-26.392
-26.682
-27.295
-28.233
-29.496
-31.082
-32.988
-35.2
-37.702
-40.475
-43.505
-46.785
-50.319
-54.107
-58.139
-62.404
-66.887
-71.567
-76.422
-81.409
-86.461
-91.513
-96.498
-101.362
-106.06
-110.542
-114.738
-118.57
-121.946
-124.78
-127.017
-128.608
-129.512
-129.719
-129.246
-128.142
-126.53
-124.552
-122.356
-120.106
-117.941
-115.984
-114.397
-113.406
-113.215
-113.946
-115.539
-117.737
-120.252
-122.798
-124.994
-126.312
-126.18
-124.19
-120.49
-115.797
-110.919
-106.825
-104.601
-105.177
-109.703
-118.107
-127.744
-135.485
-138.189
-134.596
-127.773
-119.234
-105.697
-79.752
-28.611
57.637
178.473
327.09
491.223
657.61
818.706
964.719
1081.781
1153.074
1159.279
1091.211
952.089
758.398
537.888
317.594
122.794
-29.817
-136.113
-199.061
-228.423
-233.365
-218.49
-186.691
-142.689
-97.273
-62.64
-47.11
-50.395
-61.875
-71.004
-73.043
-69.233
-66.334
-68.777
-75.879
-84.751
-91.691
-94.877
-94.429
-90.966
-85.359
-78.358
-70.936
-64.256
-58.945
-55.261
-53.335
-53.071
-54.38
-57.127
-60.857
-64.979
-69.071
-72.821
-76.013
-78.569
-80.403
-81.429
-81.658
-81.14
-79.92
-78.057
-75.596
-72.561
-68.998
-64.968
-60.534
-55.785
-50.812
-45.703
-40.546
-35.402
-30.313
-25.311
-20.411
-15.619
-10.933
-6.334
-1.8
2.686
7.137
11.569
15.995
20.437
24.92
29.465
34.091
38.817
43.656
48.622
53.728
58.981
64.387
69.949
75.667
81.545
87.586
93.792
100.163
106.699
113.398
120.255
127.265
134.421
141.71
149.119
156.633
164.232
171.897
179.607
187.338
195.066
202.765
210.406
217.964
225.408
232.707
239.832
246.75
253.431
259.842
265.952
271.73
277.147
282.174
286.782
290.948
294.644
297.85
300.543
302.704
304.319
305.37
305.849
305.744
305.052
303.769
301.897
299.439
296.402
292.797
288.637
283.936
278.713
272.987
266.782
260.122
253.034
245.547
237.691
229.499
221.003
212.239
203.242
194.046
184.69
175.208
165.637
156.013
146.371
136.746
127.172
117.684
108.313
99.089
90.043
81.202
72.59
64.232
56.148
48.357
40.877
33.721
26.903
20.432
14.318
8.566
3.181
-1.835
-6.481
-10.758
-14.67
-18.221
-21.418
-24.268
-26.78
-28.963
-30.829
-32.387
-33.652
-34.634
-35.349
-35.81
-36.031
-36.028
-35.814
-35.406
-34.818
-34.064
-33.158
-32.114
-30.946
-29.666
-28.287
-26.821
-25.279
-23.674
-22.015
-20.314
-18.581
-16.825
-15.055
-13.281
-11.511
-9.753
-8.015
-6.305
-4.63
-2.999
-1.417
0.106
1.566
2.954
4.265
5.493
6.631
7.674
8.618
9.457
10.186
10.801
11.297
11.672
11.92
12.039
12.026
11.88
11.599
11.183
10.631
9.945
9.125
8.173
7.092
5.885
4.557
3.112
1.555
-0.106
-1.865
-3.714
-5.644
-7.647
-9.712
-11.83
-13.992
-16.186
-18.402
-20.629
-22.856
-25.071
-27.265
-29.425
-31.542
-33.604
-35.602
-37.526
-39.367
-41.117
-42.768
-44.315
-45.75
-47.068
-48.266
-49.339
-50.286
-51.103
-51.792
-52.352
-52.784
-53.092
-53.278
-53.347
-53.303
-53.153
-52.903
-52.559
-52.13
-51.622
-51.044
-50.405
-49.714
-48.979
-48.211
-47.418
-46.608
-45.791
-44.974
-44.165
-43.371
-42.597
-41.851
-41.138
-40.463
-39.83
-39.242
-38.702
-38.213
-37.774
-37.387
-37.05
-36.76
-36.514
-36.309
-36.14
-36.003
-35.891
-35.798
-35.716
-35.639
-35.559
-35.467
-35.355
-35.213
-35.032
-34.805
-34.523
-34.179
-33.765
-33.277
-32.708
-32.054
-31.311
-30.477
-29.549
-28.523
-27.401
-26.181
-24.866
-23.456
-21.957
-20.374
-18.717
-16.997
-15.226
-13.418
-11.588
-9.75
-7.923
-6.118
-4.35
-2.631
-0.974
0.607
2.093
3.468
4.72
5.832
6.794
7.594
8.221
8.671
8.948
9.052
8.98
8.72
8.249
7.543
6.589
5.376
3.897
2.152
0.146
-2.1
-4.538
-7.122
-9.803
-12.539
-15.304
-18.059
-20.749
-23.305
-25.638
-27.66
-29.318
-30.568
-31.373
-31.735
-31.667
-31.213
-30.494
-29.64
-28.769
-28.023
-27.51
-27.332
-27.69
-28.838
-31.003
-34.358
-38.91
-44.432
-50.625
-57.117
-63.312
-68.45
-71.857
-73.052
-71.957
-69.322
-66.406
-64.531
-65.619
-70.87
-79.524
-90.723
-103.094
-116.428
-134.445
-158.843
-185.852
-205.362
-198.953
-150.632
-56.237
77.947
235.729
400.433
565.052
726.425
879.074
1012.658
1106.488
1138.23
1097.678
985.306
815.792
615.07
406.818
214.35
57.55
-54.794
-121.599
-149.619
-154.718
-150.167
-141.442
-132.619
-121.232
-105.271
-89.815
-75.087
-61.936
-51.733
-41.415
-32.853
-28.357
-27.517
-30.759
-36.217
-41.942
-47.841
-53.58
-58.611
-62.434
-64.637
-65.229
-64.639
-63.31
-61.46
-59.421
-57.905
-57.53
-58.609
-61.226
-65.155
-70.081
-75.791
-81.959
-88.096
-93.847
-98.994
-103.424
-107.181
-110.314
-112.823
-114.756
-116.191
-117.183
-117.781
-118.016
-117.893
-117.447
-116.741
-115.841
-114.822
-113.729
-112.581
-111.391
-110.157
-108.87
-107.517
-106.07
-104.498
-102.779
-100.894
-98.828
-96.566
-94.086
-91.365
-88.379
-85.103
-81.518
-77.61
-73.364
-68.773
-63.831
-58.536
-52.889
-46.894
-40.556
-33.879
-26.872
-19.544
-11.909
-3.981
4.221
12.679
21.369
30.267
39.348
48.585
57.95
67.411
76.934
86.486
96.027
105.519
114.923
124.195
133.292
142.171
150.787
159.102
167.073
174.657
181.81
188.482
194.632
200.227
205.238
209.644
213.43
216.587
219.118
221.039
222.367
223.117
223.303
222.927
221.996
220.513
218.486
215.929
212.844
209.213
205.011
200.207
194.764
188.651
181.816
174.193
165.729
156.39
146.161
135.058
123.115
110.382
96.924
82.816
68.168
53.122
37.843
22.518
7.33
-7.549
-21.931
-35.607
-48.393
-60.133
-70.702
-80.02
-88.033
-94.714
-100.06
-104.094
-106.885
-108.537
-109.19
-109.011
-108.159
-106.772
-105.006
-103.022
-100.969
-98.975
-97.139
-95.524
-94.184
-93.158
-92.469
-92.124
-92.1
-92.352
-92.813
-93.399
-94.042
-94.695
-95.309
-95.84
-96.251
-96.519
-96.637
-96.623
-96.49
-96.25
-95.922
-95.526
-95.094
-94.666
-94.289
-94.012
-93.874
-93.9
-94.112
-94.525
-95.147
-95.983
-97.024
-98.253
-99.657
-101.224
-102.941
-104.796
-106.772
-108.85
-111.009
-113.227
-115.483
-117.757
-120.031
-122.286
-124.505
-126.671
-128.77
-130.79
-132.717
-134.536
-136.234
-137.795
-139.206
-140.454
-141.528
-142.417
-143.113
-143.608
-143.897
-143.977
-143.846
-143.504
-142.95
-142.189
-141.222
-140.056
-138.697
-137.153
-135.434
-133.549
-131.513
-129.337
-127.038
-124.631
-122.133
-119.561
-116.935
-114.273
-111.595
-108.92
-106.269
-103.661
-101.117
-98.655
-96.295
-94.054
-91.949
-89.998
-88.214
-86.612
-85.204
-84.001
-83.012
-82.246
-81.709
-81.405
-81.337
-81.507
-81.914
-82.555
-83.427
-84.522
-85.834
-87.352
-89.064
-90.958
-93.019
-95.229
-97.573
-100.03
-102.58
-105.203
-107.878
-110.582
-113.293
-115.989
-118.649
-121.249
-123.77
-126.19
-128.488
-130.645
-132.642
-134.461
-136.084
-137.497
-138.684
-139.631
-140.327
-140.761
-140.926
-140.813
-140.419
-139.738
-138.77
-137.515
-135.973
-134.149
-132.047
-129.675
-127.041
-124.155
-121.03
-117.678
-114.114
-110.352
-106.409
-102.302
-98.049
-93.668
-89.178
-84.598
-79.949
-75.252
-70.529
-65.801
-61.093
-56.428
-51.83
-47.322
-42.929
-38.675
-34.582
-30.674
-26.971
-23.493
-20.259
-17.287
-14.593
-12.194
-10.105
-8.339
-6.909
-5.825
-5.097
-4.733
-4.734
-5.097
-5.821
-6.9
-8.331
-10.117
-12.253
-14.731
-17.542
-20.673
-24.105
-27.816
-31.765
-35.894
-40.151
-44.48
-48.833
-53.174
-57.455
-61.626
-65.636
-69.416
-72.913
-76.085
-78.881
-81.257
-83.183
-84.651
-85.714
-86.477
-87.036
-87.481
-87.872
-88.26
-88.736
-89.389
-90.306
-91.58
-93.24
-95.358
-98.107
-101.553
-105.662
-110.257
-114.825
-118.764
-121.601
-122.714
-121.379
-117.237
-110.077
-100.058
-88.325
-76.264
-65.071
-56.335
-50.741
-47.296
-45.028
-42.274
-38.498
-35.482
-33.191
-29.801
-18.015
13.339
72.02
163.726
285.552
428.935
586.661
746.894
898.408
1028.131
1118.665
1156.888
1133.271
1046.997
905.503
721.358
515.005
308.109
124.647
-14.894
-102.914
-141.154
-143.803
-128.182
-106.394
-87.809
-73.799
-64.42
-59.624
-54.995
-48.156
-36.905
-21.203
-6.384
3.458
6.468
3.315
-2.563
-9.378
-16.945
-25.39
-34.723
-43.666
-51.074
-56.814
-61.096
-64.217
-66.309
-67.286
-67.495
-67.897
-69.153
-71.467
-74.787
-78.784
-83.178
-87.827
-92.458
-96.625
-100.036
-102.549
-104.126
-104.886
-104.936
-104.322
-103.123
-101.436
-99.328
-96.865
-94.11
-91.107
-87.923
-84.643
-81.328
-78.028
-74.779
-71.597
-68.494
-65.47
-62.51
-59.591
-56.702
-53.833
-50.978
-48.132
-45.281
-42.406
-39.487
-36.504
-33.438
-30.268
-26.976
-23.545
-19.962
-16.218
-12.306
-8.217
-3.945
0.521
5.19
10.071
15.17
20.492
26.041
31.82
37.826
44.056
50.501
57.153
64
71.029
78.224
85.566
93.035
100.609
108.264
115.973
123.708
131.44
139.138
146.77
154.303
161.703
168.938
175.973
182.773
189.306
195.539
201.438
206.974
212.114
216.831
221.097
224.885
228.173
230.939
233.161
234.824
235.913
236.416
236.326
235.637
234.346
232.453
229.964
226.884
223.223
218.994
214.212
208.895
203.064
196.742
189.954
182.728
175.092
167.079
158.721
150.051
141.104
131.917
122.526
112.968
103.281
93.502
83.67
73.822
63.995
54.228
44.556
35.014
25.637
16.457
7.505
-1.189
-9.598
-17.696
-25.462
-32.873
-39.911
-46.56
-52.805
-58.636
-64.042
-69.017
-73.557
-77.659
-81.323
-84.551
-87.348
-89.718
-91.671
-93.216
-94.363
-95.126
-95.519
-95.558
-95.261
-94.646
-93.733
-92.543
-91.098
-89.42
-87.532
-85.457
-83.218
-80.837
-78.338
-75.744
-73.074
-70.352
-67.597
-64.829
-62.067
-59.329
-56.632
-53.991
-51.42
-48.932
-46.541
-44.256
-42.087
-40.044
-38.133
-36.362
-34.734
-33.255
-31.926
-30.748
-29.721
-28.844
-28.113
-27.524
-27.072
-26.751
-26.554
-26.473
-26.501
-26.627
-26.845
-27.143
-27.512
-27.942
-28.423
-28.946
-29.501
-30.078
-30.669
-31.264
-31.855
-32.435
-32.995
-33.528
-34.026
-34.484
-34.895
-35.252
-35.552
-35.79
-35.961
-36.065
-36.098
-36.06
-35.95
-35.77
-35.52
-35.202
-34.819
-34.374
-33.871
-33.313
-32.705
-32.051
-31.357
-30.627
-29.866
-29.079
-28.271
-27.447
-26.61
-25.765
-24.916
-24.068
-23.224
-22.389
-21.566
-20.759
-19.971
-19.206
-18.467
-17.754
-17.072
-16.42
-15.801
-15.215
-14.663
-14.144
-13.658
-13.204
-12.781
-12.386
-12.018
-11.674
-11.353
-11.05
-10.763
-10.491
-10.229
-9.976
-9.729
-9.486
-9.243
-8.999
-8.75
-8.494
-8.227
-7.946
-7.648
-7.33
-6.991
-6.626
-6.233
-5.81
-5.354
-4.863
-4.334
-3.764
-3.151
-2.492
-1.786
-1.031
-0.226
0.63
1.537
2.495
3.504
4.563
5.671
6.829
8.035
9.289
10.586
11.923
13.298
14.703
16.133
17.576
19.024
20.465
21.889
23.284
24.639
25.941
27.176
28.331
29.391
30.343
31.171
31.859
32.391
32.75
32.921
32.893
32.656
32.199
31.514
30.594
29.431
28.022
26.364
24.45
22.275
19.837
17.135
14.174
10.97
7.542
3.92
0.146
-3.745
-7.709
-11.707
-15.697
-19.63
-23.465
-27.167
-30.701
-34.043
-37.157
-39.983
-42.457
-44.549
-46.274
-47.712
-48.954
-50.026
-50.993
-52.028
-53.414
-55.485
-58.413
-62.123
-66.464
-71.455
-77.158
-83.451
-89.82
-95.424
-99.571
-102.067
-103.05
-102.405
-99.727
-94.786
-87.988
-80.582
-73.992
-68.947
-65.688
-64.699
-66.774
-72.902
-81.957
-89.934
-93.171
-88.475
-76.681
-62.618
-45.671
-21.018
21.232
94.998
203.942
342.6
499.85
659.676
812.491
953.105
1073.876
1166.123
1215.651
1207.307
1135.629
1002.044
819.297
611.444
401.667
214.797
69.568
-30.966
-89.863
-117.396
-126.849
-123.753
-112.885
-100.037
-88.638
-83.273
-84.653
-86.437
-82.993
-71.438
-53.163
-35.235
-23.024
-17.786
-18.33
-21.482
-25.48
-30.429
-36.308
-42.498
-48.014
-52.121
-54.679
-56.01
-56.438
-56.088
-55.297
-54.824
-55.354
-57.23
-60.516
-64.943
-70.149
-75.86
-81.681
-87.113
-91.809
-95.566
-98.303
-100.08
-100.966
-101.004
-100.289
-98.931
-97.006
-94.584
-91.715
-88.44
-84.835
-80.999
-77.028
-73
-68.96
-64.936
-60.943
-56.989
-53.07
-49.173
-45.271
-41.35
-37.403
-33.426
-29.418
-25.37
-21.266
-17.089
-12.826
-8.46
-3.983
0.611
5.327
10.164
15.12
20.188
25.361
30.634
36.004
41.466
47.017
52.653
58.367
64.151
69.996
75.89
81.821
87.772
93.726
99.665
105.57
111.421
117.196
122.874
128.433
133.85
139.101
144.164
149.016
153.632
157.991
162.071
165.849
169.307
172.423
175.182
177.566
179.562
181.156
182.336
183.094
183.423
183.315
182.769
181.781
180.353
178.487
176.187
173.462
170.32
166.774
162.838
158.527
153.86
148.856
143.536
137.922
132.038
125.909
119.558
113.014
106.301
99.447
92.48
85.425
78.31
71.16
64.001
56.859
49.756
42.714
35.757
28.904
22.173
15.584
9.152
2.894
-3.179
-9.052
-14.715
-20.159
-25.377
-30.362
-35.109
-39.617
-43.882
-47.905
-51.686
-55.227
-58.531
-61.602
-64.445
-67.066
-69.471
-71.666
-73.661
-75.462
-77.078
-78.518
-79.79
-80.902
-81.863
-82.679
-83.36
-83.913
-84.345
-84.662
-84.872
-84.981
-84.993
-84.916
-84.754
-84.51
-84.19
-83.797
-83.335
-82.806
-82.214
-81.56
-80.848
-80.079
-79.256
-78.381
-77.456
-76.482
-75.461
-74.395
-73.285
-72.134
-70.943
-69.715
-68.451
-67.155
-65.83
-64.479
-63.105
-61.712
-60.305
-58.887
-57.464
-56.04
-54.621
-53.212
-51.819
-50.448
-49.105
-47.797
-46.529
-45.308
-44.14
-43.031
-41.986
-41.011
-40.112
-39.293
-38.559
-37.915
-37.364
-36.909
-36.556
-36.305
-36.16
-36.121
-36.191
-36.369
-36.655
-37.049
-37.549
-38.153
-38.86
-39.665
-40.565
-41.556
-42.632
-43.79
-45.021
-46.32
-47.681
-49.095
-50.556
-52.057
-53.59
-55.147
-56.722
-58.306
-59.892
-61.475
-63.046
-64.598
-66.126
-67.624
-69.085
-70.506
-71.88
-73.205
-74.476
-75.692
-76.85
-77.948
-78.986
-79.963
-80.88
-81.737
-82.536
-83.279
-83.969
-84.609
-85.203
-85.756
-86.271
-86.753
-87.206
-87.636
-88.046
-88.441
-88.825
-89.202
-89.576
-89.95
-90.328
-90.713
-91.109
-91.516
-91.938
-92.375
-92.827
-93.295
-93.777
-94.271
-94.773
-95.282
-95.793
-96.301
-96.803
-97.292
-97.761
-98.204
-98.615
-98.984
-99.304
-99.566
-99.763
-99.885
-99.926
-99.878
-99.736
-99.492
-99.141
-98.68
-98.103
-97.407
-96.589
-95.645
-94.576
-93.38
-92.058
-90.612
-89.046
-87.365
-85.579
-83.698
-81.734
-79.7
-77.61
-75.481
-73.327
-71.165
-69.009
-66.873
-64.77
-62.718
-60.734
-58.84
-57.053
-55.39
-53.87
-52.509
-51.323
-50.325
-49.517
-48.903
-48.489
-48.285
-48.317
-48.608
-49.172
-50.021
-51.161
-52.588
-54.292
-56.244
-58.391
-60.677
-63.043
-65.438
-67.83
-70.182
-72.445
-74.563
-76.458
-78.056
-79.308
-80.168
-80.601
-80.616
-80.249
-79.593
-78.804
-78.02
-77.385
-77.062
-77.184
-77.899
-79.36
-81.661
-84.939
-89.437
-95.272
-102.428
-110.751
-119.765
-128.916
-137.74
-145.572
-151.547
-155.042
-155.784
-153.994
-150.629
-146.96
-144.088
-143.071
-145.358
-151.175
-158.671
-165.558
-168.407
-165.134
-158.203
-148.958
-134.681
-109.397
-60.81
22.507
141.724
292.107
462.638
637.496
806.361
958.645
1079.744
1156.511
1173.082
1116.892
987.919
796.107
563.225
321.507
102.964
-67.724
-178.456
-234.112
-250.603
-243.027
-220.401
-186.303
-141.215
-91.591
-51.993
-33.109
-39.411
-66.146
-98.397
-125.924
-144.906
-156.111
-165.625
-175.941
-185.798
-193.098
-194.734
-190.057
-180.541
-167.989
-154.609
-141.812
-130.152
-120.168
-112.11
-105.997
-101.81
-99.216
-97.696
-96.898
-96.628
-96.781
-97.387
-98.468
-99.951
-101.76
-103.822
-106.054
-108.373
-110.679
-112.825
-114.652
-116.061
-117.008
-117.501
-117.575
-117.235
-116.458
-115.209
-113.444
-111.157
-108.376
-105.136
-101.456
-97.371
-92.928
-88.205
-83.323
-78.363
-73.359
-68.322
-63.243
-58.131
-53.01
-47.9
-42.816
-37.764
-32.745
-27.759
-22.812
-17.89
-12.964
-7.986
-2.891
2.369
7.821
13.485
19.37
25.483
31.828
38.403
45.196
52.208
59.445
66.904
74.572
82.422
90.424
98.547
106.757
115.013
123.269
131.485
139.636
147.719
155.735
163.669
171.492
179.154
186.601
193.801
200.748
207.439
213.854
219.968
225.756
231.229
236.42
241.33
245.92
250.104
253.798
256.971
259.633
261.812
263.529
264.762
265.455
265.569
265.086
263.983
262.223
259.711
256.311
251.956
246.657
240.479
233.49
225.682
216.986
207.347
196.75
185.227
172.862
159.715
145.832
131.308
116.28
100.96
85.619
70.445
55.54
40.969
26.8
13.169
0.276
-11.718
-22.714
-32.648
-41.5
-49.232
-55.802
-61.245
-65.657
-69.196
-72.081
-74.458
-76.404
-77.994
-79.295
-80.421
-81.532
-82.741
-84.113
-85.703
-87.546
-89.688
-92.183
-95.021
-98.141
-101.452
-104.834
-108.206
-111.534
-114.78
-117.911
-120.885
-123.641
-126.152
-128.416
-130.427
-132.178
-133.657
-134.845
-135.753
-136.416
-136.877
-137.185
-137.372
-137.452
-137.44
-137.347
-137.18
-136.945
-136.637
-136.238
-135.74
-135.138
-134.43
-133.618
-132.698
-131.659
-130.493
-129.193
-127.753
-126.175
-124.457
-122.603
-120.617
-118.506
-116.283
-113.961
-111.551
-109.064
-106.509
-103.896
-101.235
-98.535
-95.805
-93.055
-90.292
-87.526
-84.766
-82.021
-79.3
-76.611
-73.961
-71.356
-68.804
-66.309
-63.875
-61.507
-59.208
-56.979
-54.821
-52.736
-50.723
-48.781
-46.908
-45.103
-43.362
-41.683
-40.061
-38.492
-36.974
-35.503
-34.075
-32.688
-31.34
-30.03
-28.757
-27.522
-26.325
-25.169
-24.054
-22.984
-21.963
-20.994
-20.083
-19.235
-18.456
-17.752
-17.131
-16.599
-16.164
-15.834
-15.616
-15.518
-15.547
-15.711
-16.015
-16.466
-17.07
-17.831
-18.754
-19.841
-21.096
-22.52
-24.112
-25.871
-27.795
-29.878
-32.116
-34.5
-37.021
-39.671
-42.436
-45.304
-48.261
-51.293
-54.382
-57.513
-60.667
-63.828
-66.976
-70.093
-73.16
-76.158
-79.069
-81.875
-84.56
-87.105
-89.497
-91.721
-93.763
-95.611
-97.254
-98.682
-99.888
-100.864
-101.605
-102.109
-102.373
-102.4
-102.191
-101.752
-101.089
-100.212
-99.131
-97.859
-96.408
-94.795
-93.036
-91.15
-89.156
-87.073
-84.924
-82.73
-80.516
-78.308
-76.131
-74.009
-71.968
-70.032
-68.23
-66.586
-65.121
-63.855
-62.804
-61.984
-61.41
-61.099
-61.063
-61.308
-61.838
-62.658
-63.77
-65.177
-66.875
-68.846
-71.071
-73.53
-76.212
-79.121
-82.253
-85.6
-89.146
-92.874
-96.768
-100.811
-104.974
-109.204
-113.44
-117.621
-121.681
-125.592
-129.329
-132.854
-136.129
-139.068
-141.564
-143.546
-144.957
-145.761
-145.978
-145.598
-144.559
-142.964
-141.036
-139.008
-137.191
-135.707
-134.406
-133.287
-132.6
-132.474
-132.841
-133.436
-133.543
-132.684
-131.008
-128.504
-124.792
-119.512
-112.487
-104.057
-95.734
-89.132
-84.945
-83.984
-87.272
-95.574
-109.504
-127.543
-144.998
-157.174
-161.048
-156.678
-146.131
-127.964
-95.417
-38.003
51.731
172.787
315.071
463.282
606.841
740.126
859.586
960.473
1030.341
1052.916
1016.027
915.371
755.752
554.593
336.959
128.653
-41.6
-156.934
-219.159
-237.315
-230.714
-216.492
-195.683
-169.179
-138.197
-102.796
-72.76
-53.455
-41.265
-34.264
-27.499
-18.731
-12.315
-10.223
-13.175
-20.506
-29.012
-36.625
-42.093
-44.83
-45.251
-43.656
-40.421
-36.18
-31.363
-26.611
-22.882
-20.656
-20.106
-21.266
-23.83
-27.483
-31.984
-36.925
-41.787
-46.253
-50.134
-53.347
-55.962
-58.009
-59.478
-60.423
-60.911
-60.998
-60.734
-60.144
-59.232
-58.036
-56.614
-55.032
-53.361
-51.644
-49.896
-48.126
-46.329
-44.498
-42.617
-40.66
-38.597
-36.402
-34.054
-31.533
-28.822
-25.898
-22.739
-19.323
-15.625
-11.628
-7.322
-2.699
2.24
7.494
13.061
18.936
25.108
31.565
