Name
Date of Birth,"Mar 27, 1959"
Recorded Date,2022-07-25 11:00:12 -0500
Classification,Sinus Rhythm
Symptoms,
Software Version,1.90
Device,"Watch4,2"
Sample Rate,510.227 hertz


Lead,Lead I
Unit,µV

-15.215
-15.575
-15.705
-15.602
-15.263
-14.691
-13.886
-12.854
-11.6
-10.132
-8.459
-6.591
-4.541
-2.323
0.049
2.559
5.19
7.924
10.742
13.626
16.556
19.511
22.472
25.419
28.331
31.191
33.979
36.677
39.269
41.739
44.073
46.255
48.275
50.121
51.783
53.252
54.522
55.586
56.44
57.082
57.51
57.724
57.726
57.518
57.104
56.489
55.68
54.684
53.51
52.166
50.663
49.013
47.228
45.321
43.304
41.191
38.997
36.734
34.416
32.056
29.667
27.26
24.849
22.444
20.056
17.696
15.373
13.096
10.876
8.719
6.633
4.624
2.699
0.863
-0.881
-2.526
-4.069
-5.508
-6.839
-8.06
-9.17
-10.168
-11.052
-11.824
-12.484
-13.035
-13.477
-13.815
-14.051
-14.189
-14.232
-14.184
-14.05
-13.833
-13.538
-13.167
-12.726
-12.219
-11.656
-11.045
-10.398
-9.722
-9.028
-8.327
-7.63
-6.948
-6.288
-5.656
-5.059
-4.505
-4.006
-3.578
-3.234
-2.983
-2.83
-2.781
-2.839
-3.01
-3.298
-3.699
-4.212
-4.84
-5.595
-6.503
-7.585
-8.852
-10.307
-11.939
-13.742
-15.713
-17.853
-20.163
-22.627
-25.209
-27.874
-30.585
-33.312
-36.047
-38.733
-41.26
-43.579
-45.69
-47.689
-49.804
-52.137
-54.627
-57.23
-59.894
-62.514
-65.031
-67.152
-68.3
-68.279
-67.251
-65.578
-63.938
-62.955
-62.989
-64.638
-68.667
-75.256
-84.165
-94.739
-105.719
-115.993
-124.798
-131.36
-135.185
-136.347
-135.127
-132.222
-128.786
-125.844
-124.387
-124.381
-123.969
-121.067
-113.466
-100.612
-85.457
-69.695
-52.594
-30.721
5.031
62.539
144.261
248.785
366.051
482.43
586.106
664.401
710.316
720.126
690.668
624.608
524.911
398.133
257.065
114.883
-12.314
-109.801
-170.826
-194.52
-186.379
-158.371
-121.95
-87.364
-64.444
-55.667
-59.206
-70.345
-80.068
-84.442
-84.22
-81.714
-81.779
-85.743
-91.493
-97.318
-101.326
-102.876
-102.596
-100.695
-97.416
-93.433
-89.574
-86.441
-84.335
-83.266
-83.093
-83.858
-85.62
-88.2
-91.24
-94.403
-97.45
-100.239
-102.707
-104.756
-106.278
-107.225
-107.604
-107.443
-106.767
-105.6
-103.957
-101.859
-99.348
-96.463
-93.249
-89.758
-86.047
-82.174
-78.205
-74.183
-70.139
-66.098
-62.072
-58.069
-54.091
-50.128
-46.165
-42.192
-38.203
-34.191
-30.15
-26.068
-21.934
-17.738
-13.469
-9.121
-4.689
-0.168
4.444
9.148
13.94
18.815
23.767
28.788
33.876
39.021
44.219
49.459
54.734
60.032
65.343
70.654
75.951
81.218
86.438
91.594
96.667
101.64
106.493
111.206
115.761
120.138
124.318
128.281
132.008
135.482
138.685
141.599
144.211
146.504
148.467
150.088
151.358
152.267
152.809
152.981
152.777
152.199
151.245
149.919
148.225
146.17
143.761
141.009
137.926
134.526
130.823
126.835
122.579
118.075
113.344
108.406
103.284
98
92.577
87.039
81.41
75.713
69.972
64.209
58.449
52.713
47.022
41.398
35.859
30.426
25.115
19.943
14.925
10.076
5.408
0.932
-3.341
-7.404
-11.25
-14.872
-18.267
-21.432
-24.365
-27.067
-29.538
-31.781
-33.799
-35.596
-37.179
-38.553
-39.726
-40.705
-41.5
-42.119
-42.571
-42.867
-43.017
-43.031
-42.92
-42.694
-42.363
-41.938
-41.43
-40.849
-40.203
-39.503
-38.757
-37.974
-37.161
-36.327
-35.478
-34.621
-33.761
-32.904
-32.054
-31.216
-30.393
-29.589
-28.805
-28.043
-27.306
-26.593
-25.906
-25.245
-24.61
-24.001
-23.417
-22.857
-22.321
-21.808
-21.316
-20.845
-20.393
-19.959
-19.541
-19.14
-18.753
-18.381
-18.023
-17.679
-17.348
-17.032
-16.73
-16.444
-16.175
-15.924
-15.693
-15.485
-15.3
-15.143
-15.015
-14.921
-14.862
-14.844
-14.868
-14.939
-15.06
-15.234
-15.464
-15.754
-16.106
-16.522
-17.005
-17.557
-18.179
-18.873
-19.64
-20.479
-21.391
-22.374
-23.428
-24.551
-25.74
-26.992
-28.303
-29.667
-31.08
-32.536
-34.027
-35.547
-37.087
-38.639
-40.194
-41.743
-43.275
-44.78
-46.247
-47.666
-49.026
-50.316
-51.525
-52.644
-53.662
-54.571
-55.36
-56.022
-56.549
-56.934
-57.171
-57.254
-57.178
-56.942
-56.542
-55.977
-55.248
-54.357
-53.309
-52.108
-50.765
-49.286
-47.685
-45.973
-44.164
-42.274
-40.318
-38.311
-36.269
-34.209
-32.151
-30.114
-28.118
-26.184
-24.334
-22.586
-20.96
-19.477
-18.151
-16.997
-16.025
-15.249
-14.683
-14.349
-14.269
-14.454
-14.918
-15.668
-16.707
-18.031
-19.627
-21.468
-23.525
-25.767
-28.164
-30.698
-33.343
-36.067
-38.831
-41.58
-44.263
-46.839
-49.271
-51.528
-53.6
-55.486
-57.221
-58.875
-60.513
-62.201
-64.01
-65.997
-68.248
-70.851
-73.871
-77.399
-81.546
-86.376
-91.911
-98.055
-104.53
-111.025
-117.235
-122.77
-127.216
-130.221
-131.55
-131.35
-130.247
-128.919
-127.932
-127.917
-129.441
-132.933
-138.776
-145.782
-151.091
-152.262
-146.706
-134.172
-117.356
-96.002
-68.86
-32.422
21.08
93.877
185.02
291.249
401.979
508.094
599.885
665.449
697.507
690.514
643.873
563.293
456.951
335.989
211.547
94.821
-2.873
-73.314
-112.206
-121.601
-110.591
-91.509
-76.063
-71.781
-79.407
-94.067
-108.957
-119.042
-123.022
-123.453
-124.618
-128.795
-135.932
-144.304
-151.17
-155.329
-156.917
-156.327
-154.353
-151.591
-148.379
-145.256
-142.792
-141.248
-140.711
-141.17
-142.485
-144.557
-147.3
-150.558
-154.161
-157.983
-161.93
-165.912
-169.83
-173.553
-176.937
-179.88
-182.321
-184.225
-185.576
-186.371
-186.62
-186.356
-185.625
-184.475
-182.944
-181.07
-178.885
-176.433
-173.765
-170.938
-168.005
-165.008
-161.971
-158.91
-155.832
-152.739
-149.625
-146.477
-143.276
-140.007
-136.661
-133.231
-129.712
-126.096
-122.375
-118.541
-114.588
-110.51
-106.306
-101.975
-97.518
-92.94
-88.247
-83.448
-78.553
-73.573
-68.518
-63.398
-58.224
-53.009
-47.764
-42.505
-37.244
-31.997
-26.782
-21.616
-16.518
-11.507
-6.603
-1.824
2.809
7.278
11.561
15.642
19.501
23.12
26.483
29.574
32.378
34.881
37.072
38.94
40.476
41.673
42.526
43.03
43.185
42.989
42.446
41.559
40.334
38.777
36.899
34.71
32.222
29.449
26.407
23.114
19.587
15.845
11.911
7.804
3.547
-0.837
-5.325
-9.893
-14.52
-19.18
-23.851
-28.51
-33.136
-37.706
-42.2
-46.598
-50.881
-55.033
-59.036
-62.875
-66.538
-70.012
-73.286
-76.352
-79.201
-81.828
-84.228
-86.398
-88.337
-90.045
-91.522
-92.772
-93.797
-94.604
-95.198
-95.587
-95.779
-95.783
-95.609
-95.267
-94.768
-94.123
-93.345
-92.446
-91.437
-90.332
-89.141
-87.878
-86.554
-85.18
-83.767
-82.327
-80.869
-79.402
-77.935
-76.476
-75.032
-73.61
-72.216
-70.853
-69.528
-68.242
-66.999
-65.801
-64.65
-63.546
-62.489
-61.479
-60.516
-59.598
-58.723
-57.89
-57.096
-56.338
-55.615
-54.922
-54.256
-53.615
-52.996
-52.394
-51.808
-51.233
-50.668
-50.11
-49.557
-49.006
-48.457
-47.908
-47.36
-46.811
-46.261
-45.713
-45.167
-44.623
-44.085
-43.554
-43.033
-42.524
-42.03
-41.554
-41.1
-40.669
-40.266
-39.894
-39.555
-39.254
-38.994
-38.778
-38.608
-38.489
-38.422
-38.41
-38.457
-38.564
-38.732
-38.965
-39.261
-39.624
-40.052
-40.545
-41.102
-41.721
-42.401
-43.138
-43.929
-44.77
-45.656
-46.582
-47.543
-48.534
-49.548
-50.58
-51.621
-52.667
-53.71
-54.742
-55.756
-56.744
-57.699
-58.613
-59.478
-60.287
-61.031
-61.704
-62.297
-62.803
-63.215
-63.526
-63.729
-63.817
-63.786
-63.629
-63.344
-62.927
-62.375
-61.687
-60.862
-59.901
-58.806
-57.578
-56.221
-54.737
-53.133
-51.413
-49.584
-47.654
-45.63
-43.523
-41.344
-39.107
-36.824
-34.51
-32.181
-29.85
-27.533
-25.247
-23.004
-20.817
-18.7
-16.669
-14.738
-12.924
-11.239
-9.698
-8.311
-7.088
-6.041
-5.176
-4.493
-3.992
-3.677
-3.553
-3.635
-3.937
-4.462
-5.212
-6.186
-7.377
-8.776
-10.364
-12.104
-13.957
-15.886
-17.856
-19.846
-21.828
-23.761
-25.591
-27.255
-28.694
-29.87
-30.754
-31.317
-31.546
-31.453
-31.076
-30.489
-29.778
-29.023
-28.307
-27.727
-27.376
-27.355
-27.788
-28.828
-30.582
-33.071
-36.183
-39.64
-43.13
-46.37
-49.002
-50.576
-50.741
-49.349
-46.669
-43.504
-40.7
-38.888
-38.747
-40.893
-45.708
-53.415
-62.555
-69.896
-72.61
-67.812
-54.938
-36.365
-11.702
20.265
62.693
122.754
202.053
298.98
409.761
523.603
631.431
723.661
788.597
818.669
807.395
753.544
662.013
540.449
401.189
257.295
122.56
11.732
-65.574
-106.075
-112.517
-94.991
-65.924
-34.9
-11.038
0.415
0.193
-9.869
-23.907
-34.718
-40.252
-40.505
-37.795
-36.131
-36.232
-36.989
-37.338
-35.906
-32.615
-28.399
-23.902
-19.677
-16.205
-13.756
-12.47
-12.378
-13.364
-15.206
-17.739
-20.843
-24.354
-28.109
-31.95
-35.707
-39.239
-42.427
-45.166
-47.386
-49.043
-50.115
-50.599
-50.512
-49.886
-48.771
-47.217
-45.269
-42.973
-40.37
-37.513
-34.463
-31.284
-28.034
-24.757
-21.481
-18.222
-14.993
-11.795
-8.623
-5.465
-2.301
0.882
4.093
7.338
10.621
13.95
17.334
20.78
24.295
27.884
31.548
35.288
39.104
42.991
46.946
50.96
55.025
59.132
63.275
67.446
71.638
75.842
80.047
84.244
88.422
92.568
96.667
100.706
104.668
108.538
112.298
115.932
119.423
122.755
125.91
128.874
131.631
134.166
136.465
138.513
140.298
141.809
143.034
143.964
144.589
144.903
144.898
144.569
143.914
142.928
141.612
139.965
137.988
135.686
133.062
130.124
126.878
123.333
119.502
115.397
111.031
106.419
101.578
96.526
91.279
85.857
80.279
74.565
68.733
62.805
56.799
50.737
44.637
38.52
32.406
26.312
20.258
14.263
8.343
2.516
-3.201
-8.793
-14.245
-19.542
-24.671
-29.619
-34.375
-38.929
-43.271
-47.393
-51.289
-54.954
-58.382
-61.572
-64.521
-67.228
-69.694
-71.921
-73.91
-75.665
-77.19
-78.489
-79.569
-80.435
-81.096
-81.558
-81.83
-81.921
-81.841
-81.599
-81.205
-80.67
-80.005
-79.222
-78.333
-77.348
-76.28
-75.141
-73.943
-72.697
-71.415
-70.108
-68.785
-67.458
-66.135
-64.826
-63.539
-62.282
-61.062
-59.888
-58.763
-57.696
-56.689
-55.748
-54.875
-54.074
-53.347
-52.696
-52.121
-51.622
-51.2
-50.853
-50.579
-50.377
-50.244
-50.177
-50.171
-50.223
-50.328
-50.48
-50.675
-50.908
-51.174
-51.467
-51.782
-52.114
-52.459
-52.811
-53.165
-53.518
-53.864
-54.199
-54.52
-54.822
-55.104
-55.362
-55.594
-55.798
-55.974
-56.12
-56.236
-56.323
-56.38
-56.408
-56.409
-56.386
-56.339
-56.273
-56.191
-56.096
-55.992
-55.882
-55.771
-55.662
-55.559
-55.465
-55.383
-55.317
-55.27
-55.244
-55.243
-55.268
-55.323
-55.408
-55.526
-55.677
-55.861
-56.078
-56.328
-56.608
-56.916
-57.251
-57.608
-57.984
-58.375
-58.776
-59.182
-59.585
-59.979
-60.357
-60.71
-61.03
-61.308
-61.537
-61.708
-61.813
-61.845
-61.795
-61.656
-61.423
-61.088
-60.644
-60.088
-59.413
-58.616
-57.693
-56.643
-55.465
-54.159
-52.727
-51.174
-49.504
-47.723
-45.839
-43.861
-41.8
-39.666
-37.472
-35.229
-32.951
-30.653
-28.351
-26.061
-23.8
-21.587
-19.441
-17.378
-15.417
-13.573
-11.862
-10.294
-8.88
-7.63
-6.557
-5.68
-5.014
-4.568
-4.354
-4.38
-4.647
-5.151
-5.877
-6.798
-7.888
-9.119
-10.464
-11.907
-13.421
-14.979
-16.549
-18.084
-19.537
-20.872
-22.043
-23.015
-23.772
-24.315
-24.679
-24.937
-25.154
-25.387
-25.7
-26.141
-26.766
-27.645
-28.835
-30.395
-32.413
-35.014
-38.283
-42.245
-46.811
-51.724
-56.643
-61.191
-64.896
-67.186
-67.639
-66.026
-62.344
-57.151
-51.295
-45.595
-41.173
-38.701
-37.729
-37.64
-37.43
-37.032
-38.273
-41.983
-46.845
-46.958
-32.437
5.043
70.05
159.716
265.915
380.91
496.885
609.332
713.342
799.352
858.652
881.109
859.822
796.919
696.59
568.438
427.18
285.411
158.441
59.723
-6.413
-39.753
-47.772
-43.216
-34.662
-29.329
-29.852
-33.306
-37.326
-37.925
-32.112
-20.68
-5.514
9.442
20.288
25.795
26.362
23.613
18.957
12.648
4.676
-4.699
-14.478
-23.338
-30.529
-35.857
-39.441
-41.447
-42.009
-41.411
-40.28
-39.422
-39.325
-40.138
-41.803
-44.117
-46.889
-49.922
-52.914
-55.514
-57.509
-58.818
-59.438
-59.448
-58.905
-57.846
-56.331
-54.427
-52.18
-49.629
-46.806
-43.738
-40.475
-37.081
-33.603
-30.079
-26.534
-22.982
-19.433
-15.892
-12.353
-8.808
-5.253
-1.689
1.881
5.454
9.032
12.62
16.223
19.851
23.508
27.201
30.933
34.705
38.515
42.359
46.231
50.125
54.033
57.951
61.875
65.798
69.717
73.623
77.512
81.374
85.202
88.985
92.712
96.37
99.949
103.435
106.815
110.077
113.208
116.193
119.019
121.674
124.145
126.418
128.481
130.322
131.929
133.294
134.406
135.257
135.84
136.15
136.183
135.935
135.406
134.594
133.502
132.131
130.485
128.568
126.387
123.948
121.26
118.332
115.176
111.802
108.225
104.457
100.512
96.407
92.157
87.776
83.283
78.693
74.023
69.29
64.512
59.704
54.884
50.067
45.27
40.506
35.791
31.136
26.556
22.061
17.663
13.37
9.193
5.139
1.216
-2.57
-6.213
-9.708
-13.051
-16.239
-19.27
-22.143
-24.856
-27.408
-29.801
-32.035
-34.112
-36.034
-37.804
-39.425
-40.901
-42.236
-43.436
-44.506
-45.45
-46.276
-46.99
-47.596
-48.103
-48.515
-48.841
-49.085
-49.255
-49.357
-49.398
-49.384
-49.322
-49.218
-49.078
-48.909
-48.717
-48.507
-48.286
-48.059
-47.832
-47.612
-47.403
-47.212
-47.043
-46.901
-46.79
-46.716
-46.68
-46.688
-46.742
-46.843
-46.995
-47.198
-47.454
-47.764
-48.128
-48.545
-49.015
-49.537
-50.11
-50.731
-51.398
-52.109
-52.861
-53.65
-54.473
-55.327
-56.207
-57.11
-58.029
-58.962
-59.901
-60.843
-61.783
-62.714
-63.631
-64.529
-65.404
-66.25
-67.063
-67.839
-68.574
-69.264
-69.907
-70.499
-71.039
-71.526
-71.956
-72.331
-72.65
-72.912
-73.12
-73.273
-73.373
-73.422
-73.423
-73.377
-73.287
-73.156
-72.988
-72.785
-72.551
-72.291
-72.007
-71.703
-71.385
-71.055
-70.717
-70.376
-70.035
-69.696
-69.363
-69.038
-68.722
-68.417
-68.124
-67.843
-67.573
-67.313
-67.062
-66.818
-66.578
-66.339
-66.098
-65.85
-65.591
-65.317
-65.024
-64.705
-64.356
-63.971
-63.546
-63.075
-62.553
-61.974
-61.334
-60.629
-59.853
-59.002
-58.073
-57.063
-55.968
-54.788
-53.52
-52.164
-50.722
-49.196
-47.59
-45.911
-44.166
-42.363
-40.511
-38.623
-36.708
-34.777
-32.842
-30.911
-28.997
-27.11
-25.264
-23.471
-21.748
-20.105
-18.556
-17.113
-15.789
-14.594
-13.535
-12.614
-11.839
-11.22
-10.774
-10.52
-10.471
-10.636
-11.02
-11.62
-12.433
-13.441
-14.611
-15.908
-17.29
-18.72
-20.172
-21.618
-23.023
-24.339
-25.502
-26.454
-27.15
-27.556
-27.654
-27.44
-26.926
-26.166
-25.256
-24.285
-23.357
-22.575
-22.026
-21.821
-22.074
-22.875
-24.362
-26.712
-30.018
-34.264
-39.303
-44.808
-50.422
-55.825
-60.57
-64.079
-65.912
-65.936
-64.435
-62.08
-59.697
-57.943
-57.353
-58.75
-62.253
-66.698
-70.482
-71.338
-67.976
-61.552
-52.302
-38.256
-14.899
25.378
87.411
170.647
270.316
377.913
485.969
589.917
685.486
766.933
826.659
854.776
842.634
788.143
693.959
568.463
425.979
280.639
147.387
40.496
-32.731
-70.414
-76.249
-61.252
-36.952
-13.38
-0.25
-0.209
-11.365
-29.772
-46.967
-58.463
-64.162
-65.467
-67.016
-70.88
-75.966
-80.842
-83.42
-82.997
-80.358
-76.293
-71.573
-66.814
-62.409
-58.775
-56.206
-54.749
-54.328
-54.811
-56.074
-58.008
-60.48
-63.321
-66.396
-69.604
-72.834
-75.976
-78.9
-81.456
-83.548
-85.125
-86.151
-86.62
-86.541
-85.931
-84.834
-83.306
-81.397
-79.156
-76.63
-73.857
-70.892
-67.793
-64.618
-61.427
-58.26
-55.14
-52.083
-49.094
-46.166
-43.291
-40.453
-37.626
-34.793
-31.94
-29.052
-26.12
-23.133
-20.077
-16.94
-13.708
-10.373
-6.93
-3.373
0.298
4.083
7.98
11.982
16.081
20.269
24.538
28.88
33.285
37.744
42.244
46.773
51.317
55.861
60.387
64.878
69.313
73.671
77.933
82.076
86.079
89.92
93.578
97.031
100.258
103.239
105.955
108.388
110.52
112.337
113.824
114.969
115.761
116.193
116.257
115.949
115.266
114.209
112.779
110.98
108.817
106.298
103.433
100.232
96.71
92.879
88.758
84.364
79.717
74.836
69.745
64.466
59.023
53.439
47.739
41.947
36.088
30.187
24.267
18.352
12.465
6.628
0.862
-4.811
-10.374
-15.809
-21.1
-26.231
-31.19
-35.964
-40.544
-44.92
-49.085
-53.034
-56.762
-60.265
-63.542
-66.592
-69.416
-72.017
-74.396
-76.559
-78.51
-80.256
-81.802
-83.156
-84.326
-85.32
-86.147
-86.817
-87.337
-87.719
-87.971
-88.102
-88.123
-88.041
-87.867
-87.608
-87.273
-86.868
-86.402
-85.881
-85.311
-84.698
-84.048
-83.364
-82.653
-81.917
-81.16
-80.386
-79.597
-78.797
-77.987
-77.171
-76.349
-75.525
-74.698
-73.871
-73.045
-72.222
-71.401
-70.585
-69.773
-68.968
-68.169
-67.377
-66.595
-65.821
-65.059
-64.308
-63.569
-62.845
-62.135
-61.442
-60.766
-60.109
-59.472
-58.856
-58.263
-57.694
-57.149
-56.631
-56.139
-55.674
-55.236
-54.826
-54.443
-54.087
-53.758
-53.456
-53.181
-52.933
-52.711
-52.516
-52.347
-52.204
-52.087
-51.993
-51.924
-51.877
-51.852
-51.847
-51.862
-51.897
-51.951
-52.024
-52.115
-52.224
-52.352
-52.496
-52.658
-52.836
-53.031
-53.242
-53.471
-53.717
-53.981
-54.264
-54.567
-54.891
-55.234
-55.599
-55.982
-56.384
-56.8
-57.229
-57.666
-58.11
-58.558
-59.006
-59.452
-59.895
-60.334
-60.768
-61.193
-61.606
-62.001
-62.369
-62.705
-62.998
-63.239
-63.419
-63.529
-63.561
-63.512
-63.377
-63.153
-62.831
-62.402
-61.853
-61.174
-60.364
-59.418
-58.34
-57.141
-55.835
-54.453
-53.028
-51.58
-50.128
-48.678
-47.222
-45.758
-44.281
-42.783
-41.27
-39.743
-38.198
-36.64
-35.071
-33.472
-31.821
-30.069
-28.15
-26.037
-23.721
-21.206
-18.538
-15.76
-12.925
-10.118
-7.403
-4.84
-2.5
-0.425
1.348
2.753
3.726
4.181
4.013
3.171
1.65
-0.546
-3.356
-6.714
-10.538
-14.69
-19.042
-23.475
-27.862
-32.108
-36.142
-39.873
-43.22
-46.112
-48.468
-50.271
-51.553
-52.359
-52.78
-52.93
-52.934
-52.967
-53.183
-53.744
-54.854
-56.653
-59.179
-62.351
-65.929
-69.629
-73.222
-76.369
-78.598
-79.544
-78.994
-77.147
-74.666
-72.187
-70.347
-69.859
-71.322
-75.268
-81.379
-87.811
-92.238
-92.219
-86.565
-75.938
-60.254
-38.34
-6.876
39.023
102.726
185.71
286.278
400.498
522.649
643.811
752.788
836.327
881.349
879.522
829.731
737.365
613.929
473.979
330.797
197.509
85.585
2.528
-47.554
-66.727
-64.277
-52.78
-44.099
-45.482
-56.592
-71.215
-81.846
-83.665
-76.297
-63.548
-50.96
-42.288
-38.794
-39.638
-42.672
-46.555
-50.965
-55.826
-61.017
-65.844
-69.464
-71.5
-71.945
-71.025
-69.032
-66.191
-62.903
-59.842
-57.562
-56.35
-56.285
-57.234
-59.014
-61.461
-64.301
-67.134
-69.632
-71.598
-72.936
-73.664
-73.812
-73.386
-72.419
-70.977
-69.122
-66.903
-64.357
-61.499
-58.355
-54.979
-51.429
-47.773
-44.076
-40.377
-36.702
-33.067
-29.481
-25.943
-22.451
-18.993
-15.551
-12.116
-8.677
-5.23
-1.767
1.721
5.248
8.828
12.474
16.192
19.99
23.869
27.832
31.876
36
40.197
44.461
48.783
53.159
57.58
62.04
66.531
71.04
75.556
80.067
84.56
89.02
93.429
97.77
102.026
106.179
110.209
114.099
117.829
121.382
124.737
127.878
130.788
133.449
135.846
137.963
139.788
141.308
142.511
143.388
143.931
144.134
143.99
143.498
142.656
141.464
139.924
138.04
135.817
133.264
130.389
127.202
123.716
119.945
115.905
111.611
107.083
102.339
97.399
92.283
87.014
81.613
76.103
70.504
64.841
59.134
53.407
47.681
41.977
36.316
30.718
25.203
19.789
14.493
9.333
4.324
-0.521
-5.187
-9.664
-13.94
-18.006
-21.855
-25.48
-28.875
-32.037
-34.963
-37.652
-40.104
-42.32
-44.302
-46.054
-47.58
-48.886
-49.977
-50.861
-51.545
-52.039
-52.35
-52.488
-52.463
-52.286
-51.967
-51.518
-50.949
-50.271
-49.497
-48.637
-47.702
-46.704
-45.654
-44.561
-43.435
-42.288
-41.126
-39.961
-38.799
-37.648
-36.516
-35.41
-34.334
-33.295
-32.296
-31.343
-30.439
-29.587
-28.789
-28.047
-27.363
-26.739
-26.174
-25.669
-25.224
-24.837
-24.508
-24.234
-24.015
-23.848
-23.729
-23.658
-23.63
-23.642
-23.693
-23.777
-23.893
-24.037
-24.206
-24.397
-24.607
-24.834
-25.075
-25.328
-25.591
-25.861
-26.139
-26.422
-26.709
-26.999
-27.292
-27.587
-27.883
-28.182
-28.481
-28.783
-29.087
-29.394
-29.704
-30.02
-30.342
-30.672
-31.011
-31.361
-31.723
-32.1
-32.492
-32.902
-33.331
-33.779
-34.249
-34.742
-35.257
-35.795
-36.356
-36.941
-37.548
-38.176
-38.825
-39.492
-40.175
-40.873
-41.582
-42.299
-43.02
-43.742
-44.46
-45.17
-45.868
-46.547
-47.202
-47.829
-48.42
-48.969
-49.47
-49.916
-50.301
-50.616
-50.857
-51.015
-51.086
-51.062
-50.939
-50.711
-50.373
-49.922
-49.355
-48.668
-47.86
-46.929
-45.876
-44.702
-43.408
-41.998
-40.477
-38.853
-37.132
-35.325
-33.441
-31.492
-29.49
-27.449
-25.382
-23.302
-21.222
-19.157
-17.122
-15.136
-13.214
-11.375
-9.638
-8.018
-6.534
-5.202
-4.034
-3.041
-2.231
-1.615
-1.203
-1.014
-1.063
-1.36
-1.912
-2.723
-3.79
-5.105
-6.645
-8.377
-10.264
-12.27
-14.362
-16.516
-18.701
-20.882
-23.019
-25.055
-26.943
-28.642
-30.114
-31.326
-32.267
-32.948
-33.414
-33.757
-34.061
-34.403
-34.857
-35.493
-36.401
-37.685
-39.436
-41.729
-44.635
-48.259
-52.66
-57.817
-63.562
-69.551
-75.383
-80.675
-85.018
-87.92
-88.993
-88.059
-85.3
-81.34
-76.82
-72.313
-68.47
-65.941
-65.398
-66.672
-67.836
-66.275
-59.304
-45.709
-27.72
-7.545
14.845
42.099
82.614
145.26
233.724
347.44
476.868
607.568
726.857
821.22
882.153
904.188
881.717
815.378
707.926
567.363
409.538
250.569
108.311
-2.206
-75.282
-110.941
-115.342
-100.336
-76.505
-53.342
-40.23
-39.8
-50.837
-69.377
-86.226
-96.535
-99.965
-98.125
-96.374
-97.128
-99.365
-101.613
-101.642
-98.798
-93.992
-88.09
-81.909
-76.019
-70.772
-66.591
-63.75
-62.271
-62.054
-62.912
-64.676
-67.22
-70.365
-73.906
-77.666
-81.47
-85.164
-88.606
-91.633
-94.121
-96
-97.222
-97.777
-97.674
-96.931
-95.59
-93.716
-91.366
-88.6
-85.476
-82.048
-78.382
-74.552
-70.628
-66.682
-62.763
-58.898
-55.109
-51.403
-47.778
-44.226
-40.732
-37.271
-33.826
-30.384
-26.935
-23.47
-19.978
-16.443
-12.855
-9.199
-5.469
-1.657
2.241
6.227
10.3
14.459
18.697
23.01
27.39
31.833
36.334
40.888
45.488
50.126
54.793
59.48
64.174
68.862
73.529
78.158
82.732
87.234
91.644
95.945
100.115
104.136
107.989
111.653
115.109
118.34
121.325
124.049
126.493
128.644
130.486
132.006
133.194
134.04
134.534
134.672
134.446
133.855
132.895
131.568
129.875
127.82
125.408
122.646
119.545
116.115
112.369
108.324
103.996
99.403
94.565
89.503
84.239
78.797
73.201
67.475
61.644
55.734
49.77
43.779
37.786
31.815
25.891
20.038
14.278
8.635
3.127
-2.223
-7.399
-12.381
-17.154
-21.703
-26.014
-30.075
-33.876
-37.407
-40.661
-43.632
-46.317
-48.712
-50.818
-52.636
-54.167
-55.417
-56.391
-57.095
-57.539
-57.732
-57.686
-57.411
-56.922
-56.233
-55.356
-54.309
-53.105
-51.761
-50.293
-48.716
-47.046
-45.3
-43.492
-41.638
-39.754
-37.853
-35.95
-34.058
-32.191
-30.36
-28.577
-26.852
-25.196
-23.616
-22.121
-20.718
-19.411
-18.207
-17.107
-16.115
-15.232
-14.458
-13.792
-13.232
-12.776
-12.421
-12.161
-11.992
-11.909
-11.904
-11.973
-12.108
-12.301
-12.547
-12.837
-13.165
-13.522
-13.902
-14.297
-14.702
-15.108
-15.51
-15.901
-16.276
-16.63
-16.957
-17.254
-17.517
-17.743
-17.93
-18.076
-18.181
-18.246
-18.269
-18.254
-18.201
-18.114
-17.995
-17.849
-17.68
-17.493
-17.292
-17.082
-16.869
-16.659
-16.455
-16.263
-16.088
-15.935
-15.807
-15.709
-15.644
-15.616
-15.628
-15.682
-15.78
-15.924
-16.116
-16.354
-16.64
-16.971
-17.346
-17.761
-18.212
-18.697
-19.209
-19.743
-20.294
-20.854
-21.417
-21.974
-22.517
-23.039
-23.53
-23.982
-24.387
-24.735
-25.02
-25.234
-25.371
-25.424
-25.388
-25.257
-25.029
-24.7
-24.266
-23.725
-23.076
-22.321
-21.459
-20.493
-19.426
-18.266
-17.019
-15.697
-14.31
-12.87
-11.391
-9.887
-8.375
-6.869
-5.383
-3.931
-2.528
-1.189
0.069
1.228
2.272
3.184
3.949
4.554
4.985
5.231
5.288
5.154
4.823
4.289
3.534
2.54
1.3
-0.196
-1.951
-3.958
-6.209
-8.68
-11.331
-14.115
-16.989
-19.91
-22.848
-25.77
-28.636
-31.395
-33.983
-36.337
-38.408
-40.153
-41.536
-42.554
-43.226
-43.612
-43.812
-43.92
-44.038
-44.272
-44.716
-45.471
-46.644
-48.315
-50.606
-53.706
-57.714
-62.646
-68.407
-74.649
-80.972
-87.002
-92.199
-95.914
-97.72
-97.364
-94.96
-91.35
-87.562
-84.479
-83.203
-84.275
-87.147
-91.037
-94.392
-96.184
-97.044
-97.094
-95.458
-87.26
-64.169
-18.797
54.296
153.134
270.429
398.709
528.221
651.923
762.966
850.04
903.104
912.171
870.238
779.402
647.51
488.379
321.515
164.932
33.38
-63.238
-125.403
-158.091
-167.485
-162.833
-148.621
-129.005
-111.322
-97.686
-89.763
-87.23
-83.952
-77.862
-69.974
-62.115
-58.9
-62.224
-70.874
-82.901
-95.655
-107.245
-116.509
-122.884
-126.38
-127.073
-125.387
-122.017
-117.499
-112.583
-108.263
-105.084
-103.309
-103.048
-104.06
-106.075
-108.906
-112.187
-115.47
-118.457
-120.92
-122.742
-123.953
-124.559
-124.545
-123.947
-122.803
-121.154
-119.056
-116.537
-113.612
-110.318
-106.695
-102.801
-98.707
-94.475
-90.163
-85.816
-81.46
-77.117
-72.8
-68.513
-64.258
-60.03
-55.815
-51.605
-47.392
-43.17
-38.932
-34.671
-30.372
-26.026
-21.626
-17.165
-12.642
-8.057
-3.411
1.295
6.053
10.859
15.703
20.577
25.473
30.384
35.3
40.212
45.109
49.978
54.808
59.586
64.296
68.922
73.449
77.857
82.128
86.246
90.19
93.941
97.481
100.791
103.853
106.649
109.162
111.377
113.278
114.852
116.087
116.973
117.499
117.66
117.45
116.864
115.902
114.562
112.848
110.763
108.313
105.504
102.345
98.849
95.027
90.893
86.463
81.756
76.79
71.585
66.165
60.55
54.766
48.837
42.788
36.644
30.431
24.175
17.901
11.634
5.4
-0.779
-6.88
-12.88
-18.758
-24.495
-30.073
-35.474
-40.684
-45.687
-50.472
-55.026
-59.341
-63.408
-67.221
-70.774
-74.064
-77.089
-79.847
-82.339
-84.569
-86.538
-88.253
-89.718
-90.941
-91.931
-92.696
-93.247
-93.593
-93.747
-93.719
-93.522
-93.167
-92.667
-92.033
-91.279
-90.414
-89.451
-88.402
-87.276
-86.085
-84.839
-83.546
-82.216
-80.857
-79.477
-78.083
-76.683
-75.283
-73.887
-72.503
-71.133
-69.783
-68.457
-67.156
-65.885
-64.643
-63.434
-62.257
-61.114
-60.005
-58.93
-57.89
-56.884
-55.913
-54.975
-54.072
-53.202
-52.366
-51.563
-50.793
-50.055
-49.351
-48.679
-48.04
-47.435
-46.864
-46.329
-45.829
-45.366
-44.941
-44.554
-44.206
-43.895
-43.624
-43.392
-43.2
-43.049
-42.938
-42.87
-42.845
-42.864
-42.926
-43.033
-43.183
-43.375
-43.61
-43.885
-44.199
-44.551
-44.94
-45.363
-45.82
-46.307
-46.822
-47.363
-47.924
-48.501
-49.089
-49.683
-50.275
-50.859
-51.429
-51.981
-52.509
-53.008
-53.477
-53.91
-54.304
-54.655
-54.958
-55.204
-55.387
-55.498
-55.527
-55.467
-55.312
-55.056
-54.696
-54.228
-53.654
-52.973
-52.181
-51.273
-50.24
-49.076
-47.783
-46.366
-44.835
-43.21
-41.515
-39.78
-38.037
-36.312
-34.623
-32.978
-31.371
-29.797
-28.246
-26.721
-25.235
-23.798
-22.418
-21.095
-19.829
-18.603
-17.386
-16.141
-14.818
-13.386
-11.836
-10.183
-8.466
-6.739
-5.076
-3.535
-2.165
-1.011
-0.105
0.521
0.836
0.8
0.368
-0.514
-1.898
-3.811
-6.259
-9.208
-12.599
-16.344
-20.315
-24.389
-28.448
-32.384
-36.119
-39.584
-42.715
-45.47
-47.825
-49.771
-51.324
-52.506
-53.357
-53.949
-54.387
-54.808
-55.379
-56.236
-57.525
-59.429
-62.057
-65.431
-69.441
-73.776
-78.087
-82.061
-85.285
-87.263
-87.61
-86.094
-82.917
-78.758
-74.266
-70.109
-67.095
-65.943
-67.393
-71.267
-75.524
-77.519
-74.604
-65.772
-52.658
-36.463
-16.466
11.526
54.631
119.341
209.069
321.909
452.262
591.708
728.885
850.928
942.826
988.939
978.21
908.078
784.039
620.497
437.408
253.672
87.683
-45.791
-139.415
-191.955
-207.784
-196.658
-170.293
-137.915
-108.838
-89.723
-80.523
-79.498
-81
-77.564
-67.827
-53.546
-38.673
-28.613
-24.811
-26.016
-30.56
-36.5
-42.93
-49.559
-55.815
-61.016
-64.775
-67.1
-68.139
-68.012
-66.929
-65.203
-63.328
-62.017
-61.656
-62.254
-63.721
-65.833
-68.356
-71.101
-73.793
-76.076
-77.751
-78.748
-79.06
-78.773
-77.954
-76.629
-74.858
-72.708
-70.23
-67.469
-64.466
-61.251
-57.871
-54.387
-50.839
-47.263
-43.679
-40.092
-36.503
-32.905
-29.285
-25.626
-21.917
-18.151
-14.323
-10.428
-6.459
-2.405
1.741
5.99
10.348
14.824
19.419
24.134
28.965
33.906
38.946
44.078
49.289
54.571
59.912
65.302
70.729
76.178
81.636
87.085
92.509
97.888
103.201
108.428
113.545
118.532
123.367
128.026
132.487
136.73
140.731
144.47
147.926
151.079
153.91
156.402
158.538
160.303
161.683
162.667
163.244
163.408
163.152
162.473
161.367
159.837
157.883
155.511
152.726
149.537
145.955
141.992
137.663
132.983
127.972
122.649
117.036
111.156
105.031
98.688
92.151
85.447
78.602
71.644
64.599
57.496
50.359
43.217
36.095
29.019
22.012
15.099
8.302
1.643
-4.86
-11.187
-17.32
-23.243
-28.942
-34.404
-39.617
-44.571
-49.257
-53.669
-57.801
-61.649
-65.212
-68.488
-71.478
-74.183
-76.608
-78.757
-80.635
-82.249
-83.606
-84.715
-85.585
-86.225
-86.646
-86.86
-86.876
-86.707
-86.364
-85.859
-85.203
-84.409
-83.489
-82.454
-81.316
-80.086
-78.775
-77.395
-75.956
-74.468
-72.941
-71.386
-69.811
-68.224
-66.634
-65.05
-63.477
-61.923
-60.395
-58.899
-57.439
-56.022
-54.651
-53.333
-52.07
-50.866
-49.725
-48.649
-47.642
-46.705
-45.842
-45.053
-44.34
-43.705
-43.148
-42.671
-42.274
-41.957
-41.72
-41.563
-41.485
-41.485
-41.562
-41.715
-41.942
-42.242
-42.612
-43.049
-43.552
-44.118
-44.742
-45.423
-46.154
-46.934
-47.755
-48.615
-49.507
-50.427
-51.368
-52.325
-53.293
-54.264
-55.233
-56.193
-57.137
-58.059
-58.951
-59.807
-60.619
-61.379
-62.082
-62.719
-63.283
-63.769
-64.169
-64.476
-64.684
-64.785
-64.775
-64.647
-64.395
-64.014
-63.5
-62.85
-62.061
-61.13
-60.057
-58.84
-57.48
-55.978
-54.335
-52.555
-50.64
-48.595
-46.427
-44.14
-41.743
-39.244
-36.654
-33.986
-31.252
-28.467
-25.645
-22.805
-19.962
-17.135
-14.341
-11.597
-8.919
-6.325
-3.831
-1.457
0.778
2.857
4.763
6.479
7.992
9.287
10.354
11.187
11.784
12.139
12.244
12.083
11.644
10.918
9.9
8.59
6.992
5.119
2.993
0.651
-1.866
-4.516
-7.262
-10.076
-12.925
-15.769
-18.556
-21.219
-23.694
-25.928
-27.873
-29.491
-30.771
-31.721
-32.39
-32.867
-33.233
-33.574
-33.983
-34.541
-35.34
-36.482
-38.048
-40.151
-42.967
-46.605
-51.076
-56.287
-61.949
-67.696
-73.174
-77.886
-81.201
-82.634
-81.992
-79.423
-75.519
-71.145
-67.165
-64.53
-64.457
-67.269
-71.861
-76.635
-79.217
-78.538
-75.892
-71.712
-64.756
-50.066
-19.188
35.565
119.001
230.026
362.946
508.429
654.666
790.233
901.511
976.578
1005.315
979.675
900.138
771.538
605.977
422.867
241.161
81.014
-42.312
-123.177
-162.309
-167.003
-148.6
-117.972
-84.267
-56.692
-41.017
-37.552
-44.261
-54.198
-59.987
-60.291
-56.35
-51.88
-51.465
-55.697
-63.104
-71.965
-80.098
-86.301
-90.276
-91.965
-91.684
-89.89
-86.994
-83.328
-79.22
-75.229
-72.002
-69.914
-69.105
-69.483
-70.8
-72.881
-75.576
-78.606
-81.62
-84.334
-86.541
-88.156
-89.195
-89.656
-89.527
-88.824
-87.578
-85.84
-83.669
-81.106
-78.18
-74.926
-71.385
-67.616
-63.683
-59.646
-55.561
-51.466
-47.381
-43.321
-39.292
-35.294
-31.326
-27.375
-23.423
-19.458
-15.467
-11.443
-7.377
-3.259
0.926
5.188
9.537
13.979
18.514
23.143
27.866
32.679
37.575
42.546
47.582
52.673
57.808
62.978
68.171
73.374
78.572
83.751
88.895
93.986
99.008
103.94
108.762
113.453
117.994
122.363
126.54
130.503
134.233
137.709
140.912
143.824
146.427
148.706
150.646
152.233
153.455
154.303
154.769
154.847
154.533
153.824
152.721
151.227
149.344
147.081
144.443
141.443
138.091
134.401
130.389
126.071
121.466
116.595
111.477
106.137
100.595
94.878
89.009
83.013
76.916
70.742
64.517
58.264
52.01
45.776
39.587
33.464
27.428
21.5
15.697
10.038
4.538
-0.788
-5.927
-10.869
-15.602
-20.119
-24.413
-28.479
-32.313
-35.912
-39.276
-42.404
-45.299
-47.962
-50.399
-52.614
-54.612
-56.402
-57.99
-59.384
-60.593
-61.627
-62.494
-63.204
-63.766
-64.191
-64.487
-64.665
-64.734
-64.702
-64.58
-64.375
-64.096
-63.749
-63.343
-62.884
-62.377
-61.828
-61.242
-60.623
-59.976
-59.303
-58.608
-57.894
-57.163
-56.416
-55.656
-54.883
-54.099
-53.303
-52.497
-51.681
-50.856
-50.024
-49.184
-48.34
-47.492
-46.643
-45.796
-44.953
-44.116
-43.289
-42.473
-41.673
-40.891
-40.131
-39.396
-38.692
-38.021
-37.39
-36.802
-36.264
-35.778
-35.35
-34.984
-34.684
-34.454
-34.297
-34.219
-34.222
-34.31
-34.487
-34.756
-35.117
-35.573
-36.122
-36.764
-37.496
-38.314
-39.212
-40.183
-41.222
-42.321
-43.475
-44.675
-45.913
-47.184
-48.482
-49.799
-51.124
-52.446
-53.752
-55.027
-56.26
-57.435
-58.536
-59.548
-60.459
-61.258
-61.937
-62.487
-62.897
-63.152
-63.235
-63.134
-62.845
-62.366
-61.695
-60.84
-59.813
-58.639
-57.361
-56.008
-54.599
-53.145
-51.645
-50.1
-48.518
-46.899
-45.247
-43.559
-41.827
-40.054
-38.253
-36.416
-34.526
-32.543
-30.398
-28.051
-25.5
-22.753
-19.844
-16.811
-13.697
-10.571
-7.528
-4.656
-2.036
0.273
2.238
3.802
4.895
5.433
5.309
4.468
2.904
0.62
-2.356
-5.977
-10.181
-14.85
-19.818
-24.938
-30.083
-35.157
-40.099
-44.816
-49.215
-53.223
-56.778
-59.892
-62.616
-64.957
-66.937
-68.684
-70.34
-72.118
-74.269
-76.892
-80.06
-83.923
-88.554
-93.778
-99.284
-104.581
-109.113
-112.63
-114.889
-115.522
-114.283
-111.376
-107.464
-103.56
-100.737
-99.474
-100.113
-103.104
-108.693
-116.594
-124.687
-129.377
-127.177
-114.871
-92.299
-62.003
-24.427
19.881
73.711
144.772
236.296
349.811
481.87
619.206
748.144
852.934
918.294
935.716
900.054
813.119
684.324
527.771
363.021
209.111
80.81
-12.42
-71.378
-101.867
-111.144
-109.102
-100.496
-89.038
-80.756
-76.744
-78.443
-85.327
-90.881
-92.412
-89.677
-83.793
-79.833
-80.207
-84.251
-90.716
-97.369
-102.89
-107.07
-109.8
-110.954
-110.492
-108.586
-105.638
-102.08
-98.389
-95.111
-92.602
-91.167
-90.981
-91.945
-93.882
-96.591
-99.776
-103.087
-106.257
-109.056
-111.304
-112.951
-113.969
-114.333
-114.074
-113.234
-111.843
-109.948
-107.592
-104.803
-101.624
-98.109
-94.308
-90.288
-86.111
-81.836
-77.518
-73.196
-68.892
-64.621
-60.387
-56.188
-52.021
-47.876
-43.736
-39.591
-35.432
-31.248
-27.032
-22.771
-18.455
-14.073
-9.618
-5.085
-0.472
4.22
8.989
13.83
18.739
23.706
28.721
33.776
38.861
43.966
49.08
54.192
59.287
64.351
69.369
74.325
79.2
83.975
88.63
93.146
97.503
101.679
105.655
109.41
112.926
116.183
119.162
121.846
124.219
126.266
127.972
129.325
130.314
130.93
131.166
131.016
130.478
129.55
128.231
126.525
124.436
121.969
119.134
115.94
112.4
108.527
104.338
99.849
95.081
90.054
84.79
79.312
73.644
67.812
61.839
55.753
49.579
43.343
37.073
30.793
24.529
18.307
12.15
6.082
0.125
-5.698
-11.37
-16.87
-22.181
-27.288
-32.176
-36.833
-41.246
-45.408
-49.309
-52.944
-56.309
-59.401
-62.219
-64.764
-67.037
-69.043
-70.787
-72.274
-73.512
-74.509
-75.276
-75.822
-76.158
-76.298
-76.254
-76.038
-75.665
-75.148
-74.501
-73.739
-72.875
-71.923
-70.896
-69.808
-68.671
-67.499
-66.302
-65.091
-63.878
-62.671
-61.48
-60.311
-59.172
-58.068
-57.006
-55.989
-55.022
-54.106
-53.245
-52.44
-51.692
-51.001
-50.367
-49.789
-49.265
-48.794
-48.374
-48.001
-47.673
-47.388
-47.141
-46.931
-46.753
-46.604
-46.481
-46.382
-46.302
-46.24
-46.192
-46.156
-46.132
-46.117
-46.112
-46.114
-46.125
-46.144
-46.172
-46.209
-46.255
-46.311
-46.378
-46.455
-46.545
-46.647
-46.762
-46.892
-47.035
-47.193
-47.365
-47.551
-47.75
-47.961
-48.183
-48.412
-48.647
-48.884
-49.122
-49.355
-49.58
-49.794
-49.989
-50.161
-50.303
-50.409
-50.47
-50.48
-50.431
-50.315
-50.124
-49.852
-49.492
-49.038
-48.484
-47.824
-47.052
-46.166
-45.16
-44.032
-42.779
-41.402
-39.901
-38.278
-36.537
-34.683
-32.725
-30.672
-28.532
-26.318
-24.042
-21.721
-19.37
-17.008
-14.65
-12.313
-10.015
-7.777
-5.618
-3.559
-1.615
0.196
1.859
3.356
4.666
5.774
6.676
7.365
7.84
8.094
8.11
7.873
7.377
6.618
5.593
4.304
2.748
0.935
-1.102
-3.324
-5.68
-8.128
-10.65
-13.227
-15.853
-18.5
-21.105
-23.602
-25.93
-28.028
-29.876
-31.449
-32.688
-33.636
-34.417
-35.204
-36.31
-38.002
-40.335
-43.362
-47.083
-51.312
-55.94
-60.762
-65.202
-68.735
-71.087
-72.033
-71.644
-70.292
-68.032
-65.012
-61.86
-59.3
-58.132
-59.08
-62.456
-68.226
-76.516
-87.453
-100.184
-112.57
-121.863
-125.045
-120.748
-110.127
-94.248
-73.014
-43.225
1.438
67.285
158.392
273.733
408.224
552.793
695.393
824.109
925.114
986.121
998.431
956.055
860.844
721.468
552.337
375.043
210.957
77.185
-15.231
-67.799
-88.283
-85.668
-71.949
-53.324
-34.607
-23.573
-21.704
-29.849
-46.305
-62.546
-74.62
-81.526
-83.702
-85.82
-89.668
-94.094
-97.896
-99.085
-97.081
-92.839
-87.239
-81.117
-75.16
-69.808
-65.472
-62.402
-60.616
-59.999
-60.395
-61.676
-63.715
-66.347
-69.388
-72.679
-76.092
-79.506
-82.799
-85.824
-88.422
-90.488
-91.965
-92.82
-93.054
-92.677
-91.705
-90.184
-88.175
-85.733
-82.917
-79.781
-76.37
-72.743
-68.963
-65.091
-61.19
-57.3
-53.442
-49.629
-45.863
-42.135
-38.438
-34.752
-31.052
-27.32
-23.539
-19.698
-15.788
-11.799
-7.716
-3.528
0.774
5.197
9.744
14.415
19.209
24.121
29.144
34.267
39.479
44.767
50.12
55.525
60.969
66.438
71.917
77.387
82.833
88.234
93.57
98.819
103.958
108.963
113.811
118.48
122.945
127.184
131.174
134.894
138.323
141.441
144.23
146.672
148.753
150.458
151.776
152.698
153.215
153.322
153.017
152.298
151.166
149.624
147.678
145.335
142.605
139.498
136.027
132.208
128.057
123.592
118.835
113.805
108.527
103.023
97.318
91.438
85.408
79.254
73.002
66.678
60.308
53.917
47.529
41.169
34.859
28.622
22.477
16.445
10.544
4.79
-0.802
-6.217
-11.443
-16.469
-21.286
-25.884
-30.258
-34.4
-38.308
-41.979
-45.411
-48.603
-51.556
-54.274
-56.759
-59.015
-61.047
-62.862
-64.466
-65.866
-67.069
-68.086
-68.923
-69.59
-70.097
-70.452
-70.666
-70.748
-70.706
-70.55
-70.29
-69.933
-69.488
-68.965
-68.37
-67.713
-67.001
-66.241
-65.441
-64.609
-63.751
-62.875
-61.986
-61.091
-60.196
-59.307
-58.429
-57.566
-56.725
-55.909
-55.122
-54.368
-53.652
-52.975
-52.342
-51.755
-51.217
-50.729
-50.295
-49.916
-49.594
-49.33
-49.127
-48.985
-48.905
-48.889
-48.936
-49.047
-49.222
-49.461
-49.762
-50.124
-50.546
-51.026
-51.561
-52.148
-52.785
-53.467
-54.192
-54.954
-55.75
-56.575
-57.425
-58.294
-59.177
-60.07
-60.966
-61.86
-62.745
-63.616
-64.467
-65.289
-66.077
-66.823
-67.521
-68.162
-68.741
-69.25
-69.682
-70.029
-70.284
-70.441
-70.493
-70.433
-70.257
-69.958
-69.532
-68.976
-68.285
-67.458
-66.492
-65.387
-64.141
-62.755
-61.229
-59.563
-57.762
-55.827
-53.764
-51.578
-49.275
-46.865
-44.359
-41.77
-39.111
-36.396
-33.639
-30.856
-28.066
-25.287
-22.535
-19.828
-17.184
-14.621
-12.161
-9.822
-7.623
-5.58
-3.706
-2.015
-0.52
0.766
1.833
2.676
3.289
3.666
3.791
3.652
3.238
2.546
1.578
0.338
-1.164
-2.914
-4.883
-7.036
-9.335
-11.739
-14.21
-16.715
-19.22
-21.688
-24.082
-26.352
-28.441
-30.302
-31.883
-33.166
-34.179
-34.95
-35.501
-35.928
-36.363
-37.029
-38.255
-40.229
-42.955
-46.448
-50.737
-55.777
-61.486
-67.421
-72.71
-76.764
-79.344
-80.317
-79.695
-77.473
-73.608
-68.787
-64.497
-61.926
-62.014
-65.401
-72.099
-82.267
-95.431
-109.329
-120.992
-127.329
-126.594
-119.257
-105.413
-83.921
-51.067
-1.46
68.715
161.246
274.095
402.895
541.016
678.292
803.111
900.98
958.489
967.062
922.569
828.884
695.421
535.378
366.676
206.666
71.626
-26.072
-83.716
-103.965
-96.164
-74.919
-51.198
-35.366
-33.757
-44.059
-62.46
-82.014
-94.71
-98.69
-94.876
-86.579
-78.946
-74.016
-71.685
-70.967
-70.4
-69.975
-70.431
-72.245
-75.525
-79.549
-83.474
-86.973
-89.793
-91.745
-92.807
-92.944
-92.395
-91.814
-91.689
-92.219
-93.495
-95.4
-97.751
-100.416
-103.13
-105.518
-107.342
-108.475
-108.87
-108.594
-107.705
-106.232
-104.248
-101.833
-99.043
-95.934
-92.541
-88.889
-85.031
-81.027
-76.944
-72.833
-68.723
-64.63
-60.561
-56.514
-52.481
-48.45
-44.4
-40.319
-36.198
-32.032
-27.817
-23.546
-19.206
-14.785
-10.273
-5.66
-0.938
3.895
8.839
13.891
19.045
24.293
29.623
35.027
40.494
46.015
51.578
57.172
62.782
68.394
73.992
79.557
85.07
90.509
95.854
101.08
106.166
111.089
115.825
120.352
124.646
128.686
132.45
135.916
139.065
141.878
144.337
146.427
148.134
149.444
150.348
150.837
150.906
150.552
149.771
148.566
146.938
144.894
142.438
139.582
136.335
132.711
128.726
124.395
119.738
114.775
109.529
104.023
98.282
92.33
86.194
79.902
73.479
66.953
60.352
53.702
47.031
40.364
33.728
27.147
20.646
14.246
7.97
1.837
-4.134
-9.925
-15.521
-20.907
-26.072
-31.002
-35.69
-40.126
-44.305
-48.222
-51.872
-55.256
-58.372
-61.222
-63.808
-66.135
-68.208
-70.032
-71.616
-72.968
-74.096
-75.011
-75.723
-76.244
-76.584
-76.756
-76.772
-76.644
-76.384
-76.005
-75.519
-74.937
-74.271
-73.534
-72.735
-71.885
-70.996
-70.076
-69.136
-68.184
-67.229
-66.277
-65.337
-64.414
-63.516
-62.646
-61.81
-61.012
-60.256
-59.543
-58.878
-58.261
-57.694
-57.178
-56.713
-56.299
-55.936
-55.623
-55.36
-55.145
-54.976
-54.854
-54.775
-54.739
-54.744
-54.788
-54.869
-54.986
-55.136
-55.318
-55.531
-55.772
-56.042
-56.337
-56.657
-57
-57.365
-57.751
-58.156
-58.578
-59.018
-59.472
-59.941
-60.423
-60.916
-61.42
-61.934
-62.455
-62.982
-63.513
-64.046
-64.579
-65.107
-65.63
-66.143
-66.642
-67.126
-67.588
-68.025
-68.433
-68.805
-69.137
-69.423
-69.656
-69.831
-69.942
-69.981
-69.944
-69.825
-69.618
-69.318
-68.918
-68.416
-67.806
-67.084
-66.247
-65.291
-64.216
-63.02
-61.702
-60.265
-58.709
-57.039
-55.262
-53.383
-51.41
-49.353
-47.223
-45.031
-42.791
-40.516
-38.219
-35.915
-33.619
-31.347
-29.117
-26.946
-24.855
-22.861
-20.984
-19.242
-17.652
-16.228
-14.983
-13.926
-13.07
-12.427
-12.015
-11.851
-11.948
-12.316
-12.963
-13.888
-15.086
-16.539
-18.214
-20.08
-22.103
-24.25
-26.5
-28.821
-31.183
-33.549
-35.863
-38.073
-40.133
-41.995
-43.621
-44.996
-46.119
-47.029
-47.808
-48.534
-49.283
-50.128
-51.129
-52.362
-53.924
-55.906
-58.39
-61.47
-65.268
-69.871
-75.288
-81.37
-87.748
-93.97
-99.576
-104.075
-106.933
-107.729
-106.259
-102.746
-98.025
-93.06
-88.661
-85.697
-84.935
-86.869
-91.809
-98.338
-103.137
-103.164
-95.184
-78.328
-54.844
-24.202
14.845
65.627
135.784
226.975
337.331
462.798
591.677
714.29
821.376
900.262
942.293
939.553
886.853
787.542
649.551
486.106
315.622
155.935
23.737
-69.014
-120.49
-135.019
-122.944
-98.327
-71.017
-50.057
-41.431
-43.985
-55.226
-68.868
-77.348
-79.225
-75.907
-71.066
-69.477
-71.968
-77.227
-83.825
-89.955
-94.966
-98.758
-100.976
-101.71
-101.236
-99.838
-97.863
-95.511
-93.025
-90.914
-89.653
-89.479
-90.44
-92.369
-95.037
-98.295
-101.912
-105.537
-108.869
-111.666
-113.785
-115.215
-115.964
-116.025
-115.425
-114.207
-112.417
-110.114
-107.343
-104.131
-100.52
-96.559
-92.307
-87.839
-83.222
-78.52
-73.783
-69.037
-64.304
-59.593
-54.906
-50.24
-45.59
-40.94
-36.282
-31.61
-26.917
-22.2
-17.451
-12.661
-7.821
-2.923
2.036
7.057
12.139
17.278
22.472
27.713
32.994
38.305
43.637
48.981
54.329
59.672
65.001
70.303
75.568
80.782
85.933
91.005
95.983
100.849
105.587
110.178
114.604
118.848
122.891
126.714
130.301
133.634
136.697
139.475
141.953
144.117
145.956
147.458
148.614
149.415
149.856
149.932
149.64
148.979
147.948
146.55
144.789
142.67
140.201
137.389
134.244
130.78
127.009
122.946
118.608
114.012
109.18
104.13
98.884
93.465
87.895
82.198
76.397
70.517
64.581
58.612
52.635
46.671
40.744
34.874
29.083
23.389
17.813
12.37
7.078
1.952
-2.995
-7.75
-12.302
-16.641
-20.758
-24.646
-28.299
-31.713
-34.885
-37.813
-40.496
-42.937
-45.136
-47.099
-48.829
-50.333
-51.617
-52.689
-53.558
-54.234
-54.726
-55.044
-55.201
-55.206
-55.072
-54.81
-54.432
-53.948
-53.37
-52.71
-51.977
-51.183
-50.338
-49.452
-48.535
-47.596
-46.644
-45.687
-44.732
-43.786
-42.855
-41.946
-41.064
-40.212
-39.396
-38.618
-37.88
-37.186
-36.537
-35.932
-35.374
-34.861
-34.392
-33.968
-33.586
-33.246
-32.947
-32.686
-32.464
-32.28
-32.132
-32.02
-31.941
-31.895
-31.879
-31.892
-31.932
-31.998
-32.089
-32.202
-32.339
-32.497
-32.678
-32.88
-33.103
-33.345
-33.608
-33.891
-34.193
-34.514
-34.855
-35.215
-35.597
-36
-36.427
-36.876
-37.347
-37.839
-38.351
-38.88
-39.423
-39.973
-40.525
-41.077
-41.623
-42.159
-42.681
-43.185
-43.669
-44.13
-44.566
-44.971
-45.338
-45.659
-45.925
-46.129
-46.262
-46.314
-46.275
-46.138
-45.898
-45.553
-45.101
-44.534
-43.843
-43.015
-42.043
-40.93
-39.676
-38.285
-36.767
-35.141
-33.437
-31.702
-29.967
-28.254
-26.578
-24.937
-23.334
-21.777
-20.264
-18.795
-17.367
-15.972
-14.611
-13.295
-12.015
-10.749
-9.452
-8.051
-6.501
-4.794
-2.926
-0.922
1.182
3.344
5.489
7.519
9.356
10.925
12.176
13.087
13.613
13.701
13.297
12.313
10.703
8.464
5.592
2.117
-1.9
-6.379
-11.178
-16.117
-21.054
-25.866
-30.457
-34.785
-38.804
-42.485
-45.844
-48.872
-51.586
-54.045
-56.297
-58.422
-60.535
-62.737
-65.197
-68.155
-71.79
-76.2
-81.347
-86.986
-92.809
-98.494
-103.589
-107.563
-109.939
-110.361
-108.907
-106.122
-102.626
-99.202
-96.766
-96.115
-98.086
-102.562
-107.709
-111.234
-110.606
-104.824
-95.213
-81.943
-63.405
-34.667
11.916
81.834
177.157
294.91
428.643
570.169
709.361
835.488
934.978
994.348
1003.807
957.896
859.92
720.477
554.142
379.451
214.409
73.117
-33.521
-101.789
-134.588
-136.938
-119.153
-91.936
-64.246
-46.753
-43.056
-51.488
-67.727
-82.326
-90.803
-93.98
-94.349
-97.01
-103.496
-111.67
-119.431
-124.569
-126.389
-125.509
-122.291
-117.238
-111.163
-105.016
-99.646
-95.509
-92.693
-91.157
-90.952
-92.112
-94.464
-97.622
-101.188
-104.891
-108.584
-112.18
-115.549
-118.51
-120.907
-122.675
-123.797
-124.27
-124.095
-123.263
-121.777
-119.682
-117.042
-113.929
-110.41
-106.547
-102.392
-98.009
-93.467
-88.829
-84.161
-79.506
-74.887
-70.319
-65.806
-61.346
-56.937
-52.565
-48.207
-43.846
-39.468
-35.06
-30.616
-26.127
-21.582
-16.97
-12.281
-7.511
-2.658
2.279
7.3
12.399
17.574
22.815
28.112
33.457
38.839
44.25
49.681
55.119
60.552
65.967
71.349
76.683
81.951
87.134
92.212
97.165
101.972
106.612
111.064
115.307
119.319
123.082
126.574
129.776
132.671
135.24
137.47
139.344
140.85
141.977
142.717
143.061
143.005
142.546
141.68
140.411
138.739
136.67
134.211
131.369
128.156
124.584
120.668
116.424
111.87
107.028
101.918
96.562
90.987
85.215
79.274
73.19
66.991
60.703
54.355
47.973
41.584
35.216
28.894
22.643
16.487
10.449
4.551
-1.188
-6.748
-12.113
-17.265
-22.192
-26.88
-31.318
-35.498
-39.413
-43.056
-46.424
-49.515
-52.328
-54.865
-57.128
-59.123
-60.854
-62.328
-63.555
-64.543
-65.304
-65.848
-66.189
-66.339
-66.311
-66.12
-65.778
-65.302
-64.703
-63.997
-63.197
-62.316
-61.367
-60.364
-59.316
-58.237
-57.137
-56.026
-54.912
-53.804
-52.71
-51.635
-50.586
-49.568
-48.584
-47.638
-46.732
-45.869
-45.049
-44.273
-43.542
-42.853
-42.207
-41.602
-41.036
-40.506
-40.012
-39.55
-39.119
-38.716
-38.338
-37.985
-37.655
-37.344
-37.053
-36.78
-36.524
-36.285
-36.061
-35.854
-35.664
-35.491
-35.338
-35.205
-35.095
-35.009
-34.951
-34.923
-34.926
-34.964
-35.038
-35.15
-35.304
-35.5
-35.741
-36.026
-36.358
-36.737
-37.162
-37.633
-38.148
-38.706
-39.303
-39.937
-40.605
-41.3
-42.02
-42.757
-43.507
-44.262
-45.016
-45.76
-46.488
-47.19
-47.858
-48.482
-49.054
-49.562
-49.999
-50.355
-50.62
-50.787
-50.846
-50.791
-50.615
-50.311
-49.875
-49.302
-48.59
-47.736
-46.74
-45.602
-44.323
-42.908
-41.361
-39.688
-37.896
-35.997
-34.001
-31.923
-29.775
-27.575
-25.339
-23.084
-20.827
-18.588
-16.384
-14.235
-12.159
-10.177
-8.309
-6.576
-4.998
-3.594
-2.379
-1.371
-0.581
-0.019
0.309
0.394
0.229
-0.2
-0.901
-1.882
-3.146
-4.695
-6.524
-8.624
-10.975
-13.546
-16.302
-19.208
-22.233
-25.347
-28.518
-31.704
-34.856
-37.921
-40.848
-43.596
-46.126
-48.386
-50.342
-51.989
-53.35
-54.493
-55.495
-56.383
-57.193
-58.046
-59.064
-60.384
-62.154
-64.386
-67.11
-70.472
-74.552
-79.178
-84.074
-88.776
-92.746
-95.752
-97.504
-97.563
-95.715
-92.137
-87.339
-82.35
-78.398
-76.24
-76.748
-80.205
-85.731
-92.201
-97.682
-101.053
-103.01
-103.002
-99.495
-88.16
-60.797
-12.068
60.863
157.53
271.601
398.132
531.43
662.886
783.89
880.855
939.127
947.962
900.435
798.536
651.576
474.439
288.077
113.498
-29.715
-127.689
-178.37
-186.525
-164.235
-127.901
-88.969
-58.313
-42.574
-39.646
-46.511
-56.312
-61.191
-60.637
-56.509
-52.224
-52.559
-58.055
-66.928
-77.445
-87.24
-94.886
-100.007
-102.503
-102.705
-101.126
-98.243
-94.406
-89.959
-85.491
-81.678
-78.946
-77.468
-77.183
-77.865
-79.348
-81.501
-84.049
-86.632
-88.96
-90.817
-92.108
-92.849
-93.034
-92.645
-91.696
-90.221
-88.265
-85.881
-83.105
-79.955
-76.46
-72.662
-68.613
-64.379
-60.023
-55.603
-51.16
-46.72
-42.3
-37.907
-33.544
-29.207
-24.885
-20.56
-16.216
-11.845
-7.434
-2.977
1.539
6.127
10.802
15.572
20.445
25.425
30.514
35.71
41.013
46.416
51.912
57.491
63.144
68.859
74.628
80.439
86.278
92.133
97.987
103.824
109.628
115.379
121.057
126.64
132.105
137.43
142.592
147.567
152.332
156.861
161.133
165.125
168.815
172.181
175.205
177.868
180.153
182.045
183.532
184.602
185.246
185.457
185.232
184.568
183.466
181.926
179.955
177.558
174.745
171.526
167.914
163.923
159.57
154.875
149.856
144.536
138.939
133.088
127.011
120.733
114.281
107.684
100.97
94.167
87.302
80.405
73.502
66.62
59.785
53.022
46.356
39.807
33.398
27.147
21.072
15.19
9.515
4.059
-1.166
-6.152
-10.89
-15.375
-19.603
-23.569
-27.275
-30.719
-33.904
-36.833
-39.51
-41.942
-44.134
-46.096
-47.835
-49.362
-50.685
-51.817
-52.769
-53.551
-54.177
-54.659
-55.008
-55.236
-55.356
-55.379
-55.316
-55.178
-54.975
-54.716
-54.411
-54.067
-53.692
-53.293
-52.877
-52.45
-52.016
-51.581
-51.147
-50.72
-50.301
-49.893
-49.498
-49.119
-48.755
-48.41
-48.083
-47.776
-47.488
-47.221
-46.974
-46.748
-46.542
-46.357
-46.192
-46.048
-45.924
-45.821
-45.738
-45.676
-45.636
-45.619
-45.625
-45.654
-45.709
-45.791
-45.9
-46.038
-46.206
-46.405
-46.636
-46.9
-47.197
-47.528
-47.892
-48.289
-48.718
-49.178
-49.667
-50.183
-50.723
-51.284
-51.862
-52.453
-53.054
-53.659
-54.262
-54.859
-55.443
-56.008
-56.548
-57.057
-57.528
-57.954
-58.328
-58.644
-58.894
-59.072
-59.17
-59.182
-59.102
-58.925
-58.646
-58.261
-57.764
-57.155
-56.43
-55.59
-54.633
-53.561
-52.373
-51.074
-49.668
-48.16
-46.557
-44.866
-43.098
-41.265
-39.38
-37.456
-35.506
-33.545
-31.588
-29.653
-27.757
-25.915
-24.143
-22.458
-20.875
-19.414
-18.09
-16.918
-15.908
-15.069
-14.413
-13.949
-13.69
-13.638
-13.794
-14.156
-14.725
-15.508
-16.508
-17.724
-19.148
-20.772
-22.584
-24.577
-26.737
-29.037
-31.446
-33.928
-36.442
-38.966
-41.482
-43.967
-46.406
-48.773
-51.022
-53.126
-55.05
-56.75
-58.227
-59.479
-60.477
-61.287
-62.017
-62.81
-63.941
-65.645
-67.959
-70.901
-74.469
-78.489
-82.773
-86.993
-90.418
-92.353
-92.481
-90.644
-86.908
-81.645
-75.148
-67.892
-61.037
-55.962
-53.651
-54.731
-59.388
-67.278
-78.134
-91.72
-106.185
-118.161
-124.705
-123.092
-113.101
-97.618
-77.189
-50.151
-12.428
42.418
116.023
204.708
301.862
399.315
491.68
575.945
647.35
697.086
713.349
684.657
605.937
483.133
331.575
173.377
30.834
-80.175
-151.95
-187.311
-194.623
-183.366
-163.336
-140.174
-118.881
-103.802
-94.905
-90.939
-87.842
-81.357
-71.756
-61.649
-54.968
-54.5
-59.94
-69.191
-79.745
-89.891
-98.536
-104.984
-109.046
-110.577
-109.708
-107.043
-103.112
-98.515
-94.118
-90.538
-88.106
-87.023
-87.206
-88.423
-90.49
-93.109
-95.845
-98.379
-100.517
-102.148
-103.292
-103.978
-104.189
-103.945
-103.299
-102.292
-100.958
-99.315
-97.351
-95.073
-92.515
-89.725
-86.762
-83.681
-80.518
-77.292
-74.019
-70.708
-67.363
-63.984
-60.559
-57.071
-53.51
-49.868
-46.14
-42.322
-38.404
-34.372
-30.215
-25.923
-21.491
-16.917
-12.201
-7.346
-2.356
2.761
7.994
13.33
18.758
24.264
29.837
35.463
41.126
46.81
52.496
58.168
63.805
69.387
74.893
80.299
85.584
90.725
95.699
100.482
105.052
109.387
113.465
117.265
120.767
123.951
126.8
129.297
131.43
133.183
134.548
135.513
136.074
136.225
135.962
135.287
134.199
132.703
130.803
128.508
125.828
122.772
119.356
115.593
111.5
107.095
102.399
97.432
92.217
86.778
81.138
75.323
69.359
63.271
57.087
50.832
44.534
38.217
31.909
25.633
19.415
13.277
7.242
1.331
-4.436
-10.04
-15.465
-20.694
-25.713
-30.508
-35.07
-39.387
-43.453
-47.259
-50.801
-54.075
-57.079
-59.812
-62.273
-64.466
-66.393
-68.059
-69.468
-70.628
-71.547
-72.232
-72.695
-72.945
-72.993
-72.852
-72.532
-72.048
-71.411
-70.634
-69.731
-68.714
-67.597
-66.393
-65.114
-63.772
-62.379
-60.947
-59.487
-58.008
-56.522
-55.038
-53.564
-52.108
-50.679
-49.284
-47.928
-46.619
-45.361
-44.158
-43.015
-41.934
-40.919
-39.971
-39.091
-38.28
-37.539
-36.866
-36.262
-35.724
-35.252
-34.843
-34.495
-34.205
-33.971
-33.789
-33.657
-33.571
-33.527
-33.524
-33.558
-33.626
-33.725
-33.853
-34.006
-34.183
-34.38
-34.596
-34.828
-35.075
-35.334
-35.604
-35.884
-36.172
-36.466
-36.766
-37.071
-37.378
-37.688
-37.998
-38.308
-38.617
-38.923
-39.225
-39.522
-39.814
-40.098
-40.373
-40.639
-40.893
-41.133
-41.356
-41.562
-41.745
-41.904
-42.035
-42.134
-42.198
-42.223
-42.205
-42.139
-42.022
-41.848
-41.613
-41.313
-40.943
-40.5
-39.979
-39.377
-38.692
-37.922
-37.064
-36.117
-35.081
-33.956
-32.743
-31.442
-30.056
-28.586
-27.035
-25.408
-23.71
-21.946
-20.124
-18.253
-16.342
-14.404
-12.451
-10.494
-8.548
-6.627
-4.743
-2.91
-1.14
0.553
2.156
3.655
5.033
6.278
7.379
8.323
9.1
9.7
10.115
10.343
10.383
10.231
9.88
9.315
8.524
7.502
6.246
4.758
3.044
1.11
-1.024
-3.326
-5.757
-8.282
-10.865
-13.484
-16.111
-18.704
-21.21
-23.567
-25.715
-27.618
-29.247
-30.576
-31.591
-32.303
-32.744
-32.988
-33.119
-33.215
-33.357
-33.633
-34.132
-34.945
-36.187
-38
-40.483
-43.657
-47.428
-51.561
-55.79
-59.877
-63.498
-66.234
-67.753
-67.862
-66.708
-64.928
-63.169
-61.901
-61.7
-63.079
-66.373
-71.933
-78.647
-83.767
-85.003
-79.866
-67.951
-51.637
-30.533
-3.441
32.901
85.647
156.538
244.494
346.366
451.853
552.849
640.985
704.865
738.914
737.905
699.173
627.439
526.564
403.573
269.751
136.28
17.774
-72.645
-128.687
-150.26
-142.958
-116.09
-79.535
-41.649
-11.186
5.503
7.479
-3.153
-19.864
-35.276
-46.514
-53.037
-56.776
-60.839
-65.599
-70.288
-73.773
-74.281
-71.602
-66.609
-60.229
-53.775
-48.1
-43.396
-39.857
-37.66
-36.806
-37.251
-38.795
-41.025
-43.643
-46.521
-49.534
-52.583
-55.548
-58.252
-60.594
-62.557
-64.125
-65.281
-66.003
-66.256
-66.045
-65.412
-64.398
-63.045
-61.391
-59.459
-57.291
-54.939
-52.458
-49.909
-47.333
-44.755
-42.189
-39.644
-37.121
-34.616
-32.117
-29.599
-27.043
-24.431
-21.752
-18.997
-16.155
-13.213
-10.16
-6.984
-3.677
-0.234
3.348
7.069
10.93
14.925
19.049
23.291
27.642
32.092
36.632
41.25
45.936
50.676
55.456
60.26
65.073
69.874
74.646
79.366
84.013
88.565
93
97.295
101.428
105.378
109.122
112.641
115.913
118.921
121.646
124.071
126.183
127.966
129.409
130.502
131.237
131.607
131.607
131.236
130.492
129.378
127.895
126.051
123.852
121.308
118.43
115.231
111.725
107.93
103.864
99.547
94.999
90.244
85.303
80.201
74.962
69.611
64.171
58.668
53.125
47.566
42.014
36.493
31.023
25.625
20.318
15.122
10.053
5.127
0.359
-4.239
-8.654
-12.877
-16.899
-20.712
-24.312
-27.692
-30.852
-33.788
-36.502
-38.994
-41.266
-43.323
-45.17
-46.811
-48.254
-49.505
-50.574
-51.468
-52.197
-52.77
-53.197
-53.487
-53.65
-53.697
-53.636
-53.478
-53.232
-52.906
-52.51
-52.051
-51.539
-50.979
-50.379
-49.745
-49.085
-48.402
-47.703
-46.991
-46.272
-45.549
-44.825
-44.103
-43.386
-42.676
-41.975
-41.284
-40.606
-39.94
-39.289
-38.652
-38.031
-37.425
-36.836
-36.263
-35.708
-35.169
-34.648
-34.145
-33.66
-33.194
-32.747
-32.32
-31.913
-31.528
-31.164
-30.824
-30.508
-30.217
-29.952
-29.714
-29.505
-29.326
-29.178
-29.061
-28.977
-28.926
-28.91
-28.928
-28.981
-29.069
-29.193
-29.351
-29.544
-29.772
-30.033
-30.327
-30.652
-31.008
-31.392
-31.804
-32.241
-32.701
-33.183
-33.682
-34.198
-34.726
-35.264
-35.808
-36.354
-36.899
-37.437
-37.965
-38.477
-38.968
-39.434
-39.869
-40.268
-40.625
-40.937
-41.198
-41.403
-41.546
-41.624
-41.632
-41.565
-41.42
-41.193
-40.881
-40.481
-39.992
-39.411
-38.737
-37.97
-37.108
-36.153
-35.104
-33.964
-32.735
-31.419
-30.021
-28.546
-27.001
-25.395
-23.737
-22.038
-20.31
-18.563
-16.811
-15.069
-13.351
-11.67
-10.038
-8.468
-6.973
-5.571
-4.275
-3.098
-2.05
-1.141
-0.382
0.217
0.646
0.9
0.979
0.882
0.604
0.132
-0.546
-1.438
-2.545
-3.863
-5.388
-7.117
-9.034
-11.117
-13.331
-15.639
-18.002
-20.388
-22.774
-25.135
-27.437
-29.633
-31.666
-33.468
-34.996
-36.227
-37.146
-37.774
-38.122
-38.173
-38.023
-37.86
-37.852
-38.207
-39.013
-40.143
-41.633
-43.717
-46.393
-49.49
-52.695
-55.363
-57.178
-58.356
-58.819
-58.201
-56.415
-53.496
-49.934
-47.03
-45.682
-46.024
-48.299
-52.801
-59.595
-68.657
-79.148
-88.293
-92.766
-89.966
-77.897
-56.963
-28.724
6.636
50.035
105.024
175.225
261.716
362.945
471.475
578.02
672.574
743.553
784.634
791.46
761.985
700.292
609.617
496.043
370.458
243.674
130.381
43.206
-13.232
-39.648
-44.691
-38.877
-29.462
-21.957
-17.182
-15.209
-16.122
-17.745
-19.207
-19.34
-17.901
-17.575
-20.133
-26.18
-34.982
-43.949
-51.244
-56.327
-59.27
-60.43
-59.806
-57.408
-53.61
-49.135
-44.883
-41.341
-38.618
-36.799
-35.971
-36.172
-37.373
-39.32
-41.613
-44.006
-46.353
-48.537
-50.483
-52.068
-53.183
-53.8
-53.94
-53.623
-52.875
-51.701
-50.105
-48.124
-45.802
-43.187
-40.331
-37.272
-34.055
-30.732
-27.35
-23.961
-20.604
-17.299
-14.059
-10.891
-7.789
-4.749
-1.759
1.199
4.144
7.091
10.056
13.054
16.096
19.197
22.371
25.631
28.988
32.45
36.022
39.708
43.511
47.431
51.465
55.608
59.855
64.2
68.636
73.155
77.748
82.404
87.111
91.854
96.618
101.386
106.139
110.855
115.513
120.09
124.562
128.905
133.094
137.105
140.912
144.49
147.815
150.863
153.613
156.041
158.128
159.856
161.206
162.164
162.717
162.852
162.561
161.837
160.675
159.073
157.031
154.549
151.635
148.292
144.532
140.365
135.804
130.865
125.566
119.928
113.971
107.719
101.198
94.434
87.454
80.286
72.961
65.507
57.954
50.333
42.672
35.002
27.35
19.745
12.214
4.782
-2.525
-9.685
-16.676
-23.477
-30.07
-36.438
-42.566
-48.441
-54.051
-59.387
-64.44
-69.205
-73.678
-77.856
-81.739
-85.329
-88.628
-91.644
-94.381
-96.848
-99.055
-101.013
-102.733
-104.229
-105.513
-106.6
-107.505
-108.243
-108.828
-109.277
-109.603
-109.821
-109.947
-109.993
-109.973
-109.9
-109.785
-109.64
-109.475
-109.299
-109.122
-108.95
-108.791
-108.65
-108.532
-108.44
-108.376
-108.341
-108.336
-108.358
-108.407
-108.477
-108.566
-108.668
-108.779
-108.89
-108.997
-109.092
-109.167
-109.215
-109.229
-109.2
-109.122
-108.988
-108.791
-108.525
-108.183
-107.762
-107.257
-106.663
-105.977
-105.196
-104.317
-103.34
-102.263
-101.087
-99.811
-98.439
-96.973
-95.417
-93.774
-92.052
-90.256
-88.393
-86.471
-84.498
-82.482
-80.434
-78.362
-76.276
-74.186
-72.102
-70.034
-67.99
-65.98
-64.011
-62.091
-60.228
-58.427
-56.694
-55.035
-53.454
-51.954
-50.54
-49.214
-47.979
-46.834
-45.78
-44.816
-43.941
-43.151
-42.444
-41.813
-41.255
-40.762
-40.328
-39.945
-39.605
-39.299
-39.017
-38.749
-38.486
-38.217
-37.934
-37.628
-37.289
-36.909
-36.479
-35.992
-35.441
-34.821
-34.128
-33.358
-32.507
-31.574
-30.56
-29.467
-28.295
-27.045
-25.718
-24.317
-22.848
-21.325
-19.76
-18.168
-16.562
-14.957
-13.371
-11.822
-10.326
-8.893
-7.534
-6.254
-5.068
-3.995
-3.055
-2.271
-1.654
-1.199
-0.906
-0.764
-0.777
-0.961
-1.323
-1.859
-2.577
-3.47
-4.568
-5.95
-7.598
-9.409
-11.288
-13.098
-14.827
-16.639
-18.566
-20.499
-22.51
-24.781
-27.521
-31.077
-35.397
-39.941
-44.394
-48.65
-52.456
-55.566
-57.637
-58.09
-56.925
-54.787
-52.117
-49.215
-46.413
-43.892
-41.996
-41.335
-42.109
-44.115
-47.229
-51.25
-55.928
-61.068
-66.287
-71.073
-75.006
-77.647
-78.627
-77.928
-75.834
-72.893
-69.955
-67.813
-67.131
-68.94
-73.434
-79.195
-84.472
-87.061
-85.923
-83.034
-79.278
-72.196
-56.391
-22.69
36.042
119.773
224.104
340.588
458.905
572.542
674.175
754.427
806.735
822.682
797.202
733.349
634.628
510.085
373.916
237.861
116.455
22.197
-41.971
-76.349
-86.7
-84.025
-74.604
-64.22
-58.642
-57.75
-61.771
-68.914
-72.923
-71.479
-64.442
-53.413
-43.799
-38.482
-37.393
-39.743
-43.525
-47.734
-52.615
-58.058
-63.444
-68.017
-71.257
-73.03
-73.531
-73.006
-71.583
-69.561
-67.566
-66.143
-65.576
-65.958
-67.169
-69.007
-71.321
-73.862
-76.255
-78.234
-79.658
-80.463
-80.692
-80.39
-79.573
-78.294
-76.634
-74.645
-72.37
-69.84
-67.058
-64.061
-60.901
-57.634
-54.32
-51.001
-47.694
-44.416
-41.174
-37.969
-34.795
-31.639
-28.482
-25.313
-22.124
-18.907
-15.655
-12.357
-9
-5.57
-2.053
1.562
5.281
9.11
13.05
17.101
21.262
25.526
29.887
34.339
38.874
43.484
48.162
52.896
57.675
62.485
67.311
72.137
76.945
81.715
86.427
91.059
95.591
99.999
104.261
108.354
112.255
115.941
119.39
122.58
125.49
128.1
130.392
132.347
133.951
135.19
136.051
136.524
136.603
136.281
135.555
134.423
132.887
130.951
128.618
125.898
122.801
119.338
115.523
111.372
106.905
102.139
97.098
91.802
86.277
80.547
74.638
68.576
62.389
56.103
49.747
43.346
36.929
30.521
24.148
17.834
11.602
5.476
-0.526
-6.383
-12.078
-17.595
-22.92
-28.041
-32.946
-37.628
-42.079
-46.294
-50.269
-54.003
-57.495
-60.748
-63.763
-66.545
-69.1
-71.434
-73.555
-75.471
-77.194
-78.732
-80.096
-81.3
-82.353
-83.27
-84.062
-84.741
-85.319
-85.809
-86.221
-86.566
-86.854
-87.095
-87.298
-87.469
-87.617
-87.746
-87.864
-87.973
-88.078
-88.181
-88.283
-88.386
-88.49
-88.595
-88.7
-88.803
-88.903
-88.996
-89.081
-89.155
-89.213
-89.252
-89.269
-89.259
-89.219
-89.144
-89.03
-88.873
-88.671
-88.418
-88.114
-87.754
-87.338
-86.864
-86.331
-85.739
-85.088
-84.379
-83.615
-82.797
-81.927
-81.01
-80.05
-79.049
-78.013
-76.947
-75.856
-74.745
-73.618
-72.483
-71.343
-70.206
-69.075
-67.958
-66.859
-65.785
-64.741
-63.732
-62.764
-61.842
-60.97
-60.154
-59.398
-58.704
-58.077
-57.518
-57.03
-56.614
-56.27
-55.997
-55.795
-55.662
-55.595
-55.592
-55.648
-55.759
-55.922
-56.129
-56.377
-56.659
-56.968
-57.299
-57.643
-57.995
-58.345
-58.687
-59.011
-59.31
-59.576
-59.798
-59.97
-60.08
-60.122
-60.085
-59.962
-59.744
-59.423
-58.992
-58.445
-57.776
-56.98
-56.054
-54.993
-53.798
-52.466
-50.998
-49.396
-47.661
-45.797
-43.808
-41.699
-39.477
-37.148
-34.722
-32.209
-29.621
-26.971
-24.275
-21.548
-18.806
-16.066
-13.347
-10.666
-8.039
-5.482
-3.011
-0.643
1.601
3.704
5.649
7.421
9.005
10.39
11.562
12.511
13.237
13.736
14.005
14.037
13.813
13.32
12.555
11.517
10.207
8.635
6.809
4.752
2.501
0.1
-2.413
-5
-7.64
-10.301
-12.938
-15.493
-17.894
-20.077
-22.001
-23.634
-24.944
-25.916
-26.557
-26.901
-27.025
-27.013
-26.941
-26.887
-26.939
-27.188
-27.726
-28.677
-30.197
-32.38
-35.232
-38.639
-42.316
-45.954
-49.288
-51.954
-53.499
-53.621
-52.189
-49.462
-46.251
-43.363
-41.369
-40.928
-42.61
-46.665
-53.275
-61.205
-67.295
-68.591
-62.283
-47.233
-25.714
0.972
33.305
73.278
127.293
200.382
293.114
403.53
523.395
641.25
745.643
823.732
864.149
859.167
806.544
709.801
579.034
429.701
277.613
139.167
28.464
-47.207
-86.302
-92.655
-75.649
-46.443
-14.465
10.224
20.72
16.765
0.621
-20.282
-36.877
-46.133
-48.142
-46.037
-44.78
-45.537
-47.206
-48.479
-47.742
-44.888
-40.92
-36.577
-32.486
-29.123
-26.747
-25.503
-25.443
-26.476
-28.413
-31.104
-34.438
-38.268
-42.434
-46.805
-51.23
-55.567
-59.691
-63.457
-66.754
-69.521
-71.714
-73.316
-74.325
-74.758
-74.648
-74.047
-73.004
-71.562
-69.762
-67.645
-65.261
-62.67
-59.93
-57.094
-54.2
-51.269
-48.316
-45.343
-42.349
-39.324
-36.248
-33.1
-29.863
-26.526
-23.079
-19.514
-15.821
-11.988
-8.007
-3.87
0.427
4.887
9.51
14.294
19.232
24.318
29.541
34.889
40.35
45.913
51.564
57.291
63.079
68.911
74.772
80.642
86.503
92.332
98.109
103.809
109.41
114.887
120.216
125.373
130.334
135.075
139.575
143.809
147.757
151.398
154.712
157.683
160.293
162.527
164.373
165.818
166.854
167.473
167.669
167.441
166.786
165.706
164.203
162.283
159.952
157.221
154.099
150.6
146.739
142.533
138
133.161
128.037
122.651
117.026
111.187
105.16
98.969
92.641
86.201
79.677
73.093
66.475
59.848
53.237
46.665
40.154
33.727
27.402
21.2
15.137
9.232
3.497
-2.052
-7.403
-12.547
-17.473
-22.173
-26.642
-30.874
-34.867
-38.617
-42.125
-45.392
-48.419
-51.209
-53.768
-56.1
-58.211
-60.11
-61.803
-63.301
-64.611
-65.744
-66.71
-67.519
-68.182
-68.709
-69.11
-69.397
-69.579
-69.667
-69.669
-69.596
-69.456
-69.258
-69.011
-68.722
-68.398
-68.046
-67.674
-67.286
-66.888
-66.485
-66.081
-65.68
-65.286
-64.9
-64.525
-64.162
-63.812
-63.477
-63.155
-62.847
-62.552
-62.269
-61.996
-61.733
-61.477
-61.227
-60.981
-60.739
-60.497
-60.256
-60.013
-59.768
-59.52
-59.268
-59.011
-58.749
-58.483
-58.211
-57.934
-57.653
-57.368
-57.08
-56.79
-56.499
-56.21
-55.924
-55.643
-55.371
-55.111
-54.865
-54.637
-54.432
-54.252
-54.102
-53.986
-53.909
-53.874
-53.885
-53.946
-54.061
-54.233
-54.464
-54.757
-55.114
-55.535
-56.022
-56.576
-57.194
-57.878
-58.625
-59.435
-60.304
-61.23
-62.209
-63.236
-64.307
-65.415
-66.555
-67.717
-68.894
-70.077
-71.256
-72.422
-73.565
-74.672
-75.733
-76.736
-77.67
-78.522
-79.279
-79.931
-80.465
-80.869
-81.134
-81.249
-81.206
-80.994
-80.608
-80.04
-79.284
-78.336
-77.193
-75.851
-74.309
-72.568
-70.63
-68.498
-66.177
-63.673
-60.998
-58.162
-55.18
-52.067
-48.838
-45.514
-42.113
-38.656
-35.163
-31.654
-28.149
-24.67
-21.239
-17.88
-14.616
-11.471
-8.467
-5.626
-2.968
-0.513
1.722
3.728
5.495
7.012
8.266
9.236
9.903
10.259
10.294
10.006
9.401
8.487
7.287
5.842
4.194
2.382
0.444
-1.596
-3.709
-5.856
-7.99
-10.051
-11.98
-13.737
-15.279
-16.57
-17.603
-18.386
-18.968
-19.439
-19.877
-20.353
-20.946
-21.719
-22.746
-24.108
-25.86
-28.094
-30.94
-34.476
-38.702
-43.512
-48.619
-53.676
-58.326
-62.108
-64.49
-65.023
-63.513
-60.175
-55.582
-50.585
-46.078
-42.809
-41.701
-43.027
-45.891
-48.915
-50.06
-48.349
-44.353
-37.686
-27.04
-7.589
27.472
81.723
157.345
251.189
356.989
470.764
585.326
693.246
785.457
848.985
873.403
851.514
782.509
672.103
530.901
374.252
217.724
77.398
-32.746
-106.091
-141.64
-144.447
-126.268
-98.623
-71.464
-54.143
-48.481
-51.756
-59.293
-62.736
-58.665
-48.862
-37.072
-29.168
-27.604
-31.346
-38.61
-47.056
-55.625
-64.008
-71.326
-77.038
-80.919
-82.879
-83.287
-82.52
-80.762
-78.491
-76.499
-75.305
-75.162
-76.121
-77.949
-80.419
-83.386
-86.552
-89.509
-91.984
-93.818
-94.951
-95.449
-95.355
-94.672
-93.452
-91.763
-89.66
-87.195
-84.397
-81.279
-77.878
-74.254
-70.47
-66.595
-62.68
-58.751
-54.831
-50.933
-47.064
-43.226
-39.412
-35.61
-31.815
-28.022
-24.228
-20.432
-16.625
-12.798
-8.94
-5.037
-1.081
2.935
7.014
11.161
15.374
19.654
23.997
28.398
32.854
37.361
41.915
46.513
51.149
55.817
60.508
65.215
69.926
74.631
79.316
83.968
88.571
93.111
97.57
101.933
106.181
110.298
114.265
118.064
121.678
125.087
128.274
131.222
133.913
136.332
138.461
140.288
141.799
142.983
143.828
144.327
144.471
144.256
143.677
142.732
141.421
139.746
137.71
135.318
132.578
129.499
126.091
122.368
118.345
114.036
109.461
104.637
99.585
94.326
88.881
83.274
77.529
71.669
65.719
59.704
53.65
47.58
41.519
35.492
29.521
23.631
17.842
12.176
6.652
1.289
-3.896
-8.886
-13.668
-18.229
-22.557
-26.643
-30.479
-34.059
-37.378
-40.434
-43.224
-45.75
-48.012
-50.016
-51.764
-53.263
-54.52
-55.544
-56.345
-56.933
-57.319
-57.517
-57.539
-57.399
-57.11
-56.688
-56.146
-55.499
-54.762
-53.948
-53.073
-52.149
-51.191
-50.21
-49.219
-48.228
-47.249
-46.291
-45.362
-44.471
-43.624
-42.828
-42.087
-41.407
-40.789
-40.238
-39.753
-39.337
-38.989
-38.708
-38.493
-38.342
-38.252
-38.22
-38.241
-38.313
-38.431
-38.59
-38.785
-39.012
-39.266
-39.543
-39.836
-40.142
-40.457
-40.776
-41.097
-41.415
-41.728
-42.034
-42.331
-42.618
-42.894
-43.16
-43.414
-43.658
-43.893
-44.12
-44.341
-44.558
-44.775
-44.993
-45.216
-45.447
-45.69
-45.948
-46.224
-46.522
-46.845
-47.195
-47.574
-47.986
-48.432
-48.913
-49.43
-49.984
-50.575
-51.203
-51.865
-52.559
-53.284
-54.035
-54.809
-55.6
-56.403
-57.212
-58.02
-58.819
-59.603
-60.364
-61.092
-61.779
-62.417
-62.995
-63.504
-63.935
-64.279
-64.527
-64.67
-64.698
-64.607
-64.387
-64.033
-63.54
-62.903
-62.118
-61.183
-60.096
-58.858
-57.469
-55.931
-54.249
-52.427
-50.472
-48.393
-46.2
-43.904
-41.519
-39.062
-36.547
-33.992
-31.417
-28.84
-26.28
-23.756
-21.287
-18.892
-16.589
-14.4
-12.345
-10.445
-8.718
-7.181
-5.851
-4.743
-3.871
-3.242
-2.862
-2.736
-2.872
-3.285
-3.986
-4.982
-6.276
-7.866
-9.745
-11.9
-14.31
-16.94
-19.749
-22.697
-25.745
-28.864
-32.022
-35.181
-38.292
-41.287
-44.107
-46.701
-49.029
-51.058
-52.767
-54.151
-55.244
-56.115
-56.834
-57.47
-58.092
-58.762
-59.564
-60.586
-61.913
-63.646
-65.918
-68.824
-72.377
-76.466
-80.831
-85.155
-89.118
-92.319
-94.279
-94.595
-93.083
-89.985
-85.95
-81.688
-77.935
-75.456
-74.941
-77.132
-81.85
-87.163
-90.724
-90.051
-83.798
-73.495
-59.892
-41.073
-13.353
30.132
95.425
182.41
287.725
404.767
523.385
635.98
734.425
808.082
848.563
847.42
799.253
706.228
575.224
419.428
257.23
107.105
-13.356
-92.988
-130.286
-130.195
-105.729
-71.912
-40.675
-23.241
-22.399
-34.657
-54.621
-72.386
-83.027
-87.119
-86.781
-87.215
-90.595
-95.544
-100.358
-102.802
-102.157
-99.257
-94.931
-89.986
-85.05
-80.521
-76.821
-74.215
-72.731
-72.281
-72.723
-73.932
-75.798
-78.179
-80.905
-83.836
-86.87
-89.897
-92.808
-95.473
-97.752
-99.554
-100.834
-101.559
-101.728
-101.351
-100.448
-99.061
-97.246
-95.051
-92.524
-89.71
-86.649
-83.396
-80.007
-76.535
-73.037
-69.549
-66.09
-62.673
-59.301
-55.967
-52.662
-49.367
-46.061
-42.726
-39.35
-35.921
-32.429
-28.865
-25.217
-21.475
-17.629
-13.674
-9.605
-5.423
-1.129
3.274
7.78
12.379
17.06
21.814
26.629
31.493
36.396
41.324
46.262
51.195
56.107
60.98
65.794
70.531
75.17
79.688
84.065
88.28
92.312
96.139
99.741
103.099
106.194
109.009
111.526
113.731
115.61
117.151
118.344
119.18
119.654
119.76
119.497
118.863
117.861
116.493
114.766
112.687
110.265
107.511
104.438
101.059
97.392
93.452
89.259
84.833
80.195
75.367
70.371
65.23
59.969
54.611
49.18
43.698
38.189
32.676
27.18
21.722
16.323
11.002
5.776
0.663
-4.322
-9.165
-13.853
-18.374
-22.719
-26.879
-30.847
-34.616
-38.183
-41.543
-44.695
-47.638
-50.372
-52.898
-55.219
-57.338
-59.259
-60.989
-62.532
-63.896
-65.088
-66.115
-66.984
-67.706
-68.286
-68.735
-69.061
-69.271
-69.374
-69.379
-69.292
-69.122
-68.875
-68.559
-68.179
-67.741
-67.251
-66.715
-66.135
-65.517
-64.865
-64.181
-63.469
-62.732
-61.973
-61.193
-60.394
-59.579
-58.747
-57.9
-57.038
-56.162
-55.271
-54.367
-53.448
-52.516
-51.571
-50.613
-49.641
-48.657
-47.661
-46.654
-45.635
-44.606
-43.568
-42.523
-41.472
-40.417
-39.362
-38.308
-37.259
-36.219
-35.19
-34.176
-33.181
-32.207
-31.257
-30.335
-29.446
-28.592
-27.778
-27.008
-26.286
-25.616
-25.003
-24.451
-23.961
-23.539
-23.185
-22.902
-22.693
-22.56
-22.503
-22.524
-22.624
-22.803
-23.06
-23.395
-23.805
-24.286
-24.834
-25.444
-26.109
-26.823
-27.577
-28.364
-29.177
-30.01
-30.856
-31.707
-32.556
-33.395
-34.216
-35.009
-35.761
-36.459
-37.089
-37.638
-38.095
-38.449
-38.692
-38.814
-38.808
-38.669
-38.393
-37.972
-37.399
-36.657
-35.738
-34.643
-33.378
-31.956
-30.4
-28.729
-26.963
-25.135
-23.27
-21.381
-19.48
-17.556
-15.601
-13.617
-11.618
-9.631
-7.682
-5.777
-3.916
-2.098
-0.305
1.476
3.264
5.098
7.003
8.97
10.977
12.967
14.861
16.61
18.174
19.521
20.628
21.456
21.963
22.112
21.86
21.166
19.994
18.3
16.051
13.258
9.947
6.166
2.016
-2.406
-7.002
-11.651
-16.264
-20.787
-25.127
-29.173
-32.895
-36.291
-39.47
-42.668
-45.963
-49.31
-52.681
-56.037
-59.336
-62.553
-65.407
-67.398
-68.415
-68.641
-68.377
-68.026
-67.748
-67.517
-67.618
-68.547
-70.304
-72.52
-74.68
-76.336
-77.586
-78.813
-80.237
-81.823
-83.813
-86.949
-91.114
-94.495
-94.937
-89.972
-78.847
-64.609
-48.739
-29.11
-1.394
42.531
109.36
198.158
305.043
423.995
545.281
661.858
764.312
837.208
866.782
840.74
754.443
617.177
447.137
269.153
107.446
-20.354
-104.411
-145.984
-151.46
-130.774
-97.297
-60.232
-29.443
-13.485
-12.768
-25.801
-45.92
-62.814
-72.715
-75.132
-72.53
-70.502
-70.681
-71.958
-73.084
-72.082
-68.58
-63.645
-58.102
-52.686
-47.971
-44.238
-41.637
-40.24
-39.971
-40.633
-42.075
-44.182
-46.796
-49.756
-52.928
-56.162
-59.315
-62.269
-64.875
-67.02
-68.64
-69.691
-70.156
-70.037
-69.347
-68.116
-66.396
-64.237
-61.685
-58.785
-55.58
-52.126
-48.485
-44.722
-40.899
-37.061
-33.233
-29.433
-25.669
-21.941
-18.241
-14.555
-10.862
-7.144
-3.393
0.402
4.247
8.154
12.135
16.201
20.363
24.627
28.999
33.482
38.077
42.781
47.59
52.498
57.494
62.572
67.723
72.939
78.212
83.532
88.887
94.264
99.652
105.035
110.396
115.716
120.977
126.157
131.238
136.196
141.01
145.658
150.119
154.37
158.389
162.156
165.649
168.848
171.734
174.289
176.497
178.342
179.812
180.894
181.58
181.861
181.733
181.191
180.235
178.863
177.08
174.889
172.298
169.314
165.949
162.215
158.129
153.705
148.965
143.927
138.615
133.05
127.258
121.264
115.093
108.772
102.328
95.788
89.18
82.531
75.867
69.215
62.6
56.047
49.578
43.215
36.98
30.891
24.966
19.222
13.672
8.33
3.206
-1.688
-6.346
-10.762
-14.931
-18.851
-22.521
-25.942
-29.116
-32.047
-34.74
-37.2
-39.436
-41.456
-43.269
-44.885
-46.315
-47.569
-48.661
-49.601
-50.402
-51.075
-51.633
-52.086
-52.446
-52.724
-52.93
-53.073
-53.163
-53.207
-53.214
-53.19
-53.141
-53.072
-52.988
-52.892
-52.787
-52.675
-52.558
-52.435
-52.308
-52.175
-52.036
-51.89
-51.734
-51.567
-51.387
-51.191
-50.979
-50.746
-50.493
-50.216
-49.916
-49.59
-49.239
-48.863
-48.461
-48.033
-47.581
-47.107
-46.611
-46.097
-45.568
-45.027
-44.479
-43.929
-43.38
-42.84
-42.313
-41.806
-41.324
-40.873
-40.46
-40.09
-39.77
-39.505
-39.302
-39.164
-39.096
-39.104
-39.189
-39.354
-39.599
-39.926
-40.334
-40.821
-41.383
-42.018
-42.722
-43.492
-44.324
-45.212
-46.15
-47.133
-48.153
-49.204
-50.273
-51.349
-52.418
-53.468
-54.488
-55.466
-56.392
-57.252
-58.037
-58.736
-59.345
-59.856
-60.257
-60.533
-60.667
-60.653
-60.493
-60.198
-59.775
-59.231
-58.574
-57.818
-56.985
-56.091
-55.138
-54.116
-53.009
-51.818
-50.558
-49.256
-47.942
-46.628
-45.309
-43.977
-42.636
-41.291
-39.941
-38.567
-37.137
-35.648
-34.134
-32.666
-31.317
-30.129
-29.118
-28.286
-27.641
-27.213
-27.047
-27.179
-27.622
-28.392
-29.523
-31.07
-33.095
-35.611
-38.558
-41.832
-45.336
-49.003
-52.798
-56.686
-60.605
-64.481
-68.236
-71.813
-75.186
-78.311
-81.121
-83.544
-85.522
-87.064
-88.258
-89.207
-89.993
-90.687
-91.355
-92.075
-92.95
-94.053
-95.452
-97.234
-99.438
-102.05
-104.979
-107.994
-110.825
-113.213
-114.819
-115.222
-114.095
-111.334
-107.234
-102.399
-97.439
-92.963
-89.568
-87.949
-88.952
-92.206
-95.502
-96.472
-92.575
-83.21
-71.601
-59.36
-45.676
-27.291
5.104
59.428
138.033
239.902
355.059
469.25
570.362
645.403
686.403
689.723
651.726
573.965
461.124
322.235
174.417
35.938
-76.565
-151.434
-188.832
-195.352
-180.662
-156.745
-130.94
-109.123
-95.884
-90.71
-91.444
-92.913
-89.948
-81.906
-71.037
-61.888
-57.647
-58.278
-62.237
-67.338
-72.435
-77.34
-81.622
-84.841
-86.723
-87.164
-86.423
-84.845
-82.592
-79.927
-77.398
-75.504
-74.527
-74.557
-75.453
-76.992
-79.026
-81.34
-83.593
-85.536
-87.021
-87.976
-88.438
-88.455
-88.033
-87.21
-86.05
-84.589
-82.861
-80.886
-78.664
-76.219
-73.594
-70.838
-68.003
-65.126
-62.222
-59.305
-56.377
-53.438
-50.479
-47.486
-44.44
-41.329
-38.144
-34.877
-31.523
-28.071
-24.508
-20.821
-16.999
-13.03
-8.911
-4.636
-0.204
4.382
9.118
13.996
19.009
24.145
29.396
34.752
40.2
45.727
51.32
56.96
62.632
68.317
73.993
79.64
85.236
90.755
96.177
101.475
106.626
111.607
116.392
120.959
125.284
129.346
133.122
136.593
139.74
142.544
144.991
147.065
148.753
150.047
150.937
151.417
151.484
151.136
150.374
149.201
147.622
145.644
143.276
140.531
137.421
133.962
130.171
126.068
121.673
117.009
112.099
106.967
101.639
96.141
90.5
84.741
78.891
72.977
67.025
61.061
55.109
49.194
43.34
37.568
31.899
26.352
20.947
15.698
10.622
5.731
1.036
-3.451
-7.722
-11.771
-15.591
-19.18
-22.535
-25.656
-28.543
-31.2
-33.628
-35.834
-37.824
-39.605
-41.184
-42.57
-43.774
-44.803
-45.67
-46.384
-46.955
-47.396
-47.715
-47.925
-48.035
-48.054
-47.993
-47.86
-47.663
-47.411
-47.11
-46.767
-46.389
-45.981
-45.549
-45.097
-44.629
-44.15
-43.663
-43.169
-42.673
-42.174
-41.675
-41.177
-40.68
-40.184
-39.69
-39.198
-38.707
-38.217
-37.729
-37.241
-36.755
-36.269
-35.785
-35.302
-34.821
-34.344
-33.873
-33.408
-32.952
-32.508
-32.077
-31.664
-31.271
-30.9
-30.554
-30.236
-29.948
-29.693
-29.473
-29.29
-29.147
-29.044
-28.983
-28.967
-28.994
-29.066
-29.184
-29.346
-29.552
-29.801
-30.092
-30.422
-30.79
-31.194
-31.629
-32.093
-32.582
-33.091
-33.614
-34.147
-34.681
-35.211
-35.729
-36.227
-36.7
-37.139
-37.537
-37.886
-38.181
-38.414
-38.579
-38.671
-38.684
-38.612
-38.452
-38.199
-37.852
-37.407
-36.862
-36.218
-35.474
-34.632
-33.692
-32.656
-31.528
-30.31
-29.006
-27.621
-26.162
-24.633
-23.043
-21.402
-19.721
-18.013
-16.29
-14.565
-12.854
-11.17
-9.527
-7.937
-6.409
-4.954
-3.582
-2.303
-1.13
-0.071
0.866
1.674
2.345
2.872
3.251
3.481
3.567
3.509
3.306
2.95
2.428
1.732
0.857
-0.197
-1.429
-2.836
-4.404
-6.112
-7.92
-9.789
-11.681
-13.567
-15.421
-17.208
-18.888
-20.41
-21.723
-22.784
-23.561
-24.035
-24.197
-24.059
-23.649
-23.018
-22.246
-21.432
-20.68
-20.089
-19.755
-19.748
-20.157
-21.134
-22.787
-25.134
-28.089
-31.404
-34.797
-38.055
-40.907
-42.942
-43.839
-43.468
-42.049
-40.251
-38.765
-38.198
-39.155
-42.233
-47.98
-55.786
-63.59
-69.149
-69.892
-65.449
-58.059
-47.245
-31.529
-6.818
34.941
95.83
174.203
265.88
360.354
450.27
529.839
590.838
627.888
633.912
601.641
530.305
423.302
290.906
151.37
22.968
-78.497
-143.019
-172.537
-174.165
-155.888
-127.757
-94.514
-60.45
-33.187
-15.089
-7.673
-9.453
-12.714
-14.093
-13.086
-10.6
-11.058
-15.947
-23.736
-32.684
-40.36
-45.402
-47.944
-48.291
-46.878
-44.275
-41.123
-38.131
-35.808
-34.485
-34.254
-35.042
-36.786
-39.309
-42.316
-45.461
-48.442
-51.081
-53.314
-55.138
-56.556
-57.565
-58.173
-58.418
-58.342
-57.969
-57.313
-56.374
-55.153
-53.68
-51.997
-50.151
-48.197
-46.17
-44.088
-41.967
-39.816
-37.639
-35.441
-33.215
-30.948
-28.63
-26.255
-23.818
-21.316
-18.741
-16.081
-13.32
-10.448
-7.455
-4.337
-1.089
2.291
5.805
9.452
13.228
17.126
21.142
25.271
29.507
33.844
38.274
42.787
47.372
52.017
56.711
61.437
66.18
70.922
75.645
80.331
84.959
89.509
93.961
98.294
102.487
106.519
110.368
114.015
117.439
120.621
123.541
126.183
128.53
130.565
132.274
133.645
134.666
135.328
135.622
135.542
135.084
134.246
133.027
131.429
129.455
127.112
124.407
121.351
117.956
114.235
110.205
105.883
101.289
96.442
91.364
86.079
80.61
74.982
69.218
63.346
57.389
51.373
45.325
39.269
33.23
27.232
21.299
15.455
9.72
4.117
-1.335
-6.618
-11.713
-16.606
-21.281
-25.727
-29.932
-33.887
-37.583
-41.017
-44.182
-47.077
-49.701
-52.054
-54.14
-55.961
-57.524
-58.833
-59.898
-60.726
-61.328
-61.712
-61.891
-61.876
-61.679
-61.313
-60.791
-60.127
-59.333
-58.423
-57.411
-56.311
-55.135
-53.898
-52.61
-51.286
-49.935
-48.571
-47.202
-45.839
-44.49
-43.165
-41.87
-40.612
-39.396
-38.228
-37.112
-36.051
-35.049
-34.106
-33.225
-32.406
-31.651
-30.957
-30.326
-29.756
-29.244
-28.791
-28.392
-28.046
-27.75
-27.501
-27.296
-27.131
-27.003
-26.909
-26.845
-26.809
-26.796
-26.804
-26.83
-26.871
-26.926
-26.991
-27.065
-27.146
-27.233
-27.325
-27.421
-27.521
-27.622
-27.727
-27.832
-27.94
-28.049
-28.159
-28.269
-28.382
-28.495
-28.61
-28.726
-28.844
-28.962
-29.082
-29.202
-29.322
-29.44
-29.556
-29.668
-29.774
-29.874
-29.965
-30.045
-30.111
-30.16
-30.19
-30.198
-30.179
-30.13
-30.047
-29.927
-29.767
-29.564
-29.313
-29.013
-28.66
-28.253
-27.789
-27.268
-26.687
-26.046
-25.345
-24.584
-23.763
-22.886
-21.955
-20.973
-19.946
-18.882
-17.786
-16.667
-15.534
-14.396
-13.262
-12.143
-11.048
-9.985
-8.965
-7.998
-7.097
-6.274
-5.54
-4.907
-4.387
-3.989
-3.724
-3.599
-3.617
-3.781
-4.095
-4.565
-5.205
-6.028
-7.037
-8.234
-9.621
-11.192
-12.937
-14.839
-16.864
-18.98
-21.158
-23.372
-25.609
-27.851
-30.069
-32.227
-34.279
-36.186
-37.926
-39.477
-40.811
-41.927
-42.837
-43.589
-44.266
-44.931
-45.63
-46.415
-47.331
-48.434
-49.796
-51.466
-53.497
-55.986
-58.98
-62.467
-66.345
-70.366
-74.216
-77.595
-80.14
-81.418
-81.094
-79.069
-75.625
-71.352
-66.926
-63.049
-60.343
-59.54
-61.465
-65.617
-70.075
-73.055
-72.183
-67.03
-59.712
-49.133
-33.184
-8.096
33.108
91.95
166.947
255.068
348.366
440.626
523.818
587.278
623.337
624.005
587.781
519.834
425.607
315.634
200.167
88.022
-8.133
-78.998
-121.118
-134.273
-124.625
-102.395
-74.512
-48.343
-31.556
-25.505
-30.634
-44.009
-57.152
-66.108
-69.67
-68.401
-66.8
-66.705
-67.334
-67.99
-67.14
-64.356
-60.55
-56.395
-52.423
-49.072
-46.538
-44.925
-44.287
-44.547
-45.526
-47.084
-49.131
-51.56
-54.26
-57.119
-60.011
-62.807
-65.397
-67.686
-69.605
-71.11
-72.178
-72.796
-72.963
-72.703
-72.053
-71.048
-69.725
-68.11
-66.231
-64.124
-61.839
-59.426
-56.941
-54.421
-51.888
-49.36
-46.843
-44.341
-41.851
-39.358
-36.841
-34.285
-31.68
-29.017
-26.292
-23.495
-20.613
-17.639
-14.561
-11.374
-8.074
-4.658
-1.123
2.528
6.292
10.162
14.13
18.187
22.328
26.542
30.823
35.161
39.544
43.962
48.403
52.852
57.296
61.717
66.098
70.422
74.67
78.824
82.864
86.771
90.526
94.108
97.5
100.683
103.638
106.348
108.798
110.971
112.854
114.434
115.7
116.642
117.253
117.526
117.457
117.043
116.283
115.178
113.731
111.945
109.827
107.384
104.627
101.565
98.213
94.585
90.696
86.565
82.209
77.648
72.904
67.998
62.953
57.79
52.535
47.209
41.837
36.442
31.047
25.675
20.346
15.082
9.903
4.827
-0.128
-4.946
-9.612
-14.112
-18.434
-22.567
-26.503
-30.233
-33.751
-37.052
-40.133
-42.992
-45.629
-48.045
-50.24
-52.22
-53.988
-55.55
-56.914
-58.087
-59.078
-59.897
-60.554
-61.061
-61.429
-61.669
-61.794
-61.815
-61.744
-61.593
-61.372
-61.093
-60.766
-60.401
-60.006
-59.591
-59.163
-58.729
-58.295
-57.867
-57.45
-57.047
-56.661
-56.296
-55.954
-55.635
-55.341
-55.072
-54.827
-54.605
-54.405
-54.224
-54.061
-53.911
-53.772
-53.641
-53.513
-53.385
-53.253
-53.113
-52.962
-52.797
-52.613
-52.41
-52.184
-51.934
-51.657
-51.354
-51.022
-50.664
-50.277
-49.865
-49.427
-48.966
-48.483
-47.981
-47.462
-46.928
-46.384
-45.83
-45.27
-44.708
-44.146
-43.587
-43.035
-42.492
-41.961
-41.446
-40.948
-40.47
-40.015
-39.582
-39.174
-38.792
-38.434
-38.102
-37.793
-37.506
-37.239
-36.989
-36.755
-36.531
-36.315
-36.101
-35.886
-35.663
-35.428
-35.175
-34.898
-34.591
-34.25
-33.869
-33.443
-32.967
-32.437
-31.848
-31.196
-30.48
-29.696
-28.841
-27.915
-26.917
-25.848
-24.707
-23.498
-22.224
-20.89
-19.502
-18.069
-16.6
-15.103
-13.588
-12.067
-10.551
-9.051
-7.577
-6.139
-4.747
-3.415
-2.156
-0.985
0.086
1.046
1.883
2.587
3.146
3.551
3.802
3.894
3.823
3.58
3.146
2.508
1.663
0.609
-0.652
-2.11
-3.76
-5.58
-7.534
-9.585
-11.702
-13.855
-16.031
-18.211
-20.356
-22.422
-24.354
-26.107
-27.656
-28.985
-30.074
-30.92
-31.54
-31.978
-32.314
-32.631
-33
-33.484
-34.155
-35.094
-36.378
-38.101
-40.382
-43.263
-46.723
-50.669
-54.867
-59.046
-62.972
-66.318
-68.703
-69.918
-69.852
-68.628
-66.81
-65.007
-63.66
-63.196
-63.971
-66.1
-69.632
-74.324
-78.293
-78.634
-73.082
-59.443
-38.255
-13.164
14.924
46.316
83.89
135.257
202.878
285.197
377.786
469.776
552.739
619.493
662.509
676.649
655.338
595.05
496.026
364.488
216.447
70.335
-53.418
-138.397
-181.586
-187.951
-169.427
-142.251
-116.189
-95.461
-81.266
-69.189
-55.611
-40.493
-23.872
-8.939
0.009
1.995
-3.121
-13.827
-26.688
-39.592
-51.053
-59.767
-65.52
-68.293
-68.082
-65.504
-61.431
-56.686
-52.248
-48.84
-46.723
-46.019
-46.676
-48.443
-51.061
-54.199
-57.403
-60.348
-62.88
-64.91
-66.459
-67.562
-68.203
-68.4
-68.206
-67.657
-66.782
-65.599
-64.098
-62.287
-60.2
-57.881
-55.387
-52.774
-50.074
-47.308
-44.492
-41.633
-38.742
-35.822
-32.866
-29.861
-26.798
-23.672
-20.48
-17.218
-13.879
-10.448
-6.913
-3.264
0.504
4.394
8.408
12.544
16.802
21.174
25.653
30.229
34.892
39.633
44.443
49.31
54.222
59.166
64.127
69.091
74.042
78.963
83.835
88.641
93.359
97.972
102.459
106.798
110.971
114.955
118.732
122.282
125.585
128.622
131.375
133.828
135.965
137.771
139.234
140.342
141.086
141.458
141.453
141.067
140.298
139.146
137.613
135.704
133.424
130.78
127.782
124.442
120.771
116.785
112.498
107.93
103.098
98.022
92.723
87.223
81.544
75.711
69.747
63.677
57.524
51.314
45.071
38.82
32.584
26.387
20.251
14.199
8.252
2.428
-3.253
-8.775
-14.121
-19.278
-24.232
-28.972
-33.489
-37.773
-41.819
-45.62
-49.173
-52.474
-55.523
-58.319
-60.862
-63.157
-65.205
-67.011
-68.581
-69.921
-71.039
-71.944
-72.643
-73.147
-73.466
-73.611
-73.593
-73.423
-73.113
-72.676
-72.123
-71.466
-70.716
-69.884
-68.983
-68.022
-67.011
-65.96
-64.878
-63.774
-62.656
-61.531
-60.406
-59.288
-58.183
-57.097
-56.035
-55.002
-54.002
-53.038
-52.114
-51.233
-50.397
-49.609
-48.87
-48.181
-47.543
-46.956
-46.421
-45.938
-45.506
-45.124
-44.792
-44.508
-44.271
-44.08
-43.933
-43.829
-43.768
-43.746
-43.764
-43.82
-43.911
-44.037
-44.196
-44.386
-44.605
-44.851
-45.121
-45.412
-45.723
-46.051
-46.391
-46.74
-47.096
-47.453
-47.809
-48.158
-48.497
-48.82
-49.124
-49.404
-49.654
-49.87
-50.046
-50.177
-50.257
-50.281
-50.243
-50.138
-49.961
-49.705
-49.365
-48.936
-48.414
-47.793
-47.07
-46.24
-45.3
-44.248
-43.082
-41.8
-40.403
-38.89
-37.262
-35.522
-33.674
-31.721
-29.668
-27.52
-25.285
-22.972
-20.588
-18.143
-15.648
-13.114
-10.556
-7.989
-5.428
-2.889
-0.388
2.057
4.428
6.709
8.883
10.938
12.859
14.63
16.237
17.662
18.893
19.918
20.726
21.306
21.648
21.748
21.607
21.225
20.605
19.744
18.631
17.261
15.635
13.756
11.629
9.269
6.689
3.918
0.995
-2.04
-5.149
-8.302
-11.479
-14.65
-17.777
-20.815
-23.705
-26.398
-28.86
-31.048
-32.93
-34.506
-35.792
-36.834
-37.71
-38.457
-39.119
-39.749
-40.384
-41.084
-41.912
-42.909
-44.175
-45.867
-48.044
-50.699
-53.721
-56.763
-59.464
-61.535
-62.524
-61.921
-59.525
-55.366
-49.756
-43.712
-38.314
-34.288
-32.714
-34.052
-37.238
-41.14
-44.319
-46.019
-48.093
-51.185
-52.798
-46.764
-23.254
24.199
95.591
184.813
281.352
376.921
466.958
548.311
617.046
666.591
687.859
672.886
619.322
529.264
410.707
277.228
142.709
22.358
-70.535
-129.582
-153.862
-149.285
-127.217
-99.246
-75.171
-60.551
-55.316
-55.36
-54.691
-49.18
-38.224
-24.637
-13.489
-7.744
-7.575
-11.699
-17.73
-24.343
-31.442
-38.584
-44.984
-50.104
-53.627
-55.576
-56.354
-56.219
-55.249
-53.833
-52.641
-52.104
-52.426
-53.608
-55.405
-57.622
-60.132
-62.709
-65.057
-66.978
-68.368
-69.2
-69.539
-69.433
-68.908
-68.008
-66.784
-65.277
-63.516
-61.528
-59.335
-56.972
-54.497
-51.949
-49.359
-46.748
-44.126
-41.497
-38.864
-36.221
-33.551
-30.842
-28.091
-25.293
-22.448
-19.549
-16.586
-13.547
-10.423
-7.202
-3.878
-0.443
3.108
6.778
10.564
14.465
18.474
22.587
26.801
31.112
35.514
40.001
44.565
49.196
53.887
58.624
63.394
68.181
72.97
77.742
82.481
87.167
91.782
96.304
100.714
104.991
109.115
113.063
116.816
120.353
123.653
126.697
129.467
131.944
134.112
135.955
137.458
138.611
139.401
139.82
139.861
139.517
138.786
137.666
136.157
134.264
131.989
129.34
126.326
122.957
119.248
115.211
110.865
106.228
101.318
96.158
90.77
85.176
79.402
73.473
67.413
61.25
55.009
48.718
42.402
36.089
29.804
23.572
17.418
11.367
5.439
-0.343
-5.958
-11.39
-16.62
-21.632
-26.414
-30.952
-35.236
-39.257
-43.008
-46.484
-49.681
-52.598
-55.235
-57.592
-59.674
-61.485
-63.03
-64.317
-65.355
-66.152
-66.72
-67.07
-67.214
-67.165
-66.937
-66.544
-66
-65.321
-64.521
-63.615
-62.618
-61.543
-60.406
-59.218
-57.994
-56.745
-55.484
-54.221
-52.967
-51.731
-50.521
-49.346
-48.212
-47.126
-46.093
-45.117
-44.202
-43.351
-42.567
-41.851
-41.205
-40.63
-40.126
-39.692
-39.328
-39.032
-38.803
-38.64
-38.539
-38.498
-38.514
-38.585
-38.708
-38.879
-39.097
-39.357
-39.658
-39.997
-40.371
-40.777
-41.214
-41.678
-42.168
-42.682
-43.217
-43.773
-44.346
-44.936
-45.54
-46.156
-46.781
-47.415
-48.053
-48.693
-49.332
-49.966
-50.593
-51.208
-51.809
-52.391
-52.951
-53.484
-53.987
-54.455
-54.884
-55.269
-55.605
-55.887
-56.11
-56.268
-56.357
-56.373
-56.309
-56.163
-55.928
-55.602
-55.181
-54.661
-54.039
-53.312
-52.48
-51.539
-50.491
-49.336
-48.075
-46.709
-45.243
-43.68
-42.025
-40.284
-38.462
-36.567
-34.605
-32.586
-30.518
-28.412
-26.277
-24.127
-21.976
-19.839
-17.731
-15.667
-13.664
-11.738
-9.904
-8.178
-6.571
-5.094
-3.76
-2.579
-1.564
-0.729
-0.08
0.373
0.623
0.664
0.491
0.103
-0.493
-1.292
-2.291
-3.489
-4.898
-6.522
-8.359
-10.408
-12.66
-15.103
-17.722
-20.489
-23.359
-26.288
-29.233
-32.155
-35.031
-37.824
-40.49
-42.983
-45.238
-47.205
-48.852
-50.14
-51.051
-51.592
-51.781
-51.666
-51.328
-50.838
-50.28
-49.74
-49.287
-49.008
-48.973
-49.279
-50.094
-51.503
-53.514
-56.072
-58.927
-61.769
-64.348
-66.269
-67.014
-66.32
-64.057
-60.329
-55.898
-51.647
-48.328
-46.964
-47.98
-50.701
-54.343
-57.548
-59.676
-61.768
-63.934
-65.131
-60.652
-42.773
-5.658
54.629
135.905
231.573
335.583
439.904
537.781
621.833
681.714
708.779
696.324
643.159
554.356
438.976
309.881
180.411
64.09
-28.082
-91.061
-125.486
-137.89
-135.773
-124.245
-106.428
-84.185
-61.558
-43.865
-34.506
-33.5
-36.73
-39.567
-40.148
-39.435
-40.397
-44.848
-52.293
-61.037
-68.837
-74.486
-77.798
-78.855
-78.026
-75.719
-72.358
-68.561
-65.011
-62.131
-60.187
-59.311
-59.455
-60.526
-62.364
-64.698
-67.193
-69.584
-71.672
-73.343
-74.578
-75.364
-75.692
-75.578
-75.052
-74.153
-72.917
-71.371
-69.526
-67.397
-65.01
-62.406
-59.636
-56.754
-53.811
-50.841
-47.867
-44.905
-41.965
-39.051
-36.162
-33.287
-30.408
-27.516
-24.599
-21.65
-18.662
-15.62
-12.509
-9.316
-6.029
-2.64
0.856
4.465
8.19
12.031
15.987
20.052
24.221
28.486
32.844
37.285
41.801
46.383
51.02
55.698
60.405
65.126
69.844
74.541
79.199
83.797
88.315
92.732
97.027
101.178
105.164
108.962
112.553
115.914
119.026
121.87
124.426
126.678
128.611
130.209
131.46
132.353
132.88
133.033
132.809
132.203
131.215
129.846
128.1
125.982
123.499
120.661
117.479
113.968
110.141
106.018
101.617
96.959
92.065
86.959
81.665
76.207
70.611
64.902
59.107
53.252
47.363
41.467
35.588
29.751
23.981
18.3
12.731
7.293
2.007
-3.11
-8.041
-12.773
-17.291
-21.584
-25.642
-29.457
-33.023
-36.335
-39.389
-42.186
-44.725
-47.009
-49.042
-50.828
-52.374
-53.688
-54.779
-55.656
-56.33
-56.813
-57.116
-57.253
-57.236
-57.079
-56.796
-56.4
-55.905
-55.325
-54.672
-53.958
-53.196
-52.397
-51.572
-50.731
-49.884
-49.04
-48.207
-47.392
-46.602
-45.843
-45.118
-44.433
-43.789
-43.191
-42.638
-42.132
-41.674
-41.262
-40.897
-40.577
-40.301
-40.067
-39.872
-39.713
-39.589
-39.495
-39.43
-39.391
-39.373
-39.376
-39.396
-39.431
-39.479
-39.539
-39.608
-39.686
-39.772
-39.865
-39.965
-40.071
-40.183
-40.303
-40.43
-40.565
-40.709
-40.863
-41.027
-41.204
-41.393
-41.595
-41.812
-42.042
-42.286
-42.544
-42.816
-43.1
-43.395
-43.7
-44.013
-44.333
-44.656
-44.98
-45.303
-45.62
-45.928
-46.222
-46.499
-46.753
-46.98
-47.174
-47.329
-47.44
-47.503
-47.511
-47.459
-47.342
-47.155
-46.893
-46.553
-46.13
-45.622
-45.025
-44.338
-43.56
-42.69
-41.73
-40.68
-39.543
-38.323
-37.023
-35.649
-34.206
-32.7
-31.139
-29.529
-27.879
-26.199
-24.498
-22.788
-21.08
-19.387
-17.726
-16.111
-14.557
-13.08
-11.694
-10.415
-9.256
-8.228
-7.342
-6.607
-6.035
-5.636
-5.419
-5.391
-5.557
-5.921
-6.485
-7.254
-8.223
-9.383
-10.728
-12.253
-13.959
-15.855
-17.945
-20.226
-22.693
-25.339
-28.153
-31.123
-34.22
-37.4
-40.621
-43.838
-47.016
-50.13
-53.142
-56
-58.651
-61.024
-63.065
-64.742
-66.023
-66.88
-67.316
-67.339
-66.99
-66.357
-65.526
-64.593
-63.662
-62.814
-62.136
-61.745
-61.801
-62.451
-63.755
-65.628
-67.868
-70.241
-72.515
-74.411
-75.513
-75.404
-73.92
-71.297
-68.151
-65.182
-63.112
-62.71
-64.74
-70.002
-78.099
-86.835
-93.849
-96.596
-94.257
-89.15
-81.679
-70.026
-50.098
-12.888
48.017
133.905
243.04
365.349
487.939
599.076
684.791
736.622
750.624
724.707
663.679
573.144
459.123
331.204
199.412
76.188
-25.349
-96.201
-134.561
-144.9
-134.508
-112.857
-85.766
-57.703
-35.587
-21.813
-17.475
-21.132
-25.72
-27.852
-27.321
-25.364
-25.951
-30.347
-37.065
-44.351
-50.249
-53.968
-55.601
-55.334
-53.572
-50.759
-47.563
-44.775
-42.774
-41.733
-41.797
-42.923
-45.068
-48.142
-51.803
-55.651
-59.412
-62.867
-65.896
-68.472
-70.543
-72.071
-73.075
-73.583
-73.634
-73.27
-72.507
-71.354
-69.831
-67.964
-65.799
-63.394
-60.806
-58.096
-55.305
-52.457
-49.575
-46.67
-43.75
-40.816
-37.859
-34.863
-31.819
-28.72
-25.561
-22.34
-19.046
-15.666
-12.188
-8.605
-4.908
-1.096
2.832
6.88
11.043
15.319
19.698
24.171
28.73
33.368
38.075
42.842
47.659
52.512
57.391
62.281
67.17
72.041
76.877
81.66
86.372
90.996
95.511
99.898
104.139
108.213
112.1
115.783
119.242
122.459
125.416
128.096
130.485
132.568
134.331
135.763
136.854
137.596
137.981
138.007
137.668
136.965
135.899
134.471
132.687
130.552
128.075
125.265
122.133
118.693
114.958
110.945
106.671
102.155
97.417
92.476
87.355
82.075
76.659
71.13
65.512
59.827
54.1
48.353
42.608
36.889
31.216
25.61
20.091
14.677
9.386
4.233
-0.766
-5.599
-10.253
-14.718
-18.984
-23.045
-26.893
-30.524
-33.933
-37.119
-40.081
-42.817
-45.33
-47.622
-49.695
-51.555
-53.207
-54.656
-55.911
-56.977
-57.864
-58.581
-59.136
-59.539
-59.8
-59.93
-59.937
-59.832
-59.626
-59.326
-58.944
-58.487
-57.964
-57.383
-56.752
-56.077
-55.365
-54.622
-53.853
-53.064
-52.26
-51.444
-50.621
-49.795
-48.968
-48.144
-47.326
-46.515
-45.715
-44.926
-44.151
-43.391
-42.647
-41.921
-41.213
-40.524
-39.855
-39.207
-38.58
-37.975
-37.393
-36.835
-36.301
-35.793
-35.312
-34.859
-34.436
-34.043
-33.684
-33.359
-33.071
-32.82
-32.608
-32.436
-32.305
-32.217
-32.17
-32.167
-32.205
-32.286
-32.408
-32.569
-32.769
-33.005
-33.276
-33.578
-33.909
-34.265
-34.643
-35.039
-35.448
-35.866
-36.287
-36.708
-37.121
-37.523
-37.907
-38.267
-38.597
-38.891
-39.143
-39.347
-39.496
-39.584
-39.605
-39.554
-39.426
-39.215
-38.919
-38.533
-38.055
-37.481
-36.811
-36.044
-35.179
-34.216
-33.156
-32.001
-30.753
-29.417
-27.997
-26.497
-24.923
-23.281
-21.58
-19.826
-18.027
-16.193
-14.332
-12.454
-10.571
-8.692
-6.83
-4.997
-3.207
-1.475
0.183
1.754
3.221
4.572
5.791
6.866
7.786
8.543
9.126
9.529
9.74
9.75
9.555
9.148
8.526
7.688
6.63
5.354
3.867
2.179
0.294
-1.786
-4.067
-6.555
-9.244
-12.129
-15.2
-18.441
-21.837
-25.361
-28.968
-32.611
-36.245
-39.827
-43.33
-46.722
-49.954
-52.97
-55.705
-58.097
-60.112
-61.724
-62.909
-63.663
-64
-63.968
-63.651
-63.142
-62.537
-61.933
-61.427
-61.113
-61.088
-61.471
-62.422
-64.062
-66.404
-69.329
-72.598
-75.944
-79.14
-81.883
-83.721
-84.26
-83.33
-81.178
-78.439
-75.718
-73.553
-72.505
-73.128
-76.066
-80.997
-85.775
-87.924
-85.11
-76.65
-65.018
-51.561
-34.49
-9.488
31.236
93.943
178.352
280.414
392.503
504.327
608.173
695.809
758.011
787.499
777.722
726.97
638.394
520.167
386.529
252.605
135.258
47.503
-8.222
-35.923
-47.006
-54.517
-63.945
-75.885
-86.645
-91.117
-88.729
-81.536
-72.505
-64.48
-57.825
-51.744
-45.744
-39.483
-33.398
-28.194
-23.906
-20.733
-19.172
-19.477
-21.798
-25.868
-30.708
-35.392
-39.511
-42.75
-44.909
-46.013
-46.056
-45.317
-44.493
-44.137
-44.516
-45.741
-47.685
-50.127
-52.906
-55.783
-58.424
-60.614
-62.23
-63.23
-63.685
-63.675
-63.249
-62.474
-61.412
-60.099
-58.566
-56.843
-54.949
-52.922
-50.81
-48.644
-46.448
-44.236
-42.01
-39.77
-37.504
-35.195
-32.823
-30.372
-27.837
-25.213
-22.5
-19.689
-16.774
-13.748
-10.602
-7.331
-3.931
-0.4
3.262
7.048
10.952
14.962
19.068
23.259
27.524
31.853
36.233
40.652
45.096
49.552
54.004
58.434
62.826
67.161
71.419
75.582
79.631
83.547
87.312
90.907
94.315
97.518
100.498
103.241
105.731
107.955
109.898
111.551
112.902
113.944
114.67
115.073
115.151
114.902
114.326
113.424
112.2
110.658
108.805
106.651
104.204
101.475
98.477
95.224
91.73
88.012
84.086
79.97
75.682
71.241
66.666
61.977
57.194
52.336
47.424
42.477
37.514
32.554
27.617
22.719
17.878
13.11
8.431
3.855
-0.604
-4.933
-9.123
-13.162
-17.043
-20.757
-24.299
-27.663
-30.845
-33.842
-36.653
-39.277
-41.713
-43.961
-46.025
-47.905
-49.606
-51.131
-52.483
-53.67
-54.695
-55.565
-56.286
-56.867
-57.312
-57.632
-57.832
-57.921
-57.908
-57.8
-57.605
-57.332
-56.989
-56.584
-56.124
-55.615
-55.066
-54.482
-53.87
-53.234
-52.581
-51.916
-51.243
-50.567
-49.892
-49.223
-48.563
-47.916
-47.285
-46.673
-46.085
-45.521
-44.986
-44.481
-44.008
-43.569
-43.166
-42.8
-42.472
-42.183
-41.933
-41.722
-41.551
-41.418
-41.323
-41.265
-41.245
-41.261
-41.311
-41.397
-41.515
-41.665
-41.847
-42.058
-42.297
-42.562
-42.851
-43.162
-43.492
-43.84
-44.2
-44.571
-44.949
-45.328
-45.706
-46.078
-46.439
-46.785
-47.11
-47.409
-47.679
-47.914
-48.111
-48.264
-48.369
-48.423
-48.421
-48.361
-48.237
-48.046
-47.785
-47.45
-47.04
-46.55
-45.979
-45.325
-44.585
-43.76
-42.848
-41.849
-40.763
-39.592
-38.337
-37.001
-35.588
-34.101
-32.545
-30.926
-29.252
-27.529
-25.765
-23.969
-22.148
-20.313
-18.471
-16.633
-14.809
-13.01
-11.245
-9.527
-7.871
-6.289
-4.795
-3.404
-2.128
-0.981
0.023
0.872
1.558
2.072
2.405
2.549
2.494
2.233
1.761
1.075
0.174
-0.941
-2.271
-3.81
-5.548
-7.476
-9.585
-11.87
-14.339
-16.993
-19.828
-22.837
-26.008
-29.326
-32.775
-36.327
-39.94
-43.571
-47.174
-50.711
-54.151
-57.457
-60.587
-63.49
-66.104
-68.378
-70.262
-71.714
-72.71
-73.247
-73.337
-73.031
-72.377
-71.433
-70.359
-69.301
-68.397
-67.803
-67.557
-67.717
-68.489
-69.984
-71.993
-74.217
-76.219
-77.535
-78.055
-77.582
-75.69
-72.224
-67.599
-62.601
-58.329
-55.948
-56.09
-59.338
-66.324
-76.441
-87.582
-97.343
-103.36
-104.942
-102.802
-95.354
-78.137
-44.387
11.271
88.639
181.862
281.829
381.866
479.244
572.759
659.247
730.34
773.395
776.378
734.082
648.109
527.517
387.838
244.197
112.749
8.697
-60.534
-92.6
-91.385
-69.514
-39.68
-13.103
-0.463
-3.208
-17.665
-38.343
-55.491
-64.837
-67.324
-65.276
-63.906
-65.386
-68.478
-71.615
-72.771
-71.349
-68.139
-63.905
-59.352
-54.958
-51.028
-47.937
-45.915
-45.003
-45.142
-46.188
-48.021
-50.537
-53.584
-56.991
-60.615
-64.326
-67.992
-71.493
-74.686
-77.458
-79.748
-81.517
-82.747
-83.434
-83.587
-83.232
-82.422
-81.204
-79.624
-77.727
-75.551
-73.15
-70.582
-67.905
-65.179
-62.441
-59.716
-57.016
-54.348
-51.712
-49.099
-46.494
-43.874
-41.221
-38.523
-35.77
-32.952
-30.057
-27.071
-23.983
-20.781
-17.457
-14.005
-10.422
-6.705
-2.855
1.125
5.229
9.45
13.781
18.215
22.744
27.359
32.052
36.809
41.621
46.472
51.348
56.232
61.107
65.951
70.746
75.47
80.102
84.621
89.003
93.227
97.272
101.115
104.736
108.115
111.231
114.066
116.603
118.825
120.717
122.267
123.462
124.294
124.753
124.835
124.536
123.853
122.786
121.338
119.513
117.318
114.759
111.848
108.596
105.018
101.13
96.949
92.494
87.787
82.849
77.703
72.373
66.884
61.26
55.528
49.712
43.839
37.934
32.021
26.127
20.274
14.487
8.788
3.199
-2.261
-7.572
-12.717
-17.679
-22.443
-26.996
-31.326
-35.423
-39.278
-42.885
-46.237
-49.331
-52.165
-54.738
-57.051
-59.106
-60.907
-62.46
-63.77
-64.845
-65.693
-66.324
-66.748
-66.975
-67.017
-66.885
-66.593
-66.152
-65.576
-64.877
-64.068
-63.163
-62.173
-61.111
-59.989
-58.819
-57.611
-56.377
-55.126
-53.867
-52.611
-51.364
-50.135
-48.93
-47.756
-46.617
-45.519
-44.465
-43.458
-42.501
-41.597
-40.746
-39.95
-39.21
-38.524
-37.893
-37.316
-36.791
-36.318
-35.893
-35.516
-35.183
-34.892
-34.641
-34.427
-34.247
-34.098
-33.978
-33.885
-33.815
-33.766
-33.735
-33.721
-33.72
-33.73
-33.75
-33.778
-33.811
-33.849
-33.889
-33.93
-33.97
-34.006
-34.038
-34.063
-34.079
-34.084
-34.076
-34.052
-34.012
-33.952
-33.871
-33.768
-33.64
-33.485
-33.301
-33.087
-32.839
-32.556
-32.235
-31.873
-31.47
-31.022
-30.528
-29.986
-29.393
-28.749
-28.051
-27.298
-26.489
-25.621
-24.695
-23.71
-22.668
-21.571
-20.42
-19.219
-17.971
-16.679
-15.349
-13.985
-12.591
-11.175
-9.741
-8.297
-6.85
-5.408
-3.981
-2.579
-1.215
0.102
1.359
2.543
3.641
4.639
5.522
6.279
6.901
7.376
7.695
7.847
7.825
7.622
7.237
6.666
5.905
4.95
3.799
2.458
0.94
-0.745
-2.586
-4.582
-6.74
-9.058
-11.53
-14.151
-16.918
-19.83
-22.882
-26.052
-29.294
-32.556
-35.794
-38.977
-42.094
-45.139
-48.085
-50.883
-53.464
-55.765
-57.74
-59.373
-60.627
-61.438
-61.805
-61.809
-61.643
-61.626
-62.031
-62.933
-64.345
-66.285
-68.641
-71.296
-73.99
-76.04
-76.773
-75.914
-73.392
-69.344
-64.175
-58.147
-51.668
-45.909
-42.2
-41.445
-44.362
-51.179
-61.578
-75.531
-92.184
-108.811
-122.488
-130.462
-131.284
-126.556
-117.337
-101.985
-76.828
-35.313
27.704
111.437
211.841
321.867
432.063
535.963
626.354
693.643
731.467
733.021
694.774
620.702
515.235
386.798
247.605
109.209
-14.107
-109.737
-171.334
-197.641
-193.045
-167.083
-129.849
-91.116
-60.748
-42.636
-36.369
-38.519
-41.44
-41.646
-39.484
-36.643
-37.601
-43.768
-53.383
-64.515
-74.231
-80.812
-84.339
-85
-83.222
-79.722
-75.106
-70.055
-65.466
-61.935
-59.679
-58.805
-59.238
-60.768
-63.188
-66.204
-69.407
-72.486
-75.244
-77.552
-79.388
-80.748
-81.606
-81.968
-81.859
-81.305
-80.342
-78.993
-77.265
-75.177
-72.758
-70.051
-67.115
-64.01
-60.793
-57.506
-54.174
-50.819
-47.455
-44.089
-40.726
-37.358
-33.97
-30.551
-27.095
-23.597
-20.05
-16.446
-12.769
-9.011
-5.161
-1.215
2.83
6.974
11.218
15.559
19.992
24.509
29.1
33.758
38.474
43.239
48.045
52.881
57.735
62.596
67.452
72.289
77.092
81.846
86.532
91.135
95.635
100.015
104.255
108.337
112.243
115.952
119.448
122.712
125.728
128.477
130.946
133.12
134.986
136.533
137.75
138.63
139.164
139.35
139.182
138.661
137.785
136.557
134.979
133.058
130.799
128.21
125.301
122.084
118.571
114.777
110.717
106.408
101.87
97.119
92.178
87.065
81.803
76.413
70.917
65.337
59.694
54.012
48.311
42.612
36.936
31.302
25.729
20.235
14.836
9.547
4.384
-0.641
-5.515
-10.229
-14.772
-19.135
-23.312
-27.296
-31.084
-34.67
-38.054
-41.233
-44.207
-46.977
-49.546
-51.915
-54.087
-56.068
-57.861
-59.473
-60.91
-62.177
-63.282
-64.232
-65.035
-65.698
-66.229
-66.634
-66.923
-67.102
-67.178
-67.158
-67.05
-66.859
-66.592
-66.256
-65.855
-65.395
-64.882
-64.319
-63.712
-63.064
-62.379
-61.66
-60.911
-60.134
-59.334
-58.511
-57.669
-56.811
-55.938
-55.054
-54.16
-53.259
-52.353
-51.445
-50.537
-49.632
-48.732
-47.84
-46.958
-46.089
-45.236
-44.401
-43.588
-42.798
-42.034
-41.299
-40.596
-39.926
-39.292
-38.696
-38.141
-37.628
-37.159
-36.737
-36.361
-36.035
-35.757
-35.529
-35.351
-35.223
-35.143
-35.11
-35.123
-35.178
-35.274
-35.405
-35.569
-35.76
-35.974
-36.206
-36.451
-36.702
-36.953
-37.2
-37.436
-37.654
-37.848
-38.012
-38.139
-38.223
-38.259
-38.239
-38.159
-38.013
-37.797
-37.504
-37.131
-36.674
-36.128
-35.492
-34.761
-33.935
-33.012
-31.993
-30.879
-29.671
-28.373
-26.988
-25.521
-23.977
-22.363
-20.684
-18.948
-17.163
-15.337
-13.48
-11.603
-9.715
-7.83
-5.96
-4.121
-2.323
-0.582
1.089
2.675
4.159
5.527
6.767
7.868
8.818
9.604
10.217
10.647
10.891
10.944
10.804
10.468
9.931
9.192
8.262
7.149
5.865
4.417
2.802
1.017
-0.928
-3.027
-5.272
-7.655
-10.175
-12.815
-15.543
-18.319
-21.094
-23.83
-26.507
-29.11
-31.627
-34.035
-36.278
-38.298
-40.048
-41.484
-42.589
-43.346
-43.702
-43.678
-43.391
-43.026
-42.89
-43.249
-44.152
-45.604
-47.626
-50.102
-52.901
-55.739
-57.912
-58.747
-57.98
-55.533
-51.521
-46.267
-39.959
-33.051
-26.708
-22.185
-20.508
-22.473
-28.347
-38.269
-51.84
-67.175
-81.798
-93.046
-99.985
-104.819
-108.813
-110.234
-102.958
-76.291
-22.835
57.72
159.174
270.118
381.217
487.652
585.783
670.808
734.485
765.662
755.752
703.234
611.831
491.465
357.023
222.864
105.48
18.495
-35.11
-59.37
-65.199
-65.546
-65.11
-62.158
-54.533
-41.334
-26.374
-17.506
-17.727
-24.911
-35.667
-44.707
-50.044
-53.675
-56.363
-58.607
-60.387
-60.352
-58.319
-55.015
-50.997
-46.994
-43.598
-41.085
-39.643
-39.359
-40.13
-41.742
-44.023
-46.83
-50.021
-53.469
-57.048
-60.618
-64.041
-67.197
-69.983
-72.325
-74.177
-75.513
-76.316
-76.585
-76.345
-75.638
-74.508
-72.998
-71.145
-68.981
-66.554
-63.92
-61.139
-58.278
-55.383
-52.481
-49.596
-46.739
-43.916
-41.128
-38.363
-35.6
-32.824
-30.026
-27.197
-24.335
-21.431
-18.473
-15.449
-12.351
-9.172
-5.907
-2.552
0.894
4.43
8.054
11.76
15.538
19.383
23.288
27.247
31.254
35.302
39.381
43.484
47.6
51.719
55.829
59.915
63.962
67.955
71.878
75.714
79.447
83.058
86.532
89.85
92.996
95.953
98.706
101.238
103.536
105.585
107.373
108.89
110.124
111.068
111.714
112.058
112.095
111.822
111.239
110.346
109.144
107.636
105.827
103.724
101.333
98.663
95.726
92.532
89.096
85.433
81.557
77.486
73.238
68.832
64.285
59.619
54.853
50.006
45.1
40.153
35.186
30.218
25.267
20.351
15.486
10.69
5.976
1.359
-3.149
-7.534
-11.787
-15.896
-19.854
-23.651
-27.281
-30.738
-34.017
-37.114
-40.025
-42.75
-45.287
-47.637
-49.801
-51.78
-53.579
-55.201
-56.651
-57.934
-59.057
-60.026
-60.848
-61.531
-62.083
-62.511
-62.824
-63.028
-63.132
-63.143
-63.068
-62.914
-62.687
-62.395
-62.044
-61.638
-61.186
-60.691
-60.16
-59.599
-59.011
-58.403
-57.779
-57.144
-56.503
-55.858
-55.216
-54.579
-53.951
-53.335
-52.733
-52.149
-51.585
-51.042
-50.523
-50.028
-49.56
-49.118
-48.705
-48.322
-47.97
-47.649
-47.362
-47.109
-46.891
-46.711
-46.569
-46.465
-46.402
-46.379
-46.396
-46.454
-46.552
-46.69
-46.867
-47.08
-47.329
-47.61
-47.921
-48.259
-48.62
-49
-49.394
-49.799
-50.209
-50.619
-51.025
-51.422
-51.804
-52.166
-52.503
-52.809
-53.078
-53.305
-53.483
-53.607
-53.669
-53.664
-53.586
-53.429
-53.187
-52.856
-52.431
-51.907
-51.281
-50.55
-49.71
-48.76
-47.7
-46.528
-45.246
-43.856
-42.36
-40.764
-39.071
-37.288
-35.42
-33.476
-31.463
-29.391
-27.267
-25.102
-22.907
-20.692
-18.47
-16.253
-14.055
-11.892
-9.779
-7.734
-5.772
-3.91
-2.164
-0.552
0.912
2.216
3.35
4.301
5.058
5.61
5.947
6.059
5.941
5.588
4.995
4.162
3.091
1.791
0.272
-1.46
-3.399
-5.553
-7.924
-10.508
-13.302
-16.294
-19.469
-22.809
-26.282
-29.842
-33.443
-37.038
-40.588
-44.064
-47.431
-50.647
-53.663
-56.413
-58.836
-60.88
-62.508
-63.704
-64.475
-64.843
-64.85
-64.553
-64.031
-63.389
-62.692
-61.967
-61.253
-60.584
-60.064
-59.925
-60.303
-61.183
-62.58
-64.462
-66.574
-68.588
-70.122
-70.405
-69.502
-68.486
-67.18
-65.264
-61.863
-54.344
-44.186
-35.473
-31.125
-35.405
-47.085
-60.769
-73.967
-82.808
-85.359
-79.695
-58.899
-17.459
48.434
137.445
242.323
356.008
470.326
578.463
673.035
743.132
779.088
773.386
724.417
637.382
521.668
390.234
256.813
135.381
37.615
-29.678
-65.665
-75.231
-66.009
-46.895
-25.241
-7.683
0.661
-1.013
-10.978
-23.848
-34.053
-39.906
-42.212
-44.152
-48.103
-53.698
-59.328
-63.061
-64.136
-63.027
-60.523
-57.428
-54.239
-51.314
-49.086
-47.796
-47.481
-48.071
-49.391
-51.309
-53.745
-56.572
-59.646
-62.839
-66.036
-69.137
-72.045
-74.639
-76.819
-78.525
-79.716
-80.386
-80.538
-80.184
-79.355
-78.096
-76.45
-74.459
-72.165
-69.603
-66.819
-63.869
-60.807
-57.692
-54.565
-51.452
-48.374
-45.337
-42.344
-39.389
-36.461
-33.539
-30.61
-27.662
-24.686
-21.676
-18.622
-15.512
-12.336
-9.083
-5.744
-2.316
1.208
4.83
8.549
12.365
16.272
20.265
24.337
28.483
32.698
36.973
41.302
45.676
50.083
54.514
58.955
63.392
67.811
72.193
76.521
80.777
84.943
88.999
92.926
96.704
100.314
103.737
106.954
109.947
112.699
115.194
117.416
119.352
120.988
122.313
123.318
123.994
124.335
124.335
123.993
123.305
122.272
120.898
119.185
117.138
114.767
112.079
109.085
105.799
102.234
98.406
94.332
90.03
85.521
80.823
75.959
70.95
65.817
60.584
55.272
49.904
44.501
39.087
33.68
28.304
22.976
17.716
12.543
7.474
2.524
-2.29
-6.956
-11.46
-15.79
-19.937
-23.89
-27.643
-31.188
-34.521
-37.638
-40.535
-43.213
-45.672
-47.911
-49.934
-51.745
-53.347
-54.747
-55.95
-56.963
-57.795
-58.454
-58.947
-59.286
-59.478
-59.533
-59.461
-59.273
-58.976
-58.583
-58.101
-57.542
-56.913
-56.226
-55.488
-54.71
-53.898
-53.063
-52.21
-51.349
-50.485
-49.626
-48.776
-47.942
-47.128
-46.339
-45.578
-44.849
-44.155
-43.498
-42.88
-42.303
-41.766
-41.272
-40.819
-40.409
-40.042
-39.716
-39.431
-39.187
-38.983
-38.817
-38.689
-38.597
-38.54
-38.517
-38.525
-38.563
-38.629
-38.721
-38.838
-38.977
-39.137
-39.316
-39.512
-39.723
-39.948
-40.184
-40.429
-40.681
-40.939
-41.2
-41.463
-41.723
-41.981
-42.233
-42.476
-42.71
-42.93
-43.134
-43.32
-43.484
-43.622
-43.732
-43.809
-43.85
-43.851
-43.808
-43.718
-43.575
-43.378
-43.121
-42.801
-42.413
-41.955
-41.422
-40.811
-40.118
-39.34
-38.475
-37.521
-36.478
-35.344
-34.119
-32.805
-31.402
-29.912
-28.337
-26.68
-24.945
-23.137
-21.26
-19.321
-17.328
-15.29
-13.22
-11.128
-9.028
-6.931
-4.853
-2.807
-0.809
1.123
2.976
4.734
6.383
7.909
9.294
10.522
11.583
12.466
13.165
13.672
13.978
14.073
13.957
13.632
13.102
12.368
11.422
10.259
8.878
7.283
5.481
3.479
1.281
-1.103
-3.648
-6.326
-9.1
-11.926
-14.779
-17.634
-20.466
-23.257
-25.972
-28.556
-30.965
-33.152
-35.069
-36.713
-38.081
-39.136
-39.925
-40.559
-41.206
-42.178
-43.753
-45.991
-48.902
-52.504
-56.684
-61.287
-65.949
-69.845
-72.131
-72.393
-70.491
-66.507
-60.757
-53.53
-45.487
-38.105
-33.078
-31.795
-35.186
-43.464
-56.596
-73.831
-92.821
-110.637
-123.906
-130.814
-132.993
-131.343
-123.932
-105.851
-68.136
-3.992
85.904
196.711
319.682
444.473
564.26
670.191
751.058
797.091
798.754
753.636
666.955
547.622
409.081
265.259
129.908
16.472
-65.506
-113.457
-130.667
-124.141
-104.001
-76.653
-47.98
-25.943
-13.061
-11.235
-18.958
-28.13
-35.176
-39.37
-41.237
-45.18
-52.449
-61.14
-69.809
-76.406
-79.869
-80.513
-78.762
-75.197
-70.697
-66.287
-62.574
-59.822
-58.203
-57.741
-58.44
-60.314
-63.137
-66.477
-70.05
-73.673
-77.205
-80.579
-83.667
-86.328
-88.507
-90.206
-91.438
-92.212
-92.523
-92.357
-91.735
-90.694
-89.273
-87.516
-85.458
-83.141
-80.616
-77.938
-75.165
-72.341
-69.494
-66.643
-63.797
-60.956
-58.121
-55.282
-52.422
-49.527
-46.584
-43.58
-40.507
-37.356
-34.113
-30.77
-27.316
-23.742
-20.045
-16.219
-12.265
-8.184
-3.979
0.344
4.777
9.31
13.937
18.649
23.435
28.286
33.191
38.137
43.111
48.1
53.086
58.053
62.981
67.852
72.646
77.343
81.922
86.361
90.64
94.738
98.636
102.311
105.747
108.923
111.822
114.428
116.726
118.702
120.344
121.643
122.59
123.179
123.406
123.266
122.761
121.89
120.657
119.066
117.124
114.839
112.22
109.279
106.03
102.489
98.67
94.593
90.276
85.74
81.006
76.094
71.029
65.832
60.527
55.137
49.685
44.195
38.689
33.188
27.716
22.291
16.934
11.662
6.494
1.445
-3.471
-8.239
-12.847
-17.285
-21.543
-25.613
-29.488
-33.163
-36.634
-39.899
-42.955
-45.803
-48.443
-50.878
-53.11
-55.144
-56.984
-58.637
-60.109
-61.407
-62.538
-63.512
-64.336
-65.02
-65.573
-66.004
-66.322
-66.537
-66.656
-66.689
-66.643
-66.528
-66.351
-66.118
-65.836
-65.512
-65.151
-64.758
-64.339
-63.896
-63.435
-62.957
-62.465
-61.963
-61.452
-60.933
-60.409
-59.879
-59.344
-58.806
-58.264
-57.718
-57.169
-56.616
-56.058
-55.497
-54.932
-54.362
-53.787
-53.208
-52.625
-52.039
-51.449
-50.858
-50.265
-49.674
-49.085
-48.501
-47.924
-47.357
-46.802
-46.263
-45.744
-45.246
-44.775
-44.333
-43.924
-43.551
-43.219
-42.93
-42.687
-42.492
-42.349
-42.26
-42.226
-42.248
-42.328
-42.465
-42.661
-42.914
-43.224
-43.589
-44.008
-44.477
-44.993
-45.552
-46.149
-46.78
-47.437
-48.114
-48.805
-49.501
-50.196
-50.879
-51.542
-52.176
-52.772
-53.319
-53.809
-54.231
-54.575
-54.834
-54.997
-55.057
-55.007
-54.838
-54.546
-54.123
-53.567
-52.873
-52.038
-51.06
-49.939
-48.675
-47.27
-45.728
-44.052
-42.25
-40.329
-38.301
-36.176
-33.968
-31.69
-29.357
-26.985
-24.591
-22.19
-19.798
-17.431
-15.105
-12.841
-10.657
-8.571
-6.6
-4.763
-3.074
-1.551
-0.206
0.952
1.918
2.684
3.239
3.565
3.646
3.475
3.045
2.353
1.405
0.207
-1.223
-2.85
-4.639
-6.555
-8.567
-10.655
-12.797
-14.956
-17.09
-19.144
-21.06
-22.809
-24.355
-25.663
-26.724
-27.549
-28.181
-28.706
-29.192
-29.692
-30.27
-30.98
-31.879
-33.049
-34.53
-36.388
-38.765
-41.725
-45.257
-49.284
-53.522
-57.627
-61.314
-64.172
-65.667
-65.455
-63.43
-59.802
-55.242
-50.61
-46.695
-44.286
-44.433
-47.352
-51.67
-55.581
-56.738
-54.007
-49.677
-45.539
-40.085
-28.665
-1.886
49.28
126.387
225.836
338.89
453.424
561.134
653.614
721.888
758.898
756.363
710.959
625.205
506.062
367.527
225.696
97.149
-3.864
-70.076
-102.354
-107.473
-93.747
-70.614
-43.776
-18.155
-1.567
3.321
-4.126
-20.71
-36.753
-47.131
-50.605
-48.517
-46.094
-45.344
-45.572
-46.172
-45.832
-44.761
-43.967
-43.546
-43.699
-44.646
-46.342
-48.804
-51.801
-54.699
-57.229
-59.613
-62.01
-64.525
-67.16
-69.74
-72.205
-74.657
-77.054
-79.193
-80.917
-82.089
-82.656
-82.682
-82.207
-81.234
-79.803
-77.971
-75.794
-73.336
-70.649
-67.763
-64.724
-61.589
-58.404
-55.207
-52.027
-48.878
-45.767
-42.696
-39.658
-36.633
-33.606
-30.57
-27.516
-24.439
-21.332
-18.182
-14.979
-11.713
-8.374
-4.952
-1.438
2.176
5.896
9.721
13.652
17.684
21.816
26.045
30.369
34.784
39.284
43.863
48.514
53.229
57.998
62.808
67.644
72.491
77.331
82.148
86.922
91.634
96.263
100.789
105.19
109.446
113.536
117.437
121.129
124.591
127.803
130.746
133.401
135.751
137.78
139.474
140.82
141.806
142.425
142.668
142.531
142.011
141.107
139.82
138.155
136.115
133.71
130.949
127.844
124.409
120.662
116.618
112.298
107.722
102.913
97.893
92.687
87.318
81.812
76.194
70.491
64.728
58.931
53.126
47.336
41.588
35.905
30.31
24.823
19.466
14.258
9.216
4.357
-0.306
-4.758
-8.99
-12.992
-16.756
-20.277
-23.549
-26.572
-29.343
-31.865
-34.14
-36.172
-37.965
-39.528
-40.866
-41.991
-42.91
-43.634
-44.176
-44.545
-44.755
-44.818
-44.746
-44.554
-44.253
-43.857
-43.378
-42.83
-42.224
-41.571
-40.884
-40.173
-39.448
-38.717
-37.991
-37.275
-36.578
-35.905
-35.262
-34.653
-34.082
-33.553
-33.067
-32.625
-32.229
-31.88
-31.576
-31.317
-31.102
-30.929
-30.797
-30.704
-30.648
-30.627
-30.638
-30.678
-30.747
-30.841
-30.958
-31.096
-31.253
-31.427
-31.616
-31.82
-32.036
-32.263
-32.502
-32.75
-33.008
-33.275
-33.551
-33.836
-34.131
-34.435
-34.749
-35.073
-35.406
-35.75
-36.105
-36.47
-36.845
-37.23
-37.625
-38.029
-38.439
-38.856
-39.276
-39.697
-40.118
-40.533
-40.941
-41.336
-41.715
-42.073
-42.407
-42.71
-42.978
-43.205
-43.386
-43.516
-43.589
-43.6
-43.543
-43.413
-43.206
-42.917
-42.542
-42.079
-41.523
-40.873
-40.126
-39.282
-38.34
-37.301
-36.164
-34.933
-33.61
-32.2
-30.706
-29.136
-27.496
-25.797
-24.049
-22.264
-20.455
-18.635
-16.817
-15.016
-13.246
-11.52
-9.852
-8.253
-6.737
-5.319
-4.015
-2.839
-1.803
-0.92
-0.201
0.342
0.698
0.866
0.843
0.624
0.203
-0.436
-1.304
-2.407
-3.745
-5.319
-7.118
-9.133
-11.343
-13.708
-16.191
-18.752
-21.354
-23.976
-26.591
-29.158
-31.634
-33.964
-36.096
-38.003
-39.661
-41.04
-42.141
-42.983
-43.616
-44.132
-44.612
-45.124
-45.746
-46.558
-47.641
-49.091
-50.969
-53.343
-56.324
-59.955
-64.211
-68.965
-73.918
-78.751
-83.19
-86.882
-89.418
-90.489
-89.935
-88.008
-85.332
-82.452
-79.909
-78.212
-77.752
-79.114
-81.972
-84.26
-83.77
-78.38
-67.31
-52.884
-36.425
-16.289
10.651
50.173
107.312
181.354
269.566
368.406
470.122
566.864
648.75
699.909
708.424
669.219
583.106
462.613
324.938
185.765
60.985
-38.738
-108.05
-146.348
-158.051
-149.123
-127.955
-100.629
-72.837
-52.669
-42.617
-43.378
-52.3
-60.744
-64.705
-63.778
-59.757
-57.814
-59.743
-64.175
-69.414
-73.245
-74.985
-75.133
-73.771
-71.137
-67.597
-63.611
-59.943
-57.068
-55.058
-53.948
-53.794
-54.629
-56.437
-59.018
-61.973
-65.008
-67.94
-70.614
-72.958
-74.906
-76.378
-77.365
-77.899
-78.001
-77.705
-77.043
-76.016
-74.644
-72.953
-70.969
-68.741
-66.321
-63.764
-61.126
-58.448
-55.754
-53.065
-50.392
-47.739
-45.105
-42.477
-39.837
-37.175
-34.483
-31.755
-28.987
-26.165
-23.277
-20.312
-17.262
-14.121
-10.885
-7.55
-4.115
-0.582
3.044
6.757
10.548
14.409
18.334
22.316
26.344
30.411
34.505
38.617
42.735
46.847
50.94
54.999
59.008
62.952
66.817
70.584
74.239
77.765
81.145
84.364
87.406
90.256
92.898
95.318
97.503
99.44
101.117
102.523
103.649
104.487
105.03
105.274
105.214
104.849
104.178
103.202
101.923
100.345
98.474
96.316
93.88
91.175
88.212
85.004
81.563
77.905
74.045
69.998
65.782
61.414
56.911
52.292
47.576
42.78
37.924
33.026
28.106
23.182
18.271
13.392
8.562
3.796
-0.888
-5.477
-9.956
-14.312
-18.534
-22.611
-26.531
-30.288
-33.873
-37.279
-40.501
-43.536
-46.379
-49.03
-51.486
-53.749
-55.818
-57.696
-59.385
-60.889
-62.211
-63.356
-64.329
-65.137
-65.786
-66.284
-66.637
-66.854
-66.943
-66.913
-66.773
-66.532
-66.198
-65.782
-65.291
-64.736
-64.124
-63.465
-62.767
-62.038
-61.286
-60.518
-59.741
-58.961
-58.184
-57.415
-56.659
-55.921
-55.203
-54.51
-53.845
-53.21
-52.608
-52.04
-51.508
-51.013
-50.554
-50.133
-49.749
-49.402
-49.09
-48.812
-48.568
-48.355
-48.171
-48.016
-47.885
-47.778
-47.692
-47.624
-47.573
-47.537
-47.512
-47.499
-47.494
-47.496
-47.505
-47.519
-47.539
-47.562
-47.59
-47.622
-47.659
-47.699
-47.744
-47.794
-47.849
-47.91
-47.978
-48.052
-48.135
-48.226
-48.326
-48.435
-48.555
-48.684
-48.824
-48.972
-49.129
-49.293
-49.462
-49.635
-49.81
-49.985
-50.155
-50.319
-50.472
-50.611
-50.729
-50.823
-50.886
-50.914
-50.9
-50.838
-50.723
-50.547
-50.306
-49.994
-49.605
-49.134
-48.575
-47.924
-47.176
-46.329
-45.378
-44.322
-43.16
-41.89
-40.515
-39.036
-37.457
-35.784
-34.024
-32.183
-30.272
-28.301
-26.28
-24.222
-22.139
-20.043
-17.946
-15.863
-13.809
-11.8
-9.854
-7.988
-6.217
-4.559
-3.03
-1.644
-0.415
0.648
1.536
2.24
2.747
3.039
3.099
2.917
2.487
1.807
0.882
-0.283
-1.67
-3.248
-4.985
-6.852
-8.821
-10.879
-13.005
-15.172
-17.34
-19.457
-21.476
-23.365
-25.095
-26.645
-28.003
-29.174
-30.196
-31.144
-32.076
-33.05
-34.11
-35.289
-36.653
-38.272
-40.2
-42.521
-45.334
-48.695
-52.614
-56.995
-61.57
-66.041
-70.118
-73.399
-75.444
-75.924
-74.646
-71.783
-67.988
-63.927
-60.104
-57.234
-56.071
-57.011
-60.316
-64.942
-68.152
-68.239
-64.04
-54.821
-41.524
-21.797
8.943
53.391
114.389
189.627
272.801
360.122
446.764
529.334
603.831
661.206
692.892
691.437
654.899
588.183
497.375
391.156
277.535
164.455
63.691
-14.825
-65.026
-87.028
-88.566
-79.643
-68.947
-60.182
-53.329
-47.348
-39.863
-31.158
-22.553
-14.384
-8.967
-7.588
-10.02
-16.109
-24.095
-32.022
-38.87
-44.082
-47.6
-49.349
-49.26
-47.513
-44.509
-41.005
-37.812
-35.308
-33.685
-33.105
-33.548
-34.967
-37.261
-40.1
-43.098
-45.99
-48.563
-50.695
-52.367
-53.547
-54.207
-54.37
-54.07
-53.348
-52.254
-50.815
-49.04
-46.951
-44.574
-41.956
-39.157
-36.235
-33.252
-30.246
-27.244
-24.266
-21.322
-18.42
-15.561
-12.734
-9.92
-7.109
-4.292
-1.463
1.386
4.265
7.194
10.186
13.254
16.408
19.655
23.001
26.454
30.015
33.684
37.458
41.333
45.305
49.371
53.526
57.764
62.079
66.462
70.904
75.395
79.922
84.472
89.029
93.577
98.097
102.573
106.983
111.309
115.53
119.626
123.575
127.358
130.954
134.343
137.505
140.422
143.077
145.452
147.531
149.3
150.746
151.858
152.627
153.044
153.105
152.805
152.142
151.116
149.731
147.988
145.896
143.46
140.691
137.601
134.204
130.514
126.549
122.327
117.869
113.194
108.326
103.286
98.097
92.784
87.37
81.879
76.334
70.76
65.18
59.616
54.092
48.628
43.246
37.965
32.802
27.777
22.902
18.195
13.666
9.327
5.188
1.258
-2.458
-5.954
-9.226
-12.273
-15.093
-17.689
-20.062
-22.217
-24.157
-25.891
-27.424
-28.764
-29.921
-30.903
-31.72
-32.382
-32.901
-33.287
-33.55
-33.703
-33.757
-33.723
-33.611
-33.432
-33.197
-32.915
-32.596
-32.247
-31.878
-31.494
-31.104
-30.712
-30.325
-29.947
-29.581
-29.232
-28.9
-28.588
-28.296
-28.025
-27.773
-27.541
-27.327
-27.128
-26.943
-26.77
-26.605
-26.447
-26.292
-26.139
-25.983
-25.822
-25.653
-25.474
-25.283
-25.076
-24.853
-24.611
-24.35
-24.069
-23.767
-23.444
-23.102
-22.74
-22.36
-21.963
-21.552
-21.127
-20.692
-20.25
-19.805
-19.358
-18.915
-18.479
-18.054
-17.644
-17.253
-16.884
-16.541
-16.227
-15.946
-15.7
-15.491
-15.322
-15.195
-15.111
-15.071
-15.075
-15.124
-15.217
-15.351
-15.527
-15.74
-15.987
-16.265
-16.569
-16.894
-17.237
-17.59
-17.948
-18.306
-18.657
-18.994
-19.312
-19.603
-19.86
-20.078
-20.251
-20.371
-20.434
-20.435
-20.369
-20.232
-20.023
-19.738
-19.375
-18.934
-18.414
-17.816
-17.142
-16.394
-15.575
-14.69
-13.745
-12.746
-11.706
-10.633
-9.539
-8.437
-7.338
-6.257
-5.207
-4.2
-3.245
-2.351
-1.531
-0.795
-0.156
0.374
0.785
1.067
1.211
1.209
1.053
0.742
0.279
-0.334
-1.099
-2.019
-3.108
-4.374
-5.818
-7.441
-9.238
-11.198
-13.306
-15.537
-17.851
-20.212
-22.585
-24.938
-27.251
-29.498
-31.645
-33.657
-35.486
-37.086
-38.419
-39.465
-40.228
-40.73
-41.007
-41.1
-41.064
-40.962
-40.872
-40.873
-40.997
-41.261
-41.678
-42.302
-43.291
-44.748
-46.657
-48.849
-51.079
-53.132
-54.712
-55.465
-54.952
-52.717
-49.271
-45.444
-41.387
-37.873
-34.13
-29.409
-26.136
-24.688
-26.219
-32.086
-38.658
-45.22
-50.98
-51.609
-44.796
-24.62
15.73
76.589
156.147
248.633
344.829
438.412
521.14
583.289
615.941
608.884
558.31
467.138
343.497
202.836
61.28
-65.589
-163.467
-224.635
-247.806
-237.079
-202.487
-156.327
-108.894
-69.756
-44.421
-32.428
-31.544
-35.997
-39.784
-41.788
-42.402
-43.877
-49.322
-58.237
-68.706
-78.921
-86.586
-90.947
-92.451
-91.506
-88.907
-85.657
-82.513
-80.022
-78.61
-78.406
-79.347
-81.358
-84.222
-87.591
-91.093
-94.436
-97.431
-100.008
-102.174
-103.927
-105.267
-106.209
-106.788
-107.041
-106.991
-106.651
-106.018
-105.099
-103.925
-102.536
-100.984
-99.321
-97.583
-95.792
-93.964
-92.11
-90.238
-88.356
-86.463
-84.548
-82.606
-80.633
-78.624
-76.581
-74.496
-72.357
-70.152
-67.869
-65.501
-63.046
-60.502
-57.866
-55.138
-52.32
-49.417
-46.436
-43.383
-40.261
-37.075
-33.831
-30.536
-27.198
-23.826
-20.43
-17.019
-13.604
-10.2
-6.818
-3.474
-0.18
3.05
6.202
9.261
12.212
15.042
17.738
20.285
22.671
24.884
26.911
28.743
30.371
31.785
32.98
33.95
34.691
35.199
35.475
35.519
35.332
34.919
34.283
33.432
32.374
31.119
29.678
28.064
26.291
