Name
Date of Birth,"Mar 27, 1959"
Recorded Date,2022-09-18 13:17:53 -0500
Classification,Sinus Rhythm
Symptoms,
Software Version,1.90
Device,"Watch4,2"
Sample Rate,510.227 hertz


Lead,Lead I
Unit,µV

13.591
13.905
14.25
14.61
14.969
15.313
15.629
15.904
16.129
16.294
16.39
16.41
16.35
16.204
15.97
15.644
15.228
14.72
14.123
13.44
12.673
11.828
10.909
9.924
8.878
7.779
6.634
5.451
4.239
3.005
1.757
0.504
-0.746
-1.985
-3.207
-4.405
-5.572
-6.704
-7.796
-8.843
-9.844
-10.796
-11.698
-12.549
-13.351
-14.104
-14.81
-15.471
-16.091
-16.673
-17.222
-17.741
-18.236
-18.712
-19.173
-19.625
-20.074
-20.523
-20.977
-21.44
-21.918
-22.412
-22.927
-23.465
-24.029
-24.619
-25.238
-25.885
-26.56
-27.262
-27.989
-28.738
-29.504
-30.283
-31.07
-31.857
-32.637
-33.404
-34.149
-34.864
-35.539
-36.165
-36.733
-37.234
-37.659
-37.999
-38.244
-38.387
-38.42
-38.338
-38.134
-37.804
-37.345
-36.754
-36.03
-35.172
-34.183
-33.064
-31.817
-30.448
-28.963
-27.369
-25.675
-23.893
-22.034
-20.115
-18.154
-16.17
-14.183
-12.214
-10.285
-8.42
-6.641
-4.968
-3.42
-2.019
-0.784
0.262
1.097
1.702
2.06
2.154
1.97
1.494
0.719
-0.355
-1.728
-3.401
-5.377
-7.674
-10.304
-13.269
-16.57
-20.202
-24.152
-28.404
-32.925
-37.659
-42.549
-47.534
-52.562
-57.593
-62.578
-67.457
-72.157
-76.588
-80.667
-84.33
-87.519
-90.19
-92.321
-93.918
-95.032
-95.757
-96.201
-96.481
-96.718
-97.035
-97.564
-98.424
-99.759
-101.772
-104.63
-108.411
-113.043
-118.254
-123.685
-128.98
-133.669
-137.138
-138.84
-138.396
-135.916
-132.116
-127.811
-123.942
-121.583
-121.626
-125.011
-131.592
-139.088
-144.602
-145.094
-139.392
-129.653
-116.349
-96.596
-63.212
-4.728
85.338
205.289
346.306
494.192
638.469
774.186
898.203
1005.438
1083.725
1115.686
1085.239
985.354
821.978
613.887
389.269
176.61
1.318
-119.893
-184.79
-201.104
-186.746
-163.735
-147.226
-144.618
-153.634
-164.693
-169.049
-162.338
-145.626
-124.571
-106.088
-94.555
-90.757
-92.986
-98.347
-104.86
-111.874
-119.19
-126.336
-132.174
-135.852
-137.146
-136.224
-133.62
-129.808
-125.098
-120.137
-115.885
-112.935
-111.539
-111.707
-113.146
-115.573
-118.757
-122.271
-125.575
-128.315
-130.29
-131.427
-131.795
-131.437
-130.363
-128.644
-126.378
-123.638
-120.492
-116.981
-113.126
-108.983
-104.638
-100.18
-95.705
-91.278
-86.935
-82.702
-78.59
-74.603
-70.735
-66.967
-63.273
-59.636
-56.041
-52.476
-48.931
-45.386
-41.822
-38.215
-34.542
-30.783
-26.926
-22.96
-18.875
-14.667
-10.333
-5.875
-1.296
3.4
8.213
13.139
18.176
23.317
28.554
33.879
39.28
44.744
50.255
55.794
61.343
66.879
72.38
77.823
83.182
88.434
93.551
98.51
103.283
107.845
112.171
116.236
120.015
123.486
126.626
129.416
131.835
133.868
135.499
136.716
137.506
137.862
137.776
137.245
136.267
134.841
132.97
130.66
127.916
124.75
121.173
117.201
112.849
108.137
103.086
97.718
92.056
86.127
79.955
73.567
66.992
60.257
53.39
46.42
39.375
32.282
25.17
18.065
10.993
3.978
-2.954
-9.783
-16.487
-23.046
-29.441
-35.656
-41.675
-47.485
-53.072
-58.427
-63.539
-68.402
-73.01
-77.357
-81.443
-85.264
-88.822
-92.118
-95.155
-97.936
-100.468
-102.755
-104.805
-106.625
-108.222
-109.607
-110.788
-111.774
-112.576
-113.203
-113.665
-113.973
-114.135
-114.161
-114.062
-113.845
-113.52
-113.095
-112.578
-111.977
-111.3
-110.555
-109.747
-108.884
-107.971
-107.015
-106.021
-104.993
-103.937
-102.856
-101.755
-100.637
-99.506
-98.365
-97.217
-96.065
-94.913
-93.762
-92.615
-91.475
-90.345
-89.226
-88.121
-87.033
-85.964
-84.917
-83.895
-82.9
-81.935
-81.002
-80.105
-79.246
-78.426
-77.649
-76.916
-76.23
-75.593
-75.005
-74.47
-73.988
-73.56
-73.188
-72.873
-72.614
-72.412
-72.268
-72.18
-72.148
-72.172
-72.25
-72.38
-72.562
-72.792
-73.069
-73.388
-73.748
-74.144
-74.572
-75.029
-75.509
-76.008
-76.522
-77.045
-77.571
-78.096
-78.614
-79.119
-79.604
-80.065
-80.494
-80.885
-81.234
-81.534
-81.779
-81.964
-82.083
-82.131
-82.102
-81.991
-81.793
-81.504
-81.119
-80.636
-80.05
-79.359
-78.562
-77.657
-76.644
-75.522
-74.294
-72.959
-71.521
-69.982
-68.347
-66.619
-64.805
-62.912
-60.947
-58.922
-56.847
-54.736
-52.602
-50.458
-48.322
-46.206
-44.128
-42.1
-40.135
-38.248
-36.451
-34.761
-33.193
-31.763
-30.483
-29.367
-28.426
-27.671
-27.109
-26.743
-26.572
-26.598
-26.825
-27.269
-27.942
-28.851
-30.001
-31.394
-33.022
-34.875
-36.93
-39.144
-41.476
-43.881
-46.317
-48.754
-51.158
-53.486
-55.682
-57.678
-59.404
-60.807
-61.837
-62.453
-62.643
-62.415
-61.824
-60.967
-59.936
-58.832
-57.757
-56.813
-56.131
-55.846
-56.073
-56.952
-58.664
-61.313
-64.921
-69.364
-74.243
-79.103
-83.51
-86.901
-88.651
-88.319
-85.708
-81.116
-75.555
-70.143
-65.752
-63.438
-64.292
-68.973
-77.811
-89.074
-98.366
-101.279
-93.668
-74.33
-46.552
-12.739
26.429
75.079
144.623
245.337
382.713
552.952
738.671
916.244
1060.832
1151.448
1175.879
1129.435
1015.692
845.838
638.204
418.734
213.784
45.913
-70.037
-134.362
-155.674
-147.275
-126.254
-102.856
-84.126
-74.668
-71.897
-72.761
-72.371
-65.545
-52.589
-36.524
-22.494
-14.731
-13.463
-16.727
-21.732
-26.943
-32.312
-37.88
-43.221
-47.408
-49.825
-50.534
-49.901
-48.211
-45.625
-42.341
-38.929
-36.217
-34.691
-34.452
-35.376
-37.198
-39.699
-42.683
-45.789
-48.573
-50.753
-52.192
-52.874
-52.875
-52.245
-51.004
-49.216
-46.961
-44.305
-41.304
-37.992
-34.401
-30.587
-26.625
-22.592
-18.55
-14.537
-10.571
-6.663
-2.813
0.989
4.757
8.516
12.284
16.073
19.895
23.761
27.685
31.686
35.782
39.993
44.335
48.821
53.462
58.265
63.231
68.36
73.651
79.096
84.692
90.434
96.316
102.332
108.474
114.731
121.092
127.543
134.069
140.65
147.268
153.899
160.521
167.109
173.637
180.078
186.404
192.588
198.6
204.413
209.997
215.323
220.365
225.094
229.486
233.514
237.156
240.39
243.196
245.556
247.455
248.878
249.815
250.258
250.2
249.637
248.569
246.997
244.924
242.357
239.305
235.778
231.792
227.362
222.508
217.25
211.611
205.617
199.294
192.669
185.771
178.632
171.28
163.748
156.067
148.269
140.386
132.448
124.486
116.531
108.611
100.753
92.986
85.332
77.817
70.462
63.287
56.311
49.551
43.022
36.738
30.709
24.947
19.46
14.253
9.332
4.699
0.356
-3.698
-7.466
-10.95
-14.155
-17.087
-19.754
-22.164
-24.325
-26.248
-27.943
-29.42
-30.692
-31.769
-32.663
-33.386
-33.948
-34.362
-34.636
-34.783
-34.812
-34.732
-34.551
-34.28
-33.925
-33.494
-32.995
-32.433
-31.816
-31.148
-30.436
-29.683
-28.894
-28.073
-27.224
-26.35
-25.453
-24.536
-23.601
-22.651
-21.686
-20.708
-19.719
-18.721
-17.713
-16.699
-15.68
-14.657
-13.632
-12.609
-11.589
-10.575
-9.571
-8.58
-7.605
-6.651
-5.722
-4.821
-3.954
-3.123
-2.335
-1.592
-0.9
-0.263
0.317
0.833
1.284
1.664
1.97
2.198
2.346
2.409
2.385
2.271
2.065
1.763
1.366
0.871
0.277
-0.416
-1.207
-2.097
-3.083
-4.164
-5.336
-6.596
-7.94
-9.364
-10.861
-12.426
-14.053
-15.735
-17.465
-19.235
-21.039
-22.868
-24.714
-26.568
-28.423
-30.267
-32.093
-33.889
-35.646
-37.355
-39.006
-40.59
-42.095
-43.514
-44.837
-46.055
-47.159
-48.142
-48.995
-49.712
-50.287
-50.715
-50.993
-51.119
-51.091
-50.909
-50.574
-50.088
-49.454
-48.676
-47.76
-46.711
-45.538
-44.249
-42.855
-41.367
-39.801
-38.172
-36.498
-34.795
-33.083
-31.383
-29.717
-28.107
-26.578
-25.147
-23.834
-22.66
-21.643
-20.808
-20.171
-19.745
-19.546
-19.585
-19.877
-20.439
-21.279
-22.392
-23.77
-25.408
-27.303
-29.469
-31.912
-34.624
-37.598
-40.826
-44.297
-48.005
-51.925
-56.007
-60.19
-64.406
-68.601
-72.752
-76.836
-80.834
-84.693
-88.327
-91.655
-94.61
-97.148
-99.253
-100.893
-102.012
-102.664
-102.981
-103.205
-103.702
-104.677
-106.139
-108.091
-110.486
-113.243
-116.376
-119.602
-122.231
-123.835
-124.224
-123.365
-121.565
-118.962
-115.319
-110.81
-106.155
-102.06
-99.339
-98.423
-99.22
-101.941
-107.009
-114.73
-124.264
-132.889
-137.501
-135.337
-125.624
-111.103
-93.516
-70.995
-38.631
13.001
92.08
198.988
329.805
476.179
626.759
773.263
904.423
1005.155
1060.382
1055.491
985.464
856.177
682.753
487.463
292.031
117.105
-21.959
-117.964
-171.048
-188.906
-182.436
-162.746
-138.226
-115.914
-101.189
-95.273
-97.392
-102.806
-106.471
-107.634
-107.707
-110.056
-116.539
-125.482
-134.209
-140.153
-142.218
-140.704
-136.125
-129.238
-120.992
-112.552
-105.049
-99.101
-94.882
-92.372
-91.548
-92.377
-94.649
-97.923
-101.74
-105.805
-109.934
-114.004
-117.85
-121.251
-124.059
-126.224
-127.738
-128.606
-128.825
-128.387
-127.32
-125.691
-123.573
-121.036
-118.144
-114.952
-111.528
-107.953
-104.306
-100.664
-97.083
-93.594
-90.216
-86.956
-83.811
-80.768
-77.804
-74.886
-71.984
-69.075
-66.135
-63.146
-60.084
-56.926
-53.652
-50.238
-46.668
-42.928
-39.004
-34.888
-30.574
-26.06
-21.346
-16.436
-11.333
-6.042
-0.569
5.08
10.895
16.866
22.981
29.223
35.577
42.022
48.536
55.094
61.672
68.24
74.772
81.236
87.602
93.84
99.917
105.801
111.462
116.867
121.986
126.788
131.246
135.331
139.017
142.28
145.097
147.449
149.318
150.689
151.55
151.892
151.708
150.994
149.75
147.976
145.679
142.864
139.542
135.726
131.431
126.676
121.482
115.87
109.867
103.499
96.793
89.781
82.492
74.959
67.214
59.292
51.225
43.049
34.797
26.503
18.201
9.923
1.701
-6.434
-14.454
-22.332
-30.04
-37.555
-44.856
-51.921
-58.731
-65.271
-71.526
-77.482
-83.129
-88.459
-93.463
-98.137
-102.479
-106.485
-110.158
-113.498
-116.508
-119.195
-121.564
-123.623
-125.38
-126.846
-128.031
-128.948
-129.609
-130.028
-130.219
-130.196
-129.974
-129.568
-128.993
-128.262
-127.391
-126.393
-125.281
-124.069
-122.769
-121.394
-119.954
-118.461
-116.926
-115.357
-113.764
-112.156
-110.539
-108.922
-107.311
-105.711
-104.128
-102.567
-101.032
-99.526
-98.052
-96.612
-95.208
-93.84
-92.509
-91.214
-89.955
-88.731
-87.54
-86.381
-85.252
-84.15
-83.075
-82.023
-80.993
-79.982
-78.989
-78.012
-77.05
-76.1
-75.162
-74.235
-73.317
-72.409
-71.509
-70.618
-69.735
-68.86
-67.995
-67.138
-66.292
-65.458
-64.638
-63.832
-63.045
-62.278
-61.534
-60.817
-60.13
-59.477
-58.86
-58.284
-57.753
-57.27
-56.839
-56.463
-56.147
-55.891
-55.7
-55.574
-55.516
-55.525
-55.603
-55.749
-55.963
-56.243
-56.587
-56.994
-57.46
-57.982
-58.556
-59.178
-59.841
-60.539
-61.266
-62.014
-62.774
-63.537
-64.295
-65.036
-65.752
-66.431
-67.062
-67.634
-68.137
-68.558
-68.887
-69.112
-69.222
-69.208
-69.06
-68.77
-68.331
-67.737
-66.981
-66.06
-64.971
-63.712
-62.283
-60.683
-58.914
-56.979
-54.881
-52.627
-50.225
-47.684
-45.016
-42.236
-39.362
-36.412
-33.405
-30.364
-27.308
-24.261
-21.246
-18.287
-15.406
-12.628
-9.976
-7.476
-5.153
-3.031
-1.131
0.531
1.94
3.082
3.948
4.531
4.823
4.82
4.516
3.896
2.951
1.677
0.07
-1.867
-4.12
-6.676
-9.507
-12.573
-15.834
-19.244
-22.758
-26.337
-29.922
-33.46
-36.888
-40.142
-43.177
-45.942
-48.376
-50.422
-52.036
-53.21
-54.017
-54.522
-54.755
-54.83
-54.906
-55.248
-56.274
-58.209
-61.092
-65.004
-69.973
-75.886
-82.496
-89.073
-94.449
-97.868
-98.94
-97.383
-93.246
-86.693
-78.24
-69.385
-62.229
-58.586
-59.783
-66.469
-78.839
-96.047
-115.293
-132.957
-144.659
-147.659
-143.116
-131.246
-109.466
-72.509
-10.647
83.566
209.206
360.883
528.538
698.52
861.019
1005.177
1116.846
1184.986
1197.826
1146.998
1034.159
866.137
658.918
437.828
228.622
56.951
-59.984
-120.954
-133.623
-114.999
-85.262
-56.976
-40.27
-39.412
-50.451
-69.478
-89.143
-101.22
-104.176
-98.781
-88.64
-79.6
-73.454
-69.793
-67.603
-65.119
-62.216
-59.78
-58.115
-57.166
-56.646
-56.054
-55.19
-54.02
-52.456
-50.489
-48.356
-46.567
-45.539
-45.544
-46.668
-48.792
-51.744
-55.319
-59.185
-62.889
-66.11
-68.65
-70.41
-71.42
-71.717
-71.321
-70.303
-68.766
-66.785
-64.428
-61.746
-58.764
-55.538
-52.15
-48.679
-45.211
-41.802
-38.476
-35.248
-32.117
-29.074
-26.101
-23.171
-20.251
-17.313
-14.34
-11.314
-8.221
-5.042
-1.751
1.673
5.255
9.014
12.962
17.11
21.463
26.025
30.794
35.766
40.934
46.293
51.835
57.554
63.442
69.49
75.683
82.007
88.446
94.978
101.583
108.235
114.908
121.573
128.201
134.764
141.229
147.566
153.743
159.729
165.49
170.997
176.218
181.124
185.686
189.875
193.667
197.038
199.965
202.429
204.414
205.903
206.886
207.352
207.295
206.71
205.596
203.954
201.789
199.106
195.917
192.234
188.072
183.451
178.391
172.916
167.05
160.821
154.257
147.39
140.249
132.868
125.279
117.517
109.615
101.607
93.529
85.413
77.292
69.199
61.165
53.22
45.392
37.708
30.194
22.874
15.768
8.897
2.279
-4.07
-10.136
-15.909
-21.378
-26.537
-31.381
-35.906
-40.112
-43.999
-47.569
-50.828
-53.78
-56.433
-58.796
-60.877
-62.688
-64.24
-65.546
-66.621
-67.477
-68.129
-68.592
-68.881
-69.011
-68.996
-68.851
-68.59
-68.228
-67.776
-67.248
-66.656
-66.01
-65.321
-64.597
-63.848
-63.08
-62.3
-61.513
-60.725
-59.938
-59.157
-58.384
-57.621
-56.869
-56.13
-55.402
-54.688
-53.985
-53.293
-52.61
-51.936
-51.268
-50.603
-49.941
-49.277
-48.61
-47.937
-47.256
-46.565
-45.861
-45.143
-44.409
-43.658
-42.89
-42.104
-41.3
-40.481
-39.645
-38.797
-37.936
-37.067
-36.192
-35.315
-34.438
-33.564
-32.699
-31.845
-31.006
-30.186
-29.389
-28.619
-27.879
-27.174
-26.507
-25.882
-25.304
-24.777
-24.304
-23.889
-23.536
-23.249
-23.031
-22.886
-22.816
-22.823
-22.911
-23.08
-23.331
-23.666
-24.084
-24.584
-25.166
-25.826
-26.563
-27.374
-28.254
-29.2
-30.207
-31.269
-32.383
-33.542
-34.74
-35.972
-37.23
-38.507
-39.796
-41.09
-42.378
-43.653
-44.906
-46.126
-47.305
-48.432
-49.498
-50.491
-51.403
-52.222
-52.939
-53.543
-54.027
-54.379
-54.592
-54.659
-54.572
-54.327
-53.92
-53.346
-52.603
-51.69
-50.607
-49.356
-47.938
-46.356
-44.615
-42.721
-40.68
-38.501
-36.194
-33.771
-31.248
-28.641
-25.967
-23.247
-20.5
-17.748
-15.014
-12.32
-9.687
-7.134
-4.684
-2.358
-0.181
1.825
3.638
5.238
6.607
7.727
8.583
9.163
9.465
9.485
9.219
8.66
7.788
6.59
5.057
3.185
0.975
-1.563
-4.418
-7.564
-10.952
-14.532
-18.253
-22.066
-25.937
-29.826
-33.68
-37.432
-40.994
-44.284
-47.233
-49.784
-51.892
-53.529
-54.692
-55.419
-55.792
-55.911
-55.886
-55.821
-55.823
-56.02
-56.536
-57.533
-59.229
-61.779
-65.267
-69.659
-74.69
-79.98
-85.114
-89.535
-92.604
-93.844
-92.888
-89.769
-85.25
-80.368
-76.318
-74.378
-75.416
-79.942
-88.362
-100.214
-113.506
-124.621
-128.565
-120.405
-96.859
-58.102
-5.572
59.64
136.305
227.715
337.262
465.591
612.881
770.958
925.33
1058.293
1148.587
1179.572
1143.229
1041.518
884.781
690.977
482.586
280.897
107.811
-22.101
-106.714
-150.494
-165.736
-165.447
-155.599
-140.4
-123.463
-107.325
-95.843
-90.198
-86.471
-81.047
-72.493
-62.2
-54.972
-53.915
-58.99
-68.325
-78.633
-87.769
-94.766
-98.98
-100.479
-99.397
-95.938
-90.819
-84.833
-78.721
-73.43
-69.646
-67.622
-67.465
-69.016
-71.925
-75.899
-80.532
-85.295
-89.799
-93.769
-97.038
-99.597
-101.456
-102.6
-103.062
-102.899
-102.16
-100.916
-99.214
-97.082
-94.569
-91.733
-88.648
-85.402
-82.077
-78.743
-75.45
-72.225
-69.083
-66.032
-63.067
-60.176
-57.34
-54.532
-51.726
-48.906
-46.051
-43.141
-40.155
-37.066
-33.849
-30.484
-26.954
-23.248
-19.357
-15.272
-10.989
-6.508
-1.83
3.04
8.098
13.34
18.761
24.353
30.107
36.01
42.05
48.211
54.475
60.822
67.228
73.67
80.12
86.552
92.936
99.243
105.441
111.498
117.384
123.066
128.511
133.69
138.57
143.122
147.318
151.13
154.534
157.505
160.023
162.068
163.623
164.674
165.21
165.22
164.7
163.644
162.054
159.93
157.279
154.107
150.427
146.251
141.596
136.482
130.929
124.963
118.609
111.895
104.852
97.511
89.905
82.066
74.031
65.834
57.511
49.097
40.627
32.136
23.658
15.226
6.873
-1.372
-9.477
-17.416
-25.163
-32.693
-39.985
-47.016
-53.771
-60.232
-66.385
-72.219
-77.723
-82.891
-87.717
-92.198
-96.332
-100.121
-103.567
-106.675
-109.452
-111.905
-114.044
-115.882
-117.429
-118.7
-119.709
-120.471
-121.002
-121.318
-121.436
-121.373
-121.145
-120.769
-120.261
-119.638
-118.914
-118.104
-117.224
-116.285
-115.301
-114.283
-113.243
-112.191
-111.136
-110.086
-109.049
-108.032
-107.039
-106.077
-105.148
-104.256
-103.403
-102.591
-101.819
-101.087
-100.395
-99.74
-99.122
-98.536
-97.979
-97.449
-96.942
-96.453
-95.979
-95.515
-95.057
-94.601
-94.144
-93.681
-93.209
-92.726
-92.227
-91.711
-91.175
-90.617
-90.036
-89.43
-88.798
-88.14
-87.454
-86.74
-85.999
-85.231
-84.437
-83.617
-82.773
-81.907
-81.022
-80.118
-79.199
-78.268
-77.328
-76.381
-75.433
-74.486
-73.544
-72.611
-71.692
-70.79
-69.91
-69.055
-68.229
-67.435
-66.677
-65.957
-65.279
-64.645
-64.057
-63.519
-63.031
-62.595
-62.214
-61.887
-61.615
-61.399
-61.239
-61.132
-61.079
-61.077
-61.125
-61.219
-61.356
-61.534
-61.747
-61.991
-62.259
-62.547
-62.846
-63.15
-63.449
-63.736
-64.002
-64.237
-64.434
-64.583
-64.674
-64.7
-64.649
-64.513
-64.283
-63.951
-63.507
-62.943
-62.251
-61.426
-60.461
-59.352
-58.093
-56.682
-55.117
-53.397
-51.522
-49.492
-47.311
-44.983
-42.513
-39.908
-37.177
-34.331
-31.384
-28.351
-25.25
-22.101
-18.925
-15.742
-12.575
-9.448
-6.383
-3.401
-0.523
2.23
4.836
7.272
9.514
11.54
13.332
14.871
16.14
17.121
17.803
18.183
18.26
18.028
17.48
16.596
15.359
13.767
11.816
9.511
6.863
3.885
0.609
-2.911
-6.618
-10.455
-14.373
-18.337
-22.31
-26.231
-30.03
-33.622
-36.924
-39.883
-42.451
-44.578
-46.245
-47.462
-48.278
-48.799
-49.135
-49.385
-49.644
-50.004
-50.558
-51.407
-52.678
-54.556
-57.198
-60.658
-64.886
-69.684
-74.734
-79.685
-84.044
-87.116
-88.268
-87.14
-83.721
-78.489
-72.329
-66.292
-61.57
-59.633
-61.04
-64.835
-69.384
-72.138
-72.362
-72.22
-72.884
-73.422
-66.648
-39.497
18.946
114.788
243.883
394.1
553.88
712.512
863.076
997.642
1102.391
1161.106
1158.22
1087.954
956.051
777.958
576.243
371.481
182.512
25.79
-89.233
-158.225
-183.438
-176.941
-153.597
-126.774
-108.66
-101.906
-102.787
-106.332
-103.704
-91.482
-71.993
-49.115
-30.289
-19.576
-16.5
-19.459
-25.437
-32.812
-41.549
-51.194
-60.714
-68.84
-74.692
-78.138
-79.555
-79.312
-77.687
-75.103
-72.344
-70.331
-69.595
-70.259
-72.138
-74.901
-78.256
-81.907
-85.472
-88.543
-90.874
-92.376
-93.062
-93.032
-92.366
-91.122
-89.374
-87.202
-84.668
-81.82
-78.71
-75.387
-71.92
-68.394
-64.868
-61.386
-57.975
-54.644
-51.398
-48.232
-45.127
-42.058
-39.01
-35.972
-32.934
-29.887
-26.815
-23.696
-20.509
-17.232
-13.846
-10.333
-6.678
-2.869
1.1
5.232
9.529
13.987
18.606
23.388
28.33
33.43
38.685
44.088
49.633
55.308
61.102
67
72.983
79.031
85.124
91.24
97.354
103.44
109.472
115.422
121.263
126.965
132.499
137.835
142.944
147.797
152.366
156.623
160.542
164.098
167.267
170.029
172.362
174.25
175.678
176.631
177.099
177.073
176.547
175.517
173.983
171.945
169.407
166.377
162.864
158.879
154.438
149.557
144.255
138.554
132.476
126.047
119.293
112.242
104.921
97.362
89.596
81.652
73.563
65.361
57.076
48.741
40.386
32.041
23.737
15.5
7.359
-0.659
-8.531
-16.232
-23.74
-31.035
-38.097
-44.909
-51.455
-57.722
-63.696
-69.367
-74.728
-79.77
-84.49
-88.883
-92.95
-96.69
-100.105
-103.199
-105.977
-108.445
-110.611
-112.484
-114.074
-115.391
-116.447
-117.255
-117.827
-118.178
-118.321
-118.271
-118.041
-117.646
-117.102
-116.421
-115.618
-114.707
-113.701
-112.615
-111.461
-110.251
-108.997
-107.712
-106.404
-105.085
-103.764
-102.447
-101.144
-99.86
-98.601
-97.372
-96.177
-95.019
-93.9
-92.822
-91.785
-90.791
-89.837
-88.922
-88.045
-87.204
-86.395
-85.615
-84.861
-84.13
-83.417
-82.72
-82.033
-81.354
-80.678
-80.002
-79.321
-78.632
-77.933
-77.219
-76.487
-75.736
-74.964
-74.168
-73.349
-72.504
-71.635
-70.741
-69.824
-68.885
-67.925
-66.949
-65.958
-64.957
-63.949
-62.94
-61.935
-60.938
-59.956
-58.994
-58.057
-57.151
-56.282
-55.456
-54.677
-53.951
-53.282
-52.676
-52.136
-51.666
-51.27
-50.95
-50.708
-50.546
-50.464
-50.465
-50.546
-50.708
-50.949
-51.267
-51.659
-52.121
-52.648
-53.235
-53.875
-54.562
-55.286
-56.039
-56.813
-57.598
-58.383
-59.158
-59.913
-60.635
-61.315
-61.941
-62.503
-62.989
-63.389
-63.694
-63.895
-63.983
-63.95
-63.788
-63.49
-63.051
-62.467
-61.734
-60.849
-59.81
-58.619
-57.277
-55.786
-54.151
-52.376
-50.468
-48.439
-46.301
-44.071
-41.767
-39.407
-37.013
-34.606
-32.207
-29.834
-27.505
-25.234
-23.039
-20.939
-18.955
-17.109
-15.419
-13.903
-12.573
-11.441
-10.512
-9.78
-9.243
-8.897
-8.749
-8.818
-9.126
-9.688
-10.517
-11.621
-12.997
-14.631
-16.499
-18.558
-20.777
-23.142
-25.64
-28.266
-31
-33.793
-36.573
-39.265
-41.769
-43.979
-45.853
-47.408
-48.746
-50.085
-51.629
-53.515
-55.837
-58.652
-61.808
-64.981
-67.741
-69.5
-69.877
-68.87
-66.662
-63.51
-59.922
-56.536
-53.986
-53.077
-54.214
-57.124
-61.3
-66.207
-71.365
-76.529
-81.542
-86.197
-90.642
-95.507
-101.733
-108.973
-115.04
-117.777
-114.7
-106.214
-96.009
-83.45
-64.744
-31.503
28.807
120.023
238.121
373.61
512.297
645.852
770.526
881.544
971.897
1029.299
1039.009
990.728
882.999
723.757
530.338
327.549
140.355
-10.04
-110.39
-162.591
-176.68
-164.772
-141.312
-113.041
-84.783
-64.945
-55.427
-57.358
-67.851
-76.135
-77.486
-71.428
-60.32
-51.433
-47.579
-47.641
-50.609
-54.343
-58.069
-62.373
-66.768
-70.485
-73.282
-75.093
-75.973
-76.056
-75.324
-73.788
-71.971
-70.652
-70.236
-70.823
-72.32
-74.476
-77.086
-79.979
-82.845
-85.304
-87.121
-88.196
-88.517
-88.167
-87.214
-85.701
-83.692
-81.267
-78.484
-75.391
-72.04
-68.474
-64.758
-60.974
-57.178
-53.415
-49.716
-46.092
-42.549
-39.084
-35.677
-32.302
-28.944
-25.59
-22.23
-18.857
-15.454
-12.002
-8.483
-4.879
-1.172
2.653
6.61
10.71
14.959
19.36
23.911
28.611
33.458
38.452
43.591
48.872
54.291
59.84
65.514
71.301
77.19
83.165
89.208
95.3
101.421
107.549
113.66
119.729
125.731
131.64
137.427
143.066
148.529
153.787
158.812
163.577
168.055
172.222
176.051
179.52
182.606
185.29
187.553
189.379
190.754
191.665
192.103
192.06
191.532
190.515
189.011
187.021
184.551
181.61
178.209
174.36
170.081
165.388
160.303
154.847
149.045
142.923
136.508
129.828
122.912
115.792
108.499
101.062
93.515
85.888
78.213
70.519
62.838
55.199
47.629
40.156
32.805
25.602
18.568
11.726
5.096
-1.306
-7.463
-13.36
-18.987
-24.332
-29.388
-34.148
-38.608
-42.766
-46.621
-50.174
-53.429
-56.389
-59.06
-61.449
-63.565
-65.417
-67.016
-68.372
-69.498
-70.405
-71.108
-71.618
-71.949
-72.115
-72.129
-72.003
-71.751
-71.385
-70.918
-70.361
-69.725
-69.021
-68.258
-67.446
-66.592
-65.705
-64.79
-63.853
-62.901
-61.937
-60.964
-59.987
-59.007
-58.026
-57.046
-56.068
-55.092
-54.119
-53.147
-52.177
-51.208
-50.24
-49.27
-48.3
-47.326
-46.35
-45.37
-44.386
-43.397
-42.402
-41.403
-40.4
-39.392
-38.381
-37.37
-36.358
-35.349
-34.346
-33.35
-32.366
-31.397
-30.447
-29.52
-28.618
-27.748
-26.912
-26.115
-25.361
-24.654
-23.998
-23.397
-22.856
-22.376
-21.962
-21.616
-21.342
-21.142
-21.017
-20.971
-21.003
-21.116
-21.311
-21.586
-21.943
-22.38
-22.896
-23.488
-24.154
-24.89
-25.692
-26.555
-27.475
-28.445
-29.46
-30.514
-31.599
-32.708
-33.833
-34.968
-36.103
-37.231
-38.342
-39.428
-40.481
-41.491
-42.45
-43.35
-44.182
-44.936
-45.606
-46.182
-46.657
-47.023
-47.271
-47.396
-47.39
-47.249
-46.967
-46.541
-45.968
-45.245
-44.373
-43.351
-42.18
-40.862
-39.401
-37.801
-36.067
-34.206
-32.225
-30.135
-27.945
-25.669
-23.321
-20.916
-18.471
-16.004
-13.531
-11.073
-8.647
-6.27
-3.959
-1.731
0.396
2.402
4.269
5.978
7.511
8.853
9.989
10.906
11.592
12.045
12.261
12.236
11.962
11.425
10.609
9.506
8.111
6.423
4.452
2.209
-0.281
-2.978
-5.837
-8.813
-11.865
-14.961
-18.066
-21.137
-24.118
-26.934
-29.517
-31.807
-33.757
-35.324
-36.498
-37.29
-37.751
-37.976
-38.054
-38.077
-38.146
-38.362
-38.845
-39.716
-41.078
-43.058
-45.848
-49.569
-54.233
-59.684
-65.538
-71.368
-76.787
-81.304
-84.31
-85.319
-84.155
-81.189
-77.339
-73.531
-70.602
-69.444
-70.948
-76.027
-84.235
-92.758
-98.231
-97.159
-88.082
-73.763
-55.627
-32.178
0.688
53.289
134.588
246.914
388.871
549.398
711.938
861.212
979.146
1052.572
1073.515
1036.545
945.365
807.027
633.319
442.241
251.008
78.825
-57.197
-148.342
-191.945
-192.802
-164.446
-121.713
-78.842
-50.075
-39.924
-45.795
-61.305
-74.226
-78.402
-74.519
-66.228
-61.019
-62.096
-67.966
-76.016
-82.524
-86.006
-86.925
-85.509
-82.214
-77.516
-71.767
-65.822
-60.663
-56.715
-54.162
-53.176
-53.72
-55.707
-58.991
-63.168
-67.73
-72.339
-76.727
-80.67
-84.069
-86.835
-88.887
-90.235
-90.914
-90.952
-90.395
-89.282
-87.638
-85.506
-82.941
-79.998
-76.757
-73.298
-69.702
-66.05
-62.398
-58.782
-55.225
-51.739
-48.324
-44.973
-41.667
-38.379
-35.092
-31.787
-28.449
-25.065
-21.612
-18.07
-14.417
-10.635
-6.712
-2.635
1.605
6.014
10.594
15.346
20.265
25.345
30.581
35.968
41.502
47.175
52.978
58.901
64.933
71.06
77.268
83.538
89.85
96.182
102.51
108.811
115.057
121.223
127.281
133.202
138.959
144.522
149.864
154.955
159.767
164.275
168.451
172.272
175.713
178.755
181.377
183.562
185.297
186.567
187.362
187.675
187.5
186.834
185.675
184.026
181.891
179.276
176.191
172.649
168.664
164.254
159.437
154.237
148.676
142.78
136.576
130.092
123.359
116.406
109.265
101.969
94.548
87.037
79.466
71.867
64.271
56.708
49.206
41.791
34.491
27.329
20.327
13.507
6.888
0.486
-5.682
-11.602
-17.265
-22.659
-27.777
-32.613
-37.165
-41.429
-45.407
-49.099
-52.51
-55.645
-58.509
-61.113
-63.464
-65.574
-67.455
-69.12
-70.582
-71.856
-72.955
-73.895
-74.691
-75.356
-75.905
-76.352
-76.709
-76.991
-77.208
-77.372
-77.494
-77.583
-77.648
-77.698
-77.738
-77.775
-77.815
-77.862
-77.919
-77.989
-78.074
-78.174
-78.291
-78.422
-78.568
-78.727
-78.894
-79.068
-79.243
-79.417
-79.584
-79.738
-79.876
-79.991
-80.078
-80.134
-80.152
-80.129
-80.061
-79.943
-79.774
-79.55
-79.269
-78.931
-78.534
-78.079
-77.566
-76.997
-76.372
-75.694
-74.967
-74.192
-73.374
-72.516
-71.624
-70.702
-69.755
-68.789
-67.81
-66.824
-65.838
-64.859
-63.892
-62.947
-62.029
-61.145
-60.304
-59.511
-58.773
-58.097
-57.487
-56.95
-56.49
-56.111
-55.818
-55.612
-55.495
-55.471
-55.538
-55.698
-55.95
-56.292
-56.722
-57.238
-57.835
-58.51
-59.258
-60.073
-60.95
-61.882
-62.862
-63.884
-64.938
-66.017
-67.111
-68.212
-69.31
-70.394
-71.453
-72.477
-73.455
-74.376
-75.231
-76.008
-76.699
-77.293
-77.78
-78.154
-78.404
-78.524
-78.507
-78.346
-78.036
-77.574
-76.956
-76.18
-75.246
-74.154
-72.906
-71.503
-69.95
-68.251
-66.412
-64.438
-62.338
-60.121
-57.797
-55.378
-52.878
-50.314
-47.704
-45.066
-42.42
-39.787
-37.188
-34.645
-32.177
-29.801
-27.537
-25.402
-23.413
-21.593
-19.96
-18.531
-17.322
-16.348
-15.622
-15.156
-14.958
-15.025
-15.357
-15.956
-16.826
-17.985
-19.445
-21.212
-23.285
-25.661
-28.329
-31.274
-34.463
-37.844
-41.362
-44.961
-48.59
-52.214
-55.792
-59.269
-62.578
-65.638
-68.372
-70.722
-72.641
-74.094
-75.07
-75.583
-75.687
-75.476
-75.061
-74.569
-74.115
-73.814
-73.781
-74.111
-74.955
-76.542
-79.034
-82.49
-86.843
-91.83
-97.129
-102.46
-107.338
-111.058
-113.057
-113.001
-110.942
-107.473
-103.43
-99.629
-97.108
-97.263
-100.236
-104.733
-109.391
-111.802
-112.128
-113.67
-115.633
-114.37
-100.681
-59.804
14.253
119.34
245.933
377.763
506.761
631.633
752.347
867.485
965.895
1029.154
1040.246
990.781
883.309
731.877
557.284
379.109
216.26
83.027
-14.232
-75.29
-107.687
-123.643
-133.712
-142.945
-150.947
-154.117
-149.261
-137.686
-123.048
-108.483
-96.601
-87.895
-81.906
-78.93
-78.68
-80.251
-82.899
-86.161
-89.818
-93.932
-98.178
-101.506
-103.297
-103.59
-102.6
-100.644
-97.966
-94.648
-91.078
-88.099
-86.248
-85.678
-86.374
-88.077
-90.524
-93.559
-96.864
-99.966
-102.559
-104.48
-105.66
-106.18
-106.101
-105.437
-104.25
-102.625
-100.625
-98.311
-95.728
-92.893
-89.854
-86.678
-83.43
-80.183
-76.984
-73.853
-70.803
-67.833
-64.929
-62.079
-59.257
-56.436
-53.595
-50.713
-47.772
-44.755
-41.643
-38.412
-35.04
-31.503
-27.782
-23.865
-19.74
-15.402
-10.847
-6.073
-1.085
4.114
9.517
15.119
20.912
26.888
33.036
39.341
45.787
52.356
59.027
65.777
72.578
79.405
86.226
93.013
99.734
106.356
112.846
119.172
125.3
131.196
136.828
142.164
147.173
151.824
156.091
159.946
163.365
166.327
168.811
170.8
172.28
173.239
173.668
173.561
172.914
171.728
170.005
167.751
164.975
161.688
157.905
153.644
148.925
143.771
138.208
132.263
125.964
119.344
112.434
105.268
97.881
90.307
82.582
74.743
66.824
58.861
50.888
42.938
35.043
27.235
19.542
11.992
4.61
-2.578
-9.552
-16.29
-22.776
-28.994
-34.931
-40.574
-45.916
-50.95
-55.671
-60.077
-64.168
-67.946
-71.414
-74.578
-77.445
-80.024
-82.326
-84.362
-86.145
-87.69
-89.012
-90.125
-91.045
-91.79
-92.374
-92.815
-93.126
-93.325
-93.426
-93.443
-93.39
-93.279
-93.123
-92.933
-92.719
-92.49
-92.255
-92.02
-91.792
-91.577
-91.38
-91.203
-91.05
-90.922
-90.822
-90.749
-90.703
-90.682
-90.686
-90.71
-90.751
-90.807
-90.872
-90.943
-91.013
-91.079
-91.136
-91.179
-91.203
-91.204
-91.177
-91.119
-91.025
-90.894
-90.722
-90.507
-90.248
-89.943
-89.592
-89.194
-88.75
-88.259
-87.723
-87.143
-86.519
-85.853
-85.148
-84.406
-83.629
-82.82
-81.984
-81.122
-80.241
-79.343
-78.434
-77.518
-76.6
-75.687
-74.782
-73.891
-73.02
-72.174
-71.358
-70.577
-69.836
-69.138
-68.489
-67.891
-67.349
-66.865
-66.442
-66.081
-65.786
-65.558
-65.397
-65.304
-65.28
-65.325
-65.438
-65.618
-65.863
-66.171
-66.539
-66.966
-67.445
-67.974
-68.548
-69.159
-69.803
-70.472
-71.159
-71.854
-72.55
-73.237
-73.906
-74.548
-75.153
-75.711
-76.213
-76.647
-77.005
-77.277
-77.454
-77.525
-77.483
-77.318
-77.025
-76.594
-76.021
-75.3
-74.427
-73.397
-72.208
-70.858
-69.345
-67.671
-65.836
-63.843
-61.698
-59.405
-56.973
-54.413
-51.738
-48.963
-46.103
-43.176
-40.2
-37.194
-34.179
-31.179
-28.212
-25.298
-22.459
-19.716
-17.094
-14.616
-12.301
-10.169
-8.234
-6.514
-5.026
-3.785
-2.8
-2.078
-1.621
-1.437
-1.545
-1.961
-2.692
-3.742
-5.106
-6.776
-8.742
-10.984
-13.462
-16.132
-18.944
-21.844
-24.791
-27.745
-30.668
-33.519
-36.242
-38.77
-41.034
-42.967
-44.525
-45.697
-46.509
-46.998
-47.198
-47.204
-47.216
-47.519
-48.411
-50.076
-52.471
-55.547
-59.452
-64.232
-69.733
-75.458
-80.571
-84.477
-87.102
-88.483
-88.362
-86.519
-82.862
-77.967
-73.353
-70.347
-69.605
-71.341
-75.771
-83.196
-93.892
-107.339
-120.22
-127.73
-125.849
-110.831
-83.203
-47.227
-3.888
46.398
108.347
193.638
308.303
454.736
626.457
804.04
966.98
1093.31
1166.883
1181.138
1134.988
1035.977
893.646
720.161
531.17
340.963
166.512
24.172
-75.114
-126.137
-133.26
-110.777
-77.102
-49.052
-37.02
-40.893
-52.321
-60.714
-58.919
-46.467
-28.823
-13.835
-6.278
-6.537
-12.502
-20.882
-29.53
-37.987
-45.777
-52.022
-56.201
-58.083
-57.715
-55.634
-52.424
-48.437
-44.326
-41.047
-39.11
-38.719
-39.885
-42.283
-45.628
-49.721
-54.177
-58.501
-62.335
-65.454
-67.765
-69.319
-70.141
-70.226
-69.611
-68.36
-66.549
-64.247
-61.503
-58.349
-54.827
-51.009
-46.975
-42.815
-38.609
-34.41
-30.249
-26.149
-22.12
-18.167
-14.287
-10.468
-6.69
-2.936
0.804
4.542
8.289
12.06
15.875
19.755
23.718
27.777
31.945
36.227
40.631
45.161
49.818
54.601
59.507
64.534
69.679
74.941
80.317
85.802
91.388
97.068
102.832
108.668
114.561
120.495
126.452
132.412
138.353
144.253
150.088
155.833
161.464
166.954
172.276
177.404
182.311
186.97
191.354
195.438
199.197
202.607
205.646
208.292
210.528
212.335
213.699
214.607
215.046
215.009
214.488
213.479
211.979
209.989
207.512
204.552
201.118
197.222
192.876
188.097
182.904
177.315
171.355
165.047
158.417
151.492
144.302
136.877
129.246
121.443
113.499
105.447
97.319
89.147
80.963
72.797
64.679
56.638
48.701
40.895
33.244
25.773
18.503
11.455
4.648
-1.902
-8.18
-14.171
-19.867
-25.257
-30.336
-35.098
-39.54
-43.663
-47.466
-50.953
-54.128
-56.998
-59.57
-61.855
-63.862
-65.605
-67.095
-68.347
-69.375
-70.194
-70.819
-71.264
-71.546
-71.679
-71.677
-71.556
-71.329
-71.011
-70.615
-70.154
-69.64
-69.086
-68.501
-67.896
-67.28
-66.661
-66.047
-65.445
-64.86
-64.296
-63.759
-63.25
-62.773
-62.327
-61.914
-61.533
-61.182
-60.86
-60.564
-60.29
-60.037
-59.8
-59.576
-59.362
-59.154
-58.948
-58.741
-58.531
-58.313
-58.084
-57.842
-57.585
-57.309
-57.012
-56.694
-56.352
-55.986
-55.594
-55.178
-54.736
-54.269
-53.777
-53.264
-52.729
-52.175
-51.604
-51.021
-50.428
-49.829
-49.228
-48.631
-48.041
-47.463
-46.902
-46.362
-45.849
-45.366
-44.918
-44.508
-44.141
-43.821
-43.551
-43.333
-43.173
-43.071
-43.03
-43.051
-43.137
-43.287
-43.502
-43.781
-44.124
-44.529
-44.994
-45.516
-46.093
-46.721
-47.394
-48.108
-48.856
-49.633
-50.43
-51.241
-52.057
-52.868
-53.667
-54.444
-55.189
-55.893
-56.546
-57.139
-57.663
-58.106
-58.459
-58.714
-58.861
-58.89
-58.794
-58.564
-58.194
-57.678
-57.011
-56.189
-55.208
-54.067
-52.765
-51.301
-49.677
-47.894
-45.957
-43.87
-41.642
-39.279
-36.792
-34.195
-31.504
-28.735
-25.906
-23.035
-20.143
-17.251
-14.381
-11.557
-8.801
-6.137
-3.588
-1.178
1.068
3.124
4.971
6.592
7.969
9.089
9.938
10.501
10.773
10.749
10.429
9.808
8.874
7.622
6.053
4.171
1.985
-0.492
-3.249
-6.264
-9.501
-12.92
-16.473
-20.11
-23.794
-27.486
-31.15
-34.751
-38.233
-41.54
-44.619
-47.419
-49.892
-52.018
-53.776
-55.145
-56.202
-57.09
-58.03
-59.329
-61.266
-64.038
-67.753
-72.518
-78.272
-84.711
-91.359
-97.44
-102.084
-104.631
-104.701
-102.039
-96.726
-89.297
-80.462
-71.488
-64.099
-59.793
-59.647
-64.307
-73.841
-87.749
-105.271
-125.022
-143.688
-156.582
-159.504
-148.391
-121.803
-82.876
-33.587
24.729
91.408
173.4
277.495
406.878
563.842
738.471
911.563
1061.776
1164.057
1199.86
1163.188
1057.387
894.618
694.635
478.921
267.993
83.433
-57.943
-148.465
-187.137
-182.367
-151.581
-111.257
-76.101
-58.91
-60.569
-76.235
-98.825
-115.955
-122.509
-119.456
-109.189
-98.195
-89.593
-82.82
-77.209
-71.218
-64.766
-59.251
-55.831
-55.416
-58.093
-63.107
-69.588
-76.528
-83.084
-88.819
-93.346
-96.324
-97.78
-97.944
-97.228
-96.409
-95.967
-95.949
-96.357
-97.13
-98.146
-99.432
-100.925
-102.189
-102.939
-103.119
-102.693
-101.761
-100.417
-98.582
-96.21
-93.461
-90.483
-87.383
-84.285
-81.203
-78.135
-75.139
-72.255
-69.477
-66.791
-64.163
-61.546
-58.924
-56.287
-53.625
-50.929
-48.183
-45.363
-42.452
-39.429
-36.278
-32.981
-29.524
-25.89
-22.067
-18.05
-13.836
-9.428
-4.827
-0.037
4.94
10.101
15.439
20.943
26.602
32.401
38.326
44.361
50.483
56.669
62.893
69.13
75.352
81.529
87.632
93.63
99.491
105.183
110.676
115.936
120.935
125.639
130.022
134.052
137.704
140.953
143.774
146.146
148.05
149.47
150.393
150.808
150.705
150.081
148.933
147.261
145.069
142.364
139.153
135.449
131.266
126.623
121.538
116.035
110.136
103.868
97.26
90.34
83.14
75.689
68.022
60.169
52.166
44.044
35.838
27.581
19.304
11.041
2.822
-5.324
-13.368
-21.283
-29.045
-36.63
-44.017
-51.187
-58.121
-64.804
-71.223
-77.367
-83.224
-88.788
-94.054
-99.016
-103.674
-108.027
-112.076
-115.825
-119.277
-122.438
-125.314
-127.914
-130.245
-132.316
-134.138
-135.721
-137.075
-138.213
-139.145
-139.882
-140.438
-140.821
-141.045
-141.118
-141.051
-140.853
-140.533
-140.099
-139.558
-138.919
-138.186
-137.365
-136.462
-135.481
-134.425
-133.298
-132.101
-130.838
-129.509
-128.116
-126.66
-125.143
-123.565
-121.927
-120.23
-118.476
-116.665
-114.798
-112.877
-110.902
-108.876
-106.8
-104.677
-102.508
-100.297
-98.047
-95.762
-93.446
-91.103
-88.738
-86.357
-83.964
-81.565
-79.168
-76.777
-74.4
-72.045
-69.717
-67.425
-65.175
-62.976
-60.832
-58.753
-56.742
-54.808
-52.955
-51.188
-49.513
-47.934
-46.455
-45.08
-43.812
-42.653
-41.604
-40.669
-39.846
-39.137
-38.541
-38.057
-37.684
-37.42
-37.262
-37.208
-37.253
-37.394
-37.626
-37.942
-38.338
-38.806
-39.34
-39.932
-40.574
-41.26
-41.98
-42.726
-43.491
-44.265
-45.04
-45.807
-46.557
-47.28
-47.968
-48.612
-49.203
-49.734
-50.195
-50.579
-50.879
-51.087
-51.195
-51.198
-51.089
-50.86
-50.507
-50.024
-49.407
-48.653
-47.76
-46.724
-45.547
-44.229
-42.77
-41.173
-39.439
-37.573
-35.578
-33.462
-31.23
-28.892
-26.457
-23.937
-21.348
-18.707
-16.03
-13.335
-10.639
-7.962
-5.322
-2.74
-0.236
2.173
4.463
6.614
8.603
10.407
12.005
13.378
14.512
15.394
16.01
16.352
16.414
16.192
15.681
14.877
13.767
12.346
10.616
8.582
6.256
3.654
0.797
-2.283
-5.54
-8.932
-12.418
-15.957
-19.51
-23.04
-26.501
-29.851
-33.049
-36.06
-38.858
-41.405
-43.661
-45.612
-47.277
-48.707
-49.959
-51.117
-52.314
-53.764
-55.763
-58.606
-62.485
-67.471
-73.619
-80.849
-88.846
-97.068
-104.661
-110.623
-114.144
-114.744
-112.079
-106.079
-97.159
-86.173
-74.564
-64.136
-56.699
-53.629
-55.851
-64.226
-77.919
-93.945
-109.14
-119.893
-125.046
-127.879
-128.956
-124.271
-104.725
-55.679
31.065
153.243
300.979
459.067
617.114
770.602
914.368
1039.105
1128.725
1163.928
1132.076
1032.686
875.102
678.439
466.243
259.939
82.071
-51.498
-137.034
-177.772
-186.512
-178.201
-160.787
-140.268
-121.346
-106.57
-99.779
-101.548
-105.696
-106.432
-100.695
-88.904
-76.808
-68.913
-65.615
-65.476
-66.137
-66.58
-67.412
-69.2
-71.642
-73.871
-75.436
-76.406
-76.908
-76.973
-76.492
-75.41
-74.199
-73.621
-74.045
-75.513
-77.882
-80.869
-84.274
-87.929
-91.515
-94.636
-97.041
-98.617
-99.36
-99.368
-98.713
-97.439
-95.614
-93.325
-90.646
-87.642
-84.377
-80.905
-77.293
-73.623
-69.952
-66.324
-62.767
-59.288
-55.886
-52.548
-49.252
-45.969
-42.682
-39.376
-36.039
-32.66
-29.224
-25.71
-22.102
-18.382
-14.533
-10.541
-6.394
-2.084
2.392
7.035
11.841
16.805
21.925
27.197
32.619
38.185
43.89
49.726
55.682
61.749
67.912
74.154
80.456
86.797
93.156
99.51
105.833
112.101
118.287
124.364
130.305
136.083
141.67
147.038
152.16
157.009
161.559
165.784
169.66
173.165
176.278
178.977
181.246
183.069
184.432
185.322
185.73
185.648
185.072
183.999
182.428
180.362
177.805
174.766
171.256
167.287
162.874
158.036
152.792
147.164
141.177
134.853
128.222
121.309
114.143
106.755
99.175
91.433
83.561
75.589
67.549
59.473
51.389
43.329
35.32
27.392
19.572
11.885
4.356
-2.991
-10.134
-17.053
-23.73
-30.148
-36.291
-42.147
-47.705
-52.956
-57.892
-62.509
-66.803
-70.773
-74.419
-77.742
-80.746
-83.436
-85.818
-87.899
-89.687
-91.192
-92.425
-93.396
-94.117
-94.602
-94.863
-94.913
-94.767
-94.439
-93.942
-93.291
-92.5
-91.583
-90.554
-89.425
-88.211
-86.923
-85.573
-84.172
-82.731
-81.26
-79.767
-78.26
-76.747
-75.233
-73.726
-72.23
-70.749
-69.288
-67.85
-66.437
-65.053
-63.698
-62.375
-61.085
-59.829
-58.606
-57.418
-56.264
-55.145
-54.059
-53.007
-51.988
-51.001
-50.047
-49.123
-48.229
-47.365
-46.53
-45.723
-44.945
-44.195
-43.474
-42.783
-42.122
-41.492
-40.896
-40.335
-39.809
-39.322
-38.875
-38.469
-38.108
-37.792
-37.524
-37.305
-37.137
-37.021
-36.959
-36.95
-36.995
-37.093
-37.246
-37.45
-37.706
-38.012
-38.365
-38.764
-39.206
-39.688
-40.207
-40.76
-41.341
-41.947
-42.572
-43.211
-43.856
-44.501
-45.139
-45.762
-46.362
-46.933
-47.465
-47.95
-48.38
-48.747
-49.041
-49.256
-49.383
-49.414
-49.342
-49.161
-48.866
-48.453
-47.917
-47.257
-46.47
-45.554
-44.511
-43.339
-42.041
-40.618
-39.076
-37.417
-35.65
-33.782
-31.822
-29.783
-27.677
-25.519
-23.325
-21.113
-18.902
-16.712
-14.566
-12.484
-10.484
-8.585
-6.807
-5.167
-3.686
-2.378
-1.255
-0.334
0.374
0.852
1.088
1.077
0.823
0.331
-0.393
-1.354
-2.564
-4.03
-5.755
-7.736
-9.975
-12.472
-15.222
-18.204
-21.366
-24.649
-27.994
-31.363
-34.737
-38.108
-41.444
-44.681
-47.738
-50.528
-52.982
-55.077
-56.76
-57.958
-58.687
-59.043
-59.229
-59.594
-60.429
-61.82
-63.826
-66.462
-69.561
-73.016
-76.62
-79.808
-82.072
-83.185
-83.005
-81.65
-79.539
-76.793
-73.533
-70.335
-67.875
-66.825
-67.745
-70.87
-76.144
-83.773
-94.183
-106.729
-119.224
-128.813
-132.464
-129.483
-122.239
-112.427
-99.811
-78.382
-37.64
30.552
131.568
261.807
411.407
571.531
730.557
878.59
1004.787
1093.328
1129.505
1101.79
1007.35
852.658
654.105
436.669
224.632
43.447
-88.247
-167.991
-199.418
-194.898
-172.821
-142.18
-111.315
-88.957
-74.645
-69.568
-72.39
-74.154
-72.305
-67.146
-59.817
-56.427
-59.328
-66.763
-76.65
-85.655
-91.589
-94.228
-93.873
-90.981
-86.095
-79.879
-73.039
-66.328
-60.627
-56.495
-54.105
-53.525
-54.601
-57.022
-60.528
-64.752
-69.21
-73.535
-77.452
-80.771
-83.451
-85.472
-86.802
-87.449
-87.45
-86.842
-85.683
-84.024
-81.891
-79.325
-76.378
-73.121
-69.641
-66.028
-62.366
-58.716
-55.113
-51.584
-48.143
-44.791
-41.525
-38.326
-35.168
-32.027
-28.889
-25.736
-22.557
-19.33
-16.031
-12.637
-9.129
-5.49
-1.708
2.227
6.325
10.59
15.022
19.621
24.381
29.298
34.368
39.589
44.954
50.456
56.086
61.833
67.687
73.632
79.654
85.731
91.845
97.972
104.09
110.175
116.2
122.139
127.967
133.655
139.176
144.502
149.605
154.459
159.036
163.31
167.255
170.849
174.067
176.89
179.298
181.275
182.806
183.878
184.481
184.608
184.251
183.41
182.081
180.269
177.976
175.21
171.98
168.299
164.182
159.645
154.707
149.389
143.714
137.706
131.391
124.795
117.946
110.874
103.607
96.176
88.611
80.944
73.205
65.424
57.631
49.855
42.123
34.464
26.902
19.463
12.169
5.042
-1.899
-8.634
-15.148
-21.425
-27.454
-33.221
-38.72
-43.942
-48.881
-53.534
-57.898
-61.972
-65.758
-69.257
-72.473
-75.41
-78.074
-80.473
-82.613
-84.505
-86.157
-87.58
-88.785
-89.784
-90.587
-91.207
-91.656
-91.945
-92.086
-92.091
-91.97
-91.735
-91.396
-90.962
-90.444
-89.849
-89.185
-88.461
-87.683
-86.857
-85.989
-85.084
-84.148
-83.183
-82.196
-81.188
-80.163
-79.123
-78.073
-77.013
-75.946
-74.873
-73.797
-72.718
-71.639
-70.559
-69.48
-68.404
-67.332
-66.264
-65.202
-64.148
-63.104
-62.071
-61.052
-60.05
-59.067
-58.105
-57.17
-56.263
-55.39
-54.552
-53.755
-53.003
-52.298
-51.647
-51.051
-50.516
-50.045
-49.641
-49.307
-49.046
-48.862
-48.755
-48.728
-48.783
-48.922
-49.144
-49.451
-49.843
-50.318
-50.878
-51.518
-52.238
-53.034
-53.902
-54.839
-55.838
-56.894
-58.002
-59.155
-60.344
-61.562
-62.801
-64.051
-65.303
-66.547
-67.772
-68.967
-70.122
-71.226
-72.268
-73.239
-74.126
-74.92
-75.611
-76.189
-76.645
-76.969
-77.152
-77.185
-77.063
-76.777
-76.323
-75.696
-74.894
-73.914
-72.757
-71.422
-69.911
-68.228
-66.376
-64.361
-62.191
-59.874
-57.421
-54.843
-52.157
-49.38
-46.53
-43.627
-40.689
-37.738
-34.798
-31.893
-29.047
-26.283
-23.621
-21.085
-18.697
-16.482
-14.462
-12.657
-11.081
-9.752
-8.684
-7.892
-7.393
-7.189
-7.278
-7.658
-8.328
-9.298
-10.577
-12.165
-14.057
-16.246
-18.721
-21.471
-24.479
-27.702
-31.094
-34.599
-38.155
-41.726
-45.277
-48.776
-52.197
-55.478
-58.544
-61.33
-63.759
-65.779
-67.391
-68.575
-69.309
-69.677
-69.794
-69.889
-70.335
-71.331
-72.903
-75.044
-77.706
-80.86
-84.503
-88.297
-91.487
-93.529
-94.163
-93.356
-91.283
-87.893
-82.993
-76.86
-70.534
-65.164
-61.62
-60.562
-62.295
-67.168
-75.851
-87.691
-99.959
-109.698
-113.776
-111.04
-103.234
-90.464
-70.914
-39.287
12.631
90.462
196.56
328.239
479.025
640.052
799.691
944.475
1057.381
1123.448
1131.968
1078.588
969.902
816.296
631.877
433.412
235.717
55.41
-91.484
-193.347
-244.014
-244.691
-206.791
-147.756
-85.814
-39.198
-15.264
-11.276
-19.97
-28.447
-30.518
-27.414
-22.603
-23.149
-31.709
-45.883
-62.352
-76.592
-86.06
-90.789
-91.291
-88.415
-83.127
-76.22
-68.726
-61.897
-56.594
-53.199
-51.789
-52.205
-54.15
-57.322
-61.343
-65.693
-69.977
-73.935
-77.372
-80.233
-82.505
-84.152
-85.176
-85.606
-85.461
-84.772
-83.586
-81.929
-79.836
-77.359
-74.546
-71.464
-68.191
-64.798
-61.359
-57.927
-54.529
-51.189
-47.918
-44.72
-41.591
-38.513
-35.458
-32.402
-29.326
-26.211
-23.038
-19.785
-16.426
-12.938
-9.303
-5.503
-1.527
2.638
7
11.563
16.331
21.3
26.465
31.821
37.363
43.084
48.975
55.025
61.221
67.548
73.991
80.53
87.143
93.807
100.496
107.183
113.839
120.436
126.943
133.329
139.563
145.613
151.447
157.034
162.342
167.341
172.002
176.295
180.196
183.678
186.72
189.3
191.4
193.006
194.103
194.682
194.734
194.255
193.244
191.7
189.629
187.037
183.934
180.332
176.248
171.7
166.709
161.297
155.49
149.315
142.8
135.976
128.874
121.527
113.968
106.23
98.349
90.359
82.294
74.187
66.072
57.981
49.945
41.994
34.156
26.46
18.929
11.587
4.457
-2.443
-9.095
-15.484
-21.596
-27.421
-32.95
-38.178
-43.099
-47.711
-52.014
-56.011
-59.703
-63.097
-66.2
-69.019
-71.564
-73.846
-75.877
-77.67
-79.238
-80.594
-81.754
-82.733
-83.544
-84.202
-84.723
-85.119
-85.406
-85.596
-85.703
-85.737
-85.712
-85.636
-85.519
-85.37
-85.196
-85.004
-84.8
-84.586
-84.368
-84.148
-83.926
-83.705
-83.484
-83.262
-83.037
-82.809
-82.573
-82.328
-82.07
-81.794
-81.498
-81.179
-80.831
-80.452
-80.039
-79.588
-79.097
-78.563
-77.985
-77.361
-76.691
-75.975
-75.213
-74.407
-73.559
-72.67
-71.745
-70.787
-69.801
-68.791
-67.764
-66.725
-65.681
-64.638
-63.604
-62.588
-61.596
-60.636
-59.716
-58.845
-58.03
-57.278
-56.597
-55.993
-55.472
-55.041
-54.705
-54.469
-54.335
-54.307
-54.387
-54.576
-54.873
-55.279
-55.79
-56.405
-57.118
-57.926
-58.822
-59.801
-60.854
-61.974
-63.152
-64.377
-65.639
-66.927
-68.228
-69.53
-70.821
-72.086
-73.312
-74.487
-75.597
-76.629
-77.569
-78.405
-79.124
-79.714
-80.164
-80.463
-80.6
-80.568
-80.358
-79.965
-79.383
-78.609
-77.641
-76.477
-75.118
-73.567
-71.826
-69.9
-67.797
-65.523
-63.09
-60.508
-57.79
-54.953
-52.015
-48.997
-45.919
-42.803
-39.674
-36.555
-33.472
-30.448
-27.507
-24.669
-21.959
-19.399
-17.014
-14.828
-12.865
-11.145
-9.688
-8.512
-7.633
-7.063
-6.805
-6.863
-7.24
-7.943
-8.99
-10.392
-12.156
-14.28
-16.761
-19.584
-22.729
-26.161
-29.823
-33.659
-37.613
-41.632
-45.68
-49.714
-53.68
-57.511
-61.128
-64.451
-67.423
-69.99
-72.106
-73.757
-74.958
-75.772
-76.313
-76.68
-76.969
-77.28
-77.719
-78.404
-79.461
-80.988
-83.105
-85.988
-89.763
-94.443
-99.866
-105.635
-111.283
-116.356
-120.31
-122.486
-122.317
-119.553
-114.553
-108.222
-101.527
-95.472
-91.095
-89.404
-91.558
-97.113
-102.976
-105.814
-102.29
-91.362
-76.227
-57.727
-32.379
6.304
68.847
162.68
286.21
433.552
594.949
757.181
909.46
1038.369
1127.126
1161.626
1131.313
1035.117
882.475
690.808
482.302
278.174
98.449
-42.001
-136.418
-184.176
-191.993
-172.911
-140
-105.327
-80.483
-69.346
-70.814
-80.858
-89.86
-92.894
-90.324
-84.734
-82.391
-85.832
-93.447
-102.71
-110.013
-113.864
-114.647
-112.546
-108.116
-101.983
-94.66
-87.16
-80.545
-75.269
-71.556
-69.585
-69.307
-70.623
-73.354
-77.054
-81.226
-85.537
-89.732
-93.598
-96.995
-99.788
-101.883
-103.271
-103.985
-104.055
-103.51
-102.378
-100.696
-98.519
-95.911
-92.942
-89.678
-86.197
-82.575
-78.889
-75.217
-71.611
-68.1
-64.7
-61.415
-58.236
-55.148
-52.13
-49.149
-46.176
-43.188
-40.161
-37.07
-33.893
-30.602
-27.173
-23.585
-19.817
-15.856
-11.689
-7.306
-2.703
2.124
7.172
12.437
17.916
23.604
29.493
35.577
41.845
48.284
54.88
61.616
68.472
75.426
82.452
89.524
96.612
103.686
110.715
117.666
124.504
131.197
137.709
144.007
150.056
155.821
161.27
166.37
171.091
175.403
179.279
182.693
185.622
188.048
189.951
191.316
192.133
192.392
192.086
191.213
189.773
187.769
185.208
182.099
178.455
174.293
169.631
164.491
158.898
152.878
146.461
139.677
132.56
125.144
117.465
109.558
101.463
93.216
84.856
76.421
67.949
59.477
51.041
42.677
34.418
26.296
18.342
10.585
3.051
-4.236
-11.252
-17.978
-24.396
-30.491
-36.25
-41.663
-46.723
-51.424
-55.763
-59.74
-63.357
-66.616
-69.526
-72.093
-74.327
-76.242
-77.849
-79.163
-80.202
-80.982
-81.52
-81.837
-81.95
-81.88
-81.646
-81.268
-80.765
-80.155
-79.459
-78.693
-77.874
-77.02
-76.144
-75.262
-74.386
-73.528
-72.698
-71.905
-71.159
-70.465
-69.83
-69.257
-68.75
-68.311
-67.94
-67.637
-67.4
-67.226
-67.111
-67.052
-67.043
-67.078
-67.151
-67.255
-67.383
-67.527
-67.681
-67.836
-67.986
-68.123
-68.24
-68.331
-68.39
-68.412
-68.392
-68.325
-68.21
-68.043
-67.822
-67.547
-67.216
-66.831
-66.392
-65.901
-65.361
-64.775
-64.148
-63.484
-62.789
-62.069
-61.33
-60.581
-59.827
-59.077
-58.339
-57.62
-56.929
-56.273
-55.66
-55.097
-54.593
-54.154
-53.785
-53.493
-53.282
-53.156
-53.118
-53.17
-53.312
-53.546
-53.87
-54.283
-54.783
-55.366
-56.029
-56.765
-57.569
-58.433
-59.348
-60.306
-61.296
-62.306
-63.326
-64.344
-65.346
-66.321
-67.256
-68.136
-68.948
-69.679
-70.316
-70.845
-71.252
-71.526
-71.656
-71.632
-71.446
-71.089
-70.555
-69.838
-68.936
-67.844
-66.563
-65.092
-63.433
-61.59
-59.569
-57.377
-55.025
-52.524
-49.889
-47.136
-44.284
-41.352
-38.363
-35.341
-32.311
-29.302
-26.34
-23.448
-20.653
-17.979
-15.451
-13.097
-10.938
-8.994
-7.288
-5.84
-4.67
-3.8
-3.243
-2.996
-3.058
-3.427
-4.106
-5.112
-6.456
-8.137
-10.153
-12.504
-15.183
-18.186
-21.488
-25.03
-28.745
-32.573
-36.466
-40.408
-44.394
-48.39
-52.331
-56.13
-59.694
-62.953
-65.876
-68.405
-70.456
-72.044
-73.27
-74.325
-75.55
-77.225
-79.412
-82.159
-85.481
-89.157
-93.024
-96.922
-100.312
-102.735
-104.059
-104.099
-102.886
-100.912
-98.327
-95.093
-91.673
-88.485
-85.854
-84.462
-84.758
-86.706
-90.646
-97.211
-105.862
-114.972
-122.533
-125.693
-123.818
-119.109
-112.45
-103.041
-84.632
-46.556
19.009
116.757
243.089
389.116
547.952
710.362
867.643
1007.788
1111.354
1160.375
1142.535
1056.881
914.949
735.171
537.984
341.115
160.812
11.645
-96.023
-157.064
-174.048
-158.852
-126.789
-92.215
-68.499
-59.952
-64.156
-76.026
-84.835
-85.013
-77.312
-64.676
-54.311
-50.056
-50.899
-54.861
-59.23
-62.981
-66.727
-70.812
-74.919
-78.32
-80.68
-82.198
-83.066
-83.357
-83.039
-82.114
-81.078
-80.669
-81.212
-82.724
-85.077
-88.018
-91.381
-95.034
-98.641
-101.796
-104.259
-105.91
-106.746
-106.86
-106.297
-105.08
-103.279
-100.974
-98.24
-95.145
-91.736
-88.053
-84.157
-80.121
-76.019
-71.912
-67.834
-63.805
-59.831
-55.908
-52.029
-48.178
-44.334
-40.481
-36.608
-32.702
-28.752
-24.744
-20.66
-16.484
-12.196
-7.781
-3.225
1.48
6.341
11.36
16.537
21.869
27.352
32.981
38.753
44.662
50.7
56.861
63.133
69.505
75.963
82.489
89.065
95.669
102.281
108.874
115.426
121.909
128.297
134.563
140.677
146.613
152.34
157.831
163.057
167.99
172.603
176.869
180.764
184.264
187.348
189.994
192.187
193.91
195.151
195.898
196.144
195.882
195.111
193.83
192.04
189.749
186.962
183.691
179.948
175.75
171.115
166.062
160.613
154.793
148.628
142.144
135.371
128.337
121.073
113.611
105.983
98.22
90.355
82.421
74.449
66.471
58.516
50.616
42.797
35.089
27.515
20.101
12.868
5.839
-0.97
-7.54
-13.856
-19.907
-25.68
-31.166
-36.359
-41.253
-45.845
-50.132
-54.116
-57.797
-61.178
-64.265
-67.064
-69.582
-71.828
-73.81
-75.541
-77.031
-78.293
-79.34
-80.184
-80.841
-81.323
-81.646
-81.824
-81.87
-81.798
-81.623
-81.356
-81.011
-80.599
-80.131
-79.618
-79.069
-78.494
-77.9
-77.295
-76.686
-76.078
-75.477
-74.888
-74.313
-73.757
-73.222
-72.709
-72.22
-71.756
-71.317
-70.903
-70.514
-70.148
-69.803
-69.48
-69.174
-68.885
-68.61
-68.345
-68.09
-67.84
-67.594
-67.35
-67.106
-66.86
-66.611
-66.358
-66.099
-65.835
-65.565
-65.289
-65.008
-64.722
-64.432
-64.14
-63.846
-63.554
-63.264
-62.979
-62.702
-62.433
-62.176
-61.933
-61.707
-61.499
-61.313
-61.15
-61.014
-60.907
-60.831
-60.787
-60.778
-60.805
-60.868
-60.969
-61.107
-61.281
-61.491
-61.735
-62.01
-62.316
-62.649
-63.006
-63.382
-63.774
-64.176
-64.584
-64.99
-65.39
-65.775
-66.139
-66.474
-66.775
-67.032
-67.238
-67.385
-67.467
-67.474
-67.4
-67.236
-66.975
-66.61
-66.135
-65.543
-64.83
-63.991
-63.023
-61.923
-60.69
-59.324
-57.825
-56.193
-54.433
-52.547
-50.539
-48.417
-46.187
-43.857
-41.44
-38.948
-36.396
-33.801
-31.179
-28.549
-25.932
-23.346
-20.812
-18.346
-15.966
-13.691
-11.539
-9.529
-7.683
-6.016
-4.547
-3.291
-2.263
-1.477
-0.941
-0.659
-0.631
-0.86
-1.352
-2.126
-3.195
-4.569
-6.253
-8.247
-10.546
-13.139
-16.004
-19.096
-22.368
-25.767
-29.246
-32.771
-36.301
-39.784
-43.156
-46.333
-49.235
-51.796
-53.961
-55.687
-56.951
-57.756
-58.142
-58.199
-58.03
-57.754
-57.492
-57.362
-57.488
-57.984
-58.993
-60.717
-63.327
-66.92
-71.444
-76.661
-82.244
-87.856
-93.035
-97.179
-99.744
-100.304
-98.907
-96.203
-92.963
-90.166
-88.969
-90.33
-95.196
-103.593
-113.592
-122.402
-126.838
-125.1
-117.851
-105.53
-87.227
-58.064
-10.26
63.012
166.69
299.777
457.252
631.436
808.856
972.626
1102.487
1176.918
1181.496
1113.178
979.41
798.199
592.588
384.4
194.508
38.596
-74.185
-142.495
-172.316
-172.478
-155.677
-130.838
-105.031
-87.59
-80.01
-82.105
-90.673
-95.354
-92.244
-81.89
-67.206
-55.698
-50.42
-50.211
-53.503
-57.813
-62.166
-66.942
-71.718
-75.672
-78.321
-79.508
-79.422
-78.332
-76.368
-73.678
-70.8
-68.573
-67.502
-67.725
-69.158
-71.522
-74.578
-78.123
-81.786
-85.111
-87.812
-89.743
-90.877
-91.294
-91.045
-90.159
-88.706
-86.774
-84.43
-81.736
-78.732
-75.453
-71.962
-68.336
-64.657
-60.988
-57.364
-53.806
-50.322
-46.91
-43.559
-40.249
-36.955
-33.656
-30.338
-26.984
-23.584
-20.12
-16.57
-12.913
-9.129
-5.197
-1.102
3.168
7.621
12.26
17.088
22.102
27.298
32.673
38.222
43.942
49.826
55.867
62.055
68.377
74.82
81.367
87.998
94.692
101.424
108.17
114.903
121.596
128.219
134.742
141.136
147.368
153.408
159.224
164.785
170.06
175.019
179.635
183.878
187.723
191.146
194.125
196.64
198.672
200.207
201.232
201.735
201.71
201.151
200.056
198.426
196.264
193.576
190.371
186.662
182.463
177.792
172.669
167.116
161.158
154.821
148.134
141.127
133.831
126.278
118.501
110.535
102.413
94.17
85.841
77.46
69.059
60.672
52.331
44.065
35.905
27.878
20.011
12.328
4.853
-2.393
-9.39
-16.122
-22.573
-28.73
-34.58
-40.116
-45.33
-50.218
-54.775
-59.002
-62.899
-66.469
-69.716
-72.647
-75.27
-77.593
-79.626
-81.382
-82.872
-84.11
-85.109
-85.883
-86.448
-86.818
-87.009
-87.035
-86.911
-86.653
-86.274
-85.789
-85.211
-84.554
-83.831
-83.052
-82.23
-81.375
-80.496
-79.604
-78.704
-77.806
-76.915
-76.037
-75.177
-74.337
-73.522
-72.733
-71.972
-71.239
-70.536
-69.86
-69.213
-68.591
-67.995
-67.422
-66.871
-66.338
-65.823
-65.322
-64.834
-64.357
-63.888
-63.427
-62.97
-62.519
-62.07
-61.624
-61.18
-60.738
-60.298
-59.86
-59.425
-58.994
-58.569
-58.151
-57.744
-57.349
-56.97
-56.611
-56.273
-55.962
-55.681
-55.433
-55.223
-55.054
-54.93
-54.854
-54.831
-54.862
-54.951
-55.1
-55.31
-55.582
-55.918
-56.317
-56.777
-57.299
-57.879
-58.515
-59.205
-59.945
-60.73
-61.557
-62.42
-63.312
-64.228
-65.159
-66.097
-67.034
-67.96
-68.868
-69.746
-70.585
-71.376
-72.108
-72.771
-73.356
-73.851
-74.248
-74.537
-74.708
-74.754
-74.667
-74.442
-74.072
-73.555
-72.886
-72.065
-71.09
-69.962
-68.681
-67.25
-65.672
-63.954
-62.101
-60.12
-58.024
-55.823
-53.533
-51.17
-48.75
-46.29
-43.812
-41.335
-38.883
-36.478
-34.14
-31.89
-29.747
-27.734
-25.872
-24.181
-22.676
-21.372
-20.285
-19.428
-18.819
-18.468
-18.374
-18.533
-18.942
-19.601
-20.519
-21.707
-23.162
-24.884
-26.869
-29.109
-31.601
-34.328
-37.247
-40.307
-43.445
-46.61
-49.773
-52.911
-56.007
-59.025
-61.892
-64.537
-66.894
-68.898
-70.526
-71.746
-72.497
-72.832
-72.885
-72.854
-73.087
-73.879
-75.305
-77.437
-80.293
-83.687
-87.528
-91.595
-95.24
-97.885
-99.219
-98.985
-97.278
-94.495
-90.644
-85.86
-80.892
-76.642
-74.087
-74.075
-76.957
-82.705
-91.636
-104.209
-119.049
-132.882
-142.517
-144.58
-139.244
-130.645
-118.479
-99.112
-63.948
0.086
96.729
221.609
364.826
511.822
655.509
792.817
917.156
1019.097
1080.853
1083.483
1019.748
892.672
717.936
519.901
319.779
136.86
-12.527
-119.424
-179.44
-193.833
-174.427
-137.654
-99.846
-77.335
-75.337
-89.303
-111.043
-127.429
-131.892
-125.254
-110.679
-95.358
-82.98
-73.317
-66.046
-59.267
-52.444
-46.96
-43.844
-43.779
-46.927
-52.388
-58.738
-65.133
-70.989
-75.743
-79.171
-81.186
-81.797
-81.512
-81.196
-81.32
-82.064
-83.45
-85.228
-87.212
-89.306
-91.25
-92.698
-93.451
-93.42
-92.63
-91.234
-89.331
-86.971
-84.223
-81.159
-77.85
-74.377
-70.808
-67.193
-63.572
-59.977
-56.432
-52.955
-49.55
-46.209
-42.908
-39.617
-36.312
-32.977
-29.606
-26.192
-22.726
-19.19
-15.57
-11.848
-8.01
-4.045
0.06
4.317
8.734
13.313
18.052
22.946
27.992
33.187
38.528
44.013
49.635
55.387
61.259
67.243
73.325
79.489
85.716
91.985
98.275
104.563
110.825
117.035
123.169
129.199
135.1
140.842
146.4
151.746
156.851
161.689
166.233
170.457
174.336
177.847
180.968
183.678
185.959
187.794
189.17
190.073
190.494
190.425
189.861
188.799
187.24
185.187
182.645
179.622
176.13
172.181
167.793
162.984
157.772
152.182
146.235
139.958
133.377
126.52
119.415
112.091
104.581
96.913
89.119
81.23
73.278
65.292
57.303
49.339
41.431
33.604
25.886
18.302
10.875
3.627
-3.421
-10.25
-16.845
-23.189
-29.269
-35.076
-40.6
-45.833
-50.772
-55.411
-59.75
-63.788
-67.526
-70.967
-74.116
-76.977
-79.557
-81.864
-83.907
-85.694
-87.236
-88.545
-89.631
-90.507
-91.184
-91.676
-91.994
-92.153
-92.163
-92.039
-91.792
-91.435
-90.978
-90.434
-89.811
-89.12
-88.37
-87.569
-86.725
-85.844
-84.933
-83.997
-83.041
-82.069
-81.086
-80.094
-79.097
-78.098
-77.097
-76.098
-75.101
-74.108
-73.119
-72.135
-71.158
-70.186
-69.221
-68.263
-67.312
-66.367
-65.43
-64.5
-63.578
-62.664
-61.758
-60.862
-59.977
-59.105
-58.246
-57.404
-56.581
-55.779
-55.002
-54.251
-53.532
-52.846
-52.197
-51.589
-51.024
-50.507
-50.041
-49.627
-49.27
-48.972
-48.734
-48.561
-48.452
-48.41
-48.435
-48.529
-48.692
-48.924
-49.225
-49.593
-50.028
-50.528
-51.089
-51.71
-52.386
-53.113
-53.886
-54.699
-55.548
-56.425
-57.323
-58.237
-59.156
-60.074
-60.983
-61.872
-62.733
-63.556
-64.333
-65.054
-65.711
-66.295
-66.797
-67.209
-67.523
-67.732
-67.829
-67.807
-67.659
-67.38
-66.966
-66.412
-65.716
-64.875
-63.888
-62.756
-61.479
-60.061
-58.504
-56.813
-54.993
-53.05
-50.993
-48.83
-46.571
-44.23
-41.818
-39.354
-36.855
-34.339
-31.825
-29.333
-26.885
-24.499
-22.195
-19.991
-17.902
-15.945
-14.138
-12.498
-11.045
-9.794
-8.76
-7.956
-7.396
-7.091
-7.047
-7.263
-7.736
-8.469
-9.465
-10.741
-12.309
-14.174
-16.337
-18.792
-21.529
-24.529
-27.762
-31.172
-34.702
-38.293
-41.893
-45.47
-48.979
-52.368
-55.57
-58.503
-61.093
-63.287
-65.039
-66.312
-67.096
-67.407
-67.307
-66.906
-66.325
-65.69
-65.131
-64.771
-64.738
-65.148
-66.143
-67.915
-70.609
-74.277
-78.83
-83.999
-89.438
-94.799
-99.598
-103.203
-105.076
-104.859
-102.679
-99.215
-95.229
-91.62
-89.443
-89.611
-92.993
-99.416
-106.827
-112.598
-113.787
-108.876
-98.559
-82.525
-59.161
-23.846
30.076
107.202
209.981
336.373
481.362
638.256
795.845
939.516
1051.653
1113.582
1112.41
1045.676
919.943
750.458
557.648
360.072
175.852
21.7
-91.911
-159.593
-182.418
-171.796
-143.103
-110.938
-89.503
-83.344
-88.894
-99.855
-105.565
-101.002
-87.976
-70.949
-57.76
-52.208
-53.492
-59.626
-67.068
-73.975
-80.194
-85.059
-88.134
-89.281
-88.312
-85.555
-81.705
-77.199
-72.528
-68.496
-65.671
-64.32
-64.552
-66.164
-68.844
-72.365
-76.38
-80.404
-84.068
-87.137
-89.492
-91.157
-92.159
-92.489
-92.188
-91.325
-89.973
-88.198
-86.041
-83.524
-80.682
-77.578
-74.291
-70.907
-67.502
-64.126
-60.804
-57.554
-54.383
-51.291
-48.264
-45.282
-42.314
-39.338
-36.335
-33.289
-30.182
-26.992
-23.693
-20.259
-16.667
-12.899
-8.939
-4.777
-0.404
4.187
8.996
14.024
19.264
24.714
30.37
36.226
42.276
48.51
54.918
61.484
68.195
75.031
81.972
88.994
96.073
103.181
110.291
117.372
124.393
131.323
138.13
144.781
151.242
157.481
163.465
169.161
174.538
179.567
184.218
188.464
192.281
195.645
198.535
200.934
202.825
204.196
205.036
205.337
205.095
204.307
202.973
201.099
198.689
195.754
192.307
188.361
183.936
179.052
173.732
168
161.883
155.412
148.615
141.524
134.172
126.594
118.822
110.892
102.839
94.696
86.498
78.279
70.07
61.904
53.81
45.818
37.954
30.245
22.715
15.385
8.277
1.408
-5.205
-11.548
-17.608
-23.374
-28.839
-33.997
-38.843
-43.374
-47.592
-51.497
-55.092
-58.384
-61.379
-64.085
-66.511
-68.669
-70.57
-72.227
-73.653
-74.861
-75.866
-76.683
-77.325
-77.808
-78.144
-78.349
-78.436
-78.418
-78.308
-78.117
-77.857
-77.54
-77.174
-76.77
-76.336
-75.88
-75.409
-74.93
-74.448
-73.968
-73.494
-73.028
-72.573
-72.13
-71.7
-71.282
-70.876
-70.481
-70.094
-69.715
-69.34
-68.967
-68.594
-68.218
-67.835
-67.444
-67.042
-66.627
-66.197
-65.75
-65.284
-64.8
-64.295
-63.77
-63.225
-62.659
-62.074
-61.47
-60.847
-60.208
-59.555
-58.889
-58.213
-57.53
-56.843
-56.156
-55.474
-54.8
-54.139
-53.495
-52.874
-52.28
-51.718
-51.193
-50.71
-50.274
-49.888
-49.557
-49.284
-49.073
-48.927
-48.848
-48.837
-48.896
-49.027
-49.228
-49.5
-49.842
-50.253
-50.731
-51.274
-51.879
-52.543
-53.262
-54.031
-54.844
-55.698
-56.584
-57.497
-58.428
-59.369
-60.312
-61.248
-62.167
-63.06
-63.917
-64.728
-65.483
-66.173
-66.787
-67.316
-67.751
-68.082
-68.302
-68.402
-68.375
-68.214
-67.913
-67.469
-66.876
-66.13
-65.231
-64.177
-62.968
-61.603
-60.085
-58.417
-56.603
-54.648
-52.56
-50.347
-48.022
-45.598
-43.092
-40.518
-37.897
-35.247
-32.586
-29.937
-27.32
-24.758
-22.271
-19.885
-17.62
-15.501
-13.551
-11.794
-10.248
-8.928
-7.849
-7.024
-6.463
-6.177
-6.17
-6.445
-7.009
-7.87
-9.033
-10.498
-12.26
-14.309
-16.632
-19.21
-22.02
-25.027
-28.194
-31.484
-34.856
-38.269
-41.686
-45.063
-48.357
-51.524
-54.524
-57.321
-59.875
-62.147
-64.104
-65.743
-67.088
-68.169
-69.057
-69.879
-70.827
-72.194
-74.283
-77.298
-81.341
-86.484
-92.637
-99.508
-106.594
-113.033
-117.839
-120.227
-119.715
-116.029
-109.23
-99.774
-88.47
-76.87
-66.933
-60.36
-58.465
-62.104
-71.57
-86.833
-106.265
-125.879
-141.523
-148.926
-147.108
-139.158
-124.698
-100.622
-59.077
12.005
116.052
248.698
400.075
555.492
706.24
847.397
971.154
1067.877
1122.205
1118.408
1050.882
922.445
747.019
547.239
345.06
163.103
18.409
-83.08
-143.299
-172.465
-182.222
-179.583
-167.623
-147.516
-123.445
-101.632
-87.103
-81.199
-79.218
-75.791
-69.061
-60.477
-54.341
-53.616
-58.13
-66.069
-74.98
-83.332
-90.35
-95.416
-98.403
-99.343
-98.448
-96.231
-93.096
-89.406
-85.82
-83.077
-81.616
-81.594
-82.902
-85.261
-88.413
-92.124
-96.024
-99.647
-102.686
-104.986
-106.508
-107.314
-107.442
-106.896
-105.727
-104.025
-101.86
-99.295
-96.377
-93.125
-89.591
-85.851
-81.982
-78.069
-74.168
-70.307
-66.505
-62.772
-59.107
-55.507
-51.956
-48.43
-44.909
-41.38
-37.827
-34.239
-30.597
-26.88
-23.064
-19.129
-15.055
-10.829
-6.441
-1.883
2.849
7.759
12.847
18.107
23.538
29.136
34.898
40.818
46.891
53.105
59.451
65.915
72.481
79.131
85.846
92.602
99.377
106.146
112.88
119.553
126.135
132.597
138.908
145.037
150.952
156.623
162.018
167.108
171.862
176.253
180.254
183.838
186.983
189.667
191.872
193.579
194.776
195.449
195.591
195.194
194.256
192.775
190.753
188.196
185.111
181.51
177.405
172.815
167.758
162.255
156.331
150.012
143.327
136.306
128.98
121.383
113.548
105.51
97.306
88.972
80.543
72.057
63.548
55.053
46.605
38.238
29.983
21.872
13.933
6.192
-1.324
-8.593
-15.594
-22.309
-28.72
-34.814
-40.578
-46.004
-51.083
-55.812
-60.187
-64.208
-67.877
-71.197
-74.176
-76.82
-79.138
-81.143
-82.846
-84.262
-85.405
-86.291
-86.938
-87.363
-87.584
-87.62
-87.488
-87.208
-86.798
-86.275
-85.658
-84.961
-84.202
-83.396
-82.556
-81.696
-80.827
-79.961
-79.107
-78.274
-77.469
-76.699
-75.969
-75.282
-74.642
-74.051
-73.51
-73.018
-72.575
-72.179
-71.828
-71.519
-71.247
-71.008
-70.799
-70.612
-70.443
-70.287
-70.136
-69.986
-69.831
-69.664
-69.482
-69.278
-69.049
-68.791
-68.499
-68.172
-67.807
-67.402
-66.956
-66.47
-65.942
-65.375
-64.769
-64.127
-63.451
-62.743
-62.008
-61.249
-60.47
-59.675
-58.87
-58.058
-57.246
-56.439
-55.643
-54.863
-54.106
-53.378
-52.684
-52.031
-51.424
-50.869
-50.371
-49.935
-49.567
-49.27
-49.047
-48.903
-48.84
-48.859
-48.963
-49.151
-49.423
-49.779
-50.218
-50.735
-51.33
-51.999
-52.736
-53.539
-54.403
-55.321
-56.287
-57.296
-58.339
-59.41
-60.499
-61.597
-62.695
-63.783
-64.851
-65.889
-66.886
-67.832
-68.715
-69.524
-70.25
-70.88
-71.406
-71.816
-72.101
-72.252
-72.26
-72.119
-71.824
-71.367
-70.747
-69.958
-69.001
-67.874
-66.577
-65.111
-63.478
-61.682
-59.728
-57.623
-55.375
-52.994
-50.493
-47.888
-45.195
-42.43
-39.614
-36.766
-33.909
-31.067
-28.264
-25.521
-22.861
-20.307
-17.883
-15.611
-13.515
-11.613
-9.921
-8.456
-7.234
-6.273
-5.584
-5.168
-5.024
-5.152
-5.551
-6.234
-7.207
-8.47
-10.022
-11.859
-13.976
-16.367
-19.01
-21.865
-24.88
-27.996
-31.164
-34.354
-37.54
-40.698
-43.788
-46.744
-49.503
-52.006
-54.196
-56.03
-57.466
-58.453
-59.042
-59.376
-59.665
-60.216
-61.282
-63.013
-65.522
-68.878
-72.976
-77.618
-82.455
-86.888
-90.365
-92.429
-92.728
-91.111
-87.672
-82.613
-76.306
-69.524
-63.179
-58.287
-55.958
-57.119
-62.288
-71.883
-85.271
-100.183
-114.132
-124.132
-129.322
-131.507
-130.939
-126.237
-110.112
-71.301
-2.679
99.799
231.521
382.693
546.945
715.386
879.135
1025.748
1134.569
1186.38
1168.11
1078.553
929.414
740.243
533.489
328.761
144.012
-5.454
-110.09
-165.582
-175.268
-152.292
-113.078
-73.786
-49.822
-45.656
-57.517
-77.642
-92.333
-95.149
-87.498
-73.76
-62.688
-58.271
-58.991
-62.638
-66.316
-68.942
-71.307
-73.602
-75.239
-75.843
-75.372
-74.031
-72.145
-69.862
-67.15
-64.315
-62.143
-61.131
-61.411
-62.944
-65.472
-68.771
-72.706
-76.962
-81.045
-84.617
-87.492
-89.587
-90.963
-91.651
-91.646
-91
-89.801
-88.12
-86.021
-83.551
-80.728
-77.604
-74.256
-70.764
-67.217
-63.673
-60.162
-56.704
-53.307
-49.967
-46.674
-43.408
-40.139
-36.848
-33.517
-30.133
-26.682
-23.148
-19.509
-15.744
-11.833
-7.759
-3.51
0.923
5.546
10.359
15.364
20.556
25.927
31.473
37.186
43.062
49.091
55.265
61.571
67.997
74.526
81.141
87.822
94.546
101.29
108.027
114.733
121.378
127.935
134.374
140.664
146.777
152.68
158.345
163.739
168.835
173.603
178.017
182.049
185.675
188.871
191.617
193.894
195.684
196.973
197.749
198.002
197.726
196.915
195.57
193.689
191.279
188.345
184.898
180.949
176.515
171.613
166.265
160.492
154.319
147.775
140.888
133.688
126.207
118.477
110.533
102.41
94.141
85.763
77.31
68.818
60.321
51.853
43.446
35.133
26.944
18.908
11.052
3.401
-4.02
-11.19
-18.089
-24.701
-31.009
-37.002
-42.669
-48.001
-52.993
-57.641
-61.944
-65.902
-69.52
-72.801
-75.752
-78.381
-80.7
-82.718
-84.45
-85.908
-87.109
-88.066
-88.798
-89.321
-89.653
-89.811
-89.813
-89.676
-89.418
-89.057
-88.607
-88.086
-87.507
-86.886
-86.235
-85.566
-84.892
-84.221
-83.563
-82.926
-82.316
-81.738
-81.196
-80.695
-80.235
-79.819
-79.446
-79.116
-78.828
-78.579
-78.368
-78.191
-78.044
-77.925
-77.829
-77.75
-77.685
-77.63
-77.578
-77.525
-77.468
-77.401
-77.32
-77.221
-77.101
-76.957
-76.786
-76.585
-76.352
-76.088
-75.79
-75.458
-75.094
-74.697
-74.269
-73.813
-73.33
-72.823
-72.295
-71.75
-71.19
-70.619
-70.04
-69.459
-68.877
-68.299
-67.728
-67.168
-66.623
-66.096
-65.591
-65.111
-64.66
-64.239
-63.854
-63.506
-63.198
-62.932
-62.712
-62.538
-62.413
-62.339
-62.316
-62.345
-62.427
-62.562
-62.749
-62.988
-63.278
-63.616
-64.001
-64.431
-64.902
-65.412
-65.957
-66.534
-67.139
-67.769
-68.419
-69.084
-69.76
-70.442
-71.124
-71.801
-72.465
-73.11
-73.729
-74.315
-74.86
-75.356
-75.797
-76.173
-76.476
-76.698
-76.831
-76.866
-76.795
-76.61
-76.303
-75.868
-75.298
-74.588
-73.733
-72.73
-71.575
-70.266
-68.8
-67.179
-65.399
-63.464
-61.374
-59.134
-56.747
-54.221
-51.564
-48.785
-45.899
-42.921
-39.865
-36.748
-33.587
-30.402
-27.216
-24.049
-20.923
-17.859
-14.883
-12.017
-9.287
-6.717
-4.329
-2.142
-0.174
1.559
3.04
4.252
5.188
5.841
6.208
6.283
6.054
5.511
4.652
3.48
2
0.225
-1.834
-4.155
-6.7
-9.429
-12.296
-15.248
-18.253
-21.278
-24.295
-27.279
-30.182
-32.949
-35.533
-37.883
-39.949
-41.73
-43.213
-44.39
-45.365
-46.284
-47.363
-48.925
-51.224
-54.412
-58.59
-63.798
-69.89
-76.632
-83.586
-90.008
-95.189
-98.488
-99.444
-97.884
-93.918
-87.817
-80.096
-71.775
-64.084
-58.37
-55.891
-57.432
-63.241
-73.435
-87.158
-101.971
-114.999
-122.744
-123.621
-118.807
-108.737
-92.783
-65.318
-17.203
57.475
162.374
293.414
441.651
600.656
760.889
913.017
1045.366
1139.644
1179.706
1155.009
1064.966
919.992
737.315
537.023
337.448
156.518
10.005
-92.377
-146.948
-158.466
-140.782
-109.205
-77.069
-56.107
-48.9
-52.699
-63.229
-71.316
-72.978
-69.632
-63.882
-61.499
-64.587
-70.848
-77.425
-81.386
-81.792
-79.416
-74.965
-68.884
-61.588
-53.823
-46.743
-41.147
-37.3
-35.176
-34.596
-35.563
-38.086
-41.882
-46.469
-51.418
-56.412
-61.257
-65.835
-69.942
-73.387
-76.078
-77.988
-79.138
-79.565
-79.281
-78.304
-76.686
-74.488
-71.779
-68.636
-65.125
-61.321
-57.31
-53.171
-48.987
-44.815
-40.687
-36.625
-32.635
-28.712
-24.845
-21.013
-17.19
-13.354
-9.487
-5.57
-1.588
2.476
6.641
10.925
15.344
19.909
24.631
29.517
34.569
39.788
45.172
50.716
56.413
62.257
68.242
74.359
80.603
86.963
93.429
99.987
106.625
113.325
120.07
126.838
133.608
140.355
147.057
153.687
160.219
166.628
172.885
178.966
184.841
190.484
195.869
200.968
205.757
210.211
214.307
218.021
221.335
224.229
226.687
228.692
230.234
231.3
231.882
231.975
231.573
230.677
229.286
227.403
225.036
222.192
218.882
215.12
210.922
206.305
201.29
195.898
190.152
184.077
177.699
171.046
164.146
157.027
149.721
142.255
134.662
126.971
119.212
111.415
103.61
95.823
88.083
80.416
72.847
65.4
58.096
50.958
44.004
37.253
30.719
24.417
18.361
12.559
7.023
1.757
-3.231
-7.938
-12.362
-16.502
-20.358
-23.934
-27.233
-30.259
-33.02
-35.521
-37.772
-39.781
-41.559
-43.115
-44.461
-45.607
-46.567
-47.35
-47.969
-48.435
-48.76
-48.955
-49.03
-48.997
-48.865
-48.643
-48.34
-47.965
-47.526
-47.03
-46.484
-45.894
-45.266
-44.606
-43.919
-43.21
-42.481
-41.738
-40.982
-40.217
-39.445
-38.667
-37.886
-37.101
-36.315
-35.527
-34.738
-33.949
-33.159
-32.369
-31.579
-30.79
-30
-29.212
-28.426
-27.641
-26.861
-26.085
-25.315
-24.553
-23.8
-23.058
-22.329
-21.614
-20.915
-20.234
-19.572
-18.93
-18.31
-17.715
-17.144
-16.601
-16.086
-15.602
-15.149
-14.731
-14.348
-14.002
-13.696
-13.43
-13.206
-13.027
-12.893
-12.807
-12.769
-12.782
-12.845
-12.961
-13.128
-13.349
-13.622
-13.948
-14.326
-14.757
-15.24
-15.774
-16.359
-16.995
-17.681
-18.416
-19.199
-20.028
-20.902
-21.819
-22.777
-23.773
-24.803
-25.866
-26.956
-28.07
-29.203
-30.352
-31.509
-32.671
-33.83
-34.979
-36.113
-37.223
-38.301
-39.341
-40.333
-41.27
-42.146
-42.95
-43.677
-44.317
-44.862
-45.305
-45.638
-45.854
-45.944
-45.903
-45.724
-45.402
-44.932
-44.311
-43.536
-42.603
-41.514
-40.268
-38.866
-37.311
-35.605
-33.755
-31.766
-29.646
-27.404
-25.052
-22.603
-20.073
-17.48
-14.842
-12.179
-9.512
-6.863
-4.256
-1.712
0.75
3.108
5.344
7.436
9.362
11.099
12.629
13.936
15.003
15.816
16.356
16.611
16.58
16.263
15.657
14.754
13.536
11.986
10.098
7.872
5.312
2.426
-0.777
-4.272
-8.014
-11.944
-16.008
-20.15
-24.331
-28.519
-32.657
-36.682
-40.516
-44.065
-47.264
-50.075
-52.45
-54.375
-55.882
-56.982
-57.728
-58.307
-58.871
-59.598
-60.694
-62.188
-64.074
-66.556
-69.873
-74.036
-79
-84.438
-89.793
-94.934
-99.795
-103.925
-106.754
-107.908
-107.195
-105.193
-103.105
-101.523
-100.993
-102.401
-106.499
-114.182
-125.191
-136.618
-144.823
-146.378
-139.785
-127.977
-113.07
-94.005
-66.422
-18.372
61.611
177.681
328.567
500.911
674.214
831.313
955.792
1037.768
1074.654
1062.409
998.149
880.946
712.757
506.505
286.486
81.623
-82.168
-191.907
-251.892
-276.343
-280.057
-272.318
-254.723
-227.379
-195.041
-165.069
-144.647
-136.345
-135.454
-136.261
-135.637
-133.988
-135.529
-142.767
-154.787
-168.896
-181.261
-189.554
-193.533
-193.452
-189.811
-183.38
-175.045
-166.03
-157.756
-151.248
-147.011
-145.52
-147.308
-152.408
-160.423
-170.552
-181.575
-192.508
-202.713
-211.368
-217.496
-220.597
-220.615
-217.973
-213.625
-208.294
-202.395
-196.537
-191.462
-187.625
-185.225
-184.069
-183.533
-183.23
-183.046
-182.789
-182.261
-181.325
-179.879
-178.026
-176.079
-174.205
-172.438
-170.786
-169.198
-167.652
-166.167
-164.704
-163.18
-161.541
-159.755
-157.815
-155.747
-153.56
-151.241
-148.782
-146.169
-143.395
-140.462
-137.372
-134.122
-130.711
-127.138
-123.402
-119.508
-115.459
-111.26
-106.918
-102.44
-97.839
-93.132
-88.34
-83.489
-78.606
-73.718
-68.851
-64.036
-59.3
-54.675
-50.193
-45.885
-41.784
-37.92
-34.325
-31.031
-28.067
-25.463
-23.243
-21.434
-20.057
-19.135
-18.686
-18.729
-19.279
-20.349
-21.949
-24.087
-26.769
-29.997
-33.77
-38.085
-42.933
-48.305
-54.187
-60.564
-67.417
-74.724
-82.46
-90.599
-99.113
-107.968
-117.134
-126.575
-136.255
-146.137
-156.182
-166.353
-176.611
-186.917
-197.231
-207.516
-217.732
-227.843
-237.812
-247.601
-257.177
-266.505
-275.553
-284.29
-292.688
-300.718
-308.356
-315.578
-322.362
-328.689
-334.543
-339.908
-344.772
-349.125
-352.96
-356.273
-359.06
-361.322
-363.06
-364.279
-364.985
-365.186
-364.892
-364.114
-362.865
-361.158
-359.009
-356.434
-353.45
-350.075
-346.328
-342.228
-337.795
-333.048
-328.008
-322.694
-317.128
-311.327
-305.314
-299.107
-292.726
-286.191
-279.519
-272.73
-265.84
-258.867
-251.825
-244.731
-237.597
-230.437
-223.263
-216.086
-208.917
-201.766
-194.643
-187.555
-180.51
-173.516
-166.579
-159.706
-152.901
-146.17
-139.518
-132.95
-126.468
-120.078
-113.783
-107.587
-101.494
-95.505
-89.624
-83.853
-78.194
-72.65
-67.222
-61.911
-56.72
-51.65
-46.701
-41.877
-37.177
-32.604
-28.158
-23.841
-19.652
-15.594
-11.665
-7.866
-4.197
-0.656
2.756
6.041
9.201
12.238
15.153
17.95
20.631
23.201
25.663
28.021
30.279
32.441
34.513
36.498
38.401
40.227
41.98
43.666
45.289
46.854
48.366
49.829
51.25
52.632
53.981
55.303
56.6
57.879
59.143
60.397
61.645
62.89
64.136
65.386
66.641
67.906
69.182
70.47
71.773
73.092
74.429
75.785
77.162
78.562
79.985
81.434
82.911
84.417
85.954
87.525
89.131
90.774
92.458
94.183
95.952
97.767
99.628
101.536
103.493
105.497
107.549
109.649
111.794
113.985
116.221
118.5
120.819
123.177
125.57
127.994
130.444
132.913
135.392
137.87
140.336
142.779
145.187
147.547
149.841
152.058
154.186
156.213
158.128
159.915
161.559
163.045
164.364
165.506
166.464
167.228
167.79
168.143
168.292
168.238
167.984
167.524
166.837
165.908
164.731
163.306
161.636
159.727
157.583
155.228
152.705
150.064
147.359
144.637
141.936
139.293
136.753
134.377
132.235
130.407
128.964
127.957
127.424
127.371
127.763
128.568
129.745
131.134
132.491
133.558
134.056
133.877
133.083
131.548
129.014
125.485
121.239
116.855
113.132
110.411
108.588
107.881
108.711
111.238
115.141
119.185
121.657
121.606
118.679
112.44
102.5
88.403
71.665
56.901
48.863
51.736
65.431
84.736
108.269
138.254
182.732
256.339
364.608
504.756
667.405
833.466
989.968
1128.358
1237.682
1310.175
1333.155
1292.458
1184.781
1015.808
803.272
576.595
364.451
189.926
66.312
-8.474
-45.55
-57.579
-54.687
-41.142
-17.518
12.346
39.941
58.401
64.108
60.383
57.566
61.665
73.247
89.117
102.241
109.281
110.976
108.623
104.101
98.131
90.635
81.993
72.96
64.515
57.147
51.055
46.486
43.481
41.864
41.331
41.221
40.734
39.555
37.642
35.054
32.036
28.78
25.431
22.285
19.696
17.849
16.804
16.526
16.879
17.781
19.193
21.046
23.261
25.758
28.46
31.305
34.249
37.255
40.294
43.339
46.37
49.38
52.373
55.369
58.394
61.465
64.59
67.775
71.025
74.352
77.772
81.3
84.949
88.732
92.66
96.742
100.991
105.411
110.003
114.764
119.686
124.764
129.996
135.376
140.898
146.556
152.338
158.236
164.236
170.325
176.484
182.694
188.933
195.176
201.401
207.582
213.692
219.704
225.59
231.321
236.87
242.206
247.301
252.125
256.649
260.845
264.686
268.147
271.201
273.826
276.001
277.708
278.929
279.651
279.859
279.546
278.703
277.325
275.411
272.96
269.976
266.464
262.433
257.896
252.866
247.361
241.4
235.004
228.198
221.008
213.461
205.587
197.415
188.979
180.31
171.445
162.415
153.258
144.007
134.698
125.365
116.042
106.761
97.555
88.454
79.488
70.685
62.071
53.671
45.508
37.604
29.977
22.646
15.624
8.926
2.562
-3.461
-9.134
-14.454
-19.419
-24.029
-28.286
-32.194
-35.758
-38.986
-41.888
-44.473
-46.755
-48.747
-50.462
-51.917
-53.128
-54.11
-54.882
-55.46
-55.861
-56.104
-56.205
-56.182
-56.051
-55.829
-55.531
-55.174
-54.771
-54.338
-53.886
-53.428
-52.976
-52.54
-52.13
-51.754
-51.42
-51.135
-50.903
-50.731
-50.62
-50.574
-50.594
-50.682
-50.837
-51.057
-51.343
-51.691
-52.099
-52.565
-53.084
-53.653
-54.268
-54.925
-55.619
-56.346
-57.101
-57.879
-58.677
-59.489
-60.311
-61.138
-61.968
-62.795
-63.616
-64.428
-65.227
-66.011
-66.776
-67.522
-68.245
-68.944
-69.619
-70.268
-70.892
-71.49
-72.063
-72.611
-73.136
-73.639
-74.121
-74.584
-75.031
-75.463
-75.883
-76.294
-76.698
-77.098
-77.499
-77.901
-78.31
-78.729
-79.16
-79.607
-80.075
-80.566
-81.084
-81.633
-82.217
-82.837
-83.498
-84.202
-84.952
-85.75
-86.598
-87.497
-88.449
-89.455
-90.515
-91.629
-92.797
-94.017
-95.289
-96.61
-97.978
-99.39
-100.842
-102.331
-103.852
-105.4
-106.971
-108.557
-110.153
-111.751
-113.344
-114.924
-116.481
-118.007
-119.492
-120.925
-122.299
-123.602
-124.825
-125.958
-126.992
-127.916
-128.723
-129.404
-129.95
-130.353
-130.605
-130.701
-130.635
-130.404
-130.002
-129.428
-128.68
-127.758
-126.662
-125.396
-123.961
-122.362
-120.605
-118.696
-116.646
-114.463
-112.161
-109.754
-107.26
-104.698
-102.087
-99.451
-96.81
-94.189
-91.609
-89.094
-86.664
-84.338
-82.137
-80.08
-78.192
-76.493
-75.004
-73.741
-72.723
-71.964
-71.481
-71.283
-71.371
-71.746
-72.412
-73.376
-74.659
-76.278
-78.235
-80.529
-83.157
-86.104
-89.353
-92.87
-96.593
-100.459
-104.408
-108.384
-112.353
-116.273
-120.08
-123.702
-127.051
-130.047
-132.644
-134.801
-136.479
-137.666
-138.385
-138.703
-138.746
-138.649
-138.532
-138.52
-138.732
-139.288
-140.312
-141.946
-144.372
-147.725
-152.03
-157.169
-162.868
-168.782
-174.547
-179.671
-183.497
-185.448
-185.175
-182.807
-179.009
-174.512
-170.132
-166.859
-165.617
-167.343
-171.989
-177.497
-180.984
-179.321
-170.969
-157.169
-138.953
-115.7
-83.192
-33.88
39.762
142.694
274.445
429.896
598.516
764.974
911.654
1019.114
1071.201
1059.127
983.648
854.042
685.786
497.022
303.509
120.781
-38.856
-166.82
-256.2
-306.009
-317.847
-298.647
-260.413
-215.895
-180.552
-161.974
-158.918
-165.429
-169.045
-163.075
-148.72
-130.154
-115.089
-107.625
-106.88
-110.694
-116.348
-122.524
-129.003
-135.562
-141.789
-146.856
-150.363
-152.434
-153.076
-152.436
-150.885
-148.713
-146.485
-144.943
-144.355
-144.712
-145.933
-147.746
-149.871
-152.123
-154.209
-155.782
-156.685
-156.855
-156.298
-155.128
-153.426
-151.235
-148.631
-145.688
-142.463
-139.022
-135.423
-131.711
-127.949
-124.187
-120.459
-116.794
-113.202
-109.683
-106.228
-102.815
-99.417
-96.014
-92.59
-89.133
-85.629
-82.06
-78.405
-74.642
-70.751
-66.71
-62.504
-58.115
-53.529
-48.739
-43.741
-38.534
-33.123
-27.507
-21.688
-15.67
-9.457
-3.057
3.522
10.27
17.172
24.214
31.375
38.634
45.967
53.349
60.754
68.154
75.52
82.822
90.031
97.115
104.043
110.782
117.3
123.567
129.55
135.22
140.546
145.503
150.062
154.2
157.896
161.129
163.881
166.138
167.886
169.115
169.818
169.99
169.629
168.735
167.313
165.369
162.912
159.955
156.512
152.601
148.24
143.451
138.257
132.683
126.755
120.501
113.951
107.134
100.082
92.826
85.399
77.832
70.157
62.406
54.609
46.798
39
31.244
23.558
15.968
8.497
1.169
-5.994
-12.973
-19.75
-26.308
-32.633
-38.712
-44.535
-50.093
-55.377
-60.383
-65.106
-69.544
-73.695
-77.562
-81.144
-84.446
-87.473
-90.231
-92.725
-94.965
-96.959
-98.716
-100.245
-101.556
-102.661
-103.568
-104.29
-104.836
-105.218
-105.445
-105.529
-105.479
-105.305
-105.017
-104.624
-104.135
-103.556
-102.897
-102.165
-101.366
-100.508
-99.595
-98.635
-97.631
-96.589
-95.513
-94.407
-93.274
-92.118
-90.94
-89.743
-88.531
-87.304
-86.065
-84.815
-83.558
-82.294
-81.026
-79.755
-78.483
-77.213
-75.947
-74.687
-73.435
-72.193
-70.965
-69.753
-68.56
-67.387
-66.238
-65.116
-64.022
-62.958
-61.929
-60.934
-59.978
-59.061
-58.186
-57.355
-56.571
-55.833
-55.145
-54.506
-53.92
-53.385
-52.904
-52.476
-52.101
-51.78
-51.512
-51.296
-51.132
-51.018
-50.952
-50.932
-50.956
-51.022
-51.127
-51.269
-51.444
-51.65
-51.885
-52.145
-52.429
-52.733
-53.055
-53.392
-53.742
-54.103
-54.473
-54.848
-55.228
-55.611
-55.993
-56.375
-56.754
-57.128
-57.495
-57.853
-58.201
-58.536
-58.856
-59.16
-59.446
-59.711
-59.954
-60.174
-60.368
-60.535
-60.673
-60.78
-60.853
-60.889
-60.886
-60.839
-60.746
-60.602
-60.403
-60.147
-59.827
-59.44
-58.981
-58.445
-57.826
-57.119
-56.321
-55.424
-54.426
-53.321
-52.108
-50.783
-49.343
-47.788
-46.115
-44.324
-42.416
-40.391
-38.251
-35.998
-33.635
-31.168
-28.603
-25.947
-23.207
-20.392
-17.516
-14.592
-11.636
-8.666
-5.699
-2.757
0.14
2.968
5.708
8.342
10.852
13.223
15.436
17.471
19.314
20.947
22.357
23.534
24.468
25.154
25.598
25.808
25.793
25.56
25.101
24.407
23.473
22.293
20.864
19.189
17.277
15.155
12.863
10.441
7.92
5.313
2.626
-0.12
-2.889
-5.635
-8.287
-10.79
-13.067
-14.986
-16.498
-17.641
-18.547
-19.484
-20.669
-22.169
-24.119
-26.717
-29.916
-33.512
-37.02
-39.628
-40.95
-40.997
-39.65
-36.74
-32.309
-26.535
-20.195
-14.573
-10.156
-6.895
-4.967
-4.667
-6.48
-11.075
-18.436
-27.886
-39.594
-53.144
-66.654
-78.214
-85.13
-86.807
-85.915
-83.442
-77.841
-61.534
-22.436
47.233
150.765
282.55
431.321
588.783
745.768
894.867
1026.568
1125.137
1175.063
1163.141
1085.531
948.151
764.507
555.765
342.974
148.008
-8.732
-116.954
-174.446
-187.551
-172.432
-144.827
-116.897
-99.086
-92.65
-93.847
-97.994
-96.776
-87.412
-72.483
-56.152
-45.198
-42.282
-46.054
-54.494
-64.488
-74.459
-84.111
-92.47
-98.717
-102.507
-103.718
-102.736
-100.17
-96.419
-91.948
-87.579
-84.16
-82.177
-81.774
-82.798
-84.955
-87.998
-91.674
-95.576
-99.222
-102.299
-104.661
-106.282
-107.23
-107.539
-107.213
-106.298
-104.88
-103.023
-100.783
-98.2
-95.289
-92.099
-88.707
-85.19
-81.632
-78.09
-74.591
-71.154
-67.787
-64.487
-61.25
-58.06
-54.89
-51.719
-48.533
-45.313
-42.048
-38.72
-35.303
-31.776
-28.115
-24.302
-20.322
-16.166
-11.826
-7.296
-2.576
2.335
7.432
12.711
18.169
23.802
29.604
35.567
41.683
47.937
54.318
60.809
67.391
74.043
80.743
87.465
94.183
100.872
107.501
114.042
120.464
126.738
132.832
138.716
144.36
149.732
154.804
159.548
163.937
167.944
171.545
174.719
177.445
179.704
181.481
182.762
183.535
183.791
183.524
182.731
181.41
179.564
177.196
174.314
170.928
167.053
162.702
157.896
152.654
147
140.959
134.557
127.823
120.788
113.482
105.938
98.189
90.268
82.209
74.046
65.813
57.543
49.269
41.023
32.837
24.741
16.765
8.935
1.279
-6.179
-13.416
-20.412
-27.146
-33.603
-39.766
-45.623
-51.164
-56.38
-61.265
-65.813
-70.024
-73.897
-77.433
-80.637
-83.515
-86.072
-88.319
-90.265
-91.922
-93.301
-94.416
-95.28
-95.909
-96.317
-96.519
-96.532
-96.372
-96.054
-95.594
-95.008
-94.311
-93.517
-92.641
-91.697
-90.696
-89.651
-88.573
-87.473
-86.359
-85.24
-84.124
-83.018
-81.927
-80.855
-79.806
-78.784
-77.789
-76.822
-75.884
-74.975
-74.093
-73.238
-72.407
-71.599
-70.811
-70.04
-69.285
-68.541
-67.806
-67.078
-66.352
-65.627
-64.9
-64.169
-63.431
-62.685
-61.93
-61.164
-60.386
-59.597
-58.795
-57.981
-57.156
-56.319
-55.473
-54.619
-53.759
-52.896
-52.032
-51.171
-50.317
-49.472
-48.64
-47.826
-47.032
-46.264
-45.524
-44.816
-44.144
-43.511
-42.922
-42.378
-41.882
-41.439
-41.048
-40.714
-40.437
-40.22
-40.063
-39.967
-39.933
-39.963
-40.055
-40.212
-40.431
-40.713
-41.058
-41.463
-41.928
-42.451
-43.028
-43.658
-44.335
-45.057
-45.82
-46.619
-47.448
-48.304
-49.179
-50.069
-50.968
-51.87
-52.768
-53.655
-54.526
-55.372
-56.188
-56.966
-57.698
-58.378
-58.998
-59.55
-60.027
-60.422
-60.727
-60.933
-61.034
-61.022
-60.888
-60.627
-60.231
-59.695
-59.012
-58.179
-57.191
-56.046
-54.742
-53.278
-51.654
-49.872
-47.932
-45.838
-43.593
-41.204
-38.676
-36.016
-33.234
-30.341
-27.348
-24.27
-21.126
-17.93
-14.702
-11.461
-8.226
-5.02
-1.864
1.218
4.205
7.073
9.8
12.361
14.732
16.889
18.813
20.488
21.901
23.035
23.878
24.421
24.657
24.583
24.194
23.48
22.433
21.049
19.329
17.28
14.916
12.252
9.311
6.128
2.74
-0.812
-4.481
-8.223
-11.997
-15.76
-19.468
-23.076
-26.535
-29.789
-32.785
-35.468
-37.803
-39.805
-41.507
-42.933
-44.168
-45.347
-46.662
-48.439
-50.985
-54.394
-58.714
-63.993
-70.11
-76.894
-83.99
-90.534
-95.572
-98.567
-99.189
-97.308
-93.13
-86.818
-78.827
-70.613
-64.088
-60.692
-61.347
-66.482
-75.948
-89.597
-107.111
-125.5
-139.614
-145.267
-138.396
-118.72
-90.276
-52.591
-3.768
60.321
148.919
263.087
399.293
552.561
710.297
862.187
996.62
1096.652
1146.821
1133.467
1051.418
906.874
716.95
506.045
298.547
117.532
-22.323
-115.926
-165.687
-181.298
-173.057
-150.919
-123.315
-98.111
-82.711
-79.53
-86.498
-95.817
-99.202
-93.825
-81.579
-68.666
-59.879
-55.907
-55.171
-55.045
-54.603
-54.586
-55.573
-57.68
-60.428
-63.021
-65.235
-67.101
-68.401
-68.921
-68.606
-67.647
-66.566
-66.009
-66.262
-67.316
-69.106
-71.472
-74.239
-77.212
-80.084
-82.485
-84.201
-85.167
-85.391
-84.957
-83.934
-82.36
-80.301
-77.842
-75.057
-72.002
-68.736
-65.297
-61.74
-58.133
-54.524
-50.948
-47.426
-43.957
-40.535
-37.144
-33.764
-30.371
-26.947
-23.479
-19.951
-16.353
-12.668
-8.879
-4.971
-0.925
3.273
7.638
12.178
16.901
21.806
26.893
32.158
37.595
43.198
48.961
54.879
60.943
67.143
73.469
79.908
86.444
93.059
99.734
106.445
113.17
119.884
126.56
133.172
139.693
146.093
152.344
158.417
164.282
169.911
175.273
180.342
185.088
189.486
193.51
197.137
200.345
203.113
205.425
207.263
208.616
209.471
209.819
209.656
208.977
207.781
206.069
203.846
201.119
197.896
194.191
190.018
185.394
180.338
174.871
169.017
162.801
156.249
149.389
142.25
134.861
127.253
119.459
111.508
103.433
95.265
87.036
78.776
70.516
62.284
54.11
46.02
38.039
30.193
22.504
14.994
7.682
0.587
-6.276
-12.891
-19.246
-25.331
-31.135
-36.653
-41.879
-46.809
-51.442
-55.777
-59.815
-63.559
-67.013
-70.182
-73.073
-75.692
-78.048
-80.149
-82.006
-83.628
-85.026
-86.212
-87.195
-87.989
-88.603
-89.051
-89.343
-89.49
-89.504
-89.396
-89.176
-88.854
-88.441
-87.945
-87.375
-86.74
-86.047
-85.305
-84.518
-83.694
-82.838
-81.955
-81.049
-80.126
-79.188
-78.24
-77.284
-76.325
-75.364
-74.405
-73.45
-72.5
-71.559
-70.628
-69.709
-68.803
-67.913
-67.04
-66.184
-65.348
-64.532
-63.738
-62.965
-62.216
-61.489
-60.786
-60.107
-59.453
-58.824
-58.221
-57.645
-57.095
-56.572
-56.078
-55.612
-55.175
-54.768
-54.389
-54.041
-53.722
-53.432
-53.171
-52.938
-52.734
-52.557
-52.406
-52.281
-52.181
-52.104
-52.051
-52.019
-52.009
-52.019
-52.05
-52.102
-52.173
-52.265
-52.377
-52.51
-52.664
-52.839
-53.035
-53.253
-53.492
-53.752
-54.033
-54.335
-54.658
-55.001
-55.363
-55.743
-56.141
-56.555
-56.983
-57.424
-57.876
-58.337
-58.806
-59.28
-59.756
-60.232
-60.704
-61.17
-61.625
-62.064
-62.482
-62.873
-63.232
-63.553
-63.83
-64.055
-64.223
-64.325
-64.356
-64.309
-64.176
-63.951
-63.626
-63.197
-62.656
-62.001
-61.227
-60.33
-59.306
-58.153
-56.871
-55.459
-53.917
-52.246
-50.447
-48.526
-46.486
-44.332
-42.074
-39.717
-37.272
-34.753
-32.175
-29.553
-26.907
-24.256
-21.621
-19.025
-16.492
-14.04
-11.688
-9.453
-7.351
-5.403
-3.629
-2.045
-0.669
0.482
1.397
2.063
2.475
2.638
2.56
2.247
1.704
0.915
-0.131
-1.441
-3.023
-4.879
-7.004
-9.39
-12.007
-14.806
-17.741
-20.773
-23.884
-27.069
-30.303
-33.553
-36.762
-39.847
-42.746
-45.37
-47.605
-49.42
-50.852
-52.027
-53.199
-54.552
-56.186
-58.284
-60.977
-64.186
-67.688
-70.98
-73.446
-74.921
-75.426
-74.821
-73.074
-70.255
-66.633
-63.067
-60.382
-58.583
-57.49
-57.148
-57.67
-59.522
-63.175
-68.423
-75.089
-83.831
-94.407
-105.234
-114.664
-120.045
-120.767
-119.159
-115.181
-106.6
-86.186
-42.781
30.151
134.863
265.924
412.878
568.135
723.601
872.506
1005.73
1107.664
1161.477
1152.525
1075.355
935.111
747.838
537.576
328.045
142.947
-1.652
-101.924
-160.461
-187.676
-195.311
-188.651
-172.159
-149.798
-124.23
-101.55
-84.748
-71.473
-60.351
-48.9
-37.403
-30.46
-29.954
-36.424
-48.679
-62.796
-76.39
-87.975
-96.14
-100.819
-102.2
-100.411
-96.174
-90.372
-83.742
-77.285
-72.029
-68.467
-66.792
-66.964
-68.659
-71.557
-75.351
-79.584
-83.739
-87.454
-90.524
-92.881
-94.567
-95.601
-95.979
-95.733
-94.922
-93.62
-91.878
-89.733
-87.209
-84.337
-81.186
-77.836
-74.37
-70.867
-67.378
-63.93
-60.543
-57.229
-53.986
-50.811
-47.688
-44.59
-41.496
-38.388
-35.252
-32.071
-28.824
-25.487
-22.034
-18.445
-14.702
-10.793
-6.709
-2.443
2.011
6.653
11.482
16.492
21.68
27.042
32.573
38.268
44.119
50.114
56.242
62.49
68.84
75.275
81.773
88.311
94.865
101.408
107.914
114.354
120.7
126.921
132.988
138.87
144.537
149.96
155.109
159.956
164.475
168.639
172.425
175.811
178.776
181.303
183.376
184.982
186.108
186.745
186.886
186.527
185.667
184.304
182.443
180.089
177.251
173.94
170.17
165.957
161.319
156.278
150.856
145.078
138.969
132.558
125.873
118.943
111.798
104.471
96.991
89.389
81.696
73.943
66.159
58.372
50.61
42.899
35.267
27.736
20.33
13.071
5.98
-0.924
-7.625
-14.105
-20.351
-26.351
-32.093
-37.57
-42.773
-47.698
-52.34
-56.699
-60.773
-64.564
-68.075
-71.309
-74.273
-76.972
-79.415
-81.608
-83.562
-85.284
-86.787
-88.078
-89.169
-90.07
-90.791
-91.343
-91.736
-91.981
-92.088
-92.067
-91.929
-91.683
-91.34
-90.908
-90.397
-89.815
-89.171
-88.473
-87.727
-86.94
-86.119
-85.27
-84.396
-83.503
-82.595
-81.675
-80.747
-79.812
-78.874
-77.934
-76.995
-76.059
-75.127
-74.202
-73.285
-72.378
-71.483
-70.602
-69.736
-68.888
-68.059
-67.25
-66.462
-65.696
-64.954
-64.235
-63.541
-62.873
-62.23
-61.613
-61.023
-60.461
-59.927
-59.423
-58.948
-58.504
-58.092
-57.714
-57.37
-57.062
-56.79
-56.555
-56.359
-56.202
-56.083
-56.004
-55.964
-55.962
-55.997
-56.07
-56.179
-56.323
-56.501
-56.713
-56.958
-57.234
-57.543
-57.882
-58.251
-58.651
-59.079
-59.537
-60.022
-60.535
-61.073
-61.637
-62.223
-62.831
-63.458
-64.102
-64.76
-65.428
-66.104
-66.785
-67.466
-68.145
-68.817
-69.479
-70.128
-70.76
-71.372
-71.96
-72.52
-73.048
-73.54
-73.99
-74.394
-74.745
-75.038
-75.268
-75.428
-75.513
-75.516
-75.432
-75.253
-74.975
-74.593
-74.101
-73.493
-72.767
-71.918
-70.945
-69.846
-68.621
-67.268
-65.79
-64.187
-62.462
-60.618
-58.659
-56.588
-54.413
-52.138
-49.772
-47.324
-44.803
-42.223
-39.595
-36.937
-34.266
-31.603
-28.967
-26.383
-23.87
-21.448
-19.136
-16.952
-14.913
-13.035
-11.336
-9.83
-8.532
-7.457
-6.624
-6.043
-5.725
-5.667
-5.861
-6.299
-6.979
-7.907
-9.097
-10.561
-12.302
-14.325
-16.639
-19.239
-22.118
-25.238
-28.53
-31.931
-35.388
-38.87
-42.378
-45.884
-49.323
-52.61
-55.631
-58.295
-60.574
-62.407
-63.688
-64.415
-64.629
-64.509
-64.446
-64.673
-65.237
-66.194
-67.522
-69.115
-70.984
-72.938
-74.46
-75.39
-75.768
-75.576
-75.099
-74.582
-73.917
-73.226
-72.965
-73.111
-73.708
-75.229
-77.688
-81.173
-86.343
-93.448
-102.231
-113.049
-124.674
-133.308
-136.044
-129.977
-113.831
-91.097
-63.475
-28.065
20.324
90.546
189.714
315.82
462.97
623.149
784.033
935.617
1064.861
1152.115
1181.613
1141.726
1030.802
863.743
661.99
450.123
251.735
81.727
-49.411
-136.072
-179.322
-183.772
-161.079
-127.19
-96.549
-79.959
-78.88
-86.351
-92.691
-90.296
-78.098
-61.435
-48.034
-42.494
-45.134
-53.44
-63.411
-72.87
-81.243
-87.729
-91.872
-93.494
-92.43
-89.13
-84.474
-79.035
-73.416
-68.537
-65.039
-63.245
-63.306
-65
-67.946
-71.889
-76.453
-81.135
-85.568
-89.469
-92.663
-95.151
-96.944
-98.032
-98.453
-98.261
-97.504
-96.246
-94.533
-92.389
-89.86
-87.003
-83.888
-80.598
-77.209
-73.787
-70.379
-67.009
-63.692
-60.434
-57.226
-54.056
-50.906
-47.75
-44.566
-41.336
-38.041
-34.665
-31.185
-27.577
-23.821
-19.899
-15.795
-11.501
-7.01
-2.316
2.58
7.678
12.974
18.46
24.129
29.976
35.992
42.168
48.492
54.95
61.527
68.205
74.965
81.786
88.643
95.51
102.36
109.166
115.897
122.524
129.015
135.34
141.467
147.366
153.005
158.354
163.385
168.069
172.38
176.293
179.785
182.834
185.422
187.533
189.152
190.267
190.87
190.954
190.514
189.55
188.062
186.054
183.532
180.505
176.985
172.986
168.524
163.62
158.295
152.571
146.475
140.033
133.274
126.228
118.925
111.396
103.675
95.793
87.782
79.677
71.507
63.305
55.101
46.925
38.804
30.767
22.839
15.044
7.404
-0.059
-7.326
-14.379
-21.202
-27.78
-34.101
-40.154
-45.931
-51.422
-56.624
-61.532
-66.143
-70.459
-74.479
-78.206
-81.644
-84.799
-87.677
-90.286
-92.634
-94.731
-96.586
-98.211
-99.616
-100.813
-101.813
-102.627
-103.267
-103.743
-104.067
-104.249
-104.299
-104.226
-104.041
-103.752
-103.368
-102.896
-102.345
-101.722
-101.033
-100.285
-99.484
-98.634
-97.74
-96.807
-95.839
-94.837
-93.806
-92.746
-91.661
-90.552
-89.419
-88.263
-87.086
-85.887
-84.667
-83.426
-82.163
-80.881
-79.578
-78.257
-76.916
-75.558
-74.184
-72.796
-71.393
-69.979
-68.555
-67.122
-65.683
-64.24
-62.794
-61.349
-59.906
-58.468
-57.038
-55.618
-54.213
-52.824
-51.456
-50.112
-48.795
-47.508
-46.256
-45.042
-43.87
-42.744
-41.667
-40.643
-39.676
-38.768
-37.922
-37.142
-36.43
-35.787
-35.217
-34.721
-34.301
-33.959
-33.695
-33.51
-33.407
-33.386
-33.446
-33.589
-33.814
-34.12
-34.507
-34.973
-35.517
-36.135
-36.826
-37.585
-38.41
-39.296
-40.238
-41.231
-42.27
-43.349
-44.462
-45.602
-46.761
-47.934
-49.111
-50.287
-51.452
-52.598
-53.717
-54.799
-55.837
-56.82
-57.74
-58.587
-59.352
-60.025
-60.597
-61.059
-61.403
-61.619
-61.7
-61.637
-61.426
-61.059
-60.533
-59.843
-58.986
-57.959
-56.763
-55.397
-53.863
-52.162
-50.299
-48.279
-46.107
-43.791
-41.34
-38.763
-36.074
-33.287
-30.419
-27.485
-24.506
-21.502
-18.493
-15.503
-12.551
-9.66
-6.848
-4.139
-1.552
0.89
3.163
5.245
7.117
8.759
10.154
11.285
12.139
12.711
12.997
12.99
12.682
12.056
11.096
9.793
8.143
6.147
3.816
1.163
-1.783
-4.975
-8.364
-11.9
-15.535
-19.236
-22.965
-26.673
-30.3
-33.767
-36.996
-39.924
-42.499
-44.676
-46.442
-47.805
-48.817
-49.582
-50.195
-50.753
-51.36
-52.116
-53.133
-54.532
-56.418
-58.918
-62.221
-66.456
-71.639
-77.617
-83.999
-90.333
-96.186
-101.021
-104.195
-105.174
-103.705
-100.123
-95.355
-90.373
-86.143
-83.666
-83.81
-87.503
-94.396
-101.746
-106.278
-104.686
-95.457
-80.904
-62.057
-36.23
2.11
62.418
151.9
269.415
409.198
561.622
715.175
861.812
991.284
1089.646
1141.62
1132.041
1054.961
915.604
730.773
525.302
323.285
145.772
5.067
-94.833
-156.592
-187.231
-191.939
-178
-151.304
-118.897
-93.19
-79.853
-80.164
-89.898
-96.972
-95.457
-85.305
-70.212
-58.031
-52.065
-51.281
-53.894
-57.42
-61.028
-65.144
-69.386
-73.098
-75.935
-77.788
-78.874
-79.392
-79.361
-78.843
-78.282
-78.375
-79.507
-81.727
-84.863
-88.602
-92.698
-96.954
-101.074
-104.69
-107.568
-109.607
-110.799
-111.235
-110.989
-110.103
-108.645
-106.694
-104.315
-101.57
-98.52
-95.218
-91.732
-88.145
-84.514
-80.881
-77.275
-73.704
-70.171
-66.667
-63.174
-59.666
-56.127
-52.546
-48.913
-45.222
-41.459
-37.606
-33.648
-29.57
-25.357
-20.999
-16.487
-11.815
-6.982
-1.991
3.152
8.439
13.865
19.425
25.111
30.917
36.834
42.851
48.958
55.141
61.384
67.668
73.975
80.282
86.566
92.805
98.974
105.048
111.002
116.81
122.445
127.882
133.095
138.057
142.743
147.129
151.19
154.905
158.252
161.212
163.767
165.9
167.598
168.85
169.646
169.977
169.839
169.228
168.145
166.59
164.569
162.086
159.153
155.779
151.979
147.77
143.169
138.197
132.876
127.228
121.279
115.056
108.585
101.894
95.012
87.969
80.795
73.519
66.173
58.784
51.383
43.997
36.655
29.383
22.207
15.15
8.235
1.485
-5.081
-11.445
-17.589
-23.499
-29.161
-34.564
-39.698
-44.554
-49.128
-53.414
-57.411
-61.116
-64.53
-67.656
-70.497
-73.058
-75.345
-77.365
-79.127
-80.641
-81.918
-82.968
-83.804
-84.438
-84.883
-85.151
-85.256
-85.212
-85.03
-84.724
-84.307
-83.79
-83.187
-82.508
-81.764
-80.967
-80.124
-79.247
-78.343
-77.419
-76.484
-75.542
-74.6
-73.663
-72.735
-71.819
-70.92
-70.038
-69.176
-68.335
-67.515
-66.715
-65.935
-65.175
-64.432
-63.704
-62.99
-62.287
-61.594
-60.907
-60.225
-59.544
-58.864
-58.18
-57.492
-56.797
-56.094
-55.38
-54.656
-53.92
-53.171
-52.41
-51.637
-50.851
-50.055
-49.248
-48.431
-47.608
-46.778
-45.946
-45.112
-44.281
-43.455
-42.638
-41.833
-41.045
-40.277
-39.534
-38.821
-38.14
-37.498
-36.898
-36.345
-35.842
-35.394
-35.005
-34.678
-34.417
-34.224
-34.103
-34.056
-34.084
-34.19
-34.373
-34.636
-34.977
-35.396
-35.892
-36.463
-37.106
-37.82
-38.6
-39.442
-40.341
-41.293
-42.292
-43.331
-44.404
-45.501
-46.617
-47.741
-48.866
-49.981
-51.077
-52.144
-53.172
-54.151
-55.071
-55.922
-56.693
-57.375
-57.958
-58.432
-58.788
-59.016
-59.111
-59.062
-58.867
-58.518
-58.012
-57.345
-56.515
-55.521
-54.362
-53.04
-51.557
-49.916
-48.122
-46.182
-44.103
-41.897
-39.575
-37.15
-34.638
-32.057
-29.424
-26.759
-24.083
-21.42
-18.794
-16.229
-13.745
-11.365
-9.11
-7.001
-5.06
-3.305
-1.751
-0.414
0.69
1.546
2.138
2.459
2.513
2.303
1.835
1.108
0.108
-1.17
-2.724
-4.552
-6.655
-9.029
-11.67
-14.559
-17.642
-20.861
-24.161
-27.502
-30.87
-34.257
-37.634
-40.95
-44.13
-47.096
-49.788
-52.167
-54.165
-55.705
-56.795
-57.531
-58.135
-58.929
-60.182
-62.054
-64.636
-67.971
-71.915
-76.216
-80.506
-84.201
-86.751
-87.724
-86.863
-84.116
-79.754
-74.226
-68.003
-61.773
-56.398
-52.874
-52.007
-54.477
-60.66
-70.423
-83.784
-99.81
-115.725
-128.317
-134.359
-132.642
-125.461
-114.973
-100.837
-77.87
-36.415
32.73
135.001
269.298
429.003
602.667
774.941
927.557
1040.275
1097.526
1090.974
1023.834
908.62
758.971
589.937
412.001
235.218
74.411
-58.776
-154.371
-209.45
-231.498
-228.269
-207.248
-174.501
-134.131
-93.816
-61.676
-42.801
-37.208
-38.463
-40.301
-39.716
-37.12
-36.802
-41.454
-50.35
-61.724
-72.547
-80.373
-84.893
-86.452
-85.526
-82.846
-79.058
-74.602
-70.193
-66.788
-64.811
-64.383
-65.525
-67.921
-71.254
-75.309
-79.663
-83.794
-87.407
-90.321
-92.456
-93.89
-94.643
-94.699
-94.117
-92.973
-91.332
-89.261
-86.797
-83.954
-80.784
-77.362
-73.771
-70.108
-66.433
-62.783
-59.184
-55.65
-52.19
-48.808
-45.489
-42.211
-38.957
-35.711
-32.464
-29.205
-25.918
-22.577
-19.161
-15.646
-12.013
-8.248
-4.338
-0.273
3.956
8.352
12.916
17.648
22.547
27.613
32.846
38.245
43.806
49.524
55.39
61.397
67.533
73.783
80.132
86.56
93.049
99.577
106.12
112.653
119.152
125.588
131.933
138.159
144.236
150.133
155.82
161.267
166.445
171.324
175.875
180.072
183.888
187.299
190.283
192.819
194.889
196.476
197.567
198.15
198.216
197.758
196.774
195.262
193.224
190.665
187.593
184.017
179.952
175.414
170.419
164.991
159.151
152.924
146.338
139.42
132.202
124.716
116.992
109.067
100.973
92.745
84.419
76.03
67.612
59.198
50.823
42.518
34.315
26.243
18.33
10.604
3.089
-4.191
-11.216
-17.966
-24.423
-30.573
-36.403
-41.901
-47.059
-51.87
-56.331
-60.438
-64.191
-67.593
-70.647
-73.358
-75.733
-77.781
-79.512
-80.938
-82.072
-82.928
-83.521
-83.866
-83.98
-83.879
-83.581
-83.102
-82.46
-81.672
-80.753
-79.721
-78.59
-77.377
-76.095
-74.759
-73.381
-71.974
-70.549
-69.117
-67.688
-66.27
-64.871
-63.499
-62.159
-60.856
-59.596
-58.382
-57.217
-56.102
-55.039
-54.03
-53.072
-52.167
-51.312
-50.506
-49.746
-49.03
-48.355
-47.719
-47.119
-46.552
-46.014
-45.505
-45.02
-44.558
-44.118
-43.696
-43.293
-42.906
-42.535
-42.18
-41.841
-41.517
-41.209
-40.918
-40.644
-40.387
-40.15
-39.932
-39.736
-39.562
-39.413
-39.29
-39.196
-39.132
-39.101
-39.104
-39.145
-39.226
-39.348
-39.514
-39.725
-39.983
-40.289
-40.645
-41.049
-41.504
-42.006
-42.556
-43.151
-43.789
-44.468
-45.182
-45.93
-46.706
-47.507
-48.327
-49.161
-50.004
-50.849
-51.692
-52.524
-53.34
-54.133
-54.893
-55.615
-56.29
-56.911
-57.469
-57.956
-58.365
-58.688
-58.915
-59.041
-59.056
-58.954
-58.728
-58.373
-57.883
-57.255
-56.486
-55.574
-54.518
-53.32
-51.98
-50.5
-48.883
-47.133
-45.256
-43.257
-41.144
-38.926
-36.613
-34.218
-31.757
-29.246
-26.701
-24.14
-21.581
-19.044
-16.55
-14.12
-11.774
-9.53
-7.407
-5.427
-3.611
-1.979
-0.547
0.672
1.666
2.425
2.936
3.19
3.186
2.927
2.415
1.65
0.621
-0.678
-2.248
-4.084
-6.178
-8.514
-11.083
-13.862
-16.811
-19.886
-23.035
-26.205
-29.361
-32.469
-35.495
-38.406
-41.153
-43.668
-45.897
-47.783
-49.276
-50.383
-51.114
-51.455
-51.49
-51.366
-51.283
-51.594
-52.602
-54.38
-56.952
-60.368
-64.545
-69.352
-74.443
-78.946
-81.951
-82.984
-81.808
-78.355
-72.762
-65.103
-55.9
-46.678
-39.194
-34.954
-35.1
-40.135
-50.515
-65.601
-82.713
-98.562
-109.305
-114.563
-118.045
-119.643
-115.844
-95.837
-43.396
46.18
168.993
312.414
457.213
595.799
725.629
843.923
947.42
1022.837
1053.516
1028.348
944.08
806.614
631.472
439.341
250.611
87.16
-35.89
-114.783
-152.509
-161.744
-156.119
-143.865
-131.269
-119.442
-108.955
-100.794
-92.91
-84.535
-74.552
-63.299
-54.838
-51.242
-52.97
-59.123
-66.65
-73.837
-80.39
-85.823
-89.657
-91.618
-91.577
-89.846
-87.138
-83.94
-80.442
-77.063
-74.501
-73.18
-73.273
-74.737
-77.226
-80.454
-84.247
-88.28
-92.115
-95.454
-98.106
-99.992
-101.175
-101.691
-101.54
-100.773
-99.465
-97.682
-95.489
-92.93
-90.028
-86.835
-83.427
-79.881
-76.285
-72.696
-69.147
-65.661
-62.248
-58.909
-55.638
-52.416
-49.219
-46.028
-42.826
-39.6
-36.337
-33.021
-29.628
-26.139
-22.53
-18.784
-14.888
-10.83
-6.603
-2.201
2.377
7.13
12.054
17.145
22.401
27.818
33.391
39.111
44.971
50.958
57.06
63.262
69.545
75.889
82.273
88.673
95.063
101.419
107.713
113.916
120
125.934
131.691
137.238
142.547
147.588
152.333
156.752
160.821
164.513
167.805
170.675
173.103
175.071
176.565
177.572
178.08
178.084
177.577
176.557
175.025
172.984
170.44
167.402
163.88
159.89
155.448
150.573
145.287
139.612
133.576
127.204
120.525
113.569
106.368
98.953
91.357
83.614
75.756
67.817
59.83
51.827
43.842
35.904
28.043
20.289
12.667
5.204
-2.077
-9.154
-16.008
-22.619
-28.973
-35.055
-40.854
-46.36
-51.565
-56.464
-61.054
-65.332
-69.299
-72.957
-76.309
-79.361
-82.119
-84.592
-86.789
-88.721
-90.4
-91.838
-93.048
-94.045
-94.843
-95.457
-95.903
-96.194
-96.347
-96.376
-96.296
-96.12
-95.862
-95.536
-95.152
-94.722
-94.256
-93.764
-93.254
-92.734
-92.211
-91.69
-91.176
-90.673
-90.186
-89.716
-89.264
-88.833
-88.423
-88.033
-87.663
-87.311
-86.976
-86.655
-86.346
-86.045
-85.75
-85.457
-85.162
-84.862
-84.554
-84.233
-83.896
-83.539
-83.161
-82.757
-82.326
-81.867
-81.377
-80.856
-80.305
-79.722
-79.11
-78.469
-77.802
-77.109
-76.394
-75.66
-74.909
-74.145
-73.372
-72.594
-71.815
-71.04
-70.273
-69.518
-68.781
-68.066
-67.379
-66.723
-66.103
-65.525
-64.992
-64.51
-64.081
-63.711
-63.403
-63.16
-62.983
-62.876
-62.84
-62.874
-62.978
-63.152
-63.394
-63.701
-64.072
-64.501
-64.987
-65.522
-66.104
-66.725
-67.38
-68.061
-68.761
-69.473
-70.187
-70.895
-71.589
-72.259
-72.897
-73.493
-74.039
-74.524
-74.94
-75.277
-75.526
-75.678
-75.724
-75.656
-75.467
-75.151
-74.701
-74.113
-73.384
-72.511
-71.492
-70.327
-69.018
-67.565
-65.971
-64.241
-62.379
-60.393
-58.29
-56.08
-53.775
-51.39
-48.939
-46.439
-43.909
-41.366
-38.831
-36.322
-33.859
-31.459
-29.138
-26.913
-24.803
-22.827
-21.005
-19.355
-17.892
-16.633
-15.592
-14.781
-14.21
-13.879
-13.787
-13.937
-14.335
-15
-15.945
-17.177
-18.7
-20.512
-22.606
-24.968
-27.57
-30.361
-33.289
-36.3
-39.348
-42.402
-45.423
-48.361
-51.155
-53.727
-56.003
-57.928
-59.455
-60.545
-61.186
-61.39
-61.212
-60.753
-60.12
-59.436
-58.812
-58.348
-58.157
-58.342
-59.044
-60.464
-62.76
-65.989
-70.109
-74.907
-80.049
-85.181
-89.792
-93.193
-94.807
-94.311
-91.71
-87.504
-82.646
-78.264
-75.542
-75.854
-79.421
-85.117
-91.855
-97.668
-102.143
-106.577
-109.331
-107.203
-92.722
-55.494
9.674
104.417
223.767
358.669
503.594
652.701
800.578
937.761
1047.279
1110.518
1111.115
1043.556
914.188
738.946
540.637
341.544
162.467
19.11
-80.017
-134.943
-152.712
-142.186
-115.663
-81.867
-48.755
-27.759
-22.232
-32.742
-55.22
-77.176
-92.587
-99.998
-100.379
-100.045
-101.341
-102.853
-103.498
-101.209
-95.561
-88.025
-79.732
-71.607
-64.43
-58.62
-54.375
-51.781
-50.736
-50.979
-52.311
-54.602
-57.671
-61.326
-65.401
-69.69
-74.002
-78.162
-81.962
-85.241
-87.898
-89.864
-91.115
-91.653
-91.495
-90.688
-89.297
-87.385
-85.011
-82.232
-79.102
-75.694
-72.093
-68.382
-64.649
-60.951
-57.326
-53.795
-50.365
-47.032
-43.781
-40.585
-37.409
-34.226
-31.015
-27.756
-24.435
-21.032
-17.523
-13.889
-10.108
-6.165
-2.045
2.261
6.761
11.46
16.358
21.452
26.737
32.206
37.856
43.68
49.672
55.824
62.125
68.562
75.123
81.789
88.542
95.36
102.218
109.092
115.954
122.776
129.53
136.185
142.71
149.076
155.25
161.203
166.903
172.321
177.427
182.193
186.592
190.598
194.187
197.338
200.03
202.246
203.97
205.19
205.894
206.075
205.728
204.849
203.439
201.5
199.038
196.061
192.58
188.61
184.168
179.272
173.944
168.207
162.088
155.613
148.811
141.712
134.347
126.747
118.946
110.977
102.873
94.668
86.394
78.085
69.772
61.487
53.259
45.119
37.093
29.207
21.487
13.955
6.633
-0.46
-7.307
-13.891
-20.2
-26.221
-31.946
-37.366
-42.478
-47.276
-51.76
-55.929
-59.786
-63.333
-66.577
-69.523
-72.179
-74.555
-76.66
-78.506
-80.105
-81.469
-82.613
-83.549
-84.293
-84.858
-85.259
-85.511
-85.628
-85.623
-85.512
-85.306
-85.019
-84.664
-84.25
-83.791
-83.294
-82.77
-82.226
-81.671
-81.112
-80.553
-80.001
-79.46
-78.933
-78.424
-77.934
-77.466
-77.02
-76.597
-76.196
-75.816
-75.457
-75.115
-74.79
-74.477
-74.176
-73.882
-73.591
-73.301
-73.008
-72.708
-72.399
-72.076
-71.737
-71.381
-71.003
-70.604
-70.181
-69.733
-69.262
-68.766
-68.245
-67.702
-67.137
-66.551
-65.948
-65.33
-64.699
-64.06
-63.415
-62.769
-62.125
-61.489
-60.865
-60.257
-59.672
-59.114
-58.589
-58.103
-57.661
-57.268
-56.931
-56.655
-56.444
-56.302
-56.234
-56.242
-56.329
-56.496
-56.744
-57.073
-57.483
-57.971
-58.536
-59.175
-59.884
-60.659
-61.493
-62.38
-63.315
-64.288
-65.291
-66.316
-67.352
-68.389
-69.418
-70.427
-71.406
-72.341
-73.222
-74.037
-74.773
-75.418
-75.959
-76.386
-76.686
-76.85
-76.868
-76.731
-76.433
-75.966
-75.326
-74.51
-73.515
-72.34
-70.985
-69.453
-67.746
-65.87
-63.832
-61.641
-59.306
-56.84
-54.261
-51.584
-48.83
-46.017
-43.169
-40.306
-37.454
-34.634
-31.867
-29.175
-26.578
-24.098
-21.761
-19.59
-17.606
-15.831
-14.285
-12.985
-11.949
-11.191
-10.713
-10.518
-10.611
-11.002
-11.711
-12.756
-14.146
-15.883
-17.97
-20.397
-23.15
-26.2
-29.492
-32.968
-36.569
-40.243
-43.955
-47.66
-51.304
-54.818
-58.116
-61.118
-63.762
-65.995
-67.772
-69.077
-69.921
-70.363
-70.513
-70.493
-70.431
-70.455
-70.686
-71.248
-72.258
-73.852
-76.217
-79.52
-83.84
-89.109
-95.077
-101.388
-107.658
-113.381
-117.889
-120.559
-120.936
-119.075
-115.622
-111.402
-107.461
-105.009
-105.143
-109.005
-116.608
-125.774
-133.492
-136.32
-132.476
-123.234
-109.375
-89.678
-58.827
-7.901
71.228
183.245
326.445
494.335
676.191
856.696
1018.298
1140.995
1205.774
1200.834
1124.608
985.128
799.894
591.436
380.941
189.256
33.247
-78.323
-142.408
-163.024
-152.842
-126.487
-97.724
-80.039
-77.536
-87.2
-103.433
-115.521
-117.862
-110.861
-97.008
-82.691
-71.501
-63.487
-57.848
-52.425
-46.669
-41.669
-38.444
-38.036
-40.589
-45.304
-51.386
-57.945
-64.215
-69.757
-74.137
-77.032
-78.501
-78.875
-78.678
-78.601
-79.022
-79.972
-81.416
-83.196
-85.136
-87.097
-88.829
-90.003
-90.453
-90.158
-89.166
-87.616
-85.6
-83.156
-80.353
-77.277
-74.009
-70.63
-67.203
-63.764
-60.345
-56.974
-53.67
-50.449
-47.308
-44.231
-41.191
-38.157
-35.106
-32.025
-28.902
-25.725
-22.477
-19.139
-15.693
-12.123
-8.413
-4.55
-0.519
3.693
8.093
12.684
17.467
22.437
27.592
32.931
38.452
44.15
50.019
56.049
62.233
68.557
75.008
81.567
88.215
94.929
101.685
108.459
115.223
121.951
128.613
135.18
141.621
147.906
154.003
159.881
165.509
170.856
175.891
180.585
184.91
188.838
192.347
195.412
198.012
200.131
201.751
202.859
203.444
203.498
203.016
201.993
200.431
198.33
195.698
192.543
188.876
184.711
180.065
174.957
169.408
163.442
157.085
150.363
143.307
135.947
128.315
120.444
112.368
104.124
95.745
87.268
78.729
70.162
61.602
53.082
44.636
36.294
28.086
20.04
12.184
4.543
-2.861
-10.006
-16.873
-23.445
-29.707
-35.646
-41.252
-46.517
-51.435
-56.002
-60.215
-64.075
-67.584
-70.747
-73.569
-76.058
-78.224
-80.079
-81.635
-82.906
-83.908
-84.657
-85.171
-85.467
-85.563
-85.479
-85.232
-84.841
-84.325
-83.701
-82.986
-82.198
-81.351
-80.463
-79.547
-78.616
-77.684
-76.761
-75.858
-74.984
-74.148
-73.357
-72.617
-71.933
-71.308
-70.746
-70.249
-69.816
-69.449
-69.145
-68.902
-68.717
-68.587
-68.506
-68.469
-68.47
-68.505
-68.565
-68.646
-68.741
-68.843
-68.947
-69.048
-69.139
-69.215
-69.274
-69.309
-69.318
-69.298
-69.247
-69.162
-69.043
-68.888
-68.698
-68.473
-68.214
-67.924
-67.604
-67.256
-66.883
-66.49
-66.08
-65.657
-65.227
-64.794
-64.363
-63.941
-63.534
-63.146
-62.783
-62.452
-62.155
-61.899
-61.686
-61.52
-61.404
-61.339
-61.328
-61.372
-61.47
-61.622
-61.827
-62.082
-62.386
-62.734
-63.122
-63.544
-63.995
-64.468
-64.956
-65.45
-65.944
-66.429
-66.896
-67.334
-67.735
-68.087
-68.381
-68.606
-68.75
-68.804
-68.757
-68.598
-68.32
-67.915
-67.375
-66.693
-65.866
-64.888
-63.757
-62.47
-61.026
-59.426
-57.671
-55.765
-53.713
-51.521
-49.2
-46.761
-44.218
-41.588
-38.887
-36.133
-33.344
-30.541
-27.749
-24.99
-22.286
-19.659
-17.133
-14.733
-12.484
-10.412
-8.537
-6.877
-5.449
-4.269
-3.355
-2.724
-2.381
-2.329
-2.571
-3.111
-3.961
-5.133
-6.629
-8.446
-10.576
-13.009
-15.736
-18.738
-21.977
-25.408
-28.981
-32.636
-36.337
-40.05
-43.738
-47.373
-50.899
-54.244
-57.348
-60.149
-62.584
-64.646
-66.324
-67.584
-68.509
-69.246
-70.003
-71.141
-72.97
-75.566
-78.964
-83.201
-88.131
-93.567
-99.16
-104.038
-107.317
-108.571
-107.582
-104.342
-99.177
-92.34
-84.25
-76.267
-70.16
-67.183
-68.178
-73.557
-83.053
-96.335
-113.177
-131.172
-145.698
-152.929
-149.076
-132.748
-107.114
-73.062
-29.074
27.477
103.861
204.872
330.257
478.029
639.678
802.435
950.462
1064.063
1126.691
1127.27
1065.974
952.632
799.046
621.606
433.665
247.291
82.344
-45.648
-126.036
-153.696
-142.348
-111.788
-79.546
-63.083
-65.064
-78.668
-96.606
-107.122
-105.054
-92.81
-74.367
-57.431
-47.032
-43.266
-44.578
-48.084
-52.381
-57.672
-64.113
-71.367
-78.081
-83.142
-86.303
-87.627
-87.324
-85.618
-82.667
-79.043
-75.813
-73.668
-72.848
-73.383
-75.03
-77.542
-80.75
-84.29
-87.624
-90.412
-92.477
-93.754
-94.337
-94.293
-93.63
-92.419
-90.75
-88.688
-86.298
-83.618
-80.663
-77.479
-74.137
-70.704
-67.26
-63.854
-60.509
-57.239
-54.046
-50.92
-47.851
-44.819
-41.798
-38.768
-35.713
-32.615
-29.46
-26.227
-22.893
-19.435
-15.826
-12.047
-8.083
-3.921
0.446
5.023
9.814
14.819
20.033
25.454
31.079
36.902
42.918
49.117
55.489
62.019
68.691
75.487
82.387
89.365
96.396
103.453
110.507
117.529
124.485
131.345
138.075
144.642
151.011
157.149
163.023
168.6
173.848
178.736
183.236
187.32
190.962
194.141
196.836
199.027
200.701
201.844
202.447
202.501
202.003
200.952
199.35
197.2
194.511
191.294
187.561
183.33
178.62
173.453
167.851
161.843
155.456
148.719
141.664
134.324
126.733
118.925
110.934
102.796
94.547
86.22
77.851
69.472
61.116
52.815
44.598
36.493
28.529
20.728
13.117
5.715
-1.458
-8.384
-15.048
-21.436
-27.536
-33.341
-38.841
-44.033
-48.912
-53.478
-57.731
-61.674
-65.311
-68.646
-71.689
-74.446
-76.929
-79.147
-81.112
-82.837
-84.335
-85.618
-86.7
-87.595
-88.317
-88.877
-89.29
-89.569
-89.725
-89.77
-89.716
-89.574
-89.354
-89.065
-88.716
-88.315
-87.869
-87.387
-86.873
-86.333
-85.773
-85.196
-84.605
-84.005
-83.396
-82.781
-82.161
-81.537
-80.908
-80.275
-79.637
-78.995
-78.347
-77.693
-77.033
-76.367
-75.694
-75.015
-74.33
-73.64
-72.946
-72.249
-71.55
-70.852
-70.156
-69.466
-68.782
-68.11
-67.45
-66.807
-66.184
-65.583
-65.009
-64.464
-63.953
-63.478
-63.043
-62.651
-62.306
-62.012
-61.77
-61.585
-61.458
-61.392
-61.388
-61.448
-61.572
-61.759
-62.011
-62.325
-62.699
-63.131
-63.617
-64.155
-64.738
-65.364
-66.025
-66.715
-67.429
-68.158
-68.895
-69.633
-70.363
-71.075
-71.762
-72.413
-73.02
-73.574
-74.066
-74.486
-74.825
-75.074
-75.225
-75.269
-75.2
-75.008
-74.688
-74.233
-73.641
-72.906
-72.025
-70.998
-69.822
-68.5
-67.034
-65.426
-63.682
-61.805
-59.805
-57.688
-55.464
-53.144
-50.74
-48.267
-45.741
-43.181
-40.605
-38.035
-35.49
-32.992
-30.564
-28.228
-26
-23.901
-21.948
-20.161
-18.558
-17.161
-15.984
-15.044
-14.354
-13.925
-13.77
-13.896
-14.301
-14.981
-15.938
-17.174
-18.705
-20.54
-22.682
-25.127
-27.87
-30.898
-34.197
-37.737
-41.467
-45.331
-49.277
-53.252
-57.224
-61.148
-64.962
-68.595
-71.96
-74.977
-77.591
-79.757
-81.429
-82.584
-83.233
-83.422
-83.244
-82.805
-82.204
-81.552
-80.966
-80.565
-80.47
-80.825
-81.82
-83.608
-86.23
-89.571
-93.352
-97.237
-100.897
-103.907
-105.686
-105.715
-103.735
-100.016
-95.354
-90.594
-86.6
-84.326
-84.71
-88.759
-96.304
-104.801
-110.834
-110.85
-103.317
-90.44
-74.22
-54.034
-25.203
21.218
94.651
200.204
336.814
498.443
672.191
841.032
986.583
1088.455
1130.55
1105.147
1013.33
864.962
677.536
471.91
268.614
88.617
-51.975
-145.588
-191.686
-196.914
-173.838
-135.282
-91.636
-56.265
-38.844
-41.935
-66.383
-100.507
-127.129
-137.647
-126.254
-98.377
-68.914
-45.902
-34.157
-33.55
-37.466
-42.794
-48.457
-53.719
-59.627
-65.944
-71.761
-76.673
-80.113
-81.823
-81.946
-80.797
-79.091
-77.706
-77.146
-77.564
-78.872
-80.826
-83.198
-85.784
-88.278
-90.302
-91.63
-92.177
-91.968
-91.123
-89.74
-87.867
-85.567
-82.915
-79.972
-76.802
-73.465
-70.005
-66.484
-62.954
-59.448
-55.998
-52.616
-49.3
-46.039
-42.809
-39.582
-36.338
-33.066
-29.755
-26.398
-22.979
-19.48
-15.883
-12.171
-8.326
-4.333
-0.177
4.153
8.662
13.353
18.222
23.264
28.476
33.854
39.394
45.091
50.936
56.921
63.034
69.263
75.592
82.004
88.476
94.986
101.511
108.026
114.503
120.916
127.237
133.435
139.483
145.349
151.004
156.418
161.56
166.402
170.916
175.074
178.85
182.221
185.163
187.658
189.688
191.237
192.292
192.842
192.881
192.403
191.406
189.888
187.854
185.309
182.26
178.72
174.7
170.219
165.294
159.945
154.197
148.074
141.603
134.811
127.728
120.385
112.814
105.046
97.116
89.057
80.901
72.683
64.435
56.189
47.977
39.829
31.773
23.838
16.049
8.431
1.007
-6.202
-13.178
-19.902
-26.359
-32.535
-38.42
-44.003
-49.277
-54.236
-58.876
-63.195
-67.194
-70.873
-74.237
-77.289
-80.037
-82.487
-84.65
-86.535
-88.154
-89.519
-90.642
-91.537
-92.218
-92.699
-92.996
-93.121
-93.089
-92.916
-92.614
-92.196
-91.677
-91.069
-90.383
-89.632
-88.825
-87.973
-87.086
-86.171
-85.238
-84.294
-83.346
-82.398
-81.457
-80.527
-79.612
-78.714
-77.837
-76.982
-76.149
-75.341
-74.557
-73.798
-73.062
-72.35
-71.66
-70.992
-70.344
-69.714
-69.103
-68.508
-67.928
-67.363
-66.811
-66.273
-65.748
-65.235
-64.735
-64.248
-63.773
-63.312
-62.865
-62.433
-62.016
-61.615
-61.232
-60.869
-60.526
-60.204
-59.907
-59.635
-59.39
-59.173
-58.985
-58.828
-58.702
-58.607
-58.543
-58.511
-58.51
-58.539
-58.597
-58.681
-58.792
-58.925
-59.078
-59.248
-59.43
-59.621
-59.815
-60.009
-60.196
-60.372
-60.529
-60.663
-60.768
-60.836
-60.862
-60.839
-60.76
-60.617
-60.406
-60.118
-59.747
-59.289
-58.738
-58.09
-57.341
-56.487
-55.525
-54.455
-53.274
-51.982
-50.582
-49.074
-47.46
-45.747
-43.94
-42.044
-40.069
-38.02
-35.909
-33.75
-31.557
-29.347
-27.139
-24.95
-22.803
-20.719
-18.718
-16.815
-15.026
-13.362
-11.839
-10.473
-9.279
-8.272
-7.467
-6.871
-6.495
-6.342
-6.41
-6.687
-7.159
-7.816
-8.66
-9.702
-10.959
-12.441
-14.154
-16.103
-18.284
-20.68
-23.267
-26.002
-28.849
-31.793
-34.821
-37.92
-41.079
-44.248
-47.36
-50.349
-53.097
-55.475
-57.444
-59.021
-60.328
-61.616
-63.048
-64.73
-66.854
-69.549
-72.725
-76.105
-79.061
-80.815
-81.058
-79.752
-76.835
-72.383
-66.573
-59.882
-53.468
-48.549
-45.547
-44.499
-45.344
-48.081
-53.115
-60.521
-69.659
-79.973
-91.463
-104.533
-118.528
-130.933
-138.708
-138.884
-132.421
-123.868
-113.678
-99.02
-70.045
-11.606
80.85
203.883
345.475
486.533
618.439
738.481
845.15
937.175
1003.128
1026.608
995.473
904.979
761.439
582.307
388.898
202.71
43.341
-78.77
-159.7
-202.496
-215.064
-202.209
-171.028
-127.803
-80.086
-41.233
-18.044
-12.639
-21.544
-33.108
-41.024
-43.968
-43.627
-46.097
-53.457
-63.781
-74.529
-82.325
-85.895
-85.938
-83.168
-78.496
-72.746
-66.688
-61.338
-57.453
-55.331
-54.975
-56.191
-58.741
-62.394
-66.789
-71.443
-75.932
-79.958
-83.365
-86.128
-88.229
-89.647
-90.372
-90.426
-89.854
-88.71
-87.039
-84.868
-82.229
-79.166
-75.744
-72.048
-68.165
-64.182
-60.158
-56.133
-52.136
-48.186
-44.295
-40.471
-36.701
-32.965
-29.244
-25.528
-21.804
-18.067
-14.298
-10.474
-6.576
-2.586
1.509
5.72
10.056
14.525
19.133
23.88
28.767
33.789
38.942
44.227
49.641
55.181
60.84
66.613
72.491
78.466
84.527
90.659
96.848
103.074
109.321
115.568
121.793
127.975
134.089
140.11
146.015
151.776
157.368
162.763
167.937
172.861
177.511
181.862
185.889
189.57
192.882
195.806
198.322
200.415
202.068
203.269
204.007
204.272
204.06
203.365
202.185
200.522
198.378
195.758
192.672
189.129
185.143
180.728
175.901
170.682
165.091
159.152
152.889
146.328
139.494
132.418
125.126
117.649
110.016
102.257
94.403
86.482
78.525
70.56
62.616
54.719
46.897
39.174
31.575
24.121
16.835
9.735
2.84
-3.834
-10.271
-16.459
-22.385
-28.04
-33.415
-38.504
-43.301
-47.805
-52.012
-55.924
-59.541
-62.867
-65.906
-68.664
-71.146
-73.36
-75.316
-77.021
-78.485
-79.72
-80.735
-81.542
-82.153
-82.578
-82.83
-82.919
-82.857
-82.655
-82.325
-81.876
-81.32
-80.667
-79.927
-79.111
-78.227
-77.285
-76.294
-75.263
-74.199
-73.11
-72.003
-70.885
-69.761
-68.637
-67.518
-66.41
-65.317
-64.243
-63.191
-62.166
-61.17
-60.207
-59.28
-58.392
-57.544
-56.739
-55.981
-55.271
-54.612
-54.006
-53.455
-52.961
-52.525
-52.148
-51.833
-51.579
-51.387
-51.256
-51.187
-51.179
-51.232
-51.344
-51.515
-51.742
-52.025
-52.362
-52.75
-53.186
-53.669
-54.195
-54.76
-55.362
-55.996
-56.657
-57.342
-58.046
-58.764
-59.489
-60.218
-60.942
-61.657
-62.355
-63.03
-63.674
-64.281
-64.843
-65.353
-65.805
-66.192
-66.509
-66.749
-66.906
-66.975
-66.951
-66.829
-66.604
-66.272
-65.829
-65.272
-64.599
-63.809
-62.9
-61.871
-60.723
-59.458
-58.078
-56.585
-54.983
-53.275
-51.467
-49.565
-47.578
-45.513
-43.381
-41.193
-38.966
-36.714
-34.454
-32.202
-29.973
-27.786
-25.659
-23.61
-21.656
-19.812
-18.094
-16.517
-15.102
-13.867
-12.826
-11.99
-11.368
-10.969
-10.806
-10.888
-11.217
-11.79
-12.607
-13.669
-14.989
-16.579
-18.438
-20.563
-22.942
-25.561
-28.406
-31.454
-34.664
-37.988
-41.379
-44.784
-48.169
-51.496
-54.725
-57.818
-60.724
-63.387
-65.755
-67.779
-69.415
-70.657
-71.545
-72.114
-72.393
-72.472
-72.52
-72.813
-73.653
-75.216
-77.466
-80.347
-83.984
-88.406
-93.399
-98.385
-102.467
-104.992
-105.872
-105.205
-102.795
-98.52
-92.555
-85.738
-79.8
-76.298
-75.869
-78.573
-84.541
-93.835
-106.242
-120.59
-133.196
-139.261
-135.264
-118.974
-91.06
-53.846
-6.648
52.77
127.867
222.249
333.562
455.928
582.631
705.315
817.6
911.698
974.628
992.529
952.95
851.1
695.082
503.193
301.853
117.001
-32.167
-134.318
-192.018
-213.847
-208.753
-189.346
-161.84
-131.661
-108.898
-96.242
-94.796
-101.997
-107.139
-105.38
-96.609
-83.542
-73.452
-69.426
-70.673
-75.792
-82.051
-88.267
-94.403
-99.603
-103.472
-105.967
-106.977
-106.837
-105.879
-104.203
-102.224
-100.717
-100.164
-100.754
-102.488
-105.075
-108.235
-111.787
-115.402
-118.674
-121.353
-123.298
-124.474
-124.964
-124.824
-124.083
-122.813
-121.092
-118.981
-116.538
-113.799
-110.8
-107.598
-104.269
-100.889
-97.518
-94.189
-90.924
-87.729
-84.605
-81.546
-78.533
-75.541
-72.554
-69.558
-66.539
-63.488
-60.386
-57.211
-53.944
-50.562
-47.045
-43.376
-39.544
-35.536
-31.348
-26.976
-22.418
-17.677
-12.753
-7.646
-2.36
3.104
8.739
14.539
20.492
26.588
32.811
39.145
45.568
52.06
58.597
65.155
71.706
78.223
84.676
91.036
97.273
103.355
109.249
114.925
120.352
125.498
130.333
134.829
138.959
142.696
146.015
148.896
151.318
153.262
154.714
155.661
156.092
155.999
155.379
154.229
152.55
150.347
147.625
144.397
140.673
136.471
131.807
126.703
121.182
115.268
108.989
102.374
95.452
88.257
80.82
73.175
65.356
57.397
49.332
41.196
33.021
24.842
16.689
8.594
0.587
-7.304
-15.051
-22.631
-30.018
-37.193
-44.135
-50.826
-57.253
-63.401
-69.259
-74.819
-80.073
-85.017
-89.647
-93.963
-97.966
-101.659
-105.047
-108.135
-110.932
-113.447
-115.691
-117.674
-119.408
-120.908
-122.185
-123.255
-124.131
-124.827
-125.359
-125.741
-125.987
-126.111
-126.126
-126.046
-125.882
-125.646
-125.349
-125.001
-124.611
-124.189
-123.741
-123.275
-122.796
-122.31
-121.821
-121.334
-120.85
-120.372
-119.902
-119.44
-118.987
-118.542
-118.105
-117.676
-117.253
-116.835
-116.421
-116.009
-115.598
-115.187
-114.773
-114.356
-113.935
-113.508
-113.075
-112.636
-112.19
-111.738
-111.28
-110.817
-110.35
-109.881
-109.412
-108.945
-108.482
-108.026
-107.581
-107.148
-106.733
-106.338
-105.967
-105.623
-105.31
-105.032
-104.791
-104.589
-104.43
-104.316
-104.247
-104.225
-104.251
-104.325
-104.446
-104.614
-104.826
-105.082
-105.38
-105.715
-106.086
-106.487
-106.915
-107.365
-107.83
-108.305
-108.783
-109.256
-109.717
-110.159
-110.572
-110.948
-111.279
-111.554
-111.766
-111.906
-111.964
-111.931
-111.801
-111.565
-111.217
-110.75
-110.16
-109.441
-108.589
-107.603
-106.482
-105.226
-103.836
-102.312
-100.661
-98.885
-96.991
-94.985
-92.873
-90.666
-88.378
-86.023
-83.62
-81.189
-78.747
-76.315
-73.915
-71.568
-69.291
-67.102
-65.014
-63.043
-61.212
-59.541
-58.054
-56.769
-55.699
-54.855
-54.244
-53.873
-53.738
-53.837
-54.166
-54.73
-55.543
-56.626
-57.992
-59.647
-61.594
-63.817
-66.29
-68.984
-71.852
-74.863
-78.003
-81.242
-84.551
-87.886
-91.17
-94.33
-97.31
-100.016
-102.336
-104.232
-105.699
-106.858
-107.997
-109.265
-110.671
-112.213
-113.831
-115.412
-116.88
-117.905
-117.873
-116.601
-114.358
-111.611
-109.034
-107.095
-105.925
-105.895
-107.668
-111.295
-116.203
-121.421
-125.664
-128.323
-129.588
-129.511
-128.132
-125.979
-123.816
-123.09
-124.634
-126.6
-126.295
-121.028
-109.905
-96.615
-84.156
-70.696
-49.935
-9.206
63.896
172.088
311.356
470.675
633.676
788.33
921.937
1020.424
1072.264
1065.412
995.598
867.48
693.482
495.185
294.734
114.702
-25.935
-119.45
-165.727
-172.857
-156.315
-129.339
-102.228
-84.169
-76.532
-77.022
-82.113
-83.907
-79.297
-70.13
-59.764
-53.969
-54.843
-60.782
-69.579
-78.435
-86.142
-92.513
-96.829
-98.874
-98.778
-96.747
-93.445
-89.417
-84.886
-80.328
-76.497
-73.86
-72.614
-72.743
-73.935
-75.945
-78.629
-81.683
-84.684
-87.289
-89.276
-90.552
-91.161
-91.127
-90.437
-89.122
-87.239
-84.86
-82.053
-78.862
-75.309
-71.428
-67.279
-62.938
-58.484
-53.996
-49.522
-45.094
-40.731
-36.445
-32.236
-28.098
-24.014
-19.959
-15.913
-11.86
-7.785
-3.675
0.489
4.731
9.072
13.534
18.134
22.885
27.799
32.884
38.147
43.591
49.215
55.017
60.995
67.146
73.467
79.954
86.6
93.395
100.33
107.391
114.566
121.835
129.18
136.581
144.012
151.452
158.873
166.249
173.554
180.757
187.832
194.747
201.474
207.982
214.243
220.227
225.906
231.253
236.241
240.846
245.044
248.814
252.138
254.998
257.379
259.269
260.656
261.534
261.897
261.742
261.068
259.879
258.178
255.975
253.28
250.105
246.467
242.384
237.875
232.963
227.671
222.025
216.052
209.78
203.239
196.46
189.474
182.315
175.014
167.605
160.12
