Name
Date of Birth,"Mar 27, 1959"
Recorded Date,2022-08-11 20:31:38 -0500
Classification,Sinus Rhythm
Symptoms,
Software Version,1.90
Device,"Watch4,2"
Sample Rate,510.227 hertz


Lead,Lead I
Unit,µV

38.248
40.002
41.382
42.385
43.009
43.256
43.135
42.655
41.825
40.649
39.119
37.23
34.98
32.373
29.414
26.117
22.496
18.581
14.419
10.065
5.576
1.003
-3.614
-8.23
-12.793
-17.233
-21.47
-25.428
-29.045
-32.27
-35.066
-37.415
-39.327
-40.852
-42.077
-43.106
-44.065
-45.09
-46.312
-47.868
-49.871
-52.458
-55.845
-60.212
-65.627
-71.99
-79.004
-86.308
-93.595
-100.458
-106.273
-110.454
-112.665
-113.138
-112.664
-112.085
-112.258
-114.084
-118.563
-126.874
-138.422
-150.087
-158.692
-161
-157.227
-151.849
-144.849
-132.024
-103.977
-46.62
45.295
167.873
311.135
459.906
603.532
735.052
845.693
926.022
964.347
950.509
883.377
767.649
614.287
440.743
263.59
103.084
-21.593
-103.407
-143.005
-152.664
-151.38
-149.063
-149.333
-150.161
-145.221
-134.355
-121.433
-110.095
-104.212
-104.561
-109.395
-117.011
-125.519
-133.063
-138.256
-140.419
-139.54
-136.171
-131.229
-125.531
-119.749
-114.626
-110.842
-108.751
-108.447
-109.786
-112.447
-116.154
-120.682
-125.785
-131.218
-136.769
-142.243
-147.448
-152.221
-156.431
-159.976
-162.796
-164.863
-166.157
-166.683
-166.487
-165.631
-164.184
-162.212
-159.773
-156.918
-153.719
-150.256
-146.614
-142.88
-139.112
-135.351
-131.625
-127.953
-124.344
-120.799
-117.301
-113.826
-110.356
-106.878
-103.383
-99.864
-96.307
-92.697
-89.016
-85.252
-81.391
-77.424
-73.342
-69.137
-64.803
-60.339
-55.743
-51.019
-46.167
-41.184
-36.071
-30.827
-25.453
-19.951
-14.323
-8.573
-2.707
3.267
9.341
15.501
21.736
28.033
34.376
40.749
47.134
53.514
59.868
66.177
72.418
78.57
84.611
90.516
96.264
101.83
107.191
112.324
117.208
121.819
126.138
130.145
133.822
137.15
140.116
142.705
144.904
146.703
148.093
149.068
149.622
149.755
149.464
148.754
147.628
146.092
144.155
141.828
139.124
136.056
132.643
128.901
124.851
120.514
115.913
111.072
106.017
100.772
95.366
89.824
84.175
78.446
72.664
66.857
61.05
55.27
49.542
43.889
38.335
32.902
27.609
22.477
17.523
12.762
8.209
3.877
-0.224
-4.085
-7.698
-11.059
-14.165
-17.014
-19.607
-21.946
-24.035
-25.881
-27.489
-28.869
-30.031
-30.987
-31.749
-32.329
-32.742
-33.002
-33.123
-33.121
-33.01
-32.806
-32.522
-32.173
-31.772
-31.334
-30.871
-30.394
-29.916
-29.447
-28.996
-28.572
-28.182
-27.832
-27.53
-27.277
-27.078
-26.934
-26.846
-26.814
-26.835
-26.908
-27.027
-27.19
-27.389
-27.619
-27.874
-28.145
-28.425
-28.707
-28.982
-29.243
-29.482
-29.692
-29.865
-29.993
-30.072
-30.094
-30.054
-29.947
-29.769
-29.516
-29.184
-28.772
-28.277
-27.698
-27.036
-26.29
-25.463
-24.556
-23.572
-22.517
-21.393
-20.208
-18.967
-17.679
-16.351
-14.991
-13.608
-12.213
-10.813
-9.419
-8.041
-6.689
-5.372
-4.1
-2.884
-1.731
-0.652
0.346
1.253
2.062
2.766
3.357
3.829
4.175
4.39
4.47
4.408
4.203
3.85
3.348
2.694
1.888
0.931
-0.175
-1.43
-2.83
-4.371
-6.048
-7.855
-9.785
-11.833
-13.989
-16.245
-18.59
-21.016
-23.511
-26.064
-28.663
-31.297
-33.953
-36.619
-39.281
-41.927
-44.543
-47.114
-49.627
-52.069
-54.424
-56.68
-58.823
-60.84
-62.717
-64.443
-66.006
-67.396
-68.6
-69.611
-70.419
-71.016
-71.397
-71.556
-71.489
-71.194
-70.67
-69.917
-68.939
-67.737
-66.318
-64.688
-62.853
-60.824
-58.611
-56.227
-53.685
-51.003
-48.198
-45.291
-42.304
-39.261
-36.184
-33.098
-30.027
-26.996
-24.031
-21.155
-18.393
-15.77
-13.311
-11.04
-8.985
-7.167
-5.605
-4.317
-3.318
-2.619
-2.231
-2.158
-2.407
-2.983
-3.894
-5.145
-6.74
-8.677
-10.95
-13.548
-16.45
-19.627
-23.037
-26.64
-30.394
-34.255
-38.185
-42.138
-46.053
-49.879
-53.559
-57.043
-60.3
-63.274
-65.893
-68.124
-69.963
-71.446
-72.678
-73.696
-74.473
-75.126
-75.858
-76.888
-78.492
-80.728
-83.454
-86.771
-90.898
-95.729
-100.912
-105.82
-109.568
-111.818
-112.653
-111.717
-108.568
-103.239
-96.162
-88.45
-81.864
-77.445
-75.618
-77.485
-82.906
-90.03
-97.327
-102.117
-104.149
-107.165
-110.647
-110.361
-96.214
-52.567
26.445
137.456
269.37
405.431
538.217
666.398
789.562
904.014
995.977
1048.869
1048.64
991.909
886.263
742.161
574.991
398.271
225.102
73.809
-42.392
-116.404
-149.941
-155.636
-147.27
-135.939
-125.777
-115.877
-104.967
-90.057
-71.699
-51.729
-30.586
-12.254
0.389
6.886
6.682
1.741
-5.653
-14.756
-24.822
-34.956
-43.906
-50.584
-54.531
-55.84
-55.066
-52.675
-48.969
-44.642
-40.728
-37.91
-36.506
-36.547
-37.72
-39.742
-42.421
-45.374
-48.091
-50.245
-51.665
-52.3
-52.257
-51.607
-50.371
-48.625
-46.465
-43.963
-41.187
-38.18
-34.958
-31.57
-28.089
-24.586
-21.139
-17.8
-14.594
-11.542
-8.653
-5.929
-3.364
-0.948
1.337
3.504
5.564
7.529
9.413
11.234
13.015
14.782
16.561
18.376
20.245
22.186
24.216
26.347
28.593
30.964
33.469
36.117
38.92
41.885
45.023
48.339
51.837
55.52
59.389
63.441
67.672
72.075
76.642
81.362
86.222
91.207
96.303
101.49
106.749
112.059
117.397
122.74
128.062
133.337
138.539
143.642
148.618
153.44
158.082
162.518
166.724
170.674
174.348
177.722
180.777
183.494
185.857
187.85
189.461
190.68
191.497
191.908
191.907
191.495
190.672
189.442
187.811
185.786
183.378
180.599
177.462
173.985
170.184
166.079
161.691
157.042
152.154
147.052
141.761
136.306
130.711
125.003
119.208
113.35
107.456
101.548
95.652
89.789
83.984
78.256
72.625
67.11
61.727
56.494
51.423
46.528
41.819
37.307
32.998
28.901
25.018
21.353
17.908
14.684
11.677
8.886
6.308
3.936
1.764
-0.214
-2.005
-3.62
-5.067
-6.355
-7.494
-8.496
-9.37
-10.128
-10.779
-11.335
-11.805
-12.199
-12.526
-12.796
-13.016
-13.195
-13.339
-13.455
-13.549
-13.626
-13.691
-13.746
-13.795
-13.84
-13.881
-13.92
-13.955
-13.986
-14.011
-14.028
-14.034
-14.027
-14.003
-13.958
-13.887
-13.788
-13.655
-13.484
-13.27
-13.009
-12.696
-12.328
-11.901
-11.41
-10.855
-10.23
-9.535
-8.768
-7.926
-7.009
-6.017
-4.949
-3.807
-2.59
-1.301
0.057
1.482
2.969
4.516
6.116
7.766
9.458
11.188
12.949
14.734
16.536
18.347
20.16
21.967
23.76
25.53
27.27
28.971
30.625
32.225
33.762
35.23
36.622
37.931
39.15
40.274
41.296
42.21
43.013
43.7
44.265
44.706
45.02
45.205
45.258
45.179
44.966
44.621
44.143
43.534
42.795
41.929
40.94
39.83
38.605
37.27
35.831
34.295
32.668
30.958
29.174
27.324
25.417
23.462
21.468
19.445
17.403
15.352
13.302
11.263
9.247
7.265
5.326
3.443
1.626
-0.115
-1.769
-3.325
-4.774
-6.105
-7.31
-8.379
-9.305
-10.078
-10.692
-11.14
-11.417
-11.519
-11.442
-11.185
-10.747
-10.127
-9.327
-8.351
-7.201
-5.882
-4.4
-2.761
-0.975
0.951
3.005
5.177
7.454
9.82
12.257
14.748
17.272
19.81
22.339
24.837
27.282
29.652
31.927
34.087
36.112
37.98
39.669
41.157
42.426
43.456
44.233
44.741
44.968
44.903
44.546
43.893
42.942
41.683
40.096
38.168
35.893
33.271
30.307
27.013
23.402
19.503
15.363
11.033
6.567
2.013
-2.595
-7.209
-11.775
-16.217
-20.444
-24.374
-27.944
-31.109
-33.837
-36.111
-37.933
-39.338
-40.402
-41.225
-41.928
-42.622
-43.423
-44.462
-45.853
-47.78
-50.482
-54.087
-58.62
-63.936
-69.66
-75.439
-80.981
-85.823
-89.415
-91.384
-91.49
-90.02
-87.917
-85.965
-84.816
-85.19
-87.446
-91.698
-98.086
-105.61
-111.86
-114.695
-110.753
-96.419
-70.433
-30.692
23.102
88.6
165.939
253.741
350.849
458.636
574.022
692.921
809.207
910.31
984.516
1019.456
1004.314
937.993
824.648
674.989
506.165
334.534
177.799
51.11
-37.689
-86.729
-103.848
-100.587
-86.901
-71.719
-57.052
-43.213
-31.43
-19.229
-6.942
4.389
15.122
21.619
22.088
17.191
7.06
-5.6
-18.428
-30.7
-41.017
-48.532
-53.208
-54.935
-54.079
-51.543
-47.98
-44.032
-40.657
-38.529
-37.95
-39.083
-41.759
-45.62
-50.421
-55.808
-61.298
-66.546
-71.3
-75.399
-78.854
-81.682
-83.876
-85.474
-86.524
-87.064
-87.15
-86.815
-86.073
-84.96
-83.519
-81.81
-79.906
-77.876
-75.781
-73.669
-71.564
-69.486
-67.443
-65.435
-63.458
-61.5
-59.541
-57.567
-55.566
-53.522
-51.423
-49.252
-46.987
-44.608
-42.099
-39.444
-36.632
-33.655
-30.502
-27.17
-23.654
-19.953
-16.069
-12.001
-7.749
-3.315
1.3
6.093
11.056
16.185
21.469
26.9
32.463
38.145
43.928
49.794
55.725
61.7
67.696
73.691
79.661
85.581
91.426
97.171
102.79
108.256
113.544
118.629
123.485
128.089
132.417
136.448
140.161
143.536
146.555
149.203
151.464
153.324
154.774
155.804
156.406
156.576
156.311
155.609
154.473
152.907
150.918
148.512
145.702
142.5
138.919
134.976
130.69
126.078
121.162
115.963
110.504
104.81
98.904
92.81
86.556
80.164
73.661
67.073
60.423
53.737
47.039
40.352
33.699
27.103
20.584
14.162
7.856
1.685
-4.335
-10.188
-15.861
-21.341
-26.617
-31.679
-36.518
-41.128
-45.504
-49.642
-53.54
-57.196
-60.611
-63.786
-66.722
-69.425
-71.897
-74.145
-76.173
-77.989
-79.599
-81.011
-82.234
-83.275
-84.144
-84.848
-85.398
-85.802
-86.07
-86.21
-86.232
-86.145
-85.958
-85.68
-85.321
-84.887
-84.388
-83.832
-83.225
-82.575
-81.889
-81.172
-80.43
-79.669
-78.893
-78.108
-77.316
-76.524
-75.732
-74.947
-74.169
-73.401
-72.647
-71.909
-71.187
-70.485
-69.804
-69.146
-68.512
-67.903
-67.321
-66.768
-66.243
-65.747
-65.282
-64.846
-64.441
-64.067
-63.723
-63.41
-63.127
-62.875
-62.653
-62.461
-62.299
-62.166
-62.062
-61.986
-61.938
-61.917
-61.923
-61.953
-62.009
-62.089
-62.192
-62.317
-62.464
-62.63
-62.815
-63.018
-63.237
-63.471
-63.718
-63.978
-64.249
-64.53
-64.821
-65.119
-65.424
-65.736
-66.053
-66.373
-66.697
-67.023
-67.35
-67.678
-68.006
-68.333
-68.659
-68.984
-69.306
-69.626
-69.944
-70.259
-70.57
-70.879
-71.185
-71.488
-71.788
-72.085
-72.379
-72.671
-72.96
-73.246
-73.529
-73.808
-74.081
-74.349
-74.609
-74.861
-75.103
-75.333
-75.549
-75.751
-75.935
-76.1
-76.244
-76.365
-76.46
-76.526
-76.561
-76.56
-76.521
-76.441
-76.315
-76.141
-75.915
-75.632
-75.29
-74.883
-74.409
-73.863
-73.242
-72.542
-71.759
-70.893
-69.94
-68.899
-67.771
-66.554
-65.249
-63.859
-62.386
-60.833
-59.202
-57.499
-55.727
-53.894
-52.004
-50.065
-48.085
-46.074
-44.045
-42.011
-39.985
-37.983
-36.02
-34.114
-32.281
-30.537
-28.895
-27.368
-25.972
-24.72
-23.628
-22.713
-21.986
-21.462
-21.15
-21.061
-21.203
-21.58
-22.19
-23.029
-24.097
-25.396
-26.942
-28.747
-30.817
-33.153
-35.753
-38.608
-41.707
-45.022
-48.51
-52.118
-55.796
-59.494
-63.176
-66.798
-70.305
-73.628
-76.68
-79.382
-81.666
-83.481
-84.79
-85.574
-85.842
-85.637
-85.04
-84.15
-83.088
-81.987
-80.98
-80.209
-79.793
-79.89
-80.746
-82.552
-85.38
-89.121
-93.438
-97.943
-102.324
-106.164
-108.845
-109.843
-108.879
-106.244
-102.856
-99.651
-97.501
-97.282
-99.872
-106.174
-115.554
-125.206
-132.046
-132.777
-127.045
-117.875
-104.394
-82.869
-45.327
19.94
116.088
239.045
380.318
526.949
670.86
806.992
926.143
1016.917
1065.822
1060.735
1001.472
896.931
759.587
604.787
442.156
279.982
130.212
2.623
-92.95
-152.308
-179.909
-181.124
-162.759
-130.69
-90.227
-50.859
-21.265
-7.121
-8.587
-18.073
-28.431
-35.887
-40.274
-45.91
-55.371
-67.716
-80.739
-91.221
-97.196
-98.79
-96.75
-92.092
-85.895
-79.172
-72.94
-67.953
-64.717
-63.394
-63.865
-65.961
-69.372
-73.661
-78.366
-83.099
-87.58
-91.633
-95.153
-98.058
-100.301
-101.88
-102.824
-103.168
-102.932
-102.14
-100.822
-99.02
-96.794
-94.21
-91.333
-88.234
-84.987
-81.664
-78.339
-75.065
-71.876
-68.796
-65.839
-63.004
-60.292
-57.689
-55.174
-52.73
-50.339
-47.983
-45.646
-43.31
-40.955
-38.563
-36.118
-33.604
-31.007
-28.318
-25.526
-22.623
-19.603
-16.461
-13.195
-9.801
-6.276
-2.615
1.183
5.121
9.198
13.415
17.768
22.255
26.869
31.602
36.444
41.382
46.404
51.493
56.635
61.811
67.001
72.186
77.345
82.457
87.499
92.449
97.285
101.986
106.527
110.889
115.05
118.99
122.688
126.126
129.287
132.153
134.709
136.942
138.838
140.386
141.576
142.401
142.855
142.932
142.632
141.953
140.898
139.47
137.677
135.526
133.026
130.19
127.032
123.566
119.809
115.778
111.494
106.975
102.242
97.317
92.222
86.98
81.612
76.143
70.594
64.988
59.348
53.695
48.051
42.437
36.872
31.377
25.969
20.666
15.484
10.439
5.544
0.813
-3.744
-8.117
-12.297
-16.277
-20.053
-23.62
-26.977
-30.121
-33.055
-35.779
-38.296
-40.61
-42.727
-44.653
-46.394
-47.959
-49.355
-50.593
-51.68
-52.627
-53.444
-54.141
-54.727
-55.214
-55.609
-55.924
-56.168
-56.35
-56.477
-56.56
-56.604
-56.618
-56.608
-56.58
-56.539
-56.49
-56.436
-56.381
-56.328
-56.277
-56.23
-56.187
-56.149
-56.114
-56.081
-56.048
-56.013
-55.973
-55.926
-55.867
-55.794
-55.703
-55.591
-55.453
-55.288
-55.092
-54.862
-54.596
-54.292
-53.949
-53.564
-53.138
-52.669
-52.158
-51.604
-51.009
-50.373
-49.698
-48.986
-48.24
-47.463
-46.656
-45.825
-44.972
-44.102
-43.219
-42.327
-41.432
-40.538
-39.651
-38.775
-37.916
-37.079
-36.27
-35.493
-34.754
-34.056
-33.404
-32.801
-32.25
-31.754
-31.316
-30.937
-30.619
-30.364
-30.173
-30.046
-29.985
-29.989
-30.058
-30.192
-30.389
-30.648
-30.968
-31.345
-31.778
-32.265
-32.803
-33.389
-34.021
-34.697
-35.412
-36.165
-36.95
-37.764
-38.604
-39.466
-40.346
-41.241
-42.148
-43.063
-43.986
-44.912
-45.839
-46.763
-47.682
-48.591
-49.487
-50.363
-51.214
-52.033
-52.817
-53.563
-54.264
-54.919
-55.523
-56.075
-56.573
-57.016
-57.397
-57.712
-57.953
-58.111
-58.181
-58.157
-58.029
-57.791
-57.434
-56.952
-56.344
-55.606
-54.731
-53.71
-52.527
-51.176
-49.659
-47.98
-46.147
-44.174
-42.075
-39.877
-37.619
-35.333
-33.041
-30.759
-28.487
-26.225
-23.98
-21.755
-19.559
-17.392
-15.245
-13.108
-10.982
-8.854
-6.702
-4.49
-2.153
0.356
3.056
5.971
9.099
12.408
15.84
19.304
22.695
25.938
28.979
31.736
34.105
36.015
37.495
38.668
39.632
40.346
40.568
40.033
38.682
36.448
33.098
28.179
21.178
11.983
1.122
-10.594
-22.66
-34.664
-46.089
-56.115
-63.605
-67.934
-69.387
-68.753
-66.667
-63.58
-59.837
-55.954
-52.89
-51.311
-51.314
-52.7
-55.124
-58.292
-62.06
-66.282
-70.643
-74.888
-78.605
-81.052
-81.699
-80.309
-76.898
-71.712
-64.781
-56.041
-46.112
-36.626
-29.465
-26.112
-27.134
-32.324
-41.812
-55.839
-73.735
-92.262
-106.134
-110.418
-102.029
-82.386
-54.426
-18.173
29.091
94.819
186.194
304.985
448.278
605.353
761.953
902.159
1008.228
1068.391
1076.153
1032.931
949.814
836.985
702.303
553.328
395.279
239.432
104.488
3.051
-59.466
-87.924
-98.86
-103.665
-106.44
-106.61
-98.262
-80.069
-55.835
-30.32
-8.809
5.912
13.433
14.151
9.214
-0.123
-12.301
-25.462
-38.137
-48.923
-56.77
-61.423
-62.917
-61.577
-58.214
-53.693
-48.864
-44.746
-42.042
-40.989
-41.679
-43.953
-47.474
-51.956
-56.999
-62.081
-66.831
-71.011
-74.477
-77.237
-79.312
-80.688
-81.402
-81.515
-81.078
-80.158
-78.802
-77.034
-74.901
-72.46
-69.781
-66.951
-64.047
-61.136
-58.268
-55.472
-52.769
-50.174
-47.69
-45.313
-43.032
-40.827
-38.682
-36.585
-34.519
-32.47
-30.417
-28.334
-26.2
-23.994
-21.7
-19.304
-16.793
-14.155
-11.381
-8.466
-5.402
-2.189
1.18
4.708
8.4
12.258
16.283
20.473
24.826
29.339
34.006
38.818
43.764
48.832
54.008
59.277
64.619
70.017
75.449
80.893
86.325
91.722
97.057
102.305
107.439
112.433
117.262
121.898
126.317
130.494
134.406
138.029
141.343
144.328
146.964
149.236
151.126
152.623
153.715
154.391
154.645
154.471
153.866
152.828
151.36
149.464
147.148
144.42
141.29
137.771
133.879
129.63
125.045
120.143
114.946
109.479
103.765
97.831
91.702
85.405
78.968
72.418
65.782
59.088
52.361
45.628
38.915
32.247
25.648
19.141
12.747
6.487
0.382
-5.551
-11.295
-16.834
-22.154
-27.243
-32.09
-36.688
-41.028
-45.107
-48.921
-52.468
-55.75
-58.768
-61.526
-64.028
-66.282
-68.294
-70.073
-71.629
-72.972
-74.114
-75.067
-75.842
-76.453
-76.914
-77.236
-77.433
-77.518
-77.505
-77.406
-77.234
-77.002
-76.72
-76.401
-76.057
-75.696
-75.33
-74.966
-74.613
-74.277
-73.966
-73.683
-73.434
-73.221
-73.048
-72.915
-72.824
-72.775
-72.768
-72.801
-72.872
-72.98
-73.12
-73.291
-73.488
-73.707
-73.943
-74.193
-74.452
-74.715
-74.978
-75.235
-75.482
-75.714
-75.927
-76.116
-76.277
-76.406
-76.499
-76.553
-76.565
-76.532
-76.453
-76.326
-76.149
-75.922
-75.644
-75.315
-74.935
-74.505
-74.025
-73.497
-72.923
-72.303
-71.64
-70.937
-70.196
-69.42
-68.613
-67.778
-66.919
-66.04
-65.144
-64.236
-63.322
-62.404
-61.489
-60.58
-59.684
-58.804
-57.946
-57.115
-56.314
-55.55
-54.825
-54.145
-53.514
-52.935
-52.414
-51.953
-51.557
-51.229
-50.973
-50.792
-50.688
-50.665
-50.725
-50.869
-51.098
-51.415
-51.819
-52.31
-52.887
-53.549
-54.294
-55.119
-56.021
-56.995
-58.037
-59.141
-60.303
-61.515
-62.772
-64.066
-65.389
-66.734
-68.093
-69.457
-70.816
-72.163
-73.485
-74.775
-76.023
-77.218
-78.35
-79.41
-80.388
-81.274
-82.059
-82.734
-83.291
-83.723
-84.021
-84.181
-84.197
-84.065
-83.784
-83.351
-82.766
-82.03
-81.145
-80.116
-78.946
-77.642
-76.21
-74.658
-72.996
-71.235
-69.386
-67.462
-65.48
-63.456
-61.409
-59.356
-57.319
-55.316
-53.37
-51.5
-49.723
-48.056
-46.517
-45.121
-43.886
-42.83
-41.969
-41.316
-40.883
-40.68
-40.715
-40.995
-41.516
-42.273
-43.263
-44.485
-45.947
-47.659
-49.621
-51.833
-54.289
-56.973
-59.867
-62.941
-66.145
-69.429
-72.743
-76.036
-79.272
-82.415
-85.413
-88.21
-90.732
-92.901
-94.663
-95.962
-96.757
-97.047
-96.853
-96.229
-95.27
-94.057
-92.677
-91.243
-89.841
-88.567
-87.531
-86.809
-86.56
-87.041
-88.356
-90.525
-93.435
-96.654
-99.743
-102.335
-103.772
-103.306
-100.606
-95.51
-88.268
-80.133
-72.429
-66.264
-63.367
-64.27
-67.276
-70.986
-73.545
-74.77
-78.794
-86.834
-95.023
-93.443
-65.467
0.108
103.925
237.014
382.518
526.685
662.787
786.774
893.807
974.04
1012.253
995.42
919.554
789.88
621.642
435.591
251.621
89.107
-37.672
-122.193
-165.671
-178.098
-172.424
-159.748
-145.57
-129.732
-110.722
-87.569
-62.731
-40.416
-23.882
-15.613
-15.768
-22.911
-35.104
-49.851
-64.58
-77.289
-86.809
-92.45
-94.131
-92.22
-87.324
-80.4
-72.735
-65.583
-59.72
-55.623
-53.45
-53.073
-54.335
-56.964
-60.502
-64.429
-68.355
-71.992
-75.156
-77.793
-79.855
-81.299
-82.146
-82.433
-82.199
-81.483
-80.321
-78.733
-76.754
-74.433
-71.821
-68.99
-66.015
-62.968
-59.924
-56.936
-54.037
-51.253
-48.6
-46.082
-43.696
-41.428
-39.256
-37.161
-35.127
-33.138
-31.178
-29.223
-27.249
-25.234
-23.155
-20.994
-18.735
-16.362
-13.86
-11.219
-8.428
-5.482
-2.377
0.893
4.333
7.948
11.742
15.715
19.868
24.2
28.708
33.389
38.235
43.237
48.384
53.664
59.063
64.564
70.152
75.807
81.51
87.24
92.975
98.694
104.371
109.983
115.506
120.913
126.179
131.281
136.191
140.887
145.344
149.54
153.454
157.064
160.353
163.303
165.897
168.123
169.966
171.417
172.466
173.107
173.335
173.147
172.542
171.522
170.09
168.252
166.014
163.385
160.377
157.001
153.273
149.207
144.821
140.134
135.167
129.94
124.477
118.801
112.936
106.907
100.738
94.455
88.082
81.644
75.164
68.668
62.177
55.714
49.301
42.959
36.707
30.565
24.55
18.68
12.968
7.431
2.081
-3.071
-8.014
-12.738
-17.238
-21.505
-25.537
-29.328
-32.879
-36.188
-39.257
-42.088
-44.686
-47.055
-49.201
-51.132
-52.855
-54.378
-55.709
-56.858
-57.834
-58.645
-59.301
-59.812
-60.186
-60.433
-60.562
-60.581
-60.5
-60.325
-60.066
-59.73
-59.324
-58.855
-58.329
-57.753
-57.132
-56.47
-55.773
-55.044
-54.286
-53.502
-52.694
-51.862
-51.008
-50.131
-49.233
-48.312
-47.368
-46.401
-45.41
-44.396
-43.357
-42.295
-41.21
-40.101
-38.971
-37.82
-36.649
-35.461
-34.258
-33.043
-31.817
-30.585
-29.348
-28.112
-26.878
-25.651
-24.435
-23.232
-22.048
-20.887
-19.753
-18.651
-17.586
-16.561
-15.583
-14.655
-13.783
-12.969
-12.219
-11.536
-10.924
-10.384
-9.919
-9.531
-9.223
-8.994
-8.845
-8.775
-8.785
-8.872
-9.035
-9.272
-9.579
-9.954
-10.394
-10.895
-11.453
-12.065
-12.726
-13.432
-14.18
-14.964
-15.78
-16.623
-17.488
-18.371
-19.268
-20.173
-21.083
-21.994
-22.901
-23.802
-24.692
-25.568
-26.428
-27.267
-28.083
-28.874
-29.636
-30.368
-31.067
-31.733
-32.362
-32.953
-33.506
-34.019
-34.49
-34.919
-35.302
-35.639
-35.928
-36.167
-36.353
-36.485
-36.56
-36.577
-36.533
-36.425
-36.251
-36.008
-35.693
-35.304
-34.836
-34.287
-33.655
-32.936
-32.128
-31.229
-30.238
-29.154
-27.976
-26.703
-25.337
-23.877
-22.325
-20.684
-18.955
-17.143
-15.251
-13.286
-11.255
-9.164
-7.022
-4.841
-2.633
-0.409
1.815
4.026
6.207
8.343
10.416
12.413
14.317
16.112
17.782
19.312
20.685
21.884
22.893
23.695
24.276
24.621
24.719
24.565
24.154
23.481
22.542
21.325
19.822
18.03
15.944
13.565
10.897
7.955
4.769
1.387
-2.141
-5.763
-9.43
-13.1
-16.729
-20.268
-23.668
-26.866
-29.806
-32.44
-34.717
-36.595
-38.046
-39.07
-39.726
-40.126
-40.39
-40.636
-40.955
-41.428
-42.176
-43.323
-44.979
-47.253
-50.189
-53.867
-58.484
-64.115
-70.669
-77.887
-85.187
-91.926
-97.641
-101.71
-103.322
-102.035
-97.808
-91.018
-82.799
-74.429
-66.808
-61.052
-58.652
-59.181
-60.191
-59.321
-52.822
-40.326
-26.312
-10.714
8.972
40.318
98.348
189.392
312.495
460.451
614.164
759.505
885.936
981.663
1044.159
1067.714
1044.579
975.2
858.945
702.627
523.535
339.533
171.809
38.132
-53.552
-103.24
-118.022
-108.007
-84.382
-56.685
-33.991
-23.982
-28.019
-42.735
-59.401
-69.324
-69.984
-63.416
-55.403
-50.34
-48.393
-48.073
-47.724
-46.876
-46.288
-46.631
-47.899
-49.885
-52.587
-55.889
-59.288
-62.347
-64.751
-66.497
-68.173
-70.187
-72.562
-75.356
-78.632
-82.363
-86.525
-90.893
-94.955
-98.384
-101.048
-102.866
-103.875
-104.114
-103.578
-102.339
-100.539
-98.277
-95.632
-92.664
-89.388
-85.858
-82.152
-78.348
-74.528
-70.751
-67.048
-63.443
-59.947
-56.562
-53.284
-50.104
-47.001
-43.964
-40.986
-38.06
-35.186
-32.355
-29.554
-26.768
-23.979
-21.172
-18.336
-15.462
-12.541
-9.567
-6.535
-3.44
-0.281
2.946
6.247
9.627
13.093
16.649
20.298
24.042
27.883
31.819
35.848
39.965
44.167
48.445
52.791
57.196
61.65
66.14
70.653
75.174
79.688
84.178
88.626
93.013
97.321
101.53
105.619
109.569
113.36
116.971
120.385
123.582
126.544
129.255
131.698
133.857
135.72
137.274
138.506
139.406
139.967
140.181
140.043
139.55
138.7
137.494
135.934
134.023
131.769
129.178
126.259
123.024
119.486
115.658
111.556
107.197
102.6
97.784
92.769
87.577
82.23
76.748
71.155
65.473
59.725
53.933
48.118
42.303
36.508
30.754
25.06
19.447
13.93
8.529
3.257
-1.869
-6.836
-11.634
-16.25
-20.675
-24.903
-28.926
-32.741
-36.342
-39.73
-42.903
-45.863
-48.612
-51.154
-53.493
-55.637
-57.591
-59.365
-60.966
-62.405
-63.69
-64.833
-65.843
-66.73
-67.507
-68.182
-68.768
-69.274
-69.71
-70.085
-70.41
-70.693
-70.942
-71.165
-71.368
-71.557
-71.737
-71.914
-72.091
-72.271
-72.456
-72.647
-72.845
-73.05
-73.261
-73.476
-73.692
-73.908
-74.118
-74.321
-74.51
-74.683
-74.834
-74.959
-75.054
-75.113
-75.133
-75.11
-75.039
-74.918
-74.743
-74.511
-74.22
-73.869
-73.456
-72.982
-72.445
-71.847
-71.188
-70.472
-69.7
-68.874
-67.999
-67.079
-66.118
-65.12
-64.092
-63.039
-61.967
-60.882
-59.792
-58.703
-57.622
-56.556
-55.512
-54.495
-53.513
-52.573
-51.679
-50.838
-50.055
-49.336
-48.684
-48.104
-47.6
-47.175
-46.831
-46.571
-46.396
-46.308
-46.306
-46.392
-46.565
-46.824
-47.167
-47.594
-48.102
-48.688
-49.351
-50.087
-50.892
-51.762
-52.695
-53.684
-54.727
-55.819
-56.955
-58.131
-59.342
-60.583
-61.85
-63.139
-64.444
-65.76
-67.083
-68.408
-69.729
-71.043
-72.343
-73.625
-74.884
-76.115
-77.312
-78.472
-79.588
-80.655
-81.67
-82.625
-83.516
-84.339
-85.086
-85.754
-86.336
-86.828
-87.224
-87.52
-87.71
-87.79
-87.754
-87.599
-87.319
-86.91
-86.368
-85.69
-84.873
-83.914
-82.811
-81.564
-80.173
-78.637
-76.96
-75.142
-73.187
-71.099
-68.881
-66.541
-64.085
-61.522
-58.859
-56.109
-53.282
-50.393
-47.458
-44.492
-41.51
-38.533
-35.58
-32.672
-29.835
-27.088
-24.452
-21.945
-19.589
-17.404
-15.411
-13.627
-12.064
-10.737
-9.66
-8.847
-8.317
-8.078
-8.126
-8.46
-9.07
-9.957
-11.134
-12.605
-14.37
-16.427
-18.771
-21.396
-24.304
-27.479
-30.879
-34.456
-38.139
-41.877
-45.643
-49.416
-53.185
-56.907
-60.491
-63.849
-66.892
-69.555
-71.83
-73.671
-74.991
-75.817
-76.255
-76.549
-77.128
-78.223
-79.834
-81.97
-84.566
-87.544
-90.966
-94.489
-97.324
-99.023
-99.357
-98.304
-96.288
-93.49
-89.694
-85.284
-81.18
-78.179
-77.352
-79.303
-83.853
-91.142
-101.442
-114.372
-129.032
-143.869
-156.12
-163.037
-162.205
-150.848
-126.295
-86.128
-28.354
48.074
141.257
246.507
358.845
472.588
584.456
695.727
805.185
906.877
990.85
1040.109
1039.376
984.537
878.328
731.099
560.34
380.776
207.423
58.694
-53.086
-121.809
-146.581
-137.76
-110.189
-75.674
-47.015
-31.979
-30.014
-38.389
-49.57
-56.064
-56.825
-54.535
-54.593
-60.686
-72.287
-86.411
-99.028
-108.184
-113.731
-115.637
-114.351
-110.306
-103.902
-96.283
-88.739
-81.882
-76.067
-71.6
-68.545
-66.975
-66.875
-67.85
-69.407
-71.254
-73.187
-75.093
-76.962
-78.74
-80.377
-81.899
-83.351
-84.762
-86.132
-87.424
-88.564
-89.474
-90.122
-90.501
-90.625
-90.52
-90.211
-89.704
-89.007
-88.115
-86.998
-85.635
-84.005
-82.082
-79.865
-77.373
-74.64
-71.732
-68.699
-65.565
-62.345
-59.04
-55.643
-52.16
-48.592
-44.934
-41.198
-37.395
-33.532
-29.622
-25.664
-21.642
-17.536
-13.308
-8.925
-4.369
0.373
5.306
10.427
15.731
21.21
26.843
32.617
38.52
44.536
50.654
56.857
63.121
69.424
75.734
82.022
88.259
94.416
100.465
106.379
112.133
117.704
123.07
128.212
133.106
137.731
142.065
146.086
149.774
153.111
156.078
158.661
160.846
162.623
163.982
164.918
165.426
165.504
165.152
164.371
163.165
161.54
159.504
157.066
154.237
151.03
147.461
143.546
139.302
134.75
129.91
124.802
119.451
113.877
108.106
102.16
96.065
89.845
83.524
77.128
70.682
64.21
57.736
51.284
44.876
38.534
32.277
26.124
20.094
14.202
8.466
2.9
-2.482
-7.669
-12.65
-17.414
-21.953
-26.26
-30.331
-34.163
-37.753
-41.098
-44.195
-47.046
-49.652
-52.019
-54.154
-56.062
-57.751
-59.228
-60.505
-61.592
-62.5
-63.236
-63.803
-64.208
-64.46
-64.57
-64.555
-64.426
-64.186
-63.841
-63.391
-62.84
-62.197
-61.463
-60.639
-59.728
-58.729
-57.656
-56.537
-55.39
-54.23
-53.062
-51.872
-50.659
-49.452
-48.292
-47.237
-46.324
-45.54
-44.864
-44.291
-43.838
-43.524
-43.302
-43.045
-42.705
-42.327
-42.144
-42.513
-43.53
-45.182
-47.446
-49.985
-52.554
-55.042
-56.511
-56.725
-55.969
-52.995
-47.916
-39.641
-26.342
-11.315
2.45
10.463
7.731
-2.792
-17.545
-32.606
-43.338
-51.605
-58.796
-64.194
-68.266
-69.128
-65.986
-60.806
-54.559
-47.875
-41.643
-36.154
-31.866
-29.697
-29.596
-30.573
-32.017
-33.551
-34.937
-36.307
-37.569
-38.316
-38.507
-38.422
-38.249
-38.168
-38.229
-38.274
-38.257
-38.237
-38.228
-38.225
-38.217
-38.155
-38.033
-37.889
-37.747
-37.629
-37.543
-37.482
-37.446
-37.441
-37.475
-37.562
-37.708
-37.916
-38.183
-38.504
-38.876
-39.298
-39.768
-40.281
-40.833
-41.416
-42.027
-42.666
-43.33
-44.017
-44.722
-45.437
-46.154
-46.866
-47.567
-48.247
-48.9
-49.516
-50.086
-50.603
-51.057
-51.442
-51.749
-51.969
-52.094
-52.118
-52.032
-51.831
-51.508
-51.059
-50.478
-49.765
-48.916
-47.93
-46.809
-45.552
-44.164
-42.648
-41.006
-39.245
-37.367
-35.381
-33.295
-31.122
-28.876
-26.575
-24.238
-21.882
-19.53
-17.203
-14.921
-12.704
-10.566
-8.522
-6.587
-4.781
-3.125
-1.642
-0.346
0.755
1.653
2.342
2.815
3.066
3.097
2.914
2.522
1.914
1.072
-0.029
-1.407
-3.06
-4.973
-7.137
-9.549
-12.217
-15.157
-18.336
-21.697
-25.17
-28.679
-32.179
-35.658
-39.037
-42.167
-44.959
-47.377
-49.536
-51.726
-54.04
-56.355
-58.553
-60.5
-62.049
-63.126
-63.347
-61.972
-58.738
-53.877
-47.893
-41.709
-36.226
-32.022
-29.935
-31.052
-35.684
-43.53
-53.802
-64.922
-75.337
-83.968
-89.777
-91.967
-90.597
-86.378
-80.505
-74.622
-70.547
-68.81
-68.244
-67.479
-64.463
-58.855
-53.657
-49.403
-42.906
-26.288
13.869
85.929
189.449
316.991
454.6
591.45
723.268
846.428
955.202
1038.991
1080.925
1066.673
992.04
861.696
691.208
502.288
315.576
150.512
20.568
-67.498
-114.75
-128.193
-115.079
-86.431
-50.928
-17.026
2.663
4.171
-11.711
-39.025
-64.093
-80.277
-86.823
-86.123
-84.953
-85.81
-87.339
-88.146
-86.241
-81.37
-74.896
-67.826
-60.989
-55.02
-50.242
-46.857
-44.896
-44.233
-44.657
-45.986
-48.111
-50.877
-54.09
-57.589
-61.215
-64.822
-68.287
-71.46
-74.175
-76.331
-77.871
-78.766
-79.029
-78.685
-77.762
-76.318
-74.425
-72.149
-69.559
-66.722
-63.696
-60.553
-57.366
-54.206
-51.141
-48.217
-45.456
-42.874
-40.469
-38.232
-36.148
-34.196
-32.343
-30.566
-28.844
-27.155
-25.482
-23.804
-22.097
-20.338
-18.506
-16.579
-14.542
-12.381
-10.082
-7.634
-5.029
-2.262
0.673
3.78
7.064
10.529
14.178
18.013
22.032
26.234
30.614
35.164
39.875
44.735
49.73
54.844
60.058
65.355
70.712
76.109
81.522
86.927
92.299
97.613
102.843
107.962
112.944
117.763
122.394
126.812
130.991
134.909
138.542
141.87
144.872
147.53
149.826
151.747
153.277
154.406
155.125
155.426
155.305
154.759
153.788
152.394
150.582
148.359
145.734
142.718
139.324
135.566
131.46
127.026
122.282
117.249
111.948
106.402
100.635
94.67
88.533
82.248
75.84
69.334
62.756
56.13
49.481
42.833
36.21
29.634
23.127
16.71
10.403
4.224
-1.81
-7.682
-13.378
-18.884
-24.19
-29.285
-34.159
-38.806
-43.219
-47.394
-51.328
-55.019
-58.466
-61.67
-64.631
-67.354
-69.84
-72.095
-74.124
-75.933
-77.528
-78.917
-80.107
-81.107
-81.925
-82.571
-83.054
-83.383
-83.567
-83.616
-83.539
-83.344
-83.042
-82.64
-82.147
-81.572
-80.922
-80.204
-79.427
-78.597
-77.72
-76.803
-75.851
-74.87
-73.866
-72.842
-71.805
-70.757
-69.704
-68.648
-67.594
-66.545
-65.504
-64.473
-63.456
-62.454
-61.469
-60.503
-59.559
-58.638
-57.741
-56.871
-56.028
-55.214
-54.431
-53.679
-52.961
-52.276
-51.627
-51.014
-50.438
-49.899
-49.398
-48.936
-48.512
-48.127
-47.78
-47.472
-47.2
-46.965
-46.766
-46.601
-46.47
-46.37
-46.302
-46.263
-46.253
-46.269
-46.311
-46.378
-46.467
-46.578
-46.71
-46.86
-47.027
-47.211
-47.409
-47.619
-47.842
-48.075
-48.316
-48.566
-48.823
-49.085
-49.354
-49.627
-49.906
-50.189
-50.479
-50.774
-51.077
-51.387
-51.706
-52.036
-52.376
-52.73
-53.096
-53.478
-53.876
-54.289
-54.72
-55.167
-55.632
-56.112
-56.609
-57.12
-57.646
-58.184
-58.732
-59.29
-59.856
-60.426
-60.999
-61.572
-62.141
-62.703
-63.253
-63.788
-64.302
-64.79
-65.247
-65.667
-66.044
-66.372
-66.644
-66.854
-66.996
-67.063
-67.049
-66.947
-66.752
-66.46
-66.065
-65.563
-64.952
-64.229
-63.393
-62.443
-61.378
-60.2
-58.911
-57.512
-56.007
-54.4
-52.696
-50.902
-49.025
-47.072
-45.054
-42.984
-40.875
-38.741
-36.597
-34.461
-32.349
-30.278
-28.268
-26.332
-24.486
-22.746
-21.129
-19.651
-18.329
-17.181
-16.218
-15.457
-14.907
-14.579
-14.482
-14.615
-14.977
-15.568
-16.393
-17.462
-18.788
-20.374
-22.221
-24.327
-26.681
-29.268
-32.061
-35.017
-38.088
-41.227
-44.39
-47.545
-50.658
-53.685
-56.573
-59.249
-61.644
-63.704
-65.38
-66.632
-67.448
-67.834
-67.839
-67.56
-67.081
-66.496
-65.898
-65.38
-65.062
-65.068
-65.489
-66.46
-68.161
-70.712
-74.16
-78.37
-82.934
-87.401
-91.371
-94.349
-95.768
-95.133
-92.169
-87.235
-81.394
-75.813
-71.386
-68.91
-69.275
-73.297
-81.308
-91.25
-98.828
-100.007
-91.924
-75.376
-52.941
-23.385
17.784
77.861
163.731
274.599
403.6
540.854
675.808
800.609
907.361
986.837
1026.117
1011.73
937.692
804.134
624.339
423.993
227.96
62.609
-53.81
-121.149
-144.522
-136.103
-113.407
-84.475
-57.19
-40.808
-35.716
-42.997
-60.158
-76.471
-87.182
-90.903
-88.329
-85.753
-85.89
-87.638
-89.53
-88.953
-85.052
-78.902
-71.541
-63.923
-56.711
-50.307
-45.147
-41.499
-39.39
-38.687
-39.175
-40.684
-43.072
-46.145
-49.693
-53.529
-57.469
-61.36
-65.057
-68.389
-71.23
-73.508
-75.175
-76.224
-76.671
-76.535
-75.863
-74.719
-73.166
-71.264
-69.075
-66.654
-64.067
-61.389
-58.688
-56.035
-53.476
-51.035
-48.726
-46.551
-44.499
-42.555
-40.695
-38.886
-37.104
-35.326
-33.535
-31.712
-29.838
-27.89
-25.848
-23.692
-21.403
-18.97
-16.38
-13.624
-10.697
-7.593
-4.314
-0.859
2.77
6.573
10.55
14.7
19.019
23.501
28.141
32.93
37.859
42.915
48.083
53.347
58.69
64.094
69.539
75.006
80.472
85.916
91.315
96.646
101.886
107.01
111.996
116.819
121.457
125.887
130.088
134.039
137.721
141.116
144.206
146.976
149.413
151.502
153.233
154.596
155.585
156.192
156.414
156.249
155.697
154.759
153.44
151.745
149.681
147.258
144.485
141.375
137.942
134.2
130.165
125.855
121.288
116.484
111.462
106.244
100.851
95.305
89.626
83.836
77.958
72.012
66.021
60.004
53.982
47.976
42.004
36.086
30.239
24.48
18.825
13.289
7.886
2.63
-2.468
-7.396
-12.145
-16.705
-21.069
-25.23
-29.182
-32.921
-36.443
-39.747
-42.831
-45.695
-48.34
-50.767
-52.98
-54.98
-56.773
-58.363
-59.753
-60.952
-61.964
-62.796
-63.455
-63.95
-64.287
-64.474
-64.52
-64.433
-64.22
-63.892
-63.455
-62.918
-62.291
-61.581
-60.797
-59.948
-59.042
-58.087
-57.091
-56.061
-55.004
-53.928
-52.84
-51.745
-50.649
-49.559
-48.48
-47.417
-46.375
-45.358
-44.371
-43.417
-42.499
-41.621
-40.785
-39.993
-39.248
-38.55
-37.901
-37.301
-36.751
-36.252
-35.802
-35.402
-35.049
-34.743
-34.483
-34.265
-34.088
-33.95
-33.848
-33.778
-33.74
-33.729
-33.743
-33.779
-33.834
-33.904
-33.988
-34.08
-34.18
-34.284
-34.388
-34.492
-34.592
-34.686
-34.774
-34.853
-34.922
-34.981
-35.03
-35.067
-35.093
-35.109
-35.115
-35.113
-35.104
-35.091
-35.075
-35.06
-35.049
-35.043
-35.048
-35.065
-35.099
-35.153
-35.23
-35.334
-35.469
-35.638
-35.844
-36.092
-36.383
-36.721
-37.109
-37.548
-38.041
-38.589
-39.192
-39.85
-40.565
-41.334
-42.157
-43.031
-43.955
-44.926
-45.94
-46.993
-48.08
-49.196
-50.334
-51.487
-52.648
-53.809
-54.961
-56.097
-57.207
-58.282
-59.313
-60.291
-61.205
-62.047
-62.807
-63.475
-64.042
-64.499
-64.837
-65.048
-65.126
-65.064
-64.855
-64.496
-63.981
-63.307
-62.473
-61.476
-60.317
-58.996
-57.516
-55.88
-54.095
-52.166
-50.102
-47.913
-45.613
-43.215
-40.735
-38.19
-35.598
-32.978
-30.351
-27.738
-25.156
-22.627
-20.171
-17.808
-15.56
-13.449
-11.497
-9.724
-8.151
-6.796
-5.676
-4.805
-4.193
-3.847
-3.774
-3.982
-4.486
-5.3
-6.432
-7.89
-9.676
-11.783
-14.198
-16.894
-19.835
-22.976
-26.276
-29.691
-33.186
-36.726
-40.269
-43.77
-47.164
-50.385
-53.37
-56.059
-58.405
-60.379
-61.981
-63.242
-64.239
-65.052
-65.751
-66.413
-67.11
-67.929
-68.987
-70.388
-72.211
-74.573
-77.644
-81.535
-86.267
-91.643
-97.185
-102.383
-106.805
-109.982
-111.369
-110.52
-107.217
-101.881
-95.682
-89.832
-85.172
-82.37
-82.116
-84.991
-91.173
-98.59
-102.957
-100.254
-87.786
-66.502
-39.268
-5.644
38.255
99.481
184.768
294.017
421.284
557.245
691.753
816.936
924.268
1003.617
1043.198
1032.161
967.46
853.262
701.227
528.351
351.202
186.665
49.307
-50.145
-107.445
-127.068
-118.339
-96.643
-75.417
-61.281
-58.749
-63.619
-68.466
-70.339
-65.647
-55.87
-47.053
-41.287
-39.797
-42.544
-46.423
-50.046
-53.579
-56.744
-59.568
-62.223
-64.345
-65.539
-65.979
-65.786
-64.934
-63.829
-63.037
-62.812
-63.417
-65.095
-67.746
-71.264
-75.541
-80.201
-84.786
-88.98
-92.552
-95.371
-97.447
-98.786
-99.385
-99.317
-98.68
-97.561
-96.032
-94.136
-91.895
-89.348
-86.565
-83.625
-80.613
-77.607
-74.656
-71.79
-69.031
-66.388
-63.86
-61.438
-59.104
-56.835
-54.612
-52.426
-50.265
-48.119
-45.968
-43.789
-41.558
-39.252
-36.851
-34.34
-31.704
-28.931
-26.01
-22.933
-19.695
-16.293
-12.722
-8.975
-5.047
-0.934
3.366
7.853
12.525
17.38
22.41
27.608
32.963
38.462
44.089
49.83
55.665
61.575
67.538
73.533
79.535
85.519
91.459
97.329
103.101
108.747
114.239
119.549
124.65
129.515
134.119
138.435
142.441
146.114
149.434
152.38
154.936
157.086
158.815
160.113
160.97
161.379
161.336
160.84
159.892
158.494
156.653
154.378
151.679
148.569
145.063
141.176
136.929
132.34
127.433
122.23
116.756
111.038
105.102
98.975
92.686
86.263
79.734
73.127
66.47
59.79
53.116
46.472
39.885
33.379
26.978
20.704
14.577
8.618
2.843
-2.731
-8.09
-13.223
-18.118
-22.766
-27.16
-31.295
-35.167
-38.774
-42.114
-45.189
-48.001
-50.555
-52.854
-54.907
-56.72
-58.303
-59.664
-60.814
-61.763
-62.523
-63.105
-63.521
-63.784
-63.906
-63.899
-63.777
-63.55
-63.233
-62.835
-62.369
-61.845
-61.272
-60.661
-60.021
-59.358
-58.68
-57.994
-57.306
-56.622
-55.945
-55.281
-54.631
-54
-53.388
-52.796
-52.227
-51.679
-51.153
-50.648
-50.165
-49.701
-49.257
-48.831
-48.421
-48.026
-47.646
-47.277
-46.918
-46.568
-46.225
-45.888
-45.555
-45.225
-44.897
-44.572
-44.247
-43.924
-43.603
-43.282
-42.964
-42.647
-42.333
-42.023
-41.718
-41.419
-41.127
-40.844
-40.571
-40.31
-40.062
-39.828
-39.61
-39.408
-39.223
-39.055
-38.905
-38.773
-38.66
-38.565
-38.49
-38.433
-38.395
-38.376
-38.375
-38.393
-38.427
-38.478
-38.545
-38.628
-38.726
-38.838
-38.963
-39.101
-39.251
-39.413
-39.586
-39.769
-39.962
-40.164
-40.374
-40.593
-40.821
-41.057
-41.302
-41.557
-41.822
-42.098
-42.387
-42.689
-43.005
-43.336
-43.682
-44.044
-44.423
-44.819
-45.231
-45.66
-46.105
-46.566
-47.041
-47.528
-48.027
-48.534
-49.048
-49.565
-50.082
-50.594
-51.098
-51.59
-52.065
-52.517
-52.943
-53.335
-53.689
-53.998
-54.255
-54.453
-54.587
-54.648
-54.63
-54.525
-54.329
-54.034
-53.636
-53.128
-52.507
-51.77
-50.913
-49.934
-48.833
-47.61
-46.264
-44.8
-43.219
-41.527
-39.728
-37.831
-35.847
-33.785
-31.66
-29.484
-27.274
-25.043
-22.81
-20.591
-18.401
-16.256
-14.17
-12.163
-10.251
-8.455
-6.793
-5.284
-3.943
-2.787
-1.833
-1.091
-0.568
-0.27
-0.199
-0.366
-0.788
-1.48
-2.451
-3.707
-5.248
-7.067
-9.153
-11.484
-14.017
-16.707
-19.508
-22.375
-25.276
-28.173
-31.021
-33.763
-36.325
-38.638
-40.649
-42.308
-43.576
-44.437
-44.893
-44.99
-44.823
-44.473
-44.034
-43.61
-43.291
-43.218
-43.533
-44.338
-45.775
-48.027
-51.195
-55.326
-60.308
-65.741
-71.197
-76.313
-80.591
-83.476
-84.559
-83.533
-80.594
-76.698
-72.788
-69.515
-67.683
-68.089
-71.226
-77.472
-85.159
-90.153
-89.034
-79.673
-62.846
-41.33
-14.254
24.194
83.038
168.747
280.36
408.671
540.202
667.484
787.606
898.13
995.011
1062.077
1079.407
1035.57
927.274
768.12
582.484
392.664
219.96
78.806
-24.255
-86.969
-112.092
-106.843
-82.397
-50.315
-23.209
-10.567
-13.597
-28.917
-47.554
-60.771
-66.102
-65.179
-63.554
-65.346
-70.647
-77.526
-82.57
-84.103
-82.658
-79.143
-74.627
-69.862
-65.035
-60.451
-56.782
-54.35
-53.158
-53.164
-54.179
-56.024
-58.701
-62.141
-66.033
-70.136
-74.248
-78.14
-81.704
-84.823
-87.344
-89.183
-90.328
-90.789
-90.614
-89.864
-88.578
-86.812
-84.631
-82.09
-79.263
-76.215
-73.018
-69.749
-66.483
-63.29
-60.225
-57.318
-54.587
-52.037
-49.659
-47.441
-45.361
-43.394
-41.516
-39.71
-37.956
-36.236
-34.531
-32.817
-31.072
-29.276
-27.408
-25.451
-23.389
-21.209
-18.899
-16.45
-13.854
-11.105
-8.198
-5.124
-1.877
1.548
5.156
8.949
12.928
17.093
21.44
25.963
30.652
35.497
40.484
45.599
50.823
56.139
61.526
66.963
72.428
77.896
83.343
88.745
94.074
99.304
104.41
109.365
114.143
118.719
123.067
127.164
130.986
134.512
137.72
140.592
143.107
145.25
147.006
148.36
149.301
149.82
149.91
149.567
148.789
147.578
145.935
143.868
141.384
138.493
135.207
131.542
127.513
123.139
118.438
113.433
108.146
102.601
96.821
90.834
84.663
78.336
71.879
65.317
58.677
51.986
45.269
38.552
31.859
25.216
18.647
12.173
5.818
-0.398
-6.457
-12.341
-18.034
-23.521
-28.79
-33.83
-38.633
-43.19
-47.496
-51.549
-55.344
-58.883
-62.167
-65.197
-67.978
-70.516
-72.816
-74.885
-76.731
-78.362
-79.787
-81.014
-82.054
-82.917
-83.611
-84.148
-84.539
-84.794
-84.923
-84.937
-84.846
-84.661
-84.391
-84.046
-83.633
-83.161
-82.637
-82.069
-81.462
-80.822
-80.153
-79.459
-78.744
-78.01
-77.259
-76.492
-75.71
-74.913
-74.103
-73.279
-72.441
-71.591
-70.728
-69.854
-68.969
-68.074
-67.171
-66.261
-65.345
-64.424
-63.501
-62.577
-61.653
-60.733
-59.818
-58.91
-58.013
-57.128
-56.259
-55.409
-54.581
-53.778
-53.004
-52.263
-51.559
-50.894
-50.275
-49.704
-49.186
-48.724
-48.321
-47.981
-47.706
-47.498
-47.358
-47.287
-47.285
-47.351
-47.485
-47.685
-47.951
-48.279
-48.667
-49.113
-49.613
-50.163
-50.761
-51.403
-52.083
-52.799
-53.546
-54.32
-55.116
-55.931
-56.759
-57.597
-58.439
-59.282
-60.119
-60.948
-61.763
-62.56
-63.335
-64.086
-64.808
-65.5
-66.158
-66.781
-67.368
-67.917
-68.426
-68.896
-69.326
-69.714
-70.061
-70.367
-70.632
-70.856
-71.04
-71.183
-71.286
-71.347
-71.368
-71.347
-71.283
-71.175
-71.022
-70.822
-70.574
-70.276
-69.928
-69.527
-69.071
-68.559
-67.99
-67.359
-66.665
-65.906
-65.078
-64.179
-63.207
-62.161
-61.038
-59.838
-58.559
-57.201
-55.765
-54.25
-52.658
-50.99
-49.248
-47.436
-45.559
-43.62
-41.627
-39.588
-37.515
-35.418
-33.312
-31.21
-29.126
-27.077
-25.078
-23.144
-21.289
-19.525
-17.866
-16.327
-14.923
-13.671
-12.588
-11.687
-10.983
-10.487
-10.212
-10.166
-10.352
-10.769
-11.421
-12.314
-13.466
-14.892
-16.6
-18.595
-20.875
-23.43
-26.243
-29.284
-32.503
-35.844
-39.251
-42.672
-46.07
-49.402
-52.619
-55.659
-58.442
-60.893
-62.957
-64.588
-65.749
-66.437
-66.671
-66.52
-66.102
-65.527
-64.911
-64.378
-64.049
-64.075
-64.597
-65.719
-67.598
-70.434
-74.334
-79.314
-85.178
-91.437
-97.604
-103.265
-107.839
-110.663
-111.231
-109.27
-105.177
-100.09
-95.059
-90.756
-88.027
-87.8
-90.533
-96.322
-102.972
-105.85
-102.16
-90.176
-69.354
-41.782
-3.988
50.585
125.112
223.594
341.785
469.026
599.533
725.837
842.438
944.868
1021.04
1057.266
1042.199
971.056
849.375
690.667
512.644
333.129
168.142
30.462
-70.803
-133.76
-161.388
-158.259
-134.317
-97.42
-56.644
-26.054
-11.557
-14.877
-31.91
-49.754
-61.953
-67.41
-67.91
-69.789
-74.957
-81.678
-88.303
-92.198
-92.324
-89.215
-83.434
-76.132
-68.73
-62.179
-57.007
-53.398
-51.33
-50.86
-52.019
-54.625
-58.226
-62.348
-66.69
-71.073
-75.406
-79.562
-83.341
-86.576
-89.201
-91.205
-92.585
-93.347
-93.476
-92.968
-91.873
-90.259
-88.197
-85.761
-83.01
-79.998
-76.794
-73.467
-70.086
-66.721
-63.417
-60.198
-57.081
-54.068
-51.154
-48.334
-45.59
-42.895
-40.226
-37.564
-34.891
-32.196
-29.466
-26.682
-23.829
-20.89
-17.855
-14.714
-11.459
-8.087
-4.591
-0.97
2.774
6.641
10.627
14.732
18.953
23.289
27.737
32.292
36.949
41.7
46.537
51.45
56.427
61.453
66.516
71.599
76.685
81.758
86.8
91.792
96.715
101.55
106.279
110.881
115.337
119.629
123.737
127.644
131.333
134.786
137.988
140.925
143.583
145.949
148.012
149.762
151.191
152.292
153.057
153.483
153.567
153.307
152.703
151.757
150.473
148.855
146.91
144.645
142.069
139.193
136.029
132.588
128.884
124.932
120.746
116.343
111.739
106.95
101.995
96.891
91.656
86.308
80.864
75.343
69.763
64.141
58.494
52.84
47.195
41.576
35.998
30.477
25.026
19.661
14.394
9.238
4.205
-0.695
-5.452
-10.055
-14.498
-18.772
-22.87
-26.787
-30.519
-34.06
-37.409
-40.563
-43.521
-46.282
-48.846
-51.215
-53.389
-55.372
-57.166
-58.774
-60.202
-61.453
-62.533
-63.447
-64.202
-64.804
-65.259
-65.576
-65.761
-65.822
-65.768
-65.605
-65.343
-64.989
-64.551
-64.04
-63.461
-62.824
-62.135
-61.404
-60.636
-59.839
-59.02
-58.184
-57.337
-56.485
-55.633
-54.785
-53.946
-53.119
-52.308
-51.515
-50.743
-49.994
-49.269
-48.57
-47.897
-47.252
-46.635
-46.044
-45.481
-44.945
-44.433
-43.946
-43.482
-43.038
-42.612
-42.203
-41.809
-41.427
-41.055
-40.691
-40.334
-39.982
-39.633
-39.286
-38.941
-38.597
-38.252
-37.908
-37.564
-37.222
-36.882
-36.545
-36.213
-35.888
-35.571
-35.266
-34.973
-34.695
-34.435
-34.195
-33.977
-33.784
-33.619
-33.485
-33.384
-33.321
-33.298
-33.318
-33.384
-33.5
-33.667
-33.888
-34.165
-34.499
-34.894
-35.348
-35.864
-36.44
-37.078
-37.775
-38.53
-39.341
-40.205
-41.118
-42.076
-43.075
-44.11
-45.176
-46.266
-47.377
-48.502
-49.635
-50.769
-51.898
-53.016
-54.114
-55.185
-56.221
-57.213
-58.154
-59.035
-59.848
-60.583
-61.234
-61.792
-62.248
-62.595
-62.825
-62.931
-62.906
-62.745
-62.442
-61.994
-61.398
-60.651
-59.752
-58.702
-57.502
-56.152
-54.657
-53.02
-51.244
-49.335
-47.3
-45.146
-42.88
-40.514
-38.057
-35.523
-32.925
-30.28
-27.604
-24.916
-22.235
-19.581
-16.975
-14.438
-11.988
-9.645
-7.428
-5.355
-3.446
-1.721
-0.198
1.106
2.175
2.994
3.551
3.836
3.846
3.578
3.03
2.2
1.078
-0.346
-2.077
-4.118
-6.468
-9.118
-12.051
-15.237
-18.633
-22.188
-25.852
-29.575
-33.315
-37.027
-40.665
-44.17
-47.475
-50.512
-53.217
-55.54
-57.431
-58.865
-59.856
-60.457
-60.769
-60.898
-60.929
-60.951
-61.074
-61.409
-62.076
-63.199
-64.842
-67.123
-70.256
-74.329
-79.309
-84.995
-90.882
-96.435
-101.228
-104.668
-106.007
-104.799
-100.934
-94.773
-87.383
-79.958
-73.444
-68.913
-67.731
-69.734
-73.03
-75.664
-74.417
-68.704
-61.513
-51.733
-35.546
-4.861
52.647
140.591
254.831
386.457
522.574
657.362
788.347
908.816
1008.262
1067.82
1068.602
1003.524
875.953
702.563
507.583
312.363
137.671
-1.885
-100.904
-158.436
-181.316
-180.088
-161.9
-134.164
-103.557
-73.585
-49.666
-34.051
-23.386
-16.074
-9.817
-4.349
-3.859
-10.018
-22.595
-39.707
-57.205
-72.142
-83.091
-89.57
-91.989
-90.84
-86.787
-80.811
-74.016
-67.674
-62.705
-59.477
-58.156
-58.655
-60.697
-64.003
-68.156
-72.579
-76.874
-80.799
-84.167
-86.952
-89.153
-90.728
-91.704
-92.143
-92.071
-91.529
-90.557
-89.162
-87.378
-85.258
-82.852
-80.234
-77.476
-74.644
-71.804
-69.006
-66.279
-63.647
-61.121
-58.702
-56.387
-54.164
-52.009
-49.907
-47.838
-45.785
-43.73
-41.648
-39.515
-37.309
-35.009
-32.596
-30.057
-27.377
-24.544
-21.549
-18.384
-15.044
-11.529
-7.832
-3.953
0.113
4.365
8.804
13.426
18.229
23.208
28.356
33.662
39.114
44.697
50.395
56.191
62.063
67.99
73.949
79.915
85.863
91.765
97.596
103.326
108.929
114.376
119.639
124.693
129.509
134.063
138.331
142.289
145.916
149.191
152.096
154.614
156.728
158.426
159.696
160.528
160.915
160.85
160.332
159.36
157.935
156.062
153.749
151.004
147.84
144.271
140.312
135.983
131.304
126.295
120.981
115.387
109.537
103.459
97.179
90.727
84.13
77.417
70.616
63.755
56.863
49.968
43.095
36.272
29.524
22.874
16.347
9.965
3.749
-2.282
-8.11
-13.717
-19.089
-24.213
-29.077
-33.672
-37.991
-42.027
-45.777
-49.238
-52.411
-55.297
-57.899
-60.22
-62.268
-64.049
-65.572
-66.846
-67.882
-68.691
-69.286
-69.679
-69.885
-69.915
-69.786
-69.509
-69.1
-68.572
-67.939
-67.214
-66.412
-65.544
-64.623
-63.663
-62.673
-61.664
-60.647
-59.631
-58.625
-57.635
-56.669
-55.733
-54.831
-53.968
-53.148
-52.374
-51.648
-50.97
-50.342
-49.764
-49.234
-48.751
-48.314
-47.919
-47.564
-47.246
-46.963
-46.71
-46.485
-46.285
-46.106
-45.945
-45.8
-45.666
-45.541
-45.423
-45.309
-45.196
-45.083
-44.968
-44.849
-44.724
-44.593
-44.455
-44.307
-44.151
-43.985
-43.809
-43.622
-43.426
-43.22
-43.005
-42.783
-42.555
-42.323
-42.088
-41.852
-41.617
-41.385
-41.159
-40.939
-40.729
-40.529
-40.341
-40.168
-40.01
-39.869
-39.746
-39.643
-39.559
-39.497
-39.456
-39.437
-39.442
-39.47
-39.523
-39.601
-39.705
-39.835
-39.992
-40.177
-40.389
-40.629
-40.897
-41.191
-41.512
-41.859
-42.229
-42.623
-43.037
-43.47
-43.92
-44.384
-44.86
-45.345
-45.836
-46.33
-46.824
-47.316
-47.802
-48.279
-48.743
-49.193
-49.623
-50.03
-50.41
-50.76
-51.073
-51.347
-51.576
-51.757
-51.884
-51.953
-51.96
-51.9
-51.769
-51.563
-51.278
-50.911
-50.458
-49.919
-49.29
-48.571
-47.761
-46.86
-45.868
-44.787
-43.619
-42.365
-41.029
-39.613
-38.123
-36.563
-34.938
-33.256
-31.524
-29.752
-27.954
-26.141
-24.325
-22.523
-20.747
-19.015
-17.338
-15.731
-14.204
-12.771
-11.443
-10.236
-9.166
-8.245
-7.487
-6.904
-6.508
-6.307
-6.31
-6.516
-6.924
-7.534
-8.353
-9.396
-10.679
-12.212
-13.998
-16.038
-18.322
-20.834
-23.545
-26.406
-29.363
-32.363
-35.359
-38.316
-41.201
-43.97
-46.566
-48.912
-50.933
-52.574
-53.789
-54.544
-54.844
-54.713
-54.223
-53.499
-52.655
-51.813
-51.102
-50.643
-50.562
-50.994
-52.061
-53.932
-56.843
-60.945
-66.232
-72.491
-79.275
-86.059
-92.326
-97.437
-100.617
-101.244
-99.131
-94.803
-89.316
-83.879
-79.788
-78.082
-79.66
-85.428
-94.288
-103.645
-111.642
-114.97
-111.904
-101.391
-76.929
-33.023
34.661
127.688
238.213
357.741
480.463
603.808
730.234
857.737
975.487
1066.277
1109.502
1091.199
1010.335
875.907
705.337
518.682
333.932
168.11
34.255
-59.344
-111.139
-127.002
-116.4
-91.577
-62.958
-39.17
-26.888
-27.142
-37.669
-51.677
-62.09
-67.017
-67.607
-68.241
-72.287
-78.758
-85.204
-89.128
-89.44
-86.792
-82.295
-76.678
-70.33
-64.062
-58.714
-54.742
-52.366
-51.451
-51.702
-53.078
-55.596
-58.954
-62.825
-66.958
-71.094
-75.134
-79.017
-82.555
-85.567
-87.961
-89.686
-90.734
-91.145
-90.925
-90.09
-88.7
-86.818
-84.521
-81.886
-78.98
-75.863
-72.606
-69.282
-65.961
-62.714
-59.588
-56.608
-53.79
-51.134
-48.635
-46.28
-44.05
-41.918
-39.859
-37.853
-35.879
-33.921
-31.958
-29.97
-27.935
-25.831
-23.642
-21.352
-18.948
-16.419
-13.757
-10.953
-8.003
-4.903
-1.651
1.757
5.326
9.056
12.949
17.004
21.217
25.584
30.098
34.749
39.528
44.418
49.407
54.477
59.61
64.786
69.986
75.186
80.365
85.499
90.563
95.534
100.385
105.094
109.635
113.986
118.121
122.021
125.662
129.024
132.089
134.838
137.256
139.326
141.037
142.376
143.334
143.903
144.078
143.856
143.234
142.215
140.8
138.996
136.809
134.249
131.326
128.053
124.446
120.52
116.294
111.785
107.015
102.004
96.775
91.35
85.752
80.006
74.134
68.162
62.112
56.009
49.876
43.736
37.613
31.528
25.502
19.556
13.709
7.979
2.385
-3.06
-8.338
-13.438
-18.347
-23.054
-27.55
-31.827
-35.879
-39.7
-43.287
-46.639
-49.753
-52.631
-55.274
-57.685
-59.867
-61.827
-63.569
-65.1
-66.428
-67.562
-68.509
-69.279
-69.883
-70.331
-70.633
-70.8
-70.844
-70.775
-70.605
-70.345
-70.005
-69.596
-69.13
-68.615
-68.062
-67.48
-66.877
-66.263
-65.645
-65.031
-64.426
-63.838
-63.272
-62.733
-62.224
-61.749
-61.311
-60.913
-60.556
-60.241
-59.969
-59.74
-59.553
-59.408
-59.303
-59.236
-59.204
-59.206
-59.238
-59.296
-59.377
-59.478
-59.593
-59.721
-59.855
-59.994
-60.131
-60.264
-60.388
-60.499
-60.594
-60.668
-60.717
-60.74
-60.732
-60.691
-60.616
-60.503
-60.352
-60.161
-59.929
-59.657
-59.343
-58.988
-58.593
-58.159
-57.688
-57.182
-56.644
-56.076
-55.482
-54.867
-54.233
-53.585
-52.928
-52.265
-51.603
-50.945
-50.296
-49.663
-49.05
-48.463
-47.907
-47.389
-46.912
-46.483
-46.106
-45.785
-45.524
-45.328
-45.2
-45.143
-45.16
-45.253
-45.424
-45.674
-46.005
-46.415
-46.904
-47.47
-48.11
-48.821
-49.599
-50.439
-51.337
-52.286
-53.282
-54.316
-55.382
-56.472
-57.577
-58.689
-59.798
-60.893
-61.965
-63.002
-63.994
-64.931
-65.802
-66.596
-67.303
-67.913
-68.414
-68.799
-69.056
-69.176
-69.151
-68.973
-68.636
-68.133
-67.462
-66.617
-65.598
-64.404
-63.034
-61.492
-59.78
-57.901
-55.862
-53.669
-51.331
-48.856
-46.258
-43.548
-40.741
-37.856
-34.912
-31.928
-28.927
-25.93
-22.961
-20.045
-17.203
-14.458
-11.829
-9.34
-7.009
-4.861
-2.918
-1.202
0.269
1.475
2.402
3.033
3.359
3.376
3.085
2.485
1.569
0.325
-1.263
-3.198
-5.484
-8.119
-11.088
-14.374
-17.945
-21.746
-25.721
-29.811
-33.962
-38.132
-42.279
-46.351
-50.284
-53.998
-57.408
-60.449
-63.06
-65.191
-66.831
-67.991
-68.729
-69.147
-69.339
-69.414
-69.48
-69.633
-69.98
-70.626
-71.655
-73.226
-75.576
-78.843
-83.082
-88.184
-93.746
-99.327
-104.493
-108.576
-110.815
-110.671
-107.801
-102.391
-95.524
-88.51
-82.554
-79.235
-79.17
-81.274
-84.546
-87.146
-88.367
-91.477
-97.697
-103.816
-101.553
-74.37
-8.793
95.909
231.686
380.732
525.838
663.922
795.212
917.857
1025.49
1098.04
1115.302
1070.553
966.846
819.531
649.891
471.657
296.9
137.941
5.062
-89.478
-138.401
-143.278
-114.692
-69.664
-25.586
1.587
6.413
-7.729
-33.285
-56.943
-71.755
-77.777
-77.423
-77.225
-80.101
-84.562
-88.734
-90.069
-87.802
-83.063
-76.953
-70.472
-64.361
-59.058
-54.987
-52.397
-51.269
-51.468
-52.798
-55.103
-58.242
-62.027
-66.246
-70.712
-75.27
-79.777
-84.097
-88.072
-91.541
-94.4
-96.595
-98.101
-98.93
-99.106
-98.658
-97.644
-96.133
-94.189
-91.882
-89.276
-86.43
-83.413
-80.296
-77.145
-74.026
-70.98
-68.03
-65.186
-62.446
-59.797
-57.227
-54.713
-52.225
-49.742
-47.242
-44.709
-42.127
-39.481
-36.752
-33.92
-30.971
-27.89
-24.668
-21.296
-17.768
-14.08
-10.229
-6.217
-2.046
2.282
6.767
11.406
16.196
21.133
26.21
31.42
36.752
42.197
47.74
53.365
59.055
64.79
70.551
76.316
82.063
87.769
93.41
98.962
104.402
109.704
114.845
119.801
124.548
129.063
133.324
137.309
140.998
144.371
147.411
150.101
152.426
154.371
155.926
157.08
157.824
158.152
158.059
157.544
156.605
155.245
153.468
151.281
148.694
145.716
142.361
138.644
134.582
130.192
125.494
120.509
115.258
109.765
104.053
98.147
92.071
85.851
79.512
73.08
66.581
60.04
53.481
46.93
40.411
33.947
27.561
21.275
15.109
9.084
3.218
-2.473
-7.972
-13.266
-18.342
-23.19
-27.801
-32.168
-36.285
-40.148
-43.755
-47.105
-50.199
-53.038
-55.626
-57.967
-60.068
-61.934
-63.573
-64.993
-66.204
-67.216
-68.038
-68.682
-69.158
-69.478
-69.654
-69.698
-69.623
-69.439
-69.16
-68.797
-68.361
-67.863
-67.314
-66.723
-66.101
-65.454
-64.792
-64.121
-63.447
-62.776
-62.112
-61.46
-60.823
-60.204
-59.604
-59.026
-58.47
-57.938
-57.429
-56.943
-56.481
-56.042
-55.624
-55.228
-54.852
-54.493
-54.152
-53.825
-53.511
-53.208
-52.913
-52.624
-52.339
-52.056
-51.773
-51.489
-51.201
-50.908
-50.609
-50.304
-49.991
-49.67
-49.341
-49.005
-48.661
-48.311
-47.956
-47.596
-47.232
-46.866
-46.498
-46.13
-45.762
-45.396
-45.033
-44.674
-44.32
-43.973
-43.634
-43.304
-42.986
-42.68
-42.389
-42.115
-41.859
-41.624
-41.411
-41.223
-41.061
-40.929
-40.827
-40.757
-40.722
-40.723
-40.761
-40.836
-40.951
-41.105
-41.299
-41.533
-41.807
-42.12
-42.474
-42.866
-43.297
-43.765
-44.268
-44.806
-45.375
-45.973
-46.598
-47.245
-47.91
-48.591
-49.281
-49.978
-50.675
-51.367
-52.048
-52.713
-53.354
-53.966
-54.54
-55.071
-55.55
-55.971
-56.326
-56.61
-56.816
-56.938
-56.97
-56.905
-56.74
-56.469
-56.087
-55.591
-54.978
-54.243
-53.388
-52.41
-51.31
-50.09
-48.752
-47.299
-45.737
-44.069
-42.303
-40.445
-38.502
-36.484
-34.4
-32.261
-30.078
-27.865
-25.639
-23.417
-21.216
-19.055
-16.953
-14.928
-13
-11.185
-9.498
-7.951
-6.558
-5.334
-4.293
-3.451
-2.819
-2.407
-2.224
-2.276
-2.569
-3.103
-3.869
-4.86
-6.072
-7.504
-9.172
-11.088
-13.254
-15.67
-18.328
-21.215
-24.315
-27.598
-31.008
-34.491
-37.992
-41.461
-44.867
-48.169
-51.312
-54.23
-56.833
-59.038
-60.785
-62.023
-62.724
-62.886
-62.53
-61.708
-60.511
-59.049
-57.454
-55.859
-54.387
-53.159
-52.274
-51.904
-52.343
-53.784
-56.257
-59.608
-63.407
-67.2
-70.667
-73.301
-74.355
-73.338
-70.158
-65.306
-60.019
-55.703
-53.484
-54.49
-60.045
-69.832
-81.637
-92.937
-100.026
-102.312
-102.905
-100.518
-90.94
-64.113
-5.395
88.61
212.797
354.556
495.835
629.507
753.398
864.856
960.221
1026.29
1047.194
1013.166
921.863
779.638
602.648
411.617
227.542
73.987
-34.996
-98.92
-123.794
-127.301
-124.762
-120.017
-116.472
-110.799
-100.137
-89.615
-79.252
-69.516
-61.514
-52.287
-43.936
-39.078
-37.698
-40.474
-45.692
-51.479
-57.677
-63.772
-69.048
-72.873
-74.693
-74.426
-72.473
-69.299
-65.211
-60.67
-56.465
-53.282
-51.509
-51.275
-52.397
-54.596
-57.648
-61.222
-64.849
-68.151
-70.899
-72.982
-74.431
-75.298
-75.602
-75.388
-74.738
-73.716
-72.378
-70.765
-68.895
-66.8
-64.545
-62.198
-59.834
-57.522
-55.303
-53.2
-51.229
-49.389
-47.674
-46.071
-44.558
-43.111
-41.708
-40.331
-38.962
-37.58
-36.165
-34.687
-33.121
-31.44
-29.625
-27.657
-25.523
-23.209
-20.706
-18.005
-15.1
-11.988
-8.664
-5.124
-1.363
2.62
6.825
11.251
15.892
20.742
25.794
31.036
36.455
42.035
47.76
53.609
59.562
65.596
71.687
77.809
83.936
90.04
96.092
102.065
107.929
113.656
119.217
124.586
129.735
134.638
139.268
143.602
147.617
151.29
154.602
157.532
160.065
162.185
163.879
165.137
165.949
166.31
166.214
165.66
164.649
163.184
161.269
158.913
156.126
152.92
149.309
145.311
140.944
136.227
131.183
125.834
120.203
114.317
108.199
101.877
95.376
88.723
81.946
75.072
68.128
61.142
54.138
47.145
40.186
33.287
26.47
19.759
13.175
6.739
0.469
-5.616
-11.498
-17.164
-22.599
-27.79
-32.728
-37.404
-41.81
-45.942
-49.795
-53.368
-56.66
-59.671
-62.404
-64.86
-67.045
-68.963
-70.621
-72.026
-73.186
-74.11
-74.809
-75.291
-75.569
-75.654
-75.556
-75.287
-74.86
-74.286
-73.577
-72.747
-71.807
-70.769
-69.647
-68.453
-67.198
-65.893
-64.551
-63.181
-61.792
-60.395
-58.998
-57.609
-56.236
-54.886
-53.565
-52.28
-51.037
-49.839
-48.691
-47.597
-46.561
-45.584
-44.669
-43.818
-43.031
-42.31
-41.656
-41.069
-40.548
-40.094
-39.705
-39.38
-39.117
-38.914
-38.769
-38.678
-38.638
-38.646
-38.7
-38.796
-38.93
-39.1
-39.301
-39.531
-39.787
-40.064
-40.359
-40.669
-40.99
-41.321
-41.657
-41.996
-42.337
-42.675
-43.01
-43.34
-43.662
-43.975
-44.277
-44.568
-44.845
-45.108
-45.357
-45.591
-45.81
-46.016
-46.208
-46.389
-46.558
-46.717
-46.869
-47.013
-47.152
-47.288
-47.422
-47.556
-47.693
-47.834
-47.981
-48.138
-48.305
-48.485
-48.678
-48.888
-49.114
-49.357
-49.619
-49.9
-50.2
-50.519
-50.857
-51.213
-51.586
-51.976
-52.38
-52.796
-53.222
-53.655
-54.092
-54.528
-54.96
-55.382
-55.792
-56.183
-56.552
-56.894
-57.202
-57.473
-57.699
-57.877
-57.999
-58.062
-58.058
-57.983
-57.832
-57.6
-57.283
-56.878
-56.38
-55.789
-55.1
-54.315
-53.431
-52.449
-51.371
-50.196
-48.93
-47.574
-46.135
-44.617
-43.029
-41.38
-39.682
-37.945
-36.183
-34.41
-32.639
-30.886
-29.164
-27.487
-25.869
-24.322
-22.86
-21.499
-20.254
-19.142
-18.175
-17.368
-16.734
-16.282
-16.024
-15.961
-16.097
-16.431
-16.971
-17.73
-18.719
-19.946
-21.415
-23.126
-25.072
-27.241
-29.612
-32.146
-34.8
-37.529
-40.29
-43.052
-45.781
-48.435
-50.964
-53.298
-55.375
-57.146
-58.562
-59.588
-60.207
-60.417
-60.262
-59.83
-59.2
-58.462
-57.715
-57.048
-56.592
-56.484
-56.823
-57.739
-59.402
-61.914
-65.323
-69.54
-74.196
-78.881
-83.239
-86.79
-88.997
-89.456
-87.857
-84.357
-79.873
-75.364
-71.539
-69.248
-69.3
-72.228
-78.472
-86.538
-92.54
-93.052
-85.801
-71.206
-51.514
-25.901
11.076
67.824
149.837
256.269
379.057
506.048
630.911
750.363
859.406
951.574
1011.424
1021.454
975.19
873.921
728.065
556.963
377.136
204.231
56.313
-54.673
-123.733
-150.6
-143.852
-117.443
-81.079
-45.975
-23.981
-17.398
-26.668
-46.359
-62.754
-69.572
-65.85
-54.303
-43.524
-37.81
-36.737
-39.255
-42.896
-46.633
-50.942
-55.613
-60.246
-64.301
-67.323
-69.167
-69.83
-69.391
-68.141
-66.706
-65.679
-65.501
-66.376
-68.255
-71
-74.406
-78.148
-81.769
-84.932
-87.441
-89.199
-90.247
-90.625
-90.366
-89.546
-88.268
-86.608
-84.618
-82.331
-79.759
-76.945
-73.965
-70.895
-67.819
-64.795
-61.855
-59.023
-56.31
-53.719
-51.244
-48.869
-46.57
-44.331
-42.145
-40.001
-37.893
-35.804
-33.713
-31.599
-29.438
-27.211
-24.9
-22.49
-19.969
-17.326
-14.554
-11.645
-8.597
-5.404
-2.06
1.441
5.104
8.931
12.925
17.084
21.408
25.891
30.527
35.307
40.222
45.258
50.402
55.638
60.949
66.315
71.718
77.136
82.546
87.925
93.249
98.494
103.634
108.644
113.499
118.173
122.643
126.883
130.872
134.586
138.004
141.107
143.876
146.295
148.348
150.022
151.305
152.189
152.666
152.73
152.379
151.612
150.431
148.838
146.84
144.445
141.663
138.506
134.987
131.121
126.925
122.418
117.62
112.551
107.233
101.689
95.944
90.021
83.947
77.745
71.442
65.063
58.633
52.178
45.721
39.287
32.898
26.577
20.343
14.219
8.221
2.368
-3.324
-8.841
-14.168
-19.294
-24.208
-28.901
-33.365
-37.594
-41.584
-45.33
-48.831
-52.086
-55.095
-57.86
-60.384
-62.671
-64.726
-66.555
-68.165
-69.566
-70.764
-71.771
-72.595
-73.248
-73.739
-74.081
-74.284
-74.358
-74.315
-74.166
-73.921
-73.59
-73.183
-72.71
-72.18
-71.602
-70.984
-70.334
-69.659
-68.966
-68.262
-67.552
-66.842
-66.137
-65.44
-64.756
-64.089
-63.44
-62.812
-62.206
-61.625
-61.067
-60.533
-60.024
-59.536
-59.071
-58.626
-58.2
-57.792
-57.398
-57.019
-56.651
-56.294
-55.944
-55.601
-55.263
-54.928
-54.594
-54.261
-53.927
-53.591
-53.252
-52.909
-52.562
-52.208
-51.848
-51.482
-51.108
-50.726
-50.336
-49.939
-49.534
-49.122
-48.704
-48.282
-47.855
-47.425
-46.994
-46.563
-46.134
-45.708
-45.287
-44.873
-44.468
-44.073
-43.691
-43.323
-42.971
-42.636
-42.32
-42.024
-41.75
-41.5
-41.275
-41.076
-40.905
-40.763
-40.653
-40.575
-40.531
-40.521
-40.548
-40.611
-40.713
-40.852
-41.03
-41.247
-41.503
-41.798
-42.132
-42.504
-42.913
-43.358
-43.837
-44.349
-44.891
-45.461
-46.057
-46.675
-47.313
-47.968
-48.637
-49.315
-49.998
-50.683
-51.365
-52.038
-52.697
-53.336
-53.949
-54.53
-55.074
-55.574
-56.024
-56.418
-56.75
-57.013
-57.201
-57.309
-57.33
-57.259
-57.091
-56.82
-56.443
-55.957
-55.358
-54.645
-53.815
-52.866
-51.799
-50.614
-49.312
-47.894
-46.363
-44.726
-42.986
-41.151
-39.229
-37.228
-35.161
-33.04
-30.881
-28.702
-26.521
-24.36
-22.238
-20.175
-18.187
-16.292
-14.504
-12.837
-11.306
-9.925
-8.707
-7.669
-6.827
-6.193
-5.774
-5.569
-5.57
-5.765
-6.148
-6.72
-7.489
-8.467
-9.661
-11.081
-12.737
-14.636
-16.771
-19.108
-21.6
-24.195
-26.865
-29.608
-32.428
-35.315
-38.229
-41.102
-43.844
-46.383
-48.642
-50.509
-51.937
-52.963
-53.732
-54.532
-55.68
-57.384
-59.761
-62.884
-66.545
-70.288
-73.576
-75.733
-76.184
-74.676
-71.151
-65.617
-58.655
-51.333
-44.647
-39.634
-37.063
-37.169
-40.131
-46.349
-55.522
-66.669
-79.088
-92.008
-104.869
-117.815
-129.501
-136.662
-137.087
-128.923
-112.853
-93.035
-69.764
-40.069
2.933
69.934
164.555
283.475
418.186
555.574
687.568
809.612
915.719
999.378
1048.449
1049.428
996.653
890.204
741.095
570.352
397.748
245.091
127.855
47.342
1.063
-22.608
-37.191
-46.416
-54.776
-61.494
-63.707
-65.394
-66.284
-67.102
-69.638
-71.214
-73.087
-76.515
-80.592
-85.726
-90.123
-91.669
-90.239
-86.019
-79.722
-72.424
-64.769
-57.254
-50.541
-45.227
-41.58
-39.636
-39.29
-40.29
-42.422
-45.525
-49.354
-53.655
-58.241
-62.906
-67.466
-71.768
-75.632
-78.924
-81.571
-83.522
-84.762
-85.309
-85.193
-84.468
-83.212
-81.496
-79.394
-76.978
-74.311
-71.473
-68.546
-65.608
-62.736
-59.982
-57.373
-54.93
-52.656
-50.543
-48.577
-46.732
-44.976
-43.282
-41.627
-39.991
-38.357
-36.701
-35
-33.231
-31.372
-29.402
-27.306
-25.069
-22.679
-20.125
-17.402
-14.502
-11.425
-8.166
-4.721
-1.085
2.744
6.768
10.987
15.398
19.999
24.782
29.739
34.858
40.125
45.524
51.039
56.649
62.334
68.073
73.842
79.616
85.371
91.08
96.718
102.256
107.668
112.928
118.007
122.881
127.522
131.908
136.014
139.818
143.3
146.438
149.215
151.614
153.62
155.219
156.401
157.156
157.477
157.359
156.799
155.799
154.361
152.49
150.194
147.483
144.368
140.865
136.989
132.758
128.191
123.31
118.138
112.698
107.015
101.115
95.025
88.77
82.378
75.877
69.291
62.649
55.975
49.297
42.638
36.022
29.474
23.016
16.669
10.453
4.388
-1.509
-7.222
-12.736
-18.039
-23.119
-27.967
-32.575
-36.937
-41.049
-44.907
-48.511
-51.861
-54.958
-57.807
-60.411
-62.776
-64.91
-66.819
-68.512
-69.998
-71.287
-72.388
-73.312
-74.067
-74.666
-75.118
-75.433
-75.623
-75.696
-75.663
-75.533
-75.317
-75.022
-74.658
-74.232
-73.752
-73.225
-72.659
-72.058
-71.429
-70.776
-70.104
-69.418
-68.719
-68.012
-67.298
-66.58
-65.858
-65.135
-64.41
-63.685
-62.961
-62.238
-61.517
-60.799
-60.083
-59.372
-58.665
-57.964
-57.269
-56.582
-55.903
-55.235
-54.577
-53.932
-53.301
-52.685
-52.085
-51.503
-50.939
-50.394
-49.871
-49.369
-48.889
-48.433
-48
-47.592
-47.209
-46.852
-46.52
-46.214
-45.935
-45.68
-45.451
-45.247
-45.066
-44.909
-44.773
-44.658
-44.563
-44.485
-44.425
-44.379
-44.347
-44.328
-44.318
-44.318
-44.326
-44.34
-44.361
-44.387
-44.418
-44.453
-44.493
-44.538
-44.587
-44.642
-44.703
-44.77
-44.845
-44.929
-45.023
-45.129
-45.248
-45.382
-45.533
-45.702
-45.89
-46.099
-46.332
-46.588
-46.868
-47.175
-47.508
-47.868
-48.255
-48.669
-49.109
-49.574
-50.061
-50.57
-51.097
-51.64
-52.195
-52.758
-53.325
-53.893
-54.456
-55.01
-55.549
-56.068
-56.561
-57.022
-57.445
-57.821
-58.146
-58.412
-58.612
-58.74
-58.789
-58.754
-58.628
-58.405
-58.081
-57.649
-57.105
-56.445
-55.665
-54.763
-53.737
-52.587
-51.311
-49.912
-48.39
-46.749
-44.991
-43.122
-41.146
-39.069
-36.898
-34.64
-32.303
-29.897
-27.433
-24.923
-22.382
-19.828
-17.275
-14.742
-12.248
-9.811
-7.451
-5.186
-3.03
-1
0.89
2.622
4.179
5.543
6.701
7.637
8.341
8.801
9.007
8.955
8.647
8.085
7.268
6.192
4.837
3.189
1.242
-1.008
-3.557
-6.396
-9.511
-12.875
-16.438
-20.148
-23.951
-27.799
-31.656
-35.483
-39.226
-42.817
-46.165
-49.189
-51.818
-54.004
-55.716
-56.941
-57.691
-58.013
-57.989
-57.73
-57.37
-57.034
-56.844
-56.919
-57.365
-58.363
-60.188
-63.033
-66.955
-71.84
-77.344
-83.097
-88.765
-93.821
-97.535
-99.357
-99.056
-96.887
-93.699
-90.526
-88.425
-88.609
-92.294
-99.326
-108.046
-116.378
-122.186
-125.915
-129.542
-131.739
-126.415
-102.222
-47.087
43.432
162.808
296.697
430.327
555.365
672.81
786.546
894.636
987.095
1046.768
1058.514
1017.514
929.666
807.854
663.737
506.942
345.62
190.572
58.941
-37.267
-93.809
-116.498
-121.925
-121.544
-119.867
-116.678
-106.555
-88.751
-67.057
-45.273
-27.88
-17.22
-13.286
-15.551
-22.716
-33.133
-45.103
-57.265
-68.628
-78.026
-84.638
-88.25
-88.891
-87.049
-83.57
-79.036
-74.048
-69.493
-65.957
-63.714
-62.925
-63.446
-65.014
-67.468
-70.484
-73.575
-76.388
-78.676
-80.302
-81.306
-81.749
-81.665
-81.16
-80.393
-79.493
-78.556
-77.618
-76.637
-75.555
-74.36
-73.069
-71.721
-70.363
-69.031
-67.738
-66.502
-65.321
-64.17
-62.999
-61.716
-60.238
-58.518
-56.539
-54.327
-51.934
-49.393
-46.719
-43.933
-41.035
-38.029
-34.915
-31.675
-28.29
-24.757
-21.085
-17.303
-13.441
-9.51
-5.504
-1.408
2.809
7.168
11.685
16.38
21.262
26.335
31.596
37.025
42.598
48.295
54.097
59.99
65.96
71.987
78.045
84.11
90.153
96.143
102.051
107.843
113.488
118.955
124.216
129.248
134.028
138.534
142.742
146.632
150.183
153.373
156.186
158.601
160.603
162.176
163.31
163.994
164.222
163.989
163.294
162.138
160.524
158.46
155.952
153.013
149.655
145.895
141.749
137.237
132.381
127.203
121.728
115.98
109.987
103.776
97.374
90.81
84.11
77.305
70.422
63.489
56.533
49.583
42.666
35.807
29.033
22.368
15.835
9.457
3.253
-2.757
-8.558
-14.133
-19.469
-24.556
-29.385
-33.947
-38.238
-42.254
-45.993
-49.457
-52.646
-55.566
-58.22
-60.615
-62.76
-64.661
-66.33
-67.775
-69.009
-70.042
-70.887
-71.555
-72.06
-72.415
-72.632
-72.725
-72.706
-72.587
-72.382
-72.101
-71.756
-71.357
-70.914
-70.437
-69.933
-69.41
-68.874
-68.331
-67.786
-67.242
-66.701
-66.166
-65.637
-65.115
-64.6
-64.089
-63.583
-63.08
-62.578
-62.075
-61.569
-61.058
-60.539
-60.011
-59.472
-58.919
-58.351
-57.768
-57.168
-56.55
-55.915
-55.262
-54.593
-53.908
-53.208
-52.495
-51.772
-51.04
-50.303
-49.564
-48.827
-48.095
-47.372
-46.664
-45.974
-45.307
-44.668
-44.062
-43.492
-42.963
-42.479
-42.042
-41.656
-41.325
-41.049
-40.832
-40.673
-40.575
-40.537
-40.559
-40.639
-40.777
-40.97
-41.216
-41.512
-41.855
-42.241
-42.666
-43.127
-43.62
-44.139
-44.682
-45.242
-45.817
-46.401
-46.991
-47.582
-48.171
-48.754
-49.328
-49.889
-50.436
-50.965
-51.476
-51.966
-52.434
-52.881
-53.305
-53.708
-54.089
-54.449
-54.791
-55.114
-55.423
-55.719
-56.004
-56.281
-56.554
-56.824
-57.094
-57.367
-57.644
-57.928
-58.22
-58.52
-58.829
-59.148
-59.476
-59.812
-60.155
-60.503
-60.854
-61.206
-61.555
-61.898
-62.229
-62.545
-62.841
-63.11
-63.346
-63.544
-63.698
-63.801
-63.847
-63.83
-63.742
-63.578
-63.332
-62.996
-62.567
-62.036
-61.401
-60.656
-59.798
-58.826
-57.737
-56.531
-55.209
-53.773
-52.225
-50.568
-48.805
-46.942
-44.984
-42.938
-40.813
-38.617
-36.361
-34.059
-31.727
-29.38
-27.036
-24.711
-22.422
-20.186
-18.023
-15.951
-13.988
-12.149
-10.452
-8.912
-7.549
-6.382
-5.423
-4.684
-4.17
-3.887
-3.843
-4.042
-4.487
-5.174
-6.098
-7.257
-8.654
-10.294
-12.176
-14.293
-16.631
-19.171
-21.897
-24.783
-27.793
-30.885
-34.012
-37.123
-40.168
-43.106
-45.894
-48.498
-50.89
-53.024
-54.847
-56.307
-57.35
-57.962
-58.193
-58.073
-57.605
-56.88
-56.054
-55.432
-55.489
-56.489
-58.424
-61.286
-65.085
-69.728
-75.049
-80.345
-84.322
-86.143
-85.548
-82.491
-77.183
-69.831
-60.642
-50.856
-42.74
-37.931
-37.581
-42.394
-52.053
-66.364
-84.273
-102.167
-116.676
-125.432
-127.241
-123.423
-111.1
-83.061
-31.957
49.004
156.126
277.84
403.378
523.528
638.99
754.16
865.497
963.26
1028.592
1041.925
997.235
898.256
758.004
595.274
422.512
252.061
97.484
-31.294
-122.551
-171.778
-183.314
-164.392
-128.709
-88.663
-54.625
-35.384
-31.538
-39.353
-51.37
-60.025
-63.561
-63.959
-65.22
-69.623
-76.206
-82.758
-86.796
-87.467
-85.268
-80.685
-74.676
-68.396
-62.59
-57.95
-54.868
-53.22
-52.924
-54.033
-56.369
-59.583
-63.347
-67.304
-71.2
-74.951
-78.421
-81.416
-83.822
-85.582
-86.677
-87.141
-86.996
-86.248
-84.938
-83.126
-80.88
-78.277
-75.383
-72.257
-68.972
-65.604
-62.231
-58.931
-55.759
-52.749
-49.925
-47.298
-44.865
-42.619
-40.539
-38.598
-36.772
-35.037
-33.373
-31.759
-30.172
-28.589
-26.985
-25.335
-23.617
-21.81
-19.897
-17.86
-15.685
-13.36
-10.875
-8.223
-5.395
-2.383
0.82
4.221
7.825
11.635
15.652
19.874
24.3
28.921
33.73
38.714
43.861
49.155
54.58
60.115
65.741
71.435
77.174
82.933
88.687
94.408
100.07
105.645
111.104
116.421
121.568
126.517
131.243
135.721
139.925
143.833
147.423
150.674
153.568
156.087
158.216
159.943
161.256
162.147
162.61
162.641
162.24
161.409
160.15
158.471
156.379
153.886
151.002
147.744
144.127
140.169
135.889
131.307
126.447
121.331
115.982
110.425
104.684
98.785
92.752
86.611
80.387
74.106
67.791
61.468
55.16
48.891
42.681
36.553
30.525
24.616
18.844
13.223
7.768
2.491
-2.596
-7.485
-12.167
-16.635
-20.885
-24.913
-28.717
-32.295
-35.649
-38.779
-41.687
-44.376
-46.852
-49.117
-51.178
-53.04
-54.71
-56.195
-57.503
-58.642
-59.619
-60.444
-61.124
-61.669
-62.088
-62.388
-62.578
-62.665
-62.658
-62.564
-62.389
-62.139
-61.821
-61.44
-61
-60.506
-59.962
-59.372
-58.737
-58.062
-57.35
-56.601
-55.82
-55.008
-54.167
-53.3
-52.409
-51.496
-50.563
-49.613
-48.647
-47.667
-46.675
-45.673
-44.664
-43.648
-42.63
-41.61
-40.591
-39.575
-38.564
-37.563
-36.572
-35.596
-34.637
-33.699
-32.786
-31.901
-31.047
-30.229
-29.45
-28.714
-28.022
-27.38
-26.788
-26.249
-25.766
-25.339
-24.971
-24.663
-24.414
-24.226
-24.099
-24.031
-24.024
-24.075
-24.185
-24.351
-24.573
-24.848
-25.176
-25.554
-25.981
-26.454
-26.97
-27.528
-28.124
-28.755
-29.418
-30.111
-30.829
-31.57
-32.331
-33.109
-33.901
-34.704
-35.516
-36.335
-37.158
-37.984
-38.811
-39.636
-40.46
-41.281
-42.097
-42.909
-43.715
-44.516
-45.311
-46.1
-46.881
-47.656
-48.423
-49.182
-49.932
-50.674
-51.407
-52.129
-52.841
-53.542
-54.23
-54.904
-55.564
-56.206
-56.83
-57.432
-58.01
-58.562
-59.084
-59.574
-60.028
-60.443
-60.816
-61.141
-61.415
-61.634
-61.793
-61.886
-61.91
-61.86
-61.73
-61.517
-61.216
-60.822
-60.332
-59.74
-59.044
-58.241
-57.326
-56.297
-55.153
-53.892
-52.514
-51.02
-49.41
-47.688
-45.855
-43.917
-41.879
-39.747
-37.526
-35.226
-32.855
-30.422
-27.938
-25.415
-22.867
-20.309
-17.758
-15.231
-12.746
-10.322
-7.978
-5.733
-3.604
-1.608
0.237
1.916
3.411
4.703
5.774
6.611
7.198
7.525
7.58
7.356
6.852
6.069
5.01
3.673
2.049
0.131
-2.084
-4.596
-7.398
-10.479
-13.824
-17.409
-21.192
-25.129
-29.173
-33.279
-37.414
-41.541
-45.616
-49.577
-53.345
-56.845
-60.013
-62.795
-65.146
-67.037
-68.454
-69.432
-70.045
-70.358
-70.444
-70.377
-70.234
-70.123
-70.162
-70.455
-71.139
-72.419
-74.456
-77.289
-80.784
-84.587
-88.291
-91.529
-93.832
-94.576
-93.248
-89.678
-84.309
-78.147
-72.222
-67.523
-65.07
-65.935
-71.234
-80.229
-89.639
-96.135
-96.383
-90.488
-82.44
-71.576
-53.33
-18.291
46.724
145.371
272.476
417.276
564.898
706.456
837.037
949.233
1033.343
1075.399
1062.616
992.156
870.305
711.263
532.864
351.434
182.576
39.838
-64.961
-126.287
-147.38
-136.447
-109.634
-81.479
-59.631
-50.259
-49.826
-51.044
-51.3
-47.007
-40.022
-36.951
-39.931
-49.424
-63.815
-78.361
-90.245
-98.813
-103.682
-104.971
-103.047
-98.246
-91.298
-83.554
-76.282
-70.066
-65.262
-62.167
-60.787
-61.085
-62.925
-65.804
-69.196
-72.815
-76.414
-79.812
-82.91
-85.545
-87.589
-89.04
-89.913
-90.224
-90
-89.242
-87.96
-86.209
-84.049
-81.546
-78.772
-75.784
-72.65
-69.441
-66.229
-63.085
-60.061
-57.185
-54.477
-51.944
-49.58
-47.379
-45.323
-43.383
-41.532
-39.747
-38
-36.269
-34.532
-32.762
-30.936
-29.03
-27.02
-24.889
-22.622
-20.204
-17.624
-14.87
-11.937
-8.819
-5.513
-2.014
1.681
5.575
9.669
13.961
18.447
23.124
27.984
33.015
38.207
43.543
49.006
54.578
60.237
65.962
71.727
77.507
83.277
89.008
94.672
100.241
105.685
110.977
116.089
120.992
125.66
130.068
134.192
138.009
141.497
144.637
147.411
149.803
151.797
153.383
154.549
155.287
155.592
155.46
154.888
153.88
152.437
150.566
148.276
145.575
142.478
138.999
135.154
130.962
126.444
121.62
116.515
111.152
105.556
99.754
93.77
87.633
81.368
75.001
68.558
62.065
55.547
49.029
42.533
36.082
29.699
23.403
17.215
11.152
5.232
-0.529
-6.117
-11.519
-16.723
-21.718
-26.496
-31.049
-35.372
-39.46
-43.311
-46.923
-50.295
-53.431
-56.331
-59.001
-61.444
-63.668
-65.677
-67.48
-69.084
-70.497
-71.729
-72.787
-73.681
-74.419
-75.012
-75.468
-75.796
-76.005
-76.104
-76.102
-76.006
-75.825
-75.567
-75.239
-74.849
-74.403
-73.909
-73.373
-72.8
-72.197
-71.568
-70.918
-70.25
-69.57
-68.879
-68.18
-67.477
-66.77
-66.062
-65.354
-64.647
-63.944
-63.243
-62.547
-61.856
-61.171
-60.493
-59.823
-59.16
-58.506
-57.862
-57.228
-56.605
-55.994
-55.395
-54.809
-54.236
-53.677
-53.132
-52.601
-52.085
-51.582
-51.094
-50.619
-50.158
-49.711
-49.277
-48.856
-48.449
-48.054
-47.673
-47.304
-46.948
-46.605
-46.273
-45.953
-45.644
-45.346
-45.059
-44.782
-44.515
-44.257
-44.008
-43.768
-43.535
-43.31
-43.092
-42.881
-42.677
-42.48
-42.29
-42.109
-41.936
-41.774
-41.623
-41.485
-41.362
-41.254
-41.165
-41.096
-41.048
-41.024
-41.025
-41.053
-41.111
-41.2
-41.322
-41.479
-41.672
-41.903
-42.172
-42.481
-42.831
-43.221
-43.654
-44.128
-44.644
-45.202
-45.801
-46.44
-47.118
-47.834
-48.584
-49.367
-50.178
-51.014
-51.87
-52.742
-53.625
-54.513
-55.4
-56.281
-57.149
-57.998
-58.822
-59.612
-60.362
-61.066
-61.714
-62.301
-62.819
-63.261
-63.62
-63.89
-64.065
-64.139
-64.107
-63.962
-63.701
-63.318
-62.81
-62.172
-61.402
-60.498
-59.459
-58.285
-56.977
-55.535
-53.964
-52.265
-50.444
-48.506
-46.456
-44.301
-42.051
-39.713
-37.299
-34.817
-32.282
-29.706
-27.106
-24.498
-21.9
-19.33
-16.807
-14.351
-11.98
-9.713
-7.566
-5.556
-3.697
-2.005
-0.499
0.806
1.894
2.75
3.362
3.72
3.813
3.634
3.186
2.47
1.487
0.235
-1.298
-3.124
-5.249
-7.673
-10.391
-13.39
-16.651
-20.143
-23.813
-27.61
-31.478
-35.364
-39.233
-43.044
-46.751
-50.293
-53.591
-56.563
-59.148
-61.29
-62.949
-64.116
-64.805
-65.074
-65.029
-64.766
-64.39
-64.016
-63.754
-63.731
-64.069
-64.862
-66.266
-68.505
-71.743
-76.01
-81.107
-86.573
-91.933
-96.769
-100.535
-102.556
-102.232
-99.326
-94.384
-88.564
-83.007
-78.738
-76.7
-77.839
-83.039
-91.428
-99.622
-103.907
-101.407
-92.244
-78.757
-59.99
-29.767
21.903
102.549
212.547
343.523
481.6
618.422
749.483
870.032
975.363
1051.755
1081.774
1057.588
978.061
851.301
695.793
527.346
360.739
213.371
95.183
10.434
-40.463
-68.132
-83.423
-91
-96.371
-98.542
-95.692
-91.712
-85.863
-79.093
-73.071
-65.324
-58.001
-53.012
-50.018
-50.407
-53.072
-56.054
-59.265
-62.315
-64.697
-66.631
-68
-68.254
-67.436
-65.87
-63.649
-61.234
-59.347
-58.22
-58.041
-59.106
-61.329
-64.572
-68.739
-73.429
-78.141
-82.567
-86.445
-89.604
-92.045
-93.74
-94.667
-94.896
-94.507
-93.58
-92.199
-90.409
-88.237
-85.731
-82.951
-79.972
-76.881
-73.749
-70.643
-67.603
-64.653
-61.809
-59.076
-56.447
-53.91
-51.447
-49.032
-46.653
-44.296
-41.946
-39.589
-37.204
-34.767
-32.255
-29.651
-26.936
-24.1
-21.129
-18.014
-14.749
-11.328
-7.749
-4.011
-0.112
3.953
8.185
12.583
17.147
21.873
26.756
31.789
36.964
42.27
47.692
53.217
58.827
64.505
70.231
75.986
81.748
87.494
93.202
98.845
104.401
109.843
115.146
120.283
125.231
129.963
134.456
138.686
142.632
146.272
149.587
152.559
155.172
157.411
159.264
160.72
161.77
162.408
162.629
162.43
161.812
160.778
159.331
157.479
155.229
152.592
149.58
146.207
142.488
138.441
134.084
129.437
124.521
119.358
113.972
108.386
102.625
96.714
90.677
84.54
78.326
72.061
65.768
59.471
53.192
46.952
40.773
34.673
28.672
22.786
17.031
11.422
5.973
0.696
-4.398
-9.3
-14
-18.491
-22.768
-26.825
-30.659
-34.267
-37.649
-40.804
-43.734
-46.441
-48.928
-51.2
-53.261
-55.117
-56.775
-58.242
-59.526
-60.635
-61.577
-62.361
-62.995
-63.488
-63.849
-64.086
-64.207
-64.221
-64.136
-63.961
-63.702
-63.369
-62.968
-62.508
-61.995
-61.437
-60.841
-60.214
-59.561
-58.889
-58.203
-57.51
-56.813
-56.117
-55.428
-54.748
-54.08
-53.429
-52.796
-52.182
-51.591
-51.024
-50.48
-49.962
-49.471
-49.006
-48.568
-48.158
-47.776
-47.421
-47.092
-46.79
-46.513
-46.26
-46.03
-45.82
-45.629
-45.455
-45.295
-45.148
-45.011
-44.882
-44.757
-44.634
-44.511
-44.385
-44.253
-44.114
-43.964
-43.803
-43.629
-43.44
-43.235
-43.014
-42.775
-42.518
-42.242
-41.947
-41.634
-41.302
-40.953
-40.586
-40.204
-39.809
-39.401
-38.985
-38.562
-38.136
-37.71
-37.287
-36.871
-36.467
-36.077
-35.707
-35.361
-35.042
-34.756
-34.506
-34.296
-34.13
-34.011
-33.943
-33.927
-33.968
-34.066
-34.225
-34.445
-34.728
-35.074
-35.485
-35.96
-36.498
-37.099
-37.762
-38.483
-39.26
-40.091
-40.97
-41.893
-42.855
-43.851
-44.874
-45.918
-46.974
-48.037
-49.098
-50.151
-51.186
-52.195
-53.173
-54.109
-54.997
-55.829
-56.597
-57.294
-57.912
-58.446
-58.888
-59.232
-59.473
-59.604
-59.621
-59.519
-59.295
-58.944
-58.464
-57.853
-57.108
-56.23
-55.219
-54.075
-52.802
-51.403
-49.882
-48.243
-46.494
-44.64
-42.689
-40.649
-38.53
-36.34
-34.089
-31.788
-29.448
-27.083
-24.706
-22.333
-19.979
-17.661
-15.395
-13.198
-11.089
-9.082
-7.192
-5.434
-3.82
-2.364
-1.082
0.013
0.907
1.589
2.05
2.279
2.269
2.017
1.523
0.791
-0.176
-1.378
-2.826
-4.526
-6.48
-8.691
-11.155
-13.859
-16.79
-19.92
-23.207
-26.603
-30.057
-33.521
-36.956
-40.319
-43.563
-46.63
-49.448
-51.946
-54.066
-55.756
-56.972
-57.705
-57.962
-57.791
-57.286
-56.544
-55.675
-54.812
-54.079
-53.625
-53.602
-54.124
-55.339
-57.439
-60.529
-64.646
-69.675
-75.228
-80.903
-86.349
-91.062
-94.482
-96.185
-95.843
-93.624
-90.41
-87.045
-84.161
-82.586
-83.056
-86.036
-92.051
-99.63
-104.75
-103.9
-93.623
-72.988
-45.903
-14.043
23.512
70.232
136.688
230.868
354.479
505.418
670.895
833.23
974.858
1077.044
1125.879
1113.706
1040.12
910.204
735.491
535.536
330.555
145.443
2.837
-90.677
-137.786
-153.218
-158.287
-162.628
-167.878
-169.752
-160.089
-138.082
-108.099
-75.845
-47.562
-26.257
-12.921
-7.67
-9.305
-16.686
-28.483
-42.767
-58.162
-73.181
-85.791
-94.951
-100.345
-101.878
-100.15
-96.001
-89.992
-83.07
-76.563
-71.213
-67.421
-65.393
-64.861
-65.547
-67.235
-69.468
-71.695
-73.562
-74.867
-75.574
-75.819
-75.709
-75.347
-74.862
-74.347
-73.863
-73.404
-72.901
-72.3
-71.578
-70.747
-69.853
-68.938
-68.038
-67.186
-66.385
-65.616
-64.841
-63.975
-62.945
-61.718
-60.271
-58.626
-56.841
-54.944
-52.955
-50.899
-48.771
-46.564
-44.274
-41.871
-39.333
-36.652
-33.83
-30.892
-27.862
-24.744
-21.532
-18.209
-14.74
-11.102
-7.275
-3.234
1.034
5.534
10.268
15.222
20.375
25.712
31.218
36.884
42.699
48.646
54.704
60.85
67.059
73.302
79.55
85.771
91.932
98.002
103.952
109.756
115.389
120.824
126.037
131.003
135.696
140.094
144.173
147.912
151.289
154.287
156.888
159.077
160.844
162.179
163.072
163.519
163.516
163.063
162.161
160.813
159.024
156.803
154.159
151.104
147.652
143.818
139.62
135.077
130.211
125.044
119.599
113.902
107.978
101.853
95.553
89.105
82.535
75.871
69.139
62.365
55.575
48.794
42.048
35.359
28.75
22.243
15.858
9.614
3.529
-2.381
-8.1
-13.614
-18.911
-23.98
-28.811
-33.396
-37.728
-41.803
-45.617
-49.167
-52.454
-55.479
-58.244
-60.752
-63.009
-65.02
-66.792
-68.333
-69.651
-70.754
-71.652
-72.355
-72.873
-73.215
-73.392
-73.414
-73.292
-73.036
-72.656
-72.162
-71.564
-70.87
-70.092
-69.237
-68.314
-67.333
-66.301
-65.227
-64.117
-62.98
-61.821
-60.647
-59.465
-58.278
-57.093
-55.913
-54.741
-53.583
-52.44
-51.316
-50.214
-49.135
-48.083
-47.059
-46.066
-45.105
-44.179
-43.29
-42.44
-41.63
-40.863
-40.14
-39.463
-38.834
-38.255
-37.726
-37.25
-36.827
-36.458
-36.143
-35.883
-35.677
-35.524
-35.424
-35.377
-35.38
-35.432
-35.533
-35.679
-35.87
-36.103
-36.375
-36.684
-37.027
-37.401
-37.802
-38.227
-38.673
-39.135
-39.611
-40.096
-40.585
-41.076
-41.564
-42.045
-42.515
-42.97
-43.406
-43.82
-44.21
-44.572
-44.904
-45.205
-45.474
-45.711
-45.915
-46.087
-46.228
-46.338
-46.421
-46.477
-46.509
-46.52
-46.514
-46.493
-46.46
-46.421
-46.378
-46.334
-46.294
-46.261
-46.236
-46.225
-46.229
-46.25
-46.291
-46.353
-46.44
-46.552
-46.69
-46.855
-47.046
-47.264
-47.505
-47.769
-48.052
-48.35
-48.659
-48.974
-49.29
-49.6
-49.898
-50.178
-50.433
-50.655
-50.836
-50.969
-51.047
-51.061
-51.005
-50.873
-50.659
-50.359
-49.969
-49.484
-48.904
-48.227
-47.452
-46.581
-45.614
-44.552
-43.4
-42.161
-40.841
-39.445
-37.983
-36.465
-34.905
-33.316
-31.713
-30.114
-28.534
-26.993
-25.506
-24.091
-22.76
-21.529
-20.411
-19.424
-18.584
-17.906
-17.401
-17.082
-16.956
-17.033
-17.319
-17.814
-18.514
-19.413
-20.514
-21.823
-23.359
-25.131
-27.142
-29.388
-31.864
-34.561
-37.462
-40.539
-43.738
-47.007
-50.296
-53.561
-56.773
-59.885
-62.835
-65.547
-67.934
-69.923
-71.466
-72.529
-73.083
-73.126
-72.668
-71.748
-70.468
-68.945
-67.307
-65.687
-64.188
-62.9
-61.973
-61.637
-62.082
-63.374
-65.363
-67.691
-70.008
-72.059
-73.538
-73.958
-72.842
-70.003
-65.9
-61.568
-58.03
-56.145
-56.608
-60.113
-67.49
-78.033
-88.66
-96.018
-96.724
-90.424
-80.61
-67.386
-47.523
-13.451
45.925
134.174
247.262
375.999
506.809
630.449
741.716
833.157
897.23
925.082
906.608
841.085
734.296
593.371
432.49
264.892
103.59
-32.11
-129.232
-183.441
-198.101
-188.325
-169.651
-149.905
-131.901
-112.864
-88.788
-61.173
-33.575
-9.93
5.308
11.064
8.539
-0.865
-14.937
-31.326
-48.502
-64.828
-78.286
-87.935
-93.571
-95.233
-93.658
-89.826
-84.451
-78.513
-73.283
-69.428
-67.232
-66.803
-67.834
-69.997
-73.069
-76.623
-80.13
-83.252
-85.789
-87.659
-88.94
-89.668
-89.839
-89.502
-88.716
-87.536
-86.014
-84.173
-82.015
-79.564
-76.871
-73.999
-71.024
-68.011
-65.006
-62.038
-59.13
-56.299
-53.552
-50.892
-48.313
-45.799
-43.339
-40.925
-38.548
-36.198
-33.861
-31.516
-29.144
-26.725
-24.246
-21.692
-19.054
-16.32
-13.482
-10.533
-7.467
-4.281
-0.972
2.467
6.039
9.749
13.6
17.591
21.722
25.993
30.399
34.936
39.596
44.37
49.247
54.216
59.263
64.373
69.528
74.713
79.907
85.091
90.245
95.348
100.377
105.311
110.128
114.804
119.319
123.65
127.775
131.674
135.326
138.712
141.814
144.613
147.094
149.242
151.042
152.482
153.551
154.241
154.544
154.457
153.975
153.099
151.831
150.173
148.132
145.715
142.933
139.797
136.32
132.517
128.404
124
119.323
114.394
109.234
103.865
98.31
92.593
86.737
80.767
74.706
68.579
62.41
56.223
50.043
43.892
37.794
31.771
25.844
20.034
14.36
8.839
3.489
-1.675
-6.639
-11.392
-15.924
-20.224
-24.287
-28.106
-31.677
-34.999
-38.07
-40.892
-43.465
-45.794
-47.883
-49.738
-51.366
-52.775
-53.972
-54.968
-55.773
-56.396
-56.85
-57.146
-57.295
-57.311
-57.205
-56.991
-56.68
-56.284
-55.817
-55.289
-54.713
-54.098
-53.456
-52.795
-52.125
-51.454
-50.789
-50.138
-49.505
-48.895
-48.314
-47.763
-47.246
-46.765
-46.319
-45.91
-45.538
-45.201
-44.898
-44.628
-44.388
-44.175
-43.987
-43.82
-43.671
-43.537
-43.413
-43.296
-43.181
-43.066
-42.945
-42.816
-42.674
-42.517
-42.34
-42.141
-41.917
-41.666
-41.384
-41.071
-40.725
-40.344
-39.929
-39.478
-38.994
-38.475
-37.923
-37.341
-36.73
-36.092
-35.431
-34.75
-34.051
-33.34
-32.621
-31.897
-31.174
-30.455
-29.746
-29.051
-28.375
-27.723
-27.1
-26.509
-25.957
-25.448
-24.985
-24.575
-24.22
-23.926
-23.696
-23.534
-23.444
-23.429
-23.492
-23.635
-23.86
-24.169
-24.562
-25.041
-25.605
-26.254
-26.986
-27.8
-28.691
-29.658
-30.696
-31.8
-32.965
-34.186
-35.457
-36.771
-38.122
-39.503
-40.907
-42.326
-43.752
-45.177
-46.592
-47.989
-49.358
-50.69
-51.976
-53.205
-54.369
-55.457
-56.462
-57.373
-58.181
-58.878
-59.455
-59.904
-60.219
-60.392
-60.418
-60.291
-60.008
-59.565
-58.96
-58.194
-57.264
-56.173
-54.921
-53.513
-51.95
-50.238
-48.381
-46.386
-44.261
-42.014
-39.656
-37.197
-34.651
-32.032
-29.357
-26.642
-23.905
-21.164
-18.439
-15.749
-13.114
-10.552
-8.081
-5.72
-3.488
-1.405
0.51
2.237
3.759
5.06
6.124
6.936
7.488
7.772
7.784
7.52
6.972
6.128
4.976
3.515
1.743
-0.336
-2.711
-5.363
-8.261
-11.358
-14.607
-17.958
-21.367
-24.8
-28.216
-31.571
-34.815
-37.881
-40.71
-43.258
-45.48
-47.344
-48.836
-49.967
-50.786
-51.397
-51.898
-52.378
-52.929
-53.625
-54.566
-55.87
-57.646
-59.981
-62.958
-66.679
-71.194
-76.489
-82.401
-88.542
-94.471
-99.757
-103.923
-106.45
-106.929
-105.094
-101.061
-95.546
-89.28
-82.787
-76.764
-71.887
-68.676
-67.696
-67.618
-64.951
-56.882
-40.719
-16.931
10.041
39.638
73.484
117.336
183.013
274.633
390.659
524.701
659.9
783.882
886.905
957.576
993.117
989.063
940.76
851.544
722.558
560.8
382.522
204.291
48.37
-66.579
-135.996
-163.2
-160.016
-140.868
-113.154
-82.425
-54.529
-33.489
-23.559
-24.746
-30.713
-35.935
-37.845
-37.075
-37.846
-42.195
-48.646
-55.333
-60.076
-61.933
-61.442
-58.883
-54.65
-49.646
-45.001
-41.537
-39.629
-39.263
-40.224
-42.534
-46.246
-51.104
-56.62
-62.316
-67.839
-72.999
-77.72
-81.881
-85.352
-88.075
-90.061
-91.359
-92.029
-92.113
-91.642
-90.651
-89.193
-87.332
-85.136
-82.684
-80.056
-77.331
-74.587
-71.882
-69.251
-66.723
-64.313
-62.023
-59.847
-57.767
-55.758
-53.806
-51.896
-50.013
-48.141
-46.257
-44.339
-42.367
-40.32
-38.181
-35.934
-33.562
-31.053
-28.398
-25.588
-22.619
-19.485
-16.182
-12.703
-9.043
-5.198
-1.165
3.056
7.465
12.061
16.84
21.795
26.915
32.189
37.605
43.147
48.799
54.542
60.356
66.221
72.114
78.01
83.885
89.714
95.469
101.124
106.651
112.023
117.212
122.192
126.937
131.421
135.619
139.51
143.07
146.278
149.116
151.566
153.613
155.243
156.444
157.207
157.525
157.395
156.814
155.784
154.308
152.392
150.044
147.274
144.095
140.522
136.571
132.26
127.609
122.641
117.379
111.846
106.069
100.073
93.885
87.532
81.041
74.441
67.758
61.019
54.252
47.482
40.736
34.038
27.413
20.883
14.469
8.194
2.074
-3.872
-9.629
-15.182
-20.52
-25.633
-30.51
-35.145
-39.533
-43.67
-47.553
-51.183
-54.56
-57.685
-60.564
-63.2
-65.599
-67.767
-69.712
-71.442
-72.966
-74.293
-75.432
-76.394
-77.188
-77.826
-78.318
-78.675
-78.908
-79.028
-79.044
-78.967
-78.807
-78.574
-78.275
-77.92
-77.516
-77.07
-76.588
-76.077
-75.542
-74.986
-74.415
-73.832
-73.239
-72.64
-72.036
-71.429
-70.821
-70.213
-69.607
-69.003
-68.402
-67.806
-67.216
-66.631
-66.052
-65.48
-64.914
-64.355
-63.803
-63.257
-62.718
-62.184
-61.657
-61.136
-60.621
-60.113
-59.612
-59.118
-58.632
-58.155
-57.689
-57.233
-56.79
-56.362
-55.948
-55.552
-55.175
-54.817
-54.48
-54.165
-53.872
-53.603
-53.357
-53.135
-52.937
-52.764
-52.616
-52.493
-52.395
-52.324
-52.28
-52.263
-52.274
-52.314
-52.383
-52.483
-52.614
-52.776
-52.97
-53.197
-53.456
-53.746
-54.069
-54.423
-54.807
-55.22
-55.662
-56.13
-56.624
-57.143
-57.685
-58.249
-58.835
-59.441
-60.066
-60.708
-61.367
-62.042
-62.729
-63.428
-64.135
-64.849
-65.565
-66.28
-66.991
-67.693
-68.382
-69.052
-69.7
-70.319
-70.906
-71.455
-71.96
-72.418
-72.823
-73.172
-73.458
-73.679
-73.83
-73.906
-73.904
-73.82
-73.649
-73.387
-73.032
-72.577
-72.021
-71.36
-70.589
-69.707
-68.711
-67.599
-66.37
-65.023
-63.56
-61.982
-60.29
-58.489
-56.582
-54.575
-52.474
-50.285
-48.015
-45.674
-43.269
-40.809
-38.305
-35.768
-33.21
-30.647
-28.092
-25.562
-23.072
-20.639
-18.282
-16.017
-13.858
-11.821
-9.921
-8.171
-6.59
-5.194
-3.998
-3.016
-2.262
-1.748
-1.483
-1.476
-1.727
-2.234
-2.994
-4.01
-5.293
-6.853
-8.695
-10.822
-13.23
-15.909
-18.847
-22.021
-25.387
-28.9
-32.509
-36.165
-39.834
-43.475
-47.04
-50.473
-53.692
-56.619
-59.194
-61.357
-63.063
-64.291
-65.033
-65.326
-65.256
-64.896
-64.342
-63.704
-63.08
-62.615
-62.456
-62.709
-63.545
-65.18
-67.753
-71.325
-75.751
-80.596
-85.416
-89.84
-93.38
-95.485
-95.691
-93.72
-89.987
-85.634
-81.818
-79.384
-79.018
-81.399
-87.093
-96.26
-106.72
-114.099
-114.409
-104.707
-85.609
-59.598
-25.482
20.92
86.319
176.812
291.144
422.58
562.088
700.612
831.551
946.967
1036.021
1084.678
1079.73
1016.909
900.229
742.917
564.52
383.698
218.542
83.551
-12.676
-69.046
-90.584
-84.883
-63.409
-34.162
-4.87
13.376
17.163
5.406
-18.418
-42.336
-60.265
-70.295
-72.96
-74.351
-76.95
-79.696
-81.76
-81.101
-77.225
-71.48
-64.887
-58.38
-52.734
-48.326
-45.353
-43.89
-43.826
-44.931
-47.024
-49.977
-53.627
-57.788
-62.286
-66.947
-71.601
-76.102
-80.282
-83.965
-87.031
-89.412
-91.073
-92.021
-92.281
-91.889
-90.901
-89.389
-87.418
-85.058
-82.377
-79.44
-76.324
-73.11
-69.873
-66.688
-63.607
-60.658
-57.858
-55.209
-52.703
-50.326
-48.055
-45.862
-43.723
-41.618
-39.527
-37.434
-35.318
-33.157
-30.929
-28.612
-26.188
-23.64
-20.955
-18.119
-15.125
-11.963
-8.629
-5.119
-1.429
2.444
6.506
10.758
15.201
19.834
24.653
29.655
34.831
40.17
45.661
51.286
57.03
62.873
68.794
74.771
80.781
86.797
92.794
98.745
104.623
110.401
116.049
121.539
126.845
131.938
136.791
141.379
145.677
149.661
153.308
156.598
159.512
162.032
164.143
165.831
167.085
167.895
168.254
168.159
167.606
166.598
165.138
163.232
160.888
158.118
154.934
151.352
147.39
143.067
138.403
133.422
128.147
122.604
116.818
110.816
104.626
98.275
91.793
85.206
78.544
71.833
65.102
58.376
51.683
45.048
38.494
32.045
25.723
19.548
13.541
7.717
2.094
-3.315
-8.497
-13.441
-18.139
-22.582
-26.767
-30.689
-34.346
-37.738
-40.867
-43.735
-46.346
-48.706
-50.822
-52.701
-54.352
-55.785
-57.01
-58.037
-58.878
-59.546
-60.052
-60.409
-60.629
-60.725
-60.71
-60.596
-60.395
-60.118
-59.777
-59.382
-58.944
-58.473
-57.977
-57.466
-56.946
-56.426
-55.911
-55.407
-54.918
-54.45
-54.005
-53.586
-53.196
-52.836
-52.507
-52.21
-51.946
-51.714
-51.514
-51.344
-51.204
-51.092
-51.006
-50.945
-50.905
-50.886
-50.885
-50.9
-50.929
-50.97
-51.021
-51.081
-51.148
-51.219
-51.293
-51.368
-51.443
-51.516
-51.587
-51.653
-51.714
-51.769
-51.817
-51.856
-51.887
-51.908
-51.918
-51.916
-51.902
-51.874
-51.832
-51.775
-51.703
-51.616
-51.514
-51.395
-51.261
-51.112
-50.946
-50.764
-50.567
-50.353
-50.124
-49.879
-49.62
-49.346
-49.06
-48.761
-48.452
-48.133
-47.807
-47.475
-47.14
-46.804
-46.469
-46.139
-45.816
-45.505
-45.209
-44.931
-44.676
-44.447
-44.249
-44.084
-43.956
-43.869
-43.824
-43.825
-43.875
-43.974
-44.124
-44.328
-44.586
-44.898
-45.264
-45.685
-46.159
-46.686
-47.262
-47.885
-48.553
-49.261
-50.004
-50.778
-51.576
-52.392
-53.219
-54.048
-54.871
-55.68
-56.466
-57.217
-57.925
-58.579
-59.17
-59.686
-60.118
-60.457
-60.694
-60.82
-60.829
-60.711
-60.463
-60.077
-59.55
-58.877
-58.056
-57.085
-55.964
-54.693
-53.274
-51.71
-50.006
-48.17
-46.208
-44.134
-41.959
-39.697
-37.365
-34.979
-32.558
-30.121
-27.689
-25.279
-22.91
-20.603
-18.379
-16.258
-14.263
-12.415
-10.733
-9.237
-7.944
-6.871
-6.032
-5.434
-5.083
-4.988
-5.157
-5.609
-6.36
-7.419
-8.791
-10.477
-12.469
-14.755
-17.309
-20.088
-23.045
-26.132
-29.303
-32.522
-35.756
-38.959
-42.068
-45.008
-47.706
-50.102
-52.15
-53.809
-55.058
-55.908
-56.425
-56.719
-56.899
-57.069
-57.312
-57.714
-58.397
-59.446
-60.885
-62.784
-65.285
-68.501
-72.519
-77.277
-82.41
-87.633
-92.884
-97.714
-101.339
-103.215
-102.725
-100.427
-98.533
-97.503
-96.607
-94.23
-86.93
-75.411
-63.24
-53.65
-51.208
-55.832
-64.443
-73.815
-76.303
-63.637
-26.541
43.357
145.85
273.924
415.463
557.962
695.349
824.437
939.8
1031.402
1082.765
1078.265
1012.528
890.575
727.824
544.875
360.378
190.743
48.181
-58.57
-126.647
-157.848
-156.006
-131.891
-95.011
-56.12
-29.762
-20.348
-28.274
-48.379
-66.819
-76.983
-77.758
-71.372
-65.901
-65.162
-68.168
-73.141
-76.795
-77.799
-77.126
-75.539
-73.45
-70.879
-67.811
-64.617
-61.986
-60.354
-59.728
-60.02
-61.216
-63.394
-66.562
-70.517
-74.808
-79.022
-82.908
-86.287
-89.081
-91.212
-92.591
-93.204
-93.111
-92.383
-91.1
-89.33
-87.105
-84.467
-81.476
-78.196
-74.711
-71.113
-67.483
-63.899
-60.421
-57.083
-53.911
-50.92
-48.11
-45.476
-43
-40.659
-38.436
-36.317
-34.287
-32.328
-30.41
-28.505
-26.583
-24.619
-22.591
-20.479
-18.266
-15.939
-13.486
-10.894
-8.151
-5.24
-2.145
1.145
4.634
8.323
12.2
16.248
20.444
24.764
29.186
33.698
38.296
42.989
47.786
52.699
57.723
62.842
68.036
73.292
78.599
83.952
89.363
94.854
100.458
106.216
112.148
118.254
124.499
130.819
137.129
143.328
149.335
155.089
160.533
165.62
170.298
174.517
178.209
181.298
183.69
185.278
185.977
185.739
184.554
182.462
179.536
175.883
171.593
166.745
161.406
155.63
149.47
142.977
136.211
129.236
122.137
115.021
107.981
101.092
94.398
87.906
81.599
75.43
69.362
63.367
57.427
51.541
45.714
39.955
34.278
28.7
23.222
17.83
12.513
7.26
2.074
-3.029
-8.02
-12.861
-17.517
-21.958
-26.158
-30.105
-33.791
-37.215
-40.385
-43.313
-46.007
-48.472
-50.711
-52.725
-54.52
-56.105
-57.49
-58.687
-59.713
-60.58
-61.305
-61.9
-62.376
-62.744
-63.012
-63.185
-63.269
-63.272
-63.2
-63.063
-62.867
-62.623
-62.336
-62.017
-61.672
-61.307
-60.928
-60.541
-60.147
-59.752
-59.357
-58.965
-58.577
-58.195
-57.82
-57.453
-57.094
-56.744
-56.402
-56.07
-55.745
-55.428
-55.117
-54.81
-54.507
-54.206
-53.905
-53.603
-53.298
-52.989
-52.675
-52.355
-52.026
-51.689
-51.34
-50.979
-50.605
-50.215
-49.809
-49.386
-48.947
-48.491
-48.019
-47.532
-47.03
-46.516
-45.989
-45.452
-44.907
-44.355
-43.799
-43.242
-42.685
-42.133
-41.588
-41.055
-40.537
-40.039
-39.565
-39.118
-38.704
-38.327
-37.99
-37.699
-37.457
-37.269
-37.139
-37.071
-37.069
-37.136
-37.277
-37.493
-37.787
-38.162
-38.619
-39.16
-39.785
-40.494
-41.287
-42.164
-43.122
-44.16
-45.275
-46.463
-47.721
-49.042
-50.422
-51.854
-53.333
-54.849
-56.395
-57.963
-59.543
-61.127
-62.704
-64.264
-65.795
-67.289
-68.732
-70.114
-71.425
-72.653
-73.788
-74.818
-75.735
-76.528
-77.187
-77.705
-78.073
-78.283
-78.331
-78.209
-77.915
-77.446
-76.799
-75.973
-74.971
-73.792
-72.441
-70.922
-69.241
-67.405
-65.423
-63.304
-61.06
-58.705
-56.251
-53.718
-51.122
-48.483
-45.821
-43.159
-40.518
-37.92
-35.39
-32.946
-30.609
-28.4
-26.339
-24.444
-22.738
-21.237
-19.96
-18.922
-18.137
-17.617
-17.37
-17.4
-17.706
-18.288
-19.149
-20.298
-21.742
-23.486
-25.528
-27.868
-30.492
-33.385
-36.52
-39.854
-43.338
-46.926
-50.57
-54.233
-57.878
-61.459
-64.922
-68.197
-71.216
-73.917
-76.247
-78.159
-79.632
-80.669
-81.314
-81.648
-81.749
-81.701
-81.596
-81.52
-81.571
-81.847
-82.425
-83.427
-85.052
-87.452
-90.679
-94.654
-99.076
-103.568
-107.766
-111.129
-112.947
-112.645
-109.957
-105.063
-98.683
-91.849
-85.611
-81.236
-80.378
-83.355
-88.629
-94.23
-97.303
-97.988
-100.265
-104.342
-106.873
-97.363
-58.853
16.386
127.219
262.666
403.468
539.386
666.534
783.489
888.978
971.625
1014.942
1005.322
937.38
816.83
657.711
477.94
295.021
125.653
-15.808
-119.06
-181.245
-205.545
-198.198
-170.573
-131.336
-90.059
-60.155
-46.617
-51.232
-69.733
-88.635
-100.879
-104.286
-100.032
-95.196
-92.766
-91.689
-90.844
-87.873
-82.151
-75.044
-67.559
-60.54
-54.689
-50.34
-47.667
-46.71
-47.309
-49.146
-51.976
-55.646
-59.961
-64.709
-69.681
-74.637
-79.375
-83.732
-87.57
-90.786
-93.313
-95.116
-96.187
-96.549
-96.251
-95.36
-93.94
-92.053
-89.758
-87.115
-84.197
-81.091
-77.881
-74.653
-71.466
-68.357
-65.353
-62.463
-59.69
-57.025
-54.45
-51.934
-49.457
-47.003
-44.561
-42.119
-39.664
-37.174
-34.627
-32.003
-29.286
-26.465
-23.529
-20.47
-17.282
-13.96
-10.508
-6.93
-3.229
0.602
4.572
8.695
12.974
17.399
21.955
26.629
31.409
36.283
41.226
46.21
51.213
56.228
61.264
66.332
71.428
76.534
81.615
86.638
91.586
96.46
101.263
105.99
110.63
115.184
119.674
124.133
128.563
132.927
137.145
141.139
144.862
148.287
151.404
154.198
156.636
158.674
160.28
161.435
162.118
162.292
161.888
160.828
159.081
156.68
153.708
150.244
146.338
142.023
137.325
132.284
126.953
121.378
115.587
109.6
103.448
97.188
90.906
84.694
78.602
72.637
66.768
60.972
55.245
49.595
44.027
38.535
33.111
27.764
22.523
17.419
12.466
7.664
2.994
-1.564
-6.01
-10.33
-14.495
-18.483
-22.284
-25.888
-29.283
-32.455
-35.393
-38.102
-40.597
-42.895
-45.006
-46.936
-48.684
-50.256
-51.658
-52.902
-53.999
-54.959
-55.79
-56.504
-57.114
-57.633
-58.073
-58.441
-58.742
-58.982
-59.168
-59.306
-59.404
-59.467
-59.5
-59.508
-59.499
-59.477
-59.446
-59.411
-59.371
-59.329
-59.286
-59.241
-59.193
-59.141
-59.083
-59.017
-58.941
-58.852
-58.749
-58.629
-58.489
-58.329
-58.146
-57.937
-57.702
-57.439
-57.146
-56.822
-56.465
-56.074
-55.649
-55.188
-54.691
-54.157
-53.586
-52.979
-52.335
-51.653
-50.936
-50.183
-49.397
-48.58
-47.735
-46.864
-45.971
-45.062
-44.139
-43.209
-42.275
-41.343
-40.417
-39.503
-38.604
-37.726
-36.872
-36.047
-35.255
-34.5
-33.786
-33.117
-32.497
-31.928
-31.415
-30.96
-30.567
-30.238
-29.977
-29.785
-29.665
-29.619
-29.648
-29.753
-29.934
-30.192
-30.524
-30.929
-31.404
-31.948
-32.554
-33.221
-33.942
-34.713
-35.528
-36.383
-37.27
-38.185
-39.12
-40.07
-41.027
-41.985
-42.935
-43.869
-44.781
-45.662
-46.505
-47.302
-48.044
-48.724
-49.334
-49.866
-50.313
-50.667
-50.921
-51.069
-51.105
-51.024
-50.824
-50.501
-50.052
-49.478
-48.779
-47.955
-47.009
-45.943
-44.761
-43.467
-42.068
-40.568
-38.976
-37.3
-35.552
-33.744
-31.891
-30.008
-28.111
-26.216
-24.34
-22.502
-20.718
-19.001
-17.365
-15.826
-14.398
-13.101
-11.951
-10.961
-10.146
-9.516
-9.083
-8.858
-8.845
-9.042
-9.449
-10.068
-10.906
-11.984
-13.317
-14.91
-16.765
-18.875
-21.229
-23.815
-26.601
-29.536
-32.568
-35.641
-38.71
-41.746
-44.709
-47.547
-50.191
-52.553
-54.557
-56.154
-57.308
-57.999
-58.225
-58.006
-57.4
-56.51
-55.457
-54.371
-53.379
-52.604
-52.173
-52.209
-52.891
-54.467
-57.075
-60.717
-65.207
-70.118
-75.012
-79.535
-83.194
-85.362
-85.592
-83.709
-80.149
-76.05
-72.548
-70.505
-70.642
-73.502
-79.312
-87.82
-97.526
-105.58
-108.738
-103.874
-88.124
-58.887
-13.964
48.481
127.72
219.575
319.25
421.545
523.559
626.599
729.382
825.639
904.915
951.009
950.635
901.147
806.376
676.319
525.27
364.424
206.125
67.494
-38.631
-105.417
-132.317
-132.203
-119.574
-101.914
-87.017
-74.982
-63.755
-57.527
-54.837
-54.844
-58.221
-61.325
-64.635
-68.985
-72.914
-76.232
-77.519
-75.682
-71.305
-65.098
-58.03
-51.024
-44.691
-39.633
-36.212
-34.503
-34.404
-35.626
-37.912
-41.072
-44.87
-49.078
-53.5
-57.933
-62.222
-66.235
-69.819
-72.856
-75.277
-77.033
-78.12
-78.559
-78.379
-77.633
-76.393
-74.724
-72.69
-70.357
-67.783
-65.038
-62.201
-59.343
-56.536
-53.83
-51.253
-48.825
-46.553
-44.43
-42.444
-40.573
-38.786
-37.062
-35.382
-33.728
-32.083
-30.428
-28.74
-26.997
-25.179
-23.266
-21.244
-19.095
-16.808
-14.372
-11.778
-9.022
-6.098
-3.001
0.274
3.732
7.378
11.214
15.241
19.457
23.861
28.447
33.208
38.133
43.212
48.429
53.77
59.217
64.751
70.352
75.998
81.666
87.332
92.971
98.558
104.065
109.466
114.735
119.845
124.769
129.481
133.956
138.169
142.098
145.721
149.017
151.967
154.553
156.76
158.573
159.981
160.974
161.544
161.685
161.396
160.674
159.523
157.947
155.952
153.548
150.746
147.559
144.001
140.091
135.847
131.289
126.439
121.32
115.955
110.371
104.591
98.642
92.55
86.342
80.043
73.679
67.275
60.857
54.449
48.074
41.755
35.515
29.373
23.35
17.465
11.734
6.172
0.795
-4.386
-9.359
-14.116
-18.648
-22.951
-27.018
-30.848
-34.439
-37.792
-40.907
-43.789
-46.441
-48.869
-51.078
-53.076
-54.87
-56.468
-57.879
-59.113
-60.177
-61.083
-61.839
-62.455
-62.941
-63.306
-63.561
-63.716
-63.778
-63.759
-63.665
-63.506
-63.29
-63.024
-62.715
-62.369
-61.992
-61.59
-61.166
-60.725
-60.269
-59.802
-59.326
-58.841
-58.349
-57.851
-57.346
-56.835
-56.318
-55.794
-55.262
-54.723
-54.176
-53.621
-53.057
-52.484
-51.902
-51.309
-50.706
-50.093
-49.469
-48.835
-48.191
-47.536
-46.872
-46.2
-45.519
-44.832
-44.139
-43.443
-42.744
-42.045
-41.349
-40.658
-39.975
-39.305
-38.65
-38.013
-37.4
-36.814
-36.258
-35.736
-35.253
-34.81
-34.413
-34.064
-33.766
-33.522
-33.335
-33.209
-33.144
-33.143
-33.208
-33.341
-33.542
-33.813
-34.153
-34.564
-35.046
-35.597
-36.217
-36.905
-37.659
-38.477
-39.357
-40.294
-41.285
-42.326
-43.412
-44.538
-45.697
-46.885
-48.093
-49.317
-50.547
-51.778
-53.002
-54.21
-55.396
-56.55
-57.666
-58.735
-59.749
-60.7
-61.581
-62.383
-63.1
-63.723
-64.246
-64.662
-64.965
-65.148
-65.206
-65.133
-64.927
-64.581
-64.094
-63.463
-62.686
-61.762
-60.692
-59.476
-58.116
-56.616
-54.978
-53.208
-51.311
-49.293
-47.164
-44.929
-42.6
-40.186
-37.699
-35.149
-32.551
-29.916
-27.259
-24.598
-21.949
-19.33
-16.76
-14.258
-11.843
-9.536
-7.355
-5.318
-3.441
-1.741
-0.232
1.07
2.149
2.991
3.58
3.905
3.955
3.721
3.198
2.385
1.286
-0.095
-1.757
-3.705
-5.941
-8.466
-11.28
-14.376
-17.745
-21.366
-25.207
-29.221
-33.356
-37.561
-41.786
-45.989
-50.126
-54.151
-58.012
-61.64
-64.972
-67.949
-70.512
-72.611
-74.215
-75.329
-75.995
-76.304
-76.346
-76.198
-75.945
-75.676
-75.503
-75.559
-75.976
-76.862
-78.353
-80.66
-83.908
-88.095
-93.018
-98.166
-102.933
-106.768
-109.044
-109.059
-106.381
-100.939
-93.239
-84.623
-76.593
-70.428
-67.348
-68.315
-73.652
-82.833
-94.014
-103.884
-108.433
-103.511
-85.082
-49.402
5.66
79.611
170.049
272.785
384.996
506.623
636.29
769.536
894.267
992.117
1046.908
1047.251
993.679
895.689
762.857
608.534
444.686
283.055
141.913
33.989
-37.045
-73.187
-86.916
-90.942
-88.336
-81.74
-72.529
-60.578
-52.87
-52.782
-56.785
-62.493
-64.614
-60.979
-55.826
-51.621
-50.116
-51.787
-54.624
-57.92
-62.055
-67.008
-72.642
-78.508
-83.825
-88.24
-91.674
-93.989
-95.138
-95.328
-95.068
-94.834
-95.017
-95.807
-97.176
-99.058
-101.327
-103.711
-105.807
-107.319
-108.096
-108.088
-107.381
-106.082
-104.281
-102.127
-99.829
-97.539
-95.343
-93.276
-91.29
-89.336
-87.42
-85.562
-83.791
-82.133
-80.576
-79.102
-77.706
-76.361
-75.024
-73.63
-72.072
-70.265
-68.176
-65.8
-63.168
-60.341
-57.345
-54.2
-50.93
-47.543
-44.049
-40.456
-36.75
-32.916
-28.957
-24.888
-20.741
-16.55
-12.321
-8.05
-3.719
0.702
5.231
9.884
14.679
19.628
24.728
29.976
35.351
40.828
46.386
52.008
57.679
63.387
69.111
74.829
80.515
86.144
91.686
97.114
102.396
107.502
112.405
117.079
121.503
125.657
129.522
133.08
136.311
139.198
141.725
143.876
145.636
146.993
147.935
148.453
148.542
148.198
147.42
146.21
144.571
142.511
140.036
137.159
133.891
130.248
126.245
121.901
117.237
112.274
107.035
101.545
95.83
89.917
83.831
77.602
71.257
64.822
58.326
51.795
45.257
38.736
32.259
25.851
19.536
13.338
7.277
1.376
-4.347
-9.874
-15.189
-20.277
-25.127
-29.728
-34.07
-38.146
-41.951
-45.481
-48.733
-51.71
-54.411
-56.84
-59.004
-60.908
-62.56
-63.971
-65.151
-66.111
-66.863
-67.421
-67.798
-68.007
-68.062
-67.979
-67.77
-67.451
-67.034
-66.535
-65.965
-65.338
-64.666
-63.961
-63.234
-62.494
-61.753
-61.018
-60.299
-59.602
-58.935
-58.303
-57.711
-57.163
-56.661
-56.209
-55.806
-55.454
-55.151
-54.895
-54.686
-54.519
-54.392
-54.3
-54.24
-54.208
-54.198
-54.207
-54.229
-54.262
-54.299
-54.338
-54.376
-54.408
-54.432
-54.445
-54.446
-54.432
-54.401
-54.352
-54.284
-54.195
-54.085
-53.954
-53.801
-53.627
-53.433
-53.218
-52.986
-52.736
-52.472
-52.196
-51.911
-51.62
-51.326
-51.032
-50.744
-50.464
-50.196
-49.944
-49.712
-49.503
-49.319
-49.163
-49.038
-48.944
-48.884
-48.857
-48.866
-48.91
-48.989
-49.104
-49.254
-49.437
-49.655
-49.905
-50.187
-50.499
-50.84
-51.208
-51.602
-52.018
-52.456
-52.91
-53.379
-53.858
-54.343
-54.83
-55.314
-55.789
-56.25
-56.693
-57.111
-57.5
-57.854
-58.169
-58.44
-58.663
-58.832
-58.944
-58.994
-58.978
-58.892
-58.732
-58.496
-58.18
-57.781
-57.296
-56.723
-56.058
-55.3
-54.446
-53.494
-52.442
-51.291
-50.039
-48.689
-47.24
-45.696
-44.059
-42.335
-40.527
-38.641
-36.683
-34.659
-32.578
-30.446
-28.272
-26.066
-23.838
-21.6
-19.367
-17.153
-14.974
-12.846
-10.784
-8.807
-6.93
-5.171
-3.544
-2.061
-0.735
0.419
1.385
2.147
2.693
3.013
3.096
2.937
2.527
1.861
0.944
-0.22
-1.627
-3.276
-5.179
-7.347
-9.784
-12.49
-15.457
-18.671
-22.12
-25.773
-29.583
-33.502
-37.47
-41.436
-45.359
-49.19
-52.888
-56.391
-59.625
-62.521
-65.003
-67.009
-68.511
-69.493
-69.965
-69.997
-69.628
-68.917
-68.072
-67.259
-66.653
-66.479
-66.749
-67.505
-69.07
-71.65
-75.133
-79.354
-83.797
-87.787
-91.21
-93.794
-94.772
-93.715
-90.545
-85.451
-79.687
-74.933
-72.112
-72.352
-76.163
-82.523
-90.594
-99.725
-110.445
-124.191
-139.333
-149.333
-142.214
-105.257
-33.025
69.952
191.237
317.398
442.081
566.986
695.533
826.244
948.141
1043.21
1093.968
1088.978
1027.608
916.048
765.206
591.888
412.876
247.822
115.901
25.419
-24.334
-43.391
-48.47
-52.589
-60.901
-73.575
-86.924
-95.463
-98.685
-97.791
-93.253
-88.358
-84.199
-80.126
-76.795
-73.297
-68.852
-64.047
-59.412
-55.874
-54.404
-55.395
-58.571
-63.148
-68.424
-73.681
-78.246
-81.713
-83.809
-84.438
-84
-83.241
-82.695
-82.786
-83.763
-85.549
-88.028
-91.024
-94.152
-96.964
-99.168
-100.581
-101.145
-100.952
-100.068
-98.562
-96.548
-94.141
-91.428
-88.479
-85.337
-82.034
-78.631
-75.198
-71.81
-68.528
-65.383
-62.393
-59.563
-56.886
-54.349
-51.932
-49.608
-47.357
-45.164
-43.016
-40.903
-38.807
-36.708
-34.583
-32.406
-30.153
-27.804
-25.342
-22.75
-20.017
-17.133
-14.09
-10.88
-7.498
-3.935
-0.185
3.76
7.904
12.248
16.793
21.535
26.47
31.588
36.881
42.333
47.93
53.655
59.49
65.412
71.4
77.43
83.476
89.512
95.51
101.442
107.28
112.993
118.554
123.932
129.1
134.028
138.69
143.058
147.108
150.816
154.16
157.118
159.672
161.805
163.502
164.75
165.54
165.865
165.718
165.1
164.01
162.452
160.434
157.963
155.051
151.713
147.965
143.825
139.313
134.453
129.267
123.781
118.021
112.016
105.794
99.384
92.817
86.121
79.328
72.468
65.571
58.667
51.785
44.954
38.201
31.553
25.036
18.674
12.488
6.501
0.73
-4.807
-10.096
-15.123
-19.878
-24.351
-28.538
-32.432
-36.031
-39.336
-42.346
-45.067
-47.501
-49.656
-51.54
-53.161
-54.53
-55.66
-56.561
-57.248
-57.734
-58.035
-58.167
-58.144
-57.984
-57.702
-57.316
-56.841
-56.295
-55.693
-55.051
-54.382
-53.702
-53.023
-52.357
-51.717
-51.111
-50.55
-50.04
-49.591
-49.205
-48.89
-48.647
-48.48
-48.389
-48.376
-48.439
-48.578
-48.791
-49.074
-49.425
-49.84
-50.313
-50.84
-51.416
-52.033
-52.685
-53.366
-54.067
-54.783
-55.504
-56.225
-56.936
-57.632
-58.305
-58.949
-59.556
-60.122
-60.641
-61.106
-61.515
-61.864
-62.148
-62.365
-62.514
-62.593
-62.601
-62.538
-62.405
-62.203
-61.932
-61.595
-61.194
-60.731
-60.21
-59.633
-59.006
-58.332
-57.616
-56.864
-56.08
-55.271
-54.443
-53.601
-52.752
-51.901
-51.056
-50.223
-49.407
-48.615
-47.853
-47.127
-46.443
-45.805
-45.218
-44.687
-44.216
-43.807
-43.463
-43.186
-42.978
-42.839
-42.77
-42.77
-42.839
-42.976
-43.179
-43.445
-43.771
-44.154
-44.587
-45.068
-45.588
-46.143
-46.725
-47.326
-47.94
-48.558
-49.172
-49.773
-50.353
-50.901
-51.408
-51.866
-52.263
-52.592
-52.842
-53.006
-53.075
-53.042
-52.902
-52.647
-52.273
-51.777
-51.155
-50.405
-49.525
-48.515
-47.377
-46.111
-44.723
-43.217
-41.598
-39.878
-38.066
-36.176
-34.223
-32.22
-30.183
-28.128
-26.073
-24.037
-22.038
-20.092
-18.218
-16.434
-14.761
-13.221
-11.832
-10.61
-9.569
-8.72
-8.078
-7.653
-7.451
-7.479
-7.741
-8.24
-8.993
-10.013
-11.306
-12.875
-14.714
-16.811
-19.155
-21.728
-24.493
-27.419
-30.462
-33.582
-36.746
-39.907
-43.023
-46.051
-48.929
-51.612
-54.047
-56.162
-57.918
-59.3
-60.309
-61.004
-61.425
-61.549
-61.499
-61.5
-61.767
-62.588
-64.053
-66.038
-68.673
-72.184
-76.458
-81.11
-85.462
-88.581
-90.128
-90.266
-88.748
-85.275
-79.951
-73.363
-66.988
-62.705
-61.501
-63.555
-69.126
-78.321
-90.823
-105.456
-119.386
-128.977
-131.044
-123.011
-102.37
-66.655
-13.82
57.326
144.717
243.317
348.145
453.721
556.708
658.105
756.068
845.545
918.714
959.415
953.412
894.751
782.805
629.503
454.22
275.633
113.98
-15.189
-104.25
-152.303
-165.662
-154.628
-130.635
-102.527
-77.748
-61.849
-55.28
-55.89
-57.694
-54.715
-45.944
-33.833
-23.74
-19.317
-20.482
-25.537
-32.003
-38.672
-45.459
-51.79
-57.032
-60.847
-63.078
-64.009
-64.051
-63.312
-62.042
-60.904
-60.48
-61.099
-62.865
-65.559
-68.878
-72.623
-76.494
-80.091
-83.128
-85.432
-86.934
-87.696
-87.788
-87.253
-86.173
-84.641
-82.727
-80.487
-77.962
-75.184
-72.21
-69.12
-65.998
-62.909
-59.897
-56.989
-54.205
-51.553
-49.035
-46.641
-44.346
-42.137
-40.008
-37.95
-35.958
-34.02
-32.117
-30.229
-28.335
-26.412
-24.445
-22.413
-20.301
-18.097
-15.788
-13.366
-10.825
-8.154
-5.343
-2.383
0.735
4.021
7.479
11.116
14.933
18.933
23.112
27.467
31.992
36.678
41.517
46.498
51.606
56.828
62.147
67.546
73.006
78.506
84.023
89.535
95.017
100.444
105.789
111.027
116.13
121.071
125.824
130.362
134.659
138.69
142.432
145.86
148.953
151.692
154.056
156.03
157.598
158.747
159.468
159.752
159.594
158.99
157.94
156.445
154.509
152.137
149.337
146.12
142.497
138.483
134.094
129.348
124.264
118.866
113.174
107.215
101.013
94.596
87.99
81.225
74.33
67.333
60.264
53.152
46.027
38.918
31.852
24.858
17.961
11.188
4.561
-1.895
-8.16
-14.214
-20.04
-25.62
-30.941
-35.99
-40.755
-45.228
-49.402
-53.271
-56.831
-60.082
-63.022
-65.654
-67.982
-70.01
-71.746
-73.197
-74.374
-75.287
-75.948
-76.372
-76.571
-76.562
-76.36
-75.98
-75.441
-74.758
-73.949
-73.03
-72.018
-70.928
-69.778
-68.581
-67.353
-66.108
-64.857
-63.614
-62.388
-61.19
-60.03
-58.914
-57.85
-56.844
-55.901
-55.024
-54.217
-53.481
-52.817
-52.225
-51.704
-51.252
-50.866
-50.542
-50.276
-50.063
-49.898
-49.775
-49.689
-49.631
-49.597
-49.579
-49.572
-49.567
-49.56
-49.545
-49.516
-49.468
-49.398
-49.301
-49.175
-49.018
-48.827
-48.603
-48.345
-48.053
-47.728
-47.372
-46.987
-46.575
-46.14
-45.686
-45.217
-44.738
-44.255
-43.772
-43.295
-42.831
-42.385
-41.964
-41.574
-41.222
-40.912
-40.651
-40.445
-40.299
-40.217
-40.204
-40.264
-40.4
-40.613
-40.905
-41.277
-41.729
-42.259
-42.866
-43.547
-44.3
-45.118
-45.999
-46.937
-47.925
-48.958
-50.027
-51.125
-52.245
-53.376
-54.511
-55.64
-56.753
-57.841
-58.894
-59.901
-60.852
-61.739
-62.551
-63.279
-63.915
-64.449
-64.874
-65.182
-65.367
-65.422
-65.343
-65.124
-64.764
-64.26
-63.611
-62.817
-61.879
-60.798
-59.578
-58.223
-56.738
-55.129
-53.403
-51.569
-49.634
-47.61
-45.508
-43.339
-41.118
-38.861
-36.587
-34.311
-32.054
-29.834
-27.669
-25.58
-23.584
-21.694
-19.925
-18.293
-16.811
-15.497
-14.367
-13.432
-12.705
-12.195
-11.909
-11.856
-12.038
-12.449
-13.086
-13.947
-15.037
-16.374
-17.969
-19.826
-21.942
-24.309
-26.912
-29.734
-32.742
-35.884
-39.107
-42.356
-45.588
-48.777
-51.886
-54.864
-57.644
-60.139
-62.27
-63.988
-65.254
-66.044
-66.357
-66.212
-65.662
-64.804
-63.751
-62.619
-61.526
-60.583
-59.909
-59.617
-59.881
-60.949
-62.971
-65.95
-69.702
-73.783
-77.728
-81.164
-83.596
-84.405
-83.18
-79.814
-74.834
-69.518
-65.171
-62.791
-63.183
-66.93
-74.218
-84.659
-96.582
-106.904
-112.115
-108.879
-94.194
-65.364
-20.139
43.215
123.822
217.381
318.629
421.813
523.796
625.418
726.097
821.927
903.869
957.336
967.975
926.927
833.318
693.18
520.765
335.711
157.59
8.359
-96.354
-153.636
-166.588
-148.234
-116.318
-82.244
-56.849
-45.881
-46.359
-54.733
-63.866
-66.842
-63.295
-55.477
-47.782
-44.128
-45.048
-48.798
-52.947
-56.152
-57.989
-58.736
-59.072
-58.956
-58.02
-56.401
-54.234
-51.803
-49.822
-48.575
-48.072
-48.493
-49.915
-52.28
-55.548
-59.447
-63.474
-67.305
-70.727
-73.578
-75.835
-77.47
-78.438
-78.78
-78.584
-77.928
-76.892
-75.523
-73.832
-71.852
-69.635
-67.244
-64.762
-62.258
-59.797
-57.424
-55.162
-53.029
-51.031
-49.16
-47.404
-45.741
-44.142
-42.588
-41.064
-39.555
-38.043
-36.508
-34.92
-33.255
-31.49
-29.604
-27.582
-25.408
-23.067
-20.549
-17.847
-14.955
-11.87
-8.588
-5.103
-1.411
2.489
6.6
10.917
15.44
20.161
25.075
30.171
35.437
40.857
46.415
52.092
57.869
63.723
69.632
75.571
81.514
87.435
93.306
99.099
104.787
110.34
115.731
120.931
125.914
130.652
135.121
139.297
143.157
146.68
149.845
152.635
155.034
157.027
158.601
159.747
160.456
160.722
160.542
159.915
158.844
157.332
155.386
153.016
150.232
147.049
143.481
139.545
135.261
130.648
125.729
120.526
115.063
109.366
103.461
97.373
91.129
84.757
78.282
71.731
65.131
58.508
51.887
45.294
38.752
32.286
25.917
19.667
13.557
7.605
1.828
-3.758
-9.139
-14.303
-19.239
-23.938
-28.392
-32.596
-36.546
-40.238
-43.672
-46.848
-49.766
-52.43
-54.843
-57.011
-58.94
-60.636
-62.108
-63.363
-64.411
-65.263
-65.928
-66.419
-66.745
-66.92
-66.955
-66.863
-66.657
-66.348
-65.95
-65.474
-64.931
-64.334
-63.691
-63.015
-62.313
-61.596
-60.87
-60.144
-59.425
-58.718
-58.031
-57.367
-56.732
-56.13
-55.563
-55.035
-54.548
-54.104
-53.705
-53.35
-53.04
-52.776
-52.557
-52.381
-52.247
-52.153
-52.096
-52.074
-52.084
-52.123
-52.186
-52.271
-52.375
-52.493
-52.622
-52.759
-52.902
-53.046
-53.19
-53.33
-53.464
-53.589
-53.704
-53.806
-53.893
-53.965
-54.02
-54.056
-54.074
-54.072
-54.049
-54.006
-53.943
-53.861
-53.759
-53.638
-53.501
-53.348
-53.185
-53.011
-52.827
-52.633
-52.429
-52.218
-52.007
-51.798
-51.584
-51.371
-51.178
-51.02
-50.916
-50.868
-50.854
-50.87
-50.946
-51.067
-51.175
-51.228
-51.177
-51.015
-50.814
-50.602
-50.299
-49.978
-49.923
-50.208
-50.739
-51.552
-52.355
-53.65
-57.221
-62.798
-68.688
-72.29
-68.539
-57.419
-44.086
-33.564
-33.009
-43.303
-57.581
-70.501
-76.433
-74.039
-68.417
-62.805
-59.283
-58.626
-58.761
-58.66
-58.406
-57.912
-57.476
-57.196
-56.786
-56.15
-55.337
-54.34
-53.147
-51.77
-50.224
-48.537
-46.762
-44.923
-43.004
-41.005
-38.94
-36.82
-34.662
-32.48
-30.285
-28.092
-25.924
-23.801
-21.742
-19.768
-17.892
-16.132
-14.506
-13.029
-11.723
-10.606
-9.695
-9.004
-8.548
-8.339
-8.389
-8.704
-9.284
-10.127
-11.234
-12.611
-14.276
-16.239
-18.506
-21.076
-23.942
-27.094
-30.514
-34.171
-38.012
-41.981
-46.024
-50.088
-54.14
-58.136
-62.022
-65.729
-69.171
-72.269
-74.962
-77.203
-78.957
-80.204
-80.953
-81.251
-81.19
-80.878
-80.433
-79.965
-79.588
-79.436
-79.627
-80.311
-81.692
-83.903
-86.995
-90.886
-95.27
-99.741
-103.934
-107.388
-109.528
-109.924
-108.29
-104.75
-100.122
-95.471
-91.731
-89.717
-90.145
-93.505
-100.028
-109.123
-117.905
-122.035
-117.531
-101.404
-74.193
-38.193
6.462
61.544
132.721
225.714
341.964
478.94
627.12
774.204
905.229
1003.473
1057.323
1057.783
1005.144
907.898
774.037
616.686
448.398
281.465
135.416
24.579
-46.042
-78.65
-87.436
-86.234
-79.049
-67.516
-51.248
-32.779
-21.836
-24.986
-41.646
-65.156
-85.902
-98.281
-102.739
-103.626
-104.439
-105.785
-106.62
-105.172
-101.08
-95.398
-89.154
-83.246
-78.26
-74.465
-72.042
-71.051
-71.354
-72.715
-74.933
-77.859
-81.339
-85.197
-89.268
-93.381
-97.386
-101.162
-104.569
-107.459
-109.74
-111.358
-112.292
-112.562
-112.201
-111.244
-109.757
-107.813
-105.486
-102.849
-99.973
-96.919
-93.761
-90.572
-87.418
-84.366
-81.457
-78.715
-76.15
-73.76
-71.535
-69.461
-67.512
-65.66
-63.88
-62.147
-60.442
-58.744
-57.031
-55.28
-53.465
-51.565
-49.558
-47.427
-45.156
-42.731
-40.14
-37.373
-34.422
-31.282
-27.947
-24.412
-20.672
-16.724
-12.568
-8.205
-3.639
1.124
6.076
11.205
16.496
21.933
27.498
33.17
38.927
44.746
50.603
56.47
62.322
68.13
73.866
79.502
85.009
90.357
95.519
100.467
105.174
109.613
113.759
117.589
121.081
124.212
126.966
129.324
131.271
132.796
133.888
134.54
134.746
134.504
133.815
132.682
131.111
129.11
126.691
123.865
120.649
117.06
113.116
108.84
104.253
99.38
94.244
88.873
83.293
77.531
71.615
65.574
59.434
53.224
46.971
40.704
34.448
28.23
22.075
16.008
10.051
4.226
-1.448
-6.952
-12.269
-17.384
-22.285
-26.961
-31.403
-35.602
-39.554
-43.254
-46.701
-49.894
-52.835
-55.526
-57.971
-60.177
-62.149
-63.896
-65.427
-66.75
-67.877
-68.818
-69.585
-70.19
-70.645
-70.964
-71.158
-71.241
-71.226
-71.126
-70.953
-70.718
-70.434
-70.11
-69.757
-69.384
-68.999
-68.609
-68.222
-67.844
-67.478
-67.13
-66.803
-66.5
-66.221
-65.969
-65.743
-65.543
-65.368
-65.218
-65.09
-64.983
-64.894
-64.82
-64.759
-64.706
-64.659
-64.613
-64.565
-64.511
-64.447
-64.368
-64.273
-64.156
-64.016
-63.849
-63.653
-63.426
-63.165
-62.871
-62.541
-62.175
-61.774
-61.337
-60.866
-60.361
-59.824
-59.256
-58.659
-58.036
-57.389
-56.72
-56.032
-55.328
-54.61
-53.883
-53.148
-52.41
-51.672
-50.937
-50.21
-49.494
-48.791
-48.107
-47.444
-46.805
-46.193
-45.612
-45.063
-44.55
-44.074
-43.637
-43.241
-42.888
-42.578
-42.312
-42.091
-41.914
-41.782
-41.694
-41.65
-41.649
-41.689
-41.771
-41.892
-42.05
-42.242
-42.467
-42.722
-43.001
-43.303
-43.623
-43.956
-44.298
-44.644
-44.99
-45.329
-45.658
-45.97
-46.259
-46.52
-46.747
-46.934
-47.074
-47.161
-47.189
-47.153
-47.047
-46.865
-46.602
-46.253
-45.813
-45.277
-44.641
-43.9
-43.051
-42.09
-41.014
-39.823
-38.516
-37.091
-35.551
-33.896
-32.13
-30.256
-28.277
-26.198
-24.024
-21.761
-19.418
-17.003
-14.523
-11.991
-9.42
-6.824
-4.22
-1.625
0.945
3.474
5.944
8.336
10.631
12.81
14.856
16.753
18.482
20.025
21.363
22.48
23.366
24.015
24.418
24.569
24.462
24.092
23.461
22.576
21.438
20.045
18.394
16.484
14.324
11.927
9.311
6.491
3.492
0.344
-2.913
-6.234
-9.569
-12.868
-16.088
-19.189
-22.134
-24.894
-27.42
-29.651
-31.526
-32.984
-33.998
-34.61
-34.834
-34.658
-34.159
-33.479
-32.907
-32.914
-33.76
-35.417
-37.863
-41.089
-45.006
-49.483
-53.858
-56.836
-57.586
-55.88
-51.722
-45.386
-37.108
-27.02
-16.276
-7.164
-1.391
-0.055
-3.807
-12.446
-25.829
-42.991
-60.584
-74.24
-80.857
-80.57
-75.433
-65.292
-45.137
-3.641
69.189
173.744
302.145
438.848
570.259
693.809
810.827
921.174
1018.678
1086.474
1106.323
1070.042
978.847
843.423
681.559
507.991
337.514
187.359
69.914
-6.489
-42.28
-49.411
-42.693
-35.189
-32.745
-34.453
-37.071
-36.032
-31.107
-23.584
-13.812
-5.194
0.677
3.705
2.734
-0.804
-5.181
-10.154
-15.293
-20.345
-25.104
-28.956
-31.208
-31.715
-30.741
-28.515
-25.321
-21.662
-18.16
-15.346
-13.702
-13.413
-14.351
-16.374
-19.267
-22.67
-26.165
-29.403
-32.103
-34.125
-35.473
-36.151
-36.184
-35.632
-34.562
-33.044
-31.142
-28.896
-26.336
-23.503
-20.454
-17.259
-13.993
-10.725
-7.516
-4.406
-1.42
1.432
4.148
6.737
9.209
11.583
13.88
16.117
18.313
20.486
22.653
24.838
27.068
29.366
31.756
34.258
36.886
39.654
42.576
45.66
48.914
52.344
55.954
59.748
63.731
67.906
72.276
76.842
81.6
86.548
91.68
96.989
102.464
108.091
113.856
119.742
125.73
131.799
137.927
144.091
150.265
156.423
162.538
168.582
174.526
180.342
186.001
191.473
196.731
201.747
206.496
210.952
215.091
218.891
222.332
225.393
228.059
230.312
232.14
233.531
234.476
234.967
234.999
234.572
233.685
232.341
230.547
228.309
225.639
222.548
219.052
215.168
210.914
206.311
201.382
196.15
190.642
184.884
178.904
172.73
166.391
159.915
153.333
146.672
139.96
133.227
126.498
119.801
113.16
106.602
100.148
93.821
87.641
81.628
75.799
70.169
64.753
59.564
54.611
49.904
45.45
41.254
37.321
33.651
30.246
27.102
24.218
21.587
19.204
17.06
15.147
13.454
11.971
10.686
9.586
8.659
7.891
7.27
6.782
6.414
6.152
5.984
5.897
5.88
5.92
6.007
6.131
6.282
6.452
6.633
6.816
6.995
7.165
7.319
7.453
7.565
7.651
7.709
7.739
7.74
7.714
7.661
7.583
7.483
7.364
7.23
7.083
6.929
6.77
6.612
6.459
6.314
6.183
6.068
5.974
5.903
5.858
5.842
5.856
5.903
5.984
6.1
6.252
6.441
6.666
6.927
7.224
7.555
7.92
8.316
8.741
9.191
9.665
10.158
10.668
11.189
11.718
12.251
12.782
13.307
13.821
14.319
14.796
15.247
15.669
16.056
16.404
16.71
16.97
17.181
17.339
17.442
17.486
17.471
17.393
17.251
17.043
16.768
16.426
16.016
15.537
14.99
14.376
13.695
12.95
12.142
11.273
10.347
9.365
8.333
7.254
6.133
4.974
3.782
2.563
1.323
0.066
-1.2
-2.469
-3.735
-4.992
-6.232
-7.448
-8.633
-9.781
-10.885
-11.937
-12.931
-13.861
-14.719
-15.5
-16.198
-16.806
-17.318
-17.73
-18.037
-18.235
-18.319
-18.288
-18.138
-17.869
-17.478
-16.968
-16.337
-15.588
-14.724
-13.748
-12.666
-11.482
-10.205
-8.843
-7.404
-5.902
-4.349
-2.76
-1.149
0.466
2.069
3.643
5.168
6.63
8.012
9.298
10.47
11.512
12.406
13.133
13.677
14.021
14.15
14.048
13.704
13.112
12.266
11.163
9.796
8.152
6.221
3.994
1.468
-1.36
-4.482
-7.887
-11.549
-15.428
-19.479
-23.657
-27.915
-32.218
-36.527
-40.801
-44.992
-49.038
-52.875
-56.45
-59.709
-62.608
-65.125
-67.267
-69.075
-70.641
-72.057
-73.399
-74.759
-76.229
-77.908
-79.904
-82.31
-85.206
-88.727
-93.074
-98.375
-104.627
-111.636
-119
-126.274
-133.009
-138.622
-142.388
-143.71
-142.393
-138.801
-133.747
-128.279
-123.503
-120.501
-120.504
-123.613
-128.265
-132.407
-134.204
-134.347
-134.772
-134.166
-126.551
-100.052
-43.602
44.639
158.275
283.195
406.965
526.917
644.118
759.863
868.132
952.698
994.945
980.538
906.3
779.622
615.771
433.878
251.856
86.675
-48.912
-147.503
-207.751
-234.059
-233.294
-215.222
-189.019
-163.855
-147.96
-143.557
-148.615
-156.316
-159.862
-157.604
-151.742
-147.883
-149.872
-157.284
-167.723
-177.868
-185.555
-190.599
-193.242
-193.45
-191.338
-187.271
-181.868
-176.049
-170.738
-166.373
-163.17
-161.44
-161.258
-162.541
-165.143
-168.677
-172.7
-176.977
-181.366
-185.756
-190.108
-194.374
-198.479
-202.402
-206.138
-209.627
-212.827
-215.706
-218.234
-220.42
-222.292
-223.882
-225.218
-226.332
-227.228
-227.891
-228.321
-228.514
-228.48
-228.251
-227.871
-227.405
-226.904
-226.405
-225.927
-225.474
-225.047
-224.634
-224.225
-223.802
-223.358
-222.904
-222.446
-221.989
-221.527
-221.039
-220.495
-219.854
-219.076
-218.128
-216.982
-215.619
-214.023
-212.187
-210.106
-207.782
-205.216
-202.401
-199.329
-195.995
-192.394
-188.53
-184.408
-180.036
-175.425
-170.586
-165.531
-160.273
-154.824
-149.193
-143.39
-137.424
-131.306
-125.047
-118.664
-112.172
-105.588
-98.931
-92.22
-85.475
-78.716
-71.962
