Name
Date of Birth,"Mar 27, 1959"
Recorded Date,2022-07-26 17:04:25 -0500
Classification,Sinus Rhythm
Symptoms,
Software Version,1.90
Device,"Watch4,2"
Sample Rate,510.227 hertz


Lead,Lead I
Unit,µV

-220.973
-295.417
-341.637
-353.955
-341.014
-319.375
-302.537
-295.572
-295.451
-295.256
-290.686
-281.411
-269.514
-257.87
-247.429
-237.781
-228.26
-217.944
-206.593
-194.27
-180.948
-166.813
-152.115
-137.111
-122.14
-107.52
-93.383
-79.766
-66.633
-53.903
-41.537
-29.477
-17.638
-5.899
5.876
17.748
29.732
41.828
54.031
66.366
78.88
91.568
104.38
117.244
130.054
142.739
155.271
167.608
179.708
191.526
202.993
214.097
224.874
235.317
245.392
255.02
264.064
272.44
280.114
287.06
293.284
298.764
303.45
307.312
310.336
312.494
313.769
314.097
313.366
311.534
308.622
304.707
299.943
294.446
288.285
281.536
274.267
266.551
258.483
250.132
241.538
232.771
223.907
215.059
206.384
197.982
189.897
182.138
174.654
167.421
160.447
153.726
147.25
141.019
135.025
129.285
123.843
118.717
113.909
109.4
105.144
101.118
97.326
93.777
90.502
87.518
84.83
82.444
80.371
78.612
77.159
75.99
75.065
74.354
73.833
73.484
73.292
73.239
73.299
73.446
73.656
73.901
74.157
74.399
74.596
74.727
74.77
74.711
74.541
74.249
73.825
73.259
72.545
71.676
70.648
69.456
68.095
66.563
64.86
62.989
60.954
58.76
56.413
53.919
51.288
48.526
45.642
42.646
39.544
36.345
33.057
29.69
26.253
22.753
19.197
15.593
11.949
8.27
4.559
0.819
-2.953
-6.759
-10.6
-14.479
-18.402
-22.373
-26.397
-30.474
-34.604
-38.787
-43.027
-47.328
-51.696
-56.136
-60.65
-65.241
-69.916
-74.676
-79.521
-84.445
-89.437
-94.491
-99.608
-104.793
-110.062
-115.423
-120.878
-126.426
-132.061
-137.773
-143.542
-149.335
-155.099
-160.789
-166.365
-171.795
-177.055
-182.107
-186.909
-191.413
-195.562
-199.304
-202.602
-205.44
-207.816
-209.757
-211.297
-212.475
-213.385
-214.136
-214.842
-215.611
-216.525
-217.654
-219.11
-221.099
-223.748
-227.038
-230.819
-234.732
-238.388
-241.491
-243.646
-244.265
-242.986
-239.913
-235.502
-230.762
-226.917
-224.919
-225.773
-230.646
-239.161
-249.108
-258.224
-264.221
-267.088
-268.755
-267.956
-258.887
-232.252
-180.203
-101.449
-3
103.252
208.732
309.114
402.444
485.461
548.717
579.275
566.393
507.28
407.37
277.455
131.724
-16.761
-154.953
-267.782
-342.99
-374.2
-363.386
-323.45
-273.228
-229.957
-204.395
-197.524
-202.076
-208.033
-208.281
-201.341
-190.51
-180.872
-175.169
-172.735
-171.076
-167.564
-161.287
-152.826
-143.104
-133.022
-123.13
-113.857
-105.77
-99.206
-94.223
-90.691
-88.358
-87.018
-86.53
-86.725
-87.37
-88.253
-89.18
-89.965
-90.496
-90.685
-90.444
-89.728
-88.509
-86.766
-84.521
-81.82
-78.702
-75.207
-71.369
-67.209
-62.763
-58.081
-53.214
-48.221
-43.139
-37.985
-32.777
-27.52
-22.208
-16.827
-11.339
-5.704
0.102
6.09
12.271
18.643
25.201
31.931
38.796
45.761
52.804
59.918
67.113
74.394
81.76
89.203
96.713
104.303
111.997
119.808
127.739
135.794
143.999
152.412
161.129
170.224
179.723
189.61
199.832
210.34
221.07
231.94
242.837
253.604
264.095
274.197
283.824
292.89
301.282
308.842
315.376
320.732
324.818
327.589
329.038
329.159
327.982
325.581
322.089
317.69
312.539
306.75
300.406
293.592
286.419
279.036
271.612
264.273
257.114
250.203
243.597
237.35
231.489
225.995
220.8
215.807
210.948
206.195
201.539
196.974
192.483
188.034
183.595
179.163
174.739
170.326
165.922
161.523
157.137
152.799
148.562
144.487
140.615
136.969
133.563
130.405
127.503
124.864
122.484
120.35
118.448
116.773
115.321
114.093
113.082
112.276
111.661
111.222
110.95
110.838
110.882
111.078
111.424
111.921
112.574
113.39
114.374
115.53
116.861
118.368
120.055
121.927
123.987
126.238
128.683
131.327
134.176
137.235
140.508
143.999
147.712
151.651
155.818
160.215
164.844
169.703
174.792
180.106
185.641
191.389
197.341
203.483
209.802
216.283
222.905
229.65
236.496
243.424
250.411
257.437
264.479
271.514
278.519
285.47
292.338
299.095
305.708
312.143
318.367
324.349
330.057
335.463
340.536
345.247
349.574
353.492
356.974
359.992
362.505
364.485
365.914
366.786
367.1
366.873
366.113
364.834
363.066
360.825
358.118
354.94
351.261
347.051
342.3
337.012
331.212
324.927
318.155
310.891
303.129
294.838
285.998
276.579
266.518
255.786
244.399
232.401
219.898
207.016
193.843
180.448
166.885
153.189
139.429
125.676
111.984
98.442
85.134
72.162
59.672
47.774
36.51
25.88
15.815
6.196
-3.048
-11.972
-20.626
-29.026
-37.214
-45.235
-53.113
-60.893
-68.633
-76.396
-84.292
-92.412
-100.785
-109.404
-118.196
-127.032
-135.821
-144.492
-152.974
-161.229
-169.206
-176.841
-184.096
-190.938
-197.331
-203.249
-208.64
-213.458
-217.712
-221.444
-224.735
-227.736
-230.577
-233.378
-236.288
-239.429
-242.905
-246.871
-251.499
-256.853
-262.913
-269.512
-276.322
-283.044
-289.441
-295.171
-299.809
-303.085
-304.959
-305.85
-306.657
-308.204
-311.068
-315.739
-322.633
-331.887
-343.223
-355.402
-366.156
-373.104
-374.092
-367.015
-349.893
-320.989
-278.786
-224.1
-160.56
-91.839
-22.027
46.882
117.18
188.475
256.764
314.799
347.742
342.748
294.766
203.718
79.977
-60.471
-202.523
-329.987
-430.48
-497.528
-530.463
-534.627
-518.584
-493.008
-466.925
-447.894
-441.599
-447.928
-463.33
-481.233
-495.197
-503.41
-507.089
-509.704
-513.653
-518.413
-522.621
-524.626
-523.879
-521.218
-517.518
-513.494
-509.704
-506.48
-504.035
-502.511
-501.854
-501.87
-502.409
-503.344
-504.551
-505.921
-507.332
-508.655
-509.766
-510.522
-510.803
-510.529
-509.646
-508.134
-505.987
-503.199
-499.794
-495.83
-491.362
-486.449
-481.141
-475.47
-469.488
-463.263
-456.873
-450.407
-443.931
-437.49
-431.12
-424.848
-418.693
-412.669
-406.773
-400.985
-395.294
-389.692
-384.174
-378.742
-373.389
-368.1
-362.862
-357.662
-352.488
-347.333
-342.186
-337.036
-331.877
-326.705
-321.516
-316.311
-311.088
-305.843
-300.572
-295.271
-289.938
-284.569
-279.163
-273.716
-268.23
-262.706
-257.147
-251.557
-245.943
-240.309
-234.665
-229.018
-223.38
-217.759
-212.168
-206.619
-201.123
-195.694
-190.347
-185.096
-179.953
-174.932
-170.049
-165.317
-160.749
-156.358
-152.156
-148.154
-144.364
-140.794
-137.455
-134.353
-131.497
-128.891
-126.541
-124.45
-122.621
-121.054
-119.75
-118.707
-117.921
-117.388
-117.103
-117.06
-117.251
-117.666
-118.298
-119.135
-120.167
-121.382
-122.767
-124.31
-125.998
-127.816
-129.751
-131.79
-133.918
-136.121
-138.387
-140.7
-143.05
-145.422
-147.805
-150.187
-152.558
-154.906
-157.224
-159.501
-161.731
-163.906
-166.019
-168.066
-170.043
-171.944
-173.768
-175.513
-177.176
-178.757
-180.256
-181.674
-183.013
-184.273
-185.458
-186.571
-187.616
-188.596
-189.516
-190.38
-191.194
-191.964
-192.695
-193.392
-194.062
-194.711
-195.343
-195.966
-196.583
-197.201
-197.822
-198.452
-199.095
-199.752
-200.427
-201.123
-201.84
-202.58
-203.343
-204.131
-204.942
-205.776
-206.631
-207.506
-208.399
-209.306
-210.225
-211.152
-212.083
-213.013
-213.937
-214.849
-215.743
-216.613
-217.45
-218.248
-218.998
-219.693
-220.324
-220.883
-221.36
-221.749
-222.042
-222.23
-222.307
-222.266
-222.099
-221.801
-221.366
-220.788
-220.062
-219.183
-218.146
-216.948
-215.587
-214.059
-212.363
-210.496
-208.458
-206.25
-203.872
-201.326
-198.614
-195.74
-192.708
-189.524
-186.196
-182.73
-179.135
-175.422
-171.601
-167.685
-163.685
-159.616
-155.489
-151.32
-147.124
-142.915
-138.71
-134.525
-130.377
-126.287
-122.274
-118.358
-114.561
-110.902
-107.402
-104.08
-100.955
-98.045
-95.363
-92.926
-90.748
-88.847
-87.239
-85.937
-84.95
-84.29
-83.964
-83.985
-84.354
-85.067
-86.121
-87.516
-89.257
-91.358
-93.825
-96.653
-99.836
-103.36
-107.211
-111.368
-115.798
-120.444
-125.254
-130.173
-135.161
-140.191
-145.219
-150.187
-155.022
-159.647
-164.005
-168.069
-171.808
-175.194
-178.224
-180.922
-183.354
-185.619
-187.805
-189.985
-192.232
-194.63
-197.278
-200.265
-203.697
-207.713
-212.365
-217.618
-223.314
-229.139
-234.748
-239.855
-244.084
-246.932
-248.052
-247.353
-245.179
-242.339
-239.597
-237.385
-236.109
-236.413
-238.807
-243.306
-248.197
-250.155
-246.227
-234.635
-216.377
-193.551
-165.577
-129.886
-81.693
-16.095
66.623
162.795
266.853
370.698
466.615
546.229
599.586
617.206
593.202
527.108
422.627
291.271
149.733
15.479
-90.895
-156.373
-181.188
-173.224
-149.046
-124.593
-105.923
-93.885
-85.431
-76.506
-67.26
-59.918
-56.763
-59.661
-68.482
-81.252
-95.223
-108.094
-118.781
-126.907
-132.573
-135.932
-136.867
-135.886
-134.161
-132.647
-131.929
-132.247
-133.455
-135.475
-138.469
-142.34
-146.727
-151.286
-155.689
-159.756
-163.468
-166.786
-169.599
-171.815
-173.395
-174.329
-174.648
-174.372
-173.492
-172.003
-169.914
-167.262
-164.093
-160.462
-156.427
-152.048
-147.393
-142.523
-137.486
-132.33
-127.092
-121.802
-116.484
-111.155
-105.823
-100.5
-95.203
-89.945
-84.738
-79.591
-74.51
-69.501
-64.569
-59.718
-54.956
-50.289
-45.725
-41.271
-36.936
-32.731
-28.665
-24.749
-20.987
-17.383
-13.942
-10.666
-7.559
-4.621
-1.853
0.746
3.175
5.433
7.522
9.44
11.191
12.776
14.197
15.458
16.56
17.506
18.301
18.948
19.451
19.814
20.041
20.136
20.103
19.948
19.676
19.291
18.8
18.208
17.521
16.745
15.886
14.95
13.943
12.872
11.743
10.563
9.338
8.075
6.781
5.461
4.123
2.773
1.416
0.059
-1.294
-2.635
-3.962
-5.268
-6.549
-7.8
-9.019
-10.202
-11.344
-12.443
-13.497
-14.502
-15.456
-16.358
-17.204
-17.994
-18.725
-19.395
-20.003
-20.548
-21.028
-21.442
-21.79
-22.069
-22.28
-22.421
-22.491
-22.49
-22.415
-22.266
-22.042
-21.74
-21.36
-20.901
-20.36
-19.736
-19.028
-18.235
-17.355
-16.385
-15.326
-14.175
-12.932
-11.596
-10.165
-8.641
-7.023
-5.312
-3.51
-1.618
0.361
2.426
4.572
6.796
9.094
11.462
13.895
16.387
18.933
21.526
24.159
26.824
29.515
32.223
34.94
37.658
40.369
43.063
45.733
48.369
50.964
53.508
55.992
58.409
60.751
63.009
65.176
67.247
69.214
71.073
72.821
74.452
75.965
77.357
78.627
79.776
80.804
81.713
82.504
83.181
83.749
84.213
84.58
84.857
85.051
85.172
85.229
85.233
85.193
85.121
85.028
84.926
84.827
84.744
84.689
84.676
84.717
84.825
85.013
85.293
85.677
86.175
86.799
87.557
88.458
89.511
90.722
92.096
93.639
95.354
97.244
99.309
101.547
103.958
106.537
109.278
112.173
115.211
118.38
121.668
125.06
128.539
132.09
135.694
139.333
142.991
146.651
150.293
153.899
157.447
160.913
164.277
167.517
170.613
173.545
176.294
178.842
181.179
183.294
185.178
186.813
188.177
189.248
190.014
190.467
190.604
190.431
189.955
189.197
188.198
186.998
185.636
184.148
182.552
180.874
179.146
177.416
175.75
174.202
172.81
171.602
170.6
169.81
169.225
168.789
168.401
167.976
167.428
166.686
165.695
164.36
162.587
160.303
157.402
153.777
149.377
144.214
138.441
132.4
126.458
120.978
116.406
113.19
111.701
112.137
114.194
117.095
120.037
122.39
123.624
123.277
120.898
116.136
110.516
107.388
109.809
120.844
140.373
164.607
192.822
225.597
266.491
324.83
404.273
504.388
621.552
743.043
857.388
953.137
1017.652
1043.923
1026.396
964.76
865.262
736.704
592.189
446.359
312.801
203.707
127.863
86.406
75.738
90.612
120.471
156.642
190.614
210.647
213.459
200.422
177.217
155.954
142.434
137.355
138.669
140.56
140.987
140.754
140.741
142.632
146.48
151.116
155.803
159.778
162.483
163.839
163.797
162.395
159.873
156.416
152.17
147.289
141.908
136.185
130.286
124.383
118.657
113.25
108.267
103.792
99.871
96.524
93.765
91.576
89.904
88.708
87.938
87.55
87.518
87.792
88.31
89.002
89.79
90.617
91.453
92.27
93.053
93.799
94.508
95.195
95.888
96.61
97.372
98.186
99.058
99.997
101.019
102.137
103.363
104.707
106.174
107.769
109.495
111.354
113.341
115.451
117.673
120
122.426
124.944
127.546
130.224
132.967
135.768
138.614
141.494
144.395
147.301
150.196
153.065
155.889
158.653
161.339
163.93
166.407
168.755
170.956
172.995
174.854
176.519
177.975
179.207
180.202
180.949
181.436
181.652
181.591
181.245
180.608
179.677
178.449
176.922
175.097
172.975
170.56
167.855
164.867
161.603
158.071
154.282
150.247
145.979
141.491
136.797
131.914
126.858
121.644
116.291
110.815
105.234
99.568
93.834
88.051
82.238
76.413
70.596
64.803
59.054
53.365
47.751
42.23
36.815
31.522
26.362
21.349
16.495
11.809
7.302
2.982
-1.143
-5.065
-8.781
-12.285
-15.573
-18.644
-21.495
-24.127
-26.539
-28.733
-30.711
-32.475
-34.031
-35.382
-36.536
-37.499
-38.279
-38.885
-39.326
-39.611
-39.752
-39.76
-39.645
-39.418
-39.093
-38.68
-38.192
-37.642
-37.041
-36.402
-35.736
-35.057
-34.375
-33.701
-33.047
-32.424
-31.84
-31.307
-30.833
-30.428
-30.1
-29.857
-29.708
-29.658
-29.715
-29.883
-30.167
-30.572
-31.1
-31.753
-32.534
-33.443
-34.481
-35.647
-36.94
-38.36
-39.903
-41.567
-43.348
-45.243
-47.248
-49.358
-51.568
-53.872
-56.266
-58.744
-61.3
-63.927
-66.62
-69.371
-72.173
-75.018
-77.898
-80.805
-83.729
-86.662
-89.593
-92.515
-95.417
-98.291
-101.127
-103.914
-106.644
-109.306
-111.892
-114.391
-116.792
-119.088
-121.267
-123.322
-125.244
-127.025
-128.655
-130.126
-131.433
-132.566
-133.521
-134.29
-134.868
-135.249
-135.431
-135.411
-135.187
-134.761
-134.135
-133.313
-132.302
-131.111
-129.747
-128.22
-126.539
-124.717
-122.767
-120.701
-118.534
-116.28
-113.953
-111.573
-109.163
-106.741
-104.325
-101.932
-99.578
-97.283
-95.068
-92.944
-90.928
-89.032
-87.27
-85.67
-84.257
-83.043
-82.038
-81.246
-80.659
-80.274
-80.08
-80.046
-80.148
-80.356
-80.645
-81.007
-81.421
-81.866
-82.318
-82.734
-83.091
-83.377
-83.56
-83.621
-83.57
-83.427
-83.287
-83.246
-83.301
-83.544
-84.157
-85.282
-87.155
-89.856
-93.183
-97.134
-101.895
-107.327
-113.112
-118.759
-123.379
-126.568
-128.554
-129.183
-128.08
-125.245
-120.871
-115.814
-111.744
-109.565
-109.176
-110.674
-114.282
-120.101
-128.203
-136.546
-140.97
-138.338
-126.283
-105.395
-79.58
-49.544
-14.648
28.154
86.997
164.658
260.338
370.739
484.178
590.018
678.258
737.692
761.012
742.132
679.07
575.057
439.808
290.397
144.662
21.408
-66.091
-116.239
-132.569
-125.64
-108.777
-89.822
-75.86
-70.408
-71.903
-78.575
-85.79
-89.007
-87.566
-82.743
-78.094
-76.486
-77.874
-80.656
-82.332
-81.575
-78.654
-74.294
-69.346
-64.32
-59.44
-55.08
-51.699
-49.534
-48.6
-48.768
-49.805
-51.516
-53.757
-56.359
-59.127
-61.899
-64.511
-66.787
-68.62
-69.932
-70.667
-70.811
-70.346
-69.255
-67.561
-65.32
-62.591
-59.44
-55.919
-52.065
-47.935
-43.593
-39.113
-34.573
-30.027
-25.509
-21.042
-16.642
-12.32
-8.086
-3.929
0.173
4.235
8.269
12.282
16.277
20.263
24.255
28.266
32.307
36.384
40.504
44.672
48.891
53.165
57.492
61.869
66.29
70.753
75.255
79.793
84.364
88.964
93.586
98.224
102.872
107.52
112.157
116.771
121.347
125.871
130.328
134.701
138.973
143.127
147.144
151.006
154.696
158.195
161.484
164.547
167.366
169.925
172.211
174.207
175.903
177.285
178.345
179.074
179.466
179.514
179.216
178.569
177.575
176.235
174.555
172.54
170.199
167.543
164.585
161.34
157.825
154.06
150.063
145.859
141.47
136.923
132.242
127.455
122.588
117.67
112.728
107.79
102.883
98.033
93.266
88.607
84.079
79.704
75.503
71.495
67.697
64.125
60.791
57.707
54.882
52.322
50.033
48.014
46.267
44.788
43.571
42.609
41.891
41.404
41.133
41.061
41.169
41.435
41.836
42.349
42.947
43.604
44.293
44.986
45.656
46.274
46.812
47.245
47.544
47.685
47.642
47.393
46.915
46.187
45.191
43.91
42.329
40.434
38.214
35.662
32.77
29.535
25.955
22.03
17.765
13.165
8.238
2.997
-2.547
-8.378
-14.477
-20.826
-27.404
-34.187
-41.152
-48.273
-55.526
-62.882
-70.315
-77.797
-85.301
-92.799
-100.263
-107.667
-114.985
-122.19
-129.258
-136.164
-142.887
-149.404
-155.695
-161.74
-167.522
-173.024
-178.232
-183.133
-187.716
-191.972
-195.894
-199.478
-202.721
-205.62
-208.177
-210.395
-212.277
-213.828
-215.055
-215.965
-216.568
-216.873
-216.892
-216.635
-216.117
-215.349
-214.345
-213.119
-211.685
-210.058
-208.25
-206.277
-204.153
-201.893
-199.512
-197.024
-194.443
-191.785
-189.065
-186.296
-183.492
-180.665
-177.829
-174.994
-172.172
-169.373
-166.607
-163.882
-161.209
-158.598
-156.061
-153.61
-151.253
-149.001
-146.864
-144.85
-142.968
-141.22
-139.607
-138.131
-136.795
-135.604
-134.561
-133.668
-132.925
-132.333
-131.893
-131.604
-131.463
-131.459
-131.579
-131.814
-132.162
-132.627
-133.221
-133.951
-134.817
-135.814
-136.937
-138.174
-139.507
-140.902
-142.308
-143.682
-144.983
-146.181
-147.251
-148.157
-148.856
-149.301
-149.438
-149.216
-148.607
-147.602
-146.208
-144.46
-142.4
-140.072
-137.577
-135.035
-132.57
-130.309
-128.347
-126.765
-125.693
-125.349
-125.864
-127.212
-129.229
-131.526
-133.706
-135.483
-136.463
-136.072
-133.99
-130.353
-125.65
-120.943
-117.414
-115.923
-117.426
-123.002
-132.236
-142.992
-152.925
-159.563
-162.743
-164.178
-162.633
-152.702
-125.447
-73.21
5.175
102.714
207.295
309.607
405.206
493.213
572.387
636.063
671.677
665.294
608.999
502.173
354.683
186.075
16.78
-132.349
-244.674
-314.104
-340.784
-330.485
-295.493
-247.65
-198.516
-160.93
-139.956
-134.98
-141.611
-149.037
-151.457
-149.21
-144.706
-143.926
-149.415
-159.244
-170.819
-181.061
-188.389
-192.658
-194.014
-192.943
-190.011
-186.086
-182.213
-178.951
-176.578
-175.321
-175.192
-176.188
-178.218
-180.866
-183.613
-186.107
-188.132
-189.594
-190.495
-190.806
-190.487
-189.569
-188.117
-186.193
-183.848
-181.098
-177.939
-174.383
-170.471
-166.26
-161.824
-157.236
-152.547
-147.79
-142.993
-138.174
-133.348
-128.526
-123.704
-118.869
-114.008
-109.119
-104.199
-99.247
-94.256
-89.212
-84.096
-78.895
-73.597
-68.196
-62.688
-57.067
-51.33
-45.479
-39.516
-33.45
-27.286
-21.03
-14.684
-8.255
-1.751
4.818
11.441
18.106
24.801
31.511
38.218
44.904
51.548
58.133
64.636
71.036
77.31
83.435
89.389
95.147
100.687
105.985
111.018
115.764
120.2
124.308
128.068
131.461
134.472
137.085
139.289
141.072
142.425
143.341
143.816
143.845
143.429
142.57
141.269
139.535
137.373
134.796
131.814
128.443
124.699
120.6
116.166
111.417
106.378
101.071
95.521
89.754
83.796
77.673
71.413
65.042
58.587
52.075
45.53
38.978
32.443
25.949
19.516
13.167
6.92
0.795
-5.191
-11.023
-16.687
-22.168
-27.457
-32.543
-37.417
-42.073
-46.505
-50.708
-54.68
-58.418
-61.922
-65.193
-68.233
-71.044
-73.629
-75.994
-78.144
-80.083
-81.818
-83.355
-84.702
-85.863
-86.847
-87.658
-88.304
-88.791
-89.125
-89.311
-89.356
-89.264
-89.042
-88.693
-88.224
-87.638
-86.94
-86.134
-85.224
-84.214
-83.109
-81.913
-80.629
-79.262
-77.817
-76.297
-74.707
-73.052
-71.335
-69.561
-67.736
-65.865
-63.953
-62.006
-60.03
-58.033
-56.021
-54.002
-51.984
-49.974
-47.98
-46.012
-44.076
-42.182
-40.338
-38.552
-36.832
-35.185
-33.618
-32.139
-30.753
-29.465
-28.28
-27.2
-26.229
-25.369
-24.621
-23.984
-23.457
-23.038
-22.724
-22.511
-22.394
-22.365
-22.417
-22.54
-22.727
-22.966
-23.244
-23.551
-23.872
-24.194
-24.502
-24.781
-25.016
-25.191
-25.29
-25.298
-25.199
-24.978
-24.621
-24.115
-23.446
-22.604
-21.578
-20.361
-18.943
-17.319
-15.484
-13.436
-11.172
-8.695
-6.007
-3.113
-0.022
3.255
6.704
10.313
14.066
17.944
21.93
26.004
30.15
34.348
38.578
42.818
47.041
51.221
55.336
59.359
63.269
67.041
70.651
74.079
77.314
80.342
83.147
85.708
87.99
89.968
91.627
92.957
93.952
94.611
94.937
94.944
94.674
94.162
93.445
92.55
91.49
90.285
88.98
87.632
86.307
85.065
83.938
82.95
82.127
81.481
80.995
80.623
80.281
79.878
79.336
78.583
77.536
76.101
74.197
71.701
68.46
64.405
59.561
54.096
48.353
42.707
37.471
33.025
29.834
28.213
28.26
29.61
31.377
32.597
32.571
30.88
27.128
21.019
12.659
3.057
-4.984
-7.579
-1.597
14.79
40.682
73.876
114.058
162.107
221.836
297.197
388.214
492.381
602.778
710.081
804.318
874.516
909.939
901.169
844.744
743.376
606.995
452.482
297.705
160.608
55.145
-11.405
-39.244
-36.921
-15.002
14.192
40.852
61.865
74.438
80.106
83.609
86.79
92.085
99.011
103.524
103.83
99.71
92.884
86.697
82.58
80.545
80.284
81.185
83.24
86.285
89.364
91.644
92.672
92.313
90.792
88.271
84.645
79.997
74.729
69.206
63.766
58.66
53.907
49.543
45.681
42.358
39.569
37.313
35.535
34.179
33.242
32.697
32.512
32.664
33.095
33.742
34.547
35.439
36.37
37.314
38.25
39.167
40.06
40.927
41.78
42.644
43.535
44.466
45.445
46.479
47.58
48.768
50.061
51.471
53.012
54.688
56.506
58.474
60.594
62.864
65.282
67.84
70.533
73.358
76.31
79.385
82.574
85.87
89.263
92.743
96.299
99.916
103.58
107.272
110.976
114.673
118.345
121.97
125.53
129.002
132.365
135.6
138.685
141.599
144.32
146.83
149.109
151.139
152.903
154.385
155.571
156.448
157.004
157.231
157.12
156.665
155.861
154.707
153.201
151.345
149.141
146.595
143.715
140.508
136.986
133.163
129.053
124.671
120.035
115.163
110.077
104.796
99.343
93.74
88.01
82.177
76.264
70.295
64.294
58.283
52.286
46.323
40.417
34.588
28.854
23.234
17.744
12.402
7.22
2.213
-2.609
-7.235
-11.656
-15.867
-19.86
-23.633
-27.181
-30.505
-33.605
-36.481
-39.136
-41.575
-43.802
-45.824
-47.649
-49.284
-50.738
-52.022
-53.145
-54.12
-54.956
-55.666
-56.26
-56.752
-57.152
-57.472
-57.724
-57.92
-58.069
-58.184
-58.273
-58.347
-58.414
-58.484
-58.563
-58.66
-58.78
-58.931
-59.118
-59.345
-59.619
-59.941
-60.317
-60.749
-61.239
-61.789
-62.4
-63.073
-63.808
-64.605
-65.464
-66.383
-67.362
-68.4
-69.494
-70.643
-71.845
-73.097
-74.397
-75.741
-77.128
-78.554
-80.017
-81.512
-83.038
-84.592
-86.169
-87.768
-89.384
-91.013
-92.652
-94.297
-95.943
-97.585
-99.219
-100.84
-102.443
-104.022
-105.573
-107.091
-108.568
-110.001
-111.382
-112.705
-113.964
-115.153
-116.263
-117.288
-118.222
-119.058
-119.79
-120.412
-120.917
-121.298
-121.552
-121.672
-121.652
-121.489
-121.177
-120.712
-120.092
-119.314
-118.378
-117.282
-116.026
-114.612
-113.042
-111.32
-109.449
-107.433
-105.279
-102.994
-100.585
-98.063
-95.437
-92.718
-89.921
-87.062
-84.158
-81.227
-78.286
-75.355
-72.452
-69.597
-66.81
-64.105
-61.499
-59.007
-56.647
-54.437
-52.396
-50.538
-48.88
-47.434
-46.216
-45.237
-44.505
-44.018
-43.779
-43.789
-44.058
-44.599
-45.423
-46.531
-47.921
-49.59
-51.524
-53.704
-56.095
-58.647
-61.311
-64.046
-66.82
-69.607
-72.371
-75.067
-77.644
-80.048
-82.24
-84.189
-85.855
-87.215
-88.286
-89.114
-89.782
-90.382
-90.969
-91.599
-92.34
-93.262
-94.447
-95.971
-97.879
-100.252
-103.231
-106.86
-111.091
-115.734
-120.349
-124.481
-127.744
-129.633
-129.589
-127.415
-123.183
-117.257
-110.746
-104.772
-100.151
-98.145
-99.165
-101.951
-105.214
-107.194
-107.553
-108.782
-110.799
-110.466
-99.645
-66.56
-6.945
76.959
175.789
275.696
371.344
461.334
544.428
618.403
672.629
692.848
669.229
598.744
485.584
342.715
187.758
37.824
-88.365
-178.113
-229.71
-246.921
-239.841
-219.803
-192.759
-164.12
-139.948
-124.493
-120.953
-128.222
-139.74
-149.437
-154.366
-154.943
-154.573
-155.448
-157.283
-158.807
-158.221
-154.975
-149.667
-142.917
-135.769
-129.024
-123.079
-118.305
-114.786
-112.37
-111.001
-110.641
-111.05
-112.023
-113.376
-114.871
-116.395
-117.842
-119.031
-119.833
-120.179
-120.013
-119.329
-118.134
-116.414
-114.191
-111.514
-108.424
-104.976
-101.214
-97.17
-92.9
-88.465
-83.934
-79.382
-74.862
-70.405
-66.039
-61.777
-57.625
-53.582
-49.634
-45.755
-41.929
-38.143
-34.384
-30.647
-26.916
-23.178
-19.42
-15.627
-11.79
-7.901
-3.953
0.06
4.14
8.286
12.495
16.762
21.084
25.456
29.876
34.339
38.84
43.372
47.93
52.505
57.088
61.667
66.229
70.761
75.247
79.672
84.019
88.271
92.409
96.416
100.273
103.963
107.467
110.768
113.847
116.69
119.278
121.599
123.636
125.378
126.812
127.929
128.719
129.175
129.293
129.066
128.493
127.573
126.308
124.699
122.751
120.47
117.864
114.944
111.719
108.206
104.417
100.371
96.085
91.579
86.872
81.988
76.947
71.773
66.489
61.118
55.686
50.215
44.729
39.252
33.807
28.416
23.1
17.88
12.775
7.804
2.983
-1.67
-6.143
-10.422
-14.496
-18.354
-21.989
-25.393
-28.562
-31.493
-34.183
-36.633
-38.846
-40.823
-42.571
-44.096
-45.406
-46.511
-47.421
-48.147
-48.704
-49.105
-49.364
-49.497
-49.521
-49.451
-49.304
-49.097
-48.847
-48.57
-48.284
-48.003
-47.744
-47.522
-47.351
-47.244
-47.215
-47.276
-47.437
-47.709
-48.1
-48.618
-49.27
-50.06
-50.994
-52.073
-53.299
-54.674
-56.195
-57.86
-59.667
-61.611
-63.687
-65.888
-68.206
-70.633
-73.161
-75.778
-78.476
-81.243
-84.068
-86.94
-89.847
-92.778
-95.721
-98.665
-101.597
-104.508
-107.386
-110.222
-113.005
-115.727
-118.378
-120.95
-123.437
-125.832
-128.129
-130.322
-132.407
-134.381
-136.24
-137.983
-139.608
-141.114
-142.501
-143.771
-144.924
-145.962
-146.888
-147.705
-148.415
-149.022
-149.528
-149.938
-150.254
-150.479
-150.616
-150.668
-150.637
-150.527
-150.339
-150.075
-149.736
-149.325
-148.841
-148.285
-147.656
-146.954
-146.179
-145.329
-144.405
-143.404
-142.324
-141.165
-139.925
-138.602
-137.195
-135.702
-134.122
-132.454
-130.697
-128.852
-126.92
-124.902
-122.802
-120.625
-118.379
-116.071
-113.709
-111.304
-108.866
-106.404
-103.931
-101.456
-98.989
-96.541
-94.122
-91.749
-89.436
-87.198
-85.049
-83.005
-81.081
-79.295
-77.661
-76.184
-74.872
-73.736
-72.789
-72.056
-71.554
-71.291
-71.276
-71.513
-72
-72.726
-73.666
-74.773
-76.002
-77.309
-78.658
-80.03
-81.395
-82.71
-83.928
-84.993
-85.867
-86.539
-86.992
-87.197
-87.168
-86.952
-86.643
-86.395
-86.318
-86.485
-86.977
-87.864
-89.231
-91.18
-93.779
-97.05
-101.047
-105.847
-111.443
-117.799
-124.712
-131.726
-138.371
-144.182
-148.602
-151.08
-151.34
-149.219
-144.825
-138.99
-132.633
-126.48
-121.745
-118.797
-116.23
-112.993
-107.875
-100.545
-94.093
-90.085
-85.865
-75.623
-49.229
1.889
78.467
176.558
288.096
402.72
512.946
609.101
679.144
712.782
701.014
642.774
545.271
419.357
279.147
138.25
9.255
-96.402
-171.353
-213.508
-227.172
-220.467
-201.173
-176.672
-152.632
-132.274
-119.675
-116.015
-118.512
-125.768
-135.321
-145.943
-159.841
-176.991
-196.016
-215.209
-231.502
-242.98
-249.315
-250.729
-248.111
-242.721
-235.834
-228.644
-222.056
-216.673
-212.779
-210.445
-209.623
-210.076
-211.427
-213.267
-215.323
-217.465
-219.616
-221.71
-223.627
-225.223
-226.423
-227.213
-227.564
-227.438
-226.791
-225.582
-223.82
-221.552
-218.817
-215.655
-212.092
-208.145
-203.85
-199.259
-194.429
-189.425
-184.295
-179.066
-173.76
-168.393
-162.971
-157.494
-151.946
-146.301
-140.537
-134.638
-128.59
-122.387
-116.018
-109.472
-102.739
-95.809
-88.675
-81.335
-73.788
-66.036
-58.083
-49.938
-41.612
-33.121
-24.484
-15.715
-6.832
2.147
11.202
20.313
29.457
38.612
47.754
56.856
65.891
74.831
83.648
92.311
100.792
109.062
117.091
124.852
132.316
139.458
146.252
152.676
158.707
164.326
169.517
174.265
178.558
182.386
185.744
188.626
191.033
192.966
194.43
195.432
195.982
196.093
195.781
195.062
193.957
192.486
190.673
188.544
186.125
183.444
180.53
177.413
174.123
170.692
167.151
163.531
159.862
156.175
152.499
148.863
145.293
141.815
138.453
135.229
132.163
129.273
126.576
124.086
121.813
119.768
117.957
116.386
115.056
113.969
113.121
112.51
112.13
111.973
112.031
112.293
112.749
113.384
114.187
115.141
116.233
117.447
118.767
120.176
121.659
123.2
124.782
126.391
128.012
129.63
131.231
132.804
134.336
135.816
137.235
138.583
139.852
141.037
142.131
143.131
144.034
144.838
145.543
146.148
146.656
147.068
147.387
147.618
147.764
147.83
147.822
147.745
147.604
147.407
147.158
146.863
146.53
146.163
145.768
145.352
144.919
144.474
144.023
143.57
143.119
142.676
142.243
141.824
141.422
141.04
140.68
140.344
140.033
139.749
139.491
139.262
139.06
138.885
138.738
138.616
138.521
138.45
138.403
138.38
138.38
138.403
138.448
138.516
138.608
138.723
138.863
139.028
139.22
139.44
139.689
139.969
140.282
140.63
141.014
141.438
141.904
142.414
142.972
143.581
144.244
144.965
145.747
146.595
147.512
148.502
149.57
150.721
151.958
153.285
154.708
156.231
157.856
159.587
161.427
163.378
165.443
167.624
169.921
172.335
174.867
177.517
180.284
183.166
186.162
189.27
192.485
195.803
199.22
202.726
206.314
209.975
213.699
217.475
221.29
225.134
228.994
232.86
236.723
240.569
244.387
248.163
251.882
255.531
259.095
262.563
265.922
269.16
272.267
275.242
278.082
280.782
283.333
285.717
287.919
289.931
291.748
293.371
294.808
296.069
297.179
298.179
299.112
300.017
300.929
301.866
302.853
303.92
305.113
306.496
308.121
310.026
312.241
314.781
317.641
320.798
324.181
327.673
331.177
334.592
337.825
340.802
343.418
345.574
347.185
348.114
348.188
347.286
345.383
342.629
339.359
335.933
332.697
330.121
328.776
329.161
331.445
335.194
339.549
343.638
346.683
347.913
346.423
341.457
333.763
325.926
320.853
320.943
326.017
334.262
346.716
367.488
403.493
461.102
540.891
638.095
744.588
852.893
957.547
1052.419
1130.344
1179.925
1188.549
1149.971
1062.741
935.556
786.058
631.149
491.91
384.679
315.402
286.94
287.483
298.138
303.402
285.445
239.298
170.589
86.46
1.546
-73.158
-131.378
-168.963
-189.431
-199.009
-205.661
-215.814
-230.519
-248.023
-263.952
-275.212
-281.862
-284.836
-285.863
-286.101
-285.627
-284.534
-283.016
-281.317
-279.67
-278.3
-277.442
-277.246
-277.811
-279.127
-281.012
-283.286
-285.838
-288.518
-291.159
-293.608
-295.67
-297.176
-298.003
-298.017
-297.121
-295.271
-292.452
-288.684
-284.022
-278.53
-272.294
-265.422
-258.012
-250.159
-241.955
-233.477
-224.811
-216.048
-207.276
-198.581
-190.028
-181.661
-173.514
-165.606
-157.948
-150.542
-143.383
-136.45
-129.732
-123.22
-116.909
-110.796
-104.874
-99.135
-93.566
-88.158
-82.902
-77.792
-72.821
-67.985
-63.277
-58.696
-54.242
-49.915
-45.715
-41.638
-37.682
-33.845
-30.123
-26.516
-23.023
-19.643
-16.378
-13.23
-10.202
-7.299
-4.526
-1.888
0.61
2.961
5.16
7.201
9.077
10.783
12.313
13.663
14.826
15.8
16.58
17.163
17.547
17.729
17.709
17.485
17.058
16.429
15.599
14.57
13.345
11.929
10.325
8.539
6.577
4.447
2.155
-0.289
-2.875
-5.595
-8.436
-11.388
-14.439
-17.576
-20.789
-24.063
-27.386
-30.745
-34.128
-37.522
-40.915
-44.294
-47.648
-50.965
-54.234
-57.444
-60.585
-63.646
-66.618
-69.491
-72.255
-74.902
-77.424
-79.811
-82.057
-84.154
-86.095
-87.875
-89.488
-90.929
-92.193
-93.277
-94.178
-94.891
-95.417
-95.752
-95.898
-95.852
-95.617
-95.193
-94.583
-93.787
-92.809
-91.651
-90.319
-88.814
-87.142
-85.308
-83.317
-81.175
-78.889
-76.466
-73.914
-71.241
-68.456
-65.569
-62.589
-59.526
-56.392
-53.196
-49.949
-46.664
-43.352
-40.024
-36.691
-33.367
-30.06
-26.785
-23.55
-20.368
-17.248
-14.202
-11.238
-8.368
-5.6
-2.944
-0.408
2
4.271
6.399
8.377
10.199
11.861
13.357
14.685
15.842
16.826
17.637
18.275
18.74
19.035
19.162
19.125
18.927
18.575
18.074
17.43
16.65
15.742
14.715
13.576
12.335
11.002
9.587
8.1
6.554
4.959
3.327
1.669
-0.002
-1.674
-3.334
-4.97
-6.57
-8.122
-9.614
-11.032
-12.367
-13.607
-14.743
-15.764
-16.662
-17.428
-18.054
-18.533
-18.861
-19.03
-19.035
-18.874
-18.541
-18.036
-17.358
-16.506
-15.48
-14.282
-12.915
-11.385
-9.697
-7.856
-5.871
-3.748
-1.498
0.867
3.337
5.898
8.537
11.238
13.982
16.75
19.522
22.278
25
27.665
30.255
32.749
35.133
37.392
39.509
41.466
43.244
44.827
46.201
47.355
48.273
48.945
49.357
49.508
49.4
49.031
48.399
47.489
46.286
44.779
42.969
40.858
38.45
35.752
32.776
29.551
26.126
22.546
18.848
15.059
11.201
7.313
3.453
-0.314
-3.926
-7.336
-10.516
-13.433
-16.057
-18.385
-20.438
-22.265
-23.951
-25.57
-27.187
-28.888
-30.76
-32.887
-35.404
-38.465
-42.165
-46.529
-51.447
-56.648
-61.805
-66.611
-70.708
-73.684
-75.21
-75.156
-73.859
-72.15
-71.061
-71.489
-74.005
-79.127
-87.366
-98.811
-112.56
-125.912
-134.837
-135.774
-126.623
-108.143
-82.238
-49.21
-8.186
45.211
115.394
202.971
306.264
417.912
527.1
622.174
690.385
720.451
704.196
639.995
531.849
390.903
235.339
82.779
-48.269
-143.917
-202.147
-227.253
-231.581
-229.863
-228.47
-228.649
-226.871
-218.009
-202.815
-185.032
-168.547
-156.963
-150.856
-149.371
-152.276
-158.584
-166.859
-175.597
-183.13
-188.671
-192.364
-194.301
-194.29
-192.4
-188.991
-184.865
-181.16
-178.496
-176.976
-176.64
-177.519
-179.618
-182.918
-187.142
-191.779
-196.451
-200.913
-205.016
-208.731
-212.008
-214.788
-217.059
-218.859
-220.236
-221.251
-221.945
-222.323
-222.401
-222.199
-221.761
-221.15
-220.435
-219.684
-218.942
-218.231
-217.57
-216.968
-216.43
-215.957
-215.532
-215.124
-214.711
-214.28
-213.817
-213.316
-212.757
-212.115
-211.368
-210.496
-209.488
-208.334
-207.023
-205.548
-203.903
-202.089
-200.109
-197.97
-195.676
-193.23
-190.639
-187.908
-185.046
-182.063
-178.972
-175.784
-172.513
-169.176
-165.79
-162.377
-158.955
-155.547
-152.175
-148.861
-145.629
-142.504
-139.51
-136.67
-134.009
-131.55
-129.319
-127.337
-125.625
-124.205
-123.096
-122.316
-121.882
-121.809
-122.109
-122.795
-123.876
-125.359
-127.25
-129.554
-132.272
-135.403
-138.946
-142.897
-147.249
-151.996
-157.126
-162.628
-168.488
-174.691
-181.221
-188.06
-195.189
-202.588
-210.236
-218.111
-226.193
-234.457
-242.883
-251.445
-260.123
-268.892
-277.732
-286.62
-295.534
-304.455
-313.362
-322.237
-331.061
-339.818
-348.491
-357.066
-365.528
-373.864
-382.063
-390.115
-398.01
-405.74
-413.297
-420.676
-427.872
-434.882
-441.702
-448.33
-454.765
-461.007
-467.055
-472.912
-478.577
-484.052
-489.341
-494.445
-499.367
-504.11
-508.677
-513.071
-517.296
-521.354
-525.248
-528.982
-532.559
-535.981
-539.251
-542.372
-545.346
-548.176
-550.863
-553.411
-555.82
-558.092
-560.23
-562.234
-564.106
-565.847
-567.459
-568.943
-570.3
-571.532
-572.641
-573.628
-574.496
-575.246
-575.881
-576.403
-576.816
-577.121
-577.323
-577.424
-577.428
-577.338
-577.158
-576.89
-576.539
-576.106
-575.596
-575.01
-574.352
-573.623
-572.826
-571.962
-571.032
-570.038
-568.978
-567.854
-566.664
-565.408
-564.083
-562.686
-561.215
-559.666
-558.035
-556.317
-554.505
-552.595
-550.579
-548.448
-546.196
-543.813
-541.291
-538.619
-535.788
-532.79
-529.616
-526.255
-522.699
-518.941
-514.971
-510.783
-506.369
-501.725
-496.843
-491.72
-486.351
-480.735
-474.871
-468.758
-462.398
-455.792
-448.945
-441.861
-434.548
-427.011
-419.261
-411.306
-403.158
-394.832
-386.341
-377.701
-368.929
-360.045
-351.068
-342.02
-332.923
-323.797
-314.667
-305.553
-296.481
-287.473
-278.553
-269.745
-261.07
-252.557
-244.229
-236.113
-228.232
-220.607
-213.261
-206.215
-199.486
-193.09
-187.035
-181.333
-175.995
-171.029
-166.445
-162.245
-158.432
-155.004
-151.962
-149.301
-147.013
-145.083
-143.492
-142.223
-141.268
-140.618
-140.271
-140.218
-140.439
-140.915
-141.628
-142.55
-143.649
-144.876
-146.163
-147.451
-148.692
-149.836
-150.841
-151.649
-152.186
-152.39
-152.194
-151.541
-150.394
-148.72
-146.493
-143.72
-140.415
-136.622
-132.438
-127.954
-123.281
-118.535
-113.783
-109.143
-104.787
-100.825
-97.322
-94.206
-91.185
-87.97
-84.364
-80.093
-74.831
-68.328
-60.389
-51.297
-41.948
-33.219
-25.751
-20.102
-16.786
-16.24
-18.722
-22.689
-24.648
-21.449
-11.094
5.613
26.236
51.093
84.422
133.098
202.187
291.364
393.6
498.268
598.271
689.235
768.492
833.372
875.71
885.236
854.817
782.698
673.054
537.17
391.104
250.174
131.68
49.143
4.969
-2.858
17.444
52.341
94.101
135.485
168.527
192.424
206.392
212.211
217.109
223.224
230.489
237.721
240.192
236.694
229.079
219.386
210.969
205.922
204.391
206.381
211.615
219.442
229.268
240.322
251.507
262.018
271.538
279.9
287.148
293.514
299.198
304.516
309.97
315.882
322.398
329.594
337.409
345.777
354.701
364.14
374.008
384.253
394.821
405.673
416.808
428.19
439.754
451.424
463.105
474.721
486.226
497.577
508.742
519.695
530.407
540.864
551.065
561.007
570.684
580.089
589.213
598.054
606.62
614.921
622.97
630.777
638.347
645.684
652.794
659.68
666.344
672.785
679
684.987
690.748
696.283
701.594
706.681
711.542
716.175
720.579
724.751
728.685
732.376
735.817
738.999
741.914
744.552
746.904
748.959
750.704
752.128
753.22
753.966
754.356
754.378
754.02
753.271
752.124
750.57
748.601
746.212
743.399
740.159
736.493
732.4
727.883
722.947
717.595
711.837
705.68
699.134
692.212
684.926
677.291
669.323
661.042
652.465
643.613
634.507
625.17
615.626
605.898
596.011
585.989
575.857
565.641
555.366
545.055
534.733
524.424
514.148
503.929
493.785
483.736
473.8
463.994
454.331
444.827
435.493
426.342
417.383
408.624
400.074
391.739
383.624
375.734
368.07
360.636
353.432
346.458
339.712
333.194
326.899
320.824
314.964
309.315
303.869
298.621
293.564
288.69
283.992
279.462
275.092
270.874
266.8
262.862
259.053
255.365
251.791
248.322
244.953
241.676
238.485
235.372
232.333
229.361
226.449
223.593
220.786
218.024
215.302
212.615
209.959
207.33
204.724
202.139
199.571
197.018
194.48
191.955
189.442
186.941
184.452
181.977
179.516
177.072
174.646
172.241
169.86
167.505
165.18
162.888
160.633
158.418
156.247
154.125
152.053
150.037
148.079
146.182
144.351
142.588
140.894
139.273
137.726
136.253
134.856
133.536
132.29
131.118
130.019
128.988
128.023
127.12
126.274
125.478
124.727
124.013
123.328
122.666
122.016
121.37
120.718
120.051
119.36
118.635
117.866
117.044
116.16
115.206
114.175
113.058
111.851
110.547
109.142
107.633
106.018
104.294
102.462
100.522
98.475
96.324
94.074
91.73
89.298
86.784
84.199
81.55
78.85
76.107
73.334
70.543
67.745
64.954
62.183
59.444
56.75
54.113
51.543
49.053
46.652
44.347
42.146
40.054
38.074
36.208
34.455
32.814
31.28
29.847
28.508
27.254
26.077
24.965
23.906
22.888
21.898
20.92
19.938
18.935
17.892
16.79
15.611
14.336
12.946
11.424
9.759
7.942
5.961
3.804
1.45
-1.113
-3.889
-6.881
-10.087
-13.503
-17.117
-20.904
-24.818
-28.819
-32.866
-36.929
-40.994
-45.036
-49.02
-52.904
-56.63
-60.161
-63.48
-66.566
-69.389
-71.924
-74.173
-76.199
-78.113
-80.009
-81.939
-83.914
-85.93
-88.022
-90.246
-92.649
-95.27
-98.111
-101.189
-104.608
-108.434
-112.639
-117.014
-121.07
-124.236
-126.029
-125.958
-123.529
-118.46
-110.605
-100.364
-88.939
-77.632
-67.852
-60.444
-54.931
-50.627
-46.771
-43.744
-44.299
-49.836
-58.209
-62.363
-49.316
-8.22
63.547
160.739
270.652
381.038
486.987
586.854
677.743
752.985
798.945
801.11
753.54
658.023
525.034
371.876
215.273
71.597
-45.305
-127.298
-173.311
-188.175
-179.233
-156.564
-127.147
-97.209
-75.563
-65.354
-67.541
-79.22
-91.442
-100.129
-104.724
-106.855
-111.3
-118.986
-128.209
-137.657
-145.364
-150.798
-154.608
-156.836
-157.945
-158.917
-160.357
-162.66
-166.001
-170.159
-174.946
-180.454
-186.588
-192.974
-199.289
-205.211
-210.481
-215.058
-218.894
-221.874
-223.96
-225.157
-225.462
-224.925
-223.6
-221.502
-218.672
-215.156
-210.994
-206.254
-201.013
-195.349
-189.355
-183.103
-176.644
-170.023
-163.278
-156.437
-149.532
-142.578
-135.579
-128.541
-121.479
-114.407
-107.346
-100.306
-93.293
-86.311
-79.366
-72.467
-65.626
-58.854
-52.161
-45.558
-39.057
-32.675
-26.428
-20.329
-14.386
-8.608
-3.001
2.426
7.666
12.715
17.567
22.219
26.665
30.899
34.915
38.706
42.269
45.598
48.687
51.531
54.125
56.465
58.544
60.36
61.906
63.179
64.173
64.885
65.31
65.447
65.291
64.84
64.093
63.05
61.708
60.07
58.136
55.906
53.384
50.571
47.472
44.09
40.431
36.501
32.308
27.859
23.165
18.237
13.088
7.729
2.176
-3.556
-9.451
-15.492
-21.661
-27.94
-34.308
-40.747
-47.236
-53.753
-60.277
-66.787
-73.261
-79.678
-86.017
-92.257
-98.378
-104.359
-110.182
-115.828
-121.278
-126.516
-131.526
-136.293
-140.803
-145.043
-149.004
-152.675
-156.05
-159.122
-161.888
-164.346
-166.495
-168.337
-169.876
-171.115
-172.063
-172.727
-173.119
-173.25
-173.134
-172.786
-172.222
-171.461
-170.522
-169.423
-168.186
-166.832
-165.383
-163.86
-162.287
-160.684
-159.076
-157.482
-155.926
-154.427
-153.005
-151.68
-150.468
-149.386
-148.448
-147.667
-147.054
-146.618
-146.368
-146.307
-146.44
-146.768
-147.29
-148.004
-148.905
-149.987
-151.239
-152.652
-154.213
-155.908
-157.72
-159.632
-161.626
-163.681
-165.778
-167.894
-170.007
-172.096
-174.137
-176.108
-177.987
-179.752
-181.381
-182.855
-184.154
-185.261
-186.159
-186.834
-187.273
-187.465
-187.401
-187.075
-186.48
-185.615
-184.479
-183.073
-181.401
-179.471
-177.289
-174.866
-172.216
-169.352
-166.291
-163.052
-159.654
-156.117
-152.465
-148.72
-144.905
-141.047
-137.167
-133.293
-129.447
-125.654
-121.939
-118.323
-114.829
-111.477
-108.286
-105.274
-102.457
-99.849
-97.462
-95.306
-93.39
-91.719
-90.296
-89.124
-88.201
-87.525
-87.09
-86.889
-86.912
-87.149
-87.586
-88.208
-88.998
-89.939
-91.012
-92.197
-93.473
-94.82
-96.215
-97.638
-99.068
-100.482
-101.861
-103.185
-104.436
-105.596
-106.65
-107.583
-108.383
-109.038
-109.541
-109.884
-110.063
-110.077
-109.928
-109.62
-109.16
-108.557
-107.822
-106.968
-106.009
-104.962
-103.841
-102.662
-101.445
-100.209
-98.976
-97.771
-96.618
-95.539
-94.557
-93.694
-92.974
-92.415
-92.033
-91.838
-91.845
-92.074
-92.551
-93.302
-94.34
-95.671
-97.3
-99.22
-101.423
-103.888
-106.574
-109.44
-112.446
-115.558
-118.757
-122.022
-125.311
-128.57
-131.724
-134.707
-137.487
-140.039
-142.337
-144.379
-146.177
-147.783
-149.298
-150.804
-152.362
-154.027
-155.842
-157.88
-160.248
-163.034
-166.368
-170.412
-175.209
-180.7
-186.698
-192.801
-198.58
-203.647
-207.477
-209.502
-209.41
-207.174
-203.283
-198.72
-194.434
-191.163
-189.572
-190.252
-193.494
-199.033
-205.456
-210.366
-211.18
-205.263
-190.155
-163.594
-123.282
-68.402
-0.729
76.856
160.659
248.354
339.883
433.52
525.243
606.184
664.461
690.912
678.676
628.802
546.859
437.49
311.44
178.971
52.422
-50.002
-119.944
-156.262
-165.661
-164.663
-162.842
-162.945
-163.724
-159.254
-148.76
-135.877
-123.762
-115.794
-113.002
-114.461
-119.675
-127.629
-136.534
-144.52
-150.319
-153.459
-154.062
-152.414
-148.526
-142.569
-135.335
-127.997
-121.405
-115.952
-111.704
-108.569
-106.636
-105.976
-106.371
-107.401
-108.704
-110.042
-111.286
-112.374
-113.156
-113.476
-113.27
-112.534
-111.296
-109.583
-107.404
-104.759
-101.685
-98.232
-94.453
-90.406
-86.136
-81.697
-77.156
-72.579
-68.037
-63.584
-59.253
-55.071
-51.052
-47.2
-43.514
-39.984
-36.59
-33.317
-30.151
-27.077
-24.084
-21.156
-18.277
-15.433
-12.607
-9.784
-6.954
-4.105
-1.23
1.678
4.623
7.608
10.632
13.696
16.8
19.944
23.128
26.351
29.609
32.898
36.214
39.549
42.893
46.237
49.567
52.869
56.128
59.328
62.45
65.477
68.389
71.169
73.795
76.248
78.509
80.557
82.374
83.941
85.24
86.255
86.97
87.371
87.446
87.182
86.572
85.607
84.281
82.591
80.534
78.11
75.322
72.173
68.67
64.82
60.633
56.124
51.305
46.195
40.811
35.174
29.305
23.228
16.967
10.548
3.996
-2.661
-9.396
-16.18
-22.985
-29.784
-36.549
-43.252
-49.866
-56.366
-62.726
-68.923
-74.934
-80.738
-86.315
-91.646
-96.714
-101.504
-106.003
-110.197
-114.077
-117.634
-120.861
-123.754
-126.31
-128.528
-130.407
-131.951
-133.162
-134.046
-134.609
-134.86
-134.808
-134.463
-133.837
-132.941
-131.79
-130.396
-128.774
-126.94
-124.907
-122.69
-120.306
-117.769
-115.094
-112.296
-109.388
-106.386
-103.303
-100.152
-96.947
-93.699
-90.42
-87.122
-83.815
-80.509
-77.213
-73.936
-70.686
-67.47
-64.295
-61.167
-58.093
-55.077
-52.124
-49.238
-46.424
-43.684
-41.02
-38.437
-35.935
-33.518
-31.187
-28.943
-26.788
-24.724
-22.752
-20.873
-19.088
-17.398
-15.804
-14.306
-12.906
-11.603
-10.398
-9.292
-8.284
-7.375
-6.565
-5.853
-5.239
-4.723
-4.303
-3.978
-3.747
-3.608
-3.559
-3.598
-3.722
-3.93
-4.218
-4.584
-5.025
-5.536
-6.114
-6.755
-7.455
-8.21
-9.014
-9.864
-10.755
-11.681
-12.637
-13.619
-14.622
-15.639
-16.665
-17.694
-18.72
-19.738
-20.741
-21.724
-22.681
-23.606
-24.493
-25.338
-26.135
-26.878
-27.563
-28.184
-28.736
-29.213
-29.61
-29.921
-30.141
-30.264
-30.286
-30.201
-30.006
-29.694
-29.261
-28.702
-28.013
-27.189
-26.225
-25.118
-23.863
-22.458
-20.902
-19.191
-17.325
-15.304
-13.127
-10.795
-8.311
-5.676
-2.893
0.036
3.104
6.308
9.639
13.092
16.655
20.32
24.071
27.894
31.773
35.692
39.633
43.578
47.509
51.406
55.253
59.034
62.73
66.323
69.79
73.111
76.266
79.236
82.004
84.552
86.862
88.921
90.725
92.269
93.544
94.536
95.218
95.57
95.585
95.257
94.585
93.573
92.232
90.585
88.683
86.574
84.304
81.911
79.415
76.846
74.252
71.695
69.246
66.968
64.896
63.057
61.483
60.18
59.127
58.26
57.478
56.672
55.747
54.62
53.211
51.439
49.232
46.478
43.011
38.727
33.639
27.863
21.65
15.316
9.145
3.549
-0.837
-3.487
-4.193
-3.116
-0.809
1.902
4.265
5.617
4.84
1.584
-2.905
-7.039
-8.682
-6.805
-3.649
-0.533
4.727
17.469
47.643
103.879
187.244
294.266
416.669
543.156
666.525
778.369
867.604
926.433
944.976
917.122
846.223
736.596
598.653
448.135
298.7
167.322
67.565
3.568
-25.749
-29.984
-20.751
-6.011
7.589
18.189
24.762
26.529
25.803
23.845
22.328
21.94
20.32
16.427
10.272
2.897
-3.065
-6.356
-7.129
-5.942
-3.801
-1.41
0.893
2.629
3.286
2.614
0.612
-2.556
-6.631
-11.388
-16.683
-22.354
-28.186
-34.004
-39.643
-44.925
-49.74
-54.012
-57.669
-60.683
-63.039
-64.724
-65.761
-66.207
-66.113
-65.536
-64.524
-63.109
-61.343
-59.291
-57.025
-54.624
-52.147
-49.627
-47.095
-44.571
-42.066
-39.587
-37.128
-34.663
-32.179
-29.664
-27.111
-24.518
-21.877
-19.176
-16.402
-13.545
-10.596
-7.552
-4.406
-1.154
2.206
5.673
9.245
12.914
16.678
20.534
24.48
28.513
32.631
36.829
41.103
45.45
49.864
54.338
58.864
63.432
68.032
72.655
77.288
81.918
86.534
91.121
95.664
100.15
104.563
108.886
113.105
117.204
121.166
124.975
128.617
132.075
135.335
138.383
141.205
143.789
146.121
148.192
149.991
151.508
152.734
153.663
154.288
154.603
154.604
154.288
153.653
152.699
151.428
149.841
147.942
145.738
143.233
140.437
137.359
134.008
130.398
126.541
122.451
118.144
113.636
108.945
104.089
99.085
93.955
88.717
83.392
78
72.561
67.097
61.627
56.172
50.752
45.386
40.094
34.895
29.806
24.845
20.029
15.373
10.891
6.597
2.502
-1.382
-5.046
-8.483
-11.687
-14.652
-17.376
-19.858
-22.097
-24.096
-25.858
-27.388
-28.693
-29.781
-30.661
-31.345
-31.843
-32.168
-32.335
-32.357
-32.249
-32.027
-31.706
-31.302
-30.831
-30.31
-29.752
-29.175
-28.592
-28.018
-27.467
-26.95
-26.478
-26.064
-25.714
-25.438
-25.241
-25.128
-25.104
-25.169
-25.324
-25.568
-25.898
-26.309
-26.795
-27.35
-27.963
-28.626
-29.326
-30.052
-30.79
-31.526
-32.247
-32.937
-33.582
-34.166
-34.675
-35.094
-35.409
-35.605
-35.671
-35.593
-35.361
-34.966
-34.398
-33.651
-32.719
-31.598
-30.285
-28.781
-27.084
-25.199
-23.129
-20.881
-18.462
-15.882
-13.154
-10.288
-7.302
-4.209
-1.028
2.223
5.526
8.859
12.203
15.537
18.839
22.089
25.263
28.343
31.307
34.136
36.811
39.315
41.632
43.746
45.644
47.314
48.747
49.934
50.867
51.543
51.959
52.114
52.01
51.649
51.038
50.184
49.099
47.793
46.281
44.579
42.703
40.673
38.508
36.23
33.861
31.424
28.943
26.443
23.947
21.482
19.071
16.738
14.506
12.396
10.432
8.632
7.015
5.597
4.395
3.422
2.691
2.21
1.988
2.031
2.341
2.918
3.76
4.861
6.209
7.794
9.6
11.611
13.807
16.167
18.669
21.292
24.012
26.806
29.649
32.511
35.361
38.171
40.91
43.55
46.064
48.422
50.598
52.574
54.332
55.85
57.106
58.065
58.691
58.961
58.856
58.358
57.463
56.172
54.492
52.458
50.102
47.457
44.556
41.413
38.047
34.496
30.809
27.051
23.291
19.569
15.921
12.388
8.969
5.645
2.36
-0.992
-4.491
-8.197
-12.191
-16.55
-21.355
-26.72
-32.709
-39.412
-47.023
-55.616
-65.135
-75.384
-85.865
-96.034
-105.482
-113.681
-119.988
-124.08
-125.953
-126.159
-125.984
-126.622
-129.03
-134.158
-142.781
-155.35
-170.633
-185.403
-196.089
-198.86
-192.742
-179.987
-159.52
-129.491
-85.79
-19.837
69.711
180.457
307.831
439.242
564.023
670.716
745.187
778.196
762.681
698.279
592.276
454.752
299.87
141.609
-6.211
-127.622
-210.741
-249.385
-244.272
-208.177
-158.867
-113.006
-85.656
-80.26
-91.285
-110.458
-125.659
-131.439
-129.423
-123.031
-118.359
-117.802
-119.6
-121.673
-121.691
-119.042
-114.746
-109.731
-104.728
-100.234
-96.548
-94.02
-92.881
-93.112
-94.563
-97.033
-100.345
-104.361
-108.927
-113.836
-118.902
-123.953
-128.81
-133.355
-137.494
-141.149
-144.281
-146.871
-148.899
-150.381
-151.36
-151.875
-151.972
-151.693
-151.065
-150.137
-148.967
-147.619
-146.164
-144.652
-143.109
-141.554
-139.997
-138.438
-136.875
-135.291
-133.655
-131.944
-130.143
-128.235
-126.213
-124.061
-121.762
-119.299
-116.656
-113.823
-110.793
-107.56
-104.118
-100.468
-96.612
-92.557
-88.312
-83.885
-79.285
-74.52
-69.599
-64.534
-59.338
-54.024
-48.606
-43.102
-37.531
-31.912
-26.268
-20.622
-14.996
-9.416
-3.905
1.51
6.804
11.95
16.923
21.698
26.248
30.548
34.576
38.309
41.725
44.805
47.531
49.887
51.859
53.435
54.606
55.365
55.707
55.63
55.133
54.219
52.893
51.161
49.032
46.518
43.633
40.391
36.811
32.911
28.713
24.238
19.511
14.557
9.402
4.072
-1.404
-6.999
-12.684
-18.429
-24.208
-29.992
-35.752
-41.462
-47.097
-52.63
-58.037
-63.298
-68.389
-73.293
-77.991
-82.467
-86.708
-90.699
-94.432
-97.895
-101.083
-103.988
-106.605
-108.932
-110.968
-112.71
-114.16
-115.321
-116.196
-116.788
-117.104
-117.15
-116.933
-116.461
-115.745
-114.792
-113.614
-112.22
-110.623
-108.834
-106.864
-104.725
-102.43
-99.989
-97.416
-94.721
-91.914
-89.008
-86.011
-82.935
-79.789
-76.581
-73.322
-70.02
-66.685
-63.323
-59.944
-56.556
-53.166
-49.782
-46.411
-43.061
-39.739
-36.45
-33.203
-30.003
-26.857
-23.77
-20.747
-17.794
-14.916
-12.117
-9.401
-6.772
-4.233
-1.788
0.561
2.809
4.954
6.994
8.924
10.743
12.448
14.036
15.505
16.853
18.078
19.178
20.151
20.996
21.711
22.295
22.746
23.064
23.249
23.299
23.214
22.994
22.64
22.15
21.526
20.765
19.87
18.838
17.67
16.366
14.925
13.347
11.632
9.781
7.795
5.674
3.419
1.033
-1.484
-4.127
-6.895
-9.784
-12.79
-15.908
-19.133
-22.458
-25.878
-29.385
-32.972
-36.631
-40.352
-44.127
-47.947
-51.802
-55.682
-59.575
-63.472
-67.359
-71.224
-75.055
-78.838
-82.559
-86.204
-89.759
-93.21
-96.542
-99.742
-102.795
-105.688
-108.408
-110.942
-113.28
-115.408
-117.318
-118.998
-120.442
-121.643
-122.595
-123.294
-123.735
-123.917
-123.839
-123.502
-122.907
-122.057
-120.955
-119.605
-118.015
-116.192
-114.144
-111.883
-109.418
-106.766
-103.944
-100.971
-97.864
-94.644
-91.332
-87.95
-84.52
-81.063
-77.596
-74.135
-70.698
-67.307
-63.983
-60.745
-57.61
-54.595
-51.717
-48.993
-46.437
-44.059
-41.86
-39.846
-38.026
-36.415
-35.039
-33.918
-33.06
-32.473
-32.158
-32.111
-32.318
-32.753
-33.364
-34.105
-34.935
-35.821
-36.742
-37.661
-38.538
-39.32
-39.947
-40.379
-40.576
-40.512
-40.203
-39.683
-39.015
-38.293
-37.62
-37.099
-36.859
-37.015
-37.626
-38.757
-40.446
-42.769
-45.922
-49.994
-54.931
-60.561
-66.607
-72.795
-78.743
-83.961
-87.816
-89.744
-90.379
-90.551
-90.206
-90.061
-88.916
-85.718
-83.504
-82.765
-84.673
-90.983
-97.568
-103.383
-108.102
-107.829
-99.925
-78.565
-35.781
32.89
127.352
243.271
371.135
497.925
611.048
696.996
744.386
745.63
695.853
597.304
457.374
289.478
115.553
-42.903
-167.496
-245.471
-279.108
-277.028
-247.894
-204.897
-155.933
-108.507
-75.373
-60.877
-65.235
-83.392
-102.179
-115.325
-121.587
-122.775
-125.32
-131.028
-138.555
-146.576
-152.298
-154.544
-154.024
-151.32
-147.49
-143.875
-141.006
-139.086
-138.336
-138.775
-140.371
-143.118
-146.79
-150.892
-155.099
-159.214
-163.036
-166.506
-169.562
-172.091
-174.074
-175.547
-176.522
-177.017
-177.053
-176.616
-175.721
-174.406
-172.696
-170.64
-168.296
-165.718
-162.977
-160.126
-157.202
-154.233
-151.237
-148.225
-145.206
-142.173
-139.112
-136.012
-132.863
-129.658
-126.391
-123.05
-119.616
-116.075
-112.41
-108.611
-104.668
-100.575
-96.322
-91.907
-87.328
-82.585
-77.685
-72.63
-67.421
-62.061
-56.551
-50.896
-45.101
-39.173
-33.116
-26.937
-20.647
-14.256
-7.778
-1.226
5.387
12.044
18.728
25.423
32.108
38.765
45.374
51.915
58.367
64.708
70.917
76.974
82.859
88.551
94.034
99.288
104.297
109.046
113.521
117.71
121.599
125.18
128.442
131.379
133.983
136.251
138.178
139.762
141.004
141.904
142.466
142.695
142.596
142.178
141.448
140.419
139.102
137.51
135.658
133.561
131.237
128.702
125.975
123.073
120.015
116.82
113.506
110.092
106.594
103.031
99.42
95.775
92.114
88.45
84.799
81.174
77.588
74.052
70.579
67.179
63.861
60.635
57.509
54.49
51.584
48.798
46.136
43.602
41.199
38.929
36.793
34.792
32.925
31.191
29.589
28.117
26.773
25.556
24.461
23.488
22.634
21.897
21.274
20.765
20.368
20.081
19.903
19.835
19.874
20.022
20.278
20.642
21.115
21.697
22.389
23.19
24.102
25.126
26.262
27.51
28.873
30.35
31.944
33.654
35.483
37.43
39.496
41.682
43.989
46.415
48.959
51.622
54.4
57.293
60.296
63.408
66.623
69.939
73.349
76.848
80.43
84.089
87.816
91.605
95.448
99.336
103.261
107.214
111.186
115.167
119.148
123.12
127.072
130.995
134.879
138.713
142.488
146.193
149.82
153.357
156.797
160.13
163.347
166.44
169.4
172.221
174.895
177.414
179.774
181.967
183.988
185.831
187.494
188.971
190.259
191.357
192.26
192.969
193.481
193.796
193.915
193.838
193.567
193.104
192.451
191.614
190.595
189.401
188.038
186.511
184.829
182.999
181.029
178.928
176.705
174.371
171.934
169.407
166.801
164.128
161.401
158.633
155.838
153.031
150.226
147.438
144.682
141.973
139.326
136.756
134.278
131.906
129.655
127.537
125.567
123.756
122.115
120.654
119.382
118.306
117.433
116.767
116.312
116.07
116.043
116.23
116.632
117.244
118.062
119.082
120.296
121.695
123.268
125.002
126.877
128.876
130.981
133.171
135.424
137.717
140.028
142.337
144.626
146.877
149.069
151.181
153.19
155.078
156.829
158.424
159.849
161.089
162.134
162.98
163.628
164.075
164.313
164.331
164.107
163.627
162.887
161.889
160.636
159.141
157.423
155.518
153.483
151.37
149.225
147.09
144.996
142.985
141.115
139.446
138.048
136.989
136.308
136.019
136.135
136.634
137.487
138.655
140.027
141.491
142.949
144.3
145.479
146.438
147.046
147.116
146.553
145.336
143.588
141.661
139.87
138.47
137.898
138.705
141.21
145.52
151.402
157.871
163.872
168.683
171.15
170.786
168.809
166.491
165.451
166.624
167.526
166.413
165.343
169.951
191.121
239.156
316.398
419.046
537.364
657.224
769.023
865.172
936.701
979.97
991.091
965.586
907.053
818.728
703.296
570.721
430.503
294.05
178.611
95.347
48.299
36.995
52.203
81.967
117.292
148.851
170.763
182.604
186.23
187.805
192.993
202.995
216.002
226.792
231.664
230.737
225.845
219.956
215.067
211.33
208.639
207.252
207.357
208.962
211.813
215.259
218.59
221.598
224.264
226.362
227.86
228.814
229.199
229.286
229.462
229.743
230.103
230.743
231.733
233.207
235.682
239.468
244.568
251.392
259.238
265.926
270.8
273.454
274.405
276.686
278.496
274.267
258.843
225.788
176.051
117.913
58.502
5.281
-38.811
-76.43
-108.673
-136.272
-159.382
-176.7
-188.283
-195.332
-199.228
-201.397
-202.97
-204.591
-206.511
-208.715
-211.016
-212.917
-213.737
-213.04
-210.487
-205.951
-199.65
-191.933
-183.221
-174.02
-164.814
-155.91
-147.521
-139.764
-132.607
-125.965
-119.711
-113.733
-107.978
-102.49
-97.333
-92.52
-88.025
-83.752
-79.593
-75.5
-71.463
-67.483
-63.571
-59.755
-56.101
-52.75
-49.873
-47.57
-45.862
-44.688
-43.986
-43.746
-43.991
-44.76
-46.079
-47.947
-50.352
-53.301
-56.8
-60.827
-65.325
-70.183
-75.271
-80.514
-85.899
-91.456
-97.213
-103.164
-109.288
-115.565
-121.989
-128.553
-135.233
-141.98
-148.74
-155.481
-162.191
-168.883
-175.574
-182.255
-188.891
-195.436
-201.846
-208.092
-214.15
-219.989
-225.577
-230.887
-235.912
-240.66
-245.142
-249.36
-253.312
-256.991
-260.396
-263.53
-266.403
-269.024
-271.403
-273.549
-275.475
-277.196
-278.727
-280.083
-281.272
-282.303
-283.181
-283.916
-284.518
-284.996
-285.358
-285.611
-285.766
-285.831
-285.815
-285.727
-285.572
-285.355
-285.083
-284.76
-284.389
-283.974
-283.516
-283.016
-282.478
-281.901
-281.286
-280.635
-279.948
-279.225
-278.467
-277.674
-276.848
-275.988
-275.096
-274.173
-273.22
-272.24
-271.235
-270.207
-269.16
-268.095
-267.018
-265.932
-264.839
-263.743
-262.648
-261.557
-260.473
-259.399
-258.338
-257.294
-256.269
-255.266
-254.288
-253.336
-252.413
-251.519
-250.656
-249.823
-249.023
-248.253
-247.514
-246.805
-246.123
-245.469
-244.839
-244.23
-243.641
-243.066
-242.504
-241.948
-241.395
-240.839
-240.276
-239.701
-239.107
-238.491
-237.848
-237.172
-236.461
-235.709
-234.913
-234.07
-233.177
-232.233
-231.236
-230.184
-229.078
-227.918
-226.704
-225.437
-224.12
-222.754
-221.342
-219.886
-218.389
-216.854
-215.285
-213.685
-212.057
-210.406
-208.735
-207.05
-205.356
-203.656
-201.955
-200.258
-198.569
-196.892
-195.23
-193.587
-191.963
-190.362
-188.785
-187.232
-185.704
-184.202
-182.723
-181.266
-179.829
-178.408
-177.001
-175.603
-174.209
-172.815
-171.416
-170.008
-168.588
-167.149
-165.688
-164.201
-162.685
-161.135
-159.549
-157.923
-156.254
-154.54
-152.781
-150.974
-149.122
-147.225
-145.286
-143.31
-141.304
-139.276
-137.232
-135.183
-133.137
-131.106
-129.1
-127.127
-125.197
-123.322
-121.511
-119.78
-118.144
-116.617
-115.213
-113.944
-112.823
-111.863
-111.076
-110.461
-110.023
-109.767
-109.704
-109.854
-110.237
-110.858
-111.723
-112.834
-114.182
-115.755
-117.529
-119.456
-121.492
-123.594
-125.727
-127.876
-130.018
-132.116
-134.122
-135.975
-137.619
-139.026
-140.168
-141.015
-141.571
-141.868
-141.976
-142.016
-142.08
-142.239
-142.574
-143.152
-144.038
-145.314
-147.024
-149.243
-152.136
-155.764
-160.063
-164.891
-169.876
-174.597
-178.743
-181.823
-183.161
-182.388
-179.52
-174.888
-169.388
-164.024
-159.429
-156.42
-156.259
-158.781
-162.027
-163.988
-161.692
-154.753
-146.77
-138.163
-126.299
-104.264
-60.814
9.075
103.24
214.243
330.205
442.616
545.575
631.869
694.53
724.405
713.194
659.857
567.877
445.883
307.802
168.094
42.221
-55.791
-118.078
-144.659
-141.903
-119.303
-87.378
-53.85
-25.076
-6.574
0.537
-1.662
-7.844
-12.684
-14.897
-15.948
-19.173
-26.047
-34.955
-43.932
-50.967
-55.183
-56.865
-56.114
-53.216
-48.95
-44.344
-40.148
-36.742
-34.17
-32.319
-31.294
-31.199
-31.868
-32.902
-33.926
-34.687
-35.064
-35.056
-34.588
-33.551
-31.913
-29.687
-26.921
-23.67
-19.959
-15.789
-11.181
-6.177
-0.815
4.841
10.729
16.788
22.939
29.124
35.294
41.41
47.44
53.362
59.158
64.826
70.37
75.795
81.1
86.286
91.354
96.313
101.173
105.947
110.648
115.287
119.871
124.41
128.911
133.383
137.828
142.251
146.65
151.026
155.382
159.72
164.043
168.35
172.639
176.908
181.156
185.376
189.564
193.708
197.8
201.826
205.773
209.628
213.374
216.993
220.468
223.778
226.905
229.827
232.524
234.974
237.157
239.05
240.635
241.89
242.799
243.342
243.503
243.267
242.622
241.556
240.058
238.123
235.744
232.918
229.644
225.924
221.761
217.163
212.139
206.699
200.859
194.635
188.047
181.115
173.862
166.315
158.5
150.446
142.182
133.74
125.151
116.448
107.665
98.835
89.992
81.169
72.399
63.716
55.151
46.734
38.497
30.468
22.674
15.14
7.892
0.95
-5.663
-11.931
-17.836
-23.364
-28.503
-33.244
-37.579
-41.501
-45.009
-48.101
-50.777
-53.041
-54.897
-56.352
-57.414
-58.093
-58.399
-58.344
-57.942
-57.208
-56.155
-54.801
-53.161
-51.253
-49.094
-46.701
-44.092
-41.286
-38.3
-35.152
-31.859
-28.438
-24.906
-21.28
-17.573
-13.803
-9.982
-6.124
-2.241
1.654
5.551
9.44
13.311
17.156
20.966
24.736
28.458
32.126
35.735
39.279
42.755
46.157
49.482
52.727
55.886
58.958
61.939
64.826
67.616
70.307
72.897
75.383
77.763
80.034
82.194
84.24
86.171
87.983
89.673
91.239
92.677
93.984
95.157
96.192
97.086
97.834
98.434
98.88
99.171
99.301
99.269
99.071
98.704
98.168
97.459
96.576
95.52
94.29
92.885
91.308
89.557
87.637
85.547
83.29
80.87
78.29
75.555
72.668
69.634
66.461
63.153
59.718
56.164
52.497
48.727
44.863
40.914
36.89
32.803
28.663
24.482
20.272
16.044
11.81
7.582
3.372
-0.808
-4.948
-9.035
-13.059
-17.008
-20.871
-24.638
-28.297
-31.837
-35.249
-38.522
-41.648
-44.616
-47.419
-50.047
-52.494
-54.751
-56.813
-58.673
-60.326
-61.766
-62.991
-63.997
-64.783
-65.349
-65.692
-65.816
-65.72
-65.41
-64.887
-64.158
-63.225
-62.096
-60.777
-59.276
-57.603
-55.766
-53.777
-51.649
-49.396
-47.036
-44.584
-42.058
-39.475
-36.855
-34.218
-31.581
-28.961
-26.375
-23.839
-21.371
-18.991
-16.718
-14.569
-12.562
-10.711
-9.031
-7.54
-6.247
-5.154
-4.269
-3.595
-3.144
-2.937
-2.99
-3.308
-3.897
-4.757
-5.881
-7.257
-8.863
-10.653
-12.587
-14.625
-16.735
-18.903
-21.101
-23.288
-25.422
-27.442
-29.305
-30.989
-32.458
-33.686
-34.696
-35.52
-36.237
-36.971
-37.794
-38.777
-40.021
-41.59
-43.575
-46.079
-49.132
-52.812
-57.275
-62.567
-68.647
-75.372
-82.324
-89.062
-95.262
-100.434
-103.991
-105.607
-105.213
-103.128
-100.2
-97.402
-95.537
-95.448
-98.279
-104.007
-110.776
-116.449
-118.356
-115.577
-111.121
-106.771
-100.388
-86.509
-54.86
3.529
89.049
196.801
316.964
436.754
547.479
640.157
704.46
731.201
710.755
639.595
522.155
369.777
200.402
32.903
-115.288
-231.722
-310.773
-353.498
-366.486
-357.555
-335.543
-308.005
-281.621
-262.533
-252.831
-251.2
-252.124
-250.138
-243.68
-234.329
-227.155
-225.621
-229.442
-236.763
-244.673
-251.261
-256.421
-260.298
-262.703
-263.572
-263.084
-261.668
-260.079
-259.082
-258.966
-259.831
-261.91
-265.248
-269.723
-275.169
-281.147
-287.108
-292.769
-297.969
-302.584
-306.622
-310.068
-312.871
-315.085
-316.807
-318.092
-318.989
-319.515
-319.649
-319.415
-318.867
-318.068
-317.097
-316.006
-314.81
-313.523
-312.146
-310.674
-309.105
-307.416
-305.57
-303.539
-301.305
-298.856
-296.186
-293.282
-290.123
-286.689
-282.961
-278.924
-274.573
-269.901
-264.907
-259.592
-253.962
-248.029
-241.811
-235.321
-228.573
-221.583
-214.368
-206.945
-199.336
-191.561
-183.643
-175.608
-167.484
-159.301
-151.091
-142.885
-134.718
-126.623
-118.635
-110.788
-103.114
-95.645
-88.413
-81.449
-74.785
-68.45
-62.474
-56.885
-51.711
-46.978
-42.712
-38.933
-35.657
-32.901
-30.676
-28.992
-27.854
-27.266
-27.226
-27.732
-28.781
-30.369
-32.492
-35.139
-38.3
-41.961
-46.106
-50.718
-55.77
-61.233
-67.075
-73.263
-79.766
-86.56
-93.611
-100.883
-108.343
-115.951
-123.662
-131.419
-139.153
-146.774
-154.2
-161.358
-168.189
-174.65
-180.701
-186.306
-191.447
-196.106
-200.275
-203.942
-207.056
-209.564
-211.451
-212.752
-213.555
-213.988
-214.149
-214.088
-213.875
-213.601
-213.289
-212.836
-211.981
-210.419
-207.987
-204.76
-200.903
-196.428
-191.346
-185.796
-180.13
-174.751
-169.693
-164.43
-158.141
-150.3
-140.553
-128.516
-113.602
-95.058
-72.625
-46.852
-18.791
10.698
40.988
71.483
101.409
129.653
155.374
178.382
198.946
217.321
233.577
247.677
259.645
269.76
278.303
285.306
290.605
294.043
295.614
295.483
293.915
291.174
287.522
283.242
278.66
274.075
269.706
265.703
262.138
259.034
256.4
254.24
252.537
251.28
250.446
249.983
249.826
249.879
250.016
250.132
250.132
249.937
249.502
248.795
247.8
246.534
245.029
243.32
241.447
239.445
237.337
235.162
232.964
230.79
228.701
226.74
224.939
223.32
221.898
220.678
219.663
218.842
218.194
217.699
217.34
217.1
216.968
216.929
216.963
217.051
217.174
217.316
217.465
217.61
217.739
217.844
217.918
217.958
217.961
217.926
217.849
217.725
217.551
217.324
217.044
216.71
216.322
215.883
215.395
214.864
214.296
213.698
213.076
212.437
211.79
211.143
210.505
209.885
209.291
208.735
208.224
207.768
207.375
207.054
206.809
206.649
206.58
206.605
206.73
206.956
207.287
207.725
208.272
208.929
209.696
210.571
211.553
212.639
213.825
215.104
216.466
217.901
219.398
220.944
222.528
224.134
225.748
227.359
228.955
230.529
232.068
233.557
234.983
236.332
237.594
238.759
239.816
240.752
241.558
242.232
242.777
243.192
243.471
243.601
243.564
243.345
242.94
242.345
241.557
240.578
239.418
238.101
236.671
235.169
233.627
232.072
230.525
229.022
227.612
226.346
225.277
224.445
223.878
223.604
223.642
223.973
224.563
225.359
226.27
227.209
228.087
228.795
229.239
229.34
228.989
228.041
226.375
223.967
220.939
217.552
214.107
210.892
208.226
206.579
206.4
207.823
210.486
213.701
216.686
218.675
219.003
216.8
211.048
202.512
193.977
188
187.484
192.212
198.188
205.942
218.507
242.502
289.449
362.907
460.652
576.627
697.726
814.455
917.154
994.351
1038.749
1041.264
999.391
918.178
803.141
667.191
523.397
383.388
263.623
175.578
124.232
110.497
125.591
156.636
193.554
225.635
246.802
258.014
261.55
263.335
268.713
277.489
287.099
293.345
293.209
286.848
276.423
264.88
253.974
244.531
236.937
230.672
225.537
221.809
219.065
216.692
214.357
211.649
208.7
206.543
205.907
206.752
209.267
213.744
220.036
227.678
235.279
240.251
240.142
233.457
218.956
195.635
163.273
122.348
74.557
22.975
-29.036
-78.616
-123.325
-161.097
-190.605
-211.231
-223.365
-228.459
-228.491
-225.506
-221.193
-216.951
-213.753
-212.078
-211.948
-212.922
-214.191
-214.791
-214.06
-211.56
-207.113
-200.868
-193.073
-184.102
-174.45
-164.626
-154.985
-145.75
-137.026
-128.792
-121.008
-113.602
-106.48
-99.568
-92.803
-86.146
-79.548
-72.936
-66.252
-59.449
-52.495
-45.376
-38.088
-30.632
-23.037
-15.354
-7.641
0.037
7.624
15.078
22.345
29.367
36.076
42.394
48.258
53.623
58.443
62.684
66.318
69.322
71.687
73.421
74.527
75.008
74.87
74.111
72.741
70.772
68.217
65.096
61.423
57.215
52.491
47.271
41.577
35.429
28.849
21.857
14.478
6.739
-1.33
-9.698
-18.333
-27.201
-36.267
-45.495
-54.849
-64.294
-73.794
-83.314
-92.818
-102.27
-111.637
-120.882
-129.974
-138.877
-147.561
-155.992
-164.142
-171.98
-179.479
-186.612
-193.353
-199.679
-205.567
-210.996
-215.948
-220.408
-224.36
-227.793
-230.698
-233.068
-234.897
-236.185
-236.93
-237.136
-236.807
-235.95
-234.575
-232.694
-230.32
-227.468
-224.155
-220.401
-216.226
-211.653
-206.705
-201.407
-195.785
-189.868
-183.684
-177.262
-170.632
-163.826
-156.875
-149.81
-142.663
-135.465
-128.247
-121.04
-113.872
-106.774
-99.773
-92.896
-86.169
-79.615
-73.258
-67.118
-61.216
-55.57
-50.194
-45.105
-40.313
-35.83
-31.665
-27.824
-24.314
-21.138
-18.297
-15.792
-13.622
-11.782
-10.268
-9.073
-8.189
-7.607
-7.315
-7.303
-7.557
-8.064
-8.809
-9.778
-10.954
-12.322
-13.866
-15.569
-17.415
-19.388
-21.471
-23.65
-25.908
-28.231
-30.605
-33.016
-35.452
-37.901
-40.351
-42.792
-45.213
-47.607
-49.965
-52.28
-54.547
-56.76
-58.916
-61.011
-63.045
-65.015
-66.922
-68.767
-70.551
-72.277
-73.946
-75.564
-77.132
-78.655
-80.138
-81.586
-83.002
-84.393
-85.761
-87.113
-88.451
-89.781
-91.106
-92.429
-93.754
-95.082
-96.418
-97.761
-99.114
-100.477
-101.849
-103.231
-104.621
-106.019
-107.421
-108.826
-110.228
-111.626
-113.015
-114.391
-115.747
-117.079
-118.381
-119.649
-120.878
-122.062
-123.196
-124.276
-125.298
-126.259
-127.157
-127.989
-128.754
-129.452
-130.083
-130.649
-131.153
-131.599
-131.99
-132.334
-132.637
-132.91
-133.167
-133.42
-133.682
-133.966
-134.288
-134.661
-135.097
-135.607
-136.203
-136.897
-137.702
-138.632
-139.699
-140.918
-142.301
-143.858
-145.595
-147.51
-149.599
-151.861
-154.297
-156.917
-159.733
-162.757
-165.995
-169.451
-173.129
-177.022
-181.116
-185.378
-189.747
-194.18
-198.651
-203.145
-207.664
-212.173
-216.591
-220.845
-224.859
-228.575
-231.984
-235.03
-237.581
-239.662
-241.412
-242.988
-244.661
-246.51
-248.359
-250.213
-252.24
-254.374
-256.475
-258.39
-259.731
-260.539
-261.312
-262.09
-262.67
-263.091
-263.311
-263.342
-263.581
-263.881
-263.763
-263.629
-264.094
-265.479
-268.379
-273.113
-279.436
-287.665
-296.796
-303.498
-304.977
-298.445
-283.805
-264.836
-241.953
-213.343
-173.755
-113.068
-28.127
79.137
202.999
329.975
449.734
552.488
626.741
665.026
659.623
607.563
512.868
384.142
235.973
84.383
-54.652
-167.561
-246.531
-290.095
-302.652
-292.33
-269.344
-242.265
-219.022
-205.385
-201.34
-204.19
-207.563
-205.097
-196.014
-182.946
-170.875
-163.958
-162.611
-165.085
-169.131
-173.54
-177.98
-182.144
-185.694
-187.937
-188.43
-187.287
-184.666
-180.706
-175.733
-170.277
-164.834
-159.886
-155.713
-152.293
-149.551
-147.394
-145.61
-143.871
-141.959
-139.732
-137.117
-134.224
-131.164
-128.068
-125.163
-122.646
-120.629
-119.189
-118.343
-118.041
-118.258
-118.937
-119.971
-121.303
-122.874
-124.624
-126.531
-128.529
-130.52
-132.392
-133.992
-135.19
-135.908
-136.077
-135.647
-134.606
-132.955
-130.737
-128.051
-124.959
-121.496
-117.69
-113.536
-109.046
-104.255
-99.19
-93.884
-88.368
-82.663
-76.792
-70.786
-64.654
-58.395
-51.991
-45.4
-38.6
-31.591
-24.381
-16.992
-9.452
-1.782
5.982
13.795
21.616
29.406
37.129
44.754
52.244
59.559
66.652
73.477
79.99
86.154
91.933
97.294
102.209
106.652
110.605
114.056
116.994
119.406
121.284
122.619
123.408
123.65
123.346
122.5
121.119
119.214
116.801
113.898
110.525
106.706
102.466
97.833
92.835
87.504
81.871
75.968
69.828
63.487
56.977
50.335
43.595
36.791
29.955
23.121
16.32
9.581
2.933
-3.598
-9.987
-16.211
-22.247
-28.075
-33.677
-39.036
-44.136
-48.966
-53.512
-57.767
-61.723
-65.375
-68.72
-71.756
-74.483
-76.902
-79.016
-80.83
-82.347
-83.573
-84.517
-85.185
-85.586
-85.73
-85.625
-85.284
-84.715
-83.929
-82.937
-81.75
-80.379
-78.833
-77.123
-75.26
-73.255
-71.116
-68.855
-66.481
-64.004
-61.433
-58.778
-56.046
-53.248
-50.391
-47.483
-44.532
-41.546
-38.533
-35.5
-32.454
-29.403
-26.353
-23.311
-20.285
-17.28
-14.304
-11.362
-8.462
-5.608
-2.809
-0.068
2.607
5.211
7.74
10.187
12.548
14.818
16.994
19.072
21.048
22.92
24.686
26.343
27.89
29.327
30.652
31.866
32.969
33.962
34.847
35.625
36.299
36.872
37.345
37.724
38.011
38.211
38.327
38.366
38.332
38.229
38.065
37.843
37.57
37.251
36.891
36.497
36.072
35.623
35.155
34.671
34.177
33.676
33.173
32.67
32.171
31.678
31.195
30.723
30.264
29.82
29.393
28.985
28.598
28.232
27.89
27.573
27.282
27.019
26.786
26.583
26.413
26.275
26.174
26.109
26.084
26.1
26.161
26.269
26.428
26.643
26.915
27.251
27.652
28.126
28.675
29.306
30.023
30.831
31.735
32.74
33.85
35.071
36.404
37.852
39.418
41.104
42.909
44.833
46.875
49.032
51.301
53.679
56.161
58.74
61.41
64.162
66.986
69.873
72.808
75.775
78.757
81.737
84.696
87.616
90.475
93.254
95.933
98.497
100.928
103.208
105.318
107.236
108.946
110.432
111.679
112.673
113.401
113.852
114.021
113.913
113.526
112.857
111.896
110.627
109.042
107.145
104.94
102.433
99.638
96.573
93.274
89.797
86.196
82.517
78.796
75.064
71.367
67.771
64.349
61.172
58.296
55.762
53.611
51.879
50.573
49.675
49.137
48.878
48.819
48.887
49
49.082
49.065
48.837
48.242
47.159
45.557
43.55
41.388
39.341
37.656
36.631
36.717
38.351
41.722
46.486
51.901
57.176
61.534
64.345
64.911
62.269
56.805
50.941
47.219
48.44
54.872
63.266
73.507
88.474
114.877
162.711
235.41
329.865
438.344
549.698
657.067
755.91
839.96
902.32
931.946
918.324
858.79
755.466
618.874
467.194
317.468
188.508
94.217
35.278
7.408
-0.39
-0.297
6.158
17.547
32.121
49.474
61.821
65.672
64.194
58.713
53.623
50.431
44.968
36.004
23.476
7.884
-7.661
-21.156
-32.197
-40.244
-45.316
-47.895
-48.378
-47.255
-45.317
-43.357
-41.828
-41.181
-41.695
-43.313
-45.942
-49.413
-53.389
-57.503
-61.474
-65.037
-68.038
-70.46
-72.277
-73.497
-74.158
-74.29
-73.938
-73.146
-71.945
-70.347
-68.374
-66.057
-63.446
-60.612
-57.628
-54.573
-51.507
-48.471
-45.502
-42.625
-39.855
-37.206
-34.675
-32.251
-29.929
-27.703
-25.57
-23.526
-21.56
-19.654
-17.792
-15.958
-14.138
-12.321
-10.493
-8.644
-6.764
-4.848
-2.888
-0.885
1.168
3.274
5.439
7.666
9.959
12.318
14.746
17.242
19.807
22.435
25.124
27.866
30.653
33.475
36.323
39.184
42.044
44.888
47.701
50.467
53.167
55.783
58.296
60.688
62.938
65.028
66.938
68.649
70.144
71.405
72.415
73.16
73.624
73.794
73.659
73.208
72.432
71.323
69.875
68.084
65.947
63.463
60.633
57.461
53.952
50.112
45.95
41.477
36.705
31.648
26.322
20.742
14.929
8.902
2.681
-3.71
-10.249
-16.913
-23.677
-30.516
-37.405
-44.32
-51.235
-58.126
-64.969
-71.738
-78.412
-84.967
-91.383
-97.637
-103.711
-109.585
-115.243
-120.669
-125.848
-130.767
-135.415
-139.781
-143.858
-147.639
-151.118
-154.294
-157.164
-159.73
-161.993
-163.957
-165.628
-167.013
-168.121
-168.961
-169.545
-169.886
-169.998
-169.894
-169.592
-169.107
-168.456
-167.658
-166.729
-165.688
-164.554
-163.344
-162.077
-160.769
-159.44
-158.105
-156.781
-155.483
-154.227
-153.027
-151.895
-150.844
-149.884
-149.025
-148.274
-147.64
-147.126
-146.736
-146.474
-146.339
-146.332
-146.45
-146.69
-147.047
-147.515
-148.087
-148.753
-149.504
-150.329
-151.217
-152.155
-153.129
-154.127
-155.135
-156.138
-157.121
-158.072
-158.974
-159.815
-160.579
-161.254
-161.826
-162.284
-162.615
-162.809
-162.857
-162.751
-162.483
-162.047
-161.44
-160.657
-159.697
-158.56
-157.247
-155.76
-154.104
-152.284
-150.308
-148.184
-145.921
-143.532
-141.029
-138.425
-135.733
-132.97
-130.151
-127.291
-124.408
-121.519
-118.64
-115.789
-112.984
-110.242
-107.578
-105.01
-102.552
-100.218
-98.023
-95.979
-94.096
-92.386
-90.855
-89.513
-88.365
-87.417
-86.67
-86.126
-85.784
-85.644
-85.7
-85.948
-86.379
-86.984
-87.754
-88.677
-89.74
-90.929
-92.229
-93.624
-95.098
-96.633
-98.211
-99.813
-101.42
-103.013
-104.574
-106.084
-107.526
-108.882
-110.136
-111.272
-112.275
-113.134
-113.835
-114.367
-114.719
-114.883
-114.853
-114.623
-114.189
-113.551
-112.708
-111.666
-110.432
-109.014
-107.421
-105.666
-103.76
-101.717
-99.551
-97.274
-94.896
-92.432
-89.897
-87.311
-84.69
-82.052
-79.413
-76.788
-74.192
-71.643
-69.151
-66.718
-64.35
-62.057
-59.855
-57.773
-55.831
-54.042
-52.417
-50.958
-49.663
-48.528
-47.531
-46.629
-45.782
-44.951
-44.105
-43.234
-42.308
-41.282
-40.105
-38.702
-37.02
-35.028
-32.693
-30
-26.964
-23.619
-20.035
-16.317
-12.558
-8.861
-5.331
-2.044
0.9
3.418
5.401
6.619
6.957
6.47
5.298
3.796
2.385
1.317
0.984
2.078
4.942
9.456
15.212
21.141
26.067
29.335
30.237
27.614
21.634
14.436
8.386
6.772
11.265
19.2
29.232
43.734
67.459
109.135
176.334
268.459
381.032
506.623
633.543
752.118
851.412
918.851
945.486
924.973
857.542
748.541
607.881
452.206
298.285
165.136
69.561
15.49
1.108
17.459
47.903
82.505
112.012
126.534
126.179
111.592
86.933
63.726
46.744
37.146
34.22
31.888
27.703
22.795
18.085
15.696
16.378
19.024
22.695
26.638
30.227
33.144
35.259
36.467
36.763
36.297
35.185
33.492
31.359
28.921
26.274
23.543
20.829
18.237
15.943
14.089
12.757
12.008
11.853
12.295
13.347
14.99
17.172
19.837
22.927
26.391
30.189
34.267
38.558
42.984
47.46
51.924
56.335
60.661
64.882
68.985
72.962
76.817
80.57
84.235
87.822
91.337
94.783
98.169
101.511
104.822
108.116
111.404
114.694
117.997
121.319
124.666
128.041
131.445
134.874
138.33
141.812
145.321
148.856
152.417
156
159.601
163.217
166.84
170.46
174.067
177.648
181.188
184.672
188.084
191.403
194.612
197.691
200.618
203.372
205.933
208.277
210.383
212.23
213.796
215.063
216.01
216.62
216.875
216.762
216.266
215.377
214.086
212.384
210.266
207.731
204.777
201.407
197.624
193.436
188.852
183.884
178.548
172.86
166.841
160.513
153.899
147.027
139.925
132.621
125.148
117.537
109.821
102.034
94.211
86.385
78.592
70.866
63.239
55.745
48.415
41.28
34.368
27.706
21.319
15.231
9.462
4.032
-1.044
-5.752
-10.078
-14.016
-17.557
-20.698
-23.438
-25.779
-27.723
-29.278
-30.453
-31.258
-31.707
-31.814
-31.598
-31.076
-30.269
-29.197
-27.885
-26.354
-24.63
-22.736
-20.697
-18.538
-16.283
-13.955
-11.579
-9.176
-6.767
-4.373
-2.012
0.296
2.537
4.694
6.755
8.707
10.541
12.246
13.818
15.25
16.539
17.683
18.683
19.539
20.256
20.836
21.286
21.613
21.825
21.931
21.941
21.864
21.713
21.499
21.234
20.928
20.593
20.241
19.882
19.526
19.182
18.86
18.568
18.314
18.104
17.945
17.841
17.798
17.818
17.903
18.056
18.277
18.565
18.92
19.34
19.821
20.36
20.952
21.593
22.277
22.998
23.749
24.522
25.312
26.109
26.907
27.699
28.477
29.236
29.969
30.671
31.336
31.96
32.54
33.071
33.552
33.98
34.354
34.673
34.936
35.145
35.3
35.404
35.458
35.466
35.429
35.354
35.242
35.1
34.932
34.742
34.538
34.325
34.11
33.898
33.698
33.515
33.357
33.23
33.141
33.095
33.097
33.151
33.264
33.438
33.677
33.984
34.36
34.808
35.331
35.927
36.598
37.342
38.158
39.046
40.004
41.028
42.116
43.264
44.467
45.722
47.023
48.365
49.741
51.144
52.565
53.997
55.429
56.851
58.249
59.611
60.924
62.178
63.361
64.458
65.461
66.36
67.149
67.819
68.364
68.772
69.033
69.138
69.081
68.856
68.455
67.871
67.101
66.151
65.026
63.726
62.248
60.575
58.698
56.618
54.341
51.873
49.23
46.43
43.507
40.513
37.502
34.519
31.598
28.753
26.01
23.411
21.006
18.859
17.01
15.472
14.267
13.417
12.902
12.68
12.658
12.697
12.709
12.622
12.353
11.83
10.962
9.648
7.82
5.385
2.189
-1.805
-6.53
-11.821
-17.273
-22.46
-27.014
-30.421
-32.096
-31.737
-29.412
-25.522
-20.938
-16.592
-13.169
-11.428
-12.251
-15.222
-18.421
-19.901
-17.654
-12.102
-5.869
1.618
15.002
42.823
94.132
170.446
263.947
361.686
451.141
526.896
592.435
652.066
706.122
748.567
764.285
740.336
671.352
558.205
415.16
262.036
117.011
-0.499
-80.766
-125.408
-140.704
-140.045
-135.593
-131.409
-128.629
-125.172
-118.322
-109.819
-102.329
-97.793
-97.954
-102.416
-109.534
-117.911
-125.912
-132.043
-135.755
-137.066
-136.329
-134.233
-131.431
-128.425
-125.775
-124.062
-123.572
-124.353
-126.29
-129.098
-132.518
-136.359
-140.417
-144.484
-148.392
-151.965
-155.025
-157.471
-159.231
-160.253
-160.525
-160.028
-158.753
-156.731
-154.027
-150.711
-146.856
-142.525
-137.768
-132.651
-127.252
-121.661
-115.971
-110.25
-104.548
-98.903
-93.348
-87.908
-82.606
-77.446
-72.416
-67.513
-62.737
-58.091
-53.584
-49.215
-44.979
-40.869
-36.881
-33.013
-29.264
-25.631
-22.112
-18.706
-15.414
-12.239
-9.184
-6.252
-3.439
-0.744
1.834
4.299
6.65
8.89
11.02
13.04
14.948
16.742
18.418
19.973
21.401
22.697
23.856
24.87
25.732
26.436
26.973
27.335
27.514
27.5
27.284
26.859
26.215
25.345
24.24
22.893
21.298
19.449
17.341
14.97
12.333
9.427
6.253
2.812
-0.893
-4.859
-9.08
-13.548
-18.253
-23.186
-28.332
-33.677
-39.205
-44.899
-50.739
-56.706
-62.778
-68.933
-75.148
-81.401
-87.667
-93.922
-100.142
-106.303
-112.38
-118.351
-124.192
-129.879
-135.392
-140.71
-145.812
-150.68
-155.297
-159.647
-163.717
-167.493
-170.966
-174.126
-176.968
-179.485
-181.676
-183.54
-185.077
-186.293
-187.192
-187.781
-188.07
-188.069
-187.791
-187.25
-186.461
-185.44
-184.203
-182.769
-181.157
-179.384
-177.472
-175.438
-173.304
-171.089
-168.812
-166.492
-164.147
-161.796
-159.455
-157.141
-154.867
-152.648
-150.496
-148.423
-146.439
-144.553
-142.77
-141.097
-139.537
-138.094
-136.767
-135.555
-134.458
-133.47
-132.588
-131.807
-131.118
-130.515
-129.989
-129.531
-129.131
-128.78
-128.466
-128.18
-127.91
-127.646
-127.377
-127.094
-126.786
-126.446
-126.064
-125.633
-125.147
-124.599
-123.984
-123.3
-122.542
-121.71
-120.803
-119.821
-118.768
-117.645
-116.458
-115.212
-113.913
-112.57
-111.189
-109.781
-108.356
-106.923
-105.493
-104.079
-102.691
-101.342
-100.045
-98.81
-97.651
-96.579
-95.606
-94.743
-94.001
-93.388
-92.914
-92.587
-92.413
-92.4
-92.552
-92.873
-93.366
-94.032
-94.872
-95.885
-97.067
-98.416
-99.926
-101.592
-103.406
-105.359
-107.443
-109.648
-111.961
-114.373
-116.871
-119.441
-122.07
-124.743
-127.447
-130.166
-132.884
-135.586
-138.256
-140.879
-143.44
-145.924
-148.317
-150.605
-152.775
-154.815
-156.714
-158.461
-160.047
-161.461
-162.698
-163.75
-164.613
-165.283
-165.757
-166.034
-166.113
-165.998
-165.69
-165.192
-164.509
-163.646
-162.609
-161.407
-160.048
-158.541
-156.896
-155.126
-153.245
-151.27
-149.218
-147.104
-144.946
-142.76
-140.565
-138.379
-136.215
-134.083
-131.997
-129.97
-128.014
-126.145
-124.373
-122.707
-121.154
-119.726
-118.427
-117.262
-116.228
-115.317
-114.525
-113.853
-113.305
-112.891
-112.615
-112.474
-112.46
-112.566
-112.777
-113.072
-113.418
-113.762
-114.062
-114.283
-114.392
-114.366
-114.169
-113.755
-113.082
-112.102
-110.769
-109.051
-106.93
-104.398
-101.475
-98.198
-94.602
-90.762
-86.76
-82.677
-78.608
-74.612
-70.741
-67.082
-63.757
-60.872
-58.454
-56.366
-54.333
-52.073
-49.299
-45.68
-40.807
-34.268
-25.937
-16.25
-5.938
4.237
13.375
20.588
25.084
25.975
23.804
21.191
19.777
20.724
24.503
29.472
38.847
59.895
98.097
157.826
236.332
323.834
413.639
502.67
590.651
678.388
759.418
820.519
846.516
825.788
756.788
644.966
503.194
350.113
202.289
78.32
-6.496
-49.655
-53.076
-25.34
17.365
64.97
107.486
133.892
143.39
137.114
120.027
103.856
93.569
90.142
92.456
94.844
95.32
94.756
93.886
94.564
97.165
100.644
104.306
107.417
109.392
110.147
109.699
108.102
105.586
102.358
98.546
94.282
89.725
85.01
80.275
75.687
71.346
67.328
63.711
60.533
57.821
55.598
53.858
52.567
51.691
51.191
51.033
51.195
51.642
52.328
53.197
54.182
55.233
56.32
57.419
58.518
59.607
60.683
61.754
62.843
63.968
65.142
66.374
67.667
69.028
70.468
72.001
73.638
75.384
77.244
79.219
81.311
83.517
85.834
88.253
90.759
93.343
95.994
98.703
101.457
104.245
107.052
109.863
112.665
115.44
118.169
120.835
123.415
125.888
128.235
130.433
132.461
134.297
135.92
137.306
138.437
139.292
139.851
140.095
140.006
139.568
138.767
137.59
136.025
134.063
131.696
128.919
125.73
122.126
118.11
113.685
108.856
103.633
98.025
92.046
85.71
79.034
72.038
64.741
57.168
49.342
41.29
33.039
24.617
16.054
7.38
-1.374
-10.176
-18.995
-27.799
-36.557
-45.238
-53.812
-62.248
-70.518
-78.595
-86.453
-94.067
-101.414
-108.472
-115.222
-121.647
-127.731
-133.46
-138.824
-143.813
-148.42
-152.641
-156.473
-159.914
-162.965
-165.629
-167.911
-169.816
-171.351
-172.526
-173.352
-173.838
-173.999
-173.848
-173.399
-172.667
-171.668
-170.418
-168.932
-167.228
-165.321
-163.228
-160.964
-158.545
-155.987
-153.303
-150.507
-147.614
-144.634
-141.579
-138.459
-135.284
-132.062
-128.801
-125.507
-122.187
-118.846
-115.489
-112.121
-108.745
-105.364
-101.982
-98.602
-95.224
-91.853
-88.488
-85.133
-81.789
-78.459
-75.143
-71.845
-68.566
-65.31
-62.077
-58.871
-55.695
-52.551
-49.443
-46.374
-43.348
-40.37
-37.446
-34.579
-31.777
-29.044
-26.387
-23.812
-21.325
-18.931
-16.636
-14.446
-12.366
-10.401
-8.554
-6.831
-5.233
-3.765
-2.427
-1.22
-0.145
0.798
1.612
2.297
2.855
3.29
3.604
3.8
3.881
3.851
3.715
3.478
3.145
2.723
2.219
1.64
0.993
0.286
-0.471
-1.271
-2.106
-2.968
-3.848
-4.74
-5.634
-6.523
-7.4
-8.258
-9.09
-9.892
-10.656
-11.38
-12.059
-12.691
-13.273
-13.8
-14.27
-14.678
-15.021
-15.293
-15.488
-15.599
-15.622
-15.552
-15.384
-15.116
-14.746
-14.271
-13.693
-13.012
-12.228
-11.339
-10.34
-9.226
-7.994
-6.639
-5.155
-3.536
-1.773
0.138
2.196
4.4
6.753
9.261
11.94
14.794
17.818
21.003
24.337
27.799
31.37
35.012
38.67
42.294
45.833
49.259
52.568
55.753
58.805
61.716
64.469
67.069
69.557
71.956
74.284
76.566
78.82
81.111
83.542
86.201
89.154
92.424
95.978
99.786
103.812
107.998
112.275
116.533
120.612
124.398
127.815
130.784
133.255
135.118
136.204
136.383
135.557
133.677
130.765
126.848
121.966
116.217
109.729
102.679
95.295
87.731
80.094
72.475
64.893
57.419
50.172
43.248
36.758
30.785
25.334
20.394
15.943
11.909
8.235
4.787
1.291
-2.371
-6.135
-9.799
-12.858
-14.839
-15.496
-14.457
-11.191
-5.497
2.413
11.981
21.999
31.175
38.684
43.568
44.499
41.76
37.598
34.274
34.997
40.316
46.696
54.268
66.676
91.517
140.062
216.497
316.862
432.262
550.692
664.099
767.327
853.824
916.035
943.003
924.8
859.074
748.256
603.228
442.82
284.977
149.518
52.202
-4.461
-23.056
-12.764
11.075
39.981
65.748
79.437
80.627
68.868
47.283
25.954
9.037
-2.345
-8.794
-15.804
-25.377
-36.164
-47.126
-56.213
-62.713
-67.645
-71.749
-75.588
-79.704
-84.414
-89.864
-96.128
-103.118
-110.574
-118.315
-126.23
-134.161
-141.927
-149.351
-156.249
-162.463
-167.897
-172.465
-176.095
-178.745
-180.389
-181.027
-180.68
-179.389
-177.202
-174.17
-170.342
-165.769
-160.51
-154.64
-148.244
-141.412
-134.221
-126.73
-118.991
-111.046
-102.934
-94.683
-86.314
-77.836
-69.26
-60.604
-51.886
-43.13
-34.354
-25.571
-16.796
-8.038
0.688
9.364
17.975
26.504
34.936
43.25
51.428
59.446
67.285
74.928
82.361
89.57
96.54
103.257
109.709
115.884
121.77
127.354
132.625
137.568
142.172
146.424
150.314
153.829
156.958
159.692
162.02
163.934
165.425
166.486
167.11
167.291
167.027
166.313
165.148
163.534
161.471
158.963
156.015
152.634
148.828
144.608
139.984
134.97
129.579
123.828
117.733
111.312
104.585
97.573
90.299
82.785
75.057
67.139
59.059
50.843
42.519
34.114
25.657
17.175
8.697
0.248
-8.143
-16.45
-24.649
-32.715
-40.625
-48.357
-55.893
-63.213
-70.301
-77.141
-83.722
-90.031
-96.059
-101.798
-107.24
-112.381
-117.218
-121.749
-125.973
-129.893
-133.51
-136.829
-139.855
-142.595
-145.056
-147.248
-149.178
-150.859
-152.3
-153.513
-154.511
-155.305
-155.907
-156.331
-156.588
-156.691
-156.651
-156.48
-156.187
-155.782
-155.274
-154.672
-153.984
-153.214
-152.371
-151.459
-150.483
-149.446
-148.353
-147.205
-146.006
-144.756
-143.456
-142.108
-140.713
-139.27
-137.78
-136.242
-134.658
-133.027
-131.35
-129.625
-127.855
-126.038
-124.176
-122.269
-120.32
-118.329
-116.299
-114.233
-112.134
-110.006
-107.854
-105.681
-103.494
-101.298
-99.1
-96.905
-94.721
-92.555
-90.415
-88.307
-86.239
-84.218
-82.252
-80.348
-78.511
-76.748
-75.064
-73.463
-71.95
-70.529
-69.203
-67.972
-66.84
-65.806
-64.871
-64.035
-63.294
-62.647
-62.092
-61.623
-61.237
-60.928
-60.691
-60.52
-60.407
-60.347
-60.33
-60.349
-60.396
-60.462
-60.538
-60.616
-60.686
-60.74
-60.77
-60.769
-60.729
-60.643
-60.507
-60.313
-60.059
-59.738
-59.35
-58.89
-58.357
-57.751
-57.071
-56.318
-55.493
-54.6
-53.639
-52.615
-51.531
-50.39
-49.197
-47.955
-46.669
-45.343
-43.98
-42.586
-41.164
-39.72
-38.258
-36.78
-35.29
-33.79
-32.284
-30.772
-29.256
-27.735
-26.211
-24.682
-23.147
-21.606
-20.054
-18.488
-16.906
-15.303
-13.674
-12.017
-10.324
-8.593
-6.819
-4.998
-3.128
-1.205
0.773
2.808
4.896
7.034
9.214
11.428
13.667
15.921
18.179
20.432
22.669
24.885
27.07
29.217
31.312
33.339
35.28
37.117
38.837
40.428
41.882
43.196
44.366
45.39
46.259
46.956
47.45
47.71
47.703
47.405
46.795
45.861
44.614
43.069
41.252
39.177
36.835
34.215
31.322
28.178
24.834
21.376
17.857
14.356
10.996
7.799
4.733
1.693
-1.617
-5.462
-9.894
-14.963
-20.677
-26.748
-32.917
-38.793
-43.629
-47.026
-49.092
-50.03
-50.297
-50.62
-51.47
-53.481
-57.663
-64.403
-73.529
-84.653
-97.024
-110.056
-123.64
-137.446
-150.765
-163.324
-175.103
-186.043
-196.242
-204.217
-206.802
-202.247
-189.666
-169.209
-142.984
-108.769
-60.923
4.116
89.193
190.576
297.888
404.145
504.991
598.945
687.048
764.081
819.178
839.847
815.236
742.82
627.224
480.302
320.015
163.889
31.137
-63.487
-116.52
-129.923
-114.47
-85.678
-53.517
-27.315
-12.01
-5.582
-6.092
-8.46
-7.568
-3.158
3.554
9.649
12.789
13.721
14.472
17.101
22.428
29.933
38.709
47.875
56.894
65.33
72.601
78.366
82.575
85.344
86.945
87.614
87.501
86.793
85.741
84.566
83.468
82.639
82.186
82.185
82.717
83.814
85.492
87.763
90.598
93.935
97.723
101.902
106.415
111.218
116.249
121.432
126.687
131.929
137.093
142.144
147.048
151.787
156.35
160.731
164.939
168.999
172.928
176.736
180.433
184.021
187.509
190.912
194.244
197.517
200.741
203.92
207.061
210.168
213.243
216.284
219.288
222.247
225.154
228.008
230.803
233.534
236.198
238.786
241.292
243.709
246.028
248.239
250.329
252.286
254.098
255.75
257.231
258.526
259.622
260.506
261.166
261.589
261.764
261.681
261.328
260.697
259.78
258.571
257.063
255.254
253.14
250.721
247.998
244.974
241.655
238.045
234.152
229.987
225.561
220.885
215.975
210.844
205.511
199.992
194.306
188.474
182.517
176.456
170.312
164.107
157.864
151.604
145.349
139.12
132.938
126.822
120.791
114.864
109.058
103.388
97.868
92.512
87.332
82.336
77.534
72.932
68.535
64.347
60.371
56.606
53.052
49.708
46.571
43.636
40.9
38.355
35.995
33.813
31.801
29.95
28.252
26.696
25.275
23.977
22.793
21.713
20.729
19.829
19.006
18.249
17.551
16.902
16.296
15.726
15.184
14.665
14.164
13.676
13.197
12.724
12.253
11.783
11.31
10.834
10.352
9.862
9.364
8.855
8.335
7.801
7.252
6.686
6.101
5.495
4.866
4.212
3.53
2.818
2.072
1.29
0.469
-0.393
-1.3
-2.255
-3.261
-4.321
-5.438
-6.616
-7.859
-9.168
-10.549
-12.003
-13.535
-15.145
-16.837
-18.613
-20.473
-22.419
-24.45
-26.566
-28.765
-31.045
-33.404
-35.836
-38.339
-40.905
-43.531
-46.207
-48.928
-51.684
-54.468
-57.271
-60.082
-62.893
-65.694
-68.474
-71.224
-73.932
-76.589
-79.184
-81.707
-84.148
-86.496
-88.743
-90.879
-92.895
-94.784
-96.539
-98.152
-99.619
-100.934
-102.094
-103.097
-103.941
-104.626
-105.152
-105.522
-105.738
-105.806
-105.73
-105.517
-105.175
-104.711
-104.136
-103.459
-102.69
-101.841
-100.923
-99.948
-98.927
-97.873
-96.798
-95.713
-94.632
-93.566
-92.527
-91.527
-90.575
-89.683
-88.86
-88.114
-87.454
-86.885
-86.415
-86.047
-85.786
-85.636
-85.597
-85.671
-85.857
-86.155
-86.563
-87.077
-87.695
-88.411
-89.22
-90.117
-91.096
-92.151
-93.276
-94.466
-95.717
-97.026
-98.389
-99.802
-101.263
-102.769
-104.317
-105.904
-107.527
-109.181
-110.865
-112.577
-114.319
-116.094
-117.903
-119.75
-121.636
-123.565
-125.542
-127.568
-129.641
-131.76
-133.924
-136.142
-138.428
-140.796
-143.253
-145.801
-148.44
-151.165
-153.967
-156.827
-159.708
-162.575
-165.391
-168.13
-170.776
-173.311
-175.708
-177.929
-179.918
-181.635
-183.055
-184.166
-184.962
-185.451
-185.656
-185.645
-185.531
-185.418
-185.405
-185.583
-186.025
-186.842
-188.145
-190.025
-192.589
-195.947
-200.138
-205.141
-210.833
-216.908
-223.044
-228.934
-234.157
-238.273
-240.953
-241.971
-241.451
-239.99
-238.137
-236.26
-234.877
-234.453
-235.353
-238.116
-241.654
-243.015
-239.833
-229.685
-212.894
-193.421
-171.892
-146.981
-113.892
-62.738
10.113
103.736
213.612
328.45
440.013
539.702
616.258
659.701
658.464
606.751
507.148
369.759
212.223
52.783
-91.089
-206.205
-285.596
-328.363
-341.182
-333.449
-317.103
-302.336
-293.567
-293.78
-300.504
-308.665
-316.193
-320.414
-321.93
-324.374
-328.57
-334.652
-341.535
-346.241
-347.604
-345.841
-341.368
-335.285
-328.52
-321.543
-314.965
-309.413
-305.159
-302.275
-300.725
-300.331
-300.928
-302.407
-304.6
-307.319
-310.444
-313.846
-317.38
-320.899
-324.222
-327.207
-329.774
-331.875
-333.483
-334.591
-335.207
-335.365
-335.124
-334.539
-333.653
-332.508
-331.138
-329.594
-327.944
-326.255
-324.603
-323.036
-321.581
-320.254
-319.057
-317.985
-317.021
-316.136
-315.291
-314.453
-313.6
-312.709
-311.763
-310.74
-309.615
-308.365
-306.969
-305.408
-303.667
-301.733
-299.595
-297.247
-294.688
-291.919
-288.947
-285.777
-282.418
-278.878
-275.168
-271.299
-267.283
-263.135
-258.871
-254.507
-250.062
-245.557
-241.014
-236.457
-231.911
-227.401
-222.956
-218.6
-214.362
-210.27
-206.352
-202.638
-199.156
-195.927
-192.976
-190.325
-187.999
-186.023
-184.416
-183.182
-182.328
-181.861
-181.781
-182.083
-182.746
-183.728
-184.988
-186.484
-188.175
-190.022
-191.983
-194.014
-196.072
-198.118
-200.131
-202.103
-204.016
-205.84
-207.538
-209.079
-210.485
-211.826
-213.18
-214.625
-216.226
-218.04
-220.115
-222.45
-224.948
-227.408
-229.541
-231.071
-231.838
-231.78
-231.002
-229.696
-228.265
-227.35
-227.446
-229.011
-231.59
-233.575
-234.365
-233.831
-232.709
-233.592
-234.928
-231.72
-219.194
-190.967
-147.433
-96.192
-43.775
2.582
39.915
71.171
97.579
119.486
137.151
149.523
156.932
161.128
163.311
164.324
165.063
166.295
168.364
171.253
174.519
177.266
179.031
179.883
179.839
178.89
177.146
174.713
171.895
169.25
167.101
165.543
164.622
164.28
164.471
165.222
166.492
168.149
170.097
172.224
174.417
176.638
178.832
180.935
182.915
184.732
186.367
187.835
189.163
190.383
191.534
192.638
193.71
194.78
195.881
197.054
198.348
199.788
201.389
203.162
205.109
207.232
209.525
211.967
214.525
217.17
219.872
222.605
225.347
228.069
230.739
233.329
235.808
238.151
240.338
242.349
244.166
245.775
247.162
248.321
249.247
249.937
250.385
250.589
250.547
250.26
249.733
248.97
247.979
246.768
245.349
243.736
241.944
239.989
237.887
235.658
233.32
230.896
228.407
225.877
223.33
220.788
218.277
215.821
213.442
211.161
208.999
206.971
205.096
203.386
201.855
200.511
199.364
198.421
197.692
197.185
196.909
196.866
197.06
197.491
198.155
199.044
200.146
201.443
202.917
204.552
206.333
208.25
210.289
212.431
214.656
216.935
219.234
221.511
223.723
225.825
227.781
229.572
231.189
232.641
233.945
235.119
236.172
237.101
237.895
238.534
238.999
239.294
239.424
239.399
239.238
238.934
238.463
237.829
236.99
235.826
234.262
232.243
229.766
227.017
224.169
221.206
218.112
214.848
211.123
206.633
200.978
193.391
183.328
170.803
156.041
139.677
122.91
106.81
92.522
81.627
75.24
73.73
77.14
84.725
95.068
107.077
119.589
131.136
140.798
148.031
152.439
154.515
155.262
155.438
156.015
157.81
161.014
165.916
172.778
180.973
189.377
196.519
200.406
199.601
193.371
180.769
160.998
134.127
100.816
62.622
21.964
-19.107
-58.936
-95.608
-127.303
-152.9
-170.601
-178.219
-174.741
-159.058
-132.813
-101.116
-66.261
-27.785
18.536
80.986
162.788
261.307
370.216
480.57
585.888
680.104
756.097
804.375
813.91
780.436
705.194
595.087
464.698
327.266
196.366
88.099
10.845
-33.936
-49.517
-47.74
-38.882
-25.051
-8.987
7.806
24.49
33.889
33.374
26.47
15.584
5.976
0.263
-4.239
-8.323
-12.25
-16.061
-18.048
-17.753
-15.938
-13.215
-10.38
-8.138
-6.856
-6.75
-7.928
-10.294
-13.596
-17.646
-22.302
-27.405
-32.791
-38.291
-43.722
-48.929
-53.813
-58.292
-62.289
-65.749
-68.633
-70.921
-72.619
-73.754
-74.356
-74.452
-74.073
-73.245
-72.007
-70.41
-68.512
-66.379
-64.059
-61.586
-58.984
-56.271
-53.456
-50.544
-47.528
-44.394
-41.129
-37.727
-34.185
-30.504
-26.682
-22.714
-18.593
-14.314
-9.875
-5.276
-0.519
4.391
9.451
14.652
19.983
25.43
30.98
36.624
42.348
48.145
54
59.901
65.835
71.788
77.747
83.695
89.615
95.489
101.298
107.024
112.648
118.153
123.518
128.724
133.753
138.587
143.207
147.595
151.733
155.605
159.193
162.484
165.462
168.113
170.425
172.386
173.987
175.219
176.073
176.544
176.627
176.318
175.616
174.521
173.033
171.156
168.894
166.254
163.243
159.871
156.149
152.09
147.707
143.015
138.03
132.769
127.25
121.491
115.513
109.334
102.976
96.459
89.805
83.034
76.168
69.229
62.237
55.215
48.184
41.164
34.175
27.238
20.373
13.597
6.93
0.389
-6.011
-12.253
-18.322
-24.205
-29.89
-35.365
-40.62
-45.644
-50.432
-54.975
-59.268
-63.307
-67.089
-70.611
-73.873
-76.876
-79.62
-82.108
-84.343
-86.329
-88.073
-89.58
-90.857
-91.914
-92.759
-93.402
-93.855
-94.129
-94.236
-94.191
-94.005
-93.695
-93.273
-92.755
-92.157
-91.494
-90.781
-90.034
-89.269
-88.5
-87.742
-87.011
-86.319
-85.68
-85.107
-84.611
-84.203
-83.893
-83.69
-83.604
-83.641
-83.807
-84.107
-84.547
-85.129
-85.854
-86.723
-87.735
-88.889
-90.181
-91.607
-93.162
-94.837
-96.626
-98.52
-100.507
-102.578
-104.72
-106.919
-109.163
-111.436
-113.724
-116.011
-118.283
-120.522
-122.714
-124.844
-126.895
-128.853
-130.703
-132.432
-134.026
-135.472
-136.758
-137.873
-138.806
-139.548
-140.09
-140.425
-140.546
-140.448
-140.126
-139.577
-138.8
-137.794
-136.559
-135.097
-133.411
-131.505
-129.384
-127.055
-124.526
-121.804
-118.9
-115.823
-112.586
-109.199
-105.676
-102.029
-98.272
-94.416
-90.477
-86.467
-82.4
-78.288
-74.144
-69.981
-65.811
-61.647
-57.5
-53.381
-49.301
-45.271
-41.301
-37.399
-33.575
-29.836
-26.189
-22.64
-19.197
-15.863
-12.644
-9.543
-6.564
-3.709
-0.981
1.619
4.09
6.433
8.648
10.735
12.696
14.531
16.243
17.832
19.298
20.639
21.853
22.939
23.895
24.721
25.416
25.977
26.406
26.706
26.882
26.936
26.868
26.677
26.364
25.931
25.382
24.719
23.942
23.055
22.065
20.988
19.832
18.604
17.302
15.917
14.444
12.89
11.259
9.561
7.809
6.019
4.223
2.471
0.808
-0.727
-2.108
-3.32
-4.332
-5.101
-5.58
-5.716
-5.478
-4.849
-3.802
-2.332
-0.458
1.774
4.284
6.977
9.774
12.59
15.329
17.905
20.224
22.207
23.774
24.775
25.129
24.867
24.138
23.268
22.608
22.397
22.926
24.662
27.926
32.729
38.664
44.839
50.458
55.055
58.215
59.355
57.846
54.578
52.287
53.857
61.959
75.98
91.959
109.293
130.476
161.329
210.671
281.004
368.193
464.737
561.659
652.575
732.863
797.605
837.095
840.068
800.411
716.598
597.461
459.983
320.256
194.521
95.887
30.104
-1.052
-0.568
21.235
52.453
81.335
96.335
94.361
78.346
54.437
33.138
19.514
13.246
12.212
11.054
7.601
3.235
-0.734
-2.364
-0.929
2.786
8.129
14.555
21.48
28.399
35.061
41.38
47.392
53.296
59.108
64.511
69.253
73.331
76.684
79.331
81.367
82.509
82.819
83.169
84.417
87.093
90.813
93.841
94.437
92.405
89.811
89.351
92.222
96.486
94.853
78.869
42.875
-14.061
-83.457
-151.91
-206.094
-236.672
-244.094
-235.484
-221.266
-210.033
-204.379
-203.207
-202.792
-200.432
-196.27
-191.329
-187.038
-184.072
-181.784
-179.207
-175.736
-171.037
-165.064
-158.023
-150.104
-141.54
-132.711
-124.003
-115.616
-107.663
-100.164
-93.038
-86.235
-79.66
-73.171
-66.626
-59.897
-52.917
-45.676
-38.176
-30.416
-22.401
-14.138
-5.646
3.028
11.839
20.742
29.687
38.623
47.484
56.197
64.684
72.861
80.666
88.047
94.961
101.368
107.239
112.541
117.253
121.368
124.875
127.761
130.017
131.633
132.604
132.932
132.622
131.683
130.122
127.948
125.169
121.799
117.849
113.335
108.269
102.667
96.545
89.924
82.828
75.282
67.313
58.947
50.214
41.145
31.771
22.124
12.235
2.137
-8.138
-18.555
-29.081
-39.679
-50.316
-60.955
-71.56
-82.095
-92.523
-102.809
-112.917
-122.813
-132.462
-141.833
-150.892
-159.61
-167.956
-175.904
-183.426
-190.497
-197.094
-203.197
-208.786
-213.844
-218.357
-222.312
-225.7
-228.513
-230.746
-232.397
-233.465
-233.954
-233.867
-233.215
-232.007
-230.257
-227.982
-225.203
-221.94
-218.22
-214.07
-209.521
-204.605
-199.355
-193.807
-187.999
-181.969
-175.756
-169.4
-162.942
-156.422
-149.88
-143.359
-136.897
-130.534
-124.309
-118.258
-112.417
-106.82
-101.499
-96.484
-91.802
-87.477
-83.533
-79.988
-76.859
-74.159
-71.898
-70.082
-68.715
-67.795
-67.32
-67.282
-67.672
-68.475
-69.676
-71.256
-73.196
-75.471
-78.059
-80.933
-84.066
-87.431
-90.999
-94.74
-98.623
-102.62
-106.698
-110.829
-114.982
-119.129
-123.242
-127.297
-131.267
-135.131
-138.869
-142.463
-145.894
-149.151
-152.219
-155.091
-157.759
-160.22
-162.471
-164.514
-166.351
-167.988
-169.433
-170.695
-171.783
-172.706
-173.478
-174.108
-174.608
-174.989
-175.26
-175.433
-175.521
-175.533
-175.483
-175.381
-175.239
-175.07
-174.885
-174.691
-174.493
-174.293
-174.089
-173.878
-173.653
-173.406
-173.126
-172.803
-172.425
-171.982
-171.468
-170.867
-170.163
-169.335
-168.352
-167.195
-165.849
-164.299
-162.538
-160.568
-158.398
-156.054
-153.569
-150.955
-148.219
-145.356
-142.338
-139.149
-135.771
-132.178
-128.371
-124.348
-120.1
-115.633
-110.949
-106.022
-100.823
-95.288
-89.337
-82.935
-76.077
-68.78
-61.118
-53.167
-45.024
-36.821
-28.659
-20.626
-12.816
-5.287
1.903
8.662
14.892
20.459
25.192
28.975
31.726
33.393
33.994
33.573
32.208
30.046
27.218
23.837
20.016
15.829
11.342
6.66
1.887
-2.859
-7.427
-11.698
-15.569
-18.926
-21.713
-23.924
-25.615
-26.918
-27.937
-28.722
-29.368
-30.051
-31.052
-32.67
-35.035
-38.1
-41.866
-46.417
-51.74
-57.544
-63.002
-67.105
-69.243
-69.21
-67.023
-62.79
-56.666
-49.277
-42.444
-38.389
-38.727
-44.764
-56.367
-71.815
-89.801
-108.316
-125.364
-141.643
-156.579
-166.754
-167.039
-147.873
-100.501
-23.629
79.727
201.574
329.686
455.822
570.805
662.632
723.561
743.697
716.219
643.737
529.102
382.555
221.989
63.731
-71.62
-167.552
-220.456
-232.161
-213.757
-182.076
-148.398
-122.967
-111.515
-111.55
-119.542
-129.109
-134.045
-133.705
-130.031
-127.016
-127.793
-132.184
-138.252
-143.23
-145.708
-146.006
-144.847
-143.001
-140.93
-138.688
-136.482
-134.889
-134.226
-134.514
-135.708
-137.616
-140.074
-143.086
-146.593
-150.31
-153.996
-157.443
-160.454
-162.986
-165.006
-166.436
-167.234
-167.391
-166.915
-165.849
-164.253
-162.15
-159.563
-156.519
-153.049
-149.211
-145.073
-140.708
-136.17
-131.496
-126.709
-121.829
-116.867
-111.834
-106.727
-101.53
-96.228
-90.817
-85.293
-79.662
-73.923
-68.07
-62.093
-55.986
-49.746
-43.377
-36.882
-30.265
-23.533
-16.693
-9.762
-2.755
4.312
11.426
18.573
25.741
32.915
40.079
47.217
54.313
61.352
68.313
75.179
81.929
88.541
94.998
101.279
107.363
113.23
118.862
124.237
129.338
134.147
138.643
142.811
146.633
150.092
153.176
155.869
158.161
160.039
161.495
162.522
163.113
163.263
162.97
162.232
161.048
159.422
157.356
154.855
151.927
148.579
144.823
140.671
136.137
131.237
125.986
120.404
114.509
108.323
101.867
95.163
88.237
81.112
73.814
66.369
58.805
51.149
43.429
35.673
27.908
20.163
12.465
4.843
-2.678
-10.069
-17.304
-24.357
-31.204
-37.819
-44.18
-50.264
-56.049
-61.517
-66.648
-71.425
-75.833
-79.856
-83.482
-86.699
-89.498
-91.87
-93.809
-95.31
-96.371
-96.991
-97.172
-96.916
-96.228
-95.116
-93.589
-91.656
-89.331
-86.626
-83.559
-80.147
-76.407
-72.362
-68.033
-63.444
-58.618
-53.581
-48.359
-42.979
-37.468
-31.854
-26.165
-20.43
-14.677
-8.934
-3.23
2.407
7.952
13.376
18.655
23.764
28.68
33.383
37.85
42.066
46.012
49.675
53.041
56.101
58.846
61.271
63.371
65.145
66.595
67.724
68.537
69.043
69.251
69.174
68.825
68.221
67.378
66.316
65.054
63.616
62.023
60.301
58.473
56.566
54.606
52.618
50.629
48.665
46.751
44.912
43.173
41.556
40.084
38.777
37.655
36.734
36.03
35.557
35.326
35.346
35.625
36.166
36.972
38.043
39.378
40.972
42.818
44.909
47.235
49.783
52.539
55.489
58.616
61.9
65.324
68.868
72.51
76.23
80.006
83.816
87.641
91.457
95.245
98.985
102.657
106.242
109.724
113.086
116.315
119.397
122.322
125.08
127.666
130.074
132.302
134.348
136.213
137.898
139.408
140.75
141.931
142.959
143.844
144.598
145.235
145.767
146.208
146.573
146.875
147.13
147.351
147.554
147.75
147.952
148.171
148.419
148.707
149.044
149.435
149.888
150.405
150.991
151.645
152.365
153.143
153.973
154.845
155.749
156.672
157.602
158.523
159.421
160.283
161.098
161.85
162.521
163.093
163.546
163.867
164.04
164.049
163.88
163.516
162.954
162.192
161.228
160.057
158.667
157.038
155.161
153.038
150.67
148.068
145.247
142.224
139.04
135.753
132.417
129.081
125.782
122.549
119.427
116.477
113.764
111.358
109.304
107.636
106.393
105.593
105.226
105.257
105.609
106.19
106.926
107.736
108.531
109.217
109.681
109.829
109.545
108.682
107.185
105.098
102.594
100.048
97.888
96.486
96.319
97.947
101.712
107.66
115.373
123.942
132.419
140.055
146.141
149.9
150.872
149.312
146.584
144.97
146.996
155.205
172.121
200.493
243.075
300.611
370.739
449.962
534.116
621.192
713.041
809.422
905.999
993
1054.721
1076.122
1048.658
972.324
854.188
708.257
551.467
399.539
270.075
175.515
118.209
94.531
92.067
96.572
101.907
106.687
113.84
127.942
148.162
170.841
192.187
208.333
217.864
220.972
218.061
210.115
198.513
184.666
169.932
155.595
142.515
131.311
122.401
115.793
111.08
107.607
104.596
101.193
96.888
91.398
84.572
76.52
67.461
57.694
47.682
37.956
28.86
20.594
13.264
6.852
1.371
-3.148
-6.745
-9.483
-11.405
-12.539
-12.892
-12.456
-11.261
-9.362
-6.819
-3.694
-0.023
4.171
8.865
14.041
19.675
25.729
32.165
38.923
45.933
53.127
60.451
67.871
75.366
82.917
90.496
98.065
105.589
113.037
120.382
127.592
134.65
141.574
148.402
155.237
162.219
169.399
176.752
184.169
191.434
198.335
204.747
210.557
215.632
220.11
224.319
228.697
233.953
240.663
249.087
259.265
270.95
283.303
295.095
305.036
311.446
312.808
308.064
296.445
277.868
253.204
223.992
191.905
159.047
127.562
99.213
75.685
58.015
46.249
39.725
37.501
38.216
40.306
42.489
43.434
42.115
38.173
31.656
22.901
12.588
1.529
-9.716
-20.652
-30.921
-40.472
-49.352
-57.73
-65.952
-74.37
-83.169
-92.402
-102.016
-111.856
-121.786
-131.696
-141.464
-150.981
-160.192
-169.078
-177.659
-185.969
-194.02
-201.785
-209.217
-216.27
-222.915
-229.147
-234.979
-240.434
-245.544
-250.339
-254.846
-259.084
-263.058
-266.763
-270.183
-273.298
-276.09
-278.55
-280.68
-282.489
-283.986
-285.175
-286.058
-286.634
-286.902
-286.867
-286.531
-285.894
-284.969
-283.778
-282.361
-280.78
-279.097
-277.369
-275.66
-274.023
-272.52
-271.215
-270.149
-269.346
-268.825
-268.596
-268.685
-269.143
-269.982
-271.158
-272.597
-274.172
-275.756
-277.279
-278.623
-279.618
-280.178
-280.281
-280.02
-279.686
-279.532
-279.582
-279.833
-280.245
-280.602
-280.78
-280.608
-279.595
-277.422
-274.304
-270.708
-267.375
-265.458
-265.786
-268.946
-275.93
-287.543
-303.947
-325.066
-350.454
-379
-409.985
-443.144
-477.62
-512.404
-546.719
-579.488
-609.66
-636.824
-660.222
-678.643
-691.514
-698.649
-700.068
-696.484
-688.891
-677.841
-664.066
-648.634
-632.23
-615.317
-598.203
-580.703
-562.435
-543.367
-523.517
-502.757
-481.152
-458.849
-436.025
-413.124
-390.689
-369.066
-348.527
-329.364
-311.74
-295.776
-281.562
-268.996
-257.909
-248.183
-239.701
-232.412
-226.316
-221.347
-217.41
-214.42
-212.269
-210.854
-210.044
-209.622
-209.373
-209.147
-208.848
-208.478
-208.056
-207.555
-206.937
-206.132
-205.046
-203.628
-201.846
-199.663
-197.061
-194.028
-190.574
-186.775
-182.706
-178.394
-173.824
-168.907
-163.561
-157.776
-151.567
-144.993
-138.145
-131.082
-123.851
-116.512
-109.107
-101.675
-94.247
-86.815
-79.371
-71.944
-64.594
-57.43
-50.556
-44.019
-37.84
-32.001
-26.455
-21.183
-16.169
-11.389
-6.837
-2.512
1.581
5.407
8.931
12.133
15.018
17.619
19.97
22.074
23.917
25.462
26.66
27.486
27.916
27.92
27.49
26.628
25.357
23.736
21.83
19.691
17.361
14.864
12.233
9.523
6.8
4.141
1.609
-0.752
-2.892
-4.755
-6.331
-7.637
-8.737
-9.733
-10.687
-11.652
-12.701
-13.908
-15.365
-17.172
-19.38
-22.076
-25.433
-29.504
-34.219
-39.414
-44.655
-49.489
-53.6
-56.503
-57.548
-56.441
-53.298
-48.531
-43.146
-38.217
-34.383
-32.543
-34.055
-38.551
-43.666
-47.147
-45.807
-39.553
-32.708
-25.461
-14.286
8.77
56.061
132.28
233.494
350.587
470.747
585.681
690.517
778.885
843.243
871.63
852.573
782.234
662.081
504.305
330.329
162.228
24.091
-68.606
-115.348
-124.012
-109.676
-84.848
-53.953
-18.213
20.784
56.889
82.602
92.943
88.98
78.6
67.87
59.725
53.765
45.548
33.787
19.956
5.744
-5.959
-13.953
-18.805
-21.03
-21.491
-21.27
-21.195
-21.859
-23.729
-26.949
-31.418
-37.011
-43.508
-50.498
-57.504
-64.209
-70.404
-76.004
-81.039
-85.502
-89.375
-92.699
-95.534
-97.92
-99.889
-101.446
-102.573
-103.293
-103.649
-103.698
-103.514
-103.146
-102.623
-101.97
-101.201
-100.327
-99.358
-98.29
-97.111
-95.813
-94.391
-92.843
-91.169
-89.364
-87.414
-85.305
-83.019
-80.543
-77.867
-74.987
-71.897
-68.596
-65.083
-61.362
-57.441
-53.326
-49.024
-44.541
-39.884
-35.062
-30.09
-24.984
-19.76
-14.437
-9.035
-3.576
1.915
7.415
12.898
18.344
23.725
29.015
34.183
39.2
44.035
48.661
53.048
57.165
60.981
64.465
67.587
70.324
72.65
74.534
75.945
76.849
77.222
77.055
76.343
75.084
73.281
70.938
68.073
64.722
60.919
56.692
52.072
47.081
41.756
36.158
30.344
24.377
18.299
12.122
5.855
-0.491
-6.911
-13.403
-19.975
-26.67
-33.528
-40.573
-47.835
-55.321
-63.059
-71.122
-79.514
-88.2
-97.056
-105.796
-114.11
-121.737
-128.432
-134.026
-138.649
-142.433
-145.578
-148.802
-152.709
-157.669
-164.122
-171.137
-177.109
-181.688
-183.826
-183.645
-181.726
-174.481
-159.464
-134.235
-96.585
-51.311
-2.901
44.514
85.633
120.347
148.739
170.045
185.435
195
198.911
198.889
196.574
193.455
191.183
190.72
192.276
195.762
200.836
206.845
213.071
219.053
224.332
228.646
232.082
234.776
236.955
238.971
241.142
243.635
246.529
249.806
253.355
257.088
260.896
264.629
268.132
271.301
274.09
276.482
278.471
280.04
281.16
281.82
282.03
281.81
281.18
280.165
278.788
277.081
275.088
272.857
270.441
267.877
265.183
262.373
259.458
256.449
253.356
250.18
246.915
243.555
240.1
236.548
232.899
229.147
225.284
221.299
217.183
212.931
208.537
204
199.319
194.493
189.526
184.421
179.185
173.825
168.344
162.748
157.04
151.227
145.315
139.311
133.222
127.056
120.822
114.531
108.194
101.823
95.428
89.02
82.612
76.215
69.841
63.502
57.208
50.971
44.804
38.718
32.726
26.839
21.068
15.426
9.921
4.567
-0.628
-5.653
-10.499
-15.157
-19.619
-23.877
-27.922
-31.748
-35.348
-38.718
-41.851
-44.744
-47.392
-49.793
-51.945
-53.849
-55.502
-56.905
-58.06
-58.968
-59.632
-60.055
-60.241
-60.195
-59.919
-59.423
-58.711
-57.793
-56.677
-55.373
-53.893
-52.252
-50.468
-48.555
-46.531
-44.413
-42.22
-39.971
-37.684
-35.373
-33.053
-30.741
-28.453
-26.212
-24.036
-21.941
-19.946
-18.064
-16.314
-14.711
-13.265
-11.98
-10.861
-9.919
-9.169
-8.64
-8.354
-8.32
-8.548
-9.038
-9.786
-10.785
-12.009
-13.409
-14.943
-16.568
-18.253
-19.985
-21.734
-23.457
-25.105
-26.611
-27.926
-29.029
-29.889
-30.495
-30.866
-31.038
-31.093
-31.149
-31.303
-31.657
-32.322
-33.392
-34.978
-37.164
-40.038
-43.757
-48.392
-53.911
-60.164
-66.748
-73.218
-79.245
-84.416
-88.197
-90.272
-90.506
-89.216
-87.458
-86.233
-86.172
-87.93
-92.098
-98.974
-108.514
-118.794
-125.917
-126.579
-118.556
-102.357
-80.319
-51.745
-13.721
38.252
108.568
195.621
293.92
398.083
501.26
597.055
678.46
731.226
740.285
696.836
598.005
455.384
290.752
125.326
-19.603
-130.748
-205.026
-244.586
-256.709
-249.944
-232.045
-209.272
-187.942
-173.339
-166.719
-166.93
-169.173
-168.616
-164.665
-159.427
-157.109
-160.571
-169.299
-181.086
-192.977
-202.926
-210.332
-214.978
-216.902
-216.281
-213.42
-208.941
-203.64
-198.339
-193.58
-189.711
-186.942
-185.264
-184.577
-184.689
-185.273
-185.933
-186.36
-186.32
-185.673
-184.404
-182.5
-179.96
-176.813
-173.099
-168.87
-164.176
-159.054
-153.518
-147.592
-141.309
-134.723
-127.905
-120.927
-113.861
-106.763
-99.67
-92.613
-85.616
-78.695
-71.861
-65.112
-58.437
-51.832
-45.294
-38.823
-32.42
-26.077
-19.782
-13.526
-7.3
-1.1
5.078
11.237
17.378
23.5
29.6
35.673
41.709
47.703
53.649
59.541
65.372
71.135
76.819
82.417
87.919
93.313
98.589
103.733
108.73
113.565
118.224
122.69
126.948
130.981
134.773
138.308
141.571
144.547
147.22
149.579
151.609
153.301
154.645
155.63
156.251
156.501
156.378
155.879
155.005
153.756
152.135
150.149
147.803
145.106
142.067
138.698
135.011
131.021
126.743
122.195
117.396
112.365
107.123
101.692
96.095
90.355
84.496
78.541
72.514
66.438
60.338
54.236
48.153
42.113
36.136
30.24
24.446
18.77
13.228
7.835
2.605
-2.45
-7.32
-11.995
-16.466
-20.727
-24.773
-28.598
-32.199
-35.574
-38.723
-41.646
-44.345
-46.823
-49.083
-51.131
-52.972
-54.615
-56.065
-57.331
-58.423
-59.349
-60.119
-60.744
-61.232
-61.594
-61.841
-61.982
-62.027
-61.986
-61.869
-61.684
-61.44
-61.146
-60.808
-60.436
-60.037
-59.617
-59.183
-58.742
-58.299
-57.86
-57.43
-57.013
-56.613
-56.233
-55.875
-55.542
-55.235
-54.956
-54.704
-54.479
-54.281
-54.109
-53.961
-53.835
-53.73
-53.642
-53.569
-53.509
-53.456
-53.41
-53.365
-53.319
-53.268
-53.209
-53.137
-53.049
-52.941
-52.809
-52.648
-52.456
-52.228
-51.961
-51.65
-51.293
-50.886
-50.427
-49.914
-49.344
-48.716
-48.03
-47.284
-46.478
-45.612
-44.689
-43.707
-42.67
-41.578
-40.436
-39.244
-38.008
-36.729
-35.413
-34.062
-32.683
-31.279
-29.856
-28.419
-26.973
-25.524
-24.078
-22.641
-21.219
-19.818
-18.445
-17.105
-15.805
-14.55
-13.346
-12.198
-11.11
-10.086
-9.131
-8.247
-7.437
-6.704
-6.048
-5.472
-4.977
-4.562
-4.227
-3.971
-3.792
-3.689
-3.659
-3.698
-3.802
-3.965
-4.184
-4.452
-4.763
-5.112
-5.49
-5.891
-6.307
-6.73
-7.153
-7.565
-7.96
-8.327
-8.66
-8.95
-9.189
-9.37
-9.485
-9.529
-9.495
-9.378
-9.172
-8.874
-8.478
-7.981
-7.381
-6.677
-5.867
-4.951
-3.933
-2.816
-1.607
-0.313
1.059
2.5
4.002
5.555
7.148
8.775
10.429
12.101
13.78
15.452
17.105
18.726
20.305
21.828
23.284
24.656
25.938
27.124
28.21
29.185
30.034
30.729
31.25
31.587
31.729
31.672
31.414
30.959
30.327
29.556
28.686
27.752
26.782
25.787
24.797
23.85
22.99
22.277
21.745
21.408
21.286
21.383
21.672
22.109
22.607
23.046
23.317
23.311
22.913
22.019
20.513
18.304
15.291
11.331
6.361
0.415
-6.361
-13.626
-21.003
-28.191
-34.794
-40.285
-44.288
-46.608
-47.458
-47.577
-47.652
-48.066
-49.247
-51.777
-56.102
-62.335
-68.879
-72.559
-70.757
-61.869
-46.854
-27.816
-3.9
28.031
73.169
136.35
216.723
309.486
407.808
504.311
593.827
670.386
725.87
749.632
731.208
666.322
557.224
415.513
259.231
106.724
-23.801
-120.56
-179.623
-203.054
-198.285
-173.5
-136.74
-95.421
-56.988
-27.712
-9.673
-1.313
3.196
9.027
17.067
25.927
31.594
31.382
26.066
17.346
7.789
-0.381
-6.376
-10.054
-11.536
-11.188
-9.526
-6.931
-3.909
-1.22
0.63
1.393
0.959
-0.504
-2.702
-5.418
-8.365
-11.163
-13.586
-15.507
-16.861
-17.702
-18.081
-18.015
-17.554
-16.767
-15.695
-14.372
-12.83
-11.082
-9.165
-7.141
-5.052
-2.934
-0.809
1.317
3.443
5.567
7.698
9.852
12.043
14.284
16.585
18.95
21.39
23.921
26.559
29.327
32.243
35.322
38.577
42.019
45.659
49.502
53.552
57.81
62.276
66.955
71.849
76.96
82.288
87.833
93.591
99.56
105.735
112.107
118.667
125.403
132.302
139.351
146.536
153.84
161.245
168.733
176.284
183.88
191.501
199.128
206.735
214.3
221.796
229.199
236.486
243.631
250.611
257.399
263.975
270.322
276.425
282.267
287.833
293.103
298.057
302.684
306.974
310.921
314.523
317.771
320.659
323.187
325.351
327.153
328.587
329.639
330.291
330.527
330.335
329.716
328.671
327.194
325.263
322.819
319.804
316.193
311.986
307.219
301.932
296.087
289.689
282.869
275.739
268.376
260.751
252.55
243.466
233.548
222.844
211.301
199.128
186.575
174.145
163.064
153.784
145.446
137.563
130.411
126.296
129.001
139.426
153.708
163.093
159.053
138.158
102.686
61.798
22.805
-11.504
-38.293
-59.427
-74.852
-81.488
-82.095
-78.532
-72.942
-69.919
-68.948
-69.186
-71.381
-74.865
-80.282
-88.176
-97.548
-107.458
-117.251
-126.401
-134.588
-141.69
-147.605
-152.306
-156.083
-159.315
-162.151
-164.644
-166.813
-168.592
-170.001
-171.101
-171.86
-172.244
-172.251
-171.896
-171.233
-170.336
-169.247
-167.993
-166.595
-165.068
-163.439
-161.737
-159.986
-158.208
-156.415
-154.617
-152.824
-151.048
-149.297
-147.578
-145.893
-144.244
-142.635
-141.072
-139.562
-138.112
-136.725
-135.402
-134.142
-132.942
-131.801
-130.715
-129.678
-128.686
-127.731
-126.806
-125.904
-125.018
-124.14
-123.259
-122.367
-121.454
-120.511
-119.528
-118.498
-117.411
-116.261
-115.041
-113.743
-112.364
-110.898
-109.341
-107.69
-105.942
-104.097
-102.153
-100.11
-97.97
-95.734
-93.405
-90.987
-88.483
-85.899
-83.242
-80.516
-77.73
-74.892
-72.01
-69.094
-66.152
-63.196
-60.235
-57.279
-54.341
-51.43
-48.557
-45.733
-42.967
-40.27
-37.652
-35.122
-32.689
-30.361
-28.147
-26.053
-24.087
-22.257
-20.566
-19.022
-17.628
-16.389
-15.308
-14.391
-13.638
-13.054
-12.639
-12.398
-12.33
-12.438
-12.723
-13.184
-13.82
-14.631
-15.617
-16.776
-18.105
-19.605
-21.274
-23.113
-25.123
-27.305
-29.658
-32.182
-34.878
-37.744
-40.777
-43.972
-47.323
-50.824
-54.473
-58.266
-62.196
-66.258
-70.443
-74.743
-79.15
-83.655
-88.241
-92.89
-97.585
-102.312
-107.07
-111.859
-116.677
-121.513
-126.354
-131.186
-135.993
-140.753
-145.43
-149.971
-154.326
-158.45
-162.313
-165.886
-169.134
-172.006
-174.44
-176.378
-177.775
-178.603
-178.844
-178.485
-177.541
-176.044
-174.056
-171.68
-169.027
-166.207
-163.339
-160.528
-157.867
-155.489
-153.569
-152.221
-151.486
-151.247
-151.2
-151.044
-150.531
-149.35
-147.116
-143.499
-138.337
-131.972
-125.3
-119.212
-114.384
-111.411
-110.792
-112.956
-118.166
-124.757
-129.306
-128.873
-120.512
-104.101
-82.619
-55.683
-21.99
21.592
82.521
162.234
258.67
368.227
480.352
585.849
675.245
736.683
761.218
741.425
675.628
568.441
430.328
278.052
128.081
-2.243
-99.254
-160.088
-187.883
-193.731
-191.928
-189.29
-188.154
-186.596
-180.266
-169.767
-158.248
-148.595
-143.665
-143.65
-146.945
-152.174
-157.725
-162.102
-164.289
-163.769
-160.62
-155.399
-148.907
-141.842
-134.791
-128.353
-123.043
-119.129
-116.654
-115.494
-115.386
-116.101
-117.459
-119.256
-121.323
-123.501
-125.623
-127.534
-129.093
-130.187
-130.744
-130.724
-130.097
-128.853
-127.008
-124.598
-121.687
-118.338
-114.603
-110.531
-106.168
-101.571
-96.813
-91.969
-87.111
-82.291
-77.542
-72.887
-68.343
-63.915
-59.6
-55.382
-51.239
-47.151
-43.111
-39.109
-35.141
-31.196
-27.263
-23.33
-19.389
-15.433
-11.458
-7.461
-3.441
0.598
4.652
8.714
12.772
16.821
20.852
24.858
28.831
32.763
36.642
40.46
44.206
47.865
51.424
54.867
58.179
61.343
64.344
67.163
69.783
72.184
74.348
76.259
77.9
79.255
80.306
81.039
81.443
81.509
81.228
80.593
79.594
78.223
76.475
74.349
71.851
68.985
65.759
62.181
58.26
54.009
49.445
44.583
39.434
34.012
28.328
22.401
16.258
9.93
3.452
-3.151
-9.871
-16.698
-23.627
-30.633
-37.664
-44.684
-51.667
-58.586
-65.439
-72.177
-78.676
-84.941
-91.076
-97.17
-103.364
-109.624
-115.665
-121.369
-126.804
-131.808
-136.1
-139.356
-141.06
-141.197
-140.364
-138.877
-136.816
-134.465
-132.101
-130.157
-129.403
-129.905
-130.946
-132.101
-133.122
-133.718
-133.794
-133.047
-130.827
-127.073
-122.309
-116.886
-111.101
-105.161
-99.023
-92.817
-86.88
-81.281
-75.855
-70.487
-65.043
-59.483
-53.919
-48.386
-42.849
-37.321
-31.835
-26.427
-21.157
-16.046
-11.077
-6.244
-1.546
3.009
7.4
11.613
15.64
19.472
23.105
26.534
29.751
32.75
35.528
38.079
40.401
42.493
44.349
45.969
47.348
48.487
49.39
50.064
50.511
50.736
50.744
50.537
50.122
49.505
48.69
47.683
46.49
45.117
43.569
41.854
39.978
37.947
35.766
33.44
30.976
28.378
25.653
22.807
19.845
16.773
13.596
10.321
6.952
3.495
-0.044
-3.662
-7.353
-11.113
-14.937
-18.821
-22.761
-26.753
-30.794
-34.878
-39.003
-43.164
-47.359
-51.583
-55.832
-60.102
-64.39
-68.691
-73.001
-77.314
-81.627
-85.933
-90.227
-94.505
-98.76
-102.987
-107.18
-111.333
-115.442
-119.499
-123.499
-127.436
-131.303
-135.093
-138.801
-142.418
-145.937
-149.351
-152.651
-155.83
-158.879
-161.791
-164.556
-167.166
-169.613
-171.887
-173.981
-175.885
-177.591
-179.092
-180.379
-181.445
-182.283
-182.887
-183.252
-183.373
-183.244
-182.861
-182.221
-181.322
-180.16
-178.735
-177.046
-175.093
-172.879
-170.406
-167.679
-164.702
-161.484
-158.035
-154.364
-150.484
-146.408
-142.152
-137.731
-133.161
-128.461
-123.647
-118.738
-113.752
-108.71
-103.633
-98.541
-93.457
-88.404
-83.403
-78.478
-73.649
-68.936
-64.354
-59.918
-55.645
-51.551
-47.663
-44.001
-40.577
-37.405
-34.491
-31.838
-29.442
-27.283
-25.324
-23.526
-21.855
-20.279
-18.777
-17.327
-15.897
-14.448
-12.929
-11.296
-9.522
-7.59
-5.483
-3.193
-0.735
1.818
4.34
6.704
8.795
10.552
11.925
12.829
13.178
12.881
11.857
10.094
7.572
4.187
-0.08
-5.125
-10.733
-16.416
-21.606
-25.883
-28.744
-29.555
-27.985
-24.017
-17.852
-10.237
-2.132
5.78
12.65
17.166
19.582
22.019
26.245
34.791
47.924
61.445
74.196
88.603
110.03
149.655
215.232
307.245
422.276
550.021
677.971
793.529
882.674
934.302
939.376
896.15
809.959
688.127
544.449
392.326
244.208
116.387
19.533
-41.76
-67.479
-66.922
-52.05
-31.791
-14.96
-5.737
-3.369
-6.595
-10.506
-10.908
-7.775
-2.795
-0.348
-3.732
-12.518
-24.539
-36.773
-46.956
-54.577
-59.774
-62.474
-62.633
-60.532
-56.741
-52.144
-47.744
-44.04
-41.228
-39.613
-39.278
-40.147
-42.115
-44.83
-47.832
-50.857
-53.692
-56.119
-58.072
-59.489
-60.304
-60.551
-60.27
-59.477
-58.217
-56.526
-54.416
-51.922
-49.082
-45.929
-42.524
-38.931
-35.216
-31.45
-27.685
-23.953
-20.28
-16.68
-13.159
-9.713
-6.324
-2.966
0.384
3.746
7.142
10.593
14.125
17.767
21.544
25.486
29.625
33.98
38.563
43.377
48.42
53.681
59.144
64.779
70.55
76.42
82.361
88.354
94.384
100.435
106.493
112.537
118.54
124.492
130.403
136.286
142.166
148.075
154.046
160.137
166.422
172.95
179.748
186.813
194.121
201.644
209.339
217.15
225.025
232.881
240.618
248.135
255.293
261.938
267.913
273.026
277.065
279.858
281.258
281.152
279.471
276.159
271.198
264.61
256.414
246.66
235.402
222.689
208.644
193.432
177.221
160.233
142.715
124.895
107.014
89.315
71.985
55.195
39.08
23.721
9.221
-4.322
-16.802
-28.094
-38.145
-46.954
-54.518
-60.878
-66.108
-70.287
-73.546
-76.057
-77.935
-79.273
-80.143
-80.568
-80.605
-80.327
-79.813
-79.16
-78.43
-77.655
-76.876
-76.122
-75.393
-74.676
-73.913
-73.005
-71.895
-70.56
-68.988
-67.198
-65.197
-62.978
-60.546
-57.905
-55.063
-52.038
-48.841
-45.48
-41.979
-38.375
-34.725
-31.105
-27.572
-24.163
-20.909
-17.826
-14.93
-12.24
-9.758
-7.48
-5.405
-3.531
-1.859
-0.391
0.878
1.958
2.866
3.622
4.245
4.751
5.157
5.477
5.727
5.919
6.065
6.17
6.243
6.296
6.34
6.387
6.448
6.534
6.653
6.816
7.032
7.307
7.645
8.051
8.527
9.075
9.696
10.39
11.155
11.99
12.891
13.856
14.88
15.958
17.086
18.256
19.464
20.701
21.963
23.241
24.529
25.82
27.108
28.387
29.651
30.892
32.107
33.289
34.433
35.535
36.589
37.591
38.539
39.429
40.259
41.029
41.737
42.385
42.972
43.501
43.973
44.391
44.758
45.077
45.351
45.584
45.781
45.946
46.083
46.199
46.298
46.385
46.468
46.552
46.643
46.748
46.872
47.022
47.204
47.425
47.69
48.005
48.378
48.814
49.319
49.898
50.557
51.3
52.132
53.056
54.076
55.193
56.41
57.729
59.15
60.674
62.299
64.025
65.849
67.768
69.776
71.869
74.038
76.273
78.565
80.901
83.268
85.653
88.041
90.415
92.76
95.059
97.296
99.453
101.512
103.452
105.251
106.89
108.346
109.597
110.621
111.395
111.897
112.11
112.017
111.604
110.855
109.751
108.268
106.389
104.108
101.417
98.315
94.807
90.902
86.624
82.018
77.125
71.984
66.627
61.074
55.353
49.499
43.552
37.568
31.589
25.638
19.742
13.919
8.172
2.503
-3.132
-8.844
-14.734
-20.891
-27.382
-34.207
-41.392
-49.007
-57.111
-65.765
-75.001
-84.766
-95.058
-105.967
-117.456
-129.364
-141.372
-152.879
-163.326
-172.353
-179.487
-184.134
-185.984
-185.04
-181.605
-176.552
-170.868
-165.194
-160.397
-157.789
-157.085
-156.311
-153.87
-147.21
-136.487
-125.651
-114.369
-99.334
-73.701
-26.621
45.585
139.484
247.886
359.962
468.268
567.657
650.454
707.893
729.137
705.107
634.369
521.06
376.157
215.866
57.19
-81.651
-186.637
-251.349
-277.025
-271.737
-245.531
-208.361
-168.247
-132.295
-106.406
-92.091
-87.651
-87.665
-86.781
-84.057
-81.139
-81.791
-88.331
-99.701
-113.565
-126.94
-137.96
-146.097
-151.273
-153.817
-154.24
-153.183
-151.461
-149.944
-149.169
-149.456
-150.978
-153.686
-157.409
-161.85
-166.577
-171.092
-175.07
-178.34
-180.805
-182.476
-183.358
-183.447
-182.793
-181.473
-179.546
-177.053
-174.016
-170.44
-166.36
-161.844
-156.967
-151.82
-146.471
-140.965
-135.342
-129.635
-123.874
-118.084
-112.282
-106.471
-100.661
-94.867
-89.106
-83.397
-77.75
-72.171
-66.66
-61.217
-55.846
-50.553
-45.346
-40.23
-35.213
-30.302
-25.507
-20.836
-16.297
-11.892
-7.623
-3.488
0.51
4.373
8.1
11.695
15.157
18.488
21.689
24.759
27.7
30.512
33.195
35.75
38.176
40.471
42.636
44.666
46.562
48.318
49.933
51.401
52.719
53.883
54.888
55.728
56.399
56.896
57.212
57.344
57.285
57.03
56.574
55.912
55.039
53.95
52.643
51.112
49.357
47.375
45.165
42.728
40.065
37.178
34.071
30.75
27.22
23.488
19.564
15.458
11.18
6.743
2.161
-2.551
-7.379
-12.305
-17.311
-22.381
-27.494
-32.632
-37.776
-42.904
-47.997
-53.034
-57.995
-62.86
-67.609
-72.223
-76.683
-80.97
-85.068
-88.96
-92.63
-96.064
-99.248
-102.173
-104.826
-107.2
-109.287
-111.083
-112.584
-113.787
-114.694
-115.305
-115.623
-115.653
-115.401
-114.876
-114.086
-113.041
-111.755
-110.239
-108.508
-106.576
-104.458
-102.172
-99.734
-97.159
-94.466
-91.671
-88.791
-85.844
-82.844
-79.809
-76.753
-73.691
-70.637
-67.604
-64.603
-61.644
-58.738
-55.892
-53.115
-50.41
-47.785
-45.241
-42.782
-40.409
-38.122
