Name
Date of Birth,"Mar 27, 1959"
Recorded Date,2022-04-15 14:10:40 -0500
Classification,High Heart Rate
Symptoms,
Software Version,1.90
Device,"Watch4,2"
Sample Rate,510.227 hertz


Lead,Lead I
Unit,µV

349.874
434.249
438.508
358.722
212.554
44.367
-106.972
-214.335
-264.407
-268.271
-241.518
-203.429
-173.155
-154.927
-148.304
-148.771
-147.43
-142.825
-136.978
-131.708
-130.269
-132.823
-136.959
-141.063
-144.102
-145.523
-145.459
-144.039
-141.242
-137.397
-133.199
-129.33
-126.144
-123.76
-122.127
-121.12
-120.723
-120.872
-121.361
-121.901
-122.23
-122.197
-121.753
-120.915
-119.671
-117.966
-115.743
-112.953
-109.586
-105.647
-101.13
-96.017
-90.29
-83.953
-77.044
-69.631
-61.795
-53.582
-45.026
-36.147
-26.966
-17.51
-7.809
2.119
12.266
22.616
33.142
43.813
54.589
65.437
76.329
87.24
98.144
109.013
119.811
130.503
141.052
151.42
161.565
171.445
181.01
190.217
199.026
207.398
215.298
222.691
229.542
235.823
241.504
246.56
250.967
254.701
257.745
260.081
261.697
262.586
262.741
262.161
260.849
258.811
256.06
252.609
248.475
243.68
238.249
232.208
225.589
218.422
210.743
202.59
194.001
185.02
175.691
166.057
156.167
146.067
135.805
125.431
114.992
104.534
94.105
83.749
73.511
63.434
53.56
43.929
34.576
25.538
16.848
8.533
0.621
-6.868
-13.916
-20.508
-26.635
-32.289
-37.467
-42.168
-46.396
-50.157
-53.459
-56.314
-58.734
-60.739
-62.351
-63.594
-64.498
-65.093
-65.414
-65.496
-65.377
-65.092
-64.676
-64.162
-63.582
-62.967
-62.347
-61.755
-61.221
-60.778
-60.455
-60.281
-60.276
-60.461
-60.85
-61.454
-62.28
-63.327
-64.598
-66.101
-67.85
-69.87
-72.179
-74.777
-77.657
-80.813
-84.227
-87.878
-91.737
-95.742
-99.835
-103.962
-108.071
-112.141
-116.143
-120.017
-123.688
-127.057
-130.054
-132.671
-134.902
-136.712
-138.066
-138.909
-139.245
-139.201
-138.895
-138.437
-137.945
-137.418
-136.96
-136.832
-137.146
-137.902
-138.867
-139.407
-138.949
-137.239
-133.846
-128.32
-120.739
-111.312
-101.038
-92.007
-85.961
-84.29
-88.476
-99.207
-115.787
-136.931
-159.819
-179.573
-191.664
-191.436
-173.509
-135.857
-80.873
-11.363
68.016
155.188
256.733
374.711
502.822
626.548
715.537
742.514
696.783
580.203
415.398
234.538
62.917
-75.512
-167.144
-213.289
-219.571
-201.471
-177.525
-156.034
-141.075
-130.383
-117.434
-102.449
-88.031
-76.791
-72.551
-75.37
-82.812
-93.076
-103.792
-112.909
-119.792
-124.132
-125.881
-125.64
-124.112
-121.863
-119.618
-118.064
-117.469
-117.913
-119.35
-121.53
-124.239
-127.32
-130.53
-133.627
-136.446
-138.838
-140.718
-142.062
-142.801
-142.872
-142.239
-140.875
-138.778
-135.971
-132.46
-128.257
-123.393
-117.897
-111.815
-105.204
-98.123
-90.643
-82.821
-74.705
-66.339
-57.76
-48.997
-40.081
-31.033
-21.863
-12.59
-3.235
6.178
15.622
25.069
34.499
43.888
53.214
62.454
71.578
80.555
89.355
97.944
106.287
114.347
122.086
129.465
136.453
143.018
149.134
154.773
159.91
164.522
168.591
172.098
175.028
177.367
179.105
180.233
180.746
180.645
179.932
178.612
176.695
174.192
171.117
167.489
163.328
158.656
153.5
147.887
141.849
135.418
128.632
121.53
114.153
106.541
98.738
90.788
82.736
74.626
66.501
58.404
50.378
42.466
34.706
27.14
19.805
12.736
5.966
-0.473
-6.553
-12.25
-17.541
-22.409
-26.839
-30.82
-34.341
-37.397
-39.985
-42.107
-43.766
-44.97
-45.728
-46.055
-45.971
-45.501
-44.671
-43.51
-42.048
-40.319
-38.357
-36.198
-33.874
-31.416
-28.856
-26.226
-23.559
-20.892
-18.259
-15.694
-13.231
-10.904
-8.742
-6.772
-5.013
-3.476
-2.177
-1.13
-0.349
0.142
0.324
0.186
-0.283
-1.089
-2.215
-3.643
-5.334
-7.231
-9.291
-11.466
-13.71
-15.989
-18.255
-20.463
-22.594
-24.598
-26.429
-28.063
-29.454
-30.592
-31.528
-32.3
-32.965
-33.62
-34.289
-35.014
-35.869
-36.891
-38.184
-39.854
-41.894
-44.361
-47.389
-51.024
-55.314
-60.062
-64.623
-68.374
-70.791
-71.342
-69.679
-65.463
-58.51
-49.664
-40.501
-32.718
-26.903
-21.813
-16.336
-11.04
-10.603
-21.139
-43.153
-69.169
-82.134
-63.419
-6.43
81.13
181.676
276.278
358.633
436.827
517.757
602.223
679.584
723.437
715.433
651.468
538.049
402.464
272.79
165.838
93.806
51.714
26.032
9.112
-6.587
-20.755
-26.945
-24.119
-12.957
2.843
16.931
26.652
31.36
31.18
27.742
22.296
15.96
10.595
7.306
6.44
8.058
11.643
16.594
22.412
28.388
33.71
37.895
40.733
42.204
42.502
41.772
40.138
37.796
34.958
31.83
28.572
25.316
22.195
19.342
16.892
14.961
13.618
12.901
12.844
13.458
14.734
16.661
19.202
22.316
25.981
30.153
34.785
39.82
45.181
50.807
56.655
62.686
68.873
75.194
81.627
88.162
94.799
101.532
108.352
115.246
122.19
129.168
136.164
143.165
150.157
157.122
164.037
170.877
177.621
184.242
190.712
197.001
203.076
208.909
214.474
219.748
224.71
229.339
233.615
237.522
241.044
244.17
246.886
249.183
251.05
252.483
253.478
254.038
254.165
253.865
253.145
252.017
250.494
248.593
246.329
243.721
240.79
237.556
234.044
230.28
226.29
222.103
217.746
213.249
208.644
203.962
199.232
194.483
189.745
185.047
180.416
175.88
171.465
167.197
163.098
159.192
155.5
152.041
148.83
145.88
143.2
140.797
138.676
136.838
135.283
134.006
133.005
132.271
131.8
131.579
131.598
131.84
132.288
132.922
133.72
134.656
135.705
136.838
138.031
139.258
140.496
141.723
142.917
144.06
145.129
146.107
146.97
147.698
148.268
148.666
148.875
148.888
148.699
148.299
147.688
146.872
145.849
144.614
143.157
141.452
139.488
137.268
134.792
132.072
129.122
125.954
122.61
119.151
115.637
112.131
108.674
105.275
101.972
98.817
95.872
93.216
90.88
88.854
87.161
85.846
84.961
84.544
84.523
84.74
85.044
85.284
85.398
85.312
84.806
83.766
82.21
80.314
78.603
77.618
77.589
78.831
81.715
86.103
91.702
97.732
102.463
104.427
102.572
95.694
83.242
65.936
45.14
23.534
5.219
-5.985
-6.113
9.032
42.568
93.736
158.271
231.503
307.447
386.281
474.103
568.237
661.278
737.122
766.867
736.207
645.809
506.696
352.69
213.964
106.514
42.07
12.428
1.738
2.139
4.912
8.603
18.261
33.355
51.804
70.612
84.472
91.019
90.495
84.072
74.051
62.764
52.251
43.751
37.798
34.591
33.789
34.91
37.434
40.502
43.188
44.995
45.711
45.331
44.07
42.048
39.332
36.107
32.603
29.021
25.533
22.248
19.199
16.433
14.028
12.066
10.616
9.71
9.351
9.528
10.242
11.502
13.303
15.625
18.426
21.653
25.248
29.152
33.317
37.703
42.274
46.998
51.849
56.811
61.875
67.042
72.305
77.649
83.058
88.515
94.007
99.522
105.05
110.58
116.098
121.588
127.032
132.409
137.697
142.87
147.901
152.76
157.419
161.853
166.039
169.957
173.588
176.911
179.908
182.564
184.864
186.793
188.337
189.484
190.224
190.549
190.455
189.938
188.999
187.638
185.861
183.672
181.082
178.099
174.738
171.01
166.935
162.529
157.815
152.816
147.556
142.062
136.362
130.483
124.456
118.309
112.07
105.77
99.437
93.101
86.789
80.532
74.355
68.287
62.354
56.58
50.99
45.603
40.437
35.508
30.83
26.413
22.268
18.401
14.816
11.515
8.501
5.769
3.316
1.134
-0.789
-2.465
-3.911
-5.149
-6.198
-7.08
-7.818
-8.435
-8.951
-9.39
-9.769
-10.106
-10.421
-10.733
-11.067
-11.447
-11.898
-12.439
-13.091
-13.869
-14.786
-15.854
-17.077
-18.452
-19.977
-21.654
-23.495
-25.525
-27.76
-30.202
-32.845
-35.675
-38.675
-41.826
-45.092
-48.416
-51.739
-55.008
-58.189
-61.28
-64.279
-67.164
-69.894
-72.406
-74.649
-76.614
-78.309
-79.724
-80.849
-81.668
-82.193
-82.526
-82.799
-83.119
-83.578
-84.208
-84.991
-86.015
-87.428
-89.256
-91.422
-93.628
-95.33
-96.14
-95.809
-93.965
-90.376
-85.106
-78.373
-71.115
-64.868
-60.93
-60.552
-64.752
-73.471
-85.787
-100.321
-114.418
-124.582
-127.273
-118.4
-94.575
-56.135
-6.248
52.026
115.384
184.897
264.186
349.109
428.629
484.687
497.617
460.608
382.205
281.631
179.507
89.072
13.128
-52.341
-108.944
-155.327
-189.248
-207.472
-210.469
-202.42
-186.943
-168.087
-150.308
-135.988
-126.505
-122.782
-124.14
-129.172
-136.827
-145.599
-153.626
-159.975
-164.158
-165.943
-165.795
-164.282
-161.857
-159.197
-157.013
-155.641
-155.226
-155.781
-157.108
-159.059
-161.518
-164.272
-167.1
-169.832
-172.325
-174.504
-176.354
-177.826
-178.852
-179.382
-179.381
-178.843
-177.786
-176.217
-174.141
-171.571
-168.538
-165.087
-161.273
-157.151
-152.781
-148.209
-143.47
-138.596
-133.614
-128.546
-123.409
-118.212
-112.952
-107.637
-102.276
-96.88
-91.461
-86.028
-80.587
-75.143
-69.701
-64.268
-58.856
-53.475
-48.141
-42.868
-37.676
-32.585
-27.618
-22.796
-18.139
-13.664
-9.387
-5.322
-1.487
2.105
5.441
8.507
11.291
13.781
15.966
17.835
19.381
20.599
21.485
22.039
22.26
22.152
21.718
20.964
19.897
18.527
16.863
14.915
12.697
10.224
7.512
4.579
1.447
-1.865
-5.334
-8.937
-12.65
-16.449
-20.31
-24.21
-28.125
-32.03
-35.901
-39.715
-43.449
-47.078
-50.581
-53.936
-57.124
-60.128
-62.933
-65.527
-67.899
-70.041
-71.947
-73.612
-75.033
-76.21
-77.141
-77.83
-78.279
-78.494
-78.486
-78.268
-77.853
-77.261
-76.51
-75.621
-74.615
-73.513
-72.334
-71.098
-69.823
-68.524
-67.22
-65.931
-64.678
-63.481
-62.362
-61.341
-60.433
-59.654
-59.014
-58.521
-58.185
-58.006
-57.985
-58.13
-58.451
-58.971
-59.709
-60.664
-61.833
-63.209
-64.774
-66.513
-68.4
-70.382
-72.409
-74.425
-76.373
-78.232
-79.983
-81.59
-83.006
-84.164
-85.01
-85.55
-85.802
-85.765
-85.431
-84.769
-83.793
-82.622
-81.394
-80.258
-79.357
-78.74
-78.492
-78.789
-79.675
-81.096
-82.854
-84.45
-85.448
-85.606
-84.549
-81.997
-78.112
-73.231
-68.079
-63.909
-61.581
-61.812
-65.657
-73.444
-84.385
-96.954
-108.705
-116.701
-118.547
-111.453
-91.823
-57.306
-8.766
50.067
114.756
181.825
252.991
331.642
414.207
490.693
543.354
553.717
515.635
436.535
334.961
231.418
139.378
62.697
-1.946
-56.639
-100.777
-132.322
-148.204
-149.371
-140.317
-125.378
-109.252
-95.71
-86.39
-82.385
-84.079
-90.318
-99.399
-109.557
-118.773
-125.73
-129.974
-131.286
-129.911
-126.485
-121.675
-116.342
-111.39
-107.318
-104.333
-102.498
-101.7
-101.85
-102.865
-104.562
-106.736
-109.206
-111.822
-114.477
-117.049
-119.418
-121.47
-123.088
-124.191
-124.748
-124.724
-124.108
-122.907
-121.117
-118.748
-115.838
-112.414
-108.518
-104.208
-99.54
-94.593
-89.434
-84.112
-78.67
-73.14
-67.541
-61.891
-56.2
-50.462
-44.682
-38.869
-33.031
-27.181
-21.333
-15.49
-9.66
-3.849
1.938
7.689
13.387
19.018
24.564
30.004
35.316
40.473
45.452
50.233
54.798
59.131
63.217
67.04
70.585
73.842
76.8
79.447
81.773
83.767
85.422
86.732
87.693
88.301
88.557
88.46
88.011
87.216
86.079
84.607
82.811
80.698
78.282
75.577
72.599
69.367
65.9
62.218
58.344
54.301
50.113
45.803
41.396
36.916
32.386
27.832
23.277
18.745
14.258
9.839
5.51
1.291
-2.797
-6.736
-10.511
-14.106
-17.508
-20.706
-23.687
-26.445
-28.971
-31.263
-33.317
-35.13
-36.705
-38.044
-39.158
-40.057
-40.756
-41.267
-41.608
-41.798
-41.856
-41.801
-41.65
-41.417
-41.119
-40.773
-40.4
-40.02
-39.653
-39.319
-39.039
-38.833
-38.72
-38.713
-38.825
-39.056
-39.418
-39.92
-40.574
-41.407
-42.433
-43.664
-45.109
-46.768
-48.628
-50.674
-52.873
-55.176
-57.546
-59.941
-62.322
-64.666
-66.928
-69.079
-71.094
-72.921
-74.517
-75.852
-76.908
-77.706
-78.301
-78.733
-79.057
-79.346
-79.661
-80.115
-80.822
-81.867
-83.362
-85.348
-87.892
-91.177
-95.255
-100.014
-105.198
-110.244
-114.559
-117.803
-119.501
-119.039
-116.327
-111.552
-105.362
-99.272
-94.553
-92.039
-92.867
-97.868
-106.679
-118.243
-130.4
-139.601
-142.793
-136.943
-118.386
-84.413
-33.704
32.046
109.093
194.186
282.594
372.333
459.935
533.265
583.726
601.78
580.017
528.165
453.369
361.094
259.935
146.548
25.545
-88.101
-182.374
-241.208
-260.997
-253.288
-229.127
-202.013
-178.404
-155.705
-134.286
-114.23
-96.556
-85.213
-80.888
-82.063
-87.324
-94.022
-99.731
-103.617
-105.202
-104.36
-101.731
-97.978
-93.645
-89.52
-86.369
-84.499
-84.022
-84.876
-86.73
-89.332
-92.457
-95.799
-99.091
-102.121
-104.741
-106.881
-108.502
-109.556
-110.005
-109.823
-108.996
-107.54
-105.471
-102.81
-99.602
-95.882
-91.704
-87.135
-82.236
-77.081
-71.728
-66.215
-60.577
-54.838
-49.015
-43.125
-37.179
-31.175
-25.116
-19.011
-12.863
-6.686
-0.49
5.719
11.935
18.151
24.358
30.541
36.682
42.761
48.758
54.65
60.411
66.013
71.428
76.635
81.612
86.338
90.796
94.966
98.831
102.376
105.587
108.449
110.951
113.079
114.823
116.177
117.135
117.693
117.851
117.608
116.968
115.936
114.518
112.723
110.563
108.05
105.198
102.023
98.546
94.787
90.769
86.515
82.053
77.409
72.612
67.69
62.672
57.587
52.465
47.333
42.22
37.154
32.161
27.267
22.498
17.877
13.426
9.168
5.119
1.297
-2.283
-5.61
-8.673
-11.465
-13.979
-16.211
-18.16
-19.826
-21.211
-22.321
-23.161
-23.741
-24.076
-24.18
-24.076
-23.782
-23.322
-22.72
-22
-21.189
-20.31
-19.384
-18.429
-17.467
-16.52
-15.61
-14.759
-13.988
-13.316
-12.763
-12.346
-12.079
-11.975
-12.04
-12.275
-12.685
-13.279
-14.072
-15.088
-16.342
-17.839
-19.578
-21.553
-23.751
-26.15
-28.709
-31.367
-34.07
-36.764
-39.404
-41.956
-44.375
-46.615
-48.625
-50.337
-51.687
-52.653
-53.237
-53.452
-53.336
-52.916
-52.236
-51.416
-50.602
-49.944
-49.573
-49.56
-49.935
-50.801
-52.36
-54.711
-57.799
-61.315
-64.756
-67.791
-70.267
-71.877
-72.1
-70.647
-67.557
-63.599
-60.101
-57.655
-56.709
-58.181
-62.503
-69.736
-78.026
-82.336
-79.732
-69.841
-54.396
-38.577
-19.252
11.54
59.291
132.357
225.607
327.406
434.512
535.205
622.704
692.368
723.529
706.583
639.669
523.53
379.432
227.719
84.385
-30.461
-108.596
-147.374
-147.702
-121.514
-80.178
-35.639
-0.536
20.053
22.067
7.668
-13.202
-33.946
-47.668
-52.256
-53.263
-53.316
-54.171
-56.301
-56.629
-54.182
-49.741
-43.991
-38.344
-33.8
-30.387
-28.112
-27.049
-27.03
-27.908
-29.593
-31.893
-34.63
-37.697
-40.955
-44.233
-47.388
-50.283
-52.777
-54.761
-56.153
-56.902
-56.986
-56.407
-55.178
-53.309
-50.821
-47.744
-44.103
-39.939
-35.307
-30.272
-24.917
-19.31
-13.506
-7.549
-1.476
4.69
10.931
17.239
23.618
30.062
36.561
43.103
49.668
56.239
62.804
69.35
75.864
82.333
88.737
95.056
101.268
107.349
113.274
119.014
124.537
129.815
134.822
139.537
143.94
148.01
151.729
155.081
158.052
160.63
162.802
164.559
165.889
166.787
167.25
167.274
166.862
166.015
164.74
163.044
160.937
158.432
155.545
152.291
148.691
144.764
140.534
136.027
131.271
126.293
121.124
115.796
110.339
104.788
99.174
93.529
87.885
82.274
76.726
71.272
65.941
60.76
55.756
50.954
46.378
42.048
37.984
34.201
30.712
27.527
24.656
22.103
19.872
17.962
16.372
15.096
14.127
13.457
13.072
12.954
13.083
13.436
13.988
14.711
15.576
16.553
17.613
18.728
19.871
21.019
22.145
23.226
24.233
25.141
25.921
26.547
26.994
27.239
27.266
27.059
26.605
25.904
24.95
23.74
22.266
20.504
18.438
16.063
13.378
10.395
7.14
3.64
-0.062
-3.906
-7.833
-11.777
-15.683
-19.509
-23.225
-26.804
-30.204
-33.354
-36.19
-38.676
-40.804
-42.606
-44.113
-45.353
-46.377
-47.263
-48.129
-49.111
-50.328
-51.859
-53.753
-56.013
-58.729
-62.08
-66.099
-70.654
-75.397
-79.792
-83.429
-85.979
-86.931
-85.809
-82.443
-76.998
-70.39
-63.77
-57.954
-54.281
-53.966
-57.176
-63.846
-71.459
-76.236
-77.043
-71.52
-59.297
-40.347
-9.255
34.462
92.879
167.705
253.663
353.719
463.897
573.086
669.798
726.702
724.214
655.528
524.118
358.053
188.041
41.502
-61.633
-122.481
-150.305
-160.125
-166.075
-170.881
-172.563
-166.179
-148.582
-123.41
-96.933
-75.113
-61.226
-55.322
-55.885
-60.901
-68.774
-77.753
-85.869
-92.009
-95.725
-97.098
-96.787
-95.413
-93.481
-91.678
-90.683
-90.822
-92.179
-94.619
-97.81
-101.513
-105.514
-109.555
-113.413
-116.899
-119.895
-122.351
-124.235
-125.511
-126.155
-126.15
-125.495
-124.211
-122.318
-119.841
-116.826
-113.31
-109.347
-104.999
-100.321
-95.384
-90.244
-84.942
-79.514
-73.989
-68.388
-62.732
-57.034
-51.299
-45.534
-39.751
-33.956
-28.166
-22.392
-16.642
-10.925
-5.25
0.374
5.934
11.413
16.794
22.058
27.185
32.154
36.94
41.521
45.876
49.986
53.836
57.409
60.689
63.662
66.316
68.638
70.619
72.249
73.519
74.421
74.951
75.105
74.883
74.285
73.314
71.973
70.27
68.213
65.811
63.077
60.022
56.663
53.015
49.098
44.93
40.534
35.935
31.156
26.225
21.168
16.013
10.79
5.526
0.249
-5.012
-10.229
-15.376
-20.425
-25.351
-30.129
-34.735
-39.146
-43.341
-47.301
-51.01
-54.453
-57.618
-60.495
-63.076
-65.356
-67.332
-69
-70.364
-71.425
-72.188
-72.661
-72.856
-72.787
-72.475
-71.941
-71.205
-70.293
-69.231
-68.045
-66.761
-65.4
-63.984
-62.534
-61.075
-59.632
-58.232
-56.898
-55.652
-54.519
-53.52
-52.673
-51.993
-51.487
-51.16
-51.021
-51.079
-51.352
-51.865
-52.637
-53.678
-54.993
-56.58
-58.429
-60.524
-62.828
-65.293
-67.874
-70.52
-73.192
-75.853
-78.453
-80.955
-83.311
-85.453
-87.321
-88.878
-90.11
-91.026
-91.66
-92.021
-92.132
-92.072
-91.946
-91.888
-92.032
-92.505
-93.387
-94.79
-96.932
-99.889
-103.581
-107.772
-111.91
-115.459
-118.119
-119.449
-118.841
-116.251
-111.997
-106.784
-102.278
-99.78
-99.924
-103.869
-112.564
-125.488
-141.308
-157.669
-170.57
-176.561
-172.819
-155.215
-119.79
-66.762
0.198
77.083
158.238
244.558
343.697
453.158
562.876
654.214
699.066
684.159
613.457
499.177
361.441
216.916
74.065
-55.978
-157.38
-220.049
-239.62
-223.04
-190.949
-159.111
-135.721
-122.128
-111.33
-99.983
-89.071
-80.516
-77.809
-81.194
-88.303
-96.833
-104.063
-108.664
-110.641
-109.991
-107.186
-102.987
-98.026
-93.143
-89.216
-86.606
-85.383
-85.502
-86.693
-88.739
-91.49
-94.675
-98.017
-101.297
-104.306
-106.938
-109.153
-110.87
-112.017
-112.543
-112.398
-111.595
-110.171
-108.144
-105.539
-102.391
-98.724
-94.593
-90.063
-85.196
-80.068
-74.737
-69.243
-63.63
-57.926
-52.155
-46.341
-40.491
-34.598
-28.669
-22.711
-16.732
-10.749
-4.771
1.195
7.141
13.06
18.944
24.78
30.554
36.251
41.854
47.344
52.701
57.9
62.92
67.741
72.347
76.723
80.852
84.719
88.309
91.61
94.609
97.292
99.649
101.669
103.341
104.661
105.624
106.227
106.471
106.357
105.889
105.072
103.914
102.424
100.612
98.491
96.072
93.373
90.411
87.204
83.773
80.137
76.319
72.34
68.226
63.999
59.684
55.303
50.88
46.442
42.013
37.616
33.276
29.017
24.861
20.83
16.946
13.226
9.687
6.344
3.207
0.289
-2.402
-4.859
-7.079
-9.059
-10.8
-12.303
-13.571
-14.613
-15.443
-16.074
-16.522
-16.802
-16.935
-16.939
-16.837
-16.647
-16.386
-16.069
-15.717
-15.353
-14.998
-14.678
-14.414
-14.229
-14.148
-14.195
-14.389
-14.745
-15.271
-15.977
-16.88
-17.996
-19.349
-20.959
-22.831
-24.973
-27.388
-30.064
-32.981
-36.103
-39.371
-42.74
-46.173
-49.632
-53.09
-56.5
-59.802
-62.955
-65.916
-68.644
-71.117
-73.304
-75.19
-76.835
-78.311
-79.712
-81.153
-82.687
-84.375
-86.326
-88.634
-91.422
-94.823
-98.861
-103.606
-109.188
-115.577
-122.651
-130.109
-137.324
-143.765
-149.072
-152.715
-154.292
-153.79
-151.368
-147.719
-144.003
-140.896
-138.88
-138.735
-140.727
-144.378
-148.629
-151.285
-149.702
-142.251
-127.181
-101.701
-63.688
-12
51.574
121.144
191.167
259.501
329.193
404.773
484.744
557.957
604.07
604.703
553.187
456.796
333.052
198.948
67.043
-53.886
-154.489
-223.619
-255.496
-252.622
-227.351
-196.124
-169.568
-150.765
-136.577
-123.255
-110.433
-100.254
-95.827
-97.652
-103.825
-111.868
-118.899
-123.517
-125.612
-125.076
-122.282
-117.937
-112.66
-107.307
-102.795
-99.509
-97.524
-96.818
-97.146
-98.279
-100.062
-102.213
-104.439
-106.546
-108.349
-109.751
-110.723
-111.187
-111.077
-110.358
-109.002
-107.015
-104.432
-101.272
-97.563
-93.353
-88.68
-83.604
-78.192
-72.51
-66.636
-60.634
-54.549
-48.424
-42.291
-36.171
-30.088
-24.051
-18.056
-12.107
-6.208
-0.364
5.415
11.122
16.755
22.311
27.791
33.191
38.505
43.723
48.837
53.837
58.71
63.443
68.019
72.423
76.644
80.673
84.502
88.125
91.532
94.718
97.677
100.405
102.894
105.14
107.135
108.875
110.355
111.575
112.53
113.222
113.65
113.814
113.717
113.362
112.755
111.899
110.801
109.467
107.907
106.131
104.151
101.98
99.63
97.117
94.457
91.665
88.758
85.752
82.663
79.507
76.301
73.063
69.81
66.557
63.324
60.127
56.985
53.913
50.929
48.046
45.277
42.636
40.134
37.782
35.588
33.56
31.706
30.032
28.541
27.237
26.12
25.187
24.435
23.855
23.437
23.169
23.039
23.031
23.131
23.325
23.599
23.942
24.342
24.787
25.263
25.758
26.252
26.724
27.157
27.533
27.834
28.051
28.168
28.173
28.065
27.839
27.489
27.005
26.361
25.531
24.505
23.277
21.853
20.25
18.482
16.576
14.581
12.543
10.516
8.553
6.669
4.872
3.175
1.603
0.208
-0.961
-1.895
-2.613
-3.137
-3.494
-3.705
-3.804
-3.886
-4.063
-4.452
-5.174
-6.294
-7.862
-9.909
-12.496
-15.731
-19.593
-23.914
-28.381
-32.533
-35.905
-38.137
-38.881
-37.796
-34.943
-30.607
-25.331
-20.143
-16.15
-14.425
-15.679
-19.859
-25.95
-32.513
-37.918
-39.791
-35.058
-20.044
8.204
49.221
99.15
154.123
212.2
276.675
352.552
437.161
519.121
577.077
590.517
552.547
469.473
362.51
251.846
148.488
60.759
-13.158
-72.012
-109.329
-128.397
-130.259
-118.836
-104.027
-86.668
-68.102
-51.612
-36.695
-25.972
-21.687
-22.475
-27.011
-33.521
-39.637
-44.18
-46.81
-47.162
-45.348
-41.989
-37.715
-33.283
-29.567
-27.01
-25.709
-25.708
-26.86
-28.967
-31.886
-35.352
-39.052
-42.773
-46.342
-49.659
-52.699
-55.392
-57.649
-59.405
-60.615
-61.266
-61.373
-60.939
-59.959
-58.447
-56.428
-53.954
-51.087
-47.886
-44.415
-40.719
-36.831
-32.784
-28.603
-24.307
-19.91
-15.416
-10.821
-6.127
-1.345
3.517
8.446
13.435
18.478
23.57
28.704
33.872
39.06
44.254
49.435
54.583
59.677
64.689
69.593
74.361
78.97
83.398
87.626
91.633
95.399
98.906
102.137
105.075
107.705
110.011
111.98
113.599
114.858
115.751
116.271
116.417
116.187
115.582
114.607
113.267
111.569
109.523
107.138
104.429
101.408
98.094
94.505
90.663
86.589
82.31
77.85
73.236
68.498
63.662
58.757
53.812
48.855
43.914
39.018
34.193
29.468
24.869
20.42
16.145
12.068
8.208
4.583
1.208
-1.904
-4.743
-7.3
-9.568
-11.542
-13.219
-14.598
-15.681
-16.468
-16.966
-17.182
-17.129
-16.823
-16.281
-15.525
-14.575
-13.457
-12.193
-10.808
-9.325
-7.764
-6.142
-4.482
-2.807
-1.139
0.496
2.073
3.571
4.965
6.238
7.372
8.353
9.172
9.823
10.302
10.598
10.691
10.555
10.163
9.506
8.581
7.393
5.953
4.28
2.402
0.368
-1.766
-3.951
-6.139
-8.299
-10.412
-12.451
-14.366
-16.093
-17.573
-18.791
-19.773
-20.547
-21.137
-21.557
-21.827
-22.046
-22.363
-22.91
-23.836
-25.241
-27.146
-29.661
-32.969
-37.112
-42.019
-47.368
-52.52
-56.957
-60.356
-62.307
-62.525
-61.058
-58.121
-54.588
-51.951
-51.41
-53.974
-60.445
-70.646
-83.46
-97.383
-109.913
-117.595
-117.098
-104.923
-77.892
-36.346
16.362
77.372
143.972
217.046
300.023
389.648
475.111
538.798
562.26
537.689
471.407
381.593
287.312
200.294
124.206
55.167
-8.969
-65.042
-109.226
-137.736
-149.601
-147.718
-135.885
-117.417
-95.86
-75.083
-57.702
-45.209
-38.195
-35.921
-37.255
-41.401
-47.127
-52.704
-57.072
-59.68
-60.331
-59.514
-57.824
-55.642
-53.506
-52.036
-51.513
-52.043
-53.612
-55.956
-58.817
-61.991
-65.187
-68.147
-70.746
-72.91
-74.609
-75.857
-76.612
-76.831
-76.517
-75.675
-74.313
-72.442
-70.062
-67.184
-63.865
-60.176
-56.192
-51.99
-47.615
-43.097
-38.468
-33.753
-28.973
-24.148
-19.28
-14.371
-9.431
-4.475
0.479
5.414
10.324
15.204
20.048
24.85
29.605
34.3
38.927
43.473
47.921
52.254
56.452
60.493
64.358
68.031
71.494
74.735
77.741
80.497
82.994
85.221
87.169
88.826
90.184
91.235
91.97
92.385
92.475
92.237
91.67
90.775
89.554
88.011
86.151
83.981
81.509
78.744
75.696
72.376
68.797
64.973
60.921
56.658
52.202
47.573
42.792
37.882
32.864
27.762
22.598
17.394
12.173
6.956
1.767
-3.375
-8.446
-13.425
-18.293
-23.029
-27.615
-32.033
-36.266
-40.301
-44.125
-47.729
-51.103
-54.241
-57.138
-59.789
-62.192
-64.345
-66.248
-67.904
-69.316
-70.489
-71.434
-72.163
-72.69
-73.033
-73.211
-73.243
-73.149
-72.951
-72.666
-72.31
-71.9
-71.45
-70.976
-70.495
-70.024
-69.578
-69.176
-68.832
-68.56
-68.373
-68.277
-68.277
-68.379
-68.583
-68.894
-69.323
-69.883
-70.601
-71.496
-72.576
-73.851
-75.32
-76.975
-78.797
-80.756
-82.802
-84.885
-86.953
-88.956
-90.858
-92.624
-94.216
-95.58
-96.647
-97.368
-97.725
-97.711
-97.316
-96.513
-95.302
-93.742
-91.967
-90.14
-88.426
-86.945
-85.826
-85.28
-85.423
-86.254
-87.653
-89.213
-90.485
-91.146
-90.801
-88.977
-85.569
-80.848
-75.466
-70.805
-68.297
-68.99
-74.024
-84.363
-99.968
-119.647
-141.172
-161.024
-175.17
-179.823
-170.956
-144.748
-100.454
-40.605
31.563
112.525
202.134
302.065
408.136
509.057
585.934
621.217
608.811
552.827
468.753
371.135
264.558
155.745
50.392
-44.288
-112.452
-149.56
-162.587
-158.865
-150.897
-144.604
-135.789
-123.68
-109.237
-94.405
-84.103
-80.411
-82.261
-88.164
-96.402
-105.228
-113.099
-119.104
-122.68
-123.707
-122.785
-120.561
-117.553
-114.462
-111.97
-110.408
-109.951
-110.597
-112.111
-114.32
-117.082
-120.155
-123.304
-126.345
-129.111
-131.524
-133.566
-135.184
-136.303
-136.871
-136.852
-136.242
-135.063
-133.324
-131.027
-128.189
-124.843
-121.044
-116.854
-112.338
-107.562
-102.58
-97.433
-92.16
-86.793
-81.355
-75.869
-70.342
-64.775
-59.177
-53.559
-47.934
-42.318
-36.718
-31.142
-25.596
-20.085
-14.619
-9.206
-3.859
1.406
6.573
11.624
16.537
21.287
25.854
30.216
34.357
38.259
41.908
45.287
48.383
51.182
53.672
55.842
57.683
59.183
60.335
61.135
61.578
61.665
61.395
60.771
59.799
58.483
56.833
54.857
52.567
49.976
47.096
43.945
40.539
36.899
33.045
29.001
24.791
20.439
15.972
11.417
6.802
2.153
-2.501
-7.133
-11.716
-16.222
-20.624
-24.898
-29.018
-32.961
-36.706
-40.233
-43.523
-46.561
-49.331
-51.823
-54.027
-55.936
-57.543
-58.843
-59.837
-60.524
-60.908
-60.993
-60.786
-60.297
-59.54
-58.531
-57.291
-55.837
-54.193
-52.382
-50.429
-48.36
-46.197
-43.962
-41.676
-39.363
-37.046
-34.751
-32.503
-30.323
-28.235
-26.265
-24.431
-22.753
-21.244
-19.911
-18.763
-17.813
-17.073
-16.568
-16.316
-16.325
-16.603
-17.152
-17.961
-19.007
-20.256
-21.646
-23.128
-24.658
-26.19
-27.695
-29.131
-30.448
-31.612
-32.577
-33.298
-33.75
-33.905
-33.76
-33.367
-32.797
-32.144
-31.535
-31.061
-30.824
-30.946
-31.514
-32.644
-34.436
-36.919
-40.178
-44.332
-49.353
-55.133
-61.387
-67.549
-73.118
-77.645
-80.49
-81.183
-79.608
-75.851
-70.605
-64.991
-59.855
-56.149
-54.939
-56.518
-60.368
-65.419
-69.515
-69.866
-63.889
-48.388
-19.736
22.729
76.461
138.613
205.095
276.481
359.223
453.283
552.67
641.111
692.409
692.441
638.116
540.067
422.452
298.548
179.139
72.902
-20.092
-90.078
-132.73
-155.047
-160.832
-159.23
-155.326
-143.727
-123.249
-95.489
-63.708
-34.693
-12.127
3.768
12.764
14.536
9.478
-1.054
-14.697
-28.716
-41.474
-52.496
-61.12
-66.3
-67.685
-65.917
-62.643
-59.702
-58.041
-58.055
-59.746
-62.878
-67.265
-71.463
-74.281
-76.802
-77.959
-75.615
-66.629
-43.733
-8.356
29.052
56.911
60.299
37.394
0.991
-37.264
-64.958
-78.381
-84.538
-86.195
-84.364
-79.084
-67.359
-49.835
-29.403
-7.671
13.604
32.677
48.297
59.571
66.358
69.85
71.816
73.271
74.632
76.266
78.549
81.842
86.362
91.799
97.467
102.971
108.203
113.175
117.977
122.598
126.943
131
134.847
138.526
142.039
145.343
148.341
150.974
153.218
155.064
156.511
157.554
158.173
158.347
158.067
157.328
156.141
154.518
152.473
150.017
147.166
143.938
140.359
136.453
132.24
127.738
122.96
117.927
112.663
107.197
101.557
95.772
89.87
83.879
77.829
71.75
65.672
59.624
53.633
47.728
41.936
36.285
30.803
25.515
20.444
15.61
11.034
6.731
2.716
-0.999
-4.405
-7.492
-10.257
-12.694
-14.804
-16.588
-18.048
-19.191
-20.027
-20.569
-20.836
-20.845
-20.616
-20.171
-19.535
-18.732
-17.788
-16.724
-15.562
-14.324
-13.035
-11.719
-10.406
-9.122
-7.891
-6.739
-5.692
-4.77
-3.992
-3.37
-2.908
-2.617
-2.506
-2.589
-2.895
-3.441
-4.242
-5.307
-6.635
-8.216
-10.036
-12.062
-14.246
-16.549
-18.929
-21.347
-23.786
-26.21
-28.593
-30.905
-33.085
-35.078
-36.843
-38.348
-39.599
-40.631
-41.46
-42.127
-42.69
-43.207
-43.783
-44.51
-45.458
-46.718
-48.305
-50.303
-52.913
-56.188
-60.052
-64.245
-68.167
-71.236
-73.107
-73.238
-71.048
-66.497
-59.733
-51.614
-43.957
-38.264
-35.804
-37.987
-45.48
-57.707
-73.575
-90.548
-104.301
-110.908
-106.093
-84.92
-45.915
8.723
76.894
154.367
240.097
339.398
450.053
563.153
662.265
721.538
725.881
674.17
574.77
445.155
301.021
153.901
18.055
-89.647
-157.46
-181.033
-169.116
-142.392
-116.035
-97.768
-87.185
-76.13
-62.174
-47.356
-34.365
-27.574
-27.598
-32.032
-39.112
-46.671
-52.842
-57.134
-59.237
-59.096
-57.369
-54.748
-51.787
-49.168
-47.484
-46.968
-47.695
-49.587
-52.37
-55.821
-59.724
-63.809
-67.811
-71.503
-74.75
-77.484
-79.659
-81.234
-82.158
-82.395
-81.944
-80.835
-79.083
-76.715
-73.757
-70.234
-66.202
-61.727
-56.875
-51.725
-46.336
-40.749
-35.005
-29.135
-23.163
-17.114
-10.999
-4.818
1.418
7.696
14.001
20.313
26.617
32.902
39.153
45.361
51.51
57.584
63.563
69.426
75.151
80.714
86.088
91.244
96.157
100.802
105.158
109.205
112.924
116.297
119.307
121.938
124.175
126.003
127.409
128.381
128.908
128.981
128.596
127.749
126.44
124.67
122.444
119.767
116.649
113.1
109.132
104.759
99.998
94.867
89.387
83.578
77.467
71.078
64.44
57.582
50.535
43.328
35.995
28.567
21.075
13.554
6.034
-1.452
-8.871
-16.192
-23.382
-30.412
-37.252
-43.873
-50.25
-56.359
-62.179
-67.69
-72.876
-77.724
-82.221
-86.357
-90.126
-93.522
-96.543
-99.188
-101.46
-103.362
-104.904
-106.098
-106.959
-107.507
-107.762
-107.746
-107.485
-107.003
-106.327
-105.48
-104.485
-103.362
-102.138
-100.838
-99.488
-98.113
-96.738
-95.388
-94.085
-92.853
-91.71
-90.669
-89.745
-88.942
-88.275
-87.76
-87.417
-87.278
-87.365
-87.687
-88.254
-89.07
-90.129
-91.417
-92.904
-94.535
-96.268
-98.055
-99.849
-101.62
-103.324
-104.907
-106.318
-107.486
-108.347
-108.892
-109.113
-109.007
-108.594
-107.868
-106.879
-105.77
-104.686
-103.783
-103.214
-103.056
-103.439
-104.601
-106.644
-109.556
-113.159
-116.934
-120.386
-123.245
-125.131
-125.572
-124.401
-121.686
-118.011
-114.854
-113.586
-115.027
-119.953
-128.958
-141.919
-157.988
-175.159
-189.724
-197.885
-196.676
-183.057
-154.136
-108.038
-44.053
35.109
122.792
212.667
299.982
384.215
467.154
544.83
608.646
644.272
636.284
580.868
481.486
347.354
195.897
41.873
-98.369
-204.356
-266.991
-286.094
-271.553
-244.686
-219.369
-200.918
-188.659
-175.572
-159.851
-144.014
-130.717
-123.48
-122.609
-125.912
-131.643
-137.689
-142.257
-144.81
-145.158
-143.484
-140.514
-136.916
-133.217
-130.04
-127.966
-127.245
-127.925
-129.872
-132.761
-136.329
-140.341
-144.528
-148.632
-152.425
-155.748
-158.506
-160.654
-162.151
-162.961
-163.063
-162.45
-161.14
-159.158
-156.539
-153.321
-149.536
-145.239
-140.49
-135.358
-129.924
-124.251
-118.384
-112.36
-106.207
-99.946
-93.596
-87.169
-80.665
-74.088
-67.446
-60.751
-54.019
-47.265
-40.5
-33.732
-26.971
-20.229
-13.524
-6.874
-0.299
6.179
12.536
18.746
24.78
30.61
36.214
41.567
46.652
51.447
55.933
60.092
63.91
67.371
70.463
73.173
75.489
77.403
78.908
80.001
80.68
80.945
80.798
80.246
79.295
77.954
76.234
74.148
71.711
68.938
65.849
62.462
58.8
54.886
50.744
46.402
41.887
37.227
32.451
27.59
22.672
17.729
12.789
7.882
3.036
-1.721
-6.36
-10.857
-15.187
-19.324
-23.248
-26.939
-30.378
-33.55
-36.443
-39.046
-41.352
-43.354
-45.049
-46.433
-47.509
-48.279
-48.747
-48.919
-48.807
-48.422
-47.784
-46.911
-45.827
-44.554
-43.117
-41.543
-39.857
-38.086
-36.25
-34.372
-32.474
-30.583
-28.723
-26.92
-25.195
-23.57
-22.069
-20.712
-19.516
-18.494
-17.653
-17
-16.544
-16.299
-16.28
-16.511
-17.009
-17.777
-18.822
-20.145
-21.735
-23.577
-25.635
-27.856
-30.199
-32.615
-35.061
-37.497
-39.864
-42.116
-44.205
-46.065
-47.647
-48.926
-49.877
-50.499
-50.808
-50.792
-50.486
-49.996
-49.424
-48.916
-48.615
-48.619
-49.086
-50.213
-52.091
-54.697
-57.84
-61.088
-64.001
-66.253
-67.438
-67.099
-65.036
-61.422
-56.935
-52.806
-50.309
-50.293
-53.481
-60.684
-72.046
-86.6
-102.322
-116.049
-124.203
-123.779
-111.951
-85.584
-42.563
17.249
92.295
179.197
273.145
368.922
460.627
541.212
604.016
644.302
658.863
645.992
606.185
541.859
457.34
359.221
255.053
151.538
54.987
-28.337
-93.842
-139.212
-164.248
-171.174
-163.694
-145.468
-120.512
-93.71
-69.333
-50.133
-37.492
-31.227
-30.203
-33.31
-39.229
-46.054
-51.989
-55.998
-57.695
-57.384
-55.755
-53.362
-50.727
-48.502
-47.299
-47.443
-48.993
-51.763
-55.426
-59.714
-64.385
-69.182
-73.85
-78.165
-81.976
-85.191
-87.764
-89.658
-90.835
-91.276
-90.975
-89.946
-88.219
-85.834
-82.837
-79.272
-75.2
-70.68
-65.779
-60.576
-55.127
-49.478
-43.663
-37.708
-31.632
-25.456
-19.193
-12.846
-6.422
0.072
6.625
13.219
19.84
26.478
33.12
39.758
46.377
52.957
59.475
65.912
72.241
78.439
84.478
90.328
95.962
101.357
106.49
111.342
115.895
120.13
124.03
127.58
130.768
133.579
136.003
138.028
139.646
140.853
141.645
142.022
141.987
141.541
140.693
139.451
137.824
135.826
133.471
130.774
127.752
124.426
120.818
116.952
112.852
108.547
104.063
99.432
94.682
89.844
84.947
80.022
75.097
70.202
65.364
60.613
55.975
51.476
47.141
42.995
39.059
35.352
31.893
28.696
25.773
23.134
20.785
18.733
16.978
15.523
14.364
13.498
12.918
12.616
12.58
12.796
13.245
13.906
14.754
15.765
16.911
18.164
19.494
20.874
22.276
23.678
25.057
26.388
27.646
28.806
29.843
30.731
31.446
31.966
32.272
32.348
32.181
31.764
31.094
30.171
28.988
27.532
25.782
23.722
21.349
18.666
15.685
12.426
8.914
5.191
1.316
-2.652
-6.655
-10.646
-14.591
-18.464
-22.23
-25.839
-29.221
-32.309
-35.081
-37.541
-39.701
-41.576
-43.175
-44.521
-45.711
-46.882
-48.15
-49.623
-51.379
-53.419
-55.825
-58.775
-62.335
-66.451
-70.863
-75.027
-78.462
-80.915
-82.016
-81.284
-78.568
-73.935
-68.056
-62.423
-58.296
-56.516
-57.974
-63.182
-71.705
-82.536
-93.547
-101.229
-102.311
-93.734
-72.206
-35.205
16.601
79.764
150.161
222.234
296.145
377.462
464.453
550.486
619.403
646.426
621.472
548.195
441.354
323.87
207.64
97.399
-4.196
-92.033
-152.616
-178.391
-168.604
-132.108
-90.237
-55.785
-35.524
-32.136
-35.533
-40.045
-43.789
-43.297
-42.603
-44.233
-47.188
-51.766
-55.645
-56.956
-56.043
-53.191
-49.272
-45.235
-41.546
-38.689
-36.963
-36.449
-37.11
-38.745
-41.173
-44.238
-47.708
-51.368
-55.016
-58.456
-61.583
-64.34
-66.632
-68.385
-69.545
-70.072
-69.962
-69.235
-67.894
-65.951
-63.437
-60.381
-56.836
-52.863
-48.523
-43.893
-39.034
-33.99
-28.805
-23.511
-18.131
-12.689
-7.193
-1.645
3.948
9.573
15.218
20.866
26.503
32.117
37.697
43.234
48.715
54.123
59.441
64.648
69.725
74.649
79.395
83.937
88.25
92.313
96.107
99.617
102.826
105.72
108.285
110.512
112.391
113.912
115.069
115.853
116.261
116.29
115.938
115.208
114.104
112.63
110.796
108.612
106.09
103.245
100.093
96.65
92.937
88.973
84.781
80.383
75.803
71.069
66.206
61.242
56.205
51.125
46.029
40.947
35.908
30.937
26.062
21.309
16.702
12.266
8.024
3.998
0.209
-3.324
-6.582
-9.55
-12.215
-14.568
-16.6
-18.309
-19.691
-20.746
-21.478
-21.891
-21.991
-21.787
-21.286
-20.501
-19.447
-18.139
-16.598
-14.846
-12.907
-10.808
-8.578
-6.247
-3.841
-1.39
1.082
3.549
5.987
8.375
10.688
12.904
14.999
16.949
18.73
20.324
21.712
22.883
23.826
24.532
24.995
25.219
25.2
24.934
24.408
23.599
22.494
21.093
19.399
17.418
15.166
12.654
9.917
7.017
4.01
0.96
-2.09
-5.129
-8.127
-11.037
-13.802
-16.349
-18.646
-20.699
-22.49
-23.973
-25.098
-25.827
-26.214
-26.4
-26.523
-26.724
-27.069
-27.611
-28.536
-29.927
-31.743
-33.842
-35.774
-37.056
-37.494
-36.797
-34.552
-30.898
-26.137
-20.817
-16.411
-14.11
-14.612
-19.127
-28.465
-42.013
-58.683
-76.504
-91.898
-101.813
-103.409
-92.532
-65.756
-23.562
30.906
93.989
159.767
228.726
308.092
396.394
488.69
571.487
615.006
601.504
527.194
398.433
248.084
109.153
0.798
-62.697
-89.404
-97.313
-96.273
-96.118
-97.348
-93.063
-82.338
-66.006
-47.353
-32.548
-24.251
-22.639
-26.758
-34.242
-43.119
-51.752
-58.857
-63.879
-66.52
-66.897
-65.479
-62.759
-59.487
-56.528
-54.351
-53.155
-52.977
-53.638
-55.017
-57.053
-59.532
-62.198
-64.829
-67.218
-69.295
-71.066
-72.497
-73.543
-74.138
-74.218
-73.785
-72.866
-71.468
-69.596
-67.239
-64.395
-61.11
-57.449
-53.477
-49.274
-44.887
-40.349
-35.701
-30.975
-26.2
-21.403
-16.588
-11.751
-6.899
-2.045
2.796
7.604
12.371
17.094
21.766
26.384
30.941
35.428
39.836
44.155
48.371
52.467
56.424
60.219
63.833
67.249
70.451
73.427
76.163
78.648
80.872
82.828
84.506
85.9
87.004
87.81
88.314
88.514
88.408
87.996
87.278
86.26
84.943
83.336
81.443
79.273
76.836
74.141
71.2
68.026
64.633
61.038
57.257
53.311
49.219
45.003
40.685
36.289
31.835
27.348
22.85
18.362
13.905
9.499
5.165
0.921
-3.213
-7.22
-11.084
-14.79
-18.323
-21.672
-24.824
-27.771
-30.507
-33.025
-35.322
-37.394
-39.241
-40.863
-42.262
-43.443
-44.411
-45.173
-45.738
-46.119
-46.331
-46.391
-46.318
-46.131
-45.85
-45.497
-45.093
-44.658
-44.209
-43.762
-43.332
-42.935
-42.588
-42.308
-42.112
-42.019
-42.044
-42.205
-42.513
-42.978
-43.605
-44.393
-45.343
-46.453
-47.726
-49.174
-50.805
-52.624
-54.632
-56.823
-59.177
-61.668
-64.265
-66.915
-69.575
-72.201
-74.749
-77.19
-79.504
-81.674
-83.682
-85.49
-87.059
-88.364
-89.394
-90.158
-90.697
-91.038
-91.231
-91.353
-91.461
-91.633
-91.956
-92.475
-93.24
-94.288
-95.619
-97.323
-99.521
-102.174
-105.15
-108.148
-110.63
-112.182
-112.417
-110.748
-106.815
-100.625
-92.389
-83.041
-73.966
-66.307
-61.422
-60.606
-64.091
-71.348
-81.272
-91.442
-98.799
-100.061
-90.892
-66.999
-28.194
22.133
80.972
143.82
212.745
296.376
392.347
493.021
581.125
625.521
611.668
536.301
404.007
243.162
77.677
-70.638
-174.133
-227.146
-232.413
-200.908
-159.648
-124.286
-101.355
-91.444
-84.384
-75.518
-66.034
-57.919
-55.664
-60.12
-68.572
-78.568
-87.432
-93.816
-97.783
-99.294
-98.595
-96.288
-93.019
-89.618
-86.888
-85.174
-84.523
-84.904
-86.153
-88.126
-90.695
-93.613
-96.614
-99.506
-102.136
-104.437
-106.396
-107.958
-109.055
-109.638
-109.673
-109.161
-108.126
-106.573
-104.504
-101.927
-98.86
-95.348
-91.448
-87.219
-82.728
-78.024
-73.145
-68.129
-63.008
-57.806
-52.543
-47.227
-41.857
-36.439
-30.984
-25.506
-20.021
-14.539
-9.069
-3.618
1.806
7.195
12.536
17.817
23.022
28.134
33.134
38.001
42.709
47.236
51.562
55.668
59.537
63.155
66.504
69.57
72.339
74.801
76.944
78.756
80.226
81.346
82.109
82.51
82.544
82.211
81.509
80.441
79.011
77.225
75.09
72.615
69.812
66.692
63.269
59.559
55.579
51.348
46.886
42.215
37.357
32.338
27.184
21.92
16.573
11.171
5.741
0.309
-5.097
-10.452
-15.729
-20.904
-25.951
-30.847
-35.568
-40.093
-44.401
-48.472
-52.29
-55.839
-59.105
-62.077
-64.747
-67.107
-69.153
-70.882
-72.29
-73.38
-74.153
-74.614
-74.769
-74.625
-74.194
-73.492
-72.538
-71.352
-69.954
-68.368
-66.617
-64.726
-62.72
-60.619
-58.44
-56.204
-53.931
-51.643
-49.365
-47.121
-44.932
-42.821
-40.811
-38.918
-37.161
-35.551
-34.091
-32.793
-31.665
-30.723
-29.995
-29.504
-29.263
-29.283
-29.561
-30.087
-30.848
-31.81
-32.928
-34.164
-35.476
-36.827
-38.193
-39.531
-40.812
-42.005
-43.052
-43.902
-44.521
-44.886
-45.025
-44.993
-44.83
-44.594
-44.344
-44.139
-44.091
-44.301
-44.88
-45.94
-47.512
-49.691
-52.665
-56.474
-61.029
-66.022
-70.794
-74.752
-77.504
-78.539
-77.492
-74.433
-69.662
-64.213
-59.728
-57.475
-58.626
-64.194
-74.173
-87.658
-102.898
-116.708
-125.517
-126.109
-114.607
-87.573
-43.324
17.057
89.085
166.943
246.251
327.326
411.795
496.466
571.753
619.508
621.95
573.232
481.062
365.763
249.548
146.723
62.011
-7.398
-63.678
-106.377
-133.763
-143.388
-136.752
-118.571
-93.584
-67.185
-43.88
-25.965
-14.89
-11.14
-13.686
-20.914
-31.129
-42.21
-52.289
-60.435
-66.13
-69.296
-70.385
-69.957
-68.653
-67.28
-66.512
-66.65
-67.771
-69.786
-72.499
-75.765
-79.404
-83.177
-86.828
-90.161
-93.091
-95.6
-97.691
-99.341
-100.483
-101.067
-101.086
-100.551
-99.474
-97.858
-95.693
-92.98
-89.764
-86.101
-82.05
-77.681
-73.032
-68.132
-63.012
-57.698
-52.214
-46.582
-40.808
-34.891
-28.841
-22.671
-16.398
-10.043
-3.617
2.873
9.414
15.996
22.608
29.232
35.852
42.452
49.006
55.492
61.883
68.147
74.259
80.191
85.92
91.422
96.675
101.657
106.349
110.731
114.785
118.493
121.838
124.803
127.375
129.539
131.286
132.608
133.498
133.955
133.977
133.566
132.726
131.464
129.789
127.71
125.241
122.395
119.189
115.642
111.774
107.61
103.174
98.494
93.598
88.516
83.278
77.917
72.464
66.95
61.406
55.865
50.357
44.914
39.567
34.346
29.28
24.398
19.724
15.285
11.103
7.196
3.582
0.273
-2.717
-5.382
-7.715
-9.712
-11.371
-12.693
-13.683
-14.346
-14.69
-14.727
-14.471
-13.941
-13.158
-12.147
-10.934
-9.546
-8.013
-6.364
-4.629
-2.836
-1.011
0.822
2.636
4.404
6.098
7.688
9.148
10.452
11.576
12.499
13.204
13.677
13.91
13.899
13.643
13.133
12.357
11.289
9.914
8.223
6.22
3.912
1.314
-1.554
-4.656
-7.943
-11.358
-14.849
-18.371
-21.89
-25.381
-28.809
-32.118
-35.234
-38.084
-40.636
-42.893
-44.857
-46.529
-47.899
-48.966
-49.801
-50.534
-51.28
-52.151
-53.234
-54.533
-56.144
-58.286
-61.043
-64.36
-67.958
-71.219
-73.612
-74.901
-74.712
-72.589
-68.493
-62.603
-55.788
-49.851
-46.283
-46.128
-50.461
-59.783
-73.456
-90.185
-107.348
-120.901
-127.067
-122.045
-101.903
-63.764
-8.389
60.171
137.233
216.628
297.895
386.046
478.452
568.804
642.098
671.927
644.704
557.773
419.863
259.626
103.384
-27.037
-115.562
-163.575
-179.586
-177.259
-169.948
-162.312
-154.581
-142.822
-125.052
-104.581
-85.45
-72.012
-66.448
-67.641
-73.683
-82.725
-92.759
-102.054
-109.643
-114.929
-117.803
-118.767
-118.412
-117.267
-116.044
-115.453
-115.828
-117.302
-119.815
-123.104
-126.966
-131.212
-135.584
-139.809
-143.679
-147.073
-149.949
-152.304
-154.098
-155.276
-155.803
-155.672
-154.905
-153.522
-151.534
-148.954
-145.809
-142.153
-138.05
-133.569
-128.781
-123.739
-118.483
-113.05
-107.474
-101.781
-95.996
-90.134
-84.199
-78.202
-72.16
-66.09
-60.011
-53.936
-47.874
-41.838
-35.837
-29.885
-23.997
-18.19
-12.481
-6.894
-1.449
3.83
8.915
13.783
18.412
22.784
26.88
30.685
34.184
37.361
40.207
42.709
44.859
46.647
48.065
49.108
49.771
50.054
49.957
49.482
48.634
47.418
45.842
43.918
41.654
39.066
36.166
32.971
29.497
25.766
21.796
17.611
13.234
8.69
4.006
-0.791
-5.675
-10.616
-15.59
-20.567
-25.521
-30.426
-35.257
-39.989
-44.599
-49.063
-53.358
-57.466
-61.367
-65.045
-68.484
-71.671
-74.593
-77.243
-79.613
-81.7
-83.5
-85.012
-86.237
-87.178
-87.841
-88.235
-88.369
-88.253
-87.901
-87.331
-86.565
-85.625
-84.534
-83.316
-81.997
-80.602
-79.159
-77.691
-76.219
-74.762
-73.343
-71.983
-70.706
-69.537
-68.495
-67.6
-66.874
-66.331
-65.988
-65.851
-65.919
-66.195
-66.684
-67.395
-68.345
-69.547
-71.002
-72.716
-74.685
-76.892
-79.311
-81.906
-84.615
-87.394
-90.207
-93.017
-95.802
-98.525
-101.132
-103.592
-105.858
-107.879
-109.623
-111.043
-112.113
-112.881
-113.405
-113.757
-114.032
-114.258
-114.472
-114.772
-115.225
-115.942
-117.036
-118.511
-120.467
-123.086
-126.38
-130.256
-134.385
-138.051
-140.644
-141.76
-140.847
-137.568
-132.033
-124.597
-116.419
-109.253
-104.419
-103.094
-106.275
-113.982
-125.34
-138.569
-150.394
-157.128
-155.457
-141.553
-112.081
-65.29
-2.297
72.325
152.98
235.305
319.845
408.542
497.015
574.58
622.503
623.52
575.346
487.789
379.424
266.22
152.941
40.283
-69.261
-163.681
-226.525
-249.234
-234.486
-198.942
-162.038
-134.408
-118.703
-110.165
-103.676
-98.591
-96.389
-99.116
-106.769
-117.284
-128.098
-136.92
-142.801
-145.683
-145.782
-143.682
-140.149
-135.934
-131.855
-128.59
-126.399
-125.331
-125.313
-126.165
-127.702
-129.753
-132.111
-134.562
-136.973
-139.229
-141.203
-142.813
-143.963
-144.557
-144.552
-143.923
-142.646
-140.727
-138.183
-135.034
-131.321
-127.086
-122.358
-117.182
-111.609
-105.697
-99.527
-93.162
-86.65
-80.035
-73.347
-66.613
-59.857
-53.094
-46.322
-39.548
-32.779
-26.027
-19.31
-12.642
-6.034
0.505
6.968
13.344
19.615
25.766
31.781
37.642
43.332
48.827
54.105
59.144
63.927
68.439
72.668
76.6
80.223
83.528
86.507
89.155
91.464
93.429
95.048
96.318
97.239
97.815
98.05
97.949
97.519
96.769
95.712
94.357
92.72
90.814
88.654
86.258
83.645
80.834
77.847
74.706
71.435
68.058
64.6
61.085
57.539
53.987
50.452
46.959
43.53
40.189
36.957
33.856
30.906
28.125
25.532
23.142
20.971
19.031
17.332
15.883
14.69
13.758
13.09
12.686
12.549
12.675
13.06
13.7
14.588
15.716
17.072
18.642
20.407
22.348
24.446
26.681
29.029
31.467
33.973
36.527
39.113
41.713
44.306
46.874
49.396
51.852
54.22
56.481
58.612
60.599
62.427
64.087
65.577
66.891
68.023
68.966
69.702
70.217
70.502
70.548
70.354
69.935
69.315
68.531
67.64
66.684
65.709
64.763
63.879
63.098
62.451
61.956
61.653
61.587
61.786
62.277
63.054
64.051
65.213
66.462
67.688
68.826
69.774
70.41
70.656
70.4
69.568
68.151
66.06
63.163
59.474
55.101
50.355
45.874
42.213
39.873
39.518
41.552
46.037
52.841
61.145
69.614
77.006
81.868
82.872
79.863
73.478
64.824
56.499
51.693
53.792
67.712
96.355
138.517
192.338
254.904
327.05
416.029
523.476
642.779
754.697
829.19
847.908
806.025
715.127
599.441
472.684
344.521
222.571
112.148
26.906
-23.879
-42.049
-37.012
-22.542
-8.674
2.49
14.444
28.662
43.765
57.083
64.567
65.049
60.207
51.789
42.023
33.23
26.401
21.935
20.083
20.301
21.855
24.207
26.607
28.255
28.788
28.074
26.111
23.174
19.517
15.307
10.822
6.343
2.061
-1.836
-5.243
-8.13
-10.42
-12.046
-12.972
-13.168
-12.635
-11.401
-9.48
-6.895
-3.689
0.097
4.403
9.162
14.308
19.763
25.462
31.358
37.405
43.568
49.821
56.136
62.499
68.905
75.343
81.801
88.265
94.719
101.147
107.539
113.885
120.176
126.399
132.541
138.583
144.507
150.294
155.924
161.374
166.617
171.631
176.396
180.893
185.106
189.021
192.622
195.898
198.838
201.432
203.673
205.552
207.062
208.2
208.961
209.345
209.352
208.984
208.245
207.14
205.676
203.863
201.709
199.227
196.429
193.33
189.943
186.286
182.379
178.239
173.889
169.351
164.649
159.809
154.856
149.818
144.721
139.591
134.454
129.335
124.259
119.249
114.328
109.519
104.842
100.317
95.963
91.799
87.841
84.102
80.595
77.326
74.306
71.538
69.027
66.775
64.781
63.044
61.562
60.331
59.344
58.595
58.071
57.757
57.639
57.695
57.904
58.239
58.675
59.188
59.753
60.347
60.947
61.535
62.092
62.6
63.039
63.389
63.627
63.73
63.681
63.465
63.071
62.489
61.712
60.738
59.575
58.223
56.679
54.927
52.936
50.687
48.178
45.411
42.393
39.136
35.652
31.973
28.164
24.281
20.378
16.485
12.595
8.724
4.918
1.235
-2.249
-5.493
-8.513
-11.304
-13.831
-16.07
-17.988
-19.62
-21.091
-22.492
-23.908
-25.416
-27.029
-28.855
-31.09
-33.823
-37.123
-40.884
-44.629
-47.877
-50.246
-51.196
-50.384
-47.749
-43.037
-36.798
-30.75
-26.665
-26.572
-31.127
-38.534
-47.114
-56.974
-71.679
-95.721
-128.534
-161.325
-175.773
-155.384
-96.043
-4.516
99.994
201.84
299.642
392.381
479.979
554.208
593.491
584.593
525.525
423.596
295.864
158.266
22.022
-99.78
-191.761
-245.353
-258.745
-240.55
-210.274
-181.57
-160.758
-148.212
-137.57
-126.371
-116.068
-108.522
-106.637
-110.403
-117.559
-126.07
-133.669
-139.206
-142.578
-143.707
-142.963
-140.997
-138.401
-135.921
-134.273
-133.751
-134.416
-136.218
-138.947
-142.415
-146.438
-150.741
-155.038
-159.109
-162.829
-166.151
-169.06
-171.51
-173.442
-174.819
-175.631
-175.904
-175.656
-174.892
-173.622
-171.862
-169.656
-167.066
-164.16
-161.008
-157.659
-154.149
-150.507
-146.76
-142.929
-139.027
-135.058
-131.014
-126.895
-122.71
-118.467
-114.177
-109.848
-105.481
-101.081
-96.65
-92.192
-87.716
-83.231
-78.747
-74.278
-69.841
-65.453
-61.136
-56.91
-52.792
-48.799
-44.945
-41.244
-37.711
-34.36
-31.203
-28.254
-25.525
-23.029
-20.78
-18.789
-17.066
-15.622
-14.464
-13.597
-13.027
-12.757
-12.786
-13.114
-13.739
-14.656
-15.859
-17.342
-19.097
-21.112
-23.378
-25.879
-28.603
-31.531
-34.647
-37.931
-41.363
-44.922
-48.587
-52.335
-56.145
-59.994
-63.86
-67.723
-71.559
-75.347
-79.064
-82.688
-86.2
-89.578
-92.803
-95.855
-98.72
-101.381
-103.828
-106.049
-108.038
-109.786
-111.29
-112.547
-113.556
-114.317
-114.832
-115.105
-115.143
-114.954
-114.55
-113.948
-113.164
-112.218
-111.134
-109.932
-108.637
-107.27
-105.853
-104.405
-102.945
-101.487
-100.052
-98.659
-97.329
-96.083
-94.943
-93.928
-93.057
-92.345
-91.804
-91.442
-91.267
-91.276
-91.473
-91.869
-92.477
-93.324
-94.43
-95.799
-97.431
-99.322
-101.456
-103.817
-106.373
-109.066
-111.841
-114.647
-117.435
-120.188
-122.891
-125.502
-127.973
-130.235
-132.233
-133.969
-135.454
-136.674
-137.614
-138.24
-138.57
-138.732
-138.861
-139.091
-139.547
-140.243
-141.254
-142.787
-144.908
-147.58
-150.583
-153.341
-155.333
-156.311
-155.898
-153.728
-149.887
-144.562
-138.542
-133.512
-130.849
-131.647
-137.058
-147.448
-162.026
-179.601
-197.787
-212.565
-220.215
-216.849
-198.095
-163.184
-115.167
-56.661
8.33
80.071
166.113
266.884
376.428
478.679
543.909
552.359
496.458
384.339
245.395
107.14
-6.707
-81.692
-122.172
-136.755
-138.893
-141.24
-145.787
-151.045
-152.281
-145.45
-132.567
-117.924
-105.964
-99.318
-97.907
-100.242
-104.622
-109.838
-114.653
-118.105
-119.816
-119.562
-117.503
-114.149
-109.932
-105.435
-101.402
-98.249
-96.143
-95.124
-95.024
-95.702
-97.085
-98.966
-101.09
-103.233
-105.179
-106.841
-108.208
-109.241
-109.887
-110.073
-109.731
-108.854
-107.465
-105.569
-103.168
-100.256
-96.834
-92.955
-88.686
-84.096
-79.263
-74.235
-69.043
-63.726
-58.311
-52.827
-47.296
-41.723
-36.103
-30.444
-24.76
-19.067
-13.385
-7.722
-2.083
3.525
9.097
14.626
20.1
25.51
30.844
36.086
41.218
46.22
51.069
55.746
60.233
64.514
68.575
72.404
75.987
79.313
82.372
85.155
87.65
89.85
91.747
93.334
94.606
95.56
96.196
96.514
96.517
96.21
95.598
94.688
93.49
92.013
90.27
88.272
86.032
83.565
80.888
78.016
74.969
71.765
68.425
64.968
61.416
57.792
54.116
50.411
46.698
42.999
39.335
35.726
32.193
28.756
25.433
22.243
19.204
16.33
13.636
11.135
8.838
6.754
4.89
3.251
1.84
0.661
-0.288
-1.008
-1.5
-1.768
-1.817
-1.655
-1.288
-0.727
0.014
0.922
1.976
3.159
4.451
5.831
7.278
8.771
10.291
11.823
13.352
14.86
16.329
17.741
19.078
20.324
21.463
22.48
23.36
24.095
24.676
25.098
25.361
25.458
25.379
25.109
24.623
23.904
22.947
21.748
20.306
18.629
16.732
14.644
12.417
10.09
7.705
5.31
2.934
0.621
-1.582
-3.626
-5.446
-6.986
-8.239
-9.199
-9.866
-10.259
-10.372
-10.243
-10.003
-9.776
-9.698
-9.927
-10.537
-11.658
-13.53
-16.223
-19.704
-23.807
-28.008
-31.828
-35.039
-37.214
-37.879
-37.053
-34.905
-32.091
-30.209
-30.458
-33.471
-40.191
-51.182
-65.842
-83.048
-100.52
-114.241
-120.886
-118.018
-102.287
-70.903
-23.316
40.243
116.513
197.965
279.814
358.992
433.045
503.112
565.104
608.731
621.981
593.391
521.609
417.509
300.372
189.396
96.566
25.772
-27.821
-68.408
-98.229
-119.275
-128.503
-125.493
-112.469
-91.062
-66.93
-45.159
-27.749
-16.179
-10.146
-8.277
-9.902
-14.209
-19.625
-24.606
-28.184
-29.883
-29.832
-28.619
-26.707
-24.472
-22.481
-21.291
-21.195
-22.287
-24.459
-27.423
-30.924
-34.742
-38.612
-42.286
-45.615
-48.51
-50.926
-52.847
-54.236
-55.06
-55.318
-55.02
-54.171
-52.781
-50.86
-48.435
-45.559
-42.297
-38.715
-34.878
-30.834
-26.612
-22.245
-17.754
-13.157
-8.467
-3.688
1.18
6.129
11.148
16.223
21.342
26.499
31.687
36.901
42.133
47.375
52.616
57.841
63.034
68.177
73.248
78.224
83.081
87.796
92.347
96.714
100.879
104.823
108.528
111.976
115.152
118.041
120.627
122.896
124.837
126.437
127.688
128.584
129.119
129.291
129.099
128.545
127.632
126.365
124.752
122.801
120.523
117.93
115.035
111.853
108.402
104.698
100.761
96.612
92.271
87.762
83.109
78.336
73.469
68.534
63.558
58.568
53.589
48.649
43.771
38.981
34.304
29.761
25.375
21.165
17.151
13.348
9.773
6.437
3.353
0.528
-2.035
-4.331
-6.359
-8.12
-9.616
-10.852
-11.835
-12.57
-13.065
-13.331
-13.378
-13.221
-12.878
-12.367
-11.709
-10.928
-10.051
-9.102
-8.108
-7.094
-6.081
-5.092
-4.149
-3.269
-2.472
-1.779
-1.205
-0.772
-0.496
-0.392
-0.471
-0.741
-1.205
-1.87
-2.738
-3.802
-5.066
-6.53
-8.205
-10.116
-12.273
-14.677
-17.324
-20.208
-23.312
-26.62
-30.102
-33.691
-37.33
-40.953
-44.502
-47.956
-51.282
-54.426
-57.324
-59.899
-62.11
-63.959
-65.448
-66.542
-67.207
-67.422
-67.25
-66.861
-66.426
-66.114
-66.031
-66.267
-67.024
-68.4
-70.376
-72.788
-75.164
-77.02
-78.105
-78.109
-76.629
-73.753
-69.784
-65.339
-61.891
-60.592
-62.069
-67.33
-77.058
-90.702
-107.061
-123.809
-137.162
-144.195
-142.401
-128.132
-98.433
-52.089
9.463
81.237
157.153
233.24
309.908
388.322
465.219
533.109
577.709
583.545
543.914
458.745
337.203
197.57
59.2
-57.767
-138.122
-178.085
-184.519
-173.112
-158.575
-148.27
-142.127
-133.93
-120.258
-102.975
-85.781
-73.36
-67.737
-67.714
-71.573
-77.65
-84.343
-90.397
-95.028
-97.771
-98.678
-98.297
-97.17
-95.73
-94.502
-93.996
-94.461
-95.987
-98.479
-101.655
-105.263
-109.081
-112.839
-116.297
-119.309
-121.789
-123.697
-125.027
-125.748
-125.832
-125.287
-124.126
-122.365
-120.019
-117.102
-113.645
-109.701
-105.339
-100.631
-95.65
-90.447
-85.062
-79.531
-73.883
-68.141
-62.326
-56.446
-50.507
-44.523
-38.511
-32.489
-26.476
-20.484
-14.524
-8.607
-2.743
3.058
8.781
14.413
19.936
25.33
30.577
35.653
40.536
45.206
49.642
53.827
57.746
61.384
64.727
67.761
70.476
72.86
74.903
76.595
77.928
78.896
79.495
79.721
79.575
79.058
78.175
76.931
75.333
73.389
71.112
68.512
65.604
62.403
58.923
55.183
51.201
46.999
42.596
38.016
33.282
28.418
23.451
18.407
13.311
8.191
3.074
-2.015
-7.049
-12.002
-16.849
-21.566
-26.13
-30.517
-34.708
-38.682
-42.422
-45.914
-49.143
-52.098
-54.769
-57.149
-59.235
-61.024
-62.514
-63.707
-64.605
-65.214
-65.542
-65.597
-65.389
-64.932
-64.24
-63.333
-62.233
-60.963
-59.546
-58.01
-56.38
-54.684
-52.951
-51.204
-49.465
-47.756
-46.101
-44.525
-43.051
-41.704
-40.505
-39.478
-38.644
-38.022
-37.627
-37.468
-37.545
-37.865
-38.434
-39.26
-40.363
-41.756
-43.442
-45.425
-47.703
-50.256
-53.057
-56.065
-59.213
-62.449
-65.726
-68.995
-72.223
-75.369
-78.382
-81.223
-83.843
-86.187
-88.218
-89.904
-91.234
-92.256
-93.036
-93.656
-94.235
-94.853
-95.6
-96.587
-97.889
-99.605
-101.824
-104.571
-107.94
-112.071
-116.95
-122.465
-128.313
-133.894
-138.685
-142.219
-143.819
-143.01
-139.71
-134.039
-126.807
-119.3
-112.489
-107.517
-105.634
-107.114
-111.374
-117.319
-122.598
-124.219
-119.418
-104.361
-74.762
-29.971
27.216
93.727
164.75
241.095
331.106
435.332
548.327
653.725
719.58
724.283
658.605
529.009
365.896
199.679
57.211
-43.804
-105.606
-136.626
-150.605
-160.125
-167.282
-170.452
-165.177
-148.678
-124.486
-98.532
-76.593
-61.909
-54.677
-53.589
-56.741
-62.65
-69.688
-75.938
-80.341
-82.471
-82.368
-80.669
-77.993
-74.835
-71.897
-69.886
-69.142
-69.769
-71.644
-74.439
-77.905
-81.815
-85.872
-89.817
-93.421
-96.534
-99.09
-101.042
-102.342
-102.953
-102.85
-102.02
-100.483
-98.254
-95.351
-91.813
-87.679
-83.004
-77.856
-72.303
-66.424
-60.284
-53.927
-47.397
-40.724
-33.934
-27.049
-20.086
-13.051
-5.955
1.185
8.355
15.534
22.703
29.847
36.953
44.006
50.991
57.889
64.676
71.331
77.827
84.14
90.242
96.103
101.695
106.993
111.977
116.627
120.925
124.854
128.397
131.544
134.281
136.599
138.487
139.938
140.944
141.504
141.616
141.281
140.505
139.293
137.655
135.602
133.149
130.311
127.106
123.553
119.672
115.487
111.021
106.301
101.354
96.207
90.892
85.438
79.878
74.243
68.565
62.874
57.201
51.578
46.032
40.593
35.288
30.143
25.185
20.439
15.927
11.669
7.686
3.994
0.608
-2.463
-5.208
-7.622
-9.703
-11.451
-12.865
-13.95
-14.712
-15.159
-15.302
-15.154
-14.727
-14.041
-13.114
-11.97
-10.638
-9.143
-7.513
-5.776
-3.963
-2.101
-0.218
1.663
3.519
5.33
7.069
8.713
10.236
11.616
12.831
13.86
14.686
15.296
15.678
15.83
15.754
15.448
14.909
14.128
13.083
11.764
10.166
8.292
6.152
3.767
1.163
-1.617
-4.513
-7.476
-10.452
-13.4
-16.285
-19.064
-21.705
-24.163
-26.373
-28.275
-29.828
-31.016
-31.847
-32.354
-32.555
-32.483
-32.222
-31.868
-31.547
-31.383
-31.484
-31.924
-32.784
-34.239
-36.361
-39.109
-42.285
-45.394
-47.906
-49.446
-49.561
-47.696
-43.775
-38.035
-31.126
-24.604
-19.826
-17.698
-19.53
-26.253
-37.432
-51.91
-67.295
-79.542
-85.39
-81.909
-64.866
-30.977
20.957
89.613
169.841
254.656
339.506
424.362
509.15
591.579
665.185
713.194
719.532
674.228
572.906
429.933
268.099
112.832
-7.34
-81.195
-110.099
-105.484
-90.056
-76.342
-68.869
-66.892
-61.858
-51.887
-39.856
-28.434
-22.411
-23.247
-28.91
-37.682
-47.426
-55.889
-62.318
-66.519
-68.322
-68.22
-66.873
-64.75
-62.541
-61.038
-60.579
-61.269
-63.108
-65.831
-69.222
-73.158
-77.395
-81.678
-85.795
-89.536
-92.787
-95.509
-97.628
-99.078
-99.811
-99.782
-98.999
-97.5
-95.3
-92.425
-88.906
-84.768
-80.069
-74.874
-69.25
-63.28
-57.028
-50.541
-43.87
-37.053
-30.122
-23.109
-16.029
-8.888
-1.7
5.517
12.747
19.962
27.146
34.282
41.355
48.35
55.251
62.038
68.69
75.186
81.503
87.617
93.5
99.124
104.464
109.495
114.198
118.556
122.55
126.166
129.389
132.209
134.614
136.595
138.146
139.259
139.93
140.16
139.949
139.3
138.221
136.719
134.805
132.492
129.792
126.723
123.301
119.546
115.477
111.118
106.492
101.624
96.541
91.271
85.846
80.294
74.646
68.933
63.185
57.434
51.71
46.041
40.456
34.983
29.648
24.477
19.495
14.723
10.183
5.892
1.866
-1.881
-5.337
-8.496
-11.351
-13.898
-16.136
-18.064
-19.685
-21.003
-22.026
-22.762
-23.223
-23.423
-23.376
-23.104
-22.629
-21.976
-21.169
-20.233
-19.196
-18.086
-16.93
-15.751
-14.573
-13.417
-12.307
-11.266
-10.318
-9.486
-8.791
-8.258
-7.908
-7.757
-7.821
-8.106
-8.616
-9.354
-10.323
-11.53
-12.988
-14.704
-16.681
-18.921
-21.418
-24.152
-27.089
-30.179
-33.354
-36.559
-39.742
-42.852
-45.854
-48.704
-51.371
-53.835
-56.058
-58.001
-59.634
-60.932
-61.897
-62.581
-63.059
-63.418
-63.793
-64.287
-64.997
-66.02
-67.404
-69.194
-71.41
-74.066
-77.193
-80.841
-85.064
-89.832
-95.031
-100.379
-105.392
-109.471
-111.986
-112.497
-110.686
-106.385
-99.599
-90.744
-81.097
-72.408
-66.274
-62.079
-57.161
-49.725
-39.608
-30.974
-29.739
-35.464
-40.111
-30.209
7.135
75.964
166.908
265.783
363.497
451.565
528.304
590.858
621.29
607.063
540.519
421.812
275.689
129.479
7.303
-71.924
-110.349
-119.571
-115.025
-111.397
-112.629
-116.651
-118.219
-113.888
-105.538
-96.764
-91.468
-91.456
-95.551
-101.854
-108.514
-113.831
-116.987
-117.698
-115.793
-111.627
-105.862
-99.144
-92.237
-85.929
-80.662
-76.652
-74.004
-72.611
-72.345
-73.09
-74.637
-76.764
-79.272
-81.995
-84.79
-87.509
-90.01
-92.157
-93.837
-94.983
-95.562
-95.548
-94.929
-93.717
-91.921
-89.577
-86.725
-83.398
-79.643
-75.516
-71.083
-66.43
-61.626
-56.719
-51.749
-46.746
-41.724
-36.701
-31.682
-26.658
-21.628
-16.594
-11.559
-6.539
-1.54
3.433
8.379
13.294
18.175
23.009
27.784
32.488
37.105
41.617
46.002
50.235
54.294
58.162
61.823
65.26
68.46
71.408
74.092
76.502
78.627
80.456
81.981
83.191
84.08
84.643
84.875
84.776
84.345
83.584
82.497
81.088
79.364
77.335
75.009
72.397
69.511
66.365
62.976
59.362
55.541
51.535
47.366
43.058
38.636
34.124
29.547
24.931
20.3
15.678
11.089
6.558
2.108
-2.239
-6.46
-10.533
-14.439
-18.158
-21.673
-24.971
-28.039
-30.866
-33.445
-35.769
-37.832
-39.633
-41.169
-42.441
-43.449
-44.198
-44.692
-44.94
-44.955
-44.751
-44.343
-43.753
-43.003
-42.115
-41.112
-40.016
-38.849
-37.63
-36.378
-35.112
-33.848
-32.606
-31.407
-30.275
-29.231
-28.294
-27.481
-26.804
-26.274
-25.902
-25.695
-25.647
-25.759
-26.039
-26.501
-27.175
-28.081
-29.221
-30.591
-32.186
-33.987
-35.984
-38.141
-40.396
-42.69
-44.963
-47.178
-49.335
-51.422
-53.399
-55.217
-56.8
-58.106
-59.165
-59.977
-60.526
-60.808
-60.785
-60.511
-60.157
-59.846
-59.692
-59.779
-60.082
-60.698
-61.834
-63.53
-65.721
-68.221
-70.598
-72.539
-73.841
-74.036
-72.765
-70.035
-66.069
-61.555
-57.307
-54.23
-53.745
-57.041
-64.759
-75.322
-84.549
-90.389
-92.363
-91.926
-93.472
-92.394
-79.77
-49.661
7.474
87.786
180.212
281.848
380.124
465.241
531.01
559.262
542.53
484.023
387.966
268.541
140.919
14.882
-94.825
-171.007
-206.385
-201.495
-168.053
-129.274
-100.155
-85.442
-83.104
-83.816
-82.95
-81.528
-81.372
-84.902
-91.761
-99.495
-106.018
-110.035
-111.334
-110.158
-106.834
-101.898
-95.998
-89.954
-84.597
-80.298
-77.136
-75.1
-74.061
-73.936
-74.661
-76.04
-77.826
-79.821
-81.852
-83.792
-85.579
-87.137
-88.375
-89.206
-89.561
-89.413
-88.762
-87.619
-85.985
-83.856
-81.24
-78.165
-74.683
-70.856
-66.751
-62.437
-57.969
-53.39
-48.743
-44.057
-39.356
-34.655
-29.954
-25.249
-20.54
-15.838
-11.153
-6.494
-1.867
2.725
7.281
11.798
16.273
20.701
25.073
29.38
33.609
37.745
41.77
45.664
49.409
52.99
56.394
59.61
62.627
65.434
68.022
70.383
72.51
74.394
76.028
77.406
78.52
79.367
79.945
80.252
80.288
80.057
79.561
78.806
77.799
76.547
75.058
73.344
71.415
69.282
66.958
64.459
61.8
58.998
56.07
53.036
49.915
46.726
43.49
40.227
36.956
33.695
30.464
27.281
24.162
21.125
18.188
15.366
12.673
10.124
7.731
5.506
3.457
1.59
-0.091
-1.584
-2.887
-4.002
-4.931
-5.677
-6.246
-6.642
-6.872
-6.944
-6.87
-6.661
-6.335
-5.906
-5.395
-4.822
-4.21
-3.579
-2.951
-2.342
-1.769
-1.251
-0.8
-0.433
-0.163
-0.002
0.039
-0.056
-0.298
-0.696
-1.256
-1.976
-2.859
-3.907
-5.119
-6.493
-8.027
-9.722
-11.586
-13.636
-15.884
-18.332
-20.977
-23.809
-26.814
-29.976
-33.258
-36.603
-39.944
-43.211
-46.353
-49.344
-52.143
-54.699
-56.962
-58.87
-60.387
-61.511
-62.205
-62.403
-62.069
-61.207
-59.896
-58.325
-56.688
-55.115
-53.779
-52.891
-52.543
-52.728
-53.251
-53.626
-53.39
-52.28
-49.993
-46.253
-41.269
-35.529
-30.026
-26.499
-26.371
-30.511
-39.768
-54.448
-73.661
-95.865
-118.182
-136.1
-145.655
-143.437
-126.141
-91.968
-40.874
26.031
105.272
191.038
277.119
356.495
422.181
468.768
493.448
496.423
477.611
437.545
376.392
292.512
193.323
92.79
4.43
-55.593
-83.627
-89.648
-82.616
-74.25
-70.283
-66.207
-60.773
-53.86
-46.069
-41.743
-42.729
-47.98
-56.22
-65.421
-73.58
-79.88
-84.07
-85.945
-85.694
-83.805
-80.712
-77.04
-73.639
-70.988
-69.266
-68.568
-68.763
-69.715
-71.401
-73.697
-76.379
-79.258
-82.133
-84.827
-87.296
-89.492
-91.345
-92.794
-93.746
-94.14
-93.977
-93.267
-92.014
-90.217
-87.864
-84.961
-81.561
-77.729
-73.536
-69.061
-64.349
-59.44
-54.376
-49.188
-43.908
-38.56
-33.147
-27.668
-22.13
-16.549
-10.943
-5.335
0.268
5.86
11.43
16.972
22.476
27.927
33.316
38.628
43.843
48.941
53.901
58.695
63.303
67.704
71.881
75.819
79.502
82.916
86.051
88.894
91.437
93.67
95.585
97.173
98.431
99.353
99.937
100.183
100.094
99.671
98.921
97.849
96.465
94.778
92.798
90.54
88.015
85.24
82.231
79.005
75.582
71.983
68.23
64.346
60.353
56.276
52.139
47.965
43.778
39.601
35.456
31.365
27.348
23.427
19.621
15.949
12.428
9.073
5.901
2.923
0.152
-2.403
-4.735
-6.839
-8.711
-10.349
-11.752
-12.921
-13.86
-14.572
-15.065
-15.344
-15.42
-15.305
-15.013
-14.565
-13.979
-13.274
-12.47
-11.592
-10.659
-9.694
-8.714
-7.732
-6.766
-5.831
-4.946
-4.129
-3.399
-2.771
-2.265
-1.894
-1.671
-1.605
-1.699
-1.951
-2.363
-2.938
-3.683
-4.618
-5.759
-7.113
-8.686
-10.471
-12.451
-14.606
-16.896
-19.27
-21.689
-24.104
-26.478
-28.785
-30.985
-33.056
-34.969
-36.668
-38.102
-39.232
-40.031
-40.522
-40.755
-40.77
-40.625
-40.39
-40.137
-39.979
-40.016
-40.355
-41.102
-42.289
-44.018
-46.457
-49.645
-53.529
-57.844
-61.998
-65.437
-67.721
-68.259
-66.67
-63.012
-57.498
-51.087
-45.312
-41.397
-40.728
-44.636
-53.259
-65.717
-80.494
-94.609
-104.366
-106.438
-96.58
-70.377
-27.307
29.917
98.547
173.721
255.083
347.874
448.405
547.315
629.177
670.726
661.221
603.363
505.529
382.89
249.256
113.86
-9.765
-103.814
-158.079
-170.226
-149.563
-117.805
-90.26
-73.501
-67.236
-63.515
-58.574
-53.344
-49.619
-50.504
-56.093
-64.063
-72.308
-78.639
-82.073
-82.71
-80.744
-76.71
-71.34
-65.356
-59.55
-54.636
-50.953
-48.585
-47.501
-47.541
-48.554
-50.388
-52.843
-55.694
-58.745
-61.84
-64.821
-67.587
-70.041
-72.06
-73.559
-74.484
-74.799
-74.5
-73.6
-72.103
-70.018
-67.379
-64.217
-60.578
-56.523
-52.113
-47.424
-42.521
-37.45
-32.253
-26.964
-21.604
-16.189
-10.727
-5.213
0.35
5.952
11.586
17.239
22.899
28.559
34.211
39.848
45.462
51.036
56.555
62.001
67.352
72.588
77.682
82.609
87.342
91.861
96.147
100.183
103.953
107.441
110.632
113.515
116.077
118.307
120.195
121.731
122.907
123.719
124.162
124.235
123.938
123.274
122.245
120.859
119.121
117.043
114.633
111.906
108.874
105.554
101.965
98.125
94.056
89.779
85.319
80.699
75.943
71.077
66.124
61.11
56.058
50.992
45.937
40.914
35.946
31.056
26.264
21.591
17.055
12.672
8.46
4.432
0.6
-3.026
-6.438
-9.63
-12.598
-15.338
-17.849
-20.132
-22.191
-24.03
-25.655
-27.076
-28.305
-29.356
-30.248
-30.999
-31.63
-32.159
-32.61
-33.002
-33.356
-33.688
-34.015
-34.352
-34.719
-35.135
-35.616
-36.179
-36.838
-37.607
-38.501
-39.532
-40.707
-42.03
-43.502
-45.127
-46.917
-48.883
-51.045
-53.415
-55.993
-58.782
-61.781
-64.977
-68.35
-71.864
-75.459
-79.083
-82.689
-86.229
-89.66
-92.925
-95.967
-98.73
-101.153
-103.192
-104.823
-106.028
-106.807
-107.175
-107.151
-106.803
-106.266
-105.682
-105.208
-104.997
-105.158
-105.846
-107.275
-109.549
-112.646
-116.389
-120.394
-124.298
-127.891
-130.881
-132.836
-133.515
-132.943
-131.571
-130.406
-130.369
-131.875
-135.217
-140.835
-148.789
-158.451
-168.287
-175.6
-177.606
-172.374
-158.076
-132.339
-93.108
-39.459
26.568
99.612
174.492
248.456
323.581
403.696
486.806
562.994
614.845
625.599
588.624
511.518
409.393
292.997
171.866
48.859
-70.889
-165.946
-223.382
-236.735
-208.664
-166.594
-129.847
-108.227
-107.474
-113.895
-118.578
-119.44
-113.004
-106.079
-102.876
-102.652
-106.275
-110.25
-111.827
-111.355
-108.616
-104.362
-99.716
-94.903
-90.36
-86.795
-84.484
-83.507
-83.843
-85.234
-87.455
-90.358
-93.712
-97.241
-100.712
-103.916
-106.714
-109.029
-110.783
-111.907
-112.354
-112.094
-111.131
-109.486
-107.183
-104.255
-100.738
-96.669
-92.104
-87.103
-81.733
-76.078
-70.198
-64.141
-57.947
-51.644
-45.255
-38.805
-32.303
-25.748
-19.149
-12.513
-5.854
0.81
7.461
14.089
20.68
27.223
33.704
40.102
46.396
52.566
58.587
64.436
70.085
75.505
80.669
85.554
90.137
94.4
98.323
101.888
105.079
107.882
110.284
112.274
113.841
114.976
115.674
115.931
115.748
115.126
114.071
112.588
110.688
108.383
105.687
102.617
99.19
95.427
91.349
86.979
82.344
77.469
72.383
67.115
61.694
56.152
50.521
44.833
39.119
33.411
27.741
22.138
16.635
11.26
6.042
1.008
-3.815
-8.405
-12.737
-16.792
-20.552
-24.002
-27.132
-29.932
-32.395
-34.519
-36.302
-37.745
-38.852
-39.63
-40.086
-40.229
-40.074
-39.634
-38.93
-37.983
-36.818
-35.461
-33.939
-32.281
-30.518
-28.678
-26.789
-24.875
-22.961
-21.071
-19.235
-17.476
-15.82
-14.292
-12.916
-11.714
-10.704
-9.9
-9.315
-8.954
-8.821
-8.918
-9.254
-9.841
-10.7
-11.847
-13.285
-15.017
-17.039
-19.336
-21.892
-24.675
-27.634
-30.719
-33.881
-37.067
-40.241
-43.37
-46.411
-49.312
-51.991
-54.386
-56.474
-58.245
-59.699
-60.824
-61.586
-62.002
-62.165
-62.201
-62.239
-62.403
-62.75
-63.369
-64.459
-66.127
-68.373
-71.047
-73.681
-75.778
-77.016
-77.002
-75.241
-71.608
-66.296
-59.875
-53.801
-49.554
-48.188
-51.01
-59.129
-72.476
-89.956
-109.569
-127.8
-140.702
-144.702
-135.331
-108.038
-62.243
-1.045
72.207
152.002
237.973
336.771
446.416
559.97
661.564
721.443
721.441
654.631
527.084
367.316
204.214
64.331
-33.032
-88.246
-110.218
-114.745
-116.742
-120.219
-124.028
-122.696
-112.675
-97.068
-80.649
-68.42
-63.181
-64.4
-70.309
-78.936
-88.394
-96.833
-103.149
-106.877
-107.927
-106.765
-103.998
-100.185
-96.079
-92.535
-90.028
-88.746
-88.694
-89.647
-91.431
-93.927
-96.929
-100.187
-103.482
-106.634
-109.499
-112.015
-114.113
-115.69
-116.674
-117.014
-116.688
-115.706
-114.088
-111.844
-108.99
-105.563
-101.598
-97.151
-92.286
-87.069
-81.577
-75.874
-70.009
-64.026
-57.961
-51.842
-45.689
-39.511
-33.311
-27.093
-20.871
-14.656
-8.461
-2.3
3.82
9.891
15.907
21.859
27.734
33.519
39.197
44.751
50.162
55.408
60.463
65.306
69.916
74.275
78.37
82.184
85.703
88.913
91.804
94.366
96.589
98.464
99.984
101.142
101.935
102.359
102.416
102.106
101.433
100.4
99.014
97.283
95.216
92.824
90.118
87.113
83.822
80.265
76.461
72.43
68.195
63.781
59.211
54.513
49.712
44.836
39.912
34.965
30.024
25.113
20.258
15.486
10.82
6.283
1.898
-2.316
-6.338
-10.151
-13.74
-17.092
-20.194
-23.038
-25.614
-27.916
-29.939
-31.683
-33.145
-34.328
-35.234
-35.87
-36.247
-36.378
-36.282
-35.974
-35.473
-34.803
-33.985
-33.043
-31.998
-30.868
-29.673
-28.432
-27.168
-25.905
-24.665
-23.47
-22.344
-21.308
-20.383
-19.585
-18.927
-18.414
-18.052
-17.854
-17.833
-18.01
-18.407
-19.032
-19.898
-21.009
-22.353
-23.909
-25.644
-27.497
-29.424
-31.384
-33.335
-35.252
-37.098
-38.827
-40.409
-41.801
-42.955
-43.842
-44.429
-44.709
-44.737
-44.586
-44.346
-44.143
-44.054
-44.166
-44.592
-45.411
-46.734
-48.675
-51.265
-54.602
-58.83
-63.937
-69.822
-76.193
-82.405
-87.844
-91.965
-94.038
-93.603
-90.669
-85.422
-78.734
-72.015
-66.479
-63.512
-64.512
-69.732
-78.292
-88.727
-98.394
-103.898
-101.786
-87.724
-57.44
-10.608
49.479
119.665
197.123
283.842
384.342
494.117
599.193
678.298
710.798
689.111
619.98
518.234
397.148
266.327
134.681
13.609
-81.612
-139.624
-160.995
-158.423
-147.438
-138.95
-135.312
-130.228
-119.826
-105.325
-89.83
-78.441
-73.387
-73.362
-76.732
-81.777
-86.798
-90.55
-92.335
-91.819
-89.241
-85.344
-80.792
-76.075
-71.8
-68.561
-66.664
-66.246
-67.222
-69.284
-72.188
-75.744
-79.698
-83.807
-87.852
-91.619
-94.97
-97.826
-100.101
-101.736
-102.688
-102.926
-102.443
-101.261
-99.402
-96.906
-93.816
-90.173
-86.033
-81.459
-76.521
-71.301
-65.865
-60.257
-54.516
-48.669
-42.738
-36.743
-30.694
-24.591
-18.437
-12.237
-6.003
0.249
6.507
12.76
18.998
25.214
31.393
37.517
43.565
49.519
55.354
61.048
66.575
71.906
77.016
81.882
86.485
90.807
94.831
98.54
101.921
104.961
107.648
109.974
111.928
113.503
114.692
115.493
115.905
115.928
115.565
114.822
113.706
112.227
110.394
108.222
105.724
102.916
99.816
96.443
92.818
88.964
84.904
80.663
76.269
71.748
67.129
62.439
57.707
52.96
48.225
43.528
38.896
34.353
29.923
25.63
21.496
17.541
13.785
10.245
6.937
3.873
1.063
-1.485
-3.766
-5.775
-7.51
-8.972
-10.163
-11.084
-11.74
-12.139
-12.287
-12.199
-11.887
-11.371
-10.669
-9.804
-8.798
-7.676
-6.463
-5.181
-3.852
-2.495
-1.128
0.227
1.55
2.822
4.023
5.134
6.137
7.014
7.751
8.337
8.765
9.028
9.122
9.045
8.789
8.341
7.683
6.798
5.681
4.329
2.743
0.933
-1.086
-3.286
-5.621
-8.04
-10.49
-12.916
-15.275
-17.532
-19.645
-21.567
-23.231
-24.589
-25.636
-26.38
-26.831
-26.986
-26.827
-26.386
-25.783
-25.17
-24.699
-24.528
-24.735
-25.439
-26.863
-29.084
-32.068
-35.607
-39.191
-42.395
-45.036
-46.798
-47.254
-46.394
-44.387
-41.841
-40.145
-40.231
-42.476
-47.612
-56.208
-67.857
-81.587
-95.295
-105.542
-109.812
-106.034
-90.984
-61.811
-16.969
42.342
110.995
183.157
255.727
330.591
411.016
494.442
569.863
618.295
621.291
570.878
474.916
351.947
222.213
105.238
8.669
-65.997
-115.819
-146.638
-161.183
-160.224
-150.909
-134.175
-111.58
-88.483
-66.525
-48.9
-38.684
-35.567
-38.523
-45.82
-54.953
-63.612
-70.532
-75.084
-76.952
-76.462
-74.184
-70.704
-66.905
-63.745
-61.685
-60.886
-61.353
-62.842
-65.155
-68.159
-71.581
-75.126
-78.579
-81.769
-84.615
-87.117
-89.225
-90.86
-91.965
-92.496
-92.446
-91.837
-90.678
-88.973
-86.738
-84.003
-80.822
-77.256
-73.37
-69.226
-64.871
-60.343
-55.674
-50.895
-46.027
-41.089
-36.091
-31.029
-25.91
-20.746
-15.546
-10.325
-5.09
0.152
5.394
10.63
15.852
21.048
26.205
31.306
36.333
41.269
46.091
50.774
55.298
59.642
63.788
67.722
71.429
74.895
78.106
81.051
83.72
86.103
88.19
89.973
91.442
92.593
93.421
93.924
94.103
93.958
93.493
92.712
91.621
90.229
88.544
86.577
84.34
81.843
79.101
76.131
72.95
69.576
66.03
62.331
58.503
54.567
50.548
46.466
42.345
38.205
34.068
29.956
25.889
21.888
17.972
14.161
10.474
6.929
3.542
0.328
-2.7
-5.534
-8.165
-10.584
-12.788
-14.773
-16.536
-18.077
-19.396
-20.493
-21.37
-22.034
-22.491
-22.753
-22.832
-22.742
-22.503
-22.133
-21.653
-21.081
-20.436
-19.733
-18.991
-18.223
-17.445
-16.672
-15.92
-15.206
-14.549
-13.965
-13.469
-13.072
-12.783
-12.609
-12.561
-12.641
-12.847
-13.188
-13.67
-14.311
-15.14
-16.172
-17.406
-18.848
-20.491
-22.328
-24.358
-26.546
-28.841
-31.188
-33.524
-35.816
-38.054
-40.205
-42.222
-44.046
-45.605
-46.883
-47.9
-48.644
-49.081
-49.154
-48.827
-48.169
-47.336
-46.506
-45.838
-45.408
-45.311
-45.747
-46.809
-48.473
-50.508
-52.346
-53.488
-53.654
-52.53
-49.959
-46.171
-41.582
-37.232
-34.704
-35.156
-39.616
-48.994
-63.214
-81.354
-101.654
-120.68
-134.639
-140.632
-135.063
-114.525
-77.659
-23.957
43.69
117.877
193.959
268.874
339.691
407.425
465.815
503.838
514.597
489.088
428.337
341.016
232.648
116.622
6.128
-86.497
-145.537
-167.115
-157.88
-131.209
-104.313
-86.546
-78.16
-74.57
-71.144
-66.891
-63.906
-65.077
-70.737
-79.085
-87.925
-94.992
-99.394
-101.272
-100.718
-98.075
-93.918
-88.824
-83.558
-78.885
-75.141
-72.411
-70.695
-69.875
-69.864
-70.597
-71.917
-73.621
-75.533
-77.498
-79.388
-81.132
-82.666
-83.903
-84.765
-85.187
-85.138
-84.614
-83.624
-82.168
-80.239
-77.843
-75
-71.755
-68.162
-64.286
-60.191
-55.933
-51.552
-47.084
-42.56
-38
-33.417
-28.812
-24.18
-19.522
-14.847
-10.164
-5.485
-0.816
3.839
8.478
13.099
17.697
22.266
26.796
31.277
35.694
40.032
44.27
48.387
52.364
56.181
59.825
63.282
66.539
69.583
72.4
74.983
77.319
79.399
81.213
82.751
84.005
84.969
85.638
86.009
86.081
85.856
85.334
84.519
83.419
82.038
80.386
78.471
76.304
73.896
71.26
68.412
65.367
62.145
58.762
55.241
51.601
47.865
44.053
40.189
36.293
32.386
28.489
24.622
20.806
17.061
13.407
9.861
6.441
3.165
0.048
-2.896
-5.657
-8.224
-10.592
-12.754
-14.706
-16.447
-17.975
-19.292
-20.398
-21.298
-21.995
-22.496
-22.809
-22.945
-22.917
-22.742
-22.439
-22.028
-21.528
-20.962
-20.351
-19.714
-19.068
-18.43
-17.811
-17.226
-16.691
-16.222
-15.838
-15.556
-15.391
-15.359
-15.469
-15.728
-16.143
-16.715
-17.437
-18.305
-19.319
-20.492
-21.847
-23.404
-25.171
-27.143
-29.313
-31.663
-34.174
-36.818
-39.536
-42.271
-44.966
-47.572
-50.072
-52.457
-54.699
-56.744
-58.527
-59.982
-61.098
-61.906
-62.407
-62.61
-62.519
-62.133
-61.56
-60.95
-60.432
-60.15
-60.185
-60.558
-61.397
-62.921
-65.203
-68.183
-71.527
-74.559
-76.742
-77.701
-77.02
-74.426
-69.894
-63.751
-57.098
-51.699
-49.26
-51.236
-58.551
-71.051
-87.81
-107.053
-125.384
-138.492
-141.624
-129.504
-100.061
-55.419
2.176
69.233
146.908
242.643
355.08
474.949
581.217
642.327
642.942
583.408
479.032
357.136
232.802
113.429
4.741
-89.693
-159.304
-193.777
-194.449
-169.446
-130.771
-94.755
-67.859
-51.3
-47.973
-51.323
-57.876
-67.03
-73.32
-78.618
-84.617
-89.602
-94.843
-98.866
-99.775
-98.258
-94.708
-89.917
-85.171
-81.127
-77.989
-75.923
-74.927
-74.808
-75.46
-76.806
-78.653
-80.799
-83.091
-85.345
-87.429
-89.297
-90.885
-92.11
-92.89
-93.152
-92.863
-92.022
-90.644
-88.73
-86.276
-83.29
-79.801
-75.857
-71.519
-66.856
-61.935
-56.812
-51.532
-46.138
-40.665
-35.139
-29.578
-23.991
-18.376
-12.741
-7.101
-1.471
4.133
9.7
15.221
20.69
26.098
31.436
36.694
41.858
46.912
51.839
56.62
61.232
65.651
69.854
73.822
77.539
80.991
84.162
87.04
89.612
91.869
93.802
95.4
96.657
97.564
98.115
98.308
98.14
97.612
96.727
95.488
93.901
91.975
89.721
87.149
84.273
81.106
77.665
73.966
70.028
65.871
61.517
56.987
52.306
47.499
42.592
37.611
32.584
27.536
22.493
17.483
12.53
7.659
2.896
-1.736
-6.214
-10.516
-14.619
-18.506
-22.157
-25.556
-28.689
-31.543
-34.109
-36.378
-38.347
-40.013
-41.374
-42.433
-43.191
-43.653
-43.828
-43.724
-43.353
-42.725
-41.857
-40.767
-39.475
-38.005
-36.383
-34.633
-32.781
-30.856
-28.884
-26.891
-24.902
-22.935
-21.014
-19.16
-17.396
-15.747
-14.236
-12.885
-11.715
-10.745
-9.988
-9.458
-9.16
-9.093
-9.255
-9.647
-10.273
-11.152
-12.294
-13.704
-15.384
-17.323
-19.504
-21.905
-24.492
-27.213
-30.022
-32.871
-35.716
-38.529
-41.287
-43.971
-46.552
-48.972
-51.179
-53.131
-54.806
-56.219
-57.388
-58.318
-59.033
-59.57
-59.992
-60.404
-60.892
-61.524
-62.358
-63.383
-64.68
-66.445
-68.721
-71.442
-74.326
-76.776
-78.275
-78.523
-77.05
-73.348
-67.366
-59.274
-49.959
-41.224
-34.616
-31.432
-33.009
-40.02
-51.975
-67.762
-84.906
-99.212
-106.74
-103.291
-84.095
-47.499
4.623
70.01
144.227
226.145
320.69
426.018
534.512
629.265
683.828
684.569
630.217
532.296
412.579
282.959
151.895
27.653
-81.146
-158.953
-196.663
-197.713
-175
-145.754
-121.403
-103.786
-88.583
-72.888
-57.168
-44.061
-37.403
-37.906
-43.553
-52.297
-61.629
-69.482
-75.131
-78.184
-78.553
-76.855
-73.834
-70.114
-66.452
-63.528
-61.616
-60.818
-61.107
-62.24
-64.005
-66.246
-68.732
-71.239
-73.622
-75.738
-77.509
-78.908
-79.867
-80.324
-80.248
-79.612
-78.421
-76.699
-74.461
-71.727
-68.534
-64.917
-60.919
-56.595
-51.998
-47.193
-42.234
-37.161
-32.011
-26.813
-21.589
-16.361
-11.139
-5.921
-0.712
4.48
9.65
14.785
19.875
24.913
29.894
34.811
39.656
44.417
49.078
53.625
58.041
62.31
66.409
70.317
74.011
77.475
80.692
83.649
86.332
88.726
90.82
92.605
94.072
95.213
96.022
96.49
96.615
96.394
95.827
94.915
93.662
92.072
90.152
87.91
85.357
82.505
79.368
75.96
72.297
68.397
64.281
59.969
55.483
50.848
46.086
41.226
36.293
31.313
26.314
21.32
16.359
11.456
6.637
1.923
-2.661
-7.094
-11.354
-15.421
-19.277
-22.906
-26.293
-29.424
-32.288
-34.876
-37.181
-39.2
-40.929
-42.368
-43.518
-44.383
-44.966
-45.277
-45.324
-45.116
-44.666
-43.99
-43.105
-42.033
-40.797
-39.42
-37.926
-36.339
-34.686
-32.991
-31.276
-29.558
-27.857
-26.193
-24.588
-23.062
-21.638
-20.331
-19.16
-18.143
-17.293
-16.622
-16.138
-15.836
-15.723
-15.803
-16.088
-16.599
-17.349
-18.343
-19.585
-21.068
-22.777
-24.694
-26.782
-28.986
-31.261
-33.568
-35.865
-38.13
-40.32
-42.386
-44.287
-45.968
-47.378
-48.483
-49.26
-49.718
-49.901
-49.871
-49.692
-49.446
-49.212
-49.094
-49.211
-49.663
-50.573
-52.015
-54.085
-56.986
-60.766
-65.323
-70.402
-75.433
-79.842
-83.279
-85.245
-85.108
-82.82
-78.648
-73.286
-68.333
-65.02
-64.012
-66.372
-72.855
-82.906
-95.22
-107.485
-115.979
-117.533
-109.463
-88.13
-50.302
3.761
70.719
146.406
225.191
307.136
397.679
494.464
590.106
668.266
704.271
687.998
620.352
512.948
388.86
260.201
136.901
28.826
-61.4
-123.8
-155.541
-165.334
-159.229
-148.12
-138.375
-126.483
-112.58
-97.523
-82.462
-71.851
-67.341
-67.778
-71.846
-77.634
-83.226
-87.354
-89.343
-88.896
-86.247
-82.128
-77.224
-72.09
-67.401
-63.75
-61.421
-60.541
-61.023
-62.571
-64.958
-68.001
-71.447
-75.062
-78.634
-81.949
-84.87
-87.316
-89.2
-90.459
-91.052
-90.943
-90.13
-88.632
-86.472
-83.69
-80.326
-76.416
-72.013
-67.177
-61.978
-56.502
-50.814
-44.963
-38.988
-32.919
-26.779
-20.592
-14.368
-8.105
-1.809
4.514
10.854
17.192
23.513
29.808
36.066
42.28
48.435
54.514
60.497
66.365
72.096
77.668
83.056
88.23
93.166
97.841
102.237
106.336
110.121
113.574
116.681
119.431
121.812
123.813
125.426
126.642
127.455
127.864
127.866
127.463
126.659
125.458
123.868
121.899
119.562
116.869
113.836
110.477
106.812
102.86
98.641
94.178
89.495
84.616
79.568
74.377
69.072
63.679
58.226
52.742
47.255
41.791
36.377
31.04
25.803
20.693
15.732
10.942
6.344
1.956
-2.205
-6.124
-9.787
-13.185
-16.308
-19.153
-21.713
-23.986
-25.971
-27.671
-29.089
-30.231
-31.102
-31.713
-32.077
-32.208
-32.126
-31.851
-31.402
-30.802
-30.076
-29.246
-28.337
-27.369
-26.361
-25.333
-24.307
-23.307
-22.356
-21.474
-20.679
-19.991
-19.428
-19.007
-18.742
-18.638
-18.698
-18.928
-19.342
-19.954
-20.786
-21.852
-23.156
-24.696
-26.473
-28.476
-30.687
-33.075
-35.587
-38.177
-40.81
-43.451
-46.07
-48.626
-51.062
-53.329
-55.371
-57.141
-58.609
-59.77
-60.621
-61.192
-61.524
-61.657
-61.691
-61.737
-61.898
-62.299
-63.034
-64.174
-65.84
-68.204
-71.336
-75.188
-79.559
-84.015
-88.171
-91.779
-94.517
-95.943
-95.771
-94.053
-91.28
-88.496
-86.682
-86.279
-87.616
-91.235
-97.369
-105.488
-114.197
-121.009
-123.205
-119.086
-106.977
-84.242
-48.514
1.871
65.337
135.977
207.982
276.976
345.734
422.684
509.468
602.154
681.702
716.007
685.477
580.66
413.002
220.066
35.371
-111.851
-204.248
-248.943
-256.564
-238.485
-206.375
-163.753
-116.738
-76.876
-53.583
-52.957
-72.149
-98.026
-118.792
-128.128
-126.557
-121.641
-118.511
-118.217
-119.744
-119.876
-117.384
-113.246
-108.415
-104.016
-100.78
-98.686
-97.711
-97.879
-98.959
-100.714
-102.999
-105.633
-108.445
-111.332
-114.149
-116.714
-118.933
-120.713
-121.956
-122.615
-122.652
-122.032
-120.76
-118.859
-116.348
-113.269
-109.661
-105.557
-101.002
-96.049
-90.761
-85.219
-79.488
-73.615
-67.642
-61.598
-55.506
-49.39
-43.258
-37.109
-30.945
-24.772
-18.599
-12.443
-6.317
-0.23
5.811
11.799
17.723
23.567
29.315
34.95
40.454
45.805
50.982
55.956
60.706
65.211
69.455
73.42
77.092
80.455
83.496
86.204
88.57
90.583
92.236
93.519
94.429
94.961
95.114
94.889
94.287
93.313
91.971
90.27
88.22
85.83
83.113
80.084
76.758
73.153
69.29
65.187
60.868
56.355
51.675
46.852
41.912
36.881
31.785
26.652
21.507
16.377
11.288
6.264
1.33
-3.489
-8.172
-12.695
-17.038
-21.184
-25.113
-28.808
-32.257
-35.446
-38.365
-41.007
-43.364
-45.431
-47.205
-48.687
-49.878
-50.783
-51.406
-51.754
-51.84
-51.678
-51.284
-50.677
-49.875
-48.898
-47.767
-46.504
-45.131
-43.666
-42.126
-40.532
-38.904
-37.267
-35.646
-34.061
-32.533
-31.085
-29.737
-28.51
-27.415
-26.459
-25.652
-25.004
-24.536
-24.273
-24.236
-24.436
-24.881
-25.574
-26.505
-27.661
-29.009
-30.501
-32.093
-33.752
-35.453
-37.181
-38.909
-40.595
-42.19
-43.644
-44.918
-45.987
-46.817
-47.396
-47.765
-47.987
-48.166
-48.419
-48.804
-49.381
-50.235
-51.447
-53.122
-55.383
-58.279
-61.891
-66.4
-71.813
-78.015
-84.702
-91.21
-96.911
-101.414
-104.201
-104.71
-102.931
-99.145
-94.132
-89.55
-86.626
-85.946
-88.369
-94.462
-103.625
-114.629
-125.109
-131.239
-130.179
-119.648
-96.428
-57.999
-3.009
66.867
145.786
227.689
307.626
386.479
469.584
554.23
633.772
693.491
709.122
671.738
579.968
438.891
274.55
107.213
-43.409
-152.25
-216.655
-238.438
-224.366
-194.856
-156.419
-115.309
-81.158
-54.373
-43.278
-50.259
-65.804
-84.713
-97.885
-101.038
-100.385
-98.519
-97.729
-99.226
-99.519
-97.442
-93.849
-89.242
-85.005
-82.162
-80.605
-80.262
-81.173
-83.065
-85.704
-88.954
-92.553
-96.255
-99.911
-103.329
-106.355
-108.93
-110.971
-112.4
-113.169
-113.227
-112.571
-111.234
-109.236
-106.603
-103.37
-99.564
-95.241
-90.467
-85.313
-79.862
-74.18
-68.312
-62.307
-56.198
-50.013
-43.779
-37.502
-31.179
-24.815
-18.418
-11.997
-5.569
0.857
7.273
13.672
20.047
26.39
32.686
38.922
45.081
51.145
57.096
62.911
68.565
74.034
79.299
84.342
89.146
93.697
97.979
101.977
105.681
109.079
112.159
114.911
117.326
119.394
121.109
122.466
123.461
124.094
124.362
124.269
123.818
123.012
121.861
120.371
118.552
116.416
113.974
111.241
108.233
104.968
101.463
97.738
93.814
89.715
85.462
81.081
76.594
72.026
67.402
62.745
58.079
53.428
48.814
44.262
39.793
35.43
31.195
27.107
23.186
19.449
15.912
12.59
9.493
6.632
4.014
1.646
-0.469
-2.327
-3.926
-5.268
-6.354
-7.189
-7.778
-8.129
-8.252
-8.164
-7.881
-7.421
-6.804
-6.049
-5.179
-4.215
-3.175
-2.078
-0.939
0.226
1.397
2.552
3.672
4.737
5.729
6.626
7.412
8.071
8.592
8.969
9.201
9.279
9.198
8.94
8.482
7.806
6.9
5.756
4.374
2.762
0.933
-1.079
-3.229
-5.476
-7.771
-10.077
-12.359
-14.574
-16.693
-18.677
-20.469
-22.017
-23.29
-24.277
-24.993
-25.479
-25.75
-25.841
-25.84
-25.848
-26.009
-26.474
-27.353
-28.722
-30.685
-33.423
-37.005
-41.41
-46.417
-51.507
-56.25
-60.365
-63.401
-64.827
-64.549
-62.657
-59.718
-57.24
-56.12
-56.794
-60.706
-68.761
-80.361
-95.089
-109.67
-118.945
-121.753
-115.876
-100.348
-77.093
-42.869
4.035
65.904
147.694
248.558
366.467
491.704
605.42
688.735
720.32
689.285
600.436
467.072
315.595
172.072
52.171
-34.157
-90.998
-128.851
-153.644
-171.622
-182.145
-179.971
-165.48
-140.284
-109.146
-80.12
-57.162
-41.593
-33.763
-32.017
-34.708
-40.726
-48.121
-54.812
-59.729
-62.393
-62.858
-61.764
-59.732
-57.262
-55.057
-53.805
-53.8
-55.095
-57.552
-60.837
-64.664
-68.796
-72.935
-76.815
-80.286
-83.267
-85.718
-87.633
-88.977
-89.717
-89.854
-89.404
-88.379
-86.797
-84.675
-82.047
-78.973
-75.52
-71.761
-67.764
-63.574
-59.225
-54.748
-50.165
-45.496
-40.755
-35.944
-31.063
-26.122
-21.13
-16.099
-11.04
-5.957
-0.856
4.261
9.387
14.517
19.64
24.746
29.82
34.845
39.803
44.673
49.434
54.066
58.552
62.875
67.019
70.971
74.716
78.24
81.531
84.576
87.363
89.881
92.117
94.063
95.711
97.054
98.088
98.809
99.216
99.309
99.09
98.562
97.73
96.599
95.178
93.474
91.497
89.259
86.773
84.053
81.113
77.971
74.643
71.149
67.509
63.74
59.866
55.907
51.885
47.822
43.74
39.659
35.601
31.588
27.64
23.777
20.018
16.381
12.886
9.548
6.384
3.405
0.624
-1.951
-4.313
-6.456
-8.375
-10.068
-11.537
-12.781
-13.803
-14.604
-15.189
-15.567
-15.747
-15.741
-15.562
-15.226
-14.752
-14.16
-13.473
-12.711
-11.892
-11.035
-10.159
-9.282
-8.422
-7.592
-6.809
-6.092
-5.459
-4.928
-4.514
-4.231
-4.087
-4.09
-4.246
-4.561
-5.034
-5.664
-6.453
-7.411
-8.552
-9.898
-11.458
-13.233
-15.224
-17.433
-19.85
-22.457
-25.211
-28.05
-30.921
-33.788
-36.632
-39.434
-42.164
-44.773
-47.211
-49.449
-51.457
-53.206
-54.632
-55.636
-56.168
-56.254
-55.992
-55.555
-55.088
-54.64
-54.297
-54.248
-54.546
-55.152
-55.85
-56.076
-55.375
-53.604
-50.554
-46.011
-40.189
-33.466
-26.678
-21.531
-19.372
-20.941
-27.115
-38.304
-53.805
-72.421
-91.829
-108.002
-117.562
-118.057
-106.268
-79.688
-38.001
18.575
86.407
157.312
226.864
292.69
353.49
412.883
466.012
500.463
505.238
468.19
391.759
292.693
186.73
91.113
13.065
-51.311
-102.412
-141.363
-168.36
-179.984
-177.027
-163.148
-141.469
-116.462
-92.746
-72.74
-57.882
-48.987
-45.372
-45.808
-49.358
-54.589
-59.639
-63.482
-65.594
-65.762
-64.502
-62.405
-59.862
-57.451
-55.795
-55.157
-55.639
-57.203
-59.56
-62.458
-65.688
-68.969
-72.063
-74.839
-77.213
-79.143
-80.621
-81.614
-82.089
-82.05
-81.506
-80.468
-78.95
-76.969
-74.556
-71.765
-68.663
-65.319
-61.8
-58.15
-54.401
-50.581
-46.712
-42.81
-38.889
-34.949
-30.991
-27.02
-23.046
-19.08
-15.128
-11.197
-7.286
-3.398
0.466
4.303
8.108
11.872
15.588
19.241
22.82
26.31
29.693
32.956
36.085
39.068
41.896
44.559
47.045
49.346
51.452
53.354
55.043
56.51
57.745
58.741
59.493
59.995
60.244
60.238
59.976
59.459
58.688
57.666
56.398
54.89
53.148
51.181
48.995
46.603
44.015
41.243
38.301
35.203
31.963
28.598
25.125
21.561
17.925
14.237
10.515
6.781
3.053
-0.647
-4.3
-7.885
-11.384
-14.778
-18.047
-21.176
-24.147
-26.945
-29.557
-31.969
-34.17
-36.154
-37.911
-39.438
-40.732
-41.791
-42.614
-43.204
-43.563
-43.695
-43.606
-43.302
-42.791
-42.084
-41.194
-40.138
-38.935
-37.604
-36.166
-34.643
-33.058
-31.433
-29.788
-28.141
-26.508
-24.907
-23.357
-21.876
-20.485
-19.204
-18.051
-17.043
-16.195
-15.518
-15.021
-14.71
-14.585
-14.647
-14.9
-15.356
-16.036
-16.959
-18.131
-19.55
-21.209
-23.091
-25.174
-27.424
-29.791
-32.221
-34.664
-37.07
-39.406
-41.646
-43.762
-45.705
-47.411
-48.82
-49.908
-50.691
-51.191
-51.43
-51.43
-51.213
-50.878
-50.56
-50.378
-50.469
-50.935
-51.806
-53.192
-55.256
-58.05
-61.533
-65.456
-69.29
-72.593
-75.046
-76.195
-75.707
-73.533
-69.809
-65.312
-61.286
-58.686
-58.479
-61.68
-68.509
-78.386
-90.018
-100.839
-107.956
-108.753
-99.908
-78.025
-40.738
11.383
74.361
143.47
213.72
285.479
363.476
445.294
525.565
590.851
617.235
594.148
518.67
395.112
248.758
100.641
-30.606
-122.582
-172.679
-184.94
-167.766
-141.338
-116.612
-97.584
-85.549
-74.696
-62.967
-52.301
-44.585
-42.874
-47.41
-55.882
-65.966
-75.074
-81.893
-86.29
-88.157
-87.788
-85.723
-82.537
-79.063
-76.158
-74.212
-73.31
-73.419
-74.335
-75.919
-78.068
-80.555
-83.137
-85.609
-87.808
-89.669
-91.187
-92.319
-93.003
-93.182
-92.816
-91.913
-90.509
-88.621
-86.26
-83.434
-80.162
-76.491
-72.477
-68.178
-63.661
-58.973
-54.148
-49.223
-44.229
-39.19
-34.127
-29.045
-23.939
-18.811
-13.669
-8.523
-3.385
1.74
6.849
11.938
17.004
22.041
27.043
32.001
36.905
41.742
46.499
51.159
55.7
60.106
64.359
68.446
72.352
76.064
79.568
82.853
85.907
88.719
91.277
93.572
95.594
97.331
98.778
99.927
100.774
101.315
101.547
101.47
101.085
100.393
99.399
98.109
96.528
94.667
92.532
90.137
87.494
84.617
81.522
78.225
74.744
71.099
67.311
63.401
59.391
55.304
51.163
46.991
42.81
38.645
34.516
30.445
26.455
22.565
18.797
15.17
11.702
8.409
5.309
2.415
-0.26
-2.705
-4.913
-6.877
-8.593
-10.058
-11.272
-12.235
-12.949
-13.419
-13.649
-13.647
-13.42
-12.981
-12.343
-11.521
-10.535
-9.406
-8.154
-6.803
-5.376
-3.895
-2.381
-0.853
0.669
2.171
3.635
5.044
6.38
7.621
8.748
9.742
10.587
11.268
11.775
12.097
12.228
12.168
11.918
11.474
10.826
9.95
8.826
7.448
5.821
3.953
1.863
-0.431
-2.898
-5.481
-8.118
-10.751
-13.326
-15.821
-18.227
-20.519
-22.652
-24.566
-26.209
-27.576
-28.703
-29.597
-30.27
-30.732
-30.995
-31.179
-31.449
-31.938
-32.793
-34.086
-35.814
-38.075
-41.035
-44.71
-49.013
-53.638
-58.016
-61.778
-64.707
-66.412
-66.581
-65.119
-62.105
-58.252
-54.726
-52.357
-51.944
-54.326
-59.65
-67.456
-76.651
-84.948
-89.821
-88.901
-79.061
-57.197
-21.07
28.631
87.551
150.647
213.239
277.337
350.121
432.358
520.356
596.839
632.405
609.26
518.508
369.944
197.391
31.985
-98.363
-177.129
-210.555
-209.493
-186.298
-152.326
-111.047
-67.662
-31.856
-12.219
-14.107
-34.352
-60.312
-80.277
-88.193
-85.001
-78.384
-73.86
-72.801
-74.23
-75.008
-73.88
-71.681
-69.254
-67.557
-67.091
-67.682
-69.235
-71.728
-74.943
-78.68
-82.766
-86.988
-91.159
-95.133
-98.79
-102.041
-104.835
-107.117
-108.824
-109.911
-110.363
-110.19
-109.407
-108.022
-106.044
-103.494
-100.417
-96.875
-92.933
-88.657
-84.097
-79.289
-74.266
-69.06
-63.692
-58.183
-52.539
-46.758
-40.85
-34.829
-28.709
-22.51
-16.242
-9.917
-3.546
2.859
9.285
15.717
22.137
28.526
34.862
41.12
47.276
53.301
59.17
64.858
70.342
75.601
80.616
85.365
89.83
93.993
97.836
101.342
104.497
107.284
109.689
111.702
113.312
114.512
115.296
115.66
115.602
115.124
114.228
112.919
111.203
109.09
106.59
103.715
100.478
96.895
92.982
88.758
84.243
79.457
74.424
69.168
63.713
58.087
52.317
46.43
40.453
34.416
28.347
22.274
16.225
10.228
4.31
-1.502
-7.18
-12.7
-18.037
-23.171
-28.079
-32.743
-37.145
-41.272
-45.11
-48.651
-51.886
-54.808
-57.412
-59.694
-61.655
-63.294
-64.615
-65.622
-66.32
-66.721
-66.838
-66.69
-66.293
-65.667
-64.832
-63.812
-62.63
-61.308
-59.867
-58.322
-56.695
-55.007
-53.282
-51.545
-49.82
-48.128
-46.496
-44.945
-43.497
-42.169
-40.973
-39.915
-39.004
-38.251
-37.674
-37.302
-37.159
-37.256
-37.606
-38.209
-39.056
-40.133
-41.407
-42.826
-44.348
-45.924
-47.514
-49.096
-50.628
-52.085
-53.437
-54.624
-55.599
-56.331
-56.805
-57.048
-57.114
-57.04
-56.89
-56.751
-56.714
-56.928
-57.529
-58.619
-60.313
-62.633
-65.667
-69.625
-74.549
-80.311
-86.6
-92.769
-98.224
-102.689
-105.67
-106.53
-105.15
-101.618
-96.673
-92.018
-88.939
-88.273
-91.063
-97.898
-108.284
-121.153
-134.078
-143.188
-144.986
-135.924
-112.147
-70.613
-11.988
59.565
139.501
221.716
306.69
401.329
503.062
604.26
687.67
723.368
697.389
609.602
469.058
303.667
136.074
-18.252
-141.642
-228.103
-274.928
-281.375
-257.492
-212.724
-159.187
-111.833
-78.361
-65.84
-73.13
-88.811
-105.012
-113.695
-112.619
-108.852
-105.911
-105.447
-107.603
-108.583
-106.903
-103.315
-98.461
-93.569
-89.536
-86.549
-84.742
-84.259
-84.98
-86.612
-88.956
-91.841
-95.05
-98.41
-101.737
-104.804
-107.485
-109.721
-111.434
-112.565
-113.074
-112.92
-112.108
-110.665
-108.616
-105.995
-102.837
-99.171
-95.049
-90.527
-85.669
-80.553
-75.238
-69.767
-64.179
-58.499
-52.748
-46.948
-41.104
-35.213
-29.277
-23.3
-17.289
-11.262
-5.227
0.807
6.833
12.844
18.83
24.774
30.662
36.474
42.191
47.793
53.254
58.547
63.646
68.529
73.175
77.565
81.679
85.498
89.004
92.184
95.022
97.505
99.62
101.354
102.698
103.645
104.19
104.33
104.063
103.391
102.316
100.845
98.985
96.746
94.139
91.177
87.875
84.251
80.323
76.111
71.637
66.925
62
56.888
51.619
46.221
40.725
35.161
29.562
23.957
18.38
12.858
7.423
2.104
-3.072
-8.077
-12.885
-17.471
-21.814
-25.893
-29.689
-33.185
-36.37
-39.232
-41.764
-43.962
-45.821
-47.342
-48.527
-49.378
-49.902
-50.107
-50.001
-49.597
-48.909
-47.956
-46.759
-45.341
-43.73
-41.955
-40.046
-38.032
-35.946
-33.816
-31.67
-29.535
-27.434
-25.392
-23.435
-21.588
-19.874
-18.317
-16.941
-15.762
-14.797
-14.059
-13.557
-13.299
-13.284
-13.516
-13.999
-14.747
-15.783
-17.12
-18.762
-20.703
-22.934
-25.437
-28.185
-31.138
-34.233
-37.403
-40.584
-43.714
-46.755
-49.667
-52.403
-54.901
-57.076
-58.876
-60.295
-61.336
-62.007
-62.312
-62.246
-61.868
-61.332
-60.797
-60.416
-60.335
-60.606
-61.329
-62.701
-64.793
-67.583
-70.875
-74.181
-77.072
-79.336
-80.618
-80.444
-78.704
-75.419
-71.045
-66.841
-63.727
-62.185
-63.075
-67.117
-74.064
-83.189
-92.718
-99.432
-100.923
-95.035
-78.356
-47.9
-1.728
59.206
129.534
203.065
275.099
347.942
428.847
518.464
611.8
689.177
719.725
686.028
580.901
417.123
231.032
54.303
-84.371
-166.808
-198.668
-191.733
-163.649
-133.947
-109.809
-92.856
-80.637
-67.766
-54.011
-41.576
-32.906
-30.828
-34.938
-42.977
-52.748
-61.631
-68.338
-72.726
-74.712
-74.718
-73.404
-71.355
-69.33
-68.116
-68.051
-69.189
-71.46
-74.609
-78.402
-82.635
-87.014
-91.234
-95.078
-98.418
-101.206
-103.432
-105.053
-106.012
-106.276
-105.844
-104.744
-103.003
-100.633
-97.653
-94.091
-90
-85.449
-80.509
-75.254
-69.737
-64
-58.081
-52.016
-45.834
-39.559
-33.205
-26.776
-20.282
-13.742
-7.17
-0.587
5.994
12.564
19.113
25.63
32.106
38.528
44.883
51.155
57.327
63.38
69.295
75.048
80.617
85.983
91.128
96.035
100.69
105.075
109.176
112.98
116.474
119.647
122.486
124.982
127.125
128.908
130.327
131.378
132.061
132.374
132.321
131.905
131.131
130.007
128.541
126.741
124.617
122.181
119.444
116.421
113.126
109.575
105.785
101.776
97.569
93.184
88.645
83.976
79.202
74.348
69.44
64.504
59.565
54.649
49.781
44.985
40.287
35.708
31.271
26.997
22.904
19.012
15.335
11.888
8.683
5.728
3.032
0.601
-1.56
-3.447
-5.06
-6.399
-7.464
-8.259
-8.788
-9.06
-9.084
-8.874
-8.447
-7.823
-7.022
-6.068
-4.984
-3.796
-2.526
-1.197
0.17
1.556
2.94
4.301
5.616
6.862
8.013
9.05
9.953
10.703
11.289
11.696
11.916
11.948
11.789
11.432
10.862
10.055
8.988
7.656
6.063
4.214
2.127
-0.185
-2.695
-5.351
-8.098
-10.885
-13.659
-16.402
-19.099
-21.719
-24.21
-26.508
-28.551
-30.332
-31.88
-33.198
-34.291
-35.15
-35.764
-36.23
-36.687
-37.248
-38.051
-39.158
-40.554
-42.346
-44.714
-47.694
-51.205
-54.89
-58.089
-60.377
-61.548
-61.309
-59.449
-55.963
-51.057
-45.69
-41.404
-39.337
-40.299
-44.862
-52.823
-63.378
-75.237
-85.738
-91.497
-89.786
-77.78
-52.831
-13.955
38.891
103.382
173.43
243.162
308.921
370.823
431.739
490.52
538.827
560.656
540.63
475.122
373.562
256.746
146.405
54.266
-17.061
-70.816
-110.851
-137.98
-151.069
-149.524
-135.722
-113.498
-87.47
-62.868
-42.796
-28.721
-21.454
-20.314
-23.82
-30.715
-39.28
-47.424
-54.024
-58.507
-60.603
-60.789
-59.694
-57.807
-55.816
-54.435
-53.965
-54.525
-56.098
-58.426
-61.305
-64.553
-67.905
-71.133
-74.077
-76.632
-78.766
-80.472
-81.706
-82.427
-82.612
-82.249
-81.351
-79.933
-77.996
-75.557
-72.642
-69.297
-65.58
-61.546
-57.254
-52.75
-48.066
-43.234
-38.281
-33.227
-28.092
-22.889
-17.621
-12.297
-6.934
-1.545
3.853
9.248
14.629
19.986
25.31
30.589
35.809
40.954
46.007
50.947
55.753
60.404
64.873
69.138
73.177
76.973
80.508
83.768
86.735
89.397
91.741
93.758
95.436
96.768
97.744
98.359
98.61
98.494
98.013
97.17
95.968
94.415
92.52
90.294
87.748
84.898
81.758
78.345
74.677
70.774
66.657
62.348
57.871
53.249
48.507
43.673
38.773
33.833
28.879
23.938
19.037
14.199
9.45
4.812
0.309
-4.039
-8.21
-12.185
-15.946
-19.478
-22.765
-25.795
-28.556
-31.041
-33.243
-35.161
-36.791
-38.134
-39.192
-39.969
-40.472
-40.705
-40.679
-40.403
-39.888
-39.148
-38.197
-37.055
-35.741
-34.278
-32.688
-30.994
-29.22
-27.39
-25.526
-23.647
-21.772
-19.917
-18.097
-16.329
-14.632
-13.024
-11.524
-10.148
-8.91
-7.823
-6.895
-6.134
-5.541
-5.116
-4.852
-4.753
-4.827
-5.094
-5.57
-6.258
-7.153
-8.244
-9.513
-10.939
-12.495
-14.125
-15.776
-17.397
-18.939
-20.382
-21.723
-22.937
-23.984
-24.808
-25.352
-25.608
-25.611
-25.368
-24.896
-24.198
-23.278
-22.246
-21.248
-20.402
-19.853
-19.669
-19.838
-20.47
-21.73
-23.641
-26.164
-29.006
-31.577
-33.483
-34.454
-34.098
-32.188
-28.721
-23.835
-18.374
-13.695
-10.866
-10.963
-14.881
-22.555
-33.179
-45.472
-57.041
-64.753
-65.62
-56.194
-33.03
3.86
51.512
107.358
167.335
231.425
305.572
388.791
475.474
553.446
598.098
593.611
536.416
432.606
308.214
188.838
89.856
21.699
-22.213
-53.948
-79.37
-104.999
-129.383
-145.55
-152.302
-149.115
-138.23
-126.437
-117.119
-111.242
-109.453
-110.575
-113.462
-117.891
-122.908
-126.926
-129.12
-129.177
-127.092
-123.444
-118.833
-113.6
-108.266
-103.516
-99.721
-97.056
-95.568
-95.063
-95.359
-96.348
-97.864
-99.701
-101.716
-103.752
-105.645
-107.304
-108.632
-109.532
-109.962
-109.882
-109.259
-108.087
-106.385
-104.17
-101.485
-98.372
-94.86
-90.99
-86.812
-82.387
-77.793
-73.089
-68.317
-63.508
-58.684
-53.865
-49.066
-44.292
-39.532
-34.781
-30.037
-25.3
-20.58
-15.88
-11.2
-6.539
-1.895
2.73
7.329
11.891
16.409
20.871
25.264
29.571
33.77
37.844
41.777
45.555
49.165
52.593
55.824
58.847
61.651
64.224
66.556
68.635
70.451
71.996
73.262
74.243
74.935
75.335
75.44
75.253
74.773
74.006
72.955
71.627
70.028
68.169
66.058
63.709
61.134
58.349
55.369
52.213
48.9
45.449
41.883
38.222
34.488
30.705
26.893
23.075
19.272
15.507
11.801
8.175
4.65
1.244
-2.024
-5.135
-8.075
-10.83
-13.388
-15.74
-17.878
-19.797
-21.493
-22.963
-24.205
-25.222
-26.015
-26.587
-26.944
-27.093
-27.046
-26.817
-26.423
-25.882
-25.212
-24.434
-23.571
-22.642
-21.666
-20.661
-19.641
-18.623
-17.625
-16.665
-15.763
-14.938
-14.208
-13.592
-13.104
-12.758
-12.564
-12.529
-12.657
-12.949
-13.411
-14.055
-14.905
-15.977
-17.28
-18.814
-20.572
-22.54
-24.698
-27.016
-29.442
-31.924
-34.407
-36.839
-39.178
-41.397
-43.464
-45.333
-46.941
-48.232
-49.187
-49.827
-50.178
-50.269
-50.117
-49.744
-49.249
-48.778
-48.465
-48.471
-48.916
-49.837
-51.35
-53.636
-56.741
-60.612
-64.976
-69.258
-73.004
-75.934
-77.644
-77.814
-76.421
-73.597
-70.102
-67.224
-65.89
-66.882
-71.003
-78.302
-88.036
-98.911
-108.504
-113.847
-112.325
-100.998
-76.814
-37.845
14.81
77.172
144.728
212.217
279.9
353.913
433.656
515.141
585.873
618.646
597.272
518.365
388.726
239.568
101.491
-8.132
-76.357
-110.184
-125.791
-131.835
-137.176
-142.285
-140.505
-130.576
-113.132
-92.045
-73.961
-61.802
-56.115
-56.235
-60.095
-66.355
-73.891
-80.935
-86.401
-89.805
-90.976
-90.414
-88.753
-86.454
-84.128
-82.441
-81.728
-82.113
-83.557
-85.812
-88.666
-91.935
-95.365
-98.705
-101.763
-104.425
-106.648
-108.422
-109.703
-110.439
-110.6
-110.181
-109.205
-107.692
-105.652
-103.102
-100.071
-96.617
-92.805
-88.701
-84.37
-79.862
-75.21
-70.449
-65.608
-60.706
-55.763
-50.786
-45.774
-40.733
-35.676
-30.611
-25.55
-20.501
-15.468
-10.455
-5.468
-0.513
4.4
9.261
14.058
18.775
23.397
27.907
32.284
36.511
40.572
44.453
48.141
51.624
54.891
57.93
60.732
63.288
65.588
67.623
69.384
70.864
72.057
72.957
73.56
73.866
73.873
73.582
72.995
72.117
70.953
69.51
67.795
65.819
63.59
61.121
58.425
55.517
52.413
49.128
45.683
42.094
38.383
34.57
30.676
26.722
22.728
18.716
14.705
10.717
6.771
2.889
-0.911
-4.608
-8.184
-11.62
-14.901
-18.01
-20.933
-23.658
-26.174
-28.472
-30.544
-32.386
-33.993
-35.364
-36.496
-37.391
-38.05
-38.479
-38.684
-38.67
-38.448
-38.029
-37.429
-36.665
-35.757
-34.722
-33.58
-32.351
-31.056
-29.714
-28.341
-26.951
-25.56
-24.183
-22.84
-21.551
-20.333
-19.204
-18.184
-17.287
-16.527
-15.915
-15.457
-15.151
-15.003
-15.016
-15.202
-15.584
-16.18
-16.999
-18.045
-19.31
-20.778
-22.427
-24.217
-26.095
-28.015
-29.928
-31.795
-33.591
-35.28
-36.842
-38.249
-39.442
-40.376
-41.016
-41.346
-41.397
-41.224
-40.87
-40.403
-39.905
-39.466
-39.228
-39.308
-39.82
-40.873
-42.482
-44.734
-47.806
-51.714
-56.355
-61.423
-66.279
-70.369
-73.35
-74.725
-74.094
-71.485
-67.121
-61.897
-57.351
-54.642
-54.8
-58.756
-66.484
-77.036
-88.807
-98.973
-104.176
-101.349
-86.943
-57.814
-12.639
46.759
115.849
189.878
264.701
340.657
420.234
499.393
569.831
617.746
624.688
583.034
496.997
377.391
246.071
124.504
24.037
-46.479
-88.125
-111.709
-124.225
-132.811
-140.022
-140.845
-133.309
-117.849
-97.885
-79.576
-66.049
-58.089
-55.193
-55.665
-58.58
-63.024
-67.237
-70.161
-71.319
-70.545
-68.395
-65.424
-61.951
-58.54
-55.887
-54.375
-54.171
-55.236
-57.271
-60.053
-63.4
-67.049
-70.728
-74.189
-77.266
-79.878
-81.984
-83.544
-84.505
-84.829
-84.504
-83.552
-81.988
-79.833
-77.117
-73.867
-70.139
-66.003
-61.524
-56.781
-51.832
-46.717
-41.475
-36.133
-30.712
-25.231
-19.7
-14.118
-8.49
-2.828
2.859
8.555
14.249
19.932
25.597
31.234
36.834
42.381
47.86
53.253
58.539
63.699
68.709
73.543
78.178
82.593
86.77
90.691
94.341
97.705
100.768
103.518
105.944
108.035
109.781
111.172
112.201
112.862
113.151
113.068
112.611
111.785
110.594
109.043
107.143
104.903
102.335
99.455
96.275
92.813
89.087
85.117
80.922
76.525
71.948
67.214
62.349
57.377
52.326
47.22
42.084
36.945
31.827
26.756
21.755
16.85
12.062
7.415
2.931
-1.37
-5.467
-9.345
-12.985
-16.376
-19.503
-22.356
-24.93
-27.217
-29.216
-30.924
-32.341
-33.469
-34.311
-34.875
-35.166
-35.194
-34.968
-34.501
-33.81
-32.914
-31.834
-30.591
-29.206
-27.702
-26.106
-24.44
-22.726
-20.982
-19.226
-17.479
-15.764
-14.105
-12.525
-11.041
-9.675
-8.448
-7.377
-6.482
-5.77
-5.242
-4.905
-4.771
-4.852
-5.177
-5.759
-6.608
-7.73
-9.125
-10.785
-12.696
-14.824
-17.113
-19.52
-21.998
-24.506
-27.02
-29.488
-31.856
-34.08
-36.102
-37.875
-39.368
-40.55
-41.418
-42.015
-42.396
-42.625
-42.787
-42.965
-43.268
-43.837
-44.8
-46.296
-48.413
-51.259
-55.038
-59.796
-65.434
-71.687
-77.989
-83.794
-88.753
-92.393
-94.139
-93.897
-91.866
-88.754
-86.067
-84.934
-86.038
-90.194
-97.811
-108.33
-120.46
-131.673
-138.358
-137.316
-125.447
-99.527
-57.268
0.71
70.748
147.997
228.316
312.614
404.274
501.36
593.512
660.793
682.571
649.477
568.116
459.633
346.07
241.615
150.928
69.542
-4.809
-69.595
-121.325
-155.559
-171.368
-171.864
-161.041
-143.156
-122.65
-103.432
-88.047
-77.922
-73.376
-73.596
-77.379
-83.512
-90.29
-95.908
-99.431
-100.521
-99.298
-96.412
-92.486
-88.031
-83.77
-80.421
-78.333
-77.634
-78.244
-79.879
-82.331
-85.439
-88.952
-92.616
-96.207
-99.509
-102.394
-104.792
-106.62
-107.814
-108.327
-108.125
-107.206
-105.595
-103.316
-100.404
-96.898
-92.832
-88.262
-83.247
-77.858
-72.183
-66.287
-60.219
-54.021
-47.722
-41.349
-34.927
-28.466
-21.967
-15.435
-8.876
-2.304
4.26
10.803
17.312
23.776
30.186
36.528
42.784
48.934
54.958
60.834
66.541
72.053
77.339
82.375
87.139
91.611
95.773
99.609
103.102
106.237
109.003
111.388
113.381
114.973
116.154
116.918
117.261
117.18
116.676
115.751
114.409
112.659
110.508
107.968
105.052
101.775
98.154
94.206
89.951
85.412
80.612
75.574
70.325
64.893
59.306
53.593
47.782
41.905
35.989
30.065
24.161
18.305
12.525
6.849
1.302
-4.088
-9.297
-14.301
-19.08
-23.611
-27.878
-31.864
-35.557
-38.945
-42.021
-44.778
-47.212
-49.322
-51.108
-52.571
-53.718
-54.554
-55.087
-55.329
-55.295
-55.002
-54.472
-53.726
-52.787
-51.68
-50.433
-49.069
-47.614
-46.089
-44.515
-42.913
-41.307
-39.719
-38.176
-36.699
-35.309
-34.03
-32.879
-31.873
-31.024
-30.34
-29.823
-29.48
-29.318
-29.353
-29.608
-30.103
-30.846
-31.842
-33.086
-34.566
-36.264
-38.147
-40.164
-42.274
-44.427
-46.583
-48.713
-50.776
-52.735
-54.545
-56.136
-57.439
-58.425
-59.09
-59.441
-59.517
-59.335
-58.926
-58.384
-57.825
-57.365
-57.121
-57.196
-57.649
-58.595
-60.245
-62.687
-65.884
-69.62
-73.378
-76.649
-79.104
-80.251
-79.45
-76.56
-71.778
-65.757
-60.085
-56.092
-54.573
-56.816
-63.939
-75.611
-90.656
-106.922
-120.553
-128.075
-126.596
-111.795
-79.379
-29.131
35.865
111.904
192.905
278.781
376.184
482.634
589.627
680.65
728.714
719.217
652.295
536.51
390.978
234.357
79.656
-58.942
-167.008
-235.454
-259.843
-244.901
-203.453
-150.438
-101.67
-66.715
-51.213
-54.115
-65.282
-77.631
-84.769
-84.401
-82.772
-83.036
-85.97
-91.454
-95.769
-97.085
-96.018
-93.185
-89.767
-86.777
-84.595
-83.447
-83.507
-84.723
-86.806
-89.524
-92.723
-96.158
-99.625
-102.961
-105.952
-108.492
-110.561
-112.089
-113.014
-113.301
-112.911
-111.844
-110.133
-107.795
-104.85
-101.337
-97.288
-92.757
-87.808
-82.501
-76.912
-71.101
-65.112
-58.988
-52.761
-46.457
-40.098
-33.699
-27.258
-20.786
-14.294
-7.794
-1.305
5.16
11.591
17.974
24.303
30.565
36.746
42.828
48.795
54.626
60.301
65.798
71.088
76.149
80.958
85.497
89.748
93.697
97.326
100.622
103.573
106.169
108.4
110.254
111.723
112.801
113.482
113.763
113.643
113.126
112.213
110.911
109.228
107.174
104.76
101.998
98.904
95.491
91.777
87.779
83.519
79.017
74.296
69.381
64.298
59.074
53.738
48.316
42.836
37.328
31.817
26.332
20.899
15.545
10.295
5.175
0.21
-4.577
-9.165
-13.532
-17.661
-21.535
-25.142
-28.47
-31.512
-34.26
-36.71
-38.859
-40.705
-42.249
-43.493
-44.44
-45.097
-45.471
-45.572
-45.417
-45.022
-44.408
-43.597
-42.612
-41.476
-40.215
-38.853
-37.412
-35.913
-34.375
-32.818
-31.267
-29.742
-28.267
-26.86
-25.542
-24.329
-23.238
-22.281
-21.465
-20.798
-20.282
-19.923
-19.733
-19.729
-19.936
-20.374
-21.051
-21.972
-23.14
-24.544
-26.17
-27.989
-29.95
-32.008
-34.118
-36.226
-38.296
-40.284
-42.138
-43.804
-45.206
-46.277
-47.006
-47.389
-47.424
-47.127
-46.488
-45.538
-44.42
-43.276
-42.238
-41.46
-41.014
-41.028
-41.779
-43.378
-45.772
-48.789
-51.967
-54.876
-57.334
-58.924
-59.04
-57.609
-54.89
-51.61
-49.163
-48.474
-50.28
-55.712
-65.621
-80.03
-96.378
-111.03
-121.981
-126.499
-125.235
-118.16
-96.597
-57.284
1.239
81.11
170.384
264.575
368.156
475.254
584.437
683.807
742.632
743.064
675.21
543.007
377.54
209.774
67.371
-30.127
-85.177
-108.016
-113.955
-116.913
-119.503
-120.292
-114.753
-100.271
-80.794
-61.412
-46.951
-40.173
-40.482
-45.974
-54.55
-64.074
-72.474
-78.535
-81.733
-81.989
-79.826
-75.914
-70.907
-65.651
-61.053
-57.617
-55.533
-54.795
-55.168
-56.467
-58.55
-61.201
-64.167
-67.228
-70.209
-72.964
-75.419
-77.501
-79.097
-80.131
-80.549
-80.323
-79.459
-77.979
-75.893
-73.217
-69.987
-66.241
-62.029
-57.418
-52.472
-47.268
-41.872
-36.333
-30.699
-25.005
-19.28
-13.545
-7.811
-2.079
3.643
9.343
15.009
20.623
26.172
31.646
37.036
42.333
47.527
52.605
57.552
62.351
66.986
71.438
75.687
79.708
83.482
86.991
90.221
93.159
95.795
98.116
100.114
101.781
103.112
104.102
104.745
105.037
104.978
104.566
103.806
102.701
101.258
99.486
97.394
94.993
92.299
89.324
86.085
82.599
78.881
74.952
70.83
66.537
62.094
57.524
52.851
48.098
43.289
38.45
33.605
28.778
23.991
19.267
14.629
10.097
5.692
1.434
-2.658
-6.566
-10.275
-13.768
-17.032
-20.058
-22.836
-25.362
-27.631
-29.642
-31.395
-32.89
-34.132
-35.124
-35.871
-36.382
-36.662
-36.724
-36.578
-36.242
-35.731
-35.068
-34.272
-33.366
-32.373
-31.316
-30.215
-29.092
-27.962
-26.842
-25.749
-24.699
-23.709
-22.801
-21.993
-21.302
-20.744
-20.332
-20.072
-19.974
-20.041
-20.269
-20.655
-21.199
-21.91
-22.81
-23.918
-25.24
-26.772
-28.505
-30.422
-32.504
-34.724
-37.029
-39.359
-41.657
-43.868
-45.968
-47.951
-49.79
-51.44
-52.837
-53.919
-54.677
-55.146
-55.334
-55.252
-54.903
-54.286
-53.51
-52.734
-52.098
-51.755
-51.787
-52.198
-53.102
-54.689
-57.007
-59.992
-63.322
-66.373
-68.699
-70.017
-69.924
-68.142
-64.661
-59.682
-54.129
-49.457
-46.833
-47.399
-52.147
-61.136
-73.598
-87.97
-101.378
-110.613
-112.566
-103.262
-79.087
-38.075
18.549
86.047
158.99
233.466
310.506
392.388
475.146
549.175
597.198
601.039
554.118
459.191
329.848
187.506
50.97
-61.771
-140.076
-183.304
-195.167
-188.306
-171.911
-149.276
-126.961
-104.171
-83.889
-73.96
-71.216
-74.815
-82.752
-87.921
-92.169
-96.968
-100.916
-105.475
-108.902
-109.28
-107.449
-103.864
-99.289
-94.873
-91.144
-88.292
-86.509
-85.813
-85.989
-86.853
-88.274
-90.056
-92.009
-94.025
-95.971
-97.716
-99.207
-100.379
-101.131
-101.408
-101.175
-100.396
-99.074
-97.225
-94.852
-91.978
-88.64
-84.866
-80.698
-76.185
-71.376
-66.338
-61.126
-55.782
-50.343
-44.838
-39.288
-33.712
-28.121
-22.513
-16.895
-11.275
-5.66
-0.066
5.496
11.02
16.497
21.923
27.289
32.584
37.792
42.9
47.892
52.75
57.453
61.978
66.304
70.413
74.29
77.921
81.291
84.388
87.201
89.719
91.935
93.839
95.426
96.687
97.619
98.218
98.485
98.421
98.029
97.313
96.282
94.942
93.305
91.382
89.184
86.726
84.02
81.084
77.933
74.587
71.065
67.387
63.577
59.655
55.647
51.576
47.465
43.339
39.22
35.129
31.089
27.122
23.247
19.485
15.854
12.372
9.056
5.922
2.984
0.251
-2.267
-4.565
-6.639
-8.487
-10.107
-11.501
-12.672
-13.624
-14.36
-14.887
-15.211
-15.343
-15.297
-15.086
-14.728
-14.24
-13.647
-12.97
-12.233
-11.456
-10.658
-9.86
-9.08
-8.335
-7.642
-7.015
-6.468
-6.016
-5.677
-5.465
-5.391
-5.464
-5.687
-6.064
-6.606
-7.312
-8.179
-9.208
-10.399
-11.762
-13.32
-15.087
-17.065
-19.254
-21.647
-24.231
-26.995
-29.901
-32.885
-35.876
-38.795
-41.595
-44.253
-46.736
-48.995
-50.979
-52.627
-53.905
-54.823
-55.347
-55.415
-54.996
-54.097
-52.808
-51.326
-49.849
-48.523
-47.512
-47.018
-47.12
-47.803
-48.914
-50.053
-50.853
-51.124
-50.568
-48.814
-45.965
-42.413
-38.862
-36.641
-36.691
-39.381
-45.499
-55.807
-69.923
-86.703
-104.045
-118.514
-127.219
-127.934
-117.338
-91.844
-50.994
2.685
65.622
132.468
203.573
285.381
377.48
474.031
558.817
606
601.677
542.993
442.177
323.671
204.432
99.6
14.558
-52.623
-98.438
-127.276
-141.981
-142.906
-137.073
-125.394
-108.71
-91.496
-74.862
-61.671
-54.76
-53.785
-57.788
-65.119
-73.468
-80.833
-86.152
-88.951
-89.091
-86.959
-83.13
-78.192
-72.961
-68.332
-64.759
-62.406
-61.29
-61.21
-62.012
-63.596
-65.773
-68.298
-70.974
-73.636
-76.145
-78.44
-80.454
-82.079
-83.243
-83.89
-83.99
-83.548
-82.581
-81.092
-79.092
-76.607
-73.663
-70.305
-66.588
-62.569
-58.313
-53.874
-49.291
-44.603
-39.838
-35.016
-30.151
-25.249
-20.304
-15.318
-10.3
-5.255
-0.197
4.865
9.926
14.979
20.021
25.044
30.037
34.986
39.877
44.694
49.417
54.025
58.494
62.801
66.928
70.856
74.572
78.06
81.305
84.294
87.016
89.461
91.618
93.477
95.03
96.268
97.188
97.785
98.059
98.009
97.637
96.947
95.945
94.636
93.029
91.135
88.963
86.526
83.839
80.916
77.775
74.435
70.917
67.241
63.429
59.505
55.49
51.41
47.285
43.14
38.994
34.872
30.793
26.779
22.851
19.027
15.327
11.767
8.365
5.135
2.089
-0.762
-3.409
-5.845
-8.066
-10.065
-11.841
-13.392
-14.72
-15.827
-16.715
-17.391
-17.863
-18.145
-18.252
-18.201
-18.01
-17.697
-17.283
-16.789
-16.232
-15.629
-14.993
-14.338
-13.683
-13.045
-12.444
-11.897
-11.422
-11.035
-10.752
-10.587
-10.551
-10.647
-10.874
-11.24
-11.751
-12.422
-13.279
-14.34
-15.612
-17.101
-18.804
-20.713
-22.811
-25.065
-27.426
-29.854
-32.308
-34.753
-37.161
-39.487
-41.697
-43.752
-45.592
-47.165
-48.445
-49.423
-50.119
-50.58
-50.828
-50.899
-50.873
-50.845
-50.937
-51.276
-51.986
-53.151
-54.876
-57.359
-60.682
-64.795
-69.471
-74.17
-78.326
-81.568
-83.457
-83.438
-81.445
-77.763
-73.1
-69.095
-67.143
-68.019
-72.81
-82.339
-96.115
-112.878
-130.2
-143.954
-150.762
-147.902
-131.626
-98.752
-47.631
20.443
100.106
184.7
268.055
349.721
433.786
518.159
598.802
663.406
687.739
660.197
575.406
435.511
267.614
96.59
-54.647
-160.504
-217.085
-228.45
-203.081
-158.708
-109.34
-67.159
-40.518
-33.503
-43.527
-60.429
-76.863
-85.984
-86.167
-84.042
-82.922
-84.2
-87.995
-90.666
-90.581
-88.331
-84.438
-80.098
-76.29
-73.311
-71.35
-70.562
-70.89
-72.094
-74.031
-76.579
-79.525
-82.683
-85.845
-88.776
-91.366
-93.584
-95.365
-96.628
-97.301
-97.323
-96.693
-95.447
-93.599
-91.158
-88.138
-84.567
-80.506
-76.024
-71.197
-66.106
-60.807
-55.347
-49.771
-44.114
-38.406
-32.672
-26.916
-21.139
-15.346
-9.55
-3.766
1.992
7.715
13.398
19.033
24.613
30.131
35.574
40.932
46.188
51.326
56.326
61.167
65.826
70.282
74.515
78.509
82.249
85.722
88.914
91.811
94.405
96.685
98.64
100.262
101.543
102.474
103.052
103.271
103.131
102.631
101.774
100.562
99.001
97.097
94.86
92.299
89.425
86.253
82.794
79.066
75.085
70.871
66.445
61.828
57.044
52.119
47.076
41.944
36.747
31.513
26.268
21.038
15.848
10.726
5.695
0.782
-3.989
-8.595
-13.013
-17.221
-21.2
-24.932
-28.401
-31.596
-34.505
-37.118
-39.43
-41.434
-43.128
-44.51
-45.58
-46.341
-46.797
-46.955
-46.824
-46.42
-45.759
-44.862
-43.75
-42.447
-40.978
-39.368
-37.642
-35.823
-33.933
-31.992
-30.022
-28.048
-26.094
-24.183
-22.34
-20.589
-18.95
-17.446
-16.09
-14.896
-13.876
-13.037
-12.388
-11.941
-11.714
-11.738
-12.033
-12.61
-13.473
-14.623
-16.048
-17.733
-19.648
-21.743
-23.966
-26.269
-28.596
-30.909
-33.178
-35.361
-37.408
-39.246
-40.818
-42.11
-43.129
-43.887
-44.387
-44.614
-44.596
-44.45
-44.325
-44.364
-44.721
-45.474
-46.718
-48.663
-51.388
-54.862
-58.899
-62.988
-66.623
-69.525
-71.311
-71.496
-70.068
-67.231
-63.604
-60.699
-59.708
-61.284
-66.428
-75.903
-89.296
-105.504
-122.234
-135.611
-142.542
-140.403
-125.533
-94.8
-46.368
18.558
94.656
175.826
256.632
337.24
421.935
507.688
588.486
650.242
669.088
635.871
548.941
413.795
257.423
101.439
-35.18
-129.399
-179.373
-190.178
-170.96
-143.053
-117.718
-98.6
-86.943
-76.813
-66.143
-57.026
-51.179
-51.272
-57.223
-66.494
-76.643
-85.152
-90.797
-93.499
-93.342
-90.82
-86.624
-81.489
-76.315
-71.941
-68.764
-66.885
-66.261
-66.702
-68.053
-70.168
-72.835
-75.813
-78.902
-81.949
-84.815
-87.417
-89.67
-91.458
-92.699
-93.336
-93.343
-92.719
-91.481
-89.631
-87.181
-84.16
-80.598
-76.54
-72.044
-67.17
-61.992
-56.572
-50.957
-45.192
-39.312
-33.343
-27.305
-21.208
-15.051
-8.843
-2.595
3.68
9.964
16.24
22.5
28.729
34.918
41.053
47.117
53.091
58.953
64.681
70.251
75.634
80.803
85.73
90.391
94.767
98.839
102.589
106.001
109.06
111.753
114.068
115.995
117.523
118.645
119.354
119.646
119.521
118.98
118.025
116.662
114.899
112.744
110.21
107.308
104.055
100.465
96.558
92.354
87.876
83.147
78.192
73.039
67.716
62.252
56.676
51.017
45.307
39.573
33.846
28.154
22.525
16.988
11.569
6.295
1.191
-3.719
-8.414
-12.872
-17.075
-21.006
-24.651
-27.998
-31.037
-33.762
-36.166
-38.245
-39.999
-41.429
-42.539
-43.335
-43.822
-44.012
-43.917
-43.554
-42.944
-42.109
-41.07
-39.852
-38.48
-36.982
-35.383
-33.708
-31.975
-30.207
-28.427
-26.659
-24.93
-23.264
-21.682
-20.209
-18.868
-17.676
-16.652
-15.806
-15.139
-14.661
-14.379
-14.306
-14.469
-14.885
-15.565
-16.516
-17.737
-19.215
-20.936
-22.866
-24.955
-27.166
-29.454
-31.781
-34.121
-36.434
-38.688
-40.854
-42.869
-44.675
-46.23
-47.508
-48.533
-49.355
-50.007
-50.531
-50.981
-51.414
-51.959
-52.716
-53.751
-55.147
-56.903
-59.117
-62.054
-65.781
-70.175
-74.971
-79.594
-83.485
-86.356
-87.67
-86.758
-83.61
-78.549
-72.4
-66.635
-62.699
-62.043
-65.986
-75.462
-88.749
-101.631
-111.813
-117.426
-118.621
-119.131
-113.785
-93.372
-52.881
16.846
112.601
222.946
345.863
469.252
580.635
670.202
715.696
706.143
644.169
537.049
402.193
256.723
112.383
-17.542
-117.137
-175.673
-191.499
-171.793
-134.839
-100.544
-78.016
-70.557
-75.881
-84.474
-92.692
-99.326
-102.133
-105.017
-109.539
-114.542
-120.335
-124.605
-125.672
-124.011
-119.952
-114.398
-108.443
-102.669
-97.619
-93.701
-91.056
-89.673
-89.41
-90.154
-91.767
-94.07
-96.893
-100.016
-103.264
-106.504
-109.578
-112.342
-114.66
-116.41
-117.519
-117.958
-117.698
-116.728
-115.058
-112.693
-109.671
-106.034
-101.813
-97.064
-91.846
-86.229
-80.304
-74.144
-67.801
-61.322
-54.739
-48.075
-41.353
-34.586
-27.775
-20.927
-14.055
-7.172
-0.301
6.54
13.337
20.077
26.75
33.34
39.825
46.184
52.396
58.436
64.279
69.898
75.263
80.347
85.129
89.59
93.712
97.479
100.874
103.885
106.5
108.71
110.506
111.88
112.827
113.341
113.424
113.078
112.305
111.111
109.506
107.499
105.103
102.332
99.203
95.734
91.944
87.855
83.491
78.878
74.043
69.012
63.815
58.481
53.039
47.519
41.952
36.366
30.791
25.254
19.787
14.416
9.168
4.07
-0.853
-5.579
-10.085
-14.352
-18.361
-22.098
-25.549
-28.705
-31.555
-34.093
-36.314
-38.215
-39.798
-41.064
-42.017
-42.664
-43.015
-43.084
-42.889
-42.451
-41.787
-40.922
-39.878
-38.681
-37.356
-35.925
-34.406
-32.82
-31.192
-29.545
-27.907
-26.303
-24.756
-23.292
-21.935
-20.705
-19.623
-18.701
-17.941
-17.355
-16.952
-16.751
-16.783
-17.07
-17.626
-18.462
-19.578
-20.966
-22.611
-24.477
-26.506
-28.648
-30.857
-33.09
-35.325
-37.524
-39.648
-41.656
-43.487
-45.086
-46.414
-47.445
-48.187
-48.681
-48.983
-49.163
-49.325
-49.572
-50.025
-50.81
-52.034
-53.783
-56.096
-59.08
-62.91
-67.648
-73.256
-79.447
-85.623
-91.265
-95.981
-99.181
-100.263
-99.037
-95.483
-90.374
-85.407
-81.755
-80.415
-82.905
-89.893
-100.815
-115.139
-129.175
-137.507
-138.125
-127.225
-103.126
-68.723
-22.251
37.03
109.386
201.632
316.58
448.099
584.733
702.466
770.945
774.472
707.619
578.838
417.177
246.433
89.258
-30.735
-110.223
-149.736
-156.293
-150.621
-142.258
-135.151
-130.791
-121.174
-104.753
-85.998
-68.273
-56.639
-53.147
-55.835
-62.708
-71.841
-81.124
-88.994
-94.615
-97.561
-97.945
-96.441
-93.765
-90.499
-87.373
-85.071
-83.896
-83.961
-85.188
-87.299
-90.071
-93.326
-96.815
-100.286
-103.558
-106.463
-108.909
-110.862
-112.246
-112.994
-113.07
-112.448
-111.13
-109.144
-106.503
-103.228
-99.36
-94.94
-90.025
-84.682
-78.976
-72.984
-66.77
-60.383
-53.869
-47.266
-40.601
-33.901
-27.182
-20.451
-13.72
-7.003
-0.315
6.325
12.903
19.406
25.823
32.142
38.352
44.438
50.38
56.161
61.761
67.159
72.335
77.262
81.921
86.293
90.361
94.113
97.536
100.618
103.348
105.719
107.722
109.352
110.604
111.471
111.953
112.048
111.758
111.085
110.035
108.613
106.827
104.685
102.199
99.379
96.24
92.795
89.062
85.056
80.799
76.311
71.615
66.735
61.694
56.519
51.233
45.864
40.438
34.98
29.515
24.069
18.668
13.335
8.095
2.972
-2.013
-6.837
-11.482
-15.929
-20.159
-24.159
-27.914
-31.413
-34.646
-37.602
-40.275
-42.658
-44.749
-46.547
-48.051
-49.264
-50.191
-50.843
-51.233
-51.376
-51.289
-50.988
-50.494
-49.828
-49.01
-48.06
-46.993
-45.827
-44.582
-43.277
-41.937
-40.585
-39.244
-37.935
-36.683
-35.508
-34.428
-33.457
-32.604
-31.878
-31.294
-30.87
-30.636
-30.619
-30.832
-31.292
-32.002
-32.95
-34.117
-35.466
-36.939
-38.487
-40.067
-41.639
-43.172
-44.632
-45.98
-47.182
-48.193
-48.964
-49.462
-49.664
-49.58
-49.274
-48.829
-48.349
-47.969
-47.79
-47.92
-48.482
-49.584
-51.338
-53.839
-57.131
-61.281
-66.418
-72.541
-79.477
-86.874
-94.107
-100.52
-105.608
-108.905
-109.986
-108.832
-105.806
-101.587
-97.405
-94.593
-94.109
-96.388
-101.241
-107.47
-113.223
-116.49
-114.341
-103.102
-79.363
-40.794
11.405
72.35
137.58
204.705
276.955
360.797
454.591
547.46
618.483
641.648
604.386
512.015
382.889
245.485
124.235
29.423
-35.69
-75.891
-101.819
-118.986
-131.708
-141.144
-143.373
-137.342
-124.029
-107.004
-91.845
-81.356
-76.346
-76.246
-79.27
-84.381
-90.628
-96.316
-100.423
-102.54
-102.505
-100.828
-98.147
-94.84
-91.477
-88.779
-87.124
-86.679
-87.45
-89.182
-91.652
-94.712
-98.114
-101.593
-104.951
-107.992
-110.607
-112.763
-114.387
-115.413
-115.806
-115.533
-114.591
-113.005
-110.783
-107.945
-104.529
-100.573
-96.137
-91.285
-86.081
-80.6
-74.902
-69.031
-63.028
-56.924
-50.742
-44.505
-38.228
-31.913
-25.573
-19.22
-12.867
-6.532
-0.23
6.028
12.232
18.371
24.435
30.409
36.274
42.013
47.608
53.036
58.278
63.306
68.1
72.639
76.907
80.888
84.567
87.931
90.967
93.663
96.012
98.003
99.628
100.88
101.755
102.248
102.36
102.093
101.452
100.44
99.066
97.34
95.274
92.879
90.169
87.161
83.87
80.314
76.513
72.49
68.267
63.869
59.32
54.647
49.876
45.036
40.152
35.251
30.358
25.502
20.707
15.999
11.403
6.944
2.644
-1.473
-5.387
-9.08
-12.535
-15.74
-18.682
-21.355
-23.749
-25.86
-27.685
-29.223
-30.475
-31.441
-32.126
-32.538
-32.687
-32.586
-32.253
-31.705
-30.965
-30.054
-28.997
-27.818
-26.538
-25.179
-23.763
-22.309
-20.838
-19.374
-17.939
-16.555
-15.247
-14.037
-12.944
-11.987
-11.18
-10.535
-10.063
-9.769
-9.659
-9.742
-10.034
-10.555
-11.325
-12.347
-13.62
-15.142
-16.9
-18.88
-21.058
-23.383
-25.802
-28.266
-30.716
-33.126
-35.475
-37.72
-39.817
-41.703
-43.33
-44.703
-45.841
-46.737
-47.376
-47.726
-47.793
-47.698
-47.58
-47.571
-47.811
-48.333
-49.204
-50.619
-52.646
-55.222
-58.136
-60.875
-62.982
-64.332
-64.699
-63.734
-61.477
-58.089
-54.12
-50.888
-49.319
-49.756
-52.781
-58.864
-67.617
-78.206
-88.847
-96.499
-98.904
-94.306
-80.125
-53.855
-13.679
39.594
101.517
166.924
231.108
295.372
366.31
443.7
524.171
594.904
629.916
615.801
545.704
420.774
267.908
111.262
-26.29
-117.452
-161.123
-165.457
-140.921
-111.644
-86.418
-63.746
-47.275
-31.536
-17.74
-14.203
-17.642
-26.93
-39.269
-46.821
-50.932
-52.682
-51.471
-49.62
-45.729
