Name
Date of Birth,"Mar 27, 1959"
Recorded Date,2022-07-31 11:00:42 -0500
Classification,Sinus Rhythm
Symptoms,
Software Version,1.90
Device,"Watch4,2"
Sample Rate,510.227 hertz


Lead,Lead I
Unit,µV

9.955
8.207
8.498
13.346
19.974
26.531
30.258
27.368
21.222
14.671
9.671
9.45
11.709
14.119
16.168
16.437
15.758
15.198
14.561
13.986
13.408
12.617
11.756
10.945
10.15
9.367
8.614
7.89
7.19
6.514
5.842
5.153
4.458
3.766
3.076
2.388
1.701
1.012
0.325
-0.36
-1.044
-1.731
-2.421
-3.116
-3.817
-4.525
-5.24
-5.964
-6.696
-7.438
-8.188
-8.947
-9.713
-10.487
-11.266
-12.05
-12.837
-13.626
-14.414
-15.201
-15.984
-16.759
-17.525
-18.278
-19.015
-19.731
-20.421
-21.082
-21.708
-22.298
-22.845
-23.346
-23.796
-24.189
-24.523
-24.792
-24.993
-25.121
-25.172
-25.142
-25.028
-24.829
-24.544
-24.173
-23.709
-23.147
-22.488
-21.729
-20.876
-19.932
-18.9
-17.784
-16.592
-15.327
-14.005
-12.636
-11.23
-9.802
-8.36
-6.926
-5.534
-4.223
-3.035
-1.991
-1.084
-0.311
0.32
0.799
1.086
1.172
1.125
0.914
0.437
-0.373
-1.642
-3.362
-5.309
-7.415
-9.754
-12.162
-14.415
-16.309
-17.407
-17.677
-17.502
-16.872
-15.735
-14.427
-13.307
-12.907
-14.093
-17.055
-21.576
-28.008
-36.446
-46.507
-57.7
-68.99
-79.12
-87.583
-94.063
-97.762
-98.364
-95.968
-90.95
-84.449
-77.567
-70.818
-64.752
-60.131
-57.357
-56.648
-57.909
-60.497
-64.045
-68.482
-73.566
-78.918
-84.1
-88.601
-92.132
-94.589
-95.572
-94.637
-91.697
-87.16
-81.882
-76.943
-73.481
-72.328
-74.26
-80.145
-89.043
-98.796
-108.063
-114.056
-115.487
-111.685
-96.661
-65.328
-13.584
60.451
149.922
247.412
348.291
450.585
556.252
663.022
760.351
832.919
864.326
844.243
773.939
660.834
516.571
357.167
196.128
49.796
-63.795
-137.263
-168.364
-163.509
-140.557
-111.294
-85.208
-70.818
-65.515
-67.547
-74.341
-77.406
-74.875
-67.485
-56.814
-49.088
-46.793
-48.951
-54.555
-61.284
-67.973
-74.76
-81.085
-86.278
-90.047
-92.23
-92.976
-92.619
-91.335
-89.405
-87.486
-86.183
-85.8
-86.442
-87.977
-90.168
-92.866
-95.831
-98.67
-101.103
-102.969
-104.194
-104.838
-104.961
-104.581
-103.753
-102.557
-101.05
-99.284
-97.295
-95.096
-92.724
-90.239
-87.705
-85.192
-82.746
-80.393
-78.153
-76.031
-74.028
-72.138
-70.344
-68.624
-66.963
-65.345
-63.755
-62.18
-60.598
-58.983
-57.311
-55.553
-53.682
-51.677
-49.515
-47.177
-44.647
-41.909
-38.95
-35.759
-32.325
-28.636
-24.682
-20.455
-15.948
-11.157
-6.08
-0.717
4.928
10.848
17.034
23.474
30.153
37.053
44.154
51.435
58.869
66.431
74.091
81.819
89.582
97.346
105.076
112.735
120.286
127.691
134.914
141.916
148.661
155.113
161.236
166.996
172.363
177.305
181.793
185.802
189.307
192.286
194.722
196.597
197.899
198.618
198.749
198.288
197.236
195.596
193.374
190.581
187.23
183.336
178.919
173.998
168.598
162.746
156.469
149.798
142.766
135.406
127.752
119.842
111.71
103.394
94.932
86.359
77.712
69.029
60.343
51.69
43.103
34.615
26.254
18.051
10.033
2.223
-5.355
-12.681
-19.736
-26.505
-32.973
-39.13
-44.965
-50.474
-55.65
-60.492
-64.999
-69.174
-73.019
-76.542
-79.749
-82.649
-85.252
-87.57
-89.616
-91.403
-92.945
-94.257
-95.354
-96.251
-96.964
-97.508
-97.9
-98.153
-98.284
-98.306
-98.232
-98.077
-97.853
-97.569
-97.239
-96.87
-96.471
-96.052
-95.617
-95.172
-94.724
-94.274
-93.827
-93.383
-92.945
-92.512
-92.084
-91.66
-91.238
-90.817
-90.394
-89.966
-89.53
-89.083
-88.623
-88.145
-87.648
-87.128
-86.582
-86.008
-85.402
-84.764
-84.09
-83.378
-82.628
-81.838
-81.008
-80.136
-79.224
-78.271
-77.279
-76.249
-75.182
-74.08
-72.947
-71.785
-70.597
-69.386
-68.155
-66.91
-65.653
-64.389
-63.122
-61.855
-60.592
-59.338
-58.095
-56.867
-55.656
-54.467
-53.3
-52.16
-51.048
-49.967
-48.92
-47.907
-46.932
-45.996
-45.101
-44.247
-43.437
-42.671
-41.95
-41.274
-40.644
-40.06
-39.522
-39.029
-38.58
-38.176
-37.815
-37.496
-37.218
-36.98
-36.78
-36.617
-36.49
-36.398
-36.341
-36.317
-36.326
-36.367
-36.44
-36.543
-36.677
-36.84
-37.031
-37.25
-37.495
-37.765
-38.059
-38.375
-38.714
-39.072
-39.45
-39.845
-40.256
-40.682
-41.122
-41.574
-42.037
-42.509
-42.989
-43.476
-43.968
-44.464
-44.962
-45.459
-45.954
-46.444
-46.926
-47.398
-47.856
-48.298
-48.719
-49.118
-49.489
-49.831
-50.14
-50.412
-50.643
-50.832
-50.973
-51.065
-51.104
-51.088
-51.013
-50.876
-50.676
-50.41
-50.075
-49.67
-49.193
-48.641
-48.014
-47.31
-46.53
-45.673
-44.74
-43.731
-42.65
-41.498
-40.279
-38.997
-37.657
-36.262
-34.821
-33.339
-31.823
-30.281
-28.724
-27.161
-25.605
-24.069
-22.564
-21.105
-19.706
-18.379
-17.139
-15.995
-14.958
-14.04
-13.25
-12.601
-12.106
-11.776
-11.618
-11.643
-11.857
-12.268
-12.877
-13.683
-14.68
-15.866
-17.244
-18.824
-20.613
-22.615
-24.827
-27.245
-29.858
-32.652
-35.602
-38.664
-41.797
-44.955
-48.099
-51.203
-54.235
-57.153
-59.903
-62.418
-64.635
-66.505
-67.986
-69.045
-69.669
-69.867
-69.682
-69.188
-68.47
-67.616
-66.715
-65.87
-65.188
-64.757
-64.702
-65.197
-66.38
-68.342
-71.044
-74.222
-77.545
-80.722
-83.326
-84.837
-84.846
-83.021
-79.43
-74.864
-70.205
-66.147
-63.697
-63.854
-67.059
-73.743
-82.732
-90.356
-94.269
-92.991
-85.815
-74.512
-56.087
-23.301
30.342
110.432
212.856
325.706
437.66
539.58
632.352
720.685
803.7
875.425
918.272
913.269
851.754
732.827
570.982
389.935
210.811
54.834
-63.501
-140.022
-174.707
-173.466
-148.928
-113.215
-77.895
-54.716
-46.465
-50.064
-59.705
-64.957
-61.331
-50.74
-37.4
-28.078
-25.609
-28.816
-35.781
-43.92
-52.117
-60.129
-67.041
-72.349
-75.887
-77.564
-77.751
-76.801
-74.841
-72.343
-70.143
-68.782
-68.511
-69.37
-71.106
-73.485
-76.37
-79.466
-82.346
-84.731
-86.462
-87.483
-87.878
-87.701
-86.968
-85.742
-84.103
-82.119
-79.851
-77.34
-74.607
-71.697
-68.677
-65.612
-62.576
-59.618
-56.766
-54.038
-51.444
-48.984
-46.654
-44.44
-42.325
-40.294
-38.337
-36.441
-34.596
-32.785
-30.988
-29.183
-27.344
-25.449
-23.478
-21.41
-19.226
-16.909
-14.44
-11.802
-8.985
-5.972
-2.744
0.716
4.432
8.416
12.672
17.203
22.006
27.072
32.389
37.933
43.67
49.576
55.624
61.794
68.069
74.422
80.825
87.253
93.674
100.069
106.434
112.765
119.062
125.346
131.638
137.971
144.393
150.921
157.557
164.295
171.116
178.012
184.967
191.95
198.929
205.864
212.693
219.349
225.748
231.762
237.264
242.123
246.182
249.335
251.505
252.608
252.582
251.361
248.886
245.127
240.073
233.705
226.028
217.071
206.896
195.633
183.422
170.411
156.776
142.662
128.204
113.559
98.882
84.332
70.084
56.284
43.057
30.548
18.896
8.205
-1.453
-10.07
-17.658
-24.235
-29.843
-34.522
-38.317
-41.307
-43.585
-45.251
-46.436
-47.25
-47.789
-48.168
-48.501
-48.881
-49.379
-50.032
-50.853
-51.858
-53.051
-54.433
-55.996
-57.709
-59.533
-61.419
-63.301
-65.126
-66.854
-68.443
-69.851
-71.049
-72.019
-72.755
-73.273
-73.584
-73.696
-73.623
-73.382
-72.995
-72.492
-71.906
-71.273
-70.622
-69.976
-69.355
-68.772
-68.239
-67.764
-67.348
-66.981
-66.661
-66.385
-66.148
-65.949
-65.783
-65.643
-65.522
-65.412
-65.307
-65.201
-65.09
-64.971
-64.84
-64.695
-64.536
-64.363
-64.176
-63.973
-63.753
-63.514
-63.253
-62.97
-62.663
-62.33
-61.97
-61.582
-61.168
-60.726
-60.259
-59.765
-59.246
-58.701
-58.132
-57.539
-56.923
-56.283
-55.622
-54.939
-54.235
-53.512
-52.77
-52.011
-51.236
-50.445
-49.641
-48.824
-47.997
-47.16
-46.317
-45.468
-44.615
-43.761
-42.908
-42.057
-41.211
-40.372
-39.541
-38.72
-37.913
-37.119
-36.341
-35.582
-34.842
-34.124
-33.43
-32.762
-32.122
-31.513
-30.937
-30.396
-29.892
-29.427
-29.004
-28.623
-28.285
-27.993
-27.746
-27.545
-27.391
-27.284
-27.224
-27.211
-27.244
-27.322
-27.446
-27.614
-27.825
-28.077
-28.368
-28.698
-29.064
-29.464
-29.896
-30.358
-30.847
-31.36
-31.895
-32.448
-33.015
-33.594
-34.18
-34.77
-35.36
-35.947
-36.527
-37.097
-37.654
-38.194
-38.714
-39.21
-39.681
-40.122
-40.53
-40.903
-41.237
-41.529
-41.778
-41.98
-42.132
-42.233
-42.279
-42.27
-42.201
-42.072
-41.881
-41.625
-41.303
-40.914
-40.458
-39.933
-39.34
-38.679
-37.95
-37.156
-36.296
-35.373
-34.389
-33.346
-32.247
-31.097
-29.899
-28.66
-27.386
-26.084
-24.764
-23.433
-22.101
-20.777
-19.469
-18.188
-16.941
-15.738
-14.587
-13.499
-12.485
-11.556
-10.723
-9.997
-9.385
-8.898
-8.542
-8.322
-8.242
-8.302
-8.51
-8.877
-9.412
-10.124
-11.015
-12.087
-13.335
-14.749
-16.311
-17.995
-19.771
-21.608
-23.479
-25.364
-27.24
-29.085
-30.861
-32.522
-34.022
-35.323
-36.4
-37.234
-37.815
-38.157
-38.298
-38.317
-38.292
-38.285
-38.352
-38.546
-38.94
-39.629
-40.711
-42.247
-44.315
-47.035
-50.45
-54.544
-59.145
-63.862
-68.285
-72.095
-74.936
-76.391
-76.178
-74.152
-70.615
-66.448
-62.459
-59.117
-56.883
-56.299
-57.833
-61.722
-66.32
-68.144
-64.353
-53.3
-36.449
-16.993
5.344
34.114
76.085
138.318
221.413
320.681
427.439
531.297
625.107
701.188
752.043
771.818
753.465
696.903
606.801
487.065
348.33
201.927
59.824
-58.793
-141.319
-185.588
-194.907
-182.314
-160.489
-131.966
-99.375
-65.074
-30.321
-3.43
11.698
18.021
17.255
14.623
12.522
7.565
-1.214
-13.967
-29.778
-44.866
-56.791
-65.01
-69.409
-70.617
-69.389
-66.221
-61.765
-57.018
-52.965
-50.088
-48.555
-48.341
-49.215
-50.978
-53.435
-56.182
-58.769
-60.946
-62.589
-63.684
-64.312
-64.495
-64.222
-63.542
-62.517
-61.195
-59.621
-57.805
-55.742
-53.46
-51.008
-48.447
-45.848
-43.259
-40.707
-38.215
-35.799
-33.471
-31.24
-29.099
-27.034
-25.035
-23.091
-21.196
-19.342
-17.516
-15.7
-13.876
-12.025
-10.13
-8.176
-6.145
-4.022
-1.791
0.561
3.049
5.683
8.474
11.433
14.569
17.886
21.393
25.095
29.003
33.129
37.478
42.048
46.835
51.83
57.013
62.36
67.831
73.383
78.984
84.605
90.229
95.85
101.456
107.037
112.59
118.092
123.526
128.882
134.136
139.272
144.293
149.211
154.06
158.891
163.719
168.542
173.343
178.069
182.665
187.065
191.175
194.923
198.25
201.098
203.431
205.218
206.399
206.912
206.673
205.579
203.569
200.612
196.689
191.837
186.105
179.571
172.359
164.577
156.312
147.649
138.644
129.351
119.85
110.221
100.555
90.966
81.544
72.359
63.482
54.943
46.753
38.906
31.352
24.052
16.987
10.147
3.538
-2.828
-8.951
-14.828
-20.455
-25.845
-31.008
-35.949
-40.683
-45.208
-49.513
-53.581
-57.378
-60.874
-64.056
-66.913
-69.446
-71.663
-73.571
-75.183
-76.521
-77.6
-78.435
-79.042
-79.429
-79.612
-79.61
-79.441
-79.128
-78.694
-78.158
-77.54
-76.857
-76.124
-75.354
-74.558
-73.743
-72.918
-72.09
-71.266
-70.453
-69.66
-68.892
-68.153
-67.449
-66.783
-66.158
-65.575
-65.034
-64.533
-64.072
-63.649
-63.261
-62.905
-62.578
-62.276
-61.995
-61.73
-61.479
-61.235
-60.995
-60.755
-60.51
-60.256
-59.989
-59.706
-59.405
-59.082
-58.735
-58.365
-57.968
-57.546
-57.098
-56.625
-56.125
-55.601
-55.054
-54.483
-53.892
-53.281
-52.653
-52.011
-51.356
-50.691
-50.02
-49.345
-48.668
-47.994
-47.324
-46.662
-46.01
-45.372
-44.749
-44.145
-43.562
-43.002
-42.467
-41.96
-41.482
-41.034
-40.618
-40.234
-39.884
-39.566
-39.281
-39.03
-38.811
-38.624
-38.468
-38.343
-38.247
-38.181
-38.142
-38.129
-38.143
-38.18
-38.242
-38.325
-38.431
-38.556
-38.701
-38.864
-39.045
-39.243
-39.457
-39.685
-39.928
-40.183
-40.45
-40.728
-41.016
-41.313
-41.618
-41.931
-42.251
-42.578
-42.911
-43.249
-43.592
-43.94
-44.293
-44.649
-45.008
-45.371
-45.737
-46.105
-46.476
-46.848
-47.221
-47.594
-47.967
-48.338
-48.707
-49.071
-49.431
-49.784
-50.13
-50.466
-50.793
-51.109
-51.413
-51.702
-51.977
-52.234
-52.473
-52.692
-52.888
-53.058
-53.202
-53.317
-53.402
-53.453
-53.468
-53.446
-53.383
-53.276
-53.124
-52.924
-52.672
-52.366
-52.003
-51.582
-51.102
-50.56
-49.955
-49.287
-48.555
-47.759
-46.899
-45.974
-44.985
-43.935
-42.823
-41.654
-40.429
-39.154
-37.833
-36.473
-35.082
-33.668
-32.24
-30.808
-29.38
-27.968
-26.581
-25.228
-23.918
-22.66
-21.463
-20.341
-19.304
-18.365
-17.534
-16.821
-16.235
-15.787
-15.482
-15.323
-15.31
-15.448
-15.742
-16.208
-16.858
-17.7
-18.738
-19.972
-21.395
-22.997
-24.758
-26.641
-28.608
-30.62
-32.646
-34.664
-36.648
-38.568
-40.382
-42.034
-43.474
-44.668
-45.583
-46.194
-46.503
-46.528
-46.326
-45.986
-45.587
-45.211
-44.952
-44.886
-45.098
-45.667
-46.653
-48.165
-50.363
-53.328
-57.047
-61.38
-66.031
-70.696
-75.07
-78.689
-80.974
-81.478
-80.061
-76.997
-72.866
-68.368
-64.261
-61.377
-60.703
-62.239
-64.594
-66.011
-65.085
-62.851
-61.418
-60.163
-54.441
-34.277
9.537
78.848
168.887
267.883
365.553
458.688
546.176
628.57
700.828
751.914
772.6
755.044
699.997
613.241
498.734
366.768
227.614
94.807
-10.855
-79.599
-110.587
-111.896
-102.477
-93.356
-87.251
-82.567
-72.596
-55.591
-34.533
-12.775
5.646
18.681
25.905
27.364
24.035
17.04
7.506
-3.469
-15.225
-26.862
-37.007
-44.829
-50.039
-52.692
-53.339
-52.509
-50.523
-47.998
-45.808
-44.484
-44.289
-45.267
-47.148
-49.691
-52.712
-55.875
-58.803
-61.265
-63.136
-64.398
-65.131
-65.378
-65.165
-64.552
-63.601
-62.361
-60.867
-59.131
-57.169
-55.019
-52.741
-50.399
-48.045
-45.709
-43.413
-41.17
-38.989
-36.875
-34.819
-32.807
-30.833
-28.891
-26.978
-25.091
-23.222
-21.356
-19.479
-17.573
-15.618
-13.6
-11.5
-9.301
-6.989
-4.552
-1.98
0.736
3.604
6.632
9.826
13.194
16.744
20.486
24.434
28.596
32.974
37.563
42.352
47.323
52.448
57.7
63.042
68.449
73.899
79.38
84.891
90.433
96.004
101.595
107.18
112.738
118.249
123.697
129.073
134.381
139.636
144.861
150.091
155.339
160.601
165.845
171.012
176.028
180.807
185.277
189.387
193.091
196.35
199.121
201.366
203.032
204.057
204.368
203.876
202.518
200.257
197.096
193.077
188.272
182.778
176.684
170.065
162.986
155.504
147.672
139.545
131.18
122.643
114.016
105.402
96.889
88.549
80.429
72.543
64.881
57.415
50.118
42.974
35.974
29.122
22.427
15.904
9.566
3.432
-2.497
-8.23
-13.777
-19.147
-24.338
-29.334
-34.114
-38.646
-42.903
-46.861
-50.503
-53.821
-56.813
-59.485
-61.848
-63.918
-65.709
-67.23
-68.491
-69.502
-70.275
-70.823
-71.166
-71.322
-71.311
-71.153
-70.869
-70.476
-69.991
-69.429
-68.801
-68.118
-67.39
-66.626
-65.838
-65.036
-64.23
-63.428
-62.642
-61.879
-61.147
-60.453
-59.801
-59.196
-58.641
-58.138
-57.69
-57.295
-56.955
-56.668
-56.433
-56.248
-56.111
-56.019
-55.969
-55.956
-55.977
-56.027
-56.102
-56.199
-56.312
-56.438
-56.573
-56.713
-56.855
-56.995
-57.132
-57.262
-57.382
-57.49
-57.583
-57.659
-57.716
-57.753
-57.766
-57.757
-57.724
-57.667
-57.586
-57.482
-57.354
-57.204
-57.033
-56.842
-56.633
-56.408
-56.168
-55.916
-55.655
-55.386
-55.112
-54.835
-54.559
-54.285
-54.016
-53.753
-53.499
-53.255
-53.023
-52.804
-52.599
-52.41
-52.237
-52.081
-51.942
-51.821
-51.716
-51.628
-51.556
-51.5
-51.457
-51.427
-51.408
-51.4
-51.4
-51.406
-51.417
-51.43
-51.444
-51.455
-51.461
-51.46
-51.449
-51.426
-51.388
-51.333
-51.26
-51.164
-51.046
-50.904
-50.735
-50.539
-50.315
-50.062
-49.781
-49.471
-49.133
-48.767
-48.376
-47.96
-47.521
-47.062
-46.584
-46.09
-45.583
-45.065
-44.539
-44.009
-43.477
-42.946
-42.421
-41.903
-41.397
-40.906
-40.433
-39.981
-39.553
-39.152
-38.78
-38.44
-38.134
-37.864
-37.63
-37.435
-37.278
-37.16
-37.081
-37.039
-37.035
-37.066
-37.131
-37.228
-37.354
-37.506
-37.681
-37.876
-38.087
-38.31
-38.54
-38.773
-39.006
-39.233
-39.451
-39.655
-39.84
-40.003
-40.139
-40.243
-40.313
-40.344
-40.332
-40.274
-40.168
-40.011
-39.802
-39.538
-39.22
-38.847
-38.419
-37.938
-37.404
-36.819
-36.186
-35.508
-34.788
-34.03
-33.239
-32.422
-31.587
-30.743
-29.899
-29.064
-28.249
-27.463
-26.718
-26.024
-25.386
-24.813
-24.313
-23.894
-23.568
-23.343
-23.228
-23.23
-23.357
-23.615
-24.009
-24.543
-25.212
-26.013
-26.948
-28.02
-29.242
-30.626
-32.176
-33.893
-35.776
-37.817
-40.008
-42.327
-44.738
-47.201
-49.678
-52.136
-54.554
-56.903
-59.146
-61.235
-63.108
-64.713
-66.009
-66.965
-67.56
-67.79
-67.671
-67.25
-66.602
-65.814
-64.981
-64.198
-63.572
-63.207
-63.184
-63.626
-64.701
-66.525
-69.157
-72.503
-76.254
-80.1
-83.806
-87.006
-89.234
-90.133
-89.431
-87.316
-84.647
-82.205
-80.476
-80.202
-82.142
-86.606
-93.877
-102.533
-108.803
-110.549
-106.717
-96.898
-83.063
-62.632
-28.713
23.276
96.619
188.142
287.468
387.233
483.936
575.734
661.263
733.649
779.407
785.869
748.116
668.607
556.569
426.407
290.404
160.698
52.243
-25.142
-67.972
-78.875
-70.261
-56.151
-43.34
-33.731
-23.781
-6.861
15.764
37.357
50.597
46.772
26.146
-2.991
-33.078
-55.735
-68.269
-74.366
-75.928
-74.681
-71.607
-65.588
-57.258
-48.427
-40.009
-32.816
-27.38
-23.566
-21.352
-20.79
-21.486
-22.902
-24.75
-26.85
-29.126
-31.645
-34.328
-37.003
-39.596
-42.054
-44.346
-46.491
-48.431
-50.054
-51.306
-52.157
-52.618
-52.746
-52.57
-52.103
-51.362
-50.367
-49.159
-47.802
-46.335
-44.779
-43.137
-41.382
-39.521
-37.602
-35.644
-33.66
-31.645
-29.568
-27.42
-25.212
-22.936
-20.58
-18.124
-15.539
-12.814
-9.954
-6.963
-3.851
-0.611
2.781
6.341
10.074
13.988
18.08
22.356
26.83
31.501
36.36
41.397
46.599
51.96
57.477
63.143
68.947
74.876
80.911
87.035
93.23
99.475
105.75
112.028
118.286
124.497
130.643
136.7
142.644
148.452
154.1
159.563
164.819
169.845
174.617
179.112
183.309
187.187
190.729
193.915
196.73
199.158
201.186
202.803
203.999
204.765
205.094
204.982
204.426
203.425
201.982
200.1
197.784
195.043
191.887
188.327
184.377
180.053
175.371
170.349
165.008
159.367
153.45
147.277
140.875
134.265
127.475
120.529
113.454
106.275
99.019
91.712
84.378
77.043
69.732
62.469
55.276
48.177
41.193
34.344
27.651
21.131
14.8
8.675
2.768
-2.908
-8.344
-13.529
-18.457
-23.123
-27.521
-31.649
-35.506
-39.09
-42.404
-45.45
-48.231
-50.753
-53.02
-55.041
-56.822
-58.372
-59.701
-60.818
-61.733
-62.458
-63.003
-63.38
-63.601
-63.679
-63.624
-63.45
-63.169
-62.793
-62.332
-61.799
-61.204
-60.557
-59.867
-59.144
-58.396
-57.632
-56.858
-56.082
-55.31
-54.549
-53.804
-53.079
-52.379
-51.708
-51.068
-50.464
-49.896
-49.368
-48.88
-48.434
-48.03
-47.668
-47.349
-47.07
-46.832
-46.632
-46.467
-46.337
-46.237
-46.166
-46.121
-46.098
-46.095
-46.109
-46.138
-46.177
-46.225
-46.279
-46.335
-46.391
-46.444
-46.491
-46.529
-46.556
-46.568
-46.564
-46.541
-46.496
-46.427
-46.332
-46.209
-46.056
-45.872
-45.656
-45.406
-45.123
-44.807
-44.458
-44.077
-43.665
-43.224
-42.755
-42.261
-41.744
-41.206
-40.648
-40.074
-39.487
-38.889
-38.282
-37.671
-37.057
-36.444
-35.835
-35.232
-34.64
-34.061
-33.498
-32.955
-32.434
-31.938
-31.471
-31.035
-30.632
-30.265
-29.936
-29.646
-29.396
-29.187
-29.019
-28.892
-28.805
-28.757
-28.748
-28.775
-28.837
-28.933
-29.059
-29.215
-29.397
-29.604
-29.833
-30.082
-30.349
-30.63
-30.925
-31.23
-31.544
-31.865
-32.19
-32.517
-32.844
-33.17
-33.492
-33.81
-34.121
-34.425
-34.721
-35.008
-35.286
-35.556
-35.818
-36.073
-36.322
-36.567
-36.809
-37.05
-37.293
-37.539
-37.79
-38.05
-38.319
-38.6
-38.895
-39.204
-39.529
-39.872
-40.231
-40.609
-41.005
-41.42
-41.852
-42.301
-42.767
-43.248
-43.742
-44.248
-44.763
-45.285
-45.809
-46.333
-46.853
-47.364
-47.863
-48.345
-48.804
-49.235
-49.632
-49.989
-50.301
-50.561
-50.763
-50.902
-50.972
-50.968
-50.887
-50.723
-50.473
-50.134
-49.706
-49.184
-48.57
-47.862
-47.062
-46.17
-45.19
-44.125
-42.978
-41.757
-40.47
-39.124
-37.73
-36.298
-34.841
-33.369
-31.895
-30.434
-28.994
-27.589
-26.231
-24.932
-23.707
-22.572
-21.539
-20.623
-19.836
-19.19
-18.698
-18.367
-18.202
-18.204
-18.378
-18.729
-19.272
-20.021
-20.98
-22.155
-23.546
-25.145
-26.94
-28.912
-31.021
-33.229
-35.496
-37.784
-40.07
-42.327
-44.521
-46.609
-48.533
-50.236
-51.677
-52.819
-53.634
-54.115
-54.274
-54.151
-53.834
-53.403
-52.94
-52.532
-52.25
-52.182
-52.428
-53.074
-54.245
-56.101
-58.731
-62.149
-66.245
-70.701
-75.136
-79.161
-82.268
-83.912
-83.675
-81.353
-77.201
-71.983
-66.652
-62.121
-59.195
-58.563
-60.656
-65.402
-71.801
-77.864
-80.85
-77.836
-66.321
-43.815
-8.097
42.207
107.622
186.376
273.707
364.374
453.276
536.848
615.358
688.047
750.503
795.43
811.227
787.732
722.904
620.507
489.532
343.988
196.536
59.937
-51.78
-130.584
-173.912
-184.144
-169.414
-137.611
-95.125
-49.364
-8.555
19.866
31.445
27.613
15.737
3.048
-6.532
-12.94
-19.911
-29.526
-40.927
-52.218
-60.437
-64.15
-63.867
-60.442
-55.078
-49.047
-43.29
-38.493
-35.219
-33.678
-33.79
-35.429
-38.33
-42.085
-46.261
-50.516
-54.588
-58.326
-61.657
-64.509
-66.837
-68.64
-69.943
-70.772
-71.136
-71.047
-70.512
-69.556
-68.224
-66.562
-64.62
-62.456
-60.125
-57.688
-55.204
-52.721
-50.269
-47.871
-45.54
-43.28
-41.092
-38.969
-36.895
-34.858
-32.844
-30.839
-28.83
-26.8
-24.733
-22.615
-20.428
-18.16
-15.798
-13.331
-10.748
-8.041
-5.203
-2.228
0.89
4.155
7.574
11.151
14.891
18.798
22.876
27.126
31.55
36.147
40.912
45.842
50.928
56.162
61.534
67.03
72.637
78.337
84.115
89.949
95.82
101.706
107.584
113.429
119.217
124.922
130.517
135.977
141.273
146.381
151.273
155.923
160.305
164.395
168.168
171.601
174.672
177.361
179.648
181.515
182.947
183.931
184.455
184.511
184.092
183.195
181.818
179.964
177.635
174.84
171.586
167.885
163.752
159.203
154.256
148.932
143.254
137.246
130.934
124.346
117.51
110.457
103.216
95.82
88.3
80.689
73.019
65.323
57.632
49.978
42.392
34.905
27.545
20.339
13.315
6.495
-0.096
-6.438
-12.513
-18.304
-23.796
-28.978
-33.838
-38.37
-42.567
-46.427
-49.948
-53.131
-55.981
-58.501
-60.699
-62.583
-64.164
-65.453
-66.465
-67.212
-67.71
-67.977
-68.028
-67.883
-67.559
-67.074
-66.448
-65.699
-64.846
-63.906
-62.897
-61.836
-60.74
-59.624
-58.502
-57.388
-56.295
-55.233
-54.215
-53.247
-52.339
-51.497
-50.725
-50.03
-49.412
-48.875
-48.42
-48.046
-47.752
-47.538
-47.4
-47.335
-47.34
-47.41
-47.54
-47.725
-47.959
-48.236
-48.552
-48.899
-49.273
-49.667
-50.076
-50.495
-50.918
-51.34
-51.757
-52.165
-52.56
-52.938
-53.296
-53.633
-53.946
-54.234
-54.496
-54.731
-54.94
-55.121
-55.277
-55.406
-55.511
-55.593
-55.652
-55.69
-55.709
-55.71
-55.696
-55.667
-55.626
-55.574
-55.513
-55.443
-55.366
-55.282
-55.194
-55.102
-55.007
-54.909
-54.809
-54.708
-54.606
-54.504
-54.402
-54.299
-54.195
-54.09
-53.983
-53.875
-53.765
-53.652
-53.537
-53.418
-53.297
-53.172
-53.044
-52.913
-52.778
-52.641
-52.5
-52.358
-52.214
-52.07
-51.926
-51.784
-51.644
-51.509
-51.379
-51.255
-51.139
-51.032
-50.934
-50.847
-50.772
-50.71
-50.661
-50.628
-50.61
-50.608
-50.624
-50.657
-50.707
-50.776
-50.863
-50.967
-51.088
-51.226
-51.38
-51.549
-51.734
-51.932
-52.144
-52.368
-52.602
-52.847
-53.099
-53.358
-53.623
-53.892
-54.164
-54.438
-54.713
-54.99
-55.266
-55.543
-55.819
-56.094
-56.368
-56.641
-56.912
-57.182
-57.451
-57.719
-57.987
-58.256
-58.527
-58.801
-59.078
-59.359
-59.646
-59.938
-60.237
-60.542
-60.854
-61.174
-61.501
-61.836
-62.178
-62.529
-62.886
-63.248
-63.616
-63.986
-64.356
-64.725
-65.088
-65.442
-65.785
-66.113
-66.422
-66.71
-66.971
-67.203
-67.401
-67.561
-67.678
-67.748
-67.766
-67.728
-67.629
-67.466
-67.236
-66.935
-66.561
-66.111
-65.584
-64.978
-64.293
-63.527
-62.681
-61.755
-60.752
-59.674
-58.523
-57.306
-56.027
-54.697
-53.325
-51.919
-50.493
-49.056
-47.621
-46.201
-44.805
-43.443
-42.124
-40.858
-39.656
-38.531
-37.495
-36.558
-35.732
-35.026
-34.449
-34.011
-33.715
-33.559
-33.544
-33.671
-33.948
-34.391
-35.015
-35.828
-36.835
-38.035
-39.421
-40.985
-42.701
-44.529
-46.426
-48.349
-50.262
-52.143
-53.964
-55.687
-57.261
-58.618
-59.703
-60.472
-60.891
-60.94
-60.612
-59.925
-58.931
-57.712
-56.366
-54.996
-53.695
-52.565
-51.717
-51.25
-51.315
-52.104
-53.748
-56.289
-59.617
-63.424
-67.327
-70.958
-73.849
-75.456
-75.364
-73.391
-69.864
-65.676
-61.919
-59.614
-59.599
-62.544
-68.769
-78.043
-89.116
-99.613
-106.401
-106.207
-96.22
-73.817
-36.847
15.976
84.903
167.548
258.96
354.056
447.484
535.997
619.101
693.091
752.662
790.279
795.844
765.859
702.315
610.118
497.898
373.78
245.396
124.612
25.818
-41.886
-75.453
-81.104
-73.801
-63.738
-55.28
-48.486
-38.471
-24.134
-8.239
6.272
16.071
19.967
18.578
12.809
4.117
-5.995
-16.055
-24.673
-31.245
-35.588
-37.494
-37.087
-34.741
-30.966
-26.652
-22.736
-19.661
-17.652
-16.904
-17.385
-19.014
-21.674
-25.007
-28.583
-32.132
-35.443
-38.353
-40.817
-42.785
-44.207
-45.112
-45.547
-45.546
-45.155
-44.407
-43.315
-41.911
-40.238
-38.336
-36.266
-34.088
-31.862
-29.647
-27.489
-25.416
-23.451
-21.604
-19.881
-18.276
-16.778
-15.367
-14.03
-12.752
-11.52
-10.318
-9.126
-7.921
-6.684
-5.392
-4.028
-2.573
-1.01
0.679
2.507
4.486
6.629
8.944
11.442
14.132
17.025
20.129
23.451
26.995
30.766
34.766
38.995
43.452
48.132
53.027
58.129
63.427
68.908
74.556
80.356
86.288
92.332
98.466
104.666
110.908
117.164
123.407
129.609
135.74
141.771
147.671
153.41
158.957
164.283
169.358
174.153
178.64
182.792
186.585
189.993
192.995
195.571
197.702
199.371
200.567
201.276
201.491
201.207
200.418
199.125
197.33
195.037
192.254
188.989
185.255
181.067
176.441
171.398
165.957
160.144
153.982
147.499
140.724
133.687
126.418
118.951
111.319
103.555
95.693
87.767
79.812
71.862
63.948
56.104
48.361
40.749
33.296
26.031
18.977
12.16
5.6
-0.682
-6.668
-12.345
-17.697
-22.715
-27.39
-31.716
-35.689
-39.308
-42.573
-45.486
-48.054
-50.283
-52.181
-53.762
-55.036
-56.02
-56.728
-57.18
-57.392
-57.385
-57.179
-56.795
-56.255
-55.579
-54.79
-53.908
-52.956
-51.953
-50.921
-49.878
-48.842
-47.832
-46.863
-45.949
-45.106
-44.343
-43.673
-43.103
-42.642
-42.297
-42.07
-41.966
-41.986
-42.129
-42.395
-42.78
-43.281
-43.89
-44.601
-45.406
-46.297
-47.263
-48.295
-49.379
-50.506
-51.663
-52.838
-54.017
-55.189
-56.34
-57.459
-58.533
-59.551
-60.503
-61.378
-62.167
-62.862
-63.455
-63.941
-64.314
-64.569
-64.702
-64.713
-64.598
-64.358
-63.994
-63.508
-62.902
-62.18
-61.347
-60.409
-59.371
-58.24
-57.023
-55.729
-54.365
-52.94
-51.464
-49.946
-48.395
-46.821
-45.234
-43.644
-42.061
-40.492
-38.947
-37.434
-35.961
-34.534
-33.161
-31.846
-30.595
-29.413
-28.304
-27.269
-26.312
-25.435
-24.637
-23.919
-23.281
-22.722
-22.239
-21.831
-21.497
-21.232
-21.034
-20.9
-20.826
-20.809
-20.843
-20.926
-21.052
-21.217
-21.416
-21.645
-21.9
-22.175
-22.468
-22.775
-23.092
-23.417
-23.746
-24.078
-24.409
-24.74
-25.067
-25.391
-25.712
-26.028
-26.341
-26.651
-26.959
-27.267
-27.575
-27.884
-28.197
-28.514
-28.836
-29.166
-29.504
-29.85
-30.208
-30.577
-30.959
-31.354
-31.763
-32.188
-32.627
-33.082
-33.552
-34.037
-34.536
-35.049
-35.574
-36.11
-36.656
-37.209
-37.769
-38.333
-38.898
-39.463
-40.024
-40.579
-41.126
-41.66
-42.179
-42.682
-43.164
-43.624
-44.059
-44.468
-44.848
-45.198
-45.516
-45.802
-46.053
-46.27
-46.451
-46.596
-46.705
-46.776
-46.81
-46.806
-46.765
-46.687
-46.572
-46.42
-46.231
-46.007
-45.746
-45.45
-45.119
-44.753
-44.352
-43.916
-43.445
-42.941
-42.403
-41.832
-41.228
-40.59
-39.921
-39.219
-38.485
-37.719
-36.921
-36.093
-35.235
-34.347
-33.432
-32.491
-31.528
-30.545
-29.549
-28.544
-27.535
-26.531
-25.537
-24.561
-23.611
-22.692
-21.811
-20.974
-20.189
-19.463
-18.804
-18.222
-17.726
-17.323
-17.021
-16.83
-16.755
-16.798
-16.96
-17.242
-17.649
-18.192
-18.879
-19.719
-20.717
-21.877
-23.199
-24.675
-26.288
-28.007
-29.796
-31.62
-33.446
-35.248
-36.997
-38.663
-40.21
-41.589
-42.753
-43.665
-44.286
-44.585
-44.554
-44.204
-43.584
-42.795
-41.944
-41.122
-40.432
-39.962
-39.787
-40.004
-40.718
-41.964
-43.797
-46.346
-49.651
-53.72
-58.503
-63.683
-68.823
-73.639
-77.843
-80.806
-82.015
-81.261
-78.295
-74.388
-72.053
-71.73
-73.33
-75.042
-70.957
-59.866
-44.676
-30.136
-27.583
-41.235
-63.577
-81.367
-72.734
-22.056
70.242
194.194
331.589
466.026
590.473
701.908
795.957
864.626
897.526
885.376
828.075
733.306
609.391
467.498
317.571
169.215
38.103
-61.215
-120.918
-140.66
-130.125
-105.62
-80.076
-60.854
-51.452
-47.595
-43.398
-36.69
-25.215
-11.304
-0.775
4.314
3.245
-3.102
-11.363
-19.829
-28.159
-35.558
-41.347
-45.193
-46.815
-46.381
-44.571
-41.838
-38.408
-34.826
-31.85
-29.951
-29.38
-30.144
-31.944
-34.559
-37.844
-41.501
-45.142
-48.461
-51.264
-53.474
-55.141
-56.297
-56.942
-57.107
-56.842
-56.205
-55.246
-54.001
-52.485
-50.726
-48.776
-46.697
-44.554
-42.411
-40.307
-38.266
-36.305
-34.429
-32.638
-30.927
-29.283
-27.687
-26.121
-24.573
-23.028
-21.472
-19.887
-18.249
-16.535
-14.723
-12.794
-10.731
-8.52
-6.147
-3.601
-0.873
2.045
5.159
8.473
11.996
15.732
19.685
23.86
28.257
32.874
37.71
42.761
48.018
53.473
59.113
64.924
70.891
76.995
83.217
89.535
95.925
102.363
108.823
115.276
121.694
128.048
134.308
140.443
146.423
152.218
157.797
163.131
168.193
172.955
177.39
181.474
185.183
188.495
191.391
193.85
195.858
197.398
198.461
199.034
199.113
198.693
197.771
196.35
194.433
192.026
189.139
185.783
181.972
177.722
173.053
167.984
162.539
156.741
150.617
144.194
137.499
130.563
123.414
116.083
108.6
100.995
93.298
85.539
77.747
69.951
62.179
54.458
46.815
39.274
31.859
24.592
17.495
10.586
3.882
-2.6
-8.846
-14.845
-20.586
-26.061
-31.264
-36.19
-40.836
-45.203
-49.29
-53.1
-56.638
-59.909
-62.919
-65.676
-68.19
-70.468
-72.521
-74.36
-75.994
-77.437
-78.698
-79.789
-80.722
-81.509
-82.16
-82.688
-83.102
-83.415
-83.635
-83.773
-83.839
-83.842
-83.789
-83.689
-83.55
-83.378
-83.179
-82.958
-82.72
-82.468
-82.206
-81.936
-81.66
-81.378
-81.092
-80.801
-80.507
-80.208
-79.904
-79.596
-79.281
-78.959
-78.63
-78.292
-77.945
-77.588
-77.221
-76.841
-76.45
-76.046
-75.628
-75.197
-74.752
-74.291
-73.815
-73.323
-72.814
-72.289
-71.747
-71.187
-70.612
-70.02
-69.412
-68.79
-68.155
-67.508
-66.849
-66.182
-65.506
-64.824
-64.137
-63.446
-62.753
-62.059
-61.366
-60.676
-59.988
-59.306
-58.63
-57.961
-57.301
-56.65
-56.011
-55.385
-54.773
-54.176
-53.597
-53.036
-52.497
-51.98
-51.487
-51.019
-50.578
-50.165
-49.78
-49.425
-49.1
-48.806
-48.542
-48.309
-48.108
-47.939
-47.8
-47.694
-47.618
-47.574
-47.56
-47.576
-47.621
-47.694
-47.796
-47.923
-48.077
-48.254
-48.454
-48.676
-48.916
-49.173
-49.446
-49.731
-50.027
-50.331
-50.641
-50.956
-51.273
-51.59
-51.908
-52.223
-52.536
-52.845
-53.149
-53.448
-53.742
-54.028
-54.308
-54.58
-54.844
-55.1
-55.349
-55.589
-55.821
-56.045
-56.261
-56.47
-56.673
-56.869
-57.061
-57.249
-57.434
-57.619
-57.804
-57.991
-58.183
-58.379
-58.582
-58.793
-59.012
-59.24
-59.479
-59.726
-59.984
-60.25
-60.524
-60.805
-61.093
-61.386
-61.682
-61.981
-62.28
-62.579
-62.876
-63.169
-63.456
-63.736
-64.007
-64.266
-64.511
-64.739
-64.947
-65.132
-65.29
-65.417
-65.51
-65.565
-65.578
-65.544
-65.46
-65.322
-65.127
-64.87
-64.549
-64.162
-63.705
-63.178
-62.58
-61.91
-61.166
-60.351
-59.464
-58.507
-57.481
-56.388
-55.229
-54.008
-52.727
-51.39
-50.002
-48.567
-47.092
-45.585
-44.056
-42.515
-40.973
-39.442
-37.934
-36.462
-35.038
-33.673
-32.377
-31.162
-30.039
-29.02
-28.118
-27.344
-26.708
-26.219
-25.885
-25.715
-25.713
-25.878
-26.209
-26.706
-27.375
-28.229
-29.279
-30.532
-31.991
-33.655
-35.519
-37.576
-39.805
-42.167
-44.623
-47.129
-49.645
-52.146
-54.595
-56.952
-59.162
-61.159
-62.884
-64.291
-65.339
-66.001
-66.264
-66.139
-65.672
-64.941
-64.039
-63.072
-62.149
-61.381
-60.877
-60.725
-61.049
-62.025
-63.787
-66.394
-69.775
-73.688
-77.865
-82.074
-85.93
-88.888
-90.487
-90.383
-88.657
-85.903
-82.668
-79.525
-77.338
-76.98
-79.207
-83.749
-88.711
-91.695
-91.072
-87.69
-83.304
-76.935
-63.8
-33.979
21.543
103.895
207.24
318.734
426.731
527.738
622.56
713.554
797.315
862.366
893.244
875.622
804.582
682.771
522.011
343.591
168.232
18.408
-87.819
-147.622
-165.005
-150.751
-120.63
-83.161
-44.358
-11.127
12.532
22.919
18.393
2.759
-15.683
-29.635
-34.653
-28.568
-16.534
-5.82
-0.514
-4.411
-15.815
-28.844
-40.264
-47.762
-51.02
-52.208
-52.161
-50.905
-48.763
-45.991
-43.297
-41.44
-40.664
-40.882
-41.961
-43.786
-46.198
-48.899
-51.45
-53.53
-54.999
-55.851
-56.158
-55.954
-55.243
-54.064
-52.497
-50.608
-48.451
-46.053
-43.426
-40.607
-37.656
-34.641
-31.636
-28.69
-25.835
-23.091
-20.472
-17.981
-15.617
-13.373
-11.23
-9.177
-7.204
-5.301
-3.457
-1.659
0.108
1.864
3.63
5.426
7.273
9.189
11.191
13.297
15.522
17.883
20.395
23.07
25.92
28.956
32.191
35.64
39.323
43.249
47.423
51.845
56.508
61.404
66.519
71.829
77.292
82.871
88.528
94.236
99.985
105.761
111.544
117.316
123.053
128.746
134.408
140.038
145.633
151.192
156.712
162.217
167.761
173.38
179.097
184.908
190.773
196.657
202.523
208.317
213.975
219.405
224.482
229.112
233.222
236.737
239.59
241.684
242.885
243.094
242.242
240.29
237.243
233.11
227.898
221.662
214.485
206.482
197.807
188.583
178.898
168.85
158.53
148.053
137.566
127.183
116.99
107.06
97.443
88.186
79.344
70.927
62.918
55.278
47.949
40.893
34.103
27.566
21.272
15.203
9.326
3.63
-1.882
-7.208
-12.346
-17.298
-22.07
-26.652
-31.016
-35.136
-38.976
-42.517
-45.754
-48.683
-51.304
-53.619
-55.634
-57.361
-58.822
-60.035
-61.015
-61.777
-62.331
-62.695
-62.892
-62.942
-62.864
-62.678
-62.398
-62.04
-61.618
-61.145
-60.629
-60.078
-59.497
-58.894
-58.276
-57.649
-57.021
-56.399
-55.788
-55.193
-54.62
-54.074
-53.556
-53.071
-52.617
-52.197
-51.811
-51.457
-51.137
-50.847
-50.587
-50.356
-50.151
-49.97
-49.812
-49.674
-49.555
-49.452
-49.364
-49.288
-49.224
-49.171
-49.126
-49.09
-49.062
-49.041
-49.026
-49.016
-49.009
-49.004
-49.001
-48.996
-48.988
-48.976
-48.958
-48.932
-48.897
-48.852
-48.797
-48.729
-48.649
-48.556
-48.449
-48.328
-48.192
-48.041
-47.875
-47.693
-47.496
-47.285
-47.058
-46.816
-46.56
-46.29
-46.005
-45.707
-45.395
-45.071
-44.735
-44.389
-44.034
-43.672
-43.305
-42.936
-42.567
-42.2
-41.84
-41.488
-41.148
-40.822
-40.513
-40.225
-39.96
-39.721
-39.511
-39.332
-39.186
-39.075
-39.003
-38.969
-38.976
-39.024
-39.115
-39.25
-39.428
-39.651
-39.919
-40.231
-40.588
-40.988
-41.432
-41.918
-42.444
-43.008
-43.608
-44.242
-44.906
-45.598
-46.314
-47.052
-47.808
-48.578
-49.36
-50.149
-50.943
-51.737
-52.529
-53.316
-54.094
-54.86
-55.613
-56.348
-57.065
-57.761
-58.435
-59.084
-59.706
-60.302
-60.868
-61.405
-61.911
-62.384
-62.825
-63.234
-63.609
-63.951
-64.259
-64.536
-64.779
-64.991
-65.172
-65.32
-65.438
-65.525
-65.58
-65.604
-65.597
-65.558
-65.486
-65.38
-65.239
-65.064
-64.851
-64.6
-64.309
-63.977
-63.601
-63.18
-62.712
-62.194
-61.625
-61.003
-60.325
-59.591
-58.798
-57.944
-57.029
-56.051
-55.008
-53.901
-52.729
-51.492
-50.19
-48.825
-47.397
-45.91
-44.367
-42.772
-41.131
-39.452
-37.742
-36.01
-34.268
-32.524
-30.791
-29.078
-27.396
-25.755
-24.168
-22.649
-21.211
-19.87
-18.64
-17.536
-16.572
-15.761
-15.114
-14.638
-14.338
-14.216
-14.279
-14.532
-14.985
-15.646
-16.52
-17.603
-18.891
-20.376
-22.049
-23.888
-25.868
-27.953
-30.112
-32.322
-34.564
-36.825
-39.077
-41.283
-43.404
-45.4
-47.246
-48.946
-50.496
-51.873
-53.069
-54.073
-54.906
-55.66
-56.394
-57.094
-57.812
-58.631
-59.721
-61.423
-64.007
-67.489
-71.852
-77.077
-82.918
-89.093
-95.06
-99.714
-102.081
-101.719
-98.386
-92.098
-83.327
-72.525
-60.616
-49.585
-41.231
-36.553
-36.331
-40.848
-49.77
-62.797
-77.721
-89.932
-95.572
-92.184
-80.398
-63.301
-40.725
-8.821
39.129
110.045
204.388
316.913
439.081
560.722
673.256
767.773
834.319
862.802
845.469
781.374
674.938
537.01
383.861
231.833
99.765
2.703
-55.287
-77.953
-79.231
-75.341
-73.783
-75.894
-76.96
-70.874
-57.926
-41.62
-25.862
-14.491
-8.242
-6.198
-8.141
-13.309
-20.434
-28.391
-35.976
-42.153
-46.704
-49.68
-50.756
-49.9
-47.508
-44.082
-40.378
-37.201
-34.857
-33.442
-33.165
-34.042
-35.966
-38.807
-42.202
-45.683
-49.02
-52.057
-54.583
-56.533
-57.819
-58.324
-58.182
-57.586
-56.539
-55.073
-53.376
-51.542
-49.795
-48.427
-47.251
-46.058
-44.918
-43.822
-42.64
-41.334
-39.618
-37.144
-34.225
-31.176
-28.043
-24.969
-22.037
-19.23
-16.818
-15.081
-13.772
-12.651
-11.619
-10.485
-9.232
-7.893
-6.304
-4.315
-2.003
0.575
3.38
6.335
9.483
12.879
16.501
20.339
24.409
28.715
33.274
38.106
43.191
48.511
54.053
59.798
65.734
71.854
78.139
84.568
91.121
97.773
104.499
111.276
118.074
124.865
131.619
138.305
144.891
151.347
157.642
163.744
169.621
175.24
180.569
185.579
190.241
194.529
198.418
201.883
204.905
207.464
209.545
211.133
212.218
212.791
212.846
212.381
211.397
209.895
207.881
205.364
202.354
198.863
194.908
190.505
185.675
180.439
174.822
168.849
162.546
155.944
149.07
141.957
134.636
127.139
119.499
111.748
103.918
96.042
88.151
80.276
72.446
64.689
57.033
49.504
42.124
34.916
27.901
21.096
14.519
8.184
2.103
-3.711
-9.251
-14.51
-19.481
-24.162
-28.551
-32.647
-36.454
-39.973
-43.21
-46.17
-48.861
-51.293
-53.474
-55.415
-57.129
-58.626
-59.921
-61.025
-61.952
-62.716
-63.33
-63.807
-64.16
-64.402
-64.543
-64.596
-64.571
-64.478
-64.327
-64.124
-63.879
-63.598
-63.287
-62.952
-62.597
-62.228
-61.847
-61.458
-61.063
-60.664
-60.263
-59.86
-59.457
-59.053
-58.648
-58.241
-57.833
-57.422
-57.006
-56.585
-56.156
-55.72
-55.273
-54.816
-54.346
-53.862
-53.364
-52.852
-52.324
-51.782
-51.226
-50.656
-50.074
-49.481
-48.877
-48.266
-47.648
-47.025
-46.399
-45.772
-45.146
-44.522
-43.903
-43.29
-42.684
-42.088
-41.502
-40.928
-40.365
-39.817
-39.282
-38.763
-38.259
-37.772
-37.302
-36.85
-36.416
-36
-35.604
-35.226
-34.867
-34.526
-34.204
-33.9
-33.613
-33.343
-33.09
-32.852
-32.629
-32.42
-32.226
-32.045
-31.877
-31.721
-31.578
-31.447
-31.329
-31.223
-31.132
-31.055
-30.994
-30.949
-30.922
-30.914
-30.925
-30.958
-31.011
-31.086
-31.184
-31.305
-31.45
-31.618
-31.81
-32.026
-32.266
-32.53
-32.816
-33.125
-33.456
-33.809
-34.182
-34.575
-34.987
-35.418
-35.866
-36.33
-36.81
-37.303
-37.807
-38.322
-38.845
-39.374
-39.905
-40.438
-40.969
-41.495
-42.016
-42.528
-43.03
-43.521
-43.997
-44.459
-44.905
-45.334
-45.744
-46.137
-46.511
-46.866
-47.202
-47.52
-47.819
-48.1
-48.362
-48.604
-48.828
-49.032
-49.215
-49.377
-49.517
-49.635
-49.73
-49.803
-49.852
-49.878
-49.88
-49.859
-49.814
-49.743
-49.646
-49.523
-49.371
-49.189
-48.977
-48.731
-48.452
-48.135
-47.78
-47.384
-46.945
-46.459
-45.925
-45.339
-44.701
-44.008
-43.26
-42.457
-41.6
-40.69
-39.728
-38.716
-37.658
-36.555
-35.41
-34.227
-33.011
-31.765
-30.495
-29.209
-27.915
-26.623
-25.343
-24.086
-22.862
-21.685
-20.566
-19.521
-18.562
-17.703
-16.955
-16.331
-15.846
-15.511
-15.338
-15.333
-15.5
-15.844
-16.368
-17.078
-17.975
-19.052
-20.299
-21.71
-23.28
-25.01
-26.903
-28.95
-31.144
-33.477
-35.942
-38.537
-41.248
-44.046
-46.894
-49.747
-52.567
-55.334
-58.03
-60.645
-63.152
-65.502
-67.64
-69.519
-71.098
-72.348
-73.236
-73.695
-73.731
-73.46
-73.096
-72.959
-73.346
-74.424
-76.269
-78.962
-82.432
-86.396
-90.352
-93.433
-94.717
-93.562
-89.654
-82.894
-73.534
-62.241
-50.012
-38.525
-29.74
-25.316
-26.605
-34.362
-48.517
-68.443
-91.975
-115.909
-137.709
-153.881
-162.779
-163.311
-150.076
-119.587
-67.811
8.184
101.256
204.041
309.437
410.129
508.076
604.499
694.759
772.178
822.897
832.834
797.834
719.329
604.896
469.052
324.293
183.598
62.915
-27.722
-84.095
-108.472
-113.124
-110.86
-108.321
-107.572
-105.298
-97.179
-83.765
-67.779
-52.085
-39.515
-30.753
-25.513
-23.836
-25.123
-28.485
-33.216
-38.742
-44.744
-50.941
-56.637
-61.024
-63.763
-64.889
-64.67
-63.451
-61.437
-58.94
-56.606
-55.009
-54.443
-54.992
-56.513
-58.771
-61.593
-64.719
-67.749
-70.393
-72.493
-73.97
-74.874
-75.262
-75.15
-74.594
-73.674
-72.443
-70.947
-69.218
-67.263
-65.119
-62.844
-60.499
-58.151
-55.846
-53.609
-51.458
-49.403
-47.445
-45.577
-43.785
-42.049
-40.355
-38.692
-37.048
-35.412
-33.768
-32.097
-30.378
-28.588
-26.707
-24.72
-22.612
-20.368
-17.977
-15.427
-12.71
-9.818
-6.745
-3.482
-0.023
3.641
7.513
11.597
15.894
20.402
25.121
30.051
35.187
40.527
46.053
51.748
57.597
63.582
69.68
75.872
82.127
88.415
94.719
101.017
107.291
113.524
119.678
125.722
131.622
137.344
142.868
148.178
153.245
158.042
162.553
166.758
170.653
174.235
177.463
180.298
182.708
184.656
186.134
187.136
187.646
187.656
187.151
186.115
184.552
182.47
179.855
176.702
172.999
168.729
163.934
158.66
152.94
146.82
140.324
133.474
126.312
118.88
111.211
103.345
95.308
87.127
78.854
70.536
62.224
53.975
45.8
37.709
29.725
21.862
14.145
6.602
-0.758
-7.924
-14.874
-21.589
-28.048
-34.229
-40.133
-45.757
-51.1
-56.168
-60.948
-65.428
-69.607
-73.484
-77.059
-80.337
-83.32
-86.007
-88.412
-90.551
-92.435
-94.082
-95.502
-96.706
-97.707
-98.519
-99.157
-99.636
-99.97
-100.172
-100.256
-100.235
-100.123
-99.932
-99.673
-99.352
-98.978
-98.56
-98.103
-97.615
-97.102
-96.566
-96.014
-95.449
-94.875
-94.292
-93.704
-93.108
-92.507
-91.899
-91.283
-90.657
-90.019
-89.367
-88.7
-88.014
-87.308
-86.58
-85.828
-85.05
-84.246
-83.415
-82.556
-81.671
-80.759
-79.822
-78.862
-77.882
-76.883
-75.869
-74.843
-73.809
-72.769
-71.728
-70.69
-69.657
-68.634
-67.625
-66.633
-65.663
-64.719
-63.804
-62.923
-62.079
-61.276
-60.516
-59.804
-59.139
-58.526
-57.965
-57.458
-57.005
-56.605
-56.259
-55.965
-55.72
-55.523
-55.371
-55.259
-55.184
-55.143
-55.129
-55.139
-55.168
-55.212
-55.265
-55.324
-55.383
-55.438
-55.486
-55.52
-55.539
-55.537
-55.512
-55.46
-55.378
-55.265
-55.117
-54.935
-54.716
-54.46
-54.168
-53.839
-53.476
-53.08
-52.653
-52.199
-51.721
-51.223
-50.711
-50.189
-49.661
-49.135
-48.615
-48.107
-47.617
-47.149
-46.71
-46.305
-45.939
-45.617
-45.343
-45.124
-44.962
-44.861
-44.826
-44.858
-44.96
-45.134
-45.381
-45.703
-46.099
-46.568
-47.11
-47.723
-48.402
-49.146
-49.949
-50.805
-51.71
-52.656
-53.636
-54.642
-55.667
-56.702
-57.74
-58.771
-59.788
-60.78
-61.741
-62.66
-63.528
-64.337
-65.077
-65.741
-66.318
-66.802
-67.185
-67.458
-67.616
-67.652
-67.559
-67.332
-66.966
-66.458
-65.802
-64.999
-64.046
-62.943
-61.693
-60.296
-58.757
-57.08
-55.271
-53.336
-51.282
-49.116
-46.847
-44.483
-42.035
-39.512
-36.926
-34.29
-31.619
-28.929
-26.235
-23.556
-20.909
-18.312
-15.781
-13.335
-10.987
-8.751
-6.643
-4.675
-2.863
-1.224
0.232
1.494
2.55
3.395
4.02
4.422
4.605
4.575
4.332
3.875
3.192
2.273
1.115
-0.285
-1.924
-3.794
-5.884
-8.172
-10.618
-13.178
-15.803
-18.45
-21.086
-23.671
-26.157
-28.482
-30.573
-32.361
-33.79
-34.816
-35.409
-35.557
-35.268
-34.581
-33.56
-32.299
-30.917
-29.534
-28.274
-27.262
-26.606
-26.476
-27.121
-28.704
-31.259
-34.676
-38.658
-42.893
-47.113
-50.872
-53.534
-54.641
-54.039
-51.971
-49.154
-46.433
-44.651
-44.81
-48.021
-54.118
-61.448
-68.162
-72.54
-75.406
-79.223
-83.051
-81.052
-62.217
-14.928
64.978
171.472
290.917
409.179
518.961
620.758
717.949
810.789
890.495
942.444
954.193
917.251
833.874
713.37
563.157
394.828
220.787
54.001
-85.787
-183.132
-232.771
-236.352
-204.745
-153.187
-92.479
-32.231
17.308
50.264
63.479
57.643
40.972
22.347
6.445
-4.8
-13.554
-23.224
-33.591
-42.949
-49.457
-51.142
-48.056
-41.568
-32.951
-23.725
-15.183
-7.979
-2.498
1.105
2.96
3.29
2.37
0.613
-1.525
-3.702
-5.709
-7.425
-8.805
-9.824
-10.47
-10.77
-10.81
-10.697
-10.486
-10.199
-9.822
-9.302
-8.629
-7.828
-6.92
-5.942
-4.931
-3.908
-2.916
-1.998
-1.165
-0.411
0.304
1.062
1.911
2.874
3.956
5.121
6.35
7.65
9.018
10.453
11.96
13.543
15.221
17.035
19.006
21.143
23.445
25.887
28.464
31.185
34.066
37.138
40.424
43.938
47.697
51.721
56.02
60.6
65.455
70.567
75.919
81.499
87.296
93.3
99.495
105.86
112.371
119
125.721
132.502
139.313
146.117
152.878
159.565
166.145
172.589
178.865
184.94
190.784
196.365
201.651
206.615
211.225
215.453
219.272
222.659
225.591
228.049
230.016
231.477
232.42
232.836
232.719
232.064
230.87
229.141
226.88
224.094
220.794
216.994
212.707
207.952
202.748
197.118
191.087
184.679
177.923
170.848
163.482
155.859
148.009
139.965
131.759
123.425
114.995
106.503
97.981
89.46
80.97
72.543
64.205
55.983
47.903
39.989
32.263
24.744
17.452
10.403
3.612
-2.909
-9.148
-15.097
-20.75
-26.101
-31.148
-35.891
-40.331
-44.469
-48.312
-51.865
-55.135
-58.132
-60.866
-63.347
-65.588
-67.601
-69.4
-70.998
-72.409
-73.647
-74.726
-75.66
-76.461
-77.144
-77.719
-78.2
-78.597
-78.922
-79.185
-79.395
-79.561
-79.691
-79.792
-79.87
-79.932
-79.98
-80.02
-80.054
-80.085
-80.112
-80.139
-80.163
-80.184
-80.202
-80.214
-80.218
-80.211
-80.19
-80.153
-80.096
-80.016
-79.91
-79.776
-79.612
-79.414
-79.183
-78.915
-78.611
-78.27
-77.891
-77.475
-77.022
-76.533
-76.008
-75.45
-74.86
-74.24
-73.592
-72.919
-72.223
-71.508
-70.776
-70.031
-69.277
-68.516
-67.751
-66.988
-66.228
-65.476
-64.735
-64.008
-63.299
-62.609
-61.942
-61.3
-60.684
-60.095
-59.535
-59.004
-58.501
-58.027
-57.581
-57.164
-56.773
-56.407
-56.067
-55.749
-55.454
-55.178
-54.922
-54.682
-54.458
-54.249
-54.054
-53.871
-53.699
-53.538
-53.388
-53.247
-53.116
-52.994
-52.881
-52.777
-52.683
-52.598
-52.524
-52.462
-52.412
-52.376
-52.356
-52.353
-52.37
-52.407
-52.468
-52.553
-52.664
-52.804
-52.973
-53.173
-53.406
-53.672
-53.971
-54.305
-54.672
-55.072
-55.504
-55.966
-56.456
-56.97
-57.506
-58.061
-58.63
-59.209
-59.793
-60.379
-60.961
-61.533
-62.091
-62.628
-63.138
-63.614
-64.052
-64.442
-64.78
-65.059
-65.271
-65.412
-65.475
-65.454
-65.344
-65.14
-64.837
-64.43
-63.917
-63.294
-62.558
-61.709
-60.746
-59.671
-58.484
-57.187
-55.786
-54.282
-52.683
-50.994
-49.221
-47.371
-45.453
-43.477
-41.452
-39.388
-37.298
-35.195
-33.093
-31.009
-28.958
-26.957
-25.023
-23.173
-21.425
-19.795
-18.296
-16.941
-15.744
-14.717
-13.876
-13.233
-12.797
-12.579
-12.586
-12.824
-13.297
-14.008
-14.95
-16.117
-17.506
-19.116
-20.955
-23.032
-25.342
-27.884
-30.647
-33.618
-36.781
-40.107
-43.55
-47.063
-50.598
-54.111
-57.574
-60.951
-64.192
-67.241
-70.023
-72.472
-74.543
-76.192
-77.392
-78.135
-78.434
-78.336
-77.924
-77.287
-76.521
-75.733
-75.015
-74.465
-74.176
-74.25
-74.869
-76.182
-78.229
-80.919
-83.991
-87.12
-90.037
-92.397
-93.655
-93.334
-91.175
-87.359
-82.605
-77.663
-73.274
-70.259
-69.481
-71.946
-77.29
-83.108
-86.822
-85.723
-80.037
-73.477
-66.099
-54.701
-30.986
17.834
96.516
202.095
325.586
452.617
574.949
688.972
789.269
869.442
916.983
917.179
863.829
758.055
610.403
439.758
264.54
103.728
-26.989
-120.373
-175.372
-197.81
-196.158
-176.861
-144.997
-106.003
-67.709
-38.287
-22.971
-20.883
-25.002
-28.568
-28.459
-25.892
-25.757
-30.943
-40.713
-52.683
-63.294
-70.397
-74.002
-74.543
-72.655
-69.113
-64.53
-59.627
-55.38
-52.436
-50.988
-51.105
-52.678
-55.459
-59.23
-63.654
-68.243
-72.645
-76.642
-80.092
-82.986
-85.326
-87.084
-88.276
-88.954
-89.154
-88.928
-88.311
-87.312
-85.959
-84.292
-82.366
-80.254
-78.025
-75.743
-73.455
-71.189
-68.966
-66.801
-64.696
-62.647
-60.644
-58.663
-56.69
-54.712
-52.715
-50.687
-48.609
-46.456
-44.207
-41.842
-39.344
-36.697
-33.887
-30.902
-27.731
-24.366
-20.803
-17.038
-13.065
-8.878
-4.472
0.155
5.008
10.088
15.394
20.924
26.674
32.636
38.802
45.159
51.694
58.389
65.229
72.193
79.263
86.417
93.634
100.887
108.153
115.404
122.613
129.748
136.778
143.667
150.38
156.886
163.152
169.147
174.843
180.207
185.212
189.835
194.051
197.834
201.156
203.982
206.288
208.062
209.299
209.999
210.168
209.805
208.921
207.533
205.654
203.291
200.436
197.068
193.18
188.781
183.891
178.549
172.779
166.59
159.989
152.981
145.572
137.774
129.581
120.967
111.938
102.527
92.802
82.874
72.828
62.723
52.609
42.52
32.503
22.624
12.942
3.505
-5.626
-14.398
-22.728
-30.499
-37.647
-44.149
-50.025
-55.351
-60.179
-64.528
-68.425
-71.887
-74.936
-77.612
-79.938
-81.917
-83.574
-84.942
-86.08
-87.083
-88.004
-88.861
-89.648
-90.319
-90.845
-91.225
-91.449
-91.507
-91.396
-91.11
-90.664
-90.09
-89.406
-88.621
-87.729
-86.705
-85.545
-84.26
-82.873
-81.416
-79.918
-78.396
-76.87
-75.365
-73.897
-72.479
-71.113
-69.787
-68.496
-67.243
-66.029
-64.863
-63.745
-62.675
-61.649
-60.662
-59.712
-58.795
-57.903
-57.031
-56.171
-55.321
-54.478
-53.645
-52.822
-52.006
-51.196
-50.393
-49.595
-48.801
-48.011
-47.222
-46.435
-45.649
-44.865
-44.087
-43.315
-42.552
-41.802
-41.066
-40.35
-39.655
-38.987
-38.348
-37.742
-37.173
-36.645
-36.161
-35.725
-35.338
-35.004
-34.726
-34.505
-34.344
-34.243
-34.204
-34.227
-34.314
-34.465
-34.678
-34.953
-35.29
-35.687
-36.143
-36.654
-37.22
-37.835
-38.498
-39.204
-39.948
-40.728
-41.538
-42.373
-43.229
-44.1
-44.982
-45.87
-46.758
-47.642
-48.519
-49.383
-50.232
-51.061
-51.867
-52.649
-53.403
-54.126
-54.818
-55.477
-56.1
-56.686
-57.236
-57.748
-58.222
-58.659
-59.059
-59.423
-59.752
-60.047
-60.309
-60.54
-60.74
-60.912
-61.056
-61.174
-61.268
-61.338
-61.386
-61.413
-61.419
-61.405
-61.371
-61.315
-61.238
-61.137
-61.01
-60.855
-60.669
-60.45
-60.194
-59.898
-59.559
-59.173
-58.734
-58.24
-57.686
-57.066
-56.377
-55.615
-54.774
-53.853
-52.848
-51.757
-50.577
-49.306
-47.944
-46.489
-44.942
-43.303
-41.576
-39.761
-37.864
-35.889
-33.844
-31.736
-29.574
-27.368
-25.131
-22.877
-20.623
-18.388
-16.19
-14.048
-11.981
-10.007
-8.144
-6.41
-4.821
-3.394
-2.144
-1.088
-0.244
0.368
0.733
0.839
0.683
0.265
-0.412
-1.35
-2.554
-4.033
-5.798
-7.855
-10.211
-12.876
-15.849
-19.123
-22.672
-26.441
-30.385
-34.462
-38.648
-42.949
-47.346
-51.792
-56.221
-60.537
-64.663
-68.565
-72.178
-75.407
-78.232
-80.684
-82.933
-85.318
-88.026
-91.073
-94.454
-98.104
-101.913
-105.8
-109.466
-112.384
-114.392
-115.649
-116.399
-117.04
-117.856
-118.936
-120.575
-123.219
-126.807
-130.941
-135.241
-139.282
-142.863
-146.199
-149.42
-152.527
-156.152
-160.353
-163.509
-163.778
-159.206
-149.629
-138.953
-130.157
-121.903
-107.23
-72.443
-6.082
94.367
222.39
363.244
502.485
632.383
749.25
849.753
927.488
969.839
963.404
902.188
787.556
630.961
451.907
270.378
106.671
-23.787
-113.89
-164.731
-183.87
-179.464
-160.408
-132.073
-99.783
-73.357
-57.606
-54.645
-61.316
-66.825
-65.644
-57.138
-44.264
-34.107
-29.454
-29.376
-32.637
-36.865
-41.114
-45.507
-49.18
-51.674
-53.053
-53.332
-52.755
-51.555
-49.746
-47.63
-45.99
-45.351
-45.872
-47.536
-50.057
-53.155
-56.668
-60.3
-63.644
-66.439
-68.543
-69.909
-70.621
-70.743
-70.301
-69.367
-68.013
-66.296
-64.271
-61.976
-59.443
-56.729
-53.905
-51.043
-48.201
-45.41
-42.692
-40.054
-37.496
-35.009
-32.575
-30.17
-27.776
-25.382
-22.973
-20.539
-18.06
-15.515
-12.881
-10.135
-7.254
-4.218
-1.011
2.383
5.975
9.774
13.786
18.018
22.476
27.165
32.091
37.259
42.671
48.327
54.224
60.359
66.725
73.312
80.107
87.096
94.263
101.589
109.055
116.637
124.312
132.053
139.834
147.626
155.397
163.117
170.752
178.27
185.636
192.816
199.777
206.483
212.9
218.997
224.739
230.098
235.041
239.543
243.576
247.116
250.142
252.635
254.577
255.955
256.758
256.978
256.609
255.649
254.1
251.964
249.249
245.964
242.122
237.737
232.827
227.414
221.518
215.166
208.384
201.202
193.65
185.76
177.568
169.108
160.415
151.527
142.481
133.315
124.066
114.772
105.469
96.193
86.978
77.859
68.867
60.032
51.384
42.95
34.754
26.82
19.169
11.818
4.786
-1.914
-8.271
-14.275
-19.918
-25.196
-30.106
-34.647
-38.821
-42.632
-46.084
-49.186
-51.946
-54.376
-56.488
-58.296
-59.816
-61.063
-62.055
-62.81
-63.346
-63.682
-63.836
-63.828
-63.674
-63.395
-63.006
-62.527
-61.972
-61.359
-60.703
-60.016
-59.314
-58.607
-57.907
-57.225
-56.568
-55.946
-55.366
-54.833
-54.352
-53.928
-53.564
-53.261
-53.02
-52.842
-52.726
-52.669
-52.669
-52.723
-52.827
-52.977
-53.167
-53.394
-53.651
-53.934
-54.237
-54.554
-54.882
-55.214
-55.546
-55.874
-56.192
-56.498
-56.787
-57.058
-57.306
-57.531
-57.729
-57.9
-58.043
-58.156
-58.24
-58.293
-58.318
-58.314
-58.283
-58.226
-58.146
-58.045
-57.926
-57.791
-57.645
-57.489
-57.329
-57.166
-57.006
-56.852
-56.707
-56.575
-56.459
-56.364
-56.292
-56.246
-56.23
-56.245
-56.294
-56.379
-56.502
-56.664
-56.867
-57.112
-57.4
-57.731
-58.107
-58.526
-58.99
-59.497
-60.046
-60.637
-61.269
-61.938
-62.645
-63.386
-64.16
-64.964
-65.796
-66.653
-67.533
-68.432
-69.349
-70.279
-71.22
-72.168
-73.122
-74.077
-75.032
-75.983
-76.927
-77.863
-78.787
-79.697
-80.59
-81.464
-82.316
-83.143
-83.944
-84.716
-85.457
-86.166
-86.841
-87.48
-88.082
-88.646
-89.17
-89.654
-90.096
-90.495
-90.849
-91.158
-91.42
-91.633
-91.797
-91.911
-91.973
-91.982
-91.938
-91.838
-91.682
-91.469
-91.197
-90.865
-90.472
-90.017
-89.501
-88.922
-88.28
-87.577
-86.811
-85.985
-85.097
-84.15
-83.145
-82.083
-80.965
-79.795
-78.576
-77.311
-76.004
-74.661
-73.287
-71.89
-70.479
-69.063
-67.651
-66.254
-64.883
-63.549
-62.265
-61.041
-59.886
-58.81
-57.824
-56.938
-56.162
-55.507
-54.985
-54.603
-54.372
-54.297
-54.385
-54.636
-55.05
-55.627
-56.367
-57.278
-58.368
-59.643
-61.104
-62.754
-64.588
-66.596
-68.754
-71.027
-73.377
-75.765
-78.155
-80.518
-82.827
-85.05
-87.144
-89.062
-90.753
-92.171
-93.275
-94.024
-94.402
-94.422
-94.138
-93.646
-93.038
-92.391
-91.783
-91.293
-91
-90.989
-91.346
-92.124
-93.447
-95.504
-98.39
-102.136
-106.621
-111.441
-116.136
-120.251
-123.134
-124.071
-122.65
-118.629
-112.175
-104.343
-96.412
-89.572
-85.514
-84.905
-86.478
-89.169
-91.45
-93.139
-97.88
-106.901
-116.675
-118.195
-95.826
-37.76
57.604
182.495
321.391
460.403
592.28
713.859
821.326
905.612
954.874
956.432
903.56
799.626
650.548
469.405
275.336
86.168
-75.342
-191.11
-257.586
-276.935
-259.645
-222.158
-173.385
-122.759
-81.213
-50.757
-33.326
-26.757
-21.24
-13.87
-5.02
3.852
6.669
1.547
-9.397
-24.124
-39.14
-51.689
-60.928
-66.551
-68.751
-68.169
-65.486
-61.262
-56.146
-51.082
-46.941
-44.221
-43.139
-43.557
-45.147
-47.648
-50.776
-54.126
-57.271
-59.926
-61.95
-63.329
-64.133
-64.4
-64.147
-63.418
-62.28
-60.787
-58.979
-56.879
-54.499
-51.876
-49.071
-46.147
-43.172
-40.193
-37.237
-34.323
-31.466
-28.668
-25.93
-23.244
-20.597
-17.979
-15.382
-12.794
-10.203
-7.595
-4.951
-2.248
0.538
3.425
6.432
9.575
12.864
16.314
19.936
23.746
27.758
31.987
36.437
41.115
46.022
51.152
56.499
62.042
67.752
73.607
79.583
85.66
91.828
98.065
104.352
110.674
117.009
123.346
129.691
136.049
142.432
148.872
155.397
162.051
168.896
175.966
183.282
190.858
198.677
206.73
214.993
223.419
231.957
240.539
249.067
257.438
265.536
273.204
280.3
286.671
292.147
296.599
299.922
302.024
302.854
302.372
300.554
297.42
293.004
287.357
280.566
272.733
263.98
254.478
244.384
233.85
223.048
212.111
201.156
190.295
179.61
169.163
159.012
149.188
139.707
130.587
121.82
113.387
105.255
97.363
89.659
82.11
74.673
67.326
60.058
52.856
45.723
38.68
31.74
24.924
18.255
11.749
5.43
-0.676
-6.537
-12.118
-17.39
-22.337
-26.944
-31.207
-35.126
-38.702
-41.945
-44.874
-47.505
-49.852
-51.931
-53.754
-55.334
-56.689
-57.835
-58.787
-59.562
-60.173
-60.632
-60.951
-61.141
-61.212
-61.171
-61.026
-60.781
-60.447
-60.029
-59.537
-58.977
-58.356
-57.68
-56.956
-56.189
-55.382
-54.54
-53.664
-52.757
-51.821
-50.858
-49.87
-48.859
-47.826
-46.774
-45.705
-44.623
-43.529
-42.429
-41.323
-40.218
-39.116
-38.022
-36.942
-35.878
-34.837
-33.822
-32.84
-31.894
-30.99
-30.131
-29.322
-28.567
-27.869
-27.231
-26.656
-26.148
-25.709
-25.342
-25.049
-24.831
-24.691
-24.628
-24.644
-24.739
-24.909
-25.156
-25.474
-25.863
-26.317
-26.834
-27.407
-28.033
-28.705
-29.416
-30.162
-30.934
-31.726
-32.529
-33.338
-34.145
-34.942
-35.724
-36.483
-37.214
-37.912
-38.57
-39.185
-39.752
-40.266
-40.726
-41.126
-41.467
-41.745
-41.959
-42.111
-42.199
-42.226
-42.193
-42.104
-41.961
-41.769
-41.532
-41.254
-40.942
-40.601
-40.237
-39.858
-39.471
-39.083
-38.702
-38.335
-37.989
-37.673
-37.392
-37.152
-36.961
-36.823
-36.743
-36.727
-36.777
-36.898
-37.092
-37.363
-37.711
-38.138
-38.643
-39.226
-39.884
-40.617
-41.419
-42.287
-43.216
-44.199
-45.232
-46.307
-47.417
-48.554
-49.709
-50.873
-52.036
-53.188
-54.319
-55.418
-56.475
-57.478
-58.419
-59.287
-60.074
-60.769
-61.366
-61.856
-62.231
-62.486
-62.614
-62.611
-62.471
-62.194
-61.777
-61.22
-60.525
-59.695
-58.734
-57.65
-56.451
-55.146
-53.748
-52.267
-50.719
-49.117
-47.478
-45.816
-44.147
-42.487
-40.853
-39.265
-37.741
-36.3
-34.962
-33.746
-32.669
-31.751
-31.004
-30.439
-30.065
-29.892
-29.93
-30.199
-30.711
-31.477
-32.506
-33.802
-35.362
-37.179
-39.23
-41.477
-43.881
-46.402
-49.004
-51.66
-54.337
-56.999
-59.605
-62.097
-64.421
-66.536
-68.396
-69.962
-71.215
-72.162
-72.85
-73.377
-73.836
-74.305
-74.861
-75.577
-76.537
-77.84
-79.573
-81.805
-84.622
-88.174
-92.564
-97.795
-103.729
-110.015
-116.187
-121.785
-126.274
-128.964
-129.312
-127.122
-122.54
-116.214
-109.191
-102.494
-97.155
-94.603
-95.111
-97.176
-99.195
-98.886
-95.611
-92.105
-88.681
-81.968
-64.453
-23.861
47.592
149.531
274.865
411.244
548.341
679.673
800.042
901.512
972.534
1002.07
981.656
912.765
803.882
662.86
502.048
333.045
167.944
26.344
-78.517
-143.73
-172.317
-177.728
-172.703
-159.294
-139.45
-114.926
-86.611
-62.4
-46.43
-35.958
-29.507
-23.401
-16.473
-12.367
-12.486
-17.258
-26.042
-36.228
-46.246
-55.047
-61.603
-65.826
-67.86
-67.918
-66.5
-63.993
-60.758
-57.489
-54.956
-53.607
-53.578
-54.758
-56.873
-59.679
-62.965
-66.392
-69.532
-72.112
-74.002
-75.183
-75.733
-75.708
-75.125
-74.035
-72.524
-70.658
-68.495
-66.081
-63.434
-60.604
-57.655
-54.655
-51.673
-48.759
-45.937
-43.222
-40.622
-38.133
-35.751
-33.464
-31.253
-29.104
-27.003
-24.939
-22.901
-20.875
-18.841
-16.78
-14.67
-12.49
-10.224
-7.855
-5.37
-2.754
0.006
2.922
6
9.252
12.688
16.321
20.169
24.245
28.55
33.086
37.847
42.823
47.997
53.344
58.827
64.411
70.062
75.749
81.45
87.142
92.807
98.424
103.968
109.427
114.804
120.109
125.357
130.57
135.769
140.989
146.282
151.693
157.252
162.974
168.852
174.866
180.983
187.159
193.345
199.465
205.42
211.094
216.361
221.096
225.187
228.507
230.915
232.288
232.527
231.559
229.346
225.874
221.148
215.198
208.072
199.854
190.659
180.624
169.909
158.66
147.014
135.115
123.119
111.166
99.382
87.867
76.694
65.925
55.61
45.784
36.464
27.646
19.303
11.393
3.86
-3.339
-10.234
-16.858
-23.243
-29.414
-35.392
-41.181
-46.773
-52.16
-57.336
-62.295
-67.023
-71.504
-75.711
-79.617
-83.193
-86.421
-89.292
-91.801
-93.949
-95.743
-97.194
-98.321
-99.149
-99.705
-100.008
-100.082
-99.948
-99.631
-99.157
-98.552
-97.842
-97.05
-96.198
-95.305
-94.391
-93.47
-92.557
-91.664
-90.799
-89.973
-89.194
-88.473
-87.816
-87.232
-86.725
-86.301
-85.962
-85.711
-85.548
-85.472
-85.478
-85.563
-85.722
-85.95
-86.239
-86.582
-86.973
-87.402
-87.862
-88.344
-88.84
-89.341
-89.841
-90.331
-90.805
-91.255
-91.678
-92.067
-92.42
-92.733
-93.003
-93.229
-93.409
-93.544
-93.632
-93.674
-93.672
-93.627
-93.542
-93.42
-93.264
-93.078
-92.868
-92.638
-92.394
-92.141
-91.885
-91.631
-91.386
-91.154
-90.94
-90.75
-90.587
-90.455
-90.359
-90.3
-90.281
-90.303
-90.366
-90.471
-90.615
-90.796
-91.012
-91.26
-91.535
-91.834
-92.15
-92.479
-92.815
-93.153
-93.486
-93.807
-94.111
-94.39
-94.638
-94.85
-95.018
-95.138
-95.203
-95.211
-95.155
-95.033
-94.843
-94.58
-94.245
-93.835
-93.351
-92.794
-92.166
-91.469
-90.707
-89.884
-89.007
-88.08
-87.111
-86.108
-85.078
-84.029
-82.97
-81.91
-80.856
-79.819
-78.806
-77.827
-76.89
-76.003
-75.173
-74.407
-73.712
-73.093
-72.554
-72.099
-71.731
-71.451
-71.26
-71.158
-71.143
-71.214
-71.365
-71.594
-71.894
-72.258
-72.679
-73.149
-73.657
-74.195
-74.75
-75.313
-75.87
-76.412
-76.925
-77.399
-77.823
-78.183
-78.471
-78.676
-78.787
-78.798
-78.699
-78.485
-78.149
-77.69
-77.103
-76.388
-75.546
-74.58
-73.495
-72.299
-71.001
-69.611
-68.141
-66.606
-65.02
-63.4
-61.761
-60.117
-58.486
-56.885
-55.333
-53.849
-52.452
-51.161
-49.994
-48.969
-48.102
-47.407
-46.894
-46.569
-46.441
-46.52
-46.824
-47.367
-48.161
-49.212
-50.525
-52.095
-53.915
-55.966
-58.21
-60.61
-63.126
-65.721
-68.368
-71.037
-73.692
-76.282
-78.748
-81.029
-83.074
-84.841
-86.286
-87.393
-88.165
-88.646
-88.922
-89.071
-89.168
-89.29
-89.514
-89.924
-90.615
-91.662
-93.147
-95.217
-98.002
-101.547
-105.771
-110.398
-115.046
-119.33
-122.784
-124.809
-124.843
-122.562
-118.119
-112.183
-105.588
-99.311
-94.421
-92.033
-93.443
-98.304
-104.029
-108.066
-107.547
-102.693
-97.514
-91.515
-80.52
-55.249
-1.689
85.111
201.182
336.161
474.271
605.819
726.756
832.928
918.538
972.279
979.65
930.12
821.658
662.365
470.391
270.925
89.278
-53.903
-147.037
-192.256
-199.505
-182.016
-153.914
-123.163
-95.994
-77.122
-66.015
-61.246
-57.835
-50.303
-38.291
-24.065
-12.17
-6.181
-5.966
-9.599
-14.852
-20.745
-27.21
-34.046
-40.816
-46.631
-50.995
-54.101
-56.021
-56.713
-56.278
-54.9
-53.096
-51.678
-51.052
-51.227
-52.145
-53.614
-55.454
-57.528
-59.558
-61.16
-62.119
-62.363
-61.894
-60.82
-59.214
-57.108
-54.572
-51.686
-48.515
-45.119
-41.548
-37.834
-34.027
-30.189
-26.365
-22.595
-18.905
-15.305
-11.798
-8.382
-5.044
-1.776
1.431
4.582
7.683
10.743
13.776
16.798
19.83
22.891
26.002
29.183
32.451
35.821
39.301
42.9
46.623
50.48
54.483
58.65
62.993
67.522
72.238
77.138
82.212
87.439
92.797
98.258
103.799
109.404
115.066
120.789
126.577
132.435
138.356
144.32
150.309
156.303
162.289
168.259
174.216
180.178
186.165
192.209
198.324
204.502
210.71
216.887
222.956
228.825
234.417
239.676
244.551
248.995
252.965
256.412
259.279
261.498
262.99
263.66
263.441
262.288
260.198
257.206
253.38
248.815
243.595
237.793
231.472
224.685
217.484
209.919
202.049
193.937
185.665
177.331
169.025
160.821
152.764
144.872
137.136
129.526
122.019
114.596
107.252
99.992
92.828
85.773
78.846
72.067
65.441
58.96
52.618
46.408
40.335
34.413
28.668
23.133
17.838
12.808
8.062
3.61
-0.545
-4.406
-7.983
-11.291
-14.343
-17.146
-19.71
-22.042
-24.153
-26.055
-27.765
-29.3
-30.679
-31.921
-33.044
-34.065
-34.999
-35.86
-36.658
-37.402
-38.1
-38.762
-39.396
-40.01
-40.613
-41.213
-41.815
-42.426
-43.052
-43.696
-44.359
-45.043
-45.747
-46.47
-47.21
-47.964
-48.727
-49.495
-50.264
-51.027
-51.779
-52.514
-53.225
-53.906
-54.549
-55.149
-55.698
-56.19
-56.618
-56.977
-57.261
-57.463
-57.581
-57.61
-57.545
-57.384
-57.123
-56.76
-56.294
-55.722
-55.044
-54.26
-53.371
-52.378
-51.284
-50.092
-48.806
-47.431
-45.973
-44.437
-42.829
-41.157
-39.429
-37.651
-35.832
-33.982
-32.107
-30.219
-28.325
-26.435
-24.559
-22.706
-20.885
-19.106
-17.379
-15.711
-14.111
-12.589
-11.152
-9.809
-8.567
-7.434
-6.416
-5.52
-4.752
-4.117
-3.62
-3.265
-3.054
-2.991
-3.077
-3.314
-3.702
-4.24
-4.928
-5.764
-6.745
-7.869
-9.131
-10.526
-12.049
-13.694
-15.453
-17.319
-19.283
-21.336
-23.468
-25.671
-27.932
-30.242
-32.59
-34.962
-37.349
-39.737
-42.114
-44.467
-46.784
-49.052
-51.258
-53.39
-55.435
-57.384
-59.222
-60.94
-62.526
-63.971
-65.263
-66.394
-67.356
-68.14
-68.74
-69.15
-69.368
-69.389
-69.211
-68.833
-68.255
-67.479
-66.509
-65.349
-64.003
-62.479
-60.785
-58.932
-56.929
-54.788
-52.523
-50.146
-47.674
-45.125
-42.518
-39.876
-37.219
-34.569
-31.948
-29.379
-26.881
-24.474
-22.175
-20
-17.968
-16.098
-14.41
-12.924
-11.656
-10.615
-9.81
-9.243
-8.908
-8.803
-8.925
-9.274
-9.859
-10.689
-11.767
-13.103
-14.696
-16.539
-18.617
-20.892
-23.323
-25.877
-28.536
-31.307
-34.187
-37.149
-40.142
-43.094
-45.932
-48.62
-51.098
-53.266
-55.09
-56.589
-57.902
-59.331
-61.033
-62.974
-65.1
-67.31
-69.457
-71.454
-72.945
-73.321
-72.445
-70.53
-67.932
-65.221
-62.696
-60.378
-58.687
-58.234
-59
-60.689
-62.724
-64.306
-65.502
-66.863
-68.447
-70.239
-72.67
-75.969
-80.482
-86.651
-92.37
-94.685
-92.397
-83.323
-66.995
-43.593
-8.182
42.964
111.527
196.933
291.115
385.804
476.365
562.535
646.941
727.489
795.358
833.086
823.274
758.535
640.81
485.18
312.826
143.227
-5.677
-122.615
-201.044
-240.309
-244.207
-216.961
-169.085
-110.774
-53.429
-12.33
7.518
6.851
-8.145
-23.58
-32.915
-35.47
-33.785
-34.965
-41.397
-51.391
-62.465
-70.935
-75.447
-76.666
-75.207
-72.037
-67.967
-63.491
-59.439
-56.502
-54.904
-54.713
-55.811
-57.943
-60.891
-64.353
-67.889
-71.16
-73.96
-76.167
-77.784
-78.824
-79.272
-79.149
-78.505
-77.382
-75.827
-73.876
-71.543
-68.86
-65.873
-62.642
-59.238
-55.731
-52.184
-48.645
-45.146
-41.711
-38.358
-35.094
-31.921
-28.833
-25.819
-22.87
-19.979
-17.141
-14.349
-11.591
-8.852
-6.115
-3.365
-0.586
2.233
5.106
8.047
11.068
14.18
17.393
20.71
24.139
27.689
31.373
35.208
39.207
43.372
47.704
52.202
56.86
61.669
66.609
71.646
76.747
81.88
87.025
92.178
97.329
102.465
107.573
112.635
117.648
122.629
127.585
132.517
137.431
142.327
147.234
152.208
157.288
162.499
167.841
173.275
178.766
184.281
189.767
195.161
200.373
205.278
209.775
213.791
217.246
220.07
222.162
223.384
223.632
222.836
220.952
217.982
213.929
208.8
202.64
195.528
187.574
178.928
169.711
160.009
149.918
139.527
128.95
118.334
107.793
97.41
87.259
77.39
67.851
58.699
49.948
41.587
33.582
25.878
18.443
11.275
4.368
-2.284
-8.693
-14.884
-20.866
-26.629
-32.166
-37.47
-42.538
-47.376
-51.969
-56.292
-60.313
-64.001
-67.336
-70.314
-72.934
-75.197
-77.111
-78.681
-79.926
-80.873
-81.543
-81.958
-82.137
-82.099
-81.867
-81.47
-80.936
-80.294
-79.569
-78.785
-77.964
-77.131
-76.304
-75.501
-74.736
-74.021
-73.368
-72.79
-72.298
-71.902
-71.61
-71.429
-71.363
-71.418
-71.594
-71.891
-72.307
-72.838
-73.479
-74.223
-75.062
-75.989
-76.992
-78.064
-79.191
-80.364
-81.569
-82.794
-84.027
-85.255
-86.464
-87.643
-88.778
-89.859
-90.873
-91.81
-92.66
-93.413
-94.063
-94.6
-95.019
-95.313
-95.48
-95.515
-95.416
-95.183
-94.815
-94.314
-93.683
-92.925
-92.045
-91.049
-89.942
-88.731
-87.425
-86.032
-84.56
-83.019
-81.417
-79.767
-78.076
-76.357
-74.619
-72.872
-71.128
-69.396
-67.687
-66.01
-64.375
-62.79
-61.264
-59.804
-58.418
-57.111
-55.889
-54.757
-53.719
-52.777
-51.935
-51.194
-50.554
-50.017
-49.581
-49.245
-49.009
-48.87
-48.825
-48.872
-49.007
-49.226
-49.526
-49.903
-50.352
-50.869
-51.448
-52.086
-52.777
-53.516
-54.297
-55.114
-55.964
-56.84
-57.739
-58.654
-59.583
-60.52
-61.461
-62.403
-63.342
-64.275
-65.198
-66.108
-67.004
-67.882
-68.741
-69.578
-70.391
-71.178
-71.938
-72.669
-73.367
-74.031
-74.657
-75.242
-75.784
-76.279
-76.724
-77.116
-77.452
-77.73
-77.946
-78.097
-78.18
-78.192
-78.13
-77.99
-77.77
-77.466
-77.077
-76.601
-76.034
-75.377
-74.627
-73.785
-72.849
-71.819
-70.696
-69.48
-68.173
-66.776
-65.293
-63.728
-62.087
-60.38
-58.617
-56.808
-54.966
-53.103
-51.233
-49.37
-47.528
-45.717
-43.949
-42.238
-40.596
-39.04
-37.583
-36.242
-35.028
-33.955
-33.035
-32.281
-31.7
-31.294
-31.068
-31.024
-31.175
-31.54
-32.137
-32.977
-34.069
-35.415
-37.012
-38.853
-40.916
-43.164
-45.551
-48.034
-50.571
-53.136
-55.695
-58.204
-60.608
-62.834
-64.818
-66.507
-67.862
-68.858
-69.486
-69.761
-69.734
-69.491
-69.132
-68.77
-68.52
-68.492
-68.803
-69.54
-70.823
-72.839
-75.733
-79.563
-84.24
-89.472
-94.917
-100.294
-105.227
-109.181
-111.681
-112.392
-111.447
-109.553
-107.445
-105.829
-105.463
-107.061
-111.392
-118.068
-124.817
-128.905
-127.546
-120.891
-112.206
-101.602
-86.416
-58.18
-4.387
78.32
186.678
310.328
433.403
549.774
657.126
752.018
831.641
884.193
896.07
862.617
784.207
668.673
530.371
381.194
234.031
104.982
5.458
-58.751
-89.097
-97.601
-97.796
-96.86
-96.809
-94.403
-85.081
-69.284
-50.352
-31.902
-17.53
-8.788
-5.649
-7.646
-13.784
-22.823
-33.409
-44.448
-55.023
-64.005
-70.556
-74.373
-75.43
-74.132
-71.219
-67.242
-62.813
-58.809
-55.847
-54.23
-54.111
-55.328
-57.591
-60.705
-64.358
-68.114
-71.664
-74.775
-77.31
-79.286
-80.723
-81.615
-82
-81.927
-81.434
-80.578
-79.393
-77.894
-76.115
-74.1
-71.903
-69.594
-67.236
-64.887
-62.59
-60.369
-58.242
-56.214
-54.283
-52.444
-50.687
-48.989
-47.336
-45.713
-44.106
-42.504
-40.888
-39.234
-37.518
-35.717
-33.809
-31.776
-29.599
-27.259
-24.739
-22.025
-19.109
-15.985
-12.648
-9.084
-5.284
-1.229
3.09
7.671
12.514
17.617
22.969
28.552
34.335
40.27
46.322
52.466
58.684
64.969
71.311
77.695
84.111
90.548
96.997
103.455
109.908
116.335
122.73
129.102
135.48
141.92
148.451
155.066
161.747
168.45
175.123
181.713
188.142
194.308
200.124
205.51
210.402
214.764
218.535
221.637
223.973
225.42
225.893
225.352
223.771
221.15
217.519
212.917
207.432
201.195
194.313
186.878
178.966
170.624
161.924
152.958
143.826
134.643
125.506
116.482
107.636
99.024
90.674
82.603
74.789
67.175
59.724
52.425
45.274
38.29
31.48
24.841
18.374
12.079
5.958
0.019
-5.735
-11.304
-16.676
-21.831
-26.735
-31.339
-35.61
-39.527
-43.077
-46.259
-49.07
-51.511
-53.589
-55.32
-56.718
-57.795
-58.564
-59.033
-59.216
-59.134
-58.807
-58.261
-57.521
-56.606
-55.538
-54.34
-53.031
-51.629
-50.152
-48.614
-47.031
-45.418
-43.794
-42.174
-40.577
-39.016
-37.507
-36.063
-34.696
-33.419
-32.239
-31.165
-30.202
-29.355
-28.628
-28.024
-27.544
-27.187
-26.954
-26.842
-26.849
-26.97
-27.202
-27.538
-27.973
-28.501
-29.113
-29.803
-30.562
-31.383
-32.256
-33.173
-34.125
-35.104
-36.099
-37.102
-38.103
-39.094
-40.067
-41.014
-41.927
-42.799
-43.625
-44.4
-45.119
-45.779
-46.376
-46.909
-47.376
-47.777
-48.111
-48.381
-48.586
-48.73
-48.815
-48.843
-48.819
-48.746
-48.629
-48.47
-48.277
-48.052
-47.802
-47.531
-47.246
-46.95
-46.65
-46.351
-46.057
-45.773
-45.502
-45.249
-45.015
-44.805
-44.62
-44.461
-44.33
-44.228
-44.155
-44.109
-44.091
-44.097
-44.127
-44.178
-44.246
-44.328
-44.422
-44.523
-44.629
-44.735
-44.84
-44.938
-45.027
-45.103
-45.164
-45.206
-45.226
-45.222
-45.19
-45.13
-45.039
-44.917
-44.765
-44.583
-44.371
-44.13
-43.864
-43.574
-43.262
-42.932
-42.586
-42.229
-41.864
-41.497
-41.131
-40.771
-40.423
-40.09
-39.777
-39.486
-39.221
-38.983
-38.774
-38.595
-38.447
-38.327
-38.237
-38.174
-38.14
-38.133
-38.151
-38.193
-38.255
-38.334
-38.426
-38.525
-38.622
-38.706
-38.768
-38.8
-38.791
-38.735
-38.622
-38.442
-38.19
-37.861
-37.448
-36.947
-36.345
-35.626
-34.783
-33.82
-32.745
-31.575
-30.325
-29.007
-27.639
-26.251
-24.858
-23.472
-22.089
-20.688
-19.262
-17.818
-16.373
-14.96
-13.595
-12.281
-11.015
-9.792
-8.605
-7.452
-6.305
-5.121
-3.883
-2.605
-1.339
-0.172
0.836
1.65
2.248
2.632
2.788
2.698
2.367
1.802
1.004
-0.029
-1.336
-2.985
-4.992
-7.33
-9.919
-12.628
-15.37
-18.078
-20.691
-23.176
-25.5
-27.66
-29.723
-31.77
-33.857
-36.019
-38.239
-40.487
-42.786
-45.193
-47.797
-50.689
-53.977
-57.814
-62.292
-67.425
-73.103
-78.96
-84.517
-89.32
-92.782
-94.246
-93.326
-89.787
-83.725
-76.006
-67.72
-59.9
-54.04
-50.886
-49.649
-49.64
-49.57
-49.003
-50.707
-55.812
-61.662
-61.23
-41.549
8.247
90.746
200.864
326.801
456.844
583.581
702.094
806.598
887.105
933.13
935.805
891.488
804.987
682.474
532.631
367.665
201.119
50.65
-67.612
-143.977
-178.419
-178.728
-154.397
-117.338
-76.027
-38.222
-14.626
-8.46
-19.04
-41.077
-62.398
-76.867
-82.797
-80.875
-76.51
-71.776
-66.096
-59.395
-50.495
-39.661
-29.012
-20.353
-14.827
-13.173
-15.286
-20.474
-28.388
-38.398
-49.144
-59.451
-68.67
-76.212
-81.916
-85.951
-87.945
-87.915
-86.662
-84.732
-82.465
-80.233
-78.042
-75.89
-74.233
-73.15
-72.226
-71.264
-70.087
-68.552
-66.801
-64.871
-62.583
-59.981
-57.27
-54.563
-51.999
-49.64
-47.405
-45.282
-43.305
-41.447
-39.675
-37.953
-36.23
-34.491
-32.747
-30.996
-29.231
-27.435
-25.584
-23.66
-21.65
-19.535
-17.299
-14.924
-12.394
-9.696
-6.817
-3.741
-0.45
3.078
6.86
10.907
15.227
19.821
24.68
29.79
35.131
40.667
46.37
52.208
58.152
64.18
70.273
76.413
82.578
88.744
94.898
101.04
107.175
113.316
119.482
125.689
131.967
138.363
144.912
151.637
158.548
165.632
172.864
180.205
187.607
195.018
202.358
209.528
216.412
222.881
228.811
234.087
238.581
242.155
244.687
246.077
246.252
245.174
242.825
239.209
234.351
228.297
221.124
212.939
203.872
194.078
183.698
172.865
161.719
150.409
139.072
127.831
116.784
106.005
95.554
85.483
75.829
66.614
57.839
49.483
41.513
33.877
26.54
19.475
12.657
6.058
-0.341
-6.556
-12.587
-18.421
-24.049
-29.459
-34.642
-39.584
-44.265
-48.66
-52.741
-56.477
-59.848
-62.845
-65.46
-67.695
-69.552
-71.042
-72.181
-72.994
-73.504
-73.732
-73.699
-73.426
-72.937
-72.259
-71.416
-70.435
-69.341
-68.155
-66.9
-65.596
-64.26
-62.911
-61.563
-60.229
-58.921
-57.654
-56.44
-55.29
-54.216
-53.226
-52.329
-51.533
-50.843
-50.263
-49.797
-49.444
-49.206
-49.081
-49.067
-49.162
-49.362
-49.662
-50.059
-50.547
-51.121
-51.773
-52.499
-53.292
-54.145
-55.052
-56.005
-56.999
-58.027
-59.082
-60.157
-61.247
-62.345
-63.445
-64.542
-65.63
-66.704
-67.759
-68.791
-69.797
-70.772
-71.715
-72.622
-73.493
-74.325
-75.117
-75.871
-76.584
-77.259
-77.893
-78.49
-79.048
-79.568
-80.052
-80.5
-80.913
-81.291
-81.637
-81.95
-82.232
-82.484
-82.708
-82.905
-83.076
-83.223
-83.347
-83.449
-83.532
-83.595
-83.641
-83.669
-83.682
-83.678
-83.66
-83.626
-83.578
-83.515
-83.436
-83.341
-83.23
-83.101
-82.955
-82.789
-82.605
-82.4
-82.176
-81.931
-81.665
-81.379
-81.072
-80.744
-80.395
-80.026
-79.636
-79.225
-78.793
-78.34
-77.866
-77.372
-76.857
-76.321
-75.766
-75.192
-74.6
-73.99
-73.365
-72.725
-72.073
-71.41
-70.738
-70.061
-69.38
-68.699
-68.019
-67.344
-66.677
-66.02
-65.375
-64.743
-64.128
-63.53
-62.95
-62.39
-61.851
-61.333
-60.836
-60.363
-59.913
-59.486
-59.083
-58.704
-58.348
-58.014
-57.702
-57.41
-57.136
-56.878
-56.632
-56.397
-56.168
-55.943
-55.716
-55.483
-55.24
-54.981
-54.701
-54.396
-54.059
-53.686
-53.273
-52.815
-52.309
-51.753
-51.142
-50.476
-49.754
-48.974
-48.135
-47.239
-46.283
-45.271
-44.203
-43.081
-41.907
-40.687
-39.425
-38.13
-36.81
-35.476
-34.137
-32.806
-31.494
-30.216
-28.982
-27.803
-26.69
-25.655
-24.708
-23.864
-23.138
-22.54
-22.082
-21.773
-21.624
-21.641
-21.831
-22.19
-22.718
-23.415
-24.287
-25.351
-26.62
-28.099
-29.793
-31.699
-33.81
-36.116
-38.594
-41.198
-43.883
-46.601
-49.307
-51.972
-54.557
-57.014
-59.281
-61.281
-62.947
-64.227
-65.083
-65.485
-65.424
-64.915
-64.01
-62.801
-61.398
-59.922
-58.493
-57.243
-56.306
-55.794
-55.858
-56.686
-58.408
-61.077
-64.591
-68.639
-72.88
-77.023
-80.667
-83.315
-84.556
-84.098
-82.103
-79.367
-76.678
-74.604
-73.823
-74.932
-78.32
-84.408
-91.655
-96.338
-95.472
-86.104
-68.299
-45.885
-18.709
15.467
62.199
131.699
226.435
343.369
475.528
609.231
735.224
845.453
930.593
982.468
989.431
944.102
845.215
700.565
530.864
358.642
207.785
95.949
24.395
-13.177
-30.639
-43.556
-56.896
-69.996
-78.598
-77.201
-66.51
-50.635
-33.953
-20.567
-11.854
-7.711
-7.984
-11.807
-18.197
-26.232
-34.728
-42.922
-50.349
-56.238
-60.04
-61.722
-61.434
-59.599
-56.835
-53.507
-50.008
-47.03
-45.056
-44.291
-44.823
-46.478
-48.996
-52.23
-55.919
-59.66
-63.157
-66.177
-68.58
-70.378
-71.585
-72.191
-72.234
-71.767
-70.841
-69.524
-67.862
-65.881
-63.621
-61.13
-58.469
-55.713
-52.927
-50.175
-47.503
-44.935
-42.489
-40.174
-37.984
-35.914
-33.948
-32.063
-30.239
-28.46
-26.705
-24.957
-23.195
-21.389
-19.516
-17.548
-15.464
-13.243
-10.867
-8.317
-5.577
-2.634
0.524
3.905
7.521
11.38
15.492
19.863
24.499
29.402
34.573
40.01
45.709
51.663
57.862
64.292
70.94
77.786
84.813
91.996
99.314
106.738
114.241
121.794
129.364
136.921
144.429
151.854
159.161
166.315
173.28
180.02
186.502
192.69
198.553
204.058
209.174
213.874
218.128
221.913
225.206
227.984
230.231
231.932
233.072
233.644
233.64
233.058
231.896
230.158
227.85
224.979
221.557
217.598
213.12
208.14
202.683
196.771
190.431
183.692
176.584
169.139
161.388
153.367
145.109
136.65
128.025
119.27
110.421
101.513
92.581
83.661
74.785
65.987
57.298
48.747
40.363
32.173
24.201
16.471
9.002
1.815
-5.073
-11.648
-17.898
-23.81
-29.378
-34.594
-39.456
-43.961
-48.109
-51.903
-55.346
-58.443
-61.203
-63.633
-65.743
-67.544
-69.048
-70.267
-71.217
-71.91
-72.363
-72.592
-72.611
-72.438
-72.088
-71.578
-70.922
-70.138
-69.239
-68.242
-67.159
-66.007
-64.797
-63.543
-62.257
-60.95
-59.633
-58.315
-57.006
-55.714
-54.444
-53.205
-52
-50.836
-49.717
-48.645
-47.624
-46.657
-45.745
-44.889
-44.09
-43.349
-42.665
-42.037
-41.465
-40.947
-40.482
-40.069
-39.706
-39.39
-39.121
-38.896
-38.712
-38.566
-38.458
-38.382
-38.338
-38.322
-38.332
-38.365
-38.419
-38.491
-38.581
-38.685
-38.802
-38.929
-39.066
-39.211
-39.361
-39.515
-39.673
-39.832
-39.993
-40.153
-40.311
-40.469
-40.623
-40.775
-40.924
-41.068
-41.208
-41.344
-41.475
-41.602
-41.725
-41.844
-41.961
-42.075
-42.189
-42.303
-42.418
-42.536
-42.657
-42.784
-42.918
-43.059
-43.209
-43.37
-43.542
-43.728
-43.927
-44.143
-44.375
-44.624
-44.891
-45.177
-45.481
-45.805
-46.148
-46.511
-46.892
-47.292
-47.711
-48.148
-48.602
-49.072
-49.557
-50.055
-50.565
-51.085
-51.613
-52.147
-52.684
-53.223
-53.759
-54.292
-54.818
-55.335
-55.84
-56.33
-56.802
-57.254
-57.684
-58.088
-58.465
-58.814
-59.132
-59.418
-59.671
-59.892
-60.078
-60.23
-60.348
-60.432
-60.482
-60.5
-60.485
-60.439
-60.363
-60.26
-60.13
-59.975
-59.798
-59.601
-59.385
-59.153
-58.907
-58.65
-58.383
-58.11
-57.831
-57.552
-57.272
-56.996
-56.724
-56.46
-56.203
-55.955
-55.717
-55.488
-55.268
-55.056
-54.85
-54.649
-54.451
-54.254
-54.055
-53.852
-53.641
-53.419
-53.182
-52.926
-52.649
-52.345
-52.011
-51.644
-51.242
-50.8
-50.315
-49.786
-49.21
-48.585
-47.909
-47.179
-46.395
-45.555
-44.661
-43.712
-42.71
-41.658
-40.56
-39.423
-38.254
-37.061
-35.856
-34.647
-33.447
-32.267
-31.12
-30.016
-28.964
-27.975
-27.062
-26.235
-25.508
-24.894
-24.403
-24.047
-23.835
-23.778
-23.883
-24.15
-24.579
-25.174
-25.939
-26.89
-28.04
-29.397
-30.967
-32.753
-34.749
-36.944
-39.315
-41.822
-44.419
-47.062
-49.709
-52.329
-54.887
-57.343
-59.647
-61.733
-63.54
-65.02
-66.128
-66.83
-67.125
-67.028
-66.603
-65.951
-65.166
-64.35
-63.614
-63.053
-62.777
-62.895
-63.488
-64.69
-66.695
-69.619
-73.471
-78.133
-83.278
-88.524
-93.505
-97.676
-100.341
-100.967
-99.374
-95.8
-90.907
-85.64
-80.858
-77.478
-76.879
-79.147
-82.633
-85.708
-85.983
-83.285
-80.62
-77.211
-69.128
-48.363
-2.915
71.651
172.597
292.336
418.462
542.42
659.073
761.966
843.782
896.709
911.691
883.556
813.864
705.119
565.617
409.83
252.195
112.419
7.242
-58.925
-88.602
-94.146
-91.556
-87.923
-85.185
-81.184
-71.241
-56.155
-40.069
-26.607
-19.266
-19.295
-25.625
-36.73
-50.8
-65.627
-79.065
-89.888
-97.437
-101.235
-101.457
-98.619
-93.366
-86.875
-80.515
-75.042
-70.87
-68.317
-67.355
-67.895
-69.839
-72.785
-76.218
-79.836
-83.433
-86.853
-90.051
-92.918
-95.304
-97.168
-98.513
-99.334
-99.649
-99.455
-98.735
-97.522
-95.873
-93.847
-91.514
-88.931
-86.141
-83.203
-80.174
-77.114
-74.083
-71.12
-68.248
-65.48
-62.819
-60.263
-57.807
-55.433
-53.118
-50.84
-48.577
-46.311
-44.03
-41.715
-39.345
-36.899
-34.354
-31.688
-28.883
-25.921
-22.786
-19.467
-15.95
-12.228
-8.299
-4.158
0.204
4.796
9.631
14.717
20.055
25.638
31.456
37.489
43.705
50.071
56.548
63.105
69.717
76.369
83.056
89.772
96.514
103.27
110.011
116.708
123.335
129.869
136.294
142.611
148.831
154.972
161.065
167.119
173.127
179.058
184.851
190.427
195.687
200.547
204.952
208.86
212.242
215.065
217.294
218.881
219.777
219.925
219.245
217.67
215.144
211.648
207.215
201.92
195.879
189.195
181.943
174.177
165.932
157.253
148.187
138.778
129.057
119.066
108.888
98.635
88.436
78.392
68.552
58.919
49.463
40.161
31.02
22.062
13.314
4.799
-3.454
-11.398
-18.955
-26.052
-32.668
-38.835
-44.63
-50.11
-55.297
-60.186
-64.755
-69
-72.927
-76.543
-79.85
-82.845
-85.544
-87.986
-90.247
-92.4
-94.482
-96.488
-98.381
-100.131
-101.733
-103.191
-104.509
-105.684
-106.711
-107.599
-108.375
-109.065
-109.68
-110.217
-110.654
-110.971
-111.164
-111.245
-111.239
-111.166
-111.038
-110.866
-110.663
-110.447
-110.229
-110.011
-109.782
-109.531
-109.255
-108.953
-108.629
-108.285
-107.916
-107.519
-107.089
-106.621
-106.112
-105.558
-104.953
-104.289
-103.563
-102.774
-101.925
-101.017
-100.051
-99.03
-97.955
-96.83
-95.658
-94.442
-93.186
-91.891
-90.562
-89.202
-87.817
-86.41
-84.986
-83.551
-82.109
-80.665
-79.224
-77.791
-76.371
-74.968
-73.587
-72.231
-70.904
-69.61
-68.351
-67.129
-65.947
-64.805
-63.706
-62.648
-61.631
-60.654
-59.716
-58.814
-57.946
-57.108
-56.297
-55.51
-54.741
-53.987
-53.244
-52.508
-51.774
-51.037
-50.294
-49.54
-48.772
-47.986
-47.178
-46.346
-45.485
-44.594
-43.671
-42.712
-41.718
-40.687
-39.619
-38.514
-37.372
-36.195
-34.983
-33.741
-32.469
-31.171
-29.852
-28.513
-27.161
-25.8
-24.435
-23.071
-21.713
-20.368
-19.039
-17.734
-16.456
-15.211
-14.003
-12.837
-11.718
-10.649
-9.635
-8.678
-7.783
-6.952
-6.188
-5.494
-4.87
-4.318
-3.84
-3.435
-3.103
-2.844
-2.656
-2.538
-2.487
-2.501
-2.577
-2.709
-2.895
-3.129
-3.406
-3.721
-4.069
-4.443
-4.839
-5.251
-5.672
-6.099
-6.525
-6.944
-7.351
-7.74
-8.105
-8.441
-8.742
-9.002
-9.216
-9.378
-9.485
-9.53
-9.509
-9.418
-9.253
-9.01
-8.687
-8.28
-7.789
-7.211
-6.547
-5.797
-4.961
-4.044
-3.045
-1.971
-0.822
0.395
1.676
3.017
4.411
5.853
7.337
8.854
10.392
11.938
13.481
15.008
16.505
17.958
19.352
20.675
21.917
23.069
24.122
25.064
25.88
26.557
27.083
27.449
27.652
27.688
27.552
27.244
26.768
26.129
25.332
24.369
23.225
21.885
20.341
18.591
16.641
14.504
12.197
9.742
7.164
4.489
1.739
-1.052
-3.835
-6.569
-9.207
-11.689
-13.966
-15.959
-17.546
-18.721
-19.572
-20.192
-20.731
-21.213
-21.497
-21.603
-21.712
-21.817
-21.788
-21.427
-20.423
-18.957
-17.695
-17.016
-16.95
-17.494
-18.665
-20.676
-23.896
-27.979
-31.932
-35
-36.944
-38.128
-39.002
-39.626
-40.088
-40.949
-42.916
-46.771
-51.819
-55.104
-55.065
-51.03
-43.182
-33.972
-20.711
3.601
45.381
110.904
197.739
295.531
394.528
486.783
571.97
654.807
735.602
808.413
860.217
874.668
840.844
756.987
628.18
467.894
295.213
128.743
-11.214
-110.805
-168.427
-188.164
-180.384
-156.191
-120.746
-79.755
-40.548
-8.884
9.689
14.821
13.176
10.404
9.652
10.715
8.796
1.211
-11.169
-26.162
-39.919
-49.869
-55.796
-57.982
-57.066
-53.951
-49.356
-44.1
-39.273
-35.649
-33.5
-32.933
-33.843
-35.948
-38.995
-42.626
-46.341
-49.796
-52.796
-55.228
-57.105
-58.455
-59.269
-59.58
-59.449
-58.915
-58.026
-56.812
-55.281
-53.461
-51.394
-49.136
-46.756
-44.318
-41.879
-39.482
-37.155
-34.92
-32.791
-30.773
-28.864
-27.055
-25.329
-23.671
-22.07
-20.51
-18.975
-17.446
-15.895
-14.302
-12.643
-10.898
-9.05
-7.081
-4.974
-2.714
-0.287
2.317
5.108
8.098
11.296
14.712
18.354
22.229
26.341
30.694
35.289
40.126
45.202
50.511
56.047
61.798
67.753
73.896
80.213
86.682
93.284
99.995
106.791
113.644
120.528
127.412
134.267
141.06
147.758
154.33
160.742
166.96
172.952
178.685
184.129
189.253
194.028
198.426
202.421
205.987
209.104
211.749
213.904
215.553
216.682
217.28
217.338
216.851
215.817
214.235
212.109
209.443
206.247
202.531
198.31
193.6
188.419
182.789
176.734
170.278
163.45
156.28
148.797
141.033
133.023
124.799
116.395
107.845
99.185
90.447
81.665
72.874
64.104
55.39
46.76
38.246
29.875
21.674
13.67
5.884
-1.66
-8.944
-15.949
-22.659
-29.061
-35.142
-40.893
-46.306
-51.375
-56.098
-60.472
-64.499
-68.181
-71.522
-74.53
-77.212
-79.577
-81.636
-83.399
-84.88
-86.09
-87.044
-87.755
-88.239
-88.511
-88.584
-88.476
-88.201
-87.774
-87.211
-86.526
-85.732
-84.844
-83.876
-82.838
-81.745
-80.607
-79.436
-78.241
-77.033
-75.82
-74.609
-73.409
-72.224
-71.06
-69.922
-68.812
-67.734
-66.691
-65.683
-64.714
-63.782
-62.891
-62.039
-61.226
-60.453
-59.72
-59.024
-58.367
-57.746
-57.161
-56.611
-56.095
-55.612
-55.162
-54.744
-54.356
-53.997
-53.667
-53.363
-53.086
-52.834
-52.605
-52.399
-52.215
-52.052
-51.91
-51.789
-51.689
-51.608
-51.546
-51.504
-51.48
-51.473
-51.484
-51.511
-51.553
-51.61
-51.681
-51.764
-51.859
-51.963
-52.077
-52.197
-52.322
-52.45
-52.58
-52.709
-52.837
-52.962
-53.081
-53.194
-53.3
-53.398
-53.485
-53.562
-53.626
-53.678
-53.715
-53.738
-53.745
-53.735
-53.709
-53.666
-53.606
-53.529
-53.436
-53.326
-53.2
-53.059
-52.905
-52.737
-52.559
-52.371
-52.176
-51.976
-51.774
-51.571
-51.37
-51.175
-50.987
-50.81
-50.645
-50.496
-50.365
-50.255
-50.167
-50.105
-50.071
-50.068
-50.097
-50.161
-50.262
-50.401
-50.581
-50.803
-51.069
-51.38
-51.738
-52.143
-52.596
-53.097
-53.647
-54.246
-54.892
-55.585
-56.324
-57.106
-57.931
-58.795
-59.696
-60.632
-61.599
-62.595
-63.615
-64.655
-65.712
-66.781
-67.858
-68.937
-70.015
-71.087
-72.147
-73.19
-74.211
-75.204
-76.164
-77.085
-77.96
-78.783
-79.548
-80.248
-80.878
-81.431
-81.903
-82.287
-82.578
-82.772
-82.864
-82.849
-82.723
-82.483
-82.126
-81.649
-81.049
-80.327
-79.481
-78.512
-77.419
-76.205
-74.872
-73.422
-71.859
-70.186
-68.41
-66.536
-64.57
-62.522
-60.4
-58.215
-55.98
-53.709
-51.416
-49.117
-46.828
-44.565
-42.347
-40.188
-38.104
-36.11
-34.222
-32.456
-30.829
-29.359
-28.062
-26.953
-26.046
-25.353
-24.888
-24.659
-24.671
-24.927
-25.428
-26.183
-27.206
-28.509
-30.096
-31.969
-34.123
-36.549
-39.232
-42.147
-45.255
-48.511
-51.871
-55.295
-58.755
-62.218
-65.645
-68.981
-72.159
-75.116
-77.803
-80.183
-82.228
-83.922
-85.268
-86.311
-87.136
-87.823
-88.453
-89.104
-89.843
-90.767
-91.975
-93.547
-95.583
-98.23
-101.58
-105.641
-110.293
-115.23
-120.117
-124.657
-128.447
-130.966
-131.771
-130.608
-127.664
-123.621
-119.13
-114.766
-111.195
-109.15
-109.496
-111.919
-114.194
-113.685
-107.732
-96.863
-84.953
-72.541
-57.288
-30.796
19.912
98.866
203.341
323.029
441.636
551.714
650.292
735.754
807.279
856.307
870.829
841.71
764.919
643.379
489.382
321.809
161.109
29.931
-57.29
-100.212
-107.137
-95.59
-82.183
-73.032
-68.834
-65.699
-59.148
-50.511
-42.702
-37.889
-37.689
-40.999
-45.609
-50.151
-53.369
-54.101
-52.102
-47.752
-41.96
-36.221
-31.695
-28.718
-27.255
-27.382
-29.045
-32.02
-35.837
-39.647
-42.848
-45.404
-47.613
-49.711
-51.788
-53.806
-55.726
-57.678
-59.727
-61.748
-63.482
-64.691
-65.274
-65.244
-64.683
-63.637
-62.137
-60.243
-58.043
-55.637
-53.1
-50.487
-47.834
-45.181
-42.583
-40.086
-37.725
-35.522
-33.484
-31.604
-29.871
-28.266
-26.762
-25.337
-23.973
-22.652
-21.356
-20.067
-18.766
-17.434
-16.053
-14.606
-13.069
-11.42
-9.641
-7.712
-5.618
-3.342
-0.869
1.816
4.727
7.876
11.272
14.919
18.824
22.994
27.434
32.153
37.151
42.422
47.961
53.751
59.77
65.987
72.359
78.838
85.386
91.966
98.553
105.131
111.682
118.192
124.649
131.026
137.299
143.451
149.451
155.283
160.942
166.429
171.767
176.992
182.117
187.148
192.074
196.843
201.407
205.702
209.642
213.172
216.235
218.76
220.702
222.013
222.634
222.516
221.588
219.759
216.969
213.164
208.316
202.464
195.648
187.931
179.417
170.177
160.301
149.919
139.125
128.014
116.686
105.217
93.704
82.274
71.033
60.087
49.522
39.372
29.671
20.451
11.706
3.458
-4.303
-11.638
-18.578
-25.141
-31.35
-37.193
-42.674
-47.831
-52.688
-57.261
-61.568
-65.597
-69.352
-72.852
-76.097
-79.106
-81.872
-84.347
-86.508
-88.346
-89.858
-91.06
-91.967
-92.573
-92.889
-92.938
-92.739
-92.325
-91.712
-90.906
-89.916
-88.75
-87.43
-85.996
-84.477
-82.897
-81.279
-79.637
-77.989
-76.357
-74.756
-73.188
-71.658
-70.167
-68.724
-67.34
-66.026
-64.788
-63.63
-62.55
-61.548
-60.625
-59.777
-59
-58.29
-57.638
-57.04
-56.494
-55.996
-55.543
-55.129
-54.748
-54.395
-54.066
-53.756
-53.459
-53.17
-52.885
-52.601
-52.314
-52.024
-51.729
-51.427
-51.117
-50.798
-50.47
-50.132
-49.783
-49.423
-49.051
-48.668
-48.274
-47.871
-47.457
-47.036
-46.608
-46.173
-45.734
-45.292
-44.847
-44.401
-43.954
-43.508
-43.064
-42.622
-42.183
-41.748
-41.316
-40.887
-40.461
-40.038
-39.616
-39.194
-38.77
-38.345
-37.916
-37.482
-37.043
-36.598
-36.146
-35.687
-35.221
-34.749
-34.269
-33.784
-33.295
-32.802
-32.308
-31.816
-31.327
-30.845
-30.373
-29.915
-29.473
-29.052
-28.655
-28.287
-27.952
-27.654
-27.398
-27.188
-27.028
-26.923
-26.878
-26.895
-26.98
-27.134
-27.361
-27.664
-28.045
-28.504
-29.043
-29.661
-30.36
-31.137
-31.992
-32.921
-33.923
-34.994
-36.128
-37.323
-38.57
-39.865
-41.199
-42.567
-43.959
-45.367
-46.783
-48.197
-49.6
-50.982
-52.334
-53.645
-54.906
-56.107
-57.238
-58.289
-59.252
-60.117
-60.876
-61.522
-62.046
-62.442
-62.704
-62.827
-62.806
-62.636
-62.314
-61.837
-61.203
-60.412
-59.461
-58.352
-57.088
-55.669
-54.1
-52.386
-50.53
-48.54
-46.422
-44.186
-41.838
-39.389
-36.849
-34.23
-31.543
-28.801
-26.017
-23.206
-20.383
-17.564
-14.766
-12.004
-9.298
-6.663
-4.117
-1.677
0.642
2.825
4.858
6.729
8.424
9.931
11.236
12.328
13.197
13.834
14.23
14.382
14.29
13.954
13.379
12.565
11.509
10.209
8.663
6.871
4.837
2.568
0.079
-2.603
-5.44
-8.39
-11.409
-14.455
-17.493
-20.49
-23.407
-26.2
-28.815
-31.202
-33.309
-35.093
-36.511
-37.54
-38.19
-38.51
-38.587
-38.512
-38.359
-38.208
-38.141
-38.236
-38.58
-39.261
-40.338
-41.931
-44.223
-47.306
-51.218
-55.857
-60.846
-65.737
-70.078
-73.224
-74.469
-73.421
-69.841
-63.833
-56.406
-48.828
-42.283
-38.511
-38.131
-39.741
-42.289
-44.358
-46.022
-51.187
-60.839
-71.176
-72.901
-50.223
7.916
102.626
226.052
362.459
498.365
627.241
745.48
848.807
928.711
971.018
962.305
897.522
778.898
617.921
433.87
246.596
78.469
-51.343
-134.304
-171.561
-175.24
-162.262
-145.15
-129.073
-112.98
-93.165
-67.463
-38.318
-10.034
13.199
27.657
32.621
29.43
19.784
5.966
-9.707
-25.75
-40.676
-52.688
-60.974
-65.421
-66.191
-64.103
-60.167
-55.105
-49.829
-45.466
-42.584
-41.405
-41.984
-43.989
-47.068
-50.969
-55.268
-59.478
-63.291
-66.522
-69.098
-71.086
-72.517
-73.391
-73.753
-73.657
-73.152
-72.284
-71.075
-69.532
-67.687
-65.594
-63.318
-60.935
-58.507
-56.077
-53.676
-51.323
-49.034
-46.813
-44.658
-42.559
-40.501
-38.471
-36.458
-34.452
-32.441
-30.409
-28.338
-26.208
-24.001
-21.701
-19.292
-16.758
-14.085
-11.259
-8.268
-5.099
-1.746
1.803
5.554
9.511
13.681
18.073
22.693
27.554
32.661
38.013
43.607
49.433
55.471
61.699
68.076
74.56
81.118
87.725
94.362
101.024
107.7
114.382
121.063
127.725
134.349
140.923
147.425
153.836
160.158
166.4
172.595
178.791
184.999
191.214
197.416
203.547
209.55
215.354
220.859
225.989
230.68
234.866
238.507
241.565
243.975
245.67
246.557
246.528
245.516
243.484
240.408
236.316
231.253
225.289
218.544
211.123
203.107
194.577
185.589
176.193
166.468
156.492
146.357
136.177
126.042
116.025
106.198
96.595
87.233
78.108
69.177
60.405
51.781
43.3
34.975
26.828
18.865
11.098
3.539
-3.814
-10.961
-17.898
-24.629
-31.143
-37.418
-43.427
-49.128
-54.48
-59.46
-64.05
-68.242
-72.036
-75.434
-78.44
-81.072
-83.34
-85.256
-86.829
-88.069
-88.988
-89.604
-89.936
-90.006
-89.84
-89.458
-88.883
-88.136
-87.235
-86.198
-85.043
-83.781
-82.427
-80.996
-79.503
-77.963
-76.391
-74.8
-73.206
-71.619
-70.053
-68.518
-67.023
-65.575
-64.18
-62.844
-61.572
-60.366
-59.228
-58.161
-57.163
-56.235
-55.375
-54.582
-53.851
-53.18
-52.564
-51.999
-51.481
-51.004
-50.563
-50.154
-49.771
-49.41
-49.066
-48.733
-48.408
-48.085
-47.761
-47.431
-47.091
-46.736
-46.364
-45.972
-45.557
-45.117
-44.652
-44.159
-43.639
-43.092
-42.518
-41.919
-41.297
-40.653
-39.99
-39.312
-38.621
-37.922
-37.218
-36.513
-35.811
-35.118
-34.435
-33.769
-33.122
-32.498
-31.902
-31.336
-30.805
-30.311
-29.858
-29.448
-29.084
-28.768
-28.502
-28.288
-28.127
-28.021
-27.97
-27.975
-28.037
-28.154
-28.328
-28.556
-28.839
-29.174
-29.561
-29.997
-30.481
-31.009
-31.581
-32.195
-32.847
-33.536
-34.261
-35.019
-35.808
-36.628
-37.476
-38.351
-39.252
-40.178
-41.127
-42.098
-43.092
-44.105
-45.139
-46.191
-47.262
-48.35
-49.455
-50.576
-51.713
-52.863
-54.027
-55.203
-56.392
-57.591
-58.801
-60.02
-61.246
-62.479
-63.717
-64.957
-66.198
-67.436
-68.668
-69.891
-71.101
-72.294
-73.464
-74.608
-75.721
-76.798
-77.833
-78.821
-79.758
-80.638
-81.455
-82.205
-82.882
-83.481
-83.997
-84.426
-84.764
-85.005
-85.146
-85.183
-85.112
-84.93
-84.634
-84.222
-83.69
-83.038
-82.263
-81.366
-80.346
-79.205
-77.945
-76.568
-75.078
-73.48
-71.777
-69.976
-68.083
-66.106
-64.051
-61.927
-59.743
-57.509
-55.235
-52.931
-50.612
-48.29
-45.979
-43.693
-41.448
-39.258
-37.139
-35.105
-33.17
-31.346
-29.645
-28.081
-26.667
-25.416
-24.34
-23.45
-22.756
-22.267
-21.989
-21.928
-22.083
-22.452
-23.034
-23.831
-24.852
-26.104
-27.591
-29.312
-31.266
-33.44
-35.821
-38.385
-41.091
-43.898
-46.761
-49.638
-52.495
-55.3
-58.009
-60.57
-62.918
-64.989
-66.729
-68.097
-69.057
-69.603
-69.746
-69.538
-69.072
-68.443
-67.75
-67.096
-66.587
-66.335
-66.453
-67.043
-68.217
-70.138
-72.931
-76.627
-81.113
-86.101
-91.25
-96.207
-100.526
-103.648
-105.044
-104.404
-101.898
-98.125
-93.713
-89.417
-86.113
-84.626
-86.059
-90.263
-94.717
-96.802
-93.939
-85.35
-74.366
-62.509
-46.915
-21.709
23.837
98.866
203.704
334.31
481.627
632.09
775.46
899.2
988.433
1031.123
1015.777
938.847
805.961
630.269
433.29
237.701
66.167
-63.37
-144.142
-177.123
-171.384
-142.439
-103.42
-65.523
-38.851
-25.024
-22.096
-26.264
-28.604
-25.865
-19.707
-12.579
-10.271
-15.128
-25.244
-38.186
-50.586
-60.126
-66.214
-68.861
-68.413
-65.356
-60.36
-54.205
-47.704
-41.804
-37.197
-34.168
-32.838
-33.097
-34.641
-37.199
-40.443
-43.933
-47.357
-50.506
-53.199
-55.393
-57.087
-58.25
-58.901
-59.083
-58.81
-58.116
-57.046
-55.624
-53.893
-51.908
-49.718
-47.393
-45.003
-42.611
-40.284
-38.066
-35.982
-34.052
-32.282
-30.67
-29.208
-27.88
-26.66
-25.527
-24.46
-23.436
-22.436
-21.437
-20.412
-19.337
-18.187
-16.937
-15.565
-14.049
-12.366
-10.497
-8.423
-6.128
-3.595
-0.815
2.223
5.528
9.11
12.983
17.158
21.642
26.432
31.52
36.9
42.551
48.452
54.565
60.84
67.236
73.725
80.285
86.907
93.573
100.262
106.955
113.633
120.279
126.88
133.415
139.852
146.182
152.408
158.556
164.68
170.8
176.903
182.956
188.912
194.718
200.322
205.648
210.61
215.138
219.18
222.706
225.701
228.117
229.881
230.888
231.01
230.154
228.27
225.333
221.338
216.304
210.273
203.324
195.564
187.068
177.87
167.979
157.405
146.206
134.47
122.332
109.943
97.448
84.993
72.7
60.671
48.987
37.691
26.791
16.284
6.197
-3.399
-12.401
-20.728
-28.334
-35.198
-41.341
-46.799
-51.629
-55.929
-59.782
-63.255
-66.398
-69.226
-71.736
-73.933
-75.837
-77.495
-78.98
-80.348
-81.643
-82.904
-84.144
-85.363
-86.543
-87.627
-88.561
-89.316
-89.873
-90.236
-90.421
-90.433
-90.281
-89.976
-89.51
-88.886
-88.106
-87.166
-86.078
-84.859
-83.537
-82.156
-80.762
-79.383
-78.047
-76.768
-75.557
-74.427
-73.382
-72.42
-71.544
-70.756
-70.058
-69.456
-68.953
-68.545
-68.227
-67.993
-67.831
-67.736
-67.699
-67.715
-67.776
-67.878
-68.017
-68.192
-68.399
-68.635
-68.893
-69.169
-69.457
-69.75
-70.044
-70.333
-70.61
-70.871
-71.112
-71.329
-71.519
-71.679
-71.805
-71.896
-71.948
-71.96
-71.931
-71.86
-71.746
-71.588
-71.387
-71.144
-70.858
-70.53
-70.163
-69.757
-69.315
-68.838
-68.329
-67.789
-67.222
-66.631
-66.017
-65.385
-64.738
-64.079
-63.412
-62.741
-62.068
-61.399
-60.736
-60.082
-59.442
-58.818
-58.214
-57.633
-57.079
-56.555
-56.065
-55.612
-55.199
-54.829
-54.506
-54.23
-54.005
-53.834
-53.717
-53.657
-53.654
-53.71
-53.825
-54
-54.235
-54.529
-54.882
-55.293
-55.761
-56.284
-56.862
-57.491
-58.17
-58.898
-59.671
-60.486
-61.341
-62.232
-63.156
-64.108
-65.084
-66.08
-67.091
-68.11
-69.134
-70.157
-71.173
-72.178
-73.164
-74.129
-75.065
-75.968
-76.834
-77.657
-78.432
-79.156
-79.823
-80.43
-80.972
-81.446
-81.847
-82.173
-82.419
-82.583
-82.661
-82.651
-82.55
-82.355
-82.064
-81.675
-81.187
-80.598
-79.908
-79.116
-78.224
-77.23
-76.137
-74.946
-73.659
-72.278
-70.805
-69.244
-67.597
-65.867
-64.059
-62.177
-60.226
-58.212
-56.14
-54.019
-51.858
-49.666
-47.452
-45.228
-43.004
-40.791
-38.599
-36.44
-34.32
-32.251
-30.242
-28.304
-26.45
-24.69
-23.035
-21.495
-20.08
-18.799
-17.66
-16.664
-15.812
-15.107
-14.555
-14.17
-13.964
-13.947
-14.124
-14.5
-15.07
-15.829
-16.76
-17.829
-19.002
-20.241
-21.513
-22.794
-24.06
-25.278
-26.407
-27.394
-28.188
-28.754
-29.057
-29.072
-28.793
-28.23
-27.438
-26.513
-25.541
-24.619
-23.848
-23.317
-23.156
-23.493
-24.419
-26.065
-28.585
-32.075
-36.592
-42.053
-48.122
-54.437
-60.647
-66.232
-70.634
-73.406
-74.176
-73.02
-70.687
-67.936
-65.377
-63.961
-64.656
-67.976
-74.386
-82.701
-89.399
-92.296
-90.011
-81.605
-68.234
-46.741
-10.01
46.984
127.762
228.786
339.232
451.001
559.359
663.002
762.743
852.059
917.163
941.938
913.084
827.853
693.969
527.606
348.327
174.572
22.84
-96.699
-178.304
-221.225
-229.498
-208.183
-166.539
-115.413
-66.864
-31.596
-12.452
-6.504
-5.261
-0.893
7.972
18.791
25.874
25.21
17.131
4.171
-10.081
-22.895
-32.961
-39.955
-44.136
-45.754
-45.196
-43.07
-39.95
-36.659
-34.144
-32.878
-33.048
-34.646
-37.381
-40.963
-45.123
-49.444
-53.492
-57.014
-59.877
-62.058
-63.64
-64.656
-65.128
-65.12
-64.698
-63.918
-62.822
-61.43
-59.76
-57.857
-55.786
-53.62
-51.415
-49.204
-47.011
-44.848
-42.72
-40.631
-38.572
-36.526
-34.483
-32.432
-30.365
-28.275
-26.148
-23.966
-21.709
-19.356
-16.886
-14.284
-11.535
-8.625
-5.545
-2.286
1.157
4.788
8.613
12.639
16.87
21.311
25.967
30.838
35.924
41.227
46.741
52.461
58.38
64.488
70.775
77.227
83.831
90.57
97.426
104.379
111.408
118.49
125.602
132.717
139.809
146.85
153.813
160.669
167.389
173.944
180.306
186.445
192.335
197.949
203.26
208.243
212.874
217.131
220.991
224.437
227.449
230.011
232.11
233.733
234.871
235.515
235.662
235.307
234.451
233.094
231.241
228.898
226.074
222.779
219.027
214.832
210.212
205.185
199.772
193.994
187.876
181.442
174.718
167.729
160.504
153.07
145.455
137.687
129.796
121.809
113.754
105.659
97.552
89.458
81.405
73.416
65.516
57.727
50.073
42.572
35.245
28.109
21.182
14.476
8.007
1.786
-4.179
-9.877
-15.304
-20.453
-25.322
-29.908
-34.212
-38.233
-41.976
-45.443
-48.638
-51.569
-54.242
-56.666
-58.847
-60.797
-62.525
-64.041
-65.356
-66.481
-67.427
-68.207
-68.832
-69.313
-69.662
-69.892
-70.014
-70.04
-69.981
-69.848
-69.652
-69.402
-69.108
-68.779
-68.423
-68.049
-67.662
-67.27
-66.879
-66.493
-66.118
-65.756
-65.412
-65.087
-64.783
-64.503
-64.245
-64.013
-63.804
-63.62
-63.459
-63.322
-63.206
-63.112
-63.036
-62.979
-62.936
-62.907
-62.888
-62.878
-62.874
-62.873
-62.872
-62.87
-62.864
-62.851
-62.83
-62.798
-62.754
-62.696
-62.624
-62.535
-62.43
-62.308
-62.17
-62.015
-61.845
-61.66
-61.462
-61.253
-61.032
-60.803
-60.567
-60.325
-60.08
-59.834
-59.587
-59.344
-59.106
-58.875
-58.654
-58.445
-58.251
-58.074
-57.916
-57.78
-57.666
-57.578
-57.516
-57.483
-57.48
-57.508
-57.567
-57.658
-57.781
-57.936
-58.122
-58.337
-58.582
-58.854
-59.15
-59.47
-59.81
-60.169
-60.544
-60.933
-61.332
-61.74
-62.153
-62.569
-62.985
-63.397
-63.804
-64.202
-64.589
-64.962
-65.318
-65.655
-65.971
-66.263
-66.53
-66.769
-66.979
-67.158
-67.305
-67.418
-67.496
-67.54
-67.547
-67.519
-67.456
-67.357
-67.223
-67.055
-66.853
-66.618
-66.35
-66.05
-65.717
-65.352
-64.956
-64.527
-64.066
-63.572
-63.046
-62.487
-61.894
-61.266
-60.604
-59.905
-59.168
-58.394
-57.58
-56.725
-55.83
-54.893
-53.914
-52.893
-51.829
-50.723
-49.574
-48.384
-47.154
-45.883
-44.574
-43.229
-41.851
-40.442
-39.007
-37.551
-36.08
-34.601
-33.123
-31.656
-30.21
-28.796
-27.427
-26.113
-24.867
-23.699
-22.62
-21.639
-20.768
-20.017
-19.399
-18.924
-18.603
-18.443
-18.453
-18.64
-19.008
-19.556
-20.281
-21.184
-22.264
-23.533
-25
-26.669
-28.543
-30.621
-32.894
-35.351
-37.972
-40.719
-43.555
-46.44
-49.337
-52.219
-55.056
-57.811
-60.436
-62.868
-65.046
-66.92
-68.443
-69.578
-70.316
-70.664
-70.662
-70.382
-69.886
-69.253
-68.569
-67.904
-67.35
-67.003
-66.953
-67.361
-68.43
-70.264
-72.883
-76.183
-79.846
-83.505
-86.774
-89.093
-89.845
-88.665
-85.428
-80.404
-74.473
-68.765
-64.38
-62.512
-63.527
-66.547
-70.703
-75.177
-80.78
-89.342
-99.606
-106.056
-98.123
-64.381
-0.193
89.937
194.384
300.506
401.734
498.836
594.91
689.957
776.725
842.15
872.234
856.299
791.708
682.404
538.379
375.235
209.874
59.999
-59.459
-139.98
-180.672
-187.32
-169.468
-139.021
-105.729
-78.085
-62.384
-58.684
-63.677
-69.854
-70.02
-62.662
-50.117
-38.233
-31.413
-29.863
-32.054
-35.78
-39.9
-44.672
-50.043
-55.188
-59.436
-62.509
-64.421
-65.393
-65.527
-64.781
-63.457
-62.332
-61.928
-62.421
-63.805
-65.818
-68.224
-70.903
-73.621
-76.02
-77.877
-79.083
-79.602
-79.527
-78.942
-77.885
-76.424
-74.635
-72.572
-70.287
-67.833
-65.247
-62.588
-59.929
-57.322
-54.807
-52.413
-50.149
-48.022
-46.03
-44.158
-42.383
-40.69
-39.071
-37.517
-36.023
-34.576
-33.157
-31.749
-30.331
-28.882
-27.381
-25.806
-24.137
-22.358
-20.453
-18.406
-16.204
-13.834
-11.279
-8.523
-5.546
-2.324
1.159
4.912
8.942
13.248
17.823
22.657
27.733
33.016
38.481
44.098
49.842
55.706
61.679
67.748
73.897
80.107
86.366
92.682
99.065
105.516
112.045
118.659
125.373
132.236
139.281
146.523
153.971
161.592
169.345
177.187
185.06
192.892
200.607
208.096
215.238
221.952
228.148
233.744
238.658
242.762
245.941
248.109
249.179
249.102
247.863
245.455
241.9
237.265
231.611
225.039
217.67
209.574
200.822
191.483
181.602
171.277
160.625
149.749
138.779
127.844
117.032
106.426
96.083
86.016
76.245
66.774
57.577
48.676
40.106
31.908
24.166
16.927
10.193
3.961
-1.813
-7.205
-12.255
-17.001
-21.474
-25.673
-29.599
-33.254
-36.612
-39.669
-42.446
-44.975
-47.326
-49.56
-51.696
-53.743
-55.684
-57.466
-59.065
-60.46
-61.623
-62.551
-63.246
-63.711
-63.971
-64.054
-63.97
-63.723
-63.299
-62.681
-61.877
-60.9
-59.775
-58.541
-57.231
-55.871
-54.498
-53.138
-51.81
-50.53
-49.303
-48.128
-47.008
-45.952
-44.967
-44.066
-43.255
-42.535
-41.908
-41.374
-40.929
-40.571
-40.293
-40.091
-39.959
-39.895
-39.898
-39.968
-40.103
-40.302
-40.56
-40.875
-41.242
-41.655
-42.109
-42.595
-43.108
-43.639
-44.184
-44.735
-45.286
-45.832
-46.364
-46.879
-47.369
-47.83
-48.255
-48.64
-48.98
-49.271
-49.508
-49.69
-49.811
-49.871
-49.867
-49.797
-49.661
-49.458
-49.187
-48.849
-48.444
-47.974
-47.442
-46.848
-46.197
-45.494
-44.742
-43.947
-43.117
-42.256
-41.372
-40.473
-39.566
-38.66
-37.761
-36.878
-36.021
-35.197
-34.414
-33.681
-33.006
-32.398
-31.862
-31.407
-31.039
-30.764
-30.589
-30.519
-30.558
-30.71
-30.98
-31.37
-31.881
-32.515
-33.272
-34.15
-35.148
-36.263
-37.491
-38.827
-40.266
-41.802
-43.427
-45.133
-46.912
-48.754
-50.649
-52.588
-54.559
-56.553
-58.559
-60.565
-62.561
-64.536
-66.481
-68.384
-70.235
-72.024
-73.742
-75.38
-76.928
-78.377
-79.722
-80.953
-82.066
-83.054
-83.914
-84.64
-85.23
-85.682
-85.994
-86.166
-86.197
-86.089
-85.843
-85.463
-84.952
-84.313
-83.552
-82.673
-81.682
-80.584
-79.384
-78.088
-76.703
-75.233
-73.685
-72.065
-70.38
-68.637
-66.842
-65.002
-63.124
-61.216
-59.284
-57.336
-55.378
-53.417
-51.462
-49.518
-47.594
-45.697
-43.838
-42.025
-40.269
-38.578
-36.963
-35.433
-33.997
-32.662
-31.435
-30.322
-29.327
-28.458
-27.723
-27.129
-26.683
-26.39
-26.257
-26.289
-26.488
-26.858
-27.394
-28.09
-28.945
-29.962
-31.151
-32.523
-34.08
-35.824
-37.752
-39.857
-42.128
-44.543
-47.063
-49.647
-52.254
-54.847
-57.404
-59.896
-62.286
-64.523
-66.544
-68.289
-69.715
-70.786
-71.472
-71.764
-71.671
-71.238
-70.548
-69.694
-68.774
-67.884
-67.122
-66.591
-66.381
-66.604
-67.41
-68.925
-71.224
-74.256
-77.784
-81.51
-85.151
-88.341
-90.627
-91.58
-90.84
-88.454
-85.09
-81.537
-78.481
-76.731
-76.998
-79.891
-86.171
-94.632
-101.742
-104.499
-99.656
-87.211
-71.535
-52.85
-29.269
5.072
62.448
147.543
260.104
395.591
538.554
675.784
792.883
873.204
909.781
898.271
841.789
751.82
635.911
502.811
360.825
216.79
84.917
-19.873
-88.276
-115.592
-108.563
-82.565
-51.242
-27.948
-20.114
-25.273
-38.611
-51.929
-57.722
-54.954
-45.959
-35.865
-29.276
-27.357
-28.918
-31.588
-34.306
-37.333
-41.109
-45.932
-51.113
-55.639
-59.193
-61.722
-63.149
-63.534
-62.883
-61.401
-59.791
-58.664
-58.255
-58.64
-59.727
-61.335
-63.367
-65.613
-67.68
-69.293
-70.316
-70.691
-70.487
-69.776
-68.578
-66.948
-64.973
-62.711
-60.218
-57.537
-54.682
-51.693
-48.629
-45.546
-42.514
-39.575
-36.751
-34.059
-31.503
-29.078
-26.779
-24.589
-22.489
-20.466
-18.508
-16.602
-14.74
-12.902
-11.07
-9.223
-7.336
-5.387
-3.354
-1.215
1.049
3.453
6.012
8.738
11.642
14.736
18.031
21.532
25.25
29.192
33.369
37.799
42.488
47.428
52.61
58.013
63.615
69.4
75.341
81.402
87.559
93.789
100.084
106.453
112.889
119.374
125.877
132.352
138.767
145.108
151.364
157.526
163.588
169.537
175.38
181.146
186.832
192.413
197.829
202.98
207.792
212.221
216.227
219.795
222.893
225.472
227.494
228.93
229.744
229.902
229.347
227.989
225.788
222.747
218.91
214.377
209.224
203.497
197.245
190.51
183.34
175.799
167.932
159.766
151.349
142.736
134.005
125.271
116.605
108.046
99.604
91.252
82.98
74.801
66.721
58.743
50.877
43.13
35.524
28.101
20.887
13.896
7.128
0.562
-5.803
-11.953
-17.867
-23.513
-28.865
-33.91
-38.628
-43.002
-47.019
-50.675
-53.974
-56.934
-59.567
-61.883
-63.886
-65.581
-66.974
-68.08
-68.913
-69.488
-69.821
-69.929
-69.831
-69.548
-69.1
-68.503
-67.773
-66.922
-65.964
-64.915
-63.789
-62.6
-61.362
-60.09
-58.797
-57.498
-56.206
-54.932
-53.687
-52.482
-51.323
-50.22
-49.18
-48.209
-47.312
-46.494
-45.76
-45.113
-44.555
-44.089
-43.716
-43.437
-43.252
-43.16
-43.16
-43.251
-43.43
-43.693
-44.04
-44.464
-44.963
-45.532
-46.165
-46.859
-47.607
-48.403
-49.242
-50.116
-51.019
-51.944
-52.885
-53.835
-54.788
-55.738
-56.677
-57.601
-58.504
-59.379
-60.221
-61.025
-61.786
-62.498
-63.158
-63.761
-64.304
-64.782
-65.194
-65.536
-65.807
-66.004
-66.127
-66.175
-66.149
-66.048
-65.874
-65.628
-65.313
-64.932
-64.487
-63.982
-63.422
-62.81
-62.15
-61.449
-60.711
-59.941
-59.146
-58.33
-57.5
-56.662
-55.821
-54.984
-54.156
-53.344
-52.553
-51.79
-51.059
-50.366
-49.717
-49.115
-48.567
-48.075
-47.643
-47.276
-46.975
-46.743
-46.581
-46.491
-46.474
-46.529
-46.658
-46.858
-47.13
-47.47
-47.878
-48.351
-48.885
-49.478
-50.127
-50.828
-51.576
-52.367
-53.198
-54.062
-54.955
-55.87
-56.803
-57.748
-58.697
-59.645
-60.586
-61.512
-62.418
-63.297
-64.143
-64.949
-65.709
-66.417
-67.067
-67.653
-68.168
-68.608
-68.968
-69.242
-69.426
-69.516
-69.508
-69.397
-69.181
-68.857
-68.421
-67.87
-67.202
-66.416
-65.509
-64.481
-63.333
-62.064
-60.677
-59.173
-57.555
-55.827
-53.993
-52.057
-50.024
-47.901
-45.695
-43.413
-41.064
-38.658
-36.206
-33.721
-31.217
-28.708
-26.208
-23.731
-21.292
-18.908
-16.594
-14.368
-12.245
-10.242
-8.376
-6.664
-5.123
-3.77
-2.617
-1.674
-0.951
-0.455
-0.196
-0.178
-0.405
-0.876
-1.591
-2.553
-3.763
-5.219
-6.917
-8.849
-11.002
-13.362
-15.908
-18.615
-21.456
-24.4
-27.408
-30.444
-33.471
-36.459
-39.38
-42.211
-44.922
-47.472
-49.81
-51.888
-53.67
-55.163
-56.382
-57.319
-58.027
-58.614
-59.25
-60.236
-61.852
-64.158
-67.162
-70.887
-75.174
-79.837
-84.563
-88.556
-90.979
-91.443
-89.748
-85.874
-80.166
-72.884
-64.444
-56.152
-49.664
-46.137
-46.286
-50.495
-58.66
-70.485
-85.577
-101.59
-114.115
-120.384
-118.693
-108.447
-91.674
-65.969
-24.933
35.616
118.902
221.517
332.713
444.594
551.66
650.681
741.352
817.663
869.586
887.583
863.192
795.778
689.782
553.066
399.961
244.84
105.149
-1.483
-67.991
-92.746
-83.526
-57.13
-26.46
-3.811
3.36
-2.53
-17.266
-33.395
-43.968
-48.088
-47.625
-46.888
-49.17
-54.35
-60.628
-65.252
-66.876
-65.851
-62.914
-59.06
-54.971
-50.968
-47.518
-45.08
-43.822
-43.747
-44.755
-46.661
-49.32
-52.609
-56.342
-60.32
-64.402
-68.448
-72.334
-75.943
-79.137
-81.814
-83.924
-85.438
-86.354
-86.693
-86.48
-85.758
-84.592
-83.041
-81.163
-79.018
-76.656
-74.14
-71.536
-68.905
-66.311
-63.797
-61.389
-59.101
-56.938
-54.895
-52.963
-51.127
-49.361
-47.646
-45.962
-44.292
-42.621
-40.928
-39.191
-37.386
-35.486
-33.469
-31.314
-29.004
-26.519
-23.84
-20.947
-17.82
-14.445
-10.816
-6.925
-2.77
1.647
6.318
11.226
16.346
21.66
27.148
32.796
38.594
44.522
50.562
56.697
62.903
69.165
75.482
81.854
88.291
94.819
101.465
108.266
115.276
122.52
130.016
137.767
145.751
153.948
162.32
170.815
179.388
187.983
196.52
204.915
213.059
220.814
228.058
234.654
240.436
245.274
249.037
251.624
252.979
253.067
251.883
249.443
245.758
240.848
234.767
227.58
219.382
210.299
200.423
189.873
178.811
167.396
155.812
144.212
132.697
121.343
110.205
99.329
88.771
78.583
68.785
59.399
50.427
41.869
33.773
26.149
18.965
12.167
5.658
-0.633
-6.725
-12.628
-18.345
-23.876
-29.236
-34.427
-39.427
-44.226
-48.818
-53.213
-57.464
-61.593
-65.59
-69.425
-73.035
-76.377
-79.443
-82.223
-84.708
-86.892
-88.771
-90.353
-91.671
-92.746
-93.586
-94.191
-94.54
-94.632
-94.482
-94.113
-93.565
-92.868
-92.043
-91.115
-90.112
-89.059
-87.975
-86.872
-85.747
-84.606
-83.46
-82.322
-81.209
-80.133
-79.099
-78.113
-77.178
-76.298
-75.474
-74.706
-73.991
-73.328
-72.715
-72.155
-71.65
-71.204
-70.814
-70.482
-70.206
-69.985
-69.818
-69.703
-69.634
-69.608
-69.621
-69.671
-69.754
-69.865
-70.002
-70.16
-70.335
-70.523
-70.72
-70.922
-71.124
-71.322
-71.512
-71.691
-71.854
-71.999
-72.123
-72.222
-72.295
-72.339
-72.353
-72.333
-72.278
-72.187
-72.057
-71.889
-71.679
-71.428
-71.134
-70.798
-70.419
-69.998
-69.535
-69.03
-68.485
-67.899
-67.275
-66.614
-65.917
-65.186
-64.423
-63.632
-62.814
-61.972
-61.111
-60.233
-59.342
-58.441
-57.535
-56.628
-55.723
-54.825
-53.937
-53.065
-52.212
-51.382
-50.58
-49.81
-49.074
-48.378
-47.725
-47.118
-46.56
-46.054
-45.604
-45.212
-44.88
-44.611
-44.407
-44.268
-44.196
-44.191
-44.255
-44.387
-44.586
-44.851
-45.182
-45.576
-46.031
-46.543
-47.111
-47.73
-48.396
-49.105
-49.853
-50.634
-51.444
-52.278
-53.13
-53.995
-54.867
-55.741
-56.611
-57.471
-58.315
-59.137
-59.933
-60.695
-61.419
-62.099
-62.729
-63.303
-63.816
-64.264
-64.639
-64.938
-65.156
-65.288
-65.331
-65.281
-65.134
-64.889
-64.543
-64.093
-63.539
-62.879
-62.112
-61.238
-60.256
-59.167
-57.971
-56.67
-55.264
-53.756
-52.147
-50.442
-48.643
-46.754
-44.779
-42.724
-40.593
-38.392
-36.128
-33.809
-31.444
-29.043
-26.618
-24.18
-21.745
-19.325
-16.936
-14.593
-12.307
-10.095
-7.968
-5.943
-4.035
-2.261
-0.637
0.821
2.097
3.174
4.04
4.684
5.098
5.278
5.224
4.931
4.394
3.608
2.565
1.264
-0.289
-2.089
-4.126
-6.388
-8.854
-11.493
-14.266
-17.139
-20.082
-23.073
-26.09
-29.103
-32.066
-34.934
-37.659
-40.212
-42.588
-44.776
-46.743
-48.47
-49.944
-51.18
-52.274
-53.284
-54.193
-55.058
-55.986
-57.164
-58.955
-61.65
-65.269
-69.829
-75.371
-81.662
-88.39
-94.984
-100.275
-103.228
-103.373
-100.342
-93.99
-84.756
-73.178
-60.27
-48.061
-38.548
-33.071
-32.789
-38.531
-49.34
-63.074
-77.478
-88.902
-96.386
-102.264
-105.082
-101.433
-83.111
-36.93
41.3
148.614
275.407
406.253
534.338
657.667
774.411
880.992
964.538
1008.553
1000.278
935.535
819.802
665.59
489.772
309.443
142.543
5.397
-91.801
-147.566
-167.959
-162.56
-142.835
-115.385
-85.888
-62.595
-47.917
-43.551
-47.578
-51.15
-50.94
-46.892
-40.386
-36.966
-38.59
-43.721
-50.947
-57.731
-62.297
-64.498
-64.434
-62.364
-58.811
-54.364
-49.432
-44.516
-40.356
-37.411
-35.895
-35.94
-37.37
-39.89
-43.306
-47.292
-51.406
-55.336
-58.827
-61.712
-63.983
-65.639
-66.661
-67.085
-66.956
-66.322
-65.247
-63.777
-61.94
-59.781
-57.353
-54.725
-51.978
-49.189
-46.424
-43.733
-41.142
-38.668
-36.318
-34.086
-31.963
-29.932
-27.968
-26.05
-24.164
-22.293
-20.421
-18.528
-16.587
-14.572
-12.462
-10.234
-7.871
-5.354
-2.666
0.211
3.288
6.574
10.079
13.816
17.799
22.049
26.574
31.378
36.459
41.814
47.43
53.294
59.378
65.644
72.061
78.598
85.231
91.939
98.694
105.468
112.234
118.961
125.631
132.24
138.789
145.28
151.74
158.196
164.689
171.279
177.995
184.849
191.845
198.971
206.221
213.579
221.01
228.475
235.923
243.284
250.481
257.416
263.949
269.933
275.215
279.623
283.03
285.339
286.451
286.29
284.782
281.879
277.566
271.85
264.736
256.24
246.41
235.33
223.148
210.031
196.158
181.719
166.876
151.788
136.628
121.57
106.788
92.424
78.594
65.399
52.949
41.368
30.747
21.127
12.499
4.827
-1.932
-7.823
-12.889
-17.2
-20.845
-23.932
-26.577
-28.865
-30.866
-32.649
-34.294
-35.9
-37.548
-39.279
-41.107
-43.034
-45.06
-47.192
-49.431
-51.749
-54.102
-56.439
-58.697
-60.842
-62.851
-64.697
-66.357
-67.798
-69
-69.96
-70.694
-71.214
-71.534
-71.663
-71.611
-71.409
-71.09
-70.692
-70.253
-69.802
-69.358
-68.942
-68.571
-68.257
-68.011
-67.834
-67.721
-67.67
-67.68
-67.75
-67.881
-68.066
-68.298
-68.569
-68.871
-69.196
-69.541
-69.898
-70.263
-70.63
-70.999
-71.365
-71.729
-72.089
-72.441
-72.782
-73.108
-73.414
-73.698
-73.956
-74.184
-74.379
-74.538
-74.661
-74.746
-74.793
-74.801
-74.77
-74.7
-74.591
-74.444
-74.259
-74.036
-73.778
-73.485
-73.157
-72.798
-72.407
-71.987
-71.539
-71.064
-70.563
-70.038
-69.49
-68.921
-68.332
-67.724
-67.099
-66.46
-65.806
-65.142
-64.467
-63.783
-63.093
-62.396
-61.695
-60.989
-60.28
-59.567
-58.853
-58.137
-57.42
-56.703
-55.988
-55.274
-54.564
-53.859
-53.159
-52.467
-51.784
-51.111
-50.451
-49.804
-49.174
-48.561
-47.968
-47.397
-46.85
-46.33
-45.838
-45.376
-44.946
-44.551
-44.193
-43.873
-43.594
-43.358
-43.166
-43.021
-42.924
-42.877
-42.881
-42.938
-43.048
-43.212
-43.43
-43.701
-44.026
-44.403
-44.83
-45.306
-45.83
-46.398
-47.009
-47.659
-48.344
-49.061
-49.805
-50.572
-51.356
-52.151
-52.953
-53.755
-54.55
-55.332
-56.096
-56.834
-57.539
-58.206
-58.826
-59.393
-59.901
-60.342
-60.71
-61
-61.205
-61.321
-61.344
-61.269
-61.093
-60.814
-60.43
-59.938
-59.339
-58.633
-57.821
-56.904
-55.887
-54.774
-53.57
-52.281
-50.918
-49.489
-48.006
-46.482
-44.93
-43.364
-41.799
-40.25
-38.733
-37.261
-35.849
-34.512
-33.264
-32.121
-31.098
-30.213
-29.478
-28.909
-28.518
-28.317
-28.315
-28.516
-28.923
-29.538
-30.369
-31.425
-32.718
-34.252
-36.029
-38.049
-40.302
-42.771
-45.43
-48.235
-51.141
-54.108
-57.095
-60.074
-63.014
-65.88
-68.627
-71.2
-73.545
-75.616
-77.375
-78.784
-79.828
-80.529
-80.942
-81.17
-81.314
-81.444
-81.626
-81.939
-82.463
-83.289
-84.507
-86.157
-88.329
-91.19
-94.826
-99.223
-104.198
-109.308
-114.068
-118.072
-120.803
-121.627
-120.129
-116.185
-110.154
-102.988
-95.786
-89.502
-85.12
-83.854
-85.652
-88.843
-91.429
-90.407
-85.582
-80.17
-73.89
-63.973
-41.73
6.368
84.226
188.723
309.512
430.312
545.747
654.457
752.77
836.856
891.697
899.939
855.588
759.318
621.463
460.892
292.532
131.085
-6.913
-112.359
-180.891
-213.163
-218.086
-204.435
-178.311
-146.718
-116.627
-93.727
-81.949
-80.261
-81.79
-80.503
-74.632
-65.978
-59.563
-58.959
-64.012
-72.548
-81.771
-89.69
-95.232
-98.217
-98.908
-97.407
-94.078
-89.459
-83.896
-77.993
-72.649
-68.369
-65.408
-63.866
-63.494
-64.038
-65.319
-67.022
-68.751
-70.226
-71.266
-71.805
-71.926
-71.721
-71.26
-70.609
-69.799
-68.827
-67.687
-66.384
-64.923
-63.324
-61.621
-59.851
-58.061
-56.312
-54.648
-53.081
-51.595
-50.138
-48.645
-47.084
-45.454
-43.773
-42.063
-40.327
-38.56
-36.759
-34.925
-33.049
-31.109
-29.068
-26.887
-24.542
-22.024
-19.339
-16.496
-13.495
-10.315
-6.93
-3.31
0.573
4.738
9.199
13.974
19.069
24.475
30.175
36.137
42.318
48.685
55.207
61.864
68.649
75.547
82.536
89.597
96.707
103.855
111.048
118.278
125.533
132.808
140.097
147.421
154.828
162.348
169.995
177.763
185.611
193.498
201.383
209.2
216.868
224.288
231.333
237.908
243.948
249.383
254.145
258.143
261.259
263.395
264.481
264.455
263.283
260.948
257.44
252.805
247.133
240.531
233.128
225.023
216.273
206.946
197.112
186.843
176.22
165.329
154.249
143.084
131.96
120.975
110.209
99.699
89.43
79.388
69.555
59.93
50.533
41.39
32.531
24.004
15.882
8.205
0.995
-5.774
-12.177
-18.268
-24.073
-29.606
-34.853
-39.804
-44.456
-48.802
-52.831
-56.551
-59.981
-63.167
-66.191
-69.104
-71.929
-74.658
-77.243
-79.652
-81.875
-83.903
-85.728
-87.351
-88.769
-89.999
-91.073
-92.011
-92.82
-93.495
-94.009
-94.355
-94.54
-94.584
-94.519
-94.374
-94.167
-93.92
-93.658
-93.401
-93.161
-92.944
-92.737
-92.539
-92.35
-92.172
-92.015
-91.879
-91.764
-91.666
-91.582
-91.509
-91.442
-91.376
-91.304
-91.218
-91.117
-90.997
-90.861
-90.707
-90.535
-90.342
-90.127
-89.89
-89.629
-89.342
-89.026
-88.677
-88.296
-87.881
-87.432
-86.948
-86.431
-85.88
-85.297
-84.685
-84.045
-83.38
-82.693
-81.987
-81.265
-80.529
-79.784
-79.032
-78.277
-77.521
-76.767
-76.019
-75.28
-74.551
-73.836
-73.136
-72.455
-71.793
-71.153
-70.536
-69.945
-69.382
-68.847
-68.344
-67.874
-67.438
-67.037
-66.673
-66.345
-66.055
-65.803
-65.587
-65.409
-65.267
-65.16
-65.088
-65.049
-65.043
-65.068
-65.122
-65.205
-65.314
-65.45
-65.61
-65.793
-65.998
-66.224
-66.47
-66.735
-67.016
-67.314
-67.627
-67.954
-68.294
-68.645
-69.007
-69.377
-69.755
-70.139
-70.529
-70.924
-71.321
-71.721
-72.122
-72.525
-72.927
-73.329
-73.73
-74.131
-74.53
-74.928
-75.325
-75.72
-76.112
-76.502
-76.887
-77.269
-77.645
-78.014
-78.376
-78.728
-79.069
-79.397
-79.711
-80.008
-80.286
-80.544
-80.777
-80.984
-81.162
-81.307
-81.416
-81.486
-81.514
-81.495
-81.426
-81.304
-81.124
-80.882
-80.574
-80.196
-79.743
-79.212
-78.597
-77.896
-77.104
-76.22
-75.239
-74.16
-72.982
-71.702
-70.322
-68.84
-67.259
-65.578
-63.8
-61.928
-59.965
-57.916
-55.787
-53.585
-51.316
-48.993
-46.626
-44.228
-41.81
-39.388
-36.974
-34.582
-32.227
-29.923
-27.685
-25.526
-23.462
-21.507
-19.679
-17.994
-16.466
-15.106
-13.926
-12.933
-12.135
-11.537
-11.142
-10.956
-10.985
-11.237
-11.722
-12.445
-13.407
-14.607
-16.031
-17.662
-19.476
-21.434
-23.501
-25.64
-27.816
-29.995
-32.146
-34.22
-36.172
-37.957
-39.526
-40.852
-41.9
-42.613
-42.984
-43.028
-42.795
-42.4
-41.903
-41.304
-40.718
-40.351
-40.402
-41.112
-42.558
-44.618
-47.384
-51.059
-55.521
-60.369
-64.961
-68.448
-70.452
-71.017
-69.831
-66.478
-61.011
-54.044
-46.855
-40.981
-37.389
-36.503
-38.745
-44.598
-53.292
-62.067
-68.473
-70.395
-67.01
-59.935
-46.207
-18.911
28.577
102.347
199.062
307.968
419.014
524.045
623.875
722.25
817.022
901.24
957.539
967.515
923.026
821.785
674.621
503.082
326.417
167.824
47.563
-28.464
-59.164
-54.133
-33.118
-9.424
5.582
5.743
-4.246
-19.344
-32.992
-38.883
-36.997
-29.968
-22.333
-17.877
-16.672
-16.861
-15.844
-12.674
-8.345
-3.934
-0.15
3.018
5.782
7.917
9.074
9.356
9.287
9.306
9.474
9.422
8.815
7.623
5.974
3.954
1.5
-1.426
-4.658
-7.814
-10.554
-12.708
-14.226
-15.145
-15.474
-15.193
-14.341
-13.017
-11.321
-9.341
-7.131
-4.711
-2.125
0.56
3.272
5.934
8.494
10.929
13.226
15.381
17.403
19.302
21.1
22.826
24.503
26.147
27.777
29.406
31.054
32.748
34.513
36.381
38.378
40.53
42.861
45.389
48.127
51.089
54.287
57.734
61.45
65.45
69.741
74.329
79.213
84.391
89.856
95.59
101.557
107.725
114.059
120.537
127.153
133.897
140.749
147.695
154.711
161.788
168.941
176.172
183.476
190.852
198.296
205.828
213.5
221.345
229.38
237.592
245.935
254.361
262.829
271.276
279.63
287.79
295.619
303.007
309.873
316.125
321.685
326.441
330.243
332.98
334.572
334.97
334.173
332.181
328.994
324.658
319.246
312.868
305.675
297.785
289.284
280.267
270.824
261.071
251.156
241.198
231.281
221.48
211.845
202.428
193.284
184.432
175.859
167.533
159.4
151.43
143.624
135.977
128.488
121.148
113.934
106.84
99.883
93.073
86.423
79.943
73.632
67.513
61.618
55.987
50.66
45.666
41.015
36.718
32.78
29.203
25.987
23.123
20.589
18.37
16.451
14.818
13.459
12.355
11.482
10.816
10.334
10.014
9.834
9.776
9.818
9.944
10.138
10.387
10.68
11.004
11.347
11.696
12.039
12.366
12.666
12.929
13.147
13.313
13.42
13.465
13.445
13.359
13.205
12.983
12.697
12.347
11.937
11.471
10.953
10.388
9.783
9.144
8.478
7.793
7.094
6.391
5.689
4.997
4.32
3.665
3.038
2.444
1.89
1.38
0.919
0.512
0.162
-0.125
-0.348
-0.503
-0.589
-0.603
-0.546
-0.418
-0.219
0.05
0.387
0.789
1.254
1.779
2.359
2.99
3.668
4.386
5.139
5.92
6.725
7.545
8.376
9.21
10.042
10.865
11.675
12.466
13.232
13.969
14.671
15.335
15.957
16.533
17.06
17.534
17.954
18.318
18.624
18.871
19.06
19.189
19.259
19.271
19.225
19.123
18.968
18.761
18.507
18.207
17.867
17.49
17.08
16.642
16.18
15.699
15.202
14.694
14.178
13.658
13.139
12.622
12.112
11.611
11.121
10.646
10.186
9.742
9.317
8.909
8.52
8.148
7.794
7.457
7.136
6.83
6.537
6.254
5.981
5.714
5.45
5.186
4.919
4.645
4.361
4.063
3.749
3.415
3.059
2.678
2.272
1.838
1.374
0.88
0.356
-0.2
-0.786
-1.402
-2.045
-2.715
-3.409
-4.122
-4.853
-5.596
-6.347
-7.102
-7.856
-8.603
-9.339
-10.057
-10.752
-11.416
-12.044
-12.629
-13.164
-13.642
-14.058
-14.405
-14.677
-14.871
-14.982
-15.006
-14.941
-14.783
-14.532
-14.186
-13.746
-13.212
-12.586
-11.872
-11.073
-10.194
-9.241
-8.222
-7.145
-6.021
-4.862
-3.679
-2.486
-1.298
-0.128
1.007
2.093
3.115
4.059
4.911
5.656
6.281
6.767
7.103
7.273
7.267
7.072
6.681
6.084
5.279
4.265
3.041
1.605
-0.055
-1.947
-4.076
-6.442
-9.042
-11.865
-14.9
-18.124
-21.5
-24.99
-28.551
-32.145
-35.741
-39.31
-42.814
-46.204
-49.416
-52.39
-55.075
-57.434
-59.435
-61.062
-62.314
-63.227
-63.874
-64.324
-64.658
-64.949
-65.266
-65.712
-66.387
-67.386
-68.843
-70.919
-73.723
-77.29
-81.504
-86.048
-90.583
-94.758
-98.087
-100.038
-100.195
-98.331
-94.715
-90.212
-85.664
-81.819
-79.724
-80.206
-83.689
-90.526
-99.015
-106.175
-110.426
-109.274
-101.614
-86.912
-59.977
-16.686
45.672
127.43
221.419
320.309
419.146
515.769
611.061
701.142
776.453
822.935
826.799
783.85
697.674
577.641
437.767
289.625
145.488
20.506
-74.974
-134.697
-158.921
-157.967
-142.19
-120.677
-102.166
-89.47
-84.975
-89.323
-97.912
-107.591
-115.236
-119.537
-123.456
-128.432
-134.666
-141.288
-145.862
-147.524
-146.707
-144.129
-140.897
-137.728
-135.02
-133.301
-132.895
-133.856
-136.095
-139.382
-143.499
-148.292
-153.596
-159.217
-164.988
-170.761
-176.395
-181.767
-186.738
-191.196
-195.075
-198.337
-200.971
-202.985
-204.404
-205.275
-205.663
-205.63
-205.232
-204.525
-203.561
-202.405
-201.128
-199.802
-198.497
-197.263
-196.133
-195.132
-194.274
-193.562
-192.995
-192.556
-192.228
-191.995
-191.847
-191.774
-191.768
-191.814
-191.898
-192.004
-192.117
-192.225
-192.313
-192.369
-192.383
-192.344
-192.245
-192.079
-191.837
-191.514
-191.1
-190.585
-189.96
-189.216
-188.344
-187.338
-186.188
-184.889
-183.436
-181.826
-180.054
-178.12
-176.023
-173.763
-171.34
-168.756
-166.014
-163.117
-160.07
-156.876
-153.543
-150.076
-146.483
-142.77
-138.947
-135.023
-131.006
-126.907
-122.736
-118.501
-114.213
-109.881
-105.516
-101.127
-96.723
-92.314
-87.91
-83.52
-79.153
-74.82
-70.527
-66.281
-62.09
-57.959
-53.897
-49.912
-46.007
-42.183
-38.455
-34.833
-31.328
