Name
Date of Birth,"Mar 27, 1959"
Recorded Date,2022-07-18 14:06:09 -0500
Classification,Sinus Rhythm
Symptoms,
Software Version,1.90
Device,"Watch4,2"
Sample Rate,510.227 hertz


Lead,Lead I
Unit,µV

12.158
12.822
13.692
14.753
15.99
17.385
18.917
20.564
22.303
24.108
25.959
27.833
29.708
31.559
33.364
35.101
36.753
38.303
39.731
41.017
42.136
43.069
43.8
44.321
44.626
44.703
44.541
44.125
43.449
42.514
41.322
39.874
38.164
36.187
33.952
31.486
28.822
25.995
23.032
19.944
16.743
13.456
10.131
6.833
3.626
0.538
-2.429
-5.283
-8.007
-10.546
-12.838
-14.897
-16.84
-18.744
-20.511
-21.857
-22.458
-22.193
-21.283
-20.074
-18.632
-16.976
-15.443
-14.781
-16.072
-20.113
-26.628
-34.603
-43.279
-51.993
-59.897
-65.833
-67.914
-64.365
-55.118
-41.473
-24.891
-6.966
10.955
27.691
41.195
49.266
51.303
48.071
40.954
31.828
21.967
12.075
3.429
-2.499
-5.092
-4.466
-1.416
2.69
7.04
11.369
15.252
18.236
20.043
20.522
19.897
18.725
17.308
15.7
13.918
11.905
9.666
7.285
4.758
2.01
-0.992
-4.251
-7.729
-11.339
-15.026
-18.77
-22.554
-26.377
-30.226
-34.075
-37.901
-41.685
-45.414
-49.086
-52.694
-56.23
-59.689
-63.064
-66.351
-69.555
-72.675
-75.705
-78.637
-81.46
-84.166
-86.75
-89.209
-91.542
-93.744
-95.811
-97.741
-99.532
-101.183
-102.692
-104.056
-105.271
-106.336
-107.248
-108.008
-108.614
-109.065
-109.36
-109.496
-109.474
-109.293
-108.951
-108.448
-107.784
-106.958
-105.973
-104.83
-103.53
-102.077
-100.474
-98.728
-96.842
-94.823
-92.68
-90.421
-88.058
-85.605
-83.076
-80.484
-77.847
-75.18
-72.501
-69.828
-67.172
-64.55
-61.976
-59.464
-57.035
-54.706
-52.491
-50.406
-48.466
-46.682
-45.069
-43.635
-42.378
-41.303
-40.412
-39.714
-39.23
-38.979
-38.967
-39.203
-39.686
-40.409
-41.365
-42.532
-43.865
-45.321
-46.857
-48.435
-50.035
-51.622
-53.144
-54.541
-55.73
-56.639
-57.22
-57.418
-57.203
-56.585
-55.594
-54.297
-52.785
-51.117
-49.357
-47.591
-45.861
-44.189
-42.585
-41.105
-39.946
-39.337
-39.418
-40.126
-41.274
-42.783
-44.489
-45.855
-46.102
-44.351
-40.833
-37.673
-36.821
-38.496
-39.666
-33.901
-16.893
8.469
32.372
40.206
19.817
-26.178
-81.759
-122.698
-121.356
-66.652
34.449
165.457
301.612
429.237
549.585
666.389
783.257
892.987
975.944
1014.641
1000.007
934.804
832.365
705.683
565.565
421.209
283.195
167.623
86.247
43.51
33.31
38.417
46.358
51.167
52.751
57.487
66.824
77.807
87.582
92.456
91.711
87.349
80.907
74.002
68.266
64.751
64.055
66.24
70.706
76.517
82.876
89.132
94.617
98.751
101.188
101.803
100.698
98.131
94.351
89.573
84.028
77.949
71.543
65.011
58.558
52.374
46.614
41.396
36.801
32.873
29.647
27.142
25.336
24.188
23.647
23.657
24.172
25.15
26.524
28.22
30.154
32.235
34.404
36.618
38.843
41.061
43.256
45.421
47.562
49.697
51.832
53.968
56.102
58.224
60.335
62.434
64.522
66.597
68.655
70.686
72.684
74.638
76.537
78.365
80.105
81.739
83.253
84.633
85.869
86.95
87.867
88.61
89.171
89.544
89.72
89.691
89.45
88.99
88.305
87.389
86.239
84.851
83.223
81.355
79.248
76.903
74.324
71.515
68.48
65.226
61.76
58.089
54.222
50.168
45.937
41.54
36.989
32.294
27.469
22.525
17.476
12.334
7.111
1.819
-3.529
-8.921
-14.347
-19.794
-25.251
-30.707
-36.153
-41.578
-46.973
-52.332
-57.647
-62.913
-68.127
-73.287
-78.393
-83.45
-88.461
-93.431
-98.368
-103.277
-108.167
-113.046
-117.919
-122.792
-127.672
-132.565
-137.482
-142.434
-147.43
-152.478
-157.585
-162.757
-168.002
-173.324
-178.719
-184.181
-189.713
-195.317
-201.01
-206.81
-212.717
-218.735
-224.86
-231.078
-237.37
-243.71
-250.041
-256.312
-262.47
-268.47
-274.284
-279.882
-285.211
-290.211
-294.804
-298.918
-302.519
-305.578
-308.066
-309.999
-311.411
-312.384
-313.061
-313.56
-313.984
-314.456
-315.088
-316.015
-317.409
-319.4
-322.147
-325.867
-330.626
-336.353
-342.825
-349.539
-355.929
-361.515
-365.716
-367.858
-367.559
-364.825
-360.229
-354.953
-350.234
-347.015
-345.923
-347.614
-352.664
-360.608
-369.562
-376.885
-378.226
-369.426
-348.934
-313.883
-263.414
-199.771
-122.692
-34.505
62.479
170.255
288.934
416.368
545.445
661.118
741.697
765.621
721.23
606.356
435.396
236.561
35.969
-138.054
-266.665
-349.728
-390.731
-404.485
-408.515
-407.626
-407.624
-408.164
-405.235
-403.338
-402.451
-402.791
-406.265
-409.817
-414.475
-421.373
-429.262
-438.121
-445.493
-449.299
-449.663
-446.824
-441.759
-435.631
-429.035
-422.679
-417.402
-413.641
-411.534
-411.026
-411.879
-413.875
-416.857
-420.622
-424.909
-429.523
-434.32
-439.15
-443.885
-448.367
-452.405
-455.878
-458.714
-460.863
-462.315
-463.08
-463.176
-462.653
-461.581
-460.021
-458.034
-455.678
-453.004
-450.079
-446.975
-443.764
-440.519
-437.291
-434.107
-430.989
-427.941
-424.957
-422.026
-419.129
-416.238
-413.332
-410.396
-407.418
-404.388
-401.295
-398.124
-394.866
-391.509
-388.046
-384.474
-380.792
-377.002
-373.109
-369.121
-365.047
-360.902
-356.696
-352.441
-348.148
-343.827
-339.491
-335.153
-330.826
-326.524
-322.262
-318.057
-313.926
-309.887
-305.958
-302.156
-298.499
-295.004
-291.688
-288.566
-285.653
-282.963
-280.509
-278.302
-276.352
-274.667
-273.253
-272.115
-271.257
-270.68
-270.382
-270.362
-270.615
-271.135
-271.916
-272.947
-274.22
-275.722
-277.44
-279.36
-281.468
-283.747
-286.181
-288.752
-291.441
-294.229
-297.098
-300.028
-302.999
-305.993
-308.99
-311.973
-314.923
-317.826
-320.663
-323.421
-326.087
-328.647
-331.09
-333.406
-335.587
-337.625
-339.514
-341.249
-342.826
-344.243
-345.498
-346.591
-347.522
-348.294
-348.909
-349.37
-349.681
-349.847
-349.874
-349.769
-349.537
-349.186
-348.724
-348.157
-347.495
-346.745
-345.915
-345.013
-344.047
-343.024
-341.952
-340.837
-339.687
-338.507
-337.302
-336.079
-334.843
-333.596
-332.344
-331.091
-329.839
-328.591
-327.351
-326.119
-324.9
-323.692
-322.499
-321.32
-320.157
-319.008
-317.874
-316.755
-315.649
-314.555
-313.471
-312.397
-311.33
-310.267
-309.208
-308.149
-307.087
-306.021
-304.947
-303.864
-302.767
-301.655
-300.524
-299.372
-298.197
-296.995
-295.764
-294.5
-293.201
-291.862
-290.482
-289.057
-287.583
-286.056
-284.475
-282.834
-281.132
-279.366
-277.531
-275.626
-273.649
-271.597
-269.468
-267.26
-264.972
-262.603
-260.152
-257.618
-255.002
-252.303
-249.521
-246.658
-243.715
-240.692
-237.592
-234.416
-231.167
-227.847
-224.46
-221.009
-217.498
-213.932
-210.316
-206.655
-202.955
-199.223
-195.465
-191.69
-187.903
-184.113
-180.327
-176.554
-172.802
-169.078
-165.391
-161.749
-158.16
-154.631
-151.171
-147.786
-144.484
-141.271
-138.153
-135.136
-132.224
-129.423
-126.736
-124.167
-121.718
-119.392
-117.19
-115.112
-113.158
-111.327
-109.617
-108.023
-106.542
-105.167
-103.892
-102.709
-101.609
-100.582
-99.619
-98.708
-97.838
-96.996
-96.169
-95.344
-94.507
-93.643
-92.738
-91.778
-90.749
-89.637
-88.43
-87.116
-85.682
-84.118
-82.413
-80.56
-78.549
-76.375
-74.029
-71.51
-68.813
-65.938
-62.884
-59.656
-56.259
-52.704
-49.001
-45.165
-41.21
-37.155
-33.019
-28.823
-24.586
-20.328
-16.068
-11.83
-7.637
-3.516
0.506
4.404
8.155
11.732
15.114
18.278
21.205
23.886
26.309
28.461
30.318
31.848
33.023
33.825
34.237
34.255
33.879
33.109
31.97
30.503
28.757
26.783
24.621
22.3
19.859
17.349
14.844
12.442
10.227
8.266
6.612
5.298
4.346
3.759
3.492
3.464
3.568
3.675
3.673
3.442
2.853
1.801
0.093
-2.536
-6.244
-11.075
-16.862
-23.163
-29.538
-35.63
-40.916
-44.763
-46.671
-46.344
-44.21
-41.462
-39.317
-38.803
-40.714
-45.596
-53.781
-65.172
-78.253
-89.982
-96.774
-94.997
-81.391
-53.054
-7.289
58.407
143.472
243.196
352.29
465.051
579.219
698.11
821.036
940.522
1042.978
1107.281
1116.881
1068.741
968.581
830.173
671.174
504.49
343.12
203.508
97.948
33.044
7.226
6.412
14.234
21.197
23.16
22.807
25.179
29.845
34.39
36.42
33.223
25.113
14.274
2.419
-8.401
-16.353
-20.909
-22.11
-20.311
-16.443
-11.458
-6.077
-1.128
2.592
4.721
5.135
3.881
1.238
-2.559
-7.322
-12.801
-18.745
-24.955
-31.233
-37.399
-43.292
-48.715
-53.509
-57.575
-60.839
-63.28
-64.898
-65.702
-65.736
-65.064
-63.749
-61.856
-59.445
-56.571
-53.307
-49.737
-45.948
-42.03
-38.05
-34.05
-30.064
-26.108
-22.186
-18.298
-14.426
-10.545
-6.637
-2.688
1.312
5.37
9.5
13.718
18.04
22.482
27.057
31.776
36.649
41.682
46.88
52.246
57.777
63.47
69.322
75.332
81.498
87.819
94.291
100.91
107.669
114.563
121.583
128.717
135.952
143.273
150.664
158.106
165.58
173.066
180.54
187.98
195.362
202.661
209.851
216.905
223.798
230.501
236.987
243.23
249.204
254.881
260.237
265.247
269.89
274.145
277.99
281.41
284.387
286.908
288.96
290.532
291.617
292.209
292.303
291.898
290.997
289.601
287.718
285.355
282.524
279.236
275.509
271.357
266.8
261.859
256.556
250.914
244.96
238.719
232.22
225.492
218.564
211.466
204.229
196.881
189.454
181.977
174.478
166.987
159.529
152.133
144.824
137.625
130.56
123.65
116.916
110.376
104.047
97.944
92.081
86.469
81.119
76.039
71.236
66.714
62.476
58.524
54.858
51.476
48.374
45.547
42.988
40.689
38.64
36.832
35.252
33.888
32.727
31.756
30.96
30.324
29.835
29.477
29.235
29.094
29.041
29.059
29.136
29.258
29.41
29.581
29.758
29.928
30.082
30.207
30.294
30.333
30.315
30.233
30.08
29.848
29.534
29.132
28.64
28.054
27.375
26.601
25.733
24.774
23.725
22.591
21.376
20.085
18.725
17.302
15.824
14.299
12.735
11.143
9.531
7.911
6.293
4.688
3.108
1.566
0.073
-1.356
-2.708
-3.97
-5.128
-6.168
-7.077
-7.842
-8.448
-8.884
-9.137
-9.196
-9.049
-8.688
-8.102
-7.285
-6.229
-4.931
-3.385
-1.591
0.454
2.747
5.286
8.067
11.085
14.332
17.8
21.477
25.353
29.411
33.638
38.013
42.516
47.123
51.809
56.547
61.309
66.066
70.788
75.444
80.006
84.447
88.738
92.849
96.751
100.412
103.803
106.898
109.671
112.1
114.161
115.838
117.121
118.002
118.473
118.521
118.125
117.265
115.933
114.121
111.827
109.062
105.839
102.185
98.147
93.775
89.121
84.232
79.145
73.903
68.559
63.18
57.851
52.655
47.656
42.914
38.48
34.374
30.592
27.09
23.783
20.603
17.471
14.294
10.972
7.378
3.391
-1.088
-6.217
-12.209
-19.184
-27.135
-35.818
-44.705
-53.297
-61.156
-67.709
-72.303
-74.459
-74.065
-71.774
-68.945
-66.791
-66.214
-68.247
-73.758
-83.17
-96.356
-110.293
-120.757
-125.479
-121.098
-106.646
-81.761
-39.562
22.976
105.927
209.828
325.406
446.065
571.68
697.042
817.153
921.981
991.755
1010.176
971.12
877.01
739.618
576.63
402.835
232.771
84.46
-29.161
-102.937
-137.755
-145.574
-139.934
-124.594
-104.161
-82.215
-60.246
-47.986
-48.67
-56.597
-68.173
-76.01
-76.831
-75.355
-73.17
-70.919
-68.782
-64.115
-56.198
-46.172
-34.913
-23.557
-13.089
-3.997
3.413
8.92
12.607
14.803
15.752
15.649
14.714
13.138
11.111
8.867
6.603
4.479
2.682
1.352
0.582
0.44
0.944
2.083
3.827
6.117
8.88
12.041
15.535
19.298
23.265
27.357
31.487
35.567
39.513
43.265
46.786
50.047
53.04
55.766
58.235
60.474
62.511
64.371
66.071
67.628
69.057
70.377
71.608
72.773
73.889
74.976
76.046
77.113
78.189
79.28
80.391
81.524
82.681
83.862
85.071
86.31
87.58
88.884
90.219
91.585
92.98
94.399
95.838
97.289
98.742
100.188
101.616
103.014
104.371
105.672
106.903
108.052
109.102
110.04
110.851
111.519
112.031
112.371
112.528
112.486
112.235
111.763
111.06
110.119
108.932
107.494
105.801
103.852
101.644
99.181
96.463
93.494
90.279
86.824
83.138
79.231
75.113
70.796
66.294
61.623
56.796
51.833
46.749
41.563
36.295
30.963
25.587
20.187
14.785
9.399
4.051
-1.24
-6.453
-11.571
-16.574
-21.445
-26.169
-30.73
-35.116
-39.312
-43.31
-47.097
-50.667
-54.011
-57.122
-59.997
-62.63
-65.02
-67.165
-69.066
-70.723
-72.141
-73.322
-74.273
-75
-75.51
-75.813
-75.918
-75.837
-75.58
-75.162
-74.597
-73.898
-73.081
-72.163
-71.16
-70.087
-68.962
-67.8
-66.619
-65.432
-64.257
-63.108
-61.999
-60.946
-59.961
-59.057
-58.248
-57.545
-56.959
-56.501
-56.178
-55.999
-55.971
-56.099
-56.389
-56.844
-57.466
-58.255
-59.21
-60.331
-61.614
-63.054
-64.643
-66.376
-68.241
-70.23
-72.33
-74.53
-76.815
-79.173
-81.588
-84.046
-86.529
-89.022
-91.508
-93.968
-96.385
-98.742
-101.022
-103.205
-105.274
-107.213
-109.004
-110.631
-112.079
-113.332
-114.377
-115.2
-115.79
-116.136
-116.231
-116.066
-115.635
-114.936
-113.967
-112.729
-111.223
-109.454
-107.428
-105.151
-102.635
-99.89
-96.93
-93.768
-90.421
-86.91
-83.256
-79.483
-75.615
-71.677
-67.696
-63.699
-59.713
-55.763
-51.873
-48.069
-44.376
-40.822
-37.435
-34.241
-31.265
-28.528
-26.05
-23.852
-21.948
-20.345
-19.045
-18.054
-17.384
-17.052
-17.077
-17.466
-18.222
-19.345
-20.824
-22.645
-24.784
-27.194
-29.832
-32.655
-35.627
-38.725
-41.923
-45.174
-48.419
-51.589
-54.608
-57.427
-59.997
-62.265
-64.216
-65.863
-67.246
-68.446
-69.514
-70.491
-71.442
-72.444
-73.586
-74.989
-76.741
-78.96
-81.876
-85.585
-90.022
-94.96
-99.841
-104.063
-107.209
-108.768
-108.109
-105.014
-99.712
-93.002
-86.588
-82.13
-80.67
-83.166
-90.403
-102.327
-117.888
-134.694
-148.7
-155.78
-152.355
-134.894
-100.291
-46.112
27.082
114.799
211.328
310.273
409.066
511.182
615.881
717.331
804.249
854.333
850.232
786.398
664.106
500.559
320.2
143.973
-5.167
-112.433
-174.757
-194.245
-182.901
-154.166
-118.582
-87.062
-64.163
-53.299
-54.699
-61.439
-68.782
-72.173
-70.331
-68.165
-68.262
-71.284
-76.107
-79.218
-79.166
-76.334
-71.491
-65.861
-60.165
-54.745
-50.167
-46.827
-44.832
-44.081
-44.306
-45.283
-46.86
-48.892
-51.201
-53.601
-55.945
-58.106
-59.971
-61.452
-62.477
-63.003
-63.02
-62.532
-61.554
-60.128
-58.312
-56.166
-53.755
-51.126
-48.323
-45.403
-42.432
-39.479
-36.622
-33.911
-31.379
-29.051
-26.941
-25.055
-23.391
-21.932
-20.651
-19.527
-18.543
-17.683
-16.938
-16.287
-15.71
-15.184
-14.689
-14.207
-13.722
-13.217
-12.677
-12.091
-11.45
-10.748
-9.982
-9.147
-8.238
-7.25
-6.18
-5.025
-3.786
-2.464
-1.058
0.427
1.985
3.607
5.285
7.006
8.759
10.531
12.306
14.071
15.808
17.502
19.136
20.693
22.155
23.504
24.725
25.8
26.714
27.453
28.003
28.351
28.486
28.4
28.084
27.533
26.743
25.71
24.434
22.916
21.159
19.167
16.947
14.507
11.857
9.009
5.977
2.776
-0.579
-4.069
-7.676
-11.381
-15.164
-19.004
-22.879
-26.77
-30.654
-34.511
-38.319
-42.06
-45.712
-49.259
-52.682
-55.966
-59.095
-62.055
-64.835
-67.424
-69.813
-71.995
-73.964
-75.715
-77.247
-78.558
-79.649
-80.523
-81.184
-81.638
-81.89
-81.951
-81.828
-81.534
-81.079
-80.478
-79.743
-78.889
-77.931
-76.885
-75.767
-74.591
-73.375
-72.134
-70.882
-69.636
-68.409
-67.215
-66.066
-64.976
-63.955
-63.013
-62.159
-61.403
-60.749
-60.206
-59.777
-59.465
-59.273
-59.202
-59.252
-59.422
-59.708
-60.108
-60.617
-61.228
-61.935
-62.73
-63.604
-64.547
-65.548
-66.596
-67.68
-68.788
-69.906
-71.022
-72.125
-73.201
-74.239
-75.225
-76.148
-76.996
-77.758
-78.422
-78.979
-79.418
-79.729
-79.903
-79.934
-79.814
-79.535
-79.094
-78.484
-77.702
-76.746
-75.613
-74.304
-72.818
-71.156
-69.322
-67.321
-65.157
-62.836
-60.366
-57.756
-55.016
-52.156
-49.188
-46.123
-42.974
-39.755
-36.48
-33.165
-29.825
-26.476
-23.136
-19.826
-16.565
-13.375
-10.277
-7.29
-4.437
-1.737
0.79
3.129
5.267
7.189
8.879
10.321
11.501
12.406
13.026
13.354
13.382
13.105
12.521
11.643
10.474
9.022
7.282
5.239
2.886
0.225
-2.741
-6.001
-9.538
-13.334
-17.354
-21.541
-25.843
-30.209
-34.6
-38.998
-43.364
-47.647
-51.782
-55.682
-59.281
-62.541
-65.416
-67.879
-69.93
-71.583
-72.895
-73.973
-74.887
-75.704
-76.508
-77.358
-78.363
-79.662
-81.398
-83.781
-86.975
-91.021
-95.795
-100.921
-105.88
-110.173
-113.273
-114.569
-113.599
-110.128
-104.722
-98.994
-94.523
-92.779
-94.141
-97.468
-103.379
-112.995
-127.206
-148.11
-171.366
-187.265
-186.429
-157.195
-95.911
-10.825
88.062
189.232
285.135
379.398
477.784
578.991
676.022
753.478
791.326
780.589
722.331
623.963
499.659
361.752
219.529
85.434
-26.085
-105.413
-148.362
-160.872
-158.917
-153.799
-150.918
-150.256
-145.767
-136.091
-124.311
-113.491
-107.298
-106.6
-109.632
-114.929
-120.998
-126.244
-129.464
-129.956
-127.568
-122.779
-116.464
-109.36
-102.055
-95.202
-89.41
-85.044
-82.251
-80.945
-80.875
-81.814
-83.579
-85.974
-88.803
-91.893
-95.075
-98.18
-101.047
-103.549
-105.592
-107.113
-108.079
-108.467
-108.27
-107.517
-106.262
-104.56
-102.465
-100.022
-97.265
-94.252
-91.047
-87.724
-84.36
-81.008
-77.699
-74.457
-71.294
-68.215
-65.217
-62.28
-59.375
-56.478
-53.575
-50.654
-47.707
-44.719
-41.675
-38.56
-35.359
-32.063
-28.665
-25.159
-21.539
-17.805
-13.959
-10.008
-5.958
-1.817
2.41
6.717
11.097
15.544
20.048
24.601
29.192
33.81
38.442
43.073
47.686
52.266
56.796
61.258
65.635
69.908
74.06
78.073
81.93
85.614
89.108
92.397
95.464
98.297
100.883
103.208
105.262
107.035
108.519
109.708
110.596
111.18
111.457
111.427
111.091
110.452
109.515
108.284
106.768
104.975
102.916
100.602
98.049
95.269
92.28
89.097
85.739
82.224
78.572
74.8
70.93
66.98
62.97
58.921
54.852
50.783
46.731
42.717
38.758
34.872
31.075
27.384
23.814
20.378
17.089
13.96
11
8.218
5.623
3.22
1.017
-0.984
-2.779
-4.367
-5.747
-6.921
-7.889
-8.656
-9.224
-9.6
-9.789
-9.799
-9.636
-9.309
-8.826
-8.198
-7.434
-6.545
-5.543
-4.439
-3.247
-1.978
-0.646
0.735
2.152
3.591
5.039
6.481
7.905
9.299
10.65
11.945
13.174
14.325
15.388
16.353
17.21
17.952
18.57
19.057
19.408
19.616
19.678
19.59
19.348
18.951
18.397
17.685
16.818
15.796
14.622
13.301
11.838
10.24
8.515
6.672
4.722
2.677
0.549
-1.649
-3.902
-6.195
-8.515
-10.844
-13.168
-15.469
-17.73
-19.935
-22.068
-24.11
-26.047
-27.861
-29.537
-31.061
-32.418
-33.594
-34.577
-35.354
-35.915
-36.251
-36.352
-36.212
-35.826
-35.19
-34.303
-33.167
-31.784
-30.161
-28.305
-26.228
-23.944
-21.468
-18.819
-16.016
-13.079
-10.03
-6.891
-3.685
-0.433
2.841
6.114
9.36
12.552
15.661
18.662
21.528
24.235
26.758
29.078
31.177
33.042
34.66
36.011
37.07
37.812
38.222
38.288
38.006
37.377
36.417
35.152
33.629
31.893
29.994
27.972
25.855
23.681
21.486
19.325
17.271
15.384
13.713
12.298
11.17
10.345
9.801
9.47
9.238
9.003
8.691
8.238
7.574
6.594
5.181
3.211
0.598
-2.755
-7.019
-12.232
-18.29
-24.904
-31.482
-37.399
-42.176
-45.282
-46.101
-44.399
-40.299
-34.399
-28.082
-22.596
-18.672
-17.012
-18.154
-21.983
-27.624
-33.064
-34.946
-30.016
-15.532
11.208
52.488
110.13
183.758
269.652
362.789
457.785
551.594
645.517
738.852
826.233
898.795
941.544
940.879
893.396
800.742
671.599
523.729
371.247
230.198
118.564
40.115
-4.334
-20.153
-22.412
-15.149
-2.56
9.371
21.222
25.892
19.953
8.982
-4.075
-13.15
-15.475
-15.796
-16.466
-18.705
-22.223
-23.993
-22.928
-19.647
-14.956
-9.974
-5.328
-1.264
1.772
3.402
3.517
2.228
-0.223
-3.612
-7.779
-12.583
-17.841
-23.34
-28.89
-34.302
-39.398
-44.046
-48.147
-51.631
-54.467
-56.635
-58.132
-58.992
-59.275
-59.039
-58.343
-57.232
-55.746
-53.944
-51.898
-49.685
-47.386
-45.057
-42.73
-40.429
-38.168
-35.95
-33.773
-31.617
-29.451
-27.253
-25.009
-22.705
-20.337
-17.89
-15.348
-12.698
-9.927
-7.027
-3.991
-0.817
2.499
5.955
9.545
13.261
17.09
21.022
25.049
29.158
33.341
37.583
41.873
46.195
50.535
54.876
59.2
63.486
67.713
71.859
75.904
79.823
83.595
87.197
90.607
93.805
96.768
99.478
101.915
104.06
105.899
107.415
108.596
109.429
109.906
110.018
109.759
109.127
108.119
106.734
104.975
102.846
100.353
97.502
94.305
90.771
86.914
82.748
78.29
73.558
68.571
63.35
57.916
52.291
46.498
40.562
34.505
28.351
22.124
15.848
9.546
3.24
-3.048
-9.297
-15.488
-21.603
-27.622
-33.531
-39.314
-44.956
-50.445
-55.769
-60.917
-65.88
-70.649
-75.217
-79.579
-83.729
-87.665
-91.383
-94.883
-98.164
-101.225
-104.07
-106.699
-109.116
-111.324
-113.328
-115.134
-116.746
-118.171
-119.416
-120.487
-121.391
-122.134
-122.724
-123.167
-123.469
-123.637
-123.678
-123.598
-123.405
-123.104
-122.705
-122.212
-121.634
-120.977
-120.249
-119.456
-118.605
-117.705
-116.76
-115.779
-114.768
-113.734
-112.684
-111.624
-110.561
-109.499
-108.445
-107.403
-106.379
-105.375
-104.396
-103.445
-102.526
-101.642
-100.795
-99.987
-99.22
-98.495
-97.814
-97.176
-96.581
-96.028
-95.514
-95.037
-94.594
-94.182
-93.794
-93.427
-93.075
-92.73
-92.388
-92.04
-91.68
-91.3
-90.892
-90.449
-89.964
-89.429
-88.839
-88.185
-87.463
-86.668
-85.795
-84.841
-83.802
-82.676
-81.461
-80.158
-78.766
-77.288
-75.727
-74.085
-72.369
-70.586
-68.742
-66.847
-64.911
-62.947
-60.971
-59.001
-57.053
-55.148
-53.304
-51.542
-49.882
-48.345
-46.944
-45.694
-44.612
-43.712
-43.014
-42.534
-42.285
-42.28
-42.53
-43.045
-43.834
-44.898
-46.229
-47.822
-49.674
-51.789
-54.186
-56.873
-59.85
-63.117
-66.665
-70.477
-74.535
-78.801
-83.215
-87.719
-92.261
-96.799
-101.309
-105.751
-110.067
-114.189
-118.029
-121.516
-124.601
-127.226
-129.358
-130.997
-132.165
-132.924
-133.369
-133.573
-133.622
-133.625
-133.649
-133.793
-134.162
-134.879
-136.206
-138.326
-141.216
-144.686
-148.315
-151.595
-154.114
-155.353
-154.509
-151.08
-145.184
-137.574
-129.773
-123.277
-119.327
-119.298
-124.433
-135.468
-150.777
-166.128
-178.056
-183.56
-181.446
-173.415
-154.437
-116.558
-55.842
33.301
146.59
272.807
408.617
546.799
678.102
794.533
877.373
908.771
883.199
801.587
674.815
521.784
357.425
196.763
57.554
-48.3
-114.615
-142.982
-147.29
-143.27
-139.696
-139.249
-137.355
-127.962
-111.528
-92.216
-74.753
-62.964
-57.2
-56.044
-58.769
-64.749
-72.842
-81.321
-88.288
-92.78
-94.796
-94.711
-92.666
-88.356
-81.825
-73.891
-65.726
-58.166
-51.564
-45.945
-41.282
-37.814
-35.683
-34.662
-34.332
-34.279
-34.24
-34.141
-33.969
-33.672
-33.247
-32.734
-32.183
-31.643
-31.086
-30.42
-29.581
-28.529
-27.24
-25.73
-24.001
-22.069
-19.981
-17.773
-15.469
-13.057
-10.469
-7.643
-4.564
-1.237
2.295
5.961
9.727
13.56
17.417
21.28
25.134
28.972
32.816
36.685
40.583
44.499
48.397
52.242
56.025
59.748
63.425
67.089
70.758
74.447
78.182
81.975
85.832
89.753
93.723
97.717
101.723
105.73
109.73
113.718
117.681
121.602
125.464
129.244
132.921
136.472
139.87
143.092
146.116
148.922
151.494
153.82
155.887
157.679
159.185
160.392
161.287
161.862
162.105
162.007
161.561
160.762
159.607
158.097
156.232
154.016
151.452
148.549
145.315
141.761
137.898
133.741
129.307
124.611
119.674
114.515
109.157
103.621
97.932
92.113
86.189
80.185
74.126
68.037
61.941
55.863
49.826
43.852
37.965
32.184
26.53
21.024
15.682
10.523
5.561
0.811
-3.715
-8.005
-12.052
-15.847
-19.384
-22.66
-25.672
-28.418
-30.899
-33.118
-35.078
-36.784
-38.242
-39.46
-40.447
-41.213
-41.768
-42.124
-42.294
-42.291
-42.127
-41.818
-41.376
-40.816
-40.152
-39.4
-38.574
-37.688
-36.756
-35.794
-34.814
-33.831
-32.858
-31.907
-30.99
-30.118
-29.3
-28.548
-27.869
-27.272
-26.764
-26.351
-26.039
-25.832
-25.736
-25.752
-25.884
-26.132
-26.496
-26.978
-27.575
-28.285
-29.106
-30.034
-31.065
-32.194
-33.415
-34.722
-36.107
-37.561
-39.077
-40.644
-42.252
-43.889
-45.543
-47.204
-48.858
-50.495
-52.102
-53.668
-55.179
-56.624
-57.992
-59.27
-60.448
-61.513
-62.455
-63.263
-63.929
-64.445
-64.802
-64.994
-65.014
-64.86
-64.527
-64.014
-63.32
-62.445
-61.392
-60.166
-58.772
-57.217
-55.513
-53.67
-51.705
-49.637
-47.483
-45.264
-43.002
-40.72
-38.44
-36.185
-33.975
-31.831
-29.774
-27.825
-26.008
-24.35
-22.873
-21.598
-20.545
-19.734
-19.185
-18.912
-18.921
-19.216
-19.805
-20.699
-21.922
-23.494
-25.424
-27.714
-30.366
-33.364
-36.693
-40.32
-44.188
-48.24
-52.419
-56.671
-60.964
-65.262
-69.507
-73.629
-77.543
-81.166
-84.449
-87.346
-89.813
-91.845
-93.462
-94.726
-95.754
-96.64
-97.466
-98.335
-99.344
-100.6
-102.241
-104.378
-107.155
-110.817
-115.448
-120.965
-127.139
-133.425
-139.236
-144.131
-147.493
-148.537
-146.885
-142.614
-136.346
-129.586
-123.811
-119.928
-118.857
-121.551
-128.254
-138.142
-149.175
-157.745
-159.703
-151.503
-129.788
-90.817
-32.725
42.906
133.25
233.72
341.351
458.549
585.231
714.861
833.755
919.843
954.658
932.222
857.846
746.895
614.294
468.611
316.836
166.915
32.105
-71.222
-132.763
-154.035
-146.578
-126.178
-107.299
-95.217
-90.084
-91.301
-94.522
-98.628
-103.647
-107.688
-112.883
-120.135
-128.372
-137.398
-144.684
-148.342
-148.579
-145.681
-140.603
-134.417
-127.643
-120.829
-114.619
-109.35
-105.089
-101.787
-99.289
-97.447
-96.194
-95.427
-94.954
-94.652
-94.443
-94.231
-93.942
-93.49
-92.771
-91.769
-90.544
-89.14
-87.609
-85.969
-84.195
-82.259
-80.122
-77.748
-75.127
-72.254
-69.134
-65.797
-62.283
-58.624
-54.854
-50.958
-46.877
-42.561
-37.971
-33.093
-27.952
-22.594
-17.085
-11.489
-5.863
-0.252
5.312
10.812
16.241
21.598
26.884
32.083
37.158
42.077
46.808
51.338
55.67
59.818
63.81
67.672
71.429
75.102
78.7
82.227
85.678
89.043
92.306
95.457
98.49
101.401
104.188
106.845
109.362
111.727
113.927
115.948
117.773
119.388
120.783
121.947
122.874
123.561
124.006
124.209
124.168
123.883
123.35
122.57
121.542
120.266
118.742
116.973
114.962
112.715
110.24
107.543
104.635
101.524
98.222
94.742
91.095
87.297
83.362
79.305
75.143
70.891
66.568
62.191
57.778
53.345
48.91
44.49
40.102
35.762
31.485
27.286
23.179
19.177
15.293
11.539
7.925
4.462
1.159
-1.976
-4.936
-7.716
-10.311
-12.718
-14.935
-16.962
-18.798
-20.445
-21.907
-23.185
-24.286
-25.214
-25.976
-26.579
-27.033
-27.345
-27.526
-27.586
-27.534
-27.382
-27.141
-26.822
-26.435
-25.992
-25.504
-24.981
-24.434
-23.874
-23.31
-22.752
-22.209
-21.691
-21.204
-20.758
-20.359
-20.014
-19.728
-19.508
-19.358
-19.283
-19.285
-19.368
-19.534
-19.784
-20.119
-20.54
-21.044
-21.632
-22.3
-23.046
-23.867
-24.759
-25.718
-26.739
-27.818
-28.95
-30.129
-31.349
-32.605
-33.891
-35.199
-36.523
-37.855
-39.189
-40.515
-41.827
-43.115
-44.371
-45.588
-46.756
-47.866
-48.909
-49.878
-50.764
-51.557
-52.25
-52.835
-53.303
-53.649
-53.865
-53.947
-53.888
-53.684
-53.331
-52.826
-52.166
-51.349
-50.374
-49.24
-47.947
-46.497
-44.891
-43.134
-41.23
-39.185
-37.01
-34.715
-32.311
-29.813
-27.236
-24.595
-21.908
-19.19
-16.459
-13.729
-11.018
-8.342
-5.72
-3.17
-0.713
1.632
3.847
5.915
7.818
9.543
11.083
12.43
13.576
14.51
15.21
15.659
15.84
15.74
15.349
14.666
13.701
12.475
11.029
9.408
7.655
5.81
3.902
1.964
0.034
-1.841
-3.598
-5.179
-6.536
-7.627
-8.407
-8.865
-9.031
-8.979
-8.84
-8.738
-8.764
-9.011
-9.587
-10.62
-12.246
-14.593
-17.726
-21.744
-26.853
-33.151
-40.574
-48.827
-57.283
-65.288
-72.373
-77.952
-81.234
-81.794
-79.665
-75.481
-70.776
-66.865
-64.541
-64.931
-69.281
-78.023
-89.49
-99.769
-104.059
-98.941
-85.466
-66.213
-39.882
-2.177
54.866
139.544
251.446
384.408
530.825
679.127
817.821
935.783
1014.7
1036.734
993.368
881.565
713.611
515.871
313.057
133.693
0.238
-83.587
-121.317
-128.284
-126.421
-125.502
-128.591
-132.996
-130.581
-120.594
-107.367
-95.058
-88.385
-88.521
-93.438
-101.067
-109.302
-116.162
-120.179
-120.653
-117.511
-111.225
-102.766
-93.098
-83.009
-73.37
-64.978
-58.219
-53.243
-49.976
-48.132
-47.486
-47.851
-48.985
-50.66
-52.69
-54.889
-57.092
-59.15
-60.878
-62.132
-62.826
-62.897
-62.33
-61.13
-59.319
-56.946
-54.082
-50.794
-47.149
-43.208
-39.032
-34.696
-30.285
-25.885
-21.585
-17.448
-13.516
-9.818
-6.368
-3.169
-0.215
2.514
5.043
7.394
9.582
11.619
13.516
15.289
16.957
18.536
20.046
21.501
22.913
24.294
25.652
26.993
28.321
29.636
30.938
32.225
33.5
34.764
36.02
37.266
38.503
39.729
40.943
42.141
43.318
44.467
45.581
46.652
47.672
48.63
49.517
50.323
51.037
51.649
52.148
52.522
52.76
52.852
52.787
52.555
52.147
51.553
50.766
49.78
48.588
47.188
45.575
43.748
41.707
39.452
36.986
34.314
31.438
28.368
25.108
21.669
18.06
14.294
10.382
6.338
2.176
-2.089
-6.442
-10.865
-15.343
-19.858
-24.393
-28.93
-33.452
-37.941
-42.379
-46.749
-51.034
-55.219
-59.286
-63.223
-67.015
-70.65
-74.115
-77.402
-80.5
-83.403
-86.103
-88.596
-90.878
-92.947
-94.801
-96.441
-97.867
-99.083
-100.093
-100.902
-101.515
-101.94
-102.186
-102.261
-102.176
-101.941
-101.569
-101.073
-100.464
-99.758
-98.969
-98.111
-97.2
-96.251
-95.277
-94.295
-93.319
-92.363
-91.439
-90.561
-89.74
-88.989
-88.317
-87.734
-87.248
-86.869
-86.601
-86.452
-86.426
-86.527
-86.756
-87.117
-87.609
-88.231
-88.982
-89.858
-90.855
-91.969
-93.193
-94.518
-95.937
-97.439
-99.014
-100.65
-102.335
-104.054
-105.795
-107.545
-109.289
-111.013
-112.706
-114.352
-115.939
-117.455
-118.886
-120.221
-121.449
-122.556
-123.533
-124.37
-125.056
-125.585
-125.948
-126.138
-126.15
-125.979
-125.623
-125.079
-124.346
-123.424
-122.316
-121.025
-119.555
-117.915
-116.112
-114.157
-112.061
-109.838
-107.502
-105.067
-102.549
-99.963
-97.326
-94.655
-91.967
-89.278
-86.607
-83.972
-81.395
-78.899
-76.504
-74.232
-72.105
-70.145
-68.373
-66.806
-65.459
-64.344
-63.471
-62.852
-62.497
-62.415
-62.612
-63.09
-63.849
-64.891
-66.209
-67.796
-69.637
-71.712
-74.006
-76.512
-79.223
-82.145
-85.279
-88.611
-92.133
-95.833
-99.689
-103.672
-107.743
-111.833
-115.885
-119.844
-123.656
-127.278
-130.656
-133.716
-136.384
-138.577
-140.217
-141.264
-141.689
-141.467
-140.599
-139.09
-136.986
-134.418
-131.512
-128.393
-125.206
-122.045
-119.063
-116.529
-114.608
-113.357
-112.749
-112.464
-112.083
-111.292
-109.602
-106.394
-101.355
-94.422
-85.87
-76.745
-68.609
-62.849
-60.798
-63.944
-71.795
-83.01
-97.319
-112.092
-125.947
-137.423
-138.634
-122.949
-84.206
-18.138
68.851
169.352
278.333
391.95
512.153
637.746
756.675
851.619
904.025
898.56
835.342
724.672
576.768
407.772
231.36
59.844
-84.423
-183.127
-226.291
-212.979
-160.771
-95.353
-39.54
-8.701
-4.372
-16.778
-32.447
-41.554
-41.313
-35.517
-31.111
-31.878
-37.355
-44.657
-50.059
-52.063
-51.226
-48.484
-44.913
-41.167
-37.656
-34.996
-33.579
-33.462
-34.505
-36.436
-39.036
-42.163
-45.643
-49.231
-52.709
-55.905
-58.662
-60.905
-62.567
-63.575
-63.899
-63.53
-62.463
-60.731
-58.387
-55.476
-52.053
-48.172
-43.874
-39.219
-34.281
-29.135
-23.869
-18.552
-13.231
-7.944
-2.721
2.418
7.456
12.391
17.237
22
26.682
31.285
35.803
40.238
44.599
48.894
53.134
57.325
61.471
65.578
69.65
73.69
77.7
81.676
85.614
89.514
93.374
97.198
100.986
104.741
108.461
112.149
115.807
119.432
123.025
126.583
130.1
133.575
137.001
140.375
143.691
146.941
150.12
153.219
156.231
159.147
161.958
164.654
167.226
169.663
171.956
174.095
176.071
177.876
179.5
180.937
182.179
183.221
184.056
184.68
185.088
185.277
185.245
184.991
184.514
183.816
182.898
181.764
180.419
178.868
177.118
175.175
173.05
170.75
168.286
165.669
162.91
160.023
157.019
153.913
150.718
147.448
144.117
140.74
137.329
133.9
130.464
127.037
123.629
120.255
116.925
113.653
110.447
107.32
104.28
101.336
98.496
95.766
93.154
90.664
88.302
86.07
83.971
82.009
80.183
78.495
76.944
75.528
74.246
73.095
72.07
71.168
70.384
69.711
69.145
68.679
68.306
68.019
67.811
67.674
67.599
67.579
67.603
67.665
67.754
67.861
67.978
68.096
68.205
68.298
68.366
68.4
68.394
68.338
68.226
68.051
67.804
67.482
67.077
66.584
65.999
65.318
64.538
63.657
62.672
61.582
60.387
59.085
57.679
56.169
54.557
52.845
51.037
49.139
47.154
45.089
42.952
40.749
38.489
36.181
33.834
31.458
29.063
26.659
24.257
21.868
19.505
17.179
14.9
12.682
10.534
8.467
6.494
4.621
2.86
1.216
-0.301
-1.684
-2.927
-4.026
-4.975
-5.771
-6.413
-6.9
-7.231
-7.409
-7.44
-7.328
-7.08
-6.706
-6.217
-5.625
-4.945
-4.193
-3.386
-2.54
-1.676
-0.812
0.033
0.841
1.591
2.266
2.846
3.31
3.64
3.814
3.814
3.622
3.222
2.596
1.739
0.641
-0.706
-2.311
-4.191
-6.359
-8.819
-11.576
-14.63
-17.974
-21.595
-25.462
-29.525
-33.735
-38.046
-42.412
-46.807
-51.197
-55.535
-59.775
-63.854
-67.716
-71.332
-74.667
-77.682
-80.36
-82.713
-84.813
-86.785
-88.751
-90.797
-92.974
-95.329
-97.944
-100.916
-104.35
-108.347
-112.944
-118.199
-124.269
-131.179
-138.787
-146.738
-154.319
-160.788
-165.633
-168.268
-168.049
-164.819
-158.746
-150.573
-141.955
-134.326
-128.612
-125.872
-126.823
-131.086
-137.548
-143.876
-146.284
-141.17
-125.334
-95.433
-48.566
15.365
93.523
182.028
275.274
370.206
468.519
568.192
662.211
739.934
783.854
779.712
725.401
624.187
486.152
329.321
167.631
17.313
-101.478
-180.922
-219.342
-223.939
-214.197
-201.874
-192.053
-185.399
-175.383
-160.615
-144.437
-129.785
-120.473
-117.393
-118.626
-122.524
-127.288
-131.206
-133.138
-132.47
-129.229
-124.006
-117.642
-110.872
-104.278
-98.455
-93.959
-91.078
-89.838
-90.076
-91.478
-93.761
-96.723
-100.143
-103.797
-107.495
-111.034
-114.231
-116.984
-119.215
-120.867
-121.923
-122.358
-122.165
-121.385
-120.074
-118.292
-116.102
-113.555
-110.693
-107.578
-104.28
-100.879
-97.455
-94.064
-90.738
-87.504
-84.374
-81.357
-78.454
-75.648
-72.913
-70.229
-67.583
-64.964
-62.366
-59.778
-57.181
-54.562
-51.906
-49.202
-46.444
-43.623
-40.732
-37.768
-34.732
-31.624
-28.45
-25.211
-21.909
-18.544
-15.119
-11.636
-8.099
-4.512
-0.88
2.791
6.49
10.209
13.935
17.656
21.36
25.033
28.661
32.231
35.726
39.132
42.434
45.618
48.667
51.566
54.301
56.859
59.224
61.384
63.327
65.04
66.513
67.736
68.702
69.402
69.83
69.981
69.851
69.438
68.74
67.759
66.497
64.956
63.142
61.063
58.728
56.145
53.326
50.285
47.034
43.588
39.963
36.176
32.242
28.181
24.009
19.746
15.41
11.019
6.592
2.147
-2.297
-6.723
-11.112
-15.449
-19.717
-23.899
-27.982
-31.95
-35.791
-39.49
-43.037
-46.42
-49.63
-52.659
-55.498
-58.142
-60.585
-62.824
-64.857
-66.682
-68.299
-69.71
-70.917
-71.924
-72.736
-73.359
-73.8
-74.066
-74.167
-74.112
-73.91
-73.573
-73.111
-72.536
-71.86
-71.095
-70.253
-69.346
-68.387
-67.389
-66.365
-65.326
-64.287
-63.259
-62.255
-61.286
-60.366
-59.504
-58.711
-57.998
-57.373
-56.845
-56.422
-56.108
-55.91
-55.831
-55.875
-56.041
-56.331
-56.744
-57.276
-57.925
-58.685
-59.551
-60.516
-61.573
-62.713
-63.927
-65.206
-66.538
-67.914
-69.322
-70.748
-72.181
-73.607
-75.012
-76.383
-77.703
-78.958
-80.133
-81.212
-82.182
-83.027
-83.733
-84.288
-84.679
-84.893
-84.922
-84.756
-84.387
-83.81
-83.019
-82.013
-80.79
-79.351
-77.699
-75.837
-73.77
-71.507
-69.054
-66.422
-63.621
-60.662
-57.56
-54.327
-50.98
-47.535
-44.011
-40.429
-36.813
-33.188
-29.577
-26.009
-22.51
-19.107
-15.827
-12.696
-9.734
-6.963
-4.404
-2.079
-0.01
1.783
3.283
4.478
5.353
5.9
6.111
5.984
5.526
4.744
3.639
2.206
0.431
-1.7
-4.184
-7.02
-10.197
-13.697
-17.5
-21.572
-25.854
-30.289
-34.82
-39.399
-43.998
-48.575
-53.068
-57.406
-61.493
-65.247
-68.61
-71.535
-73.992
-75.973
-77.491
-78.592
-79.361
-79.899
-80.316
-80.732
-81.252
-81.988
-83.058
-84.629
-86.975
-90.259
-94.443
-99.299
-104.336
-109.051
-113.107
-116.071
-117.245
-116.225
-113.115
-108.608
-104.301
-101.751
-101.8
-105.155
-112.527
-124.02
-138.785
-154.602
-167.539
-173.532
-169.282
-151.625
-117.675
-64.861
6.525
92.239
187.066
285.308
386.192
494.027
606.919
717.44
810.234
862.384
861.9
807.609
706.963
578.895
438.809
299.089
173.919
71.066
-4.52
-52.497
-82.271
-102.968
-119.382
-132.542
-138.196
-133.739
-121.865
-107.452
-95.601
-88.914
-87.197
-89.235
-93.593
-99.193
-104.566
-107.896
-108.207
-105.262
-99.426
-91.558
-82.426
-72.616
-62.913
-54.149
-46.793
-41.046
-36.861
-33.969
-32.172
-31.317
-31.202
-31.614
-32.375
-33.311
-34.268
-35.111
-35.668
-35.799
-35.42
-34.468
-32.927
-30.802
-28.113
-24.911
-21.266
-17.249
-12.924
-8.349
-3.578
1.319
6.259
11.159
15.931
20.511
24.856
28.934
32.726
36.229
39.444
42.39
45.095
47.58
49.86
51.949
53.858
55.603
57.205
58.684
60.06
61.35
62.571
63.738
64.864
65.96
67.033
68.09
69.133
70.166
71.195
72.227
73.266
74.318
75.386
76.471
77.577
78.703
79.847
81.005
82.17
83.335
84.493
85.634
86.746
87.819
88.84
89.797
90.675
91.461
92.141
92.698
93.12
93.391
93.497
93.425
93.162
92.695
92.014
91.109
89.971
88.593
86.97
85.097
82.97
80.589
77.953
75.063
71.923
68.536
64.91
61.052
56.973
52.683
48.196
43.525
38.686
33.695
28.571
23.331
17.995
12.583
7.116
1.614
-3.901
-9.407
-14.883
-20.308
-25.659
-30.918
-36.063
-41.076
-45.939
-50.634
-55.146
-59.458
-63.559
-67.435
-71.074
-74.468
-77.608
-80.486
-83.096
-85.435
-87.499
-89.286
-90.796
-92.03
-92.99
-93.679
-94.103
-94.266
-94.175
-93.839
-93.265
-92.465
-91.448
-90.226
-88.811
-87.217
-85.457
-83.544
-81.494
-79.319
-77.035
-74.657
-72.197
-69.67
-67.09
-64.47
-61.823
-59.161
-56.497
-53.843
-51.21
-48.608
-46.049
-43.541
-41.094
-38.717
-36.418
-34.206
-32.087
-30.068
-28.155
-26.354
-24.67
-23.107
-21.667
-20.355
-19.17
-18.114
-17.187
-16.387
-15.714
-15.165
-14.737
-14.427
-14.232
-14.147
-14.167
-14.287
-14.502
-14.805
-15.189
-15.648
-16.173
-16.758
-17.393
-18.07
-18.782
-19.518
-20.269
-21.025
-21.777
-22.514
-23.226
-23.901
-24.53
-25.103
-25.611
-26.045
-26.396
-26.657
-26.821
-26.882
-26.836
-26.678
-26.404
-26.012
-25.501
-24.87
-24.12
-23.255
-22.276
-21.19
-20.006
-18.732
-17.38
-15.961
-14.49
-12.978
-11.443
-9.897
-8.355
-6.831
-5.338
-3.892
-2.511
-1.216
-0.022
1.052
1.989
2.774
3.391
3.826
4.074
4.132
3.991
3.64
3.059
2.225
1.131
-0.232
-1.867
-3.765
-5.914
-8.289
-10.841
-13.522
-16.287
-19.093
-21.916
-24.73
-27.489
-30.141
-32.619
-34.851
-36.796
-38.419
-39.68
-40.584
-41.162
-41.481
-41.662
-41.805
-41.986
-42.307
-42.846
-43.676
-44.897
-46.574
-48.821
-51.859
-55.789
-60.565
-66.038
-71.811
-77.41
-82.412
-86.174
-87.892
-87.084
-83.67
-78.017
-71.057
-63.935
-57.848
-54.152
-54.269
-57.996
-63.187
-67.476
-68.858
-68.241
-68.046
-66.98
-58.138
-29.284
30.029
122.539
241.616
373.708
508.843
640.751
763.731
871.234
948.864
982.511
966.688
903.809
806.335
686.128
549.178
402.528
254.677
121.814
24.621
-26.845
-35.037
-15.116
11.345
31.179
40.841
43.394
44.943
47.297
48.904
47.488
41.005
30.253
17.389
4.66
-5.569
-12.315
-15.525
-15.406
-12.729
-8.408
-3.253
1.811
5.915
8.647
9.855
9.55
7.938
5.191
1.462
-3.023
-8.037
-13.404
-18.98
-24.639
-30.263
-35.683
-40.706
-45.194
-49.052
-52.227
-54.705
-56.48
-57.555
-57.962
-57.751
-56.976
-55.687
-53.932
-51.757
-49.223
-46.401
-43.368
-40.201
-36.961
-33.687
-30.406
-27.133
-23.873
-20.627
-17.385
-14.132
-10.856
-7.552
-4.217
-0.85
2.552
5.997
9.49
13.038
16.644
20.31
24.034
27.815
31.646
35.521
39.429
43.36
47.303
51.25
55.19
59.116
63.018
66.886
70.71
74.48
78.183
81.806
85.336
88.758
92.057
95.217
98.224
101.061
103.713
106.166
108.403
110.41
112.173
113.679
114.913
115.865
116.524
116.877
116.918
116.638
116.032
115.095
113.826
112.222
110.285
108.019
105.428
102.517
99.295
95.771
91.955
87.861
83.501
78.892
74.051
68.994
63.743
58.316
52.736
47.025
41.203
35.296
29.324
23.311
17.281
11.256
5.258
-0.69
-6.565
-12.347
-18.016
-23.553
-28.938
-34.156
-39.192
-44.031
-48.661
-53.072
-57.254
-61.2
-64.904
-68.36
-71.566
-74.52
-77.223
-79.674
-81.878
-83.839
-85.562
-87.053
-88.32
-89.373
-90.22
-90.871
-91.337
-91.629
-91.76
-91.742
-91.587
-91.309
-90.92
-90.436
-89.868
-89.231
-88.538
-87.8
-87.032
-86.244
-85.447
-84.653
-83.872
-83.114
-82.387
-81.7
-81.061
-80.477
-79.953
-79.497
-79.111
-78.8
-78.566
-78.413
-78.342
-78.353
-78.449
-78.629
-78.892
-79.239
-79.667
-80.176
-80.761
-81.419
-82.148
-82.943
-83.798
-84.709
-85.67
-86.675
-87.718
-88.793
-89.892
-91.009
-92.134
-93.26
-94.378
-95.479
-96.554
-97.593
-98.586
-99.524
-100.397
-101.198
-101.916
-102.542
-103.068
-103.483
-103.78
-103.95
-103.984
-103.874
-103.613
-103.194
-102.611
-101.861
-100.937
-99.835
-98.555
-97.093
-95.449
-93.624
-91.618
-89.433
-87.075
-84.548
-81.86
-79.019
-76.036
-72.923
-69.696
-66.371
-62.966
-59.5
-55.993
-52.466
-48.94
-45.435
-41.972
-38.569
-35.246
-32.024
-28.924
-25.97
-23.183
-20.583
-18.188
-16.016
-14.085
-12.411
-10.996
-9.849
-8.976
-8.39
-8.112
-8.162
-8.547
-9.269
-10.331
-11.719
-13.42
-15.404
-17.618
-20.01
-22.528
-25.128
-27.784
-30.463
-33.113
-35.674
-38.072
-40.239
-42.141
-43.743
-45.007
-45.931
-46.542
-46.913
-47.177
-47.438
-47.78
-48.291
-49.056
-50.193
-51.834
-54.058
-56.982
-60.757
-65.447
-71.049
-77.385
-83.975
-90.321
-95.976
-100.346
-102.791
-102.83
-100.235
-95.451
-89.621
-83.851
-78.902
-75.706
-75.437
-78.833
-86.085
-94.851
-100.173
-99.173
-90.336
-73.664
-51.915
-20.863
27.023
95.11
188.592
302.996
426.863
556.692
684.552
801.315
900.526
964.767
977.231
932.89
831.407
682.416
506.249
320.186
142.285
-6.231
-113.022
-172.923
-187.098
-168.98
-135.269
-98.567
-71.306
-59.58
-61.506
-73.879
-88.726
-98.417
-101.722
-100.183
-98.229
-99.496
-103.545
-108.047
-110.36
-109.405
-105.82
-100.77
-95.342
-90.111
-85.488
-82.024
-80.05
-79.623
-80.62
-82.758
-85.804
-89.608
-93.978
-98.688
-103.525
-108.292
-112.807
-116.907
-120.46
-123.366
-125.561
-127.018
-127.723
-127.682
-126.937
-125.55
-123.585
-121.107
-118.17
-114.825
-111.142
-107.201
-103.088
-98.892
-94.674
-90.475
-86.326
-82.248
-78.252
-74.341
-70.502
-66.711
-62.955
-59.223
-55.512
-51.817
-48.13
-44.439
-40.734
-37.004
-33.244
-29.45
-25.62
-21.75
-17.845
-13.908
-9.946
-5.969
-1.984
2.006
5.994
9.976
13.947
17.902
21.835
25.742
29.613
33.442
37.219
40.933
44.572
48.128
51.587
54.937
58.168
61.266
64.219
67.017
69.646
72.097
74.357
76.416
78.264
79.893
81.294
82.461
83.389
84.073
84.51
84.699
84.639
84.331
83.777
82.978
81.939
80.663
79.156
77.423
75.473
73.312
70.951
68.398
65.666
62.766
59.708
56.505
53.169
49.714
46.151
42.489
38.739
34.911
31.015
27.058
23.051
18.999
14.912
10.801
6.675
2.544
-1.583
-5.702
-9.808
-13.897
-17.964
-22.004
-26.014
-29.988
-33.922
-37.802
-41.617
-45.357
-49.021
-52.618
-56.159
-59.646
-63.085
-66.475
-69.806
-73.069
-76.24
-79.277
-82.14
-84.79
-87.194
-89.337
-91.203
-92.761
-93.97
-94.779
-95.131
-94.996
-94.34
-93.138
-91.414
-89.211
-86.614
-83.751
-80.721
-77.623
-74.586
-71.724
-69.146
-66.971
-65.287
-64.236
-64.077
-64.958
-66.841
-69.528
-72.541
-75.354
-77.551
-78.557
-77.592
-74.197
-68.467
-61.01
-53.106
-46.223
-41.536
-40.252
-43.742
-51.609
-61.256
-69.754
-74.177
-74.778
-74.076
-70.828
-58.476
-24.382
42.303
142.172
266.402
397.263
520.599
634.326
738.507
833.865
915.105
962.023
956.337
889.516
760.242
584.807
388.575
193.619
25.157
-98.471
-174.225
-205.654
-207.388
-198.749
-188.353
-178.97
-168.256
-150.757
-127.897
-104.237
-83.832
-71.01
-67.024
-70.992
-81.661
-96.315
-111.726
-125.638
-136.791
-144.789
-149.638
-151.214
-149.655
-145.871
-141.413
-137.631
-135.207
-134.31
-134.863
-136.9
-140.447
-145.236
-150.685
-156.227
-161.514
-166.349
-170.665
-174.378
-177.362
-179.568
-181.035
-181.81
-181.933
-181.441
-180.341
-178.654
-176.436
-173.736
-170.617
-167.151
-163.408
-159.466
-155.406
-151.286
-147.147
-143.025
-138.939
-134.901
-130.915
-126.97
-123.05
-119.15
-115.262
-111.381
-107.498
-103.602
-99.684
-95.735
-91.744
-87.696
-83.571
-79.356
-75.059
-70.69
-66.277
-61.842
-57.405
-52.991
-48.636
-44.36
-40.176
-36.073
-32.018
-27.997
-24.009
-20.069
-16.218
-12.47
-8.816
-5.246
-1.741
1.719
5.142
8.567
12.061
15.648
19.313
23
26.59
30.006
33.204
36.152
38.845
41.257
43.336
45.043
46.353
47.225
47.626
47.482
46.676
45.159
42.941
40.088
36.741
33.002
28.933
24.6
20.055
15.359
10.59
5.801
1.02
-3.7
-8.297
-12.674
-16.69
-20.261
-23.355
-25.977
-28.184
-30.012
-31.464
-32.558
-33.309
-33.732
-33.843
-33.634
-33.074
-32.156
-30.888
-29.3
-27.445
-25.356
-23.04
-20.495
-17.702
-14.652
-11.349
-7.793
-3.979
0.087
4.392
8.911
13.601
18.428
23.367
28.396
33.498
38.654
43.836
49.017
54.171
59.272
64.296
69.216
74.005
78.642
83.107
87.388
91.476
95.364
99.043
102.508
105.755
108.781
111.584
114.166
116.524
118.662
120.583
122.292
123.799
125.11
126.234
127.183
127.966
128.595
129.083
129.441
129.681
129.817
129.861
129.826
129.722
129.563
129.359
129.122
128.862
128.587
128.307
128.028
127.758
127.502
127.264
127.047
126.854
126.686
126.544
126.427
126.336
126.269
126.225
126.202
126.196
126.206
126.228
126.258
126.293
126.33
126.363
126.39
126.407
126.41
126.396
126.362
126.304
126.221
126.109
125.967
125.792
125.584
125.341
125.062
124.746
124.395
124.008
123.585
123.128
122.637
122.114
121.559
120.975
120.362
119.721
119.053
118.358
117.636
116.887
116.112
115.308
114.474
113.61
112.712
111.78
110.809
109.797
108.739
107.633
106.473
105.255
103.975
102.628
101.208
99.712
98.135
96.471
94.717
92.868
90.92
88.869
86.713
84.449
82.075
79.589
76.992
74.282
71.462
68.533
65.497
62.358
59.12
55.787
52.367
48.866
45.292
41.653
37.96
34.225
30.457
26.671
22.878
19.092
15.328
11.599
7.92
4.305
0.77
-2.671
-6.004
-9.215
-12.289
-15.213
-17.978
-20.57
-22.981
-25.201
-27.223
-29.041
-30.65
-32.046
-33.226
-34.188
-34.934
-35.464
-35.782
-35.893
-35.803
-35.523
-35.065
-34.446
-33.681
-32.788
-31.788
-30.701
-29.549
-28.353
-27.13
-25.899
-24.679
-23.492
-22.362
-21.312
-20.361
-19.529
-18.834
-18.291
-17.917
-17.72
-17.701
-17.862
-18.209
-18.755
-19.526
-20.546
-21.826
-23.377
-25.199
-27.286
-29.629
-32.201
-34.951
-37.832
-40.792
-43.79
-46.803
-49.795
-52.714
-55.495
-58.047
-60.287
-62.154
-63.593
-64.578
-65.112
-65.214
-64.94
-64.378
-63.63
-62.824
-62.089
-61.53
-61.259
-61.372
-62.033
-63.556
-66.135
-69.753
-74.225
-79.081
-83.811
-88.041
-91.201
-92.45
-91.315
-87.851
-82.667
-77.161
-72.905
-71.233
-73.536
-81.222
-93.721
-108.294
-121.968
-131.685
-137.441
-141.399
-141.461
-129.973
-94.621
-24.861
80.681
212.914
356.771
502.037
643.671
777.661
897.613
986.642
1026.379
1007.925
932.597
814.777
671.446
513.601
350.638
190.83
46.194
-66.503
-136.971
-164.389
-156.966
-132.984
-108.923
-94.046
-93.919
-104.408
-117.519
-129.233
-135.071
-135.762
-136.763
-139.764
-145.521
-152.989
-158.174
-159.528
-157.368
-152.179
-145.348
-137.994
-130.567
-123.769
-118.398
-114.789
-113.025
-113.052
-114.616
-117.499
-121.558
-126.559
-132.223
-138.33
-144.67
-151.03
-157.217
-163.016
-168.248
-172.802
-176.607
-179.631
-181.87
-183.336
-184.078
-184.163
-183.659
-182.632
-181.146
-179.264
-177.067
-174.645
-172.086
-169.482
-166.892
-164.358
-161.905
-159.543
-157.274
-155.086
-152.956
-150.855
-148.76
-146.656
-144.528
-142.366
-140.152
-137.869
-135.499
-133.025
-130.433
-127.713
-124.853
-121.848
-118.691
-115.382
-111.922
-108.312
-104.554
-100.648
-96.595
-92.396
-88.053
-83.573
-78.96
-74.223
-69.373
-64.421
-59.384
-54.279
-49.125
-43.94
-38.747
-33.566
-28.421
-23.335
-18.331
-13.435
-8.67
-4.063
0.363
4.582
8.569
12.3
15.75
18.897
21.718
24.192
26.299
28.021
29.342
30.247
30.723
30.759
30.348
29.485
28.167
26.393
24.167
21.495
18.385
14.849
10.901
6.557
1.835
-3.244
-8.657
-14.382
-20.393
-26.663
-33.165
-39.87
-46.749
-53.771
-60.907
-68.125
-75.395
-82.687
-89.97
-97.214
-104.391
-111.473
-118.432
-125.243
-131.883
-138.328
-144.56
-150.558
-156.307
-161.794
-167.007
-171.937
-176.576
-180.921
-184.97
-188.721
-192.178
-195.344
-198.225
-200.828
-203.163
-205.24
-207.071
-208.669
-210.048
-211.222
-212.207
-213.02
-213.677
-214.194
-214.59
-214.881
-215.084
-215.217
-215.296
-215.337
-215.356
-215.368
-215.385
-215.42
-215.486
-215.591
-215.745
-215.956
-216.229
-216.569
-216.981
-217.465
-218.024
-218.655
-219.358
-220.13
-220.965
-221.86
-222.808
-223.802
-224.834
-225.897
-226.981
-228.076
-229.174
-230.262
-231.329
-232.365
-233.356
-234.291
-235.157
-235.941
-236.63
-237.212
-237.674
-238.004
-238.188
-238.215
-238.072
-237.748
-237.231
-236.511
-235.575
-234.416
-233.022
-231.387
-229.501
-227.358
-224.952
-222.275
-219.324
-216.092
-212.577
-208.774
-204.681
-200.295
-195.614
-190.64
-185.373
-179.815
-173.968
-167.838
-161.428
-154.745
-147.796
-140.591
-133.137
-125.446
-117.53
-109.403
-101.079
-92.575
-83.906
-75.092
-66.15
-57.102
-47.969
-38.77
-29.527
-20.264
-11.004
-1.771
7.41
16.514
25.514
34.383
43.09
51.609
59.909
67.962
75.741
83.218
90.368
97.168
103.596
109.634
115.263
120.463
125.218
129.51
133.327
136.656
139.489
141.816
143.633
144.945
145.756
146.072
145.894
145.217
144.037
142.36
140.196
137.557
134.464
130.948
127.054
122.848
118.398
113.773
109.036
104.234
99.42
94.659
90.021
85.588
81.431
77.595
74.119
71.053
68.412
66.163
64.231
62.473
60.757
58.994
57.097
54.961
52.469
49.486
45.893
41.645
36.694
30.913
24.267
16.838
8.892
0.984
-6.287
-12.467
-17.054
-19.375
-19.032
-15.995
-10.666
-4.129
2.649
9.069
14.304
17.282
17.277
15.723
16.195
22.411
37.955
61.548
87.668
116.267
148.957
191.667
258.47
353.551
475.496
621.44
774.66
917.847
1035.346
1105.851
1116.486
1066.091
958.514
806.24
628.642
442.289
265.856
120.743
18.877
-35.365
-46.303
-27.346
11.686
64.145
124.109
184.641
233.302
260.583
263.769
248.181
226.772
208.27
195.666
187.416
177.671
164.596
149.556
134.567
123.204
116.717
114.15
114.509
116.083
117.309
117.69
116.881
114.486
110.49
104.965
98.03
90.203
82.122
74.153
66.568
59.554
53.124
47.336
42.264
37.875
34.113
30.942
28.323
26.251
24.75
23.813
23.416
23.518
24.055
24.963
26.179
27.651
29.34
31.212
33.238
35.393
37.659
40.029
42.504
45.081
47.75
50.502
53.329
56.229
59.206
62.264
65.403
68.619
71.905
75.257
78.669
82.135
85.644
89.185
92.744
96.31
99.876
103.431
106.967
110.474
113.941
117.357
120.714
124.003
127.212
130.331
133.349
136.254
139.037
141.687
144.193
146.545
148.731
150.743
152.571
154.206
155.64
156.863
157.869
158.65
159.201
159.516
159.591
159.421
159.005
158.341
157.428
156.269
154.864
153.217
151.334
149.22
146.882
144.329
141.569
138.613
135.472
132.159
128.686
125.069
121.321
117.458
113.496
109.451
105.339
101.176
96.978
92.76
88.537
84.325
80.138
75.991
71.895
67.865
63.913
60.049
56.284
52.628
49.088
45.672
42.385
39.233
36.22
33.347
30.617
28.031
25.588
23.286
21.124
19.097
17.204
15.437
13.793
12.265
10.846
9.53
8.311
7.181
6.133
5.161
4.259
3.419
2.636
1.904
1.216
0.568
-0.046
-0.631
-1.192
-1.732
-2.254
-2.763
-3.26
-3.749
-4.229
-4.703
-5.173
-5.637
-6.098
-6.553
-7.003
-7.447
-7.884
-8.311
-8.728
-9.131
-9.52
-9.892
-10.245
-10.579
-10.892
-11.183
-11.45
-11.694
-11.914
-12.11
-12.281
-12.429
-12.553
-12.653
-12.731
-12.788
-12.823
-12.839
-12.836
-12.814
-12.776
-12.72
-12.649
-12.562
-12.46
-12.344
-12.215
-12.073
-11.919
-11.753
-11.576
-11.389
-11.191
-10.981
-10.761
-10.528
-10.282
-10.024
-9.751
-9.462
-9.157
-8.834
-8.492
-8.129
-7.744
-7.335
-6.901
-6.442
-5.958
-5.448
-4.914
-4.356
-3.778
-3.181
-2.569
-1.947
-1.318
-0.688
-0.062
0.552
1.148
1.719
2.254
2.744
3.175
3.535
3.81
3.985
4.048
3.982
3.774
3.41
2.881
2.175
1.282
0.189
-1.118
-2.651
-4.419
-6.432
-8.697
-11.218
-14.001
-17.046
-20.342
-23.884
-27.666
-31.69
-35.971
-40.514
-45.316
-50.373
-55.67
-61.19
-66.912
-72.802
-78.802
-84.859
-90.923
-96.949
-102.914
-108.781
-114.498
-120.002
-125.209
-130.045
-134.463
-138.421
-141.89
-144.865
-147.357
-149.415
-151.125
-152.58
-153.876
-155.112
-156.382
-157.787
-159.422
-161.437
-164.049
-167.386
-171.451
-176.07
-180.832
-185.3
-189.114
-191.797
-192.753
-191.581
-188.17
-183.028
-177.388
-172.534
-169.523
-169.274
-172.538
-179.74
-190.7
-203.868
-216.271
-224.475
-225.1
-214.899
-190.823
-150.062
-90.255
-12.551
77.947
175.805
274.885
372.96
474.335
578.795
681.084
770.201
822.552
818.859
751.486
620.452
445.061
253.382
69.789
-80.841
-186.037
-247.906
-272.87
-273.297
-259.877
-236.836
-209.573
-185.022
-170.049
-170.431
-184.939
-204.761
-221.425
-230.433
-232.416
-233.059
-235.988
-240.846
-245.966
-248.768
-248.295
-245.587
-241.717
-237.527
-233.682
-230.601
-228.524
-227.579
-227.615
-228.285
-229.373
-230.767
-232.387
-234.17
-236.016
-237.789
-239.371
-240.66
-241.54
-241.929
-241.775
-241.075
-239.877
-238.264
-236.378
-234.353
-232.273
-230.183
-228.057
-225.818
-223.431
-220.89
-218.204
-215.412
-212.544
-209.606
-206.618
-203.578
-200.454
-197.189
-193.675
-189.809
-185.538
-180.848
-175.775
-170.399
-164.771
-158.928
-152.912
-146.743
-140.439
-134.017
-127.465
-120.773
-113.95
-107.02
-100.032
-93.038
-86.065
-79.121
-72.2
-65.279
-58.344
-51.389
-44.399
-37.371
-30.309
-23.225
-16.145
-9.106
-2.134
4.75
11.528
18.187
24.707
31.066
37.239
43.203
48.931
54.401
59.586
64.461
69.006
73.204
77.045
80.519
83.619
86.338
88.67
90.613
92.164
93.323
94.091
94.469
94.463
94.081
93.333
92.232
90.792
89.028
86.96
84.606
81.988
79.128
76.047
72.769
69.318
65.719
61.994
58.17
54.27
50.318
46.339
42.357
38.394
34.472
30.613
26.836
23.16
19.601
16.175
12.897
9.777
6.828
4.059
1.477
-0.911
-3.1
-5.089
-6.876
-8.461
-9.846
-11.034
-12.03
-12.839
-13.466
-13.919
-14.204
-14.329
-14.303
-14.132
-13.828
-13.398
-12.851
-12.198
-11.448
-10.61
-9.693
-8.707
-7.66
-6.56
-5.416
-4.234
-3.021
-1.783
-0.525
0.748
2.032
3.324
4.622
5.923
7.226
8.53
9.834
11.138
12.442
13.747
15.051
16.356
17.661
18.966
20.272
21.577
22.882
24.186
25.489
26.791
28.093
29.395
30.696
31.997
33.298
34.599
35.9
37.201
38.502
39.802
41.101
42.398
43.692
44.984
46.272
47.555
48.834
50.108
51.376
52.638
53.894
55.143
56.387
57.626
58.861
60.092
61.322
62.551
63.781
65.014
66.25
67.489
68.731
69.976
71.224
72.472
73.72
74.963
76.2
77.427
78.64
79.835
81.006
82.148
83.253
84.314
85.323
86.269
87.139
87.923
88.606
89.176
89.618
89.919
90.064
90.042
89.841
89.45
88.857
88.05
87.017
85.745
84.222
82.44
80.389
78.062
75.456
72.573
69.416
65.991
62.297
58.327
54.076
49.544
44.735
39.656
34.323
28.761
23.011
17.129
11.176
5.212
-0.707
-6.539
-12.238
-17.756
-23.034
-28.003
-32.598
-36.768
-40.471
-43.668
-46.348
-48.541
-50.318
-51.804
-53.123
-54.372
-55.647
-57.053
-58.706
-60.73
-63.254
-66.366
-70.176
-74.857
-80.474
-86.958
-94.043
-101.164
-107.693
-113.091
-116.752
-117.986
-116.409
-112.027
-105.384
-97.807
-90.653
-84.877
-81.38
-80.965
-83.81
-89.177
-95.116
-98.286
-95.15
-82.499
-57.158
-16.234
42.727
119.332
209.429
307.908
409.035
510.179
613.897
718.711
817.148
897.559
941.462
934.327
874.512
765.969
619.21
452.834
281.958
124.056
0.228
-80.301
-115.369
-112.202
-88.518
-59.028
-35.575
-24.092
-25.284
-36.965
-52.432
-66.973
-76.729
-80.78
-83.361
-86.674
-91.351
-96.51
-99.072
-97.782
-93.1
-85.894
-77.538
-68.972
-60.671
-53.204
-46.931
-41.967
-38.266
-35.661
-34.04
-33.329
-33.463
-34.328
-35.765
-37.665
-39.918
-42.393
-44.929
-47.366
-49.609
-51.651
-53.556
-55.377
-57.152
-58.892
-60.583
-62.204
-63.694
-64.999
-66.09
-66.941
-67.568
-68.003
-68.283
-68.442
-68.48
-68.354
-67.981
-67.287
-66.209
-64.712
-62.794
-60.473
-57.809
-54.861
-51.679
-48.303
-44.754
-41.038
-37.159
-33.117
-28.912
-24.565
-20.114
-15.598
-11.055
-6.508
-1.967
2.571
7.124
11.709
16.342
21.03
25.769
30.547
35.346
40.141
44.902
49.599
54.211
58.716
63.096
67.33
71.393
75.257
78.896
82.28
85.384
88.181
90.649
92.771
94.531
95.921
96.934
97.564
97.808
97.663
97.127
96.198
94.878
93.169
91.074
88.598
85.75
82.538
78.976
75.077
70.856
66.33
61.517
56.437
51.111
45.561
39.808
33.878
27.793
21.578
15.258
8.856
2.398
-4.093
-10.594
-17.082
-23.536
-29.935
-36.261
-42.495
-48.621
-54.624
-60.489
-66.203
-71.753
-77.129
-82.32
-87.318
-92.113
-96.7
-101.073
-105.228
-109.162
-112.874
-116.362
-119.627
-122.669
-125.49
-128.093
-130.48
-132.655
-134.622
-136.387
-137.954
-139.328
-140.515
-141.521
-142.352
-143.011
-143.505
-143.837
-144.013
-144.035
-143.908
-143.635
-143.219
-142.663
-141.969
-141.139
-140.177
-139.083
-137.859
-136.507
-135.028
-133.423
-131.694
-129.842
-127.867
-125.771
-123.556
-121.222
-118.771
-116.204
-113.522
-110.728
-107.823
-104.808
-101.687
-98.46
-95.131
-91.702
-88.176
-84.559
-80.853
-77.062
-73.193
-69.249
-65.237
-61.162
-57.031
-52.85
-48.626
-44.365
-40.073
-35.758
-31.424
-27.079
-22.727
-18.374
-14.027
-9.69
-5.369
-1.068
3.207
7.453
11.664
15.835
19.962
24.042
28.07
32.042
35.951
39.794
43.567
47.263
50.879
54.408
57.845
61.185
64.424
67.557
70.58
73.486
76.27
78.927
81.449
83.827
86.05
88.107
89.985
91.674
93.16
94.432
95.477
96.285
96.85
97.164
97.218
97.003
96.507
95.723
94.647
93.272
91.598
89.619
87.334
84.751
81.879
78.726
75.295
71.579
67.566
63.25
58.64
53.743
48.571
43.139
37.469
31.601
25.597
19.519
13.423
7.354
1.35
-4.536
-10.23
-15.651
-20.712
-25.352
-29.54
-33.247
-36.44
-39.12
-41.304
-43.045
-44.468
-45.698
-46.852
-48.068
-49.469
-51.166
-53.343
-56.226
-59.931
-64.457
-69.618
-75.031
-80.367
-85.376
-89.718
-92.938
-94.646
-94.657
-93.367
-91.743
-90.609
-90.576
-91.918
-94.722
-99.475
-106.302
-113.898
-120.128
-121.499
-114.557
-98.577
-72.13
-35.286
11.413
71.107
142.601
225.56
320.076
419.629
522.309
624.386
717.445
796.965
852.925
871.334
843.215
761.674
626.266
453.05
265.591
90.907
-42.278
-123.419
-156.227
-155.179
-143.141
-131.693
-126.431
-126.286
-125.232
-124.736
-123.68
-121.641
-120.178
-116.671
-112.805
-110.353
-108.734
-108.715
-109.033
-108.868
-109.002
-109.368
-109.851
-110.608
-111.496
-112.567
-113.868
-114.841
-115.023
-114.531
-113.893
-113.559
-113.727
-114.382
-115.432
-117.022
-119.263
-121.913
-124.481
-126.524
-127.789
-128.207
-127.829
-126.633
-124.567
-121.673
-118.061
-113.858
-109.167
-104.032
-98.456
-92.473
-86.153
-79.588
-72.879
-66.101
-59.296
-52.502
-45.744
-39.044
-32.416
-25.859
-19.362
-12.921
-6.54
-0.226
6.007
12.149
18.201
24.161
30.034
35.822
41.52
47.125
52.632
58.034
63.324
68.492
73.526
78.418
83.163
87.755
92.192
96.472
100.59
104.543
108.33
111.945
115.384
118.644
121.717
124.6
127.288
129.775
132.056
134.127
135.983
137.62
139.032
140.215
141.165
141.878
142.35
142.579
142.56
142.292
141.772
140.999
139.972
138.691
137.157
135.37
133.332
131.045
128.514
125.74
122.73
119.487
116.019
112.332
108.433
104.333
100.039
95.563
90.915
86.107
81.151
76.06
70.846
65.522
60.102
54.6
49.029
43.403
37.737
32.045
26.34
20.636
14.946
9.285
3.664
-1.905
-7.409
-12.837
-18.179
-23.425
-28.565
-33.59
-38.492
-43.264
-47.899
-52.392
-56.736
-60.928
-64.964
-68.841
-72.556
-76.109
-79.496
-82.72
-85.778
-88.672
-91.404
-93.974
-96.386
-98.643
-100.747
-102.704
-104.517
-106.191
-107.732
-109.145
-110.435
-111.608
-112.67
-113.628
-114.486
-115.252
-115.932
-116.531
-117.056
-117.513
-117.907
-118.244
-118.529
-118.767
-118.964
-119.123
-119.249
-119.346
-119.419
-119.471
-119.505
-119.525
-119.534
-119.532
-119.522
-119.504
-119.478
-119.445
-119.403
-119.351
-119.287
-119.209
-119.114
-118.998
-118.858
-118.689
-118.486
-118.244
-117.956
-117.617
-117.219
-116.757
-116.222
-115.611
-114.915
-114.128
-113.243
-112.255
-111.158
-109.945
-108.611
-107.15
-105.556
-103.828
-101.96
-99.952
-97.802
-95.51
-93.076
-90.504
-87.797
-84.96
-81.998
-78.917
-75.727
-72.437
-69.058
-65.604
-62.088
-58.527
-54.941
-51.35
-47.776
-44.242
-40.771
-37.386
-34.111
-30.97
-27.983
-25.172
-22.558
-20.161
-18.004
-16.112
-14.504
-13.2
-12.218
-11.572
-11.277
-11.344
-11.773
-12.566
-13.722
-15.248
-17.159
-19.467
-22.174
-25.276
-28.767
-32.628
-36.835
-41.351
-46.115
-51.065
-56.141
-61.287
-66.466
-71.637
-76.738
-81.701
-86.443
-90.883
-94.969
-98.654
-101.883
-104.647
-106.962
-108.89
-110.547
-112.027
-113.402
-114.767
-116.221
-117.869
-119.837
-122.197
-125.052
-128.595
-132.918
-138.001
-143.648
-149.374
-154.68
-159.168
-162.289
-163.387
-162.034
-158.088
-152.095
-145.287
-138.721
-133.323
-130.138
-130.08
-133.859
-140.472
-146.427
-147.872
-142.181
-129.979
-113.892
-93.288
-62.257
-10.708
68.984
176.817
303.949
435.924
563.573
682.014
786.74
873.682
930.052
939.853
896.546
799.28
655.986
485.546
305.163
132.927
-9.286
-109.812
-167.013
-185.027
-179.039
-163.008
-139.426
-112.563
-86.299
-62.427
-51.119
-55.452
-68.779
-86.646
-100.91
-107.776
-111.79
-114.751
-117.704
-120.994
-121.992
-119.942
-115.872
-110.606
-105.297
-100.8
-97.359
-95.128
-94.2
-94.43
-95.523
-97.236
-99.378
-101.765
-104.268
-106.753
-109.053
-111.009
-112.479
-113.347
-113.537
-113.005
-111.733
-109.717
-106.974
-103.555
-99.528
-94.963
-89.926
-84.472
-78.648
-72.523
-66.175
-59.688
-53.154
-46.639
-40.188
-33.838
-27.613
-21.526
-15.584
-9.775
-4.079
1.519
7.03
12.46
17.812
23.095
28.325
33.514
38.675
43.819
48.953
54.085
59.221
64.365
69.517
74.673
79.829
84.98
90.125
95.261
100.383
105.488
110.57
115.623
120.641
125.615
130.535
135.386
140.157
144.83
149.39
153.82
158.101
162.214
166.138
169.854
173.343
176.583
179.555
182.239
184.617
186.669
188.379
189.732
190.713
191.309
191.51
191.306
190.691
189.661
188.211
186.342
184.056
181.355
178.245
174.734
170.832
166.551
161.906
156.913
151.592
145.963
140.05
133.878
127.472
120.861
114.075
107.142
100.094
92.962
85.778
78.574
71.382
64.234
57.16
50.192
43.358
36.687
30.205
23.938
17.91
12.143
6.656
1.469
-3.404
-7.948
-12.15
-16.003
-19.498
-22.63
-25.396
-27.797
-29.832
-31.507
-32.828
-33.802
-34.44
-34.754
-34.757
-34.465
-33.895
-33.065
-31.993
-30.7
-29.207
-27.534
-25.705
-23.74
-21.663
-19.497
-17.264
-14.986
-12.687
-10.388
-8.11
-5.873
-3.696
-1.598
0.406
2.299
4.069
5.702
7.187
8.514
9.672
10.655
11.456
12.07
12.493
12.723
12.759
12.602
12.252
11.713
10.986
10.077
8.988
7.725
6.294
4.702
2.957
1.068
-0.954
-3.098
-5.351
-7.697
-10.124
-12.618
-15.165
-17.753
-20.368
-23.001
-25.642
-28.283
-30.912
-33.518
-36.089
-38.608
-41.063
-43.437
-45.715
-47.882
-49.924
-51.83
-53.592
-55.207
-56.664
-57.956
-59.069
-59.983
-60.69
-61.184
-61.462
-61.528
-61.398
-61.091
-60.65
-60.118
-59.523
-58.891
-58.229
-57.529
-56.789
-56.002
-55.156
-54.258
-53.309
-52.301
-51.242
-50.129
-48.937
-47.635
-46.155
-44.411
-42.363
-39.995
-37.314
-34.377
-31.241
-27.976
-24.692
-21.475
-18.403
-15.574
-13.043
-10.86
-9.106
-7.867
-7.256
-7.416
-8.415
-10.265
-12.962
-16.434
-20.602
-25.368
-30.567
-36.032
-41.613
-47.151
-52.536
-57.695
-62.532
-66.951
-70.859
-74.158
-76.83
-78.924
-80.504
-81.673
-82.546
-83.282
-84.103
-85.204
-86.797
-89.134
-92.347
-96.458
-101.354
-106.669
-111.984
-117.003
-121.319
-124.392
-125.81
-125.303
-123.139
-120.314
-117.961
-116.885
-117.505
-120.315
-125.875
-134.289
-144.72
-153.899
-156.613
-149.988
-132.888
-105.601
-71.222
-26.681
33.661
111.206
209.405
323.598
444.074
568.878
691.246
802.338
894.379
949.128
951.237
897.957
791.534
643.654
473.359
295.263
125.82
-14.546
-113.467
-166.076
-177.001
-164.384
-145.807
-130.156
-120.323
-112.017
-100.093
-85.606
-71.518
-60.748
-55.923
-56.493
-60.266
-65.442
-70.002
-72.247
-71.69
-68.484
-63.105
-56.447
-49.343
-42.408
-36.344
-31.856
-29.264
-28.6
-29.717
-32.273
-35.963
-40.576
-45.854
-51.508
-57.296
-62.972
-68.319
-73.221
-77.583
-81.328
-84.422
-86.836
-88.563
-89.641
-90.13
-90.088
-89.577
-88.646
-87.339
-85.726
-83.883
-81.895
-79.849
-77.803
-75.791
-73.838
-71.956
-70.146
-68.404
-66.706
-65.014
-63.303
-61.551
-59.74
-57.858
-55.887
-53.803
-51.584
-49.21
-46.664
-43.935
-41.011
-37.883
-34.545
-30.996
-27.238
-23.279
-19.121
-14.769
-10.228
-5.502
-0.598
4.474
9.706
15.086
20.601
26.236
31.973
37.791
43.671
49.591
55.527
61.456
67.354
73.195
78.954
84.606
90.124
95.484
100.66
105.626
110.359
114.835
119.033
122.932
126.513
129.759
132.656
135.191
137.352
139.132
140.523
141.52
142.123
142.329
142.141
141.562
140.599
139.26
137.555
135.498
133.104
130.388
127.369
124.067
120.503
116.7
112.681
108.47
104.093
99.575
94.944
90.225
85.445
80.63
75.805
70.995
66.223
61.512
56.883
52.356
47.949
43.681
39.565
35.618
31.851
28.276
24.904
21.741
18.795
16.07
13.571
11.298
9.253
7.433
5.836
4.457
3.29
2.327
1.56
0.979
0.57
0.323
0.223
0.256
0.408
0.662
1.004
1.418
1.888
2.401
2.939
3.489
4.036
4.566
5.065
5.521
5.919
6.249
6.499
6.657
6.714
6.66
6.485
6.182
5.745
5.166
4.441
3.566
2.538
1.358
0.025
-1.459
-3.092
-4.868
-6.784
-8.831
-11.004
-13.294
-15.692
-18.19
-20.776
-23.441
-26.172
-28.959
-31.788
-34.647
-37.522
-40.399
-43.263
-46.102
-48.899
-51.641
-54.31
-56.892
-59.371
-61.731
-63.957
-66.034
-67.948
-69.685
-71.233
-72.582
-73.721
-74.641
-75.336
-75.798
-76.024
-76.009
-75.753
-75.253
-74.51
-73.526
-72.306
-70.853
-69.176
-67.281
-65.179
-62.884
-60.409
-57.77
-54.985
-52.073
-49.054
-45.95
-42.783
-39.574
-36.345
-33.119
-29.919
-26.769
-23.695
-20.723
-17.877
-15.179
-12.651
-10.315
-8.189
-6.284
-4.612
-3.184
-2.015
-1.127
-0.542
-0.271
-0.323
-0.703
-1.405
-2.416
-3.712
-5.246
-6.971
-8.841
-10.815
-12.864
-14.958
-17.051
-19.088
-20.997
-22.716
-24.204
-25.427
-26.346
-26.949
-27.269
-27.376
-27.402
-27.471
-27.656
-28.038
-28.706
-29.755
-31.316
-33.516
-36.433
-40.172
-44.891
-50.615
-57.257
-64.555
-71.931
-78.759
-84.515
-88.575
-90.251
-89.241
-85.607
-79.85
-73.238
-67.015
-61.981
-59.049
-59.121
-62.236
-67.527
-73.246
-76.278
-73.215
-61.146
-36.979
2.665
59.006
130.098
213.179
303.872
399.327
501.855
611.448
721.971
822.332
893.851
918.183
888.867
808.021
685.372
537.463
377.863
220.134
81.483
-24.85
-91.469
-119.352
-121.71
-114.49
-107.254
-103.906
-101.472
-95.073
-85.424
-75.244
-67.51
-65.401
-68.802
-75.842
-85.044
-94.228
-101.363
-105.678
-106.882
-105.165
-101.367
-96.312
-90.628
-85.115
-80.568
-77.381
-75.722
-75.547
-76.571
-78.55
-81.296
-84.57
-88.141
-91.85
-95.548
-99.097
-102.385
-105.26
-107.601
-109.34
-110.435
-110.87
-110.648
-109.792
-108.345
-106.379
-103.963
-101.158
-98.019
-94.597
-90.955
-87.166
-83.309
-79.46
-75.675
-71.99
-68.435
-65.024
-61.764
-58.652
-55.672
-52.801
-50.02
-47.317
-44.682
-42.107
-39.576
-37.075
-34.588
-32.098
-29.594
-27.066
-24.501
-21.894
-19.239
-16.534
-13.777
-10.97
-8.113
-5.205
-2.245
0.769
3.834
6.95
10.114
13.321
16.566
19.839
23.131
26.429
29.721
32.992
36.228
39.412
42.528
45.559
48.488
51.295
53.964
56.475
58.811
60.956
62.891
64.602
66.074
67.292
68.246
68.924
69.316
69.414
69.21
68.699
67.877
66.74
65.29
63.525
61.451
59.071
56.393
53.426
50.182
46.673
42.913
38.92
34.71
30.301
25.715
20.97
16.088
11.091
6.001
0.84
-4.37
-9.607
-14.851
-20.079
-25.274
-30.414
-35.483
-40.462
-45.336
-50.089
-54.707
-59.176
-63.485
-67.623
-71.582
-75.352
-78.93
-82.309
-85.488
-88.465
-91.241
-93.817
-96.196
-98.383
-100.383
-102.201
-103.846
-105.326
-106.649
-107.825
-108.863
-109.773
-110.565
-111.25
-111.835
-112.331
-112.748
-113.093
-113.374
-113.601
-113.78
-113.92
-114.026
-114.105
-114.162
-114.203
-114.231
-114.25
-114.26
-114.265
-114.264
-114.256
-114.24
-114.214
-114.175
-114.119
-114.041
-113.937
-113.8
-113.624
-113.402
-113.127
-112.793
-112.391
-111.916
-111.359
-110.714
-109.975
-109.134
-108.186
-107.124
-105.941
-104.632
-103.189
-101.607
-99.879
-98.002
-95.971
-93.78
-91.427
-88.909
-86.224
-83.371
-80.349
-77.158
-73.801
-70.278
-66.593
-62.752
-58.76
-54.624
-50.351
-45.95
-41.431
-36.806
-32.087
-27.284
-22.412
-17.484
-12.516
-7.524
-2.526
2.462
7.419
12.323
17.152
21.881
26.485
30.941
35.221
39.302
43.157
46.764
50.101
53.147
55.883
58.286
60.337
62.015
63.302
64.183
64.645
64.674
64.263
63.412
62.124
60.4
58.242
55.643
52.596
49.104
45.171
40.8
36.008
30.819
25.27
19.417
13.318
7.029
0.6
-5.927
-12.511
-19.099
-25.628
-32.031
-38.24
-44.204
-49.869
-55.168
-60.07
-64.592
-68.788
-72.764
-76.61
-80.359
-84.066
-87.811
-91.673
-95.756
-100.14
-104.845
-109.975
-115.733
-122.199
-129.33
-136.86
-144.187
-150.717
-155.954
-159.266
-159.959
-157.728
-152.716
-145.668
-138.049
-131.417
-127.17
-126.794
-131.589
-140.713
-151.288
-160.13
-163.858
-162.499
-158.412
-149.785
-131.022
-92.601
-24.441
75.422
201.556
343.818
490.068
629.553
750.038
838.011
879.564
863.701
789.799
664.385
500.914
319.903
140.548
-16.524
-133.725
-206.074
-235.716
-232.933
-212.118
-181.258
-147.591
-118.967
-100.214
-96.579
-107.726
-124.679
-139.808
-148.262
-149.228
-148.42
-149.416
-151.918
-154.813
-155.339
-152.268
-146.724
-139.825
-132.551
-125.738
-119.845
-115.112
-111.739
-109.685
-108.663
-108.467
-108.954
-109.943
-111.276
-112.8
-114.34
-115.758
-116.925
-117.675
-117.875
-117.437
-116.301
-114.456
-111.905
-108.655
-104.754
-100.261
-95.242
-89.758
-83.863
-77.607
-71.058
-64.293
-57.397
-50.456
-43.532
-36.672
-29.911
-23.273
-16.77
-10.413
-4.191
1.909
7.893
13.768
19.532
25.184
30.73
36.177
41.531
46.8
51.989
57.1
62.136
67.1
71.989
76.8
81.53
86.172
90.722
95.178
99.539
103.802
107.967
112.03
115.99
119.846
123.594
127.231
130.753
134.154
137.429
140.575
143.585
146.453
149.174
151.741
154.148
156.389
158.456
160.341
162.037
163.537
164.833
165.919
166.788
167.431
167.845
168.023
167.961
167.654
167.101
166.297
165.241
163.933
162.372
160.56
158.498
156.188
153.634
150.839
147.809
144.549
141.065
137.364
133.452
129.339
125.032
120.541
115.876
111.047
106.065
100.943
95.693
90.329
84.863
79.31
73.685
68.001
62.273
56.516
50.745
44.975
39.219
33.491
27.806
22.175
16.612
11.128
5.735
0.443
-4.738
-9.798
-14.729
-19.522
-24.169
-28.663
-32.998
-37.167
-41.165
-44.989
-48.635
-52.1
-55.384
-58.486
-61.407
-64.147
-66.71
-69.099
-71.318
-73.373
-75.269
-77.014
-78.616
-80.082
-81.421
-82.643
-83.757
-84.771
-85.696
-86.539
-87.311
-88.018
-88.671
-89.278
-89.845
-90.382
-90.896
-91.393
-91.88
-92.362
-92.846
-93.334
-93.83
-94.338
-94.86
-95.395
-95.946
-96.511
-97.089
-97.679
-98.277
-98.88
-99.481
-100.076
-100.658
-101.219
-101.75
-102.243
-102.689
-103.078
-103.402
-103.652
-103.817
-103.89
-103.861
-103.723
-103.466
-103.084
-102.57
-101.916
-101.118
-100.172
-99.074
-97.823
-96.416
-94.855
-93.139
-91.273
-89.259
-87.1
-84.803
-82.373
-79.818
-77.148
-74.374
-71.505
-68.556
-65.541
-62.479
-59.389
-56.29
-53.201
-50.143
-47.137
-44.205
-41.365
-38.633
-36.024
-33.553
-31.237
-29.094
-27.137
-25.379
-23.832
-22.505
-21.406
-20.544
-19.918
-19.521
-19.348
-19.396
-19.669
-20.183
-20.943
-21.951
-23.203
-24.689
-26.395
-28.302
-30.37
-32.541
-34.756
-36.957
-39.099
-41.15
-43.065
-44.79
-46.259
-47.393
-48.127
-48.411
-48.203
-47.487
-46.274
-44.598
-42.536
-40.198
-37.698
-35.174
-32.751
-30.521
-28.584
-27.012
-25.928
-25.568
-26.072
-27.413
-29.459
-31.868
-34.252
-36.364
-37.76
-37.663
-35.545
-31.332
-25.293
-18.32
-11.537
-5.646
-1.501
-0.665
-2.984
-6.165
-8.329
-6.476
-0.731
4.079
8.055
15.325
35.214
81.955
160.439
266.594
390.564
518.444
643.851
763.71
871.284
957.274
1004.11
994.382
922.791
792.89
620.121
428.337
238.473
70.275
-59.311
-141.918
-174.962
-161.939
-116.595
-56.09
2.058
39.75
50.606
38.031
11.463
-12.448
-25.042
-26.15
-19.244
-13.01
-11.087
-11.818
-13.387
-12.857
-9.415
-4.432
1.151
6.56
11.153
14.626
16.788
17.547
17.072
15.664
13.543
10.84
7.704
4.334
0.922
-2.326
-5.212
-7.638
-9.528
-10.808
-11.453
-11.451
-10.798
-9.534
-7.73
-5.444
-2.741
0.317
3.688
7.307
11.095
14.971
18.841
22.637
26.316
29.845
33.199
36.368
39.344
42.136
44.771
47.269
49.642
51.902
54.054
56.111
58.092
60.015
61.898
63.757
65.604
67.453
69.314
71.199
73.113
75.061
77.042
79.059
81.116
83.217
85.364
87.56
89.804
92.095
94.432
96.811
99.225
101.665
104.121
106.582
109.036
111.468
113.865
116.211
118.489
120.684
122.778
124.755
126.597
128.285
129.802
131.131
132.254
133.156
133.819
134.228
134.37
134.231
133.8
133.067
132.024
130.663
128.98
126.972
124.638
121.978
118.996
115.696
112.087
108.179
103.983
99.512
94.782
89.809
84.612
79.208
73.62
67.866
61.968
55.948
49.828
43.63
37.378
31.094
24.801
18.521
12.276
6.088
-0.023
-6.037
-11.934
-17.697
-23.309
-28.754
-34.018
-39.09
-43.958
-48.614
-53.049
-57.259
-61.239
-64.987
-68.504
-71.79
-74.847
-77.679
-80.29
-82.687
-84.875
-86.862
-88.656
-90.265
-91.698
-92.966
-94.077
-95.042
-95.871
-96.576
-97.166
-97.653
-98.048
-98.361
-98.602
-98.782
-98.911
-98.998
-99.051
-99.079
-99.089
-99.086
-99.077
-99.065
-99.054
-99.047
-99.045
-99.05
-99.063
-99.083
-99.11
-99.143
-99.181
-99.222
-99.263
-99.302
-99.338
-99.366
-99.384
-99.388
-99.375
-99.342
-99.285
-99.2
-99.082
-98.927
-98.729
-98.485
-98.188
-97.834
-97.418
-96.934
-96.378
-95.747
-95.037
-94.245
-93.366
-92.4
-91.342
-90.19
-88.944
-87.601
-86.159
-84.618
-82.976
-81.235
-79.394
-77.453
-75.414
-73.279
-71.049
-68.728
-66.318
-63.822
-61.246
-58.595
-55.875
-53.093
-50.259
-47.38
-44.47
-41.542
-38.611
-35.691
-32.799
-29.95
-27.16
-24.448
-21.826
-19.309
-16.908
-14.638
-12.512
-10.548
-8.761
-7.163
-5.768
-4.587
-3.629
-2.904
-2.417
-2.164
-2.144
-2.358
-2.817
-3.54
-4.544
-5.833
-7.411
-9.27
-11.4
-13.787
-16.399
-19.185
-22.095
-25.081
-28.101
-31.134
-34.148
-37.092
-39.906
-42.505
-44.817
-46.795
-48.398
-49.601
-50.403
-50.824
-50.918
-50.781
-50.516
-50.228
-50.027
-50.015
-50.3
-50.991
-52.246
-54.295
-57.28
-61.197
-65.853
-70.819
-75.62
-79.848
-82.98
-84.348
-83.498
-80.347
-75.457
-70.092
-65.609
-63.133
-63.642
-67.999
-76.66
-89.263
-103.987
-117.741
-126.977
-127.917
-116.989
-90.917
-46.515
17.226
97.901
192.02
294.845
402.982
516.181
632.132
745.504
846.189
920.091
953.759
936.929
867.464
748.606
589.947
410.109
228.992
69.308
-49.688
-123.191
-154.741
-155.617
-140.092
-115.438
-87.616
-63.315
-47.335
-44.758
-55.287
-70.994
-84.781
-92.342
-93.459
-93.335
-95.099
-98.282
-101.549
-102.394
-99.853
-95.007
-88.94
-82.583
-76.745
-71.974
-68.588
-66.797
-66.547
-67.543
-69.573
-72.496
-76.138
-80.316
-84.852
-89.543
-94.218
-98.737
-102.914
-106.598
-109.685
-112.094
-113.797
-114.788
-115.074
-114.687
-113.68
-112.103
-110.005
-107.427
-104.41
-101.012
-97.303
-93.356
-89.252
-85.046
-80.776
-76.467
-72.133
-67.775
-63.389
-58.956
-54.453
-49.864
-45.177
-40.387
-35.494
-30.492
-25.373
-20.131
-14.762
-9.263
-3.637
2.112
7.978
13.949
20.013
26.153
32.35
38.584
44.842
51.105
57.358
63.584
69.764
75.881
81.916
87.851
93.664
99.334
104.839
110.158
115.269
120.152
124.786
129.152
133.232
137.008
140.463
143.583
146.354
148.762
150.796
152.448
153.708
154.571
155.033
155.09
154.743
153.991
152.838
151.289
149.348
147.025
144.327
141.265
137.851
134.1
130.025
125.644
120.973
116.033
110.843
105.424
99.797
93.983
88.005
81.885
75.645
69.306
62.891
56.421
49.917
43.401
36.893
30.412
23.978
17.608
11.32
5.129
-0.949
-6.899
-12.708
-18.365
-23.856
-29.171
-34.301
-39.238
-43.973
-48.501
-52.817
-56.917
-60.798
-64.458
-67.898
-71.116
-74.115
-76.895
-79.458
-81.809
-83.951
-85.888
-87.626
-89.171
-90.529
-91.708
-92.715
-93.558
-94.247
-94.789
-95.193
-95.47
-95.628
-95.677
-95.629
-95.493
-95.279
-95
-94.665
-94.286
-93.873
-93.437
-92.986
-92.532
-92.082
-91.646
-91.231
-90.846
-90.499
-90.195
-89.943
-89.746
-89.611
-89.541
-89.539
-89.607
-89.746
-89.956
-90.238
-90.588
-91.006
-91.487
-92.028
-92.625
-93.272
-93.961
-94.686
-95.439
-96.21
-96.988
-97.764
-98.526
-99.264
-99.965
-100.618
-101.212
-101.735
-102.175
-102.522
-102.764
-102.891
-102.892
-102.758
-102.479
-102.048
-101.46
-100.709
-99.791
-98.704
-97.447
-96.021
-94.43
-92.675
-90.762
-88.697
-86.487
-84.143
-81.675
-79.096
-76.42
-73.664
-70.848
-67.994
-65.123
-62.258
-59.423
-56.641
-53.937
-51.335
-48.855
-46.516
-44.339
-42.347
-40.562
-39.006
-37.695
-36.648
-35.876
-35.393
-35.212
-35.335
-35.759
-36.482
-37.503
-38.826
-40.468
-42.436
-44.728
-47.34
-50.262
-53.477
-56.969
-60.698
-64.613
-68.658
-72.78
-76.937
-81.098
-85.215
-89.228
-93.069
-96.65
-99.908
-102.793
-105.251
-107.248
-108.782
-109.868
-110.561
-110.94
-111.072
-111.046
-110.971
-110.948
-111.09
-111.482
-112.248
-113.603
-115.685
-118.495
-121.843
-125.325
-128.533
-131.176
-132.847
-132.947
-131.031
-127.021
-121.543
-115.76
-110.67
-107.112
-105.973
-108.291
-115.046
-125.198
-135.11
-141.121
-140.785
-135.248
-127.871
-117.596
-97.451
-56.37
14.126
114.335
235.205
362.76
489.148
610.047
720.607
814.783
876.347
887.024
839.89
736.132
587.581
415.112
235.002
62.639
-84.613
-196.766
-267.045
-294.157
-288.479
-260.579
-221.026
-182.221
-149.704
-128.003
-119.005
-116.998
-118.22
-119.829
-121.119
-126.273
-136.97
-152.52
-170.311
-186.06
-197.595
-204.026
-205.297
-202.476
-196.452
-188.422
-180.144
-172.657
-166.532
-162.28
-159.931
-159.41
-160.653
-163.189
-166.37
-169.81
-173.24
-176.457
-179.399
-181.918
-183.856
-185.197
-185.956
-186.139
-185.754
-184.776
-183.182
-181.001
-178.28
-175.065
-171.412
-167.361
-162.962
-158.28
-153.381
-148.336
-143.201
-138.008
-132.783
-127.544
-122.297
-117.046
-111.783
-106.488
-101.147
-95.747
-90.276
-84.726
-79.088
-73.353
-67.514
-61.562
-55.492
-49.304
-42.997
-36.572
-30.036
-23.394
-16.656
-9.835
-2.942
4.011
11.012
18.049
25.109
32.179
39.244
46.29
53.301
60.259
67.147
73.945
80.634
87.193
93.603
99.843
105.893
111.733
117.344
122.708
127.806
132.62
137.135
141.334
145.205
148.733
151.907
154.718
157.157
159.217
160.895
162.186
163.09
163.607
163.74
163.494
162.874
161.888
160.546
158.858
156.838
154.499
151.859
148.933
145.742
142.304
138.64
134.772
130.722
126.513
122.167
117.708
113.159
108.543
103.884
99.204
94.525
89.869
85.258
80.71
76.247
71.884
67.641
63.531
59.571
55.772
52.146
48.705
45.456
42.407
39.564
36.932
34.514
32.311
30.324
28.551
26.991
25.639
24.491
23.541
22.782
22.207
21.806
21.571
21.492
21.557
21.757
22.078
22.511
23.042
23.66
24.353
25.108
25.914
26.76
27.633
28.522
29.417
30.307
31.183
32.035
32.854
33.633
34.365
35.042
35.66
36.212
36.694
37.104
37.436
37.691
37.866
37.962
37.978
37.917
37.779
37.568
37.288
36.941
36.533
36.069
35.553
34.992
34.393
33.762
33.108
32.437
31.759
31.083
30.417
29.771
29.153
28.574
28.042
27.567
27.159
26.825
26.577
26.421
26.366
26.422
26.595
26.893
27.321
27.883
28.586
29.431
30.423
31.561
32.846
34.277
35.853
37.571
39.428
41.417
43.533
45.766
48.109
50.549
53.072
55.663
58.305
60.979
63.666
66.348
69.004
71.612
74.155
76.615
78.972
81.207
83.298
85.223
86.961
88.493
89.803
90.874
91.69
92.239
92.518
92.524
92.251
91.692
90.827
89.638
88.117
86.262
84.071
81.558
78.737
75.632
72.294
68.77
65.106
61.346
57.515
53.639
49.768
45.96
42.29
38.837
35.648
32.765
30.238
28.072
26.252
24.719
23.367
22.108
20.879
19.598
18.183
16.528
14.507
12.046
9.022
5.231
0.575
-4.951
-11.166
-17.521
-23.466
-28.587
-32.298
-33.978
-33.277
-30.033
-24.837
-19.232
-14.603
-11.915
-12.319
-16.819
-25.779
-39.206
-54.386
-65.69
-69.739
-64.243
-48.482
-25.143
9.715
63.198
138.306
239.202
360.232
488.796
619.421
744.405
857.389
953.707
1019.159
1037.637
998.046
896.319
737.219
538
324.389
121.32
-43.298
-149.825
-197.997
-194.614
-155.199
-102.363
-48.518
-4.836
15.756
12.827
-11.672
-50.642
-87.36
-114.026
-128.817
-133.429
-136.124
-140.225
-144.939
-149.312
-150.771
-148.891
-145.224
-140.834
-136.816
-133.891
-132.053
-131.281
-131.478
-132.354
-133.723
-135.435
-137.348
-139.37
-141.408
-143.415
-145.389
-147.278
-148.994
-150.424
-151.41
-151.864
-151.798
-151.25
-150.319
-149.152
-147.84
-146.478
-145.164
-143.918
-142.749
-141.627
-140.455
-139.18
-137.789
-136.276
-134.67
-132.989
-131.191
-129.226
-127.023
-124.466
-121.476
-117.987
-113.925
-109.278
-104.064
-98.327
-92.169
-85.678
-78.904
-71.892
-64.662
-57.223
-49.605
-41.837
-33.94
-25.963
-17.946
-9.925
-1.946
5.966
13.808
21.584
29.321
37.045
44.762
52.47
60.159
67.807
75.394
82.893
90.268
97.488
104.527
111.362
117.973
124.338
130.429
136.219
141.677
146.772
151.48
155.776
159.641
163.056
166.009
168.49
170.492
172.014
173.051
173.599
173.656
173.222
172.299
170.889
168.999
166.634
163.805
160.524
156.807
152.671
148.134
143.217
137.941
132.331
126.411
120.205
113.741
107.046
100.146
93.07
85.845
78.501
71.064
63.564
56.026
48.479
40.948
33.458
26.034
18.699
11.475
4.383
-2.556
-9.324
-15.902
-22.274
-28.425
-34.342
-40.012
-45.426
-50.575
-55.453
-60.053
-64.373
-68.409
-72.161
-75.628
-78.813
-81.716
-84.343
-86.698
-88.787
-90.616
-92.193
-93.527
-94.626
-95.5
-96.159
-96.613
-96.874
-96.951
-96.858
-96.604
-96.203
-95.666
-95.005
-94.231
-93.356
-92.391
-91.347
-90.233
-89.061
-87.839
-86.576
-85.283
-83.966
-82.635
-81.297
-79.96
-78.628
-77.31
-76.009
-74.731
-73.481
-72.261
-71.074
-69.924
-68.813
-67.743
-66.715
-65.73
-64.787
-63.886
-63.026
-62.206
-61.421
-60.669
-59.945
-59.246
-58.569
-57.908
-57.258
-56.615
-55.972
-55.324
-54.666
-53.992
-53.295
-52.567
-51.804
-50.999
-50.147
-49.243
-48.281
-47.258
-46.169
-45.013
-43.786
-42.488
-41.116
-39.668
-38.147
-36.552
-34.886
-33.154
-31.359
-29.51
-27.619
-25.696
-23.756
-21.812
-19.88
-17.975
-16.115
-14.312
-12.581
-10.934
-9.384
-7.948
-6.646
-5.492
-4.501
-3.686
-3.062
-2.641
-2.437
-2.455
-2.693
-3.153
-3.844
-4.781
-5.992
-7.497
-9.303
-11.415
-13.836
-16.563
-19.589
-22.885
-26.395
-30.066
-33.846
-37.696
-41.59
-45.483
-49.305
-52.976
-56.402
-59.511
-62.263
-64.618
-66.539
-68.024
-69.089
-69.785
-70.238
-70.575
-70.92
-71.412
-72.147
-73.218
-74.787
-77.083
-80.311
-84.541
-89.603
-95.143
-100.817
-106.335
-111.354
-115.318
-117.587
-117.853
-116.55
-114.644
-113.152
-113.035
-114.999
-119.813
-128.686
-140.98
-153.307
-162.361
-164.539
-159.707
-152.495
-142.825
-126.245
-93.438
-31.331
63.93
187.627
329.464
476.845
622.647
759.445
877.331
962.423
996.23
969.74
884.103
748.736
583.813
407.598
235.869
87.117
-27.17
-103.184
-141.192
-152.283
-149.405
-135.96
-116.845
-95.778
-73.675
-60.067
-58.847
-65.017
-75.536
-83.341
-85.209
-85.869
-87.265
-90.261
-94.442
-96.554
-95.465
-91.944
-86.873
-81.45
-76.457
-72.234
-69.253
-67.884
-68.17
-69.916
-72.822
-76.625
-81.127
-86.158
-91.517
-96.982
-102.368
-107.499
-112.215
-116.395
-119.949
-122.812
-124.958
-126.374
-127.067
-127.082
-126.479
-125.326
-123.685
-121.607
-119.143
-116.358
-113.325
-110.123
-106.829
-103.496
-100.157
-96.839
-93.554
-90.311
-87.109
-83.931
-80.754
-77.561
-74.341
-71.084
-67.787
-64.439
-61.024
-57.533
-53.955
-50.283
-46.515
-42.649
-38.683
-34.62
-30.466
-26.23
-21.923
-17.553
-13.127
-8.65
-4.129
0.429
5.014
9.618
14.232
18.844
23.438
27.996
32.497
36.923
41.256
45.478
49.572
53.519
57.298
60.893
64.292
67.479
70.432
73.125
75.528
77.624
79.41
80.892
82.072
82.949
83.526
83.812
83.828
83.583
83.072
82.266
81.138
79.676
77.89
75.808
73.459
70.852
67.978
64.821
61.382
57.668
53.671
49.365
44.707
39.693
34.372
28.844
23.207
17.527
11.844
6.176
0.551
-4.98
-10.356
-15.524
-20.45
-25.096
-29.401
-33.265
-36.579
-39.287
-41.41
-43.031
-44.23
-45.049
-45.51
-45.625
-45.425
-44.955
-44.253
-43.337
-42.211
-40.899
-39.453
-37.963
-36.528
-35.198
-33.97
-32.797
-31.639
-30.485
-29.336
-28.193
-27.039
-25.862
-24.667
-23.486
-22.351
-21.28
-20.271
-19.3
-18.343
-17.4
-16.492
-15.654
-14.916
-14.295
-13.807
-13.471
-13.31
-13.34
-13.564
-13.968
-14.538
-15.266
-16.151
-17.197
-18.404
-19.763
-21.265
-22.898
-24.651
-26.513
-28.47
-30.507
-32.605
-34.751
-36.933
-39.142
-41.369
-43.602
-45.829
-48.037
-50.214
-52.348
-54.427
-56.434
-58.358
-60.186
-61.907
-63.511
-64.987
-66.327
-67.521
-68.562
-69.445
-70.161
-70.707
-71.078
-71.272
-71.288
-71.125
-70.785
-70.269
-69.58
-68.723
-67.704
-66.529
-65.205
-63.74
-62.144
-60.427
-58.601
-56.679
-54.676
-52.606
-50.488
-48.343
-46.191
-44.053
-41.95
-39.903
-37.934
-36.065
-34.313
-32.696
-31.229
-29.931
-28.823
-27.921
-27.244
-26.804
-26.615
-26.688
-27.036
-27.661
-28.562
-29.734
-31.178
-32.897
-34.906
-37.214
-39.82
-42.721
-45.909
-49.364
-53.064
-56.968
-61.014
-65.146
-69.307
-73.449
-77.541
-81.536
-85.379
-89.006
-92.339
-95.317
-97.899
-100.03
-101.673
-102.844
-103.575
-103.953
-104.103
-104.096
-104.012
-103.965
-104.041
-104.347
-104.995
-106.018
-107.525
-109.721
-112.655
-116.258
-120.342
-124.4
-127.954
-130.692
-132.037
-131.268
-128.115
-122.674
-115.385
-107.357
-99.687
-93.068
-88.605
-87.822
-89.929
-92.009
-91.701
-85.517
-74.13
-63.488
-53.402
-40.349
-15.988
35.559
120.277
236.145
376.188
522.918
662.503
781.884
866.713
910.182
905.002
851.331
756.078
624.495
470.693
308.247
152.107
23.918
-66.761
-117.985
-135.94
-138.624
-136.185
-131.632
-124.661
-109.038
-84.192
-54.955
-26.036
-3.074
11.024
16.224
13.014
2.712
-12.647
-30.847
-49.687
-67.08
-81.653
-92.558
-99.294
-101.889
-100.929
-97.376
-92.415
-87.368
-83.095
-80.112
-78.752
-79.006
-80.731
-83.674
-87.376
-91.263
-94.92
-98.065
-100.538
-102.345
-103.482
-103.938
-103.754
-102.992
-101.71
-99.96
-97.766
-95.126
-92.055
-88.588
-84.783
-80.716
-76.464
-72.102
-67.685
-63.252
-58.84
-54.474
-50.177
-45.96
-41.826
-37.766
-33.779
-29.867
-26.031
-22.271
-18.577
-14.934
-11.329
-7.75
-4.191
-0.644
2.897
6.44
9.986
13.539
17.097
20.657
24.221
27.788
31.36
34.934
38.509
42.081
45.648
49.205
52.746
56.263
59.748
63.19
66.577
69.897
73.138
76.284
79.321
82.234
85.006
87.622
90.064
92.315
94.359
96.178
97.756
99.078
100.129
100.893
101.358
101.513
101.348
100.853
100.023
98.851
97.334
95.471
93.262
90.711
87.823
84.604
81.064
77.215
73.071
68.65
63.969
59.048
53.909
48.577
43.075
37.429
31.668
25.818
19.908
13.969
8.03
2.121
-3.728
-9.486
-15.126
-20.617
-25.933
-31.046
-35.931
-40.564
-44.921
-48.982
-52.726
-56.138
-59.201
-61.903
-64.233
-66.183
-67.748
-68.924
-69.712
-70.113
-70.131
-69.774
-69.051
-67.972
-66.55
-64.801
-62.743
-60.392
-57.771
-54.9
-51.803
-48.504
-45.026
-41.397
-37.642
-33.787
-29.859
-25.883
-21.888
-17.897
-13.939
-10.037
-6.216
-2.499
1.092
4.537
7.815
10.911
13.807
16.491
18.951
21.175
23.156
24.887
26.364
27.585
28.548
29.257
29.713
29.923
29.894
29.633
29.153
28.463
27.576
26.507
25.269
23.879
22.353
20.709
18.963
17.136
15.246
13.314
11.358
9.398
7.454
5.544
3.687
1.901
0.202
-1.392
-2.868
-4.21
-5.404
-6.439
-7.304
-7.989
-8.486
-8.791
-8.897
-8.803
-8.508
-8.01
-7.314
-6.421
-5.336
-4.064
-2.613
-0.99
0.796
2.733
4.809
7.009
9.315
11.709
14.171
16.681
19.217
21.758
24.282
26.769
29.203
31.565
33.84
36.008
38.05
39.948
41.685
43.248
44.623
45.798
46.762
47.509
48.043
48.362
48.466
48.347
47.983
47.359
46.47
45.312
43.889
42.212
40.294
38.167
35.888
33.511
31.093
28.685
26.318
24.035
21.896
19.966
18.328
17.051
16.179
15.749
15.782
16.269
17.173
18.417
19.882
21.433
22.926
24.21
25.132
25.534
25.29
24.231
22.127
18.86
14.425
9.001
3.024
-3.039
-8.822
-13.819
-17.358
-18.946
-18.385
-16.055
-13.024
-10.453
-9.086
-9.535
-12.757
-19.325
-28.937
-40.314
-49.644
-52.685
-47.488
-31.276
-3.308
36.88
93.905
167.235
256.433
361.35
475.005
596.757
723.922
845.248
951.115
1023.496
1042.979
1004.315
907.718
761.947
587.326
401.278
222.613
73.8
-32.683
-92.711
-111.376
-106.652
-95.562
-86.602
-82.5
-79.139
-71.727
-61.646
-52.129
-46.273
-46.751
-52.883
-62.262
-72.891
-82.55
-89.367
-92.68
-92.423
-88.94
-83.128
-75.949
-68.232
-60.878
-54.712
-50.148
-47.306
-46.127
-46.359
-47.766
-50.16
-53.304
-56.948
-60.923
-65.095
-69.319
-73.477
-77.414
-80.95
-83.967
-86.396
-88.185
-89.323
-89.821
-89.694
-88.986
-87.764
-86.078
-83.985
-81.536
-78.775
-75.764
-72.571
-69.263
-65.908
-62.555
-59.229
-55.95
-52.722
-49.538
-46.39
-43.257
-40.112
-36.939
-33.723
-30.453
-27.12
-23.714
-20.222
-16.634
-12.94
-9.133
-5.211
-1.173
2.978
7.237
11.596
16.045
20.571
25.163
29.811
34.503
39.228
43.974
48.728
53.476
58.204
62.896
67.534
72.1
76.577
80.944
85.182
89.273
93.197
96.935
100.468
103.777
106.846
109.655
112.189
114.43
116.366
117.983
119.27
120.215
120.811
121.051
120.931
120.448
119.599
118.386
116.81
114.874
112.585
109.951
106.979
103.681
100.068
96.154
91.956
87.489
82.77
77.818
72.651
67.289
61.751
56.055
50.22
44.264
38.205
32.062
25.853
19.597
13.312
7.018
0.735
-5.519
-11.725
-17.868
-23.935
-29.912
-35.788
-41.555
-47.203
-52.725
-58.114
-63.355
-68.437
-73.353
-78.098
-82.683
-87.115
-91.391
-95.514
-99.482
-103.288
-106.918
-110.339
-113.497
-116.34
-118.817
-120.888
-122.536
-123.737
-124.458
-124.664
-124.307
-123.352
-121.799
-119.645
-116.883
-113.534
-109.656
-105.382
-100.917
-96.463
-92.179
-88.182
-84.582
-81.518
-79.156
-77.64
-77.088
-77.538
-79.046
-81.765
-85.732
-90.794
-96.524
-102.154
-106.927
-110.265
-111.492
-109.857
-105.036
-97.039
-86.617
-75.297
-64.134
-54.076
-46.497
-42.183
-41.119
-41.742
-39.844
-31.952
-16.295
7.484
37.811
77.394
130.874
201.77
294.21
405.202
528.528
659.782
789.213
905.224
994.894
1038.587
1021.344
939.438
796.059
608.609
403.535
204.331
35.835
-85.736
-160.251
-194.72
-205.695
-210.668
-215.505
-219.949
-219.071
-207.125
-185.512
-159.249
-133.434
-112.905
-99.872
-94.718
-97.223
-106.241
-120.238
-137.346
-155.918
-174.57
-191.578
-205.575
-215.902
-222.298
-225.124
-225.254
-223.404
-220.401
-217.471
-215.467
-214.82
-215.764
-218.128
-221.591
-225.919
-230.697
-235.331
-239.41
-242.691
-245.061
-246.593
-247.34
-247.302
-246.539
-245.144
-243.193
-240.753
-237.859
-234.513
-230.742
-226.606
-222.18
-217.554
-212.807
-207.993
-203.149
-198.306
-193.488
-188.713
-183.989
-179.316
-174.686
-170.098
-165.552
-161.054
-156.603
-152.193
-147.817
-143.462
-139.122
-134.793
-130.474
-126.167
-121.874
-117.601
-113.353
-109.14
-104.974
-100.864
-96.818
-92.845
-88.956
-85.159
-81.468
-77.894
-74.449
-71.147
-68.003
-65.032
-62.249
-59.673
-57.319
-55.204
-53.346
-51.761
-50.466
-49.476
-48.806
-48.47
-48.481
-48.849
-49.586
-50.699
-52.195
-54.079
-56.354
-59.02
-62.078
-65.524
-69.352
-73.555
-78.125
-83.05
-88.318
-93.914
-99.821
-106.023
-112.5
-119.232
-126.195
-133.366
-140.719
-148.228
-155.865
-163.602
-171.408
-179.256
-187.114
-194.954
-202.747
-210.463
-218.075
-225.556
-232.879
-240.02
-246.953
-253.658
-260.113
-266.298
-272.196
-277.791
-283.069
-288.017
-292.625
-296.884
-300.787
-304.326
-307.5
-310.304
-312.738
-314.803
-316.501
-317.837
-318.816
-319.447
-319.739
-319.702
-319.349
-318.694
-317.751
-316.535
-315.064
-313.353
-311.422
-309.288
-306.969
-304.484
-301.852
-299.093
-296.223
-293.262
-290.227
-287.136
-284.005
-280.85
-277.686
-274.528
-271.39
-268.285
-265.225
-262.222
-259.287
-256.428
-253.653
-250.97
-248.383
-245.895
-243.51
-241.227
-239.045
-236.963
-234.976
-233.079
-231.264
-229.525
-227.851
-226.231
-224.654
-223.107
-221.574
-220.042
-218.494
-216.914
-215.286
-213.591
-211.813
-209.934
-207.935
-205.8
-203.51
-201.047
-198.394
-195.534
-192.449
-189.125
-185.544
-181.694
-177.562
-173.134
-168.402
-163.356
-157.988
-152.293
-146.265
-139.903
-133.204
-126.17
-118.804
-111.11
-103.094
-94.766
-86.134
-77.211
-68.01
-58.546
-48.836
-38.896
-28.746
-18.405
-7.895
2.763
13.544
24.424
35.379
46.384
57.411
68.434
79.428
90.365
101.219
111.965
122.576
133.027
143.294
153.353
163.181
172.756
182.056
191.062
199.755
208.12
216.14
223.803
231.097
238.01
244.535
250.665
256.393
261.717
266.633
271.141
275.241
278.938
282.235
285.139
287.657
289.8
291.577
293.003
294.089
294.851
295.303
295.462
295.346
294.973
294.361
293.529
292.498
291.286
289.916
288.406
286.776
285.046
283.233
281.356
279.433
277.48
275.513
273.548
271.597
269.674
267.792
265.961
264.189
262.485
260.853
259.298
257.821
256.421
255.093
253.834
252.635
251.488
250.384
249.312
248.26
247.218
246.177
245.126
244.053
242.946
241.787
240.563
239.262
237.869
236.373
234.759
233.018
231.147
229.145
227.006
224.723
222.276
219.643
216.816
213.784
210.544
207.1
203.46
199.645
195.699
191.672
187.609
183.556
179.537
175.582
171.733
168.049
164.6
161.456
158.658
156.242
154.253
152.696
151.55
150.749
150.169
149.701
149.253
148.724
148.011
147.001
145.556
143.571
140.935
137.445
132.996
127.606
121.424
114.917
108.647
103.05
98.662
96.219
96.184
98.621
103.113
108.28
112.645
115.427
115.755
112.435
104.854
93.309
80.336
71.294
71.232
82.922
105.168
135.414
173.378
220.665
284.954
373.719
488.661
629.898
787.406
942.671
1077.116
1168.473
1199.585
1167.543
1076.661
938.828
773.355
596.208
423.893
276.783
167.599
101.967
78.351
80.498
92.706
107.608
117.857
125.577
133.675
137.18
137.533
135.018
128.574
122.478
116.181
108.484
100.993
93.959
88.983
87.521
89.054
92.732
97.478
102.289
106.452
109.273
110.321
109.387
106.492
101.911
95.856
88.508
80.1
70.829
60.892
50.492
39.792
28.97
18.245
7.786
-2.286
-11.878
-20.953
-29.48
-37.439
-44.853
-51.765
-58.22
-64.26
-69.916
-75.218
-80.212
-84.96
-89.527
-93.983
-98.369
-102.705
-107.003
-111.257
-115.454
-119.572
-123.574
-127.413
-131.054
-134.464
-137.618
-140.494
-143.063
-145.297
-147.168
-148.653
-149.731
-150.386
-150.605
-150.376
-149.696
-148.563
-146.979
-144.953
-142.49
-139.595
-136.279
-132.55
-128.42
-123.904
-119.018
-113.781
-108.213
-102.339
-96.185
-89.781
-83.157
-76.345
-69.378
-62.293
-55.124
-47.909
-40.684
-33.487
-26.356
-19.328
-12.441
-5.729
0.772
7.027
13.004
18.672
23.999
28.96
33.528
37.68
41.394
44.653
47.439
49.741
51.545
52.846
53.637
53.915
53.681
52.939
51.695
49.957
47.738
45.052
41.916
38.35
34.374
30.012
25.288
20.229
14.861
9.214
3.317
-2.8
-9.107
-15.573
-22.165
-28.854
-35.607
-42.395
-49.186
-55.952
-62.663
-69.292
-75.813
-82.198
-88.425
-94.47
-100.311
-105.93
-111.306
-116.425
-121.27
-125.831
-130.095
-134.053
-137.7
-141.029
-144.037
-146.722
-149.083
-151.123
-152.843
-154.247
-155.34
-156.128
-156.619
-156.821
-156.744
-156.397
-155.793
-154.944
-153.862
-152.56
-151.053
-149.354
-147.478
-145.441
-143.256
-140.939
-138.506
-135.971
-133.348
-130.653
-127.9
-125.101
-122.27
-119.418
-116.556
-113.696
-110.848
-108.021
-105.223
-102.463
-99.748
-97.086
-94.483
-91.944
-89.473
-87.076
-84.756
-82.514
-80.353
-78.273
-76.275
-74.358
-72.521
-70.761
-69.075
-67.461
-65.913
-64.427
-62.997
-61.617
-60.281
-58.982
-57.713
-56.467
-55.237
-54.015
-52.793
-51.565
-50.321
-49.055
-47.759
-46.426
-45.046
-43.614
-42.12
-40.559
-38.923
-37.205
-35.4
-33.502
-31.505
-29.406
-27.2
-24.884
-22.458
-19.918
-17.265
-14.5
-11.625
-8.642
-5.554
-2.367
0.914
4.282
7.73
11.25
14.831
18.464
22.134
25.828
29.532
33.228
36.901
40.533
44.105
47.602
51.006
54.302
57.475
60.509
63.386
66.089
68.602
70.908
72.991
74.837
76.433
77.77
78.845
79.655
80.198
80.47
80.457
80.149
79.542
78.631
77.419
75.915
74.136
72.114
69.899
67.538
65.083
62.577
60.052
57.543
55.091
52.743
50.561
48.602
46.909
45.522
44.478
43.79
43.43
43.334
43.386
43.475
43.52
43.441
43.153
42.559
41.55
40.01
37.859
34.996
31.251
26.56
20.989
14.774
8.449
2.635
-2.135
-5.257
-6.051
-4.189
0.258
6.766
14.01
20.577
25.44
27.566
26.035
20.755
12.607
3.395
-3.678
-4.84
3.255
23.937
60.564
114.352
183.717
266.227
357.491
454.157
556.204
661.669
765.785
859.446
929.076
961.018
945.247
879.366
766.225
615.751
445.98
276.335
129.83
25.21
-33.711
-53.067
-49.762
-43.171
-41.827
-47.241
-54.971
-58.71
-58.616
-57.433
-57.964
-63.115
-72.658
-84.653
-97.649
-109.697
-119.073
-125.249
-128.084
-127.844
-125.382
-121.506
-116.884
-112.325
-108.581
-106.04
-104.884
-105.104
-106.473
-108.811
-111.961
-115.71
-119.857
-124.236
-128.711
-133.162
-137.463
-141.458
-144.972
-147.883
-150.115
-151.63
-152.417
-152.479
-151.84
-150.55
-148.679
-146.295
-143.457
-140.225
-136.654
-132.811
-128.775
-124.627
-120.446
-116.291
-112.205
-108.215
-104.337
-100.582
-96.947
-93.423
-89.994
-86.645
-83.371
-80.167
-77.03
-73.954
-70.929
-67.947
-65
-62.081
-59.187
-56.313
-53.46
-50.626
-47.815
-45.031
-42.278
-39.562
-36.884
-34.247
-31.653
-29.103
-26.602
-24.153
-21.759
-19.425
-17.156
-14.96
-12.844
-10.816
-8.885
-7.06
-5.349
-3.762
-2.307
-0.994
0.169
1.173
2.011
2.675
3.159
3.456
3.561
3.47
3.179
2.685
1.988
1.086
-0.02
-1.328
-2.836
-4.541
-6.437
-8.519
-10.78
-13.214
-15.81
-18.561
-21.454
-24.48
-27.624
-30.874
-34.217
-37.636
-41.118
-44.645
-48.204
-51.777
-55.349
-58.905
-62.429
-65.907
-69.323
-72.666
-75.92
-79.075
-82.118
-85.039
-87.828
-90.475
-92.973
-95.315
-97.493
-99.504
-101.342
-103.005
-104.489
-105.793
-106.915
-107.857
-108.618
-109.202
-109.61
-109.846
-109.915
-109.823
-109.575
-109.178
-108.639
-107.967
-107.168
-106.251
-105.225
-104.097
-102.875
-101.569
-100.184
-98.731
-97.214
-95.643
-94.024
-92.363
-90.667
-88.942
-87.194
-85.428
-83.649
-81.864
-80.076
-78.291
-76.512
-74.745
-72.994
-71.261
-69.549
-67.863
-66.203
-64.573
-62.973
-61.404
-59.869
-58.367
-56.899
-55.467
-54.069
-52.708
-51.383
-50.095
-48.845
-47.634
-46.462
-45.33
-44.24
-43.193
-42.189
-41.229
-40.314
-39.444
-38.619
-37.838
-37.1
-36.403
-35.746
-35.125
-34.539
-33.984
-33.459
-32.959
-32.481
-32.022
-31.579
-31.148
-30.726
-30.31
-29.895
-29.478
-29.056
-28.626
-28.185
-27.729
-27.254
-26.758
-26.237
-25.689
-25.111
-24.501
-23.855
-23.174
-22.458
-21.708
-20.926
-20.113
-19.276
-18.42
-17.556
-16.692
-15.838
-15.005
-14.204
-13.447
-12.747
-12.113
-11.554
-11.079
-10.699
-10.426
-10.271
-10.248
-10.367
-10.637
-11.071
-11.681
-12.472
-13.445
-14.604
-15.95
-17.493
-19.251
-21.235
-23.449
-25.895
-28.569
-31.458
-34.544
-37.788
-41.136
-44.532
-47.923
-51.266
-54.535
-57.688
-60.679
-63.455
-65.949
-68.116
-69.933
-71.368
-72.393
-73.024
-73.311
-73.353
-73.304
-73.278
-73.353
-73.622
-74.172
-75.107
-76.545
-78.584
-81.266
-84.664
-88.903
-93.985
-99.8
-106.039
-112.103
-117.408
-121.488
-123.78
-123.685
-120.995
-115.774
-108.576
-100.672
-93.064
-86.4
-81.555
-79.159
-78.955
-80.09
-80.705
-77.858
-68.868
-51.286
-22.212
21.059
78.25
146.391
222.162
300.633
381.578
469.849
562.967
654.824
732.316
771.913
761.832
698.834
586.677
446.404
295.611
151.199
33.496
-51.701
-102.692
-124.25
-132.919
-137.507
-141.749
-146.422
-144.909
-135.898
-123.308
-110.485
-101.938
-99.58
-102.075
-107.998
-115.946
-124.149
-130.998
-135.589
-137.486
-136.827
-134.336
-130.653
-126.24
-121.757
-117.905
-115.059
-113.399
-112.861
-113.144
-114.007
-115.27
-116.715
-118.116
-119.291
-120.07
-120.3
-119.893
-118.78
-116.903
-114.244
-110.798
-106.569
-101.587
-95.912
-89.616
-82.777
-75.47
-67.759
-59.716
-51.429
-42.989
-34.501
-26.047
-17.688
-9.476
-1.452
6.348
13.895
21.174
28.184
34.926
41.394
47.581
53.476
59.074
64.378
69.391
74.12
78.569
82.738
86.631
90.255
93.613
96.712
99.552
102.136
104.468
106.559
108.417
110.055
111.484
112.716
113.764
114.641
115.359
115.931
116.367
116.677
116.869
116.954
116.94
116.836
116.647
116.38
116.042
115.637
115.171
114.645
114.064
113.429
112.74
112.001
111.209
110.366
109.469
108.517
107.509
106.443
105.316
104.124
102.866
101.537
100.135
98.656
97.097
95.455
93.727
91.911
90.006
88.011
85.925
83.75
81.484
79.131
76.691
74.168
71.563
68.881
66.125
63.299
60.407
57.455
54.449
51.393
48.295
45.16
41.995
38.808
35.605
32.394
29.183
25.978
22.788
19.621
16.486
13.389
10.339
7.344
4.411
1.547
-1.24
-3.945
-6.561
-9.084
-11.509
-13.832
-16.048
-18.155
-20.151
-22.031
-23.796
-25.445
-26.976
-28.39
-29.688
-30.872
-31.943
-32.905
-33.759
-34.509
-35.161
-35.718
-36.186
-36.57
-36.877
-37.114
-37.289
-37.41
-37.485
-37.522
-37.53
-37.517
-37.492
-37.463
-37.438
-37.426
-37.433
-37.469
-37.539
-37.651
-37.812
-38.027
-38.301
-38.64
-39.047
-39.526
-40.08
-40.71
-41.418
-42.205
-43.071
-44.016
-45.037
-46.133
-47.3
-48.534
-49.83
-51.181
-52.58
-54.018
-55.487
-56.978
-58.481
-59.987
-61.486
-62.967
-64.42
-65.835
-67.201
-68.508
-69.745
-70.903
-71.971
-72.942
-73.808
-74.56
-75.195
-75.705
-76.088
-76.339
-76.456
-76.435
-76.275
-75.978
-75.545
-74.978
-74.283
-73.466
-72.538
-71.512
-70.402
-69.221
-67.984
-66.707
-65.409
-64.111
-62.83
-61.583
-60.385
-59.255
-58.212
-57.278
-56.468
-55.796
-55.27
-54.9
-54.7
-54.686
-54.866
-55.239
-55.802
-56.553
-57.497
-58.653
-60.033
-61.635
-63.455
-65.486
-67.724
-70.168
-72.808
-75.604
-78.514
-81.487
-84.473
-87.453
-90.403
-93.307
-96.145
-98.856
-101.365
-103.611
-105.549
-107.152
-108.446
-109.407
-109.956
-110.152
-110.193
-110.424
-111.247
-112.824
-115.008
-117.661
-120.903
-124.749
-128.893
-132.497
-134.35
-133.727
-130.743
-125.839
-119.091
-110.578
-100.807
-91.218
-84.205
-81.725
-84.442
-92.152
-104.672
-121.661
-142.236
-164.181
-183.591
-196.246
-198.815
-189.033
-164.825
-124.308
-66.258
9.263
98.508
194.719
291.816
383.887
469.332
551.176
626.806
691.968
737.167
744.109
705.22
618.148
485.897
330.127
170.019
25.4
-80.283
-143.967
-168.605
-162.842
-145.868
-123.617
-100.182
-80.974
-64.675
-57.822
-63.065
-74.545
-89.248
-100.698
-105.736
-108.504
-110.52
-112.64
-115.033
-115.151
-112.212
-107.088
-100.551
-93.675
-87.27
-81.653
-77.025
-73.571
-71.268
-69.896
-69.298
-69.341
-69.867
-70.773
-71.956
-73.272
-74.608
-75.846
-76.823
-77.419
-77.554
-77.17
-76.254
-74.806
-72.824
-70.345
-67.421
-64.103
-60.444
-56.482
-52.255
-47.814
-43.224
-38.557
-33.889
-29.277
-24.756
-20.355
-16.087
-11.959
-7.972
-4.11
-0.349
3.326
6.93
10.472
13.956
17.394
20.802
24.191
27.575
30.965
34.367
37.788
41.235
44.708
48.206
51.725
55.26
58.804
62.355
65.906
69.453
72.991
76.511
80.008
83.473
86.897
90.268
93.575
96.805
99.942
102.972
105.881
108.652
111.27
113.719
115.983
118.048
119.899
121.521
122.902
124.03
124.894
125.484
125.793
125.813
125.541
124.972
124.106
122.943
121.485
119.736
117.702
115.389
112.806
109.963
106.871
103.542
99.991
96.232
92.281
88.158
83.878
79.463
74.931
70.303
65.601
60.843
56.053
51.249
46.453
41.686
36.965
32.311
27.742
23.273
18.921
14.701
10.626
6.706
2.953
-0.624
-4.019
-7.224
-10.236
-13.05
-15.664
-18.077
-20.288
-22.298
-24.109
-25.723
-27.145
-28.377
-29.425
-30.295
-30.991
-31.522
-31.895
-32.116
-32.195
-32.139
-31.958
-31.661
-31.257
-30.755
-30.165
-29.495
-28.756
-27.955
-27.101
-26.201
-25.265
-24.298
-23.309
-22.303
-21.288
-20.27
-19.255
-18.249
-17.257
-16.285
-15.339
-14.425
-13.548
-12.714
-11.929
-11.198
-10.528
-9.922
-9.387
-8.926
-8.543
-8.244
-8.03
-7.904
-7.869
-7.925
-8.074
-8.317
-8.653
-9.083
-9.604
-10.215
-10.914
-11.698
-12.563
-13.505
-14.519
-15.599
-16.74
-17.935
-19.177
-20.458
-21.77
-23.102
-24.447
-25.792
-27.127
-28.44
-29.72
-30.954
-32.133
-33.245
-34.279
-35.225
-36.074
-36.818
-37.448
-37.959
-38.345
-38.602
-38.725
-38.715
-38.572
-38.296
-37.891
-37.362
-36.717
-35.965
-35.118
-34.187
-33.186
-32.129
-31.032
-29.909
-28.777
-27.65
-26.544
-25.475
-24.465
-23.533
-22.698
-21.982
-21.403
-20.979
-20.727
-20.661
-20.789
-21.115
-21.646
-22.391
-23.37
-24.596
-26.073
-27.805
-29.791
-32.02
-34.475
-37.124
-39.916
-42.8
-45.731
-48.669
-51.589
-54.462
-57.245
-59.889
-62.334
-64.526
-66.432
-68.018
-69.24
-70.085
-70.58
-70.792
-70.836
-70.811
-70.761
-70.736
-70.804
-71.041
-71.549
-72.43
-73.729
-75.522
-77.96
-81.086
-84.821
-88.898
-92.728
-95.672
-97.233
-96.863
-93.944
-88.232
-79.868
-69.48
-58.529
-48.509
-40.414
-35.252
-33.967
-36.61
-42.274
-49.141
-53.896
-52.788
-42.613
-20.091
18.3
73.797
144.405
227.332
318.003
413.306
515.637
625.21
736.068
837.205
909.381
933.279
902.003
817.613
690.247
537.769
374.7
214.853
76.146
-28.983
-94.252
-119.104
-116.699
-101.453
-80.641
-62.525
-46.972
-32.267
-23.545
-18.92
-17.472
-19.913
-21.998
-24.704
-29.444
-34.585
-39.984
-43.952
-44.972
-43.655
-40.694
-36.919
-33.176
-29.987
-27.883
-27.238
-28.149
-30.455
-33.825
-37.98
-42.708
-47.812
-53.073
-58.277
-63.219
-67.709
-71.641
-74.941
-77.539
-79.405
-80.519
-80.872
-80.496
-79.457
-77.814
-75.633
-72.972
-69.872
-66.397
-62.622
-58.625
-54.495
-50.297
-46.071
-41.849
-37.657
-33.509
-29.414
-25.368
-21.347
-17.337
-13.331
-9.324
-5.315
-1.299
2.734
6.796
10.893
15.033
19.217
23.448
27.729
32.061
36.439
40.86
45.314
49.797
54.307
58.838
63.389
67.954
72.528
77.106
81.681
86.246
90.791
95.306
99.776
104.19
108.534
112.794
116.955
121.001
124.917
128.686
132.294
135.723
138.959
141.985
144.786
147.348
149.658
151.701
153.465
154.939
156.112
156.975
157.52
157.739
157.626
157.177
156.389
155.261
153.792
151.985
149.843
147.371
144.578
141.471
138.062
134.365
130.392
126.16
121.685
116.987
112.083
106.995
101.743
96.349
90.833
85.22
79.53
73.786
68.01
62.223
56.448
50.705
45.014
39.396
33.869
28.452
23.162
18.015
13.027
8.21
3.578
-0.858
-5.089
-9.106
-12.904
-16.477
-19.821
-22.935
-25.819
-28.473
-30.902
-33.108
-35.099
-36.879
-38.458
-39.844
-41.046
-42.075
-42.942
-43.658
-44.236
-44.687
-45.024
-45.26
-45.409
-45.484
-45.497
-45.462
-45.391
-45.298
-45.194
-45.092
-45.002
-44.936
-44.903
-44.913
-44.974
-45.093
-45.278
-45.534
-45.865
-46.275
-46.766
-47.338
-47.994
-48.73
-49.546
-50.439
-51.405
-52.441
-53.542
-54.701
-55.913
-57.171
-58.467
-59.793
-61.142
-62.503
-63.867
-65.224
-66.565
-67.878
-69.153
-70.378
-71.541
-72.633
-73.642
-74.556
-75.366
-76.059
-76.627
-77.06
-77.35
-77.488
-77.467
-77.282
-76.926
-76.395
-75.687
-74.798
-73.727
-72.473
-71.038
-69.423
-67.631
-65.666
-63.533
-61.238
-58.79
-56.197
-53.468
-50.616
-47.653
-44.595
-41.459
-38.264
-35.03
-31.778
-28.528
-25.303
-22.124
-19.011
-15.983
-13.059
-10.257
-7.599
-5.107
-2.801
-0.698
1.183
2.829
4.223
5.353
6.216
6.809
7.127
7.161
6.891
6.298
5.375
4.118
2.525
0.609
-1.617
-4.126
-6.871
-9.802
-12.873
-16.039
-19.275
-22.55
-25.814
-29.007
-32.052
-34.872
-37.416
-39.641
-41.5
-42.989
-44.123
-44.956
-45.588
-46.096
-46.543
-47.011
-47.574
-48.319
-49.368
-50.812
-52.772
-55.475
-58.996
-63.258
-68.051
-72.843
-77.054
-80.251
-81.856
-81.165
-77.918
-72.282
-64.924
-57.391
-51.19
-47.282
-46.646
-50.122
-57.659
-68.217
-79.662
-88.321
-90.1
-81.487
-59.09
-19.483
38.49
112.767
200.301
296.291
397.815
507.117
623.715
741.41
847.431
921.52
947.491
920.683
847.838
743.613
620.834
489.343
356.717
232.801
134.37
72.784
50.794
60.658
83.331
105.285
120.759
129.904
138.818
149.033
158.402
164.76
165.083
159.237
149.346
137.145
124.799
114.166
105.839
99.999
96.412
94.329
93.065
92.065
90.675
88.294
84.652
79.673
73.464
66.307
58.428
50.008
41.25
32.36
23.52
14.892
6.623
-1.194
-8.476
-15.143
-21.148
-26.453
-31.043
-34.923
-38.113
-40.643
-42.541
-43.84
-44.564
-44.752
-44.453
-43.726
-42.64
-41.248
-39.589
-37.695
-35.591
-33.298
-30.83
-28.19
-25.373
-22.375
-19.202
-15.859
-12.357
-8.705
-4.907
-0.967
3.112
7.321
11.651
16.091
20.63
25.255
29.951
34.699
39.479
44.271
49.059
53.826
58.558
63.238
67.85
72.379
76.812
81.135
85.333
89.39
93.292
97.024
100.573
103.926
107.068
109.988
112.673
115.112
117.293
119.208
120.846
122.198
123.257
124.014
124.464
124.602
124.422
123.922
123.1
121.956
120.49
118.706
116.607
114.196
111.481
108.468
105.164
101.579
97.721
93.603
89.235
84.63
79.801
74.764
69.533
64.123
58.551
52.835
46.99
41.034
34.985
28.862
22.681
16.463
10.224
3.984
-2.239
-8.427
-14.562
-20.627
-26.606
-32.483
-38.242
-43.87
-49.352
-54.678
-59.834
-64.81
-69.598
-74.187
-78.57
-82.742
-86.696
-90.429
-93.938
-97.219
-100.273
-103.1
-105.699
-108.074
-110.226
-112.161
-113.883
-115.398
-116.712
-117.833
-118.771
-119.533
-120.13
-120.573
-120.871
-121.037
-121.083
-121.02
-120.862
-120.619
-120.307
-119.936
-119.52
-119.071
-118.6
-118.119
-117.639
-117.17
-116.723
-116.305
-115.926
-115.593
-115.314
-115.096
-114.944
-114.862
-114.854
-114.925
-115.075
-115.307
-115.62
-116.014
-116.49
-117.044
-117.675
-118.38
-119.155
-119.995
-120.895
-121.849
-122.849
-123.888
-124.956
-126.045
-127.145
-128.248
-129.345
-130.425
-131.48
-132.499
-133.475
-134.398
-135.259
-136.051
-136.764
-137.391
-137.926
-138.363
-138.697
-138.924
-139.041
-139.044
-138.931
-138.703
-138.359
-137.897
-137.318
-136.626
-135.824
-134.915
-133.907
-132.805
-131.62
-130.363
-129.049
-127.691
-126.304
-124.904
-123.506
-122.128
-120.787
-119.494
-118.266
-117.115
-116.056
-115.106
-114.28
-113.594
-113.063
-112.701
-112.52
-112.533
-112.747
-113.165
-113.789
-114.62
-115.666
-116.944
-118.469
-120.245
-122.278
-124.567
-127.099
-129.855
-132.8
-135.873
-139.02
-142.185
-145.317
-148.384
-151.347
-154.158
-156.769
-159.117
-161.146
-162.822
-164.11
-164.975
-165.43
-165.533
-165.379
-165.133
-164.938
-164.894
-165.125
-165.756
-166.899
-168.68
-171.187
-174.433
-178.489
-183.514
-189.538
-196.468
-204.025
-211.617
-218.665
-224.732
-229.26
-231.526
-231.11
-227.961
-222.453
-215.638
-208.705
-202.484
-197.872
-196.154
-196.897
-197.578
-195.782
-188.047
-173.45
-156.603
-139.376
-120.224
-94.583
-49.566
25.126
131.581
267.775
421.78
576.02
713.18
814.289
862.522
847.343
767.044
627.261
442.598
236.179
30.984
-147.321
-277.591
-354.967
-383.802
-380.315
-365.432
-348.222
-331.601
-313.013
-286.622
-254.424
-221.908
-193.908
-175.92
-170.119
-175.301
-189.583
-209.743
-231.809
-252.754
-270.787
-284.756
-293.813
-297.791
-297.068
-292.614
-286.29
-279.948
-274.562
-270.681
-268.7
-268.656
-270.486
-273.997
-278.536
-283.361
-288.056
-292.335
-296.012
-299.076
-301.459
-303.09
-304.033
-304.366
-304.132
-303.385
-302.143
-300.398
-298.189
-295.565
-292.579
-289.312
-285.838
-282.229
-278.567
-274.908
-271.296
-267.772
-264.362
-261.086
-257.957
-254.975
-252.134
-249.433
-246.87
-244.442
-242.145
-239.962
-237.879
-235.884
-233.962
-232.105
-230.303
-228.545
-226.822
-225.125
-223.45
-221.789
-220.14
-218.492
-216.836
-215.162
-213.458
-211.715
-209.923
-208.07
-206.148
-204.146
-202.057
-199.875
-197.593
-195.208
-192.711
-190.1
-187.369
-184.515
-181.535
-178.427
-175.19
-171.824
-168.331
-164.713
-160.974
-157.116
-153.142
-149.057
-144.863
-140.565
-136.167
-131.672
-127.082
-122.404
-117.644
-112.812
-107.916
-102.963
-97.961
-92.92
-87.849
-82.756
-77.645
-72.517
-67.375
-62.223
-57.069
-51.918
-46.779
-41.658
-36.564
-31.509
-26.506
-21.562
-16.682
-11.859
-7.086
-2.364
2.297
6.875
11.355
15.722
19.958
24.039
27.934
31.623
35.102
38.389
41.508
44.469
47.273
49.897
52.319
54.533
56.547
58.383
60.058
61.59
63.011
64.378
65.774
67.256
68.85
70.527
72.243
73.963
75.664
77.344
78.993
80.579
82.061
83.379
84.487
85.341
85.885
86.017
85.603
84.529
82.715
80.164
76.917
73.018
68.525
63.485
57.979
52.117
46.031
39.87
33.759
27.811
22.138
16.897
12.273
8.453
5.605
3.815
3.124
3.556
5.106
7.767
11.478
16.142
21.627
27.779
34.479
41.629
49.141
56.909
64.805
72.687
80.42
87.919
95.129
102.012
108.548
114.722
120.559
126.117
131.484
136.764
142.03
147.326
152.689
158.145
163.723
169.457
175.37
181.455
187.695
194.063
200.515
207.017
213.513
219.934
226.205
232.234
237.955
243.32
248.281
252.814
256.923
260.621
263.942
266.952
269.71
272.286
274.772
277.23
279.724
282.308
285.006
287.855
290.882
294.088
297.488
301.053
304.687
308.282
311.687
314.698
317.136
318.804
319.465
318.947
317.099
313.798
308.988
302.607
294.605
284.968
273.685
260.799
246.458
230.836
214.156
196.741
178.896
160.958
143.336
126.337
110.224
95.254
81.608
69.435
58.862
49.939
42.693
37.167
33.357
31.198
30.558
31.214
32.996
35.771
39.331
43.437
47.735
51.957
56.1
60.224
64.339
68.558
73.16
78.68
86.113
95.075
103.661
110.927
116.856
124.933
141.059
166.226
196.65
224.217
238.745
237.174
222.205
199.625
180.069
172.404
186.978
235.311
317.888
430.297
560.717
691.428
817.914
938.324
1047.975
1143.049
1206.787
1220.393
1178.45
1081.667
939.726
771.617
593.014
421.034
277.22
175.221
120.364
109.604
129.48
166.154
210.493
254.336
289.603
309.925
311.154
295.474
272.981
253.219
241.669
238.701
239.029
238.96
237.914
236.708
237.725
241.671
247.432
253.962
260.085
265.002
268.657
271.034
272.156
272.301
271.692
270.491
268.889
267.016
264.957
262.824
260.729
258.782
257.122
255.852
255.034
254.708
254.869
255.496
256.562
258
259.731
261.681
263.777
265.961
268.179
270.359
272.422
274.281
275.845
277.044
277.832
278.165
278.021
277.384
276.249
274.625
272.532
269.984
266.992
263.564
259.708
255.437
250.771
245.729
240.332
234.599
228.549
222.202
215.577
208.691
201.558
194.193
186.607
178.814
170.83
162.671
154.352
145.89
137.3
128.597
119.796
110.911
101.953
92.935
83.865
74.752
65.605
56.429
47.231
38.015
28.785
19.544
10.293
1.035
-8.232
-17.507
-26.791
-36.085
-45.392
-54.712
-64.048
-73.402
-82.774
-92.166
-101.578
-111.011
-120.464
-129.936
-139.425
-148.93
-158.449
-167.978
-177.514
-187.055
-196.594
-206.126
-215.646
-225.145
-234.617
-244.052
-253.44
-262.771
-272.034
-281.216
-290.305
-299.288
-308.149
-316.874
-325.447
-333.853
-342.075
-350.095
-357.896
-365.461
-372.773
-379.815
-386.569
-393.019
-399.148
-404.94
-410.38
-415.453
-420.143
-424.437
-428.32
-431.78
-434.804
-437.381
-439.5
-441.154
-442.333
-443.033
-443.248
-442.975
-442.212
-440.959
-439.219
-436.995
-434.291
-431.117
-427.48
-423.392
-418.866
-413.918
-408.564
-402.823
-396.715
-390.262
-383.487
-376.414
-369.069
-361.478
-353.668
-345.668
-337.507
-329.215
-320.822
-312.357
-303.852
-295.337
-286.841
-278.393
-270.022
-261.754
-253.616
-245.633
-237.827
-230.221
-222.835
-215.687
-208.793
-202.169
-195.827
-189.776
-184.023
-178.574
-173.431
-168.595
-164.062
-159.827
-155.884
-152.224
-148.835
-145.706
-142.821
-140.164
-137.718
-135.462
-133.378
-131.445
-129.64
-127.941
-126.327
-124.776
-123.266
-121.778
-120.29
-118.784
-117.242
-115.647
-113.984
-112.239
-110.397
-108.448
-106.383
-104.193
-101.874
-99.423
-96.839
-94.125
-91.289
-88.341
-85.292
-82.154
-78.944
-75.678
-72.374
-69.049
-65.719
-62.399
-59.108
-55.867
-52.698
-49.619
-46.649
-43.805
-41.103
-38.558
-36.183
-33.985
-31.966
-30.129
-28.485
-27.048
-25.847
-24.901
-24.22
-23.808
-23.666
-23.79
-24.168
-24.772
-25.551
-26.452
-27.427
-28.435
-29.444
-30.408
-31.262
-31.931
-32.326
-32.37
-32.013
-31.218
-29.956
-28.228
-26.053
-23.474
-20.607
-17.579
-14.516
-11.568
-8.862
-6.51
-4.674
-3.569
-3.336
-4.008
-5.43
-7.2
-8.883
-10.112
-10.481
-9.503
-6.79
-2.271
3.548
9.545
14.364
16.955
16.682
12.846
4.926
-6.801
-20.863
-33.583
-39.601
-34.486
-15.714
15.906
57.665
108.17
167.639
241.336
334.748
449.623
585.419
731.98
873.709
993.965
1073.753
1098.414
1060.519
960.459
805.114
610.886
401.94
201.809
36.834
-73.836
-128.939
-133.43
-100.495
-50.276
6.066
57.37
90.717
104.675
100.031
82.174
64.513
51.988
44.563
40.552
33.996
24.071
13.037
2.421
-5.122
-8.621
-8.526
-5.201
0.124
5.799
10.973
15.259
18.537
20.956
22.38
22.653
22
20.928
19.894
19.186
18.927
19.131
19.938
21.521
23.962
27.267
31.379
36.251
41.883
48.281
55.429
63.277
71.756
80.789
90.315
100.272
110.59
121.198
132.006
142.933
153.916
164.897
175.825
186.645
197.29
207.683
217.777
227.541
236.958
246.033
254.76
263.125
271.13
278.776
286.068
293.025
299.645
305.916
311.857
317.51
322.946
328.286
333.592
338.88
344.142
349.329
354.394
359.31
364.012
368.416
372.43
375.93
378.839
381.129
382.726
383.571
383.511
382.248
379.703
376.001
371.259
365.704
359.36
351.931
343.402
334.071
323.883
312.597
299.888
285.122
268.38
250.599
232.341
213.868
195.691
178.269
162.259
148.767
137.891
128.651
120.403
112.693
105.043
97.271
88.922
79.106
67.714
55.42
42.667
29.825
17.143
4.54
-7.839
-19.565
-30.555
-41.035
-51.138
-61.002
-70.656
-79.942
-88.814
-97.334
-105.502
-113.286
-120.663
-127.587
-134.056
-140.119
-145.807
-151.136
-156.119
-160.756
-165.056
-169.042
-172.734
-176.151
-179.311
-182.228
-184.915
-187.384
-189.646
-191.707
-193.577
-195.263
-196.777
-198.126
-199.326
-200.392
-201.34
-202.188
-202.947
-203.628
-204.24
-204.791
-205.288
-205.739
-206.149
-206.521
-206.861
-207.172
-207.458
-207.721
-207.963
-208.186
-208.389
-208.571
-208.731
-208.87
-208.985
-209.074
-209.135
-209.165
-209.162
-209.123
-209.044
-208.922
-208.753
-208.532
-208.255
-207.918
-207.518
-207.049
-206.509
-205.895
-205.206
-204.439
-203.594
-202.669
-201.665
-200.581
-199.418
-198.177
-196.86
-195.469
-194.006
-192.473
-190.874
-189.212
-187.491
-185.714
-183.885
-182.008
-180.089
-178.132
-176.143
-174.127
-172.091
-170.04
-167.983
-165.925
-163.874
-161.835
-159.815
-157.819
-155.856
-153.93
-152.049
-150.217
-148.444
-146.738
-145.108
-143.565
-142.115
-140.767
-139.53
-138.411
-137.416
-136.547
-135.806
-135.196
-134.721
-134.388
-134.199
-134.158
-134.265
-134.521
-134.926
-135.483
-136.186
-137.023
-137.987
-139.074
-140.288
-141.646
-143.155
-144.813
-146.616
-148.554
-150.613
-152.778
-155.013
-157.264
-159.476
-161.6
-163.597
-165.445
-167.105
-168.525
-169.64
-170.374
-170.678
-170.529
-169.903
-168.795
-167.224
-165.232
-162.909
-160.383
-157.78
-155.227
-152.857
-150.784
-149.146
-148.078
-147.731
-148.317
-149.917
-152.453
-155.733
-159.376
-162.967
-166.201
-168.695
-169.842
-169.279
-167.025
-163.464
-159.555
-156.227
-153.885
-152.704
-153.049
-155.272
-158.95
-162.694
-164.237
-159.741
-146.404
-123.842
-90.127
-45.975
7.069
71.654
145.139
226.282
316.209
409.425
505.605
601.785
686.993
752.731
784.479
769.036
705.449
596.951
453.675
292.47
127.609
-25.677
-149.93
-232.99
-269.315
-261.364
-221.593
-168.809
-119.762
-85.35
-71
-71.469
-77.742
-84.883
-88.227
-89.275
-93.179
-100.175
-110.056
-121.349
-130.331
-135.935
-138.321
-137.188
-133.621
-129.188
-124.716
-121.076
-118.847
-117.91
-118.232
-120.018
-123.108
-127.058
-131.527
-136.089
-140.453
-144.58
-148.328
-151.51
-154.042
-155.875
-156.998
-157.453
-157.242
-156.345
-154.788
-152.603
-149.831
-146.534
-142.752
-138.537
-133.956
-129.082
-123.998
-118.77
-113.441
-108.05
-102.627
-97.19
-91.756
-86.326
-80.891
-75.448
-69.999
-64.539
-59.077
-53.61
-48.135
-42.651
-37.156
-31.65
-26.137
-20.62
-15.102
-9.591
-4.095
1.375
6.806
12.187
17.51
22.766
27.945
33.039
38.038
42.934
47.718
52.381
56.914
61.304
65.542
69.616
73.515
77.23
80.749
84.062
87.159
90.031
92.671
95.069
97.22
99.116
100.751
102.122
103.225
104.058
104.618
104.905
104.92
104.665
104.142
103.357
102.316
101.023
99.489
97.722
95.733
93.533
91.133
88.548
85.792
82.879
79.826
76.648
73.364
69.989
66.542
63.04
59.5
55.938
52.371
48.814
45.283
41.791
38.353
34.98
31.684
28.477
25.367
22.365
19.478
16.713
14.075
11.569
9.2
6.968
4.876
2.923
1.109
-0.569
-2.111
-3.524
-4.809
-5.974
-7.023
-7.963
-8.802
-9.547
-10.206
-10.787
-11.299
-11.748
-12.144
-12.493
-12.802
-13.079
-13.329
-13.558
-13.773
-13.976
-14.174
-14.371
-14.57
-14.774
-14.988
-15.212
-15.45
-15.702
-15.97
-16.255
-16.557
-16.876
-17.212
-17.564
-17.931
-18.313
-18.706
-19.109
-19.519
-19.933
-20.347
-20.759
-21.165
-21.561
-21.944
-22.311
-22.659
-22.986
-23.289
-23.566
-23.815
-24.033
-24.22
-24.373
-24.489
-24.567
-24.605
-24.601
-24.552
-24.458
-24.316
-24.124
-23.88
-23.582
-23.227
-22.815
-22.343
-21.809
-21.211
-20.549
-19.823
-19.033
-18.18
-17.264
-16.287
-15.251
-14.16
-13.016
-11.822
-10.58
-9.296
-7.975
-6.619
-5.237
-3.833
-2.417
-0.999
0.411
1.799
3.153
4.46
5.707
6.879
7.964
8.951
9.829
10.588
11.215
11.695
12.015
12.159
12.118
11.878
11.433
10.77
9.884
8.779
7.458
5.92
4.16
2.16
-0.097
-2.613
-5.392
-8.43
-11.714
-15.225
-18.933
-22.783
-26.72
-30.694
-34.661
-38.592
-42.459
-46.212
-49.79
-53.121
-56.134
-58.79
-61.054
-62.887
-64.298
-65.321
-66.029
-66.549
-66.979
-67.404
-67.932
-68.67
-69.736
-71.276
-73.396
-76.225
-79.985
-84.749
-90.431
-96.796
-103.281
-109.284
-114.355
-117.908
-119.248
-118.088
-114.539
-109.248
-103.714
-99.352
-97.05
-97.683
-101.972
-109.891
-120.505
-131.604
-139.491
-140.417
-131.1
-108.291
-69.131
-11.321
64.604
154.436
252.949
354.09
455.055
558.423
662.621
761.605
845.176
893.477
891.114
833.216
719.762
564.67
389.862
214.85
62.523
-50.258
-120.136
-149.456
-148.541
-131.028
-104.632
-76.75
-55.455
-46.287
-53.291
-73.985
-97.764
-115.037
-121.028
-116.831
-109.593
-104.103
-100.702
-98.418
-95.424
-91.791
-89.196
-88.32
-88.902
-90.702
-93.566
-97.284
-101.436
-105.04
-107.222
-108.015
-108.141
-108.181
-108.383
-108.774
-109.313
-110.227
-111.701
-113.519
-115.208
-116.348
-116.712
-116.28
-115.14
-113.298
-110.744
-107.538
-103.794
-99.642
-95.172
-90.426
-85.418
-80.185
-74.799
-69.347
-63.902
-58.517
-53.225
-48.046
-42.992
-38.07
-33.274
-28.591
-24.015
-19.542
-15.17
-10.906
-6.748
-2.696
1.255
5.111
8.885
12.582
16.211
19.773
23.269
26.697
30.055
33.34
36.548
39.679
42.731
45.705
48.601
51.418
54.157
56.817
59.394
61.885
64.286
66.592
68.799
70.899
72.889
74.761
76.51
78.129
79.613
80.955
82.15
83.19
84.07
84.785
85.329
85.699
85.89
85.9
85.726
85.369
84.83
84.108
83.208
82.132
80.887
79.477
77.91
76.194
74.337
72.35
70.243
68.028
65.718
63.326
60.867
58.354
55.803
53.228
50.645
48.069
45.515
42.997
40.53
38.129
35.807
33.577
31.452
29.444
27.562
25.817
24.216
22.768
21.476
20.347
19.382
18.584
17.952
17.486
17.184
17.042
17.056
17.218
17.523
17.962
18.525
19.201
19.981
20.851
21.8
22.815
23.882
24.988
26.119
27.262
28.403
29.528
30.623
31.675
32.671
33.599
34.448
35.206
35.864
36.411
36.84
37.144
37.315
37.349
37.242
36.989
36.59
36.042
35.347
34.506
33.521
32.397
31.138
29.75
28.242
26.621
24.895
23.075
21.17
19.193
17.154
15.065
12.938
10.787
8.623
6.461
4.313
2.193
0.113
-1.912
-3.87
-5.748
-7.534
-9.216
-10.783
-12.223
-13.525
-14.68
-15.679
-16.512
-17.172
-17.654
-17.95
-18.057
-17.972
-17.693
-17.22
-16.553
-15.694
-14.646
-13.414
-12.004
-10.422
-8.676
-6.775
-4.729
-2.55
-0.251
2.156
4.655
7.229
9.86
12.528
15.211
17.888
20.537
23.134
25.657
28.082
30.389
32.558
34.568
36.401
38.033
39.442
40.61
41.519
42.153
42.497
42.539
42.266
41.678
40.773
39.55
37.999
36.104
33.85
31.233
28.254
24.918
21.24
17.237
12.939
8.398
3.667
-1.198
-6.152
-11.162
-16.191
-21.185
-26.075
-30.775
-35.208
-39.332
-43.106
-46.49
-49.482
-52.096
-54.392
-56.48
-58.452
-60.395
-62.408
-64.589
-67.051
-69.93
-73.344
-77.447
-82.453
-88.43
-95.299
-102.823
-110.529
-117.935
-124.655
-130.176
-133.814
-135.16
-134.27
-131.716
-128.671
-126.245
-124.999
-125.393
-128.15
-133.652
-141.274
-149.23
-154.584
-154.191
-145.637
-126.672
-94.584
-46.555
17.867
95.584
182.268
273.012
366.016
464.922
570.694
677.75
774.663
841.611
859.632
822.324
732.261
600.863
446.586
283.656
125.269
-12.507
-118.011
-184.611
-212.985
-215.834
-208.498
-200.213
-195.09
-190.479
-181.838
-170.054
-157.792
-147.895
-143.396
-144.143
-148.322
-154.518
-160.546
-164.371
-165.286
-163.102
-158.164
-151.446
-143.764
-135.721
-128.108
-121.697
-116.899
-113.886
-112.564
-112.602
-113.727
-115.722
-118.349
-121.372
-124.576
-127.757
-130.714
-133.273
-135.298
-136.685
-137.368
-137.313
-136.496
-134.919
-132.627
-129.689
-126.172
-122.143
-117.656
-112.756
-107.514
-102.011
-96.338
-90.586
-84.821
-79.086
-73.415
-67.832
-62.351
-56.976
-51.694
-46.478
-41.315
-36.196
-31.115
-26.074
-21.065
-16.077
-11.101
-6.131
-1.161
3.807
8.776
13.745
18.71
23.662
28.591
33.487
38.338
43.137
47.876
52.547
57.142
61.652
66.067
70.379
74.578
78.651
82.586
86.369
89.987
93.428
96.678
99.722
102.549
105.146
107.5
109.601
111.439
113.003
114.286
115.281
115.983
116.387
116.492
116.295
115.798
115.003
113.913
112.533
110.871
108.935
106.735
104.284
101.594
98.68
95.56
92.251
88.772
85.144
81.389
77.529
73.589
69.592
65.565
61.531
57.517
