Name
Date of Birth,"Mar 27, 1959"
Recorded Date,2020-09-08 19:29:55 -0500
Classification,Sinus Rhythm
Symptoms,
Software Version,1.90
Device,"Watch4,2"
Sample Rate,510.227 hertz


Lead,Lead I
Unit,µV

-37.302
-40.327
-43.252
-45.976
-48.407
-50.468
-52.086
-53.211
-53.805
-53.838
-53.302
-52.198
-50.53
-48.317
-45.586
-42.386
-38.802
-34.944
-30.952
-27.006
-23.279
-19.933
-17.132
-15.002
-13.643
-13.142
-13.558
-14.938
-17.335
-20.787
-25.319
-30.925
-37.557
-45.137
-53.561
-62.672
-72.309
-82.304
-92.487
-102.737
-112.961
-123.071
-132.989
-142.615
-151.845
-160.589
-168.764
-176.329
-183.272
-189.551
-195.205
-200.337
-204.949
-208.991
-212.271
-214.342
-214.819
-213.407
-209.707
-203.489
-194.898
-184.295
-172.599
-161.178
-151.122
-143.463
-139.222
-138.672
-141.31
-146.128
-151.031
-153.189
-150.062
-138.896
-116.787
-82.768
-37.893
16.162
76.088
139.242
205.765
274.977
344.203
407.864
456.176
477.033
460.615
403.676
307.755
181.569
40.966
-98.883
-221.194
-310.25
-360.117
-370.974
-348.372
-305.751
-256.309
-210.816
-180.292
-168.175
-171.653
-185.034
-198.184
-205.59
-206.891
-204.108
-202.238
-202.898
-205.163
-208.073
-209.738
-209.853
-209.299
-208.502
-208.087
-208.615
-210.072
-212.388
-215.445
-218.856
-222.337
-225.718
-228.783
-231.335
-233.218
-234.251
-234.288
-233.268
-231.14
-227.875
-223.475
-217.953
-211.363
-203.799
-195.37
-186.205
-176.422
-166.111
-155.36
-144.241
-132.818
-121.18
-109.421
-97.612
-85.816
-74.075
-62.412
-50.862
-39.442
-28.156
-16.999
-5.951
5
15.838
26.535
37.048
47.314
57.291
66.94
76.208
85.039
93.371
101.131
108.275
114.776
120.603
125.726
130.111
133.728
136.566
138.628
139.92
140.454
140.242
139.3
137.67
135.413
132.603
129.324
125.644
121.613
117.294
112.751
108.052
103.26
98.433
93.632
88.945
84.486
80.375
76.724
73.627
71.159
69.382
68.359
68.145
68.786
70.314
72.753
76.137
80.508
85.914
92.383
99.901
108.406
117.819
128.048
138.985
150.52
162.526
174.862
187.403
200.042
212.684
225.224
237.542
249.486
260.889
271.591
281.454
290.362
298.22
304.956
310.541
314.971
318.273
320.49
321.656
321.788
320.904
319.025
316.186
312.451
307.907
302.66
296.835
290.568
283.999
277.243
270.382
263.478
256.569
249.688
242.879
236.186
229.66
223.375
217.418
211.874
206.824
202.315
198.362
194.959
192.079
189.703
187.83
186.456
185.584
185.222
185.372
186.043
187.243
188.932
191.033
193.451
196.069
198.79
201.545
204.259
206.886
209.387
211.719
213.861
215.791
217.474
218.875
219.946
220.631
220.919
220.829
220.397
219.693
218.779
217.712
216.566
215.394
214.231
213.105
212.027
211
210.047
209.187
208.441
207.844
207.409
207.134
207.013
207.013
207.094
207.215
207.328
207.399
207.413
207.356
207.219
206.997
206.676
206.248
205.719
205.084
204.336
203.474
202.497
201.423
200.283
199.096
197.869
196.59
195.237
193.8
192.276
190.665
188.962
187.157
185.228
183.162
180.954
178.598
176.081
173.375
170.442
167.267
163.864
160.268
156.515
152.625
148.611
144.482
140.254
135.951
131.593
127.192
122.754
118.292
113.827
109.397
105.043
100.784
96.619
92.528
88.492
84.507
80.569
76.676
72.817
68.985
65.177
61.401
57.668
53.979
50.331
46.708
43.096
39.49
35.892
32.31
28.751
25.219
21.715
18.248
14.828
11.463
8.153
4.887
1.654
-1.551
-4.735
-7.899
-11.044
-14.168
-17.264
-20.31
-23.286
-26.173
-28.953
-31.618
-34.156
-36.554
-38.793
-40.843
-42.678
-44.278
-45.623
-46.691
-47.472
-47.975
-48.255
-48.395
-48.49
-48.617
-48.828
-49.18
-49.767
-50.678
-52.004
-53.84
-56.215
-59.208
-63.002
-67.633
-72.997
-78.878
-84.776
-90.228
-94.993
-98.638
-100.586
-100.762
-99.382
-96.953
-94.629
-93.314
-93.451
-95.945
-101.847
-110.268
-118.841
-125.329
-126.68
-123.102
-118.353
-111.995
-100.744
-78.637
-36.351
28.872
112.035
205.055
297.883
382.956
456.788
515.786
552.629
557.345
520.081
435.707
308.658
153.379
-8.212
-153.818
-266.21
-337.112
-370.622
-376.887
-366
-346.321
-321.063
-292.152
-265.364
-246.754
-240.66
-247.129
-259.736
-271.647
-278.704
-280.384
-279.974
-279.638
-279.772
-279.891
-278.417
-275.021
-270.535
-265.684
-261.432
-258.543
-257.178
-257.412
-259.224
-262.351
-266.58
-271.752
-277.649
-284.068
-290.833
-297.738
-304.582
-311.21
-317.457
-323.176
-328.25
-332.56
-336.026
-338.608
-340.286
-341.068
-340.978
-340.041
-338.299
-335.803
-332.616
-328.817
-324.498
-319.75
-314.669
-309.33
-303.797
-298.129
-292.364
-286.53
-280.642
-274.703
-268.716
-262.688
-256.626
-250.538
-244.437
-238.328
-232.214
-226.095
-219.964
-213.811
-207.633
-201.423
-195.18
-188.914
-182.642
-176.383
-170.16
-163.988
-157.878
-151.831
-145.842
-139.9
-133.995
-128.128
-122.306
-116.549
-110.889
-105.363
-100.014
-94.874
-89.959
-85.278
-80.838
-76.645
-72.713
-69.066
-65.736
-62.763
-60.196
-58.066
-56.402
-55.217
-54.511
-54.27
-54.468
-55.082
-56.11
-57.559
-59.44
-61.755
-64.498
-67.647
-71.172
-75.024
-79.139
-83.453
-87.899
-92.405
-96.91
-101.351
-105.683
-109.86
-113.821
-117.496
-120.813
-123.714
-126.149
-128.089
-129.512
-130.419
-130.822
-130.748
-130.236
-129.339
-128.113
-126.624
-124.926
-123.066
-121.098
-119.087
-117.094
-115.177
-113.381
-111.734
-110.263
-108.981
-107.896
-107.01
-106.31
-105.774
-105.379
-105.095
-104.908
-104.823
-104.832
-104.921
-105.075
-105.272
-105.5
-105.757
-106.039
-106.341
-106.657
-106.981
-107.32
-107.686
-108.081
-108.491
-108.873
-109.158
-109.296
-109.25
-108.993
-108.508
-107.777
-106.779
-105.508
-103.977
-102.196
-100.172
-97.897
-95.361
-92.578
-89.614
-86.594
-83.668
-80.968
-78.588
-76.596
-75.071
-74.1
-73.751
-74.066
-75.037
-76.622
-78.871
-81.907
-85.713
-90.165
-94.942
-99.449
-103.179
-105.779
-106.717
-105.472
-101.957
-96.184
-88.647
-80.651
-73.198
-67.08
-63.546
-62.565
-62.408
-61.884
-58.832
-52.343
-45.055
-36.669
-24.365
-2.511
38.372
102.78
188.797
289.733
394.8
495.637
586.624
660.996
714.432
737.642
714.023
654.223
581.173
470.161
300.048
126.351
8.649
-58.059
-90.302
-84.321
-48.582
-2.688
44.457
85.35
111.205
121.891
118.174
104.028
89.871
80.515
77.374
79.629
82.148
83.161
83.396
83.627
85.781
90.282
96.196
102.92
109.708
115.936
121.523
126.442
130.707
134.518
138.017
141.281
144.411
147.51
150.652
153.902
157.295
160.806
164.404
168.049
171.7
175.321
178.868
182.292
185.542
188.563
191.299
193.703
195.715
197.276
198.328
198.803
198.659
197.888
196.516
194.614
192.263
189.549
186.547
183.318
179.919
176.41
172.858
169.324
165.883
162.624
159.653
157.099
155.088
153.699
152.979
152.939
153.559
154.823
156.726
159.267
162.454
166.301
170.805
175.965
181.766
188.152
195.035
202.283
209.745
217.302
224.863
232.35
239.709
246.883
253.799
260.392
266.593
272.304
277.433
281.881
285.548
288.384
290.379
291.558
291.977
291.674
290.669
288.982
286.629
283.618
279.973
275.696
270.792
265.311
259.324
252.923
246.218
239.288
232.182
224.939
217.586
210.157
202.703
195.271
187.911
180.693
173.692
167.01
160.755
154.992
149.756
145.057
140.88
137.219
134.078
131.451
129.327
127.689
126.515
125.775
125.439
125.451
125.734
126.187
126.708
127.207
127.615
127.891
127.997
127.91
127.609
127.081
126.326
125.344
124.131
122.69
121.029
119.163
117.128
114.97
112.728
110.455
108.192
105.963
103.795
101.7
99.68
97.738
95.87
94.071
92.343
90.685
89.09
87.56
86.087
84.662
83.285
81.936
80.601
79.271
77.939
76.604
75.271
73.943
72.619
71.306
70.007
68.725
67.463
66.219
64.987
63.765
62.545
61.327
60.115
58.903
57.689
56.468
55.231
53.974
52.693
51.378
50.019
48.608
47.135
45.595
43.98
42.286
40.505
38.631
36.656
34.573
32.378
30.066
27.631
25.069
22.376
19.551
16.592
13.5
10.276
6.92
3.436
-0.174
-3.903
-7.749
-11.704
-15.762
-19.916
-24.159
-28.481
-32.874
-37.328
-41.834
-46.383
-50.963
-55.565
-60.178
-64.793
-69.399
-73.987
-78.547
-83.069
-87.545
-91.965
-96.321
-100.606
-104.812
-108.932
-112.96
-116.89
-120.717
-124.438
-128.047
-131.542
-134.92
-138.179
-141.318
-144.335
-147.231
-150.004
-152.657
-155.189
-157.601
-159.895
-162.071
-164.132
-166.079
-167.914
-169.639
-171.255
-172.765
-174.17
-175.472
-176.674
-177.775
-178.777
-179.681
-180.488
-181.197
-181.809
-182.325
-182.743
-183.065
-183.291
-183.419
-183.451
-183.384
-183.22
-182.956
-182.592
-182.128
-181.562
-180.894
-180.122
-179.248
-178.27
-177.189
-176.004
-174.715
-173.323
-171.828
-170.229
-168.526
-166.72
-164.811
-162.799
-160.685
-158.471
-156.16
-153.753
-151.255
-148.669
-145.998
-143.247
-140.418
-137.513
-134.534
-131.483
-128.36
-125.167
-121.907
-118.583
-115.197
-111.753
-108.258
-104.714
-101.126
-97.494
-93.82
-90.105
-86.353
-82.573
-78.772
-74.966
-71.171
-67.405
-63.69
-60.041
-56.47
-52.983
-49.581
-46.263
-43.027
-39.877
-36.823
-33.872
-31.031
-28.304
-25.693
-23.19
-20.781
-18.448
-16.167
-13.926
-11.725
-9.572
-7.49
-5.509
-3.666
-1.991
-0.506
0.772
1.833
2.662
3.247
3.569
3.602
3.322
2.705
1.746
0.453
-1.147
-3.012
-5.085
-7.287
-9.55
-11.804
-13.991
-16.063
-17.97
-19.666
-21.107
-22.252
-23.067
-23.55
-23.73
-23.647
-23.368
-22.952
-22.447
-21.945
-21.557
-21.388
-21.539
-22.096
-23.082
-24.579
-26.762
-29.629
-33.042
-36.725
-40.117
-42.748
-44.369
-44.514
-42.576
-38.465
-32.376
-24.861
-17.217
-10.416
-4.904
-1.688
-1.942
-4.852
-8.292
-10.003
-6.19
3.528
15.583
30.55
50.096
78.535
126.277
197.122
289.514
399.338
514.122
623.247
718.17
788.733
828.954
831.222
788.133
699.175
567.692
405.968
235.644
77.274
-50.54
-135.18
-178.299
-187.154
-170.917
-143.128
-111.126
-80.702
-60.618
-52.592
-56.911
-70.727
-84.538
-93.827
-97.618
-96.942
-96.748
-98.727
-101.553
-104.034
-104.357
-102.094
-98.281
-93.683
-88.93
-84.595
-81.023
-78.413
-76.846
-76.257
-76.478
-77.406
-78.988
-81.11
-83.626
-86.409
-89.327
-92.29
-95.233
-98.053
-100.661
-102.992
-105.005
-106.677
-107.991
-108.904
-109.363
-109.329
-108.781
-107.721
-106.167
-104.141
-101.674
-98.805
-95.587
-92.081
-88.337
-84.391
-80.269
-75.994
-71.6
-67.134
-62.652
-58.202
-53.823
-49.543
-45.385
-41.37
-37.515
-33.827
-30.304
-26.942
-23.74
-20.703
-17.841
-15.158
-12.655
-10.326
-8.16
-6.152
-4.299
-2.601
-1.057
0.333
1.567
2.64
3.543
4.269
4.813
5.174
5.351
5.344
5.15
4.768
4.198
3.439
2.493
1.362
0.049
-1.444
-3.112
-4.949
-6.948
-9.101
-11.401
-13.841
-16.412
-19.108
-21.918
-24.833
-27.844
-30.94
-34.111
-37.346
-40.633
-43.959
-47.314
-50.684
-54.058
-57.423
-60.768
-64.081
-67.348
-70.56
-73.705
-76.771
-79.748
-82.625
-85.394
-88.044
-90.567
-92.954
-95.198
-97.292
-99.23
-101.005
-102.612
-104.047
-105.308
-106.39
-107.292
-108.012
-108.55
-108.905
-109.08
-109.075
-108.893
-108.538
-108.012
-107.32
-106.468
-105.46
-104.303
-103.003
-101.568
-100.003
-98.319
-96.521
-94.619
-92.622
-90.538
-88.376
-86.147
-83.858
-81.521
-79.144
-76.737
-74.309
-71.87
-69.43
-66.997
-64.58
-62.189
-59.831
-57.515
-55.249
-53.04
-50.895
-48.822
-46.825
-44.912
-43.087
-41.355
-39.72
-38.187
-36.757
-35.435
-34.222
-33.12
-32.13
-31.253
-30.487
-29.834
-29.292
-28.859
-28.533
-28.313
-28.195
-28.176
-28.254
-28.423
-28.681
-29.024
-29.446
-29.943
-30.511
-31.145
-31.839
-32.59
-33.391
-34.238
-35.127
-36.052
-37.009
-37.993
-39.001
-40.028
-41.071
-42.126
-43.19
-44.259
-45.331
-46.403
-47.475
-48.542
-49.605
-50.662
-51.711
-52.753
-53.786
-54.809
-55.823
-56.826
-57.82
-58.802
-59.773
-60.733
-61.682
-62.62
-63.546
-64.461
-65.363
-66.254
-67.131
-67.994
-68.842
-69.674
-70.488
-71.284
-72.059
-72.812
-73.541
-74.244
-74.918
-75.561
-76.17
-76.742
-77.272
-77.759
-78.198
-78.586
-78.921
-79.198
-79.416
-79.572
-79.662
-79.686
-79.641
-79.526
-79.341
-79.084
-78.756
-78.357
-77.89
-77.357
-76.76
-76.104
-75.394
-74.634
-73.831
-72.992
-72.124
-71.236
-70.337
-69.434
-68.536
-67.653
-66.795
-65.97
-65.187
-64.456
-63.787
-63.19
-62.675
-62.252
-61.927
-61.704
-61.585
-61.574
-61.674
-61.889
-62.221
-62.671
-63.24
-63.93
-64.741
-65.671
-66.708
-67.826
-68.998
-70.198
-71.399
-72.582
-73.723
-74.793
-75.762
-76.597
-77.267
-77.743
-77.995
-77.987
-77.687
-77.077
-76.172
-75.033
-73.731
-72.341
-70.924
-69.513
-68.171
-66.979
-66.024
-65.393
-65.155
-65.333
-66.019
-67.409
-69.558
-72.4
-75.702
-78.92
-81.554
-83.283
-83.613
-81.927
-78.039
-72.009
-64.246
-56.113
-48.894
-43.368
-40.906
-42.18
-45.816
-50.293
-53.585
-53.787
-52.796
-52.497
-50.64
-41.899
-16.085
37.366
120.856
230.285
356.289
485.53
608.61
717.619
802.946
856.377
866.928
824.918
729.115
585.044
408.373
223.994
55.757
-77.326
-164.425
-209.076
-220.478
-207.578
-181.718
-148.593
-114.099
-88.841
-77.008
-80.481
-96.065
-112.515
-123.793
-128.18
-126.822
-125.539
-126.619
-128.837
-130.897
-130.701
-127.671
-122.903
-117.279
-111.537
-106.311
-101.988
-98.776
-96.768
-95.915
-96.029
-96.988
-98.739
-101.146
-104.053
-107.327
-110.805
-114.366
-117.922
-121.351
-124.545
-127.432
-129.94
-132.022
-133.634
-134.711
-135.194
-135.036
-134.204
-132.693
-130.511
-127.673
-124.212
-120.167
-115.582
-110.513
-105.003
-99.086
-92.796
-86.163
-79.235
-72.075
-64.747
-57.318
-49.839
-42.347
-34.874
-27.444
-20.082
-12.81
-5.639
1.429
8.393
15.252
22.013
28.686
35.301
41.912
48.57
55.319
62.187
69.174
76.276
83.489
90.804
98.212
105.691
113.211
120.737
128.236
135.658
142.939
149.984
156.663
162.852
168.435
173.324
177.465
180.804
183.291
184.885
185.552
185.264
184.002
181.739
178.44
174.097
168.736
162.421
155.27
147.403
138.941
129.992
120.64
110.979
101.109
91.127
81.118
71.183
61.426
51.977
42.997
34.611
26.911
19.952
13.74
8.272
3.54
-0.47
-3.773
-6.393
-8.37
-9.74
-10.536
-10.813
-10.643
-10.132
-9.42
-8.623
-7.827
-7.095
-6.465
-5.964
-5.619
-5.442
-5.433
-5.589
-5.904
-6.375
-7.005
-7.781
-8.674
-9.636
-10.593
-11.489
-12.288
-12.966
-13.518
-13.941
-14.241
-14.435
-14.548
-14.606
-14.626
-14.616
-14.578
-14.516
-14.44
-14.371
-14.34
-14.379
-14.504
-14.715
-14.996
-15.317
-15.634
-15.899
-16.061
-16.061
-15.856
-15.418
-14.73
-13.787
-12.592
-11.137
-9.407
-7.383
-5.066
-2.504
0.229
3.032
5.797
8.441
10.851
12.889
14.443
15.42
15.752
15.442
14.425
12.544
9.781
6.181
1.923
-2.531
-6.783
-10.564
-13.335
-14.504
-13.948
-11.628
-7.927
-4.096
-1.12
0.325
-1.124
-5.857
-12.105
-18.335
-22.507
-23.325
-23.95
-26.472
-28.255
-23.334
-1.184
47.636
123.475
220.834
331.09
443.858
552.071
647.678
719.304
753.745
738.209
667.911
546.471
388.279
216.255
52.576
-81.848
-173.492
-220.127
-225.999
-200.039
-153.922
-98.922
-44.812
-2.433
20.497
23.662
10.729
-9.06
-25.477
-34.69
-36.446
-33.651
-30.682
-28.75
-27.362
-25.621
-22.251
-17.317
-11.703
-6.179
-1.549
1.91
4.348
5.935
6.901
7.416
7.552
7.386
7.01
6.485
5.856
5.155
4.388
3.572
2.733
1.897
1.085
0.293
-0.504
-1.345
-2.277
-3.342
-4.571
-5.988
-7.614
-9.471
-11.569
-13.906
-16.457
-19.18
-22.038
-25.007
-28.061
-31.17
-34.288
-37.35
-40.27
-42.956
-45.307
-47.204
-48.532
-49.178
-49.042
-48.054
-46.171
-43.379
-39.665
-35.009
-29.388
-22.772
-15.146
-6.521
3.066
13.555
24.862
36.867
49.438
62.421
75.651
88.989
102.314
115.524
128.525
141.217
153.489
165.214
176.273
186.555
195.966
204.417
211.832
218.166
223.386
227.504
230.557
232.566
233.551
233.522
232.479
230.435
227.408
223.425
218.518
212.735
206.139
198.818
190.874
182.404
173.51
164.26
154.708
144.924
134.981
124.96
114.952
105.057
95.379
86.048
77.192
68.906
61.265
54.304
48.03
42.446
37.541
33.306
29.739
26.818
24.518
22.812
21.661
21.004
20.768
20.838
21.094
21.439
21.802
22.133
22.406
22.598
22.696
22.701
22.615
22.446
22.202
21.886
21.504
21.077
20.64
20.247
19.962
19.83
19.88
20.133
20.592
21.261
22.135
23.198
24.423
25.791
27.28
28.875
30.562
32.321
34.124
35.94
37.734
39.479
41.153
42.738
44.221
45.59
46.838
47.962
48.966
49.851
50.615
51.258
51.776
52.169
52.439
52.588
52.619
52.535
52.338
52.031
51.619
51.106
50.495
49.789
48.992
48.108
47.143
46.103
44.995
43.826
42.604
41.336
40.031
38.697
37.341
35.972
34.598
33.224
31.86
30.512
29.186
27.89
26.63
25.41
24.238
23.119
22.056
21.055
20.119
19.251
18.454
17.729
17.079
16.502
15.998
15.568
15.208
14.917
14.692
14.529
14.425
14.374
14.372
14.413
14.49
14.597
14.728
14.875
15.032
15.191
15.346
15.49
15.616
15.717
15.786
15.816
15.802
15.736
15.614
15.429
15.179
14.857
14.462
13.989
13.439
12.807
12.095
11.302
10.429
9.476
8.446
7.341
6.165
4.921
3.616
2.253
0.84
-0.619
-2.116
-3.645
-5.2
-6.774
-8.359
-9.949
-11.537
-13.115
-14.678
-16.217
-17.727
-19.2
-20.631
-22.014
-23.344
-24.618
-25.831
-26.981
-28.064
-29.078
-30.023
-30.897
-31.699
-32.43
-33.09
-33.681
-34.206
-34.666
-35.066
-35.41
-35.701
-35.943
-36.142
-36.3
-36.422
-36.512
-36.574
-36.612
-36.628
-36.628
-36.615
-36.594
-36.568
-36.543
-36.521
-36.506
-36.501
-36.508
-36.526
-36.556
-36.597
-36.645
-36.701
-36.761
-36.825
-36.891
-36.957
-37.025
-37.091
-37.154
-37.21
-37.252
-37.277
-37.283
-37.271
-37.247
-37.217
-37.193
-37.187
-37.216
-37.289
-37.413
-37.588
-37.81
-38.071
-38.364
-38.689
-39.049
-39.449
-39.89
-40.373
-40.895
-41.447
-42.012
-42.563
-43.074
-43.524
-43.906
-44.227
-44.511
-44.785
-45.088
-45.448
-45.884
-46.412
-47.038
-47.762
-48.578
-49.49
-50.506
-51.648
-52.944
-54.41
-56.044
-57.823
-59.706
-61.64
-63.555
-65.388
-67.094
-68.63
-69.983
-71.174
-72.247
-73.253
-74.243
-75.238
-76.233
-77.252
-78.337
-79.54
-80.932
-82.588
-84.556
-86.944
-89.92
-93.497
-97.575
-101.916
-106.018
-109.436
-111.886
-112.875
-111.84
-108.734
-103.681
-97.094
-90.263
-84.183
-79.359
-77.078
-77.9
-80.359
-83.191
-84.635
-82.994
-80.198
-77.573
-72.499
-60.024
-31.906
19.32
94.084
187.79
292.557
398.41
498.526
586
652.564
692.002
694.818
654.438
571.657
447.408
292.484
126.238
-34.175
-166.697
-254.345
-296.202
-295.702
-263.24
-216.571
-165.947
-121.186
-93.856
-85.111
-93.726
-114.376
-134.291
-147.567
-152.933
-151.753
-150.169
-150.458
-151.853
-153.565
-153.629
-151.722
-148.974
-146.1
-143.893
-142.961
-143.363
-145.12
-148.176
-152.268
-157.191
-162.787
-168.88
-175.289
-181.813
-188.231
-194.344
-200.011
-205.123
-209.596
-213.357
-216.334
-218.48
-219.76
-220.165
-219.717
-218.436
-216.353
-213.514
-209.979
-205.837
-201.207
-196.192
-190.883
-185.351
-179.64
-173.794
-167.86
-161.868
-155.848
-149.82
-143.794
-137.788
-131.823
-125.914
-120.067
-114.28
-108.538
-102.832
-97.166
-91.543
-85.975
-80.476
-75.055
-69.73
-64.522
-59.447
-54.523
-49.763
-45.173
-40.765
-36.547
-32.531
-28.725
-25.14
-21.779
-18.646
-15.745
-13.075
-10.637
-8.429
-6.442
-4.674
-3.117
-1.766
-0.616
0.341
1.113
1.708
2.134
2.399
2.514
2.489
2.335
2.064
1.687
1.217
0.664
0.042
-0.637
-1.362
-2.12
-2.901
-3.693
-4.485
-5.268
-6.031
-6.766
-7.464
-8.116
-8.715
-9.254
-9.727
-10.13
-10.456
-10.704
-10.868
-10.947
-10.939
-10.842
-10.655
-10.379
-10.013
-9.559
-9.019
-8.395
-7.689
-6.906
-6.05
-5.124
-4.135
-3.087
-1.986
-0.837
0.354
1.581
2.838
4.12
5.419
6.732
8.051
9.371
10.688
11.996
13.29
14.566
15.821
17.05
18.251
19.421
20.556
21.656
22.718
23.742
24.726
25.671
26.576
27.444
28.274
29.07
29.833
30.566
31.272
31.954
32.615
33.26
33.892
34.515
35.133
35.752
36.375
37.007
37.654
38.319
39.008
39.724
40.471
41.253
42.075
42.938
43.846
44.802
45.808
46.865
47.975
49.138
50.353
51.62
52.937
54.3
55.706
57.149
58.625
60.129
61.654
63.195
64.745
66.298
67.847
69.385
70.905
72.396
73.848
75.251
76.594
77.866
79.055
80.15
81.139
82.012
82.764
83.384
83.864
84.193
84.358
84.35
84.166
83.801
83.252
82.521
81.611
80.534
79.309
77.95
76.464
74.856
73.125
71.269
69.294
67.201
64.993
62.671
60.232
57.681
55.026
52.268
49.398
46.398
43.235
39.893
36.376
32.697
28.879
24.954
20.954
16.925
12.924
9.006
5.218
1.597
-1.832
-5.032
-7.951
-10.529
-12.691
-14.386
-15.593
-16.295
-16.494
-16.204
-15.454
-14.302
-12.829
-11.101
-9.172
-7.076
-4.834
-2.484
-0.071
2.35
4.725
7.024
9.225
11.307
13.256
15.069
16.765
18.395
20.02
21.685
23.41
25.187
27.003
28.849
30.71
32.567
34.389
36.119
37.713
39.14
40.366
41.365
42.094
42.49
42.499
42.088
41.243
39.979
38.316
36.277
33.907
31.261
28.417
25.469
22.499
19.565
16.72
14.002
11.422
8.984
6.674
4.452
2.288
0.16
-1.982
-4.202
-6.565
-9.159
-12.063
-15.326
-19.073
-23.484
-28.573
-34.255
-40.28
-46.128
-51.362
-55.693
-58.594
-59.486
-58.278
-55.025
-50.214
-45.211
-41.099
-38.547
-38.837
-42.261
-46.99
-51.484
-53.696
-52.34
-50.364
-49.528
-47.188
-37.226
-9.069
46.196
128.653
231.943
345.331
457.055
559.889
646.868
710.602
742.937
733.255
676.84
574.653
434.271
273.145
111.067
-32.104
-140.291
-206.948
-235.24
-233.92
-212.011
-179.108
-141.227
-104.308
-78.515
-68.398
-74.671
-92.977
-111.769
-124.523
-129.46
-128.103
-126.117
-125.654
-126.084
-126.527
-125.118
-121.607
-117.059
-112.156
-107.662
-104.17
-101.743
-100.405
-100.133
-100.737
-102.068
-104.036
-106.525
-109.402
-112.555
-115.863
-119.21
-122.517
-125.688
-128.635
-131.294
-133.617
-135.572
-137.139
-138.294
-139.005
-139.253
-139.027
-138.319
-137.131
-135.471
-133.346
-130.773
-127.772
-124.365
-120.577
-116.427
-111.933
-107.102
-101.937
-96.442
-90.619
-84.482
-78.051
-71.349
-64.399
-57.224
-49.853
-42.32
-34.663
-26.903
-19.052
-11.105
-3.066
5.04
13.183
21.322
29.412
37.423
45.32
53.062
60.609
67.924
74.973
81.733
88.179
94.259
99.914
105.077
109.688
113.715
117.132
119.922
122.077
123.589
124.46
124.715
124.374
123.451
121.966
119.93
117.361
114.306
110.81
106.912
102.657
98.078
93.205
88.075
82.715
77.151
71.408
65.495
59.425
53.224
46.921
40.559
34.193
27.862
21.617
15.52
9.623
3.979
-1.363
-6.366
-10.993
-15.216
-19.008
-22.34
-25.179
-27.5
-29.299
-30.6
-31.459
-31.929
-32.074
-31.975
-31.704
-31.346
-30.976
-30.65
-30.411
-30.295
-30.335
-30.575
-31.068
-31.871
-33.01
-34.481
-36.253
-38.288
-40.544
-42.967
-45.493
-48.047
-50.568
-53.023
-55.397
-57.68
-59.849
-61.867
-63.68
-65.24
-66.51
-67.468
-68.115
-68.45
-68.479
-68.217
-67.686
-66.904
-65.872
-64.557
-62.906
-60.885
-58.471
-55.656
-52.456
-48.883
-44.953
-40.703
-36.148
-31.307
-26.201
-20.854
-15.318
-9.68
-4.044
1.471
6.74
11.651
16.089
19.961
23.198
25.746
27.606
28.735
29.013
28.442
27.087
25.126
22.989
21.077
19.661
19.251
20.413
23.243
27.775
33.665
39.703
44.91
48.556
49.268
46.785
42.871
38.794
36.373
36.669
36.535
34.524
33.503
38.999
60.986
108.079
180.096
271.477
373.715
476.077
571.791
654.293
713.084
736.852
713.382
636.933
512.041
352.936
184.49
30.719
-89.301
-162.785
-192.469
-186.79
-155.07
-112.325
-67.629
-28.692
-6.484
-2.469
-14.736
-37.725
-59.161
-73.464
-79.929
-80.415
-80.807
-83.146
-86.497
-89.799
-91.086
-90.021
-87.618
-84.557
-81.557
-79.113
-77.227
-75.881
-75.008
-74.421
-73.989
-73.617
-73.208
-72.654
-71.874
-70.819
-69.449
-67.737
-65.666
-63.206
-60.359
-57.189
-53.777
-50.189
-46.493
-42.729
-38.937
-35.183
-31.533
-28.041
-24.754
-21.707
-18.94
-16.515
-14.479
-12.842
-11.578
-10.609
-9.858
-9.278
-8.829
-8.487
-8.223
-7.997
-7.764
-7.497
-7.161
-6.704
-6.057
-5.122
-3.812
-2.087
0.062
2.616
5.564
8.911
12.672
16.865
21.504
26.609
32.197
38.284
44.855
51.854
59.194
66.756
74.427
82.126
89.786
97.342
104.725
111.856
118.655
125.043
130.929
136.191
140.708
144.371
147.105
148.885
149.718
149.629
148.646
146.783
144.057
140.499
136.147
131.041
125.221
118.728
111.631
104.046
96.101
87.919
79.603
71.224
62.839
54.507
46.289
38.252
30.465
22.977
15.837
9.096
2.809
-2.964
-8.19
-12.876
-17.047
-20.729
-23.944
-26.704
-29.015
-30.905
-32.406
-33.556
-34.404
-34.982
-35.321
-35.461
-35.443
-35.318
-35.127
-34.883
-34.592
-34.255
-33.876
-33.461
-33.021
-32.546
-32.024
-31.441
-30.774
-30.015
-29.16
-28.202
-27.135
-25.952
-24.649
-23.233
-21.722
-20.13
-18.473
-16.763
-15.014
-13.248
-11.488
-9.759
-8.089
-6.496
-4.995
-3.602
-2.33
-1.188
-0.184
0.679
1.403
1.989
2.439
2.756
2.94
2.998
2.937
2.767
2.495
2.131
1.684
1.162
0.576
-0.066
-0.755
-1.483
-2.242
-3.023
-3.817
-4.615
-5.407
-6.182
-6.931
-7.646
-8.317
-8.935
-9.493
-9.983
-10.399
-10.736
-10.988
-11.151
-11.223
-11.199
-11.08
-10.863
-10.549
-10.138
-9.634
-9.037
-8.353
-7.584
-6.735
-5.813
-4.823
-3.771
-2.666
-1.513
-0.321
0.901
2.144
3.399
4.657
5.907
7.139
8.343
9.508
10.624
11.68
12.666
13.571
14.386
15.1
15.704
16.191
16.55
16.775
16.858
16.791
16.57
16.188
15.641
14.925
14.036
12.974
11.736
10.322
8.733
6.969
5.033
2.927
0.655
-1.779
-4.369
-7.109
-9.992
-13.01
-16.155
-19.416
-22.784
-26.248
-29.796
-33.417
-37.097
-40.826
-44.589
-48.374
-52.168
-55.955
-59.723
-63.458
-67.145
-70.771
-74.323
-77.786
-81.15
-84.401
-87.529
-90.522
-93.371
-96.066
-98.597
-100.957
-103.138
-105.133
-106.936
-108.542
-109.948
-111.15
-112.147
-112.938
-113.523
-113.902
-114.076
-114.049
-113.823
-113.4
-112.784
-111.98
-110.991
-109.825
-108.488
-106.987
-105.332
-103.53
-101.593
-99.53
-97.351
-95.064
-92.68
-90.204
-87.645
-85.01
-82.307
-79.541
-76.722
-73.856
-70.952
-68.02
-65.067
-62.101
-59.126
-56.144
-53.161
-50.183
-47.219
-44.277
-41.371
-38.516
-35.736
-33.052
-30.482
-28.038
-25.729
-23.551
-21.508
-19.598
-17.816
-16.166
-14.647
-13.258
-12.001
-10.874
-9.867
-8.965
-8.139
-7.353
-6.588
-5.831
-5.076
-4.34
-3.638
-2.996
-2.454
-2.041
-1.779
-1.694
-1.797
-2.097
-2.609
-3.341
-4.311
-5.549
-7.064
-8.852
-10.904
-13.179
-15.629
-18.189
-20.771
-23.296
-25.7
-27.911
-29.886
-31.591
-33.009
-34.168
-35.099
-35.83
-36.398
-36.825
-37.151
-37.464
-37.863
-38.452
-39.35
-40.622
-42.36
-44.764
-47.903
-51.692
-55.921
-60.114
-63.785
-66.641
-68.276
-68.09
-65.827
-61.6
-55.806
-49.489
-43.787
-39.414
-37.212
-38.347
-42.434
-47.328
-50.997
-50.364
-44.375
-36.148
-26.206
-12.381
9.876
50.779
117.379
209.797
324.658
450.745
574.815
686.134
772.344
825.635
839.756
808.639
733.096
615.455
464.46
297.242
131.547
-12.652
-119.593
-183.761
-206.743
-195.98
-162.795
-118.439
-72.75
-36.481
-17.324
-16.453
-30.834
-51.376
-68.029
-76.963
-78.039
-74.738
-71.895
-70.428
-69.53
-68.156
-64.885
-59.909
-54.303
-48.78
-44.113
-40.879
-39.19
-39.052
-40.405
-43.027
-46.734
-51.417
-56.923
-63.065
-69.678
-76.577
-83.587
-90.564
-97.351
-103.784
-109.711
-115.001
-119.549
-123.293
-126.204
-128.269
-129.494
-129.897
-129.504
-128.359
-126.521
-124.057
-121.033
-117.524
-113.601
-109.343
-104.83
-100.135
-95.311
-90.396
-85.41
-80.364
-75.267
-70.127
-64.947
-59.727
-54.465
-49.166
-43.842
-38.512
-33.185
-27.861
-22.53
-17.183
-11.819
-6.444
-1.062
4.318
9.689
15.045
20.37
25.648
30.87
36.038
41.168
46.288
51.41
56.528
61.626
66.677
71.65
76.515
81.227
85.73
89.975
93.918
97.524
100.773
103.63
106.05
107.979
109.345
110.102
110.226
109.702
108.529
106.722
104.303
101.318
97.837
93.92
89.615
84.965
79.996
74.748
69.273
63.626
57.875
52.072
46.257
40.469
34.739
29.088
23.527
18.05
12.629
7.252
1.917
-3.373
-8.601
-13.759
-18.841
-23.842
-28.756
-33.577
-38.296
-42.903
-47.394
-51.758
-55.977
-60.029
-63.883
-67.516
-70.912
-74.06
-76.954
-79.592
-81.967
-84.08
-85.937
-87.541
-88.896
-90.005
-90.871
-91.5
-91.898
-92.077
-92.048
-91.823
-91.413
-90.828
-90.081
-89.18
-88.137
-86.962
-85.662
-84.246
-82.725
-81.109
-79.409
-77.635
-75.798
-73.909
-71.978
-70.014
-68.029
-66.03
-64.026
-62.025
-60.036
-58.065
-56.119
-54.206
-52.333
-50.504
-48.728
-47.007
-45.349
-43.758
-42.238
-40.794
-39.428
-38.145
-36.948
-35.839
-34.822
-33.899
-33.071
-32.341
-31.711
-31.181
-30.752
-30.425
-30.201
-30.078
-30.057
-30.138
-30.319
-30.601
-30.982
-31.461
-32.038
-32.71
-33.478
-34.338
-35.288
-36.328
-37.453
-38.663
-39.953
-41.322
-42.765
-44.281
-45.865
-47.513
-49.223
-50.99
-52.809
-54.677
-56.59
-58.543
-60.532
-62.553
-64.601
-66.672
-68.762
-70.865
-72.977
-75.092
-77.206
-79.312
-81.404
-83.476
-85.521
-87.533
-89.503
-91.427
-93.297
-95.106
-96.848
-98.518
-100.111
-101.619
-103.036
-104.356
-105.571
-106.677
-107.665
-108.531
-109.266
-109.864
-110.32
-110.628
-110.783
-110.78
-110.608
-110.257
-109.721
-108.998
-108.088
-106.993
-105.717
-104.267
-102.658
-100.907
-99.034
-97.054
-94.976
-92.808
-90.559
-88.245
-85.884
-83.496
-81.09
-78.667
-76.227
-73.767
-71.277
-68.741
-66.124
-63.382
-60.486
-57.419
-54.18
-50.781
-47.231
-43.534
-39.698
-35.738
-31.688
-27.591
-23.495
-19.449
-15.516
-11.777
-8.339
-5.313
-2.787
-0.82
0.564
1.357
1.554
1.154
0.168
-1.375
-3.422
-5.916
-8.789
-11.974
-15.391
-18.933
-22.468
-25.866
-29.027
-31.89
-34.447
-36.724
-38.755
-40.587
-42.267
-43.841
-45.391
-47.005
-48.764
-50.752
-53.033
-55.658
-58.751
-62.494
-66.94
-72.026
-77.53
-82.983
-87.943
-92.067
-94.854
-95.688
-94.269
-90.53
-84.682
-77.766
-70.901
-64.84
-60.897
-59.777
-60.335
-61.374
-61.462
-59.472
-57.54
-57.392
-56.623
-49.583
-26.218
23.24
100.992
203.187
320.754
441.685
557.703
660.999
742.223
793.183
802.688
761.863
670.996
535.067
367.81
192.012
28.126
-104.855
-192.291
-234.731
-238.744
-213.157
-173.356
-128.826
-87.304
-60
-49.408
-54.977
-72.32
-89.698
-101.203
-105.274
-103.129
-100.45
-99.175
-98.518
-97.599
-94.384
-88.569
-81.311
-73.38
-65.702
-59.054
-53.598
-49.431
-46.61
-44.966
-44.386
-44.816
-46.138
-48.206
-50.892
-54.058
-57.559
-61.291
-65.13
-68.939
-72.616
-76.073
-79.242
-82.073
-84.495
-86.445
-87.866
-88.71
-88.949
-88.575
-87.6
-86.064
-84.033
-81.589
-78.802
-75.729
-72.408
-68.866
-65.117
-61.175
-57.054
-52.764
-48.328
-43.777
-39.137
-34.434
-29.667
-24.815
-19.837
-14.676
-9.29
-3.651
2.267
8.477
14.981
21.773
28.827
36.108
43.603
51.306
59.206
67.298
75.551
83.916
92.335
100.731
109.037
117.181
125.079
132.652
139.826
146.541
152.759
158.457
163.596
168.141
172.066
175.341
177.953
179.902
181.183
181.805
181.782
181.138
179.922
178.192
176.01
173.431
170.498
167.237
163.684
159.86
155.77
151.436
146.873
142.099
137.155
132.079
126.909
121.687
116.438
111.166
105.877
100.567
95.245
89.932
84.653
79.451
74.383
69.491
64.813
60.376
56.183
52.225
48.483
44.918
41.504
38.228
35.084
32.073
29.196
26.441
23.792
21.222
18.692
16.17
13.63
11.047
8.417
5.75
3.066
0.405
-2.196
-4.717
-7.145
-9.48
-11.72
-13.862
-15.903
-17.84
-19.659
-21.338
-22.849
-24.162
-25.255
-26.115
-26.741
-27.142
-27.319
-27.269
-26.976
-26.419
-25.581
-24.443
-22.983
-21.186
-19.059
-16.647
-14.024
-11.275
-8.476
-5.674
-2.92
-0.289
2.144
4.307
6.111
7.526
8.488
8.821
8.495
7.604
6.331
5.126
4.43
4.469
5.643
8.509
13.114
19.232
26.383
33.395
39.337
43.734
45.658
44.001
39.383
33.836
29.563
29.953
35.936
44.374
54.562
67.924
87.298
121.447
177.232
254.833
352.797
463.231
573.798
674.553
753.711
799.385
802.263
754.53
654.625
509.085
333.823
153.014
-9.367
-132.352
-204.006
-226.899
-208.532
-160.901
-99.84
-35.755
19.298
53.793
66.251
58.941
40.547
24.28
15.528
14.828
19.381
23.048
23.767
22.328
20.073
19.247
20.606
23.643
27.381
30.723
33.107
34.404
34.77
34.471
33.59
32.145
30.413
28.633
27.008
25.772
24.967
24.603
24.746
25.41
26.574
28.209
30.251
32.611
35.218
37.995
40.86
43.747
46.588
49.324
51.9
54.248
56.309
58.028
59.385
60.398
61.086
61.473
61.591
61.472
61.171
60.747
60.252
59.729
59.216
58.754
58.403
58.245
58.362
58.833
59.704
60.979
62.666
64.77
67.301
70.268
73.668
77.491
81.738
86.425
91.569
97.167
103.178
109.523
116.1
122.809
129.578
136.357
143.096
149.742
156.235
162.517
168.538
174.242
179.544
184.329
188.474
191.875
194.47
196.24
197.193
197.335
196.658
195.152
192.812
189.633
185.611
180.741
175.009
168.429
161.063
153.012
144.403
135.361
125.983
116.344
106.517
96.57
86.585
76.639
66.807
57.174
47.845
38.927
30.535
22.759
15.634
9.173
3.361
-1.831
-6.419
-10.421
-13.87
-16.793
-19.223
-21.198
-22.753
-23.943
-24.853
-25.565
-26.167
-26.732
-27.3
-27.898
-28.547
-29.248
-30.005
-30.813
-31.658
-32.529
-33.422
-34.325
-35.225
-36.1
-36.908
-37.612
-38.18
-38.589
-38.828
-38.893
-38.78
-38.498
-38.061
-37.487
-36.798
-36.012
-35.142
-34.207
-33.224
-32.215
-31.21
-30.232
-29.297
-28.422
-27.619
-26.895
-26.261
-25.718
-25.266
-24.902
-24.625
-24.434
-24.33
-24.311
-24.374
-24.516
-24.733
-25.019
-25.374
-25.793
-26.273
-26.81
-27.4
-28.041
-28.73
-29.464
-30.237
-31.045
-31.882
-32.742
-33.621
-34.512
-35.41
-36.309
-37.204
-38.09
-38.963
-39.818
-40.652
-41.459
-42.237
-42.982
-43.693
-44.365
-44.998
-45.59
-46.14
-46.647
-47.11
-47.53
-47.906
-48.24
-48.531
-48.782
-48.995
-49.172
-49.316
-49.429
-49.517
-49.582
-49.629
-49.662
-49.687
-49.709
-49.732
-49.762
-49.804
-49.865
-49.949
-50.061
-50.207
-50.392
-50.62
-50.897
-51.226
-51.612
-52.058
-52.567
-53.143
-53.788
-54.504
-55.293
-56.157
-57.095
-58.109
-59.197
-60.36
-61.596
-62.902
-64.277
-65.717
-67.22
-68.781
-70.396
-72.06
-73.768
-75.514
-77.293
-79.098
-80.922
-82.759
-84.602
-86.444
-88.278
-90.098
-91.896
-93.665
-95.4
-97.094
-98.74
-100.333
-101.867
-103.336
-104.736
-106.063
-107.311
-108.479
-109.561
-110.557
-111.462
-112.277
-112.998
-113.626
-114.158
-114.597
-114.941
-115.191
-115.35
-115.418
-115.398
-115.291
-115.102
-114.833
-114.486
-114.066
-113.576
-113.019
-112.398
-111.717
-110.979
-110.188
-109.348
-108.462
-107.532
-106.563
-105.557
-104.517
-103.445
-102.343
-101.214
-100.059
-98.88
-97.679
-96.458
-95.219
-93.963
-92.692
-91.409
-90.113
-88.808
-87.494
-86.173
-84.847
-83.518
-82.189
-80.861
-79.54
-78.227
-76.928
-75.648
-74.393
-73.168
-71.98
-70.835
-69.743
-68.708
-67.738
-66.839
-66.018
-65.28
-64.633
-64.083
-63.637
-63.303
-63.088
-62.997
-63.037
-63.211
-63.519
-63.96
-64.534
-65.241
-66.086
-67.072
-68.201
-69.475
-70.894
-72.456
-74.15
-75.956
-77.844
-79.781
-81.735
-83.674
-85.573
-87.404
-89.136
-90.74
-92.176
-93.406
-94.399
-95.118
-95.529
-95.616
-95.379
-94.861
-94.139
-93.297
-92.411
-91.538
-90.737
-90.097
-89.71
-89.655
-90.012
-90.81
-92.114
-94.095
-96.814
-100.178
-103.968
-107.718
-110.955
-113.391
-114.617
-114.044
-111.399
-106.775
-100.592
-93.862
-87.617
-82.471
-79.184
-78.815
-80.943
-83.516
-84.569
-81.355
-73.668
-64.825
-54.789
-40.505
-15.288
30.911
101.624
192.996
296.412
400.151
497.411
585.287
660.033
717.107
746.298
735.595
679.688
578.195
439.928
283.029
126.043
-11.731
-114.4
-176.329
-199.318
-190.606
-161.59
-123.072
-83.472
-51.748
-34.708
-33.735
-46.622
-65.607
-81.491
-90.492
-92.383
-90.497
-89.389
-89.963
-91.496
-92.884
-92.691
-91.046
-88.842
-86.633
-85.081
-84.652
-85.379
-87.245
-90.148
-93.843
-98.13
-102.85
-107.828
-112.883
-117.865
-122.628
-127.035
-130.986
-134.377
-137.122
-139.171
-140.495
-141.084
-140.939
-140.071
-138.493
-136.251
-133.41
-130.031
-126.171
-121.886
-117.232
-112.271
-107.073
-101.696
-96.177
-90.542
-84.811
-79.001
-73.134
-67.223
-61.283
-55.316
-49.319
-43.297
-37.256
-31.205
-25.154
-19.108
-13.07
-7.051
-1.068
4.861
10.718
16.486
22.15
27.694
33.1
38.35
43.426
48.312
52.995
57.46
61.693
65.681
69.41
72.87
76.051
78.945
81.542
83.835
85.817
87.482
88.824
89.841
90.53
90.888
90.915
90.612
89.981
89.027
87.754
86.168
84.277
82.091
79.618
76.872
73.863
70.608
67.12
63.415
59.512
55.429
51.184
46.797
42.289
37.68
32.993
28.248
23.469
18.678
13.897
9.148
4.455
-0.161
-4.679
-9.078
-13.337
-17.437
-21.359
-25.086
-28.601
-31.89
-34.938
-37.733
-40.264
-42.52
-44.495
-46.18
-47.571
-48.665
-49.459
-49.954
-50.152
-50.053
-49.665
-48.991
-48.04
-46.82
-45.341
-43.614
-41.651
-39.467
-37.075
-34.491
-31.732
-28.813
-25.752
-22.568
-19.278
-15.9
-12.454
-8.957
-5.429
-1.888
1.649
5.163
8.638
12.056
15.401
18.659
21.815
24.854
27.765
30.536
33.156
35.616
37.906
40.02
41.952
43.696
45.248
46.606
47.768
48.734
49.504
50.08
50.466
50.664
50.679
50.517
50.185
49.689
49.037
48.237
47.298
46.23
45.043
43.746
42.349
40.864
39.301
37.67
35.982
34.246
32.474
30.675
28.858
27.033
25.208
23.391
21.591
19.815
18.07
16.361
14.695
13.075
11.506
9.991
8.532
7.133
5.793
4.515
3.297
2.14
1.043
0.005
-0.978
-1.907
-2.784
-3.614
-4.399
-5.143
-5.849
-6.522
-7.164
-7.779
-8.371
-8.943
-9.497
-10.037
-10.565
-11.084
-11.596
-12.103
-12.606
-13.106
-13.603
-14.098
-14.59
-15.077
-15.559
-16.032
-16.495
-16.944
-17.376
-17.787
-18.173
-18.529
-18.849
-19.129
-19.363
-19.544
-19.667
-19.726
-19.715
-19.629
-19.462
-19.211
-18.871
-18.437
-17.908
-17.28
-16.552
-15.721
-14.788
-13.752
-12.614
-11.378
-10.044
-8.617
-7.103
-5.506
-3.836
-2.102
-0.312
1.521
3.386
5.27
7.159
9.041
10.903
12.732
14.515
16.238
17.885
19.443
20.896
22.23
23.433
24.492
25.397
26.142
26.722
27.132
27.369
27.419
27.273
26.919
26.35
25.559
24.545
23.315
21.881
20.266
18.499
16.608
14.623
12.567
10.467
8.348
6.245
4.204
2.275
0.504
-1.065
-2.389
-3.447
-4.242
-4.802
-5.193
-5.483
-5.723
-5.978
-6.325
-6.854
-7.659
-8.826
-10.417
-12.517
-15.297
-18.873
-23.223
-28.15
-33.242
-38.065
-42.313
-45.653
-47.555
-47.641
-45.921
-42.888
-39.634
-37.198
-36.221
-37.281
-41.112
-48.332
-57.768
-66.355
-70.838
-67.906
-57.871
-44.545
-27.554
-4.447
30.272
86.531
166.082
265.094
377.591
492.334
601.744
698.991
774.485
817.48
815.36
761.234
655.676
509.636
344.412
181.704
42.273
-59.07
-118.913
-139.986
-130.234
-102.045
-65.856
-31.217
-7.717
1.501
-2.926
-16.799
-30.577
-39.331
-42.479
-41.367
-41.177
-43.831
-47.832
-51.921
-54.086
-53.702
-51.803
-49.164
-46.423
-44.235
-43.04
-43.082
-44.518
-47.304
-51.208
-56.069
-61.77
-68.121
-74.917
-81.952
-89
-95.88
-102.46
-108.597
-114.177
-119.119
-123.351
-126.831
-129.53
-131.415
-132.481
-132.744
-132.225
-130.966
-129.018
-126.448
-123.348
-119.81
-115.914
-111.732
-107.311
-102.68
-97.869
-92.897
-87.781
-82.544
-77.201
-71.765
-66.259
-60.701
-55.108
-49.494
-43.858
-38.196
-32.511
-26.805
-21.085
-15.367
-9.664
-3.99
1.645
7.239
12.793
18.311
23.802
29.278
34.761
40.268
45.808
51.379
56.972
62.566
68.139
73.668
79.129
84.485
89.692
94.698
99.444
103.879
107.955
111.614
114.793
117.423
119.452
120.84
121.563
121.614
120.985
119.67
117.668
115.002
111.705
107.824
103.412
98.502
93.127
87.335
81.184
74.743
68.082
61.255
54.309
47.296
40.27
33.301
26.459
19.79
13.329
7.1
1.127
-4.543
-9.864
-14.808
-19.358
-23.512
-27.275
-30.639
-33.601
-36.176
-38.395
-40.306
-41.968
-43.42
-44.69
-45.81
-46.807
-47.728
-48.617
-49.498
-50.385
-51.286
-52.211
-53.176
-54.202
-55.289
-56.424
-57.587
-58.746
-59.881
-60.976
-62.007
-62.95
-63.776
-64.46
-65.001
-65.411
-65.695
-65.849
-65.855
-65.681
-65.299
-64.687
-63.821
-62.677
-61.235
-59.484
-57.427
-55.076
-52.45
-49.559
-46.399
-42.955
-39.212
-35.195
-30.965
-26.609
-22.235
-17.94
-13.801
-9.922
-6.424
-3.399
-0.93
0.919
2.161
2.742
2.488
1.373
-0.503
-2.925
-5.388
-7.427
-8.796
-9.036
-7.522
-4.146
0.873
6.984
12.902
17.585
20.514
20.652
16.766
9.638
1.525
-5.326
-7.399
-4.351
0.507
8.197
22.001
47.271
92.776
160.665
246.045
342.44
442.154
539.226
629.895
707.78
760.225
772.36
732.074
634.54
488.2
312.969
135.49
-18.556
-131.279
-194.558
-214.187
-201.465
-166.333
-121.154
-72.591
-26.844
4.538
17.648
12.339
-6.678
-26.256
-39.196
-43.646
-41.005
-37.628
-36.193
-36.114
-36.547
-35.439
-32.365
-28.379
-24.155
-20.415
-17.657
-15.844
-14.904
-14.716
-15.016
-15.587
-16.301
-17.055
-17.743
-18.289
-18.618
-18.675
-18.471
-18.051
-17.441
-16.665
-15.742
-14.684
-13.532
-12.351
-11.2
-10.136
-9.213
-8.468
-7.956
-7.755
-7.915
-8.456
-9.356
-10.533
-11.922
-13.477
-15.156
-16.927
-18.744
-20.541
-22.259
-23.86
-25.289
-26.486
-27.36
-27.777
-27.63
-26.855
-25.426
-23.367
-20.694
-17.401
-13.49
-8.973
-3.861
1.825
8.073
14.902
22.305
30.233
38.613
47.32
56.23
65.254
74.318
83.358
92.319
101.123
109.707
118.03
126.035
133.657
140.813
147.391
153.299
158.483
162.902
166.538
169.392
171.453
172.719
173.21
172.934
171.91
170.149
167.644
164.405
160.466
155.87
150.677
144.946
138.714
132.037
124.986
117.614
109.978
102.119
94.057
85.826
77.476
69.056
60.629
52.259
43.996
35.905
28.062
20.536
13.399
6.699
0.446
-5.336
-10.625
-15.395
-19.613
-23.261
-26.346
-28.87
-30.844
-32.292
-33.24
-33.744
-33.886
-33.74
-33.376
-32.846
-32.177
-31.4
-30.547
-29.644
-28.715
-27.775
-26.826
-25.878
-24.942
-24.02
-23.107
-22.18
-21.197
-20.128
-18.949
-17.646
-16.218
-14.666
-12.99
-11.201
-9.317
-7.357
-5.344
-3.296
-1.224
0.852
2.913
4.931
6.875
8.719
10.444
12.033
13.473
14.753
15.865
16.805
17.577
18.181
18.621
18.896
19.007
18.955
18.743
18.375
17.857
17.194
16.389
15.446
14.373
13.174
11.854
10.419
8.872
7.219
5.467
3.622
1.691
-0.32
-2.402
-4.55
-6.756
-9.013
-11.314
-13.654
-16.027
-18.427
-20.85
-23.289
-25.741
-28.2
-30.664
-33.127
-35.585
-38.036
-40.476
-42.901
-45.308
-47.695
-50.059
-52.397
-54.707
-56.988
-59.238
-61.457
-63.642
-65.794
-67.911
-69.995
-72.045
-74.062
-76.045
-77.995
-79.914
-81.802
-83.658
-85.486
-87.283
-89.053
-90.795
-92.51
-94.199
-95.863
-97.503
-99.12
-100.715
-102.291
-103.847
-105.386
-106.909
-108.417
-109.912
-111.395
-112.867
-114.331
-115.786
-117.234
-118.676
-120.113
-121.545
-122.972
-124.395
-125.814
-127.228
-128.638
-130.042
-131.441
-132.835
-134.223
-135.605
-136.981
-138.35
-139.713
-141.068
-142.415
-143.753
-145.082
-146.399
-147.704
-148.996
-150.272
-151.532
-152.773
-153.994
-155.194
-156.37
-157.52
-158.643
-159.736
-160.797
-161.825
-162.817
-163.772
-164.689
-165.565
-166.4
-167.192
-167.941
-168.643
-169.298
-169.902
-170.454
-170.952
-171.391
-171.769
-172.084
-172.332
-172.51
-172.618
-172.652
-172.612
-172.495
-172.302
-172.032
-171.682
-171.251
-170.737
-170.137
-169.449
-168.671
-167.799
-166.834
-165.773
-164.619
-163.372
-162.035
-160.608
-159.091
-157.481
-155.78
-153.993
-152.124
-150.182
-148.179
-146.13
-144.058
-141.987
-139.934
-137.914
-135.935
-133.997
-132.105
-130.26
-128.46
-126.71
-125.015
-123.376
-121.8
-120.291
-118.841
-117.434
-116.041
-114.626
-113.171
-111.671
-110.123
-108.547
-106.961
-105.392
-103.885
-102.469
-101.161
-99.968
-98.88
-97.883
-96.983
-96.192
-95.531
-95.033
-94.703
-94.535
-94.521
-94.627
-94.811
-95.016
-95.16
-95.183
-95.055
-94.79
-94.443
-94.081
-93.759
-93.517
-93.368
-93.337
-93.477
-93.829
-94.438
-95.354
-96.586
-98.257
-100.58
-103.581
-107.174
-111.092
-114.754
-117.676
-119.54
-119.765
-117.73
-113.374
-106.759
-98.42
-89.872
-82.309
-76.517
-73.955
-74.866
-77.174
-79.277
-78.988
-74.975
-70.529
-67.309
-62.203
-48.823
-16.108
45.317
135.419
247.984
372.745
497.266
612.748
709.99
778.328
807.681
788.306
717.907
601.057
448.496
278.449
109.678
-39.276
-152.318
-222.095
-249.529
-241.412
-209.205
-165.428
-119.846
-82.343
-60.8
-56.519
-67.287
-85.337
-100.655
-109.116
-110.096
-106.481
-103.107
-100.966
-99.323
-97.217
-93.069
-86.978
-80.006
-72.813
-66.22
-60.862
-56.844
-54.21
-52.938
-52.809
-53.653
-55.371
-57.819
-60.841
-64.311
-68.073
-71.967
-75.875
-79.664
-83.21
-86.421
-89.198
-91.453
-93.122
-94.151
-94.512
-94.211
-93.252
-91.651
-89.433
-86.634
-83.307
-79.521
-75.342
-70.829
-66.033
-60.994
-55.761
-50.385
-44.905
-39.359
-33.771
-28.155
-22.531
-16.92
-11.334
-5.783
-0.27
5.214
10.675
16.123
21.573
27.029
32.497
37.979
43.472
48.976
54.493
60.02
65.564
71.131
76.725
82.358
88.033
93.734
99.437
105.097
110.66
116.085
121.338
126.388
131.215
135.788
140.074
144.046
147.67
150.908
153.723
156.058
157.87
159.144
159.88
160.106
159.868
159.196
158.115
156.651
154.821
152.649
150.162
147.375
144.312
141.002
137.483
133.812
130.038
126.19
122.284
118.32
114.283
110.173
105.992
101.741
97.428
93.065
88.663
84.246
79.838
75.455
71.107
66.797
62.526
58.307
54.154
50.092
46.147
42.342
38.697
35.232
31.964
28.905
26.062
23.436
21.025
18.829
16.848
15.082
13.533
12.2
11.076
10.156
9.432
8.895
8.536
8.343
8.304
8.407
8.643
9.001
9.473
10.049
10.717
11.468
12.291
13.174
14.108
15.08
16.079
17.096
18.121
19.144
20.159
21.156
22.129
23.073
23.981
24.849
25.673
26.449
27.174
27.847
28.467
29.032
29.543
30.001
30.407
30.763
31.071
31.335
31.557
31.74
31.889
32.007
32.099
32.168
32.22
32.26
32.292
32.321
32.352
32.39
32.44
32.505
32.591
32.7
32.837
33.006
33.207
33.445
33.721
34.037
34.392
34.788
35.225
35.7
36.212
36.761
37.343
37.957
38.599
39.265
39.953
40.659
41.378
42.106
42.838
43.568
44.292
45.005
45.7
46.372
47.018
47.63
48.205
48.737
49.223
49.656
50.033
50.35
50.603
50.79
50.907
50.955
50.93
50.835
50.671
50.439
50.142
49.783
49.364
48.889
48.361
47.785
47.163
46.499
45.799
45.069
44.318
43.552
42.78
42.011
41.255
40.521
39.819
39.156
38.539
37.973
37.468
37.031
36.674
36.405
36.228
36.144
36.154
36.259
36.453
36.727
37.061
37.438
37.845
38.276
38.731
39.208
39.701
40.206
40.719
41.244
41.79
42.36
42.951
43.565
44.208
44.901
45.678
46.564
47.568
48.684
49.896
51.191
52.553
53.957
55.366
56.723
57.976
59.088
60.033
60.779
61.292
61.519
61.404
60.92
60.061
58.839
57.277
55.392
53.216
50.804
48.231
45.596
42.987
40.466
38.089
35.914
34.002
32.415
31.188
30.289
29.673
29.277
29.049
28.967
28.964
28.933
28.763
28.327
27.528
26.342
24.664
22.302
19.236
15.526
11.403
7.409
3.962
1.307
-0.071
0.354
2.669
6.847
12.418
18.097
22.944
26.398
27.332
25.465
22.453
19.882
19.922
24.203
30.17
35.544
42.008
54.265
81.686
133.835
212.026
311.221
422.036
531.817
632.231
717.127
779.289
812.356
807.503
756.984
659.509
520.163
353.777
183.858
33.809
-77.777
-141.576
-163.227
-154.58
-126.504
-90.837
-53.11
-17.732
6.049
14.966
8.703
-9.012
-27.219
-39.975
-45.753
-45.629
-44.703
-44.82
-45.256
-45.276
-43.241
-38.981
-33.558
-27.669
-22.083
-17.386
-13.65
-10.879
-9.02
-7.873
-7.324
-7.343
-7.894
-8.927
-10.394
-12.223
-14.334
-16.674
-19.172
-21.739
-24.31
-26.835
-29.283
-31.645
-33.908
-36.049
-38.028
-39.786
-41.257
-42.375
-43.094
-43.393
-43.269
-42.73
-41.788
-40.462
-38.76
-36.693
-34.269
-31.49
-28.364
-24.905
-21.141
-17.123
-12.917
-8.596
-4.217
0.182
4.577
8.949
13.279
17.551
21.746
25.858
29.892
33.849
37.731
41.549
45.325
49.105
52.958
56.942
61.093
65.427
69.937
74.614
79.457
84.459
89.605
94.866
100.195
105.55
110.894
116.167
121.293
126.162
130.628
134.571
137.906
140.567
142.522
143.736
144.163
143.772
142.547
140.48
137.577
133.834
129.227
123.77
117.509
110.534
102.984
94.978
86.601
77.932
69.028
59.956
50.798
41.628
32.502
23.487
14.658
6.115
-2.01
-9.609
-16.617
-23.004
-28.784
-33.968
-38.547
-42.513
-45.869
-48.619
-50.787
-52.394
-53.448
-53.978
-54.039
-53.711
-53.112
-52.357
-51.527
-50.681
-49.856
-49.081
-48.393
-47.821
-47.379
-47.077
-46.922
-46.921
-47.092
-47.442
-47.96
-48.62
-49.373
-50.168
-50.966
-51.742
-52.48
-53.172
-53.817
-54.417
-54.983
-55.531
-56.076
-56.626
-57.184
-57.743
-58.288
-58.808
-59.3
-59.765
-60.206
-60.619
-60.992
-61.307
-61.541
-61.667
-61.665
-61.51
-61.171
-60.627
-59.873
-58.939
-57.904
-56.852
-55.86
-54.983
-54.25
-53.707
-53.418
-53.433
-53.822
-54.626
-55.836
-57.535
-59.851
-62.763
-66.185
-69.849
-73.22
-75.893
-77.553
-77.681
-75.935
-72.377
-67.129
-60.816
-54.611
-49.336
-45.848
-45.455
-48.003
-51.543
-54.37
-54.05
-49.61
-44.284
-39.519
-32.976
-20.517
6.569
56.341
128.247
218.513
321.176
425.118
522.705
605.927
660.413
674.298
637.508
544.787
404.256
234.427
60.436
-91.763
-201.708
-259.994
-270.191
-241.569
-188.503
-127.502
-69.727
-26.167
-4.184
-1.961
-14.949
-34.102
-49.347
-57.421
-58.552
-55.817
-53.563
-52.936
-53.387
-53.863
-53.025
-50.906
-48.305
-45.96
-44.687
-44.728
-45.888
-47.977
-50.707
-53.861
-57.324
-60.946
-64.583
-68.134
-71.526
-74.691
-77.587
-80.168
-82.379
-84.191
-85.597
-86.628
-87.36
-87.872
-88.23
-88.498
-88.731
-88.983
-89.319
-89.783
-90.389
-91.149
-92.073
-93.164
-94.441
-95.901
-97.525
-99.279
-101.097
-102.916
-104.682
-106.328
-107.776
-108.936
-109.697
-109.966
-109.7
-108.867
-107.442
-105.402
-102.716
-99.367
-95.354
-90.68
-85.345
-79.348
-72.686
-65.379
-57.482
-49.076
-40.268
-31.173
-21.877
-12.46
-3.002
6.422
15.735
24.87
33.77
42.373
50.585
58.295
65.392
71.769
77.349
82.072
85.893
88.798
90.775
91.814
91.92
91.088
89.309
86.569
82.85
78.135
72.446
65.835
58.366
50.132
41.229
31.762
21.844
11.568
1.013
-9.746
-20.636
-31.573
-42.458
-53.184
-63.633
-73.666
-83.162
-92.014
-100.137
-107.489
-114.048
-119.813
-124.806
-129.044
-132.536
-135.298
-137.349
-138.717
-139.446
-139.589
-139.216
-138.428
-137.334
-136.043
-134.65
-133.214
-131.777
-130.365
-128.989
-127.656
-126.371
-125.133
-123.938
-122.786
-121.668
-120.577
-119.491
-118.373
-117.174
-115.84
-114.33
-112.624
-110.709
-108.583
-106.253
-103.729
-101.029
-98.179
-95.199
-92.111
-88.93
-85.674
-82.363
-79.025
-75.689
-72.389
-69.151
-65.995
-62.936
-59.988
-57.16
-54.458
-51.885
-49.438
-47.116
-44.921
-42.854
-40.918
-39.115
-37.443
-35.9
-34.485
-33.196
-32.03
-30.986
-30.059
-29.248
-28.55
-27.962
-27.481
-27.106
-26.83
-26.649
-26.556
-26.547
-26.613
-26.75
-26.949
-27.202
-27.504
-27.847
-28.223
-28.627
-29.05
-29.486
-29.927
-30.368
-30.801
-31.22
-31.618
-31.99
-32.329
-32.63
-32.888
-33.099
-33.258
-33.363
-33.409
-33.395
-33.319
-33.18
-32.976
-32.708
-32.375
-31.978
-31.52
-31.001
-30.425
-29.794
-29.111
-28.381
-27.607
-26.794
-25.945
-25.067
-24.164
-23.242
-22.305
-21.361
-20.415
-19.474
-18.542
-17.627
-16.735
-15.871
-15.041
-14.25
-13.503
-12.807
-12.164
-11.58
-11.058
-10.602
-10.216
-9.901
-9.661
-9.497
-9.411
-9.403
-9.474
-9.625
-9.855
-10.165
-10.554
-11.021
-11.565
-12.185
-12.88
-13.647
-14.485
-15.39
-16.361
-17.395
-18.489
-19.639
-20.842
-22.096
-23.396
-24.739
-26.121
-27.54
-28.989
-30.467
-31.969
-33.491
-35.029
-36.581
-38.143
-39.71
-41.281
-42.852
-44.419
-45.979
-47.528
-49.063
-50.578
-52.07
-53.534
-54.964
-56.355
-57.703
-59.002
-60.247
-61.433
-62.554
-63.607
-64.588
-65.491
-66.313
-67.048
-67.692
-68.239
-68.685
-69.025
-69.256
-69.373
-69.371
-69.245
-68.994
-68.615
-68.102
-67.451
-66.654
-65.707
-64.612
-63.373
-61.995
-60.489
-58.864
-57.138
-55.334
-53.475
-51.579
-49.66
-47.729
-45.8
-43.889
-42.018
-40.209
-38.473
-36.812
-35.227
-33.715
-32.266
-30.864
-29.476
-28.056
-26.568
-24.993
-23.323
-21.56
-19.708
-17.764
-15.727
-13.607
-11.429
-9.228
-7.041
-4.902
-2.852
-0.945
0.739
2.11
3.096
3.652
3.754
3.396
2.575
1.288
-0.457
-2.63
-5.186
-8.074
-11.25
-14.679
-18.341
-22.216
-26.262
-30.433
-34.689
-38.988
-43.326
-47.74
-52.261
-56.922
-61.769
-66.805
-72.102
-77.842
-84.028
-90.504
-96.985
-102.941
-107.938
-111.794
-114.117
-114.322
-112.348
-108.487
-103.361
-98.294
-94.307
-91.848
-91.818
-95.33
-101.464
-107.715
-111.709
-110.097
-102.914
-93.965
-82.656
-65.471
-36.251
14.387
88.778
181.51
284.154
386.306
480.739
563.359
629.739
673.625
684.983
655.069
580.715
463.31
314.968
155.491
3.59
-119.847
-200.749
-238.648
-237.752
-209.83
-170.837
-131.097
-100.063
-83.698
-80.882
-88.238
-98.694
-105.564
-107.171
-104.574
-101.644
-101.011
-101.936
-102.922
-101.988
-98.309
-92.683
-86.018
-79.115
-72.669
-67.201
-63.011
-60.281
-59.01
-58.992
-60.076
-62.16
-65.077
-68.64
-72.675
-76.996
-81.448
-85.914
-90.235
-94.25
-97.851
-100.943
-103.474
-105.412
-106.713
-107.357
-107.347
-106.702
-105.455
-103.645
-101.311
-98.502
-95.291
-91.756
-87.984
-84.057
-80.029
-75.943
-71.831
-67.716
-63.622
-59.564
-55.543
-51.557
-47.603
-43.679
-39.787
-35.924
-32.078
-28.234
-24.373
-20.478
-16.538
-12.549
-8.508
-4.414
-0.269
3.922
8.15
12.405
16.678
20.962
25.251
29.54
33.82
38.082
42.317
46.517
50.671
54.772
58.81
62.778
66.668
70.472
74.186
77.802
81.316
84.719
88.006
91.169
94.203
97.1
99.854
102.46
104.912
107.207
109.34
111.309
113.112
114.747
116.213
117.511
118.641
119.604
120.402
121.037
121.513
121.833
122.001
122.023
121.903
121.647
121.263
120.757
120.135
119.406
118.576
117.653
116.646
115.563
114.411
113.199
111.936
110.629
109.286
107.917
106.527
105.126
103.719
102.313
100.915
99.531
98.166
96.825
95.513
94.235
92.994
91.794
90.638
89.528
88.468
87.459
86.503
85.601
84.754
83.964
83.23
82.553
81.934
81.371
80.866
80.416
80.023
79.686
79.403
79.173
78.997
78.872
78.798
78.774
78.798
78.87
78.988
79.152
79.358
79.608
79.898
80.227
80.595
80.999
81.439
81.912
82.416
82.95
83.513
84.101
84.712
85.345
85.995
86.66
87.337
88.023
88.712
89.402
90.087
90.765
91.429
92.074
92.696
93.289
93.847
94.364
94.834
95.251
95.609
95.903
96.125
96.271
96.334
96.308
96.188
95.969
95.644
95.209
94.659
93.988
93.194
92.271
91.218
90.031
88.709
87.251
85.656
83.924
82.057
80.055
77.921
75.658
73.269
70.759
68.132
65.395
62.555
59.618
56.591
53.485
50.307
47.067
43.774
40.437
37.067
33.675
30.271
26.867
23.475
20.105
16.771
13.486
10.261
7.108
4.039
1.063
-1.809
-4.569
-7.209
-9.722
-12.101
-14.34
-16.432
-18.37
-20.149
-21.762
-23.207
-24.477
-25.57
-26.485
-27.221
-27.782
-28.172
-28.391
-28.441
-28.322
-28.039
-27.598
-27.01
-26.284
-25.434
-24.479
-23.442
-22.355
-21.244
-20.129
-19.025
-17.94
-16.885
-15.87
-14.905
-13.997
-13.152
-12.37
-11.659
-11.029
-10.479
-10.001
-9.577
-9.171
-8.766
-8.358
-7.951
-7.558
-7.196
-6.884
-6.652
-6.548
-6.607
-6.863
-7.34
-8.049
-9.015
-10.267
-11.839
-13.768
-16.07
-18.734
-21.748
-25.089
-28.718
-32.587
-36.622
-40.722
-44.803
-48.795
-52.634
-56.269
-59.641
-62.695
-65.399
-67.76
-69.807
-71.587
-73.138
-74.476
-75.658
-76.777
-77.95
-79.313
-80.974
-82.974
-85.398
-88.433
-92.145
-96.449
-101.111
-105.615
-109.481
-112.444
-114.116
-113.933
-111.686
-107.522
-101.915
-96.01
-90.919
-87.251
-85.836
-87.759
-92.522
-98.066
-102.335
-102.172
-96.906
-89.377
-79.009
-62.817
-35.012
13.371
84.994
175.836
278.472
383.099
483.483
575.523
653.234
708.876
730.28
706.435
633.896
514.212
359.673
191.533
29.635
-104.452
-195.217
-242.232
-249.605
-227.269
-190.98
-149.767
-112.691
-90.052
-82.984
-90.463
-107.511
-123.076
-132.541
-135.368
-133.118
-131.028
-130.572
-130.574
-130.039
-127.203
-121.826
-114.961
-107.362
-99.862
-93.202
-87.6
-83.142
-79.837
-77.525
-76.12
-75.588
-75.841
-76.742
-78.148
-79.939
-82.001
-84.256
-86.606
-88.918
-91.082
-93.02
-94.688
-96.05
-97.067
-97.677
-97.798
-97.385
-96.417
-94.889
-92.821
-90.232
-87.145
-83.605
-79.67
-75.396
-70.832
-66.012
-60.952
-55.681
-50.234
-44.662
-39.032
-33.392
-27.775
-22.213
-16.728
-11.341
-6.07
-0.922
4.109
9.023
13.815
18.476
22.991
27.35
31.551
35.596
39.491
43.238
46.832
50.27
53.547
56.656
59.59
62.338
64.883
67.213
69.32
71.195
72.836
74.237
75.393
76.298
76.951
77.347
77.487
77.372
77.001
76.378
75.508
74.397
73.053
71.484
69.701
67.711
65.526
63.156
60.615
57.913
55.064
52.082
48.981
45.777
42.486
39.123
35.704
32.246
28.765
25.277
21.797
18.341
14.923
11.558
8.259
5.038
1.907
-1.122
-4.041
-6.84
-9.512
-12.05
-14.448
-16.703
-18.812
-20.772
-22.584
-24.248
-25.768
-27.147
-28.389
-29.502
-30.492
-31.368
-32.138
-32.811
-33.397
-33.905
-34.347
-34.731
-35.069
-35.371
-35.647
-35.911
-36.173
-36.444
-36.733
-37.046
-37.388
-37.763
-38.178
-38.638
-39.151
-39.719
-40.346
-41.039
-41.802
-42.634
-43.528
-44.46
-45.406
-46.344
-47.252
-48.111
-48.903
-49.603
-50.189
-50.636
-50.92
-51.024
-50.929
-50.606
-50.035
-49.212
-48.164
-46.965
-45.697
-44.437
-43.25
-42.181
-41.287
-40.651
-40.337
-40.41
-40.918
-41.856
-43.304
-45.426
-48.234
-51.657
-55.455
-59.09
-62.1
-64.187
-64.847
-63.574
-60.314
-55.072
-48.321
-41.449
-35.612
-31.708
-31.128
-33.922
-38.177
-42.592
-45.045
-44.304
-43.431
-43.168
-40.933
-31.893
-5.352
47.166
126.635
229.576
345.636
461.895
568.003
652.598
705.312
716.713
678.024
588.011
452.959
287.971
117.668
-34.272
-149.163
-216.209
-239.885
-231.069
-200.446
-161.136
-119.901
-81.617
-55.13
-42.938
-45.095
-58.21
-72.152
-81.661
-85.333
-84.165
-83.043
-83.559
-84.919
-86.33
-86.04
-83.8
-80.596
-77.033
-73.837
-71.6
-70.366
-70.102
-70.697
-71.857
-73.365
-75.076
-76.842
-78.521
-79.995
-81.155
-81.911
-82.225
-82.061
-81.401
-80.237
-78.58
-76.473
-73.981
-71.203
-68.233
-65.15
-62.032
-58.944
-55.943
-53.091
-50.451
-48.067
-45.976
-44.201
-42.731
-41.555
-40.656
-39.999
-39.541
-39.214
-38.949
-38.694
-38.4
-38.024
-37.521
-36.83
-35.891
-34.663
-33.108
-31.198
-28.929
-26.295
-23.287
-19.903
-16.15
-12.043
-7.598
-2.819
2.298
7.757
13.537
19.585
25.843
32.256
38.77
45.335
51.912
58.45
64.894
71.193
77.295
83.153
88.709
93.885
98.58
102.698
106.172
108.974
111.091
112.512
113.226
113.228
112.508
111.077
108.95
106.132
102.632
98.467
93.665
88.297
82.464
76.269
69.798
63.111
56.258
49.298
42.292
35.298
28.376
21.578
14.96
8.606
2.593
-3.009
-8.135
-12.765
-16.905
-20.56
-23.737
-26.434
-28.649
-30.395
-31.692
-32.554
-33.004
-33.069
-32.789
-32.236
-31.481
-30.582
-29.603
-28.578
-27.528
-26.478
-25.444
-24.436
-23.467
-22.537
-21.644
-20.794
-19.986
-19.21
-18.449
-17.665
-16.826
-15.908
-14.888
-13.754
-12.502
-11.123
-9.621
-8.007
-6.289
-4.482
-2.597
-0.643
1.37
3.424
5.502
7.58
9.636
11.656
13.626
15.535
17.376
19.141
20.829
22.441
23.98
25.446
26.84
28.163
29.414
30.596
31.712
32.764
33.755
34.686
35.559
36.376
37.136
37.842
38.493
39.089
39.63
40.117
40.552
40.937
41.274
41.565
41.813
42.021
42.191
42.326
42.428
42.499
42.541
42.557
42.549
42.518
42.466
42.396
42.308
42.204
42.086
41.955
41.812
41.658
41.494
41.322
41.143
40.957
40.766
40.571
40.371
40.168
39.961
39.751
39.538
39.32
39.098
38.871
38.637
38.395
38.144
37.882
37.608
37.319
37.014
36.692
36.349
35.984
35.595
35.18
34.737
34.265
33.76
33.222
32.649
32.039
31.391
30.705
29.978
29.21
28.401
27.549
26.656
25.72
24.742
23.722
22.661
21.56
20.419
19.241
18.027
16.779
15.499
14.189
12.852
11.49
10.107
8.704
7.285
5.854
4.412
2.964
1.513
0.063
-1.384
-2.823
-4.251
-5.665
-7.063
-8.44
-9.796
-11.126
-12.43
-13.704
-14.946
-16.155
-17.329
-18.465
-19.561
-20.618
-21.632
-22.603
-23.529
-24.41
-25.243
-26.028
-26.763
-27.448
-28.078
-28.654
-29.173
-29.633
-30.031
-30.367
-30.638
-30.844
-30.984
-31.057
-31.064
-31.003
-30.874
-30.676
-30.404
-30.058
-29.631
-29.123
-28.529
-27.849
-27.08
-26.221
-25.272
-24.234
-23.107
-21.892
-20.588
-19.19
-17.696
-16.112
-14.443
-12.7
-10.897
-9.048
-7.168
-5.277
-3.391
-1.521
0.325
2.149
3.954
5.734
7.481
9.176
10.803
12.356
13.83
15.222
16.537
17.781
18.958
20.088
21.179
22.221
23.199
24.077
24.809
25.367
25.727
25.874
25.799
25.483
24.908
24.058
22.912
21.451
19.657
17.509
14.997
12.139
8.968
5.539
1.928
-1.801
-5.592
-9.387
-13.137
-16.792
-20.299
-23.611
-26.685
-29.483
-31.988
-34.21
-36.172
-37.923
-39.518
-41.011
-42.489
-44.052
-45.787
-47.786
-50.116
-52.806
-55.944
-59.696
-64.107
-69.106
-74.486
-79.784
-84.563
-88.533
-91.235
-92.062
-90.727
-87.22
-81.866
-75.813
-70.219
-65.761
-63.561
-64.237
-66.772
-69.939
-72.053
-71.819
-70.947
-70.724
-69.246
-60.772
-35.114
15.833
93.536
192.732
302.784
414.248
521.746
620.829
705.565
767.109
792.829
772.328
703.402
589.255
440.593
274.953
109.631
-36.255
-145.179
-209.694
-230.078
-214.103
-177.239
-133.188
-92.838
-65.96
-54.328
-55.855
-66.002
-75.378
-79.725
-79.051
-74.721
-71.613
-71.185
-71.669
-71.822
-69.79
-65.14
-59.007
-52.185
-45.336
-39.154
-34.103
-30.464
-28.401
-27.839
-28.535
-30.309
-33.038
-36.559
-40.697
-45.296
-50.174
-55.181
-60.209
-65.133
-69.84
-74.234
-78.211
-81.668
-84.525
-86.734
-88.276
-89.161
-89.404
-89.021
-88.036
-86.493
-84.45
-81.973
-79.122
-75.944
-72.48
-68.772
-64.873
-60.843
-56.731
-52.566
-48.365
-44.133
-39.878
-35.609
-31.328
-27.025
-22.689
-18.309
-13.88
-9.406
-4.888
-0.325
4.288
8.959
13.691
18.477
23.31
28.177
33.066
37.967
42.86
47.723
52.535
57.276
61.927
66.473
70.894
75.172
79.287
83.218
86.947
90.456
93.728
96.746
99.493
101.953
104.115
105.967
107.498
108.696
109.554
110.063
110.215
110.006
109.433
108.492
107.184
105.509
103.472
101.076
98.33
95.24
91.817
88.071
84.015
79.663
75.03
70.132
64.986
59.611
54.027
48.253
42.309
36.219
30.002
23.682
17.28
10.818
4.32
-2.194
-8.703
-15.183
-21.617
-27.983
-34.263
-40.439
-46.493
-52.41
-58.175
-63.774
-69.194
-74.424
-79.455
-84.276
-88.879
-93.26
-97.41
-101.328
-105.008
-108.449
-111.651
-114.613
-117.336
-119.823
-122.078
-124.103
-125.906
-127.49
-128.864
-130.034
-131.008
-131.795
-132.404
-132.844
-133.125
-133.256
-133.249
-133.113
-132.859
-132.497
-132.038
-131.492
-130.87
-130.181
-129.438
-128.648
-127.824
-126.975
-126.11
-125.24
-124.374
-123.522
-122.691
-121.891
-121.13
-120.415
-119.754
-119.154
-118.621
-118.163
-117.783
-117.489
-117.284
-117.172
-117.159
-117.246
-117.438
-117.737
-118.144
-118.662
-119.293
-120.037
-120.895
-121.867
-122.954
-124.154
-125.466
-126.889
-128.421
-130.058
-131.799
-133.639
-135.574
-137.601
-139.714
-141.91
-144.181
-146.524
-148.931
-151.397
-153.915
-156.479
-159.082
-161.717
-164.378
-167.058
-169.749
-172.446
-175.142
-177.831
-180.505
-183.16
-185.787
-188.382
-190.938
-193.449
-195.91
-198.316
-200.66
-202.94
-205.15
-207.287
-209.347
-211.328
-213.227
-215.041
-216.77
-218.411
-219.964
-221.428
-222.803
-224.091
-225.292
-226.408
-227.44
-228.39
-229.26
-230.052
-230.768
-231.41
-231.979
-232.476
-232.904
-233.264
-233.557
-233.787
-233.954
-234.062
-234.114
-234.113
-234.063
-233.967
-233.826
-233.645
-233.423
-233.164
-232.868
-232.535
-232.166
-231.761
-231.322
-230.85
-230.347
-229.81
-229.241
-228.632
-227.979
-227.283
-226.54
-225.75
-224.918
-224.047
-223.149
-222.239
-221.328
-220.428
-219.547
-218.685
-217.841
-217.013
-216.192
-215.378
-214.567
-213.747
-212.902
-212.01
-211.037
-209.944
-208.679
-207.167
-205.335
-203.111
-200.429
-197.241
-193.505
-189.189
-184.278
-178.751
-172.59
-165.808
-158.424
-150.476
-142.028
-133.166
-124.014
-114.744
-105.545
-96.59
-88.033
-80.023
-72.709
-66.23
-60.703
-56.239
-52.889
-50.741
-49.957
-50.501
-52.212
-54.804
-57.695
-60.34
-62.382
-63.193
-62.034
-58.795
-53.549
-46.675
-39.518
-33.029
-27.613
-24.584
-24.478
-25.556
-26.253
-24.539
-18.511
-10.556
-2.713
7.579
25.534
60.083
119.921
205.87
312.94
432.911
554.948
670.813
772.791
851.37
897.628
901.359
855.646
761.335
624.825
461.022
292.007
138.037
16.585
-60.498
-95.197
-94.647
-66.815
-25.293
21.435
65.524
94.593
105.173
97.761
77.421
57.213
43.952
39.283
41.739
45.112
46.999
48.101
49.317
52.715
58.644
65.943
73.818
81.39
87.99
93.555
98.072
101.566
104.229
106.181
107.452
108.097
108.187
107.767
106.906
105.687
104.161
102.416
100.563
98.682
96.836
95.055
93.348
91.736
90.244
88.905
87.767
86.883
86.306
86.098
86.298
86.92
87.965
89.414
91.244
93.443
96
98.911
102.177
105.795
109.762
114.069
118.687
123.577
128.688
133.956
139.329
144.769
150.237
155.707
161.158
166.569
171.932
177.245
182.497
187.676
192.769
197.764
202.669
207.502
212.28
217.027
221.763
226.505
231.284
236.126
241.037
246.018
251.045
256.082
261.103
266.086
270.997
275.792
280.409
284.775
288.832
292.529
295.806
298.596
300.811
302.371
303.225
303.343
302.716
301.346
299.23
296.363
292.771
288.496
283.597
278.144
272.186
265.758
258.921
251.758
244.364
236.831
229.223
221.577
213.929
206.314
198.767
191.33
184.014
176.812
169.719
162.727
155.847
149.105
142.497
135.99
129.552
123.156
116.794
110.483
104.227
98.023
91.873
85.778
79.754
73.829
68.015
62.318
56.737
51.256
45.888
40.667
35.618
30.76
26.104
21.642
17.374
13.311
9.45
5.784
2.303
-1.003
-4.124
-7.03
-9.699
-12.101
-14.219
-16.057
-17.605
-18.853
-19.792
-20.4
-20.664
-20.579
-20.125
-19.282
-18.045
-16.428
-14.495
-12.342
-10.065
-7.751
-5.465
-3.272
-1.273
0.441
1.787
2.683
3.116
3.019
2.214
0.662
-1.546
-4.186
-6.748
-8.762
-9.982
-9.994
-8.28
-4.766
0.414
6.685
12.811
17.778
20.901
21.332
18.239
12.381
5.914
1.338
2.127
9.195
19.711
32.996
50.059
73.664
112.326
171.752
252.092
352.371
464.519
576.329
675.851
748.032
777.796
755.542
678.336
549.79
384.891
205.973
34.894
-105.87
-201.172
-248.261
-249.922
-214.648
-157.336
-91.908
-32.458
5.972
18.946
10.236
-11.306
-30.876
-41.02
-41.798
-36.324
-31.351
-29.419
-29.334
-29.73
-28.462
-25.151
-20.872
-16.348
-12.363
-9.501
-7.769
-7.088
-7.33
-8.195
-9.497
-11.157
-13.064
-15.086
-17.102
-18.978
-20.611
-21.95
-22.951
-23.58
-23.826
-23.691
-23.227
-22.494
-21.541
-20.407
-19.094
-17.585
-15.877
-13.978
-11.903
-9.683
-7.341
-4.9
-2.378
0.217
2.886
5.639
8.513
11.54
14.737
18.106
21.617
25.229
28.913
32.647
36.412
40.194
43.974
47.738
51.477
55.193
58.884
62.547
66.168
69.74
73.279
76.808
80.373
84.011
87.74
91.569
95.498
99.527
103.661
107.892
112.194
116.535
120.874
125.175
129.404
133.506
137.402
140.999
144.191
146.896
149.055
150.616
151.538
151.776
151.287
150.051
148.072
145.359
141.92
137.765
132.896
127.348
121.2
114.542
107.476
100.088
92.448
84.633
76.726
68.815
60.982
53.282
45.752
38.427
31.357
24.595
18.206
12.221
6.635
1.432
-3.41
-7.907
-12.072
-15.937
-19.552
-22.977
-26.255
-29.411
-32.454
-35.396
-38.264
-41.094
-43.927
-46.781
-49.658
-52.557
-55.477
-58.419
-61.377
-64.331
-67.242
-70.066
-72.775
-75.354
-77.798
-80.101
-82.252
-84.235
-86.04
-87.666
-89.114
-90.386
-91.484
-92.406
-93.158
-93.756
-94.222
-94.582
-94.854
-95.051
-95.182
-95.255
-95.279
-95.261
-95.207
-95.116
-94.99
-94.831
-94.646
-94.438
-94.211
-93.964
-93.697
-93.406
-93.092
-92.756
-92.396
-92.013
-91.608
-91.182
-90.738
-90.279
-89.808
-89.325
-88.832
-88.33
-87.819
-87.3
-86.773
-86.237
-85.693
-85.142
-84.584
-84.019
-83.449
-82.873
-82.293
-81.708
-81.121
-80.53
-79.937
-79.341
-78.744
-78.146
-77.548
-76.95
-76.354
-75.761
-75.171
-74.587
-74.008
-73.437
-72.875
-72.323
-71.783
-71.256
-70.744
-70.249
-69.772
-69.315
-68.881
-68.471
-68.087
-67.732
-67.407
-67.113
-66.852
-66.626
-66.437
-66.285
-66.172
-66.098
-66.066
-66.076
-66.129
-66.226
-66.367
-66.553
-66.782
-67.056
-67.374
-67.734
-68.135
-68.575
-69.054
-69.568
-70.116
-70.696
-71.303
-71.936
-72.592
-73.267
-73.958
-74.661
-75.374
-76.093
-76.813
-77.533
-78.248
-78.955
-79.651
-80.332
-80.996
-81.638
-82.257
-82.85
-83.412
-83.943
-84.44
-84.901
-85.323
-85.707
-86.05
-86.353
-86.616
-86.838
-87.02
-87.163
-87.268
-87.336
-87.37
-87.369
-87.338
-87.276
-87.186
-87.071
-86.931
-86.77
-86.587
-86.386
-86.168
-85.934
-85.686
-85.424
-85.149
-84.862
-84.563
-84.253
-83.932
-83.599
-83.255
-82.899
-82.528
-82.143
-81.741
-81.319
-80.874
-80.404
-79.905
-79.373
-78.804
-78.194
-77.539
-76.834
-76.076
-75.262
-74.386
-73.447
-72.44
-71.364
-70.216
-68.996
-67.701
-66.333
-64.892
-63.378
-61.796
-60.147
-58.435
-56.666
-54.843
-52.974
-51.065
-49.125
-47.162
-45.184
-43.2
-41.221
-39.256
-37.317
-35.414
-33.558
-31.761
-30.036
-28.396
-26.852
-25.415
-24.092
-22.89
-21.817
-20.879
-20.084
-19.44
-18.95
-18.619
-18.455
-18.46
-18.635
-18.973
-19.453
-20.055
-20.76
-21.545
-22.395
-23.288
-24.199
-25.104
-25.974
-26.782
-27.5
-28.1
-28.546
-28.811
-28.88
-28.759
-28.497
-28.152
-27.782
-27.445
-27.171
-27.009
-27.035
-27.335
-27.989
-29.069
-30.597
-32.632
-35.337
-38.774
-42.858
-47.336
-51.697
-55.468
-58.387
-60.096
-60.08
-58.096
-54.226
-49.032
-43.738
-39.348
-36.432
-35.752
-38.095
-43.707
-51.318
-58.025
-60.44
-56.129
-45.869
-31.779
-13.006
13.605
53.943
114.196
194.032
288.491
390.446
491.379
584.352
662.355
717.134
738.512
717.658
652.157
543.434
401.114
243.632
88.878
-42.629
-133.852
-182.606
-192.617
-173.793
-141.999
-105.88
-72.896
-51.704
-43.567
-48.794
-63.92
-78.989
-89.314
-93.359
-91.969
-90.389
-90.181
-90.472
-90.543
-88.436
-83.848
-77.891
-71.256
-64.794
-59.302
-55.007
-52.052
-50.545
-50.316
-51.214
-53.151
-55.989
-59.575
-63.785
-68.488
-73.535
-78.807
-84.167
-89.464
-94.572
-99.374
-103.765
-107.639
-110.905
-113.503
-115.4
-116.596
-117.099
-116.915
-116.064
-114.584
-112.529
-109.962
-106.947
-103.535
-99.776
-95.719
-91.42
-86.943
-82.341
-77.649
-72.889
-68.072
-63.21
-58.314
-53.392
-48.437
-43.442
-38.398
-33.303
-28.16
-22.971
-17.735
-12.445
-7.095
-1.681
3.79
9.31
14.87
20.456
26.058
31.658
37.238
42.775
48.253
53.655
58.966
64.173
69.257
74.2
78.986
83.598
88.023
92.245
96.25
100.025
103.558
106.839
109.859
112.609
115.082
117.269
119.164
120.761
122.057
123.049
123.734
124.111
124.183
123.95
123.418
122.589
121.471
120.071
118.395
116.453
114.255
111.813
109.136
106.238
103.132
99.832
96.352
92.707
88.911
84.982
80.933
76.781
72.543
68.233
63.868
59.464
55.035
50.598
46.167
41.755
37.378
33.047
28.775
24.575
20.456
16.43
12.506
8.693
5
1.432
-2.001
-5.296
-8.446
-11.447
-14.294
-16.986
-19.518
-21.889
-24.098
-26.144
-28.027
-29.746
-31.303
-32.698
-33.935
-35.014
-35.939
-36.713
-37.339
-37.822
-38.164
-38.372
-38.448
-38.399
-38.228
-37.942
-37.545
-37.043
-36.441
-35.745
-34.961
-34.095
-33.153
-32.141
-31.066
-29.933
-28.748
-27.518
-26.249
-24.946
-23.617
-22.267
-20.903
-19.531
-18.156
-16.785
-15.423
-14.077
-12.752
-11.453
-10.185
-8.954
-7.764
-6.621
-5.529
-4.494
-3.519
-2.609
-1.769
-1.004
-0.316
0.29
0.812
1.246
1.59
1.841
1.997
2.057
2.018
1.878
1.636
1.292
0.844
0.293
-0.361
-1.119
-1.978
-2.938
-3.997
-5.153
-6.404
-7.749
-9.185
-10.707
-12.313
-13.999
-15.758
-17.586
-19.477
-21.422
-23.414
-25.445
-27.509
-29.597
-31.701
-33.814
-35.928
-38.037
-40.132
-42.206
-44.248
-46.249
-48.198
-50.086
-51.901
-53.633
-55.271
-56.805
-58.225
-59.525
-60.698
-61.737
-62.63
-63.369
-63.943
-64.352
-64.593
-64.667
-64.575
-64.322
-63.919
-63.388
-62.746
-62.007
-61.179
-60.264
-59.266
-58.191
-57.048
-55.841
-54.57
-53.228
-51.815
-50.336
-48.793
-47.183
-45.49
-43.686
-41.751
-39.68
-37.483
-35.179
-32.784
-30.318
-27.813
-25.309
-22.867
-20.542
-18.374
-16.397
-14.642
-13.144
-11.95
-11.106
-10.64
-10.559
-10.858
-11.521
-12.534
-13.866
-15.469
-17.273
-19.185
-21.124
-23.031
-24.848
-26.53
-28.035
-29.333
-30.435
-31.377
-32.209
-32.979
-33.718
-34.463
-35.296
-36.316
-37.635
-39.382
-41.614
-44.416
-47.97
-52.318
-57.356
-62.83
-68.209
-73.003
-76.958
-79.654
-80.522
-79.422
-76.491
-72.319
-68.21
-65.01
-63.078
-63.257
-66.387
-72.428
-80.034
-86.225
-87.313
-81.175
-68.812
-51.761
-29.099
1.657
45.706
107.982
187.274
279.299
377.943
474.98
563.496
636.406
684.885
698.964
670.746
598.272
483.619
337.489
178.592
24.15
-105.806
-194.814
-241.017
-247.303
-222.934
-184.801
-142.765
-105.389
-82.624
-75.147
-82.159
-99.646
-116.689
-128.187
-132.666
-130.94
-128.449
-127.134
-126.305
-125.274
-122.11
-116.459
-109.415
-101.722
-94.248
-87.734
-82.35
-78.191
-75.304
-73.542
-72.778
-72.929
-73.879
-75.475
-77.589
-80.097
-82.849
-85.736
-88.634
-91.391
-93.88
-95.995
-97.631
-98.72
-99.214
-99.06
-98.236
-96.744
-94.589
-91.795
-88.401
-84.445
-79.987
-75.095
-69.833
-64.273
-58.481
-52.516
-46.447
-40.328
-34.2
-28.106
-22.073
-16.119
-10.267
-4.531
1.084
6.57
11.924
17.147
22.236
27.189
32.006
36.688
41.239
45.659
49.941
54.076
58.054
61.859
65.48
68.902
72.107
75.08
77.804
80.263
82.445
84.343
85.949
87.26
88.273
88.989
89.413
89.558
89.434
89.052
88.419
87.541
86.425
85.078
83.508
81.725
79.733
77.528
75.102
72.446
69.544
66.384
62.944
59.195
55.119
50.706
45.957
40.884
35.501
29.833
23.902
17.737
11.373
4.857
-1.759
-8.406
-15.012
-21.504
-27.794
-33.788
-39.402
-44.56
-49.212
-53.319
-56.851
-59.796
-62.145
-63.893
-65.046
-65.614
-65.614
-65.093
-64.107
-62.713
-60.996
-59.045
-56.952
-54.813
-52.701
-50.667
-48.761
-47.012
-45.445
-44.093
-42.98
-42.134
-41.587
-41.34
-41.388
-41.723
-42.31
-43.101
-44.045
-45.066
-46.111
-47.15
-48.157
-49.118
-50.028
-50.868
-51.622
-52.269
-52.766
-53.078
-53.177
-53.029
-52.622
-51.957
-51.042
-49.901
-48.552
-46.987
-45.196
-43.167
-40.872
-38.298
-35.437
-32.3
-28.946
-25.458
-21.92
-18.416
-15.004
-11.738
-8.692
-5.92
-3.474
-1.419
0.229
1.387
1.888
1.701
0.872
-0.433
-1.774
-2.737
-3.065
-2.302
0.063
4.081
9.72
16.575
23.416
29.243
33.384
34.674
32.798
29.106
24.802
21.892
22.013
23.942
26.968
32.244
43.338
66.106
106.596
168.476
250.815
351
463.069
575.794
676.2
748.942
778.294
755.471
679.741
555.447
396.666
224.583
59.478
-75.833
-165.259
-208.618
-211.012
-184.171
-144.193
-98.363
-54.04
-20.395
1.086
8.934
5.479
0.256
-3.177
-4.698
-5.353
-10.052
-19.683
-31.906
-44.955
-56.321
-64.64
-69.768
-71.724
-71.075
-68.904
-66.386
-64.2
-62.571
-61.62
-61.493
-62.309
-64.09
-66.525
-69.016
-71.179
-72.845
-73.934
-74.461
-74.416
-73.777
-72.632
-71.164
-69.512
-67.767
-65.98
-64.156
-62.331
-60.573
-58.947
-57.523
-56.366
-55.544
-55.118
-55.129
-55.579
-56.425
-57.588
-58.974
-60.513
-62.147
-63.83
-65.522
-67.167
-68.712
-70.092
-71.237
-72.056
-72.434
-72.257
-71.432
-69.9
-67.641
-64.665
-60.984
-56.594
-51.488
-45.651
-39.056
-31.697
-23.572
-14.69
-5.095
5.131
15.872
26.983
38.328
49.793
61.282
72.712
84.005
95.06
105.781
116.061
125.769
134.781
142.975
150.228
156.461
161.635
165.741
168.811
170.882
171.977
172.119
171.33
169.631
167.066
163.678
159.517
154.67
149.237
143.334
137.094
130.627
124.017
117.336
110.632
103.951
97.355
90.906
84.669
78.713
73.089
67.855
63.072
58.771
54.962
51.635
48.756
46.299
44.247
42.581
41.292
40.359
39.749
39.425
39.339
39.446
39.706
40.073
40.493
40.93
41.357
41.763
42.157
42.54
42.914
43.28
43.641
44.008
44.396
44.825
45.322
45.907
46.596
47.404
48.349
49.441
50.685
52.077
53.601
55.245
56.997
58.844
60.772
62.763
64.796
66.848
68.897
70.921
72.903
74.827
76.681
78.451
80.13
81.711
83.193
84.575
85.852
87.023
88.085
89.037
89.879
90.613
91.238
91.756
92.168
92.473
92.672
92.765
92.751
92.629
92.4
92.061
91.615
91.061
90.402
89.64
88.776
87.812
86.752
85.597
84.35
83.013
81.59
80.082
78.493
76.827
75.086
73.275
71.397
69.457
67.459
65.408
63.308
61.164
58.981
56.766
54.523
52.258
49.978
47.688
45.396
43.106
40.826
38.561
36.318
34.103
31.921
29.777
27.679
25.63
23.636
21.702
19.832
18.03
16.3
14.645
13.069
11.573
10.159
8.83
7.584
6.422
5.344
4.348
3.432
2.595
1.832
1.14
0.516
-0.046
-0.55
-1.002
-1.408
-1.774
-2.107
-2.411
-2.695
-2.965
-3.228
-3.49
-3.758
-4.04
-4.341
-4.669
-5.029
-5.428
-5.872
-6.366
-6.915
-7.523
-8.194
-8.932
-9.74
-10.618
-11.568
-12.591
-13.687
-14.854
-16.091
-17.395
-18.764
-20.193
-21.678
-23.215
-24.799
-26.422
-28.081
-29.767
-31.475
-33.198
-34.928
-36.658
-38.379
-40.085
-41.766
-43.414
-45.02
-46.574
-48.068
-49.492
-50.839
-52.101
-53.269
-54.336
-55.297
-56.147
-56.88
-57.492
-57.979
-58.337
-58.563
-58.655
-58.611
-58.428
-58.105
-57.642
-57.039
-56.299
-55.421
-54.408
-53.261
-51.979
-50.567
-49.031
-47.382
-45.631
-43.795
-41.889
-39.938
-37.968
-36.005
-34.073
-32.192
-30.38
-28.657
-27.042
-25.553
-24.208
-23.02
-21.99
-21.117
-20.396
-19.81
-19.346
-18.978
-18.67
-18.398
-18.144
-17.894
-17.647
-17.401
-17.156
-16.921
-16.708
-16.539
-16.449
-16.478
-16.664
-17.061
-17.71
-18.655
-19.955
-21.646
-23.75
-26.281
-29.228
-32.575
-36.305
-40.382
-44.76
-49.388
-54.195
-59.115
-64.085
-69.047
-73.978
-78.861
-83.674
-88.408
-93.042
-97.575
-102.061
-106.554
-111.105
-115.768
-120.556
-125.532
-130.873
-136.629
-142.701
-148.86
-154.628
-159.548
-163.38
-165.735
-166.037
-164.057
-159.935
-154.161
-147.874
-142.223
-137.882
-135.669
-136.711
-140.542
-145.027
-148.185
-147.03
-141.029
-133.174
-122.811
-106.539
-77.955
-27.655
47.022
141.751
248.412
356.522
460.101
555.796
638.382
700.824
730.877
716.747
654.448
546.033
403.464
246.016
91.932
-40.607
-137.97
-195.887
-215.501
-203.066
-170.168
-128.01
-87.511
-60.092
-50.06
-56.136
-72.593
-88.256
-97.175
-98.933
-95.734
-93.438
-94.258
-96.747
-99.493
-100.432
-99.046
-96.41
-93.3
-90.339
-88.102
-86.91
-86.917
-88.184
-90.567
-93.803
-97.714
-102.178
-107.037
-112.124
-117.282
-122.344
-127.186
-131.715
-135.818
-139.403
-142.41
-144.795
-146.551
-147.689
-148.226
-148.194
-147.63
-146.574
-145.062
-143.133
-140.825
-138.186
-135.265
-132.111
-128.769
-125.274
-121.647
-117.902
-114.047
-110.081
-106
-101.796
-97.461
-92.99
-88.381
-83.636
-78.758
-73.748
-68.609
-63.342
-57.953
-52.448
-46.836
-41.129
-35.339
-29.481
-23.572
-17.629
-11.672
-5.72
0.212
6.104
11.939
17.699
23.365
28.92
34.345
39.621
44.728
49.648
54.362
58.85
63.095
67.081
70.789
74.205
77.315
80.104
82.56
84.674
86.434
87.833
88.863
89.521
89.801
89.703
89.226
88.372
87.146
85.551
83.595
81.288
78.639
75.66
72.364
68.767
64.884
60.732
56.33
51.697
46.853
41.82
36.62
31.275
25.807
20.24
14.596
8.898
3.169
-2.57
-8.296
-13.99
-19.63
-25.197
-30.673
-36.039
-41.28
-46.38
-51.325
-56.103
-60.701
-65.111
-69.322
-73.329
-77.124
-80.702
-84.061
-87.197
-90.11
-92.799
-95.265
-97.51
-99.537
-101.349
-102.951
-104.346
-105.542
-106.544
-107.358
-107.99
-108.449
-108.74
-108.87
-108.847
-108.679
-108.37
-107.93
-107.364
-106.678
-105.879
-104.974
-103.966
-102.862
-101.667
-100.384
-99.019
-97.575
-96.055
-94.463
-92.801
-91.071
-89.277
-87.42
-85.503
-83.528
-81.496
-79.409
-77.271
-75.082
-72.845
-70.564
-68.239
-65.875
-63.474
-61.04
-58.578
-56.09
-53.582
-51.058
-48.523
-45.982
-43.441
-40.905
-38.379
-35.87
-33.384
-30.926
-28.503
-26.123
-23.79
-21.514
-19.299
-17.154
-15.085
-13.098
-11.2
-9.396
-7.691
-6.091
-4.601
-3.225
-1.967
-0.83
0.182
1.068
1.825
2.453
2.951
3.321
3.562
3.677
3.667
3.536
3.286
2.921
2.443
1.858
1.171
0.386
-0.489
-1.448
-2.484
-3.588
-4.751
-5.964
-7.218
-8.506
-9.817
-11.143
-12.476
-13.807
-15.13
-16.436
-17.717
-18.962
-20.164
-21.312
-22.398
-23.414
-24.35
-25.197
-25.95
-26.602
-27.152
-27.594
-27.924
-28.137
-28.224
-28.182
-28.012
-27.716
-27.296
-26.759
-26.115
-25.382
-24.583
-23.737
-22.858
-21.954
-21.026
-20.078
-19.116
-18.142
-17.16
-16.17
-15.171
-14.163
-13.155
-12.145
-11.125
-10.076
-8.959
-7.751
-6.449
-5.054
-3.582
-2.056
-0.497
1.059
2.566
3.981
5.265
6.393
7.359
8.155
8.767
9.168
9.316
9.187
8.781
8.109
7.195
6.079
4.803
3.432
2.052
0.741
-0.442
-1.454
-2.301
-3.018
-3.642
-4.215
-4.763
-5.302
-5.88
-6.574
-7.464
-8.639
-10.18
-12.141
-14.628
-17.84
-21.858
-26.6
-31.842
-37.113
-41.928
-45.978
-48.865
-49.978
-49.004
-46.043
-41.484
-36.337
-31.761
-28.47
-27.249
-29.304
-34.433
-40.561
-45.646
-46.77
-42.698
-36.253
-28.259
-15.898
5.864
45.842
110.724
198.925
305.118
421.225
536.696
643.926
734.099
796.15
819.311
793.343
714.611
585.556
417.77
232.973
53.696
-95.727
-197.709
-250.979
-261.75
-243.435
-212.343
-176.219
-140.645
-111.996
-93.289
-87.749
-95.482
-109.444
-122.205
-129.574
-130.058
-126.634
-123.387
-120.999
-118.929
-116.196
-111.389
-104.756
-97.329
-89.711
-82.637
-76.686
-71.961
-68.517
-66.347
-65.23
-65.005
-65.594
-66.87
-68.712
-71.008
-73.611
-76.384
-79.221
-82.016
-84.698
-87.206
-89.487
-91.491
-93.164
-94.474
-95.424
-96.01
-96.225
-96.058
-95.483
-94.518
-93.226
-91.669
-89.908
-87.982
-85.893
-83.649
-81.269
-78.759
-76.129
-73.366
-70.433
-67.321
-64.04
-60.603
-57.036
-53.326
-49.424
-45.297
-40.926
-36.3
-31.434
-26.325
-20.958
-15.34
-9.485
-3.418
2.817
9.21
15.761
22.455
29.279
36.189
43.12
50.026
56.867
63.595
70.171
76.54
82.631
88.395
93.775
98.706
103.139
107.001
110.226
112.78
114.633
115.78
116.23
115.985
115.05
113.448
111.199
108.326
104.869
100.86
96.356
91.439
86.186
80.679
74.986
69.155
63.218
57.201
51.113
44.956
38.738
32.461
26.143
19.818
13.516
7.275
1.11
-4.992
-11.036
-17.025
-22.957
-28.814
-34.57
-40.191
-45.628
-50.819
-55.71
-60.26
-64.451
-68.29
-71.794
-74.992
-77.905
-80.536
-82.893
-84.982
-86.813
-88.395
-89.749
-90.894
-91.868
-92.725
-93.509
-94.256
-94.987
-95.703
-96.397
-97.049
-97.643
-98.17
-98.623
-99.002
-99.312
-99.559
-99.753
-99.905
-100.016
-100.078
-100.084
-100.028
-99.911
-99.742
-99.536
-99.316
-99.098
-98.9
-98.739
-98.624
-98.557
-98.531
-98.521
-98.499
-98.441
-98.326
-98.136
-97.857
-97.465
-96.936
-96.246
-95.365
-94.273
-92.949
-91.367
-89.509
-87.372
-84.987
-82.43
-79.79
-77.149
-74.569
-72.095
-69.784
-67.719
-65.974
-64.619
-63.71
-63.245
-63.302
-64.042
-65.471
-67.505
-69.883
-72.053
-73.552
-74.106
-73.242
-70.462
-65.739
-59.117
-51.093
-43.072
-36.153
-31.103
-29.209
-30.624
-33.539
-36.589
-37.739
-35.43
-32.106
-28.807
-22.702
-8.934
21.291
75.809
154.11
250.779
357.97
465.138
565.269
651.401
712.259
736.082
710.637
630.15
499.493
333.551
158.003
-1.543
-124.581
-198.286
-226.029
-218.476
-186.803
-144.291
-97.866
-52.005
-15.591
5.57
9.006
-3.684
-23.021
-39.186
-47.323
-46.808
-41.509
-36.067
-32.019
-29.031
-25.906
-21.382
-15.648
-9.515
-3.667
1.231
5.038
7.92
10.028
11.59
12.793
13.756
14.603
15.439
16.325
17.31
18.43
19.701
21.159
22.813
24.64
26.615
28.689
30.811
32.937
35.021
37.025
38.919
40.686
42.323
43.843
45.265
46.615
47.917
49.185
50.451
51.764
53.168
54.71
56.436
58.374
60.55
62.989
65.699
68.676
71.905
75.351
78.971
82.716
86.545
90.422
94.319
98.199
102.033
105.796
109.47
113.051
116.541
119.945
123.276
126.56
129.826
133.117
136.485
139.972
143.611
147.426
151.426
155.619
160.003
164.557
169.257
174.064
178.92
183.766
188.533
193.129
197.469
201.465
205.016
208.046
210.491
212.29
213.407
213.811
213.484
212.43
210.664
208.212
205.122
201.45
197.267
192.672
187.754
182.596
177.294
171.919
166.538
161.214
155.995
150.916
146.013
141.302
136.795
132.503
128.419
124.531
120.816
117.233
113.751
110.346
106.993
103.677
100.39
97.12
93.87
90.646
87.453
84.302
81.202
78.159
75.184
72.294
69.503
66.834
64.303
61.92
59.689
57.616
55.699
53.937
52.323
50.845
49.492
48.257
47.13
46.102
45.165
44.308
43.521
42.791
42.11
41.467
40.855
40.266
39.692
39.128
38.568
38.009
37.446
36.876
36.294
35.696
35.079
34.44
33.776
33.086
32.367
31.619
30.842
30.037
29.205
28.347
27.465
26.56
25.636
24.693
23.735
22.764
21.782
20.792
19.797
18.8
17.803
16.808
15.818
14.835
13.861
12.897
11.946
11.008
10.084
9.177
8.286
7.413
6.557
5.718
4.897
4.092
3.304
2.53
1.77
1.022
0.283
-0.448
-1.174
-1.897
-2.62
-3.346
-4.076
-4.815
-5.564
-6.326
-7.105
-7.902
-8.721
-9.563
-10.431
-11.327
-12.253
-13.21
-14.2
-15.224
-16.283
-17.378
-18.509
-19.677
-20.88
-22.12
-23.396
-24.705
-26.048
-27.423
-28.828
-30.261
-31.719
-33.202
-34.704
-36.225
-37.761
-39.309
-40.866
-42.428
-43.993
-45.556
-47.115
-48.666
-50.205
-51.73
-53.237
-54.724
-56.186
-57.622
-59.028
-60.403
-61.744
-63.048
-64.314
-65.541
-66.726
-67.868
-68.967
-70.021
-71.031
-71.996
-72.916
-73.792
-74.623
-75.411
-76.157
-76.86
-77.522
-78.144
-78.728
-79.273
-79.782
-80.255
-80.694
-81.099
-81.471
-81.812
-82.122
-82.401
-82.651
-82.871
-83.061
-83.222
-83.354
-83.455
-83.526
-83.567
-83.576
-83.553
-83.495
-83.403
-83.274
-83.105
-82.896
-82.643
-82.343
-81.996
-81.597
-81.146
-80.638
-80.074
-79.45
-78.764
-78.017
-77.206
-76.331
-75.392
-74.39
-73.325
-72.199
-71.014
-69.773
-68.479
-67.137
-65.752
-64.328
-62.873
-61.392
-59.894
-58.387
-56.878
-55.375
-53.888
-52.424
-50.994
-49.605
-48.267
-46.989
-45.781
-44.654
-43.618
-42.682
-41.853
-41.136
-40.536
-40.054
-39.696
-39.466
-39.369
-39.409
-39.588
-39.91
-40.376
-40.984
-41.724
-42.572
-43.504
-44.495
-45.523
-46.566
-47.604
-48.61
-49.558
-50.418
-51.156
-51.743
-52.147
-52.331
-52.271
-51.949
-51.379
-50.614
-49.718
-48.759
-47.795
-46.864
-46.015
-45.333
-44.906
-44.816
-45.158
-45.963
-47.299
-49.341
-52.116
-55.508
-59.257
-62.83
-65.753
-67.791
-68.582
-67.61
-64.783
-60.287
-54.716
-49.355
-45.054
-42.154
-41.334
-43.238
-47.824
-53.734
-58.011
-57.225
-48.628
-32.607
-11.637
14.717
47.018
88.263
145.438
218.846
306.512
405.508
505.39
597.568
674.09
724.027
738.695
710.973
637.936
521.809
373.588
212.893
59.041
-66.646
-148.816
-187.519
-187.63
-159.893
-120.375
-77.529
-39.036
-14.175
-4.102
-8.654
-23.985
-39.455
-49.9
-53.76
-51.977
-49.89
-49.388
-49.799
-50.383
-49.241
-46.047
-41.844
-37.296
-33.189
-30.171
-28.314
-27.632
-28.086
-29.425
-31.455
-34.046
-37.042
-40.279
-43.625
-46.938
-50.088
-52.99
-55.542
-57.653
-59.263
-60.326
-60.83
-60.785
-60.212
-59.139
-57.603
-55.641
-53.291
-50.59
-47.573
-44.287
-40.779
-37.099
-33.295
-29.403
-25.447
-21.446
-17.407
-13.33
-9.213
-5.046
-0.819
3.475
7.836
12.265
16.759
21.316
25.935
30.613
35.346
40.128
44.95
49.805
54.681
59.565
64.443
69.301
74.12
78.884
83.576
88.179
92.675
97.047
101.276
105.345
109.235
112.93
116.413
119.67
122.683
125.436
127.911
130.09
131.956
133.498
134.705
135.569
136.089
136.264
136.105
135.624
134.826
133.715
132.292
130.552
128.491
126.11
123.403
120.378
117.04
113.391
109.444
105.206
100.677
95.855
90.723
85.261
79.466
73.348
66.925
60.234
53.316
46.216
38.998
31.714
24.409
17.132
9.916
2.795
-4.183
-10.966
-17.491
-23.686
-29.499
-34.897
-39.851
-44.361
-48.434
-52.091
-55.382
-58.345
-61.01
-63.405
-65.545
-67.442
-69.123
-70.619
-71.963
-73.206
-74.381
-75.516
-76.637
-77.751
-78.858
-79.947
-80.985
-81.945
-82.813
-83.58
-84.245
-84.815
-85.286
-85.66
-85.938
-86.115
-86.189
-86.158
-86.019
-85.777
-85.442
-85.029
-84.561
-84.061
-83.544
-83.02
-82.498
-81.982
-81.475
-80.979
-80.491
-80.012
-79.542
-79.082
-78.636
-78.205
-77.789
-77.384
-76.989
-76.599
-76.212
-75.827
-75.441
-75.055
-74.67
-74.286
-73.908
-73.537
-73.177
-72.828
-72.493
-72.173
-71.868
-71.581
-71.311
-71.06
-70.83
-70.623
-70.441
-70.286
-70.16
-70.066
-70.005
-69.979
-69.989
-70.038
-70.124
-70.251
-70.418
-70.626
-70.875
-71.166
-71.498
-71.871
-72.284
-72.733
-73.217
-73.732
-74.274
-74.838
-75.418
-76.011
-76.61
-77.212
-77.81
-78.401
-78.98
-79.542
-80.082
-80.595
-81.074
-81.513
-81.904
-82.239
-82.512
-82.717
-82.847
-82.899
-82.867
-82.749
-82.541
-82.243
-81.85
-81.36
-80.766
-80.064
-79.257
-78.348
-77.348
-76.27
-75.127
-73.934
-72.711
-71.472
-70.228
-68.989
-67.75
-66.507
-65.265
-64.031
-62.822
-61.655
-60.534
-59.462
-58.443
-57.47
-56.537
-55.638
-54.748
-53.854
-52.958
-52.073
-51.236
-50.494
-49.879
-49.412
-49.108
-48.98
-49.044
-49.317
-49.804
-50.505
-51.42
-52.556
-53.937
-55.579
-57.469
-59.577
-61.839
-64.176
-66.525
-68.833
-71.047
-73.119
-75.006
-76.675
-78.13
-79.415
-80.572
-81.644
-82.653
-83.602
-84.531
-85.517
-86.665
-88.088
-89.876
-92.067
-94.72
-97.98
-101.907
-106.421
-111.277
-115.996
-120.11
-123.347
-125.407
-125.823
-124.329
-120.971
-116.172
-110.952
-106.222
-102.506
-100.396
-100.593
-103.566
-108.251
-111.933
-111.611
-104.291
-90.4
-73.492
-53.611
-29.545
3.179
54.198
125.939
216.691
322.421
431.062
532.992
619.143
678.122
701.559
681.633
615.139
504.731
360.118
199.22
41.203
-93.68
-189.145
-240.24
-248.57
-221.797
-174.689
-120.631
-71.808
-40.72
-30.345
-37.476
-55.407
-72.04
-81.44
-83.426
-79.917
-76.435
-74.983
-74.535
-74.175
-72.06
-67.854
-62.605
-57.021
-51.92
-47.99
-45.327
-43.919
-43.697
-44.396
-45.821
-47.857
-50.356
-53.154
-56.118
-59.11
-62.001
-64.699
-67.101
-69.109
-70.658
-71.699
-72.218
-72.221
-71.729
-70.772
-69.388
-67.611
-65.474
-63.009
-60.246
-57.226
-53.993
-50.593
-47.07
-43.459
-39.779
-36.046
-32.267
-28.44
-24.556
-20.599
-16.548
-12.389
-8.117
-3.731
0.764
5.363
10.06
14.847
19.713
24.645
29.637
34.683
39.79
44.957
50.18
55.446
60.735
66.027
71.313
76.585
81.836
87.067
92.275
97.46
102.636
107.804
112.947
118.039
123.031
127.865
132.5
136.897
141.025
144.857
148.356
151.488
154.227
156.54
158.398
159.772
160.615
160.896
160.609
159.758
158.372
156.49
154.134
151.32
148.072
144.41
140.36
135.949
131.189
126.097
120.689
114.983
109.01
102.792
96.336
89.651
82.743
75.62
68.311
60.857
53.289
45.638
37.934
30.205
22.493
14.842
7.294
-0.105
-7.314
-14.282
-20.959
-27.306
-33.3
-38.929
-44.206
-49.158
-53.801
-58.151
-62.222
-66.022
-69.567
-72.875
-75.964
-78.854
-81.574
-84.164
-86.657
-89.079
-91.442
-93.739
-95.95
-98.048
-100.01
-101.824
-103.481
-104.986
-106.346
-107.571
-108.671
-109.655
-110.519
-111.251
-111.839
-112.272
-112.543
-112.661
-112.646
-112.517
-112.286
-111.95
-111.491
-110.879
-110.075
-109.035
-107.714
-106.071
-104.079
-101.723
-99.001
-95.923
-92.512
-88.776
-84.711
-80.337
-75.695
-70.857
-65.928
-61.008
-56.184
-51.572
-47.309
-43.523
-40.333
-37.829
-36.027
-34.974
-34.792
-35.477
-36.938
-38.983
-41.185
-43.151
-44.654
-45.257
-44.381
-41.911
-37.98
-32.966
-27.882
-23.548
-20.41
-19.528
-22.188
-27.558
-33.375
-37.605
-36.954
-31.882
-27.004
-21.883
-14.204
1.557
37.367
97.63
180.563
281.693
388.969
492.349
582.836
649.779
683.919
675.09
618.439
515.356
375.069
216.632
60.725
-72.249
-167.74
-222
-239.001
-227.99
-198.576
-158.486
-113.597
-70.111
-34.272
-9.223
5.042
13.346
20.769
28.353
34.754
36.357
31.251
21.096
8.893
-2.253
-10.524
-15.113
-15.826
-12.995
-7.11
0.767
9.271
17.658
25.533
32.525
38.558
43.596
47.648
51.133
54.605
58.357
62.505
67.026
71.763
76.618
81.513
86.285
90.73
94.664
97.948
100.515
102.335
103.37
103.555
102.801
101.034
98.21
94.332
89.451
83.628
76.937
69.476
61.363
52.745
43.801
34.683
25.516
16.424
7.523
-1.042
-9.083
-16.414
-22.864
-28.284
-32.551
-35.556
-37.195
-37.39
-36.101
-33.328
-29.111
-23.484
-16.465
-8.079
1.646
12.642
24.783
37.926
51.915
66.589
81.788
97.349
113.097
128.869
144.534
159.996
175.19
190.052
204.499
218.436
231.762
244.404
256.334
267.536
278.004
287.731
296.706
304.917
312.367
319.053
324.938
329.955
334.009
337.003
338.871
339.573
339.083
337.361
334.343
329.97
324.199
317.009
308.4
298.39
287.005
274.301
260.38
245.39
229.515
212.957
195.892
178.486
160.91
143.35
126.015
109.108
92.815
77.303
62.725
49.22
36.901
25.84
16.059
7.533
0.205
-6.005
-11.176
-15.39
-18.741
-21.333
-23.287
-24.721
-25.752
-26.49
-27.048
-27.534
-28.031
-28.594
-29.249
-29.992
-30.801
-31.634
-32.434
-33.147
-33.723
-34.124
-34.317
-34.275
-33.973
-33.394
-32.526
-31.365
-29.927
-28.229
-26.299
-24.179
-21.922
-19.602
-17.312
-15.139
-13.147
-11.383
-9.879
-8.661
-7.747
-7.139
-6.823
-6.764
-6.932
-7.307
-7.87
-8.603
-9.476
-10.442
-11.443
-12.433
-13.379
-14.259
-15.057
-15.759
-16.358
-16.864
-17.305
-17.719
-18.134
-18.564
-19.013
-19.487
-19.993
-20.544
-21.154
-21.825
-22.558
-23.352
-24.205
-25.118
-26.084
-27.091
-28.113
-29.126
-30.109
-31.051
-31.943
-32.779
-33.553
-34.259
-34.896
-35.466
-35.971
-36.412
-36.788
-37.095
-37.335
-37.511
-37.628
-37.691
-37.704
-37.669
-37.591
-37.472
-37.316
-37.124
-36.897
-36.638
-36.346
-36.026
-35.681
-35.314
-34.932
-34.537
-34.136
-33.732
-33.333
-32.942
-32.565
-32.205
-31.868
-31.559
-31.282
-31.041
-30.842
-30.689
-30.587
-30.541
-30.554
-30.631
-30.775
-30.991
-31.282
-31.652
-32.103
-32.639
-33.263
-33.977
-34.785
-35.687
-36.686
-37.782
-38.976
-40.267
-41.653
-43.133
-44.704
-46.364
-48.108
-49.932
-51.831
-53.8
-55.833
-57.924
-60.065
-62.25
-64.471
-66.719
-68.986
-71.263
-73.541
-75.811
-78.065
-80.293
-82.485
-84.633
-86.727
-88.757
-90.713
-92.584
-94.362
-96.034
-97.592
-99.026
-100.327
-101.489
-102.504
-103.365
-104.068
-104.609
-104.984
-105.19
-105.225
-105.086
-104.769
-104.276
-103.603
-102.752
-101.721
-100.512
-99.126
-97.569
-95.845
-93.96
-91.917
-89.718
-87.369
-84.879
-82.261
-79.53
-76.7
-73.791
-70.825
-67.834
-64.847
-61.893
-58.995
-56.161
-53.406
-50.741
-48.18
-45.737
-43.418
-41.214
-39.12
-37.138
-35.264
-33.496
-31.815
-30.183
-28.567
-26.944
-25.304
-23.659
-22.024
-20.406
-18.827
-17.308
-15.894
-14.644
-13.599
-12.779
-12.192
-11.844
-11.759
-11.988
-12.566
-13.511
-14.816
-16.451
-18.384
-20.581
-22.995
-25.56
-28.184
-30.767
-33.236
-35.571
-37.798
-39.947
-42.041
-44.068
-46.007
-47.881
-49.75
-51.684
-53.75
-55.999
-58.442
-61.168
-64.389
-68.194
-72.521
-77.146
-81.572
-85.346
-88.21
-89.768
-89.458
-87.044
-82.636
-76.647
-70.132
-64.182
-59.486
-57.008
-57.971
-61.715
-65.878
-68.445
-66.332
-59.599
-52.56
-44.863
-33.769
-12.821
30.687
101.733
198.501
314.689
435.301
548.76
646.306
718.27
759.8
763.995
724.299
641.321
519.042
369.613
213.6
70.866
-41.287
-112.979
-147.206
-153.814
-143.388
-124.936
-102.69
-78.442
-56.672
-42.764
-39.952
-47.741
-60.829
-73.066
-80.987
-84.671
-86.737
-88.784
-90.921
-92.311
-91.544
-88.46
-83.842
-78.453
-73.24
-68.963
-65.869
-64.129
-63.801
-64.723
-66.775
-69.853
-73.801
-78.456
-83.68
-89.346
-95.321
-101.5
-107.758
-113.944
-119.935
-125.628
-130.93
-135.75
-140.018
-143.67
-146.665
-149.005
-150.693
-151.741
-152.173
-152.016
-151.314
-150.129
-148.516
-146.528
-144.212
-141.608
-138.759
-135.723
-132.545
-129.259
-125.889
-122.443
-118.926
-115.351
-111.723
-108.045
-104.317
-100.535
-96.701
-92.831
-88.944
-85.057
-81.179
-77.305
-73.43
-69.558
-65.692
-61.845
-58.028
-54.238
-50.479
-46.757
-43.084
-39.47
-35.915
-32.402
-28.904
-25.401
-21.888
-18.384
-14.912
-11.497
-8.169
-4.958
-1.906
0.929
3.49
5.741
7.65
9.192
10.329
11.002
11.137
10.678
9.59
7.864
5.504
2.518
-1.075
-5.245
-9.942
-15.085
-20.608
-26.466
-32.618
-39.033
-45.672
-52.455
-59.298
-66.135
-72.909
-79.585
-86.134
-92.52
-98.72
-104.725
-110.54
-116.194
-121.703
-127.057
-132.244
-137.242
-142.032
-146.635
-151.068
-155.333
-159.435
-163.369
-167.127
-170.718
-174.14
-177.381
-180.425
-183.246
-185.825
-188.164
-190.27
-192.15
-193.82
-195.268
-196.488
-197.487
-198.268
-198.836
-199.201
-199.36
-199.315
-199.08
-198.668
-198.093
-197.372
-196.508
-195.506
-194.372
-193.11
-191.73
-190.245
-188.659
-186.979
-185.213
-183.365
-181.445
-179.46
-177.413
-175.305
-173.139
-170.914
-168.634
-166.303
-163.921
-161.488
-159.004
-156.469
-153.882
-151.242
-148.55
-145.803
-143.001
-140.141
-137.226
-134.254
-131.226
-128.144
-125.007
-121.817
-118.575
-115.284
-111.945
-108.563
-105.139
-101.678
-98.184
-94.663
-91.118
-87.557
-83.984
-80.408
-76.833
-73.269
-69.723
-66.203
-62.717
-59.273
-55.881
-52.548
-49.283
-46.093
-42.987
-39.973
-37.057
-34.247
-31.548
-28.968
-26.512
-24.184
-21.989
-19.93
-18.009
-16.23
-14.591
-13.095
-11.74
-10.525
-9.448
-8.505
-7.692
-7.004
-6.434
-5.977
-5.622
-5.361
-5.183
-5.077
-5.031
-5.034
-5.073
-5.136
-5.211
-5.286
-5.349
-5.389
-5.393
-5.35
-5.246
-5.068
-4.804
-4.443
-3.972
-3.381
-2.657
-1.792
-0.778
0.392
1.724
3.225
4.904
6.764
8.806
11.026
13.418
15.974
18.682
21.526
24.484
27.532
30.648
33.812
37.01
40.229
43.453
46.668
49.855
53.004
56.114
59.187
62.223
65.226
68.198
71.148
74.099
77.07
80.072
83.113
86.182
89.265
92.348
95.413
98.435
101.386
104.215
106.864
109.29
111.451
113.313
114.85
116.019
116.789
117.147
117.087
116.627
115.799
114.637
113.186
111.505
109.658
107.738
105.851
104.084
102.509
101.18
100.115
99.322
98.797
98.508
98.424
98.513
98.721
98.961
99.146
99.175
98.946
98.387
97.368
95.667
93.192
90.038
86.468
82.995
80.129
78.185
77.576
78.933
82.585
88.412
95.892
103.814
110.869
116.276
119.309
118.868
115.127
110.122
106.123
106.381
112.639
122.714
135.825
154.487
183.587
231.549
304.651
401.281
515.561
638.277
758.685
869.634
963.117
1029.97
1060.921
1045.394
979.138
864.215
709.493
532.85
352.857
188.3
56.267
-35.318
-84.865
-97.177
-85.201
-61.698
-37.573
-23.124
-20.572
-27.979
-41.811
-53.503
-58.859
-58.107
-52.706
-47.755
-45.576
-44.892
-43.945
-40.315
-33.16
-23.304
-11.669
0.866
13.647
26.159
37.767
48.024
56.756
63.969
69.82
74.432
77.895
80.37
82.052
83.127
83.752
84.055
84.129
84.094
84.073
84.16
84.438
84.972
85.82
87.033
88.633
90.612
92.951
95.62
98.575
101.772
105.147
108.625
112.161
115.713
119.242
122.728
126.138
129.437
132.595
135.578
138.367
140.96
143.358
145.568
147.628
149.581
151.499
153.472
155.551
157.77
160.161
162.741
165.542
168.605
171.964
175.65
179.706
184.166
189.06
194.41
200.193
206.35
212.793
219.397
226.068
232.733
239.32
245.762
251.986
257.903
263.437
268.516
273.037
276.879
279.917
282.022
283.117
283.172
282.19
280.21
277.257
273.339
268.476
262.69
256.001
248.44
240.024
230.755
220.687
209.918
198.567
186.779
174.666
162.297
149.733
137.017
124.199
111.345
98.512
85.747
73.118
60.703
48.605
36.954
25.835
15.284
5.31
-4.109
-12.981
-21.291
-29.036
-36.213
-42.826
-48.894
-54.424
-59.416
-63.902
-67.933
-71.59
-74.99
-78.216
-81.319
-84.336
-87.283
-90.177
-93.049
-95.913
-98.769
-101.623
-104.473
-107.326
-110.2
-113.089
-115.975
-118.82
-121.569
-124.184
-126.645
-128.938
-131.057
-132.998
-134.753
-136.327
-137.735
-138.988
-140.102
-141.088
-141.952
-142.709
-143.379
-143.983
-144.543
-145.067
-145.547
-145.975
-146.337
-146.618
-146.804
-146.876
-146.806
-146.567
-146.129
-145.46
-144.531
-143.313
-141.772
-139.9
-137.719
-135.269
-132.627
-129.857
-127.006
-124.148
-121.374
-118.777
-116.459
-114.5
-112.935
-111.854
-111.446
-111.792
-112.86
-114.488
-116.26
-117.789
-118.842
-119.026
-117.778
-114.865
-110.384
-104.718
-98.893
-93.962
-90.605
-89.868
-93.096
-99.712
-107.361
-113.928
-116.08
-113.909
-112.179
-110.895
-107.544
-95.163
-59.547
5.487
98.565
213.079
333.25
447.328
547.246
623.966
671.453
679.479
637.417
542.464
398.306
221.188
37.592
-127.325
-251.671
-323.77
-347.521
-331.882
-289.109
-234.043
-176.054
-125.482
-92.617
-79.242
-83.008
-95.826
-106.633
-111.21
-110.064
-106.752
-105.893
-108.21
-112.521
-117.082
-119.795
-120.145
-118.179
-114.381
-110.211
-106.656
-104.095
-102.738
-102.37
-102.839
-104.375
-106.92
-110.069
-113.483
-116.827
-119.89
-122.69
-125.193
-127.275
-128.88
-130.006
-130.662
-130.911
-130.789
-130.287
-129.419
-128.201
-126.66
-124.84
-122.776
-120.503
-118.059
-115.48
-112.8
-110.042
-107.217
-104.33
-101.383
-98.375
-95.301
-92.156
-88.934
-85.64
-82.279
-78.863
-75.401
-71.901
-68.362
-64.785
-61.173
-57.535
-53.883
-50.236
-46.604
-42.987
-39.386
-35.801
-32.223
-28.636
-25.006
-21.284
-17.438
-13.448
-9.31
-5.037
-0.63
3.907
8.57
13.353
18.236
23.181
28.158
33.13
38.035
42.797
47.306
51.431
55.068
58.139
60.582
62.355
63.409
63.691
63.168
61.81
59.592
56.507
52.537
47.679
41.977
35.495
28.34
20.649
12.529
4.074
-4.621
-13.475
-22.399
-31.294
-40.077
-48.663
-56.949
-64.84
-72.229
-79.028
-85.192
-90.699
-95.555
-99.792
-103.427
-106.479
-108.979
-110.955
-112.438
-113.472
-114.093
-114.353
-114.33
-114.101
-113.746
-113.336
-112.909
-112.495
-112.115
-111.772
-111.471
-111.213
-110.986
-110.784
-110.605
-110.438
-110.273
-110.089
-109.847
-109.514
-109.06
-108.463
-107.716
-106.815
-105.758
-104.553
-103.216
-101.762
-100.213
-98.586
-96.893
-95.152
-93.38
-91.599
-89.838
-88.121
-86.464
-84.884
-83.393
-81.998
-80.709
-79.528
-78.455
-77.487
-76.623
-75.861
-75.203
-74.647
-74.19
-73.829
-73.559
-73.376
-73.276
-73.256
-73.312
-73.439
-73.632
-73.889
-74.206
-74.58
-75.005
-75.475
-75.985
-76.528
-77.098
-77.69
-78.295
-78.909
-79.524
-80.136
-80.738
-81.326
-81.894
-82.438
-82.953
-83.435
-83.88
-84.285
-84.647
-84.962
-85.228
-85.443
-85.606
-85.714
-85.767
-85.764
-85.703
-85.587
-85.413
-85.185
-84.902
-84.565
-84.177
-83.74
-83.257
-82.729
-82.16
-81.554
-80.913
-80.241
-79.542
-78.82
-78.078
-77.32
-76.551
-75.773
-74.991
-74.208
-73.429
-72.655
-71.892
-71.142
-70.409
-69.696
-69.005
-68.341
-67.705
-67.1
-66.529
-65.993
-65.494
-65.034
-64.614
-64.236
-63.901
-63.61
-63.362
-63.159
-63.001
-62.887
-62.818
-62.793
-62.811
-62.872
-62.974
-63.117
-63.299
-63.518
-63.775
-64.066
-64.391
-64.748
-65.135
-65.55
-65.991
-66.456
-66.943
-67.45
-67.974
-68.512
-69.063
-69.624
-70.193
-70.766
-71.341
-71.916
-72.486
-73.051
-73.605
-74.147
-74.673
-75.18
-75.664
-76.123
-76.552
-76.949
-77.31
-77.631
-77.909
-78.141
-78.322
-78.447
-78.514
-78.518
-78.456
-78.322
-78.115
-77.828
-77.459
-77.004
-76.462
-75.828
-75.099
-74.273
-73.348
-72.321
-71.192
-69.957
-68.614
-67.162
-65.598
-63.924
-62.14
-60.246
-58.243
-56.135
-53.923
-51.614
-49.213
-46.721
-44.143
-41.482
-38.745
-35.949
-33.106
-30.227
-27.326
-24.416
-21.514
-18.638
-15.802
-13.009
-10.264
-7.572
-4.941
-2.388
0.07
2.417
4.643
6.748
8.728
10.575
12.289
13.874
15.333
16.682
17.915
19.007
19.94
20.693
21.256
21.638
21.847
21.9
21.819
21.617
21.312
20.931
20.487
19.99
19.449
18.866
18.265
17.696
17.203
16.827
16.605
16.542
16.636
16.852
17.122
17.376
17.539
17.55
17.375
16.973
16.287
15.282
13.908
12.105
9.877
7.143
3.749
-0.272
-4.798
-9.537
-13.91
-17.441
-19.835
-20.57
-19.091
-15.339
-9.375
-1.728
6.197
13.335
19.003
21.979
22.005
20.74
19.592
20.642
25.537
32.02
38.621
47.582
63.62
95.421
151.097
231.022
330.29
440.605
551.514
655.559
744.797
809.574
839.498
823.835
758.838
647.312
499.815
335.515
174.028
34.766
-66.835
-125.58
-144.114
-130.397
-95.785
-51.18
-4.958
33.845
57.597
64.396
56.037
40.137
26.601
19.77
20.284
25.115
29.438
32.103
33.744
35.365
38.483
43.01
47.999
52.862
56.897
59.63
61.05
61.179
60.123
58.142
55.461
52.251
48.688
44.934
41.121
37.385
33.862
30.657
27.856
25.522
23.69
22.388
21.644
21.479
21.904
22.898
24.41
26.37
28.716
31.4
34.365
37.554
40.889
44.297
47.727
51.155
54.564
57.934
61.231
64.409
67.436
70.305
73.025
75.623
78.113
80.511
82.836
85.116
87.4
89.731
92.139
94.642
97.257
100.008
102.938
106.097
109.529
113.264
117.315
121.688
126.395
131.442
136.83
142.56
148.596
154.905
161.457
168.217
175.152
182.224
189.374
196.533
203.633
210.597
217.356
223.852
230.007
235.747
240.996
245.663
249.694
253.056
255.709
257.631
258.792
259.158
258.716
257.472
255.44
252.658
249.162
244.981
240.168
234.785
228.905
222.624
216.01
209.098
201.933
194.56
187.034
179.433
171.829
164.265
156.779
149.395
142.132
135.025
128.089
121.324
114.728
108.283
101.992
95.892
90.013
84.365
78.946
73.727
68.674
63.778
59.034
54.434
49.981
45.662
41.474
37.432
33.546
29.824
26.261
22.829
19.501
16.274
13.149
10.147
7.297
4.609
2.091
-0.243
-2.386
-4.335
-6.086
-7.653
-9.047
-10.274
-11.335
-12.221
-12.925
-13.452
-13.81
-14.016
-14.09
-14.049
-13.907
-13.685
-13.398
-13.058
-12.675
-12.254
-11.797
-11.309
-10.798
-10.272
-9.741
-9.212
-8.689
-8.177
-7.68
-7.2
-6.739
-6.3
-5.883
-5.491
-5.128
-4.799
-4.508
-4.26
-4.058
-3.908
-3.81
-3.77
-3.787
-3.864
-4.002
-4.201
-4.463
-4.789
-5.179
-5.634
-6.155
-6.741
-7.393
-8.111
-8.894
-9.742
-10.654
-11.628
-12.665
-13.764
-14.922
-16.139
-17.413
-18.743
-20.127
-21.563
-23.047
-24.578
-26.151
-27.763
-29.411
-31.091
-32.798
-34.527
-36.275
-38.038
-39.81
-41.588
-43.366
-45.139
-46.903
-48.653
-50.383
-52.089
-53.764
-55.403
-57.002
-58.555
-60.056
-61.502
-62.885
-64.202
-65.447
-66.614
-67.699
-68.696
-69.602
-70.41
-71.118
-71.721
-72.218
-72.604
-72.878
-73.039
-73.084
-73.014
-72.828
-72.527
-72.111
-71.584
-70.948
-70.206
-69.362
-68.421
-67.391
-66.277
-65.087
-63.83
-62.515
-61.153
-59.755
-58.332
-56.896
-55.459
-54.034
-52.633
-51.27
-49.956
-48.705
-47.529
-46.443
-45.459
-44.592
-43.854
-43.256
-42.806
-42.51
-42.374
-42.406
-42.614
-43.004
-43.583
-44.355
-45.324
-46.493
-47.861
-49.417
-51.137
-52.996
-54.964
-57.018
-59.134
-61.29
-63.457
-65.607
-67.706
-69.72
-71.616
-73.366
-74.931
-76.286
-77.415
-78.334
-79.105
-79.799
-80.492
-81.245
-82.095
-83.1
-84.34
-85.883
-87.8
-90.16
-92.988
-96.37
-100.488
-105.349
-110.852
-116.771
-122.589
-127.844
-132.258
-135.307
-136.367
-135.357
-132.36
-127.76
-122.835
-118.539
-115.319
-114.421
-116.37
-119.651
-122.941
-124.447
-122.496
-119.151
-115.879
-110.081
-96.74
-67.479
-14.63
62.295
158.781
266.955
376.395
479.804
569.932
638.426
679.893
686.001
650.694
574.874
458.911
312.281
153.511
-0.822
-129.573
-216.293
-260.245
-265.027
-240.231
-201.635
-157.9
-117.378
-90.684
-80.073
-85.701
-103.332
-121.338
-133.668
-138.389
-136.584
-134.052
-132.988
-132.791
-132.62
-130.394
-125.718
-119.661
-112.948
-106.444
-100.861
-96.314
-92.854
-90.486
-89.016
-88.329
-88.402
-89.168
-90.525
-92.378
-94.611
-97.106
-99.795
-102.588
-105.373
-108.052
-110.538
-112.777
-114.75
-116.438
-117.82
-118.851
-119.466
-119.623
-119.304
-118.517
-117.298
-115.686
-113.712
-111.429
-108.895
-106.171
-103.326
-100.399
-97.405
-94.359
-91.269
-88.162
-85.086
-82.068
-79.115
-76.221
-73.357
-70.503
-67.645
-64.754
-61.785
-58.684
-55.385
-51.849
-48.061
-44.014
-39.701
-35.111
-30.221
-25.029
-19.541
-13.769
-7.727
-1.425
5.132
11.912
18.869
25.946
33.074
40.204
47.302
54.335
61.265
68.052
74.645
80.997
87.057
92.753
98.002
102.714
106.812
110.24
112.959
114.938
116.148
116.562
116.145
114.866
112.706
109.644
105.679
100.834
95.151
88.71
81.617
73.987
65.929
57.541
48.916
40.146
31.328
22.559
13.943
5.588
-2.397
-9.903
-16.837
-23.142
-28.782
-33.751
-38.07
-41.77
-44.885
-47.456
-49.522
-51.122
-52.308
-53.131
-53.658
-53.974
-54.162
-54.31
-54.492
-54.758
-55.149
-55.691
-56.392
-57.251
-58.262
-59.407
-60.675
-62.058
-63.54
-65.104
-66.722
-68.352
-69.956
-71.5
-72.955
-74.302
-75.523
-76.608
-77.556
-78.379
-79.094
-79.718
-80.267
-80.751
-81.179
-81.557
-81.889
-82.172
-82.402
-82.567
-82.654
-82.655
-82.556
-82.344
-81.995
-81.472
-80.741
-79.772
-78.534
-77.002
-75.17
-73.058
-70.707
-68.194
-65.587
-62.938
-60.314
-57.793
-55.454
-53.379
-51.647
-50.293
-49.389
-49.096
-49.477
-50.494
-51.999
-53.622
-54.981
-55.82
-55.787
-54.359
-51.308
-46.74
-40.988
-34.96
-29.673
-25.784
-24.125
-25.847
-30.632
-36.486
-41.515
-42.79
-39.182
-33.88
-27.881
-19.652
-5.78
23.514
76.517
154.928
257.454
374.949
493.433
600.585
682.673
728.417
730.613
684.205
590.906
458.453
300.764
139.269
-5.021
-115.118
-180.438
-204.041
-195.445
-164.554
-124.579
-83.293
-46.408
-22.837
-14.375
-19.798
-34.848
-49.474
-58.923
-62.558
-61.821
-61.301
-62.326
-63.899
-65.12
-64.49
-61.926
-58.431
-54.652
-51.279
-48.851
-47.426
-46.989
-47.443
-48.549
-50.154
-52.158
-54.446
-56.892
-59.375
-61.777
-63.994
-65.952
-67.562
-68.742
-69.432
-69.607
-69.285
-68.507
-67.328
-65.784
-63.889
-61.664
-59.135
-56.331
-53.295
-50.072
-46.712
-43.281
-39.862
-36.514
-33.281
-30.179
-27.191
-24.288
-21.434
-18.597
-15.764
-12.917
-10.039
-7.118
-4.142
-1.096
2.038
5.298
8.748
12.436
16.396
20.65
25.195
30.024
35.132
40.502
46.114
51.946
57.97
64.162
70.503
76.967
83.523
90.118
96.676
103.124
109.394
115.419
121.134
126.471
131.348
135.703
139.485
142.651
145.173
147.023
148.173
148.607
148.316
147.311
145.621
143.28
140.324
136.806
132.783
128.331
123.547
118.515
113.308
107.993
102.622
97.243
91.908
86.656
81.518
76.519
71.674
66.997
62.501
58.19
54.059
50.088
46.244
42.501
38.84
35.25
31.728
28.274
24.886
21.573
18.347
15.222
12.212
9.329
6.579
3.972
1.523
-0.751
-2.83
-4.698
-6.345
-7.765
-8.956
-9.919
-10.658
-11.18
-11.499
-11.626
-11.575
-11.357
-10.982
-10.461
-9.807
-9.033
-8.153
-7.18
-6.125
-5.001
-3.819
-2.59
-1.323
-0.03
1.284
2.609
3.937
5.26
6.57
7.859
9.12
10.346
11.532
12.671
13.758
14.79
15.763
16.673
17.519
18.299
19.011
19.654
20.228
20.733
21.169
21.536
21.835
22.068
22.235
22.337
22.378
22.356
22.276
22.138
21.945
21.7
21.403
21.058
20.667
20.234
19.76
19.248
18.702
18.123
17.516
16.882
16.225
15.547
14.852
14.142
13.419
12.688
11.95
11.208
10.465
9.724
8.986
8.254
7.531
6.819
6.119
5.435
4.766
4.116
3.486
2.877
2.29
1.727
1.187
0.672
0.182
-0.284
-0.725
-1.142
-1.536
-1.906
-2.254
-2.582
-2.891
-3.182
-3.458
-3.72
-3.971
-4.215
-4.452
-4.687
-4.922
-5.159
-5.403
-5.656
-5.921
-6.2
-6.497
-6.815
-7.156
-7.523
-7.917
-8.341
-8.797
-9.286
-9.81
-10.369
-10.964
-11.596
-12.265
-12.97
-13.713
-14.491
-15.304
-16.151
-17.03
-17.939
-18.877
-19.839
-20.825
-21.831
-22.853
-23.888
-24.934
-25.985
-27.037
-28.088
-29.133
-30.167
-31.187
-32.188
-33.167
-34.12
-35.043
-35.934
-36.787
-37.601
-38.372
-39.097
-39.773
-40.398
-40.97
-41.486
-41.945
-42.344
-42.682
-42.957
-43.168
-43.315
-43.395
-43.41
-43.357
-43.236
-43.047
-42.789
-42.464
-42.07
-41.609
-41.081
-40.486
-39.826
-39.1
-38.31
-37.455
-36.537
-35.555
-34.511
-33.404
-32.237
-31.008
-29.721
-28.374
-26.971
-25.512
-23.999
-22.434
-20.818
-19.156
-17.45
-15.703
-13.919
-12.104
-10.263
-8.401
-6.525
-4.643
-2.763
-0.892
0.96
2.784
4.57
6.307
7.987
9.6
11.136
12.584
13.935
15.178
16.302
17.299
18.156
18.862
19.406
19.782
19.983
20.006
19.847
19.501
18.961
18.223
17.282
16.138
14.786
13.229
11.471
9.525
7.422
5.193
2.87
0.483
-1.943
-4.381
-6.799
-9.162
-11.436
-13.581
-15.563
-17.351
-18.907
-20.202
-21.225
-21.994
-22.583
-23.072
-23.544
-24.064
-24.677
-25.444
-26.454
-27.785
-29.508
-31.694
-34.377
-37.651
-41.708
-46.559
-52.082
-58.024
-63.847
-69.064
-73.341
-76.11
-76.698
-74.995
-71.119
-65.486
-59.381
-53.789
-49.3
-47.313
-48.178
-50.135
-51.721
-50.873
-47.166
-43.986
-41.661
-36.814
-20.828
18.597
85.621
177.616
284.234
390.553
490.693
581.894
662.184
730.712
778.442
792.859
765.223
691.363
573.532
424.452
263.491
109.982
-15.064
-98.749
-141.93
-151.117
-138.077
-114.215
-84.606
-53.569
-27.331
-11.652
-10.499
-22.647
-40.376
-55.823
-64.553
-66.654
-66.255
-66.143
-66.814
-67.464
-66.241
-62.741
-57.853
-52.433
-47.494
-43.768
-41.405
-40.502
-41.09
-42.982
-46.024
-50.085
-54.986
-60.545
-66.599
-72.977
-79.489
-85.973
-92.266
-98.201
-103.659
-108.558
-112.84
-116.465
-119.408
-121.638
-123.147
-123.958
-124.098
-123.598
-122.511
-120.892
-118.82
-116.398
-113.711
-110.83
-107.806
-104.662
-101.419
-98.092
-94.689
-91.218
-87.681
-84.07
-80.382
-76.616
-72.764
-68.82
-64.769
-60.589
-56.265
-51.793
-47.179
-42.442
-37.602
-32.678
-27.69
-22.648
-17.567
-12.461
-7.343
-2.225
2.889
8.005
13.119
18.226
23.321
28.402
33.478
38.577
43.714
48.901
54.132
59.387
64.643
69.879
75.063
80.156
85.105
89.837
94.293
98.428
102.195
105.551
108.439
110.779
112.511
113.595
114.003
113.735
112.79
111.169
108.895
106.009
102.57
98.659
94.343
89.666
84.681
79.437
73.997
68.44
62.832
57.219
51.641
46.129
40.71
35.418
30.263
25.242
20.338
15.524
10.786
6.125
1.541
-2.965
-7.395
-11.762
-16.064
-20.292
-24.437
-28.491
-32.448
-36.304
-40.047
-43.656
-47.109
-50.38
-53.453
-56.319
-58.971
-61.402
-63.608
-65.588
-67.344
-68.883
-70.212
-71.336
-72.259
-72.985
-73.521
-73.878
-74.065
-74.093
-73.971
-73.708
-73.313
-72.795
-72.162
-71.421
-70.579
-69.641
-68.615
-67.506
-66.323
-65.073
-63.763
-62.402
-60.995
-59.551
-58.076
-56.577
-55.058
-53.527
-51.986
-50.443
-48.901
-47.364
-45.837
-44.325
-42.83
-41.357
-39.91
-38.492
-37.106
-35.756
-34.445
-33.176
-31.953
-30.777
-29.651
-28.579
-27.562
-26.603
-25.705
-24.869
-24.096
-23.389
-22.747
-22.173
-21.667
-21.228
-20.858
-20.556
-20.323
-20.158
-20.061
-20.032
-20.071
-20.178
-20.351
-20.592
-20.897
-21.266
-21.698
-22.191
-22.742
-23.35
-24.012
-24.726
-25.489
-26.299
-27.153
-28.047
-28.98
-29.948
-30.948
-31.976
-33.029
-34.103
-35.197
-36.305
-37.424
-38.553
-39.688
-40.825
-41.961
-43.092
-44.215
-45.325
-46.419
-47.489
-48.533
-49.544
-50.519
-51.453
-52.342
-53.183
-53.973
-54.709
-55.389
-56.011
-56.57
-57.064
-57.486
-57.834
-58.103
-58.288
-58.386
-58.391
-58.299
-58.111
-57.825
-57.44
-56.951
-56.354
-55.645
-54.827
-53.903
-52.879
-51.761
-50.559
-49.286
-47.966
-46.62
-45.268
-43.926
-42.595
-41.282
-39.996
-38.743
-37.533
-36.365
-35.226
-34.108
-33.009
-31.921
-30.839
-29.744
-28.597
-27.37
-26.043
-24.609
-23.081
-21.466
-19.774
-18.025
-16.247
-14.488
-12.814
-11.276
-9.91
-8.756
-7.844
-7.215
-6.925
-7.009
-7.481
-8.344
-9.58
-11.166
-13.08
-15.274
-17.676
-20.192
-22.708
-25.131
-27.388
-29.41
-31.149
-32.578
-33.679
-34.468
-34.978
-35.232
-35.274
-35.176
-35.021
-34.918
-34.984
-35.322
-36.072
-37.427
-39.505
-42.276
-45.534
-48.893
-51.954
-54.438
-56.03
-56.239
-54.692
-51.458
-47.104
-42.604
-38.881
-36.466
-35.788
-37.626
-42.745
-50.142
-56.829
-59.656
-55.442
-43.948
-28.95
-11.377
10.485
40.229
87.023
156.967
249.579
362.14
484.729
604.161
709.996
790.612
836.145
838.853
791.43
692.95
549.292
374.791
193.29
27.956
-102.033
-184.457
-222.26
-224.352
-200.32
-163.875
-122.895
-83.811
-56.826
-44.84
-47.7
-61.548
-75.907
-85.453
-88.959
-87.701
-86.544
-86.855
-87.63
-87.874
-85.784
-81.195
-75.187
-68.497
-62.015
-56.507
-52.155
-49.029
-47.11
-46.176
-46.065
-46.681
-47.887
-49.519
-51.454
-53.588
-55.834
-58.146
-60.451
-62.649
-64.678
-66.5
-68.106
-69.499
-70.678
-71.625
-72.338
-72.84
-73.148
-73.28
-73.246
-73.043
-72.682
-72.189
-71.594
-70.923
-70.178
-69.336
-68.369
-67.257
-65.981
-64.522
-62.843
-60.896
-58.647
-56.081
-53.201
-50.012
-46.504
-42.651
-38.436
-33.851
-28.91
-23.642
-18.071
-12.214
-6.091
0.265
6.804
13.465
20.216
27.049
33.969
40.973
48.027
55.089
62.118
69.089
75.983
82.782
89.454
95.951
102.237
108.289
114.086
119.612
124.814
129.613
133.928
137.696
140.882
143.468
145.428
146.732
147.35
147.272
146.506
145.07
142.971
140.209
136.789
132.728
128.075
122.905
117.283
111.259
104.873
98.16
91.163
83.939
76.539
69.001
61.356
53.644
45.921
38.256
30.722
23.37
16.236
9.343
2.729
-3.559
-9.485
-15.012
-20.124
-24.81
-29.064
-32.874
-36.239
-39.174
-41.716
-43.916
-45.836
-47.523
-49.018
-50.36
-51.6
-52.788
-53.966
-55.169
-56.418
-57.729
-59.119
-60.603
-62.186
-63.861
-65.608
-67.399
-69.2
-70.984
-72.734
-74.43
-76.053
-77.587
-79.015
-80.331
-81.536
-82.63
-83.616
-84.5
-85.29
-86
-86.652
-87.265
-87.857
-88.435
-88.99
-89.514
-89.991
-90.405
-90.742
-90.984
-91.107
-91.089
-90.905
-90.525
-89.923
-89.071
-87.934
-86.489
-84.735
-82.707
-80.469
-78.096
-75.656
-73.199
-70.798
-68.535
-66.484
-64.724
-63.325
-62.31
-61.79
-61.946
-62.823
-64.395
-66.487
-68.653
-70.509
-71.812
-72.072
-70.732
-67.69
-62.963
-56.985
-51.05
-46.179
-42.99
-42.752
-45.888
-50.792
-56.136
-59.974
-60.646
-60.638
-61.729
-61.519
-55.018
-32.872
14.059
86.741
180.875
288.594
399.564
506.506
600.826
671.806
707.859
696.646
633.795
521.747
370.564
200.225
31.097
-116.303
-224.118
-285.709
-302.622
-281.411
-234.129
-173.879
-111.37
-59.274
-27.532
-17.022
-24.989
-42.672
-58.72
-69.155
-73.316
-73.128
-73.306
-75.401
-78.682
-81.968
-83.164
-81.233
-76.952
-71.851
-67.307
-63.99
-61.966
-60.97
-60.864
-61.871
-63.933
-66.615
-69.582
-72.517
-75.237
-77.791
-80.137
-82.113
-83.638
-84.679
-85.211
-85.277
-84.895
-84.041
-82.729
-80.983
-78.829
-76.319
-73.489
-70.379
-67.042
-63.523
-59.868
-56.122
-52.326
-48.521
-44.765
-41.095
-37.533
-34.081
-30.732
-27.479
-24.317
-21.239
-18.224
-15.234
-12.228
-9.173
-6.049
-2.837
0.488
3.961
7.64
11.578
15.81
20.352
25.218
30.427
36.005
41.98
48.347
55.069
62.104
69.404
76.935
84.667
92.558
100.547
108.549
116.478
124.254
131.812
139.077
145.957
152.343
158.104
163.146
167.418
170.877
173.492
175.231
176.053
175.928
174.857
172.857
169.957
166.189
161.571
156.138
149.956
143.121
135.766
128.011
119.94
111.631
103.159
94.602
86.057
77.618
69.349
61.298
53.515
46.044
38.946
32.285
26.086
20.348
15.039
10.126
5.593
1.432
-2.377
-5.865
-9.079
-12.075
-14.88
-17.509
-19.981
-22.318
-24.555
-26.738
-28.887
-31.005
-33.086
-35.117
-37.097
-39.029
-40.903
-42.694
-44.373
-45.903
-47.268
-48.463
-49.482
-50.319
-50.962
-51.398
-51.623
-51.649
-51.483
-51.134
-50.611
-49.919
-49.072
-48.095
-47.011
-45.849
-44.628
-43.361
-42.064
-40.747
-39.425
-38.107
-36.802
-35.51
-34.236
-32.985
-31.764
-30.578
-29.429
-28.319
-27.245
-26.209
-25.21
-24.248
-23.325
-22.44
-21.595
-20.79
-20.027
-19.31
-18.64
-18.018
-17.442
-16.913
-16.431
-15.994
-15.601
-15.251
-14.944
-14.677
-14.449
-14.261
-14.111
-13.998
-13.92
-13.877
-13.867
-13.888
-13.94
-14.02
-14.128
-14.262
-14.422
-14.604
-14.809
-15.035
-15.279
-15.541
-15.818
-16.108
-16.411
-16.722
-17.041
-17.366
-17.695
-18.027
-18.358
-18.689
-19.017
-19.341
-19.659
-19.97
-20.273
-20.566
-20.849
-21.119
-21.376
-21.62
-21.848
-22.062
-22.259
-22.44
-22.604
-22.75
-22.879
-22.991
-23.084
-23.161
-23.22
-23.262
-23.287
-23.297
-23.291
-23.27
-23.235
-23.186
-23.125
-23.051
-22.966
-22.87
-22.765
-22.65
-22.527
-22.396
-22.257
-22.111
-21.958
-21.798
-21.632
-21.46
-21.282
-21.098
-20.908
-20.714
-20.514
-20.31
-20.1
-19.884
-19.662
-19.435
-19.2
-18.958
-18.707
-18.448
-18.18
-17.903
-17.615
-17.316
-17.004
-16.679
-16.341
-15.986
-15.615
-15.226
-14.819
-14.39
-13.941
-13.47
-12.976
-12.456
-11.909
-11.334
-10.728
-10.088
-9.412
-8.696
-7.939
-7.137
-6.288
-5.39
-4.442
-3.442
-2.39
-1.286
-0.127
1.088
2.362
3.698
5.098
6.564
8.099
9.705
11.384
13.136
14.956
16.843
18.796
20.816
22.903
25.057
27.27
29.535
31.847
34.192
36.557
38.92
41.253
43.533
45.746
47.88
49.931
51.895
53.762
55.53
57.196
58.758
60.218
61.57
62.807
63.932
64.957
65.905
66.819
67.721
68.615
69.5
70.365
71.191
71.962
72.646
73.199
73.592
73.807
73.842
73.709
73.403
72.906
72.193
71.222
69.976
68.464
66.694
64.688
62.483
60.119
57.66
55.186
52.747
50.346
47.955
45.523
43.006
40.389
37.677
34.864
31.905
28.745
25.339
21.635
17.622
13.23
8.263
2.666
-3.448
-9.824
-15.945
-21.342
-25.785
-28.858
-29.962
-28.984
-26.136
-21.962
-17.704
-14.329
-12.261
-12.401
-15.881
-21.996
-28.577
-33.303
-32.735
-26.579
-18.268
-7.631
7.966
33.919
79.329
147.453
234.568
333.614
434.677
529.883
613.765
680.571
723.499
732.89
700.69
624.609
506.278
356.983
195.964
41.221
-86.806
-173.13
-217.387
-223.719
-202.009
-167.518
-128.309
-91.916
-67.925
-58.29
-63.618
-80.54
-98.336
-111.316
-117.313
-116.87
-115.348
-114.828
-114.815
-114.674
-112.434
-107.697
-101.527
-94.661
-87.988
-82.243
-77.571
-74.053
-71.753
-70.556
-70.372
-71.147
-72.777
-75.118
-78.057
-81.484
-85.28
-89.357
-93.6
-97.865
-102.046
-106.063
-109.846
-113.336
-116.46
-119.117
-121.24
-122.801
-123.783
-124.195
-124.049
-123.353
-122.143
-120.47
-118.389
-115.953
-113.202
-110.157
-106.845
-103.3
-99.563
-95.691
-91.723
-87.683
-83.59
-79.462
-75.313
-71.161
-67.014
-62.87
-58.732
-54.604
-50.492
-46.41
-42.36
-38.341
-34.35
-30.379
-26.422
-22.472
-18.517
-14.545
-10.54
-6.49
-2.382
1.802
6.073
10.443
14.91
19.469
24.104
28.79
33.499
38.202
42.852
47.392
51.758
55.873
59.665
63.066
66.004
68.399
70.182
71.297
71.7
71.366
70.28
68.438
65.846
62.52
58.495
53.823
48.568
42.81
36.625
30.082
23.257
16.23
9.074
1.854
-5.376
-12.576
-19.712
-26.752
-33.672
-40.453
-47.09
-53.585
-59.949
-66.202
-72.357
-78.422
-84.403
-90.307
-96.135
-101.888
-107.556
-113.122
-118.571
-123.889
-129.061
-134.072
-138.903
-143.532
-147.938
-152.096
-155.989
-159.603
-162.93
-165.962
-168.697
-171.133
-173.276
-175.134
-176.715
-178.029
-179.083
-179.886
-180.447
-180.781
-180.898
-180.812
-180.535
-180.081
-179.46
-178.686
-177.768
-176.719
-175.549
-174.266
-172.882
-171.408
-169.852
-168.227
-166.541
-164.806
-163.03
-161.222
-159.39
-157.542
-155.686
-153.826
-151.969
-150.119
-148.283
-146.463
-144.665
-142.891
-141.146
-139.433
-137.754
-136.112
-134.51
-132.951
-131.437
-129.97
-128.553
-127.187
-125.875
-124.617
-123.416
-122.273
-121.19
-120.167
-119.206
-118.308
-117.473
-116.704
-116.001
-115.365
-114.797
-114.297
-113.865
-113.503
-113.211
-112.988
-112.834
-112.75
-112.735
-112.788
-112.909
-113.096
-113.348
-113.663
-114.037
-114.47
-114.957
-115.494
-116.079
-116.707
-117.375
-118.077
-118.811
-119.57
-120.35
-121.145
-121.949
-122.756
-123.558
-124.347
-125.116
-125.858
-126.565
-127.23
-127.847
-128.409
-128.909
-129.344
-129.707
-129.992
-130.194
-130.305
-130.319
-130.23
-130.032
-129.719
-129.285
-128.725
-128.037
-127.22
-126.272
-125.193
-123.98
-122.626
-121.133
-119.502
-117.738
-115.849
-113.841
-111.727
-109.525
-107.26
-104.956
-102.634
-100.305
-97.976
-95.654
-93.349
-91.069
-88.824
-86.611
-84.428
-82.275
-80.156
-78.074
-76.021
-73.982
-71.923
-69.822
-67.667
-65.461
-63.217
-60.949
-58.675
-56.426
-54.236
-52.159
-50.241
-48.514
-47.005
-45.733
-44.724
-44.003
-43.607
-43.556
-43.852
-44.486
-45.431
-46.659
-48.123
-49.761
-51.493
-53.23
-54.892
-56.416
-57.75
-58.858
-59.716
-60.334
-60.739
-60.977
-61.108
-61.178
-61.224
-61.308
-61.521
-61.952
-62.701
-63.858
-65.441
-67.546
-70.331
-73.767
-77.727
-81.901
-85.7
-88.65
-90.461
-90.613
-88.561
-84.239
-77.676
-69.377
-60.69
-52.614
-45.786
-41.368
-39.504
-38.424
-36.666
-32.177
-23.474
-13.06
-2.513
10.431
30.45
66.081
125.213
207.89
309.007
420.577
532.194
635.848
723.353
784.672
809.467
788.643
719.867
606.275
459.102
298.219
142.868
13.431
-74.828
-121.35
-131.2
-114.731
-86.229
-52.664
-20.337
2.702
14.316
12.925
0.979
-12.211
-21.85
-25.889
-24.632
-23.005
-22.483
-22.252
-21.716
-18.907
-13.444
-6.385
1.624
9.707
17.01
23.303
28.496
32.541
35.644
37.944
39.446
40.212
40.342
39.921
39.057
37.86
36.389
34.726
32.983
31.266
29.669
28.25
27.033
26.034
25.281
24.823
24.729
25.066
25.877
27.183
28.984
31.271
34.029
37.235
40.853
44.844
49.175
53.828
58.798
64.087
69.685
75.563
81.673
87.96
94.378
100.893
107.471
114.084
120.699
127.29
133.848
140.37
146.855
153.295
159.672
165.962
172.145
178.212
184.171
190.035
195.811
201.511
207.15
212.755
218.369
224.018
229.708
235.433
241.168
246.891
252.588
258.239
263.829
269.326
274.683
279.855
284.8
289.459
293.77
297.641
300.954
303.614
305.547
306.699
307.04
306.539
305.168
302.908
299.743
295.672
290.705
284.853
278.123
270.543
262.151
253.015
243.248
232.943
222.179
211.033
199.57
187.86
175.982
164.009
152.014
140.075
128.276
116.698
105.431
94.55
84.124
74.2
64.798
55.939
