Name
Date of Birth,"Mar 27, 1959"
Recorded Date,2021-08-12 12:31:56 -0500
Classification,Sinus Rhythm
Symptoms,
Software Version,1.90
Device,"Watch4,2"
Sample Rate,510.227 hertz


Lead,Lead I
Unit,µV

-17.628
-20.334
-23.787
-27.445
-30.565
-33.676
-36.498
-40.095
-46.664
-54.117
-60.286
-62.138
-54.691
-40.574
-25.457
-14.682
-15.696
-28.119
-46.123
-65.336
-80.173
-89.424
-96.257
-101.785
-106.647
-110.488
-111.472
-109.347
-105.004
-99.246
-92.933
-86.628
-80.614
-75.342
-71.144
-67.96
-65.434
-63.099
-60.665
-58.028
-55.131
-51.849
-48.065
-43.744
-38.96
-33.887
-28.629
-23.189
-17.562
-11.751
-5.743
0.452
6.882
13.687
20.98
28.854
37.419
46.729
56.83
67.797
79.604
92.142
105.276
118.796
132.548
146.472
160.452
174.375
188.242
202.07
216.021
230.36
245.108
260.107
275.166
289.885
303.7
315.94
325.613
331.684
333.485
330.603
322.887
310.516
293.845
273.531
250.59
225.905
200.026
173.203
145.336
116.271
85.913
53.939
20.042
-15.609
-52.431
-89.313
-124.754
-157.533
-186.595
-210.805
-229.451
-242.422
-250.163
-253.939
-255.367
-255.674
-256.053
-257.723
-261.447
-267.665
-276.261
-286.172
-296.071
-304.972
-311.849
-315.796
-316.253
-312.593
-304.554
-292.781
-278.229
-261.724
-244.175
-226.242
-208.244
-190.832
-174.682
-159.846
-146.112
-133.318
-121.184
-109.601
-98.978
-89.538
-81.083
-74.251
-69.719
-67.175
-66.937
-68.218
-69.464
-71.773
-75.855
-82.778
-94.131
-107.506
-120.303
-130.213
-134.603
-134.112
-129.513
-120.726
-108.215
-91.685
-71.443
-48.947
-25.458
-2.133
19.984
40.043
57.07
70.465
80.304
87.085
91.503
94.2
95.664
96.535
97.746
99.979
103.536
108.488
114.67
121.953
130.268
139.345
148.639
157.616
165.924
173.472
180.302
186.385
191.861
197.015
202.194
208.069
214.783
221.551
228.455
236.022
245.062
257.78
273.546
288.827
300.208
303.263
297.408
286.7
274.774
265.483
260.297
257.322
255.61
254.83
255.065
257.416
262.018
268.085
274.829
281.355
286.986
291.23
293.688
293.977
291.924
287.885
282.394
275.925
268.888
261.507
253.914
246.537
239.804
233.73
228.168
222.904
217.711
212.665
207.92
203.283
198.54
193.653
188.612
183.511
178.441
173.271
167.85
162.24
156.482
150.506
144.195
137.428
130.199
122.613
114.773
106.643
98.161
89.495
81.046
73.117
65.774
58.846
51.996
45.026
37.816
29.898
20.445
8.669
-5.958
-23.467
-43.463
-65.648
-89.688
-114.844
-140.02
-163.925
-185.289
-203.36
-217.78
-228.096
-234.071
-235.913
-234.122
-229.637
-223.745
-217.577
-212.288
-209.307
-209.812
-214.594
-224.191
-238.661
-257.503
-279.977
-304.882
-330.531
-355.321
-377.843
-396.911
-411.711
-421.892
-427.477
-429.012
-427.515
-424.107
-419.956
-416.067
-413.234
-412.023
-412.729
-415.366
-419.713
-425.409
-432.017
-439.201
-446.709
-454.386
-462.201
-470.186
-478.545
-487.586
-497.411
-507.898
-518.962
-530.357
-542.211
-555.283
-569.171
-582.864
-595.141
-603.318
-607.024
-608.78
-611.598
-621.104
-640.678
-667.923
-698.139
-723.039
-735.672
-735.617
-726.085
-713.407
-702.934
-695.723
-690.59
-685.051
-677.575
-668.3
-658.302
-649.45
-643.014
-639.763
-638.455
-635.478
-628.936
-617.609
-602.71
-589.799
-581.159
-577.877
-580.801
-584.283
-581.84
-565.241
-522.013
-445.7
-337.345
-204.409
-61.663
77.955
208.338
327.665
435.92
529.454
598.679
631.057
615.816
548.307
430.927
273.03
89.664
-100.625
-278.052
-424.375
-527.481
-584.959
-601.906
-590.225
-564.215
-534.329
-508.895
-491.939
-483.197
-481.582
-483.683
-485.788
-486.003
-484.22
-482.29
-482.784
-487.452
-495.939
-506.652
-517.778
-527.535
-535.165
-540.482
-543.269
-543.751
-542.336
-539.396
-535.448
-531.02
-526.503
-522.33
-518.954
-516.537
-515.029
-514.302
-514.111
-514.218
-514.431
-514.495
-514.113
-513.094
-511.347
-508.848
-505.647
-501.793
-497.314
-492.272
-486.745
-480.817
-474.566
-468.056
-461.34
-454.475
-447.531
-440.584
-433.709
-426.977
-420.436
-414.121
-408.055
-402.252
-396.718
-391.454
-386.451
-381.69
-377.153
-372.826
-368.692
-364.735
-360.935
-357.267
-353.707
-350.229
-346.809
-343.427
-340.061
-336.69
-333.294
-329.854
-326.353
-322.774
-319.103
-315.322
-311.416
-307.369
-303.169
-298.807
-294.273
-289.56
-284.665
-279.587
-274.327
-268.889
-263.281
-257.512
-251.592
-245.537
-239.36
-233.08
-226.717
-220.291
-213.824
-207.339
-200.861
-194.415
-188.026
-181.72
-175.521
-169.456
-163.55
-157.828
-152.313
-147.028
-141.997
-137.239
-132.776
-128.624
-124.799
-121.317
-118.188
-115.423
-113.028
-111.008
-109.365
-108.099
-107.205
-106.679
-106.513
-106.696
-107.216
-108.058
-109.206
-110.642
-112.345
-114.295
-116.467
-118.84
-121.388
-124.087
-126.912
-129.837
-132.836
-135.883
-138.954
-142.021
-145.059
-148.045
-150.953
-153.761
-156.449
-158.996
-161.387
-163.604
-165.637
-167.477
-169.114
-170.544
-171.764
-172.773
-173.574
-174.17
-174.564
-174.763
-174.775
-174.608
-174.275
-173.785
-173.151
-172.385
-171.5
-170.507
-169.421
-168.252
-167.006
-165.688
-164.305
-162.869
-161.399
-159.907
-158.407
-156.91
-155.425
-153.961
-152.52
-151.096
-149.664
-148.192
-146.653
-145.025
-143.3
-141.47
-139.523
-137.425
-135.134
-132.614
-129.832
-126.772
-123.402
-119.673
-115.595
-111.26
-106.823
-102.517
-98.549
-95.033
-92.119
-90.006
-88.723
-88.196
-88.233
-88.376
-88.248
-87.631
-86.143
-83.346
-79.06
-73.248
-66.111
-58.205
-50.008
-41.948
-34.62
-29.365
-27.354
-28.586
-33.284
-39.438
-43.991
-46.967
-47.126
-45.069
-44.318
-42.996
-38.468
-25.893
5.187
60.455
142.576
251.128
378.301
517.235
660.877
800.953
930.817
1039.134
1113.08
1141.278
1113.912
1030.684
899.062
731.939
548.625
368.214
207.774
82.524
0.56
-37.501
-36.463
-7.929
34.937
81.441
122.037
152.386
171.007
177.693
175.94
168.572
159.726
153.883
152.145
155.394
161.482
166.355
168.231
165.58
159.398
152.894
147.751
145.245
145.464
146.953
149.044
151.43
153.743
155.995
157.926
159.013
159.095
158.216
156.468
154.085
151.307
148.331
145.41
142.815
140.686
139.073
137.986
137.376
137.204
137.439
138.03
138.916
140.053
141.409
142.945
144.627
146.403
148.214
150.015
151.78
153.49
155.142
156.741
158.297
159.829
161.365
162.928
164.54
166.219
167.982
169.85
171.847
173.995
176.32
178.843
181.583
184.557
187.78
191.261
195.008
199.025
203.312
207.87
212.7
217.8
223.167
228.797
234.682
240.813
247.179
253.765
260.555
267.528
274.662
281.934
289.319
296.789
304.315
311.868
319.417
326.929
334.371
341.711
348.913
355.945
362.773
369.362
375.682
381.7
387.385
392.709
397.645
402.167
406.253
409.882
413.034
415.693
417.847
419.483
420.593
421.172
421.216
420.726
419.704
418.155
416.088
413.513
410.445
406.898
402.892
398.445
393.582
388.325
382.701
376.737
370.461
363.904
357.097
350.07
342.858
335.49
328.001
320.423
312.786
305.123
297.464
289.839
282.277
274.803
267.446
260.228
253.173
246.303
239.636
233.191
226.982
221.025
215.33
209.908
204.766
199.91
195.346
191.073
187.093
183.404
180.001
176.881
174.035
171.456
169.132
167.054
165.207
163.579
162.155
160.919
159.855
158.947
158.179
157.532
156.989
156.534
156.15
155.82
155.527
155.257
154.993
154.722
154.429
154.102
153.729
153.299
152.802
152.229
151.571
150.823
149.978
149.033
147.983
146.827
145.564
144.195
142.719
141.141
139.463
137.69
135.827
133.879
131.854
129.76
127.603
125.392
123.136
120.844
118.525
116.188
113.841
111.495
109.157
106.838
104.544
102.284
100.067
97.898
95.786
93.736
91.754
89.845
88.014
86.265
84.6
83.022
81.534
80.136
78.828
77.611
76.484
75.444
74.491
73.622
72.834
72.124
71.487
70.92
70.419
69.98
69.598
69.268
68.987
68.749
68.551
68.388
68.256
68.151
68.071
68.01
67.966
67.937
67.919
67.91
67.908
67.912
67.92
67.931
67.943
67.957
67.972
67.987
68.003
68.02
68.038
68.058
68.08
68.104
68.13
68.16
68.194
68.23
68.271
68.314
68.359
68.407
68.454
68.501
68.545
68.584
68.616
68.639
68.649
68.643
68.618
68.571
68.497
68.393
68.255
68.079
67.86
67.596
67.282
66.915
66.491
66.007
65.46
64.848
64.167
63.416
62.594
61.698
60.729
59.685
58.568
57.377
56.115
54.782
53.382
51.917
50.391
48.808
47.172
45.487
43.759
41.994
40.197
38.376
36.536
34.684
32.828
30.973
29.127
27.297
25.487
23.705
21.955
20.242
18.573
16.95
15.379
13.862
12.402
11.003
9.666
8.394
7.185
6.041
4.961
3.943
2.987
2.09
1.25
0.464
-0.272
-0.96
-1.605
-2.211
-2.783
-3.327
-3.846
-4.348
-4.836
-5.315
-5.791
-6.268
-6.749
-7.235
-7.73
-8.235
-8.752
-9.28
-9.82
-10.37
-10.931
-11.503
-12.082
-12.667
-13.254
-13.84
-14.421
-14.992
-15.547
-16.077
-16.575
-17.035
-17.45
-17.815
-18.124
-18.368
-18.54
-18.637
-18.657
-18.594
-18.44
-18.187
-17.824
-17.353
-16.787
-16.137
-15.41
-14.617
-13.771
-12.89
-12
-11.115
-10.232
-9.351
-8.467
-7.589
-6.744
-5.954
-5.242
-4.618
-4.073
-3.609
-3.24
-2.962
-2.761
-2.615
-2.485
-2.373
-2.331
-2.398
-2.613
-2.998
-3.551
-4.273
-5.174
-6.254
-7.511
-8.927
-10.473
-12.148
-13.989
-16.027
-18.298
-20.779
-23.371
-25.992
-28.59
-31.094
-33.424
-35.535
-37.414
-39.152
-40.97
-43.057
-45.529
-48.492
-52.027
-56.153
-60.791
-65.638
-70.184
-74.012
-76.835
-78.472
-78.793
-77.624
-74.959
-71.282
-67.306
-63.585
-60.547
-58.288
-57.468
-59.522
-65.036
-73.537
-82.611
-88.717
-90.816
-89.99
-89.092
-91.532
-96.701
-101.531
-102.181
-93.544
-73.172
-39.6
10.041
77.202
164.058
272.437
400.084
542.444
690.77
831.467
950.187
1033.111
1070.055
1057.235
995.784
890.847
750.2
583.825
404.97
229.742
75.77
-42.042
-115.708
-145.842
-141.438
-115.797
-82.689
-52.86
-32.036
-22.508
-22.611
-28.78
-38.164
-46.35
-50.396
-49.952
-44.35
-36.357
-30.086
-27.08
-28.945
-34.864
-41.713
-48.063
-52.916
-55.861
-57.779
-59.067
-59.725
-59.951
-59.784
-59.348
-58.987
-59.02
-59.722
-61.218
-63.482
-66.376
-69.683
-73.184
-76.651
-79.856
-82.591
-84.74
-86.269
-87.192
-87.568
-87.459
-86.918
-86.011
-84.813
-83.381
-81.766
-80.021
-78.192
-76.337
-74.517
-72.778
-71.147
-69.644
-68.268
-67.019
-65.887
-64.856
-63.904
-63.012
-62.164
-61.343
-60.538
-59.729
-58.897
-58.019
-57.075
-56.045
-54.91
-53.654
-52.262
-50.724
-49.028
-47.166
-45.133
-42.921
-40.522
-37.928
-35.134
-32.133
-28.924
-25.504
-21.873
-18.033
-13.989
-9.748
-5.318
-0.709
4.066
8.993
14.059
19.245
24.534
29.907
35.344
40.823
46.32
51.815
57.281
62.694
68.031
73.265
78.373
83.328
88.108
92.686
97.042
101.151
104.991
108.542
111.784
114.698
117.266
119.473
121.304
122.747
123.791
124.428
124.65
124.454
123.837
122.798
121.339
119.463
117.175
114.484
111.397
107.926
104.084
99.885
95.345
90.483
85.317
79.868
74.158
68.209
62.044
55.69
49.17
42.51
35.736
28.876
21.956
15.005
8.049
1.114
-5.775
-12.591
-19.306
-25.902
-32.358
-38.657
-44.782
-50.709
-56.414
-61.885
-67.115
-72.074
-76.739
-81.088
-85.1
-88.78
-92.149
-95.19
-97.877
-100.278
-102.472
-104.418
-106.124
-107.612
-108.721
-109.918
-111.66
-113.323
-114.723
-114.702
-111.87
-107.796
-103.531
-100.633
-101.235
-103.481
-105.798
-107.115
-105.648
-102.698
-99.586
-96.614
-94.592
-93.073
-91.476
-89.925
-88.358
-86.823
-85.451
-84.171
-82.929
-81.75
-80.646
-79.615
-78.661
-77.793
-77.015
-76.341
-75.784
-75.339
-75
-74.768
-74.641
-74.616
-74.692
-74.864
-75.127
-75.477
-75.912
-76.425
-77.015
-77.674
-78.398
-79.183
-80.023
-80.913
-81.849
-82.826
-83.838
-84.883
-85.954
-87.048
-88.162
-89.29
-90.429
-91.577
-92.728
-93.88
-95.029
-96.173
-97.309
-98.433
-99.543
-100.636
-101.709
-102.76
-103.786
-104.784
-105.753
-106.689
-107.591
-108.456
-109.281
-110.066
-110.806
-111.502
-112.15
-112.749
-113.298
-113.795
-114.24
-114.63
-114.967
-115.248
-115.474
-115.644
-115.76
-115.822
-115.83
-115.786
-115.692
-115.55
-115.362
-115.131
-114.86
-114.554
-114.215
-113.848
-113.458
-113.049
-112.627
-112.196
-111.764
-111.334
-110.912
-110.505
-110.117
-109.755
-109.421
-109.123
-108.863
-108.645
-108.473
-108.35
-108.279
-108.26
-108.295
-108.384
-108.529
-108.727
-108.978
-109.28
-109.628
-110.02
-110.451
-110.916
-111.408
-111.921
-112.447
-112.978
-113.506
-114.021
-114.513
-114.973
-115.389
-115.751
-116.049
-116.272
-116.408
-116.449
-116.384
-116.205
-115.904
-115.472
-114.903
-114.191
-113.332
-112.322
-111.159
-109.841
-108.369
-106.744
-104.969
-103.048
-100.986
-98.791
-96.476
-94.052
-91.535
-88.94
-86.288
-83.597
-80.89
-78.189
-75.513
-72.884
-70.32
-67.844
-65.476
-63.241
-61.158
-59.244
-57.515
-55.983
-54.658
-53.548
-52.653
-51.972
-51.501
-51.242
-51.203
-51.395
-51.826
-52.502
-53.422
-54.579
-55.966
-57.573
-59.379
-61.371
-63.527
-65.82
-68.234
-70.74
-73.308
-75.905
-78.463
-80.89
-83.12
-85.118
-86.906
-88.578
-90.221
-91.89
-93.674
-95.685
-97.979
-100.539
-103.213
-105.648
-107.495
-108.545
-108.658
-107.717
-105.725
-102.689
-98.74
-94.373
-90.061
-86.016
-82.467
-79.541
-77.691
-78.125
-81.11
-86.117
-91.949
-96.133
-99.13
-103.152
-109.536
-120.647
-134.343
-145.809
-153.389
-153.85
-145.431
-126.829
-91.021
-32.467
51.934
162.339
291.743
432.43
576.35
715.129
841.38
943.878
1011.633
1034.564
1005.218
925.045
799.27
638.693
459.723
278.388
113.077
-20.002
-112.037
-160.868
-172.172
-157.503
-129.01
-96.753
-68.842
-49.398
-39.423
-38.084
-41.613
-46.088
-48.876
-49.408
-49.49
-51.356
-56.585
-64.905
-74.748
-84.318
-92.001
-97.14
-99.673
-99.869
-98.296
-95.443
-91.768
-87.797
-83.992
-80.803
-78.667
-77.732
-77.933
-79.12
-81.06
-83.521
-86.284
-89.078
-91.598
-93.629
-95.069
-95.88
-96.083
-95.698
-94.734
-93.223
-91.227
-88.812
-86.039
-82.961
-79.62
-76.061
-72.351
-68.56
-64.757
-61.008
-57.357
-53.828
-50.44
-47.203
-44.117
-41.178
-38.373
-35.678
-33.076
-30.549
-28.079
-25.651
-23.244
-20.834
-18.396
-15.909
-13.351
-10.706
-7.957
-5.088
-2.087
1.06
4.362
7.827
11.465
15.284
19.293
23.499
27.908
32.521
37.341
42.366
47.594
53.019
58.633
64.423
70.378
76.483
82.719
89.069
95.51
102.02
108.574
115.147
121.71
128.237
134.697
141.061
147.299
153.38
159.275
164.952
170.383
175.539
180.391
184.911
189.075
192.856
196.232
199.18
201.68
203.715
205.269
206.328
206.881
206.92
206.439
205.436
203.909
201.863
199.3
196.23
192.662
188.61
184.088
179.114
173.708
167.891
161.688
155.123
148.224
141.018
133.537
125.809
117.868
109.744
101.471
93.082
84.611
76.09
67.553
59.032
50.559
42.166
33.883
25.738
17.76
9.974
2.404
-4.926
-11.996
-18.787
-25.282
-31.468
-37.331
-42.861
-48.051
-52.895
-57.389
-61.532
-65.326
-68.772
-71.877
-74.645
-77.087
-79.213
-81.033
-82.562
-83.813
-84.803
-85.548
-86.066
-86.376
-86.495
-86.443
-86.239
-85.903
-85.454
-84.91
-84.29
-83.613
-82.894
-82.15
-81.397
-80.648
-79.917
-79.215
-78.553
-77.94
-77.384
-76.891
-76.465
-76.111
-75.83
-75.623
-75.489
-75.426
-75.431
-75.5
-75.627
-75.805
-76.028
-76.288
-76.574
-76.879
-77.191
-77.502
-77.801
-78.076
-78.319
-78.519
-78.665
-78.749
-78.761
-78.692
-78.536
-78.285
-77.933
-77.473
-76.903
-76.219
-75.417
-74.497
-73.457
-72.3
-71.026
-69.637
-68.139
-66.535
-64.83
-63.032
-61.147
-59.183
-57.149
-55.055
-52.909
-50.723
-48.506
-46.269
-44.023
-41.78
-39.551
-37.346
-35.176
-33.053
-30.986
-28.987
-27.063
-25.225
-23.481
-21.84
-20.308
-18.893
-17.601
-16.437
-15.406
-14.512
-13.758
-13.147
-12.679
-12.356
-12.177
-12.142
-12.249
-12.496
-12.88
-13.399
-14.047
-14.821
-15.715
-16.723
-17.84
-19.059
-20.374
-21.776
-23.259
-24.814
-26.434
-28.111
-29.835
-31.599
-33.392
-35.207
-37.033
-38.862
-40.684
-42.49
-44.27
-46.015
-47.717
-49.368
-50.959
-52.481
-53.928
-55.291
-56.564
-57.739
-58.809
-59.769
-60.61
-61.329
-61.92
-62.378
-62.699
-62.879
-62.915
-62.804
-62.545
-62.134
-61.572
-60.858
-59.991
-58.975
-57.81
-56.501
-55.051
-53.465
-51.75
-49.913
-47.962
-45.904
-43.749
-41.506
-39.185
-36.797
-34.354
-31.869
-29.358
-26.836
-24.324
-21.84
-19.405
-17.04
-14.765
-12.6
-10.565
-8.675
-6.945
-5.392
-4.03
-2.876
-1.943
-1.239
-0.77
-0.54
-0.55
-0.798
-1.278
-1.974
-2.875
-3.967
-5.25
-6.727
-8.404
-10.28
-12.346
-14.599
-17.038
-19.66
-22.463
-25.427
-28.515
-31.695
-34.935
-38.208
-41.495
-44.742
-47.855
-50.764
-53.421
-55.831
-58.067
-60.168
-62.138
-64.026
-65.91
-67.824
-69.749
-71.52
-72.817
-73.393
-73.037
-71.552
-68.858
-64.976
-60.079
-54.553
-48.835
-43.326
-38.563
-34.96
-32.655
-31.741
-32.039
-33.762
-37.895
-45.052
-54.947
-65.582
-74.065
-78.624
-79.496
-80.136
-83.958
-92.359
-104.885
-115.994
-119.248
-108.433
-75.845
-18.369
65.591
175.702
306.305
452.651
606.72
757.325
893.722
1000.754
1066.411
1083.938
1050.219
971.324
854.978
709.37
545.706
373.685
206.867
61.342
-50.527
-120.086
-147.287
-140.704
-112.216
-75.337
-41.494
-17.597
-6.477
-6.226
-11.937
-17.944
-19.828
-17.115
-11.941
-7.497
-6.913
-10.462
-16.731
-24.214
-31.161
-36.884
-41.53
-44.996
-47.207
-48.301
-48.412
-47.755
-46.727
-45.641
-44.709
-44.263
-44.604
-45.802
-47.816
-50.5
-53.592
-56.859
-60.087
-63.034
-65.486
-67.328
-68.515
-69.055
-69.001
-68.401
-67.307
-65.78
-63.889
-61.692
-59.238
-56.577
-53.763
-50.856
-47.926
-45.026
-42.188
-39.435
-36.778
-34.216
-31.747
-29.357
-27.023
-24.728
-22.457
-20.192
-17.922
-15.626
-13.284
-10.872
-8.368
-5.751
-3.001
-0.101
2.964
6.206
9.635
13.259
17.084
21.114
25.357
29.817
34.5
39.407
44.539
49.895
55.472
61.263
67.26
73.452
79.823
86.36
93.043
99.853
106.767
113.762
120.813
127.892
134.97
142.019
149.008
155.904
162.677
169.293
175.721
181.928
187.883
193.555
198.914
203.931
208.58
212.834
216.668
220.062
222.993
225.443
227.398
228.842
229.765
230.158
230.015
229.335
228.117
226.364
224.082
221.28
217.97
214.165
209.881
205.138
199.957
194.36
188.373
182.024
175.34
168.352
161.091
153.588
145.876
137.989
129.96
121.823
113.61
105.355
97.091
88.85
80.662
72.559
64.568
56.718
49.035
41.543
34.266
27.225
20.438
13.922
7.693
1.763
-3.857
-9.158
-14.134
-18.781
-23.096
-27.078
-30.731
-34.056
-37.06
-39.749
-42.133
-44.22
-46.021
-47.549
-48.818
-49.84
-50.632
-51.207
-51.582
-51.773
-51.797
-51.67
-51.408
-51.029
-50.547
-49.979
-49.34
-48.645
-47.907
-47.141
-46.357
-45.569
-44.787
-44.02
-43.277
-42.567
-41.895
-41.269
-40.691
-40.167
-39.698
-39.288
-38.937
-38.646
-38.415
-38.242
-38.127
-38.067
-38.06
-38.103
-38.193
-38.326
-38.498
-38.706
-38.944
-39.21
-39.497
-39.803
-40.123
-40.452
-40.787
-41.125
-41.46
-41.791
-42.114
-42.427
-42.728
-43.015
-43.286
-43.541
-43.779
-44.001
-44.205
-44.393
-44.566
-44.724
-44.868
-45
-45.121
-45.233
-45.338
-45.437
-45.532
-45.626
-45.721
-45.819
-45.922
-46.032
-46.152
-46.283
-46.429
-46.591
-46.772
-46.973
-47.196
-47.444
-47.717
-48.018
-48.347
-48.705
-49.093
-49.512
-49.962
-50.442
-50.953
-51.495
-52.067
-52.67
-53.302
-53.964
-54.655
-55.374
-56.121
-56.894
-57.694
-58.519
-59.368
-60.24
-61.135
-62.05
-62.985
-63.938
-64.906
-65.888
-66.882
-67.884
-68.891
-69.902
-70.911
-71.917
-72.915
-73.903
-74.877
-75.832
-76.766
-77.673
-78.55
-79.391
-80.192
-80.947
-81.652
-82.3
-82.887
-83.407
-83.854
-84.223
-84.508
-84.704
-84.805
-84.805
-84.699
-84.481
-84.148
-83.695
-83.118
-82.417
-81.589
-80.632
-79.546
-78.333
-76.993
-75.529
-73.942
-72.236
-70.417
-68.49
-66.463
-64.344
-62.144
-59.876
-57.554
-55.191
-52.804
-50.412
-48.031
-45.683
-43.387
-41.161
-39.027
-37.005
-35.115
-33.378
-31.813
-30.436
-29.266
-28.316
-27.604
-27.141
-26.937
-26.993
-27.311
-27.888
-28.727
-29.835
-31.21
-32.851
-34.752
-36.909
-39.317
-41.968
-44.843
-47.904
-51.107
-54.41
-57.775
-61.18
-64.605
-68.02
-71.38
-74.626
-77.707
-80.583
-83.22
-85.573
-87.564
-89.162
-90.421
-91.491
-92.596
-93.945
-95.67
-97.886
-100.774
-104.408
-108.709
-113.432
-118.059
-122.076
-125.149
-126.945
-127.107
-125.428
-121.939
-116.987
-111.273
-105.492
-100.296
-96.33
-94.635
-96.705
-102.856
-112.495
-124.068
-134.121
-140.973
-144.776
-145.262
-144.327
-142.695
-137.583
-126.736
-105.57
-67.499
-8.302
76.391
188.965
326.306
481.838
644.309
797.989
926.879
1016.662
1056.92
1043.686
978.528
867.144
718.913
545.435
361.044
182.705
26.211
-95.471
-175.835
-217.235
-225.488
-209.574
-179.917
-143.763
-109.902
-86.608
-76.715
-80.94
-95.152
-110.292
-120.489
-122.971
-117.304
-108.567
-101.654
-98.26
-99.742
-104.392
-109.09
-112.901
-115.107
-115.651
-115.565
-115.235
-114.734
-114.292
-113.871
-113.469
-113.28
-113.483
-114.281
-115.759
-117.827
-120.309
-122.965
-125.566
-127.945
-129.932
-131.333
-132.046
-132.037
-131.312
-129.949
-128.025
-125.589
-122.707
-119.456
-115.894
-112.099
-108.143
-104.088
-100.006
-95.954
-91.97
-88.084
-84.312
-80.656
-77.112
-73.668
-70.299
-66.989
-63.725
-60.494
-57.286
-54.085
-50.873
-47.63
-44.338
-40.979
-37.54
-34.005
-30.361
-26.601
-22.716
-18.705
-14.565
-10.293
-5.886
-1.341
3.345
8.173
13.143
18.252
23.497
28.874
34.373
39.985
45.695
51.491
57.357
63.276
69.229
75.196
81.157
87.089
92.969
98.773
104.477
110.055
115.481
120.731
125.778
130.597
135.165
139.458
143.453
147.129
150.466
153.446
156.05
158.264
160.074
161.466
162.431
162.96
163.047
162.687
161.88
160.627
158.93
156.795
154.23
151.244
147.849
144.058
139.888
135.355
130.478
125.279
119.778
114
107.97
101.713
95.256
88.624
81.844
74.943
67.948
60.886
53.781
46.659
39.546
32.465
25.441
18.496
11.65
4.923
-1.668
-8.107
-14.38
-20.476
-26.387
-32.106
-37.628
-42.952
-48.075
-53
-57.73
-62.267
-66.616
-70.782
-74.77
-78.589
-82.248
-85.755
-89.118
-92.35
-95.457
-98.449
-101.331
-104.104
-106.768
-109.323
-111.775
-114.133
-116.411
-118.613
-120.75
-122.831
-124.861
-126.844
-128.769
-130.605
-132.327
-133.908
-135.331
-136.599
-137.704
-138.627
-139.338
-139.798
-139.973
-139.847
-139.383
-138.514
-137.223
-135.549
-133.614
-131.629
-129.786
-128.212
-127.043
-126.451
-126.54
-127.267
-128.437
-129.686
-130.653
-131.133
-130.927
-129.686
-127.124
-123.184
-117.999
-111.99
-105.699
-99.44
-93.59
-88.913
-86.239
-86.284
-89.601
-96.331
-105.807
-116.751
-127.478
-135.34
-138.711
-138.026
-133.383
-124.821
-109.713
-80.429
-29.803
47.672
153.369
281.171
423.457
571.071
714.142
844.559
950.252
1018.255
1036.578
994.839
892.45
737.004
543.602
334.971
133.751
-39.458
-168.512
-246.224
-273.56
-258.333
-214.293
-157.488
-101.667
-57.428
-29.954
-17.029
-13.479
-12.563
-8.339
-0.563
8.108
13.997
13.408
6.407
-4.76
-17.706
-29.837
-39.944
-47.815
-53.173
-56.2
-57.333
-56.956
-55.598
-53.819
-52.031
-50.663
-50.182
-50.755
-52.285
-54.587
-57.34
-60.224
-63.031
-65.532
-67.475
-68.748
-69.313
-69.174
-68.415
-67.108
-65.285
-63.007
-60.335
-57.309
-53.99
-50.431
-46.685
-42.819
-38.89
-34.938
-31.001
-27.103
-23.258
-19.479
-15.762
-12.099
-8.485
-4.919
-1.399
2.076
5.512
8.922
12.317
15.71
19.113
22.536
25.991
29.487
33.031
36.627
40.277
43.981
47.744
51.568
55.456
59.412
63.437
67.531
71.693
75.924
80.219
84.572
88.975
93.419
97.893
102.385
106.881
111.366
115.823
120.233
124.577
128.834
132.982
136.999
140.859
144.541
148.018
151.268
154.265
156.987
159.408
161.508
163.264
164.656
165.666
166.277
166.472
166.237
165.562
164.437
162.854
160.808
158.297
155.321
151.882
147.988
143.646
138.866
133.664
128.055
122.058
115.696
108.992
101.971
94.662
87.094
79.299
71.31
63.16
54.884
46.518
38.097
29.659
21.239
12.873
4.596
-3.557
-11.551
-19.354
-26.935
-34.265
-41.313
-48.055
-54.466
-60.524
-66.207
-71.499
-76.384
-80.849
-84.884
-88.482
-91.637
-94.346
-96.612
-98.436
-99.824
-100.784
-101.326
-101.463
-101.207
-100.576
-99.587
-98.259
-96.614
-94.673
-92.458
-89.994
-87.306
-84.417
-81.353
-78.139
-74.799
-71.36
-67.845
-64.277
-60.68
-57.077
-53.489
-49.936
-46.437
-43.012
-39.675
-36.443
-33.328
-30.344
-27.5
-24.805
-22.267
-19.892
-17.683
-15.644
-13.776
-12.079
-10.552
-9.192
-7.996
-6.959
-6.075
-5.337
-4.739
-4.271
-3.926
-3.694
-3.566
-3.533
-3.584
-3.71
-3.9
-4.144
-4.433
-4.758
-5.107
-5.473
-5.847
-6.221
-6.588
-6.94
-7.271
-7.576
-7.85
-8.089
-8.288
-8.445
-8.557
-8.623
-8.642
-8.613
-8.537
-8.415
-8.247
-8.036
-7.784
-7.493
-7.167
-6.807
-6.418
-6.003
-5.566
-5.109
-4.638
-4.156
-3.666
-3.173
-2.681
-2.191
-1.71
-1.238
-0.779
-0.337
0.088
0.491
0.873
1.23
1.562
1.867
2.145
2.395
2.617
2.812
2.979
3.119
3.234
3.324
3.39
3.433
3.454
3.453
3.433
3.394
3.337
3.261
3.169
3.06
2.934
2.791
2.632
2.455
2.259
2.044
1.809
1.552
1.271
0.965
0.631
0.267
-0.129
-0.56
-1.028
-1.538
-2.091
-2.692
-3.344
-4.049
-4.812
-5.635
-6.521
-7.473
-8.494
-9.586
-10.75
-11.99
-13.304
-14.695
-16.163
-17.706
-19.325
-21.018
-22.783
-24.618
-26.52
-28.486
-30.512
-32.593
-34.727
-36.907
-39.128
-41.385
-43.671
-45.98
-48.306
-50.642
-52.981
-55.316
-57.639
-59.944
-62.222
-64.468
-66.673
-68.831
-70.934
-72.976
-74.951
-76.852
-78.674
-80.411
-82.059
-83.615
-85.074
-86.434
-87.691
-88.843
-89.89
-90.828
-91.658
-92.377
-92.987
-93.486
-93.876
-94.158
-94.332
-94.401
-94.367
-94.23
-93.995
-93.663
-93.236
-92.718
-92.112
-91.421
-90.649
-89.802
-88.882
-87.895
-86.845
-85.737
-84.577
-83.37
-82.119
-80.831
-79.51
-78.163
-76.796
-75.417
-74.032
-72.65
-71.281
-69.937
-68.627
-67.364
-66.161
-65.03
-63.984
-63.036
-62.199
-61.484
-60.902
-60.464
-60.182
-60.066
-60.125
-60.368
-60.803
-61.436
-62.271
-63.308
-64.542
-65.965
-67.573
-69.36
-71.332
-73.488
-75.825
-78.342
-81.034
-83.893
-86.909
-90.057
-93.289
-96.567
-99.852
-103.115
-106.349
-109.536
-112.642
-115.629
-118.442
-121.036
-123.383
-125.435
-127.117
-128.405
-129.336
-130.029
-130.703
-131.543
-132.661
-134.183
-136.268
-138.985
-142.265
-145.877
-149.406
-152.479
-154.886
-156.388
-156.637
-155.38
-152.6
-148.51
-143.621
-138.492
-133.456
-129.008
-125.963
-125.027
-126.747
-131.439
-138.9
-148.792
-160.269
-171.196
-178.961
-180.906
-175.896
-165.143
-149.474
-128.222
-97.283
-49.505
20.847
116.002
232.594
362.823
497.009
625.281
739.514
831.457
893.52
919.057
901.49
837.744
728.698
579.881
404.166
220.215
48.512
-91.467
-187.115
-237.097
-246.707
-227.286
-193.282
-154.798
-121.46
-99.682
-88.788
-86.833
-88.116
-85.888
-79.219
-69.515
-60.399
-56.578
-58.732
-65.29
-74.094
-82.336
-88.677
-92.847
-94.523
-93.857
-91.223
-86.951
-81.593
-75.784
-70.04
-64.875
-60.807
-58.055
-56.591
-56.285
-56.887
-58.109
-59.707
-61.38
-62.792
-63.754
-64.188
-64.069
-63.441
-62.342
-60.786
-58.825
-56.531
-53.959
-51.159
-48.174
-45.027
-41.771
-38.471
-35.19
-31.996
-28.933
-26.025
-23.288
-20.729
-18.345
-16.129
-14.066
-12.13
-10.302
-8.562
-6.892
-5.274
-3.688
-2.108
-0.51
1.131
2.839
4.632
6.526
8.538
10.682
12.968
15.407
18.006
20.774
23.717
26.845
30.163
33.677
37.389
41.3
45.411
49.719
54.219
58.905
63.767
68.794
73.974
79.294
84.736
90.283
95.917
101.618
107.362
113.129
118.895
124.634
130.323
135.936
141.446
146.83
152.061
157.114
161.965
166.589
170.964
175.068
178.879
182.377
185.543
188.36
190.812
192.884
194.563
195.838
196.701
197.144
197.162
196.752
195.914
194.647
192.956
190.845
188.32
185.391
182.067
178.363
174.291
169.868
165.111
160.039
154.673
149.033
143.143
137.024
130.702
124.201
117.546
110.763
103.877
96.914
89.901
82.863
75.825
68.813
61.852
54.965
48.177
41.51
34.985
28.624
22.447
16.472
10.716
5.196
-0.073
-5.078
-9.807
-14.249
-18.397
-22.242
-25.779
-29.003
-31.913
-34.506
-36.784
-38.746
-40.397
-41.74
-42.781
-43.525
-43.98
-44.154
-44.057
-43.698
-43.087
-42.237
-41.159
-39.865
-38.369
-36.684
-34.824
-32.803
-30.635
-28.336
-25.92
-23.402
-20.796
-18.118
-15.383
-12.604
-9.795
-6.971
-4.145
-1.329
1.463
4.22
6.931
9.583
12.167
14.672
17.09
19.41
21.625
23.727
25.709
27.563
29.283
30.865
32.302
33.59
34.726
35.706
36.529
37.191
37.694
38.035
38.216
38.239
38.105
37.816
37.377
36.791
36.063
35.197
34.2
33.078
31.837
30.484
29.027
27.474
25.832
24.109
22.315
20.457
18.546
16.588
14.594
12.573
10.533
8.484
6.433
4.391
2.365
0.364
-1.606
-3.536
-5.421
-7.254
-9.031
-10.746
-12.394
-13.974
-15.481
-16.914
-18.271
-19.551
-20.755
-21.882
-22.935
-23.913
-24.821
-25.659
-26.43
-27.139
-27.787
-28.378
-28.917
-29.406
-29.851
-30.254
-30.621
-30.955
-31.261
-31.541
-31.801
-32.043
-32.271
-32.486
-32.69
-32.885
-33.072
-33.25
-33.421
-33.583
-33.735
-33.876
-34.003
-34.113
-34.203
-34.269
-34.307
-34.311
-34.278
-34.203
-34.08
-33.906
-33.676
-33.386
-33.032
-32.611
-32.119
-31.552
-30.909
-30.186
-29.384
-28.5
-27.535
-26.491
-25.371
-24.179
-22.922
-21.607
-20.242
-18.837
-17.402
-15.949
-14.49
-13.039
-11.608
-10.21
-8.859
-7.57
-6.358
-5.238
-4.221
-3.321
-2.549
-1.915
-1.432
-1.106
-0.94
-0.934
-1.089
-1.41
-1.905
-2.58
-3.433
-4.464
-5.668
-7.038
-8.566
-10.231
-11.995
-13.821
-15.663
-17.484
-19.262
-20.97
-22.584
-24.064
-25.358
-26.422
-27.22
-27.718
-27.89
-27.706
-27.147
-26.271
-25.203
-24.1
-23.165
-22.553
-22.389
-22.824
-23.945
-25.733
-28.096
-30.79
-33.475
-35.881
-37.677
-38.512
-38.262
-36.787
-33.958
-30.039
-25.258
-20.266
-16.551
-14.605
-14.266
-14.808
-14.117
-12.54
-12.177
-14.207
-20.292
-28.093
-32.854
-32.608
-24.889
-9.379
14.33
51.833
107.88
186.86
290.193
412.044
545.831
682.706
812.348
926.221
1012.416
1059.001
1056.768
998.886
886.453
728.417
540.123
342.873
158.8
6.416
-102.83
-166.654
-190.451
-184.255
-159.621
-127.715
-98.163
-78.052
-70.66
-74.222
-83.352
-91.542
-94.021
-90.526
-83.935
-77.989
-75.847
-77.922
-82.816
-89.017
-95.096
-100.617
-105.763
-110.538
-114.816
-118.318
-120.86
-122.46
-123.262
-123.443
-123.169
-122.65
-122.165
-122.046
-122.458
-123.365
-124.639
-126.068
-127.434
-128.571
-129.297
-129.406
-128.794
-127.436
-125.351
-122.624
-119.336
-115.54
-111.305
-106.708
-101.805
-96.666
-91.354
-85.925
-80.447
-74.979
-69.557
-64.216
-58.977
-53.85
-48.838
-43.939
-39.138
-34.427
-29.803
-25.261
-20.798
-16.406
-12.073
-7.788
-3.537
0.692
4.91
9.128
13.355
17.597
21.859
26.145
30.454
34.791
39.159
43.563
48.005
52.489
57.017
61.589
66.206
70.865
75.563
80.294
85.05
89.822
94.601
99.375
104.132
108.857
113.536
118.153
122.689
127.126
131.445
135.626
139.647
143.489
147.13
150.548
153.723
156.635
159.262
161.587
163.591
165.256
166.566
167.506
168.063
168.224
167.978
167.317
166.232
164.719
162.774
160.397
157.588
154.35
150.69
146.614
142.132
137.258
132.003
126.385
120.422
114.134
107.542
100.67
93.543
86.188
78.633
70.906
63.036
55.055
46.993
38.881
30.749
22.629
14.552
6.547
-1.356
-9.127
-16.74
-24.166
-31.381
-38.36
-45.081
-51.523
-57.666
-63.494
-68.991
-74.144
-78.942
-83.377
-87.441
-91.133
-94.448
-97.389
-99.959
-102.163
-104.007
-105.504
-106.663
-107.5
-108.028
-108.267
-108.233
-107.948
-107.431
-106.706
-105.795
-104.721
-103.508
-102.18
-100.762
-99.277
-97.75
-96.203
-94.661
-93.145
-91.676
-90.275
-88.962
-87.755
-86.669
-85.721
-84.925
-84.292
-83.832
-83.554
-83.464
-83.567
-83.866
-84.361
-85.052
-85.935
-87.007
-88.26
-89.687
-91.278
-93.024
-94.91
-96.926
-99.056
-101.285
-103.597
-105.977
-108.407
-110.87
-113.348
-115.824
-118.28
-120.698
-123.061
-125.351
-127.553
-129.65
-131.627
-133.47
-135.164
-136.699
-138.061
-139.243
-140.233
-141.026
-141.615
-141.996
-142.165
-142.121
-141.864
-141.395
-140.717
-139.833
-138.749
-137.472
-136.008
-134.368
-132.56
-130.595
-128.484
-126.241
-123.878
-121.409
-118.849
-116.213
-113.516
-110.774
-108.004
-105.221
-102.441
-99.682
-96.959
-94.287
-91.684
-89.162
-86.739
-84.426
-82.237
-80.184
-78.279
-76.531
-74.95
-73.544
-72.32
-71.283
-70.438
-69.789
-69.338
-69.088
-69.038
-69.188
-69.536
-70.079
-70.814
-71.734
-72.833
-74.103
-75.536
-77.123
-78.853
-80.713
-82.694
-84.78
-86.959
-89.217
-91.538
-93.906
-96.307
-98.725
-101.143
-103.546
-105.919
-108.248
-110.517
-112.714
-114.825
-116.837
-118.739
-120.52
-122.17
-123.678
-125.038
-126.242
-127.284
-128.161
-128.87
-129.409
-129.781
-129.991
-130.043
-129.945
-129.708
-129.341
-128.859
-128.275
-127.603
-126.858
-126.053
-125.205
-124.33
-123.445
-122.567
-121.714
-120.901
-120.143
-119.453
-118.839
-118.306
-117.859
-117.498
-117.229
-117.063
-117.011
-117.08
-117.283
-117.624
-118.105
-118.725
-119.465
-120.294
-121.187
-122.114
-123.062
-124.021
-124.965
-125.867
-126.692
-127.387
-127.918
-128.237
-128.261
-127.953
-127.312
-126.399
-125.382
-124.43
-123.645
-123.172
-123.161
-123.677
-124.753
-126.214
-127.671
-128.848
-129.541
-129.565
-128.788
-127.039
-124.17
-120.403
-116.214
-111.963
-108.005
-104.548
-101.79
-100.257
-100.428
-102.51
-106.541
-112.409
-119.97
-128.614
-136.703
-142.122
-142.464
-136.815
-126.413
-111.614
-91.869
-63.501
-19.151
46.165
135.604
248.456
378.556
520.253
665.232
803.374
925.118
1017.29
1069.493
1075.099
1029.844
936.992
803.166
638.648
460.388
286.471
134.454
18.625
-56.633
-95.322
-105.203
-96.841
-79.025
-56.499
-34.751
-18.952
-11.386
-13.758
-24.184
-35.79
-43.292
-43.694
-35.7
-23.762
-13.466
-7.381
-7.558
-12.737
-19.209
-25.247
-29.635
-31.906
-32.957
-33.157
-32.519
-31.204
-29.283
-26.966
-24.633
-22.703
-21.541
-21.298
-21.983
-23.49
-25.584
-28.04
-30.632
-33.065
-35.085
-36.551
-37.393
-37.619
-37.293
-36.457
-35.157
-33.469
-31.463
-29.204
-26.748
-24.134
-21.401
-18.601
-15.792
-13.033
-10.365
-7.808
-5.375
-3.063
-0.866
1.227
3.233
5.179
7.09
8.986
10.893
12.833
14.828
16.907
19.095
21.418
23.902
26.565
29.42
32.483
35.769
39.291
43.07
47.118
51.44
56.034
60.894
66.003
71.346
76.905
82.651
88.563
94.627
100.834
107.192
113.711
120.382
127.189
134.096
141.069
148.09
155.145
162.223
169.328
176.458
183.617
190.833
198.113
205.43
212.735
219.937
226.927
233.628
239.974
245.915
251.415
256.415
260.856
264.692
267.86
270.296
271.93
272.656
272.395
271.123
268.848
265.632
261.575
256.742
251.192
244.983
238.157
230.771
222.88
214.523
205.747
196.617
187.209
177.634
167.992
158.34
148.712
139.106
129.493
119.868
110.232
100.582
90.929
81.288
71.675
62.128
52.685
43.369
34.192
25.15
16.235
7.462
-1.148
-9.56
-17.73
-25.624
-33.213
-40.463
-47.351
-53.861
-59.982
-65.718
-71.078
-76.066
-80.684
-84.931
-88.805
-92.312
-95.458
-98.254
-100.712
-102.845
-104.668
-106.197
-107.449
-108.439
-109.179
-109.681
-109.954
-110.008
-109.855
-109.506
-108.972
-108.267
-107.4
-106.386
-105.238
-103.965
-102.581
-101.094
-99.515
-97.852
-96.115
-94.311
-92.449
-90.536
-88.58
-86.589
-84.569
-82.527
-80.471
-78.406
-76.338
-74.275
-72.222
-70.184
-68.167
-66.178
-64.222
-62.305
-60.431
-58.608
-56.84
-55.132
-53.49
-51.918
-50.42
-48.999
-47.659
-46.403
-45.232
-44.15
-43.158
-42.256
-41.447
-40.729
-40.103
-39.568
-39.121
-38.761
-38.484
-38.287
-38.165
-38.115
-38.13
-38.206
-38.335
-38.512
-38.73
-38.981
-39.258
-39.552
-39.856
-40.163
-40.465
-40.755
-41.026
-41.273
-41.488
-41.667
-41.805
-41.897
-41.938
-41.927
-41.859
-41.733
-41.547
-41.301
-40.995
-40.63
-40.21
-39.736
-39.214
-38.646
-38.04
-37.4
-36.733
-36.047
-35.35
-34.649
-33.954
-33.273
-32.615
-31.99
-31.406
-30.871
-30.391
-29.974
-29.625
-29.347
-29.143
-29.016
-28.967
-28.999
-29.113
-29.308
-29.585
-29.945
-30.387
-30.909
-31.505
-32.169
-32.89
-33.66
-34.467
-35.299
-36.141
-36.975
-37.789
-38.571
-39.307
-39.984
-40.584
-41.08
-41.456
-41.702
-41.808
-41.769
-41.585
-41.252
-40.783
-40.201
-39.529
-38.787
-37.984
-37.11
-36.16
-35.138
-34.045
-32.892
-31.672
-30.356
-28.928
-27.381
-25.701
-23.878
-21.875
-19.626
-17.084
-14.219
-11.031
-7.558
-3.838
0.099
4.202
8.413
12.646
16.782
20.728
24.419
27.779
30.735
33.178
34.965
35.981
36.151
35.432
33.831
31.369
28.07
24
19.246
13.92
8.172
2.128
-4.117
-10.453
-16.761
-22.912
-28.729
-34.036
-38.736
-42.791
-46.232
-49.181
-51.759
-54.046
-56.197
-58.426
-60.863
-63.576
-66.49
-69.31
-71.824
-73.986
-75.668
-76.686
-76.893
-76.058
-74.102
-71.299
-67.84
-63.766
-59.311
-54.833
-50.796
-47.995
-47.254
-49.065
-53.822
-61.954
-72.914
-85.152
-96.948
-105.656
-109.55
-108.809
-102.398
-88.956
-65.451
-25.552
34.899
118.816
227.088
355.391
499.402
651.603
800.4
934.33
1039.027
1102.961
1120.688
1090.038
1014.362
899.099
750.067
577.043
393.834
217.302
66.28
-44.826
-111.572
-136.872
-131.719
-111.272
-86.471
-67.011
-58.116
-57.673
-63.061
-68.862
-69.15
-63.924
-55.171
-46.513
-42.614
-44.367
-50.358
-58.757
-67.391
-75.139
-81.795
-87.059
-90.593
-92.335
-92.484
-91.396
-89.492
-87.242
-85.044
-83.344
-82.683
-83.281
-85.082
-87.958
-91.651
-95.88
-100.413
-104.932
-109.059
-112.582
-115.409
-117.501
-118.914
-119.684
-119.822
-119.392
-118.476
-117.14
-115.45
-113.452
-111.18
-108.69
-106.055
-103.342
-100.625
-97.949
-95.336
-92.803
-90.353
-87.983
-85.684
-83.438
-81.218
-79.002
-76.77
-74.504
-72.186
-69.796
-67.308
-64.698
-61.942
-59.019
-55.912
-52.607
-49.09
-45.351
-41.381
-37.174
-32.729
-28.042
-23.11
-17.933
-12.512
-6.851
-0.957
5.162
11.496
18.033
24.757
31.653
38.703
45.886
53.182
60.566
68.011
75.488
82.965
90.408
97.782
105.051
112.181
119.136
125.884
132.39
138.626
144.559
150.158
155.386
160.208
164.59
168.505
171.935
174.865
177.291
179.217
180.651
181.605
182.088
182.102
181.639
180.685
179.224
177.239
174.73
171.708
168.187
164.179
159.691
154.728
149.282
143.335
136.861
129.829
122.225
114.06
105.373
96.233
86.726
76.956
67.01
56.957
46.862
36.784
26.786
16.93
7.295
-2.034
-10.953
-19.345
-27.118
-34.204
-40.579
-46.256
-51.28
-55.726
-59.658
-63.123
-66.163
-68.81
-71.091
-73.035
-74.677
-76.06
-77.244
-78.312
-79.334
-80.367
-81.44
-82.555
-83.69
-84.8
-85.848
-86.811
-87.671
-88.43
-89.094
-89.675
-90.19
-90.659
-91.087
-91.469
-91.802
-92.081
-92.315
-92.524
-92.74
-93.003
-93.348
-93.802
-94.384
-95.104
-95.967
-96.981
-98.141
-99.434
-100.852
-102.392
-104.049
-105.821
-107.692
-109.631
-111.601
-113.558
-115.462
-117.288
-119.008
-120.598
-122.025
-123.241
-124.213
-124.919
-125.327
-125.413
-125.147
-124.48
-123.458
-122.203
-120.857
-119.627
-118.693
-118.153
-118.17
-118.922
-120.368
-122.386
-124.739
-126.934
-128.602
-129.481
-129.155
-127.324
-123.941
-118.922
-112.421
-104.998
-97.61
-91.725
-88.587
-88.689
-90.544
-91.608
-91.21
-90.151
-91.386
-98.491
-110.733
-124.64
-135.972
-139.77
-133.422
-115.014
-80.007
-23.136
60.479
173.428
312.522
468.942
629.848
779.607
902.5
985.928
1020.958
1003.309
933.703
815.8
657.711
472.776
278.396
95.557
-55.991
-163.11
-221.218
-234.824
-215.216
-175.988
-130.512
-89.933
-61.279
-46.789
-43.717
-46.853
-50.3
-50.615
-48.671
-45.623
-43.751
-44.328
-45.567
-47.778
-50.832
-54.397
-59.908
-66.352
-72.58
-78.297
-82.46
-85.383
-87.745
-89.525
-90.89
-91.915
-92.577
-93.176
-94.109
-95.475
-97.218
-99.226
-101.303
-103.294
-105.105
-106.574
-107.5
-107.789
-107.42
-106.422
-104.887
-102.882
-100.448
-97.643
-94.533
-91.184
-87.659
-84.017
-80.3
-76.547
-72.789
-69.05
-65.349
-61.698
-58.096
-54.535
-51
-47.483
-43.976
-40.473
-36.967
-33.45
-29.906
-26.325
-22.692
-18.996
-15.227
-11.374
-7.426
-3.375
0.783
5.051
9.431
13.925
18.535
23.263
28.11
33.077
38.16
43.358
48.667
54.078
59.585
65.175
70.837
76.555
82.314
88.096
93.884
99.656
105.393
111.071
116.667
122.157
127.517
132.721
137.744
142.56
147.144
151.471
155.516
159.257
162.671
165.737
168.436
170.748
172.659
174.153
175.217
175.841
176.017
175.737
174.999
173.801
172.144
170.031
167.47
164.468
161.036
157.188
152.939
148.308
143.313
137.976
132.32
126.371
120.154
113.697
107.029
100.178
93.175
86.05
78.834
71.557
64.249
56.94
49.66
42.436
35.296
28.266
21.372
14.638
8.084
1.733
-4.398
-10.291
-15.931
-21.305
-26.401
-31.212
-35.728
-39.947
-43.864
-47.478
-50.79
-53.803
-56.521
-58.951
-61.101
-62.978
-64.595
-65.963
-67.095
-68.005
-68.708
-69.219
-69.553
-69.727
-69.758
-69.661
-69.453
-69.151
-68.768
-68.323
-67.827
-67.297
-66.746
-66.185
-65.627
-65.083
-64.562
-64.072
-63.622
-63.218
-62.865
-62.568
-62.33
-62.154
-62.04
-61.989
-61.999
-62.07
-62.199
-62.383
-62.616
-62.896
-63.216
-63.571
-63.956
-64.363
-64.786
-65.219
-65.654
-66.086
-66.507
-66.911
-67.291
-67.642
-67.957
-68.232
-68.461
-68.64
-68.764
-68.83
-68.836
-68.777
-68.654
-68.463
-68.205
-67.878
-67.484
-67.022
-66.495
-65.903
-65.25
-64.537
-63.768
-62.946
-62.076
-61.16
-60.204
-59.211
-58.187
-57.136
-56.064
-54.975
-53.875
-52.769
-51.662
-50.559
-49.466
-48.388
-47.329
-46.295
-45.29
-44.319
-43.386
-42.495
-41.65
-40.855
-40.113
-39.426
-38.797
-38.229
-37.723
-37.281
-36.903
-36.592
-36.346
-36.167
-36.053
-36.005
-36.022
-36.102
-36.245
-36.447
-36.708
-37.025
-37.395
-37.816
-38.283
-38.793
-39.343
-39.928
-40.545
-41.188
-41.853
-42.536
-43.231
-43.933
-44.637
-45.339
-46.034
-46.716
-47.381
-48.024
-48.642
-49.231
-49.786
-50.304
-50.782
-51.217
-51.605
-51.945
-52.235
-52.471
-52.654
-52.78
-52.851
-52.865
-52.821
-52.721
-52.565
-52.355
-52.09
-51.774
-51.408
-50.995
-50.539
-50.042
-49.508
-48.941
-48.345
-47.725
-47.086
-46.431
-45.765
-45.092
-44.418
-43.746
-43.08
-42.426
-41.787
-41.166
-40.569
-39.999
-39.46
-38.955
-38.488
-38.061
-37.678
-37.34
-37.052
-36.813
-36.627
-36.495
-36.419
-36.398
-36.434
-36.526
-36.674
-36.876
-37.131
-37.437
-37.791
-38.191
-38.634
-39.116
-39.634
-40.185
-40.765
-41.368
-41.992
-42.63
-43.279
-43.931
-44.582
-45.226
-45.855
-46.465
-47.048
-47.598
-48.108
-48.572
-48.981
-49.33
-49.612
-49.818
-49.942
-49.978
-49.918
-49.757
-49.491
-49.115
-48.625
-48.017
-47.29
-46.441
-45.469
-44.372
-43.151
-41.806
-40.338
-38.749
-37.043
-35.225
-33.301
-31.282
-29.179
-27.002
-24.765
-22.481
-20.166
-17.836
-15.507
-13.194
-10.914
-8.685
-6.525
-4.453
-2.488
-0.648
1.052
2.597
3.974
5.17
6.174
6.981
7.589
7.993
8.187
8.155
7.887
7.38
6.631
5.641
4.415
2.961
1.295
-0.545
-2.522
-4.595
-6.719
-8.865
-10.999
-13.077
-15.063
-16.903
-18.542
-19.944
-21.061
-21.858
-22.334
-22.491
-22.343
-21.984
-21.537
-21.171
-21.146
-21.659
-22.839
-24.823
-27.72
-31.563
-36.275
-41.547
-46.817
-51.572
-55.429
-57.981
-58.814
-57.561
-54.076
-49.163
-44.484
-41.513
-41.013
-41.911
-42.187
-40.967
-38.876
-39.417
-46.338
-60.911
-82.073
-104.053
-119.528
-121.78
-103.927
-62.364
4.53
96.998
212.231
346.457
494.365
647.652
796.007
926.679
1025.754
1082.905
1092.43
1054.487
975.553
862.745
723.81
567.391
401.515
238.459
93.09
-21.76
-96.653
-130.284
-130.555
-110.401
-83.952
-63.376
-54.967
-57.916
-68.049
-79.034
-85.121
-85.826
-83.307
-80.851
-82.254
-88.013
-96.463
-105.812
-114.074
-120.239
-124.271
-126.103
-125.67
-123.217
-119.127
-113.826
-107.795
-101.484
-95.222
-89.369
-84.341
-80.304
-77.255
-75.148
-73.825
-73.129
-72.939
-73.081
-73.368
-73.683
-73.974
-74.242
-74.515
-74.818
-75.164
-75.576
-76.072
-76.653
-77.277
-77.872
-78.39
-78.793
-79.063
-79.185
-79.113
-78.816
-78.276
-77.471
-76.395
-75.039
-73.381
-71.408
-69.132
-66.572
-63.771
-60.798
-57.689
-54.472
-51.174
-47.812
-44.413
-40.999
-37.571
-34.119
-30.633
-27.102
-23.523
-19.89
-16.18
-12.367
-8.419
-4.296
0.028
4.569
9.343
14.359
19.621
25.133
30.884
36.855
43.029
49.389
55.916
62.593
69.396
76.296
83.264
90.269
97.282
104.272
111.211
118.067
124.812
131.416
137.853
144.097
150.121
155.897
161.396
166.591
171.456
175.965
180.094
183.819
187.118
189.973
192.366
194.283
195.713
196.643
197.068
196.982
196.383
195.271
193.649
191.522
188.897
185.785
182.199
178.152
173.662
168.746
163.424
157.72
151.655
145.254
138.543
131.55
124.302
116.828
109.158
101.322
93.35
85.273
77.12
68.924
60.713
52.516
44.363
36.279
28.293
20.428
12.709
5.158
-2.205
-9.361
-16.292
-22.983
-29.42
-35.592
-41.487
-47.099
-52.42
-57.447
-62.176
-66.607
-70.739
-74.576
-78.12
-81.376
-84.352
-87.053
-89.49
-91.67
-93.605
-95.305
-96.782
-98.049
-99.117
-99.999
-100.709
-101.258
-101.66
-101.928
-102.072
-102.106
-102.039
-101.883
-101.648
-101.342
-100.976
-100.555
-100.087
-99.579
-99.036
-98.462
-97.861
-97.235
-96.588
-95.919
-95.231
-94.523
-93.795
-93.046
-92.275
-91.481
-90.661
-89.815
-88.939
-88.031
-87.09
-86.114
-85.1
-84.048
-82.955
-81.821
-80.645
-79.427
-78.166
-76.865
-75.523
-74.143
-72.726
-71.274
-69.792
-68.281
-66.747
-65.193
-63.624
-62.044
-60.46
-58.876
-57.299
-55.733
-54.186
-52.661
-51.166
-49.705
-48.284
-46.908
-45.581
-44.308
-43.093
-41.939
-40.849
-39.826
-38.87
-37.984
-37.168
-36.421
-35.743
-35.132
-34.588
-34.106
-33.686
-33.322
-33.013
-32.752
-32.536
-32.361
-32.22
-32.11
-32.024
-31.957
-31.904
-31.86
-31.82
-31.779
-31.733
-31.677
-31.607
-31.52
-31.413
-31.284
-31.131
-30.952
-30.748
-30.518
-30.263
-29.986
-29.687
-29.37
-29.038
-28.695
-28.345
-27.994
-27.646
-27.308
-26.984
-26.682
-26.407
-26.165
-25.963
-25.805
-25.698
-25.646
-25.653
-25.725
-25.863
-26.072
-26.354
-26.709
-27.14
-27.646
-28.227
-28.88
-29.604
-30.394
-31.246
-32.153
-33.11
-34.109
-35.142
-36.2
-37.273
-38.351
-39.422
-40.476
-41.5
-42.483
-43.411
-44.272
-45.054
-45.745
-46.334
-46.809
-47.162
-47.383
-47.463
-47.396
-47.177
-46.799
-46.26
-45.556
-44.687
-43.653
-42.457
-41.104
-39.598
-37.95
-36.168
-34.268
-32.263
-30.17
-28.01
-25.801
-23.567
-21.33
-19.111
-16.936
-14.827
-12.808
-10.902
-9.133
-7.524
-6.097
-4.874
-3.875
-3.114
-2.605
-2.351
-2.358
-2.628
-3.166
-3.979
-5.073
-6.45
-8.11
-10.057
-12.286
-14.789
-17.545
-20.51
-23.644
-26.91
-30.275
-33.723
-37.224
-40.734
-44.205
-47.573
-50.782
-53.797
-56.558
-58.99
-61.062
-62.791
-64.28
-65.722
-67.279
-69.061
-71.182
-73.74
-76.785
-80.287
-84.038
-87.708
-90.996
-93.629
-95.436
-96.311
-96.093
-94.691
-92.274
-88.969
-85.342
-82.63
-81.496
-82.378
-84.902
-86.704
-86.119
-83.353
-79.707
-78.869
-84.551
-96.62
-113.285
-130.884
-142.826
-144.197
-130.197
-95.249
-37.664
42.736
144.938
264.991
399.655
545.297
694.8
838.45
963.478
1055.281
1102.581
1099.085
1043.593
940.968
799.35
629.368
445.16
262.68
98.814
-31.174
-117.89
-160.045
-163.964
-141.589
-107.259
-73.141
-47.918
-36.033
-36.562
-45.501
-57.641
-67.724
-72.681
-72.858
-69.758
-65.511
-63.015
-62.645
-64.025
-67.05
-69.878
-71.735
-72.726
-72.349
-71.102
-69.583
-67.826
-66.115
-64.591
-63.223
-62.159
-61.627
-61.834
-62.852
-64.636
-67.023
-69.776
-72.684
-75.537
-78.109
-80.191
-81.654
-82.445
-82.57
-82.087
-81.055
-79.533
-77.588
-75.298
-72.728
-69.935
-66.984
-63.933
-60.849
-57.807
-54.86
-52.042
-49.377
-46.87
-44.517
-42.308
-40.223
-38.233
-36.313
-34.443
-32.604
-30.778
-28.944
-27.077
-25.151
-23.143
-21.028
-18.785
-16.396
-13.842
-11.112
-8.192
-5.075
-1.755
1.776
5.524
9.496
13.698
18.133
22.801
27.703
32.836
38.194
43.768
49.548
55.519
61.664
67.967
74.407
80.961
87.607
94.319
101.069
107.829
114.571
121.263
127.875
134.376
140.732
146.912
152.885
158.619
164.083
169.248
174.085
178.566
182.667
186.362
189.629
192.447
194.799
196.668
198.04
198.903
199.25
199.075
198.375
197.15
195.404
193.142
190.372
187.106
183.358
179.143
174.481
169.392
163.898
158.024
151.797
145.245
138.398
131.286
123.94
116.394
108.679
100.83
92.878
84.858
76.802
68.742
60.711
52.738
44.855
37.088
29.466
22.015
14.757
7.716
0.911
-5.64
-11.921
-17.917
-23.618
-29.014
-34.096
-38.861
-43.304
-47.424
-51.223
-54.703
-57.869
-60.727
-63.286
-65.554
-67.542
-69.264
-70.73
-71.957
-72.958
-73.748
-74.345
-74.764
-75.021
-75.133
-75.117
-74.989
-74.765
-74.46
-74.088
-73.665
-73.202
-72.713
-72.208
-71.698
-71.193
-70.701
-70.229
-69.784
-69.371
-68.994
-68.657
-68.361
-68.109
-67.901
-67.737
-67.615
-67.535
-67.494
-67.488
-67.516
-67.573
-67.656
-67.759
-67.879
-68.01
-68.149
-68.29
-68.428
-68.56
-68.681
-68.786
-68.873
-68.938
-68.979
-68.992
-68.976
-68.929
-68.85
-68.737
-68.591
-68.412
-68.199
-67.953
-67.675
-67.366
-67.027
-66.66
-66.267
-65.848
-65.407
-64.944
-64.463
-63.965
-63.452
-62.926
-62.391
-61.847
-61.299
-60.747
-60.194
-59.641
-59.092
-58.547
-58.008
-57.477
-56.955
-56.444
-55.944
-55.456
-54.981
-54.521
-54.075
-53.644
-53.23
-52.832
-52.452
-52.09
-51.748
-51.426
-51.125
-50.848
-50.595
-50.368
-50.169
-49.998
-49.857
-49.749
-49.673
-49.632
-49.627
-49.659
-49.73
-49.841
-49.993
-50.187
-50.425
-50.708
-51.036
-51.411
-51.833
-52.303
-52.821
-53.388
-54.003
-54.667
-55.38
-56.139
-56.944
-57.793
-58.683
-59.612
-60.576
-61.572
-62.595
-63.641
-64.704
-65.781
-66.865
-67.951
-69.034
-70.106
-71.163
-72.197
-73.203
-74.172
-75.099
-75.975
-76.794
-77.549
-78.232
-78.837
-79.357
-79.783
-80.11
-80.33
-80.438
-80.427
-80.292
-80.027
-79.629
-79.094
-78.419
-77.604
-76.647
-75.548
-74.309
-72.931
-71.418
-69.774
-68.003
-66.112
-64.107
-61.996
-59.786
-57.489
-55.118
-52.687
-50.213
-47.713
-45.207
-42.715
-40.259
-37.86
-35.54
-33.316
-31.206
-29.23
-27.405
-25.754
-24.295
-23.042
-22.009
-21.207
-20.642
-20.322
-20.248
-20.415
-20.814
-21.443
-22.3
-23.398
-24.747
-26.353
-28.215
-30.328
-32.687
-35.285
-38.115
-41.16
-44.394
-47.786
-51.304
-54.925
-58.618
-62.358
-66.084
-69.691
-73.104
-76.29
-79.267
-82.124
-84.936
-87.724
-90.547
-93.522
-96.687
-100.004
-103.302
-106.206
-108.371
-109.604
-109.781
-108.824
-106.846
-104.048
-100.72
-97.422
-94.723
-92.993
-92.49
-93.351
-95.436
-98.599
-102.835
-107.945
-113.779
-120.401
-127.822
-136.146
-145.148
-153.667
-160.153
-162.785
-160.766
-155.076
-145.949
-132.8
-112.379
-77.468
-22.29
57.117
161.437
285.025
421.421
562.864
699.863
824.415
926.324
995.253
1022.962
1002.575
932.048
813.857
655.4
470.654
278.587
100.539
-44.144
-143.964
-198.516
-215.508
-207.49
-186.7
-160.638
-134.879
-113.305
-98.138
-90.889
-89.945
-91.172
-90.476
-85.94
-78.448
-70.825
-66.282
-65.743
-68.323
-72.638
-76.967
-80.662
-83.835
-86.416
-88.344
-89.429
-89.509
-88.643
-87.029
-84.866
-82.367
-79.819
-77.537
-75.852
-74.912
-74.642
-74.882
-75.424
-76.065
-76.659
-77.034
-77.009
-76.515
-75.599
-74.356
-72.896
-71.278
-69.479
-67.501
-65.378
-63.143
-60.846
-58.522
-56.186
-53.87
-51.611
-49.438
-47.359
-45.353
-43.353
-41.288
-39.11
-36.806
-34.402
-31.92
-29.36
-26.719
-23.986
-21.162
-18.243
-15.213
-12.036
-8.679
-5.12
-1.353
2.608
6.746
11.061
15.566
20.288
25.249
30.46
35.934
41.681
47.716
54.045
60.664
67.552
74.689
82.056
89.637
97.418
105.382
113.503
121.756
130.108
138.529
146.987
155.446
163.869
172.216
180.448
188.529
196.425
204.102
211.523
218.654
225.46
231.908
237.965
243.602
248.787
253.493
257.692
261.362
264.484
267.039
269.013
270.393
271.172
271.344
270.906
269.86
268.209
265.961
263.124
259.713
255.742
251.23
246.198
240.668
234.668
228.224
221.367
214.127
206.539
198.636
190.454
182.028
173.396
164.593
155.659
146.629
137.541
128.433
119.339
110.296
101.335
92.491
83.794
75.273
66.955
58.866
51.028
43.464
36.192
29.23
22.592
16.291
10.338
4.74
-0.497
-5.368
-9.873
-14.012
-17.788
-21.205
-24.27
-26.992
-29.378
-31.442
-33.196
-34.654
-35.83
-36.74
-37.402
-37.833
-38.05
-38.072
-37.917
-37.603
-37.149
-36.571
-35.889
-35.118
-34.275
-33.377
-32.439
-31.475
-30.5
-29.527
-28.567
-27.634
-26.736
-25.884
-25.088
-24.353
-23.688
-23.098
-22.588
-22.163
-21.825
-21.577
-21.42
-21.354
-21.381
-21.498
-21.705
-21.999
-22.378
-22.84
-23.38
-23.995
-24.682
-25.437
-26.254
-27.131
-28.063
-29.045
-30.073
-31.142
-32.248
-33.386
-34.551
-35.739
-36.945
-38.164
-39.391
-40.623
-41.855
-43.082
-44.3
-45.506
-46.695
-47.863
-49.008
-50.126
-51.215
-52.27
-53.291
-54.274
-55.218
-56.121
-56.981
-57.797
-58.566
-59.29
-59.965
-60.592
-61.17
-61.699
-62.179
-62.61
-62.994
-63.33
-63.621
-63.869
-64.074
-64.24
-64.369
-64.465
-64.529
-64.567
-64.581
-64.575
-64.554
-64.522
-64.482
-64.44
-64.4
-64.366
-64.341
-64.331
-64.339
-64.369
-64.425
-64.511
-64.629
-64.784
-64.977
-65.212
-65.491
-65.814
-66.184
-66.601
-67.064
-67.574
-68.129
-68.727
-69.366
-70.042
-70.754
-71.495
-72.262
-73.049
-73.849
-74.658
-75.468
-76.27
-77.059
-77.824
-78.558
-79.252
-79.898
-80.486
-81.009
-81.457
-81.822
-82.096
-82.269
-82.334
-82.283
-82.109
-81.804
-81.363
-80.781
-80.054
-79.179
-78.153
-76.975
-75.644
-74.163
-72.532
-70.754
-68.833
-66.774
-64.584
-62.272
-59.846
-57.318
-54.701
-52.01
-49.261
-46.471
-43.658
-40.843
-38.045
-35.284
-32.583
-29.96
-27.435
-25.028
-22.76
-20.65
-18.717
-16.979
-15.45
-14.148
-13.086
-12.276
-11.726
-11.436
-11.407
-11.637
-12.13
-12.893
-13.93
-15.237
-16.812
-18.649
-20.741
-23.074
-25.621
-28.337
-31.173
-34.084
-37.03
-39.99
-42.94
-45.846
-48.658
-51.32
-53.781
-56.003
-57.958
-59.595
-60.854
-61.742
-62.335
-62.784
-63.301
-64.052
-65.124
-66.651
-68.81
-71.624
-75.043
-78.88
-82.717
-86.255
-89.32
-91.576
-92.642
-92.34
-90.534
-87.32
-83.225
-78.589
-73.757
-69.452
-66.389
-65.237
-66.69
-70.996
-77.978
-87.043
-96.503
-104.014
-106.912
-103.55
-94.249
-79.71
-60.167
-32.87
8.192
69.719
156.927
269.715
402.923
546.544
687.639
814.437
915.049
980.299
1003.712
979.567
906.653
787.122
628.311
444.75
254.848
79.542
-62.94
-161.742
-213.809
-224.384
-203.998
-164.512
-118.352
-76.139
-44.461
-27.44
-24.463
-30.982
-42.879
-54.315
-61.048
-62.464
-57.921
-50.126
-43.231
-38.917
-38.743
-41.909
-45.602
-48.62
-50.199
-50.317
-50.035
-49.736
-49.496
-49.418
-49.329
-49.227
-49.254
-49.536
-50.287
-51.58
-53.324
-55.376
-57.528
-59.609
-61.518
-63.121
-64.256
-64.837
-64.838
-64.284
-63.267
-61.85
-60.075
-57.995
-55.67
-53.162
-50.545
-47.879
-45.215
-42.594
-40.045
-37.588
-35.237
-32.997
-30.857
-28.8
-26.799
-24.833
-22.887
-20.943
-18.987
-17.002
-14.965
-12.855
-10.651
-8.335
-5.89
-3.298
-0.544
2.385
5.499
8.803
12.303
16.003
19.908
24.023
28.351
32.895
37.654
42.626
47.81
53.197
58.782
64.552
70.494
76.593
82.834
89.196
95.662
102.208
108.811
115.448
122.092
128.717
135.293
141.793
148.187
154.445
160.538
166.435
172.106
177.524
182.659
187.484
191.974
196.103
199.849
203.188
206.102
208.573
210.583
212.12
213.171
213.727
213.782
213.331
212.374
210.909
208.942
206.477
203.522
200.09
196.191
191.842
187.06
181.864
176.275
170.317
164.015
157.394
150.484
143.312
135.908
128.303
120.527
112.613
104.591
96.493
88.349
80.192
72.05
63.954
55.931
48.01
40.216
32.574
25.108
17.84
10.789
3.974
-2.587
-8.88
-14.892
-20.611
-26.028
-31.137
-35.93
-40.406
-44.563
-48.401
-51.923
-55.131
-58.033
-60.635
-62.945
-64.974
-66.732
-68.231
-69.485
-70.508
-71.313
-71.917
-72.333
-72.579
-72.67
-72.621
-72.449
-72.168
-71.793
-71.34
-70.822
-70.253
-69.645
-69.012
-68.364
-67.712
-67.066
-66.435
-65.825
-65.244
-64.698
-64.191
-63.727
-63.309
-62.939
-62.617
-62.344
-62.119
-61.941
-61.808
-61.716
-61.662
-61.642
-61.652
-61.687
-61.742
-61.811
-61.89
-61.973
-62.055
-62.13
-62.194
-62.241
-62.266
-62.266
-62.235
-62.17
-62.068
-61.925
-61.74
-61.509
-61.232
-60.908
-60.535
-60.115
-59.647
-59.132
-58.571
-57.966
-57.318
-56.631
-55.907
-55.15
-54.362
-53.548
-52.711
-51.857
-50.988
-50.11
-49.227
-48.343
-47.463
-46.591
-45.731
-44.888
-44.066
-43.268
-42.499
-41.763
-41.062
-40.399
-39.778
-39.201
-38.67
-38.186
-37.753
-37.37
-37.039
-36.762
-36.539
-36.371
-36.259
-36.202
-36.201
-36.255
-36.363
-36.526
-36.741
-37.01
-37.329
-37.699
-38.118
-38.584
-39.097
-39.655
-40.256
-40.897
-41.578
-42.294
-43.044
-43.826
-44.636
-45.473
-46.333
-47.214
-48.112
-49.025
-49.949
-50.881
-51.817
-52.753
-53.683
-54.604
-55.511
-56.398
-57.262
-58.098
-58.9
-59.663
-60.382
-61.052
-61.667
-62.223
-62.713
-63.132
-63.475
-63.738
-63.918
-64.01
-64.012
-63.92
-63.734
-63.452
-63.073
-62.597
-62.023
-61.353
-60.589
-59.734
-58.792
-57.77
-56.675
-55.516
-54.304
-53.051
-51.769
-50.471
-49.175
-47.894
-46.646
-45.447
-44.313
-43.261
-42.31
-41.476
-40.778
-40.231
-39.85
-39.649
-39.642
-39.842
-40.258
-40.895
-41.753
-42.835
-44.142
-45.683
-47.462
-49.477
-51.727
-54.209
-56.914
-59.836
-62.955
-66.237
-69.643
-73.129
-76.654
-80.191
-83.71
-87.183
-90.577
-93.834
-96.907
-99.759
-102.341
-104.623
-106.574
-108.144
-109.365
-110.35
-111.232
-112.219
-113.505
-115.189
-117.416
-120.365
-124.022
-128.295
-132.994
-137.663
-141.925
-145.514
-148.031
-149.102
-148.529
-146.208
-142.321
-137.37
-132.274
-127.947
-124.733
-123.397
-123.542
-124.472
-127.879
-133.883
-142.472
-153.843
-163.408
-167.939
-166.701
-157.826
-142.322
-118.923
-81.081
-23.561
58.305
165.564
292.21
431.02
572.596
706.62
824.493
915.799
972.206
987.334
955.777
877.097
753.556
592.433
408.436
220.639
50.092
-84.942
-174.313
-218.235
-223.416
-201.046
-164.539
-123.782
-88.505
-66.737
-59.786
-66.657
-82.037
-96.441
-104.597
-104.497
-96.447
-85.939
-77.79
-73.655
-74.876
-79.662
-84.84
-89.448
-92.677
-94.467
-95.908
-97.166
-98.097
-98.847
-99.308
-99.473
-99.602
-99.84
-100.326
-101.327
-102.946
-105.086
-107.618
-110.336
-113.009
-115.49
-117.628
-119.23
-120.202
-120.528
-120.221
-119.36
-118.02
-116.246
-114.098
-111.643
-108.936
-106.037
-103.006
-99.886
-96.732
-93.587
-90.475
-87.42
-84.427
-81.493
-78.61
-75.76
-72.922
-70.079
-67.217
-64.321
-61.379
-58.376
-55.293
-52.112
-48.816
-45.387
-41.812
-38.076
-34.166
-30.074
-25.793
-21.319
-16.648
-11.776
-6.7
-1.417
4.075
9.777
15.687
21.803
28.119
34.629
41.323
48.189
55.213
62.38
69.672
77.07
84.552
92.098
99.682
107.279
114.863
122.405
129.878
137.252
144.496
151.581
158.475
165.147
171.569
177.709
183.539
189.03
194.155
198.89
203.208
207.088
210.508
213.45
215.895
217.829
219.24
220.115
220.449
220.235
219.472
218.159
216.299
213.897
210.962
207.503
203.534
199.071
194.13
188.732
182.898
176.654
170.024
163.037
155.72
148.105
140.223
132.107
123.787
115.3
106.677
97.952
89.16
80.333
71.505
62.707
53.971
45.327
36.804
28.432
20.235
12.24
4.47
-3.054
-10.311
-17.284
-23.957
-30.316
-36.349
-42.047
-47.401
-52.406
-57.058
-61.357
-65.302
-68.895
-72.142
-75.047
-77.617
-79.863
-81.793
-83.419
-84.754
-85.811
-86.605
-87.149
-87.46
-87.553
-87.445
-87.152
-86.691
-86.077
-85.329
-84.461
-83.49
-82.432
-81.301
-80.113
-78.88
-77.617
-76.335
-75.046
-73.761
-72.49
-71.242
-70.024
-68.845
-67.71
-66.625
-65.594
-64.62
-63.706
-62.854
-62.065
-61.339
-60.677
-60.077
-59.538
-59.059
-58.636
-58.268
-57.95
-57.681
-57.456
-57.271
-57.122
-57.004
-56.914
-56.846
-56.796
-56.761
-56.734
-56.713
-56.693
-56.67
-56.639
-56.598
-56.543
-56.471
-56.379
-56.265
-56.126
-55.961
-55.769
-55.549
-55.299
-55.019
-54.71
-54.371
-54.003
-53.606
-53.183
-52.733
-52.258
-51.761
-51.243
-50.707
-50.155
-49.59
-49.015
-48.433
-47.848
-47.262
-46.679
-46.103
-45.537
-44.986
-44.452
-43.94
-43.454
-42.997
-42.573
-42.185
-41.836
-41.529
-41.267
-41.053
-40.889
-40.777
-40.72
-40.72
-40.777
-40.895
-41.073
-41.313
-41.615
-41.979
-42.406
-42.896
-43.448
-44.061
-44.734
-45.467
-46.256
-47.101
-47.999
-48.946
-49.941
-50.978
-52.054
-53.166
-54.308
-55.476
-56.665
-57.87
-59.086
-60.307
-61.527
-62.741
-63.943
-65.125
-66.28
-67.403
-68.486
-69.522
-70.504
-71.425
-72.278
-73.056
-73.752
-74.359
-74.871
-75.279
-75.578
-75.762
-75.824
-75.76
-75.565
-75.235
-74.767
-74.158
-73.407
-72.512
-71.473
-70.291
-68.965
-67.499
-65.897
-64.161
-62.298
-60.315
-58.219
-56.022
-53.737
-51.376
-48.955
-46.492
-44.003
-41.508
-39.027
-36.576
-34.176
-31.844
-29.6
-27.461
-25.448
-23.578
-21.871
-20.343
-19.007
-17.875
-16.955
-16.249
-15.758
-15.483
-15.424
-15.589
-15.985
-16.613
-17.479
-18.584
-19.924
-21.492
-23.264
-25.205
-27.284
-29.467
-31.732
-34.065
-36.435
-38.806
-41.134
-43.359
-45.44
-47.327
-48.938
-50.232
-51.199
-51.881
-52.432
-53.008
-53.709
-54.673
-56.038
-57.848
-60.144
-62.807
-65.482
-67.925
-69.95
-71.305
-71.831
-71.383
-69.747
-67.02
-63.675
-59.921
-55.941
-52.147
-48.732
-46.446
-46.824
-50.233
-56.185
-63.829
-70.408
-74.542
-77.169
-78.762
-81.87
-88.13
-94.578
-97.465
-89.847
-62.433
-10.389
69.03
174.947
300.415
439.319
584.86
728.177
861.748
974.808
1055.248
1094.594
1087.193
1033.094
937.892
808.934
655.404
489.042
323.328
172.627
50.936
-33.617
-81.13
-96.487
-89.729
-71.957
-50.118
-30.883
-19.259
-15.926
-21.35
-33.386
-45.455
-53.044
-53.743
-46.301
-35.159
-25.91
-21.148
-23.103
-30.522
-39.523
-48.173
-54.994
-59.379
-62.237
-63.95
-64.565
-64.285
-63.211
-61.629
-60.017
-58.855
-58.504
-59.099
-60.625
-62.948
-65.819
-68.988
-72.193
-75.125
-77.541
-79.313
-80.381
-80.766
-80.529
-79.714
-78.377
-76.594
-74.439
-71.978
-69.265
-66.346
-63.267
-60.088
-56.872
-53.684
-50.567
-47.545
-44.631
-41.827
-39.127
-36.523
-33.998
-31.529
-29.095
-26.678
-24.259
-21.822
-19.347
-16.811
-14.189
-11.458
-8.595
-5.582
-2.404
0.954
4.504
8.257
12.22
16.399
20.8
25.429
30.291
35.39
40.726
46.298
52.102
58.133
64.382
70.839
77.488
84.312
91.295
98.413
105.645
112.966
120.349
127.765
135.184
142.575
149.907
157.146
164.258
171.209
177.966
184.494
190.759
196.729
202.371
207.656
212.552
217.033
221.071
224.644
227.727
230.302
232.35
233.857
234.81
235.2
235.018
234.263
232.934
231.031
228.562
225.534
221.958
217.849
213.222
208.098
202.497
196.443
189.963
183.084
175.836
168.251
160.361
152.201
143.804
135.207
126.445
117.555
108.573
99.535
90.475
81.43
72.433
63.517
54.714
46.055
37.568
29.281
21.219
13.406
5.864
-1.388
-8.333
-14.955
-21.241
-27.181
-32.767
-37.991
-42.85
-47.343
-51.469
-55.23
-58.631
-61.678
-64.379
-66.743
-68.782
-70.508
-71.934
-73.075
-73.948
-74.567
-74.95
-75.114
-75.078
-74.858
-74.472
-73.939
-73.276
-72.499
-71.626
-70.672
-69.653
-68.584
-67.479
-66.35
-65.211
-64.072
-62.945
-61.837
-60.759
-59.717
-58.719
-57.769
-56.872
-56.033
-55.253
-54.535
-53.879
-53.287
-52.756
-52.287
-51.878
-51.526
-51.23
-50.985
-50.789
-50.638
-50.53
-50.459
-50.423
-50.419
-50.441
-50.488
-50.555
-50.64
-50.74
-50.853
-50.976
-51.107
-51.244
-51.386
-51.532
-51.679
-51.828
-51.978
-52.129
-52.281
-52.433
-52.586
-52.742
-52.9
-53.061
-53.227
-53.399
-53.578
-53.765
-53.962
-54.169
-54.389
-54.621
-54.868
-55.13
-55.407
-55.7
-56.009
-56.335
-56.677
-57.036
-57.409
-57.797
-58.199
-58.614
-59.04
-59.476
-59.921
-60.373
-60.831
-61.293
-61.758
-62.223
-62.688
-63.151
-63.61
-64.064
-64.51
-64.949
-65.378
-65.796
-66.201
-66.594
-66.973
-67.337
-67.687
-68.021
-68.341
-68.645
-68.935
-69.212
-69.475
-69.726
-69.967
-70.199
-70.422
-70.64
-70.854
-71.065
-71.274
-71.484
-71.696
-71.91
-72.128
-72.35
-72.576
-72.807
-73.042
-73.282
-73.525
-73.77
-74.018
-74.265
-74.509
-74.75
-74.982
-75.204
-75.411
-75.6
-75.764
-75.901
-76.005
-76.07
-76.09
-76.06
-75.972
-75.821
-75.6
-75.302
-74.921
-74.449
-73.882
-73.214
-72.439
-71.553
-70.552
-69.433
-68.193
-66.832
-65.347
-63.738
-62.008
-60.158
-58.19
-56.108
-53.918
-51.627
-49.245
-46.785
-44.259
-41.682
-39.072
-36.446
-33.824
-31.224
-28.665
-26.165
-23.741
-21.412
-19.197
-17.119
-15.194
-13.44
-11.871
-10.499
-9.334
-8.383
-7.649
-7.13
-6.823
-6.731
-6.864
-7.23
-7.837
-8.694
-9.8
-11.15
-12.74
-14.559
-16.585
-18.805
-21.193
-23.719
-26.363
-29.093
-31.877
-34.682
-37.442
-40.067
-42.502
-44.715
-46.717
-48.581
-50.377
-52.146
-53.982
-56.012
-58.286
-60.79
-63.411
-65.902
-67.997
-69.55
-70.445
-70.527
-69.81
-68.406
-66.405
-64.085
-61.864
-59.999
-58.593
-57.892
-57.955
-58.67
-60.78
-64.926
-70.691
-78.214
-86.598
-94.071
-101.171
-107.689
-113.109
-118.307
-121.942
-122.162
-117.371
-103.33
-74.44
-25.72
47.694
147.66
270.277
409.678
557.406
702.916
837.899
952.795
1037.516
1083.974
1084.413
1035.174
938.368
800.71
634.383
455.346
280.886
127.772
8.979
-69.175
-108.035
-115.551
-103.268
-83.006
-63.543
-49.926
-44.034
-43.894
-46.468
-48.542
-46.902
-41.873
-35.475
-30.031
-28.449
-31.188
-36.952
-44.418
-51.969
-58.572
-64.02
-68.118
-70.645
-71.689
-71.493
-70.326
-68.576
-66.715
-65.103
-64.113
-64.167
-65.364
-67.617
-70.804
-74.654
-78.884
-83.256
-87.457
-91.193
-94.324
-96.784
-98.562
-99.715
-100.274
-100.271
-99.779
-98.866
-97.592
-96.014
-94.171
-92.109
-89.891
-87.589
-85.275
-83.002
-80.8
-78.685
-76.664
-74.734
-72.888
-71.109
-69.37
-67.65
-65.93
-64.191
-62.417
-60.587
-58.677
-56.662
-54.517
-52.218
-49.748
-47.088
-44.225
-41.146
-37.841
-34.303
-30.528
-26.51
-22.244
-17.725
-12.95
-7.916
-2.626
2.92
8.715
14.753
21.024
27.514
34.207
41.087
48.134
55.326
62.639
70.049
77.529
85.05
92.583
100.097
107.561
114.942
122.208
129.325
136.26
142.983
149.459
155.66
161.554
167.113
172.311
177.12
181.518
185.481
188.989
192.025
194.572
196.616
198.146
199.153
199.633
199.582
199.001
197.892
196.26
194.115
191.466
188.327
184.713
180.643
176.137
171.217
165.906
160.232
154.221
147.902
141.304
134.457
127.393
120.143
112.738
105.209
97.588
89.906
82.193
74.478
66.79
59.158
51.607
44.164
36.852
29.694
22.711
15.92
9.34
2.986
-3.129
-8.993
-14.598
-19.936
-25
-29.789
-34.3
-38.535
-42.494
-46.182
-49.604
-52.767
-55.679
-58.349
-60.787
-63.004
-65.012
-66.823
-68.45
-69.905
-71.203
-72.355
-73.377
-74.279
-75.076
-75.779
-76.4
-76.952
-77.444
-77.886
-78.288
-78.658
-79.004
-79.333
-79.649
-79.957
-80.262
-80.566
-80.87
-81.176
-81.483
-81.79
-82.095
-82.397
-82.691
-82.976
-83.246
-83.497
-83.724
-83.923
-84.089
-84.216
-84.3
-84.335
-84.318
-84.244
-84.109
-83.91
-83.643
-83.305
-82.896
-82.412
-81.853
-81.22
-80.512
-79.731
-78.878
-77.956
-76.969
-75.92
-74.815
-73.658
-72.456
-71.215
-69.942
-68.643
-67.328
-66.004
-64.679
-63.362
-62.061
-60.786
-59.544
-58.345
-57.197
-56.107
-55.084
-54.134
-53.266
-52.485
-51.797
-51.209
-50.724
-50.348
-50.084
-49.935
-49.902
-49.988
-50.194
-50.518
-50.96
-51.519
-52.192
-52.976
-53.868
-54.863
-55.957
-57.144
-58.418
-59.773
-61.202
-62.698
-64.253
-65.86
-67.51
-69.197
-70.912
-72.647
-74.395
-76.148
-77.898
-79.639
-81.362
-83.061
-84.729
-86.361
-87.951
-89.493
-90.982
-92.415
-93.787
-95.095
-96.335
-97.505
-98.602
-99.625
-100.572
-101.441
-102.232
-102.944
-103.577
-104.132
-104.607
-105.004
-105.323
-105.564
-105.728
-105.814
-105.824
-105.756
-105.611
-105.388
-105.087
-104.709
-104.251
-103.714
-103.096
-102.397
-101.615
-100.748
-99.795
-98.754
-97.624
-96.402
-95.088
-93.681
-92.181
-90.586
-88.896
-87.111
-85.232
-83.26
-81.195
-79.039
-76.796
-74.468
-72.06
-69.577
-67.028
-64.418
-61.759
-59.064
-56.344
-53.614
-50.89
-48.189
-45.528
-42.925
-40.397
-37.961
-35.635
-33.436
-31.379
-29.484
-27.767
-26.243
-24.928
-23.832
-22.965
-22.332
-21.933
-21.766
-21.831
-22.127
-22.663
-23.443
-24.469
-25.743
-27.263
-29.023
-31.011
-33.201
-35.552
-38.028
-40.596
-43.237
-45.938
-48.673
-51.409
-54.099
-56.684
-59.123
-61.368
-63.343
-65.006
-66.36
-67.468
-68.5
-69.634
-70.986
-72.686
-74.872
-77.597
-80.859
-84.485
-88.104
-91.427
-94.254
-96.36
-97.536
-97.569
-96.321
-93.999
-90.975
-87.406
-83.543
-79.606
-76.239
-74.87
-76.019
-79.405
-84.002
-87.682
-90.291
-93.085
-97.04
-103.572
-111.853
-119.55
-124.563
-123.511
-112.119
-84.247
-33.57
44.036
149.069
275.816
416.769
564.041
708.874
843.969
959.058
1041.452
1079.453
1063.814
992.393
870.114
707.93
521.438
327.799
145.293
-9.248
-123.581
-191.51
-214.324
-200.887
-165.065
-121.893
-85.567
-65.007
-60.53
-67.168
-76.018
-78.436
-72.547
-60.875
-48.308
-40.365
-38.543
-41.415
-46.88
-52.663
-57.761
-62.156
-65.84
-68.687
-70.425
-70.989
-70.559
-69.351
-67.696
-65.909
-64.241
-63.077
-62.786
-63.473
-65.097
-67.507
-70.439
-73.653
-76.915
-79.958
-82.536
-84.514
-85.842
-86.53
-86.638
-86.216
-85.319
-84.009
-82.36
-80.43
-78.267
-75.924
-73.448
-70.901
-68.35
-65.843
-63.412
-61.073
-58.834
-56.688
-54.628
-52.636
-50.686
-48.758
-46.833
-44.894
-42.926
-40.91
-38.822
-36.639
-34.338
-31.897
-29.298
-26.524
-23.56
-20.396
-17.023
-13.436
-9.629
-5.599
-1.339
3.152
7.88
12.845
18.046
23.48
29.145
35.031
41.129
47.427
53.91
60.561
67.363
74.295
81.337
88.464
95.652
102.875
110.106
117.316
124.476
131.556
138.527
145.356
152.014
158.471
164.695
170.66
176.335
181.694
186.712
191.363
195.625
199.477
202.898
205.871
208.381
210.414
211.96
213.009
213.557
213.6
213.14
212.178
210.72
208.773
206.349
203.459
200.119
196.345
192.159
187.58
182.633
177.345
171.741
165.851
159.705
153.335
146.771
140.046
133.193
126.244
119.232
112.189
105.148
98.141
91.198
84.35
77.626
71.053
64.657
58.46
52.484
46.748
41.266
36.051
31.113
26.462
22.1
18.032
14.256
10.771
7.574
4.659
2.017
-0.364
-2.495
-4.393
-6.07
-7.544
-8.83
-9.944
-10.906
-11.731
-12.432
-13.02
-13.509
-13.916
-14.263
-14.573
-14.86
-15.137
-15.418
-15.711
-16.026
-16.36
-16.699
-17.024
-17.313
-17.552
-17.737
-17.864
-17.929
-17.916
-17.793
-17.534
-17.121
-16.539
-15.781
-14.848
-13.732
-12.491
-11.246
-10.145
-9.396
-9.199
-9.677
-10.954
-13.165
-16.328
-20.372
-25.139
-30.214
-35.1
-39.424
-42.779
-44.719
-44.92
-43.134
-39.233
-34.004
-28.938
-25.168
-23.363
-22.781
-21.688
-19.675
-18.588
-21.95
-32.406
-49.708
-69.561
-85.968
-95.731
-97.538
-91.158
-73.95
-38.318
23.162
115.195
234.528
370.802
513.509
651.779
779.375
891.961
980.078
1033.259
1038.663
984.937
870.871
704.172
502.249
290.485
94.186
-66.005
-177.655
-239.011
-256.508
-240.322
-202.03
-153.094
-103.146
-60.791
-32.227
-17.937
-14.506
-15.762
-15.184
-11.08
-5.231
-1.071
-2.228
-8.872
-18.999
-30.218
-40.043
-47.511
-52.606
-55.303
-56.001
-55.202
-53.328
-50.961
-48.646
-46.745
-45.623
-45.625
-46.833
-49.145
-52.366
-56.185
-60.306
-64.498
-68.521
-72.154
-75.284
-77.871
-79.916
-81.477
-82.604
-83.333
-83.717
-83.809
-83.651
-83.283
-82.746
-82.083
-81.345
-80.591
-79.861
-79.185
-78.578
-78.045
-77.584
-77.188
-76.837
-76.509
-76.182
-75.84
-75.463
-75.035
-74.533
-73.933
-73.213
-72.347
-71.314
-70.096
-68.674
-67.034
-65.165
-63.057
-60.703
-58.101
-55.243
-52.126
-48.747
-45.103
-41.195
-37.025
-32.597
-27.916
-22.992
-17.836
-12.461
-6.885
-1.124
4.8
10.867
17.052
23.33
29.673
36.054
42.443
48.808
55.119
61.343
67.449
73.403
79.173
84.727
90.034
95.063
99.786
104.174
108.201
111.842
115.074
117.876
120.229
122.116
123.523
124.438
124.851
124.756
124.149
123.029
121.397
119.259
116.621
113.494
109.891
105.826
101.318
96.386
91.052
85.341
79.279
72.892
66.21
59.263
52.083
44.702
37.152
29.467
21.68
13.825
5.934
-1.96
-9.825
-17.629
-25.342
-32.934
-40.378
-47.646
-54.714
-61.556
-68.152
-74.481
-80.525
-86.268
-91.696
-96.797
-101.561
-105.979
-110.048
-113.762
-117.12
-120.122
-122.771
-125.07
-127.025
-128.643
-129.933
-130.904
-131.569
-131.94
-132.03
-131.853
-131.424
-130.759
-129.874
-128.785
-127.509
-126.062
-124.462
-122.725
-120.868
-118.907
-116.857
-114.734
-112.553
-110.328
-108.072
-105.797
-103.516
-101.24
-98.977
-96.739
-94.533
-92.366
-90.247
-88.18
-86.171
-84.225
-82.345
-80.534
-78.795
-77.129
-75.539
-74.024
-72.586
-71.224
-69.939
-68.729
-67.595
-66.534
-65.545
-64.627
-63.778
-62.997
-62.281
-61.63
-61.04
-60.51
-60.039
-59.626
-59.268
-58.964
-58.713
-58.513
-58.364
-58.264
-58.212
-58.207
-58.248
-58.334
-58.463
-58.635
-58.848
-59.101
-59.392
-59.719
-60.082
-60.477
-60.902
-61.356
-61.837
-62.341
-62.866
-63.41
-63.97
-64.543
-65.127
-65.718
-66.314
-66.911
-67.506
-68.096
-68.678
-69.248
-69.803
-70.341
-70.858
-71.351
-71.817
-72.253
-72.657
-73.026
-73.358
-73.652
-73.906
-74.118
-74.287
-74.413
-74.496
-74.536
-74.532
-74.487
-74.4
-74.273
-74.107
-73.905
-73.668
-73.398
-73.098
-72.77
-72.416
-72.041
-71.646
-71.234
-70.809
-70.374
-69.931
-69.485
-69.039
-68.594
-68.156
-67.726
-67.307
-66.901
-66.513
-66.142
-65.792
-65.464
-65.16
-64.88
-64.625
-64.395
-64.191
-64.012
-63.858
-63.728
-63.621
-63.536
-63.47
-63.423
-63.393
-63.378
-63.375
-63.381
-63.395
-63.414
-63.436
-63.456
-63.473
-63.484
-63.486
-63.477
-63.452
-63.411
-63.35
-63.267
-63.159
-63.025
-62.862
-62.67
-62.446
-62.189
-61.899
-61.575
-61.218
-60.826
-60.399
-59.939
-59.445
-58.918
-58.359
-57.768
-57.147
-56.497
-55.819
-55.115
-54.385
-53.632
-52.857
-52.061
-51.246
-50.412
-49.561
-48.693
-47.81
-46.912
-46.001
-45.077
-44.141
-43.192
-42.232
-41.259
-40.274
-39.276
-38.263
-37.234
-36.19
-35.128
-34.048
-32.949
-31.829
-30.689
-29.528
-28.345
-27.14
-25.912
-24.661
-23.388
-22.095
-20.782
-19.453
-18.11
-16.757
-15.402
-14.049
-12.708
-11.387
-10.095
-8.842
-7.641
-6.501
-5.433
-4.45
-3.561
-2.778
-2.113
-1.577
-1.181
-0.938
-0.857
-0.949
-1.22
-1.674
-2.309
-3.124
-4.116
-5.285
-6.634
-8.167
-9.882
-11.778
-13.856
-16.108
-18.527
-21.088
-23.751
-26.481
-29.244
-32.015
-34.785
-37.538
-40.242
-42.864
-45.354
-47.671
-49.794
-51.678
-53.257
-54.513
-55.462
-56.21
-56.965
-57.881
-59.057
-60.61
-62.642
-65.228
-68.405
-71.977
-75.592
-78.992
-81.954
-84.316
-85.95
-86.576
-85.917
-84.113
-81.498
-78.248
-74.71
-71.114
-67.519
-65.144
-65.314
-67.915
-73.248
-79.862
-84.924
-88.933
-91.62
-93.779
-98.868
-105.21
-109.801
-107.557
-87.987
-44.582
25.677
122.523
237.585
362.365
490.413
614.31
730.674
834.775
916.901
969.437
983.377
951.987
877.095
762.016
615.211
450.813
282.425
126.476
-1.744
-93.729
-146.877
-164.728
-156.674
-133.97
-105.994
-82.125
-68.39
-64.612
-68.786
-75.093
-76.728
-72.369
-63.302
-53.04
-46.391
-44.798
-47.32
-52.391
-58.112
-63.635
-68.957
-74.027
-78.61
-82.313
-84.967
-86.659
-87.526
-87.825
-87.797
-87.646
-87.751
-88.506
-90.056
-92.384
-95.355
-98.727
-102.282
-105.823
-109.103
-111.885
-114.036
-115.506
-116.313
-116.526
-116.204
-115.399
-114.171
-112.593
-110.723
-108.611
-106.308
-103.857
-101.311
-98.731
-96.16
-93.627
-91.15
-88.736
-86.381
-84.078
-81.815
-79.571
-77.333
-75.088
-72.823
-70.53
-68.193
-65.796
-63.323
-60.757
-58.082
-55.285
-52.353
-49.277
-46.05
-42.667
-39.123
-35.416
-31.545
-27.505
-23.295
-18.912
-14.357
-9.631
-4.736
0.323
5.539
10.904
16.406
22.034
27.773
33.609
39.525
45.504
51.526
57.571
63.618
69.645
75.63
81.55
87.379
93.095
98.672
104.087
109.316
114.335
119.12
123.651
127.905
131.861
135.502
138.808
141.764
144.353
146.564
148.384
149.803
150.814
151.411
151.591
151.351
150.694
149.622
148.139
146.253
143.973
141.309
138.275
134.885
131.154
127.101
122.746
118.108
113.211
108.076
102.729
97.193
91.495
85.66
79.716
73.688
67.603
61.488
55.368
49.271
43.221
37.242
31.359
25.594
19.969
14.504
9.218
4.128
-0.748
-5.397
-9.806
-13.962
-17.857
-21.482
-24.83
-27.899
-30.683
-33.183
-35.399
-37.332
-38.987
-40.369
-41.483
-42.339
-42.946
-43.312
-43.451
-43.374
-43.095
-42.627
-41.985
-41.183
-40.237
-39.162
-37.974
-36.688
-35.32
-33.884
-32.395
-30.869
-29.319
-27.758
-26.2
-24.656
-23.138
-21.658
-20.224
-18.846
-17.532
-16.29
-15.125
-14.043
-13.049
-12.146
-11.337
-10.623
-10.005
-9.484
-9.057
-8.725
-8.484
-8.331
-8.264
-8.277
-8.366
-8.527
-8.754
-9.041
-9.382
-9.772
-10.204
-10.671
-11.168
-11.687
-12.221
-12.765
-13.311
-13.853
-14.384
-14.899
-15.391
-15.855
-16.285
-16.675
-17.021
-17.319
-17.564
-17.752
-17.881
-17.946
-17.947
-17.881
-17.746
-17.542
-17.268
-16.924
-16.51
-16.027
-15.476
-14.859
-14.177
-13.434
-12.631
-11.773
-10.863
-9.905
-8.904
-7.865
-6.792
-5.693
-4.572
-3.436
-2.292
-1.146
-0.005
1.123
2.232
3.315
4.365
5.375
6.338
7.248
8.101
8.89
9.61
10.256
10.826
11.315
11.721
12.04
12.272
12.416
12.47
12.436
12.314
12.107
11.818
11.451
11.01
10.501
9.93
9.304
8.63
7.917
7.174
6.41
5.635
4.861
4.097
3.356
2.648
1.985
1.376
0.833
0.366
-0.018
-0.307
-0.496
-0.575
-0.54
-0.383
-0.1
0.313
0.857
1.535
2.344
3.283
4.348
5.53
6.82
8.21
9.688
11.238
12.846
14.494
16.164
17.839
19.5
21.126
22.694
24.183
25.57
26.835
27.957
28.918
29.7
30.283
30.655
30.806
30.73
30.421
29.869
29.063
27.993
26.657
25.054
23.184
21.053
18.667
16.044
13.215
10.215
7.085
3.86
0.568
-2.76
-6.097
-9.407
-12.635
-15.731
-18.651
-21.349
-23.803
-25.995
-27.886
-29.501
-30.921
-32.264
-33.733
-35.512
-37.687
-40.369
-43.705
-47.739
-52.464
-57.75
-63.161
-68.287
-72.898
-76.616
-78.953
-79.542
-78.025
-74.711
-70.913
-67.678
-65.274
-62.634
-57.945
-50.891
-43.583
-40.925
-47.269
-62.969
-84.403
-103.927
-115.253
-117
-110.173
-96.935
-75.214
-37.554
23.587
113.4
229.269
362.121
502.365
640.206
770.16
888.196
985.82
1053.463
1078.994
1051.649
969.948
839.349
673.005
490.809
312.172
154.213
30.02
-55.55
-104.56
-122.295
-117.778
-100.592
-77.469
-56.263
-42.722
-37.407
-39.757
-45.167
-47.409
-45.244
-39.463
-32.868
-29.816
-31.26
-35.957
-42.35
-48.418
-53.144
-56.58
-58.743
-59.566
-59.217
-57.98
-56.149
-54.087
-52.188
-50.693
-49.876
-50.109
-51.466
-53.84
-57.101
-60.981
-65.212
-69.582
-73.802
-77.577
-80.759
-83.275
-85.101
-86.287
-86.86
-86.845
-86.311
-85.328
-83.956
-82.257
-80.272
-78.05
-75.654
-73.159
-70.638
-68.146
-65.714
-63.36
-61.091
-58.907
-56.802
-54.76
-52.755
-50.767
-48.781
-46.779
-44.749
-42.674
-40.532
-38.303
-35.965
-33.5
-30.892
-28.128
-25.198
-22.093
-18.807
-15.337
-11.68
-7.835
-3.799
0.432
4.858
9.481
14.299
19.308
24.504
29.88
35.425
41.129
46.977
52.953
59.041
65.222
71.477
77.783
84.119
90.461
96.784
103.063
109.272
115.382
121.369
127.203
132.858
138.307
143.524
148.481
153.154
157.52
161.553
165.233
168.538
171.45
173.948
176.019
177.646
178.818
179.524
179.756
179.507
178.776
177.56
175.861
173.683
171.031
167.915
164.343
160.33
155.888
151.036
145.791
140.173
134.205
127.911
121.315
114.444
107.325
99.986
92.456
84.764
76.941
69.015
61.019
52.981
44.932
36.901
28.919
21.013
13.211
5.54
-1.974
-9.307
-16.437
-23.341
-30
-36.395
-42.511
-48.331
-53.844
-59.037
-63.902
-68.431
-72.62
-76.465
-79.964
-83.118
-85.93
-88.404
-90.544
-92.359
-93.857
-95.048
-95.944
-96.556
-96.898
-96.985
-96.832
-96.455
-95.871
-95.096
-94.149
-93.046
-91.805
-90.444
-88.981
-87.432
-85.815
-84.147
-82.444
-80.721
-78.993
-77.275
-75.579
-73.919
-72.305
-70.748
-69.258
-67.841
-66.506
-65.259
-64.103
-63.044
-62.085
-61.226
-60.47
-59.815
-59.263
-58.809
-58.453
-58.191
-58.019
-57.932
-57.926
-57.996
-58.134
-58.336
-58.594
-58.902
-59.253
-59.639
-60.053
-60.488
-60.937
-61.392
-61.848
-62.296
-62.732
-63.15
-63.544
-63.91
-64.243
-64.54
-64.799
-65.016
-65.19
-65.32
-65.404
-65.444
-65.438
-65.389
-65.297
-65.165
-64.996
-64.79
-64.553
-64.288
-63.999
-63.689
-63.363
-63.027
-62.684
-62.34
-62.001
-61.67
-61.354
-61.058
-60.786
-60.545
-60.337
-60.168
-60.04
-59.958
-59.922
-59.937
-60.003
-60.12
-60.29
-60.512
-60.785
-61.109
-61.48
-61.897
-62.356
-62.854
-63.388
-63.951
-64.539
-65.146
-65.766
-66.392
-67.018
-67.638
-68.243
-68.827
-69.381
-69.899
-70.372
-70.793
-71.154
-71.446
-71.663
-71.799
-71.846
-71.8
-71.657
-71.411
-71.06
-70.601
-70.034
-69.356
-68.567
-67.668
-66.661
-65.549
-64.335
-63.025
-61.625
-60.144
-58.592
-56.98
-55.321
-53.628
-51.918
-50.206
-48.509
-46.843
-45.226
-43.673
-42.201
-40.826
-39.566
-38.436
-37.451
-36.625
-35.972
-35.503
-35.227
-35.15
-35.268
-35.582
-36.087
-36.785
-37.681
-38.778
-40.074
-41.57
-43.264
-45.148
-47.216
-49.441
-51.783
-54.199
-56.651
-59.107
-61.554
-63.968
-66.313
-68.549
-70.618
-72.472
-74.08
-75.39
-76.33
-76.877
-77.05
-76.946
-76.763
-76.679
-76.827
-77.367
-78.462
-80.203
-82.596
-85.474
-88.512
-91.388
-93.819
-95.498
-96.074
-95.244
-92.857
-89.022
-84.068
-78.442
-72.656
-67.28
-63.08
-60.925
-61.565
-65.474
-72.87
-83.172
-94.85
-106.156
-114.711
-118.955
-119.179
-114.985
-105.447
-87.708
-55.129
-2.209
74.701
176.494
298.115
433.49
575.321
714.293
842.114
948.104
1021.267
1053.417
1038.512
975.823
869.359
725.852
556.561
376.894
203.988
56.261
-52.057
-116.952
-141.439
-136.143
-116.07
-91.558
-71.467
-61.091
-58.618
-62.053
-66.96
-67.59
-63.745
-57.059
-50.527
-48.525
-51.87
-59.086
-68.438
-77.753
-85.86
-92.579
-97.664
-100.878
-102.29
-102.183
-100.929
-98.938
-96.65
-94.41
-92.627
-91.812
-92.155
-93.593
-95.996
-99.119
-102.709
-106.568
-110.405
-113.864
-116.744
-118.95
-120.45
-121.3
-121.53
-121.149
-120.212
-118.792
-116.953
-114.756
-112.25
-109.463
-106.452
-103.285
-100.031
-96.764
-93.534
-90.367
-87.282
-84.285
-81.375
-78.549
-75.794
-73.085
-70.404
-67.736
-65.064
-62.376
-59.654
-56.876
-54.019
-51.061
-47.982
-44.768
-41.404
-37.879
-34.181
-30.302
-26.237
-21.983
-17.535
-12.889
-8.041
-2.988
2.27
7.732
13.395
19.254
25.302
31.529
37.922
44.467
51.148
57.947
64.845
71.819
78.847
85.904
92.965
100.004
106.991
113.899
120.698
127.358
133.851
140.145
146.213
152.025
157.554
162.772
167.654
172.174
176.311
180.041
183.345
186.205
188.605
190.531
191.971
192.916
193.358
193.295
192.725
191.648
190.067
187.99
185.425
182.382
178.875
174.919
170.533
165.735
160.548
154.996
149.103
142.896
136.403
129.653
122.676
115.502
108.162
100.688
93.111
85.463
77.774
70.075
62.397
54.769
47.219
39.775
32.461
25.304
18.326
11.549
4.991
-1.328
-7.393
-13.189
-18.705
-23.931
-28.858
-33.48
-37.794
-41.798
-45.491
-48.876
-51.956
-54.738
-57.228
-59.434
-61.368
-63.041
-64.464
-65.653
-66.621
-67.384
-67.957
-68.358
-68.602
-68.706
-68.688
-68.564
-68.35
-68.063
-67.718
-67.33
-66.914
-66.484
-66.051
-65.629
-65.227
-64.857
-64.527
-64.245
-64.017
-63.849
-63.746
-63.71
-63.744
-63.849
-64.024
-64.269
-64.583
-64.961
-65.402
-65.899
-66.45
-67.047
-67.686
-68.359
-69.06
-69.783
-70.519
-71.263
-72.007
-72.744
-73.467
-74.169
-74.845
-75.487
-76.09
-76.649
-77.158
-77.613
-78.01
-78.345
-78.616
-78.818
-78.952
-79.015
-79.006
-78.926
-78.773
-78.551
-78.258
-77.899
-77.473
-76.985
-76.436
-75.832
-75.174
-74.468
-73.717
-72.925
-72.098
-71.239
-70.353
-69.446
-68.522
-67.586
-66.644
-65.7
-64.759
-63.826
-62.906
-62.005
-61.127
-60.277
-59.46
-58.68
-57.941
-57.248
-56.604
-56.014
-55.481
-55.008
-54.598
-54.252
-53.975
-53.766
-53.628
-53.561
-53.566
-53.644
-53.794
-54.017
-54.312
-54.678
-55.112
-55.614
-56.18
-56.808
-57.493
-58.232
-59.02
-59.851
-60.721
-61.623
-62.551
-63.499
-64.458
-65.422
-66.382
-67.331
-68.259
-69.158
-70.021
-70.838
-71.602
-72.305
-72.939
-73.497
-73.974
-74.363
-74.658
-74.853
-74.946
-74.931
-74.806
-74.568
-74.218
-73.755
-73.181
-72.504
-71.73
-70.868
-69.927
-68.92
-67.858
-66.756
-65.628
-64.484
-63.337
-62.199
-61.082
-60.005
-58.982
-58.028
-57.156
-56.376
-55.698
-55.133
-54.686
-54.356
-54.141
-54.042
-54.063
-54.222
-54.536
-55.016
-55.67
-56.502
-57.509
-58.685
-60.019
-61.483
-63.052
-64.696
-66.38
-68.086
-69.788
-71.449
-73.035
-74.479
-75.686
-76.615
-77.253
-77.61
-77.785
-77.864
-77.893
-78.004
-78.359
-79.012
-80
-81.268
-82.514
-83.515
-84.21
-84.463
-84.214
-83.546
-82.391
-80.755
-79.062
-77.693
-76.736
-76.281
-76.317
-76.609
-77.743
-81.069
-86.561
-93.603
-101.125
-106.01
-107.495
-107.567
-107.443
-110.099
-116.606
-122.85
-124.419
-115.429
-88.969
-41.852
27.04
118.092
228.608
354.852
493.928
639.014
780.704
908.349
1006.676
1062.806
1068.531
1019.258
919.118
777.185
605.648
421.171
240.808
81.337
-42.551
-122.248
-156.624
-152.148
-121.576
-80.804
-43.932
-20.711
-14.564
-21.493
-34.398
-45.73
-50.072
-47.59
-41.356
-35.13
-32.378
-33.484
-36.948
-41.257
-44.927
-47.592
-49.656
-51.362
-52.79
-53.796
-54.279
-54.296
-53.987
-53.518
-53.018
-52.62
-52.56
-53.135
-54.476
-56.568
-59.288
-62.425
-65.772
-69.134
-72.288
-75.009
-77.16
-78.689
-79.599
-79.947
-79.788
-79.172
-78.159
-76.817
-75.205
-73.37
-71.365
-69.235
-67.037
-64.835
-62.674
-60.584
-58.582
-56.672
-54.847
-53.096
-51.4
-49.732
-48.069
-46.393
-44.686
-42.931
-41.108
-39.196
-37.172
-35.013
-32.697
-30.206
-27.523
-24.635
-21.53
-18.2
-14.639
-10.844
-6.812
-2.539
1.977
6.738
11.742
16.987
22.467
28.175
34.102
40.234
46.556
53.051
59.698
66.476
73.361
80.328
87.35
94.398
101.443
108.455
115.4
122.247
128.963
135.514
141.867
147.989
153.847
159.409
164.645
169.524
174.019
178.103
181.751
184.941
187.651
189.864
191.562
192.734
193.367
193.453
192.988
191.968
190.395
188.272
185.606
182.407
178.686
174.458
169.741
164.555
158.922
152.867
146.415
139.595
132.437
124.974
117.237
109.26
101.079
92.728
84.243
75.66
67.014
58.341
49.676
41.051
32.501
24.057
15.751
7.611
-0.335
-8.061
-15.542
-22.756
-29.685
-36.309
-42.613
-48.585
-54.213
-59.488
-64.404
-68.956
-73.143
-76.965
-80.425
-83.526
-86.275
-88.68
-90.752
-92.502
-93.943
-95.088
-95.954
-96.556
-96.912
-97.038
-96.954
-96.676
-96.224
-95.617
-94.872
-94.01
-93.046
-92
-90.888
-89.726
-88.529
-87.312
-86.087
-84.866
-83.661
-82.481
-81.335
-80.231
-79.175
-78.172
-77.226
-76.34
-75.514
-74.75
-74.046
-73.4
-72.809
-72.272
-71.784
-71.34
-70.936
-70.567
-70.227
-69.911
-69.612
-69.326
-69.045
-68.765
-68.479
-68.183
-67.874
-67.546
-67.199
-66.831
-66.443
-66.038
-65.619
-65.192
-64.762
-64.336
-63.921
-63.524
-63.153
-62.814
-62.514
-62.262
-62.066
-61.935
-61.878
-61.904
-62.017
-62.223
-62.521
-62.907
-63.378
-63.928
-64.552
-65.259
-66.05
-66.928
-67.9
-68.968
-70.131
-71.387
-72.714
-74.085
-75.471
-76.848
-78.205
-79.534
-80.817
-82.026
-83.129
-84.074
-84.836
-85.372
-85.606
-85.508
-85.083
-84.391
-83.606
-82.907
-82.397
-82.22
-82.537
-83.397
-84.821
-86.671
-88.565
-90.23
-91.483
-92.083
-91.826
-90.564
-88.152
-84.716
-80.707
-76.43
-72.169
-68.317
-65.292
-63.694
-64.127
-67.018
-72.531
-80.752
-91.793
-104.89
-118.086
-129.003
-134.844
-134.133
-127.85
-116.425
-99.263
-73.367
-31.91
31.425
120.899
237.473
376.542
529.736
685.986
831.839
953.583
1039.306
1078.959
1066.25
999.846
882.256
722.542
536.466
344.326
168.665
28.189
-67.396
-119.163
-135.848
-129.6
-111.383
-87.687
-63.422
-42.75
-28.857
-23.978
-27.011
-33.924
-40.148
-43.362
-44.145
-44.936
-48.474
-55.157
-63.611
-71.901
-78.013
-81.137
-81.284
-78.779
-74.301
-68.46
-61.798
-54.933
-48.384
-42.628
-38.121
-35.041
-33.368
-32.978
-33.631
-35.086
-37.118
-39.444
-41.764
-43.858
-45.561
-46.791
-47.537
-47.789
-47.548
-46.842
-45.71
-44.203
-42.379
-40.285
-37.966
-35.471
-32.851
-30.169
-27.493
-24.885
-22.403
-20.087
-17.955
-16.018
-14.274
-12.711
-11.315
-10.057
-8.904
-7.825
-6.793
-5.778
-4.757
-3.7
-2.574
-1.351
0
1.505
3.184
5.058
7.147
9.467
12.03
14.847
17.924
21.267
24.883
28.776
32.947
37.398
42.122
47.116
52.37
57.873
63.611
69.564
75.711
82.029
88.492
95.073
101.74
108.461
115.204
121.934
128.614
135.208
141.68
147.991
154.104
159.983
165.59
170.892
175.852
180.44
184.623
188.373
191.663
194.469
196.767
198.539
199.767
200.439
200.543
200.071
199.02
197.387
195.177
192.394
189.048
185.151
180.719
175.77
170.325
164.409
158.046
151.267
144.102
136.583
128.744
120.62
112.25
103.668
94.915
86.028
77.046
68.007
58.948
49.908
40.923
32.029
23.259
14.647
6.224
-1.98
-9.938
-17.624
-25.014
-32.088
-38.826
-45.213
-51.235
-56.88
-62.139
-67.006
-71.476
-75.549
-79.225
-82.507
-85.4
-87.912
-90.051
-91.828
-93.256
-94.349
-95.122
-95.592
-95.776
-95.693
-95.361
-94.801
-94.033
-93.077
-91.954
-90.684
-89.288
-87.785
-86.195
-84.538
-82.83
-81.091
-79.335
-77.581
-75.841
-74.129
-72.459
-70.842
-69.287
-67.805
-66.402
-65.086
-63.861
-62.732
-61.703
-60.775
-59.95
-59.227
-58.607
-58.086
-57.663
-57.336
-57.099
-56.949
-56.88
-56.888
-56.966
-57.109
-57.31
-57.563
-57.862
-58.2
-58.571
-58.967
-59.383
-59.813
-60.251
-60.69
-61.127
-61.555
-61.97
-62.368
-62.746
-63.099
-63.426
-63.724
-63.991
-64.226
-64.427
-64.594
-64.727
-64.825
-64.89
-64.922
-64.922
-64.892
-64.833
-64.748
-64.637
-64.504
-64.351
-64.179
-63.992
-63.792
-63.581
-63.362
-63.138
-62.911
-62.683
-62.458
-62.236
-62.02
-61.813
-61.614
-61.427
-61.252
-61.09
-60.941
-60.807
-60.687
-60.582
-60.49
-60.412
-60.347
-60.294
-60.251
-60.218
-60.193
-60.174
-60.16
-60.15
-60.141
-60.132
-60.12
-60.105
-60.084
-60.056
-60.017
-59.966
-59.902
-59.822
-59.725
-59.608
-59.47
-59.309
-59.124
-58.913
-58.675
-58.409
-58.113
-57.787
-57.429
-57.04
-56.619
-56.165
-55.679
-55.16
-54.608
-54.024
-53.407
-52.758
-52.076
-51.364
-50.62
-49.845
-49.04
-48.206
-47.344
-46.455
-45.539
-44.599
-43.635
-42.649
-41.642
-40.617
-39.574
-38.517
-37.446
-36.365
-35.275
-34.179
-33.08
-31.98
-30.882
-29.789
-28.703
-27.629
-26.568
-25.525
-24.502
-23.504
-22.534
-21.595
-20.692
-19.829
-19.008
-18.235
-17.511
-16.841
-16.227
-15.672
-15.179
-14.75
-14.387
-14.092
-13.865
-13.709
-13.622
-13.607
-13.661
-13.784
-13.976
-14.233
-14.553
-14.933
-15.369
-15.858
-16.394
-16.972
-17.588
-18.233
-18.902
-19.586
-20.279
-20.971
-21.654
-22.319
-22.957
-23.559
-24.117
-24.621
-25.063
-25.435
-25.73
-25.939
-26.057
-26.076
-25.991
-25.797
-25.49
-25.069
-24.529
-23.872
-23.096
-22.205
-21.203
-20.098
-18.896
-17.608
-16.247
-14.824
-13.356
-11.858
-10.346
-8.834
-7.339
-5.876
-4.463
-3.118
-1.86
-0.707
0.327
1.228
1.983
2.583
3.023
3.299
3.408
3.348
3.106
2.67
2.027
1.166
0.08
-1.234
-2.77
-4.518
-6.456
-8.565
-10.828
-13.224
-15.733
-18.329
-20.98
-23.653
-26.305
-28.878
-31.286
-33.472
-35.418
-37.15
-38.777
-40.407
-42.112
-43.999
-46.211
-48.809
-51.805
-55.113
-58.405
-61.413
-64.031
-66.097
-67.52
-68.322
-68.416
-67.841
-67.028
-66.29
-65.782
-65.775
-66.321
-67.461
-69.624
-73.123
-78.052
-84.661
-93.057
-103.208
-114.569
-125.567
-134.358
-138.786
-138.078
-133.224
-123.511
-107.479
-81.184
-37.369
27.602
115.371
225.195
351.266
489.52
634.219
775.926
904.889
1006.597
1067.167
1077.644
1032.895
936.318
797.196
628.404
447.298
271.512
117.325
-2.154
-80.643
-118.868
-123.311
-104.954
-76.424
-48.742
-30.471
-25.678
-32.216
-44.847
-56.689
-61.902
-59.938
-53.396
-46.199
-42.318
-42.683
-46.125
-51.08
-55.973
-60.158
-63.693
-66.639
-68.944
-70.393
-70.901
-70.569
-69.536
-68.088
-66.52
-65.066
-64.064
-63.839
-64.488
-65.996
-68.263
-71.069
-74.202
-77.452
-80.535
-83.199
-85.31
-86.799
-87.668
-87.964
-87.717
-86.966
-85.78
-84.232
-82.382
-80.285
-77.977
-75.5
-72.91
-70.27
-67.642
-65.072
-62.582
-60.184
-57.881
-55.668
-53.537
-51.47
-49.441
-47.427
-45.411
-43.373
-41.299
-39.169
-36.959
-34.647
-32.209
-29.623
-26.874
-23.947
-20.826
-17.504
-13.969
-10.217
-6.243
-2.043
2.387
7.051
11.952
17.088
22.46
28.061
33.888
39.932
46.18
52.622
59.24
66.017
72.935
79.971
87.105
94.312
101.565
108.84
116.107
123.338
130.503
137.573
144.518
151.306
157.908
164.294
170.434
176.3
181.864
187.1
191.982
196.486
200.589
204.27
207.512
210.295
212.606
214.431
215.76
216.584
216.899
216.7
215.988
214.764
213.032
210.799
208.074
204.868
201.195
197.069
192.509
187.534
182.164
176.424
170.336
163.927
157.223
150.252
143.043
135.625
128.027
120.28
112.414
104.459
96.445
88.401
80.357
72.341
64.38
56.501
48.731
41.092
33.607
26.3
19.188
12.292
5.627
-0.791
-6.948
-12.833
-18.435
-23.747
-28.762
-33.474
-37.88
-41.98
-45.773
-49.26
-52.445
-55.331
-57.926
-60.234
-62.265
-64.028
-65.531
-66.786
-67.804
-68.596
-69.174
-69.551
-69.739
-69.751
-69.6
-69.297
-68.856
-68.288
-67.606
-66.821
-65.944
-64.987
-63.959
-62.871
-61.732
-60.551
-59.336
-58.096
-56.837
-55.567
-54.292
-53.017
-51.749
-50.492
-49.25
-48.027
-46.828
-45.656
-44.514
-43.404
-42.33
-41.294
-40.3
-39.348
-38.442
-37.584
-36.776
-36.021
-35.321
-34.679
-34.097
-33.577
-33.122
-32.735
-32.416
-32.169
-31.996
-31.899
-31.88
-31.94
-32.081
-32.305
-32.612
-33.003
-33.479
-34.041
-34.687
-35.419
-36.235
-37.134
-38.114
-39.175
-40.312
-41.525
-42.809
-44.161
-45.577
-47.054
-48.585
-50.166
-51.792
-53.458
-55.157
-56.883
-58.63
-60.393
-62.164
-63.938
-65.709
-67.469
-69.214
-70.937
-72.633
-74.298
-75.925
-77.51
-79.05
-80.54
-81.978
-83.36
-84.684
-85.947
-87.149
-88.289
-89.365
-90.378
-91.328
-92.217
-93.046
-93.817
-94.532
-95.194
-95.806
-96.371
-96.893
-97.376
-97.823
-98.238
-98.626
-98.991
-99.336
-99.667
-99.985
-100.295
-100.599
-100.9
-101.201
-101.503
-101.807
-102.114
-102.425
-102.74
-103.059
-103.381
-103.705
-104.028
-104.349
-104.664
-104.969
-105.262
-105.536
-105.787
-106.009
-106.198
-106.347
-106.45
-106.5
-106.492
-106.419
-106.273
-106.048
-105.738
-105.335
-104.835
-104.231
-103.518
-102.692
-101.75
-100.688
-99.504
-98.197
-96.767
-95.213
-93.539
-91.744
-89.834
-87.81
-85.678
-83.446
-81.122
-78.719
-76.248
-73.724
-71.164
-68.584
-66.002
-63.436
-60.903
-58.42
-56.003
-53.669
-51.435
-49.321
-47.345
-45.523
-43.869
-42.394
-41.109
-40.021
-39.136
-38.451
-37.964
-37.674
-37.583
-37.704
-38.046
-38.614
-39.411
-40.432
-41.672
-43.129
-44.795
-46.655
-48.687
-50.857
-53.135
-55.497
-57.909
-60.349
-62.759
-65.037
-67.133
-69.03
-70.749
-72.375
-73.953
-75.47
-76.978
-78.587
-80.312
-82.113
-83.813
-85.083
-85.756
-85.779
-85.102
-83.742
-81.789
-79.449
-77.139
-75.331
-74.306
-74.281
-75.281
-77.133
-79.654
-82.327
-85.085
-88.665
-93.508
-99.928
-106.424
-109.546
-107.439
-99.649
-89.363
-82.859
-83.739
-93.675
-109.131
-121.493
-122.455
-102.277
-54.792
21.443
125.776
251.971
393.06
541.511
687.618
822.805
935.987
1015.687
1052.683
1039.8
976.126
865.835
717.532
544.779
363.272
190.448
42.978
-67.385
-135.339
-163.081
-158.967
-134.347
-101.236
-70.085
-48.311
-39.015
-40.205
-46.615
-51.913
-51.494
-45.144
-35.597
-26.485
-20.955
-19.492
-20.807
-23.51
-26.317
-28.867
-31.377
-33.843
-36.089
-37.793
-38.768
-39.015
-38.654
-37.841
-36.73
-35.532
-34.548
-34.134
-34.463
-35.507
-37.137
-39.132
-41.266
-43.364
-45.227
-46.635
-47.469
-47.697
-47.329
-46.443
-45.12
-43.405
-41.364
-39.068
-36.568
-33.923
-31.193
-28.427
-25.686
-23.018
-20.451
-18.009
-15.702
-13.528
-11.479
-9.537
-7.675
-5.873
-4.113
-2.38
-0.657
1.073
2.837
4.656
6.555
8.557
10.682
12.95
15.38
17.984
20.776
23.763
26.952
30.35
33.964
37.802
41.868
46.166
50.697
55.461
60.456
65.677
71.114
76.758
82.593
88.604
94.774
101.083
107.509
114.028
120.617
127.248
133.894
140.525
147.111
153.621
160.024
166.287
172.379
178.268
183.923
189.312
194.406
199.175
203.593
207.633
211.27
214.481
217.245
219.544
221.361
222.681
223.493
223.788
223.56
222.805
221.524
219.719
217.395
214.56
211.225
207.403
203.11
198.363
193.181
187.589
181.608
175.265
168.587
161.602
154.34
146.832
139.11
131.205
123.149
114.976
106.718
98.407
90.076
81.755
73.476
65.269
57.161
49.18
41.352
33.701
26.249
19.017
12.023
5.285
-1.184
-7.371
-13.265
-18.858
-24.143
-29.117
-33.776
-38.119
-42.149
-45.867
-49.278
-52.388
-55.204
-57.737
-59.995
-61.989
-63.734
-65.241
-66.524
-67.599
-68.481
-69.184
-69.726
-70.122
-70.388
-70.54
-70.593
-70.562
-70.462
-70.306
-70.108
-69.88
-69.633
-69.379
-69.126
-68.885
-68.662
-68.465
-68.301
-68.173
-68.088
-68.048
-68.055
-68.112
-68.22
-68.379
-68.588
-68.846
-69.151
-69.5
-69.89
-70.317
-70.777
-71.265
-71.775
-72.304
-72.845
-73.392
-73.941
-74.484
-75.018
-75.536
-76.033
-76.504
-76.946
-77.353
-77.722
-78.05
-78.332
-78.567
-78.752
-78.885
-78.964
-78.988
-78.956
-78.868
-78.724
-78.524
-78.269
-77.961
-77.6
-77.188
-76.729
-76.225
-75.679
-75.094
-74.473
-73.821
-73.141
-72.438
-71.715
-70.977
-70.228
-69.471
-68.71
-67.95
-67.192
-66.442
-65.701
-64.973
-64.26
-63.564
-62.888
-62.233
-61.6
-60.992
-60.409
-59.851
-59.318
-58.812
-58.332
-57.876
-57.445
-57.038
-56.652
-56.287
-55.941
-55.611
-55.296
-54.993
-54.7
-54.414
-54.133
-53.855
-53.578
-53.3
-53.019
-52.734
-52.443
-52.145
-51.84
-51.527
-51.205
-50.874
-50.535
-50.189
-49.836
-49.477
-49.114
-48.748
-48.38
-48.012
-47.645
-47.282
-46.924
-46.573
-46.232
-45.902
-45.586
-45.287
-45.005
-44.744
-44.505
-44.29
-44.099
-43.934
-43.793
-43.677
-43.586
-43.518
-43.471
-43.444
-43.435
-43.439
-43.455
-43.477
-43.501
-43.524
-43.539
-43.541
-43.526
-43.488
-43.422
-43.324
-43.188
-43.01
-42.785
-42.509
-42.178
-41.788
-41.335
-40.817
-40.232
-39.579
-38.857
-38.067
-37.211
-36.295
-35.325
-34.31
-33.258
-32.181
-31.091
-30.001
-28.924
-27.872
-26.858
-25.893
-24.988
-24.16
-23.421
-22.787
-22.269
-21.877
-21.621
-21.506
-21.538
-21.714
-22.034
-22.494
-23.097
-23.854
-24.778
-25.879
-27.165
-28.639
-30.3
-32.138
-34.136
-36.264
-38.492
-40.798
-43.157
-45.546
-47.939
-50.302
-52.585
-54.744
-56.712
-58.4
-59.771
-60.814
-61.569
-62.166
-62.724
-63.337
-64.146
-65.321
-66.923
-68.968
-71.338
-73.701
-75.853
-77.71
-79.124
-79.971
-80.176
-79.635
-78.45
-77.029
-75.595
-74.253
-73.212
-72.642
-72.861
-74.357
-77.513
-82.511
-89.574
-98.93
-110.039
-121.468
-131.371
-137.297
-138.003
-134.393
-126.668
-114.325
-94.175
-58.683
-1.521
81.677
191.268
321.06
463.949
610.995
752.521
880.015
981.478
1046.243
1065.414
1032.564
949.952
823.229
662.729
484.064
302.328
134.567
-3.645
-103.17
-161.204
-181.329
-172.963
-148.186
-117.053
-89.565
-72.728
-66.576
-69.328
-75.296
-77.151
-73.462
-65.217
-55.485
-49.109
-47.385
-49.368
-53.662
-58.194
-62.035
-65.379
-68.344
-71.017
-73.314
-74.929
-75.771
-75.949
-75.64
-75.021
-74.264
-73.569
-73.168
-73.352
-74.255
-75.81
-77.875
-80.231
-82.644
-84.941
-86.937
-88.429
-89.315
-89.571
-89.213
-88.318
-86.965
-85.204
-83.101
-80.728
-78.137
-75.391
-72.548
-69.661
-66.789
-63.985
-61.277
-58.689
-56.233
-53.906
-51.701
-49.602
-47.584
-45.627
-43.714
-41.828
-39.956
-38.077
-36.169
-34.209
-32.174
-30.041
-27.79
-25.402
-22.859
-20.146
-17.251
-14.166
-10.881
-7.39
-3.683
0.247
4.409
8.808
13.446
18.325
23.447
28.807
34.401
40.218
46.249
52.48
58.895
65.479
72.21
79.069
86.03
93.07
100.162
107.276
114.384
121.455
128.457
135.359
142.126
148.728
155.131
161.302
167.21
172.824
178.113
183.049
187.603
191.749
195.461
198.718
201.497
203.781
205.551
206.794
207.5
207.658
207.264
206.314
204.809
202.751
200.146
197.002
193.332
189.148
184.467
179.308
173.694
167.646
161.192
154.359
147.176
139.674
131.884
123.841
115.579
107.131
98.534
89.823
81.034
72.202
63.363
54.552
45.802
37.147
28.619
20.248
12.063
4.093
-3.638
-11.104
-18.285
-25.161
-31.713
-37.928
-43.791
-49.293
-54.424
-59.18
-63.556
-67.551
-71.165
-74.401
-77.265
-79.761
-81.9
-83.691
-85.145
-86.277
-87.1
-87.63
-87.883
-87.878
-87.631
-87.163
-86.491
-85.634
-84.613
-83.447
-82.154
-80.753
-79.262
-77.7
-76.082
-74.425
-72.745
-71.056
-69.37
-67.7
-66.058
-64.453
-62.895
-61.392
-59.951
-58.577
-57.276
-56.051
-54.906
-53.842
-52.859
-51.959
-51.14
-50.4
-49.739
-49.153
-48.639
-48.194
-47.814
-47.495
-47.233
-47.022
-46.86
-46.741
-46.662
-46.617
-46.605
-46.62
-46.661
-46.724
-46.806
-46.907
-47.023
-47.153
-47.296
-47.451
-47.618
-47.795
-47.984
-48.184
-48.397
-48.622
-48.86
-49.114
-49.384
-49.672
-49.978
-50.305
-50.655
-51.028
-51.426
-51.851
-52.303
-52.784
-53.294
-53.835
-54.405
-55.005
-55.634
-56.291
-56.975
-57.684
-58.416
-59.169
-59.94
-60.727
-61.526
-62.335
-63.15
-63.968
-64.786
-65.599
-66.405
-67.199
-67.98
-68.742
-69.484
-70.202
-70.893
-71.555
-72.186
-72.782
-73.341
-73.863
-74.345
-74.786
-75.186
-75.543
-75.859
-76.133
-76.367
-76.562
-76.72
-76.843
-76.934
-76.994
-77.028
-77.039
-77.029
-77.004
-76.966
-76.92
-76.869
-76.817
-76.766
-76.721
-76.682
-76.654
-76.637
-76.633
-76.642
-76.667
-76.707
-76.762
-76.833
-76.917
-77.014
-77.122
-77.239
-77.361
-77.484
-77.605
-77.718
-77.817
-77.898
-77.954
-77.978
-77.964
-77.904
-77.79
-77.615
-77.37
-77.048
-76.639
-76.137
-75.535
-74.825
-74.002
-73.061
-71.997
-70.806
-69.486
-68.034
-66.448
-64.729
-62.876
-60.89
-58.776
-56.536
-54.176
-51.702
-49.123
-46.449
-43.694
-40.872
-37.998
-35.089
-32.164
-29.243
-26.346
-23.491
-20.698
-17.985
-15.371
-12.874
-10.513
-8.307
-6.272
-4.424
-2.776
-1.338
-0.117
0.886
1.672
2.242
2.595
2.722
2.616
2.271
1.681
0.841
-0.248
-1.58
-3.133
-4.872
-6.762
-8.772
-10.883
-13.081
-15.336
-17.614
-19.869
-22.042
-24.091
-25.957
-27.551
-28.827
-29.787
-30.502
-31.151
-31.912
-32.903
-34.277
-36.206
-38.751
-41.883
-45.38
-48.823
-51.87
-54.294
-55.848
-56.248
-55.345
-53.186
-50.035
-46.336
-42.586
-39.127
-36.73
-36.862
-39.987
-45.908
-53.653
-60.689
-67.086
-74.631
-84.144
-97.287
-111.641
-122.049
-126.423
-122.102
-108.334
-85.263
-47.541
10.728
94.299
205.791
340.58
489.692
642.232
785.935
909.705
1003.151
1056.77
1063.063
1017.469
920.954
780.76
609.757
425.932
248.521
93.789
-25.976
-105.894
-148.575
-159.841
-149.268
-126.533
-98.933
-73.696
-55.25
-46.003
-46.03
-52.325
-61.175
-67.395
-68.632
-64.984
-57.229
-49.891
-45.369
-44.092
-46.816
-51.037
-55.161
-59.143
-62.207
-64.749
-67.039
-68.647
-69.609
-69.996
-69.798
-69.226
-68.509
-67.868
-67.651
-68.059
-69.068
-70.56
-72.329
-74.159
-75.889
-77.354
-78.352
-78.77
-78.586
-77.816
-76.544
-74.851
-72.786
-70.416
-67.813
-65.032
-62.134
-59.175
-56.2
-53.263
-50.407
-47.658
-45.037
-42.551
-40.194
-37.958
-35.824
-33.767
-31.766
-29.803
-27.86
-25.922
-23.968
-21.975
-19.92
-17.78
-15.532
-13.157
-10.634
-7.946
-5.079
-2.021
1.237
4.702
8.383
12.287
16.419
20.787
25.392
30.237
35.321
40.641
46.192
51.966
57.951
64.133
70.498
77.027
83.701
90.498
97.395
104.365
111.383
118.419
125.445
132.429
139.34
146.146
152.815
159.315
165.612
171.675
177.474
182.978
188.157
192.986
197.436
201.484
205.106
208.282
210.992
213.22
214.951
216.173
216.877
217.056
216.706
215.826
214.418
212.486
210.037
207.081
203.629
199.698
195.302
190.463
185.202
179.542
173.51
167.131
160.436
153.453
146.214
138.751
131.096
123.281
115.339
107.304
99.208
91.083
82.96
74.872
66.848
58.916
51.106
43.444
35.954
28.661
21.585
14.747
8.166
1.856
-4.168
-9.893
-15.309
-20.41
-25.189
-29.642
-33.768
-37.568
-41.044
-44.201
-47.044
-49.582
-51.824
-53.78
-55.463
-56.885
-58.059
-59.001
-59.726
-60.249
-60.587
-60.755
-60.771
-60.649
-60.407
-60.06
-59.623
-59.112
-58.54
-57.923
-57.271
-56.599
-55.918
-55.237
-54.567
-53.916
-53.291
-52.7
-52.146
-51.635
-51.169
-50.751
-50.38
-50.059
-49.785
-49.557
-49.373
-49.23
-49.125
-49.054
-49.013
-48.997
-49.002
-49.023
-49.055
-49.095
-49.137
-49.177
-49.213
-49.239
-49.253
-49.251
-49.231
-49.191
-49.128
-49.042
-48.931
-48.796
-48.635
-48.45
-48.243
-48.015
-47.768
-47.504
-47.229
-46.943
-46.653
-46.362
-46.074
-45.794
-45.527
-45.279
-45.053
-44.854
-44.687
-44.557
-44.467
-44.421
-44.422
-44.473
-44.576
-44.734
-44.947
-45.217
-45.544
-45.929
-46.372
-46.87
-47.424
-48.031
-48.689
-49.396
-50.148
-50.941
-51.772
-52.637
-53.531
-54.448
-55.385
-56.335
-57.294
-58.255
-59.213
-60.163
-61.099
-62.016
-62.908
-63.771
-64.6
-65.392
-66.141
-66.846
-67.504
-68.111
-68.667
-69.17
-69.619
-70.014
-70.355
-70.642
-70.877
-71.061
-71.195
-71.283
-71.327
-71.33
-71.296
-71.228
-71.13
-71.006
-70.861
-70.697
-70.52
-70.333
-70.141
-69.947
-69.755
-69.569
-69.392
-69.228
-69.078
-68.945
-68.832
-68.739
-68.666
-68.615
-68.584
-68.573
-68.579
-68.6
-68.634
-68.678
-68.728
-68.779
-68.828
-68.868
-68.895
-68.902
-68.884
-68.834
-68.746
-68.614
-68.432
-68.195
-67.897
-67.532
-67.098
-66.588
-65.999
-65.329
-64.574
-63.732
-62.803
-61.787
-60.684
-59.496
-58.226
-56.88
-55.465
-53.992
-52.471
-50.915
-49.337
-47.752
-46.177
-44.627
-43.115
-41.657
-40.264
-38.954
-37.742
-36.648
-35.685
-34.867
-34.204
-33.706
-33.381
-33.233
-33.259
-33.457
-33.822
-34.357
-35.074
-35.986
-37.099
-38.417
-39.94
-41.659
-43.565
-45.642
-47.864
-50.211
-52.656
-55.169
-57.734
-60.324
-62.907
-65.448
-67.88
-70.115
-72.107
-73.843
-75.348
-76.723
-78.058
-79.412
-80.898
-82.65
-84.709
-87.045
-89.528
-91.869
-93.802
-95.203
-95.987
-96.07
-95.526
-94.467
-92.985
-91.403
-90.128
-89.293
-88.874
-88.864
-89.023
-89.699
-91.984
-96.396
-102.794
-109.578
-114.339
-115.889
-114.552
-113.199
-114.594
-119.45
-127.399
-134.406
-135.385
-125.51
-97.447
-45.501
34.1
143.085
276.951
427.244
582.67
729.52
855.209
949.233
1004.212
1016.091
983.184
905.518
784.417
625.23
439.691
246.297
67.672
-75.4
-170.546
-217.465
-224.12
-203.887
-171.171
-135.632
-106.037
-88.082
-81.406
-84.328
-90.972
-94.028
-91.649
-84.494
-75.859
-70.704
-70.327
-73.659
-78.955
-83.891
-87.629
-90.412
-92.386
-93.658
-94.096
-93.63
-92.469
-90.88
-89.105
-87.339
-85.722
-84.501
-83.988
-84.291
-85.355
-87.024
-89.058
-91.241
-93.387
-95.281
-96.699
-97.516
-97.684
-97.214
-96.172
-94.616
-92.6
-90.189
-87.453
-84.457
-81.253
-77.898
-74.443
-70.947
-67.473
-64.067
-60.762
-57.575
-54.514
-51.574
-48.748
-46.018
-43.361
-40.757
-38.189
-35.641
-33.096
-30.536
-27.938
-25.281
-22.541
-19.699
-16.734
-13.63
-10.371
-6.945
-3.342
0.447
4.429
8.611
13
17.602
22.423
27.466
32.734
38.224
43.937
49.865
56.002
62.337
68.857
75.549
82.395
89.377
96.475
103.667
110.928
118.233
125.555
132.867
140.138
147.34
154.441
161.411
168.218
174.831
181.219
187.351
193.198
198.73
203.92
208.74
213.166
217.173
220.741
223.848
226.476
228.611
230.238
231.348
231.93
231.981
231.497
230.478
228.927
226.848
224.25
221.143
217.54
213.455
208.908
203.916
198.503
192.692
186.507
179.977
173.13
165.995
158.602
150.985
143.174
135.203
127.104
118.911
110.657
102.373
94.093
85.847
77.666
69.581
61.619
53.807
46.172
38.738
31.527
24.56
17.857
11.435
5.308
-0.511
-6.009
-11.178
-16.011
-20.504
-24.651
-28.453
-31.911
-35.025
-37.801
-40.243
-42.361
-44.161
-45.654
-46.851
-47.765
-48.409
-48.796
-48.942
-48.861
-48.569
-48.083
-47.417
-46.59
-45.616
-44.514
-43.298
-41.984
-40.589
-39.126
-37.611
-36.058
-34.478
-32.885
-31.291
-29.705
-28.139
-26.601
-25.1
-23.644
-22.239
-20.892
-19.607
-18.39
-17.244
-16.171
-15.175
-14.257
-13.417
-12.658
-11.978
-11.378
-10.856
-10.412
-10.044
-9.75
-9.528
-9.375
-9.289
-9.266
-9.303
-9.398
-9.547
-9.747
-9.994
-10.286
-10.619
-10.99
-11.397
-11.835
-12.302
-12.795
-13.311
-13.847
-14.4
-14.968
-15.548
-16.139
-16.737
-17.34
-17.946
-18.554
-19.16
-19.763
-20.361
-20.953
-21.537
-22.112
-22.677
-23.231
-23.773
-24.304
-24.823
-25.33
-25.824
-26.307
-26.778
-27.239
-27.688
-28.129
-28.56
-28.985
-29.403
-29.817
-30.227
-30.636
-31.046
-31.457
-31.872
-32.294
-32.722
-33.161
-33.613
-34.078
-34.561
-35.062
-35.583
-36.128
-36.697
-37.291
-37.912
-38.56
-39.235
-39.937
-40.666
-41.421
-42.2
-43.003
-43.827
-44.67
-45.53
-46.404
-47.289
-48.18
-49.074
-49.966
-50.852
-51.726
-52.583
-53.418
-54.225
-54.999
-55.732
-56.419
-57.054
-57.631
-58.142
-58.581
-58.943
-59.22
-59.409
-59.503
-59.498
-59.39
-59.177
-58.855
-58.423
-57.88
-57.226
-56.462
-55.587
-54.605
-53.52
-52.335
-51.056
-49.688
-48.24
-46.721
-45.141
-43.515
-41.855
-40.177
-38.496
-36.83
-35.197
-33.615
-32.1
-30.668
-29.334
-28.114
-27.024
-26.081
-25.301
-24.696
-24.277
-24.051
-24.024
-24.201
-24.576
-25.147
-25.905
-26.849
-27.983
-29.312
-30.838
-32.562
-34.48
-36.583
-38.857
-41.283
-43.828
-46.466
-49.173
-51.927
-54.706
-57.486
-60.234
-62.911
-65.475
-67.871
-70.015
-71.866
-73.408
-74.673
-75.777
-76.832
-77.913
-79.131
-80.63
-82.467
-84.669
-87.148
-89.565
-91.658
-93.313
-94.345
-94.613
-94.03
-92.384
-89.648
-86.225
-82.427
-78.449
-74.632
-71.17
-68.416
-67.169
-68.001
-71.14
-76.857
-85.208
-96.083
-108.776
-121.093
-130.18
-133.245
-129.405
-120.35
-107.218
-89.327
-61.916
-16.584
53.501
151.022
272.471
409.461
551.31
687.841
810.181
907.751
971.387
991.821
961.03
879.144
749.731
582.997
396.761
208.952
39.729
-93.875
-184.178
-230.81
-240.272
-223.93
-193.24
-156.914
-123.536
-99.092
-84.469
-79.181
-78.366
-75.44
-68.884
-59.334
-49.962
-45.702
-47.586
-54.247
-63.751
-73.335
-81.619
-88.451
-93.514
-96.646
-97.966
-97.664
-96.131
-93.927
-91.522
-89.274
-87.594
-86.86
-87.182
-88.486
-90.579
-93.154
-95.933
-98.677
-101.136
-103.087
-104.413
-105.083
-105.115
-104.573
-103.513
-101.984
-100.046
-97.764
-95.192
-92.376
-89.368
-86.216
-82.979
-79.724
-76.498
-73.334
-70.253
-67.264
-64.367
-61.56
-58.831
-56.161
-53.535
-50.94
-48.363
-45.792
-43.208
-40.593
-37.924
-35.18
-32.342
-29.391
-26.311
-23.088
-19.71
-16.169
-12.455
-8.562
-4.484
-0.213
4.258
8.933
13.818
18.914
24.221
29.737
35.46
41.38
47.49
53.778
60.231
66.833
73.568
80.416
87.357
94.368
101.425
108.503
115.574
122.61
129.583
136.462
143.217
149.817
156.232
162.431
168.384
174.061
179.433
184.473
189.154
193.45
197.337
200.794
203.801
206.338
208.39
209.943
210.987
211.512
211.514
210.989
209.937
208.36
206.264
203.657
200.547
196.95
192.879
188.352
183.39
178.014
172.248
166.119
159.654
152.882
145.832
138.536
131.027
123.337
115.499
107.547
99.515
91.435
83.341
75.266
67.241
59.297
51.463
43.769
36.241
28.904
21.783
14.898
8.27
1.917
-4.145
-9.902
-15.342
-20.456
-25.236
-29.676
-33.772
-37.525
-40.933
-44.001
-46.731
-49.13
-51.206
-52.969
-54.429
-55.598
-56.49
-57.12
-57.502
-57.653
-57.589
-57.329
-56.888
-56.286
-55.539
-54.666
-53.682
-52.606
-51.454
-50.241
-48.984
-47.696
-46.391
-45.083
-43.784
-42.506
-41.258
-40.05
-38.891
-37.788
-36.748
-35.777
-34.88
-34.059
-33.318
-32.658
-32.081
-31.587
-31.174
-30.842
-30.587
-30.407
-30.299
-30.259
-30.282
-30.363
-30.499
-30.684
-30.913
-31.18
-31.482
-31.811
-32.164
-32.536
-32.921
-33.314
-33.712
-34.109
-34.501
-34.885
-35.255
-35.61
-35.945
-36.256
-36.542
-36.8
-37.027
-37.221
-37.381
-37.505
-37.593
-37.644
-37.659
-37.637
-37.579
-37.486
-37.36
-37.201
-37.011
-36.792
-36.546
-36.276
-35.984
-35.672
-35.344
-35.002
-34.65
-34.29
-33.926
-33.561
-33.199
-32.843
-32.498
-32.166
-31.853
-31.561
-31.295
-31.059
-30.857
-30.693
-30.57
-30.493
-30.464
-30.487
-30.564
-30.699
-30.894
-31.151
-31.472
-31.859
-32.313
-32.834
-33.423
-34.08
-34.803
-35.593
-36.447
-37.363
-38.338
-39.371
-40.457
-41.593
-42.776
-44.001
-45.262
-46.556
-47.875
-49.214
-50.566
-51.924
-53.281
-54.629
-55.961
-57.268
-58.544
-59.78
-60.968
-62.1
-63.168
-64.165
-65.081
-65.911
-66.647
-67.281
-67.81
-68.226
-68.526
-68.706
-68.763
-68.693
-68.497
-68.173
-67.721
-67.141
-66.436
-65.607
-64.659
-63.596
-62.424
-61.15
-59.787
-58.345
-56.839
-55.283
-53.692
-52.084
-50.476
-48.886
-47.327
-45.813
-44.359
-42.978
-41.689
-40.506
-39.444
-38.514
-37.726
-37.086
-36.601
-36.275
-36.101
-36.071
-36.182
-36.432
-36.832
-37.394
-38.125
-39.029
-40.107
-41.355
-42.765
-44.323
-46.002
-47.779
-49.625
-51.51
-53.414
-55.314
-57.173
-58.955
-60.598
-62.005
-63.13
-63.955
-64.49
-64.838
-65.102
-65.341
-65.694
-66.325
-67.282
-68.582
-70.139
-71.605
-72.685
-73.235
-73.054
-72.046
-70.29
-67.759
-64.545
-61.18
-58.176
-55.831
-54.432
-54.004
-54.376
-56.223
-60.78
-68.4
-78.777
-90.052
-98.736
-102.911
-103.124
-102.014
-103.714
-110.748
-121.171
-129.146
-126.932
-106.399
-62.384
6.731
101.033
218.589
355.966
507.684
664.263
812.267
936.272
1022.072
1058.804
1041.763
972.481
856.271
703.149
526.365
340.893
164.077
11.901
-104.042
-177.773
-210.415
-209.303
-186.134
-154.022
-125.395
-109.023
-106.251
-113.115
-122.13
-125.387
-120.72
-110.337
-98.732
-91.038
-88.829
-91.003
-95.629
-100.532
-104.842
-108.599
-111.809
-114.513
-116.528
-117.554
-117.628
-116.91
-115.581
-113.893
-112.082
-110.384
-109.099
-108.532
-108.775
-109.765
-111.357
-113.323
-115.44
-117.501
-119.281
-120.563
-121.229
-121.253
-120.654
-119.498
-117.85
-115.762
-113.302
-110.545
-107.552
-104.378
-101.078
-97.699
-94.299
-90.941
-87.668
-84.509
-81.482
-78.587
-75.821
-73.174
-70.628
-68.161
-65.753
-63.385
-61.041
-58.705
-56.357
-53.975
-51.537
-49.019
-46.4
-43.662
-40.788
-37.764
-34.577
-31.218
-27.68
-23.956
-20.04
-15.927
-11.61
-7.084
-2.349
2.598
7.754
13.116
18.678
24.431
30.363
36.462
42.712
49.095
55.593
62.185
68.847
75.556
82.286
89.01
95.7
102.328
108.863
115.277
121.538
127.616
133.483
139.108
144.464
149.522
154.256
158.642
162.654
166.27
169.47
172.235
174.548
176.394
177.76
178.637
179.016
178.893
178.266
177.135
175.502
173.373
170.755
167.66
164.1
160.09
155.646
150.789
145.54
139.921
133.958
127.675
121.101
114.263
107.191
99.914
92.461
84.863
77.151
69.354
61.503
53.627
45.755
37.916
30.135
22.441
14.856
7.406
0.112
-7.006
-13.929
-20.639
-27.121
-33.362
-39.35
-45.075
-50.53
-55.708
-60.605
-65.22
-69.552
-73.603
-77.374
-80.872
-84.101
-87.069
-89.783
-92.254
-94.491
-96.506
-98.311
-99.917
-101.338
-102.588
-103.678
-104.624
-105.438
-106.133
-106.724
-107.221
-107.639
-107.988
-108.279
-108.524
-108.732
-108.913
-109.074
-109.223
-109.366
-109.509
-109.657
-109.813
-109.98
-110.159
-110.351
-110.557
-110.777
-111.008
-111.248
-111.495
-111.746
-111.996
-112.242
-112.478
-112.699
-112.899
-113.074
-113.218
-113.323
-113.386
-113.399
-113.356
-113.253
-113.084
-112.842
-112.523
-112.123
-111.635
-111.057
-110.385
-109.616
-108.747
-107.776
-106.701
-105.521
-104.237
-102.848
-101.355
-99.758
-98.06
-96.263
-94.37
-92.384
-90.309
-88.148
-85.908
-83.592
-81.207
-78.758
-76.252
-73.694
-71.092
-68.453
-65.784
-63.094
-60.389
-57.678
-54.969
-52.271
-49.592
-46.941
-44.325
-41.754
-39.236
-36.779
-34.391
-32.079
-29.853
-27.717
-25.681
-23.749
-21.929
-20.227
-18.646
-17.194
-15.874
-14.69
-13.646
-12.745
-11.99
-11.382
-10.924
-10.616
-10.458
-10.451
-10.593
-10.882
-11.318
-11.896
-12.613
-13.465
-14.447
-15.553
-16.775
-18.108
-19.543
-21.072
-22.685
-24.373
-26.127
-27.935
-29.789
-31.676
-33.586
-35.507
-37.427
-39.335
-41.218
-43.064
-44.86
-46.595
-48.256
-49.831
-51.31
-52.679
-53.929
-55.048
-56.026
-56.853
-57.519
-58.015
-58.334
-58.47
-58.415
-58.166
-57.72
-57.072
-56.223
-55.173
-53.922
-52.472
-50.827
-48.99
-46.969
-44.769
-42.4
-39.871
-37.193
-34.378
-31.444
-28.409
-25.291
-22.11
-18.889
-15.65
-12.417
-9.214
-6.063
-2.984
0
2.87
5.601
8.172
10.561
12.749
14.719
16.456
17.949
19.188
20.173
20.903
21.38
21.602
21.555
21.231
20.62
19.716
18.518
17.031
15.268
13.252
11.02
8.609
6.046
3.365
0.59
-2.248
-5.109
-7.945
-10.703
-13.313
-15.687
-17.772
-19.549
-21.049
-22.399
-23.737
-25.168
-26.837
-28.912
-31.453
-34.476
-37.898
-41.362
-44.57
-47.409
-49.694
-51.305
-52.269
-52.468
-51.901
-51.056
-50.365
-49.929
-49.921
-50.435
-51.406
-53.624
-58.414
-65.693
-74.903
-85.03
-93.017
-97.703
-100.04
-100.225
-100.983
-104.139
-106.702
-105.05
-92.072
-58.08
1.702
89.51
203.452
335.471
478.509
625.044
766.615
896.23
1003.674
1078
1110.167
1092.94
1024.978
909.987
755.833
575.885
387.372
208.989
59.231
-48.832
-112.301
-134.94
-127.337
-104.193
-75.636
-50.863
-36.832
-33.302
-39.483
-51.917
-62.57
-67.417
-65.146
-55.73
-44.575
-36.838
-34.178
-37.777
-45.799
-54.658
-62.764
-68.943
-72.709
-74.749
-75.383
-74.724
-72.973
-70.283
-66.961
-63.483
-60.412
-58.217
-57.074
-56.974
-57.78
-59.249
-61.164
-63.292
-65.323
-67.001
-68.199
-68.903
-69.215
-69.24
-69.018
-68.556
-67.835
-66.868
-65.689
-64.323
-62.79
-61.11
-59.305
-57.428
-55.552
-53.71
-51.908
-50.111
-48.24
-46.249
-44.127
-41.88
-39.544
-37.144
-34.681
-32.165
-29.609
-27.015
-24.381
-21.689
-18.897
-15.982
-12.934
-9.76
-6.486
-3.121
0.345
3.925
7.647
11.534
15.599
19.861
24.34
29.049
33.994
39.171
44.56
50.149
55.926
61.883
68.011
74.297
80.721
87.263
93.898
100.6
107.343
114.097
120.829
127.508
134.103
140.586
146.931
153.111
159.097
164.859
170.371
175.605
180.535
185.133
189.375
193.235
196.691
199.725
202.317
204.453
206.118
207.301
207.992
208.187
207.88
207.07
205.758
203.949
201.648
198.864
195.61
191.897
187.742
183.163
178.18
172.814
167.089
161.029
154.66
148.01
141.106
133.979
126.657
119.171
111.551
103.828
96.033
88.196
80.349
72.519
64.736
57.028
49.422
41.943
34.615
27.462
20.504
13.762
7.253
0.994
-5
-10.717
-16.146
-21.278
-26.106
-30.625
-34.831
-38.722
-42.299
-45.563
-48.518
-51.169
-53.522
-55.584
-57.366
-58.876
-60.127
-61.129
-61.896
-62.442
-62.779
-62.923
-62.887
-62.688
-62.338
-61.854
-61.25
-60.54
-59.738
-58.859
-57.914
-56.918
-55.881
-54.815
-53.732
-52.64
-51.55
-50.47
-49.407
-48.369
-47.361
-46.389
-45.457
-44.568
-43.726
-42.932
-42.188
-41.495
-40.853
-40.261
-39.72
-39.227
-38.782
-38.382
-38.026
-37.711
-37.435
-37.196
-36.991
-36.817
-36.673
-36.555
-36.462
-36.392
-36.343
-36.313
-36.299
-36.302
-36.319
-36.349
-36.392
-36.446
-36.513
-36.59
-36.679
-36.78
-36.894
-37.02
-37.159
-37.313
-37.482
-37.668
-37.87
-38.09
-38.329
-38.588
-38.868
-39.168
-39.491
-39.835
-40.201
-40.59
-41
-41.433
-41.886
-42.36
-42.853
-43.366
-43.896
-44.444
-45.006
-45.583
-46.173
-46.774
-47.385
-48.004
-48.63
-49.26
-49.894
-50.529
-51.164
-51.798
-52.428
-53.054
-53.675
-54.289
-54.895
-55.492
-56.081
-56.66
-57.23
-57.791
-58.342
-58.884
-59.417
-59.943
-60.462
-60.975
-61.482
-61.984
-62.483
-62.979
-63.472
-63.962
-64.451
-64.937
-65.421
-65.902
-66.379
-66.851
-67.316
-67.774
-68.223
-68.661
-69.084
-69.492
-69.88
-70.246
-70.586
-70.895
-71.168
-71.401
-71.589
-71.726
-71.806
-71.823
-71.772
-71.646
-71.439
-71.144
-70.755
-70.267
-69.673
-68.967
-68.145
-67.203
-66.136
-64.942
-63.617
-62.162
-60.575
-58.857
-57.008
-55.029
-52.923
-50.694
-48.347
-45.887
-43.319
-40.653
-37.899
-35.071
-32.182
-29.25
-26.292
-23.327
-20.375
-17.457
-14.595
-11.805
-9.106
-6.514
-4.048
-1.727
0.43
2.407
4.191
5.77
7.135
8.28
9.201
9.903
10.394
10.68
10.761
10.625
10.261
9.662
8.824
7.743
6.427
4.881
3.118
1.167
-0.949
-3.203
-5.566
-8.019
-10.539
-13.085
-15.62
-18.074
-20.342
-22.368
-24.128
-25.624
-26.965
-28.258
-29.569
-31.045
-32.866
-35.088
-37.731
-40.695
-43.563
-45.97
-47.714
-48.506
-48.17
-46.714
-44.02
-40.174
-35.827
-31.636
-28.025
-25.474
-24.275
-24.523
-27.095
-33.32
-43.084
-55.661
-69.757
-82.091
-91.463
-98.973
-104.812
-111.34
-119.596
-125.693
-126.138
-115.209
-85.106
-32.771
44.395
147.399
271.345
411.695
561.262
709.055
845.853
960.363
1041.499
1081.283
1072.488
1012.18
902.45
750.584
570.427
380.604
201.709
50.912
-61.169
-132.556
-169.449
-179.446
-170.404
-149.464
-120.795
-91.22
-68.138
-55.158
-54.94
-64.889
-77.999
-89.591
-94.938
-91.986
-83.712
-73.173
-64.475
-61.089
-62.811
-68.16
-74.714
-80.289
-84.347
-87.111
-89.115
-90.646
-91.668
-92.068
-91.72
-90.781
-89.521
-88.246
-87.357
-87.047
-87.285
-87.981
-88.926
-89.897
-90.767
-91.375
-91.545
-91.222
-90.418
-89.213
-87.792
-86.279
-84.73
-83.181
-81.61
-80.011
-78.415
-76.846
-75.325
-73.88
-72.511
-71.224
-70.035
-68.926
-67.864
-66.783
-65.576
-64.175
-62.552
-60.712
-58.7
-56.546
-54.25
-51.819
-49.259
-46.567
-43.746
-40.776
-37.617
-34.252
-30.674
-26.895
-22.948
-18.847
-14.587
-10.158
-5.534
-0.693
4.377
9.699
15.297
21.171
27.314
33.703
40.287
47.029
53.895
60.84
67.837
74.86
81.884
88.907
95.923
102.913
109.85
116.688
123.38
129.902
136.236
142.37
148.312
154.065
159.637
165.062
170.355
175.495
180.446
185.125
189.436
193.313
196.708
199.585
201.924
203.684
204.824
205.317
205.121
204.192
202.479
199.897
196.388
191.949
186.609
180.449
173.585
166.099
158.066
149.56
140.636
131.364
121.813
112.031
102.076
92.019
81.945
71.971
62.2
52.688
43.472
34.549
25.889
17.485
9.335
1.429
-6.228
-13.627
-20.764
-27.608
-34.135
-40.334
-46.206
-51.769
-57.047
-62.038
-66.737
-71.126
-75.178
-78.875
-82.206
-85.154
-87.712
-89.883
-91.674
-93.104
-94.201
-94.983
-95.469
-95.674
-95.612
-95.3
-94.76
-94.016
-93.09
-92.007
-90.792
-89.47
-88.067
-86.603
-85.098
-83.567
-82.024
-80.481
-78.953
-77.451
-75.986
-74.569
-73.209
-71.915
-70.697
-69.56
-68.508
-67.547
-66.675
-65.895
-65.205
-64.602
-64.085
-63.648
-63.286
-62.994
-62.767
-62.596
-62.476
-62.398
-62.356
-62.341
-62.346
-62.364
-62.387
-62.408
-62.422
-62.422
-62.403
-62.361
-62.291
-62.192
-62.06
-61.894
-61.692
-61.452
-61.176
-60.863
-60.514
-60.132
-59.718
-59.276
-58.81
-58.323
-57.82
-57.308
-56.79
-56.273
-55.761
-55.262
-54.779
-54.32
-53.889
-53.493
-53.135
-52.82
-52.554
-52.339
-52.18
-52.078
-52.036
-52.056
-52.138
-52.284
-52.492
-52.762
-53.093
-53.483
-53.928
-54.428
-54.977
-55.572
-56.21
-56.885
-57.592
-58.327
-59.084
-59.858
-60.643
-61.434
-62.225
-63.011
-63.788
-64.55
-65.294
-66.014
-66.708
-67.372
-68.002
-68.597
-69.153
-69.67
-70.147
-70.581
-70.974
-71.326
-71.636
-71.907
-72.14
-72.335
-72.496
-72.624
-72.721
-72.79
-72.833
-72.853
-72.852
-72.833
-72.797
-72.748
-72.687
-72.616
-72.536
-72.447
-72.35
-72.244
-72.127
-71.999
-71.856
-71.697
-71.518
-71.314
-71.084
-70.82
-70.52
-70.176
-69.784
-69.337
-68.829
-68.253
-67.602
-66.872
-66.054
-65.144
-64.136
-63.024
-61.805
-60.473
-59.026
-57.46
-55.774
-53.966
-52.036
-49.985
-47.815
-45.529
-43.132
-40.633
-38.043
-35.375
-32.641
-29.858
-27.045
-24.219
-21.4
-18.608
-15.859
-13.171
-10.562
-8.054
-5.667
-3.423
-1.339
0.567
2.281
3.791
5.085
6.158
7.01
7.64
8.046
8.223
8.151
7.818
7.214
6.332
5.173
3.741
2.039
0.075
-2.133
-4.563
-7.183
-9.963
-12.881
-15.904
-19.004
-22.124
-25.159
-28.05
-30.773
-33.336
-35.828
-38.314
-40.813
-43.402
-46.196
-49.208
-52.4
-55.598
-58.445
-60.702
-62.219
-62.854
-62.611
-61.618
-60.088
-58.42
-57.152
-56.689
-57.32
-59.183
-62.104
-65.669
-69.898
-75.308
-82.065
-90.374
-98.598
-103.087
-102.497
-96.704
-88.433
-84.28
-86.634
-95.489
-109.043
-119.82
-122.542
-112.204
-81.005
-25.703
56.148
164.789
293.371
435.153
582.219
724.975
856.133
966.019
1044.152
1081.674
1070.876
1009.514
900.602
751.909
576.785
391.38
213.418
60.252
-55.533
-128.037
-158.285
-154.564
-129.739
-96.96
-68.309
-51.535
-46.892
-50.391
-55.21
-54.46
-46.88
-35.025
-23.196
-16.109
-15.077
-18.732
-24.988
-31.755
-38.102
-43.873
-48.964
-53.151
-56.059
-57.631
-58.126
-57.79
-56.939
-55.877
-54.856
-54.303
-54.575
-55.716
-57.729
-60.46
-63.628
-67.155
-70.359
-72.521
-74.016
-74.899
-76.28
-79.564
-83.271
-86.427
-87.554
-84.617
-79.553
-74.005
-69.108
-66.705
-65.571
-64.475
-63.205
-61.025
-58.43
-56.034
-53.736
-51.614
-49.624
-47.635
-45.703
-43.873
-42.111
-40.399
-38.731
-37.087
-35.441
-33.766
-32.029
-30.193
-28.243
-26.164
-23.94
-21.555
-18.998
-16.258
-13.33
-10.205
-6.873
-3.325
0.447
4.45
8.689
13.166
17.882
22.836
28.023
33.436
39.065
44.899
50.926
57.13
63.493
69.998
76.622
83.343
90.138
96.979
103.84
110.692
117.506
124.251
130.897
137.414
143.771
149.936
155.882
161.577
166.994
172.106
176.886
181.309
185.352
188.994
192.214
194.995
197.321
199.179
200.558
201.449
201.848
201.749
201.153
200.061
198.476
196.406
193.859
190.846
187.38
183.478
179.155
174.434
169.333
163.878
158.091
152
145.63
139.009
132.166
125.129
117.928
110.592
103.151
95.633
88.067
80.483
72.907
65.366
57.888
50.495
43.213
36.063
29.066
22.243
15.612
9.188
2.987
-2.977
-8.693
-14.151
-19.342
-24.261
-28.902
-33.262
-37.34
-41.135
-44.649
-47.885
-50.848
-53.542
-55.974
-58.151
-60.082
-61.777
-63.245
-64.496
-65.542
-66.394
-67.063
-67.561
-67.9
-68.092
-68.148
-68.08
-67.9
-67.618
-67.245
-66.791
-66.268
-65.683
-65.048
-64.369
-63.657
-62.917
-62.157
-61.385
-60.605
-59.824
-59.045
-58.274
-57.515
-56.77
-56.042
-55.334
-54.648
-53.985
-53.347
-52.735
-52.149
-51.59
-51.058
-50.554
-50.078
-49.63
-49.21
-48.819
-48.456
-48.122
-47.817
-47.541
-47.293
-47.075
-46.886
-46.727
-46.597
-46.497
-46.426
-46.385
-46.374
-46.392
-46.44
-46.518
-46.626
-46.763
-46.929
-47.125
-47.349
-47.602
-47.883
-48.192
-48.528
-48.891
-49.279
-49.692
-50.128
-50.586
-51.063
-51.559
-52.07
-52.594
-53.13
-53.673
-54.221
-54.772
-55.321
-55.866
-56.403
-56.928
-57.436
-57.926
-58.391
-58.828
-59.234
-59.605
-59.936
-60.225
-60.467
-60.658
-60.794
-60.872
-60.887
-60.836
-60.715
-60.522
-60.254
-59.909
-59.486
-58.982
-58.396
-57.727
-56.972
-56.134
-55.212
-54.209
-53.126
-51.964
