Name
Date of Birth,"Mar 27, 1959"
Recorded Date,2022-06-08 10:28:09 -0500
Classification,Sinus Rhythm
Symptoms,
Software Version,1.90
Device,"Watch4,2"
Sample Rate,510.227 hertz


Lead,Lead I
Unit,µV

405.86
525.831
584.391
574.786
514.654
433.627
358.604
303.233
265.304
232.998
193.442
140.508
76.041
7.099
-58.039
-114.696
-162.116
-201.936
-236.884
-268.771
-298.623
-327.556
-356.685
-387.17
-419.775
-454.553
-491.191
-529.192
-567.952
-606.837
-645.117
-682.068
-717.39
-751.18
-783.778
-815.73
-847.562
-879.666
-912.54
-946.748
-982.478
-1019.643
-1057.829
-1096.206
-1133.999
-1170.535
-1204.969
-1236.307
-1264.366
-1289.925
-1314.066
-1338.401
-1363.167
-1385.935
-1405.004
-1420.116
-1432.334
-1447.341
-1470.763
-1504.651
-1550.463
-1603.958
-1655.93
-1696.462
-1711.11
-1686.263
-1614.656
-1495.209
-1337.087
-1155.722
-966.337
-781.281
-606.121
-443.978
-297.859
-170.326
-65.713
18.139
89.665
158.882
238.569
333.584
440.964
555.767
668.972
774.221
867.348
942.809
997.541
1031.976
1052.276
1070.776
1100.293
1147.832
1210.886
1278.152
1336.583
1377.571
1400.09
1410.638
1416.711
1423.547
1432.489
1440.481
1443.77
1438.817
1424.507
1403.373
1380.293
1363.594
1361.072
1376.512
1411.636
1462.458
1522.249
1587.157
1651.941
1714.425
1775.312
1832.704
1887.259
1939.189
1987.403
2033.1
2075.891
2115.53
2152.72
2187.513
2221.186
2254.511
2286.86
2317.507
2345.042
2369.917
2395.075
2422.243
2452.242
2481.747
2503.298
2511.988
2504.949
2485.16
2461.434
2442.223
2437.469
2453.416
2491.553
2550.777
2622.724
2698.1
2767.972
2822.611
2855.293
2854.195
2800.601
2673.624
2453.64
2134.831
1732.333
1277.616
811.529
371.915
-18.262
-348.389
-617.319
-829.95
-988.616
-1100.297
-1177.521
-1233.695
-1286.327
-1343.911
-1403.786
-1459.091
-1498.016
-1516.118
-1518.301
-1512.324
-1508.388
-1511.7
-1521.274
-1534.777
-1549.551
-1566.463
-1589.861
-1622.841
-1665.821
-1712.098
-1749.844
-1770.239
-1768.37
-1749.693
-1727.835
-1712.749
-1711.75
-1724.3
-1741.414
-1756.704
-1764.338
-1760.909
-1749.617
-1735.11
-1724.105
-1724.925
-1741.462
-1770.179
-1801.233
-1819.418
-1808.789
-1763.084
-1684.511
-1581.981
-1471.207
-1360.851
-1252.628
-1145.409
-1031.156
-907.286
-778.888
-653.194
-544.563
-467.791
-434.408
-455.502
-535.33
-669.083
-841.651
-1025.327
-1186.447
-1293.204
-1324.087
-1275.714
-1161.135
-1006.352
-844.381
-705.102
-612.183
-578.802
-603.129
-672.96
-767.315
-861.789
-938.748
-987.442
-1006.448
-1002.773
-983.68
-958.669
-936.335
-921.361
-918.896
-927.604
-940.507
-950.659
-949.271
-934.184
-910.242
-880.244
-845.639
-801.425
-737.35
-649.934
-541.241
-419.47
-296.529
-176.544
-60.389
51.476
158.144
249.653
314.838
347.391
344.071
312.339
265.105
213.358
170.261
143.802
134.924
142.416
157.334
167.462
163.62
139.225
95.32
39.617
-19.366
-75.058
-125.037
-170.965
-215.344
-258.642
-299.778
-336.715
-367.772
-392.563
-410.691
-422.488
-427.875
-426.949
-422.482
-416.404
-411.072
-409.068
-408.523
-407.788
-405.34
-398.584
-388.498
-376.351
-362.479
-347.996
-332.711
-316.253
-299.15
-281.811
-264.59
-247.793
-231.417
-215.354
-199.617
-184.279
-169.387
-155.015
-141.27
-128.215
-115.903
-104.383
-93.626
-83.577
-74.174
-65.335
-57.002
-49.142
-41.719
-34.722
-28.131
-21.888
-15.915
-10.093
-4.278
1.629
7.666
13.846
20.156
26.567
33.06
39.599
46.103
52.49
58.79
65.062
71.225
77.227
83.006
88.273
93.419
98.849
103.834
108.135
110.484
109.377
106.476
102.918
100.386
101.17
103.302
105.105
105.447
102.449
97.528
92.132
86.621
81.88
77.458
72.754
67.92
62.904
57.766
52.644
47.463
42.171
36.806
31.395
25.946
20.477
15.003
9.539
4.112
-1.251
-6.541
-11.755
-16.878
-21.901
-26.809
-31.59
-36.235
-40.739
-45.094
-49.296
-53.341
-57.228
-60.954
-64.524
-67.937
-71.197
-74.308
-77.274
-80.099
-82.792
-85.359
-87.809
-90.15
-92.391
-94.543
-96.616
-98.62
-100.568
-102.47
-104.339
-106.188
-108.028
-109.871
-111.731
-113.618
-115.543
-117.517
-119.55
-121.651
-123.829
-126.091
-128.444
-130.895
-133.448
-136.108
-138.879
-141.763
-144.761
-147.874
-151.103
-154.447
-157.903
-161.47
-165.144
-168.922
-172.8
-176.771
-180.83
-184.97
-189.184
-193.462
-197.796
-202.175
-206.587
-211.019
-215.461
-219.901
-224.325
-228.722
-233.082
-237.393
-241.648
-245.837
-249.949
-253.976
-257.905
-261.727
-265.428
-268.998
-272.423
-275.69
-278.787
-281.702
-284.426
-286.948
-289.26
-291.347
-293.192
-294.784
-296.12
-297.198
-298.022
-298.601
-298.947
-299.082
-299.039
-298.848
-298.536
-298.124
-297.623
-297.045
-296.401
-295.703
-294.967
-294.197
-293.377
-292.487
-291.499
-290.38
-289.092
-287.58
-285.771
-283.601
-281.029
-278.027
-274.597
-270.748
-266.502
-261.893
-256.958
-251.765
-246.4
-240.966
-235.58
-230.363
-225.439
-220.954
-217.07
-213.928
-211.64
-210.283
-209.89
-210.471
-212.002
-214.442
-217.74
-221.804
-226.516
-231.732
-237.271
-242.954
-248.619
-254.053
-259
-263.281
-266.778
-269.487
-271.569
-273.168
-274.364
-275.288
-276.097
-276.849
-277.559
-277.978
-277.511
-275.688
-272.303
-267.257
-260.621
-252.515
-242.932
-232.344
-221.867
-212.412
-204.506
-198.381
-193.85
-191.408
-192.504
-197.714
-206.342
-215.912
-223.047
-225.927
-224.708
-222.374
-221.727
-223.795
-228.45
-231.042
-225.812
-206.965
-166.557
-100.129
-5.721
116.905
262.572
423.963
591.267
750.912
888.908
991.434
1047.31
1050.567
1000.024
899.711
757.907
586.526
401.537
221.104
62.966
-58.619
-136.333
-171.101
-170.403
-146.266
-112.804
-82.346
-64.148
-62.682
-75.735
-97.522
-120.779
-139.417
-152.4
-161.738
-170.629
-182.031
-195.602
-209.104
-220.06
-226.171
-226.897
-222.822
-214.623
-203.283
-189.727
-174.818
-159.622
-144.968
-131.276
-118.767
-107.46
-97.257
-88.108
-79.878
-72.357
-65.472
-59.209
-53.601
-48.762
-44.719
-41.421
-38.802
-36.752
-35.177
-34.033
-33.285
-32.905
-32.891
-33.238
-33.954
-35.062
-36.526
-38.275
-40.207
-42.188
-44.136
-46.016
-47.824
-49.573
-51.269
-52.893
-54.413
-55.78
-56.915
-57.691
-57.948
-57.521
-56.278
-54.147
-51.102
-47.127
-42.201
-36.295
-29.371
-21.413
-12.404
-2.308
8.889
21.166
34.45
48.564
63.281
78.378
93.625
108.825
123.798
138.337
152.26
165.423
177.689
188.953
199.105
207.98
215.435
221.37
225.721
228.534
229.914
229.961
228.816
226.621
223.497
219.635
215.234
210.385
205.161
199.553
193.454
186.927
180.167
173.324
166.573
160.119
154.093
148.809
144.833
142.394
141.459
141.899
143.25
144.998
146.771
147.91
147.454
144.859
139.766
131.941
121.872
110.202
97.507
84.778
73.083
63.074
55.445
50.825
49.08
49.874
52.74
56.74
61.13
65.501
69.3
72
73.509
73.851
73.278
72.402
71.574
70.933
70.693
71.008
71.943
73.546
75.707
78.152
80.736
83.403
86.106
88.852
91.615
94.34
97.016
99.665
102.288
104.871
107.38
109.759
111.973
114.003
115.834
117.459
118.866
120.043
120.981
121.675
122.126
122.336
122.305
122.036
121.532
120.797
119.841
118.674
117.302
115.734
113.974
112.028
109.901
107.599
105.13
102.499
99.715
96.783
93.71
90.503
87.169
83.714
80.143
76.46
72.671
68.78
64.788
60.7
56.518
52.242
47.874
43.414
38.86
34.214
29.473
24.638
19.707
14.68
9.556
4.337
-0.976
-6.383
-11.88
-17.465
-23.133
-28.88
-34.701
-40.59
-46.538
-52.54
-58.585
-64.665
-70.77
-76.888
-83.007
-89.115
-95.198
-101.242
-107.232
-113.153
-118.989
-124.722
-130.337
-135.815
-141.139
-146.29
-151.251
-156.003
-160.53
-164.816
-168.844
-172.601
-176.072
-179.245
-182.11
-184.658
-186.878
-188.766
-190.314
-191.521
-192.383
-192.902
-193.079
-192.919
-192.427
-191.615
-190.494
-189.079
-187.385
-185.431
-183.234
-180.817
-178.2
-175.408
-172.462
-169.388
-166.21
-162.954
-159.651
-156.326
-153.005
-149.711
-146.468
-143.298
-140.221
-137.257
-134.424
-131.736
-129.211
-126.872
-124.743
-122.841
-121.185
-119.783
-118.64
-117.756
-117.123
-116.721
-116.524
-116.504
-116.626
-116.862
-117.175
-117.525
-117.871
-118.166
-118.367
-118.428
-118.299
-117.934
-117.312
-116.443
-115.383
-114.197
-112.928
-111.672
-110.593
-109.934
-109.958
-110.806
-112.496
-115.062
-118.609
-123.161
-128.517
-134.133
-139.296
-143.537
-146.657
-148.526
-148.92
-147.689
-145.07
-141.942
-139.626
-139.263
-141.564
-147.044
-155.684
-166.6
-178.433
-188.776
-195.833
-199.808
-200.484
-197.244
-186.863
-161.877
-115.899
-44.148
54.387
174.205
308.88
449.657
586.39
710.776
811.367
877.465
900.099
870.712
788.437
658.379
491.865
308.424
128.145
-31.097
-155.783
-241.998
-293.038
-314.819
-316.155
-305.467
-288.348
-271.98
-261.97
-259.186
-262.827
-267.9
-268.042
-261.888
-251.121
-239.824
-232.957
-231.961
-235.798
-242.712
-250.834
-259.242
-267.44
-274.782
-280.575
-284.386
-286.232
-286.342
-284.96
-282.442
-279.275
-276.057
-273.497
-271.968
-271.477
-271.926
-273.084
-274.693
-276.5
-278.146
-279.252
-279.61
-279.146
-277.855
-275.812
-273.062
-269.635
-265.607
-261.06
-256.055
-250.65
-244.882
-238.791
-232.442
-225.91
-219.275
-212.601
-205.926
-199.276
-192.672
-186.122
-179.631
-173.199
-166.816
-160.477
-154.181
-147.927
-141.715
-135.544
-129.403
-123.286
-117.182
-111.084
-104.987
-98.89
-92.791
-86.692
-80.596
-74.507
-68.431
-62.372
-56.333
-50.316
-44.324
-38.36
-32.429
-26.534
-20.681
-14.877
-9.131
-3.45
2.154
7.67
13.089
18.397
23.583
28.633
33.535
38.275
42.839
47.215
51.389
55.347
59.076
62.565
65.801
68.773
71.469
73.88
75.997
77.81
79.313
80.5
81.364
81.901
82.108
81.984
81.526
80.737
79.616
78.168
76.397
74.309
71.913
69.216
66.23
62.966
59.438
55.657
51.641
47.404
42.962
38.333
33.534
28.583
23.499
18.299
13.004
7.631
2.201
-3.268
-8.758
-14.248
-19.722
-25.159
-30.544
-35.858
-41.084
-46.207
-51.21
-56.079
-60.8
-65.358
-69.743
-73.942
-77.946
-81.745
-85.331
-88.699
-91.84
-94.753
-97.431
-99.873
-102.077
-104.042
-105.768
-107.255
-108.505
-109.521
-110.306
-110.864
-111.199
-111.316
-111.222
-110.922
-110.423
-109.733
-108.86
-107.811
-106.597
-105.225
-103.706
-102.049
-100.265
-98.363
-96.354
-94.249
-92.057
-89.788
-87.453
-85.06
-82.62
-80.141
-77.634
-75.108
-72.571
-70.032
-67.5
-64.983
-62.489
-60.026
-57.602
-55.223
-52.898
-50.635
-48.439
-46.318
-44.279
-42.329
-40.473
-38.719
-37.07
-35.53
-34.105
-32.798
-31.612
-30.549
-29.611
-28.802
-28.124
-27.577
-27.164
-26.886
-26.744
-26.737
-26.865
-27.128
-27.526
-28.057
-28.719
-29.51
-30.43
-31.475
-32.642
-33.928
-35.326
-36.831
-38.436
-40.133
-41.913
-43.765
-45.679
-47.646
-49.655
-51.699
-53.766
-55.848
-57.937
-60.027
-62.109
-64.173
-66.208
-68.201
-70.138
-72.008
-73.796
-75.488
-77.069
-78.526
-79.849
-81.032
-82.065
-82.939
-83.638
-84.146
-84.451
-84.552
-84.451
-84.149
-83.658
-82.993
-82.184
-81.276
-80.301
-79.279
-78.22
-77.119
-75.973
-74.789
-73.565
-72.301
-70.993
-69.627
-68.2
-66.716
-65.158
-63.497
-61.679
-59.609
-57.233
-54.529
-51.497
-48.168
-44.582
-40.771
-36.793
-32.732
-28.654
-24.62
-20.667
-16.788
-13.012
-9.387
-5.983
-2.922
-0.28
1.914
3.639
4.918
5.805
6.344
6.634
6.82
6.985
7.212
7.573
8.003
8.431
8.751
8.761
8.345
7.447
5.926
3.656
0.684
-2.85
-6.523
-9.598
-11.473
-11.634
-9.502
-4.614
3.231
14.013
27.117
41.273
55.214
67.702
77.419
83.251
84.446
80.438
71.792
60.563
49.057
40.161
35.831
36.009
41.071
51.653
70.51
104.102
157.943
236.375
340.703
466.074
606.688
754.517
899.64
1033.03
1142.217
1215.668
1243.529
1218.465
1141.665
1018.066
858.898
681.454
502.524
340.991
212.197
122.743
72.695
55.368
59.883
76.084
96.674
114.759
125.636
128.754
124.447
116.911
112.079
111.281
113.951
117.329
117.09
112.379
104.328
94.449
85.018
77.19
71.206
67.504
66.042
66.452
68.47
71.703
75.75
80.323
84.991
89.191
92.618
95.218
97.053
98.296
99.086
99.506
99.755
100.109
100.782
101.922
103.549
105.581
107.917
110.421
112.969
115.459
117.79
119.885
121.709
123.251
124.541
125.646
126.594
127.39
128.022
128.451
128.682
128.758
128.734
128.699
128.724
128.851
129.129
129.605
130.292
131.186
132.248
133.391
134.562
135.738
136.905
138.072
139.238
140.384
141.5
142.574
143.597
144.567
145.478
146.32
147.098
147.832
148.554
149.318
150.16
151.101
152.154
153.324
154.613
156.022
157.544
159.162
160.861
162.629
164.453
166.323
168.226
170.139
172.039
173.898
175.691
177.395
178.986
180.443
181.743
182.868
183.802
184.53
185.039
185.314
185.338
185.097
184.577
183.766
182.653
181.227
179.479
177.404
174.999
172.261
169.192
165.793
162.069
158.026
153.673
149.018
144.073
138.852
133.367
127.636
121.675
115.503
109.139
102.602
95.914
89.096
82.169
75.156
68.078
60.957
53.815
46.673
39.555
32.482
25.475
18.554
11.742
5.057
-1.482
-7.856
-14.048
-20.044
-25.827
-31.385
-36.704
-41.773
-46.583
-51.125
-55.39
-59.372
-63.067
-66.469
-69.578
-72.39
-74.906
-77.126
-79.051
-80.684
-82.029
-83.089
-83.87
-84.378
-84.619
-84.601
-84.332
-83.822
-83.079
-82.113
-80.935
-79.556
-77.986
-76.236
-74.319
-72.246
-70.029
-67.681
-65.215
-62.642
-59.975
-57.226
-54.407
-51.531
-48.61
-45.654
-42.676
-39.687
-36.7
-33.724
-30.771
-27.853
-24.98
-22.162
-19.408
-16.729
-14.134
-11.631
-9.228
-6.935
-4.76
-2.71
-0.794
0.982
2.609
4.082
5.394
6.539
7.514
8.314
8.935
9.373
9.624
9.685
9.554
9.227
8.703
7.98
7.057
5.934
4.612
3.092
1.377
-0.531
-2.63
-4.916
-7.385
-10.035
-12.858
-15.852
-19.007
-22.317
-25.773
-29.365
-33.081
-36.91
-40.839
-44.855
-48.947
-53.1
-57.304
-61.547
-65.817
-70.101
-74.387
-78.662
-82.909
-87.113
-91.255
-95.316
-99.279
-103.129
-106.851
-110.433
-113.86
-117.121
-120.21
-123.116
-125.828
-128.333
-130.613
-132.652
-134.449
-136.009
-137.34
-138.468
-139.409
-140.187
-140.833
-141.369
-141.81
-142.163
-142.415
-142.551
-142.573
-142.491
-142.335
-142.134
-141.893
-141.615
-141.297
-140.916
-140.456
-139.894
-139.182
-138.288
-137.216
-135.988
-134.674
-133.36
-132.109
-130.964
-129.948
-129.074
-128.377
-127.89
-127.637
-127.649
-127.947
-128.559
-129.546
-130.95
-132.771
-134.977
-137.491
-140.192
-142.966
-145.723
-148.378
-150.856
-153.094
-155.021
-156.56
-157.728
-158.618
-159.354
-160.119
-161.042
-162.184
-163.694
-165.73
-168.273
-171.158
-174.007
-176.256
-177.549
-177.646
-176.182
-172.936
-167.926
-161.415
-154.087
-146.662
-139.568
-133.352
-128.577
-126.117
-126.742
-129.9
-134.957
-140.37
-143.948
-145.305
-143.315
-137.44
-129.178
-118.205
-103.978
-84.804
-54.817
-8.25
59.952
153.377
269.957
404.788
549.684
693.374
825.069
931.968
1003.506
1032.574
1014.355
951.482
849.328
715.657
562.597
402.276
248.553
115.066
11.071
-60.618
-102.858
-121.65
-125.818
-121.067
-112.128
-105.569
-103.267
-106.399
-113.811
-119.067
-119.202
-113.858
-104.609
-96.546
-92.182
-91.265
-92.814
-94.76
-96.323
-97.8
-99.097
-100.067
-100.327
-99.565
-97.961
-95.754
-93.031
-89.923
-86.636
-83.514
-81.085
-79.617
-79.067
-79.324
-80.195
-81.47
-82.98
-84.448
-85.501
-85.916
-85.598
-84.515
-82.739
-80.324
-77.289
-73.704
-69.663
-65.242
-60.52
-55.557
-50.392
-45.087
-39.712
-34.339
-29.042
-23.867
-18.84
-13.976
-9.279
-4.743
-0.364
3.873
7.99
12.001
15.922
19.766
23.544
27.269
30.958
34.628
38.298
41.98
45.683
49.415
53.182
56.984
60.826
64.705
68.619
72.565
76.541
80.544
84.57
88.613
92.666
96.719
100.762
104.781
108.762
112.689
116.544
120.308
123.961
127.484
130.854
134.05
137.05
139.832
142.374
144.654
146.652
148.346
149.717
150.748
151.42
151.72
151.632
151.146
150.25
148.938
147.203
145.041
142.451
139.433
135.991
132.13
127.858
123.184
118.121
112.684
106.888
100.753
94.3
87.55
80.529
73.261
65.773
58.093
50.25
42.273
34.192
26.038
17.84
9.629
1.435
-6.714
-14.788
-22.761
-30.605
-38.295
-45.806
-53.115
-60.202
-67.046
-73.629
-79.934
-85.946
-91.654
-97.045
-102.111
-106.844
-111.238
-115.291
-118.998
-122.361
-125.38
-128.057
-130.399
-132.409
-134.095
-135.466
-136.53
-137.299
-137.782
-137.993
-137.943
-137.646
-137.115
-136.363
-135.405
-134.255
-132.928
-131.436
-129.794
-128.017
-126.118
-124.109
-122.004
-119.815
-117.554
-115.232
-112.86
-110.449
-108.008
-105.546
-103.073
-100.597
-98.124
-95.663
-93.22
-90.8
-88.411
-86.056
-83.742
-81.471
-79.25
-77.081
-74.969
-72.916
-70.927
-69.004
-67.15
-65.368
-63.66
-62.029
-60.476
-59.004
-57.615
-56.31
-55.092
-53.962
-52.922
-51.973
-51.117
-50.355
-49.689
-49.119
-48.646
-48.271
-47.996
-47.819
-47.743
-47.766
-47.888
-48.109
-48.428
-48.844
-49.355
-49.959
-50.654
-51.437
-52.306
-53.256
-54.284
-55.385
-56.555
-57.788
-59.078
-60.42
-61.808
-63.233
-64.691
-66.171
-67.668
-69.173
-70.677
-72.17
-73.645
-75.091
-76.497
-77.854
-79.151
-80.378
-81.523
-82.577
-83.529
-84.368
-85.083
-85.665
-86.104
-86.389
-86.511
-86.46
-86.229
-85.809
-85.194
-84.376
-83.351
-82.114
-80.66
-78.988
-77.097
-74.985
-72.653
-70.102
-67.335
-64.357
-61.173
-57.791
-54.22
-50.474
-46.564
-42.509
-38.324
-34.028
-29.643
-25.187
-20.683
-16.151
-11.614
-7.098
-2.627
1.771
6.072
10.247
14.268
18.11
21.749
25.162
28.333
31.245
33.884
36.233
38.275
39.99
41.362
42.383
43.046
43.344
43.28
42.86
42.105
41.049
39.724
38.162
36.393
34.439
32.336
30.135
27.886
25.647
23.466
21.363
19.365
17.52
15.847
14.359
13.031
11.754
10.445
9.087
7.603
5.881
3.779
1.013
-2.64
-7.188
-12.677
-19.186
-26.569
-34.645
-43.073
-51.09
-57.94
-63.19
-66.356
-66.913
-65.345
-62.658
-59.604
-57.738
-56.857
-54.375
-49.975
-43.931
-38.269
-38.987
-47.966
-64.224
-85.509
-104.161
-114.363
-110.78
-85.568
-34.972
44.091
151.8
281.282
425.408
575.088
720.216
853.749
966.688
1049.921
1095.527
1094.899
1043.385
941.343
794.551
616.847
427.909
248.559
97.921
-11.934
-79.974
-111.445
-116.948
-109.641
-97.938
-89.022
-87.252
-91.13
-98.81
-105.824
-106.737
-100.88
-89.687
-76.886
-67.523
-63.327
-63.846
-67.72
-72.913
-78.784
-85.33
-92.047
-98.408
-103.647
-107.219
-109.196
-109.774
-109.086
-107.401
-105.12
-102.778
-101.061
-100.33
-100.586
-101.741
-103.574
-105.841
-108.308
-110.627
-112.414
-113.457
-113.674
-113.062
-111.702
-109.65
-106.942
-103.661
-99.898
-95.724
-91.208
-86.394
-81.329
-76.079
-70.723
-65.342
-60.002
-54.741
-49.585
-44.554
-39.652
-34.883
-30.243
-25.72
-21.305
-16.994
-12.784
-8.67
-4.648
-0.704
3.171
6.992
10.771
14.516
18.232
21.925
25.596
29.246
32.875
36.481
40.061
43.617
47.149
50.657
54.14
57.597
61.025
64.421
67.779
71.093
74.355
77.558
80.691
83.745
86.708
89.571
92.32
94.945
97.433
99.772
101.949
103.951
105.767
107.386
108.796
109.986
110.947
111.671
112.15
112.377
112.347
112.057
111.504
110.688
109.607
108.264
106.662
104.804
102.698
100.349
97.766
94.96
91.941
88.723
85.32
81.745
78.016
74.148
70.159
66.067
61.891
57.649
53.36
49.043
44.717
40.401
36.115
31.876
27.702
23.61
19.616
15.736
11.984
8.374
4.917
1.625
-1.492
-4.425
-7.166
-9.709
-12.047
-14.178
-16.098
-17.805
-19.298
-20.578
-21.648
-22.508
-23.164
-23.62
-23.881
-23.953
-23.844
-23.561
-23.113
-22.508
-21.756
-20.866
-19.85
-18.716
-17.477
-16.141
-14.72
-13.223
-11.66
-10.041
-8.376
-6.673
-4.941
-3.188
-1.422
0.351
2.123
3.889
5.643
7.38
9.098
10.791
12.457
14.093
15.699
17.272
18.812
20.319
21.793
23.234
24.645
26.026
27.38
28.71
30.017
31.306
32.579
33.839
35.091
36.336
37.579
38.823
40.071
41.325
42.588
43.863
45.152
46.457
47.779
49.119
50.477
51.853
53.248
54.659
56.085
57.524
58.974
60.431
61.893
63.355
64.812
66.26
67.693
69.105
70.49
71.841
73.149
74.409
75.613
76.752
77.818
78.804
79.702
80.503
81.2
81.785
82.251
82.59
82.796
82.863
82.785
82.558
82.177
81.639
80.943
80.085
79.065
77.882
76.538
75.034
73.373
71.558
69.593
67.485
65.241
62.868
60.376
57.773
55.071
52.281
49.414
46.483
43.501
40.482
37.44
34.389
31.345
28.323
25.337
22.402
19.531
16.739
14.039
11.442
8.96
6.603
4.382
2.304
0.378
-1.391
-2.996
-4.437
-5.71
-6.818
-7.762
-8.547
-9.183
-9.677
-10.044
-10.297
-10.452
-10.528
-10.546
-10.525
-10.489
-10.457
-10.452
-10.497
-10.613
-10.826
-11.156
-11.628
-12.263
-13.083
-14.106
-15.348
-16.816
-18.518
-20.457
-22.641
-25.084
-27.799
-30.793
-34.076
-37.654
-41.528
-45.696
-50.138
-54.812
-59.676
-64.69
-69.822
-75.063
-80.39
-85.767
-91.15
-96.477
-101.684
-106.731
-111.545
-116.024
-120.138
-123.919
-127.49
-131.097
-134.941
-139.123
-143.802
-149.161
-155.21
-161.816
-168.651
-175.16
-180.957
-185.908
-189.773
-192.21
-193.155
-192.749
-191.439
-190.042
-189.059
-188.627
-189.105
-191.105
-195.077
-201.389
-209.997
-220.389
-231.882
-243.389
-253.528
-260.227
-262.312
-260.337
-254.051
-242.878
-224.002
-190.022
-135.082
-56.021
47.995
170.577
304.28
443.575
580.777
710.734
827.036
917.959
972.353
979.131
930.706
828.682
681.867
505.831
320.639
145.658
-2.906
-114.617
-186.546
-221.681
-227.664
-215.383
-195.299
-177.006
-168.035
-169.889
-180.184
-193.243
-201.349
-201.425
-194.559
-184.562
-176.97
-174.094
-175.292
-178.906
-182.921
-186.822
-190.849
-194.854
-198.55
-201.346
-202.895
-203.399
-202.98
-201.643
-199.505
-196.76
-193.844
-191.411
-189.812
-189.066
-189.117
-189.796
-190.898
-192.264
-193.611
-194.57
-194.936
-194.623
-193.622
-192.045
-190.011
-187.612
-184.946
-182.08
-179.017
-175.76
-172.328
-168.734
-165.022
-161.236
-157.411
-153.595
-149.827
-146.133
-142.519
-138.955
-135.376
-131.712
-127.922
-124.001
-119.987
-115.91
-111.78
-107.602
-103.377
-99.113
-94.818
-90.482
-86.079
-81.585
-76.991
-72.303
-67.549
-62.753
-57.927
-53.063
-48.141
-43.146
-38.07
-32.908
-27.653
-22.296
-16.832
-11.271
-5.633
0.056
5.778
11.519
17.266
23.006
28.718
34.379
39.964
45.451
50.814
56.028
61.066
65.899
70.502
74.852
78.929
82.716
86.193
89.34
92.14
94.579
96.641
98.313
99.583
100.439
100.873
100.878
100.452
99.592
98.298
96.573
94.422
91.852
88.872
85.494
81.732
77.599
73.114
68.295
63.162
57.736
52.041
46.099
39.937
33.579
27.051
20.38
13.591
6.713
-0.23
-7.21
-14.203
-21.182
-28.123
-35.002
-41.796
-48.48
-55.034
-61.437
-67.67
-73.714
-79.553
-85.17
-90.552
-95.687
-100.563
-105.172
-109.506
-113.557
-117.322
-120.798
-123.982
-126.874
-129.475
-131.787
-133.814
-135.56
-137.031
-138.232
-139.172
-139.857
-140.298
-140.502
-140.479
-140.24
-139.794
-139.153
-138.326
-137.325
-136.162
-134.846
-133.388
-131.8
-130.092
-128.274
-126.357
-124.351
-122.264
-120.105
-117.88
-115.598
-113.266
-110.892
-108.481
-106.035
-103.564
-101.078
-98.582
-96.087
-93.591
-91.088
-88.587
-86.099
-83.607
-81.1
-78.57
-76.001
-73.408
-70.82
-68.221
-65.587
-62.988
-60.507
-58.097
-55.761
-53.517
-51.188
-49.253
-48.178
-47.3
-46.417
-44.308
-39.511
-33.646
-27.793
-23.561
-23.156
-24.628
-26.32
-27.099
-25.09
-21.635
-18.092
-14.763
-12.478
-10.755
-8.979
-7.265
-5.536
-3.831
-2.275
-0.785
0.706
2.179
3.629
5.069
6.497
7.911
9.311
10.689
12.032
13.351
14.653
15.94
17.215
18.481
19.74
20.996
22.252
23.509
24.769
26.035
27.31
28.595
29.896
31.214
32.554
33.923
35.324
36.761
38.237
39.755
41.318
42.927
44.582
46.28
48.02
49.803
51.628
53.498
55.414
57.375
59.384
61.444
63.555
65.718
67.93
70.182
72.472
74.795
77.153
79.55
81.984
84.441
86.91
89.379
91.828
94.232
96.552
98.733
100.735
102.532
104.11
105.468
106.602
107.505
108.177
108.621
108.843
108.859
108.675
108.288
107.717
106.999
106.198
105.413
104.705
104.092
103.579
103.148
102.769
102.413
102.028
101.538
100.891
100.053
99.011
97.783
96.361
94.702
92.737
90.36
87.499
84.15
80.337
76.098
71.514
66.672
61.662
56.611
51.612
46.622
41.552
36.27
30.573
24.323
17.531
10.226
2.472
-5.475
-13.412
-21.178
-28.384
-34.707
-40.022
-44.161
-47.165
-49.36
-50.743
-51.092
-50.5
-49.608
-49.489
-51.065
-54.427
-57.593
-58.07
-55.597
-51.135
-47.35
-47.327
-50.415
-54.449
-57.107
-54.849
-44.701
-22.178
19.356
86.143
182.074
305.419
450.259
606.823
762.676
906.338
1023.978
1102.184
1130.732
1102.149
1017.779
886.496
722.011
542.942
367.281
210.034
83.444
-6.654
-61.074
-83.602
-82.352
-67.106
-44.763
-23.147
-7.924
0.588
2.791
2.34
4.297
9.015
15.142
20.086
20.264
15.179
6.318
-4.407
-14.707
-23.154
-29.188
-32.734
-34.098
-33.685
-31.998
-29.605
-27.025
-24.934
-24.021
-24.605
-26.769
-30.401
-35.209
-40.935
-47.327
-54.023
-60.611
-66.775
-72.322
-77.175
-81.349
-84.843
-87.643
-89.762
-91.245
-92.153
-92.54
-92.448
-91.906
-90.948
-89.636
-88.043
-86.25
-84.332
-82.339
-80.3
-78.238
-76.164
-74.083
-71.997
-69.894
-67.754
-65.561
-63.304
-60.976
-58.568
-56.066
-53.456
-50.719
-47.841
-44.812
-41.626
-38.278
-34.764
-31.083
-27.236
-23.228
-19.063
-14.748
-10.284
-5.675
-0.926
3.958
8.97
14.102
19.347
24.693
30.13
35.643
41.218
46.839
52.488
58.148
63.799
69.423
74.999
80.507
85.923
91.228
96.399
101.414
106.252
110.891
115.31
119.49
123.41
127.053
130.4
133.435
136.144
138.512
140.525
142.173
143.445
144.332
144.827
144.924
144.617
143.906
142.788
141.264
139.338
137.012
134.293
131.189
127.708
123.86
119.658
115.114
110.241
105.055
99.572
93.809
87.782
81.51
75.011
68.305
61.409
54.343
47.126
39.777
32.316
24.761
17.131
9.444
1.72
-6.025
-13.771
-21.503
-29.202
-36.853
-44.439
-51.945
-59.356
-66.659
-73.838
-80.882
-87.777
-94.514
-101.079
-107.463
-113.657
-119.649
-125.433
-130.999
-136.339
-141.447
-146.315
-150.936
-155.305
-159.416
-163.264
-166.843
-170.149
-173.179
-175.929
-178.395
-180.576
-182.47
-184.075
-185.392
-186.419
-187.16
-187.613
-187.784
-187.673
-187.286
-186.626
-185.699
-184.51
-183.068
-181.379
-179.452
-177.295
-174.92
-172.336
-169.555
-166.59
-163.454
-160.16
-156.722
-153.156
-149.477
-145.702
-141.845
-137.925
-133.957
-129.96
-125.949
-121.942
-117.955
-114.005
-110.107
-106.278
-102.533
-98.884
-95.348
-91.935
-88.66
-85.531
-82.561
-79.758
-77.13
-74.685
-72.429
-70.366
-68.501
-66.835
-65.37
-64.105
-63.04
-62.171
-61.495
-61.006
-60.699
-60.567
-60.602
-60.794
-61.134
-61.611
-62.213
-62.931
-63.75
-64.658
-65.643
-66.692
-67.79
-68.926
-70.087
-71.258
-72.426
-73.58
-74.705
-75.79
-76.823
-77.791
-78.683
-79.488
-80.197
-80.799
-81.287
-81.651
-81.885
-81.981
-81.934
-81.739
-81.39
-80.883
-80.215
-79.384
-78.388
-77.226
-75.896
-74.401
-72.739
-70.913
-68.923
-66.773
-64.464
-62
-59.383
-56.619
-53.712
-50.668
-47.494
-44.197
-40.785
-37.266
-33.649
-29.945
-26.162
-22.311
-18.404
-14.452
-10.469
-6.467
-2.461
1.533
5.496
9.412
13.262
17.026
20.685
24.219
27.605
30.824
33.856
36.681
39.279
41.631
43.718
45.52
47.021
48.208
49.066
49.584
49.748
49.552
48.995
48.08
46.809
45.186
43.206
40.869
38.182
35.15
31.781
28.09
24.091
19.811
15.295
10.593
5.763
0.854
-4.096
-9.049
-13.977
-18.833
-23.551
-28.074
-32.347
-36.308
-39.919
-43.13
-45.882
-48.22
-50.269
-52.188
-54.226
-56.576
-59.341
-62.709
-66.826
-71.631
-76.991
-82.613
-88.004
-92.84
-96.839
-99.501
-100.481
-99.717
-97.239
-93.391
-88.746
-83.711
-78.87
-75.196
-73.579
-74.676
-78.873
-86.239
-96.014
-106.493
-115.51
-120.121
-118.767
-112.262
-101.265
-85.397
-60.587
-18.889
47.573
143.814
268.373
414.445
571.632
727.439
871.331
992.642
1081.287
1129.243
1128.75
1075.977
972.377
825.317
649.26
463.318
288.036
139.888
28.543
-44.43
-84.821
-99.264
-94.618
-77.462
-52.394
-27.278
-9.854
-3.002
-7.142
-16.826
-24.236
-26.851
-24.858
-21.163
-20.565
-24.183
-30.791
-39.097
-47.235
-54.225
-60.238
-65.222
-68.935
-71.514
-73.183
-74.012
-74.223
-74.128
-73.88
-73.819
-74.451
-75.903
-78.117
-81.036
-84.419
-88.043
-91.752
-95.256
-98.235
-100.536
-102.081
-102.86
-102.95
-102.395
-101.226
-99.523
-97.367
-94.831
-91.986
-88.881
-85.563
-82.096
-78.553
-75.01
-71.528
-68.143
-64.877
-61.742
-58.741
-55.873
-53.128
-50.485
-47.93
-45.449
-43.029
-40.659
-38.324
-36.004
-33.68
-31.33
-28.936
-26.479
-23.947
-21.325
-18.605
-15.776
-12.833
-9.771
-6.585
-3.27
0.178
3.764
7.488
11.351
15.349
19.48
23.735
28.105
32.578
37.139
41.773
46.461
51.184
55.921
60.648
65.343
69.98
74.535
78.98
83.288
87.434
91.39
95.129
98.626
101.854
104.79
107.411
109.695
111.621
113.171
114.328
115.077
115.404
115.3
114.756
113.765
112.323
110.431
108.09
105.304
102.08
98.43
94.365
89.9
85.053
79.842
74.29
68.419
62.254
55.822
49.15
42.268
35.204
27.989
20.654
13.23
5.749
-1.759
-9.263
-16.733
-24.138
-31.45
-38.639
-45.68
-52.544
-59.207
-65.646
-71.838
-77.763
-83.401
-88.737
-93.755
-98.442
-102.788
-106.783
-110.422
-113.699
-116.611
-119.158
-121.341
-123.162
-124.628
-125.744
-126.519
-126.962
-127.084
-126.897
-126.414
-125.65
-124.62
-123.339
-121.823
-120.091
-118.16
-116.048
-113.774
-111.357
-108.815
-106.169
-103.436
-100.635
-97.784
-94.901
-92.004
-89.109
-86.23
-83.385
-80.585
-77.845
-75.176
-72.589
-70.093
-67.697
-65.407
-63.23
-61.171
-59.233
-57.419
-55.731
-54.169
-52.733
-51.422
-50.233
-49.164
-48.212
-47.37
-46.634
-45.998
-45.454
-44.996
-44.615
-44.303
-44.051
-43.85
-43.691
-43.565
-43.463
-43.374
-43.291
-43.204
-43.106
-42.988
-42.844
-42.667
-42.451
-42.191
-41.884
-41.525
-41.113
-40.645
-40.121
-39.54
-38.902
-38.209
-37.462
-36.664
-35.819
-34.929
-34
-33.037
-32.046
-31.032
-30.002
-28.963
-27.923
-26.887
-25.864
-24.861
-23.885
-22.944
-22.043
-21.19
-20.39
-19.649
-18.971
-18.362
-17.823
-17.358
-16.967
-16.652
-16.411
-16.243
-16.145
-16.116
-16.15
-16.242
-16.388
-16.58
-16.812
-17.075
-17.362
-17.663
-17.968
-18.269
-18.555
-18.816
-19.042
-19.224
-19.352
-19.417
-19.409
-19.321
-19.145
-18.874
-18.504
-18.028
-17.445
-16.753
-15.95
-15.038
-14.017
-12.891
-11.667
-10.354
-8.965
-7.513
-6.012
-4.481
-2.936
-1.396
0.121
1.599
3.023
4.377
5.643
6.8
7.826
8.7
9.405
9.926
10.251
10.372
10.28
9.976
9.461
8.732
7.781
6.589
5.135
3.404
1.39
-0.907
-3.469
-6.281
-9.32
-12.554
-15.96
-19.511
-23.168
-26.902
-30.669
-34.408
-38.068
-41.557
-44.748
-47.581
-50.046
-52.177
-54.123
-56.016
-57.861
-59.699
-61.572
-63.348
-64.894
-66.016
-66.295
-65.471
-63.687
-61.218
-58.495
-56.21
-54.804
-54.58
-56.054
-59.432
-64.347
-70.167
-75.949
-80.532
-83.336
-84.288
-83.367
-80.988
-77.956
-75.291
-73.736
-73.407
-73.835
-73.419
-71.372
-68.378
-63.583
-55.49
-40.489
-10.353
41.009
116.572
217.379
337.031
468.222
605.887
742.17
871.287
985.713
1072.28
1118.86
1114.434
1052.498
935.977
774.787
585.607
390.032
209.11
61.136
-42.9
-102.918
-125.026
-120.615
-103.156
-81.336
-63.306
-54.819
-55.237
-62.844
-72.299
-76.462
-73.704
-65.268
-54.833
-47.517
-44.98
-46.643
-51.056
-56.31
-61.821
-67.609
-73.53
-79.529
-85.186
-89.92
-93.556
-95.958
-97.005
-96.849
-95.686
-93.761
-91.508
-89.365
-87.546
-86.141
-85.153
-84.443
-83.864
-83.247
-82.356
-80.994
-79.089
-76.696
-73.96
-71.04
-68.047
-65.067
-62.176
-59.432
-56.865
-54.446
-52.103
-49.782
-47.46
-45.146
-42.864
-40.595
-38.294
-35.89
-33.29
-30.421
-27.238
-23.689
-19.741
-15.39
-10.649
-5.571
-0.248
5.26
10.916
16.694
22.593
28.598
34.679
40.812
46.968
53.122
59.255
65.342
71.359
77.296
83.155
88.951
94.72
100.482
106.241
111.996
117.734
123.441
129.105
134.704
140.21
145.599
150.846
155.931
160.838
165.544
170.025
174.254
178.201
181.838
185.144
188.096
190.674
192.862
194.644
196.009
196.952
197.467
197.545
197.184
196.377
195.124
193.423
191.277
188.689
185.663
182.207
178.333
174.051
169.378
164.33
158.923
153.178
147.115
140.757
134.127
127.248
120.145
112.843
105.369
97.748
90.007
82.173
74.272
66.33
58.373
50.427
42.516
34.664
26.894
19.229
11.69
4.298
-2.928
-9.968
-16.805
-23.422
-29.804
-35.938
-41.81
-47.409
-52.727
-57.754
-62.484
-66.912
-71.033
-74.844
-78.344
-81.533
-84.411
-86.98
-89.243
-91.205
-92.871
-94.247
-95.34
-96.158
-96.71
-97.006
-97.056
-96.872
-96.464
-95.846
-95.03
-94.029
-92.856
-91.526
-90.053
-88.451
-86.733
-84.916
-83.013
-81.037
-79.005
-76.928
-74.82
-72.695
-70.565
-68.442
-66.337
-64.262
-62.227
-60.241
-58.313
-56.452
-54.664
-52.956
-51.334
-49.802
-48.363
-47.022
-45.779
-44.636
-43.593
-42.648
-41.8
-41.048
-40.387
-39.814
-39.324
-38.912
-38.572
-38.297
-38.082
-37.918
-37.799
-37.717
-37.664
-37.634
-37.617
-37.607
-37.597
-37.579
-37.546
-37.492
-37.411
-37.298
-37.147
-36.954
-36.715
-36.428
-36.09
-35.699
-35.256
-34.76
-34.211
-33.612
-32.964
-32.27
-31.535
-30.761
-29.955
-29.121
-28.266
-27.395
-26.515
-25.632
-24.753
-23.885
-23.034
-22.208
-21.412
-20.652
-19.936
-19.269
-18.656
-18.102
-17.611
-17.187
-16.833
-16.552
-16.344
-16.211
-16.152
-16.167
-16.252
-16.407
-16.627
-16.909
-17.247
-17.636
-18.069
-18.541
-19.042
-19.567
-20.105
-20.648
-21.187
-21.714
-22.219
-22.694
-23.13
-23.521
-23.858
-24.136
-24.349
-24.491
-24.556
-24.54
-24.439
-24.25
-23.972
-23.61
-23.166
-22.648
-22.063
-21.418
-20.724
-19.989
-19.225
-18.443
-17.655
-16.872
-16.108
-15.377
-14.698
-14.099
-13.585
-13.159
-12.82
-12.562
-12.403
-12.379
-12.496
-12.748
-13.151
-13.731
-14.556
-15.7
-17.119
-18.744
-20.522
-22.429
-24.483
-26.6
-28.677
-30.715
-32.775
-35.059
-37.358
-38.77
-39.28
-39.602
-41.263
-47.16
-56.987
-67.646
-75.887
-77.177
-71.421
-62.943
-54.973
-51.014
-51.867
-54.662
-57.946
-61.022
-63.519
-66.494
-70.465
-75.283
-80.934
-87.223
-93.647
-99.468
-104.208
-107.663
-109.712
-110.269
-109.191
-106.337
-102.009
-97.828
-95.364
-94.911
-96.981
-100.816
-104.912
-109.861
-114.873
-118.727
-122.418
-125.308
-126.967
-126.417
-116.589
-88.538
-34.125
52.823
169.005
305.072
450.89
594.303
727.783
845.695
938.369
996.828
1010.016
968.054
870.15
722.239
539.032
342.905
156.452
0.119
-112.621
-178.516
-202.192
-194.72
-169.512
-138.759
-112.209
-95.251
-89.208
-91.781
-98.462
-104.875
-108.196
-108.746
-108.619
-110.196
-115.502
-124.048
-133.974
-143.363
-150.059
-153.29
-153.453
-151.01
-146.676
-141.206
-135.148
-129.19
-124.21
-120.701
-118.82
-118.59
-119.808
-122.211
-125.592
-129.647
-133.947
-138.183
-142.128
-145.593
-148.524
-150.886
-152.623
-153.735
-154.246
-154.174
-153.561
-152.455
-150.883
-148.891
-146.532
-143.86
-140.945
-137.862
-134.681
-131.471
-128.282
-125.14
-122.064
-119.063
-116.134
-113.27
-110.451
-107.65
-104.847
-102.021
-99.155
-96.233
-93.233
-90.136
-86.919
-83.566
-80.061
-76.395
-72.556
-68.538
-64.336
-59.95
-55.38
-50.63
-45.704
-40.605
-35.337
-29.905
-24.315
-18.575
-12.697
-6.689
-0.565
5.661
11.97
18.344
24.763
31.206
37.651
44.075
50.454
56.765
62.981
69.08
75.035
80.824
86.421
91.803
96.946
101.831
106.435
110.739
114.727
118.38
121.686
124.632
127.206
129.399
131.203
132.613
133.624
134.236
134.447
134.259
133.677
132.707
131.356
129.634
127.554
125.128
122.371
119.299
115.931
112.286
108.382
104.241
99.885
95.337
90.618
85.754
80.767
75.682
70.521
65.308
60.066
54.818
49.585
44.388
39.249
34.187
29.221
24.369
19.648
15.074
10.662
6.426
2.378
-1.469
-5.107
-8.527
-11.72
-14.682
-17.406
-19.891
-22.132
-24.13
-25.885
-27.399
-28.674
-29.714
-30.525
-31.113
-31.484
-31.646
-31.609
-31.381
-30.973
-30.395
-29.657
-28.772
-27.751
-26.605
-25.348
-23.99
-22.545
-21.024
-19.44
-17.804
-16.129
-14.424
-12.702
-10.972
-9.244
-7.529
-5.835
-4.169
-2.54
-0.955
0.58
2.061
3.482
4.839
6.13
7.351
8.501
9.579
10.585
11.519
12.38
13.171
13.893
14.547
15.137
15.664
16.131
16.542
16.898
17.204
17.461
17.673
17.842
17.97
18.06
18.114
18.132
18.117
18.068
17.986
17.87
17.719
17.532
17.306
17.041
16.731
16.375
15.967
15.504
14.982
14.394
13.737
13.003
12.189
11.287
10.293
9.201
8.006
6.703
5.286
3.753
2.1
0.322
-1.581
-3.613
-5.774
-8.066
-10.487
-13.036
-15.711
-18.508
-21.424
-24.453
-27.587
-30.821
-34.145
-37.55
-41.026
-44.562
-48.146
-51.767
-55.411
-59.064
-62.712
-66.341
-69.935
-73.481
-76.962
-80.365
-83.675
-86.879
-89.963
-92.915
-95.723
-98.378
-100.868
-103.185
-105.321
-107.269
-109.024
-110.582
-111.942
-113.102
-114.065
-114.836
-115.422
-115.831
-116.075
-116.166
-116.116
-115.94
-115.653
-115.272
-114.811
-114.288
-113.72
-113.126
-112.526
-111.941
-111.391
-110.892
-110.463
-110.12
-109.875
-109.741
-109.727
-109.842
-110.097
-110.508
-111.093
-111.863
-112.832
-114.006
-115.384
-116.961
-118.719
-120.629
-122.655
-124.761
-126.907
-129.06
-131.181
-133.222
-135.133
-136.859
-138.348
-139.564
-140.455
-140.967
-141.078
-140.791
-140.152
-139.27
-138.217
-137.028
-135.841
-134.847
-134.255
-134.312
-135.115
-136.633
-138.992
-142.375
-146.712
-151.725
-156.889
-161.469
-165.085
-167.618
-168.637
-167.688
-164.731
-160.131
-154.845
-150.335
-147.569
-147.011
-149.543
-155.316
-163.045
-170.864
-175.748
-175.464
-170.419
-161.283
-147.585
-125.495
-87.736
-26.334
64.73
185.528
331.415
492.53
654.944
804.822
926.379
1007.208
1038.75
1015.368
940.009
818.014
659.213
480.103
296.989
129.302
-5.189
-98.162
-149.041
-164.91
-158.198
-140.209
-118.189
-98.245
-84.21
-76.245
-73.888
-73.417
-69.658
-61.636
-50.719
-40.314
-34.546
-34.23
-38.178
-44.611
-51.519
-57.99
-63.465
-67.282
-69.292
-69.573
-68.39
-66.228
-63.44
-60.353
-57.551
-55.662
-55.044
-55.775
-57.694
-60.519
-63.988
-67.859
-71.789
-75.365
-78.316
-80.507
-81.9
-82.542
-82.462
-81.662
-80.183
-78.099
-75.468
-72.345
-68.774
-64.778
-60.411
-55.747
-50.858
-45.821
-40.691
-35.496
-30.259
-24.993
-19.703
-14.392
-9.055
-3.677
1.747
7.223
12.751
18.335
23.979
29.692
35.481
41.357
47.322
53.377
59.52
65.748
72.053
78.429
84.865
91.35
97.874
104.428
111.002
117.586
124.171
130.744
137.293
143.804
150.264
156.657
162.965
169.171
175.256
181.203
186.992
192.604
198.018
203.216
208.178
212.884
217.315
221.452
225.278
228.774
231.923
234.711
237.123
239.145
240.766
241.974
242.762
243.122
243.048
242.536
241.584
240.191
238.357
236.087
233.384
230.254
226.707
222.751
218.398
213.663
208.56
203.104
197.314
191.208
184.807
178.131
171.2
164.038
156.667
149.109
141.388
133.526
125.547
117.473
109.327
101.131
92.907
84.675
76.457
68.27
60.134
52.067
44.085
36.204
28.438
20.8
13.305
5.962
-1.219
-8.227
-15.054
-21.695
-28.142
-34.39
-40.437
-46.278
-51.911
-57.334
-62.547
-67.549
-72.339
-76.918
-81.288
-85.448
-89.401
-93.147
-96.69
-100.03
-103.17
-106.112
-108.858
-111.411
-113.772
-115.944
-117.929
-119.729
-121.345
-122.781
-124.038
-125.117
-126.022
-126.755
-127.316
-127.71
-127.937
-128.001
-127.903
-127.646
-127.234
-126.669
-125.956
-125.097
-124.098
-122.963
-121.698
-120.308
-118.799
-117.177
-115.45
-113.624
-111.707
-109.706
-107.631
-105.488
-103.288
-101.039
-98.75
-96.431
-94.09
-91.739
-89.385
-87.038
-84.708
-82.404
-80.134
-77.908
-75.735
-73.623
-71.58
-69.615
-67.734
-65.946
-64.256
-62.67
-61.195
-59.834
-58.592
-57.473
-56.48
-55.615
-54.881
-54.278
-53.808
-53.469
-53.262
-53.185
-53.235
-53.409
-53.705
-54.118
-54.643
-55.276
-56.01
-56.841
-57.761
-58.764
-59.843
-60.99
-62.196
-63.453
-64.752
-66.084
-67.439
-68.807
-70.178
-71.543
-72.892
-74.215
-75.501
-76.741
-77.925
-79.042
-80.085
-81.042
-81.905
-82.665
-83.315
-83.849
-84.259
-84.542
-84.691
-84.703
-84.576
-84.306
-83.894
-83.337
-82.637
-81.795
-80.816
-79.703
-78.463
-77.103
-75.632
-74.061
-72.404
-70.673
-68.884
-67.055
-65.202
-63.346
-61.505
-59.699
-57.946
-56.264
-54.672
-53.187
-51.827
-50.609
-49.548
-48.661
-47.959
-47.454
-47.154
-47.056
-47.159
-47.459
-47.958
-48.658
-49.566
-50.68
-52
-53.526
-55.25
-57.164
-59.241
-61.435
-63.702
-66.001
-68.304
-70.605
-72.884
-75.106
-77.228
-79.19
-80.931
-82.416
-83.581
-84.324
-84.624
-84.526
-84.156
-83.769
-83.559
-83.608
-84.048
-85.042
-86.563
-88.452
-90.367
-91.73
-92.176
-91.593
-89.75
-86.356
-81.393
-75.035
-67.779
-60.465
-53.59
-47.307
-42.055
-38.499
-37.062
-38.044
-41.365
-46.411
-52.895
-60.31
-66.918
-70.346
-68.065
-58.656
-42.785
-21.676
4.448
38.56
86.284
153.399
243.982
356.826
486.861
626.015
764.119
891.784
997.479
1070.269
1100.232
1078.871
1005.832
885.36
728.088
551.582
373.035
211.293
82.542
-5.464
-51.271
-60.232
-43.705
-13.682
19.848
46.846
61.697
64.836
58.607
50.241
47.001
49.766
56.923
64.248
66.76
63.834
57.025
48.018
38.998
31.071
24.433
19.552
16.57
15.198
15.155
16.178
17.892
19.886
21.694
22.679
22.47
21.072
18.596
15.235
11.236
6.808
2.247
-2.046
-5.818
-8.968
-11.453
-13.322
-14.612
-15.322
-15.495
-15.209
-14.521
-13.483
-12.138
-10.503
-8.626
-6.574
-4.414
-2.222
-0.049
2.077
4.136
6.118
8.021
9.846
11.602
13.309
14.981
16.629
18.265
19.895
21.532
23.194
24.897
26.66
28.497
30.417
32.432
34.546
36.764
39.09
41.524
44.064
46.709
49.458
52.309
55.262
58.314
61.459
64.692
68.006
71.392
74.841
78.339
81.874
85.43
88.993
92.545
96.07
99.549
102.965
106.298
109.529
112.638
115.605
118.412
121.038
123.464
125.672
127.644
129.363
130.813
131.98
132.851
133.413
133.656
133.572
133.152
132.39
131.283
129.828
128.024
125.872
123.374
120.535
117.361
113.861
110.045
105.922
101.507
96.814
91.857
86.654
81.222
75.58
69.748
63.746
57.596
51.318
44.936
38.472
31.948
25.388
18.813
12.247
5.711
-0.773
-7.185
-13.505
-19.712
-25.788
-31.716
-37.478
-43.06
-48.445
-53.623
-58.579
-63.304
-67.788
-72.022
-76.002
-79.719
-83.172
-86.357
-89.273
-91.92
-94.298
-96.411
-98.263
-99.858
-101.204
-102.307
-103.175
-103.819
-104.248
-104.474
-104.508
-104.363
-104.051
-103.586
-102.982
-102.251
-101.409
-100.47
-99.447
-98.355
-97.206
-96.016
-94.796
-93.559
-92.318
-91.084
-89.868
-88.68
-87.531
-86.429
-85.383
-84.4
-83.486
-82.648
-81.89
-81.216
-80.631
-80.134
-79.729
-79.416
-79.195
-79.065
-79.024
-79.071
-79.202
-79.415
-79.705
-80.069
-80.502
-80.999
-81.555
-82.165
-82.823
-83.525
-84.264
-85.036
-85.835
-86.657
-87.496
-88.348
-89.208
-90.072
-90.937
-91.799
-92.655
-93.502
-94.338
-95.161
-95.969
-96.762
-97.538
-98.296
-99.037
-99.76
-100.465
-101.152
-101.82
-102.471
-103.103
-103.717
-104.312
-104.89
-105.449
-105.989
-106.51
-107.011
-107.489
-107.944
-108.375
-108.777
-109.149
-109.488
-109.79
-110.052
-110.271
-110.441
-110.559
-110.62
-110.619
-110.549
-110.407
-110.186
-109.88
-109.484
-108.994
-108.404
-107.711
-106.912
-106.002
-104.981
-103.845
-102.595
-101.23
-99.749
-98.156
-96.451
-94.64
-92.725
-90.715
-88.615
-86.434
-84.185
-81.878
-79.525
-77.139
-74.736
-72.33
-69.94
-67.582
-65.272
-63.025
-60.857
-58.784
-56.824
-54.992
-53.299
-51.757
-50.377
-49.169
-48.147
-47.319
-46.68
-46.229
-45.96
-45.87
-45.968
-46.257
-46.732
-47.387
-48.218
-49.212
-50.363
-51.654
-53.045
-54.491
-55.944
-57.361
-58.719
-59.999
-61.179
-62.224
-63.072
-63.664
-63.948
-63.874
-63.417
-62.554
-61.246
-59.538
-57.539
-55.393
-53.35
-51.624
-50.243
-49.245
-48.652
-48.327
-48.227
-48.233
-47.866
-46.708
-44.644
-41.563
-37.431
-32.469
-26.616
-19.75
-12.907
-7.116
-2.334
0.87
3.299
6.227
7.456
6.063
1.746
-6.286
-13.801
-17.844
-18.091
-12.459
-1.457
16.715
48.494
97.856
168.714
262.351
374.366
500.698
633.651
762.352
875.599
958.623
1001.078
997.803
947.771
857.534
733.427
583.41
419.433
253.828
103.203
-16.757
-98.031
-139.705
-148.724
-137.035
-115.275
-90.764
-69.508
-54.254
-44.747
-40.596
-38.22
-33.749
-27.312
-19.96
-14.24
-13.405
-17.511
-25.165
-35.119
-45.484
-55.014
-63.234
-69.437
-73.355
-75.279
-75.511
-74.354
-72.263
-69.748
-67.346
-65.722
-65.227
-65.834
-67.432
-69.791
-72.641
-75.734
-78.739
-81.298
-83.215
-84.422
-84.909
-84.741
-83.959
-82.585
-80.683
-78.323
-75.559
-72.438
-68.988
-65.24
-61.251
-57.086
-52.816
-48.496
-44.159
-39.824
-35.505
-31.206
-26.927
-22.662
-18.395
-14.114
-9.814
-5.487
-1.128
3.271
7.722
12.241
16.838
21.525
26.31
31.196
36.186
41.278
46.469
51.755
57.127
62.577
68.101
73.689
79.334
85.027
90.757
96.513
102.281
108.046
113.792
119.5
125.151
130.725
136.202
141.559
146.774
151.824
156.688
161.341
165.762
169.928
173.816
177.406
180.676
183.607
186.181
188.382
190.194
191.604
192.6
193.174
193.317
193.025
192.294
191.124
189.515
187.47
184.995
182.097
178.785
175.071
170.969
166.494
161.664
156.498
151.017
145.244
139.202
132.916
126.41
119.713
112.85
105.848
98.736
91.54
84.288
77.007
69.724
62.463
55.25
48.109
41.062
34.129
27.332
20.689
14.215
7.928
1.84
-4.035
-9.687
-15.107
-20.288
-25.222
-29.906
-34.337
-38.512
-42.432
-46.097
-49.51
-52.674
-55.594
-58.274
-60.721
-62.941
-64.943
-66.733
-68.32
-69.713
-70.921
-71.952
-72.815
-73.519
-74.072
-74.482
-74.757
-74.905
-74.932
-74.845
-74.649
-74.35
-73.953
-73.461
-72.88
-72.211
-71.459
-70.625
-69.711
-68.72
-67.652
-66.508
-65.29
-63.999
-62.634
-61.198
-59.69
-58.111
-56.463
-54.747
-52.964
-51.116
-49.206
-47.235
-45.206
-43.124
-40.991
-38.813
-36.594
-34.34
-32.057
-29.752
-27.432
-25.104
-22.778
-20.461
-18.162
-15.891
-13.657
-11.469
-9.338
-7.274
-5.287
-3.387
-1.583
0.113
1.694
3.149
4.471
5.651
6.682
7.557
8.269
8.814
9.187
9.383
9.399
9.235
8.888
8.359
7.649
6.761
5.697
4.464
3.065
1.508
-0.2
-2.05
-4.033
-6.139
-8.357
-10.674
-13.078
-15.555
-18.092
-20.674
-23.284
-25.909
-28.532
-31.137
-33.71
-36.235
-38.697
-41.08
-43.371
-45.555
-47.618
-49.548
-51.332
-52.959
-54.42
-55.705
-56.807
-57.721
-58.442
-58.966
-59.293
-59.42
-59.35
-59.084
-58.625
-57.98
-57.154
-56.157
-54.998
-53.691
-52.251
-50.696
-49.042
-47.311
-45.523
-43.7
-41.866
-40.045
-38.262
-36.54
-34.902
-33.371
-31.971
-30.726
-29.657
-28.781
-28.116
-27.678
-27.481
-27.541
-27.869
-28.469
-29.34
-30.485
-31.906
-33.612
-35.612
-37.906
-40.492
-43.366
-46.523
-49.956
-53.645
-57.555
-61.637
-65.835
-70.102
-74.404
-78.71
-82.993
-87.209
-91.295
-95.185
-98.819
-102.147
-105.127
-107.719
-109.871
-111.61
-113.058
-114.413
-115.958
-117.942
-120.517
-123.778
-127.811
-132.568
-137.847
-143.314
-148.376
-152.406
-154.967
-155.797
-154.754
-151.946
-147.701
-142.475
-137.19
-133.001
-130.852
-131.59
-135.876
-143.876
-155.546
-170.072
-185.115
-197.967
-205.864
-207.406
-203.448
-194.551
-179.964
-155.652
-114.686
-50.743
39.997
155.929
291.214
436.863
581.411
714.065
823.196
898.683
934.156
925.396
872.943
780.93
655.062
505.095
344.427
187.959
52.42
-48.747
-111.33
-137.349
-136.074
-121.34
-102.35
-86.633
-78.713
-76.757
-79.199
-82.509
-81.455
-75.497
-65.87
-55.474
-48.818
-47.102
-49.345
-54.163
-59.766
-65.53
-71.503
-77.17
-81.894
-85.339
-87.47
-88.551
-88.869
-88.574
-87.844
-87.141
-87.101
-88.085
-90.162
-93.208
-96.971
-101.235
-105.81
-110.385
-114.597
-118.217
-121.133
-123.328
-124.865
-125.786
-126.117
-125.918
-125.26
-124.204
-122.804
-121.098
-119.123
-116.938
-114.613
-112.219
-109.813
-107.432
-105.097
-102.819
-100.601
-98.441
-96.326
-94.239
-92.167
-90.099
-88.028
-85.943
-83.832
-81.678
-79.464
-77.171
-74.784
-72.288
-69.672
-66.926
-64.043
-61.019
-57.849
-54.533
-51.068
-47.449
-43.676
-39.744
-35.653
-31.404
-27
-22.444
-17.743
-12.905
-7.942
-2.867
2.307
7.563
12.883
18.248
23.637
29.028
34.397
39.72
44.973
50.128
55.159
60.041
64.747
69.25
73.525
77.547
81.292
84.736
87.86
90.642
93.063
95.106
96.757
98.002
98.83
99.232
99.201
98.733
97.828
96.485
94.709
92.507
89.888
86.864
83.448
79.658
75.513
71.033
66.243
61.166
55.829
50.262
44.492
38.551
32.469
26.278
20.009
13.694
7.364
1.05
-5.219
-11.413
-17.503
-23.463
-29.266
-34.889
-40.309
-45.506
-50.459
-55.154
-59.575
-63.71
-67.548
-71.082
-74.306
-77.217
-79.813
-82.097
-84.072
-85.743
-87.119
-88.209
-89.026
-89.582
-89.892
-89.974
-89.843
-89.518
-89.017
-88.36
-87.567
-86.656
-85.648
-84.561
-83.414
-82.226
-81.014
-79.794
-78.583
-77.395
-76.243
-75.139
-74.093
-73.115
-72.213
-71.391
-70.655
-70.009
-69.452
-68.986
-68.609
-68.316
-68.104
-67.967
-67.896
-67.885
-67.922
-67.998
-68.101
-68.22
-68.344
-68.458
-68.553
-68.614
-68.631
-68.591
-68.482
-68.294
-68.018
-67.643
-67.16
-66.564
-65.847
-65.005
-64.034
-62.93
-61.693
-60.323
-58.822
-57.191
-55.435
-53.559
-51.57
-49.475
-47.284
-45.007
-42.655
-40.241
-37.777
-35.277
-32.756
-30.228
-27.708
-25.212
-22.753
-20.348
-18.011
-15.756
-13.598
-11.549
-9.623
-7.833
-6.188
-4.699
-3.376
-2.226
-1.256
-0.471
0.125
0.529
0.742
0.762
0.592
0.234
-0.306
-1.024
-1.913
-2.963
-4.165
-5.509
-6.983
-8.575
-10.271
-12.058
-13.922
-15.849
-17.825
-19.835
-21.866
-23.903
-25.933
-27.942
-29.919
-31.849
-33.723
-35.53
-37.261
-38.908
-40.464
-41.925
-43.288
-44.553
-45.722
-46.798
-47.787
-48.694
-49.527
-50.297
-51.012
-51.68
-52.311
-52.917
-53.508
-54.1
-54.705
-55.337
-56.01
-56.736
-57.528
-58.396
-59.351
-60.395
-61.531
-62.765
-64.107
-65.575
-67.185
-68.945
-70.861
-72.931
-75.15
-77.507
-79.979
-82.521
-85.088
-87.633
-90.113
-92.5
-94.759
-96.842
-98.688
-100.221
-101.373
-102.096
-102.349
-102.099
-101.338
-100.089
-98.415
-96.424
-94.228
-91.931
-89.641
-87.473
-85.524
-83.86
-82.584
-81.834
-81.739
-82.412
-83.815
-85.709
-87.889
-90.241
-92.401
-93.774
-93.857
-92.056
-88.653
-85.077
-81.597
-77.873
-73.144
-65.249
-55.198
-46.143
-39.704
-38.103
-39.455
-38.759
-33.992
-22.569
-3.171
25.382
68.716
132.876
222.422
337.722
473.488
619.947
765.481
899.393
1009.777
1086.857
1121.873
1106.938
1041.836
929.968
780.754
610.728
436.667
276.991
146.54
52.034
-7.154
-38.057
-48.605
-45.884
-33.804
-15.194
3.348
16.127
19.502
12.808
2.045
-6.011
-8.727
-6.19
-1.831
-0.039
-1.797
-6.156
-11.932
-17.633
-22.646
-27.202
-31.248
-34.472
-36.862
-38.472
-39.195
-39.109
-38.411
-37.203
-35.852
-34.896
-34.536
-34.832
-35.805
-37.28
-39.091
-41.103
-43.039
-44.632
-45.777
-46.477
-46.826
-46.968
-46.983
-46.929
-46.858
-46.806
-46.773
-46.71
-46.562
-46.302
-45.924
-45.462
-44.959
-44.418
-43.815
-43.105
-42.203
-41.046
-39.588
-37.777
-35.59
-33.035
-30.14
-26.978
-23.617
-20.096
-16.44
-12.655
-8.736
-4.693
-0.537
3.727
8.071
12.473
16.917
21.376
25.841
30.315
34.811
39.362
43.999
48.736
53.58
58.532
63.583
68.723
73.939
79.206
84.506
89.822
95.138
100.441
105.715
110.938
116.088
121.14
126.067
130.848
135.46
139.883
144.1
148.094
151.854
155.369
158.632
161.631
164.36
166.809
168.97
170.838
172.409
173.678
174.644
175.306
175.667
175.73
175.5
174.985
174.192
173.131
171.812
170.248
168.451
166.435
164.214
161.804
159.219
156.476
153.591
150.581
147.461
144.248
140.958
137.606
134.208
130.776
127.326
123.87
120.42
116.989
113.587
110.224
106.911
103.656
100.467
97.352
94.316
91.364
88.501
85.73
83.053
80.472
77.988
75.6
73.308
71.111
69.007
66.993
65.066
63.222
61.459
59.771
58.155
56.605
55.118
53.688
52.311
50.983
49.698
48.454
47.245
46.067
44.918
43.794
42.691
41.608
40.542
39.49
38.451
37.423
36.406
35.398
34.399
33.409
32.429
31.46
30.501
29.555
28.624
27.709
26.811
25.935
25.081
24.253
23.453
22.684
21.948
21.248
20.586
19.963
19.383
18.847
18.355
17.909
17.509
17.154
16.846
16.583
16.363
16.186
16.049
15.951
15.886
15.854
15.848
15.865
15.9
15.948
16.001
16.054
16.1
16.133
16.143
16.123
16.066
15.963
15.805
15.583
15.29
14.918
14.457
13.901
13.242
12.475
11.592
10.589
9.461
8.203
6.814
5.289
3.628
1.831
-0.103
-2.172
-4.374
-6.705
-9.16
-11.732
-14.417
-17.204
-20.087
-23.054
-26.095
-29.199
-32.353
-35.543
-38.756
-41.976
-45.188
-48.377
-51.526
-54.619
-57.642
-60.578
-63.413
-66.133
-68.725
-71.175
-73.473
-75.607
-77.569
-79.349
-80.941
-82.339
-83.541
-84.544
-85.348
-85.958
-86.379
-86.62
-86.691
-86.603
-86.372
-86.012
-85.539
-84.972
-84.33
-83.633
-82.903
-82.165
-81.446
-80.771
-80.167
-79.661
-79.275
-79.033
-78.954
-79.055
-79.35
-79.854
-80.581
-81.546
-82.77
-84.265
-86.039
-88.096
-90.434
-93.044
-95.914
-99.018
-102.318
-105.782
-109.373
-113.06
-116.815
-120.595
-124.352
-128.038
-131.598
-134.99
-138.182
-141.133
-143.81
-146.205
-148.32
-150.203
-151.911
-153.466
-154.942
-156.452
-158.123
-160.166
-162.756
-165.987
-169.99
-174.882
-180.548
-186.779
-193.242
-199.236
-204.093
-207.238
-207.892
-205.968
-202.325
-197.515
-192.307
-186.353
-177.384
-165.119
-150.871
-138.298
-133.72
-139.807
-155.273
-175.811
-194.526
-206.461
-209.279
-200.863
-177.529
-134.993
-68.91
23.256
137.758
268.271
407.676
546.553
678.686
798.21
896.947
968.629
1005.206
998.649
945.288
844.342
701.386
529.755
348.425
178.24
37.157
-63.755
-125.237
-153.839
-157.483
-146.971
-127.855
-105.536
-89.255
-81.712
-83.857
-93.158
-99.979
-100.051
-93.558
-82.879
-74.365
-70.855
-71.437
-74.651
-78.311
-81.379
-83.927
-85.811
-86.719
-86.484
-85.217
-83.178
-80.57
-77.61
-74.555
-71.8
-69.955
-69.362
-70.011
-71.799
-74.52
-77.953
-81.914
-86.102
-90.098
-93.639
-96.604
-98.947
-100.723
-101.971
-102.69
-102.933
-102.783
-102.307
-101.572
-100.623
-99.485
-98.207
-96.856
-95.5
-94.214
-93.043
-92.006
-91.115
-90.366
-89.748
-89.248
-88.842
-88.497
-88.186
-87.884
-87.57
-87.224
-86.824
-86.342
-85.751
-85.023
-84.137
-83.074
-81.819
-80.36
-78.687
-76.793
-74.674
-72.329
-69.756
-66.955
-63.924
-60.665
-57.18
-53.476
-49.559
-45.44
-41.129
-36.642
-31.996
-27.209
-22.304
-17.3
-12.223
-7.096
-1.945
3.204
8.323
13.387
18.367
23.237
27.969
32.538
36.919
41.086
45.016
48.687
52.079
55.172
57.949
60.395
62.496
64.24
65.617
66.62
67.242
67.48
67.334
66.804
65.893
64.608
62.956
60.948
58.596
55.915
52.92
49.63
46.063
42.239
38.181
33.91
29.45
24.824
20.057
15.173
10.197
5.152
0.065
-5.042
-10.144
-15.219
-20.244
-25.198
-30.059
-34.809
-39.427
-43.895
-48.199
-52.321
-56.249
-59.969
-63.47
-66.744
-69.781
-72.577
-75.124
-77.422
-79.466
-81.258
-82.798
-84.087
-85.13
-85.931
-86.495
-86.829
-86.941
-86.837
-86.528
-86.024
-85.333
-84.467
-83.437
-82.254
-80.931
-79.479
-77.91
-76.237
-74.472
-72.629
-70.718
-68.754
-66.747
-64.709
-62.653
-60.588
-58.525
-56.474
-54.443
-52.442
-50.478
-48.558
-46.69
-44.88
-43.132
-41.452
-39.845
-38.314
-36.863
-35.493
-34.208
-33.01
-31.9
-30.879
-29.949
-29.11
-28.363
-27.707
-27.144
-26.671
-26.288
-25.993
-25.784
-25.658
-25.612
-25.644
-25.751
-25.93
-26.178
-26.492
-26.87
-27.308
-27.805
-28.356
-28.958
-29.608
-30.304
-31.042
-31.819
-32.632
-33.479
-34.356
-35.26
-36.187
-37.133
-38.093
-39.061
-40.032
-41
-41.956
-42.895
-43.808
-44.69
-45.535
-46.337
-47.094
-47.799
-48.449
-49.039
-49.565
-50.02
-50.399
-50.691
-50.886
-50.977
-50.957
-50.818
-50.557
-50.166
-49.642
-48.985
-48.192
-47.259
-46.181
-44.943
-43.539
-41.971
-40.249
-38.387
-36.411
-34.339
-32.196
-30.013
-27.814
-25.612
-23.411
-21.197
-18.954
-16.686
-14.402
-12.132
-9.901
-7.716
-5.578
-3.488
-1.427
0.623
2.683
4.802
7.006
9.28
11.592
13.863
16.001
17.945
19.651
21.085
22.232
23.056
23.523
23.612
23.277
22.461
21.1
19.099
16.391
12.969
8.862
4.151
-1.036
-6.591
-12.418
-18.415
-24.499
-30.593
-36.615
-42.508
-48.208
-53.617
-58.622
-63.085
-66.88
-69.936
-72.237
-73.807
-74.704
-75.045
-74.996
-74.801
-74.762
-75.145
-76.122
-77.776
-80.198
-83.374
-87.117
-91.072
-94.602
-96.987
-97.688
-96.384
-92.817
-86.941
-79.078
-69.817
-60.283
-51.934
-46.096
-43.807
-45.832
-52.6
-63.431
-76.594
-89.744
-99.54
-103.893
-102.743
-95.156
-80.245
-55.078
-13.133
49.747
136.466
247.334
377.179
521.294
672.125
818.645
949.793
1050.506
1107.099
1110.897
1057.149
949.42
797.726
616.807
426.911
248.773
100.832
-4.814
-67.294
-93.523
-95.743
-86.696
-73.439
-59.799
-47.445
-36.911
-29.458
-25.474
-23.727
-22.045
-19.739
-17.459
-16.446
-18.751
-24.583
-32.703
-41.953
-50.681
-57.624
-62.31
-64.657
-64.974
-63.799
-61.65
-58.897
-55.925
-53.328
-51.711
-51.402
-52.49
-54.821
-58.115
-62.158
-66.717
-71.458
-75.997
-80.028
-83.374
-85.982
-87.871
-89.057
-89.547
-89.369
-88.584
-87.262
-85.463
-83.235
-80.614
-77.643
-74.39
-70.929
-67.34
-63.695
-60.043
-56.415
-52.833
-49.308
-45.84
-42.429
-39.064
-35.727
-32.402
-29.081
-25.75
-22.404
-19.028
-15.607
-12.125
-8.569
-4.927
-1.192
2.641
6.576
10.613
14.755
18.998
23.338
27.772
32.297
36.911
41.61
46.389
51.241
56.159
61.132
66.15
71.2
76.268
81.337
86.39
91.408
96.372
101.262
106.057
110.734
115.271
119.646
123.836
127.819
131.572
135.073
138.302
141.237
143.859
146.151
148.096
149.677
150.88
151.694
152.108
152.112
151.699
150.865
149.606
147.921
145.812
143.281
140.336
136.983
133.234
129.102
124.6
119.748
114.562
109.064
103.276
97.222
90.927
84.418
77.72
70.863
63.875
56.784
49.62
42.411
35.187
27.975
20.804
13.7
6.69
-0.201
-6.948
-13.528
-19.92
-26.102
-32.058
-37.768
-43.218
-48.396
-53.288
-57.886
-62.183
-66.172
-69.851
-73.218
-76.272
-79.018
-81.458
-83.599
-85.448
-87.014
-88.308
-89.341
-90.126
-90.676
-91.005
-91.13
-91.064
-90.825
-90.427
-89.889
-89.226
-88.454
-87.59
-86.649
-85.648
-84.6
-83.521
-82.423
-81.321
-80.224
-79.145
-78.094
-77.079
-76.109
-75.19
-74.328
-73.527
-72.792
-72.124
-71.526
-70.998
-70.54
-70.15
-69.828
-69.572
-69.377
-69.243
-69.164
-69.137
-69.159
-69.224
-69.328
-69.466
-69.635
-69.828
-70.042
-70.273
-70.514
-70.764
-71.017
-71.269
-71.518
-71.76
-71.991
-72.21
-72.413
-72.599
-72.765
-72.911
-73.035
-73.135
-73.211
-73.262
-73.286
-73.282
-73.249
-73.185
-73.089
-72.959
-72.791
-72.585
-72.337
-72.045
-71.704
-71.313
-70.865
-70.359
-69.788
-69.149
-68.435
-67.642
-66.764
-65.796
-64.732
-63.568
-62.298
-60.917
-59.42
-57.801
-56.057
-54.183
-52.175
-50.029
-47.743
-45.315
-42.744
-40.03
-37.174
-34.178
-31.046
-27.782
-24.392
-20.881
-17.257
-13.528
-9.706
-5.802
-1.828
2.202
6.27
10.359
14.447
18.513
22.537
26.497
30.37
34.132
37.761
41.234
44.529
47.625
50.501
53.133
55.501
57.584
59.366
60.832
61.972
62.774
63.23
63.336
63.092
62.5
61.56
60.267
58.62
56.623
54.281
51.607
48.62
45.343
41.808
38.062
34.153
30.13
26.045
21.945
17.881
13.903
10.065
6.413
2.996
-0.131
-2.913
-5.296
-7.256
-8.829
-10.068
-11.018
-11.755
-12.393
-13.105
-14.154
-15.757
-17.952
-20.737
-24.151
-28.155
-32.648
-37.344
-41.638
-44.941
-46.913
-47.229
-45.587
-41.799
-36.346
-30.566
-25.79
-22.892
-20.524
-15.927
-8.616
-0.252
4.683
0.708
-12.495
-31.077
-48.999
-58.564
-55.68
-38.26
-2.887
52.157
129.663
231.642
354.852
495.35
645.26
792.808
927.121
1034.672
1104.038
1128.006
1100.997
1022.773
896.521
729.733
537.156
338.574
156.487
11.02
-86.345
-135.547
-144.387
-125.741
-93.485
-56.877
-24.652
-2.968
7.882
8.608
4.338
2.005
2.966
6.454
9.565
7.76
0.466
-10.585
-23.36
-35.044
-44.098
-50.174
-53.175
-53.469
-51.563
-47.965
-43.216
-37.908
-32.74
-28.397
-25.305
-23.631
-23.313
-24.135
-25.901
-28.375
-31.24
-34.159
-36.882
-39.335
-41.569
-43.674
-45.71
-47.704
-49.657
-51.588
-53.496
-55.32
-57.007
-58.512
-59.806
-60.916
-61.885
-62.735
-63.483
-64.113
-64.56
-64.781
-64.745
-64.41
-63.774
-62.844
-61.636
-60.218
-58.649
-56.965
-55.193
-53.337
-51.386
-49.343
-47.206
-44.975
-42.669
-40.304
-37.89
-35.445
-32.973
-30.466
-27.91
-25.271
-22.517
-19.63
-16.599
-13.422
-10.106
-6.658
-3.09
0.577
4.324
8.136
11.995
15.888
19.797
23.699
27.568
31.378
35.097
38.698
42.156
45.445
48.54
51.421
54.068
56.464
58.593
60.438
61.983
63.211
64.107
64.657
64.849
64.671
64.116
63.175
61.845
60.123
58.011
55.509
52.621
49.353
45.714
41.712
37.359
32.669
27.655
22.334
16.723
10.841
4.708
-1.657
-8.23
-14.991
-21.917
-28.984
-36.169
-43.447
-50.797
-58.193
-65.612
-73.029
-80.42
-87.762
-95.032
-102.207
-109.263
-116.18
-122.937
-129.514
-135.892
-142.053
-147.981
-153.659
-159.073
-164.207
-169.05
-173.588
-177.812
-181.711
-185.276
-188.499
-191.374
-193.895
-196.057
-197.855
-199.288
-200.353
-201.049
-201.378
-201.34
-200.938
-200.176
-199.058
-197.59
-195.778
-193.631
-191.157
-188.366
-185.267
-181.871
-178.192
-174.241
-170.032
-165.58
-160.9
-156.008
-150.92
-145.653
-140.226
-134.655
-128.961
-123.162
-117.277
-111.326
-105.33
-99.309
-93.284
-87.274
-81.301
-75.384
-69.544
-63.799
-58.168
-52.67
-47.323
-42.143
-37.148
-32.353
-27.775
-23.427
-19.323
-15.477
-11.901
-8.605
-5.599
-2.891
-0.489
1.601
3.374
4.827
5.956
6.763
7.245
7.406
7.248
6.776
5.995
4.913
3.539
1.881
-0.051
-2.245
-4.69
-7.373
-10.28
-13.398
-16.711
-20.203
-23.857
-27.655
-31.576
-35.602
-39.711
-43.88
-48.086
-52.305
-56.516
-60.696
-64.821
-68.869
-72.818
-76.647
-80.336
-83.865
-87.21
-90.351
-93.267
-95.939
-98.348
-100.476
-102.304
-103.815
-104.992
-105.823
-106.295
-106.392
-106.096
-105.384
-104.244
-102.672
-100.67
-98.242
-95.4
-92.159
-88.548
-84.609
-80.379
-75.891
-71.17
-66.233
-61.106
-55.825
-50.432
-44.969
-39.46
-33.917
-28.349
-22.763
-17.151
-11.488
-5.719
0.227
6.396
12.811
19.468
26.352
33.452
40.759
48.257
55.91
63.659
71.433
79.164
86.77
94.149
101.164
107.636
113.39
118.296
122.259
125.221
127.136
127.967
127.707
126.369
124.004
120.676
116.435
111.339
105.483
98.982
92.003
84.739
77.317
69.855
62.474
55.203
48.046
40.924
33.613
25.927
17.746
8.922
-0.582
-10.63
-21.053
-31.394
-40.937
-49.099
-55.253
-58.776
-59.415
-57.15
-52.122
-45.053
-37.026
-29.068
-22.448
-18.491
-18.069
-21.758
-29.931
-41.527
-54.168
-65.433
-72.274
-73.346
-69.83
-61.764
-47.92
-23.252
20.833
90.421
188.241
309.952
446.096
588.207
726.825
855.386
967.762
1053.12
1101.731
1103.94
1052.839
950.459
804.47
628.296
440.874
261.169
105.534
-13.923
-93.322
-136.208
-148.695
-140.221
-120.543
-96.476
-76.806
-67.431
-68.098
-78.346
-93.436
-107.666
-121.874
-135.453
-147.163
-157.612
-163.041
-161.966
-157.143
-150.049
-143.613
-139.424
-135.913
-132.466
-128.685
-124.653
-121.626
-120.14
-120.157
-121.352
-122.989
-124.653
-126.267
-127.848
-129.449
-131.031
-132.488
-133.78
-134.919
-135.853
-136.458
-136.54
-135.938
-134.604
-132.547
-129.815
-126.463
-122.543
-118.137
-113.355
-108.303
-103.065
-97.714
-92.306
-86.903
-81.579
-76.387
-71.366
-66.54
-61.916
-57.492
-53.262
-49.208
-45.307
-41.536
-37.876
-34.31
-30.825
-27.407
-24.038
-20.703
-17.386
-14.068
-10.736
-7.375
-3.975
-0.527
2.976
6.539
10.164
13.853
17.61
21.439
25.341
29.317
33.369
37.492
41.686
45.944
50.258
54.618
59.012
63.427
67.85
72.264
76.653
80.999
85.285
89.492
93.6
97.589
101.441
105.133
108.648
111.964
115.063
117.927
120.537
122.877
124.932
126.687
128.129
129.248
130.032
130.474
130.568
130.308
129.691
128.716
127.384
125.697
123.66
121.279
118.563
115.522
112.168
108.513
104.572
100.361
95.897
91.198
86.282
81.169
75.881
70.438
64.861
59.173
53.396
47.551
41.661
35.747
29.83
23.931
18.069
12.264
6.534
0.896
-4.634
-10.04
-15.308
-20.426
-25.382
-30.166
-34.769
-39.183
-43.402
-47.42
-51.234
-54.84
-58.236
-61.423
-64.399
-67.166
-69.727
-72.084
-74.242
-76.206
-77.981
-79.574
-80.99
-82.239
-83.327
-84.263
-85.055
-85.71
-86.238
-86.647
-86.946
-87.141
-87.241
-87.254
-87.186
-87.045
-86.836
-86.566
-86.239
-85.863
-85.44
-84.976
-84.475
-83.942
-83.38
-82.792
-82.183
-81.555
-80.911
-80.254
-79.585
-78.909
-78.225
-77.537
-76.845
-76.151
-75.457
-74.764
-74.073
-73.385
-72.703
-72.026
-71.357
-70.698
-70.049
-69.414
-68.794
-68.192
-67.61
-67.05
-66.516
-66.009
-65.532
-65.087
-64.676
-64.3
-63.961
-63.659
-63.395
-63.168
-62.98
-62.829
-62.714
-62.635
-62.59
-62.577
-62.594
-62.638
-62.707
-62.796
-62.903
-63.023
-63.153
-63.288
-63.423
-63.554
-63.675
-63.78
-63.865
-63.922
-63.946
-63.93
-63.868
-63.755
-63.586
-63.356
-63.061
-62.698
-62.264
-61.757
-61.176
-60.52
-59.79
-58.987
-58.112
-57.17
-56.165
-55.102
-53.988
-52.831
-51.642
-50.431
-49.212
-47.998
-46.805
-45.649
-44.546
-43.514
-42.569
-41.727
-41.004
-40.415
-39.976
-39.701
-39.604
-39.697
-39.993
-40.5
-41.226
-42.174
-43.338
-44.714
-46.295
-48.077
-50.061
-52.248
-54.635
-57.221
-60.003
-62.974
-66.126
-69.434
-72.853
-76.341
-79.859
-83.378
-86.888
-90.367
-93.78
-97.083
-100.216
-103.127
-105.78
-108.109
-110.024
-111.501
-112.58
-113.395
-114.182
-115.129
-116.36
-118.029
-120.305
-123.233
-126.685
-130.349
-133.731
-136.421
-138.18
-138.704
-137.629
-134.838
-130.411
-124.61
-118.117
-111.524
-105.626
-102.018
-101.499
-104.115
-109.134
-114.055
-118.798
-125.171
-134.148
-147.746
-163.559
-176.366
-184.064
-183.48
-173.086
-150.892
-109.604
-43.18
51.844
172.957
310.93
456.15
598.777
732.655
852.821
949.768
1013.485
1031.796
994.142
899.564
754.4
573.375
378.929
193.284
35.281
-81.979
-155.852
-191.415
-196.491
-181.982
-157.391
-129.145
-105.129
-89.964
-83.718
-85.153
-88.571
-88.51
-84.755
-78.831
-73.986
-73.652
-77.758
-84.633
-92.599
-99.766
-104.99
-107.887
-108.381
-106.742
-103.481
-99.137
-94.109
-88.796
-83.813
-79.784
-77.065
-75.771
-75.753
-76.722
-78.46
-80.735
-83.217
-85.527
-87.358
-88.534
-89.002
-88.788
-87.911
-86.38
-84.221
-81.495
-78.273
-74.614
-70.569
-66.173
-61.469
-56.523
-51.409
-46.206
-40.984
-35.794
-30.664
-25.615
-20.657
-15.791
-11.016
-6.319
-1.681
2.913
7.476
12.018
16.55
21.085
25.639
30.229
34.872
39.577
44.352
49.205
54.138
59.153
64.253
69.433
74.691
80.022
85.423
90.891
96.421
102.009
107.644
113.319
119.024
124.747
130.475
136.192
141.881
147.525
153.106
158.604
164
169.272
174.399
179.36
184.133
188.698
193.031
197.113
200.923
204.44
207.647
210.524
213.054
215.223
217.015
218.418
219.421
220.015
220.191
219.943
219.269
218.165
216.631
214.67
212.285
209.481
206.267
202.652
198.649
194.271
189.532
184.45
179.043
173.331
167.335
161.076
154.579
147.867
140.965
133.898
126.693
119.376
111.975
104.516
97.025
89.531
82.058
74.634
67.283
60.031
52.9
45.915
39.097
32.468
26.046
19.852
13.902
8.212
2.797
-2.329
-7.155
-11.67
-15.865
-19.733
-23.268
-26.465
-29.321
-31.834
-34.005
-35.835
-37.326
-38.484
-39.313
-39.821
-40.016
-39.907
-39.506
-38.823
-37.871
-36.664
-35.216
-33.542
-31.657
-29.576
-27.316
-24.894
-22.325
-19.627
-16.816
-13.91
-10.924
-7.875
-4.78
-1.654
1.486
4.625
7.749
10.842
13.891
16.882
19.802
22.64
25.383
28.022
30.547
32.95
35.221
37.354
39.343
41.182
42.867
44.394
45.76
46.963
48
48.87
49.573
50.109
50.477
50.678
50.714
50.587
50.296
49.846
49.239
48.477
47.565
46.505
45.302
43.96
42.483
40.878
39.148
37.3
35.34
33.272
31.104
28.841
26.49
24.058
21.55
18.974
16.337
13.645
10.907
8.13
5.322
2.491
-0.353
-3.202
-6.045
-8.875
-11.68
-14.45
-17.176
-19.846
-22.451
-24.98
-27.422
-29.767
-32.004
-34.125
-36.119
-37.979
-39.694
-41.26
-42.667
-43.911
-44.985
-45.886
-46.608
-47.149
-47.507
-47.682
-47.674
-47.485
-47.119
-46.581
-45.879
-45.023
-44.024
-42.893
-41.645
-40.295
-38.863
-37.366
-35.827
-34.263
-32.697
-31.149
-29.642
-28.198
-26.838
-25.583
-24.453
-23.466
-22.644
-22.006
-21.572
-21.349
-21.346
-21.568
-22.021
-22.718
-23.67
-24.88
-26.353
-28.09
-30.087
-32.343
-34.843
-37.557
-40.446
-43.465
-46.57
-49.737
-52.942
-56.167
-59.388
-62.545
-65.58
-68.44
-71.061
-73.412
-75.463
-77.158
-78.529
-79.688
-80.766
-82.003
-83.612
-85.628
-88.108
-91.092
-94.414
-97.957
-101.58
-104.87
-107.533
-109.504
-110.628
-110.91
-110.644
-109.856
-108.528
-106.953
-105.239
-103.493
-102.103
-101.157
-100.566
-100.64
-101.721
-104.074
-107.542
-110.731
-111.671
-108.444
-100.514
-89.063
-74.907
-57.662
-33.357
4.982
64.126
149.273
259.785
389.981
530.684
669.764
796.73
901.43
974.79
1009.898
999.688
940.372
832.39
680.893
499.492
308.166
128.829
-17.169
-116.763
-169.501
-181.881
-167.124
-140.595
-111.773
-89.34
-78.717
-78.282
-85.548
-94.453
-97.529
-93.272
-83.036
-70.55
-60.929
-55.772
-54.561
-56.069
-58.627
-61.839
-65.883
-70.703
-76.24
-82.032
-87.419
-92.105
-95.888
-98.636
-100.457
-101.512
-102.027
-102.41
-103.112
-104.361
-106.197
-108.556
-111.244
-114.055
-116.831
-119.349
-121.364
-122.746
-123.462
-123.531
-123.046
-122.087
-120.701
-118.955
-116.927
-114.674
-112.259
-109.736
-107.144
-104.534
-101.95
-99.42
-96.966
-94.6
-92.316
-90.109
-87.963
-85.86
-83.784
-81.725
-79.672
-77.614
-75.538
-73.427
-71.267
-69.039
-66.728
-64.319
-61.799
-59.155
-56.38
-53.468
-50.415
-47.219
-43.878
-40.387
-36.746
-32.951
-29.003
-24.904
-20.656
-16.265
-11.736
-7.08
-2.309
2.565
7.526
12.558
17.644
22.763
27.896
33.021
38.116
43.156
48.12
52.981
57.715
62.298
66.705
70.911
74.893
78.627
82.093
85.268
88.134
90.673
92.868
94.705
96.169
97.251
97.941
98.231
98.117
97.594
96.662
95.324
93.582
91.444
88.918
86.015
82.747
79.13
75.18
70.917
66.359
61.529
56.449
51.144
45.638
39.957
34.127
28.177
22.131
16.017
9.862
3.693
-2.466
-8.588
-14.65
-20.629
-26.501
-32.245
-37.842
-43.272
-48.518
-53.565
-58.398
-63.005
-67.376
-71.502
-75.376
-78.992
-82.348
-85.443
-88.277
-90.851
-93.17
-95.238
-97.063
-98.652
-100.015
-101.163
-102.106
-102.858
-103.431
-103.839
-104.096
-104.217
-104.217
-104.109
-103.91
-103.633
-103.293
-102.905
-102.482
-102.038
-101.586
-101.137
-100.703
-100.296
-99.924
-99.596
-99.321
-99.105
-98.954
-98.874
-98.867
-98.936
-99.085
-99.313
-99.62
-100.007
-100.47
-101.007
-101.616
-102.292
-103.031
-103.829
-104.679
-105.576
-106.515
-107.488
-108.49
-109.513
-110.551
-111.597
-112.645
-113.687
-114.716
-115.728
-116.714
-117.671
-118.591
-119.469
-120.302
-121.083
-121.81
-122.478
-123.085
-123.627
-124.102
-124.509
-124.845
-125.11
-125.304
-125.425
-125.474
-125.45
-125.354
-125.187
-124.949
-124.642
-124.267
-123.826
-123.319
-122.75
-122.119
-121.429
-120.682
-119.879
-119.022
-118.113
-117.153
-116.142
-115.082
-113.974
-112.819
-111.616
-110.367
-109.07
-107.726
-106.333
-104.891
-103.399
-101.854
-100.256
-98.602
-96.891
-95.121
-93.292
-91.401
-89.447
-87.429
-85.345
-83.194
-80.973
-78.682
-76.32
-73.885
-71.379
-68.802
-66.155
-63.443
-60.67
-57.843
-54.966
-52.047
-49.095
-46.119
-43.13
-40.138
-37.153
-34.185
-31.245
-28.343
-25.493
-22.707
-19.993
-17.362
-14.823
-12.385
-10.06
-7.858
-5.779
-3.825
-1.998
-0.303
1.245
2.631
3.849
4.891
5.754
6.438
6.939
7.267
7.45
7.523
7.529
7.504
7.469
7.44
7.427
7.459
7.59
7.872
8.353
9.073
10.046
11.291
12.834
14.622
16.525
18.348
19.813
20.675
20.781
20.013
18.298
15.692
12.305
8.379
4.368
0.754
-2.005
-3.577
-3.836
-2.854
-0.779
2.107
5.282
7.977
9.181
8.102
4.206
-2.749
-12.598
-25.107
-39.25
-52.669
-62.547
-66.005
-61.601
-50.041
-31.829
-6.498
29
79.972
150.688
243.38
356.327
484.542
620.059
752.715
871.693
964.151
1020.219
1032.627
996.857
915.854
794.533
642.45
474.909
307.096
156.334
36.816
-45.338
-90.037
-103.441
-95.445
-75.488
-51.163
-29.898
-16.477
-11.521
-14.3
-20.125
-23.634
-24.208
-22.689
-21.635
-24.577
-31.698
-41.332
-51.828
-61.03
-67.537
-71.308
-72.587
-71.732
-69.397
-66.196
-62.541
-59.035
-56.453
-55.171
-55.332
-56.968
-59.806
-63.57
-68.086
-73.028
-77.998
-82.716
-86.941
-90.533
-93.495
-95.813
-97.464
-98.467
-98.849
-98.647
-97.923
-96.72
-95.067
-93.007
-90.589
-87.873
-84.938
-81.854
-78.691
-75.5
-72.309
-69.14
-66.006
-62.909
-59.849
-56.816
-53.789
-50.754
-47.699
-44.615
-41.493
-38.321
-35.081
-31.759
-28.342
-24.821
-21.191
-17.446
-13.583
-9.603
-5.506
-1.296
3.019
7.435
11.948
16.552
21.241
26.01
30.848
35.747
40.696
45.684
50.697
55.719
60.734
65.724
70.671
75.557
80.362
85.066
89.65
94.093
98.376
102.478
106.379
110.061
113.505
116.694
119.612
122.242
124.571
126.586
128.276
129.631
130.644
131.308
131.618
131.571
131.167
130.404
129.287
127.818
126.004
123.853
121.373
118.577
115.478
112.09
108.429
104.512
100.358
95.985
91.415
86.668
81.765
76.73
71.583
66.349
61.049
55.707
50.344
44.984
39.646
34.353
29.123
23.978
18.934
14.01
9.222
4.585
0.114
-4.178
-8.28
-12.18
-15.87
-19.341
-22.588
-25.603
-28.384
-30.928
-33.232
-35.296
-37.121
-38.708
-40.06
-41.182
-42.079
-42.755
-43.219
-43.477
-43.538
-43.412
-43.108
-42.636
-42.006
-41.231
-40.321
-39.289
-38.145
-36.902
-35.571
-34.165
-32.695
-31.173
-29.61
-28.018
-26.407
-24.788
-23.17
-21.565
-19.981
-18.427
-16.913
-15.446
-14.033
-12.682
-11.4
-10.192
-9.063
-8.019
-7.063
-6.198
-5.428
-4.754
-4.178
-3.7
-3.321
-3.041
-2.858
-2.771
-2.779
-2.879
-3.069
-3.346
-3.706
-4.147
-4.665
-5.255
-5.914
-6.638
-7.423
-8.264
-9.156
-10.096
-11.079
-12.1
-13.155
-14.24
-15.35
-16.482
-17.632
-18.796
-19.971
-21.153
-22.34
-23.528
-24.716
-25.9
-27.079
-28.25
-29.411
-30.56
-31.696
-32.816
-33.917
-34.999
-36.058
-37.093
-38.1
-39.076
-40.018
-40.923
-41.788
-42.61
-43.384
-44.108
-44.776
-45.385
-45.932
-46.41
-46.813
-47.135
-47.37
-47.511
-47.554
-47.493
-47.32
-47.03
-46.617
-46.078
-45.412
-44.61
-43.668
-42.578
-41.334
-39.94
-38.403
-36.724
-34.906
-32.956
-30.878
-28.686
-26.394
-24.004
-21.519
-18.943
-16.279
-13.547
-10.769
-7.966
-5.161
-2.36
0.434
3.201
5.924
8.597
11.205
13.748
16.23
18.607
20.839
22.893
24.726
26.331
27.704
28.829
29.698
30.288
30.563
30.513
30.13
29.382
28.254
26.719
24.75
22.397
19.726
16.79
13.656
10.362
6.936
3.427
-0.105
-3.606
-6.996
-10.216
-13.22
-15.934
-18.296
-20.259
-21.793
-22.958
-23.854
-24.558
-25.156
-25.733
-26.367
-27.185
-28.292
-29.752
-31.677
-34.212
-37.464
-41.503
-46.244
-51.393
-56.697
-61.903
-66.485
-69.883
-71.678
-71.455
-69.815
-67.792
-65.501
-63.542
-61.584
-59.204
-58.28
-59.061
-61.733
-66.067
-68.747
-68.752
-64.758
-54.108
-34.637
-0.407
53.797
131.064
232.099
351.944
484.775
622.26
753.925
870.052
957.728
1005.532
1005.887
953.992
852.718
711.172
542.708
365.92
200.012
60.105
-43.579
-108.936
-141.129
-146.308
-132.457
-107.7
-78.099
-52.277
-36.601
-32.115
-37.61
-46.963
-53.811
-56.914
-56.987
-56.905
-60.237
-67.14
-76.121
-85.531
-93.202
-98.122
-100.538
-100.794
-99.408
-96.994
-93.98
-90.754
-87.903
-86.025
-85.379
-86.04
-87.93
-90.8
-94.432
-98.624
-103.046
-107.311
-111.131
-114.324
-116.811
-118.604
-119.705
-120.097
-119.802
-118.876
-117.38
-115.374
-112.903
-109.994
-106.687
-103.046
-99.147
-95.073
-90.905
-86.697
-82.486
-78.299
-74.154
-70.059
-66.018
-62.022
-58.053
-54.101
-50.156
-46.213
-42.269
-38.313
-34.334
-30.319
-26.257
-22.14
-17.964
-13.727
-9.428
-5.067
-0.648
3.823
8.339
12.892
17.478
22.091
26.725
31.372
36.026
40.676
45.314
49.929
54.508
59.039
63.508
67.899
72.198
76.389
80.457
84.387
88.163
91.768
95.189
98.41
101.417
104.196
106.735
109.021
111.044
112.794
114.261
115.439
116.322
116.904
117.183
117.156
116.824
116.186
115.246
114.007
112.474
110.653
108.553
106.182
103.55
100.67
97.554
94.215
90.668
86.926
83.006
78.923
74.693
70.333
65.859
61.286
56.632
51.912
47.141
42.335
37.507
32.673
27.845
23.036
18.257
13.52
8.835
4.211
-0.344
-4.822
-9.216
-13.521
-17.733
-21.846
-25.858
-29.767
-33.571
-37.269
-40.86
-44.344
-47.721
-50.992
-54.159
-57.222
-60.183
-63.044
-65.807
-68.473
-71.045
-73.523
-75.91
-78.208
-80.416
-82.537
-84.572
-86.521
-88.385
-90.163
-91.858
-93.467
-94.99
-96.428
-97.778
-99.039
-100.209
-101.287
-102.271
-103.159
-103.948
-104.636
-105.222
-105.703
-106.078
-106.344
-106.501
-106.546
-106.48
-106.3
-106.008
-105.603
-105.086
-104.458
-103.722
-102.878
-101.93
-100.882
-99.736
-98.498
-97.171
-95.762
-94.275
-92.717
-91.095
-89.414
-87.684
-85.911
-84.104
-82.271
-80.42
-78.56
-76.699
-74.848
-73.015
-71.208
-69.438
-67.713
-66.041
-64.431
-62.892
-61.431
-60.055
-58.772
-57.589
-56.51
-55.541
-54.687
-53.951
-53.336
-52.846
-52.48
-52.24
-52.126
-52.138
-52.272
-52.528
-52.902
-53.391
-53.989
-54.693
-55.496
-56.393
-57.376
-58.438
-59.57
-60.764
-62.011
-63.3
-64.621
-65.963
-67.316
-68.667
-70.007
-71.322
-72.603
-73.837
-75.012
-76.119
-77.145
-78.082
-78.918
-79.645
-80.254
-80.738
-81.091
-81.305
-81.376
-81.3
-81.074
-80.694
-80.159
-79.468
-78.623
-77.625
-76.478
-75.185
-73.753
-72.191
-70.508
-68.717
-66.831
-64.865
-62.834
-60.756
-58.649
-56.53
-54.417
-52.327
-50.279
-48.293
-46.39
-44.589
-42.912
-41.377
-40.005
-38.812
-37.817
-37.032
-36.466
-36.128
-36.026
-36.17
-36.581
-37.272
-38.252
-39.527
-41.098
-42.956
-45.09
-47.473
-50.063
-52.816
-55.686
-58.63
-61.617
-64.61
-67.563
-70.428
-73.134
-75.619
-77.833
-79.726
-81.263
-82.435
-83.246
-83.74
-84.014
-84.154
-84.258
-84.427
-84.735
-85.284
-86.183
-87.516
-89.403
-91.976
-95.313
-99.462
-104.356
-109.741
-115.309
-120.707
-125.45
-129.016
-130.938
-130.833
-128.666
-124.86
-119.957
-114.504
-109.203
-104.778
-101.829
-100.888
-101.35
-101.028
-97.597
-88.469
-72.335
-50.298
-22.898
9.959
50.413
104.328
177.347
273.401
392.536
527.875
668.009
799.043
907.118
981.926
1017.099
1009.393
958.082
864.942
734.439
576.017
405.227
239.721
97.644
-7.583
-73.192
-102.533
-105.383
-95.304
-81.087
-70.582
-68.87
-74.482
-85.756
-98.235
-105.365
-105.6
-99.472
-89.53
-80.635
-74.54
-70.788
-68.598
-66.617
-64.663
-63.555
-63.737
-65.164
-67.57
-70.489
-73.385
-75.949
-77.947
-79.103
-79.341
-78.861
-77.898
-76.787
-75.979
-75.653
-75.805
-76.401
-77.265
-78.173
-78.968
-79.441
-79.338
-78.557
-77.085
-74.947
-72.246
-69.07
-65.469
-61.519
-57.304
-52.89
-48.349
-43.746
-39.131
-34.566
-30.101
-25.77
-21.601
-17.607
-13.783
-10.122
-6.607
-3.217
0.061
3.239
6.33
9.345
12.296
15.202
18.079
20.946
23.819
26.715
29.65
32.635
35.68
38.794
41.98
45.242
48.585
52.013
55.531
59.143
62.852
66.656
70.557
74.551
78.634
82.799
87.036
91.334
95.68
100.061
104.461
108.864
113.251
117.605
121.905
126.132
130.263
134.279
138.156
141.874
145.41
148.744
151.855
154.723
157.329
159.656
161.686
163.405
164.798
165.853
166.56
166.91
166.895
166.51
165.752
164.619
163.111
161.232
158.987
156.382
153.425
150.129
146.506
142.569
138.335
133.82
129.044
124.026
118.787
113.349
107.735
101.967
96.069
90.066
83.982
77.84
71.665
65.48
59.309
53.174
47.097
41.099
35.201
29.421
23.778
18.29
12.971
7.837
2.9
-1.827
-6.334
-10.613
-14.655
-18.455
-22.008
-25.311
-28.362
-31.16
-33.706
-36.001
-38.049
-39.854
-41.42
-42.754
-43.863
-44.754
-45.436
-45.917
-46.207
-46.317
-46.257
-46.036
-45.666
-45.158
-44.523
-43.772
-42.914
-41.962
-40.925
-39.814
-38.638
-37.407
-36.129
-34.813
-33.467
-32.099
-30.715
-29.323
-27.93
-26.541
-25.162
-23.798
-22.455
-21.137
-19.848
-18.593
-17.375
-16.197
-15.062
-13.973
-12.932
-11.942
-11.004
-10.119
-9.29
-8.517
-7.802
-7.145
-6.548
-6.01
-5.534
-5.12
-4.769
-4.482
-4.262
-4.11
-4.028
-4.017
-4.079
-4.214
-4.425
-4.711
-5.074
-5.513
-6.028
-6.62
-7.289
-8.034
-8.855
-9.751
-10.722
-11.767
-12.883
-14.071
-15.328
-16.653
-18.043
-19.496
-21.011
-22.585
-24.217
-25.902
-27.637
-29.417
-31.237
-33.092
-34.973
-36.872
-38.779
-40.689
-42.591
-44.478
-46.341
-48.173
-49.968
-51.721
-53.426
-55.075
-56.66
-58.17
-59.595
-60.924
-62.147
-63.251
-64.225
-65.058
-65.743
-66.279
-66.658
-66.874
-66.916
-66.77
-66.427
-65.889
-65.155
-64.225
-63.112
-61.828
-60.402
-58.879
-57.291
-55.658
-53.99
-52.288
-50.553
-48.793
-47.011
-45.21
-43.39
-41.545
-39.68
-37.809
-35.924
-34.008
-32.018
-29.88
-27.552
-25.029
-22.321
-19.462
-16.5
-13.482
-10.479
-7.583
-4.871
-2.415
-0.271
1.528
2.921
3.831
4.159
3.773
2.581
0.544
-2.353
-6.08
-10.572
-15.755
-21.513
-27.7
-34.198
-40.897
-47.69
-54.491
-61.197
-67.687
-73.846
-79.517
-84.534
-88.846
-92.488
-95.588
-98.394
-101.126
-103.925
-107.043
-110.768
-115.119
-120.013
-125.191
-130.05
-134.188
-137.433
-139.368
-139.581
-138.09
-134.984
-130.519
-125.6
-120.873
-116.624
-114.182
-114.872
-118.704
-126.108
-136.101
-146.102
-155.92
-165.056
-172.871
-180.878
-188.411
-192.805
-190.841
-175.994
-140.837
-81.597
3.551
113.156
241.236
382.963
531.931
678.93
815.117
928.533
1007.997
1045.588
1035.127
975.405
868.78
721.819
547.924
365.318
194.456
54.247
-44.343
-101.356
-123.476
-122.019
-109.116
-91.651
-75.804
-66.516
-63.834
-67.263
-73.172
-75.657
-73.4
-67.695
-61.775
-60.04
-63.55
-71.152
-81.099
-91.23
-100.471
-108.134
-113.409
-116.059
-116.124
-113.869
-109.803
-104.317
-97.782
-90.845
-84.268
-78.54
-73.867
-70.217
-67.422
-65.36
-63.952
-63.049
-62.401
-61.86
-61.392
-60.997
-60.762
-60.762
-61.023
-61.604
-62.572
-63.949
-65.748
-67.975
-70.578
-73.503
-76.681
-79.983
-83.309
-86.568
-89.644
-92.467
-94.969
-97.071
-98.721
-99.88
-100.507
-100.59
-100.122
-99.082
-97.486
-95.366
-92.77
-89.789
-86.493
-82.935
-79.174
-75.249
-71.19
-67.029
-62.777
-58.429
-53.987
-49.448
-44.804
-40.062
-35.216
-30.252
-25.154
-19.894
-14.453
-8.828
-3.019
2.969
9.12
15.418
21.834
28.331
34.873
41.426
47.956
54.431
60.82
67.086
73.193
79.106
84.792
90.22
95.361
100.189
104.677
108.803
112.548
115.895
118.828
121.334
123.398
125.007
126.153
126.827
127.025
126.741
125.976
124.731
123.012
120.825
118.18
115.09
111.569
107.632
103.299
98.589
93.524
88.127
82.423
76.436
70.192
63.719
57.043
50.192
43.194
36.076
28.867
21.594
14.285
6.966
-0.335
-7.593
-14.782
-21.877
-28.854
-35.691
-42.366
-48.856
-55.144
-61.21
-67.038
-72.612
-77.919
-82.944
-87.678
-92.111
-96.235
-100.043
-103.53
-106.692
-109.527
-112.034
-114.213
-116.065
-117.593
-118.801
-119.693
-120.275
-120.555
-120.54
-120.238
-119.661
-118.817
-117.718
-116.376
-114.803
-113.013
-111.019
-108.835
-106.477
-103.958
-101.294
-98.502
-95.596
-92.592
-89.507
-86.356
-83.156
-79.92
-76.666
-73.408
-70.16
-66.938
-63.753
-60.621
-57.554
-54.563
-51.661
-48.859
-46.166
-43.593
-41.148
-38.838
-36.672
-34.655
-32.794
-31.092
-29.555
-28.184
-26.983
-25.953
-25.093
-24.405
-23.886
-23.534
-23.345
-23.317
-23.445
-23.722
-24.143
-24.701
-25.388
-26.198
-27.121
-28.149
-29.275
-30.487
-31.777
-33.136
-34.554
-36.021
-37.527
-39.064
-40.621
-42.189
-43.758
-45.32
-46.866
-48.387
-49.875
-51.32
-52.716
-54.053
-55.325
-56.525
-57.646
-58.681
-59.627
-60.477
-61.228
-61.875
-62.415
-62.846
-63.164
-63.367
-63.453
-63.421
-63.267
-62.992
-62.593
-62.07
-61.422
-60.648
-59.749
-58.723
-57.57
-56.29
-54.883
-53.35
-51.689
-49.903
-47.992
-45.958
-43.803
-41.53
-39.142
-36.644
-34.038
-31.329
-28.521
-25.619
-22.627
-19.552
-16.4
-13.178
-9.893
-6.555
-3.174
0.238
3.665
7.096
10.515
13.908
17.258
20.546
23.755
26.869
29.872
32.749
35.482
38.052
40.441
42.634
44.619
46.384
47.916
49.202
50.229
50.996
51.503
51.749
51.73
51.433
50.843
49.955
48.767
47.282
45.505
43.445
41.115
38.555
35.807
32.92
29.948
26.919
23.864
20.814
17.798
14.876
12.12
9.59
7.345
5.423
3.817
2.53
1.562
0.821
0.181
-0.573
-1.755
-3.542
-5.978
-9.073
-12.829
-17.275
-22.43
-28.03
-33.471
-38.267
-42.147
-45.031
-46.961
-47.752
-47.166
-45.393
-43.215
-41.586
-41.377
-43.16
-47.163
-53.883
-63.313
-74.292
-84.961
-92.524
-95.254
-93.587
-87.533
-76.584
-57.532
-23.291
31.742
111.437
215.875
339.155
474.934
614.757
748.999
869.336
964.086
1022.294
1035.149
995.506
904.254
768.95
602.634
424.577
254.029
106.581
-6.417
-81.575
-122.335
-134.072
-125.323
-105.216
-80.5
-59.707
-48.782
-48.188
-56.172
-66.172
-71.243
-69.914
-63.602
-56.236
-52.083
-51.724
-53.908
-57.258
-60.332
-62.732
-64.421
-65.044
-64.578
-63.259
-61.376
-59.189
-56.858
-54.53
-52.571
-51.519
-51.685
-53.087
-55.576
-58.922
-62.908
-67.352
-71.971
-76.38
-80.318
-83.655
-86.343
-88.427
-89.94
-90.886
-91.306
-91.274
-90.851
-90.098
-89.061
-87.768
-86.269
-84.633
-82.926
-81.22
-79.563
-77.974
-76.467
-75.041
-73.685
-72.387
-71.124
-69.869
-68.596
-67.285
-65.916
-64.473
-62.935
-61.277
-59.476
-57.508
-55.354
-52.998
-50.427
-47.631
-44.603
-41.337
-37.831
-34.084
-30.097
-25.869
-21.4
-16.692
-11.748
-6.574
-1.178
4.43
10.238
16.231
22.393
28.704
35.143
41.689
48.318
55.004
61.721
68.443
75.141
81.787
88.351
94.804
101.117
107.259
113.203
118.92
124.382
129.563
134.436
138.978
143.167
146.981
150.4
153.407
155.987
158.126
159.813
161.039
161.796
162.082
161.894
161.233
160.103
158.51
156.464
153.974
151.054
147.72
143.989
139.881
135.417
130.619
125.513
120.123
114.477
108.603
102.528
96.283
89.897
83.4
76.821
70.191
63.537
56.891
50.278
43.728
37.267
30.92
24.711
18.663
12.798
7.135
1.693
-3.511
-8.464
-13.152
-17.564
-21.692
-25.529
-29.068
-32.307
-35.245
-37.881
-40.218
-42.26
-44.011
-45.48
-46.674
-47.603
-48.277
-48.708
-48.91
-48.895
-48.677
-48.272
-47.694
-46.959
-46.082
-45.079
-43.965
-42.755
-41.465
-40.109
-38.702
-37.255
-35.784
-34.299
-32.812
-31.334
-29.874
-28.442
-27.045
-25.692
-24.387
-23.136
-21.945
-20.815
-19.75
-18.753
-17.823
-16.961
-16.167
-15.439
-14.778
-14.18
-13.643
-13.164
-12.741
-12.371
-12.051
-11.776
-11.545
-11.353
-11.198
-11.078
-10.99
-10.932
-10.902
-10.898
-10.919
-10.965
-11.035
-11.129
-11.247
-11.389
-11.557
-11.75
-11.972
-12.222
-12.503
-12.818
-13.167
-13.555
-13.983
-14.453
-14.97
-15.534
-16.149
-16.817
-17.539
-18.319
-19.157
-20.055
-21.013
-22.031
-23.11
-24.248
-25.443
-26.694
-27.997
-29.349
-30.745
-32.181
-33.65
-35.147
-36.665
-38.198
-39.737
-41.276
-42.805
-44.317
-45.802
-47.252
-48.656
-50.006
-51.291
-52.5
-53.625
-54.655
-55.58
-56.391
-57.077
-57.63
-58.042
-58.303
-58.406
-58.344
-58.111
-57.701
-57.111
-56.337
-55.377
-54.232
-52.9
-51.384
-49.686
-47.811
-45.764
-43.55
-41.177
-38.652
-35.987
-33.191
-30.277
-27.257
-24.147
-20.962
-17.723
-14.45
-11.162
-7.883
-4.637
-1.448
1.66
4.665
7.546
10.284
12.86
15.255
17.45
19.428
21.175
22.674
23.917
24.894
25.6
26.039
26.216
26.138
25.809
25.222
24.372
23.253
21.861
20.194
18.254
16.05
13.607
10.962
8.156
5.224
2.19
-0.926
-4.088
-7.259
-10.387
-13.401
-16.247
-18.847
-21.09
-22.93
-24.384
-25.536
-26.578
-27.684
-28.934
-30.479
-32.522
-35.078
-38.031
-41.083
-43.705
-45.603
-46.771
-47.076
-46.271
-44.364
-41.531
-38.286
-35.524
-33.714
-32.883
-33.26
-35.378
-39.659
-46.344
-55.346
-66.091
-78.226
-91.819
-105.897
-117.884
-125.074
-124.761
-116.104
-101.195
-81.246
-55.391
-19.507
33.505
109.507
210.612
333.48
471.164
614.428
752.985
877.247
975.15
1034.404
1044.787
998.639
896.728
747.821
566.72
374.383
191.95
36.486
-79.844
-153.821
-189.796
-194.23
-177.079
-148.492
-116.285
-90.588
-77.862
-78.251
-89.383
-103.097
-111.25
-112.292
-107.428
-100.802
-97.494
-98.348
-102.076
-107.311
-112.325
-116.415
-119.855
-122.599
-124.382
-125.269
-125.388
-124.746
-123.509
-121.948
-120.219
-118.683
-117.853
-117.871
-118.71
-120.324
-122.489
-124.989
-127.658
-130.196
-132.282
-133.755
-134.532
-134.599
-134.025
-132.846
-131.09
-128.831
-126.142
-123.09
-119.738
-116.127
-112.298
-108.313
-104.239
-100.147
-96.092
-92.107
-88.209
-84.409
-80.704
-77.091
-73.559
-70.087
-66.662
-63.272
-59.904
-56.552
-53.203
-49.844
-46.459
-43.033
-39.553
-36.008
-32.391
-28.697
-24.922
-21.066
-17.129
-13.113
-9.022
-4.857
-0.619
3.688
8.06
12.492
16.975
21.503
26.063
30.645
35.232
39.81
44.361
48.868
53.313
57.675
61.934
66.07
70.062
73.89
77.531
80.967
84.177
87.142
89.843
92.262
94.384
96.192
97.673
98.814
99.604
100.035
100.098
99.788
99.1
98.034
96.588
94.765
92.57
90.008
87.089
83.822
80.22
76.298
72.074
67.564
62.789
57.771
52.532
47.095
41.485
35.727
29.846
23.868
17.819
11.725
5.612
-0.497
-6.575
-12.599
-18.546
-24.393
-30.119
-35.705
-41.131
-46.38
-51.436
-56.284
-60.911
-65.306
-69.458
-73.361
-77.007
-80.392
-83.513
-86.369
-88.961
-91.291
-93.363
-95.183
-96.756
-98.092
-99.199
-100.087
-100.767
-101.252
-101.552
-101.682
-101.653
-101.48
-101.176
-100.754
-100.228
-99.612
-98.917
-98.158
-97.346
-96.493
-95.611
-94.709
-93.799
-92.89
-91.989
-91.106
-90.247
-89.418
-88.626
-87.873
-87.165
-86.502
-85.889
-85.324
-84.81
-84.344
-83.927
-83.557
-83.231
-82.948
-82.703
-82.494
-82.318
-82.17
-82.046
-81.944
-81.857
-81.783
-81.717
-81.656
-81.595
-81.53
-81.459
-81.377
-81.28
-81.166
-81.031
-80.871
-80.684
-80.467
-80.218
-79.933
-79.612
-79.252
-78.851
-78.409
-77.923
-77.394
-76.819
-76.198
-75.53
-74.815
-74.053
-73.243
-72.385
-71.48
-70.527
-69.526
-68.479
-67.384
-66.244
-65.057
-63.825
-62.549
-61.23
-59.868
-58.467
-57.028
-55.552
-54.044
-52.504
-50.937
-49.345
-47.731
-46.098
-44.45
-42.791
-41.123
-39.452
-37.78
-36.114
-34.456
-32.81
-31.181
-29.573
-27.989
-26.432
-24.906
-23.413
-21.955
-20.535
-19.156
-17.819
-16.525
-15.277
-14.073
-12.914
-11.798
-10.726
-9.693
-8.698
-7.737
-6.806
-5.903
-5.023
-4.162
-3.315
-2.479
-1.647
-0.815
0.022
0.87
1.734
2.619
3.529
4.466
5.433
6.431
7.461
8.519
9.603
10.71
11.836
12.973
14.114
15.251
16.373
17.471
18.536
19.556
20.52
21.416
22.232
22.955
23.572
24.073
24.442
24.667
24.739
24.654
24.409
24.004
23.435
22.69
21.762
20.643
19.331
17.82
16.111
14.209
12.129
9.909
7.592
5.219
2.824
0.424
-1.975
-4.351
-6.672
-8.893
-10.96
-12.833
-14.474
-15.824
-16.826
-17.491
-17.908
-18.266
-18.814
-19.739
-21.171
-23.265
-26.146
-29.785
-33.992
-38.403
-42.571
-46.227
-49.207
-51.253
-52.115
-51.742
-50.344
-48.395
-46.362
-44.448
-42.78
-41.701
-41.724
-43.331
-46.704
-51.643
-58.076
-65.503
-72.656
-78.102
-79.611
-76.09
-68.574
-56.962
-40.363
-15.46
24.92
85.588
169.011
274.86
397.339
531.177
669.908
804.844
927.952
1026.993
1089.69
1106.44
1069.497
979.635
844.125
675.013
490.742
309.884
148.709
21.188
-66.108
-113.802
-125.759
-111.451
-82.914
-49.609
-22.765
-10.508
-12.75
-27.6
-47.739
-62.554
-69.291
-67.864
-60.674
-55.345
-54.534
-58.059
-66.286
-75.641
-83.786
-90.409
-94.284
-95.947
-96.406
-95.776
-94.377
-92.463
-90.211
-88.129
-86.887
-86.799
-87.855
-89.948
-92.883
-96.449
-100.462
-104.638
-108.581
-112.007
-114.787
-116.859
-118.252
-118.999
-119.099
-118.582
-117.522
-115.99
-114.05
-111.757
-109.144
-106.253
-103.147
-99.894
-96.566
-93.23
-89.927
-86.679
-83.501
-80.395
-77.358
-74.384
-71.457
-68.551
-65.646
-62.726
-59.775
-56.78
-53.722
-50.582
-47.339
-43.972
-40.469
-36.817
-33.009
-29.038
-24.898
-20.588
-16.109
-11.464
-6.659
-1.695
3.421
8.684
14.084
19.611
25.252
30.993
36.816
42.702
48.631
54.578
60.52
66.431
72.283
78.05
83.702
89.21
94.546
99.678
104.579
109.219
113.568
117.6
121.288
124.606
127.53
130.038
132.109
133.725
134.87
135.531
135.695
135.355
134.503
133.136
131.254
128.857
125.951
122.542
118.641
114.26
109.415
104.124
98.406
92.284
85.783
78.928
71.748
64.271
56.529
48.552
40.374
32.027
23.546
14.963
6.315
-2.367
-11.048
-19.695
-28.276
-36.76
-45.117
-53.318
-61.335
-69.144
-76.719
-84.039
-91.083
-97.832
-104.27
-110.382
-116.156
-121.582
-126.651
-131.357
-135.696
-139.667
-143.267
-146.5
-149.368
-151.876
-154.031
-155.841
-157.314
-158.462
-159.296
-159.829
-160.075
-160.047
-159.761
-159.231
-158.475
-157.507
-156.343
-154.999
-153.49
-151.831
-150.038
-148.125
-146.104
-143.989
-141.792
-139.524
-137.197
-134.818
-132.398
-129.943
-127.461
-124.958
-122.438
-119.906
-117.366
-114.82
-112.271
-109.719
-107.166
-104.611
-102.054
-99.495
-96.932
-94.363
-91.787
-89.202
-86.605
-83.996
-81.371
-78.729
-76.069
-73.389
-70.688
-67.967
-65.224
-62.461
-59.678
-56.877
-54.06
-51.231
-48.391
-45.546
-42.699
-39.857
-37.023
-34.206
-31.41
-28.643
-25.912
-23.225
-20.588
-18.01
-15.5
-13.064
-10.712
-8.451
-6.29
-4.237
-2.298
-0.482
1.204
2.754
4.163
5.424
6.532
7.483
8.274
8.901
9.363
9.658
9.786
9.747
9.544
9.177
8.652
7.972
7.142
6.169
5.06
3.823
2.465
0.997
-0.572
-2.231
-3.969
-5.774
-7.634
-9.535
-11.464
-13.406
-15.349
-17.277
-19.176
-21.031
-22.83
-24.556
-26.196
-27.737
-29.164
-30.465
-31.626
-32.636
-33.483
-34.156
-34.647
-34.946
-35.048
-34.945
-34.634
-34.111
-33.375
-32.424
-31.259
-29.881
-28.295
-26.504
-24.515
-22.337
-19.978
-17.453
-14.775
-11.962
-9.032
-6.003
-2.895
0.271
3.472
6.684
9.884
13.049
16.154
19.174
22.084
24.856
27.467
29.892
32.113
34.11
35.863
37.358
38.58
39.518
40.167
40.517
40.556
40.274
39.666
38.73
37.469
35.892
34.009
31.842
29.424
26.792
23.984
21.044
18.011
14.925
11.829
8.762
5.77
2.892
0.174
-2.332
-4.574
-6.515
-8.171
-9.582
-10.797
-11.896
-12.995
-14.252
-15.936
-18.293
-21.385
-25.21
-29.772
-34.966
-40.693
-46.742
-52.496
-57.325
-60.991
-63.327
-64.176
-63.558
-61.323
-57.954
-55.116
-54.244
-55.795
-58.488
-59.803
-58.683
-56.266
-55.873
-60.935
-71.209
-83.89
-94.702
-98.351
-91.752
-71.755
-33.167
27.41
112.359
221.134
347.381
484.409
624.552
759.488
882.488
983.093
1049.67
1070.836
1035.733
941.917
795.402
610.658
411.042
220.351
57.956
-63.495
-142.245
-184.076
-196.743
-190.115
-172.752
-150.618
-131.601
-121.141
-120.089
-127.489
-137.258
-142.894
-143.215
-139.248
-134.587
-133.441
-136.165
-141.332
-147.465
-152.699
-156.229
-158.045
-157.847
-155.713
-152.099
-147.375
-141.851
-135.864
-129.738
-123.876
-118.855
-114.997
-112.274
-110.561
-109.659
-109.358
-109.484
-109.777
-109.861
-109.451
-108.415
-106.699
-104.338
-101.375
-97.818
-93.709
-89.131
-84.166
-78.893
-73.38
-67.672
-61.82
-55.899
-49.986
-44.165
-38.513
-33.079
-27.892
-22.972
-18.323
-13.944
-9.83
-5.963
-2.315
1.136
4.411
7.53
10.509
13.371
16.144
18.853
21.526
24.183
26.845
29.527
32.246
35.016
37.847
40.75
43.729
46.792
49.946
53.197
56.551
60.011
63.576
67.245
71.017
74.884
78.839
82.871
86.966
91.111
95.288
99.48
103.667
107.829
111.945
115.991
119.944
123.782
127.481
131.017
134.368
137.509
140.421
143.081
145.47
147.569
149.362
150.832
151.967
152.755
153.184
153.248
152.941
152.258
151.197
149.761
147.95
145.771
143.232
140.341
137.112
133.557
129.695
125.541
121.116
116.44
111.535
106.424
101.131
95.682
90.099
84.411
78.641
72.815
66.959
61.098
55.255
49.454
43.718
38.069
32.527
27.111
21.841
16.732
11.8
7.059
2.523
-1.799
-5.897
-9.763
-13.391
-16.777
-19.917
-22.81
-25.456
-27.857
-30.015
-31.934
-33.619
-35.076
-36.313
-37.337
-38.157
-38.782
-39.221
-39.485
-39.585
-39.529
-39.33
-38.997
-38.541
-37.972
-37.3
-36.534
-35.684
-34.759
-33.765
-32.713
-31.607
-30.456
-29.266
-28.041
-26.787
-25.508
-24.208
-22.889
-21.555
-20.208
-18.85
-17.481
-16.102
-14.715
-13.319
-11.914
-10.499
-9.076
-7.642
-6.197
-4.741
-3.274
-1.794
-0.303
1.201
2.717
4.244
5.782
7.329
8.884
10.445
12.01
13.578
15.144
16.707
18.262
19.806
21.336
22.846
24.334
25.794
27.223
28.615
29.967
31.273
32.528
33.729
34.871
35.949
36.958
37.895
38.756
39.537
40.234
40.844
41.365
41.794
42.13
42.37
42.515
42.562
42.513
42.367
42.126
41.792
41.365
40.851
40.25
39.568
38.809
37.977
37.078
36.117
35.099
34.031
32.918
31.767
30.585
29.379
28.155
26.922
25.686
24.457
23.242
22.048
20.884
19.756
18.673
17.642
16.67
15.764
14.932
14.178
13.511
12.935
12.457
12.079
11.806
11.64
11.584
11.638
11.803
12.079
12.465
12.959
13.561
14.266
15.071
15.971
16.961
18.034
19.18
20.393
21.659
22.966
24.302
25.651
26.999
28.329
29.624
30.867
32.043
33.139
34.139
35.029
35.795
36.424
36.904
37.225
37.373
37.341
37.118
36.703
36.101
35.319
34.361
33.229
31.916
30.415
28.725
26.847
24.778
22.521
20.083
17.486
14.779
12.01
9.221
6.442
3.679
0.948
-1.717
-4.273
-6.66
-8.814
-10.705
-12.274
-13.434
-14.174
-14.543
-14.671
-14.829
-15.23
-16.011
-17.367
-19.439
-22.188
-25.485
-29.018
-32.302
-35.054
-37.061
-37.962
-37.588
-36.025
-33.51
-30.597
-27.954
-25.905
-24.819
-25.425
-28.262
-33.597
-41.544
-51.751
-63.677
-77.107
-91.021
-102.99
-110.475
-110.827
-102.686
-86.991
-64.518
-35.012
4.137
57.629
129.915
223.469
336.228
463.142
596.262
725.504
841.593
932.939
988.084
997.463
952.905
853.972
707.221
525.61
329.088
138.229
-27.807
-154.346
-235.411
-272.489
-273.716
-251.793
-220.051
-189.861
-169.717
-163.322
-168.477
-180.18
-191.533
-196.525
-194.768
-188.793
-182.379
-179.738
-181.567
-186.321
-192.625
-198.923
-204.407
-209.249
-213.377
-216.44
-218.452
-219.552
-219.735
-219.173
-218.159
-216.834
-215.541
-214.794
-214.729
-215.321
-216.533
-218.147
-219.962
-221.835
-223.487
-224.61
-225.054
-224.743
-223.671
-221.917
-219.52
-216.516
-212.983
-209.003
-204.653
-199.998
-195.087
-189.962
-184.683
-179.314
-173.926
-168.571
-163.279
-158.069
-152.951
-147.925
-142.99
-138.136
-133.345
-128.605
-123.904
-119.233
-114.581
-109.938
-105.289
-100.617
-95.909
-91.148
-86.325
-81.431
-76.459
-71.406
-66.268
-61.046
-55.739
-50.349
-44.875
-39.319
-33.682
-27.965
-22.173
-16.312
-10.388
-4.411
1.61
7.662
13.732
19.804
25.863
31.893
37.876
43.792
49.624
55.351
60.953
66.41
71.701
76.807
81.706
86.38
90.81
94.978
98.866
102.46
105.743
108.704
111.328
113.607
115.53
117.09
118.282
119.1
119.542
119.607
119.296
118.611
117.557
116.14
114.368
112.25
109.797
107.021
103.938
100.561
96.907
92.993
88.838
84.46
79.88
75.117
70.193
65.127
59.941
54.656
49.292
43.87
38.41
32.933
27.456
21.999
16.579
11.213
5.917
0.707
-4.403
-9.4
-14.271
-19.005
-23.591
-28.021
-32.286
-36.378
-40.293
-44.025
-47.57
-50.926
-54.09
-57.062
-59.842
-62.431
-64.83
-67.043
-69.071
-70.92
-72.594
-74.097
-75.435
-76.613
-77.637
-78.514
-79.25
-79.851
-80.323
-80.674
-80.909
-81.035
-81.057
-80.983
-80.818
-80.568
-80.24
-79.838
-79.368
-78.835
-78.245
-77.603
-76.913
-76.179
-75.406
-74.598
-73.759
-72.892
-72.001
-71.088
-70.158
-69.212
-68.254
-67.287
-66.312
-65.333
-64.352
-63.371
-62.392
-61.419
-60.453
-59.497
-58.554
-57.626
-56.716
-55.826
-54.959
-54.118
-53.304
-52.521
-51.771
-51.056
-50.378
-49.74
-49.143
-48.589
-48.081
-47.619
-47.205
-46.84
-46.527
-46.266
-46.058
-45.905
-45.806
-45.763
-45.775
-45.844
-45.969
-46.15
-46.388
-46.68
-47.028
-47.429
-47.883
-48.388
-48.942
-49.543
-50.189
-50.877
-51.604
-52.368
-53.165
-53.992
-54.847
-55.725
-56.623
-57.537
-58.463
-59.397
-60.335
-61.271
-62.2
-63.118
-64.018
-64.896
-65.745
-66.561
-67.336
-68.065
-68.741
-69.359
-69.911
-70.39
-70.792
-71.108
-71.333
-71.461
-71.487
-71.406
-71.213
-70.904
-70.475
-69.923
-69.244
-68.438
-67.5
-66.431
-65.23
-63.898
-62.436
-60.848
-59.136
-57.308
-55.372
-53.336
-51.21
-49.006
-46.737
-44.417
-42.059
-39.678
-37.287
-34.901
-32.533
-30.2
-27.919
-25.708
-23.586
-21.568
-19.672
-17.913
-16.307
-14.866
-13.598
-12.509
-11.608
-10.908
-10.432
-10.198
-10.219
-10.504
-11.057
-11.871
-12.938
-14.233
-15.716
-17.342
-19.068
-20.854
-22.673
-24.497
-26.288
-27.995
-29.551
-30.889
-31.961
-32.729
-33.167
-33.275
-33.075
-32.631
-32.06
-31.469
-30.971
-30.678
-30.681
-31.079
-31.98
-33.47
-35.67
-38.751
-42.803
-47.811
-53.656
-60.009
-66.492
-72.741
-78.225
-82.295
-84.474
-84.525
-82.575
-79.244
-75.287
-71.404
-68.416
-67.278
-68.179
-70.265
-72.112
-71.379
-66.84
-59.291
-48.527
-33.544
-10.853
26.67
83.811
163.123
264.061
380.702
507.921
639.534
766.961
881.9
971.747
1022.873
1025.159
972.106
865.615
716.051
539.184
354.982
183.494
40.499
-64.175
-127.96
-155.527
-155.089
-136.24
-109.338
-82.573
-62.502
-54.536
-59.034
-73.054
-92.405
-109.678
-119.767
-121.732
-115.105
-103.656
-92.757
-84.657
-81.578
-83.366
-87.153
-91.524
-95.524
-98.662
-101.64
-104.723
-107.673
-110.263
-112.211
-113.491
-114.31
-114.989
-115.927
-117.31
-119.17
-121.459
-123.984
-126.535
-128.953
-131.025
-132.509
-133.271
-133.253
-132.454
-130.964
-128.86
-126.194
-123.034
-119.458
-115.527
-111.314
-106.89
-102.309
-97.639
-92.936
-88.235
-83.57
-78.958
-74.406
-69.909
-65.454
-61.022
-56.6
-52.179
-47.754
-43.318
-38.862
-34.373
-29.84
-25.251
-20.595
-15.865
-11.049
-6.143
-1.144
3.947
9.128
14.394
19.741
25.167
30.668
36.242
41.883
47.584
53.339
59.139
64.973
70.828
76.688
82.535
88.352
94.12
99.818
105.424
110.916
116.271
121.465
126.475
131.275
135.842
140.151
144.179
147.902
151.299
154.347
157.027
159.32
161.208
162.677
163.712
164.301
164.435
164.105
163.306
162.035
160.291
158.074
155.388
152.239
148.636
144.589
140.113
135.223
129.938
124.278
118.265
111.924
105.281
98.363
91.199
83.819
76.255
68.538
60.701
52.777
44.8
36.802
28.817
20.878
13.015
5.262
-2.354
-9.801
-17.053
-24.083
-30.865
-37.376
-43.595
-49.501
-55.075
-60.302
-65.166
-69.656
-73.762
-77.474
-80.788
-83.698
-86.203
-88.303
-90.001
-91.299
-92.203
-92.722
-92.864
-92.64
-92.062
-91.145
-89.902
-88.351
-86.508
-84.39
-82.017
-79.407
-76.579
-73.553
-70.349
-66.987
-63.487
-59.869
-56.151
-52.355
-48.499
-44.601
-40.679
-36.751
-32.835
-28.945
-25.097
-21.307
-17.588
-13.953
-10.413
-6.982
-3.668
-0.48
2.571
5.481
8.241
10.847
13.295
15.58
17.7
19.653
21.439
23.055
24.504
25.785
26.901
27.852
28.643
29.275
29.754
30.082
30.264
30.305
30.21
29.984
29.633
29.163
28.58
27.891
27.101
26.218
25.25
24.201
23.08
21.894
20.649
19.351
18.007
16.623
15.206
13.761
12.293
10.808
9.312
7.809
6.304
4.801
3.304
1.817
0.345
-1.111
-2.545
-3.955
-5.338
-6.69
-8.01
-9.293
-10.538
-11.742
-12.904
-14.022
-15.094
-16.119
-17.096
-18.023
-18.9
-19.725
-20.496
-21.213
-21.873
-22.476
-23.021
-23.505
-23.927
-24.287
-24.582
-24.811
-24.972
-25.063
-25.084
-25.031
-24.903
-24.7
-24.421
-24.065
-23.633
-23.124
-22.542
-21.886
-21.159
-20.364
-19.501
-18.575
-17.587
-16.544
-15.449
-14.307
-13.127
-11.916
-10.685
-9.446
-8.21
-6.989
-5.796
-4.645
-3.551
-2.528
-1.59
-0.749
-0.02
0.584
1.047
1.353
1.49
1.449
1.222
0.799
0.172
-0.668
-1.719
-2.978
-4.444
-6.116
-8.003
-10.113
-12.444
-14.993
-17.753
-20.713
-23.86
-27.176
-30.621
-34.152
-37.722
-41.279
-44.792
-48.228
-51.554
-54.74
-57.738
-60.491
-62.951
-65.072
-66.808
-68.162
-69.137
-69.733
-70.036
-70.182
-70.355
-70.844
-71.899
-73.603
-76.002
-79.151
-82.976
-87.366
-92.061
-96.424
-99.8
-101.836
-102.321
-101.163
-98.453
-94.257
-88.871
-83.247
-78.558
-75.771
-75.685
-78.726
-85.052
-94.284
-105.055
-115.351
-122.414
-124.712
-122.648
-115.85
-103.574
-82.521
-45.839
11.018
90.636
192.374
310.234
438.773
571.191
698.831
813.605
903.665
957.335
965.958
923.61
832.087
699.353
538.052
365.552
199.385
55.48
-54.066
-124.208
-155.938
-155.946
-135.721
-107.102
-81.22
-66.671
-64.926
-72.87
-84.161
-90.529
-89.055
-81.334
-71.167
-64.066
-62.062
-64.109
-68.504
-73.119
-77.017
-80.106
-82.144
-82.871
-82.164
-80.141
-77.096
-73.277
-68.934
-64.393
-60.09
-56.595
-54.229
-52.993
-52.788
-53.437
-54.734
-56.488
-58.409
-60.105
-61.332
-61.986
-62.023
-61.489
-60.419
-58.814
-56.724
-54.232
-51.4
-48.286
-44.938
-41.38
-37.666
-33.866
-30.052
-26.306
-22.679
-19.202
-15.896
-12.769
-9.822
-7.051
-4.442
-1.973
0.373
2.613
4.759
6.822
8.818
10.767
12.689
14.607
16.537
18.493
20.489
22.533
24.634
26.798
29.03
31.331
33.703
36.15
38.675
41.281
43.968
46.737
49.586
52.513
55.511
58.576
61.698
64.868
68.073
71.301
74.539
77.773
80.986
84.163
87.286
90.339
93.303
96.162
98.898
101.494
103.932
106.197
108.273
110.144
111.798
113.222
114.405
115.336
116.008
116.412
116.543
116.396
115.969
115.26
114.269
112.998
111.45
109.631
107.548
105.209
102.623
99.802
96.759
93.507
90.061
86.435
82.647
78.712
74.648
70.473
66.203
61.858
57.453
53.008
48.538
44.059
39.589
35.141
30.73
26.368
22.07
17.845
13.705
9.659
5.714
1.878
-1.844
-5.446
-8.925
-12.278
-15.506
-18.606
-21.58
-24.429
-27.156
-29.764
-32.258
-34.641
-36.919
-39.097
-41.182
-43.178
-45.094
-46.935
-48.707
-50.418
-52.072
-53.676
-55.236
-56.757
-58.244
-59.701
-61.132
-62.542
-63.933
-65.306
-66.665
-68.01
-69.342
-70.661
-71.967
-73.258
-74.533
-75.79
-77.026
-78.24
-79.429
-80.589
-81.717
-82.809
-83.864
-84.877
-85.846
-86.767
-87.637
-88.455
-89.217
-89.923
-90.569
-91.154
-91.677
-92.138
-92.535
-92.868
-93.137
-93.342
-93.484
-93.563
-93.58
-93.538
-93.436
-93.278
-93.065
-92.799
-92.483
-92.118
-91.708
-91.255
-90.76
-90.226
-89.655
-89.049
-88.409
-87.737
-87.033
-86.299
-85.535
-84.74
-83.916
-83.061
-82.176
-81.259
-80.31
-79.329
-78.313
-77.262
-76.177
-75.055
-73.896
-72.7
-71.466
-70.194
-68.883
-67.533
-66.144
-64.717
-63.251
-61.746
-60.205
-58.627
-57.014
-55.367
-53.688
-51.98
-50.245
-48.484
-46.702
-44.9
-43.083
-41.253
-39.413
-37.568
-35.719
-33.872
-32.027
-30.19
-28.362
-26.545
-24.742
-22.954
-21.183
-19.429
-17.693
-15.975
-14.275
-12.594
-10.933
-9.289
-7.664
-6.055
-4.464
-2.889
-1.328
0.218
1.751
3.271
4.777
6.269
7.746
9.206
10.648
12.066
13.457
14.813
16.129
17.395
18.603
19.74
20.797
21.76
22.62
23.366
23.987
24.472
24.811
24.991
25
24.828
24.464
23.9
23.132
22.159
20.981
19.601
18.021
16.239
14.248
12.045
9.623
6.976
4.108
1.024
-2.256
-5.697
-9.264
-12.924
-16.647
-20.422
-24.227
-28.026
-31.787
-35.458
-38.981
-42.318
-45.39
-48.09
-50.402
-52.361
-54.083
-55.794
-57.645
-59.687
-62.062
-64.946
-68.353
-72.204
-76.184
-79.762
-82.729
-85.123
-86.865
-87.798
-87.811
-86.877
-85.402
-84.12
-83.229
-82.603
-82.237
-82.306
-83.297
-85.814
-89.97
-95.431
-102.344
-110.439
-118.622
-125.658
-129.208
-127.795
-122.012
-111.409
-95.019
-69.833
-29.262
31.169
114.156
219.952
343.706
480.626
623.455
762.423
887.865
986.494
1047.611
1063.39
1028.447
945.471
819.495
660.306
483.877
306.237
145.688
17.715
-70.493
-118.324
-131.877
-121.826
-98.902
-71.802
-49.017
-35.923
-32.887
-38.434
-46.787
-51.553
-51.754
-48.679
-45.655
-46.772
-52.409
-60.935
-70.589
-79.275
-85.813
-89.917
-91.548
-91.037
-88.926
-85.747
-81.913
-77.775
-73.855
-70.719
-68.702
-67.934
-68.327
-69.645
-71.735
-74.452
-77.527
-80.637
-83.516
-85.965
-87.917
-89.421
-90.527
-91.302
-91.855
-92.286
-92.686
-93.118
-93.593
-94.079
-94.523
-94.89
-95.177
-95.398
-95.577
-95.739
-95.89
-96.009
-96.062
-95.987
-95.695
-95.11
-94.16
-92.799
-91.015
-88.828
-86.28
-83.414
-80.256
-76.822
-73.113
-69.126
-64.858
-60.308
-55.471
-50.361
-45.006
-39.435
-33.677
-27.75
-21.661
-15.401
-8.955
-2.309
4.544
11.605
18.863
26.302
33.897
41.617
49.423
57.281
65.158
73.024
80.85
88.603
96.248
103.746
111.059
118.148
124.973
131.498
137.688
143.513
148.945
153.959
158.538
162.663
166.318
169.489
172.162
174.328
175.978
177.107
177.71
177.788
177.343
176.382
174.912
172.947
170.5
167.588
164.23
160.448
156.265
151.707
146.799
141.569
136.046
130.261
124.244
118.025
111.637
105.109
98.474
91.762
85.001
78.222
71.451
64.715
58.04
51.448
44.964
38.608
32.4
26.36
20.504
14.847
9.405
4.188
-0.793
-5.53
-10.015
-14.244
-18.212
-21.919
-25.362
-28.543
-31.464
-34.128
-36.539
-38.703
-40.626
-42.316
-43.78
-45.027
-46.066
-46.906
-47.556
-48.028
-48.33
-48.473
-48.466
-48.322
-48.048
-47.656
-47.156
-46.557
-45.87
-45.103
-44.267
-43.37
-42.422
-41.431
-40.406
-39.354
-38.285
-37.205
-36.123
-35.044
-33.977
-32.928
-31.903
-30.909
-29.953
-29.039
-28.175
-27.366
-26.617
-25.936
-25.326
-24.794
-24.344
-23.983
-23.713
-23.541
-23.471
-23.507
-23.652
-23.912
-24.288
-24.784
-25.403
-26.147
-27.017
-28.015
-29.143
-30.4
-31.787
-33.304
-34.95
-36.724
-38.623
-40.647
-42.792
-45.054
-47.429
-49.913
-52.5
-55.183
-57.958
-60.816
-63.75
-66.752
-69.814
-72.927
-76.083
-79.272
-82.485
-85.712
-88.943
-92.169
-95.379
-98.565
-101.717
-104.825
-107.88
-110.872
-113.793
-116.634
-119.386
-122.039
-124.585
-127.017
-129.326
-131.504
-133.546
-135.444
-137.194
-138.791
-140.229
-141.504
-142.615
-143.557
-144.328
-144.926
-145.35
-145.598
-145.67
-145.565
-145.285
-144.83
-144.2
-143.397
-142.423
-141.279
-139.968
-138.49
-136.85
-135.05
-133.094
-130.986
-128.732
-126.338
-123.81
-121.155
-118.379
-115.492
-112.501
-109.414
-106.24
-102.988
-99.668
-96.291
-92.868
-89.41
-85.932
-82.449
-78.975
-75.525
-72.117
-68.769
-65.497
-62.322
-59.262
-56.333
-53.551
-50.931
-48.49
-46.244
-44.208
-42.392
-40.809
-39.47
-38.385
-37.564
-37.012
-36.723
-36.691
-36.909
-37.374
-38.093
-39.071
-40.307
-41.797
-43.538
-45.521
-47.737
-50.162
-52.748
-55.438
-58.18
-60.928
-63.658
-66.354
-68.984
-71.5
-73.832
-75.908
-77.666
-79.062
-80.041
-80.546
-80.589
-80.258
-79.724
-79.229
-78.997
-79.179
-79.89
-81.234
-83.124
-85.385
-87.834
-90.138
-92.001
-93.199
-93.455
-92.565
-90.672
-88.036
-84.785
-81.233
-77.66
-74.414
-72.195
-71.703
-73.282
-77.068
-83.318
-91.557
-100.55
-108.746
-113.518
-113.25
-108.422
-98.859
-84.153
-61.623
-24.511
32.481
113.396
219.492
346.053
487.941
637.112
782.416
913.308
1015.576
1076.335
1086.891
1041.158
941.374
796.548
620.432
433.145
255.274
103.243
-11.201
-85.405
-124.518
-135.331
-127.339
-109.783
-89.056
-73.171
-67.473
-72.184
-85.181
-99.434
-107.66
-107.679
-100.275
-89.693
-80.86
-75.241
-72.651
-72.084
-72.245
-73.288
-75.765
-79.549
-84.438
-89.909
-95.155
-99.835
-103.77
-106.691
-108.575
-109.629
-110.099
-110.396
-111.025
-112.182
-113.859
-116.01
-118.439
-120.92
-123.286
-125.305
-126.711
-127.388
-127.306
-126.486
-125.025
-123.003
-120.467
-117.491
-114.155
-110.52
-106.655
-102.621
-98.463
-94.24
-90
-85.776
-81.594
-77.466
-73.391
-69.362
-65.369
-61.391
-57.42
-53.446
-49.462
-45.462
-41.436
-37.372
-33.258
-29.08
-24.828
-20.489
-16.056
-11.52
-6.879
-2.129
2.727
7.687
12.75
17.917
23.185
28.554
34.021
39.581
45.23
50.962
56.767
62.635
68.555
74.511
80.49
86.477
92.455
98.406
104.314
110.159
115.921
121.582
127.121
132.518
137.751
142.802
147.648
152.272
156.654
160.775
164.621
168.174
171.42
174.346
176.942
179.197
181.102
182.652
183.841
184.667
185.13
185.228
184.967
184.349
183.383
182.076
180.439
178.482
176.22
173.666
170.836
167.747
164.416
160.862
157.106
153.166
149.065
144.823
140.463
136.004
131.47
126.88
122.256
117.617
112.983
108.373
103.803
99.291
94.852
90.5
86.248
82.108
78.089
74.201
70.451
66.845
63.388
60.083
56.932
53.937
51.098
48.413
45.88
43.496
41.256
39.157
37.193
35.355
33.639
32.036
30.537
29.135
27.822
26.587
25.423
24.321
23.273
22.269
21.302
20.363
19.446
18.544
17.65
16.758
15.864
14.962
14.05
13.123
12.178
11.214
10.229
9.22
8.187
7.13
6.047
4.94
3.808
2.653
1.475
0.275
-0.945
-2.184
-3.44
-4.711
-5.996
-7.294
-8.602
-9.919
-11.242
-12.57
-13.902
-15.234
-16.567
-17.897
-19.224
-20.547
-21.864
-23.175
-24.48
-25.777
-27.066
-28.346
-29.618
-30.881
-32.133
-33.377
-34.61
-35.834
-37.05
-38.257
-39.456
-40.648
-41.833
-43.012
-44.186
-45.354
-46.517
-47.674
-48.827
-49.976
-51.123
-52.267
-53.412
-54.558
-55.707
-56.86
-58.02
-59.187
-60.364
-61.552
-62.753
-63.969
-65.203
-66.457
-67.733
-69.033
-70.358
-71.711
-73.092
-74.5
-75.935
-77.396
-78.881
-80.388
-81.912
-83.452
-85.003
-86.565
-88.134
-89.707
-91.28
-92.849
-94.409
-95.954
-97.476
-98.966
-100.41
-101.797
-103.116
-104.357
-105.509
-106.562
-107.502
-108.32
-109.01
-109.559
-109.958
-110.19
-110.231
-110.068
-109.698
-109.122
-108.353
-107.398
-106.261
-104.956
-103.502
-101.91
-100.186
-98.318
-96.277
-94.049
-91.636
-89.054
-86.338
-83.504
-80.552
-77.481
-74.287
-70.964
-67.517
-63.926
-60.151
-56.188
-52.059
-47.827
-43.599
-39.454
-35.441
-31.602
-27.955
-24.539
-21.407
-18.596
-16.136
-14.067
-12.425
-11.288
-10.763
-10.899
-11.703
-13.132
-15.086
-17.491
-20.295
-23.425
-26.812
-30.385
-34.065
-37.81
-41.601
-45.392
-49.108
-52.634
-55.831
-58.605
-60.915
-62.727
-64.015
-64.805
-65.185
-65.337
-65.541
-66.029
-66.925
-68.38
-70.574
-73.49
-77.002
-80.816
-84.31
-87.001
-88.605
-88.648
-86.701
-82.724
-76.797
-69.358
-61.451
-53.818
-47.054
-42.223
-40.208
-41.445
-46.314
-54.591
-65.282
-77.725
-90.571
-100.926
-105.934
-102.741
-89.635
-67.33
-36.802
1.95
50.978
113.983
194.893
296.269
416.865
553.24
698.132
840.083
966.801
1063.258
1116.132
1117.729
1064.794
961.848
819.361
650.728
472.533
301.464
152.22
36.163
-41.485
-81.782
-91.234
-80.649
-61.364
-43.435
-33.793
-33.271
-38.714
-44.587
-45.094
-39.077
-28.999
-19.104
-14.017
-14.983
-20.897
-29.895
-39.513
-48.488
-56.11
-61.493
-64.433
-64.989
-63.302
-59.901
-55.377
-50.243
-45.248
-41.216
-38.573
-37.481
-37.903
-39.597
-42.367
-46.029
-50.282
-54.771
-59.233
-63.514
-67.543
-71.306
-74.746
-77.766
-80.312
-82.382
-83.997
-85.177
-85.931
-86.256
-86.153
-85.646
-84.752
-83.47
-81.815
-79.787
-77.401
-74.693
-71.719
-68.547
-65.237
-61.829
-58.339
-54.778
-51.154
-47.469
-43.723
-39.91
-36.032
-32.105
-28.144
-24.166
-20.177
-16.171
-12.132
-8.033
-3.852
0.427
4.814
9.309
13.91
18.611
23.397
28.249
33.152
38.093
43.063
48.053
53.047
58.029
62.977
67.868
72.678
77.382
81.955
86.374
90.618
94.666
98.502
102.11
105.476
108.585
111.422
113.971
116.219
118.153
119.76
121.03
121.954
122.524
122.736
122.587
122.077
121.204
119.972
118.385
116.447
114.165
111.549
108.609
105.355
101.803
97.966
93.862
89.507
84.921
80.122
75.132
69.971
64.66
59.223
53.679
48.052
42.363
36.633
30.885
25.14
19.417
13.738
8.121
2.585
-2.852
-8.175
-13.367
-18.414
-23.304
-28.025
-32.565
-36.916
-41.068
-45.015
-48.751
-52.27
-55.569
-58.645
-61.498
-64.125
-66.528
-68.71
-70.671
-72.417
-73.951
-75.278
-76.405
-77.338
-78.083
-78.648
-79.041
-79.27
-79.342
-79.266
-79.05
-78.702
-78.232
-77.647
-76.955
-76.164
-75.283
-74.319
-73.279
-72.171
-71.002
-69.778
-68.506
-67.194
-65.846
-64.471
-63.073
-61.659
-60.234
-58.803
-57.373
-55.948
-54.533
-53.132
-51.749
-50.39
-49.058
-47.757
-46.491
-45.264
-44.079
-42.94
-41.849
-40.81
-39.826
-38.9
-38.033
-37.228
-36.488
-35.814
-35.208
-34.671
-34.204
-33.808
-33.483
-33.229
-33.044
-32.928
-32.879
-32.894
-32.97
-33.105
-33.294
-33.533
-33.818
-34.144
-34.504
-34.894
-35.308
-35.737
-36.177
-36.62
-37.06
-37.488
-37.898
-38.283
-38.637
-38.952
-39.221
-39.439
-39.6
-39.696
-39.724
-39.677
-39.552
-39.344
-39.049
-38.666
-38.192
-37.625
-36.965
-36.212
-35.367
-34.431
-33.406
-32.296
-31.103
-29.831
-28.486
-27.071
-25.594
-24.059
-22.473
-20.844
-19.178
-17.483
-15.766
-14.035
-12.295
-10.556
-8.823
-7.102
-5.399
-3.72
-2.07
-0.453
1.126
2.663
4.155
5.6
6.996
8.341
9.636
10.88
12.073
13.217
14.314
15.364
16.37
17.335
18.261
19.152
20.009
20.837
21.639
22.419
23.178
23.921
24.649
25.365
26.072
26.768
27.454
28.124
28.772
29.393
29.978
30.517
30.999
31.413
31.748
31.998
32.157
32.217
32.17
32.003
31.706
31.27
30.688
29.955
29.064
28.011
26.797
25.432
23.925
22.284
20.506
18.574
16.469
14.181
11.702
9.03
6.169
3.122
-0.097
-3.457
-6.933
-10.491
-14.103
-17.748
-21.399
-25.021
-28.569
-31.957
-35.064
-37.826
-40.235
-42.343
-44.305
-46.236
-48.189
-50.28
-52.676
-55.458
-58.59
-61.803
-64.53
-66.349
-67.188
-67.076
-66.081
-64.276
-61.719
-58.886
-56.836
-56.355
-57.552
-60.302
-64.202
-69.514
-77.488
-87.884
-99.288
-109.785
-116.455
-119.734
-122.395
-125.813
-131.918
-138.825
-141.846
-139.278
-128.827
-109.406
-80.111
-35.862
28.946
118.819
234.135
369.632
515.688
660.162
792.393
902.099
980.334
1019.853
1013.371
957.339
852.875
706.233
531.187
346.815
173.221
29.115
-73.673
-134.49
-158.455
-155.621
-138.865
-116.144
-95.586
-84.454
-83.179
-90.81
-102.283
-109.361
-109.688
-104.468
-97.512
-94.546
-97.333
-104.83
-115.219
-125.977
-135.845
-144.201
-150.259
-153.844
-155.058
-154.113
-151.497
-147.626
-142.883
-137.973
-133.707
-130.57
-128.761
-128.221
-128.706
-130.022
-131.997
-134.309
-136.566
-138.467
-139.796
-140.475
-140.529
-139.966
-138.791
-137.034
-134.742
-131.975
-128.799
-125.263
-121.403
-117.266
-112.905
-108.39
-103.795
-99.195
-94.66
-90.239
-85.965
-81.861
-77.939
-74.205
-70.663
-67.304
-64.111
-61.068
-58.165
-55.388
-52.73
-50.174
-47.701
-45.293
-42.931
-40.602
-38.294
-35.996
-33.696
-31.386
-29.059
-26.709
-24.332
-21.926
-19.484
-17
-14.47
-11.891
-9.26
-6.578
-3.842
-1.054
1.782
4.661
7.577
10.521
13.484
16.456
19.425
22.38
25.306
28.189
31.016
33.77
36.436
38.998
41.44
43.747
45.904
47.894
49.705
51.321
52.731
53.922
54.883
55.604
56.075
56.289
56.238
55.916
55.319
54.444
53.29
51.855
50.143
48.155
45.897
43.375
40.597
37.571
34.308
30.819
27.118
23.217
19.133
14.881
10.477
5.94
1.286
-3.465
-8.295
-13.185
-18.115
-23.068
-28.024
-32.964
-37.87
-42.724
-47.509
-52.207
-56.802
-61.278
-65.62
-69.816
-73.851
-77.715
-81.396
-84.886
-88.177
-91.261
-94.134
-96.79
-99.227
-101.444
-103.44
-105.216
-106.775
-108.12
-109.258
-110.194
-110.936
-111.493
-111.873
-112.088
-112.148
-112.067
-111.856
-111.529
-111.099
-110.582
-109.991
-109.342
-108.648
-107.925
-107.187
-106.448
-105.721
-105.019
-104.355
-103.741
-103.187
-102.704
-102.302
-101.988
-101.77
-101.654
-101.646
-101.75
-101.967
-102.301
-102.751
-103.315
-103.993
-104.78
-105.673
-106.666
-107.751
-108.922
-110.17
-111.486
-112.858
-114.276
-115.728
-117.202
-118.685
-120.165
-121.63
-123.065
-124.459
-125.799
-127.073
-128.269
-129.376
-130.382
-131.278
-132.054
-132.702
-133.212
-133.579
-133.796
-133.859
-133.763
-133.505
-133.084
-132.498
-131.747
-130.832
-129.757
-128.522
-127.134
-125.597
-123.917
-122.101
-120.158
-118.095
-115.921
-113.648
-111.283
-108.839
-106.324
-103.751
-101.131
-98.473
-95.789
-93.089
-90.384
-87.685
-84.999
-82.338
-79.708
-77.118
-74.574
-72.085
-69.654
-67.289
-64.993
-62.771
-60.625
-58.558
-56.572
-54.668
-52.846
-51.105
-49.443
-47.857
-46.345
-44.902
-43.524
-42.205
-40.941
-39.725
-38.549
-37.408
-36.292
-35.195
-34.109
-33.024
-31.933
-30.828
-29.702
-28.547
-27.357
-26.124
-24.843
-23.507
-22.111
-20.651
-19.121
-17.517
-15.837
-14.079
-12.242
-10.326
-8.333
-6.265
-4.128
-1.927
0.33
2.634
4.973
7.334
9.705
12.069
14.413
16.721
18.978
21.17
23.281
25.298
27.204
28.986
30.628
32.116
33.439
34.589
35.561
36.353
36.964
37.393
37.631
37.668
37.499
37.114
36.507
35.676
34.623
33.362
31.928
30.355
28.677
26.919
25.09
23.206
21.296
19.393
17.551
15.829
14.266
12.934
11.93
11.275
10.935
10.79
10.594
10.149
9.349
8.032
6.01
3.271
-0.059
-3.648
-6.931
-9.53
-11.328
-12.135
-11.662
-9.844
-6.824
-3.088
0.491
3.345
5.311
6.126
5.266
2.252
-3.19
-10.83
-19.939
-29.92
-40.352
-50.763
-59.449
-63.222
-59.237
-44.99
-20.083
12.549
51.528
97.726
154.058
227.786
323.866
441.462
576.357
718.223
855.169
978.108
1077.404
1145.482
1175.679
1160.448
1095.969
982.463
826.75
644.407
456.398
285.334
149.894
59.265
11.899
-0.087
11.697
35.496
63.426
86.945
99.645
100.93
91.692
77.928
67.353
61.547
59.8
59.094
54.638
45.695
33.986
21.289
10.204
2.376
-2.189
-3.729
-2.658
0.272
4.427
9.409
14.587
19.155
22.68
24.886
25.622
25.073
23.46
20.948
17.839
14.488
11.137
7.984
5.158
2.689
0.582
-1.201
-2.723
-4.03
-5.135
-6.002
-6.573
-6.82
-6.744
-6.36
-5.703
-4.795
-3.665
-2.366
-0.937
0.59
2.223
4.017
6.027
8.269
10.743
13.414
16.226
19.158
22.191
25.297
28.467
31.69
34.96
38.299
41.724
45.242
48.844
52.503
56.188
59.894
63.624
67.392
71.225
75.136
79.138
83.251
87.486
91.845
96.328
100.918
105.594
110.343
115.15
120.007
124.902
129.821
134.743
139.648
144.513
149.313
154.023
158.615
163.062
167.341
171.428
175.305
178.954
182.357
185.497
188.356
190.917
193.165
195.084
196.659
197.877
198.726
199.197
199.282
198.977
198.277
197.18
195.688
193.802
191.527
188.869
185.835
182.435
178.682
174.588
170.169
165.441
160.423
155.132
149.589
143.815
137.832
131.662
125.327
118.851
112.257
105.566
98.804
91.992
85.153
78.309
71.484
64.698
57.973
51.328
44.783
38.356
32.065
25.925
19.953
14.161
8.563
3.171
-2.006
-6.956
-11.673
-16.15
-20.379
-24.358
-28.082
-31.548
-34.756
-37.704
-40.393
-42.825
-45.001
-46.923
-48.596
-50.024
-51.212
-52.164
-52.887
-53.387
-53.67
-53.744
-53.617
-53.295
-52.788
-52.103
-51.248
-50.233
-49.067
-47.759
-46.319
-44.756
-43.08
-41.301
-39.43
-37.477
-35.452
-33.368
-31.233
-29.061
-26.863
-24.649
-22.431
-20.222
-18.032
-15.875
-13.761
-11.702
-9.71
-7.798
-5.975
-4.255
-2.649
-1.167
0.179
1.378
2.42
3.296
3.994
4.507
4.827
4.945
4.854
4.548
4.022
3.271
2.291
1.08
-0.363
-2.04
-3.95
-6.091
-8.462
-11.057
-13.874
-16.905
-20.145
-23.587
-27.22
-31.037
-35.027
-39.18
-43.482
-47.922
-52.487
-57.163
-61.937
-66.792
-71.716
-76.691
-81.703
-86.737
-91.777
-96.807
-101.813
-106.779
-111.69
-116.533
-121.294
-125.959
-130.515
-134.95
-139.253
-143.413
-147.42
-151.263
-154.934
-158.426
-161.731
-164.843
-167.756
-170.465
-172.966
-175.255
-177.33
-179.188
-180.828
-182.247
-183.447
-184.427
-185.189
-185.732
-186.061
-186.175
-186.079
-185.776
-185.268
-184.56
-183.656
-182.56
-181.276
-179.81
-178.168
-176.355
-174.379
-172.247
-169.965
-167.542
-164.987
-162.308
-159.515
-156.617
-153.625
-150.55
-147.403
-144.196
-140.945
-137.663
-134.367
-131.074
-127.801
-124.567
-121.39
-118.288
-115.279
-112.38
-109.607
-106.975
-104.502
-102.204
-100.1
-98.204
-96.533
-95.102
-93.922
-93.008
-92.368
-92.005
-91.921
-92.116
-92.596
-93.373
-94.455
-95.85
-97.558
-99.58
-101.906
-104.525
-107.412
-110.524
-113.817
-117.24
-120.746
-124.301
-127.863
-131.383
-134.803
-138.05
-141.057
-143.77
-146.135
-148.105
-149.659
-150.801
-151.586
-152.113
-152.467
-152.732
-153.011
-153.406
-154.033
-154.986
-156.309
-158.09
-160.491
-163.652
-167.634
-172.336
-177.518
-183.011
-188.586
-193.762
-197.891
-200.277
-201.014
-201.168
-201.504
-202.139
-201.339
-196.384
-187.272
-176.178
-167.403
-165.66
-170.667
-179.02
-186.048
-185.743
-174.978
-151.111
-109.517
-47.448
37.888
146.939
274.726
416.234
563.28
705.127
831.692
928.82
984.157
989.553
939.462
836.72
689.545
510.418
318.813
135.506
-20.589
-135.046
-204.414
-234.483
-234.6
-216.478
-189.124
-157.416
-127.507
-103.864
-87.99
-80.585
-77.742
-74.326
-69.093
-62.349
-56.46
-54.839
-57.73
-63.753
-71.313
-78.183
-83.216
-86.158
-86.914
-85.881
-83.591
-80.487
-77.018
-73.648
-70.87
-69.202
-68.933
-70.047
-72.373
-75.636
-79.549
-83.853
-88.222
-92.27
-95.745
-98.532
-100.588
-101.951
-102.648
-102.68
-102.088
-100.945
-99.309
-97.236
-94.77
-91.936
-88.785
-85.388
-81.812
-78.131
-74.392
-70.621
-66.837
-63.05
-59.261
-55.469
-51.665
-47.832
-43.957
-40.034
-36.053
-32.01
-27.896
-23.696
-19.4
-14.996
-10.475
-5.834
-1.072
3.812
8.815
13.933
19.158
24.484
29.901
35.405
40.988
46.643
52.361
58.133
63.947
69.793
75.656
81.522
87.375
93.198
98.974
104.683
110.308
115.828
121.224
126.475
131.561
136.462
141.156
145.625
149.848
153.805
157.478
160.85
163.903
166.622
168.993
171.004
172.642
173.9
174.768
175.241
175.314
174.986
174.255
173.123
171.593
169.671
167.365
164.683
161.639
158.245
154.517
150.473
146.131
141.513
136.639
131.534
126.222
120.727
115.077
109.297
103.416
97.461
91.459
85.439
79.428
73.452
67.539
61.714
56.001
50.424
45.006
39.768
34.73
29.909
25.324
20.988
16.915
13.116
9.602
6.38
3.455
0.832
-1.487
-3.503
-5.218
-6.635
-7.76
-8.6
-9.164
-9.462
-9.507
-9.312
-8.89
-8.257
-7.43
-6.426
-5.262
-3.957
-2.53
-0.999
0.617
2.299
4.029
5.787
7.558
9.323
11.065
12.77
14.422
16.008
17.513
18.926
20.236
21.433
22.508
23.453
24.261
24.928
25.449
25.82
26.04
26.107
26.022
25.784
25.395
24.858
24.177
23.354
22.395
21.306
20.092
18.76
17.316
15.767
14.121
12.384
10.563
8.667
6.701
4.673
2.589
0.457
-1.717
-3.927
-6.166
-8.427
-10.705
-12.993
-15.285
-17.576
-19.86
-22.131
-24.384
-26.614
-28.814
-30.979
-33.104
-35.182
-37.208
-39.176
-41.082
-42.92
-44.685
-46.372
-47.977
-49.494
-50.919
-52.246
-53.472
-54.591
-55.597
-56.487
-57.255
-57.898
-58.41
-58.789
-59.033
-59.14
-59.109
-58.941
-58.636
-58.197
-57.624
-56.921
-56.089
-55.13
-54.047
-52.843
-51.521
-50.089
-48.553
-46.921
-45.202
-43.403
-41.531
-39.595
-37.601
-35.555
-33.461
-31.324
-29.155
-26.974
-24.8
-22.649
-20.534
-18.464
-16.442
-14.469
-12.538
-10.626
-8.71
-6.766
-4.775
-2.729
-0.618
1.574
3.872
6.315
8.942
11.774
14.83
18.109
21.589
25.24
28.996
32.751
36.417
39.899
43.101
45.954
48.384
50.312
51.684
52.404
52.288
51.225
49.195
46.262
42.668
38.652
34.39
30.238
26.738
