Name
Date of Birth,"Mar 27, 1959"
Recorded Date,2020-09-13 15:57:09 -0500
Classification,Sinus Rhythm
Symptoms,
Software Version,1.90
Device,"Watch4,2"
Sample Rate,510.227 hertz


Lead,Lead I
Unit,µV

147.269
210.702
279.677
352.449
430.146
516.858
615.466
723.599
833.115
932.243
1007.166
1044.255
1033.534
969.049
851.332
690.932
506.564
322.004
161.24
42.001
-28.776
-55.206
-47.672
-19.55
16.762
53.079
81.547
96.397
96.9
84.838
67
51.494
41.372
37.052
35.864
33.995
31.199
28.338
26.379
26.706
29.111
32.673
36.815
40.699
43.652
45.537
46.333
46.161
45.312
43.972
42.245
40.269
38.189
36.123
34.156
32.319
30.607
29.022
27.603
26.403
25.445
24.719
24.19
23.805
23.526
23.329
23.182
23.056
22.938
22.815
22.709
22.67
22.737
22.949
23.332
23.887
24.63
25.585
26.771
28.206
29.899
31.849
34.056
36.53
39.26
42.225
45.383
48.67
52.028
55.409
58.765
62.056
65.243
68.288
71.167
73.867
76.377
78.694
80.815
82.725
84.429
85.941
87.285
88.496
89.61
90.657
91.677
92.72
93.832
95.052
96.415
97.935
99.617
101.456
103.437
105.534
107.701
109.872
111.973
113.914
115.609
116.969
117.894
118.275
118.014
117.009
115.162
112.393
108.621
103.789
97.88
90.868
82.755
73.613
63.538
52.661
41.193
29.333
17.244
5.253
-6.22
-17.002
-27.008
-36.028
-44.22
-51.259
-55.983
-58.844
-61.061
-64.274
-72.589
-87.178
-105.031
-122.474
-131.714
-126.908
-110.053
-85.35
-61.876
-49.77
-51.617
-66.781
-90.468
-115.026
-135.644
-148.79
-153.574
-151.156
-144.274
-137.635
-134.27
-136.354
-143.669
-152.896
-161.899
-169.141
-174.016
-177.661
-180.55
-182.608
-183.915
-184.312
-183.874
-182.969
-181.793
-180.427
-178.971
-177.482
-175.998
-174.566
-173.202
-171.917
-170.764
-169.814
-169.131
-168.757
-168.702
-168.951
-169.471
-170.21
-171.124
-172.175
-173.327
-174.561
-175.866
-177.232
-178.663
-180.155
-181.693
-183.262
-184.849
-186.437
-188.025
-189.617
-191.221
-192.856
-194.538
-196.277
-198.081
-199.951
-201.88
-203.864
-205.893
-207.955
-210.046
-212.161
-214.294
-216.446
-218.614
-220.793
-222.977
-225.158
-227.322
-229.46
-231.566
-233.635
-235.666
-237.658
-239.605
-241.505
-243.354
-245.143
-246.861
-248.487
-249.993
-251.359
-252.573
-253.629
-254.526
-255.267
-255.848
-256.277
-256.557
-256.691
-256.685
-256.538
-256.245
-255.819
-255.282
-254.672
-254.048
-253.449
-252.903
-252.433
-252.046
-251.738
-251.497
-251.29
-251.074
-250.816
-250.491
-250.083
-249.579
-248.941
-248.115
-247.032
-245.592
-243.711
-241.312
-238.314
-234.667
-230.352
-225.374
-219.779
-213.635
-206.996
-199.91
-192.426
-184.594
-176.487
-168.198
-159.832
-151.527
-143.431
-135.701
-128.502
-121.962
-116.168
-111.172
-106.974
-103.542
-100.85
-98.863
-97.531
-96.804
-96.61
-96.868
-97.484
-98.33
-99.257
-100.094
-100.663
-100.825
-100.474
-99.551
-98.058
-96.042
-93.563
-90.697
-87.515
-84.097
-80.565
-77.041
-73.649
-70.524
-67.769
-65.532
-64.055
-63.45
-63.671
-64.533
-65.605
-66.446
-66.81
-66.328
-64.448
-60.896
-55.722
-49.312
-42.63
-36.592
-31.662
-28.368
-27.486
-28.807
-30.673
-30.861
-26.321
-15.581
-0.354
17.61
38.282
64.545
102.317
158.256
235.746
333.299
446.99
569.071
689.161
796.306
875.974
913.031
896.346
821.573
694.667
531.705
355.259
188.11
49.366
-48.46
-102.074
-114.853
-96.047
-58.944
-16.642
19.067
41.008
48.549
45.227
37.554
31.417
28.089
27.55
29.984
35.906
50.334
74.468
97.084
117.286
159.338
210.21
188.55
80.594
-1.846
-2.858
12.026
4.812
3.69
20.389
39.034
51.151
57.172
57.728
55.578
53.703
53.018
53.38
54.073
54.989
56.532
59.012
62.593
67.056
72.075
77.481
83.147
88.915
94.665
100.303
105.774
111.09
116.318
121.535
126.782
132.207
138.084
144.579
151.71
159.445
167.462
175.78
185.323
196.439
208.18
218.1
221.296
213.928
197.773
178.511
167.493
173.805
190.632
223.587
283.655
324.513
300.756
253.725
229.71
214.593
196.158
184.881
182.44
185.619
192.535
199.062
202.716
201.289
194.589
185.979
177.624
171.027
166.862
163.962
161.758
160.277
159.402
159.23
159.673
160.405
161.261
162.178
163.053
163.748
164.108
164.002
163.329
162.017
159.985
157.127
153.375
148.713
143.163
136.772
129.596
121.66
112.974
103.578
93.537
82.961
71.987
60.731
49.303
37.823
26.427
15.26
4.451
-5.922
-15.813
-25.187
-34.008
-42.22
-49.75
-56.559
-62.636
-68.002
-72.7
-76.762
-80.222
-83.139
-85.598
-87.698
-89.523
-91.125
-92.529
-93.761
-94.858
-95.869
-96.853
-97.845
-98.862
-99.91
-100.987
-102.095
-103.231
-104.373
-105.478
-106.498
-107.396
-108.159
-108.787
-109.28
-109.631
-109.829
-109.864
-109.737
-109.457
-109.03
-108.463
-107.76
-106.932
-106.001
-104.994
-103.942
-102.869
-101.786
-100.704
-99.628
-98.566
-97.526
-96.512
-95.52
-94.552
-93.607
-92.69
-91.803
-90.946
-90.115
-89.306
-88.514
-87.734
-86.964
-86.203
-85.448
-84.699
-83.954
-83.215
-82.483
-81.759
-81.044
-80.336
-79.634
-78.939
-78.25
-77.568
-76.893
-76.226
-75.569
-74.923
-74.291
-73.675
-73.076
-72.498
-71.942
-71.411
-70.906
-70.43
-69.986
-69.575
-69.199
-68.86
-68.559
-68.295
-68.07
-67.883
-67.731
-67.611
-67.523
-67.463
-67.428
-67.415
-67.421
-67.443
-67.478
-67.523
-67.573
-67.624
-67.668
-67.697
-67.706
-67.685
-67.625
-67.517
-67.352
-67.121
-66.821
-66.444
-65.984
-65.43
-64.773
-64.004
-63.122
-62.124
-61.01
-59.782
-58.444
-57.01
-55.499
-53.93
-52.316
-50.665
-48.974
-47.249
-45.493
-43.713
-41.916
-40.1
-38.257
-36.388
-34.495
-32.58
-30.636
-28.641
-26.559
-24.365
-22.05
-19.625
-17.113
-14.534
-11.916
-9.291
-6.7
-4.201
-1.85
0.313
2.252
3.933
5.309
6.317
6.878
6.935
6.46
5.454
3.943
1.958
-0.455
-3.235
-6.3
-9.543
-12.869
-16.202
-19.465
-22.586
-25.488
-28.074
-30.249
-31.945
-33.127
-33.816
-34.075
-33.973
-33.594
-33.021
-32.363
-31.782
-31.429
-31.429
-31.904
-32.908
-34.534
-36.983
-40.33
-44.485
-49.235
-54.104
-58.602
-62.451
-65.244
-66.368
-65.528
-62.761
-58.417
-53.469
-48.898
-45.235
-43.073
-43.338
-45.715
-48.271
-49.012
-45.171
-35.633
-22.912
-7.902
11.654
40.193
85.519
153.303
241.819
345.612
456.474
565.305
666.509
753.619
818.339
850.573
838.836
777.774
668.52
521.312
355.78
192.087
50.07
-55.491
-120.601
-147.499
-143.667
-120.8
-88.662
-56.33
-33.221
-23.062
-26.043
-38.424
-50.975
-58.713
-60.858
-58.824
-57.813
-59.714
-62.991
-66.262
-67.43
-65.832
-62.451
-58.023
-53.166
-48.535
-44.598
-41.605
-39.677
-38.716
-38.456
-38.727
-39.428
-40.417
-41.55
-42.709
-43.793
-44.744
-45.545
-46.156
-46.534
-46.663
-46.542
-46.192
-45.65
-44.952
-44.128
-43.215
-42.25
-41.248
-40.214
-39.135
-37.985
-36.75
-35.424
-33.993
-32.437
-30.733
-28.851
-26.768
-24.467
-21.93
-19.136
-16.069
-12.713
-9.074
-5.172
-1.04
3.278
7.742
12.319
16.972
21.654
26.328
30.964
35.543
40.06
44.503
48.856
53.105
57.238
61.256
65.175
69.014
72.8
76.563
80.341
84.175
88.121
92.214
96.469
100.889
105.459
110.168
115.013
119.978
125.035
130.15
135.274
140.352
145.335
150.146
154.688
158.861
162.543
165.639
168.085
169.823
170.814
171.021
170.4
168.923
166.592
163.411
159.395
154.571
148.954
142.596
135.593
128.038
120.049
111.735
103.173
94.446
85.64
76.835
68.127
59.607
51.336
43.374
35.782
28.612
21.932
15.78
10.154
5.049
0.446
-3.679
-7.333
-10.531
-13.308
-15.702
-17.764
-19.557
-21.118
-22.486
-23.707
-24.818
-25.873
-26.915
-27.957
-29.008
-30.076
-31.162
-32.276
-33.421
-34.584
-35.747
-36.887
-37.967
-38.969
-39.878
-40.678
-41.355
-41.894
-42.281
-42.516
-42.608
-42.562
-42.385
-42.083
-41.661
-41.134
-40.521
-39.84
-39.117
-38.367
-37.603
-36.837
-36.08
-35.338
-34.619
-33.924
-33.25
-32.597
-31.963
-31.349
-30.755
-30.179
-29.615
-29.062
-28.515
-27.971
-27.429
-26.886
-26.342
-25.797
-25.25
-24.703
-24.159
-23.62
-23.086
-22.559
-22.041
-21.533
-21.037
-20.555
-20.088
-19.639
-19.211
-18.804
-18.422
-18.067
-17.742
-17.448
-17.189
-16.966
-16.783
-16.64
-16.542
-16.49
-16.485
-16.531
-16.627
-16.776
-16.979
-17.235
-17.545
-17.909
-18.326
-18.797
-19.319
-19.891
-20.511
-21.176
-21.883
-22.627
-23.404
-24.207
-25.03
-25.869
-26.717
-27.567
-28.416
-29.256
-30.082
-30.891
-31.677
-32.434
-33.158
-33.841
-34.476
-35.057
-35.577
-36.031
-36.411
-36.709
-36.921
-37.044
-37.075
-37.011
-36.845
-36.571
-36.185
-35.689
-35.087
-34.384
-33.588
-32.709
-31.763
-30.776
-29.769
-28.766
-27.783
-26.825
-25.9
-25.017
-24.185
-23.416
-22.711
-22.059
-21.453
-20.89
-20.366
-19.879
-19.41
-18.922
-18.387
-17.781
-17.098
-16.352
-15.556
-14.723
-13.878
-13.046
-12.275
-11.632
-11.167
-10.912
-10.895
-11.122
-11.621
-12.442
-13.615
-15.16
-17.075
-19.33
-21.894
-24.737
-27.802
-31.024
-34.313
-37.552
-40.66
-43.582
-46.288
-48.808
-51.159
-53.345
-55.388
-57.295
-59.098
-60.885
-62.736
-64.729
-66.959
-69.477
-72.387
-75.927
-80.18
-85.054
-90.312
-95.423
-99.875
-103.396
-105.601
-105.906
-104.052
-100.152
-94.697
-88.873
-83.877
-80.366
-78.977
-80.648
-85.189
-90.727
-95.039
-94.929
-88.42
-77.282
-62.577
-42.421
-13.17
32.214
100.039
189.405
295.778
411.918
528.274
638.268
734.155
805.998
842.424
830.926
765.69
648.013
489.342
311.539
136.994
-12.333
-120.61
-184.467
-207.422
-198.859
-172.427
-138.823
-107.31
-86.656
-79.208
-83.989
-96.723
-108.427
-114.923
-116.245
-114.137
-113.498
-115.763
-119.036
-121.809
-122.19
-119.707
-115.438
-110.201
-104.651
-99.493
-95.267
-92.262
-90.61
-90.217
-90.817
-92.235
-94.354
-96.998
-99.968
-103.087
-106.186
-109.143
-111.873
-114.266
-116.2
-117.597
-118.401
-118.596
-118.193
-117.209
-115.661
-113.583
-111.019
-108.013
-104.614
-100.879
-96.867
-92.646
-88.288
-83.854
-79.398
-74.955
-70.552
-66.204
-61.926
-57.728
-53.623
-49.623
-45.737
-41.974
-38.336
-34.813
-31.38
-28.006
-24.65
-21.287
-17.909
-14.507
-11.075
-7.602
-4.069
-0.458
3.255
7.096
11.101
15.302
19.725
24.378
29.249
34.319
39.558
44.961
50.544
56.312
62.265
68.388
74.654
81.034
87.496
93.994
100.468
106.847
113.059
119.047
124.768
130.182
135.25
139.899
144.04
147.593
150.49
152.681
154.13
154.799
154.654
153.675
151.864
149.244
145.851
141.711
136.85
131.293
125.073
118.262
110.951
103.228
95.179
86.875
78.388
69.802
61.205
52.687
44.317
36.143
28.203
20.539
13.198
6.23
-0.316
-6.424
-12.097
-17.335
-22.148
-26.537
-30.511
-34.101
-37.354
-40.323
-43.047
-45.551
-47.85
-49.962
-51.914
-53.739
-55.474
-57.135
-58.731
-60.268
-61.752
-63.19
-64.582
-65.911
-67.146
-68.247
-69.191
-69.966
-70.567
-70.991
-71.233
-71.283
-71.134
-70.792
-70.263
-69.553
-68.671
-67.621
-66.415
-65.075
-63.63
-62.113
-60.548
-58.954
-57.346
-55.737
-54.142
-52.572
-51.036
-49.539
-48.085
-46.681
-45.331
-44.045
-42.826
-41.676
-40.593
-39.577
-38.627
-37.744
-36.927
-36.177
-35.494
-34.878
-34.332
-33.856
-33.451
-33.117
-32.852
-32.653
-32.518
-32.444
-32.429
-32.468
-32.558
-32.696
-32.878
-33.103
-33.367
-33.667
-34
-34.362
-34.752
-35.166
-35.602
-36.057
-36.528
-37.015
-37.514
-38.023
-38.542
-39.067
-39.599
-40.134
-40.673
-41.214
-41.755
-42.296
-42.837
-43.377
-43.916
-44.454
-44.99
-45.525
-46.06
-46.594
-47.126
-47.655
-48.181
-48.702
-49.217
-49.725
-50.225
-50.714
-51.193
-51.66
-52.115
-52.557
-52.984
-53.392
-53.778
-54.141
-54.474
-54.774
-55.036
-55.252
-55.42
-55.536
-55.593
-55.586
-55.508
-55.348
-55.1
-54.764
-54.336
-53.818
-53.214
-52.529
-51.776
-50.972
-50.13
-49.263
-48.382
-47.492
-46.604
-45.728
-44.872
-44.046
-43.254
-42.488
-41.741
-40.997
-40.233
-39.422
-38.531
-37.514
-36.345
-35.005
-33.479
-31.771
-29.878
-27.806
-25.57
-23.19
-20.694
-18.131
-15.557
-13.039
-10.668
-8.532
-6.719
-5.333
-4.442
-4.093
-4.316
-5.115
-6.485
-8.413
-10.867
-13.8
-17.159
-20.866
-24.828
-28.938
-33.06
-37.063
-40.824
-44.218
-47.165
-49.638
-51.645
-53.227
-54.439
-55.325
-55.957
-56.444
-56.899
-57.447
-58.215
-59.299
-60.849
-63.104
-66.203
-70.13
-74.713
-79.525
-84.097
-88.106
-91.132
-92.557
-92.01
-89.525
-85.516
-81.012
-77.171
-74.703
-74.285
-76.932
-82.548
-89.325
-94.985
-96.232
-91.18
-81.309
-67.65
-49.215
-22.222
20.013
83.901
171.752
280.623
404.683
534.73
659.657
769.009
850.678
892.725
886.193
825.522
712.203
556.332
375.675
193.832
33.654
-87.609
-161.842
-192.67
-189.077
-162.008
-123.483
-82.019
-46.58
-25.745
-21.747
-32.885
-51.632
-67.848
-77.133
-78.921
-76.394
-74.479
-74.1
-74.405
-74.201
-71.793
-67.284
-61.712
-55.752
-50.271
-45.942
-42.877
-41.093
-40.484
-40.743
-41.655
-43.076
-44.835
-46.748
-48.654
-50.415
-51.91
-53.076
-53.851
-54.162
-53.963
-53.241
-52.021
-50.361
-48.359
-46.099
-43.66
-41.134
-38.59
-36.085
-33.686
-31.435
-29.359
-27.479
-25.789
-24.271
-22.919
-21.702
-20.581
-19.511
-18.424
-17.262
-15.986
-14.535
-12.867
-10.947
-8.741
-6.237
-3.449
-0.39
2.908
6.403
10.067
13.858
17.74
21.691
25.681
29.693
33.724
37.742
41.72
45.638
49.471
53.223
56.909
60.544
64.157
67.788
71.471
75.252
79.166
83.221
87.418
91.742
96.165
100.679
105.268
109.91
114.582
119.238
123.822
128.277
132.527
136.485
140.061
143.148
145.651
147.499
148.633
149.022
148.652
147.507
145.583
142.886
139.427
135.23
130.335
124.789
118.654
112.005
104.929
97.537
89.942
82.257
74.575
66.965
59.479
52.164
45.062
38.21
31.64
25.38
19.45
13.869
8.657
3.824
-0.638
-4.757
-8.579
-12.163
-15.549
-18.759
-21.806
-24.697
-27.44
-30.042
-32.503
-34.824
-37.009
-39.069
-41.026
-42.903
-44.702
-46.416
-48.022
-49.484
-50.781
-51.902
-52.838
-53.589
-54.156
-54.541
-54.758
-54.823
-54.747
-54.535
-54.184
-53.69
-53.061
-52.31
-51.46
-50.537
-49.563
-48.56
-47.549
-46.55
-45.578
-44.647
-43.766
-42.939
-42.176
-41.485
-40.879
-40.369
-39.963
-39.668
-39.487
-39.422
-39.475
-39.649
-39.943
-40.359
-40.896
-41.554
-42.331
-43.225
-44.23
-45.344
-46.562
-47.882
-49.3
-50.811
-52.415
-54.106
-55.877
-57.714
-59.587
-61.464
-63.313
-65.1
-66.795
-68.37
-69.791
-71.025
-72.039
-72.797
-73.269
-73.423
-73.218
-72.627
-71.635
-70.261
-68.574
-66.657
-64.599
-62.485
-60.378
-58.358
-56.53
-54.98
-53.796
-53.07
-52.841
-53.214
-54.39
-56.414
-59.229
-62.613
-66.022
-68.945
-71.037
-71.76
-70.523
-67.146
-61.561
-54.311
-46.84
-40.287
-35.59
-33.437
-33.455
-34.635
-35.706
-35.883
-35.357
-34.098
-31.635
-24.029
-3.501
35.585
98.065
184.687
289.542
408.372
534.891
659.371
771.499
855.648
895.322
879.204
803.976
677.271
515.562
341.277
176.602
38.456
-61.386
-120.216
-142.248
-133.736
-105.787
-69.461
-34.405
-11.361
-3.985
-10.552
-25.751
-39.327
-46.417
-47.337
-44.368
-42.943
-44.753
-47.896
-50.773
-51.368
-49.161
-45.214
-40.304
-35.042
-30.066
-25.835
-22.591
-20.442
-19.292
-18.887
-19.07
-19.744
-20.756
-21.945
-23.183
-24.364
-25.423
-26.335
-27.039
-27.468
-27.601
-27.432
-26.974
-26.258
-25.31
-24.154
-22.827
-21.367
-19.81
-18.172
-16.457
-14.66
-12.782
-10.83
-8.828
-6.79
-4.712
-2.593
-0.437
1.755
3.971
6.207
8.467
10.753
13.067
15.394
17.707
19.983
22.213
24.409
26.612
28.853
31.159
33.563
36.106
38.829
41.787
45.021
48.558
52.427
56.654
61.281
66.365
71.944
78.021
84.568
91.514
98.791
106.342
114.101
121.991
129.933
137.834
145.607
153.192
160.506
167.455
173.921
179.752
184.816
189.023
192.317
194.68
196.101
196.548
196.005
194.47
191.939
188.427
183.944
178.479
172.058
164.742
156.624
147.851
138.565
128.878
118.895
108.696
98.36
87.99
77.681
67.516
57.595
48.008
38.847
30.225
22.221
14.875
8.204
2.18
-3.237
-8.074
-12.362
-16.139
-19.433
-22.295
-24.777
-26.928
-28.82
-30.521
-32.098
-33.633
-35.187
-36.799
-38.497
-40.287
-42.162
-44.117
-46.143
-48.22
-50.337
-52.475
-54.605
-56.704
-58.731
-60.651
-62.436
-64.052
-65.48
-66.706
-67.722
-68.528
-69.137
-69.558
-69.804
-69.893
-69.836
-69.65
-69.355
-68.971
-68.524
-68.037
-67.524
-67.002
-66.483
-65.974
-65.485
-65.018
-64.572
-64.148
-63.746
-63.364
-63.006
-62.671
-62.358
-62.064
-61.787
-61.525
-61.278
-61.046
-60.828
-60.624
-60.435
-60.262
-60.107
-59.971
-59.855
-59.758
-59.678
-59.615
-59.568
-59.535
-59.514
-59.505
-59.506
-59.515
-59.532
-59.556
-59.585
-59.618
-59.655
-59.693
-59.731
-59.77
-59.807
-59.841
-59.872
-59.899
-59.921
-59.936
-59.943
-59.941
-59.928
-59.902
-59.863
-59.809
-59.738
-59.649
-59.54
-59.412
-59.263
-59.092
-58.899
-58.684
-58.446
-58.186
-57.902
-57.596
-57.268
-56.917
-56.543
-56.148
-55.732
-55.294
-54.836
-54.357
-53.859
-53.342
-52.807
-52.254
-51.684
-51.099
-50.499
-49.886
-49.261
-48.625
-47.981
-47.329
-46.671
-46.009
-45.344
-44.677
-44.01
-43.345
-42.681
-42.021
-41.366
-40.716
-40.072
-39.436
-38.808
-38.189
-37.579
-36.98
-36.393
-35.818
-35.256
-34.709
-34.178
-33.663
-33.167
-32.689
-32.232
-31.795
-31.381
-30.989
-30.62
-30.276
-29.957
-29.662
-29.394
-29.152
-28.937
-28.749
-28.589
-28.458
-28.354
-28.28
-28.235
-28.22
-28.235
-28.28
-28.355
-28.46
-28.594
-28.759
-28.952
-29.173
-29.422
-29.695
-29.993
-30.313
-30.654
-31.012
-31.387
-31.776
-32.177
-32.587
-33.004
-33.426
-33.85
-34.273
-34.694
-35.108
-35.513
-35.907
-36.287
-36.649
-36.991
-37.309
-37.601
-37.863
-38.092
-38.284
-38.436
-38.545
-38.608
-38.621
-38.582
-38.487
-38.335
-38.124
-37.851
-37.515
-37.113
-36.646
-36.111
-35.507
-34.833
-34.088
-33.272
-32.383
-31.422
-30.389
-29.284
-28.107
-26.859
-25.541
-24.154
-22.701
-21.183
-19.603
-17.966
-16.276
-14.537
-12.755
-10.938
-9.093
-7.227
-5.349
-3.469
-1.594
0.264
2.095
3.888
5.634
7.322
8.94
10.478
11.925
13.271
14.506
15.619
16.6
17.438
18.121
18.643
18.996
19.174
19.174
18.99
18.616
18.049
17.289
16.335
15.188
13.849
12.32
10.613
8.746
6.747
4.642
2.458
0.218
-2.054
-4.33
-6.584
-8.781
-10.894
-12.897
-14.759
-16.453
-17.955
-19.247
-20.325
-21.224
-22.004
-22.73
-23.477
-24.298
-25.221
-26.298
-27.606
-29.214
-31.189
-33.599
-36.456
-39.821
-43.864
-48.581
-53.822
-59.305
-64.467
-68.799
-72.029
-73.695
-73.173
-70.381
-65.564
-59.298
-52.914
-47.498
-43.606
-42.253
-44.661
-50.126
-56.359
-60.943
-60.2
-53.097
-42.941
-30.179
-12.794
12.587
55.151
121.474
210.759
320.503
442.053
562.816
672.85
760.314
812.76
819.701
772.18
668.341
515.494
330.932
140.318
-31.769
-164.735
-246.67
-279.734
-271.455
-233.836
-182.897
-130.005
-86.587
-62.12
-57.174
-68.568
-87.474
-102.789
-110.373
-110.097
-105.626
-102.471
-101.64
-102.131
-102.58
-101.042
-97.513
-93.039
-88.236
-83.899
-80.644
-78.513
-77.497
-77.511
-78.268
-79.576
-81.341
-83.436
-85.71
-88.046
-90.31
-92.384
-94.205
-95.708
-96.845
-97.615
-98.042
-98.161
-98.021
-97.669
-97.134
-96.442
-95.604
-94.603
-93.434
-92.104
-90.629
-89.046
-87.392
-85.683
-83.924
-82.098
-80.168
-78.102
-75.869
-73.431
-70.771
-67.88
-64.762
-61.453
-57.983
-54.368
-50.619
-46.733
-42.699
-38.52
-34.199
-29.74
-25.16
-20.478
-15.715
-10.904
-6.074
-1.237
3.602
8.452
13.334
18.252
23.212
28.218
33.258
38.327
43.417
48.509
53.59
58.659
63.716
68.783
73.882
79.014
84.17
89.328
94.447
99.487
104.4
109.123
113.606
117.804
121.675
125.192
128.329
131.045
133.294
135.02
136.155
136.657
136.503
135.673
134.179
132.044
129.304
126.024
122.263
118.066
113.481
108.538
103.267
97.716
91.932
85.97
79.901
73.777
67.645
61.55
55.518
49.564
43.694
37.891
32.14
26.444
20.806
15.241
9.769
4.399
-0.855
-5.981
-10.973
-15.825
-20.528
-25.079
-29.467
-33.675
-37.684
-41.465
-44.991
-48.247
-51.221
-53.905
-56.299
-58.4
-60.213
-61.745
-63.003
-63.994
-64.724
-65.202
-65.434
-65.433
-65.212
-64.788
-64.177
-63.395
-62.458
-61.381
-60.181
-58.87
-57.463
-55.972
-54.407
-52.783
-51.111
-49.405
-47.678
-45.941
-44.206
-42.484
-40.787
-39.123
-37.502
-35.93
-34.415
-32.963
-31.578
-30.265
-29.029
-27.871
-26.794
-25.8
-24.89
-24.064
-23.322
-22.663
-22.086
-21.589
-21.17
-20.826
-20.554
-20.352
-20.217
-20.146
-20.136
-20.185
-20.288
-20.443
-20.647
-20.895
-21.186
-21.515
-21.879
-22.276
-22.701
-23.154
-23.63
-24.129
-24.647
-25.184
-25.737
-26.306
-26.887
-27.48
-28.083
-28.695
-29.313
-29.937
-30.566
-31.196
-31.829
-32.46
-33.09
-33.715
-34.334
-34.944
-35.541
-36.124
-36.689
-37.232
-37.749
-38.238
-38.694
-39.114
-39.494
-39.83
-40.117
-40.353
-40.531
-40.648
-40.699
-40.679
-40.585
-40.412
-40.157
-39.817
-39.387
-38.867
-38.253
-37.543
-36.737
-35.834
-34.833
-33.735
-32.541
-31.255
-29.878
-28.417
-26.875
-25.259
-23.578
-21.839
-20.052
-18.227
-16.375
-14.507
-12.637
-10.775
-8.936
-7.129
-5.37
-3.67
-2.043
-0.501
0.942
2.273
3.48
4.547
5.465
6.222
6.814
7.234
7.479
7.543
7.418
7.098
6.58
5.863
4.944
3.825
2.512
1.02
-0.618
-2.369
-4.199
-6.078
-7.982
-9.884
-11.754
-13.558
-15.257
-16.813
-18.192
-19.365
-20.297
-20.962
-21.347
-21.472
-21.414
-21.253
-21.075
-20.95
-20.906
-20.997
-21.313
-21.934
-22.949
-24.442
-26.424
-28.957
-32.217
-36.199
-40.763
-45.626
-50.187
-53.914
-56.526
-57.562
-56.45
-53.154
-47.913
-41.289
-34.596
-28.837
-24.509
-22.544
-23.904
-27.743
-31.868
-33.882
-30.228
-19.864
-5.536
12.523
35.745
66.542
112.609
179.323
266.126
371.245
486.525
599.545
699.619
774.609
813.476
808.802
755.866
655.584
515.926
352.244
185.452
36.288
-78.147
-149.119
-179.206
-176.595
-152.91
-120.76
-88.314
-62.77
-49.542
-48.872
-58.958
-74.037
-86.897
-94.785
-97.264
-96.588
-96.257
-96.584
-96.801
-96.037
-92.997
-87.852
-81.527
-74.619
-67.924
-62.117
-57.36
-53.708
-51.142
-49.464
-48.561
-48.405
-48.903
-49.934
-51.411
-53.251
-55.372
-57.725
-60.226
-62.757
-65.241
-67.624
-69.884
-72.031
-74.066
-75.972
-77.737
-79.339
-80.754
-81.967
-82.947
-83.656
-84.077
-84.209
-84.065
-83.677
-83.056
-82.202
-81.108
-79.76
-78.151
-76.285
-74.163
-71.79
-69.179
-66.346
-63.323
-60.161
-56.892
-53.54
-50.12
-46.636
-43.102
-39.546
-35.985
-32.436
-28.905
-25.392
-21.9
-18.437
-15.004
-11.601
-8.213
-4.805
-1.356
2.142
5.7
9.323
13.028
16.851
20.809
24.911
29.148
33.494
37.923
42.418
46.943
51.457
55.901
60.195
64.274
68.09
71.591
74.73
77.443
79.643
81.265
82.267
82.62
82.322
81.371
79.764
77.527
74.698
71.339
67.534
63.349
58.832
54.036
49.012
43.827
38.566
33.297
28.068
22.924
17.893
13.007
8.299
3.78
-0.554
-4.721
-8.752
-12.66
-16.444
-20.104
-23.639
-27.052
-30.356
-33.549
-36.62
-39.561
-42.36
-45.01
-47.506
-49.833
-51.965
-53.876
-55.538
-56.931
-58.045
-58.87
-59.398
-59.628
-59.558
-59.194
-58.545
-57.62
-56.427
-54.973
-53.266
-51.316
-49.136
-46.74
-44.14
-41.353
-38.392
-35.272
-32.007
-28.608
-25.084
-21.445
-17.704
-13.875
-9.973
-6.016
-2.026
1.969
5.936
9.84
13.652
17.343
20.89
24.271
27.463
30.449
33.217
35.76
38.078
40.175
42.062
43.76
45.305
46.743
48.138
49.558
51.073
52.75
54.652
56.838
59.357
62.246
65.52
69.191
73.256
77.688
82.448
87.469
92.654
97.897
103.048
107.921
112.322
116.049
118.916
120.781
121.5
120.935
118.988
115.554
110.566
104.047
95.975
86.332
75.252
62.926
49.75
36.408
23.499
11.551
1.23
-7.02
-13.021
-16.618
-18.363
-19.357
-20.376
-22.465
-26.22
-30.687
-34.721
-37.105
-36.902
-34.974
-32.353
-28.116
-18.409
2.722
41.752
103.169
185.846
285.401
394.74
503.326
601.119
677.241
720.246
721.327
675.115
582.554
451.686
297.671
140.787
0.084
-108.507
-175.866
-203.483
-197.324
-167.241
-126.427
-84.608
-51.462
-34.67
-34.327
-47.368
-66.201
-81.656
-90.512
-92.8
-91.521
-91.098
-92.273
-94.208
-95.845
-95.692
-93.815
-91.12
-88.174
-85.678
-84.166
-83.699
-84.278
-85.833
-88.129
-91.001
-94.347
-98.034
-101.922
-105.892
-109.822
-113.592
-117.122
-120.314
-123.077
-125.347
-127.073
-128.23
-128.816
-128.838
-128.32
-127.29
-125.78
-123.819
-121.435
-118.662
-115.551
-112.162
-108.561
-104.811
-100.965
-97.069
-93.169
-89.298
-85.481
-81.732
-78.05
-74.433
-70.878
-67.386
-63.963
-60.6
-57.269
-53.929
-50.523
-46.998
-43.308
-39.404
-35.235
-30.758
-25.935
-20.737
-15.144
-9.136
-2.69
4.226
11.65
19.602
28.077
37.047
46.451
56.229
66.322
76.667
87.192
97.831
108.517
119.176
129.734
140.101
150.169
159.809
168.867
177.195
184.662
191.165
196.635
201.009
204.232
206.249
207.018
206.505
204.677
201.53
197.069
191.334
184.395
176.362
167.382
157.627
147.272
136.476
125.383
114.132
102.86
91.716
80.833
70.336
60.351
50.977
42.295
34.373
27.239
20.893
15.301
10.398
6.1
2.338
-0.966
-3.885
-6.498
-8.902
-11.178
-13.394
-15.622
-17.912
-20.31
-22.854
-25.563
-28.438
-31.463
-34.608
-37.828
-41.089
-44.347
-47.558
-50.674
-53.635
-56.395
-58.924
-61.191
-63.179
-64.875
-66.267
-67.355
-68.15
-68.668
-68.927
-68.952
-68.765
-68.39
-67.861
-67.21
-66.473
-65.683
-64.864
-64.038
-63.223
-62.436
-61.695
-61.012
-60.395
-59.854
-59.4
-59.039
-58.778
-58.623
-58.574
-58.634
-58.807
-59.098
-59.51
-60.045
-60.706
-61.492
-62.4
-63.418
-64.521
-65.68
-66.865
-68.048
-69.205
-70.312
-71.343
-72.266
-73.044
-73.644
-74.036
-74.197
-74.102
-73.734
-73.089
-72.197
-71.137
-69.998
-68.872
-67.837
-66.936
-66.235
-65.822
-65.775
-66.178
-67.106
-68.575
-70.649
-73.476
-77.032
-81.201
-85.745
-90.134
-93.9
-96.765
-98.248
-97.798
-95.391
-91.13
-85.343
-79.179
-73.489
-68.676
-65.848
-65.43
-65.973
-66.088
-64.02
-58.224
-50.168
-41.34
-30.43
-13.507
15.221
61.782
129.155
214.841
314.629
422.622
529.283
624.721
697.982
735.579
727.444
670.417
565.937
425.118
267.816
113.424
-18.287
-112.367
-165.54
-180.296
-163.728
-128.562
-86.609
-48.904
-26.98
-24.385
-38.228
-61.561
-82.703
-95.795
-100.729
-99.962
-99.188
-100.273
-102.137
-103.73
-103.126
-100.075
-95.647
-90.533
-85.565
-81.472
-78.42
-76.477
-75.659
-75.746
-76.585
-78.106
-80.178
-82.661
-85.434
-88.364
-91.342
-94.281
-97.075
-99.597
-101.727
-103.373
-104.493
-105.069
-105.103
-104.613
-103.616
-102.143
-100.242
-97.952
-95.315
-92.375
-89.169
-85.746
-82.158
-78.452
-74.676
-70.863
-67.029
-63.184
-59.333
-55.473
-51.599
-47.699
-43.757
-39.762
-35.711
-31.602
-27.438
-23.221
-18.953
-14.641
-10.303
-5.956
-1.618
2.699
6.993
11.255
15.477
19.65
23.76
27.806
31.798
35.742
39.64
43.498
47.317
51.116
54.931
58.786
62.698
66.667
70.673
74.694
78.711
82.694
86.605
90.39
93.973
97.295
100.312
102.975
105.241
107.051
108.322
108.989
109.009
108.354
107.021
105.012
102.328
98.994
95.057
90.582
85.658
80.355
74.727
68.829
62.714
56.451
50.126
43.809
37.551
31.396
25.378
19.527
13.878
8.445
3.219
-1.815
-6.689
-11.421
-16.01
-20.458
-24.766
-28.937
-32.985
-36.911
-40.707
-44.365
-47.879
-51.243
-54.458
-57.513
-60.387
-63.059
-65.507
-67.714
-69.676
-71.387
-72.845
-74.051
-75.005
-75.717
-76.197
-76.459
-76.511
-76.363
-76.024
-75.506
-74.825
-73.996
-73.034
-71.954
-70.77
-69.494
-68.141
-66.723
-65.25
-63.732
-62.178
-60.597
-58.999
-57.394
-55.79
-54.197
-52.623
-51.074
-49.559
-48.084
-46.654
-45.273
-43.946
-42.674
-41.461
-40.308
-39.217
-38.188
-37.222
-36.319
-35.478
-34.699
-33.98
-33.319
-32.715
-32.167
-31.67
-31.224
-30.826
-30.473
-30.164
-29.895
-29.664
-29.468
-29.305
-29.172
-29.066
-28.984
-28.924
-28.884
-28.861
-28.852
-28.855
-28.87
-28.893
-28.924
-28.96
-29.001
-29.046
-29.093
-29.142
-29.191
-29.24
-29.289
-29.336
-29.383
-29.428
-29.471
-29.512
-29.551
-29.588
-29.622
-29.655
-29.685
-29.714
-29.74
-29.765
-29.788
-29.809
-29.829
-29.848
-29.866
-29.883
-29.899
-29.916
-29.932
-29.949
-29.967
-29.986
-30.007
-30.03
-30.055
-30.083
-30.115
-30.15
-30.19
-30.234
-30.283
-30.337
-30.397
-30.463
-30.535
-30.613
-30.699
-30.791
-30.891
-30.998
-31.113
-31.237
-31.369
-31.509
-31.659
-31.818
-31.986
-32.163
-32.349
-32.543
-32.746
-32.956
-33.173
-33.396
-33.624
-33.856
-34.092
-34.329
-34.567
-34.804
-35.037
-35.266
-35.489
-35.703
-35.907
-36.098
-36.276
-36.436
-36.579
-36.7
-36.799
-36.872
-36.918
-36.933
-36.915
-36.861
-36.77
-36.64
-36.467
-36.251
-35.991
-35.684
-35.33
-34.929
-34.48
-33.984
-33.441
-32.853
-32.222
-31.549
-30.839
-30.095
-29.321
-28.523
-27.707
-26.88
-26.049
-25.222
-24.408
-23.614
-22.849
-22.121
-21.437
-20.807
-20.237
-19.736
-19.311
-18.972
-18.727
-18.587
-18.557
-18.646
-18.854
-19.184
-19.637
-20.215
-20.921
-21.759
-22.731
-23.84
-25.087
-26.473
-27.995
-29.638
-31.375
-33.173
-35
-36.826
-38.623
-40.365
-42.021
-43.556
-44.935
-46.118
-47.072
-47.763
-48.154
-48.216
-47.932
-47.323
-46.458
-45.423
-44.305
-43.182
-42.099
-41.123
-40.357
-39.902
-39.854
-40.316
-41.315
-42.93
-45.368
-48.643
-52.612
-56.999
-61.194
-64.644
-67.075
-68.013
-66.822
-63.46
-58.175
-51.537
-44.934
-39.425
-35.485
-34.046
-36.113
-40.739
-45.595
-48.21
-44.805
-34.246
-19.375
-0.229
24.884
58.491
108.35
179.716
271.823
382.77
505.074
626.485
735.073
817.868
861.178
856.085
799.187
693.599
556.598
396.393
212.678
50.485
-42.899
-92.052
-127.585
-135.553
-112.419
-76.865
-42.686
-20.229
-14.365
-23.57
-42.095
-59.199
-69.321
-72.505
-71
-70.509
-73.155
-77.259
-81.264
-83.012
-81.819
-78.695
-74.429
-69.677
-65.133
-61.287
-58.39
-56.574
-55.759
-55.709
-56.294
-57.429
-58.97
-60.752
-62.63
-64.49
-66.266
-67.912
-69.346
-70.472
-71.215
-71.554
-71.527
-71.182
-70.565
-69.712
-68.649
-67.423
-66.075
-64.632
-63.099
-61.458
-59.699
-57.838
-55.902
-53.915
-51.887
-49.8
-47.613
-45.296
-42.822
-40.169
-37.318
-34.245
-30.932
-27.386
-23.634
-19.716
-15.664
-11.49
-7.201
-2.803
1.692
6.268
10.909
15.61
20.366
25.161
29.977
34.794
39.598
44.386
49.161
53.925
58.678
63.42
68.154
72.887
77.616
82.328
87
91.603
96.119
100.539
104.86
109.073
113.166
117.127
120.958
124.663
128.235
131.645
134.845
137.786
140.437
142.779
144.806
146.508
147.867
148.86
149.468
149.683
149.495
148.885
147.82
146.261
144.197
141.649
138.664
135.291
131.563
127.505
123.138
118.493
113.607
108.513
103.239
97.804
92.236
86.578
80.884
75.216
69.613
64.089
58.641
53.267
47.979
42.79
37.713
32.753
27.916
23.215
18.671
14.306
10.136
6.163
2.383
-1.211
-4.617
-7.825
-10.819
-13.588
-16.126
-18.429
-20.493
-22.311
-23.882
-25.212
-26.312
-27.197
-27.875
-28.357
-28.648
-28.757
-28.696
-28.478
-28.116
-27.623
-27.013
-26.298
-25.493
-24.614
-23.675
-22.685
-21.656
-20.598
-19.519
-18.431
-17.342
-16.261
-15.195
-14.154
-13.144
-12.172
-11.245
-10.369
-9.547
-8.784
-8.083
-7.445
-6.875
-6.371
-5.935
-5.568
-5.268
-5.035
-4.869
-4.768
-4.729
-4.752
-4.834
-4.972
-5.165
-5.41
-5.703
-6.043
-6.427
-6.853
-7.317
-7.819
-8.355
-8.924
-9.524
-10.152
-10.806
-11.483
-12.182
-12.901
-13.636
-14.386
-15.15
-15.924
-16.707
-17.499
-18.295
-19.096
-19.899
-20.702
-21.503
-22.301
-23.093
-23.877
-24.651
-25.412
-26.159
-26.889
-27.6
-28.29
-28.955
-29.594
-30.203
-30.779
-31.32
-31.822
-32.283
-32.7
-33.071
-33.394
-33.667
-33.888
-34.055
-34.17
-34.23
-34.235
-34.185
-34.083
-33.927
-33.722
-33.468
-33.17
-32.83
-32.454
-32.048
-31.618
-31.171
-30.717
-30.262
-29.816
-29.387
-28.984
-28.615
-28.287
-28.008
-27.786
-27.629
-27.546
-27.545
-27.635
-27.824
-28.118
-28.522
-29.036
-29.662
-30.399
-31.247
-32.211
-33.295
-34.501
-35.834
-37.296
-38.885
-40.595
-42.406
-44.29
-46.215
-48.149
-50.061
-51.924
-53.707
-55.378
-56.904
-58.245
-59.36
-60.213
-60.761
-60.967
-60.806
-60.28
-59.433
-58.342
-57.093
-55.761
-54.407
-53.103
-51.945
-51.03
-50.454
-50.309
-50.645
-51.562
-53.256
-55.791
-59.1
-62.979
-66.926
-70.434
-73.16
-74.612
-74.161
-71.602
-66.98
-60.622
-53.772
-47.682
-43.126
-41.348
-42.871
-46.347
-50.238
-52.628
-52.046
-49.743
-46.818
-41.66
-28.937
-0.341
52.027
132.375
237.926
361.584
493.91
623.299
739.32
830.832
886.044
894.786
849.686
750.736
606.294
433.369
255.454
94.874
-30.465
-110.98
-148.367
-150.101
-127.941
-95.513
-62.552
-37.964
-27.241
-29.598
-42.294
-58.15
-69.525
-74.419
-73.52
-70.446
-69.54
-71.2
-73.819
-75.65
-75.093
-72.123
-67.679
-62.429
-56.943
-51.745
-47.246
-43.706
-41.214
-39.684
-38.921
-38.801
-39.26
-40.187
-41.443
-42.912
-44.493
-46.132
-47.802
-49.439
-50.963
-52.32
-53.472
-54.406
-55.132
-55.656
-55.976
-56.093
-55.999
-55.676
-55.111
-54.298
-53.223
-51.876
-50.255
-48.363
-46.212
-43.814
-41.171
-38.283
-35.147
-31.76
-28.129
-24.264
-20.184
-15.919
-11.496
-6.942
-2.287
2.442
7.219
12.019
16.823
21.613
26.372
31.084
35.737
40.323
44.834
49.265
53.618
57.894
62.097
66.239
70.328
74.377
78.405
82.429
86.47
90.556
94.701
98.915
103.197
107.534
111.913
116.317
120.719
125.09
129.398
133.59
137.618
141.429
144.957
148.14
150.905
153.164
154.845
155.89
156.249
155.893
154.798
152.938
150.307
146.909
142.761
137.899
132.361
126.182
119.412
112.102
104.32
96.16
87.71
79.046
70.249
61.391
52.548
43.811
35.254
26.931
18.886
11.151
3.762
-3.236
-9.797
-15.889
-21.494
-26.616
-31.263
-35.438
-39.157
-42.445
-45.341
-47.908
-50.196
-52.232
-54.039
-55.633
-57.037
-58.291
-59.436
-60.5
-61.504
-62.46
-63.379
-64.274
-65.149
-65.993
-66.78
-67.473
-68.043
-68.481
-68.784
-68.952
-68.983
-68.868
-68.601
-68.186
-67.631
-66.94
-66.123
-65.181
-64.127
-62.98
-61.767
-60.52
-59.265
-58.018
-56.792
-55.599
-54.449
-53.354
-52.318
-51.344
-50.432
-49.585
-48.806
-48.1
-47.469
-46.911
-46.421
-45.996
-45.633
-45.33
-45.083
-44.891
-44.75
-44.661
-44.621
-44.632
-44.693
-44.8
-44.953
-45.147
-45.379
-45.647
-45.946
-46.273
-46.625
-46.997
-47.387
-47.793
-48.211
-48.639
-49.075
-49.516
-49.96
-50.405
-50.85
-51.292
-51.73
-52.163
-52.59
-53.011
-53.423
-53.827
-54.222
-54.606
-54.981
-55.345
-55.697
-56.038
-56.367
-56.683
-56.988
-57.28
-57.561
-57.83
-58.088
-58.335
-58.571
-58.797
-59.013
-59.219
-59.415
-59.601
-59.777
-59.944
-60.1
-60.246
-60.382
-60.507
-60.621
-60.723
-60.814
-60.892
-60.957
-61.009
-61.047
-61.07
-61.078
-61.07
-61.046
-61.006
-60.948
-60.873
-60.779
-60.668
-60.538
-60.39
-60.224
-60.04
-59.839
-59.622
-59.389
-59.141
-58.879
-58.604
-58.317
-58.019
-57.712
-57.397
-57.076
-56.75
-56.422
-56.093
-55.765
-55.441
-55.123
-54.814
-54.514
-54.228
-53.957
-53.703
-53.468
-53.255
-53.066
-52.901
-52.763
-52.653
-52.572
-52.518
-52.492
-52.492
-52.516
-52.563
-52.63
-52.715
-52.815
-52.928
-53.052
-53.184
-53.321
-53.461
-53.599
-53.732
-53.852
-53.955
-54.034
-54.081
-54.091
-54.054
-53.964
-53.815
-53.6
-53.314
-52.948
-52.492
-51.938
-51.284
-50.527
-49.668
-48.711
-47.659
-46.521
-45.313
-44.05
-42.745
-41.413
-40.056
-38.679
-37.288
-35.892
-34.5
-33.117
-31.735
-30.343
-28.934
-27.497
-26.025
-24.503
-22.901
-21.192
-19.366
-17.413
-15.351
-13.199
-10.973
-8.691
-6.382
-4.082
-1.85
0.245
2.149
3.813
5.185
6.213
6.819
6.941
6.546
5.62
4.181
2.26
-0.118
-2.92
-6.089
-9.556
-13.226
-16.986
-20.754
-24.449
-27.994
-31.306
-34.288
-36.866
-39.006
-40.728
-42.095
-43.186
-44.075
-44.835
-45.537
-46.272
-47.163
-48.326
-49.859
-51.851
-54.337
-57.426
-61.305
-66.005
-71.438
-77.303
-82.98
-87.907
-91.682
-93.715
-93.41
-90.555
-85.043
-77.483
-69.431
-62.124
-56.673
-53.858
-53.186
-53.592
-53.913
-53.464
-52.578
-51.844
-50.716
-44.37
-24.766
16.206
85.199
181.754
299.775
430.823
563.879
688.966
794.528
867.262
894.453
865.293
777.975
640.36
468.668
286.344
116.097
-23.955
-121.877
-175.096
-188.042
-170
-133.89
-92.571
-58.022
-38.69
-36.297
-47.568
-64.324
-77.351
-83.216
-82.636
-79.288
-78.257
-80.378
-83.84
-86.884
-87.54
-85.576
-82.031
-77.594
-72.913
-68.603
-65.056
-62.48
-60.945
-60.31
-60.321
-60.83
-61.728
-62.862
-64.084
-65.27
-66.318
-67.175
-67.818
-68.195
-68.251
-67.983
-67.399
-66.533
-65.436
-64.149
-62.707
-61.154
-59.534
-57.88
-56.214
-54.541
-52.853
-51.133
-49.37
-47.56
-45.688
-43.723
-41.629
-39.37
-36.911
-34.231
-31.311
-28.127
-24.66
-20.9
-16.845
-12.51
-7.922
-3.118
1.87
7.015
12.284
17.64
23.043
28.458
33.864
39.249
44.604
49.918
55.173
60.357
65.462
70.492
75.461
80.385
85.282
90.173
95.087
100.059
105.131
110.331
115.667
121.136
126.726
132.423
138.217
144.084
149.993
155.901
161.759
167.51
173.099
178.456
183.492
188.112
192.208
195.691
198.491
200.547
201.813
202.244
201.81
200.498
198.316
195.283
191.424
186.772
181.359
175.235
168.471
161.153
153.379
145.238
136.818
128.208
119.499
110.786
102.145
93.636
85.303
77.178
69.296
61.694
54.407
47.466
40.894
34.7
28.884
23.448
18.38
13.657
9.246
5.094
1.168
-2.553
-6.083
-9.422
-12.578
-15.564
-18.393
-21.078
-23.642
-26.097
-28.456
-30.733
-32.924
-35.02
-37
-38.827
-40.473
-41.927
-43.179
-44.231
-45.087
-45.748
-46.218
-46.505
-46.61
-46.534
-46.282
-45.856
-45.266
-44.529
-43.669
-42.715
-41.696
-40.636
-39.552
-38.46
-37.373
-36.301
-35.253
-34.233
-33.249
-32.307
-31.415
-30.582
-29.813
-29.112
-28.48
-27.916
-27.42
-26.991
-26.627
-26.327
-26.091
-25.919
-25.811
-25.768
-25.79
-25.877
-26.027
-26.237
-26.503
-26.823
-27.193
-27.609
-28.065
-28.558
-29.084
-29.64
-30.221
-30.823
-31.444
-32.08
-32.726
-33.381
-34.042
-34.705
-35.369
-36.032
-36.693
-37.35
-38.002
-38.649
-39.29
-39.925
-40.554
-41.175
-41.79
-42.398
-42.999
-43.593
-44.181
-44.764
-45.344
-45.921
-46.496
-47.072
-47.651
-48.233
-48.82
-49.413
-50.015
-50.626
-51.246
-51.878
-52.52
-53.174
-53.838
-54.511
-55.191
-55.876
-56.563
-57.249
-57.931
-58.605
-59.268
-59.917
-60.55
-61.163
-61.752
-62.315
-62.846
-63.34
-63.793
-64.197
-64.547
-64.836
-65.056
-65.202
-65.267
-65.246
-65.132
-64.918
-64.594
-64.154
-63.596
-62.917
-62.119
-61.207
-60.185
-59.064
-57.861
-56.59
-55.266
-53.901
-52.503
-51.082
-49.647
-48.205
-46.77
-45.345
-43.929
-42.515
-41.09
-39.641
-38.154
-36.609
-34.974
-33.227
-31.353
-29.342
-27.2
-24.938
-22.573
-20.128
-17.624
-15.098
-12.597
-10.179
-7.913
-5.867
-4.105
-2.697
-1.721
-1.243
-1.315
-1.972
-3.223
-5.052
-7.429
-10.316
-13.665
-17.416
-21.493
-25.803
-30.236
-34.685
-39.047
-43.221
-47.104
-50.601
-53.636
-56.157
-58.165
-59.718
-60.89
-61.773
-62.451
-62.986
-63.476
-64.051
-64.842
-65.974
-67.57
-69.687
-72.439
-76.032
-80.475
-85.658
-91.33
-96.913
-101.887
-105.933
-108.494
-108.907
-107.091
-103.148
-97.464
-91.374
-85.886
-81.486
-79.43
-80.3
-82.639
-84.9
-84.982
-80.952
-74.071
-65.844
-55.025
-37.084
-5.415
46.846
123.709
222.413
338.034
463.843
588.965
703.278
794.732
848.517
852.647
799.153
687.5
527.489
338.496
146.325
-24.478
-154.412
-233.295
-264.404
-256.622
-221.99
-175.409
-126.493
-84.088
-57.623
-49.5
-59.297
-82.38
-107.431
-126.448
-135.38
-132.688
-123.627
-113.889
-106.102
-102.756
-102.556
-102.176
-100.682
-97.388
-92.727
-88.663
-85.831
-84.153
-83.58
-83.629
-84.051
-84.905
-86.087
-87.4
-88.727
-89.979
-91.071
-91.954
-92.555
-92.775
-92.58
-92.01
-91.116
-89.958
-88.598
-87.077
-85.438
-83.738
-82.018
-80.297
-78.584
-76.865
-75.116
-73.336
-71.526
-69.676
-67.769
-65.751
-63.568
-61.181
-58.55
-55.646
-52.44
-48.896
-44.993
-40.738
-36.149
-31.261
-26.123
-20.765
-15.219
-9.526
-3.722
2.153
8.064
13.996
19.939
25.876
31.789
37.648
43.437
49.164
54.842
60.488
66.133
71.806
77.544
83.411
89.45
95.688
102.135
108.772
115.576
122.533
129.626
136.839
144.143
151.484
158.804
166.055
173.172
180.073
186.653
192.76
198.263
203.064
207.085
210.279
212.607
214.016
214.462
213.922
212.392
209.887
206.426
202.014
196.665
190.427
183.388
175.688
167.465
158.827
149.868
140.672
131.327
121.942
112.623
103.445
94.467
85.74
77.317
69.274
61.691
54.612
48.047
41.967
36.335
31.135
26.352
21.963
17.927
14.187
10.676
7.357
4.213
1.219
-1.65
-4.441
-7.209
-9.987
-12.784
-15.597
-18.417
-21.244
-24.081
-26.913
-29.712
-32.439
-35.049
-37.52
-39.843
-42.008
-44.004
-45.816
-47.424
-48.82
-50.01
-50.999
-51.793
-52.396
-52.811
-53.051
-53.138
-53.098
-52.958
-52.736
-52.443
-52.091
-51.69
-51.248
-50.772
-50.268
-49.73
-49.161
-48.563
-47.936
-47.285
-46.608
-45.903
-45.164
-44.39
-43.578
-42.726
-41.833
-40.899
-39.922
-38.905
-37.849
-36.758
-35.634
-34.478
-33.293
-32.078
-30.837
-29.57
-28.281
-26.97
-25.641
-24.297
-22.942
-21.58
-20.215
-18.853
-17.498
-16.156
-14.831
-13.528
-12.254
-11.013
-9.812
-8.656
-7.549
-6.498
-5.507
-4.581
-3.724
-2.94
-2.232
-1.603
-1.055
-0.591
-0.213
0.079
0.283
0.4
0.43
0.373
0.23
0.005
-0.301
-0.685
-1.142
-1.667
-2.257
-2.905
-3.604
-4.35
-5.133
-5.947
-6.783
-7.635
-8.492
-9.346
-10.19
-11.013
-11.809
-12.568
-13.284
-13.947
-14.551
-15.089
-15.553
-15.937
-16.236
-16.443
-16.553
-16.564
-16.47
-16.269
-15.959
-15.54
-15.009
-14.368
-13.619
-12.763
-11.803
-10.745
-9.593
-8.353
-7.035
-5.646
-4.196
-2.696
-1.159
0.403
1.977
3.547
5.099
6.618
8.089
9.496
10.826
12.064
13.196
14.209
15.087
15.82
16.393
16.794
17.011
17.032
16.85
16.457
15.85
15.027
13.983
12.715
11.219
9.493
7.54
5.358
2.953
0.332
-2.49
-5.481
-8.609
-11.836
-15.129
-18.457
-21.788
-25.088
-28.32
-31.444
-34.419
-37.207
-39.776
-42.092
-44.127
-45.864
-47.319
-48.555
-49.647
-50.679
-51.724
-52.828
-54.056
-55.493
-57.211
-59.286
-61.791
-64.746
-68.219
-72.368
-77.187
-82.578
-88.33
-93.947
-98.97
-103.108
-105.846
-106.565
-105.159
-101.689
-96.47
-90.665
-85.187
-80.519
-77.893
-77.968
-79.486
-81.031
-80.665
-76.702
-70.611
-64.3
-57.078
-44.747
-20.518
23.241
91.574
182.671
291.817
411.746
531.168
639.751
725.812
775.71
778.493
726.707
620.007
468.007
289.23
108.973
-48.909
-167.564
-238.817
-267.989
-265.662
-240.794
-204.713
-163.689
-123.204
-93.782
-79.392
-80.572
-93.704
-107.857
-117.146
-120.023
-117.619
-115.065
-114.043
-113.706
-113.217
-110.777
-106.181
-100.53
-94.5
-88.902
-84.409
-81.088
-78.926
-77.84
-77.54
-77.823
-78.582
-79.685
-80.988
-82.373
-83.709
-84.88
-85.827
-86.468
-86.744
-86.634
-86.134
-85.286
-84.14
-82.731
-81.087
-79.227
-77.156
-74.866
-72.368
-69.676
-66.818
-63.84
-60.778
-57.669
-54.539
-51.389
-48.209
-44.976
-41.67
-38.291
-34.851
-31.354
-27.815
-24.258
-20.69
-17.114
-13.522
-9.882
-6.175
-2.391
1.481
5.442
9.488
13.634
17.892
22.288
26.861
31.629
36.603
41.811
47.258
52.94
58.847
64.943
71.215
77.68
84.349
91.23
98.323
105.592
112.992
120.485
128.012
135.529
142.992
150.338
157.516
164.487
171.213
177.656
183.751
189.384
194.431
198.797
202.402
205.195
207.145
208.21
208.358
207.57
205.834
203.149
199.52
194.938
189.397
182.926
175.585
167.486
158.767
149.537
139.893
129.931
119.731
109.389
99.007
88.666
78.45
68.458
58.778
49.509
40.758
32.585
25.023
18.079
11.725
5.95
0.748
-3.903
-8.022
-11.634
-14.781
-17.498
-19.825
-21.834
-23.591
-25.162
-26.626
-28.029
-29.403
-30.774
-32.143
-33.514
-34.894
-36.276
-37.652
-39.02
-40.364
-41.669
-42.918
-44.069
-45.089
-45.952
-46.627
-47.099
-47.362
-47.409
-47.245
-46.885
-46.338
-45.623
-44.756
-43.752
-42.626
-41.401
-40.096
-38.742
-37.363
-35.977
-34.602
-33.251
-31.936
-30.665
-29.443
-28.27
-27.145
-26.068
-25.039
-24.058
-23.126
-22.24
-21.397
-20.594
-19.828
-19.096
-18.397
-17.729
-17.091
-16.48
-15.896
-15.34
-14.81
-14.306
-13.825
-13.366
-12.926
-12.505
-12.1
-11.709
-11.331
-10.963
-10.606
-10.259
-9.92
-9.591
-9.271
-8.961
-8.661
-8.372
-8.097
-7.836
-7.592
-7.366
-7.161
-6.979
-6.823
-6.695
-6.596
-6.531
-6.499
-6.505
-6.55
-6.635
-6.763
-6.933
-7.149
-7.409
-7.716
-8.067
-8.464
-8.906
-9.392
-9.921
-10.491
-11.1
-11.744
-12.422
-13.13
-13.862
-14.616
-15.385
-16.165
-16.95
-17.735
-18.512
-19.277
-20.021
-20.738
-21.422
-22.065
-22.659
-23.198
-23.675
-24.082
-24.414
-24.665
-24.829
-24.902
-24.879
-24.756
-24.532
-24.204
-23.77
-23.23
-22.584
-21.835
-20.985
-20.036
-18.995
-17.868
-16.661
-15.383
-14.044
-12.654
-11.225
-9.769
-8.299
-6.828
-5.37
-3.938
-2.546
-1.208
0.062
1.249
2.34
3.317
4.166
4.873
5.427
5.819
6.042
6.089
5.954
5.629
5.106
4.381
3.449
2.303
0.943
-0.631
-2.408
-4.362
-6.464
-8.686
-10.999
-13.377
-15.796
-18.223
-20.625
-22.968
-25.212
-27.319
-29.255
-30.977
-32.451
-33.657
-34.605
-35.353
-35.971
-36.532
-37.1
-37.711
-38.421
-39.321
-40.497
-42.03
-44.015
-46.479
-49.5
-53.282
-57.846
-63.059
-68.662
-74.083
-78.796
-82.54
-84.858
-85.121
-83.252
-79.478
-74.362
-69.244
-65.172
-62.618
-62.469
-65.747
-71.689
-78.14
-82.737
-81.844
-74.168
-62.224
-46.058
-23.807
7.151
54.203
122.462
210.713
316.693
433.124
549.002
655.266
740.815
793.762
803.979
762.998
669.134
528.848
357.717
179.208
15.747
-113.066
-195.026
-231.154
-227.91
-197.087
-154.711
-112.08
-79.517
-64.19
-65.091
-78.55
-96.764
-110.979
-118.628
-120.059
-118.464
-118.128
-119.351
-121.037
-121.967
-120.555
-116.921
-112.014
-106.438
-100.995
-96.373
-92.746
-90.189
-88.67
-87.959
-87.903
-88.432
-89.445
-90.801
-92.382
-94.089
-95.823
-97.545
-99.216
-100.755
-102.099
-103.206
-104.038
-104.59
-104.88
-104.91
-104.686
-104.221
-103.503
-102.529
-101.315
-99.861
-98.178
-96.279
-94.162
-91.84
-89.342
-86.685
-83.892
-80.99
-77.983
-74.873
-71.659
-68.325
-64.856
-61.252
-57.502
-53.613
-49.591
-45.438
-41.164
-36.777
-32.272
-27.642
-22.87
-17.918
-12.761
-7.4
-1.844
3.87
9.694
15.602
21.572
27.59
33.649
39.745
45.882
52.081
58.362
64.725
71.148
77.585
83.989
90.338
96.62
102.832
108.973
115.017
120.926
126.663
132.182
137.415
142.282
146.686
150.521
153.72
156.241
158.054
159.139
159.461
158.981
157.682
155.565
152.651
148.971
144.558
139.45
133.722
127.46
120.761
113.722
106.403
98.852
91.131
83.303
75.449
67.654
59.976
52.45
45.107
37.971
31.072
24.43
18.044
11.902
6.002
0.35
-5.017
-10.063
-14.779
-19.173
-23.27
-27.107
-30.702
-34.059
-37.191
-40.103
-42.802
-45.297
-47.575
-49.627
-51.458
-53.085
-54.549
-55.886
-57.111
-58.226
-59.222
-60.077
-60.783
-61.335
-61.723
-61.948
-62.01
-61.915
-61.682
-61.328
-60.866
-60.299
-59.621
-58.827
-57.926
-56.928
-55.852
-54.722
-53.557
-52.376
-51.2
-50.047
-48.928
-47.855
-46.829
-45.851
-44.923
-44.051
-43.238
-42.491
-41.813
-41.204
-40.664
-40.191
-39.783
-39.437
-39.147
-38.911
-38.724
-38.584
-38.489
-38.439
-38.432
-38.465
-38.537
-38.644
-38.784
-38.954
-39.148
-39.364
-39.596
-39.842
-40.099
-40.362
-40.63
-40.9
-41.169
-41.436
-41.698
-41.955
-42.206
-42.449
-42.685
-42.914
-43.137
-43.353
-43.564
-43.77
-43.974
-44.175
-44.376
-44.578
-44.782
-44.989
-45.201
-45.418
-45.644
-45.879
-46.124
-46.382
-46.655
-46.944
-47.252
-47.579
-47.928
-48.3
-48.697
-49.118
-49.566
-50.04
-50.54
-51.066
-51.616
-52.189
-52.782
-53.391
-54.014
-54.646
-55.285
-55.926
-56.565
-57.198
-57.824
-58.437
-59.035
-59.613
-60.166
-60.688
-61.173
-61.616
-62.008
-62.343
-62.614
-62.813
-62.935
-62.976
-62.929
-62.787
-62.54
-62.181
-61.71
-61.125
-60.428
-59.623
-58.715
-57.715
-56.64
-55.506
-54.329
-53.123
-51.894
-50.646
-49.388
-48.129
-46.881
-45.648
-44.425
-43.199
-41.964
-40.71
-39.428
-38.102
-36.702
-35.201
-33.587
-31.853
-30.012
-28.087
-26.092
-24.049
-21.983
-19.928
-17.942
-16.092
-14.433
-13.019
-11.902
-11.135
-10.797
-10.951
-11.636
-12.867
-14.623
-16.87
-19.578
-22.708
-26.206
-30.006
-34.016
-38.123
-42.237
-46.266
-50.124
-53.729
-56.973
-59.768
-62.062
-63.851
-65.198
-66.181
-66.877
-67.352
-67.661
-67.888
-68.17
-68.648
-69.445
-70.68
-72.398
-74.693
-77.796
-81.738
-86.371
-91.397
-96.175
-100.133
-102.986
-104.259
-103.315
-100.094
-94.833
-88.115
-81.349
-75.613
-71.387
-69.584
-71.159
-75.192
-79.403
-81.314
-77.161
-65.748
-49.704
-28.975
-1.785
34.549
87.639
162.224
256.655
368.085
488.218
605.672
711.425
794.749
844.56
851.301
806.979
710.086
567.532
395.63
218.188
57.876
-66.757
-145.456
-180.799
-180.145
-154.095
-116.502
-76.782
-44.435
-28.234
-29.201
-45.149
-68.71
-89.364
-102.676
-107.866
-107.667
-107.268
-107.907
-108.879
-109.132
-106.821
-101.879
-95.336
-87.872
-80.393
-73.621
-67.7
-62.718
-58.677
-55.379
-52.726
-50.688
-49.202
-48.214
-47.678
-47.547
-47.785
-48.371
-49.254
-50.35
-51.569
-52.822
-54.062
-55.266
-56.428
-57.549
-58.61
-59.591
-60.47
-61.2
-61.739
-62.04
-62.045
-61.718
-61.047
-60.027
-58.672
-56.999
-55.007
-52.694
-50.059
-47.094
-43.803
-40.192
-36.267
-32.049
-27.571
-22.878
-18.027
-13.063
-8.017
-2.916
2.22
7.372
12.52
17.651
22.759
27.839
32.88
37.872
42.806
47.672
52.476
57.238
61.979
66.723
71.494
76.315
81.211
86.216
91.342
96.596
101.97
107.448
113.017
118.66
124.349
130.053
135.729
141.316
146.753
151.967
156.866
161.363
165.368
168.782
171.532
173.562
174.82
175.279
174.916
173.717
171.689
168.851
165.228
160.867
155.823
150.164
143.991
137.396
130.47
123.312
116.003
108.61
101.204
93.833
86.541
79.367
72.335
65.463
58.773
52.27
45.953
39.814
33.824
27.962
22.216
16.569
11.017
5.559
0.197
-5.062
-10.199
-15.201
-20.05
-24.728
-29.223
-33.518
-37.594
-41.433
-45.009
-48.305
-51.308
-54.01
-56.408
-58.5
-60.289
-61.781
-62.988
-63.923
-64.597
-65.023
-65.211
-65.174
-64.927
-64.484
-63.862
-63.076
-62.14
-61.069
-59.877
-58.578
-57.186
-55.713
-54.171
-52.571
-50.927
-49.25
-47.552
-45.846
-44.143
-42.453
-40.787
-39.153
-37.56
-36.015
-34.526
-33.097
-31.734
-30.441
-29.222
-28.079
-27.016
-26.033
-25.132
-24.312
-23.575
-22.92
-22.344
-21.848
-21.428
-21.084
-20.812
-20.61
-20.474
-20.401
-20.387
-20.428
-20.52
-20.659
-20.84
-21.058
-21.31
-21.589
-21.893
-22.216
-22.555
-22.905
-23.261
-23.622
-23.982
-24.34
-24.693
-25.037
-25.372
-25.695
-26.006
-26.302
-26.584
-26.85
-27.101
-27.336
-27.556
-27.761
-27.952
-28.129
-28.295
-28.449
-28.594
-28.73
-28.86
-28.984
-29.105
-29.224
-29.343
-29.465
-29.591
-29.723
-29.864
-30.015
-30.179
-30.357
-30.549
-30.758
-30.983
-31.225
-31.482
-31.754
-32.037
-32.332
-32.633
-32.94
-33.249
-33.557
-33.86
-34.155
-34.438
-34.706
-34.953
-35.175
-35.364
-35.517
-35.626
-35.687
-35.693
-35.636
-35.51
-35.31
-35.03
-34.662
-34.196
-33.618
-32.92
-32.097
-31.145
-30.066
-28.861
-27.535
-26.098
-24.569
-22.961
-21.289
-19.562
-17.784
-15.962
-14.109
-12.242
-10.385
-8.549
-6.737
-4.949
-3.185
-1.434
0.322
2.113
3.993
5.996
8.144
10.448
12.896
15.48
18.196
21.034
23.989
27.038
30.14
33.256
36.343
39.333
42.151
44.696
46.832
48.455
49.486
49.866
49.575
48.603
46.943
44.609
41.627
38.028
33.87
29.21
24.109
18.662
12.976
7.184
1.459
-4.058
-9.253
-14.033
-18.353
-22.211
-25.633
-28.671
-31.398
-33.865
-36.118
-38.224
-40.264
-42.338
-44.558
-47.051
-49.917
-53.305
-57.444
-62.354
-67.899
-73.786
-79.403
-84.189
-87.81
-89.709
-89.214
-86.311
-81.207
-74.439
-67.579
-61.811
-57.696
-56.539
-58.818
-62.845
-66.979
-68.935
-66.419
-60.387
-51.629
-38.078
-15.14
23.473
83.743
168.19
273.525
394.649
524.146
650.892
763.902
850.632
898.347
898.006
844.879
740.792
594.234
420.995
242.607
79.897
-48.405
-130.671
-167.482
-165.075
-135.277
-93.932
-52.683
-22.521
-11.09
-17.536
-37.752
-62.875
-83.135
-95.434
-100.072
-100.609
-101.764
-104.066
-106.462
-107.691
-106.114
-101.87
-95.994
-89.157
-82.227
-75.929
-70.443
-65.861
-62.184
-59.223
-56.872
-55.096
-53.82
-52.944
-52.417
-52.212
-52.294
-52.653
-53.237
-53.941
-54.673
-55.348
-55.915
-56.354
-56.651
-56.785
-56.734
-56.492
-56.043
-55.374
-54.452
-53.208
-51.601
-49.61
-47.237
-44.514
-41.476
-38.147
-34.548
-30.702
-26.634
-22.383
-17.994
-13.492
-8.902
-4.245
0.446
5.111
9.711
14.226
18.653
23.013
27.329
31.607
35.862
40.123
44.426
48.82
53.363
58.084
63.001
68.13
73.483
79.088
84.964
91.109
97.518
104.179
111.082
118.232
125.62
133.21
140.958
148.804
156.68
164.538
172.336
180.026
187.559
194.88
201.927
208.64
214.946
220.748
225.94
230.41
234.064
236.845
238.706
239.606
239.516
238.406
236.246
233.02
228.712
223.301
216.79
209.208
200.618
191.132
180.878
169.993
158.601
146.799
134.69
122.38
109.97
97.556
85.239
73.121
61.323
49.992
39.246
29.167
19.805
11.158
3.215
-4.046
-10.645
-16.601
-21.937
-26.69
-30.89
-34.559
-37.742
-40.489
-42.885
-45.049
-47.075
-49.032
-50.968
-52.901
-54.845
-56.813
-58.806
-60.816
-62.833
-64.846
-66.851
-68.852
-70.838
-72.79
-74.669
-76.413
-77.98
-79.342
-80.482
-81.394
-82.075
-82.526
-82.759
-82.798
-82.662
-82.372
-81.941
-81.377
-80.697
-79.922
-79.076
-78.192
-77.294
-76.398
-75.522
-74.678
-73.874
-73.118
-72.412
-71.752
-71.135
-70.56
-70.028
-69.54
-69.098
-68.698
-68.339
-68.019
-67.736
-67.489
-67.276
-67.096
-66.947
-66.828
-66.739
-66.681
-66.654
-66.655
-66.684
-66.739
-66.817
-66.918
-67.039
-67.178
-67.333
-67.503
-67.686
-67.88
-68.086
-68.302
-68.526
-68.759
-69
-69.249
-69.506
-69.77
-70.041
-70.32
-70.605
-70.897
-71.196
-71.501
-71.812
-72.129
-72.452
-72.781
-73.116
-73.457
-73.804
-74.156
-74.515
-74.879
-75.248
-75.622
-76.002
-76.386
-76.775
-77.167
-77.562
-77.96
-78.359
-78.759
-79.157
-79.552
-79.942
-80.326
-80.701
-81.065
-81.415
-81.75
-82.067
-82.362
-82.634
-82.88
-83.095
-83.278
-83.424
-83.529
-83.591
-83.605
-83.567
-83.472
-83.318
-83.1
-82.814
-82.456
-82.022
-81.508
-80.91
-80.224
-79.447
-78.575
-77.605
-76.534
-75.361
-74.083
-72.699
-71.209
-69.611
-67.906
-66.096
-64.18
-62.161
-60.042
-57.826
-55.519
-53.124
-50.648
-48.099
-45.486
-42.817
-40.104
-37.359
-34.593
-31.82
-29.054
-26.31
-23.601
-20.941
-18.345
-15.827
-13.402
-11.084
-8.886
-6.824
-4.913
-3.168
-1.602
-0.227
0.949
1.921
2.683
3.228
3.548
3.635
3.485
3.093
2.454
1.567
0.436
-0.926
-2.489
-4.217
-6.076
-8.032
-10.056
-12.118
-14.183
-16.212
-18.164
-19.997
-21.67
-23.15
-24.391
-25.362
-26.045
-26.458
-26.677
-26.789
-26.885
-27.039
-27.3
-27.733
-28.434
-29.486
-30.97
-32.974
-35.522
-38.708
-42.735
-47.603
-53.186
-59.223
-65.105
-70.276
-74.404
-76.895
-77.038
-74.784
-70.268
-63.924
-57.233
-51.336
-46.81
-45.096
-46.704
-49.75
-52.484
-52.703
-48.711
-42.728
-36.397
-27.459
-9.926
24.939
84.766
172.03
282.128
407.679
540.511
670.18
785.775
875.411
924.296
920.202
859.102
743.272
585.317
407.334
231.38
78.749
-34.959
-105.193
-134.975
-132.538
-109.063
-75.349
-40.035
-11.783
2.608
1.693
-12.454
-32.51
-49.657
-60.307
-64.063
-63.978
-64.418
-65.996
-67.865
-68.936
-67.715
-64.387
-59.986
-55.18
-50.806
-47.549
-45.565
-44.912
-45.546
-47.222
-49.762
-53.056
-56.947
-61.25
-65.812
-70.477
-75.095
-79.557
-83.736
-87.489
-90.712
-93.336
-95.325
-96.678
-97.413
-97.551
-97.129
-96.197
-94.801
-92.993
-90.823
-88.338
-85.597
-82.657
-79.577
-76.413
-73.203
-69.972
-66.731
-63.481
-60.217
-56.929
-53.6
-50.206
-46.724
-43.14
-39.443
-35.627
-31.687
-27.617
-23.415
-19.087
-14.648
-10.109
-5.486
-0.786
3.985
8.818
13.699
18.61
23.53
28.448
33.364
38.281
43.2
48.133
53.095
58.118
63.251
68.527
73.963
79.567
85.323
91.218
97.243
103.377
109.599
115.878
122.16
128.394
134.532
140.502
146.224
151.6
156.499
160.815
164.47
167.393
169.54
170.872
171.349
170.954
169.676
167.509
164.463
160.556
155.8
150.24
143.932
136.945
129.388
121.356
112.921
104.167
95.163
85.974
76.673
67.324
57.981
48.72
39.618
30.738
22.151
13.906
6.04
-1.4
-8.401
-14.949
-21.024
-26.625
-31.751
-36.396
-40.566
-44.276
-47.54
-50.4
-52.916
-55.128
-57.08
-58.809
-60.348
-61.742
-63.025
-64.22
-65.346
-66.413
-67.428
-68.405
-69.35
-70.259
-71.121
-71.914
-72.6
-73.161
-73.581
-73.848
-73.954
-73.886
-73.634
-73.2
-72.594
-71.828
-70.913
-69.858
-68.672
-67.374
-65.987
-64.535
-63.048
-61.548
-60.051
-58.574
-57.13
-55.73
-54.385
-53.099
-51.872
-50.705
-49.6
-48.56
-47.586
-46.678
-45.833
-45.049
-44.322
-43.648
-43.028
-42.456
-41.932
-41.453
-41.018
-40.625
-40.275
-39.966
-39.694
-39.458
-39.254
-39.079
-38.928
-38.799
-38.688
-38.591
-38.506
-38.429
-38.36
-38.295
-38.232
-38.171
-38.108
-38.045
-37.978
-37.908
-37.834
-37.756
-37.674
-37.588
-37.499
-37.408
-37.314
-37.22
-37.126
-37.033
-36.943
-36.857
-36.777
-36.706
-36.644
-36.596
-36.563
-36.548
-36.554
-36.583
-36.638
-36.723
-36.839
-36.989
-37.174
-37.399
-37.662
-37.967
-38.315
-38.705
-39.139
-39.617
-40.138
-40.702
-41.307
-41.952
-42.636
-43.355
-44.108
-44.891
-45.7
-46.531
-47.38
-48.242
-49.111
-49.982
-50.849
-51.704
-52.541
-53.354
-54.135
-54.875
-55.568
-56.206
-56.781
-57.285
-57.71
-58.049
-58.295
-58.441
-58.481
-58.409
-58.221
-57.912
-57.48
-56.92
-56.232
-55.415
-54.468
-53.394
-52.194
-50.873
-49.435
-47.887
-46.235
-44.49
-42.66
-40.756
-38.793
-36.782
-34.74
-32.679
-30.617
-28.568
-26.55
-24.579
-22.671
-20.843
-19.111
-17.492
-16.004
-14.664
-13.487
-12.486
-11.67
-11.05
-10.632
-10.424
-10.435
-10.672
-11.137
-11.836
-12.773
-13.951
-15.367
-17.011
-18.857
-20.877
-23.044
-25.329
-27.706
-30.146
-32.616
-35.078
-37.497
-39.831
-42.043
-44.095
-45.939
-47.537
-48.864
-49.925
-50.77
-51.462
-52.066
-52.643
-53.228
-53.88
-54.681
-55.718
-57.076
-58.833
-61.021
-63.721
-67.119
-71.264
-76.074
-81.32
-86.464
-90.985
-94.553
-96.711
-96.864
-94.814
-90.629
-84.693
-78.313
-72.763
-68.782
-67.466
-69.386
-73.575
-78.739
-82.885
-83.912
-81.772
-76.937
-68.58
-53.03
-24.387
23.901
96.969
193.924
310.679
440.157
570.914
692.086
790.634
852.724
867.691
827.424
731.501
587.78
411.829
226.738
55.53
-81.96
-173.361
-218.913
-225.192
-204.092
-170.516
-134.138
-104.263
-87.58
-83.566
-90.799
-103.402
-113.153
-117.731
-117.189
-113.969
-112.578
-113.695
-115.693
-117.077
-116.081
-112.448
-107.169
-101.002
-94.599
-88.559
-83.312
-79.09
-75.972
-73.871
-72.57
-71.934
-71.925
-72.467
-73.449
-74.772
-76.308
-77.948
-79.628
-81.261
-82.774
-84.122
-85.265
-86.179
-86.869
-87.346
-87.609
-87.652
-87.435
-86.889
-85.974
-84.675
-82.996
-80.966
-78.607
-75.938
-72.977
-69.744
-66.252
-62.508
-58.508
-54.238
-49.701
-44.908
-39.892
-34.708
-29.389
-23.959
-18.436
-12.832
-7.157
-1.427
4.352
10.177
16.034
21.907
27.779
33.633
39.463
45.266
51.039
56.784
62.495
68.169
73.814
79.431
85.023
90.601
96.177
101.774
107.429
113.165
118.992
124.905
130.883
136.913
142.985
149.086
155.197
161.281
167.295
173.196
178.939
184.463
189.685
194.492
198.762
202.397
205.323
207.489
208.859
209.39
209.038
207.767
205.559
202.411
198.33
193.317
187.378
180.55
172.907
164.561
155.638
146.244
136.472
126.406
116.123
105.718
95.29
84.932
74.733
64.776
55.14
45.916
37.189
29.021
21.441
14.443
8.014
2.145
-3.174
-7.952
-12.205
-15.969
-19.284
-22.195
-24.758
-27.025
-29.046
-30.883
-32.595
-34.227
-35.81
-37.358
-38.873
-40.363
-41.832
-43.281
-44.707
-46.095
-47.429
-48.687
-49.837
-50.854
-51.719
-52.41
-52.91
-53.209
-53.302
-53.191
-52.89
-52.41
-51.763
-50.963
-50.025
-48.967
-47.812
-46.584
-45.31
-44.013
-42.712
-41.422
-40.16
-38.934
-37.756
-36.629
-35.554
-34.532
-33.564
-32.651
-31.795
-30.994
-30.247
-29.55
-28.9
-28.293
-27.727
-27.201
-26.71
-26.253
-25.829
-25.437
-25.077
-24.747
-24.446
-24.173
-23.924
-23.698
-23.492
-23.305
-23.133
-22.976
-22.832
-22.7
-22.578
-22.466
-22.364
-22.27
-22.184
-22.107
-22.037
-21.976
-21.924
-21.881
-21.848
-21.828
-21.82
-21.828
-21.851
-21.893
-21.954
-22.036
-22.14
-22.27
-22.425
-22.608
-22.819
-23.061
-23.334
-23.639
-23.977
-24.347
-24.75
-25.186
-25.653
-26.152
-26.679
-27.235
-27.818
-28.424
-29.053
-29.701
-30.366
-31.045
-31.734
-32.43
-33.127
-33.822
-34.509
-35.184
-35.84
-36.472
-37.075
-37.641
-38.165
-38.64
-39.059
-39.417
-39.707
-39.921
-40.056
-40.103
-40.06
-39.92
-39.68
-39.336
-38.885
-38.324
-37.652
-36.867
-35.968
-34.957
-33.834
-32.6
-31.26
-29.816
-28.273
-26.638
-24.918
-23.12
-21.256
-19.334
-17.368
-15.369
-13.35
-11.327
-9.311
-7.317
-5.36
-3.455
-1.614
0.147
1.815
3.375
4.811
6.11
7.258
8.244
9.061
9.701
10.159
10.429
10.502
10.371
10.034
9.485
8.721
7.74
6.547
5.153
3.59
1.888
0.08
-1.802
-3.732
-5.68
-7.612
-9.496
-11.294
-12.967
-14.487
-15.82
-16.927
-17.783
-18.376
-18.727
-18.914
-19.022
-19.137
-19.34
-19.676
-20.213
-21.043
-22.237
-23.867
-26
-28.631
-31.839
-35.801
-40.507
-45.851
-51.562
-57.036
-61.76
-65.417
-67.455
-67.269
-64.77
-60.006
-53.493
-46.677
-40.69
-36.257
-34.619
-36.106
-39.12
-42.045
-42.47
-38.439
-31.571
-23.51
-13.347
2.96
32.825
84.48
162.026
263.219
382.559
510.724
635.333
743.508
820.924
853.344
831.701
755.149
629.166
467.025
288.118
111.496
-43.253
-159.188
-228.47
-251.197
-234.003
-190.374
-135.522
-81.647
-40.693
-20.311
-19.428
-34.232
-55.842
-72.617
-80.94
-80.049
-71.734
-63.073
-56.291
-51.592
-50.025
-48.534
-45.761
-42.315
-37.683
-33.148
-29.994
-28.116
-27.582
-28.194
-29.49
-31.358
-33.76
-36.516
-39.451
-42.427
-45.283
-47.878
-50.12
-51.924
-53.212
-53.955
-54.143
-53.772
-52.87
-51.476
-49.627
-47.358
-44.703
-41.69
-38.36
-34.769
-30.974
-27.037
-23.012
-18.939
-14.856
-10.793
-6.772
-2.801
1.118
4.985
8.791
12.513
16.128
19.625
23.006
26.288
29.484
32.607
35.675
38.708
41.745
44.824
47.97
51.203
54.544
58.014
61.653
65.513
69.631
74.036
78.744
83.757
89.088
94.745
100.729
107.039
113.648
120.524
127.639
134.959
142.445
150.05
157.709
165.343
172.886
180.273
187.434
194.308
200.821
206.892
212.441
217.379
221.629
225.129
227.822
229.664
230.63
230.693
229.845
228.097
225.45
221.915
217.509
212.249
206.162
199.302
191.728
183.516
174.759
165.537
155.92
145.98
135.776
125.377
114.847
104.236
93.606
83.028
72.574
62.33
52.375
42.764
33.55
24.771
16.446
8.597
1.248
-5.59
-11.902
-17.682
-22.932
-27.648
-31.839
-35.535
-38.778
-41.63
-44.153
-46.391
-48.388
-50.191
-51.831
-53.339
-54.741
-56.05
-57.278
-58.44
-59.543
-60.599
-61.609
-62.564
-63.444
-64.219
-64.862
-65.358
-65.693
-65.856
-65.838
-65.638
-65.262
-64.726
-64.046
-63.235
-62.308
-61.28
-60.168
-58.996
-57.788
-56.573
-55.375
-54.212
-53.102
-52.059
-51.095
-50.219
-49.433
-48.737
-48.13
-47.61
-47.177
-46.832
-46.569
-46.387
-46.278
-46.239
-46.264
-46.348
-46.487
-46.675
-46.909
-47.185
-47.498
-47.846
-48.225
-48.631
-49.06
-49.506
-49.966
-50.435
-50.909
-51.383
-51.854
-52.319
-52.775
-53.221
-53.654
-54.074
-54.48
-54.872
-55.251
-55.617
-55.971
-56.315
-56.649
-56.975
-57.296
-57.614
-57.929
-58.246
-58.567
-58.893
-59.229
-59.575
-59.935
-60.311
-60.704
-61.118
-61.553
-62.012
-62.495
-63.005
-63.541
-64.105
-64.697
-65.316
-65.961
-66.63
-67.321
-68.029
-68.751
-69.483
-70.219
-70.956
-71.69
-72.414
-73.126
-73.821
-74.494
-75.143
-75.76
-76.339
-76.873
-77.355
-77.778
-78.134
-78.416
-78.615
-78.724
-78.741
-78.66
-78.477
-78.185
-77.775
-77.242
-76.587
-75.809
-74.914
-73.905
-72.789
-71.579
-70.297
-68.962
-67.594
-66.206
-64.801
-63.386
-61.969
-60.559
-59.168
-57.798
-56.438
-55.084
-53.733
-52.382
-51.03
-49.659
-48.235
-46.733
-45.139
-43.452
-41.694
-39.881
-38.029
-36.16
-34.302
-32.501
-30.824
-29.325
-28.042
-27.014
-26.275
-25.88
-25.902
-26.393
-27.379
-28.856
-30.799
-33.18
-35.976
-39.146
-42.626
-46.334
-50.16
-54.009
-57.811
-61.495
-64.991
-68.217
-71.082
-73.517
-75.51
-77.099
-78.338
-79.29
-80.002
-80.509
-80.897
-81.277
-81.77
-82.489
-83.511
-84.871
-86.656
-89.035
-92.061
-95.685
-99.709
-103.662
-107.098
-109.698
-111.014
-110.5
-107.927
-103.285
-96.808
-89.535
-82.58
-76.693
-73.074
-72.323
-73.366
-74.871
-75.186
-73.137
-70.028
-67.269
-63.813
-54.831
-32.387
11.707
82.529
178.206
292.273
415.323
535.661
643.043
726.85
776.588
783.047
738.901
643.652
503.353
332.726
155.021
-7.087
-133.447
-211.817
-244.305
-239.495
-210.111
-171.138
-131.629
-99.151
-80.057
-74.708
-81.792
-95.854
-108.682
-116.849
-119.344
-118.103
-117.253
-117.469
-118.051
-118.13
-116.06
-111.825
-106.373
-100.289
-94.404
-89.422
-85.471
-82.599
-80.772
-79.748
-79.365
-79.538
-80.146
-81.046
-82.123
-83.262
-84.36
-85.371
-86.249
-86.947
-87.443
-87.718
-87.767
-87.603
-87.248
-86.711
-85.995
-85.082
-83.935
-82.532
-80.877
-78.989
-76.897
-74.626
-72.183
-69.566
-66.773
-63.801
-60.652
-57.313
-53.775
-50.042
-46.136
-42.111
-38.04
-33.966
-29.915
-25.899
-21.908
-17.936
-13.977
-10.015
-6.04
-2.045
1.98
6.032
10.114
14.251
18.474
22.833
27.392
32.186
37.243
42.585
48.205
54.098
60.251
66.634
73.239
80.072
87.121
94.378
101.821
109.4
117.073
124.788
132.478
140.088
147.554
154.807
161.801
168.494
174.828
180.753
186.176
190.988
195.112
198.478
201.036
202.762
203.621
203.578
202.62
200.741
197.937
194.223
189.598
184.058
177.64
170.4
162.437
153.878
144.821
135.354
125.565
115.528
105.33
95.071
84.831
74.692
64.752
55.097
45.823
37.035
28.792
21.129
14.054
7.547
1.601
-3.788
-8.635
-12.957
-16.775
-20.127
-23.048
-25.575
-27.781
-29.729
-31.484
-33.123
-34.694
-36.226
-37.745
-39.257
-40.764
-42.273
-43.78
-45.277
-46.762
-48.222
-49.641
-51.002
-52.266
-53.4
-54.38
-55.177
-55.776
-56.172
-56.358
-56.34
-56.133
-55.749
-55.203
-54.515
-53.698
-52.771
-51.753
-50.668
-49.543
-48.404
-47.269
-46.154
-45.074
-44.04
-43.06
-42.14
-41.279
-40.477
-39.734
-39.051
-38.428
-37.864
-37.358
-36.907
-36.507
-36.156
-35.85
-35.588
-35.368
-35.187
-35.044
-34.936
-34.863
-34.825
-34.818
-34.839
-34.885
-34.954
-35.042
-35.146
-35.264
-35.391
-35.527
-35.668
-35.813
-35.961
-36.11
-36.26
-36.408
-36.556
-36.702
-36.848
-36.993
-37.138
-37.283
-37.431
-37.582
-37.737
-37.898
-38.065
-38.24
-38.425
-38.622
-38.831
-39.055
-39.295
-39.552
-39.829
-40.127
-40.447
-40.791
-41.158
-41.55
-41.968
-42.411
-42.879
-43.372
-43.888
-44.427
-44.987
-45.566
-46.161
-46.77
-47.39
-48.016
-48.646
-49.276
-49.9
-50.514
-51.115
-51.695
-52.251
-52.778
-53.269
-53.719
-54.122
-54.473
-54.766
-54.995
-55.155
-55.24
-55.245
-55.166
-54.998
-54.738
-54.382
-53.928
-53.373
-52.717
-51.957
-51.096
-50.132
-49.07
-47.91
-46.658
-45.318
-43.897
-42.401
-40.839
-39.22
-37.555
-35.855
-34.131
-32.397
-30.666
-28.951
-27.265
-25.622
-24.036
-22.521
-21.092
-19.761
-18.543
-17.455
-16.509
-15.72
-15.099
-14.653
-14.39
-14.315
-14.436
-14.759
-15.292
-16.04
-17.004
-18.189
-19.594
-21.217
-23.042
-25.042
-27.185
-29.44
-31.774
-34.161
-36.573
-38.977
-41.338
-43.616
-45.772
-47.769
-49.574
-51.146
-52.455
-53.484
-54.247
-54.811
-55.251
-55.647
-56.065
-56.551
-57.165
-57.994
-59.117
-60.608
-62.548
-64.965
-67.938
-71.648
-76.101
-81.186
-86.674
-92.034
-96.768
-100.575
-102.93
-103.198
-101.299
-97.329
-91.658
-85.564
-80.039
-75.578
-73.407
-74.046
-76.045
-77.963
-77.825
-73.881
-67.487
-59.912
-49.684
-32.355
-1.41
49.583
123.929
218.917
329.628
449.069
566.759
672.64
755.285
802.188
803.855
754.708
655.578
515.236
350.146
182.052
31.613
-84.713
-158.381
-191.942
-192.758
-170.966
-138.668
-104.238
-75.969
-61.197
-61.13
-74.003
-93.114
-109.448
-119.237
-121.843
-120.02
-118.351
-117.686
-117.307
-116.175
-112.631
-106.722
-99.419
-91.342
-83.338
-76.102
-69.787
-64.484
-60.192
-56.704
-53.904
-51.738
-50.122
-48.97
-48.218
-47.801
-47.652
-47.714
-47.911
-48.138
-48.304
-48.343
-48.227
-47.944
-47.502
-46.909
-46.162
-45.27
-44.218
-42.968
-41.478
-39.703
-37.612
-35.208
-32.498
-29.498
-26.228
-22.698
-18.911
-14.867
-10.559
-5.974
-1.099
4.074
9.536
15.254
21.185
27.273
33.47
39.741
46.05
52.37
58.68
64.964
71.218
77.44
83.622
89.747
95.794
101.742
107.588
113.344
119.025
124.663
130.289
135.942
141.68
147.552
153.594
159.82
166.225
172.788
179.493
186.324
193.265
200.296
207.374
214.446
221.457
228.339
235.012
241.37
247.272
252.574
257.158
260.932
263.827
265.797
266.799
266.79
265.741
263.633
260.461
256.236
250.97
244.683
237.42
229.256
220.313
210.733
200.639
190.139
179.328
168.291
157.111
145.882
134.686
123.606
112.729
102.134
91.899
82.106
72.821
64.084
55.9
48.251
41.122
34.504
28.387
22.761
17.613
12.915
8.638
4.749
1.194
-2.076
-5.109
-7.961
-10.683
-13.311
-15.869
-18.363
-20.795
-23.167
-25.48
-27.737
-29.933
-32.06
-34.104
-36.047
-37.861
-39.521
-41.009
-42.304
-43.39
-44.259
-44.904
-45.332
-45.556
-45.59
-45.447
-45.141
-44.687
-44.106
-43.417
-42.644
-41.814
-40.949
-40.068
-39.188
-38.323
-37.485
-36.684
-35.924
-35.207
-34.532
-33.903
-33.32
-32.784
-32.295
-31.852
-31.451
-31.091
-30.77
-30.486
-30.237
-30.022
-29.841
-29.693
-29.578
-29.496
-29.447
-29.431
-29.444
-29.485
-29.553
-29.644
-29.756
-29.887
-30.035
-30.198
-30.373
-30.56
-30.757
-30.962
-31.174
-31.391
-31.614
-31.841
-32.071
-32.304
-32.541
-32.78
-33.021
-33.265
-33.512
-33.762
-34.014
-34.27
-34.527
-34.787
-35.05
-35.316
-35.585
-35.857
-36.133
-36.414
-36.699
-36.99
-37.287
-37.592
-37.906
-38.229
-38.563
-38.908
-39.267
-39.64
-40.028
-40.432
-40.854
-41.294
-41.752
-42.23
-42.727
-43.243
-43.78
-44.335
-44.908
-45.497
-46.1
-46.715
-47.341
-47.976
-48.616
-49.26
-49.905
-50.551
-51.194
-51.832
-52.462
-53.08
-53.681
-54.26
-54.812
-55.329
-55.805
-56.234
-56.606
-56.918
-57.163
-57.334
-57.422
-57.417
-57.312
-57.103
-56.79
-56.371
-55.85
-55.232
-54.527
-53.747
-52.908
-52.021
-51.096
-50.139
-49.156
-48.155
-47.141
-46.126
-45.113
-44.095
-43.065
-42.007
-40.906
-39.745
-38.5
-37.138
-35.634
-33.971
-32.142
-30.152
-28.011
-25.736
-23.349
-20.87
-18.335
-15.793
-13.3
-10.926
-8.742
-6.816
-5.221
-4.041
-3.345
-3.186
-3.601
-4.592
-6.145
-8.234
-10.82
-13.855
-17.282
-21.022
-24.981
-29.052
-33.119
-37.079
-40.828
-44.253
-47.257
-49.764
-51.729
-53.172
-54.151
-54.737
-55.01
-55.031
-54.879
-54.683
-54.584
-54.726
-55.254
-56.245
-57.804
-60.151
-63.378
-67.415
-72.052
-76.787
-81.093
-84.66
-87.07
-87.709
-86.302
-82.934
-78.032
-72.707
-68.09
-64.818
-63.576
-65.347
-69.877
-75.223
-79.112
-78.316
-71.042
-59.331
-44.321
-24.14
4.925
50.219
118.403
208.62
316.411
434.707
553.09
664.325
760.248
829.074
859.674
840.42
766.015
641.669
480.958
307.119
143.919
9.998
-82.097
-133.436
-151.759
-146.377
-129.607
-107.554
-84.959
-68.885
-61.04
-63.033
-73.215
-83.658
-90.829
-93.728
-93.03
-93.4
-96.169
-99.755
-102.986
-103.964
-102.164
-98.618
-94.073
-89.158
-84.548
-80.714
-77.901
-76.22
-75.569
-75.677
-76.365
-77.522
-78.985
-80.575
-82.148
-83.582
-84.801
-85.78
-86.462
-86.77
-86.681
-86.21
-85.399
-84.315
-83.018
-81.551
-79.967
-78.318
-76.639
-74.964
-73.307
-71.66
-70.013
-68.353
-66.673
-64.984
-63.275
-61.512
-59.653
-57.65
-55.461
-53.068
-50.452
-47.593
-44.489
-41.146
-37.594
-33.886
-30.076
-26.207
-22.309
-18.385
-14.438
-10.486
-6.546
-2.636
1.239
5.089
8.922
12.733
16.528
20.325
24.168
28.123
32.251
36.593
41.176
46.012
51.114
56.493
62.154
68.083
74.251
80.621
87.158
93.84
100.637
107.499
114.346
121.082
127.618
133.87
139.761
145.203
150.09
154.329
157.848
160.597
162.547
163.672
163.945
163.337
161.824
159.405
156.1
151.938
146.945
141.161
134.628
127.421
119.653
111.423
102.813
93.898
84.738
75.403
65.966
56.503
47.089
37.799
28.706
19.885
11.411
3.345
-4.252
-11.354
-17.962
-24.076
-29.695
-34.819
-39.447
-43.589
-47.263
-50.493
-53.307
-55.75
-57.878
-59.749
-61.419
-62.941
-64.365
-65.728
-67.052
-68.356
-69.648
-70.936
-72.225
-73.519
-74.813
-76.098
-77.363
-78.582
-79.723
-80.757
-81.661
-82.413
-82.997
-83.398
-83.61
-83.631
-83.473
-83.143
-82.651
-82.007
-81.223
-80.314
-79.299
-78.198
-77.037
-75.834
-74.606
-73.367
-72.128
-70.901
-69.692
-68.506
-67.341
-66.199
-65.08
-63.986
-62.918
-61.876
-60.859
-59.866
-58.895
-57.945
-57.015
-56.107
-55.221
-54.357
-53.518
-52.704
-51.919
-51.165
-50.443
-49.752
-49.095
-48.47
-47.879
-47.321
-46.797
-46.306
-45.848
-45.425
-45.035
-44.68
-44.359
-44.072
-43.818
-43.598
-43.411
-43.257
-43.134
-43.043
-42.983
-42.953
-42.952
-42.979
-43.033
-43.114
-43.218
-43.346
-43.497
-43.668
-43.86
-44.069
-44.297
-44.54
-44.798
-45.07
-45.354
-45.649
-45.955
-46.27
-46.592
-46.923
-47.26
-47.603
-47.951
-48.306
-48.665
-49.03
-49.4
-49.776
-50.156
-50.543
-50.935
-51.333
-51.737
-52.146
-52.561
-52.98
-53.402
-53.825
-54.247
-54.665
-55.079
-55.484
-55.878
-56.26
-56.627
-56.978
-57.311
-57.624
-57.914
-58.176
-58.408
-58.605
-58.762
-58.872
-58.93
-58.93
-58.865
-58.73
-58.52
-58.228
-57.848
-57.369
-56.785
-56.093
-55.294
-54.386
-53.376
-52.268
-51.073
-49.808
-48.487
-47.123
-45.729
-44.313
-42.883
-41.447
-40.014
-38.595
-37.195
-35.809
-34.427
-33.036
-31.619
-30.16
-28.634
-27.01
-25.261
-23.372
-21.336
-19.155
-16.84
-14.405
-11.871
-9.257
-6.596
-3.938
-1.341
1.121
3.376
5.355
6.985
8.182
8.881
9.03
8.605
7.607
6.05
3.959
1.372
-1.674
-5.116
-8.874
-12.854
-16.936
-21.004
-24.951
-28.665
-32.034
-34.965
-37.397
-39.321
-40.771
-41.805
-42.481
-42.849
-42.975
-42.969
-42.954
-43.07
-43.459
-44.226
-45.508
-47.519
-50.379
-54.04
-58.288
-62.701
-66.824
-70.352
-72.913
-73.927
-73.023
-70.309
-66.283
-61.866
-58.079
-55.456
-54.421
-55.98
-60.206
-65.365
-69.239
-68.914
-62.739
-52.276
-38.797
-21.098
4.904
45.381
105.885
188.533
290.11
405.159
526.427
644.214
749.758
833.157
882.84
888.605
842.647
743.424
598.432
424.806
246.568
86.82
-36.075
-112.937
-146.849
-146.038
-121.946
-87.819
-52.718
-25.291
-12.392
-14.468
-29.084
-49.147
-66.071
-76.686
-80.796
-81.347
-82.548
-84.844
-87.313
-88.83
-87.835
-84.437
-79.572
-73.835
-68.078
-63.033
-58.895
-55.756
-53.585
-52.141
-51.273
-50.916
-50.949
-51.227
-51.633
-52.07
-52.483
-52.886
-53.278
-53.614
-53.834
-53.89
-53.765
-53.479
-53.068
-52.558
-51.958
-51.274
-50.514
-49.692
-48.822
-47.898
-46.893
-45.756
-44.443
-42.936
-41.228
-39.317
-37.194
-34.833
-32.217
-29.347
-26.242
-22.93
-19.44
-15.781
-11.972
-8.039
-4.01
0.069
4.166
8.281
12.401
16.52
20.635
24.736
28.828
32.943
37.113
41.379
45.785
50.351
55.1
60.062
65.245
70.664
76.319
82.192
88.292
94.633
101.212
108.026
115.05
122.228
129.515
136.862
144.205
151.491
158.658
165.634
172.373
178.827
184.941
190.66
195.889
200.518
204.461
207.646
210.022
211.567
212.243
212.014
210.868
208.794
205.795
201.893
197.088
191.385
184.815
177.436
169.346
160.675
151.528
142.004
132.192
122.169
112.028
101.873
91.795
81.881
72.215
62.868
53.924
45.476
37.581
30.274
23.553
17.392
11.77
6.673
2.082
-2.024
-5.682
-8.941
-11.849
-14.46
-16.828
-18.998
-21.027
-22.98
-24.902
-26.823
-28.759
-30.704
-32.657
-34.619
-36.583
-38.543
-40.482
-42.374
-44.195
-45.914
-47.505
-48.949
-50.222
-51.305
-52.182
-52.846
-53.298
-53.551
-53.613
-53.496
-53.213
-52.776
-52.206
-51.523
-50.749
-49.911
-49.028
-48.116
-47.193
-46.27
-45.358
-44.467
-43.601
-42.76
-41.947
-41.163
-40.41
-39.69
-39.003
-38.349
-37.725
-37.13
-36.563
-36.022
-35.509
-35.021
-34.561
-34.127
-33.722
-33.347
-33.002
-32.688
-32.405
-32.151
-31.925
-31.728
-31.558
-31.413
-31.294
-31.2
-31.129
-31.083
-31.059
-31.058
-31.08
-31.122
-31.186
-31.269
-31.372
-31.494
-31.633
-31.79
-31.964
-32.154
-32.36
-32.581
-32.815
-33.063
-33.324
-33.598
-33.883
-34.181
-34.489
-34.809
-35.141
-35.483
-35.835
-36.199
-36.573
-36.957
-37.351
-37.756
-38.17
-38.594
-39.027
-39.47
-39.923
-40.386
-40.859
-41.344
-41.841
-42.35
-42.872
-43.408
-43.959
-44.526
-45.107
-45.704
-46.317
-46.944
-47.585
-48.238
-48.901
-49.571
-50.246
-50.925
-51.603
-52.278
-52.947
-53.609
-54.262
-54.902
-55.525
-56.128
-56.706
-57.255
-57.769
-58.243
-58.67
-59.043
-59.355
-59.601
-59.775
-59.868
-59.872
-59.775
-59.569
-59.252
-58.821
-58.276
-57.619
-56.854
-55.994
-55.053
-54.044
-52.979
-51.867
-50.713
-49.527
-48.322
-47.104
-45.887
-44.675
-43.463
-42.247
-41.019
-39.755
-38.436
-37.033
-35.507
-33.836
-32.005
-30.006
-27.844
-25.524
-23.054
-20.458
-17.757
-14.983
-12.181
-9.401
-6.704
-4.177
-1.899
0.045
1.561
2.578
3.04
2.903
2.152
0.79
-1.164
-3.676
-6.697
-10.181
-14.059
-18.249
-22.653
-27.146
-31.603
-35.908
-39.94
-43.589
-46.771
-49.418
-51.514
-53.107
-54.259
-55.052
-55.564
-55.848
-55.993
-56.125
-56.372
-56.879
-57.792
-59.19
-61.221
-64.129
-67.948
-72.575
-77.763
-82.907
-87.47
-91.141
-93.357
-93.439
-91.338
-87.189
-81.452
-75.595
-70.694
-67.24
-66.479
-68.849
-72.7
-76.432
-77.804
-74.742
-68.443
-59.835
-47.014
-25.164
12.55
72.209
156.212
260.648
379.256
504.61
626.774
736.759
824.478
877.712
885.504
839.887
739.364
591.555
414.118
231.708
67.856
-58.62
-138.196
-173.926
-173.819
-149.058
-113.024
-75.209
-45.152
-30.686
-32.662
-48.354
-69.736
-87.239
-97.247
-99.702
-98.162
-97.433
-98.182
-99.454
-99.954
-97.983
-93.671
-88.021
-81.656
-75.433
-70.073
-65.748
-62.555
-60.47
-59.248
-58.732
-58.836
-59.424
-60.342
-61.47
-62.697
-63.934
-65.138
-66.251
-67.206
-67.942
-68.414
-68.615
-68.553
-68.255
-67.748
-67.053
-66.204
-65.223
-64.12
-62.899
-61.545
-60.049
-58.409
-56.623
-54.676
-52.563
-50.274
-47.791
-45.105
-42.199
-39.053
-35.657
-32
-28.08
-23.905
-19.491
-14.865
-10.052
-5.075
0.043
5.276
10.602
15.998
21.442
26.912
32.39
37.857
43.303
48.722
54.105
59.445
64.735
69.97
75.154
80.294
85.397
90.47
95.528
100.592
105.697
110.881
116.172
121.578
127.093
132.702
138.397
144.17
150.01
155.897
161.793
167.655
173.442
179.102
184.565
189.738
194.498
198.713
202.278
205.116
207.171
208.395
208.732
208.132
206.555
203.981
200.412
195.849
190.291
183.757
176.302
168.015
159.029
149.484
139.501
129.184
118.626
107.925
97.194
86.543
76.077
65.882
56.036
46.624
37.739
29.455
21.811
14.819
8.449
2.672
-2.535
-7.194
-11.329
-14.976
-18.187
-21.018
-23.527
-25.764
-27.775
-29.613
-31.344
-33.018
-34.67
-36.314
-37.948
-39.57
-41.179
-42.774
-44.349
-45.889
-47.372
-48.771
-50.058
-51.211
-52.214
-53.048
-53.694
-54.14
-54.383
-54.426
-54.284
-53.97
-53.497
-52.878
-52.13
-51.274
-50.331
-49.327
-48.288
-47.235
-46.188
-45.161
-44.171
-43.227
-42.338
-41.508
-40.739
-40.03
-39.382
-38.797
-38.275
-37.814
-37.411
-37.063
-36.767
-36.519
-36.315
-36.152
-36.028
-35.941
-35.888
-35.867
-35.877
-35.917
-35.983
-36.073
-36.183
-36.311
-36.452
-36.604
-36.763
-36.927
-37.092
-37.256
-37.418
-37.575
-37.725
-37.868
-38.002
-38.125
-38.238
-38.341
-38.432
-38.513
-38.584
-38.645
-38.698
-38.742
-38.781
-38.814
-38.844
-38.871
-38.898
-38.928
-38.961
-39.002
-39.052
-39.114
-39.19
-39.282
-39.394
-39.526
-39.682
-39.864
-40.073
-40.313
-40.585
-40.891
-41.233
-41.614
-42.034
-42.496
-42.999
-43.546
-44.137
-44.772
-45.453
-46.178
-46.949
-47.765
-48.625
-49.526
-50.468
-51.448
-52.462
-53.507
-54.577
-55.667
-56.774
-57.891
-59.014
-60.138
-61.257
-62.367
-63.465
-64.546
-65.603
-66.631
-67.621
-68.567
-69.459
-70.29
-71.052
-71.734
-72.33
-72.832
-73.237
-73.54
-73.734
-73.811
-73.76
-73.577
-73.259
-72.807
-72.22
-71.502
-70.662
-69.714
-68.683
-67.585
-66.431
-65.227
-63.975
-62.674
-61.332
-59.951
-58.534
-57.084
-55.6
-54.085
-52.549
-50.99
-49.402
-47.764
-46.038
-44.208
-42.275
-40.249
-38.155
-36.023
-33.882
-31.775
-29.754
-27.865
-26.15
-24.642
-23.361
-22.342
-21.627
-21.27
-21.345
-21.9
-22.954
-24.509
-26.539
-29.004
-31.854
-35.018
-38.405
-41.93
-45.52
-49.103
-52.629
-56.031
-59.238
-62.174
-64.745
-66.883
-68.547
-69.734
-70.493
-70.9
-71.043
-71.02
-70.928
-70.878
-70.988
-71.367
-72.11
-73.3
-74.977
-77.23
-80.244
-84.069
-88.632
-93.714
-98.795
-103.363
-107.066
-109.413
-109.761
-107.846
-103.661
-97.478
-90.478
-83.895
-78.503
-75.521
-75.618
-77.762
-80.563
-82.139
-80.756
-77.016
-72.125
-65.378
-52.533
-26.62
20.452
94.988
196.363
319.683
456.309
593.024
717.364
815.751
874.346
882.34
832.092
724.044
566.924
378.252
183.699
7.748
-128.848
-213.647
-248.747
-242.715
-208.51
-162.473
-115.738
-78.53
-59.17
-57.935
-71.952
-93.144
-111.056
-121.683
-124.585
-122.953
-121.974
-122.53
-123.667
-124.103
-121.914
-117.114
-110.785
-103.639
-96.614
-90.449
-85.276
-81.151
-78.037
-75.703
-74.002
-72.849
-72.13
-71.725
-71.566
-71.63
-71.885
-72.306
-72.842
-73.39
-73.869
-74.234
-74.468
-74.572
-74.557
-74.425
-74.18
-73.848
-73.435
-72.927
-72.285
-71.436
-70.331
-68.954
-67.303
-65.388
-63.222
-60.796
-58.104
-55.147
-51.92
-48.422
-44.645
-40.569
-36.19
-31.52
-26.591
-21.462
-16.179
-10.77
-5.261
0.331
5.983
11.663
17.352
23.046
28.738
34.429
40.109
45.759
51.367
56.92
62.42
67.89
73.343
78.79
84.249
89.74
95.296
100.971
106.796
112.784
118.936
125.233
131.66
138.201
144.839
151.553
158.308
165.046
171.711
178.249
184.59
190.658
196.349
201.52
206.053
209.852
212.84
214.972
216.206
216.498
215.816
214.14
211.472
207.839
203.27
197.788
191.432
184.247
176.314
167.771
158.743
149.339
139.658
129.78
119.791
109.791
99.878
90.128
80.6
71.335
62.375
53.779
45.603
37.904
30.704
23.986
17.731
11.924
6.557
1.621
-2.912
-7.088
-10.964
-14.574
-17.937
-21.063
-23.965
-26.672
-29.222
-31.654
-33.986
-36.222
-38.36
-40.404
-42.363
-44.233
-46.001
-47.634
-49.093
-50.358
-51.422
-52.286
-52.949
-53.408
-53.655
-53.685
-53.504
-53.125
-52.555
-51.804
-50.879
-49.793
-48.571
-47.242
-45.842
-44.394
-42.919
-41.431
-39.945
-38.473
-37.031
-35.625
-34.26
-32.939
-31.669
-30.456
-29.308
-28.227
-27.213
-26.267
-25.384
-24.565
-23.807
-23.109
-22.471
-21.89
-21.366
-20.898
-20.487
-20.132
-19.833
-19.586
-19.388
-19.237
-19.128
-19.059
-19.025
-19.022
-19.048
-19.098
-19.17
-19.26
-19.367
-19.487
-19.618
-19.756
-19.9
-20.048
-20.198
-20.348
-20.496
-20.642
-20.784
-20.923
-21.058
-21.189
-21.316
-21.439
-21.56
-21.679
-21.797
-21.915
-22.034
-22.155
-22.279
-22.407
-22.542
-22.684
-22.835
-22.996
-23.17
-23.357
-23.56
-23.78
-24.017
-24.273
-24.549
-24.846
-25.164
-25.505
-25.869
-26.255
-26.665
-27.099
-27.555
-28.034
-28.534
-29.052
-29.588
-30.136
-30.694
-31.257
-31.821
-32.381
-32.935
-33.479
-34.007
-34.517
-35.006
-35.472
-35.91
-36.316
-36.683
-37.006
-37.28
-37.498
-37.653
-37.74
-37.751
-37.682
-37.532
-37.296
-36.971
-36.551
-36.029
-35.4
-34.665
-33.826
-32.886
-31.851
-30.729
-29.535
-28.294
-27.027
-25.753
-24.48
-23.211
-21.952
-20.711
-19.495
-18.31
-17.155
-16.021
-14.907
-13.814
-12.743
-11.687
-10.624
-9.52
-8.346
-7.096
-5.774
-4.4
-2.986
-1.549
-0.115
1.277
2.569
3.705
4.647
5.369
5.842
6.031
5.885
5.347
4.392
3.02
1.245
-0.906
-3.412
-6.24
-9.333
-12.611
-15.967
-19.306
-22.559
-25.667
-28.572
-31.215
-33.532
-35.487
-37.115
-38.467
-39.611
-40.604
-41.464
-42.249
-43.066
-44.031
-45.275
-46.919
-48.995
-51.583
-54.876
-58.89
-63.505
-68.475
-73.232
-77.269
-80.335
-81.971
-81.56
-79.009
-74.515
-68.584
-62.455
-57.097
-52.96
-50.963
-52.274
-56.192
-60.441
-62.666
-59.322
-49.549
-36.935
-22.29
-3.856
21.605
63.403
128.637
217.143
326.984
449.803
572.688
685.003
774.169
827.255
833.902
785.784
681.745
529.582
346.614
158.102
-11.755
-142.865
-223.972
-257.893
-253.06
-221.601
-178.38
-132.785
-93.705
-69.301
-60.742
-66.75
-81.034
-93.909
-101.213
-101.853
-98.137
-94.923
-93.148
-92.028
-90.554
-86.839
-80.82
-73.551
-65.666
-58.062
-51.496
-46.096
-41.929
-38.995
-37.07
-36.011
-35.755
-36.18
-37.155
-38.579
-40.327
-42.28
-44.359
-46.462
-48.503
-50.428
-52.198
-53.788
-55.187
-56.373
-57.319
-58.004
-58.403
-58.482
-58.2
-57.535
-56.488
-55.078
-53.345
-51.322
-49.023
-46.457
-43.628
-40.537
-37.185
-33.575
-29.707
-25.593
-21.251
-16.711
-12.017
-7.194
-2.26
2.777
7.915
13.153
18.478
23.88
29.35
34.867
40.414
45.976
51.535
57.085
62.62
68.138
73.642
79.13
84.598
90.048
95.482
100.898
106.308
111.726
117.169
122.665
128.234
133.878
139.595
145.372
151.188
157.031
162.878
168.696
174.448
180.088
185.561
190.817
195.789
200.387
204.523
208.098
211.025
213.243
214.703
215.364
215.2
214.18
212.28
209.498
205.838
201.31
195.943
189.766
182.818
175.177
166.925
158.152
148.953
139.406
129.587
119.568
109.425
99.233
89.077
79.04
69.19
59.597
50.318
41.41
32.933
24.915
17.377
10.331
3.776
-2.288
-7.859
-12.945
-17.567
-21.749
-25.537
-28.986
-32.138
-35.033
-37.71
-40.204
-42.563
-44.821
-47
-49.117
-51.18
-53.195
-55.172
-57.114
-59.01
-60.846
-62.596
-64.222
-65.701
-67.019
-68.16
-69.115
-69.869
-70.411
-70.743
-70.875
-70.814
-70.573
-70.159
-69.581
-68.86
-68.017
-67.079
-66.074
-65.026
-63.95
-62.864
-61.782
-60.714
-59.674
-58.665
-57.688
-56.746
-55.84
-54.975
-54.154
-53.376
-52.641
-51.947
-51.291
-50.671
-50.088
-49.539
-49.024
-48.541
-48.091
-47.675
-47.293
-46.945
-46.631
-46.349
-46.096
-45.872
-45.674
-45.5
-45.348
-45.217
-45.104
-45.008
-44.929
-44.866
-44.817
-44.783
-44.762
-44.755
-44.761
-44.78
-44.814
-44.862
-44.925
-45.004
-45.101
-45.216
-45.35
-45.504
-45.679
-45.876
-46.094
-46.336
-46.601
-46.89
-47.204
-47.544
-47.912
-48.307
-48.73
-49.182
-49.663
-50.173
-50.712
-51.28
-51.874
-52.496
-53.143
-53.816
-54.511
-55.228
-55.964
-56.717
-57.483
-58.26
-59.042
-59.826
-60.607
-61.379
-62.138
-62.88
-63.599
-64.292
-64.955
-65.583
-66.175
-66.725
-67.228
-67.679
-68.071
-68.397
-68.652
-68.828
-68.921
-68.924
-68.835
-68.65
-68.368
-67.987
-67.503
-66.913
-66.21
-65.392
-64.458
-63.411
-62.257
-61.008
-59.678
-58.284
-56.846
-55.379
-53.894
-52.398
-50.891
-49.372
-47.841
-46.301
-44.766
-43.246
-41.75
-40.284
-38.852
-37.448
-36.06
-34.671
-33.259
-31.814
-30.337
-28.843
-27.362
-25.93
-24.59
-23.378
-22.318
-21.434
-20.747
-20.274
-20.036
-20.063
-20.387
-21.048
-22.084
-23.511
-25.326
-27.503
-29.997
-32.752
-35.689
-38.738
-41.83
-44.905
-47.905
-50.783
-53.488
-55.961
-58.15
-60.003
-61.485
-62.615
-63.431
-63.996
-64.381
-64.648
-64.892
-65.232
-65.782
-66.644
-67.901
-69.582
-71.749
-74.573
-78.113
-82.29
-86.904
-91.491
-95.58
-98.883
-101.008
-101.356
-99.624
-95.869
-90.436
-84.326
-78.65
-74.093
-71.463
-71.94
-75.328
-79.688
-83
-82.195
-75.941
-67.263
-57.375
-44.544
-24.806
11.671
73.142
160.442
271.089
396.095
522.748
640.948
738.37
802.702
823.304
790.025
700.514
560.481
384.612
197.423
23.206
-116.112
-205.956
-246.598
-244.578
-212.376
-167.038
-120.038
-82.587
-63.083
-60.861
-72.853
-91.083
-105.471
-112.935
-113.549
-110.317
-108.275
-108.163
-108.886
-109.304
-107.571
-103.597
-98.386
-92.601
-87.106
-82.635
-79.33
-77.179
-76.102
-75.82
-76.125
-76.912
-78.032
-79.293
-80.549
-81.677
-82.566
-83.181
-83.479
-83.383
-82.856
-81.886
-80.496
-78.762
-76.759
-74.544
-72.175
-69.696
-67.146
-64.572
-62.022
-59.526
-57.113
-54.791
-52.549
-50.385
-48.288
-46.237
-44.199
-42.122
-39.959
-37.692
-35.311
-32.818
-30.209
-27.467
-24.569
-21.499
-18.245
-14.794
-11.161
-7.353
-3.383
0.723
4.945
9.261
13.663
18.172
22.818
27.637
32.651
37.859
43.248
48.811
54.524
60.353
66.289
72.324
78.47
84.768
91.241
97.897
104.728
111.693
118.743
125.818
132.865
139.845
146.72
153.445
159.991
166.34
172.454
178.283
183.742
188.703
193.061
196.727
199.631
201.731
202.999
203.409
202.948
201.605
199.369
196.252
192.255
187.374
181.631
175.049
167.698
159.699
151.153
142.161
132.819
123.202
113.388
103.462
93.5
83.582
73.795
64.203
54.876
45.892
37.309
29.196
21.591
14.488
7.89
1.792
-3.817
-8.938
-13.577
-17.766
-21.534
-24.917
-27.972
-30.737
-33.247
-35.549
-37.678
-39.684
-41.605
-43.452
-45.236
-46.963
-48.632
-50.253
-51.828
-53.342
-54.776
-56.109
-57.303
-58.338
-59.202
-59.876
-60.351
-60.612
-60.65
-60.467
-60.075
-59.483
-58.706
-57.753
-56.636
-55.376
-53.998
-52.528
-50.998
-49.429
-47.841
-46.253
-44.679
-43.133
-41.628
-40.169
-38.76
-37.403
-36.103
-34.863
-33.689
-32.58
-31.536
-30.556
-29.638
-28.78
-27.983
-27.245
-26.563
-25.939
-25.37
-24.858
-24.402
-24.002
-23.655
-23.36
-23.114
-22.914
-22.758
-22.641
-22.56
-22.512
-22.494
-22.503
-22.538
-22.595
-22.673
-22.769
-22.881
-23.007
-23.147
-23.297
-23.458
-23.626
-23.803
-23.986
-24.175
-24.37
-24.571
-24.778
-24.991
-25.21
-25.437
-25.671
-25.913
-26.163
-26.423
-26.694
-26.975
-27.269
-27.575
-27.896
-28.232
-28.586
-28.958
-29.349
-29.759
-30.19
-30.643
-31.116
-31.612
-32.13
-32.67
-33.232
-33.817
-34.425
-35.054
-35.704
-36.374
-37.062
-37.766
-38.482
-39.206
-39.934
-40.663
-41.389
-42.108
-42.816
-43.508
-44.183
-44.837
-45.468
-46.07
-46.638
-47.166
-47.649
-48.079
-48.45
-48.754
-48.985
-49.135
-49.2
-49.178
-49.065
-48.855
-48.541
-48.115
-47.572
-46.911
-46.132
-45.234
-44.223
-43.107
-41.902
-40.631
-39.311
-37.955
-36.568
-35.151
-33.707
-32.24
-30.754
-29.251
-27.733
-26.199
-24.649
-23.093
-21.53
-19.95
-18.333
-16.639
-14.85
-12.966
-10.998
-8.968
-6.906
-4.837
-2.801
-0.85
0.969
2.613
4.045
5.246
6.182
6.809
7.07
6.895
6.236
5.086
3.456
1.374
-1.119
-3.976
-7.131
-10.489
-13.962
-17.472
-20.948
-24.34
-27.589
-30.624
-33.361
-35.721
-37.651
-39.152
-40.275
-41.084
-41.659
-42.078
-42.408
-42.773
-43.303
-44.111
-45.302
-46.952
-49.092
-51.813
-55.305
-59.602
-64.617
-70.102
-75.511
-80.337
-84.243
-86.753
-87.264
-85.547
-81.624
-75.815
-69.316
-63.311
-58.519
-56.055
-56.426
-58.483
-60.804
-61.593
-59.349
-54.877
-49.117
-40.785
-25.178
4.875
56.304
133.135
232.806
348.865
473.026
594.811
704.857
792.93
847.701
858.724
817.58
723.382
583.09
412.248
235.143
74.443
-52.121
-133.443
-172.758
-178.889
-160.336
-129.552
-94.014
-59.991
-37.859
-30.922
-38.901
-57.497
-75.896
-88.537
-94.265
-94.731
-95.123
-96.98
-99.346
-101.155
-100.526
-97.267
-92.436
-86.728
-81.026
-76.095
-72.117
-69.185
-67.271
-66.121
-65.57
-65.518
-65.828
-66.362
-67.005
-67.66
-68.28
-68.852
-69.35
-69.733
-69.941
-69.936
-69.717
-69.3
-68.722
-68.018
-67.206
-66.313
-65.373
-64.399
-63.402
-62.375
-61.281
-60.094
-58.796
-57.358
-55.771
-54.023
-52.087
-49.943
-47.57
-44.945
-42.061
-38.91
-35.474
-31.751
-27.745
-23.472
-18.976
-14.295
-9.456
-4.497
0.559
5.685
10.843
16.009
21.172
26.319
31.451
36.565
41.647
46.688
51.676
56.611
61.514
66.4
71.281
76.177
81.111
86.117
91.25
96.545
102.016
107.665
113.471
119.413
125.481
131.659
137.93
144.26
150.597
156.891
163.092
169.14
174.956
180.436
185.438
189.843
193.56
196.517
198.673
199.991
200.426
199.937
198.501
196.112
192.782
188.526
183.352
177.282
170.365
162.692
154.396
145.605
136.425
126.95
117.255
107.426
97.56
87.754
78.097
68.659
59.503
50.696
42.312
34.429
27.098
20.331
14.11
8.41
3.214
-1.49
-5.712
-9.485
-12.85
-15.86
-18.567
-21.009
-23.22
-25.241
-27.118
-28.91
-30.661
-32.388
-34.095
-35.782
-37.448
-39.099
-40.735
-42.338
-43.886
-45.349
-46.694
-47.904
-48.966
-49.865
-50.588
-51.116
-51.439
-51.559
-51.486
-51.23
-50.802
-50.211
-49.468
-48.594
-47.615
-46.555
-45.444
-44.3
-43.142
-41.985
-40.842
-39.726
-38.648
-37.611
-36.616
-35.666
-34.764
-33.913
-33.115
-32.369
-31.674
-31.027
-30.426
-29.868
-29.353
-28.878
-28.442
-28.044
-27.684
-27.361
-27.076
-26.829
-26.618
-26.441
-26.296
-26.179
-26.09
-26.024
-25.979
-25.953
-25.941
-25.942
-25.955
-25.977
-26.006
-26.04
-26.077
-26.117
-26.156
-26.195
-26.232
-26.265
-26.295
-26.319
-26.338
-26.352
-26.358
-26.359
-26.352
-26.338
-26.318
-26.29
-26.256
-26.215
-26.168
-26.116
-26.058
-25.997
-25.932
-25.865
-25.797
-25.729
-25.662
-25.597
-25.536
-25.479
-25.428
-25.385
-25.351
-25.327
-25.314
-25.315
-25.331
-25.363
-25.413
-25.481
-25.57
-25.679
-25.81
-25.963
-26.136
-26.33
-26.543
-26.774
-27.022
-27.284
-27.561
-27.849
-28.147
-28.454
-28.769
-29.09
-29.414
-29.736
-30.055
-30.366
-30.664
-30.944
-31.201
-31.428
-31.619
-31.771
-31.876
-31.928
-31.919
-31.838
-31.679
-31.437
-31.112
-30.703
-30.212
-29.645
-29.01
-28.325
-27.6
-26.847
-26.073
-25.284
-24.488
-23.695
-22.912
-22.149
-21.412
-20.693
-19.988
-19.286
-18.565
-17.804
-16.973
-16.034
-14.961
-13.741
-12.362
-10.829
-9.145
-7.319
-5.372
-3.328
-1.213
0.925
3.04
5.073
6.938
8.557
9.849
10.72
11.103
10.944
10.198
8.854
6.919
4.413
1.377
-2.141
-6.093
-10.408
-15.005
-19.787
-24.626
-29.402
-34.004
-38.317
-42.236
-45.685
-48.602
-50.979
-52.876
-54.367
-55.543
-56.492
-57.268
-57.967
-58.717
-59.647
-60.903
-62.622
-64.87
-67.774
-71.558
-76.238
-81.702
-87.69
-93.594
-98.871
-103.21
-106.05
-106.722
-105.172
-101.514
-96.158
-90.498
-85.549
-81.77
-80.405
-81.926
-84.679
-87.022
-86.749
-81.841
-73.705
-63.844
-50.833
-30.224
4.691
60.746
141.44
244.032
363.215
491.626
618.055
730.599
816.787
862.402
856.665
796.65
684.858
532.816
360.871
189.475
38.985
-74.605
-145.855
-176.794
-175.046
-152.416
-120.415
-88.207
-64.431
-54.59
-58.986
-74.902
-95.017
-111.649
-122.115
-126.416
-127.623
-129.449
-132.049
-134.456
-135.533
-133.933
-129.889
-124.35
-117.931
-111.459
-105.654
-100.726
-96.779
-93.794
-91.548
-89.912
-88.837
-88.209
-87.902
-87.829
-87.916
-88.145
-88.543
-89.08
-89.692
-90.301
-90.827
-91.236
-91.532
-91.723
-91.824
-91.844
-91.79
-91.684
-91.544
-91.366
-91.122
-90.753
-90.185
-89.38
-88.321
-87.001
-85.428
-83.585
-81.454
-79.026
-76.296
-73.255
-69.9
-66.211
-62.17
-57.786
-53.087
-48.127
-42.97
-37.661
-32.237
-26.732
-21.178
-15.606
-10.042
-4.491
1.052
6.579
12.08
17.535
22.921
28.238
33.497
38.718
43.925
49.147
54.413
59.766
65.259
70.923
76.773
82.805
88.998
95.335
101.804
108.383
115.045
121.748
128.436
135.051
141.532
147.798
153.755
159.289
164.275
168.62
172.245
175.088
177.105
178.256
178.505
177.836
176.246
173.735
170.322
166.03
160.894
154.977
148.353
141.111
133.352
125.159
116.609
107.785
98.759
89.6
80.38
71.16
62.002
52.986
44.175
35.621
27.372
19.452
11.886
4.705
-2.073
-8.431
-14.354
-19.846
-24.903
-29.521
-33.71
-37.485
-40.875
-43.937
-46.712
-49.227
-51.51
-53.576
-55.451
-57.177
-58.78
-60.279
-61.69
-63.018
-64.275
-65.475
-66.619
-67.695
-68.682
-69.542
-70.25
-70.798
-71.177
-71.385
-71.415
-71.252
-70.895
-70.353
-69.634
-68.747
-67.703
-66.504
-65.166
-63.711
-62.167
-60.564
-58.926
-57.27
-55.611
-53.962
-52.338
-50.749
-49.203
-47.699
-46.242
-44.833
-43.478
-42.182
-40.946
-39.768
-38.646
-37.58
-36.566
-35.606
-34.698
-33.84
-33.033
-32.276
-31.571
-30.918
-30.318
-29.769
-29.27
-28.819
-28.412
-28.049
-27.726
-27.439
-27.185
-26.962
-26.767
-26.597
-26.451
-26.324
-26.215
-26.122
-26.043
-25.975
-25.916
-25.866
-25.822
-25.783
-25.747
-25.714
-25.681
-25.648
-25.613
-25.575
-25.533
-25.485
-25.432
-25.371
-25.304
-25.229
-25.147
-25.058
-24.963
-24.863
-24.758
-24.651
-24.542
-24.433
-24.324
-24.219
-24.118
-24.022
-23.934
-23.855
-23.787
-23.732
-23.691
-23.666
-23.66
-23.673
-23.708
-23.766
-23.849
-23.959
-24.096
-24.263
-24.46
-24.688
-24.949
-25.242
-25.566
-25.92
-26.303
-26.713
-27.146
-27.6
-28.073
-28.56
-29.058
-29.565
-30.078
-30.593
-31.106
-31.613
-32.109
-32.587
-33.041
-33.464
-33.85
-34.19
-34.475
-34.7
-34.857
-34.941
-34.945
-34.86
-34.676
-34.384
-33.982
-33.468
-32.841
-32.105
-31.264
-30.325
-29.305
-28.218
-27.076
-25.893
-24.672
-23.415
-22.129
-20.822
-19.505
-18.181
-16.843
-15.481
-14.086
-12.65
-11.163
-9.61
-7.96
-6.188
-4.283
-2.238
-0.071
2.197
4.547
6.958
9.402
11.841
14.217
16.461
18.519
20.334
21.854
23.021
23.754
23.988
23.681
22.813
21.4
19.47
17.049
14.174
10.898
7.287
3.435
-0.55
-4.581
-8.571
-12.437
-16.091
-19.424
-22.349
-24.813
-26.801
-28.364
-29.567
-30.478
-31.171
-31.711
-32.189
-32.743
-33.51
-34.609
-36.146
-38.169
-40.772
-44.168
-48.432
-53.462
-59.009
-64.527
-69.485
-73.564
-76.318
-77.108
-75.635
-71.971
-66.55
-60.507
-55.016
-50.799
-48.645
-49.62
-53.36
-57.748
-60.578
-58.659
-50.688
-39.502
-25.975
-8.107
18.566
63.687
134.227
229.783
345.965
472.208
596.774
711.146
805.324
870.174
895.729
871.085
793.045
665.715
501.798
324.076
155.255
13.773
-86.972
-145.128
-166.481
-157.698
-129.132
-91.476
-53.085
-24.946
-14.623
-21.802
-42.221
-66.399
-85.24
-96.037
-99.667
-99.761
-99.828
-100.389
-100.747
-99.771
-96.566
-91.532
-85.506
-79.318
-73.921
-69.686
-66.602
-64.617
-63.473
-62.983
-63.07
-63.586
-64.375
-65.327
-66.322
-67.286
-68.205
-69.028
-69.7
-70.183
-70.414
-70.376
-70.092
-69.577
-68.862
-67.973
-66.913
-65.703
-64.375
-62.945
-61.436
-59.854
-58.175
-56.39
-54.493
-52.465
-50.314
-48.031
-45.588
-42.982
-40.213
-37.296
-34.272
-31.167
-27.983
-24.729
-21.406
-18.016
-14.58
-11.096
-7.549
-3.932
-0.231
3.557
7.422
11.369
15.418
19.602
23.977
28.587
33.448
38.57
43.949
49.565
55.4
61.419
67.56
73.78
80.043
86.33
92.646
98.998
105.382
111.779
118.144
124.425
130.586
136.597
142.439
148.101
153.577
158.864
163.976
168.919
173.674
178.197
182.408
186.202
189.477
192.159
194.189
195.535
196.164
196.036
195.115
193.369
190.768
187.289
182.902
177.572
171.303
164.135
156.142
147.45
138.178
128.431
118.311
107.906
97.303
86.607
75.915
65.319
54.923
44.823
35.121
25.933
17.34
9.389
2.106
-4.528
-10.532
-15.916
-20.705
-24.925
-28.602
-31.782
-34.511
-36.833
-38.821
-40.537
-42.05
-43.439
-44.761
-46.054
-47.347
-48.648
-49.96
-51.289
-52.631
-53.975
-55.316
-56.637
-57.916
-59.137
-60.258
-61.249
-62.084
-62.732
-63.178
-63.416
-63.438
-63.251
-62.867
-62.297
-61.557
-60.667
-59.64
-58.496
-57.257
-55.944
-54.587
-53.211
-51.835
-50.478
-49.153
-47.871
-46.642
-45.471
-44.359
-43.306
-42.315
-41.386
-40.52
-39.72
-38.983
-38.308
-37.692
-37.135
-36.633
-36.188
-35.796
-35.458
-35.172
-34.938
-34.757
-34.629
-34.551
-34.522
-34.539
-34.599
-34.701
-34.841
-35.015
-35.222
-35.457
-35.719
-36.004
-36.312
-36.639
-36.982
-37.341
-37.711
-38.093
-38.483
-38.88
-39.283
-39.69
-40.1
-40.513
-40.928
-41.343
-41.759
-42.174
-42.588
-43.001
-43.413
-43.824
-44.235
-44.644
-45.054
-45.465
-45.878
-46.295
-46.716
-47.143
-47.577
-48.018
-48.467
-48.927
-49.396
-49.878
-50.372
-50.879
-51.401
-51.94
-52.495
-53.068
-53.66
-54.271
-54.902
-55.553
-56.224
-56.914
-57.625
-58.355
-59.104
-59.871
-60.655
-61.454
-62.266
-63.089
-63.918
-64.75
-65.581
-66.406
-67.22
-68.021
-68.804
-69.564
-70.299
-71.005
-71.68
-72.318
-72.916
-73.468
-73.968
-74.41
-74.788
-75.095
-75.324
-75.469
-75.523
-75.485
-75.349
-75.113
-74.77
-74.313
-73.735
-73.039
-72.226
-71.301
-70.269
-69.138
-67.921
-66.642
-65.319
-63.974
-62.62
-61.26
-59.901
-58.551
-57.221
-55.922
-54.655
-53.409
-52.178
-50.962
-49.754
-48.553
-47.339
-46.077
-44.745
-43.328
-41.825
-40.256
-38.635
-36.973
-35.295
-33.627
-32.02
-30.54
-29.238
-28.152
-27.325
-26.794
-26.609
-26.837
-27.509
-28.637
-30.217
-32.223
-34.631
-37.418
-40.534
-43.909
-47.455
-51.061
-54.638
-58.113
-61.402
-64.438
-67.15
-69.481
-71.442
-73.072
-74.423
-75.55
-76.485
-77.274
-78.012
-78.807
-79.776
-81.043
-82.669
-84.754
-87.504
-90.992
-95.161
-99.811
-104.429
-108.501
-111.699
-113.563
-113.476
-111.2
-106.773
-100.556
-93.788
-87.712
-83.083
-80.992
-82.089
-85.503
-89.787
-92.856
-92.714
-89.659
-84.955
-78.293
-65.67
-39.849
7.507
82.47
183.8
305.672
439.026
572.055
694.884
796.187
863.846
886.887
855.321
766.737
626.878
450.44
260.902
82.067
-65.035
-166.196
-218.502
-226.153
-199.196
-152.642
-101.391
-59.554
-37.671
-37.447
-53.83
-76.959
-96.034
-106.796
-109.93
-109.096
-109.213
-111.094
-113.5
-115.125
-114.145
-110.508
-105.223
-98.975
-92.73
-87.325
-82.955
-79.672
-77.426
-75.947
-75.08
-74.766
-74.862
-75.215
-75.707
-76.231
-76.737
-77.213
-77.619
-77.903
-78.001
-77.866
-77.501
-76.924
-76.171
-75.279
-74.267
-73.16
-71.989
-70.769
-69.507
-68.2
-66.811
-65.319
-63.709
-61.953
-60.046
-57.978
-55.722
-53.257
-50.563
-47.615
-44.404
-40.923
-37.157
-33.106
-28.779
-24.19
-19.377
-14.376
-9.211
-3.915
1.49
6.984
12.536
18.12
23.718
29.312
34.894
40.464
46.01
51.527
57.01
62.45
67.855
73.243
78.625
84.013
89.427
94.886
100.431
106.112
111.964
118.006
124.246
130.667
137.257
144.002
150.882
157.88
164.96
172.063
179.136
186.121
192.942
199.516
205.728
211.428
216.497
220.833
224.352
227.005
228.744
229.525
229.316
228.092
225.84
222.577
218.32
213.088
206.926
199.884
192.055
183.576
174.566
165.132
155.379
145.383
135.223
124.991
114.766
104.629
94.668
84.946
75.529
66.486
57.869
49.735
42.111
34.985
28.349
22.198
16.517
11.308
6.565
2.262
-1.626
-5.134
-8.313
-11.199
-13.826
-16.237
-18.465
-20.555
-22.541
-24.432
-26.235
-27.953
-29.589
-31.149
-32.64
-34.049
-35.364
-36.564
-37.617
-38.507
-39.222
-39.748
-40.076
-40.195
-40.097
-39.787
-39.279
-38.585
-37.718
-36.691
-35.513
-34.208
-32.799
-31.312
-29.778
-28.219
-26.654
-25.101
-23.576
-22.093
-20.663
-19.295
-17.989
-16.749
-15.58
-14.484
-13.466
-12.526
-11.663
-10.874
-10.158
-9.513
-8.936
-8.425
-7.979
-7.596
-7.273
-7.01
-6.808
-6.664
-6.575
-6.54
-6.556
-6.618
-6.724
-6.87
-7.053
-7.27
-7.517
-7.791
-8.091
-8.413
-8.755
-9.115
-9.49
-9.879
-10.279
-10.69
-11.11
-11.537
-11.971
-12.411
-12.856
-13.308
-13.765
-14.228
-14.698
-15.175
-15.66
-16.153
-16.656
-17.169
-17.693
-18.228
-18.775
-19.335
-19.908
-20.495
-21.097
-21.713
-22.346
-22.994
-23.658
-24.338
-25.033
-25.745
-26.471
-27.212
-27.968
-28.738
-29.521
-30.317
-31.124
-31.942
-32.768
-33.6
-34.436
-35.272
-36.104
-36.929
-37.741
-38.536
-39.31
-40.059
-40.778
-41.465
-42.114
-42.724
-43.29
-43.809
-44.276
-44.687
-45.036
-45.316
-45.523
-45.651
-45.695
-45.653
-45.52
-45.293
-44.972
-44.553
-44.036
-43.414
-42.682
-41.833
-40.871
-39.798
-38.622
-37.357
-36.015
-34.608
-33.155
-31.671
-30.164
-28.639
-27.093
-25.518
-23.918
-22.302
-20.686
-19.09
-17.517
-15.973
-14.459
-12.967
-11.491
-10.022
-8.536
-7.021
-5.486
-3.95
-2.459
-1.067
0.189
1.283
2.199
2.927
3.445
3.73
3.765
3.521
2.972
2.083
0.8
-0.916
-3.066
-5.629
-8.536
-11.7
-15.054
-18.536
-22.093
-25.679
-29.238
-32.714
-36.063
-39.23
-42.164
-44.8
-47.049
-48.846
-50.163
-51.021
-51.517
-51.771
-51.891
-51.972
-52.079
-52.292
-52.716
-53.437
-54.533
-56.078
-58.084
-60.653
-64.004
-68.151
-72.993
-78.243
-83.257
-87.481
-90.592
-92.037
-91.211
-88.051
-82.647
-75.597
-68.471
-62.48
-58.346
-57.246
-59.423
-63.301
-67.339
-69.073
-66.322
-60.059
-51.065
-38.099
-17.252
17.946
74.027
154.048
255.12
371.843
496.118
616.956
723.834
804.112
844.193
834.16
768.531
649.098
486.559
299.164
110.574
-55.944
-181.701
-257.145
-285.134
-274.593
-238.182
-190.351
-141.217
-100.871
-77.675
-72.535
-82.838
-100.379
-114.795
-122.099
-121.984
-117.662
-114.07
-112.007
-110.525
-108.483
-104.216
-97.843
-90.449
-82.695
-75.422
-69.298
-64.431
-60.862
-58.568
-57.324
-56.978
-57.473
-58.678
-60.445
-62.661
-65.183
-67.878
-70.666
-73.439
-76.104
-78.607
-80.891
-82.921
-84.679
-86.118
-87.197
-87.886
-88.14
-87.939
-87.279
-86.163
-84.617
-82.685
-80.412
-77.848
-75.032
-71.981
-68.704
-65.207
-61.487
-57.567
-53.48
-49.252
-44.92
-40.512
-36.046
-31.548
-27.039
-22.513
-17.947
-13.322
-8.618
-3.839
0.995
5.872
10.778
15.722
20.718
25.775
30.892
36.074
41.332
46.691
52.186
57.822
63.578
69.444
75.422
81.545
87.859
94.386
101.127
108.067
115.184
122.458
129.88
137.423
145.044
152.676
160.241
167.679
174.953
181.998
188.722
194.995
200.67
205.637
209.821
213.162
215.609
217.115
217.631
217.127
215.597
213.047
209.49
204.934
199.382
192.861
185.446
177.256
168.43
159.088
149.318
139.204
128.832
118.29
107.665
97.037
86.476
76.057
65.873
56.018
46.584
37.652
29.261
21.413
14.096
7.298
1.018
-4.746
-10.006
-14.78
-19.086
-22.947
-26.386
-29.44
-32.182
-34.678
-36.994
-39.198
-41.325
-43.399
-45.435
-47.44
-49.418
-51.375
-53.306
-55.204
-57.068
-58.89
-60.661
-62.36
-63.946
-65.385
-66.649
-67.707
-68.547
-69.16
-69.541
-69.693
-69.629
-69.361
-68.903
-68.272
-67.479
-66.539
-65.47
-64.291
-63.032
-61.715
-60.359
-58.982
-57.597
-56.215
-54.847
-53.498
-52.17
-50.862
-49.578
-48.319
-47.087
-45.886
-44.717
-43.578
-42.471
-41.396
-40.355
-39.348
-38.378
-37.446
-36.556
-35.708
-34.908
-34.158
-33.458
-32.811
-32.216
-31.675
-31.186
-30.751
-30.369
-30.038
-29.76
-29.532
-29.356
-29.229
-29.152
-29.122
-29.139
-29.202
-29.309
-29.46
-29.653
-29.887
-30.161
-30.474
-30.825
-31.212
-31.635
-32.091
-32.577
-33.093
-33.636
-34.203
-34.792
-35.401
-36.028
-36.67
-37.327
-37.996
-38.675
-39.363
-40.058
-40.759
-41.462
-42.168
-42.874
-43.579
-44.28
-44.978
-45.671
-46.358
-47.036
-47.706
-48.364
-49.009
-49.639
-50.249
-50.837
-51.399
-51.932
-52.432
-52.898
-53.326
-53.714
-54.062
-54.366
-54.626
-54.84
-55.004
-55.115
-55.169
-55.161
-55.085
-54.938
-54.716
-54.415
-54.032
-53.566
-53.016
-52.381
-51.658
-50.845
-49.934
-48.923
-47.811
-46.602
-45.303
-43.923
-42.48
-40.989
-39.471
-37.942
-36.412
-34.887
-33.366
-31.849
-30.332
-28.819
-27.32
-25.844
-24.4
-22.992
-21.622
-20.283
-18.959
-17.633
-16.28
-14.888
-13.457
-12.001
-10.545
-9.126
-7.788
-6.569
-5.498
-4.596
-3.882
-3.373
-3.088
-3.056
-3.309
-3.878
-4.794
-6.064
-7.682
-9.624
-11.847
-14.289
-16.87
-19.51
-22.138
-24.696
-27.139
-29.423
-31.507
-33.34
-34.885
-36.119
-37.051
-37.731
-38.22
-38.592
-38.919
-39.274
-39.767
-40.529
-41.669
-43.279
-45.421
-48.09
-51.362
-55.397
-60.166
-65.533
-71.18
-76.493
-80.972
-84.329
-86.063
-85.625
-82.947
-78.048
-71.439
-64.529
-58.4
-53.769
-51.761
-52.479
-54.29
-55.745
-54.587
-49.113
-40.904
-30.894
-17.837
2.008
35.367
88.891
165.131
261.619
373.76
493.362
609.964
712.17
784.305
810.969
781.362
691.88
549.798
372.276
183.031
6.482
-136.822
-233.977
-282.615
-288.149
-260.96
-214.279
-161.423
-114.067
-81.611
-69.006
-74.009
-89.777
-107.593
-119.874
-124.502
-123.269
-119.324
-115.636
-112.865
-110.22
-106.71
-101.599
-95.201
-88.337
-81.858
-76.611
-72.865
-70.519
-69.434
-69.349
-70.082
-71.552
-73.588
-75.972
-78.542
-81.133
-83.609
-85.885
-87.845
-89.382
-90.434
-90.953
-90.931
-90.393
-89.356
-87.841
-85.871
-83.454
-80.611
-77.395
-73.855
-70.054
-66.065
-61.943
-57.751
-53.544
-49.354
-45.209
-41.127
-37.108
-33.153
-29.264
-25.45
-21.738
-18.163
-14.736
-11.455
-8.302
-5.249
-2.274
0.65
3.555
6.478
9.459
12.531
15.709
19.005
22.436
26.036
29.858
33.964
38.398
43.174
48.29
53.743
59.535
65.654
72.08
78.777
85.701
92.842
100.2
107.772
115.543
123.465
131.469
139.479
147.435
155.294
163.016
170.548
177.829
184.814
191.459
197.733
203.591
208.941
213.673
217.696
220.939
223.36
224.941
225.664
225.503
224.435
222.446
219.535
215.715
210.99
205.362
198.845
191.478
183.354
174.591
165.296
155.56
145.466
135.088
124.505
113.811
103.091
92.433
81.926
71.651
61.694
52.146
43.09
34.58
26.636
19.252
12.421
6.139
0.4
-4.806
-9.496
-13.708
-17.476
-20.844
-23.872
-26.616
-29.13
-31.477
-33.715
-35.888
-38.026
-40.143
-42.241
-44.327
-46.403
-48.466
-50.512
-52.522
-54.476
-56.351
-58.109
-59.721
-61.165
-62.415
-63.452
-64.262
-64.836
-65.178
-65.299
-65.21
-64.924
-64.455
-63.818
-63.034
-62.127
-61.122
-60.048
-58.929
-57.784
-56.631
-55.486
-54.359
-53.262
-52.2
-51.174
-50.184
-49.233
-48.323
-47.455
-46.629
-45.844
-45.096
-44.385
-43.707
-43.061
-42.445
-41.859
-41.3
-40.768
-40.262
-39.782
-39.328
-38.896
-38.485
-38.092
-37.714
-37.347
-36.989
-36.636
-36.286
-35.937
-35.586
-35.232
-34.875
-34.514
-34.148
-33.777
-33.402
-33.024
-32.644
-32.264
-31.885
-31.509
-31.139
-30.775
-30.421
-30.079
-29.751
-29.439
-29.147
-28.878
-28.635
-28.42
-28.238
-28.091
-27.983
-27.917
-27.895
-27.922
-27.999
-28.13
-28.316
-28.559
-28.862
-29.225
-29.647
-30.128
-30.668
-31.264
-31.912
-32.609
-33.35
-34.131
-34.947
-35.793
-36.664
-37.555
-38.462
-39.38
-40.305
-41.229
-42.146
-43.048
-43.925
-44.769
-45.571
-46.321
-47.009
-47.626
-48.166
-48.623
-48.991
-49.262
-49.429
-49.48
-49.409
-49.214
-48.894
-48.447
-47.879
-47.196
-46.415
-45.559
-44.646
-43.687
-42.69
-41.655
-40.583
-39.482
-38.353
-37.201
-36.025
-34.823
-33.597
-32.356
-31.098
-29.813
-28.481
-27.063
-25.538
-23.91
-22.187
-20.391
-18.548
-16.681
-14.827
-13.037
-11.358
-9.835
-8.501
-7.373
-6.484
-5.876
-5.604
-5.733
-6.299
-7.296
-8.711
-10.517
-12.677
-15.153
-17.88
-20.766
-23.727
-26.685
-29.577
-32.361
-34.982
-37.371
-39.461
-41.184
-42.526
-43.538
-44.277
-44.81
-45.195
-45.464
-45.701
-46.035
-46.577
-47.431
-48.684
-50.351
-52.518
-55.375
-58.927
-63.075
-67.565
-71.82
-75.355
-77.903
-78.966
-77.98
-74.934
-69.969
-63.553
-57.087
-51.595
-47.575
-46.294
-48.244
-51.863
-55.713
-57.845
-56.208
-52.353
-47.529
-39.108
-22.532
9.466
63.739
140.39
234.515
338.885
444.743
545.571
635.379
706.238
748.595
750.599
703.359
605.063
461.938
291.233
116.789
-38.857
-156.751
-227.341
-253.675
-243.69
-209.19
-164.252
-118.459
-81.458
-61.106
-57.863
-68.976
-86.534
-100.714
-107.78
-107.545
-103.246
-99.72
-97.899
-96.997
-95.919
-93.07
-88.524
-83.244
-77.809
-72.955
-69.228
-66.653
-65.189
-64.693
-64.859
-65.463
-66.376
-67.455
-68.546
-69.523
-70.259
-70.649
-70.655
-70.253
-69.413
-68.123
-66.385
-64.227
-61.719
-58.961
-56.046
-53.053
-50.044
-47.063
-44.159
-41.393
-38.813
-36.442
-34.278
-32.281
-30.421
-28.687
-27.058
-25.508
-24
-22.468
-20.865
-19.178
-17.388
-15.475
-13.403
-11.108
-8.54
-5.688
-2.562
0.804
4.379
8.161
12.139
16.291
20.602
25.054
29.649
34.434
39.434
44.643
50.036
55.55
61.123
66.738
72.387
78.067
83.791
89.559
95.389
101.332
107.418
113.648
119.999
126.401
132.796
139.158
145.475
151.754
157.999
164.179
170.26
176.216
181.995
187.526
192.706
197.382
201.427
204.761
207.324
209.097
210.062
210.183
209.422
207.754
205.157
201.621
197.144
191.708
185.324
178.044
169.961
161.221
151.954
142.256
132.214
121.905
111.403
100.796
90.173
79.606
69.174
58.974
49.101
39.659
30.742
22.4
14.651
7.483
0.881
-5.153
-10.621
-15.537
-19.917
-23.784
-27.167
-30.091
-32.597
-34.759
-36.645
-38.329
-39.885
-41.356
-42.772
-44.156
-45.52
-46.874
-48.231
-49.588
-50.942
-52.294
-53.635
-54.958
-56.244
-57.453
-58.55
-59.509
-60.302
-60.918
-61.349
-61.589
-61.643
-61.525
-61.246
-60.82
-60.266
-59.594
-58.82
-57.964
-57.045
-56.093
-55.131
-54.176
-53.246
-52.351
-51.5
-50.701
-49.957
-49.264
-48.619
-48.022
-47.469
-46.96
-46.492
-46.063
-45.667
-45.301
-44.958
-44.637
-44.334
-44.046
-43.77
-43.504
-43.246
-42.996
-42.753
-42.515
-42.28
-42.044
-41.808
-41.567
-41.32
-41.064
-40.799
-40.521
-40.232
-39.931
-39.617
-39.292
-38.955
-38.61
-38.257
-37.898
-37.536
-37.173
-36.811
-36.454
-36.104
-35.763
-35.435
-35.123
-34.829
-34.557
-34.309
-34.089
-33.898
-33.74
-33.617
-33.531
-33.485
-33.48
-33.517
-33.599
-33.727
-33.902
-34.125
-34.396
-34.715
-35.08
-35.491
-35.946
-36.44
-36.97
-37.531
-38.121
-38.733
-39.364
-40.008
-40.662
-41.32
-41.979
-42.635
-43.282
-43.913
-44.521
-45.098
-45.637
-46.13
-46.567
-46.94
-47.241
-47.465
-47.609
-47.666
-47.632
-47.499
-47.257
-46.9
-46.429
-45.841
-45.137
-44.322
-43.403
-42.396
-41.325
-40.206
-39.052
-37.868
-36.654
-35.412
-34.146
-32.858
-31.552
-30.227
-28.882
-27.52
-26.149
-24.767
-23.364
-21.918
-20.389
-18.757
-17.019
-15.185
-13.275
-11.318
-9.341
-7.385
-5.502
-3.736
-2.128
-0.711
0.497
1.463
2.143
2.483
2.408
1.871
0.851
-0.651
-2.608
-4.977
-7.708
-10.726
-13.936
-17.256
-20.606
-23.922
-27.152
-30.228
-33.081
-35.634
-37.793
-39.493
-40.699
-41.412
-41.696
-41.633
-41.318
-40.854
-40.336
-39.871
-39.582
-39.567
-39.919
-40.721
-41.99
-43.832
-46.451
-49.852
-53.938
-58.43
-62.708
-66.277
-68.854
-69.904
-68.85
-65.621
-60.267
-53.352
-46.351
-40.328
-35.888
-34.15
-35.35
-37.859
-40.145
-39.886
-34.849
-26.668
-16.907
-3.801
16.279
50.771
107.776
188.225
288.346
401.101
515.707
623.721
715.923
781.39
810.023
792.111
724.946
612.375
464.758
300.177
137.129
-5.928
-113.297
-178.549
-202.821
-193.193
-161.88
-121.126
-80.737
-50.045
-34.465
-33.763
-44.58
-58.975
-69.352
-73.545
-72.154
-68.608
-66.495
-65.788
-65.404
-64.223
-61.107
-56.416
-51.081
-45.642
-40.772
-37.023
-34.495
-33.191
-32.999
-33.625
-34.867
-36.634
-38.782
-41.157
-43.632
-46.056
-48.305
-50.306
-51.967
-53.214
-54.005
-54.3
-54.101
-53.444
-52.372
-50.94
-49.189
-47.123
-44.76
-42.129
-39.263
-36.216
-33.037
-29.761
-26.436
-23.111
-19.817
-16.588
-13.433
-10.337
-7.3
-4.322
-1.41
1.403
4.112
6.732
9.272
11.749
14.181
16.581
18.984
21.45
24.015
26.705
29.544
32.544
35.743
39.199
42.955
47.043
51.477
56.243
61.345
66.79
72.566
78.661
85.045
91.67
98.528
105.626
112.953
120.489
128.181
135.946
143.725
151.478
159.167
166.763
174.213
181.453
188.442
195.142
201.505
207.48
212.959
217.818
221.965
225.326
227.859
229.551
230.366
230.259
229.202
227.173
224.168
220.204
215.277
209.385
202.556
194.851
186.378
177.276
167.657
157.623
147.263
136.65
125.882
115.063
104.284
93.638
83.206
73.061
63.289
53.982
45.2
36.974
29.301
22.152
15.505
9.347
3.658
-1.579
-6.398
-10.844
-14.963
-18.804
-22.416
-25.842
-29.134
-32.35
-35.533
-38.708
-41.887
-45.059
-48.219
-51.364
-54.487
-57.577
-60.615
-63.576
-66.43
-69.146
-71.696
-74.057
-76.207
-78.124
-79.792
-81.203
-82.357
-83.266
-83.941
-84.391
-84.63
-84.672
-84.535
-84.243
-83.82
-83.293
-82.683
-82.011
-81.293
-80.546
-79.784
-79.017
-78.253
-77.496
-76.749
-76.019
-75.31
-74.626
-73.972
-73.348
-72.756
-72.197
-71.672
-71.182
-70.729
-70.315
-69.943
-69.613
-69.329
-69.093
-68.907
-68.772
-68.687
-68.651
-68.664
-68.722
-68.826
-68.972
-69.159
-69.383
-69.643
-69.937
-70.262
-70.616
-70.995
-71.396
-71.818
-72.255
-72.707
-73.169
-73.64
-74.117
-74.597
-75.078
-75.558
-76.034
-76.505
-76.967
-77.418
-77.857
-78.281
-78.688
-79.077
-79.447
-79.796
-80.125
-80.434
-80.722
-80.989
-81.237
-81.464
-81.673
-81.864
-82.038
-82.196
-82.339
-82.468
-82.587
-82.695
-82.795
-82.887
-82.972
-83.052
-83.125
-83.192
-83.252
-83.304
-83.348
-83.382
-83.407
-83.422
-83.426
-83.422
-83.407
-83.382
-83.345
-83.293
-83.222
-83.129
-83.01
-82.86
-82.672
-82.441
-82.162
-81.831
-81.446
-81.002
-80.491
-79.905
-79.236
-78.485
-77.648
-76.729
-75.729
-74.652
-73.509
-72.318
-71.095
-69.858
-68.616
-67.368
-66.117
-64.868
-63.625
-62.396
-61.18
-59.961
-58.73
-57.482
-56.209
-54.905
-53.548
-52.102
-50.536
-48.832
-46.987
-45.022
-42.955
-40.799
-38.579
-36.325
-34.084
-31.928
-29.912
-28.08
-26.477
-25.142
-24.138
-23.544
-23.419
-23.796
-24.677
-26.036
-27.844
-30.08
-32.696
-35.632
-38.801
-42.091
-45.409
-48.678
-51.823
-54.772
-57.434
-59.711
-61.536
-62.893
-63.824
-64.395
-64.676
-64.726
-64.603
-64.4
-64.246
-64.275
-64.599
-65.325
-66.51
-68.264
-70.802
-74.164
-78.262
-82.873
-87.47
-91.556
-94.833
-96.766
-96.691
-94.51
-90.305
-84.443
-78.228
-72.657
-68.228
-66.174
-67.042
-69.393
-71.733
-71.969
-68.163
-61.55
-53.504
-42.801
-25.252
5.677
57.069
133.112
231.849
348.393
474.264
597.261
706.152
789.22
836.18
839.811
794.987
702.34
567.765
404.385
233.954
77.795
-45.955
-125.52
-163.707
-169.23
-151.263
-122.554
-90.075
-59.183
-39.072
-32.465
-39.437
-56.624
-74.137
-86.818
-93.305
-94.649
-95.587
-97.515
-99.546
-100.824
-99.599
-95.703
-90.215
-83.845
-77.485
-71.919
-67.348
-63.883
-61.537
-60.092
-59.405
-59.41
-60.02
-61.152
-62.753
-64.75
-67.063
-69.634
-72.378
-75.191
-77.979
-80.666
-83.205
-85.57
-87.756
-89.764
-91.589
-93.222
-94.637
-95.779
-96.597
-97.067
-97.18
-96.948
-96.393
-95.532
-94.386
-92.979
-91.328
-89.442
-87.319
-84.951
-82.334
-79.478
-76.404
-73.152
-69.756
-66.237
-62.614
-58.896
-55.091
-51.211
-47.261
-43.244
-39.167
-35.043
-30.883
-26.702
-22.503
-18.286
-14.05
-9.789
-5.508
-1.208
3.118
7.477
11.875
16.327
20.848
25.463
30.216
35.141
40.26
45.583
51.094
56.781
62.626
68.612
74.722
80.925
87.167
93.398
99.563
105.594
111.418
116.932
122
126.505
130.348
133.451
135.769
137.257
137.874
137.588
136.371
134.216
131.144
127.174
122.331
116.652
110.177
102.989
95.216
86.973
78.371
69.505
60.449
51.285
42.1
32.982
24.02
15.284
6.822
-1.312
-9.062
-16.376
-23.194
-29.49
-35.28
-40.577
-45.398
-49.758
-53.656
-57.115
-60.173
-62.872
-65.267
-67.395
-69.278
-70.945
-72.429
-73.766
-75.007
-76.182
-77.295
-78.352
-79.356
-80.309
-81.223
-82.091
-82.891
-83.595
-84.17
-84.595
-84.865
-84.971
-84.905
-84.658
-84.214
-83.572
-82.741
-81.728
-80.544
-79.196
-77.69
-76.041
-74.275
-72.417
-70.496
-68.534
-66.545
-64.544
-62.544
-60.555
-58.589
-56.65
-54.74
-52.859
-51.013
-49.202
-47.433
-45.705
-44.016
-42.364
-40.745
-39.159
-37.604
-36.079
-34.582
-33.112
-31.671
-30.258
-28.876
-27.525
-26.204
-24.913
-23.65
-22.414
-21.203
-20.017
-18.852
-17.708
-16.584
-15.478
-14.389
-13.319
-12.264
-11.227
-10.204
-9.197
-8.205
-7.228
-6.266
-5.318
-4.385
-3.466
-2.562
-1.672
-0.798
0.062
0.906
1.736
2.549
3.347
4.129
4.896
5.646
6.38
7.097
7.798
8.481
9.147
9.796
10.426
11.038
11.631
12.206
12.761
13.298
13.814
14.312
14.789
15.246
15.683
16.099
16.494
16.866
17.217
17.546
17.853
18.137
18.401
18.645
18.872
19.082
19.278
19.463
19.638
19.805
19.966
20.123
20.278
20.431
20.584
20.74
20.902
21.074
21.259
21.463
21.689
21.943
22.231
22.558
22.928
23.344
23.811
24.335
24.925
25.587
26.322
27.131
28.012
28.962
29.974
31.039
32.141
33.264
34.393
35.516
36.627
37.723
38.799
39.845
40.854
41.822
42.757
43.673
44.577
45.482
46.398
47.342
48.347
49.441
50.641
51.955
53.371
54.871
56.44
58.059
59.701
61.328
62.884
64.299
65.519
66.491
67.163
67.479
67.359
66.738
65.575
63.846
61.565
58.755
55.443
51.664
47.473
42.941
38.164
33.253
28.3
23.396
18.628
14.087
9.886
6.114
2.83
0.057
-2.238
-4.107
-5.609
-6.81
-7.779
-8.601
-9.409
-10.346
-11.527
-13.064
-15.021
-17.499
-20.7
-24.711
-29.453
-34.701
-39.983
-44.816
-48.881
-51.768
-52.876
-51.858
-48.757
-43.964
-38.475
-33.395
-29.421
-27.222
-27.778
-30.967
-35.022
-37.874
-36.533
-29.463
-18.29
-3.773
15.361
43.149
86.132
149.646
235.043
338.922
455.558
577.785
696.498
801.621
881.409
921.789
911.592
846.857
729.823
573.275
398.401
226.54
79.068
-28.995
-94.109
-119.79
-115.235
-92.514
-61.655
-30.75
-7.847
1.9
-2.358
-18.12
-37.79
-53.768
-63.403
-66.845
-67.493
-69.038
-71.543
-74.022
-75.282
-74.045
-70.608
-65.888
-60.468
-55.133
-50.538
-46.864
-44.193
-42.47
-41.456
-41.008
-41.055
-41.477
-42.129
-42.906
-43.728
-44.563
-45.441
-46.345
-47.213
-47.981
-48.593
-49.042
-49.348
-49.54
-49.646
-49.685
-49.677
-49.65
-49.635
-49.637
-49.643
-49.606
-49.454
-49.142
-48.648
-47.963
-47.082
-45.983
-44.637
-43.023
-41.131
-38.955
-36.488
-33.715
-30.618
-27.198
-23.473
-19.486
-15.3
-10.96
-6.5
-1.949
2.668
7.319
11.972
16.612
21.235
25.846
30.44
35.006
39.524
43.98
48.369
52.703
57.007
61.297
65.59
69.912
74.297
78.798
83.46
88.304
93.333
98.528
103.872
109.356
114.971
120.702
126.531
132.417
138.316
144.188
149.975
155.597
160.948
165.886
170.272
174.007
177.008
179.221
180.601
181.092
180.648
179.241
176.84
173.43
168.999
163.527
157.026
149.551
141.188
132.074
122.352
112.134
101.528
90.631
79.537
68.349
57.171
46.089
35.204
24.633
14.485
4.885
-4.069
-12.33
-19.87
-26.698
-32.84
-38.308
-43.119
-47.304
-50.889
-53.907
-56.404
-58.414
-59.997
-61.241
-62.233
-63.062
-63.806
-64.51
-65.208
-65.925
-66.668
-67.444
-68.256
-69.092
-69.947
-70.818
-71.695
-72.567
-73.41
-74.178
-74.834
-75.347
-75.69
-75.855
-75.837
-75.631
-75.246
-74.698
-74.003
-73.185
-72.261
-71.243
-70.15
-69.002
-67.82
-66.637
-65.476
-64.356
-63.292
-62.294
-61.373
-60.534
-59.78
-59.107
-58.513
-57.993
-57.545
-57.169
-56.864
-56.623
-56.444
-56.318
-56.243
-56.214
-56.226
-56.277
-56.361
-56.476
-56.618
-56.786
-56.977
-57.187
-57.413
-57.648
-57.891
-58.136
-58.38
-58.618
-58.848
-59.065
-59.268
-59.455
-59.623
-59.77
-59.894
-59.995
-60.071
-60.12
-60.143
-60.138
-60.105
-60.044
-59.955
-59.837
-59.692
-59.52
-59.32
-59.092
-58.839
-58.559
-58.255
-57.926
-57.576
-57.205
-56.815
-56.409
-55.989
-55.557
-55.116
-54.668
-54.216
-53.761
-53.305
-52.852
-52.403
-51.961
-51.528
-51.106
-50.699
-50.308
-49.937
-49.588
-49.262
-48.963
-48.692
-48.451
-48.243
-48.068
-47.929
-47.827
-47.765
-47.743
-47.762
-47.822
-47.923
-48.064
-48.243
-48.457
-48.704
-48.98
-49.282
-49.606
-49.95
-50.309
-50.68
-51.061
-51.448
-51.837
-52.223
-52.6
-52.961
-53.298
-53.604
-53.871
-54.091
-54.257
-54.362
-54.4
-54.369
-54.262
-54.075
-53.8
-53.427
-52.951
-52.372
-51.685
-50.895
-50.007
-49.031
-47.986
-46.893
-45.766
-44.616
-43.451
-42.269
-41.074
-39.869
-38.653
-37.434
-36.216
-35.004
-33.806
-32.629
-31.469
-30.316
-29.149
-27.94
-26.68
-25.372
-24.022
-22.657
-21.301
-19.99
-18.774
-17.694
-16.785
-16.082
-15.604
-15.374
-15.428
-15.799
-16.527
-17.645
-19.163
-21.075
-23.368
-26.007
-28.947
-32.123
-35.441
-38.815
-42.171
-45.439
-48.563
-51.484
-54.141
-56.485
-58.495
-60.189
-61.608
-62.812
-63.849
-64.762
-65.622
-66.545
-67.674
-69.144
-71.071
-73.505
-76.535
-80.366
-85.053
-90.484
-96.384
-102.17
-107.282
-111.4
-114.079
-114.69
-113.024
-109.238
-103.843
-98.125
-93.322
-90.131
-89.393
-92.144
-97.842
-104.326
-109.258
-108.99
-101.792
-90.004
-73.922
-51.857
-20.554
28.598
101.925
199.34
318.344
449.635
580.432
700.033
795.503
855.391
870.84
834.087
744.54
608.615
440.468
262.28
96.244
-38.136
-128.649
-175.485
-184.642
-167.359
-137.942
-105.728
-80.101
-67.932
-68.773
-81.042
-98.533
-112.694
-120.979
-123.431
-122.612
-123.21
-126.104
-129.816
-132.932
-133.688
-131.786
-128.192
-123.638
-118.785
-114.267
-110.487
-107.645
-105.808
-104.876
-104.63
-104.943
-105.723
-106.813
-108.053
-109.303
-110.451
-111.449
-112.262
-112.827
-113.08
-112.97
-112.497
-111.698
-110.611
-109.281
-107.737
-106.003
-104.112
-102.104
-100.001
-97.815
-95.546
-93.176
-90.709
-88.151
-85.505
-82.774
-79.942
-76.993
-73.915
-70.708
-67.375
-63.93
-60.396
-56.788
-53.129
-49.449
-45.775
-42.14
-38.563
-35.058
-31.628
-28.272
-24.98
-21.727
-18.49
-15.231
-11.907
-8.474
-4.867
-1.036
3.053
7.434
12.13
17.161
22.543
28.291
34.401
40.871
47.695
54.843
62.295
70.011
77.932
85.995
94.118
102.23
110.276
118.205
125.967
133.514
140.79
147.74
154.312
160.434
166.014
170.974
175.227
178.71
181.389
183.237
184.242
184.387
183.654
182.027
179.492
176.037
171.656
166.345
160.122
153.046
145.213
136.73
127.717
118.274
108.487
98.446
88.237
77.948
67.672
57.496
47.52
37.858
28.626
19.94
11.891
4.521
-2.15
-8.128
-13.432
-18.074
-22.068
-25.444
-28.231
-30.458
-32.167
-33.396
-34.207
-34.689
-34.932
-35.025
-35.046
-35.035
-35.028
-35.046
-35.099
-35.193
-35.33
-35.497
-35.689
-35.903
-36.129
-36.356
-36.558
-36.691
-36.714
-36.594
-36.306
-35.84
-35.188
-34.347
-33.323
-32.131
-30.788
-29.314
-27.726
-26.036
-24.261
-22.418
-20.53
-18.627
-16.73
-14.858
-13.026
-11.242
-9.514
-7.849
-6.247
-4.703
-3.213
-1.771
-0.374
0.979
2.291
3.565
4.806
6.017
7.2
8.355
9.483
10.586
11.664
12.718
13.748
14.751
15.724
16.666
17.572
18.439
19.262
20.035
20.752
21.412
22.014
22.56
23.046
23.47
23.822
24.092
24.263
24.319
24.241
24.01
23.615
23.053
22.325
21.443
20.412
19.241
17.932
16.479
14.881
13.143
11.282
9.327
7.328
5.348
3.454
1.722
0.211
-1.031
-1.973
-2.599
-2.898
-2.862
-2.474
-1.708
-0.541
1.036
3.007
5.312
7.854
10.511
13.151
15.638
17.839
19.616
20.848
21.433
21.292
20.375
18.592
15.793
11.935
7.135
1.703
