Name
Date of Birth,"Mar 27, 1959"
Recorded Date,2019-12-05 21:41:39 -0500
Classification,Sinus Rhythm
Symptoms,
Software Version,1.50
Device,"Watch4,2"
Sample Rate,510.227 hertz


Lead,Lead I
Unit,µV

-28.905
-31.629
-34.367
-37.104
-39.829
-42.528
-45.189
-47.799
-50.346
-52.819
-55.207
-57.5
-59.69
-61.768
-63.727
-65.561
-67.264
-68.832
-70.26
-71.545
-72.684
-73.675
-74.515
-75.203
-75.737
-76.117
-76.341
-76.41
-76.323
-76.079
-75.679
-75.125
-74.416
-73.554
-72.541
-71.38
-70.075
-68.628
-67.042
-65.32
-63.463
-61.475
-59.357
-57.11
-54.735
-52.23
-49.596
-46.836
-43.947
-40.931
-37.785
-34.505
-31.09
-27.545
-23.875
-20.088
-16.194
-12.205
-8.141
-4.026
0.12
4.278
8.433
12.575
16.689
20.762
24.782
28.736
32.615
36.426
40.171
43.861
47.52
51.168
54.84
58.584
62.426
66.389
70.483
74.702
79.042
83.497
88.04
92.645
97.279
101.891
106.434
110.854
115.061
118.97
122.486
125.491
127.895
129.622
130.599
130.789
130.159
128.684
126.373
123.246
119.318
114.624
109.197
103.072
96.338
89.085
81.409
73.441
65.289
57.058
48.87
40.812
32.956
25.367
18.082
11.124
4.536
-1.653
-7.407
-12.684
-17.489
-21.834
-25.724
-29.202
-32.303
-35.071
-37.578
-39.876
-41.99
-43.949
-45.757
-47.414
-48.939
-50.347
-51.653
-52.89
-54.063
-55.178
-56.245
-57.256
-58.194
-59.039
-59.743
-60.273
-60.615
-60.757
-60.698
-60.446
-59.996
-59.349
-58.512
-57.48
-56.255
-54.842
-53.239
-51.457
-49.512
-47.425
-45.228
-42.951
-40.616
-38.24
-35.839
-33.425
-31.011
-28.608
-26.221
-23.859
-21.532
-19.25
-17.024
-14.862
-12.77
-10.753
-8.81
-6.944
-5.156
-3.447
-1.82
-0.277
1.18
2.546
3.819
4.994
6.07
7.045
7.92
8.696
9.374
9.956
10.445
10.844
11.156
11.384
11.532
11.603
11.602
11.532
11.399
11.206
10.96
10.664
10.322
9.94
9.52
9.067
8.583
8.071
7.534
6.973
6.392
5.792
5.173
4.539
3.89
3.231
2.561
1.882
1.194
0.498
-0.204
-0.914
-1.634
-2.365
-3.113
-3.878
-4.663
-5.468
-6.297
-7.15
-8.029
-8.934
-9.862
-10.813
-11.788
-12.792
-13.831
-14.903
-16.005
-17.127
-18.262
-19.405
-20.549
-21.681
-22.79
-23.864
-24.902
-25.91
-26.898
-27.864
-28.802
-29.697
-30.532
-31.3
-32.003
-32.64
-33.211
-33.716
-34.162
-34.569
-34.967
-35.372
-35.779
-36.168
-36.515
-36.808
-37.047
-37.234
-37.374
-37.459
-37.476
-37.419
-37.282
-37.046
-36.683
-36.141
-35.35
-34.268
-32.876
-31.172
-29.169
-26.874
-24.288
-21.425
-18.302
-14.949
-11.406
-7.708
-3.893
-0.025
3.819
7.537
10.999
14.102
16.765
18.91
20.484
21.442
21.737
21.344
20.256
18.473
16.02
12.936
9.267
5.086
0.485
-4.43
-9.518
-14.654
-19.722
-24.604
-29.204
-33.439
-37.226
-40.499
-43.212
-45.332
-46.876
-47.915
-48.529
-48.827
-48.911
-48.869
-48.837
-48.961
-49.381
-50.239
-51.645
-53.654
-56.385
-60.046
-64.685
-70.213
-76.354
-82.491
-88.038
-92.586
-95.548
-96.21
-94.323
-89.934
-83.462
-76.373
-70.099
-65.49
-63.99
-66.188
-70.598
-75.775
-79.702
-80.755
-80.744
-80.175
-75.727
-60.375
-22.881
44.324
140.977
259.542
387.199
513.608
632.979
741.04
832.43
897.733
922.345
893.208
805.083
659.734
471.708
265.142
64.67
-104.181
-224.274
-292.04
-312.145
-295.943
-257.309
-207.71
-156.698
-114.993
-90.831
-86.523
-99.85
-121.359
-139.833
-150.488
-152.548
-149.482
-146.688
-145.284
-144.46
-143.135
-139.631
-134.082
-127.67
-121.139
-115.313
-110.77
-107.513
-105.457
-104.49
-104.361
-104.904
-106.036
-107.625
-109.527
-111.642
-113.883
-116.168
-118.444
-120.628
-122.642
-124.445
-126.026
-127.402
-128.6
-129.634
-130.501
-131.19
-131.698
-132.019
-132.141
-132.041
-131.684
-131.051
-130.15
-128.998
-127.607
-125.973
-124.079
-121.903
-119.432
-116.657
-113.58
-110.205
-106.535
-102.587
-98.388
-93.979
-89.413
-84.729
-79.947
-75.079
-70.133
-65.122
-60.062
-54.962
-49.826
-44.656
-39.459
-34.242
-29.015
-23.781
-18.535
-13.269
-7.969
-2.629
2.749
8.159
13.593
19.039
24.485
29.914
35.304
40.636
45.891
51.054
56.112
61.047
65.843
70.48
74.94
79.205
83.26
87.09
90.68
94.019
97.095
99.9
102.428
104.675
106.633
108.3
109.672
110.745
111.52
111.996
112.174
112.056
111.645
110.949
109.972
108.723
107.211
105.446
103.439
101.202
98.746
96.086
93.235
90.206
87.015
83.678
80.21
76.626
72.944
69.178
65.346
61.463
57.543
53.602
49.654
45.711
41.788
37.897
34.049
30.255
26.526
22.872
19.302
15.824
12.445
9.173
6.013
2.971
0.051
-2.744
-5.41
-7.944
-10.345
-12.612
-14.744
-16.74
-18.603
-20.332
-21.931
-23.401
-24.746
-25.969
-27.074
-28.064
-28.943
-29.717
-30.388
-30.962
-31.442
-31.834
-32.141
-32.367
-32.517
-32.595
-32.603
-32.547
-32.429
-32.253
-32.023
-31.741
-31.412
-31.037
-30.622
-30.168
-29.678
-29.156
-28.604
-28.026
-27.422
-26.796
-26.15
-25.485
-24.803
-24.107
-23.397
-22.674
-21.941
-21.198
-20.447
-19.69
-18.927
-18.161
-17.393
-16.625
-15.859
-15.097
-14.342
-13.596
-12.861
-12.14
-11.436
-10.75
-10.087
-9.446
-8.833
-8.248
-7.694
-7.174
-6.689
-6.242
-5.834
-5.468
-5.145
-4.869
-4.639
-4.459
-4.331
-4.255
-4.235
-4.271
-4.364
-4.517
-4.729
-5.001
-5.333
-5.726
-6.179
-6.69
-7.26
-7.887
-8.568
-9.303
-10.088
-10.922
-11.801
-12.723
-13.683
-14.679
-15.707
-16.763
-17.843
-18.944
-20.062
-21.191
-22.329
-23.471
-24.613
-25.748
-26.873
-27.982
-29.07
-30.132
-31.162
-32.156
-33.109
-34.014
-34.869
-35.668
-36.406
-37.079
-37.682
-38.21
-38.659
-39.026
-39.306
-39.495
-39.592
-39.594
-39.499
-39.308
-39.018
-38.629
-38.141
-37.555
-36.868
-36.081
-35.19
-34.195
-33.097
-31.896
-30.595
-29.196
-27.701
-26.116
-24.447
-22.7
-20.881
-18.993
-17.035
-15.013
-12.94
-10.83
-8.703
-6.578
-4.471
-2.403
-0.399
1.52
3.34
5.058
6.678
8.201
9.616
10.908
12.053
13.037
13.861
14.522
15.023
15.367
15.556
15.609
15.558
15.415
15.177
14.817
14.286
13.554
12.608
11.439
10.053
8.446
6.608
4.55
2.289
-0.161
-2.786
-5.597
-8.622
-11.853
-15.257
-18.767
-22.287
-25.748
-29.095
-32.272
-35.236
-37.948
-40.378
-42.552
-44.538
-46.394
-48.187
-49.946
-51.651
-53.339
-55.103
-57.05
-59.313
-61.99
-65.104
-68.736
-73.078
-78.169
-83.865
-89.836
-95.447
-100.113
-103.5
-105.17
-104.496
-101.238
-95.585
-88.079
-80.006
-72.713
-66.997
-63.777
-64.331
-68.171
-72.812
-75.922
-74.149
-66.373
-55.94
-43.224
-24.67
5.653
57.776
137.925
242.595
364.698
494.994
623.085
743.311
847.769
922.13
951.024
918.916
818.783
658.823
458.607
246.147
49.514
-111.662
-225.904
-291.607
-314.912
-301.692
-260.829
-203.702
-140.579
-86.594
-53.86
-44.232
-54.113
-72.296
-86.217
-91.921
-90.221
-84.924
-81.231
-80.069
-80.076
-79.719
-77.296
-72.498
-65.95
-58.851
-52.41
-47.291
-43.779
-41.758
-40.991
-41.449
-43.164
-45.82
-49.059
-52.568
-55.996
-59.226
-62.205
-64.785
-66.856
-68.376
-69.324
-69.729
-69.674
-69.185
-68.26
-66.916
-65.151
-63.004
-60.556
-57.875
-55.031
-52.092
-49.116
-46.16
-43.275
-40.49
-37.807
-35.211
-32.668
-30.144
-27.631
-25.128
-22.653
-20.207
-17.774
-15.338
-12.885
-10.405
-7.888
-5.316
-2.665
0.081
2.924
5.857
8.868
11.945
15.087
18.301
21.598
24.988
28.474
32.06
35.749
39.545
43.45
47.457
51.552
55.724
59.963
64.261
68.613
73.007
77.433
81.874
86.315
90.739
95.129
99.465
103.728
107.897
111.953
115.877
119.655
123.269
126.702
129.94
132.965
135.763
138.322
140.627
142.667
144.429
145.903
147.081
147.956
148.521
148.772
148.706
148.321
147.617
146.597
145.262
143.618
141.671
139.426
136.894
134.083
131.004
127.669
124.093
120.288
116.271
112.056
107.661
103.102
98.397
93.563
88.617
83.579
78.465
73.293
68.08
62.844
57.602
52.371
47.167
42.006
36.903
31.873
26.93
22.087
17.356
12.749
8.277
3.948
-0.227
-4.241
-8.086
-11.758
-15.25
-18.558
-21.68
-24.612
-27.355
-29.907
-32.27
-34.444
-36.433
-38.238
-39.865
-41.316
-42.597
-43.712
-44.668
-45.471
-46.128
-46.645
-47.03
-47.291
-47.435
-47.471
-47.406
-47.25
-47.01
-46.695
-46.312
-45.87
-45.376
-44.839
-44.266
-43.663
-43.039
-42.399
-41.749
-41.096
-40.445
-39.8
-39.165
-38.545
-37.942
-37.361
-36.803
-36.27
-35.765
-35.29
-34.846
-34.434
-34.055
-33.708
-33.395
-33.115
-32.868
-32.652
-32.467
-32.311
-32.184
-32.084
-32.01
-31.96
-31.933
-31.927
-31.94
-31.97
-32.017
-32.078
-32.152
-32.239
-32.338
-32.448
-32.569
-32.701
-32.845
-33
-33.166
-33.344
-33.534
-33.735
-33.948
-34.172
-34.407
-34.654
-34.912
-35.18
-35.46
-35.75
-36.052
-36.364
-36.686
-37.019
-37.362
-37.714
-38.076
-38.448
-38.829
-39.219
-39.618
-40.024
-40.436
-40.852
-41.271
-41.69
-42.104
-42.511
-42.905
-43.283
-43.641
-43.975
-44.282
-44.558
-44.802
-45.011
-45.184
-45.318
-45.412
-45.462
-45.465
-45.418
-45.317
-45.158
-44.937
-44.65
-44.292
-43.861
-43.355
-42.77
-42.102
-41.343
-40.489
-39.539
-38.495
-37.361
-36.146
-34.855
-33.504
-32.112
-30.7
-29.285
-27.885
-26.505
-25.148
-23.82
-22.527
-21.277
-20.07
-18.896
-17.738
-16.586
-15.424
-14.239
-13.011
-11.699
-10.268
-8.695
-6.964
-5.08
-3.062
-0.924
1.311
3.61
5.928
8.198
10.342
12.303
14.026
15.46
16.547
17.205
17.36
16.958
15.959
14.346
12.121
9.287
5.862
1.904
-2.51
-7.275
-12.27
-17.398
-22.577
-27.717
-32.73
-37.51
-41.948
-45.957
-49.466
-52.411
-54.74
-56.414
-57.42
-57.814
-57.694
-57.182
-56.411
-55.476
-54.47
-53.513
-52.737
-52.272
-52.238
-52.701
-53.737
-55.522
-58.165
-61.603
-65.586
-69.588
-73.055
-75.617
-76.868
-76.226
-73.318
-68.19
-61.434
-54.361
-48.207
-43.769
-41.83
-43.248
-48.673
-57.039
-64.998
-68.537
-63.716
-49.895
-30.937
-8.481
18.49
53.861
108.236
188.584
294.734
423.645
563.489
699.255
818.517
906.414
949.227
936.669
861.15
723.486
534.996
316.58
96.578
-97.179
-242.777
-329.493
-361.301
-349.262
-308.3
-254.626
-198.97
-151.674
-121.532
-109.808
-114.452
-127.484
-138.151
-142.184
-138.926
-131.434
-124.813
-119.774
-115.313
-110.277
-102.866
-93.255
-82.649
-71.807
-61.772
-53.411
-46.928
-42.409
-39.801
-38.783
-39.118
-40.652
-43.165
-46.422
-50.216
-54.336
-58.602
-62.892
-67.081
-71.054
-74.706
-77.922
-80.616
-82.721
-84.182
-84.983
-85.128
-84.637
-83.549
-81.918
-79.805
-77.29
-74.449
-71.355
-68.065
-64.624
-61.069
-57.45
-53.808
-50.189
-46.637
-43.177
-39.82
-36.576
-33.439
-30.396
-27.433
-24.525
-21.644
-18.767
-15.875
-12.955
-9.998
-6.989
-3.911
-0.747
2.527
5.926
9.461
13.141
16.968
20.944
25.066
29.327
33.716
38.223
42.838
47.551
52.355
57.239
62.19
67.192
72.23
77.286
82.342
87.381
92.383
97.33
102.201
106.977
111.642
116.177
120.561
124.775
128.799
132.615
136.203
139.545
142.625
145.427
147.934
150.134
152.016
153.568
154.781
155.648
156.163
156.321
156.121
155.561
154.642
153.366
151.737
149.76
147.443
144.794
141.823
138.541
134.96
131.095
126.96
122.571
117.946
113.102
108.058
102.833
97.446
91.918
86.269
80.519
74.688
68.798
62.868
56.917
50.966
45.034
39.137
33.295
27.524
21.839
16.256
10.789
5.452
0.257
-4.785
-9.663
-14.367
-18.889
-23.22
-27.355
-31.288
-35.014
-38.529
-41.832
-44.921
-47.794
-50.453
-52.898
-55.132
-57.156
-58.975
-60.593
-62.013
-63.242
-64.285
-65.149
-65.84
-66.365
-66.732
-66.948
-67.021
-66.959
-66.769
-66.461
-66.041
-65.519
-64.902
-64.2
-63.42
-62.572
-61.663
-60.701
-59.695
-58.653
-57.583
-56.491
-55.386
-54.274
-53.163
-52.058
-50.966
-49.893
-48.845
-47.827
-46.844
-45.901
-45.001
-44.148
-43.346
-42.598
-41.907
-41.274
-40.702
-40.192
-39.745
-39.362
-39.044
-38.79
-38.6
-38.472
-38.407
-38.401
-38.453
-38.561
-38.721
-38.932
-39.188
-39.488
-39.828
-40.203
-40.609
-41.044
-41.502
-41.979
-42.471
-42.974
-43.484
-43.996
-44.508
-45.015
-45.514
-46.002
-46.476
-46.934
-47.373
-47.791
-48.187
-48.558
-48.905
-49.226
-49.521
-49.789
-50.031
-50.245
-50.435
-50.598
-50.738
-50.854
-50.948
-51.021
-51.074
-51.108
-51.124
-51.124
-51.107
-51.075
-51.029
-50.968
-50.894
-50.806
-50.703
-50.587
-50.454
-50.305
-50.137
-49.948
-49.735
-49.496
-49.227
-48.926
-48.587
-48.209
-47.786
-47.316
-46.794
-46.217
-45.581
-44.883
-44.12
-43.289
-42.388
-41.417
-40.374
-39.259
-38.074
-36.82
-35.5
-34.119
-32.68
-31.189
-29.654
-28.08
-26.478
-24.856
-23.225
-21.595
-19.976
-18.383
-16.825
-15.319
-13.876
-12.51
-11.234
-10.062
-9.011
-8.094
-7.324
-6.712
-6.267
-5.999
-5.917
-6.032
-6.351
-6.881
-7.625
-8.585
-9.764
-11.158
-12.756
-14.537
-16.472
-18.53
-20.678
-22.892
-25.138
-27.384
-29.595
-31.727
-33.748
-35.622
-37.316
-38.801
-40.05
-41.052
-41.815
-42.389
-42.853
-43.295
-43.81
-44.476
-45.355
-46.53
-48.096
-50.138
-52.724
-55.919
-59.737
-64.24
-69.578
-75.714
-82.478
-89.582
-96.467
-102.621
-107.722
-111.2
-112.319
-110.908
-107.019
-100.94
-93.877
-86.768
-80.078
-75.127
-72.637
-71.222
-69.273
-64.757
-56.475
-46.885
-38.516
-30.717
-17.243
11.718
64.398
145.453
249.464
366.492
489.518
608.972
718.552
811.865
873.402
887.701
841.634
729.018
558.87
351.996
138.15
-53.711
-202.35
-295.62
-337.513
-339.036
-310.881
-266.984
-215.609
-163.105
-121.245
-97.242
-93.51
-107.692
-128.566
-145.17
-152.534
-150.219
-142.514
-134.299
-126.98
-120.113
-112.5
-102.958
-91.907
-80.44
-69.532
-60.158
-52.698
-47.126
-43.37
-41.233
-40.519
-41.095
-42.798
-45.433
-48.843
-52.861
-57.317
-62.081
-67.003
-71.938
-76.765
-81.363
-85.608
-89.408
-92.675
-95.324
-97.315
-98.631
-99.266
-99.246
-98.61
-97.407
-95.703
-93.566
-91.057
-88.234
-85.141
-81.819
-78.321
-74.697
-70.999
-67.286
-63.595
-59.951
-56.371
-52.86
-49.413
-46.023
-42.675
-39.347
-36.026
-32.699
-29.36
-26.004
-22.625
-19.209
-15.743
-12.208
-8.593
-4.892
-1.103
2.772
6.729
10.759
14.852
18.991
23.163
27.357
31.563
35.771
39.972
44.154
48.303
52.406
56.448
60.417
64.3
68.083
71.755
75.302
78.714
81.984
85.1
88.053
90.834
93.431
95.836
98.042
100.04
101.823
103.384
104.72
105.825
106.697
107.335
107.736
107.901
107.83
107.524
106.986
106.217
105.222
104.005
102.571
100.926
99.077
97.031
94.796
92.381
89.796
87.051
84.157
81.123
77.963
74.686
71.306
67.835
64.284
60.667
56.996
53.284
49.543
45.787
42.027
38.276
34.545
30.845
27.189
23.586
20.048
16.585
13.207
9.924
6.744
3.676
0.73
-2.089
-4.772
-7.314
-9.709
-11.952
-14.04
-15.969
-17.736
-19.34
-20.78
-22.055
-23.165
-24.113
-24.899
-25.528
-26.002
-26.326
-26.504
-26.541
-26.443
-26.217
-25.869
-25.405
-24.833
-24.162
-23.398
-22.551
-21.629
-20.642
-19.598
-18.506
-17.376
-16.217
-15.037
-13.845
-12.65
-11.46
-10.284
-9.127
-7.999
-6.905
-5.852
-4.845
-3.889
-2.989
-2.148
-1.369
-0.655
-0.008
0.57
1.078
1.516
1.884
2.181
2.408
2.567
2.66
2.688
2.654
2.561
2.413
2.212
1.963
1.671
1.338
0.969
0.569
0.142
-0.307
-0.773
-1.253
-1.742
-2.236
-2.732
-3.227
-3.717
-4.202
-4.68
-5.148
-5.606
-6.052
-6.486
-6.908
-7.317
-7.712
-8.095
-8.464
-8.823
-9.171
-9.511
-9.843
-10.171
-10.496
-10.82
-11.145
-11.474
-11.808
-12.151
-12.505
-12.873
-13.258
-13.661
-14.086
-14.534
-15.006
-15.504
-16.026
-16.572
-17.139
-17.725
-18.327
-18.943
-19.57
-20.204
-20.843
-21.485
-22.127
-22.767
-23.4
-24.02
-24.621
-25.197
-25.74
-26.243
-26.698
-27.095
-27.429
-27.694
-27.886
-28
-28.029
-27.965
-27.798
-27.52
-27.13
-26.626
-26.006
-25.277
-24.444
-23.524
-22.543
-21.518
-20.462
-19.382
-18.277
-17.149
-16.003
-14.842
-13.669
-12.484
-11.283
-10.068
-8.85
-7.623
-6.378
-5.091
-3.719
-2.241
-0.658
1.023
2.776
4.576
6.396
8.196
9.918
11.512
12.93
14.135
15.108
15.815
16.206
16.225
15.799
14.891
13.505
11.655
9.367
6.683
3.649
0.339
-3.14
-6.696
-10.247
-13.724
-17.08
-20.253
-23.164
-25.743
-27.923
-29.683
-31.072
-32.148
-32.978
-33.638
-34.185
-34.717
-35.39
-36.348
-37.715
-39.588
-41.992
-44.986
-48.745
-53.334
-58.644
-64.368
-69.909
-74.714
-78.466
-80.789
-81.115
-79.104
-74.784
-68.719
-62.198
-56.337
-51.795
-49.248
-49.454
-52.952
-58.488
-62.825
-62.492
-54.048
-37.929
-18.263
5.113
34.138
74.194
135.931
221.31
326.953
447.209
569.627
685.394
785.797
858.465
891.285
871.591
794.215
663.1
490.945
299.054
108.486
-60.9
-191.799
-275.245
-310.051
-301.258
-261.102
-205.273
-147.188
-100.083
-73.005
-65.982
-75.047
-90.741
-102.438
-106.708
-103.78
-97.206
-91.886
-88.354
-85.484
-82.052
-76.455
-68.908
-60.517
-51.96
-44.102
-37.597
-32.565
-29.048
-26.953
-26
-25.999
-26.839
-28.395
-30.527
-33.09
-35.932
-38.908
-41.921
-44.898
-47.779
-50.517
-53.066
-55.385
-57.431
-59.195
-60.667
-61.831
-62.666
-63.129
-63.197
-62.883
-62.224
-61.266
-60.052
-58.602
-56.925
-55.037
-52.952
-50.687
-48.257
-45.666
-42.919
-40.039
-37.059
-34.029
-30.982
-27.932
-24.879
-21.82
-18.753
-15.678
-12.596
-9.498
-6.377
-3.229
-0.055
3.142
6.361
9.61
12.903
16.258
19.686
23.189
26.767
30.416
34.13
37.905
41.726
45.579
49.448
53.321
57.185
61.032
64.848
68.618
72.325
75.954
79.487
82.91
86.207
89.364
92.365
95.199
97.852
100.317
102.582
104.637
106.472
108.079
109.449
110.575
111.45
112.069
112.427
112.522
112.35
111.913
111.211
110.244
109.017
107.533
105.798
103.817
101.599
99.151
96.482
93.602
90.524
87.258
83.818
80.216
76.467
72.584
68.582
64.477
60.283
56.014
51.687
47.316
42.915
38.501
34.086
29.686
25.313
20.982
16.706
12.498
8.368
4.329
0.392
-3.434
-7.139
-10.715
-14.153
-17.446
-20.588
-23.575
-26.4
-29.062
-31.557
-33.883
-36.04
-38.027
-39.845
-41.496
-42.982
-44.305
-45.468
-46.476
-47.333
-48.043
-48.612
-49.044
-49.347
-49.525
-49.585
-49.534
-49.379
-49.127
-48.785
-48.36
-47.86
-47.293
-46.666
-45.986
-45.262
-44.499
-43.706
-42.889
-42.053
-41.207
-40.354
-39.5
-38.651
-37.811
-36.984
-36.174
-35.383
-34.616
-33.876
-33.164
-32.483
-31.836
-31.224
-30.65
-30.115
-29.619
-29.166
-28.754
-28.386
-28.06
-27.778
-27.54
-27.344
-27.191
-27.079
-27.008
-26.976
-26.981
-27.023
-27.099
-27.208
-27.348
-27.518
-27.716
-27.94
-28.188
-28.461
-28.755
-29.071
-29.406
-29.76
-30.131
-30.519
-30.921
-31.338
-31.766
-32.204
-32.652
-33.107
-33.568
-34.034
-34.502
-34.971
-35.441
-35.909
-36.375
-36.837
-37.296
-37.751
-38.202
-38.647
-39.089
-39.526
-39.959
-40.389
-40.815
-41.237
-41.656
-42.07
-42.479
-42.883
-43.279
-43.666
-44.041
-44.402
-44.749
-45.077
-45.386
-45.673
-45.938
-46.179
-46.396
-46.588
-46.751
-46.883
-46.982
-47.045
-47.07
-47.051
-46.984
-46.865
-46.69
-46.455
-46.155
-45.785
-45.336
-44.798
-44.165
-43.435
-42.609
-41.687
-40.675
-39.579
-38.413
-37.195
-35.943
-34.668
-33.382
-32.088
-30.797
-29.526
-28.287
-27.094
-25.953
-24.861
-23.812
-22.797
-21.799
-20.79
-19.736
-18.59
-17.321
-15.918
-14.372
-12.69
-10.875
-8.924
-6.843
-4.651
-2.375
-0.055
2.258
4.515
6.646
8.561
10.167
11.364
12.078
12.273
11.931
11.049
9.633
7.686
5.225
2.289
-1.071
-4.796
-8.806
-13.023
-17.35
-21.657
-25.821
-29.723
-33.273
-36.43
-39.2
-41.618
-43.733
-45.604
-47.281
-48.807
-50.25
-51.704
-53.268
-55.038
-57.112
-59.546
-62.431
-65.963
-70.185
-74.953
-79.967
-84.648
-88.444
-91.027
-91.974
-90.655
-86.797
-80.551
-72.371
-63.443
-55.041
-47.947
-43.097
-41.785
-43.703
-46.581
-48.202
-45.386
-36.839
-25.808
-13.317
3.535
29.857
75.267
147.409
244.342
359.817
485.267
609.061
723.928
821.99
888.697
908.98
868.166
759.317
591.234
385.061
171.066
-20.951
-170.888
-268.339
-315.205
-321.543
-295.875
-248.643
-190.977
-131.422
-83.358
-57.402
-54.292
-69.897
-92.767
-110.257
-117.793
-115.722
-108.019
-99.939
-93.059
-86.791
-80.107
-71.845
-62.305
-52.554
-43.553
-36.24
-30.938
-27.576
-26.009
-25.952
-27.173
-29.485
-32.675
-36.532
-40.87
-45.487
-50.188
-54.787
-59.112
-63.034
-66.455
-69.296
-71.496
-73.006
-73.805
-73.91
-73.357
-72.192
-70.466
-68.226
-65.543
-62.513
-59.246
-55.858
-52.442
-49.055
-45.74
-42.533
-39.458
-36.541
-33.788
-31.185
-28.716
-26.368
-24.129
-21.991
-19.934
-17.925
-15.926
-13.901
-11.819
-9.664
-7.421
-5.077
-2.623
-0.053
2.634
5.431
8.335
11.343
14.455
17.673
20.992
24.404
27.902
31.476
35.119
38.821
42.572
46.362
50.179
54.012
57.852
61.689
65.508
69.298
73.041
76.725
80.331
83.845
87.25
90.529
93.666
96.646
99.453
102.075
104.497
106.706
108.692
110.442
111.947
113.197
114.185
114.903
115.345
115.507
115.386
114.979
114.286
113.308
112.047
110.507
108.692
106.608
104.263
101.665
98.824
95.75
92.456
88.954
85.258
81.383
77.344
73.158
68.84
64.408
59.878
55.266
50.591
45.869
41.116
36.35
31.587
26.842
22.132
17.472
12.876
8.359
3.934
-0.386
-4.59
-8.666
-12.605
-16.397
-20.034
-23.51
-26.816
-29.949
-32.904
-35.677
-38.267
-40.672
-42.893
-44.929
-46.782
-48.456
-49.952
-51.275
-52.43
-53.42
-54.253
-54.933
-55.468
-55.864
-56.128
-56.268
-56.291
-56.206
-56.02
-55.741
-55.377
-54.936
-54.425
-53.853
-53.226
-52.551
-51.836
-51.087
-50.31
-49.512
-48.697
-47.872
-47.041
-46.209
-45.378
-44.553
-43.737
-42.933
-42.142
-41.367
-40.61
-39.872
-39.155
-38.459
-37.785
-37.134
-36.507
-35.904
-35.324
-34.769
-34.238
-33.732
-33.25
-32.792
-32.358
-31.949
-31.563
-31.201
-30.864
-30.549
-30.258
-29.99
-29.744
-29.522
-29.323
-29.147
-28.995
-28.867
-28.765
-28.688
-28.638
-28.615
-28.621
-28.656
-28.722
-28.817
-28.944
-29.103
-29.295
-29.519
-29.776
-30.067
-30.391
-30.748
-31.139
-31.562
-32.019
-32.508
-33.029
-33.583
-34.168
-34.784
-35.432
-36.11
-36.817
-37.552
-38.315
-39.103
-39.914
-40.744
-41.59
-42.449
-43.316
-44.188
-45.061
-45.931
-46.794
-47.647
-48.487
-49.309
-50.109
-50.882
-51.622
-52.326
-52.986
-53.598
-54.154
-54.647
-55.072
-55.424
-55.696
-55.88
-55.969
-55.949
-55.816
-55.566
-55.196
-54.707
-54.102
-53.386
-52.57
-51.671
-50.703
-49.678
-48.606
-47.492
-46.349
-45.186
-44.012
-42.837
-41.666
-40.49
-39.305
-38.098
-36.847
-35.529
-34.113
-32.56
-30.843
-28.945
-26.855
-24.572
-22.096
-19.431
-16.599
-13.624
-10.541
-7.404
-4.27
-1.204
1.703
4.372
6.718
8.643
10.075
10.952
11.224
10.856
9.823
8.109
5.728
2.715
-0.879
-4.978
-9.499
-14.344
-19.389
-24.517
-29.615
-34.554
-39.228
-43.538
-47.393
-50.719
-53.453
-55.54
-56.968
-57.782
-58.05
-57.873
-57.347
-56.545
-55.577
-54.579
-53.68
-53.024
-52.729
-52.852
-53.489
-54.852
-57.023
-59.92
-63.313
-66.651
-69.377
-71.16
-71.564
-69.948
-66.062
-60.105
-52.623
-44.932
-38.433
-33.972
-32.507
-35.361
-42.172
-50.537
-57.986
-60.901
-57.594
-50.978
-41.79
-27.036
-1.674
43.736
116.57
214.839
332.989
462.969
593.056
715.334
820.206
892.355
917.496
881.749
778.811
615.893
411.357
195.115
-2.293
-156.722
-253.146
-294.951
-293.336
-260.668
-213.748
-161.5
-111.569
-75.853
-57.172
-55.83
-67.77
-80.499
-88.143
-89.275
-84.86
-80.836
-78.992
-78.155
-77.45
-74.726
-69.608
-63.324
-56.659
-50.586
-45.983
-43.025
-41.73
-42.03
-43.576
-46.069
-49.3
-53.032
-57.026
-61.086
-65.027
-68.679
-71.938
-74.718
-76.947
-78.586
-79.601
-79.979
-79.724
-78.851
-77.409
-75.465
-73.101
-70.393
-67.402
-64.198
-60.853
-57.446
-54.052
-50.717
-47.465
-44.308
-41.26
-38.33
-35.525
-32.846
-30.276
-27.792
-25.371
-22.993
-20.641
-18.299
-15.944
-13.556
-11.112
-8.603
-6.026
-3.377
-0.651
2.157
5.053
8.041
11.118
14.284
17.538
20.88
24.308
27.82
31.411
35.075
38.805
42.597
46.445
50.341
54.276
58.239
62.221
66.207
70.187
74.145
78.067
81.937
85.74
89.46
93.08
96.586
99.96
103.188
106.253
109.14
111.834
114.323
116.592
118.629
120.424
121.966
123.247
124.259
124.994
125.449
125.62
125.503
125.099
124.406
123.428
122.167
120.628
118.817
116.742
114.41
111.832
109.017
105.979
102.729
99.281
95.65
91.849
87.895
83.803
79.59
75.272
70.864
66.384
61.848
57.271
52.669
48.059
43.454
38.868
34.316
29.811
25.366
20.991
16.699
12.5
8.403
4.418
0.552
-3.187
-6.793
-10.26
-13.584
-16.759
-19.783
-22.654
-25.368
-27.926
-30.326
-32.569
-34.655
-36.585
-38.363
-39.989
-41.467
-42.799
-43.989
-45.041
-45.958
-46.744
-47.404
-47.942
-48.362
-48.669
-48.867
-48.961
-48.956
-48.856
-48.668
-48.395
-48.043
-47.617
-47.122
-46.563
-45.946
-45.275
-44.557
-43.795
-42.997
-42.165
-41.307
-40.426
-39.528
-38.617
-37.699
-36.777
-35.857
-34.942
-34.037
-33.146
-32.273
-31.422
-30.597
-29.802
-29.039
-28.314
-27.628
-26.985
-26.387
-25.836
-25.335
-24.885
-24.487
-24.143
-23.852
-23.616
-23.434
-23.305
-23.229
-23.205
-23.231
-23.306
-23.427
-23.594
-23.802
-24.051
-24.338
-24.659
-25.013
-25.397
-25.808
-26.242
-26.698
-27.172
-27.661
-28.162
-28.672
-29.188
-29.708
-30.23
-30.749
-31.266
-31.776
-32.28
-32.776
-33.262
-33.738
-34.204
-34.658
-35.1
-35.531
-35.95
-36.357
-36.754
-37.14
-37.515
-37.88
-38.235
-38.58
-38.915
-39.24
-39.554
-39.857
-40.148
-40.426
-40.69
-40.938
-41.17
-41.384
-41.579
-41.751
-41.9
-42.023
-42.117
-42.179
-42.207
-42.195
-42.141
-42.041
-41.89
-41.685
-41.423
-41.099
-40.709
-40.25
-39.72
-39.114
-38.432
-37.67
-36.829
-35.906
-34.904
-33.823
-32.665
-31.434
-30.133
-28.767
-27.344
-25.87
-24.353
-22.803
-21.229
-19.643
-18.054
-16.474
-14.913
-13.383
-11.896
-10.462
-9.095
-7.806
-6.608
-5.515
-4.542
-3.701
-3.002
-2.453
-2.061
-1.829
-1.767
-1.882
-2.182
-2.675
-3.365
-4.258
-5.356
-6.657
-8.147
-9.794
-11.566
-13.427
-15.346
-17.296
-19.25
-21.177
-23.04
-24.801
-26.418
-27.856
-29.081
-30.057
-30.76
-31.175
-31.331
-31.313
-31.214
-31.136
-31.164
-31.342
-31.738
-32.455
-33.6
-35.286
-37.625
-40.644
-44.416
-49.129
-54.782
-61.213
-68.059
-74.594
-80.174
-84.441
-86.88
-86.863
-84.317
-79.474
-73.089
-66.817
-61.771
-58.503
-58.028
-61.145
-67.637
-75.858
-82.232
-82.301
-72.603
-53.399
-26.978
6.574
47.028
98.799
170.307
263.253
377.307
506.469
635.528
751.683
842.106
894.372
900.151
851.547
746.068
589.039
395.781
192.701
6.612
-139.572
-231.755
-273.23
-274.416
-247.378
-207.812
-163.448
-120.261
-88.184
-69.659
-65.853
-74.07
-83.343
-88.203
-87.18
-81.259
-76.293
-74.388
-74.117
-74.184
-72.43
-68.309
-63.007
-57.342
-51.995
-47.586
-44.439
-42.712
-42.406
-43.316
-45.102
-47.514
-50.394
-53.549
-56.778
-59.899
-62.734
-65.173
-67.157
-68.63
-69.553
-69.903
-69.679
-68.91
-67.645
-65.941
-63.859
-61.459
-58.796
-55.924
-52.899
-49.779
-46.624
-43.49
-40.423
-37.455
-34.607
-31.889
-29.307
-26.852
-24.512
-22.268
-20.099
-17.987
-15.917
-13.876
-11.85
-9.824
-7.781
-5.707
-3.588
-1.412
0.831
3.149
5.551
8.041
10.622
13.294
16.058
18.915
21.865
24.907
28.041
31.265
34.575
37.968
41.438
44.979
48.582
52.239
55.94
59.672
63.425
67.186
70.941
74.675
78.375
82.024
85.606
89.106
92.506
95.79
98.94
101.94
104.773
107.423
109.876
112.116
114.132
115.91
117.441
118.716
119.725
120.463
120.924
121.104
121.001
120.613
119.941
118.986
117.751
116.242
114.463
112.423
110.128
107.589
104.815
101.819
98.611
95.206
91.618
87.861
83.951
79.906
75.74
71.473
67.121
62.701
58.232
53.729
49.211
44.692
40.189
35.717
31.29
26.923
22.627
18.417
14.303
10.295
6.404
2.638
-0.994
-4.486
-7.831
-11.024
-14.059
-16.934
-19.644
-22.188
-24.564
-26.77
-28.809
-30.68
-32.385
-33.929
-35.312
-36.541
-37.62
-38.553
-39.347
-40.007
-40.54
-40.952
-41.249
-41.439
-41.529
-41.525
-41.436
-41.266
-41.024
-40.717
-40.35
-39.93
-39.464
-38.958
-38.417
-37.848
-37.257
-36.65
-36.031
-35.407
-34.782
-34.162
-33.551
-32.952
-32.371
-31.809
-31.27
-30.757
-30.272
-29.818
-29.395
-29.006
-28.652
-28.333
-28.05
-27.803
-27.591
-27.414
-27.272
-27.164
-27.089
-27.047
-27.035
-27.054
-27.101
-27.177
-27.278
-27.403
-27.552
-27.72
-27.907
-28.11
-28.328
-28.558
-28.798
-29.047
-29.302
-29.563
-29.828
-30.094
-30.361
-30.626
-30.89
-31.15
-31.407
-31.661
-31.911
-32.158
-32.404
-32.648
-32.893
-33.138
-33.386
-33.637
-33.892
-34.153
-34.419
-34.693
-34.977
-35.271
-35.577
-35.897
-36.232
-36.583
-36.952
-37.338
-37.742
-38.165
-38.606
-39.065
-39.542
-40.037
-40.549
-41.077
-41.62
-42.175
-42.74
-43.311
-43.884
-44.454
-45.014
-45.559
-46.083
-46.58
-47.046
-47.475
-47.861
-48.201
-48.49
-48.725
-48.898
-49.003
-49.034
-48.984
-48.845
-48.611
-48.276
-47.834
-47.282
-46.617
-45.84
-44.949
-43.943
-42.819
-41.571
-40.199
-38.707
-37.098
-35.381
-33.568
-31.678
-29.736
-27.771
-25.805
-23.855
-21.935
-20.047
-18.2
-16.4
-14.648
-12.955
-11.33
-9.778
-8.31
-6.934
-5.644
-4.43
-3.267
-2.12
-0.979
0.162
1.297
2.403
3.456
4.424
5.255
5.908
6.352
6.554
6.501
6.176
5.549
4.592
3.271
1.556
-0.557
-3.055
-5.923
-9.119
-12.591
-16.267
-20.042
-23.821
-27.516
-31.053
-34.375
-37.422
-40.137
-42.473
-44.416
-45.994
-47.256
-48.269
-49.089
-49.754
-50.334
-50.95
-51.748
-52.867
-54.444
-56.522
-59.175
-62.602
-66.817
-71.667
-76.826
-81.624
-85.46
-88.044
-88.923
-87.467
-83.586
-77.499
-69.897
-62.365
-55.955
-51.103
-48.712
-49.647
-53.92
-60.015
-64.442
-62.906
-51.831
-31.566
-5.245
27.179
65.485
112.969
178.995
264.932
370.233
493.495
621.606
743.49
847.578
914.523
930.092
883.187
768.946
597.247
388.724
172.041
-24.593
-178.026
-274.092
-313.785
-304.321
-259.232
-198.109
-135.221
-84.531
-56.748
-51.274
-63.597
-83.474
-98.492
-104.583
-102.051
-95.011
-89.562
-86.738
-85.311
-83.793
-80.083
-74.195
-67.345
-60.288
-53.967
-49.145
-45.933
-44.359
-44.38
-45.699
-48.075
-51.357
-55.299
-59.627
-64.139
-68.631
-72.926
-76.926
-80.513
-83.574
-86.056
-87.912
-89.12
-89.685
-89.597
-88.865
-87.536
-85.667
-83.335
-80.636
-77.651
-74.46
-71.15
-67.792
-64.451
-61.173
-57.975
-54.87
-51.863
-48.958
-46.163
-43.478
-40.891
-38.385
-35.938
-33.522
-31.115
-28.693
-26.23
-23.705
-21.103
-18.411
-15.629
-12.757
-9.796
-6.745
-3.603
-0.37
2.952
6.36
9.851
13.419
17.058
20.763
24.524
28.333
32.181
36.061
39.963
43.881
47.803
51.72
55.619
59.488
63.314
67.083
70.779
74.388
77.893
81.281
84.536
87.644
90.591
93.364
95.948
98.333
100.507
102.458
104.178
105.658
106.89
107.868
108.587
109.041
109.229
109.148
108.798
108.179
107.292
106.141
104.73
103.063
101.147
98.989
96.598
93.983
91.155
88.125
84.904
81.507
77.947
74.237
70.393
66.429
62.36
58.201
53.967
49.675
45.338
40.972
36.591
32.21
27.842
23.502
19.202
14.954
10.771
6.664
2.643
-1.281
-5.1
-8.803
-12.384
-15.835
-19.149
-22.322
-25.347
-28.221
-30.941
-33.504
-35.909
-38.154
-40.239
-42.165
-43.932
-45.542
-46.998
-48.303
-49.458
-50.469
-51.34
-52.075
-52.678
-53.156
-53.514
-53.757
-53.891
-53.922
-53.857
-53.7
-53.458
-53.138
-52.745
-52.286
-51.765
-51.19
-50.566
-49.899
-49.192
-48.453
-47.686
-46.895
-46.085
-45.26
-44.424
-43.581
-42.735
-41.889
-41.046
-40.209
-39.381
-38.563
-37.76
-36.971
-36.2
-35.447
-34.714
-34.003
-33.315
-32.649
-32.009
-31.393
-30.804
-30.241
-29.704
-29.195
-28.713
-28.258
-27.832
-27.432
-27.061
-26.718
-26.402
-26.114
-25.854
-25.622
-25.417
-25.239
-25.087
-24.963
-24.865
-24.793
-24.746
-24.725
-24.729
-24.758
-24.811
-24.889
-24.992
-25.118
-25.268
-25.442
-25.64
-25.861
-26.105
-26.373
-26.664
-26.978
-27.316
-27.678
-28.063
-28.471
-28.903
-29.359
-29.838
-30.34
-30.865
-31.413
-31.984
-32.577
-33.194
-33.832
-34.491
-35.171
-35.871
-36.59
-37.326
-38.078
-38.844
-39.622
-40.409
-41.203
-42.002
-42.802
-43.6
-44.393
-45.175
-45.944
-46.694
-47.421
-48.12
-48.785
-49.412
-49.994
-50.527
-51.005
-51.422
-51.772
-52.05
-52.251
-52.367
-52.394
-52.326
-52.157
-51.884
-51.501
-51.006
-50.394
-49.663
-48.811
-47.836
-46.739
-45.519
-44.177
-42.715
-41.137
-39.447
-37.65
-35.752
-33.761
-31.686
-29.538
-27.326
-25.064
-22.764
-20.44
-18.108
-15.783
-13.479
-11.212
-8.999
-6.856
-4.799
-2.843
-1.005
0.7
2.254
3.643
4.851
5.866
6.681
7.285
7.672
7.836
7.768
7.463
6.919
6.131
5.096
3.815
2.292
0.54
-1.412
-3.535
-5.797
-8.166
-10.613
-13.104
-15.6
-18.063
-20.452
-22.726
-24.847
-26.775
-28.465
-29.884
-31.011
-31.855
-32.475
-32.94
-33.329
-33.719
-34.161
-34.727
-35.528
-36.663
-38.224
-40.288
-42.873
-46.044
-49.987
-54.766
-60.266
-66.232
-72.136
-77.461
-81.902
-85.034
-86.17
-84.918
-81.333
-75.822
-69.443
-63.375
-58.33
-55.092
-54.998
-57.906
-61.378
-62.939
-59.469
-50.137
-39.401
-29.815
-18.778
0.403
40.174
110.953
212.336
337.407
474.34
608.999
732.444
835.535
907.286
936.794
912.445
830.688
696.523
521.954
327.013
131.868
-44.483
-184.008
-275.625
-316.586
-310.135
-267.521
-205.779
-140.172
-86.52
-56.501
-50.41
-63.278
-83.748
-98.839
-104.338
-100.797
-92.611
-85.866
-81.573
-78.531
-75.354
-70.183
-63.182
-55.567
-48.073
-41.605
-36.824
-33.811
-32.586
-33.024
-34.79
-37.639
-41.395
-45.847
-50.773
-55.941
-61.103
-66.048
-70.629
-74.732
-78.276
-81.193
-83.426
-84.94
-85.712
-85.754
-85.105
-83.802
-81.894
-79.437
-76.497
-73.174
-69.592
-65.862
-62.075
-58.294
-54.555
-50.889
-47.326
-43.881
-40.564
-37.371
-34.291
-31.315
-28.443
-25.663
-22.961
-20.309
-17.664
-14.996
-12.282
-9.505
-6.657
-3.731
-0.72
2.377
5.555
8.807
12.13
15.521
18.98
22.506
26.094
29.737
33.426
37.151
40.907
44.686
48.478
52.276
56.07
59.853
63.619
67.357
71.058
74.711
78.303
81.82
85.251
88.581
91.796
94.882
97.826
100.613
103.233
105.673
107.922
109.97
111.806
113.422
114.811
115.965
116.88
117.549
117.969
118.137
118.051
117.71
117.114
116.264
115.162
113.811
112.214
110.377
108.305
106.006
103.486
100.755
97.823
94.7
91.397
87.927
84.303
80.538
76.647
72.642
68.539
64.353
60.097
55.786
51.435
47.057
42.666
38.275
33.897
29.545
25.231
20.967
16.764
12.633
8.585
4.63
0.777
-2.965
-6.588
-10.084
-13.446
-16.669
-19.745
-22.671
-25.443
-28.057
-30.511
-32.803
-34.932
-36.898
-38.701
-40.344
-41.827
-43.153
-44.325
-45.348
-46.223
-46.957
-47.552
-48.015
-48.35
-48.562
-48.657
-48.641
-48.521
-48.301
-47.989
-47.591
-47.114
-46.565
-45.949
-45.274
-44.547
-43.774
-42.961
-42.116
-41.244
-40.352
-39.446
-38.531
-37.614
-36.7
-35.792
-34.897
-34.019
-33.161
-32.328
-31.522
-30.747
-30.006
-29.303
-28.638
-28.015
-27.435
-26.899
-26.41
-25.967
-25.572
-25.224
-24.924
-24.671
-24.465
-24.305
-24.191
-24.12
-24.093
-24.106
-24.159
-24.248
-24.373
-24.53
-24.716
-24.93
-25.169
-25.431
-25.712
-26.01
-26.323
-26.648
-26.983
-27.325
-27.673
-28.024
-28.376
-28.728
-29.078
-29.424
-29.765
-30.101
-30.43
-30.753
-31.069
-31.379
-31.681
-31.977
-32.268
-32.553
-32.834
-33.111
-33.387
-33.662
-33.937
-34.214
-34.496
-34.782
-35.074
-35.374
-35.682
-35.999
-36.327
-36.665
-37.014
-37.373
-37.743
-38.124
-38.515
-38.914
-39.321
-39.733
-40.149
-40.566
-40.981
-41.391
-41.791
-42.179
-42.55
-42.899
-43.221
-43.512
-43.767
-43.98
-44.146
-44.259
-44.314
-44.305
-44.228
-44.076
-43.845
-43.531
-43.131
-42.64
-42.057
-41.378
-40.602
-39.728
-38.755
-37.684
-36.515
-35.251
-33.895
-32.449
-30.92
-29.312
-27.634
-25.892
-24.098
-22.26
-20.39
-18.501
-16.606
-14.719
-12.854
-11.025
-9.245
-7.53
-5.892
-4.345
-2.903
-1.578
-0.383
0.667
1.56
2.283
2.828
3.19
3.362
3.342
3.125
2.706
2.079
1.243
0.193
-1.073
-2.555
-4.247
-6.135
-8.184
-10.358
-12.621
-14.932
-17.26
-19.571
-21.825
-23.984
-26.005
-27.845
-29.468
-30.835
-31.903
-32.642
-33.04
-33.122
-32.976
-32.701
-32.404
-32.179
-32.087
-32.217
-32.682
-33.574
-34.986
-36.995
-39.604
-42.917
-47.146
-52.284
-58.218
-64.64
-70.874
-76.365
-80.77
-83.442
-83.681
-81.363
-76.511
-69.677
-62.443
-55.995
-51.079
-49.168
-50.621
-53.366
-55.513
-54.508
-48.599
-41.227
-35.113
-27.863
-13.2
20.864
85.831
182.667
304.389
438.974
571.865
694.227
799.614
879.594
923.894
918.485
852.181
722.706
539.189
324.418
108.865
-78.173
-214.328
-290.848
-313.729
-295.402
-251.442
-197.211
-143
-99.215
-73.977
-68.103
-78.479
-95.761
-109.3
-115.305
-113.89
-108.985
-105.557
-104.008
-103.096
-101.412
-97.258
-90.885
-83.417
-75.521
-68.063
-61.723
-56.597
-52.693
-49.913
-47.962
-46.675
-46.013
-45.888
-46.2
-46.869
-47.788
-48.865
-50.052
-51.276
-52.471
-53.603
-54.645
-55.596
-56.471
-57.277
-58.016
-58.671
-59.192
-59.523
-59.602
-59.389
-58.879
-58.079
-57.006
-55.681
-54.118
-52.325
-50.311
-48.075
-45.61
-42.915
-39.986
-36.838
-33.509
-30.049
-26.516
-22.952
-19.381
-15.82
-12.275
-8.75
-5.244
-1.752
1.735
5.224
8.713
12.202
15.688
19.175
22.675
26.205
29.785
33.428
37.142
40.928
44.786
48.711
52.695
56.723
60.779
64.846
68.911
72.961
76.985
80.969
84.896
88.751
92.516
96.175
99.712
103.111
106.357
109.434
112.33
115.031
117.528
119.809
121.863
123.68
125.249
126.562
127.611
128.389
128.889
129.106
129.036
128.679
128.033
127.1
125.881
124.38
122.602
120.554
118.243
115.677
112.866
109.82
106.552
103.072
99.394
95.532
91.5
87.313
82.986
78.536
73.98
69.333
64.612
59.834
55.016
50.175
45.328
40.49
35.679
30.91
26.198
21.559
17.006
12.554
8.214
3.999
-0.081
-4.016
-7.797
-11.417
-14.869
-18.147
-21.247
-24.164
-26.896
-29.442
-31.8
-33.97
-35.954
-37.753
-39.371
-40.809
-42.074
-43.169
-44.1
-44.873
-45.495
-45.973
-46.315
-46.529
-46.623
-46.607
-46.49
-46.279
-45.986
-45.618
-45.184
-44.694
-44.155
-43.575
-42.964
-42.327
-41.671
-41.004
-40.332
-39.659
-38.99
-38.331
-37.686
-37.057
-36.448
-35.861
-35.299
-34.762
-34.254
-33.774
-33.322
-32.9
-32.507
-32.143
-31.805
-31.494
-31.208
-30.945
-30.702
-30.479
-30.272
-30.081
-29.902
-29.735
-29.578
-29.428
-29.284
-29.146
-29.012
-28.88
-28.751
-28.625
-28.499
-28.376
-28.255
-28.136
-28.02
-27.908
-27.8
-27.698
-27.603
-27.514
-27.434
-27.364
-27.305
-27.259
-27.226
-27.211
-27.213
-27.236
-27.281
-27.35
-27.446
-27.569
-27.722
-27.905
-28.119
-28.365
-28.643
-28.954
-29.297
-29.673
-30.081
-30.521
-30.991
-31.491
-32.019
-32.574
-33.155
-33.76
-34.387
-35.034
-35.699
-36.382
-37.078
-37.787
-38.506
-39.23
-39.958
-40.684
-41.405
-42.113
-42.805
-43.474
-44.116
-44.726
-45.298
-45.83
-46.316
-46.756
-47.144
-47.48
-47.759
-47.977
-48.129
-48.212
-48.222
-48.152
-48.001
-47.762
-47.43
-47.007
-46.488
-45.871
-45.153
-44.326
-43.387
-42.34
-41.187
-39.935
-38.594
-37.175
-35.696
-34.181
-32.654
-31.137
-29.649
-28.201
-26.799
-25.456
-24.182
-22.988
-21.88
-20.849
-19.882
-18.972
-18.103
-17.264
-16.433
-15.569
-14.642
-13.632
-12.524
-11.323
-10.043
-8.693
-7.29
-5.866
-4.457
-3.119
-1.921
-0.915
-0.153
0.316
0.444
0.17
-0.547
-1.728
-3.382
-5.498
-8.047
-11.001
-14.315
-17.92
-21.74
-25.68
-29.624
-33.481
-37.161
-40.588
-43.704
-46.478
-48.916
-51.052
-52.936
-54.612
-56.116
-57.506
-58.867
-60.29
-61.872
-63.716
-65.883
-68.51
-71.82
-75.841
-80.475
-85.439
-90.113
-93.947
-96.588
-97.437
-95.81
-91.614
-84.943
-76.404
-67.683
-60.157
-54.707
-52.834
-54.979
-59.362
-64.27
-67.008
-65.374
-61.069
-55.395
-46.84
-30.29
3.048
62.188
151.508
268
404.773
550.657
691.46
813.771
902.306
943.23
927.611
850.983
717.256
537.582
329.222
117.16
-73.757
-223.407
-318.695
-361.994
-363.674
-333.704
-284.466
-223.467
-157.237
-98.88
-57.865
-38.774
-40.472
-52.25
-63.946
-71.279
-73.788
-75.593
-80.86
-89.296
-99.184
-108.125
-113.126
-113.526
-110.064
-103.606
-95.815
-88.208
-81.33
-75.531
-71.2
-68.37
-67
-67.001
-67.854
-68.919
-69.858
-70.472
-70.633
-70.353
-69.61
-68.361
-66.706
-64.809
-62.782
-60.716
-58.648
-56.567
-54.499
-52.494
-50.583
-48.794
-47.131
-45.566
-44.092
-42.721
-41.445
-40.252
-39.104
-37.934
-36.687
-35.326
-33.82
-32.149
-30.29
-28.218
-25.927
-23.425
-20.736
-17.895
-14.928
-11.842
-8.647
-5.354
-1.978
1.453
4.923
8.43
11.969
15.536
19.126
22.728
26.345
29.988
33.67
37.406
41.207
45.07
48.993
52.974
57.004
61.078
65.182
69.296
73.405
77.491
81.54
85.538
89.466
93.305
97.033
100.631
104.079
107.36
110.457
113.353
116.033
118.484
120.694
122.655
124.356
125.788
126.943
127.813
128.393
128.676
128.66
128.342
127.72
126.796
125.571
124.05
122.237
120.139
117.764
115.12
112.218
109.068
105.684
102.076
98.261
94.252
90.064
85.715
81.221
76.599
71.866
67.039
62.137
57.176
52.176
47.152
42.122
37.105
32.115
27.171
22.287
17.479
12.761
8.148
3.653
-0.712
-4.935
-9.007
-12.916
-16.655
-20.216
-23.591
-26.774
-29.762
-32.549
-35.133
-37.512
-39.685
-41.652
-43.413
-44.971
-46.329
-47.489
-48.457
-49.237
-49.837
-50.262
-50.52
-50.619
-50.569
-50.378
-50.056
-49.612
-49.058
-48.402
-47.656
-46.829
-45.933
-44.976
-43.971
-42.926
-41.852
-40.759
-39.655
-38.55
-37.453
-36.371
-35.313
-34.285
-33.295
-32.349
-31.453
-30.611
-29.829
-29.109
-28.456
-27.871
-27.357
-26.914
-26.543
-26.242
-26.013
-25.851
-25.757
-25.726
-25.757
-25.846
-25.99
-26.185
-26.427
-26.712
-27.035
-27.393
-27.78
-28.192
-28.625
-29.074
-29.536
-30.005
-30.477
-30.95
-31.418
-31.879
-32.33
-32.766
-33.186
-33.586
-33.966
-34.323
-34.656
-34.966
-35.251
-35.514
-35.753
-35.972
-36.172
-36.354
-36.521
-36.674
-36.816
-36.949
-37.076
-37.2
-37.322
-37.445
-37.573
-37.708
-37.852
-38.008
-38.178
-38.364
-38.569
-38.793
-39.039
-39.309
-39.602
-39.921
-40.266
-40.637
-41.034
-41.456
-41.903
-42.372
-42.86
-43.363
-43.877
-44.398
-44.919
-45.437
-45.945
-46.44
-46.916
-47.369
-47.795
-48.19
-48.549
-48.869
-49.141
-49.359
-49.517
-49.609
-49.627
-49.564
-49.412
-49.165
-48.822
-48.376
-47.826
-47.164
-46.381
-45.473
-44.441
-43.285
-42.011
-40.627
-39.14
-37.565
-35.929
-34.252
-32.559
-30.863
-29.167
-27.478
-25.806
-24.157
-22.546
-20.974
-19.427
-17.899
-16.388
-14.888
-13.393
-11.883
-10.313
-8.657
-6.895
-5.026
-3.071
-1.049
1.028
3.132
5.231
7.276
9.193
10.926
12.436
13.678
14.61
15.172
15.282
14.886
13.966
12.52
10.576
8.162
5.303
2.052
-1.519
-5.315
-9.219
-13.133
-16.987
-20.698
-24.186
-27.363
-30.131
-32.446
-34.328
-35.818
-36.981
-37.877
-38.535
-39.033
-39.497
-40.062
-40.872
-42.044
-43.623
-45.715
-48.543
-52.213
-56.665
-61.659
-66.641
-71.059
-74.561
-76.66
-76.662
-74.185
-69.307
-62.539
-55.141
-48.536
-43.647
-41.499
-43.541
-49.475
-57.007
-63.913
-66.662
-64.4
-60.437
-54.045
-41.36
-14.405
38.823
122.094
230.827
354.884
480.192
599.697
710.668
808.286
886.382
929.585
919.48
847.422
712.177
526.837
317.877
111.301
-67.377
-199.063
-278.387
-308.547
-298.637
-261.926
-211.193
-157.025
-111.202
-83.301
-75.731
-85.95
-104.211
-118.724
-124.691
-121.839
-114.347
-107.973
-103.715
-100.528
-96.954
-91.111
-83.158
-74.26
-65.135
-56.697
-49.654
-44.148
-40.259
-37.942
-36.93
-37.029
-38.111
-40.001
-42.498
-45.436
-48.637
-51.948
-55.27
-58.492
-61.516
-64.27
-66.694
-68.732
-70.33
-71.44
-72.014
-72.041
-71.533
-70.511
-69.011
-67.078
-64.771
-62.153
-59.291
-56.241
-53.038
-49.71
-46.277
-42.766
-39.212
-35.653
-32.133
-28.677
-25.3
-22.013
-18.817
-15.707
-12.67
-9.69
-6.743
-3.814
-0.892
2.029
4.952
7.882
10.832
13.817
16.855
19.96
23.141
26.405
29.755
33.191
36.712
40.309
43.97
47.686
51.449
55.25
59.082
62.937
66.804
70.669
74.52
78.341
82.119
85.836
89.479
93.029
96.473
99.795
102.982
106.02
108.893
111.589
114.092
116.388
118.466
120.312
121.916
123.266
124.354
125.173
125.715
125.976
125.954
125.644
125.047
124.162
122.991
121.538
119.806
117.801
115.53
113
110.221
107.203
103.959
100.5
96.841
92.996
88.98
84.81
80.502
76.073
71.54
66.921
62.233
57.495
52.723
47.935
43.149
38.381
33.647
28.964
24.345
19.806
15.359
11.018
6.794
2.698
-1.259
-5.068
-8.722
-12.211
-15.53
-18.674
-21.638
-24.418
-27.013
-29.422
-31.643
-33.678
-35.528
-37.196
-38.684
-39.998
-41.14
-42.118
-42.936
-43.602
-44.123
-44.505
-44.757
-44.886
-44.901
-44.81
-44.622
-44.345
-43.987
-43.557
-43.062
-42.513
-41.915
-41.278
-40.609
-39.915
-39.203
-38.48
-37.752
-37.024
-36.302
-35.591
-34.895
-34.218
-33.564
-32.937
-32.338
-31.771
-31.236
-30.736
-30.272
-29.844
-29.453
-29.099
-28.782
-28.501
-28.256
-28.045
-27.869
-27.726
-27.614
-27.533
-27.479
-27.452
-27.45
-27.472
-27.514
-27.577
-27.657
-27.755
-27.868
-27.995
-28.135
-28.287
-28.45
-28.624
-28.808
-29.001
-29.204
-29.416
-29.638
-29.869
-30.111
-30.363
-30.626
-30.901
-31.188
-31.489
-31.804
-32.135
-32.481
-32.844
-33.226
-33.627
-34.048
-34.491
-34.957
-35.446
-35.959
-36.496
-37.06
-37.648
-38.263
-38.903
-39.568
-40.257
-40.97
-41.705
-42.46
-43.234
-44.024
-44.827
-45.641
-46.461
-47.286
-48.11
-48.93
-49.741
-50.539
-51.319
-52.076
-52.805
-53.501
-54.158
-54.77
-55.332
-55.838
-56.283
-56.66
-56.964
-57.19
-57.331
-57.383
-57.341
-57.2
-56.955
-56.603
-56.139
-55.562
-54.869
-54.057
-53.127
-52.078
-50.91
-49.626
-48.226
-46.715
-45.097
-43.376
-41.558
-39.65
-37.66
-35.596
-33.468
-31.286
-29.062
-26.808
-24.539
-22.269
-20.014
-17.788
-15.607
-13.489
-11.446
-9.495
-7.649
-5.923
-4.33
-2.886
-1.605
-0.5
0.416
1.134
1.646
1.946
2.032
1.902
1.556
0.99
0.199
-0.819
-2.071
-3.557
-5.275
-7.216
-9.359
-11.677
-14.14
-16.713
-19.364
-22.062
-24.772
-27.459
-30.089
-32.613
-34.982
-37.145
-39.044
-40.63
-41.871
-42.755
-43.308
-43.591
-43.67
-43.617
-43.492
-43.361
-43.324
-43.491
-43.979
-44.909
-46.357
-48.433
-51.336
-55.146
-59.781
-64.976
-70.154
-74.748
-78.42
-80.777
-81.287
-79.717
-76.158
-71.212
-66.35
-62.871
-61.322
-62.24
-66.159
-73.123
-82.802
-92.88
-98.475
-95.223
-79.715
-52.279
-17.249
23.106
67.27
119.185
188.72
280.645
397.305
533.58
672.965
799.57
896.074
946.011
940.479
873.474
746.556
570.659
363.578
151.94
-38.362
-187.096
-281.01
-323.019
-322.628
-289.555
-239.355
-181.985
-126.94
-89.037
-72.725
-77.353
-96.622
-115.287
-125.742
-126.634
-120.212
-113.725
-109.612
-106.717
-103.783
-98.417
-90.323
-80.883
-70.971
-61.6
-53.608
-47.158
-42.33
-39.105
-37.195
-36.39
-36.584
-37.628
-39.355
-41.622
-44.25
-47.084
-50.034
-52.991
-55.864
-58.579
-61.056
-63.238
-65.084
-66.555
-67.628
-68.279
-68.47
-68.187
-67.431
-66.224
-64.618
-62.665
-60.411
-57.903
-55.175
-52.252
-49.167
-45.941
-42.591
-39.141
-35.612
-32.034
-28.453
-24.903
-21.402
-17.96
-14.569
-11.223
-7.918
-4.644
-1.389
1.854
5.094
8.335
11.575
14.819
18.075
21.355
24.679
28.06
31.505
35.017
38.594
42.232
45.927
49.67
53.446
57.244
61.052
64.86
68.66
72.441
76.19
79.893
83.533
87.094
90.562
93.922
97.158
100.256
103.201
105.981
108.585
111.002
113.22
115.227
117.014
118.569
119.885
120.953
121.766
122.318
122.603
122.62
122.365
121.837
121.038
119.968
118.629
117.026
115.163
113.047
110.684
108.081
105.25
102.198
98.938
95.482
91.841
88.03
84.062
79.952
75.715
71.366
66.921
62.395
57.805
53.166
48.493
43.803
39.11
34.43
29.776
25.164
20.606
16.116
11.706
7.388
3.173
-0.93
-4.909
-8.757
-12.466
-16.027
-19.436
-22.685
-25.771
-28.688
-31.435
-34.008
-36.406
-38.627
-40.673
-42.542
-44.238
-45.761
-47.114
-48.301
-49.326
-50.192
-50.906
-51.471
-51.896
-52.184
-52.344
-52.382
-52.304
-52.119
-51.833
-51.454
-50.988
-50.444
-49.829
-49.148
-48.411
-47.622
-46.789
-45.919
-45.017
-44.091
-43.145
-42.186
-41.219
-40.25
-39.284
-38.326
-37.381
-36.453
-35.546
-34.664
-33.81
-32.988
-32.2
-31.448
-30.734
-30.059
-29.425
-28.831
-28.279
-27.769
-27.3
-26.872
-26.486
-26.14
-25.834
-25.567
-25.34
-25.151
-24.999
-24.885
-24.807
-24.763
-24.754
-24.777
-24.832
-24.916
-25.028
-25.166
-25.327
-25.511
-25.714
-25.935
-26.171
-26.421
-26.681
-26.952
-27.232
-27.52
-27.816
-28.118
-28.428
-28.745
-29.07
-29.402
-29.743
-30.091
-30.447
-30.812
-31.185
-31.566
-31.954
-32.351
-32.755
-33.166
-33.585
-34.011
-34.444
-34.885
-35.332
-35.788
-36.252
-36.723
-37.204
-37.694
-38.194
-38.705
-39.225
-39.753
-40.289
-40.83
-41.373
-41.914
-42.449
-42.973
-43.482
-43.972
-44.437
-44.874
-45.278
-45.647
-45.976
-46.263
-46.503
-46.689
-46.818
-46.883
-46.879
-46.8
-46.64
-46.393
-46.054
-45.619
-45.087
-44.453
-43.712
-42.854
-41.876
-40.778
-39.563
-38.235
-36.801
-35.269
-33.656
-31.985
-30.281
-28.567
-26.857
-25.157
-23.474
-21.821
-20.208
-18.649
-17.146
-15.688
-14.271
-12.895
-11.557
-10.252
-8.962
-7.647
-6.282
-4.85
-3.349
-1.801
-0.219
1.382
2.978
4.536
6.004
7.311
8.407
9.254
9.812
10.047
9.904
9.314
8.238
6.662
4.59
2.052
-0.93
-4.327
-8.084
-12.124
-16.348
-20.634
-24.892
-29.048
-33.021
-36.746
-40.145
-43.138
-45.714
-47.903
-49.748
-51.315
-52.65
-53.774
-54.768
-55.745
-56.829
-58.163
-59.843
-61.909
-64.461
-67.673
-71.585
-76.106
-80.961
-85.58
-89.429
-92.153
-93.272
-92.161
-88.584
-82.598
-74.566
-65.793
-57.614
-50.811
-46.587
-45.54
-46.569
-48.349
-49.03
-47.239
-43.893
-39.492
-32.627
-17.301
15.139
70.83
153.596
258.866
378.129
505.839
633.331
753.965
859.326
933.036
959.556
924.881
822.731
660.517
456.364
239.026
38.094
-122.567
-227.692
-279.29
-287.366
-264.279
-226.661
-182.988
-140.488
-109.823
-93.106
-91.566
-102.125
-112.99
-118.736
-117.922
-111.383
-105.402
-102.241
-100.322
-98.38
-94.127
-86.909
-78.017
-68.403
-58.87
-50.182
-42.816
-37.055
-33.037
-30.68
-29.737
-30.024
-31.427
-33.771
-36.847
-40.45
-44.374
-48.46
-52.595
-56.676
-60.599
-64.273
-67.619
-70.55
-73.004
-74.929
-76.27
-77.003
-77.126
-76.648
-75.605
-74.055
-72.058
-69.683
-66.996
-64.047
-60.876
-57.52
-54.009
-50.386
-46.692
-42.971
-39.271
-35.628
-32.067
-28.603
-25.24
-21.971
-18.787
-15.672
-12.607
-9.58
-6.579
-3.598
-0.632
2.327
5.294
8.283
11.315
14.408
17.57
20.809
24.129
27.528
31.003
34.548
38.152
41.805
45.498
49.225
52.979
56.751
60.533
64.311
68.073
71.806
75.497
79.133
82.699
86.183
89.571
92.851
96.012
99.04
101.924
104.65
107.204
109.573
111.745
113.708
115.45
116.96
118.228
119.246
120.006
120.504
120.733
120.689
120.37
119.774
118.901
117.752
116.33
114.637
112.678
110.459
107.988
105.271
102.317
99.138
95.744
92.146
88.357
84.392
80.263
75.985
71.574
67.047
62.418
57.705
52.925
48.095
43.232
38.353
33.474
28.612
23.783
19.003
14.286
9.646
5.099
0.655
-3.671
-7.869
-11.929
-15.839
-19.593
-23.181
-26.596
-29.834
-32.889
-35.756
-38.433
-40.917
-43.207
-45.303
-47.204
-48.913
-50.431
-51.762
-52.91
-53.879
-54.676
-55.305
-55.775
-56.091
-56.261
-56.294
-56.197
-55.979
-55.649
-55.215
-54.687
-54.074
-53.384
-52.627
-51.811
-50.945
-50.036
-49.094
-48.125
-47.138
-46.139
-45.135
-44.133
-43.14
-42.16
-41.2
-40.264
-39.357
-38.482
-37.643
-36.843
-36.085
-35.37
-34.701
-34.08
-33.508
-32.984
-32.51
-32.086
-31.711
-31.384
-31.105
-30.872
-30.683
-30.538
-30.434
-30.369
-30.343
-30.352
-30.394
-30.467
-30.568
-30.695
-30.845
-31.014
-31.201
-31.402
-31.615
-31.838
-32.069
-32.305
-32.545
-32.787
-33.029
-33.27
-33.507
-33.74
-33.965
-34.184
-34.395
-34.597
-34.79
-34.975
-35.15
-35.319
-35.48
-35.634
-35.779
-35.917
-36.049
-36.174
-36.293
-36.408
-36.518
-36.628
-36.742
-36.863
-36.994
-37.137
-37.295
-37.468
-37.659
-37.869
-38.096
-38.337
-38.592
-38.863
-39.153
-39.468
-39.81
-40.171
-40.546
-40.927
-41.308
-41.685
-42.046
-42.378
-42.671
-42.927
-43.154
-43.361
-43.55
-43.716
-43.845
-43.924
-43.945
-43.911
-43.823
-43.679
-43.482
-43.241
-42.977
-42.721
-42.489
-42.279
-42.073
-41.849
-41.597
-41.314
-41.003
-40.667
-40.304
-39.903
-39.458
-38.965
-38.404
-37.746
-36.943
-35.927
-34.65
-33.087
-31.231
-29.088
-26.667
-23.969
-21.005
-17.791
-14.346
-10.699
-6.882
-2.928
1.106
5.146
9.099
12.843
16.26
19.259
21.759
23.699
25.039
25.735
25.755
25.088
23.721
21.655
18.904
15.493
11.471
6.923
1.944
-3.335
-8.769
-14.231
-19.601
-24.769
-29.652
-34.159
-38.207
-41.734
-44.679
-46.989
-48.64
-49.625
-49.982
-49.798
-49.181
-48.253
-47.135
-45.946
-44.832
-43.945
-43.42
-43.384
-43.914
-45.093
-47.112
-50.06
-53.849
-58.21
-62.598
-66.451
-69.43
-71.132
-70.95
-68.554
-64.015
-57.915
-51.577
-46.158
-42.318
-40.748
-42.227
-47.246
-54.507
-60.748
-62.312
-55.524
-40.484
-20.899
3.503
34.537
77.315
142.039
230.471
339.135
462.022
586.661
704.549
807.495
884.276
922.949
909.221
835.719
703.727
525.053
323.258
122.551
-53.981
-187.701
-271.362
-306.318
-300.054
-265.311
-215.729
-162.026
-114.642
-81.741
-64.864
-61.86
-65.155
-65.482
-59.743
-49.072
-38.725
-34.364
-36.492
-43.257
-51.713
-58.933
-64.472
-68.376
-70.011
-69.549
-67.424
-64.157
-60.999
-58.634
-57.008
-56.292
-56.717
-58.32
-61.098
-64.716
-68.444
-71.825
-74.69
-76.914
-78.514
-79.483
-79.74
-79.324
-78.362
-76.945
-75.169
-73.087
-70.688
-67.997
-65.064
-61.948
-58.735
-55.496
-52.272
-49.097
-45.988
-42.955
-40.017
-37.179
-34.437
-31.785
-29.199
-26.667
-24.185
-21.746
-19.34
-16.953
-14.559
-12.139
-9.681
-7.177
-4.622
-2.01
0.669
3.421
6.246
9.146
12.121
15.17
18.296
21.501
24.782
28.138
31.563
35.054
38.606
42.215
45.874
49.575
53.309
57.066
60.837
64.609
68.372
72.111
75.813
79.464
83.049
86.553
89.962
93.258
96.427
99.453
102.319
105.013
107.517
109.819
111.906
113.765
115.387
116.761
117.878
118.733
119.318
119.629
119.662
119.416
118.89
118.083
116.998
115.638
114.007
112.111
109.956
107.55
104.902
102.023
98.922
95.613
92.107
88.418
84.56
80.549
76.399
72.128
67.75
63.283
58.744
54.15
49.516
44.859
40.195
35.539
30.905
26.309
21.764
17.282
12.877
8.559
4.342
0.234
-3.754
-7.613
-11.335
-14.912
-18.338
-21.607
-24.714
-27.653
-30.422
-33.017
-35.437
-37.68
-39.745
-41.634
-43.348
-44.888
-46.257
-47.46
-48.499
-49.38
-50.108
-50.687
-51.124
-51.424
-51.594
-51.64
-51.567
-51.384
-51.097
-50.713
-50.24
-49.684
-49.053
-48.354
-47.595
-46.784
-45.927
-45.033
-44.108
-43.161
-42.199
-41.228
-40.255
-39.288
-38.332
-37.394
-36.478
-35.59
-34.736
-33.917
-33.14
-32.407
-31.721
-31.085
-30.502
-29.974
-29.502
-29.087
-28.732
-28.435
-28.199
-28.022
-27.904
-27.845
-27.843
-27.897
-28.004
-28.162
-28.369
-28.621
-28.914
-29.245
-29.609
-30.003
-30.421
-30.859
-31.312
-31.776
-32.246
-32.718
-33.187
-33.648
-34.099
-34.535
-34.953
-35.35
-35.722
-36.068
-36.385
-36.672
-36.927
-37.149
-37.337
-37.49
-37.607
-37.69
-37.739
-37.754
-37.737
-37.69
-37.615
-37.515
-37.394
-37.254
-37.101
-36.938
-36.771
-36.603
-36.44
-36.287
-36.149
-36.03
-35.935
-35.869
-35.837
-35.841
-35.885
-35.971
-36.1
-36.275
-36.495
-36.759
-37.067
-37.417
-37.808
-38.24
-38.708
-39.212
-39.748
-40.316
-40.91
-41.526
-42.158
-42.798
-43.439
-44.072
-44.688
-45.276
-45.825
-46.325
-46.768
-47.144
-47.445
-47.66
-47.772
-47.772
-47.653
-47.412
-47.045
-46.554
-45.938
-45.206
-44.373
-43.456
-42.47
-41.421
-40.308
-39.132
-37.895
-36.602
-35.261
-33.871
-32.417
-30.893
-29.297
-27.622
-25.868
-24.014
-22.024
-19.871
-17.54
-15.031
-12.369
-9.576
-6.676
-3.704
-0.704
2.265
5.124
7.811
10.284
12.491
14.388
15.908
16.959
17.472
17.399
16.706
15.389
13.453
10.91
7.819
4.256
0.318
-3.875
-8.232
-12.679
-17.134
-21.519
-25.74
-29.681
-33.254
-36.391
-39.019
-41.102
-42.617
-43.581
-44.097
-44.298
-44.329
-44.337
-44.415
-44.665
-45.212
-46.153
-47.597
-49.645
-52.318
-55.731
-60.1
-65.421
-71.581
-78.272
-84.789
-90.523
-95.059
-97.678
-97.646
-94.844
-89.304
-81.606
-73.437
-66.132
-60.575
-58.375
-59.815
-62.681
-65.269
-65.198
-60.967
-55.968
-51.663
-44.361
-26.843
12.984
84.769
187.665
313.906
451.588
587.319
712.801
820.515
900.206
941.56
932.568
865.206
741.138
569.126
367.006
160.729
-25.484
-171.197
-262.824
-303.097
-301.246
-267.104
-216.317
-158.397
-102.468
-63.574
-46.565
-51.568
-72.869
-94.744
-108.874
-113.13
-109.131
-104.378
-101.801
-100.6
-99.809
-96.973
-91.667
-85.274
-78.668
-72.833
-68.494
-65.633
-64.153
-63.899
-64.506
-65.702
-67.335
-69.251
-71.31
-73.396
-75.367
-77.089
-78.481
-79.453
-79.932
-79.89
-79.325
-78.284
-76.857
-75.13
-73.185
-71.085
-68.869
-66.554
-64.143
-61.646
-59.089
-56.509
-53.949
-51.447
-49.029
-46.701
-44.459
-42.274
-40.093
-37.87
-35.559
-33.133
-30.584
-27.925
-25.181
-22.376
-19.527
-16.642
-13.721
-10.763
-7.761
-4.713
-1.614
1.532
4.71
7.905
11.103
14.297
17.489
20.69
23.914
27.176
30.489
33.861
37.296
40.792
44.344
47.943
51.575
55.23
58.897
62.568
66.234
69.884
73.504
77.079
80.594
84.03
87.371
90.597
93.693
96.643
99.432
102.046
104.476
106.709
108.736
110.545
112.126
113.471
114.571
115.418
116.005
116.327
116.379
116.159
115.666
114.899
113.861
112.553
110.981
109.149
107.065
104.736
102.171
99.38
96.374
93.165
89.765
86.189
82.45
78.565
74.549
70.417
66.186
61.873
57.492
53.062
48.596
44.111
39.623
35.147
30.697
26.288
21.934
17.648
13.443
9.331
5.322
1.426
-2.346
-5.988
-9.492
-12.851
-16.06
-19.115
-22.01
-24.745
-27.315
-29.722
-31.964
-34.042
-35.957
-37.712
-39.31
-40.754
-42.048
-43.197
-44.206
-45.079
-45.823
-46.443
-46.946
-47.338
-47.627
-47.818
-47.918
-47.935
-47.874
-47.743
-47.547
-47.293
-46.986
-46.633
-46.237
-45.805
-45.341
-44.848
-44.333
-43.798
-43.246
-42.682
-42.108
-41.528
-40.942
-40.354
-39.766
-39.18
-38.597
-38.019
-37.448
-36.884
-36.33
-35.785
-35.252
-34.729
-34.219
-33.721
-33.235
-32.763
-32.304
-31.858
-31.427
-31.011
-30.61
-30.225
-29.857
-29.507
-29.176
-28.864
-28.572
-28.3
-28.051
-27.824
-27.62
-27.44
-27.284
-27.153
-27.046
-26.964
-26.907
-26.873
-26.862
-26.874
-26.909
-26.965
-27.042
-27.14
-27.258
-27.397
-27.556
-27.734
-27.932
-28.148
-28.381
-28.632
-28.899
-29.181
-29.477
-29.786
-30.108
-30.442
-30.787
-31.142
-31.506
-31.88
-32.262
-32.651
-33.049
-33.454
-33.867
-34.287
-34.717
-35.156
-35.606
-36.066
-36.538
-37.021
-37.515
-38.018
-38.531
-39.049
-39.571
-40.096
-40.621
-41.143
-41.663
-42.176
-42.682
-43.181
-43.67
-44.146
-44.607
-45.046
-45.46
-45.843
-46.19
-46.493
-46.746
-46.942
-47.078
-47.15
-47.153
-47.08
-46.925
-46.675
-46.324
-45.869
-45.306
-44.635
-43.858
-42.98
-42.015
-40.985
-39.906
-38.786
-37.627
-36.426
-35.181
-33.892
-32.559
-31.18
-29.755
-28.277
-26.748
-25.175
-23.554
-21.874
-20.111
-18.22
-16.179
-13.987
-11.651
-9.195
-6.649
-4.046
-1.434
1.121
3.565
5.847
7.93
9.795
11.405
12.709
13.642
14.121
14.088
13.516
12.383
10.69
8.455
5.715
2.551
-0.926
-4.619
-8.449
-12.351
-16.28
-20.172
-23.949
-27.522
-30.793
-33.683
-36.136
-38.092
-39.517
-40.401
-40.781
-40.78
-40.553
-40.244
-39.973
-39.807
-39.82
-40.126
-40.832
-42.038
-43.852
-46.293
-49.431
-53.468
-58.405
-64.072
-70.169
-76.032
-81.043
-84.866
-86.93
-86.483
-83.417
-77.952
-70.646
-62.898
-55.802
-49.925
-46.446
-46.801
-50.192
-53.938
-55.214
-49.859
-37.127
-21.78
-5.293
13.773
39.2
83.312
156.019
258.814
390.41
538.931
685.925
815.663
911.044
958.682
951.086
883.285
757.459
583.106
377.73
168.062
-19.208
-162.63
-249.71
-285.166
-281.339
-250.218
-206.761
-158.749
-112.19
-78.741
-62.563
-64.474
-80.71
-98.548
-110.953
-115.815
-114.091
-111.818
-111.106
-111.054
-110.757
-108.032
-102.546
-95.568
-87.918
-80.599
-74.43
-69.511
-65.836
-63.315
-61.628
-60.547
-59.946
-59.677
-59.61
-59.675
-59.809
-59.972
-60.158
-60.318
-60.385
-60.319
-60.1
-59.744
-59.287
-58.759
-58.185
-57.596
-57.013
-56.449
-55.887
-55.282
-54.592
-53.782
-52.836
-51.76
-50.558
-49.224
-47.752
-46.128
-44.34
-42.386
-40.255
-37.932
-35.412
-32.702
-29.828
-26.84
-23.779
-20.677
-17.555
-14.421
-11.281
-8.142
-5.002
-1.853
1.314
4.51
7.742
11.009
14.314
17.669
21.088
24.596
28.208
31.934
35.779
39.745
43.83
48.03
52.332
56.721
61.177
65.685
70.227
74.789
79.355
83.904
88.416
92.869
97.243
101.518
105.674
109.688
113.543
117.218
120.695
123.96
126.995
129.785
132.315
134.569
136.534
138.199
139.552
140.584
141.286
141.652
141.677
141.36
140.699
139.695
138.351
136.672
134.663
132.332
129.689
126.745
123.511
120.001
116.23
112.214
107.97
103.514
98.867
94.048
89.077
83.974
78.762
73.461
68.092
62.678
57.239
51.797
46.372
40.985
35.655
30.402
25.243
20.196
15.278
10.502
5.884
1.437
-2.829
-6.903
-10.776
-14.441
-17.89
-21.119
-24.124
-26.901
-29.45
-31.771
-33.864
-35.732
-37.378
-38.808
-40.025
-41.038
-41.854
-42.481
-42.928
-43.205
-43.323
-43.292
-43.124
-42.83
-42.423
-41.914
-41.316
-40.641
-39.9
-39.105
-38.267
-37.397
-36.506
-35.603
-34.698
-33.8
-32.917
-32.057
-31.227
-30.434
-29.683
-28.98
-28.329
-27.733
-27.196
-26.72
-26.306
-25.954
-25.666
-25.44
-25.276
-25.171
-25.122
-25.127
-25.183
-25.284
-25.428
-25.608
-25.821
-26.062
-26.325
-26.605
-26.899
-27.2
-27.505
-27.808
-28.106
-28.393
-28.667
-28.923
-29.158
-29.369
-29.553
-29.709
-29.834
-29.928
-29.987
-30.013
-30.004
-29.96
-29.883
-29.772
-29.631
-29.46
-29.263
-29.043
-28.803
-28.547
-28.279
-28.004
-27.724
-27.446
-27.172
-26.908
-26.657
-26.425
-26.215
-26.031
-25.878
-25.759
-25.679
-25.64
-25.645
-25.696
-25.797
-25.948
-26.151
-26.408
-26.718
-27.083
-27.503
-27.976
-28.501
-29.077
-29.7
-30.366
-31.071
-31.809
-32.573
-33.358
-34.156
-34.962
-35.768
-36.569
-37.357
-38.126
-38.872
-39.587
-40.263
-40.892
-41.465
-41.975
-42.412
-42.768
-43.035
-43.204
-43.268
-43.223
-43.065
-42.788
-42.388
-41.854
-41.183
-40.375
-39.435
-38.366
-37.178
-35.879
-34.486
-33.026
-31.52
-29.994
-28.462
-26.931
-25.411
-23.912
-22.448
-21.03
-19.664
-18.34
-17.054
-15.807
-14.596
-13.417
-12.254
-11.071
-9.842
-8.554
-7.202
-5.805
-4.378
-2.932
-1.493
-0.092
1.224
2.388
3.349
4.069
4.511
4.64
4.415
3.777
2.695
1.16
-0.823
-3.23
-6.03
-9.196
-12.671
-16.376
-20.221
-24.09
-27.885
-31.531
-34.952
-38.091
-40.893
-43.327
-45.414
-47.203
-48.756
-50.132
-51.364
-52.502
-53.657
-54.948
-56.5
-58.46
-60.884
-63.867
-67.63
-72.192
-77.381
-82.887
-88.069
-92.33
-95.367
-96.671
-95.52
-91.801
-85.785
-78.093
-70.186
-63.229
-57.776
-54.88
-55.87
-60.023
-64.724
-67.139
-63.327
-52.265
-37.696
-20.595
1.891
34.563
87.038
166.454
269.905
391.289
521.749
648.592
764.174
860.362
923.222
939.454
895.612
784.685
613.665
401.178
175.548
-33.704
-203.361
-318.798
-378.733
-391.571
-367.93
-321.142
-262.532
-199.675
-143.684
-103.506
-81.701
-77.675
-83.085
-87.704
-88.584
-85.627
-81.876
-82.026
-85.654
-90.778
-95.897
-98.356
-96.938
-92.063
-84.185
-74.607
-65.274
-57.116
-50.41
-45.483
-42.465
-41.382
-42.302
-44.871
-48.281
-52.012
-55.777
-59.365
-62.781
-65.977
-68.81
-71.242
-73.3
-74.98
-76.286
-77.181
-77.566
-77.398
-76.684
-75.453
-73.785
-71.752
-69.407
-66.808
-63.991
-60.986
-57.83
-54.551
-51.174
-47.727
-44.232
-40.721
-37.244
-33.837
-30.517
-27.29
-24.137
-21.041
-17.992
-14.978
-11.985
-9.003
-6.021
-3.034
-0.043
2.957
5.974
9.019
12.115
15.277
18.512
21.826
25.216
28.681
32.217
35.817
39.469
43.162
46.885
50.631
54.394
58.164
61.931
65.681
69.399
73.071
76.683
80.22
83.667
87.008
90.229
93.317
96.261
99.048
101.666
104.102
106.343
108.379
110.199
111.792
113.149
114.26
115.119
115.719
116.057
116.128
115.93
115.463
114.725
113.719
112.447
110.913
109.122
107.078
104.788
102.262
99.508
96.536
93.357
89.984
86.428
82.705
78.826
74.807
70.662
66.406
62.054
57.62
53.122
48.573
43.989
39.386
34.778
30.181
25.609
21.075
16.592
12.174
7.833
3.579
-0.577
-4.625
-8.554
-12.357
-16.026
-19.554
-22.934
-26.161
-29.232
-32.142
-34.889
-37.471
-39.888
-42.139
-44.224
-46.144
-47.901
-49.498
-50.936
-52.219
-53.351
-54.337
-55.182
-55.89
-56.468
-56.92
-57.254
-57.476
-57.592
-57.608
-57.531
-57.368
-57.125
-56.809
-56.427
-55.985
-55.49
-54.947
-54.363
-53.742
-53.091
-52.414
-51.716
-51.001
-50.273
-49.537
-48.795
-48.053
-47.311
-46.575
-45.845
-45.126
-44.418
-43.725
-43.047
-42.386
-41.743
-41.119
-40.517
-39.935
-39.376
-38.839
-38.325
-37.835
-37.367
-36.924
-36.504
-36.107
-35.733
-35.383
-35.057
-34.754
-34.475
-34.219
-33.988
-33.782
-33.6
-33.443
-33.311
-33.203
-33.121
-33.065
-33.033
-33.028
-33.048
-33.094
-33.166
-33.264
-33.387
-33.537
-33.711
-33.911
-34.136
-34.386
-34.66
-34.958
-35.281
-35.627
-35.996
-36.388
-36.802
-37.236
-37.69
-38.162
-38.651
-39.156
-39.673
-40.203
-40.742
-41.289
-41.841
-42.397
-42.952
-43.505
-44.052
-44.59
-45.116
-45.627
-46.118
-46.587
-47.029
-47.442
-47.821
-48.164
-48.464
-48.72
-48.927
-49.079
-49.175
-49.208
-49.177
-49.076
-48.904
-48.657
-48.331
-47.926
-47.439
-46.867
-46.211
-45.468
-44.638
-43.723
-42.723
-41.64
-40.477
-39.238
-37.928
-36.553
-35.12
-33.635
-32.105
-30.541
-28.952
-27.348
-25.739
-24.136
-22.55
-20.993
-19.477
-18.015
-16.617
-15.296
-14.063
-12.929
-11.909
-11.015
-10.258
-9.645
-9.183
-8.878
-8.739
-8.773
-8.986
-9.38
-9.955
-10.712
-11.652
-12.771
-14.06
-15.493
-17.04
-18.67
-20.353
-22.064
-23.775
-25.457
-27.075
-28.594
-29.988
-31.234
-32.309
-33.191
-33.855
-34.29
-34.51
-34.569
-34.553
-34.552
-34.655
-34.928
-35.422
-36.209
-37.374
-38.982
-41.083
-43.714
-46.873
-50.648
-55.204
-60.519
-66.443
-72.643
-78.504
-83.494
-87.211
-89.009
-88.202
-84.661
-78.457
-70.146
-61.248
-53.019
-46.445
-43.196
-43.477
-45.199
-46.89
-46.377
-43.454
-42.304
-43.064
-41.296
-27.403
12.705
84.897
185.382
302.693
421.235
532.778
634.711
724.966
799.445
845.51
846.494
790.264
673.39
505.201
307.004
107.229
-67.63
-198.657
-276.76
-307.903
-303.156
-271.44
-224.733
-169.81
-114.397
-73.332
-52.965
-54.418
-72.16
-90.697
-101.369
-101.954
-94.44
-86.433
-81.049
-77.657
-75.212
-71.247
-65.314
-58.644
-52.001
-46.294
-42.193
-39.715
-38.833
-39.415
-41.084
-43.522
-46.507
-49.835
-53.316
-56.785
-60.074
-63.022
-65.538
-67.559
-69.04
-69.946
-70.25
-69.934
-69
-67.491
-65.479
-63.051
-60.29
-57.261
-54.022
-50.641
-47.192
-43.747
-40.363
-37.068
-33.876
-30.801
-27.856
-25.056
-22.405
-19.892
-17.49
-15.169
-12.907
-10.686
-8.489
-6.297
-4.084
-1.83
0.478
2.845
5.275
7.773
10.349
13.009
15.76
18.602
21.534
24.555
27.665
30.863
34.147
37.514
40.956
44.467
48.043
51.679
55.368
59.1
62.865
66.652
70.448
74.242
78.018
81.763
85.459
89.091
92.644
96.102
99.449
102.668
105.743
108.659
111.401
113.953
116.301
118.432
120.333
121.992
123.399
124.545
125.42
126.019
126.337
126.369
126.113
125.568
124.734
123.614
122.21
120.527
118.573
116.354
113.879
111.158
108.203
105.025
101.638
98.055
94.291
90.361
86.281
82.066
77.734
73.301
68.783
64.198
59.563
54.895
50.21
45.524
40.853
36.213
31.618
27.081
22.617
18.239
13.956
9.782
5.725
1.795
-1.999
-5.652
-9.155
-12.505
-15.695
-18.724
-21.587
-24.282
-26.809
-29.167
-31.355
-33.375
-35.228
-36.916
-38.442
-39.809
-41.021
-42.082
-42.997
-43.77
-44.408
-44.916
-45.299
-45.564
-45.718
-45.765
-45.714
-45.57
-45.339
-45.028
-44.643
-44.19
-43.675
-43.102
-42.478
-41.808
-41.096
-40.348
-39.568
-38.761
-37.93
-37.081
-36.218
-35.343
-34.461
-33.576
-32.689
-31.806
-30.928
-30.058
-29.199
-28.353
-27.522
-26.707
-25.912
-25.136
-24.381
-23.649
-22.939
-22.254
-21.593
-20.958
-20.349
-19.767
-19.213
-18.687
-18.191
-17.724
-17.288
-16.883
-16.509
-16.168
-15.86
-15.585
-15.343
-15.135
-14.96
-14.82
-14.713
-14.641
-14.602
-14.596
-14.624
-14.684
-14.777
-14.902
-15.059
-15.248
-15.469
-15.721
-16.004
-16.319
-16.665
-17.041
-17.446
-17.881
-18.343
-18.833
-19.347
-19.886
-20.446
-21.027
-21.625
-22.239
-22.866
-23.502
-24.146
-24.792
-25.439
-26.082
-26.717
-27.342
-27.951
-28.542
-29.11
-29.652
-30.164
-30.64
-31.078
-31.472
-31.817
-32.11
-32.346
-32.519
-32.626
-32.662
-32.624
-32.507
-32.309
-32.026
-31.655
-31.195
-30.644
-30
-29.264
-28.435
-27.517
-26.51
-25.419
-24.248
-23.002
-21.688
-20.314
-18.885
-17.411
-15.9
-14.361
-12.806
-11.245
-9.688
-8.146
-6.631
-5.156
-3.734
-2.377
-1.097
0.094
1.185
2.164
3.016
3.728
4.295
4.706
4.956
5.036
4.935
4.649
4.177
3.519
2.677
1.656
0.459
-0.905
-2.413
-4.042
-5.759
-7.534
-9.346
-11.169
-12.976
-14.739
-16.421
-17.993
-19.435
-20.724
-21.844
-22.782
-23.521
-24.069
-24.46
-24.748
-25.02
-25.358
-25.826
-26.477
-27.338
-28.461
-29.915
-31.747
-34.014
-36.747
-39.928
-43.633
-47.978
-52.875
-58.134
-63.361
-67.891
-71.226
-72.989
-72.589
-69.638
-64.236
-56.593
-47.532
-38.532
-30.65
-24.961
-22.933
-24.14
-26.334
-27.853
-26.032
-20.451
-14.578
-7.643
4.261
27.752
73.089
143.775
235.282
339.198
444.963
544.93
634.714
708.935
758.083
769.39
731.267
639.332
499.215
326.85
146.572
-18.456
-149.04
-232.039
-268.987
-267.551
-237.451
-194.365
-147.912
-105.563
-77.519
-65.126
-67.028
-79.081
-90.845
-97.71
-99.026
-95.96
-93.239
-92.065
-91.258
-89.923
-86.39
-80.512
-73.383
-65.694
-58.253
-51.768
-46.382
-42.138
-39
-36.739
-35.222
-34.398
-34.183
-34.484
-35.224
-36.306
-37.645
-39.193
-40.88
-42.643
-44.443
-46.249
-48.054
-49.854
-51.64
-53.394
-55.07
-56.618
-57.982
-59.093
-59.908
-60.413
-60.604
-60.498
-60.114
-59.458
-58.532
-57.338
-55.869
-54.124
-52.104
-49.808
-47.261
-44.496
-41.56
-38.512
-35.395
-32.232
-29.042
-25.831
-22.598
-19.347
-16.078
-12.784
-9.466
-6.124
-2.76
0.62
4.018
7.444
10.911
14.438
18.038
21.713
25.465
29.289
33.176
37.117
41.098
45.1
49.105
53.101
57.072
61.007
64.893
68.714
72.453
76.092
79.614
83.004
86.246
89.325
92.226
94.938
97.449
99.75
101.832
103.685
105.3
106.671
107.789
108.648
109.245
109.575
109.636
109.425
108.945
108.196
107.182
105.906
104.375
102.594
100.572
98.317
95.838
93.145
90.25
87.165
83.901
80.473
76.895
73.181
69.347
65.408
61.381
57.281
53.123
48.925
44.702
40.469
36.242
32.036
27.864
23.741
19.68
15.694
11.794
7.992
4.298
0.721
-2.73
-6.047
-9.224
-12.255
-15.134
-17.858
-20.422
-22.825
-25.065
-27.141
-29.053
-30.802
-32.39
-33.819
-35.093
-36.216
-37.192
-38.026
-38.724
-39.292
-39.737
-40.065
-40.283
-40.399
-40.42
-40.352
-40.203
-39.981
-39.692
-39.343
-38.941
-38.492
-38.004
-37.481
-36.932
-36.36
-35.771
-35.172
-34.566
-33.958
-33.353
-32.754
-32.164
-31.587
-31.026
-30.483
-29.96
-29.459
-28.981
-28.528
-28.1
-27.697
-27.319
-26.967
-26.641
-26.341
-26.066
-25.816
-25.592
-25.393
-25.219
-25.071
-24.949
-24.851
-24.779
-24.732
-24.709
-24.712
-24.739
-24.791
-24.868
-24.97
-25.096
-25.247
-25.423
-25.623
-25.847
-26.095
-26.367
-26.663
-26.982
-27.326
-27.695
-28.089
-28.508
-28.954
-29.427
-29.925
-30.45
-31
-31.574
-32.173
-32.793
-33.435
-34.097
-34.777
-35.475
-36.189
-36.916
-37.656
-38.407
-39.166
-39.931
-40.701
-41.473
-42.246
-43.018
-43.788
-44.553
-45.313
-46.065
-46.807
-47.536
-48.25
-48.945
-49.617
-50.261
-50.873
-51.45
-51.988
-52.484
-52.936
-53.34
-53.696
-54.004
-54.261
-54.467
-54.617
-54.71
-54.741
-54.708
-54.608
-54.436
-54.19
-53.867
-53.465
-52.987
-52.433
-51.8
-51.086
-50.286
-49.398
-48.426
-47.375
-46.248
-45.057
-43.815
-42.543
-41.269
-40.017
-38.8
-37.629
-36.503
-35.425
-34.398
-33.423
-32.501
-31.631
-30.806
-30.025
-29.294
-28.603
-27.942
-27.281
-26.572
-25.784
-24.908
-23.942
-22.902
-21.815
-20.7
-19.594
-18.546
-17.598
-16.79
-16.146
-15.669
-15.367
-15.254
-15.358
-15.731
-16.405
-17.383
-18.658
-20.203
-21.971
-23.92
-25.982
-28.064
-30.092
-32.001
-33.751
-35.343
-36.801
-38.163
-39.466
-40.732
-41.972
-43.196
-44.436
-45.752
-47.228
-48.945
-50.989
-53.402
-56.269
-59.756
-63.873
-68.47
-73.168
-77.323
-80.398
-82.112
-82.06
-79.74
-75.054
-68.158
-59.86
-51.739
-44.856
-39.841
-37.592
-38.738
-43.144
-49.417
-54.125
-53.049
-43.67
-26.848
-4.603
22.635
56.527
103.536
169.549
255.2
357.667
468.013
575.071
667.61
734.149
764.497
749.221
685.14
574.677
426.475
258.081
88.951
-61.46
-176.701
-249.048
-280.417
-278.576
-252.779
-214.013
-169.504
-125.933
-93.54
-76.282
-74.665
-84.774
-95.752
-101.805
-101.423
-95.8
-90.051
-85.89
-82.511
-79.088
-73.879
-66.702
-58.61
-50.289
-42.567
-36.12
-31.088
-27.54
-25.435
-24.533
-24.65
-25.645
-27.362
-29.634
-32.306
-35.226
-38.264
-41.331
-44.355
-47.269
-50.013
-52.537
-54.786
-56.699
-58.228
-59.325
-59.964
-60.142
-59.869
-59.162
-58.061
-56.61
-54.858
-52.858
-50.642
-48.229
-45.638
-42.878
-39.972
-36.954
-33.858
-30.725
-27.585
-24.458
-21.354
-18.279
-15.229
-12.195
-9.164
-6.118
-3.047
0.053
3.183
6.341
9.528
12.751
16.022
19.353
22.757
26.236
29.794
33.43
37.14
40.914
44.743
48.609
52.499
56.401
60.303
64.196
68.069
71.908
75.7
79.43
83.082
86.643
90.098
93.433
96.634
99.688
102.584
105.311
107.86
110.221
112.383
114.338
116.075
117.589
118.873
119.918
120.722
121.28
121.589
121.65
121.46
121.023
120.339
119.411
118.245
116.845
115.218
113.37
111.308
109.042
106.58
103.933
101.11
98.123
94.983
91.702
88.292
84.766
81.137
77.416
73.618
69.754
65.838
61.881
57.896
53.895
49.891
45.894
41.916
37.967
34.057
30.196
26.393
22.657
18.995
15.414
11.922
8.524
5.227
2.036
-1.046
-4.013
-6.863
-9.592
-12.198
-14.68
-17.035
-19.264
-21.365
-23.339
-25.186
-26.907
-28.503
-29.976
-31.328
-32.561
-33.678
-34.682
-35.575
-36.362
-37.046
-37.631
-38.12
-38.518
-38.829
-39.058
-39.209
-39.286
-39.295
-39.239
-39.124
-38.953
-38.733
-38.466
-38.158
-37.813
-37.435
-37.028
-36.597
-36.145
-35.677
-35.196
-34.705
-34.209
-33.711
-33.214
-32.722
-32.236
-31.761
-31.298
-30.851
-30.422
-30.012
-29.623
-29.258
-28.918
-28.604
-28.317
-28.058
-27.827
-27.625
-27.453
-27.31
-27.197
-27.114
-27.061
-27.036
-27.041
-27.075
-27.137
-27.226
-27.342
-27.484
-27.651
-27.842
-28.056
-28.292
-28.549
-28.824
-29.117
-29.425
-29.747
-30.08
-30.424
-30.777
-31.136
-31.501
-31.87
-32.242
-32.617
-32.993
-33.369
-33.745
-34.119
-34.49
-34.859
-35.225
-35.586
-35.941
-36.292
-36.636
-36.975
-37.307
-37.632
-37.95
-38.259
-38.56
-38.853
-39.138
-39.413
-39.68
-39.939
-40.189
-40.433
-40.669
-40.897
-41.118
-41.329
-41.531
-41.722
-41.898
-42.057
-42.197
-42.316
-42.412
-42.481
-42.523
-42.535
-42.517
-42.468
-42.385
-42.265
-42.103
-41.897
-41.642
-41.335
-40.971
-40.545
-40.052
-39.491
-38.861
-38.161
-37.39
-36.542
-35.612
-34.597
-33.5
-32.325
-31.077
-29.765
-28.399
-26.998
-25.589
-24.198
-22.845
-21.538
-20.283
-19.083
-17.943
-16.871
-15.872
-14.942
-14.073
-13.259
-12.5
-11.794
-11.132
-10.487
-9.816
-9.083
-8.268
-7.373
-6.411
-5.397
-4.354
-3.31
-2.305
-1.395
-0.635
-0.061
0.302
0.44
0.338
-0.038
-0.733
-1.785
-3.208
-4.992
-7.111
-9.533
-12.206
-15.069
-18.038
-21.006
-23.886
-26.608
-29.131
-31.44
-33.549
-35.484
-37.262
-38.921
-40.485
-41.972
-43.427
-44.922
-46.551
-48.414
-50.62
-53.219
-56.296
-60.018
-64.384
-69.223
-74.143
-78.48
-81.677
-83.448
-83.417
-81.081
-76.342
-69.395
-61.051
-52.878
-45.936
-40.788
-38.135
-38.483
-41.814
-46.654
-49.384
-45.978
-33.167
-11.243
16.245
48.895
87.036
134.255
198.96
281.55
379.523
489.38
598.74
698.789
781.194
830.475
835.085
784.533
672.288
506.473
306.477
100.64
-80.346
-212.658
-285.806
-305.331
-284.595
-240.551
-189.036
-138.66
-97.313
-71.45
-61.73
-66.899
-80.115
-91.558
-97
-95.344
-89.208
-83.621
-79.684
-76.793
-74.016
-69.588
-63.544
-56.919
-50.329
-44.643
-40.508
-37.979
-37.064
-37.652
-39.427
-42.143
-45.61
-49.596
-53.856
-58.181
-62.382
-66.294
-69.816
-72.864
-75.368
-77.279
-78.566
-79.21
-79.201
-78.555
-77.306
-75.501
-73.209
-70.508
-67.488
-64.243
-60.863
-57.43
-54.011
-50.654
-47.387
-44.23
-41.194
-38.286
-35.517
-32.886
-30.388
-28.013
-25.745
-23.562
-21.437
-19.341
-17.245
-15.125
-12.961
-10.741
-8.456
-6.101
-3.676
-1.178
1.395
4.046
6.778
9.592
12.489
15.468
18.526
21.659
24.862
28.129
31.455
34.834
38.26
41.726
45.228
48.756
52.303
55.86
59.413
62.952
66.462
69.931
73.342
76.681
79.933
83.082
86.113
89.012
91.763
94.352
96.765
98.988
101.008
102.814
104.393
105.737
106.836
107.681
108.266
108.585
108.634
108.41
107.911
107.136
106.087
104.765
103.174
101.319
99.206
96.842
94.236
91.398
88.34
85.072
81.609
77.965
74.155
70.194
66.1
61.887
57.574
53.177
48.715
44.204
39.662
35.105
30.552
26.017
21.518
17.07
12.687
8.384
4.174
0.07
-3.917
-7.776
-11.496
-15.068
-18.485
-21.739
-24.825
-27.737
-30.471
-33.024
-35.395
-37.583
-39.588
-41.411
-43.055
-44.522
-45.816
-46.943
-47.906
-48.711
-49.367
-49.878
-50.253
-50.498
-50.623
-50.634
-50.54
-50.349
-50.069
-49.708
-49.274
-48.775
-48.218
-47.61
-46.958
-46.27
-45.551
-44.808
-44.046
-43.27
-42.486
-41.698
-40.91
-40.125
-39.347
-38.579
-37.823
-37.081
-36.356
-35.647
-34.957
-34.287
-33.636
-33.006
-32.396
-31.807
-31.238
-30.69
-30.162
-29.655
-29.167
-28.699
-28.251
-27.823
-27.414
-27.025
-26.655
-26.306
-25.976
-25.666
-25.377
-25.108
-24.86
-24.632
-24.425
-24.24
-24.076
-23.933
-23.812
-23.713
-23.635
-23.579
-23.544
-23.53
-23.537
-23.565
-23.614
-23.682
-23.77
-23.876
-24
-24.141
-24.299
-24.471
-24.658
-24.857
-25.068
-25.29
-25.521
-25.761
-26.01
-26.265
-26.526
-26.793
-27.066
-27.343
-27.625
-27.911
-28.203
-28.499
-28.8
-29.108
-29.421
-29.742
-30.069
-30.405
-30.749
-31.101
-31.462
-31.833
-32.214
-32.604
-33.004
-33.414
-33.833
-34.261
-34.698
-35.141
-35.59
-36.042
-36.496
-36.948
-37.396
-37.837
-38.267
-38.682
-39.077
-39.448
-39.79
-40.098
-40.365
-40.585
-40.754
-40.864
-40.911
-40.888
-40.789
-40.611
-40.347
-39.994
-39.548
-39.005
-38.363
-37.62
-36.774
-35.825
-34.774
-33.622
-32.373
-31.028
-29.595
-28.08
-26.491
-24.835
-23.125
-21.37
-19.585
-17.78
-15.97
-14.168
-12.387
-10.643
-8.949
-7.321
-5.772
-4.32
-2.98
-1.768
-0.699
0.215
0.965
1.544
1.944
2.159
2.177
1.992
1.595
0.983
0.15
-0.907
-2.186
-3.673
-5.339
-7.151
-9.076
-11.083
-13.147
-15.239
-17.324
-19.365
-21.318
-23.14
-24.794
-26.241
-27.443
-28.368
-28.996
-29.347
-29.499
-29.54
-29.56
-29.632
-29.785
-30.084
-30.638
-31.547
-32.916
-34.842
-37.338
-40.49
-44.518
-49.429
-55.06
-61.082
-66.815
-71.681
-75.4
-77.449
-77.139
-74.379
-69.442
-62.97
-56.41
-50.87
-46.831
-45.335
-47.655
-52.734
-57.762
-60.144
-56.106
-45.688
-33.243
-17.947
4.105
39.633
99.314
185.812
293.208
412.424
531.677
642.469
739.66
817.263
867.332
877.885
838.427
745.316
600.005
416.318
217.956
27.699
-128.56
-232.785
-285.11
-291.49
-265.091
-223.618
-174.954
-126.323
-87.3
-60.165
-46.991
-46.008
-47.763
-48.314
-47.428
-46.293
-49.674
-58.137
-69.021
-80.239
-89.2
-94.592
-96.236
-94.144
-89.015
-82.192
-75.163
-68.828
-63.486
-59.274
-56.378
-54.932
-54.956
-56.088
-57.635
-59.15
-60.432
-61.393
-62.039
-62.338
-62.248
-61.814
-61.176
-60.445
-59.685
-58.92
-58.13
-57.322
-56.513
-55.712
-54.921
-54.124
-53.317
-52.501
-51.677
-50.832
-49.924
-48.916
-47.775
-46.472
-44.986
-43.297
-41.387
-39.241
-36.869
-34.283
-31.507
-28.576
-25.511
-22.328
-19.044
-15.675
-12.242
-8.769
-5.264
-1.729
1.829
5.407
8.998
12.596
16.205
19.834
23.493
27.196
30.949
34.751
38.605
42.506
46.449
50.426
54.425
58.427
62.415
66.376
70.295
74.157
77.945
81.643
85.231
88.693
92.012
95.173
98.16
100.959
103.557
105.944
108.109
110.044
111.742
113.193
114.393
115.336
116.015
116.429
116.575
116.451
116.058
115.396
114.469
113.281
111.837
110.144
108.21
106.043
103.654
101.051
98.248
95.254
92.083
88.748
85.261
81.636
77.888
74.031
70.078
66.044
61.944
57.793
53.603
49.39
45.167
40.948
36.746
32.573
28.441
24.362
20.348
16.408
12.553
8.792
5.132
1.583
-1.849
-5.159
-8.339
-11.386
-14.295
-17.063
-19.687
-22.165
-24.494
-26.674
-28.705
-30.585
-32.316
-33.898
-35.333
-36.623
-37.771
-38.779
-39.652
-40.392
-41.003
-41.491
-41.86
-42.115
-42.261
-42.303
-42.246
-42.098
-41.862
-41.545
-41.153
-40.692
-40.167
-39.583
-38.946
-38.262
-37.536
-36.773
-35.977
-35.155
-34.31
-33.447
-32.571
-31.687
-30.798
-29.909
-29.023
-28.145
-27.277
-26.423
-25.586
-24.769
-23.974
-23.204
-22.461
-21.747
-21.063
-20.411
-19.793
-19.208
-18.659
-18.146
-17.669
-17.228
-16.826
-16.46
-16.133
-15.843
-15.591
-15.378
-15.202
-15.065
-14.965
-14.904
-14.879
-14.892
-14.942
-15.028
-15.15
-15.306
-15.497
-15.721
-15.978
-16.266
-16.585
-16.934
-17.312
-17.719
-18.152
-18.611
-19.097
-19.606
-20.14
-20.697
-21.275
-21.876
-22.497
-23.138
-23.797
-24.476
-25.171
-25.883
-26.61
-27.351
-28.106
-28.873
-29.651
-30.439
-31.236
-32.041
-32.854
-33.673
-34.497
-35.326
-36.158
-36.993
-37.828
-38.664
-39.497
-40.328
-41.153
-41.973
-42.783
-43.584
-44.371
-45.144
-45.899
-46.634
-47.345
-48.03
-48.685
-49.307
-49.892
-50.436
-50.937
-51.39
-51.792
-52.138
-52.425
-52.648
-52.803
-52.885
-52.891
-52.815
-52.655
-52.405
-52.063
-51.624
-51.087
-50.45
-49.709
-48.864
-47.914
-46.859
-45.699
-44.436
-43.073
-41.613
-40.06
-38.418
-36.695
-34.899
-33.036
-31.118
-29.154
-27.157
-25.138
-23.111
-21.088
-19.082
-17.106
-15.174
-13.299
-11.496
-9.777
-8.158
-6.655
-5.281
-4.053
-2.981
-2.075
-1.341
-0.786
-0.415
-0.236
-0.257
-0.484
-0.922
-1.578
-2.459
-3.564
-4.885
-6.397
-8.071
-9.877
-11.783
-13.761
-15.784
-17.823
-19.841
-21.804
-23.671
-25.402
-26.961
-28.3
-29.381
-30.176
-30.696
-30.999
-31.166
-31.285
-31.429
-31.648
-32.012
-32.614
-33.545
-34.897
-36.765
-39.19
-42.289
-46.29
-51.219
-56.969
-63.271
-69.499
-75.08
-79.662
-82.604
-83.151
-81.245
-77.047
-71.111
-65.097
-60.235
-57.148
-57.386
-61.541
-67.712
-74.165
-78.464
-78.366
-76.223
-73.548
-67.085
-50.628
-13.823
52.317
147.72
265.825
396.304
526.54
648.331
754.684
836.603
887.118
895.914
854.895
764.089
625.745
451.989
262.378
75.834
-85.864
-206.096
-278.398
-303.106
-287.36
-243.428
-184.672
-123.342
-73.05
-43.718
-36.848
-49.03
-69.619
-86.337
-94.527
-93.855
-88.161
-83.338
-80.647
-79.219
-77.925
-74.968
-70.401
-65.355
-60.508
-56.624
-54.226
-53.271
-53.623
-55.103
-57.37
-60.164
-63.337
-66.713
-70.099
-73.333
-76.25
-78.712
-80.657
-82.042
-82.83
-83.009
-82.573
-81.544
-79.973
-77.919
-75.455
-72.649
-69.554
-66.223
-62.725
-59.129
-55.515
-51.962
-48.505
-45.167
-41.964
-38.898
-35.979
-33.208
-30.565
-28.029
-25.578
-23.194
-20.866
-18.589
-16.339
-14.093
-11.826
-9.506
-7.136
-4.716
-2.243
0.284
2.871
5.523
8.234
10.997
13.815
16.691
19.627
22.631
25.695
28.813
31.98
35.187
38.437
41.73
45.063
48.431
51.829
55.248
58.684
62.131
65.577
69.007
72.409
75.767
79.069
82.304
85.456
88.513
91.458
94.277
96.955
99.478
101.832
104.003
105.979
107.746
109.296
110.62
111.709
112.558
113.159
113.508
113.602
113.437
113.012
112.327
111.383
110.181
108.725
107.02
105.071
102.885
100.469
97.833
94.986
91.939
88.705
85.294
81.722
78.001
74.147
70.174
66.099
61.935
57.701
53.41
49.079
44.723
40.358
35.998
31.657
27.349
23.088
18.886
14.755
10.707
6.752
2.902
-0.836
-4.451
-7.937
-11.285
-14.489
-17.545
-20.446
-23.189
-25.771
-28.189
-30.443
-32.532
-34.456
-36.215
-37.813
-39.252
-40.535
-41.665
-42.648
-43.488
-44.191
-44.762
-45.207
-45.532
-45.744
-45.849
-45.852
-45.761
-45.583
-45.322
-44.987
-44.582
-44.115
-43.591
-43.017
-42.398
-41.74
-41.048
-40.328
-39.585
-38.823
-38.047
-37.261
-36.47
-35.677
-34.884
-34.097
-33.316
-32.544
-31.785
-31.039
-30.308
-29.594
-28.898
-28.222
-27.566
-26.933
-26.322
-25.735
-25.173
-24.636
-24.125
-23.64
-23.183
-22.753
-22.352
-21.979
-21.634
-21.319
-21.033
-20.777
-20.551
-20.355
-20.19
-20.055
-19.949
-19.874
-19.829
-19.813
-19.827
-19.871
-19.943
-20.044
-20.173
-20.329
-20.512
-20.721
-20.954
-21.21
-21.489
-21.789
-22.109
-22.449
-22.808
-23.184
-23.578
-23.988
-24.414
-24.855
-25.309
-25.776
-26.255
-26.744
-27.242
-27.749
-28.263
-28.784
-29.311
-29.843
-30.38
-30.92
-31.463
-32.008
-32.555
-33.102
-33.65
-34.198
-34.746
-35.293
-35.841
-36.388
-36.934
-37.478
-38.018
-38.552
-39.078
-39.591
-40.09
-40.57
-41.028
-41.462
-41.868
-42.245
-42.591
-42.904
-43.181
-43.42
-43.617
-43.765
-43.862
-43.902
-43.88
-43.79
-43.626
-43.383
-43.061
-42.655
-42.163
-41.579
-40.894
-40.104
-39.207
-38.206
-37.103
-35.905
-34.617
-33.254
-31.839
-30.393
-28.938
-27.488
-26.046
-24.618
-23.213
-21.838
-20.505
-19.214
-17.951
-16.711
-15.488
-14.278
-13.073
-11.853
-10.575
-9.211
-7.74
-6.159
-4.487
-2.74
-0.93
0.919
2.774
4.585
6.276
7.789
9.082
10.11
10.828
11.176
11.071
10.461
9.33
7.677
5.531
2.92
-0.134
-3.578
-7.337
-11.315
-15.386
-19.448
-23.423
-27.229
-30.78
-33.987
-36.756
-39.046
-40.895
-42.353
-43.497
-44.39
-45.063
-45.593
-46.115
-46.791
-47.795
-49.273
-51.285
-53.927
-57.419
-61.851
-67.13
-72.935
-78.598
-83.485
-87.232
-89.414
-89.425
-87.008
-82.303
-75.98
-69.554
-64.318
-60.996
-60.399
-63.332
-70.088
-79.182
-87.171
-89.988
-83.651
-67.87
-45.5
-15.837
22.558
73.831
146.722
241.786
355.778
484.127
614.91
739.03
846.672
923.399
955.363
929.292
839.303
689.328
495.378
282.757
76.475
-99.394
-228.494
-306.353
-334.873
-322.312
-282.735
-229.058
-173.663
-130.156
-104.014
-94.743
-97.551
-100.698
-97.906
-89.711
-79.643
-74.721
-77.438
-85.24
-94.796
-102.519
-107.043
-108.563
-106.816
-101.951
-94.496
-85.421
-76.27
-68.001
-60.893
-55.156
-51.041
-48.745
-48.332
-49.467
-51.44
-53.759
-56.196
-58.62
-60.995
-63.252
-65.288
-67.083
-68.708
-70.194
-71.525
-72.654
-73.491
-73.966
-74.042
-73.705
-72.975
-71.887
-70.484
-68.808
-66.89
-64.755
-62.418
-59.894
-57.199
-54.344
-51.344
-48.223
-45.009
-41.744
-38.479
-35.245
-32.054
-28.908
-25.799
-22.72
-19.669
-16.64
-13.621
-10.606
-7.587
-4.561
-1.53
1.514
4.582
7.692
10.867
14.123
17.465
20.899
24.424
28.036
31.732
35.502
39.332
43.208
47.118
51.05
54.996
58.942
62.872
66.768
70.613
74.388
78.076
81.657
85.114
88.429
91.586
94.569
97.363
99.956
102.333
104.479
106.381
108.027
109.406
110.507
111.32
111.837
112.051
111.957
111.552
110.834
109.803
108.461
106.81
104.855
102.603
100.062
97.241
94.149
90.8
87.205
83.381
79.341
75.104
70.684
66.102
61.375
56.523
51.564
46.518
41.405
36.245
31.056
25.858
20.671
15.512
10.401
5.355
0.391
-4.475
-9.228
-13.852
-18.335
-22.665
-26.831
-30.822
-34.63
-38.249
-41.671
-44.891
-47.906
-50.712
-53.31
-55.697
-57.874
-59.844
-61.609
-63.172
-64.538
-65.712
-66.698
-67.505
-68.138
-68.605
-68.914
-69.074
-69.093
-68.979
-68.743
-68.393
-67.939
-67.391
-66.757
-66.048
-65.271
-64.436
-63.551
-62.625
-61.665
-60.679
-59.673
-58.655
-57.63
-56.604
-55.583
-54.57
-53.572
-52.591
-51.632
-50.696
-49.789
-48.911
-48.065
-47.252
-46.476
-45.735
-45.033
-44.368
-43.741
-43.152
-42.6
-42.086
-41.608
-41.165
-40.756
-40.379
-40.033
-39.716
-39.426
-39.163
-38.924
-38.707
-38.51
-38.333
-38.173
-38.028
-37.898
-37.78
-37.673
-37.575
-37.486
-37.404
-37.327
-37.255
-37.186
-37.119
-37.054
-36.988
-36.922
-36.855
-36.787
-36.717
-36.647
-36.575
-36.504
-36.434
-36.366
-36.302
-36.242
-36.188
-36.142
-36.104
-36.077
-36.061
-36.058
-36.069
-36.096
-36.139
-36.201
-36.283
-36.385
-36.508
-36.654
-36.823
-37.016
-37.232
-37.473
-37.737
-38.026
-38.339
-38.675
-39.033
-39.41
-39.805
-40.215
-40.635
-41.06
-41.486
-41.908
-42.319
-42.714
-43.088
-43.436
-43.752
-44.032
-44.273
-44.47
-44.615
-44.703
-44.726
-44.678
-44.552
-44.34
-44.034
-43.627
-43.114
-42.492
-41.759
-40.91
-39.939
-38.838
-37.604
-36.236
-34.738
-33.114
-31.369
-29.513
-27.563
-25.547
-23.49
-21.411
-19.322
-17.228
-15.137
-13.058
-11
-8.974
-6.979
-5.01
-3.067
-1.154
0.728
2.583
4.435
6.322
8.273
10.3
12.392
14.528
16.687
18.846
20.973
23.029
24.951
26.682
28.177
29.402
30.327
30.909
31.085
30.782
29.943
28.551
26.622
24.191
21.294
17.979
14.309
10.369
6.274
2.128
-1.979
-5.971
-9.777
-13.319
-16.502
-19.233
-21.447
-23.137
-24.364
-25.206
-25.747
-26.073
-26.246
-26.376
-26.632
-27.158
-28.089
-29.547
-31.57
-34.259
-37.848
-42.368
-47.656
-53.398
-58.935
-63.682
-67.361
-69.466
-69.286
-66.706
-61.964
-55.675
-49.265
-43.778
-39.604
-37.606
-38.921
-42.793
-46.735
-47.976
-42.694
-29.967
-13.314
6.254
31.222
65.947
119.009
196.466
295.459
410.865
535.046
657.146
769.926
864.374
927.596
947.132
911.791
817.167
667.735
478.778
273.25
74.374
-94.639
-217.802
-290.583
-315.04
-300.179
-260.476
-208.386
-155.819
-115.433
-91.883
-84.76
-89.092
-93.346
-92.008
-85.823
-77.908
-74.686
-77.729
-83.8
-90.276
-94.439
-95.207
-93.101
-88.01
-80.057
-70.294
-60.217
-50.943
-43.05
-36.651
-31.646
-28.302
-26.88
-27.169
-28.621
-30.696
-33.035
-35.509
-38.125
-40.773
-43.311
-45.672
-47.857
-49.9
-51.799
-53.505
-54.95
-56.074
-56.846
-57.246
-57.25
-56.857
-56.091
-54.983
-53.569
-51.884
-49.939
-47.75
-45.338
-42.719
-39.92
-36.959
-33.843
-30.596
-27.246
-23.828
-20.386
-16.945
-13.511
-10.088
-6.676
-3.273
0.115
3.492
6.869
10.252
13.646
17.053
20.473
23.909
27.372
30.878
34.445
38.084
41.796
45.582
49.441
53.366
57.353
61.389
65.458
69.546
73.639
77.727
81.797
85.837
89.829
93.757
97.603
101.35
104.982
108.482
111.834
115.022
118.032
120.851
123.467
125.87
128.046
129.986
131.677
133.11
134.277
135.167
135.775
136.093
136.117
135.844
135.271
134.398
133.226
131.758
129.997
127.948
125.617
123.012
120.141
117.015
113.645
110.044
106.223
102.199
97.986
93.6
89.059
84.38
79.58
74.678
69.692
64.641
59.543
54.416
49.28
44.152
39.051
33.995
29.001
24.086
19.265
14.555
9.969
5.521
1.223
-2.915
-6.881
-10.666
-14.264
-17.667
-20.869
-23.867
-26.657
-29.236
-31.606
-33.765
-35.717
-37.462
-39.007
-40.355
-41.511
-42.484
-43.279
-43.905
-44.37
-44.684
-44.856
-44.897
-44.817
-44.627
-44.337
-43.958
-43.502
-42.978
-42.398
-41.77
-41.106
-40.414
-39.703
-38.981
-38.257
-37.538
-36.831
-36.143
-35.478
-34.843
-34.241
-33.677
-33.153
-32.673
-32.237
-31.849
-31.507
-31.214
-30.968
-30.77
-30.618
-30.512
-30.45
-30.43
-30.45
-30.508
-30.602
-30.729
-30.887
-31.073
-31.286
-31.522
-31.781
-32.059
-32.356
-32.668
-32.995
-33.335
-33.686
-34.046
-34.413
-34.788
-35.168
-35.553
-35.943
-36.336
-36.733
-37.134
-37.538
-37.946
-38.358
-38.775
-39.196
-39.621
-40.051
-40.486
-40.925
-41.371
-41.822
-42.279
-42.742
-43.211
-43.687
-44.168
-44.654
-45.146
-45.643
-46.144
-46.65
-47.161
-47.677
-48.197
-48.723
-49.255
-49.792
-50.333
-50.88
-51.429
-51.98
-52.532
-53.083
-53.629
-54.17
-54.702
-55.224
-55.734
-56.23
-56.711
-57.174
-57.618
-58.04
-58.436
-58.804
-59.137
-59.431
-59.68
-59.88
-60.026
-60.114
-60.14
-60.098
-59.987
-59.802
-59.538
-59.187
-58.739
-58.184
-57.521
-56.747
-55.867
-54.89
-53.822
-52.67
-51.449
-50.166
-48.825
-47.426
-45.956
-44.404
-42.766
-41.047
-39.26
-37.419
-35.525
-33.58
-31.584
-29.525
-27.396
-25.187
-22.872
-20.439
-17.898
-15.27
-12.605
-9.962
-7.384
-4.906
-2.558
-0.359
1.658
3.465
5.039
6.345
7.349
8.006
8.251
8.039
7.355
6.199
4.609
2.644
0.354
-2.201
-4.96
-7.875
-10.895
-13.974
-17.079
-20.165
-23.176
-26.046
-28.692
-31.045
-33.059
-34.694
-35.936
-36.804
-37.342
-37.645
-37.821
-37.97
-38.166
-38.451
-38.878
-39.528
-40.49
-41.861
-43.726
-46.117
-49.128
-52.96
-57.659
-63.113
-69.018
-74.705
-79.54
-83.111
-84.856
-84.099
-80.651
-74.643
-66.613
-58.186
-50.949
-45.872
-44.436
-47.28
-52.97
-59.949
-66.06
-69.372
-71.262
-72.198
-68.841
-54.162
-17.053
50.378
147.832
267.12
394.881
520.608
639.401
749.262
846.568
920.799
954.233
928.491
833.815
673.217
464.998
240.145
30.265
-138.884
-251.454
-307.448
-316.508
-289.67
-240.624
-181.592
-121.523
-73.097
-46.047
-41.394
-56.021
-79.424
-99.182
-110.405
-112.393
-108.284
-103.392
-99.417
-96.009
-92.299
-86.828
-79.706
-72.045
-64.856
-59.198
-55.437
-53.393
-52.855
-53.524
-55.184
-57.684
-60.802
-64.285
-67.928
-71.557
-75.034
-78.251
-81.072
-83.379
-85.094
-86.164
-86.591
-86.398
-85.604
-84.229
-82.298
-79.849
-76.947
-73.679
-70.125
-66.364
-62.472
-58.522
-54.594
-50.748
-47.021
-43.431
-39.977
-36.655
-33.465
-30.408
-27.482
-24.678
-21.981
-19.367
-16.817
-14.315
-11.842
-9.379
-6.903
-4.396
-1.849
0.74
3.372
6.049
8.775
11.555
14.391
17.286
20.24
23.255
26.331
29.469
32.668
35.926
39.239
42.603
46.014
49.47
52.966
56.495
60.051
63.625
67.207
70.788
74.357
77.901
81.407
84.861
88.249
91.559
94.774
97.882
100.867
103.715
106.413
108.946
111.301
113.466
115.427
117.175
118.698
119.987
121.032
121.825
122.361
122.632
122.633
122.362
121.815
120.992
119.892
118.517
116.87
114.954
112.774
110.337
107.651
104.726
101.57
98.195
94.613
90.838
86.883
82.762
78.491
74.085
69.559
64.932
60.218
55.434
50.598
45.726
40.834
35.939
31.058
26.205
21.396
16.648
11.974
7.389
2.907
-1.459
-5.698
-9.797
-13.747
-17.537
-21.159
-24.606
-27.871
-30.948
-33.835
-36.526
-39.021
-41.317
-43.414
-45.314
-47.017
-48.527
-49.845
-50.977
-51.927
-52.699
-53.3
-53.736
-54.013
-54.139
-54.12
-53.966
-53.685
-53.285
-52.775
-52.166
-51.465
-50.684
-49.831
-48.917
-47.951
-46.942
-45.9
-44.834
-43.752
-42.662
-41.572
-40.491
-39.424
-38.377
-37.358
-36.37
-35.42
-34.511
-33.647
-32.832
-32.069
-31.36
-30.708
-30.116
-29.584
-29.114
-28.707
-28.363
-28.082
-27.863
-27.705
-27.607
-27.566
-27.58
-27.646
-27.761
-27.921
-28.122
-28.36
-28.632
-28.931
-29.255
-29.598
-29.957
-30.327
-30.705
-31.087
-31.47
-31.851
-32.227
-32.596
-32.956
-33.304
-33.639
-33.958
-34.26
-34.543
-34.805
-35.047
-35.265
-35.462
-35.636
-35.788
-35.92
-36.031
-36.125
-36.202
-36.267
-36.32
-36.366
-36.408
-36.45
-36.495
-36.548
-36.612
-36.691
-36.787
-36.905
-37.045
-37.21
-37.399
-37.613
-37.851
-38.113
-38.397
-38.702
-39.027
-39.371
-39.734
-40.114
-40.512
-40.923
-41.345
-41.772
-42.199
-42.62
-43.028
-43.415
-43.772
-44.091
-44.366
-44.592
-44.762
-44.868
-44.9
-44.845
-44.693
-44.442
-44.087
-43.623
-43.052
-42.379
-41.617
-40.787
-39.904
-38.976
-38.008
-36.998
-35.946
-34.854
-33.724
-32.556
-31.35
-30.101
-28.811
-27.486
-26.124
-24.714
-23.234
-21.643
-19.921
-18.068
-16.097
-14.032
-11.903
-9.74
-7.584
-5.492
-3.514
-1.697
-0.083
1.308
2.437
3.257
3.708
3.712
3.223
2.23
0.747
-1.197
-3.559
-6.29
-9.321
-12.55
-15.889
-19.257
-22.58
-25.807
-28.876
-31.713
-34.234
-36.359
-38.032
-39.259
-40.096
-40.617
-40.918
-41.093
-41.222
-41.44
-41.894
-42.718
-44.033
-45.926
-48.427
-51.613
-55.681
-60.694
-66.531
-72.895
-79.187
-84.823
-89.448
-92.61
-93.611
-92.067
-88.046
-81.999
-75.129
-68.718
-63.488
-60.225
-60.178
-63.272
-67.418
-70.166
-68.004
-59.07
-46.24
-31.395
-12.516
15.114
61.164
134.599
235.141
357.677
493.094
628.801
756.365
866.131
945.751
982.022
960.215
873.361
723.268
523.828
301.519
84.269
-100.209
-232.142
-306.662
-328.417
-309.002
-263.659
-205.69
-145.96
-96.614
-66.956
-59.429
-71.693
-93.243
-111.257
-120.212
-119.136
-112.128
-105.754
-101.613
-98.966
-96.553
-92.298
-86.252
-79.665
-73.275
-67.929
-64.189
-61.989
-61.228
-61.76
-63.228
-65.334
-67.856
-70.543
-73.172
-75.566
-77.56
-79.022
-79.874
-80.075
-79.636
-78.599
-77.025
-75.004
-72.607
-69.908
-67.005
-63.998
-61
-58.112
-55.399
-52.921
-50.738
-48.889
-47.402
-46.263
-45.399
-44.736
-44.205
-43.722
-43.231
-42.679
-42
-41.141
-40.057
-38.708
-37.079
-35.158
-32.928
-30.386
-27.542
-24.422
-21.083
-17.572
-13.926
-10.183
-6.368
-2.501
1.392
5.301
9.222
13.15
17.085
21.028
24.972
28.916
32.864
36.822
40.804
44.818
48.864
52.94
57.038
61.15
65.265
69.367
73.432
77.441
81.375
85.215
88.943
92.544
95.998
99.285
102.389
105.291
107.977
110.433
112.644
114.601
116.292
117.709
118.848
119.701
120.266
120.537
120.511
120.188
119.568
118.651
117.44
115.938
114.152
112.087
109.753
107.157
104.312
101.228
97.918
94.395
90.673
86.767
82.692
78.464
74.099
69.614
65.025
60.349
55.602
50.802
45.965
41.107
36.244
31.393
26.568
21.783
17.054
12.392
7.812
3.325
-1.057
-5.324
-9.467
-13.475
-17.341
-21.057
-24.618
-28.017
-31.251
-34.315
-37.206
-39.923
-42.465
-44.83
-47.02
-49.034
-50.874
-52.544
-54.045
-55.382
-56.557
-57.577
-58.446
-59.169
-59.752
-60.201
-60.523
-60.723
-60.809
-60.786
-60.661
-60.441
-60.132
-59.741
-59.274
-58.739
-58.14
-57.484
-56.777
-56.024
-55.232
-54.404
-53.547
-52.666
-51.764
-50.847
-49.919
-48.984
-48.046
-47.108
-46.175
-45.249
-44.333
-43.43
-42.543
-41.674
-40.825
-39.998
-39.196
-38.419
-37.67
-36.95
-36.26
-35.602
-34.977
-34.385
-33.829
-33.308
-32.824
-32.378
-31.971
-31.603
-31.275
-30.989
-30.744
-30.542
-30.383
-30.267
-30.195
-30.167
-30.182
-30.241
-30.343
-30.489
-30.676
-30.904
-31.174
-31.482
-31.83
-32.214
-32.635
-33.09
-33.58
-34.102
-34.656
-35.24
-35.854
-36.495
-37.163
-37.856
-38.572
-39.31
-40.068
-40.843
-41.633
-42.434
-43.244
-44.057
-44.871
-45.683
-46.487
-47.281
-48.061
-48.824
-49.568
-50.29
-50.987
-51.656
-52.293
-52.893
-53.454
-53.969
-54.432
-54.84
-55.183
-55.457
-55.658
-55.779
-55.812
-55.75
-55.58
-55.295
-54.892
-54.369
-53.726
-52.967
-52.097
-51.127
-50.077
-48.959
-47.786
-46.568
-45.309
-44.019
-42.705
-41.374
-40.035
-38.691
-37.332
-35.949
-34.527
-33.04
-31.462
-29.757
-27.878
-25.795
-23.487
-20.94
-18.157
-15.138
-11.893
-8.447
-4.83
-1.083
2.734
6.557
10.315
13.91
17.251
20.242
22.769
24.75
26.115
26.806
26.785
26.025
24.515
22.278
19.361
15.821
11.742
7.213
2.336
-2.755
-7.93
-13.062
-18.014
-22.675
-26.947
-30.739
-33.972
-36.598
-38.583
-39.945
-40.765
-41.131
-41.158
-40.966
-40.656
-40.372
-40.279
-40.537
-41.3
-42.69
-44.77
-47.624
-51.424
-56.224
-61.906
-68.145
-74.333
-79.884
-84.406
-87.455
-88.424
-86.923
-82.959
-77.077
-70.535
-64.476
-59.629
-56.731
-56.529
-59.568
-64.786
-69.023
-68.569
-59.746
-41.777
-18.005
10.284
43.999
86.129
145.664
228.485
334.444
461.322
599.424
735.124
854.833
942.481
981.916
961.566
878.016
735.465
548.226
338.83
129.877
-55.964
-199.578
-291.842
-332.654
-328.264
-290.907
-235.642
-174.702
-121.251
-86.612
-72.59
-76.192
-88.614
-98.506
-102.131
-100.444
-96.947
-95.955
-97.611
-100.314
-102.274
-101.424
-97.345
-90.203
-80.641
-70.442
-60.913
-52.634
-45.949
-40.711
-36.819
-34.601
-34.045
-34.721
-36.254
-38.277
-40.549
-43.081
-45.817
-48.567
-51.234
-53.795
-56.229
-58.564
-60.783
-62.792
-64.523
-65.93
-66.964
-67.592
-67.796
-67.563
-66.912
-65.886
-64.523
-62.857
-60.914
-58.708
-56.258
-53.58
-50.69
-47.61
-44.366
-40.989
-37.524
-34.022
-30.521
-27.042
-23.596
-20.179
-16.787
-13.421
-10.073
-6.736
-3.403
-0.067
3.274
6.619
9.974
13.351
16.765
20.239
23.786
27.413
31.122
34.911
38.774
42.706
46.694
50.724
54.78
58.849
62.92
66.983
71.025
75.032
78.987
82.873
86.673
90.371
93.953
97.401
100.7
103.837
106.799
109.575
112.153
114.522
116.67
118.586
120.261
121.685
122.85
123.749
124.375
124.723
124.791
124.577
124.079
123.298
122.236
120.896
119.283
117.401
115.257
112.859
110.214
107.332
104.224
100.901
97.374
93.658
89.765
85.71
81.508
77.175
72.726
68.176
63.543
58.841
54.088
49.3
44.493
39.682
34.884
30.113
25.385
20.714
16.114
11.599
7.179
2.869
-1.323
-5.384
-9.306
-13.081
-16.699
-20.154
-23.441
-26.552
-29.485
-32.236
-34.802
-37.182
-39.376
-41.383
-43.205
-44.845
-46.304
-47.587
-48.698
-49.642
-50.424
-51.051
-51.528
-51.864
-52.065
-52.139
-52.094
-51.938
-51.68
-51.327
-50.89
-50.376
-49.794
-49.152
-48.459
-47.724
-46.953
-46.156
-45.339
-44.511
-43.676
-42.843
-42.017
-41.203
-40.406
-39.63
-38.879
-38.156
-37.464
-36.804
-36.179
-35.59
-35.037
-34.521
-34.042
-33.601
-33.197
-32.829
-32.496
-32.198
-31.933
-31.7
-31.498
-31.325
-31.18
-31.061
-30.966
-30.894
-30.843
-30.811
-30.796
-30.798
-30.815
-30.846
-30.89
-30.946
-31.014
-31.094
-31.187
-31.294
-31.415
-31.551
-31.704
-31.876
-32.068
-32.281
-32.518
-32.78
-33.068
-33.384
-33.729
-34.104
-34.511
-34.949
-35.419
-35.921
-36.453
-37.017
-37.611
-38.233
-38.882
-39.556
-40.254
-40.973
-41.711
-42.464
-43.228
-44
-44.775
-45.548
-46.313
-47.063
-47.794
-48.496
-49.164
-49.791
-50.367
-50.887
-51.342
-51.725
-52.027
-52.243
-52.363
-52.383
-52.295
-52.095
-51.778
-51.339
-50.775
-50.084
-49.264
-48.314
-47.233
-46.021
-44.681
-43.215
-41.625
-39.916
-38.093
-36.164
-34.136
-32.018
-29.821
-27.558
-25.241
-22.886
-20.508
-18.124
-15.75
-13.403
-11.102
-8.861
-6.699
-4.632
-2.677
-0.85
0.834
2.356
3.701
4.855
5.805
6.543
7.062
7.358
7.425
7.258
6.849
6.192
5.283
4.118
2.696
1.018
-0.9
-3.03
-5.335
-7.776
-10.316
-12.916
-15.542
-18.154
-20.709
-23.162
-25.462
-27.561
-29.417
-30.981
-32.214
-33.093
-33.631
-33.897
-33.981
-33.984
-34.002
-34.098
-34.357
-34.898
-35.84
-37.294
-39.381
-42.143
-45.671
-50.182
-55.701
-62.069
-68.982
-75.8
-81.913
-86.993
-90.494
-91.662
-90.348
-86.755
-81.456
-75.849
-70.99
-67.317
-65.734
-67.386
-71.564
-75.927
-77.791
-73.328
-61.445
-45.184
-25.15
1.21
38.13
93.822
173.753
274.615
391.099
515.804
638.865
755.024
856.77
930.429
961.367
933.696
838.576
681.467
480.385
263.751
60.825
-106.052
-223.182
-289.336
-310.836
-295.682
-256.582
-205.014
-151.469
-109.68
-85.633
-79.148
-85.282
-91.709
-92.099
-86.935
-79.4
-76.317
-79.599
-86.166
-93.392
-98.391
-99.99
-98.719
-94.509
-87.549
-78.88
-69.944
-61.812
-55.03
-49.735
-45.843
-43.598
-43.242
-44.527
-46.869
-49.732
-52.754
-55.805
-58.896
-61.9
-64.656
-67.106
-69.237
-71.082
-72.634
-73.799
-74.477
-74.62
-74.217
-73.301
-71.918
-70.103
-67.905
-65.385
-62.602
-59.615
-56.466
-53.172
-49.764
-46.271
-42.737
-39.224
-35.774
-32.41
-29.149
-25.992
-22.935
-19.977
-17.103
-14.284
-11.502
-8.74
-5.984
-3.234
-0.48
2.291
5.098
7.964
10.908
13.937
17.062
20.288
23.619
27.054
30.59
34.214
37.916
41.689
45.526
49.421
53.364
57.343
61.345
65.357
69.364
73.35
77.3
81.198
85.025
88.767
92.405
95.927
99.316
102.555
105.628
108.518
111.211
113.691
115.945
117.957
119.718
121.214
122.437
123.378
124.031
124.389
124.448
124.206
123.662
122.814
121.666
120.221
118.482
116.457
114.153
111.578
108.743
105.659
102.339
98.795
95.043
91.098
86.976
82.695
78.272
73.725
69.072
64.331
59.521
54.661
49.767
44.858
39.952
35.065
30.214
25.416
20.684
16.034
11.479
7.032
2.705
-1.493
-5.55
-9.46
-13.213
-16.804
-20.226
-23.475
-26.548
-29.442
-32.156
-34.689
-37.041
-39.214
-41.209
-43.031
-44.682
-46.167
-47.49
-48.657
-49.673
-50.544
-51.277
-51.878
-52.353
-52.71
-52.956
-53.098
-53.144
-53.099
-52.972
-52.768
-52.496
-52.16
-51.768
-51.326
-50.838
-50.311
-49.75
-49.159
-48.543
-47.907
-47.254
-46.587
-45.91
-45.226
-44.538
-43.847
-43.156
-42.468
-41.784
-41.107
-40.438
-39.78
-39.135
-38.505
-37.892
-37.296
-36.721
-36.168
-35.638
-35.134
-34.655
-34.205
-33.784
-33.394
-33.035
-32.708
-32.416
-32.159
-31.937
-31.751
-31.604
-31.496
-31.427
-31.399
-31.413
-31.469
-31.568
-31.711
-31.898
-32.128
-32.401
-32.716
-33.072
-33.467
-33.901
-34.37
-34.873
-35.408
-35.971
-36.562
-37.176
-37.81
-38.463
-39.131
-39.812
-40.503
-41.2
-41.902
-42.605
-43.306
-44.003
-44.69
-45.365
-46.021
-46.656
-47.265
-47.843
-48.385
-48.889
-49.349
-49.765
-50.133
-50.45
-50.714
-50.92
-51.066
-51.149
-51.165
-51.11
-50.98
-50.77
-50.478
-50.103
-49.642
-49.09
-48.442
-47.691
-46.834
-45.869
-44.8
-43.629
-42.364
-41.013
-39.591
-38.12
-36.618
-35.1
-33.581
-32.068
-30.575
-29.114
-27.697
-26.335
-25.036
-23.794
-22.603
-21.451
-20.314
-19.168
-17.98
-16.706
-15.315
-13.788
-12.11
-10.287
-8.317
-6.208
-3.979
-1.652
0.745
3.161
5.542
7.823
9.916
11.74
13.209
14.219
14.699
14.596
13.873
12.529
10.574
8.024
4.924
1.32
-2.729
-7.138
-11.815
-16.653
-21.519
-26.291
-30.847
-35.051
-38.805
-42.033
-44.698
-46.834
-48.496
-49.753
-50.687
-51.364
-51.869
-52.334
-52.894
-53.685
-54.852
-56.474
-58.663
-61.653
-65.543
-70.246
-75.511
-80.777
-85.46
-89.192
-91.508
-91.712
-89.412
-84.664
-77.925
-70.398
-63.434
-57.864
-54.5
-54.59
-58.098
-63.01
-67.004
-66.674
-60.002
-49.351
-36.056
-17.775
10.276
57.299
131.532
232.317
353.879
486.708
618.392
741.115
847.816
928.541
972.675
966.65
899.539
769.878
585.586
366.853
142.907
-57.94
-211.266
-303.627
-337.891
-324.479
-279.556
-221.741
-163.427
-115.949
-87.624
-78.335
-84.816
-98.324
-108.401
-111.526
-107.712
-100.451
-94.688
-90.815
-87.637
-83.901
-77.919
-69.97
-61.25
-52.493
-44.686
-38.647
-34.585
-32.558
-32.456
-33.912
-36.636
-40.436
-45.075
-50.284
-55.81
-61.394
-66.786
-71.825
-76.389
-80.365
-83.67
-86.231
-87.983
-88.904
-89.018
-88.367
-87.007
-84.997
-82.391
-79.264
-75.724
-71.889
-67.89
-63.834
-59.786
-55.799
-51.913
-48.163
-44.581
-41.179
-37.945
-34.863
-31.916
-29.095
-26.39
-23.785
-21.243
-18.727
-16.197
-13.623
-10.986
-8.272
-5.467
-2.56
0.456
3.582
6.812
10.14
13.566
17.088
20.709
24.424
28.225
32.105
36.054
40.065
44.129
48.237
52.376
56.537
60.708
64.879
69.038
73.173
77.269
81.31
85.28
89.162
92.939
96.594
100.108
103.465
106.648
109.642
112.43
115
117.336
119.427
121.262
122.83
124.121
125.129
125.846
126.268
126.391
126.213
125.732
124.951
123.869
122.492
120.825
118.873
116.644
114.148
111.394
108.394
105.162
101.71
98.054
94.209
90.191
86.017
81.705
77.272
72.736
68.116
63.428
58.692
53.923
49.141
44.361
39.599
34.872
30.195
25.581
21.044
16.597
12.251
8.017
3.905
-0.075
-3.917
-7.612
-11.156
-14.541
-17.765
-20.825
-23.718
-26.443
-28.999
-31.389
-33.612
-35.671
-37.569
-39.31
-40.896
-42.334
-43.629
-44.785
-45.81
-46.71
-47.492
-48.163
-48.729
-49.199
-49.579
-49.877
-50.098
-50.251
-50.341
-50.375
-50.359
-50.298
-50.199
-50.067
-49.906
-49.721
-49.516
-49.295
-49.06
-48.816
-48.563
-48.306
-48.046
-47.784
-47.523
-47.264
-47.008
-46.756
-46.507
-46.263
-46.023
-45.786
-45.552
-45.321
-45.091
-44.861
-44.632
-44.402
-44.169
-43.934
-43.696
-43.455
-43.209
-42.96
-42.706
-42.45
-42.191
-41.93
-41.67
-41.411
-41.156
-40.906
-40.663
-40.429
-40.206
-39.996
-39.801
-39.623
-39.465
-39.327
-39.214
-39.127
-39.07
-39.044
-39.052
-39.098
-39.184
-39.312
-39.486
-39.707
-39.978
-40.301
-40.677
-41.108
-41.594
-42.136
-42.732
-43.382
-44.082
-44.829
-45.621
-46.453
-47.32
-48.219
-49.143
-50.089
-51.052
-52.028
-53.01
-53.993
-54.971
-55.935
-56.878
-57.791
-58.666
-59.492
-60.259
-60.959
-61.582
-62.119
-62.56
-62.894
-63.108
-63.191
-63.139
-62.946
-62.612
-62.136
-61.524
-60.783
-59.929
-58.974
-57.933
-56.817
-55.631
-54.384
-53.082
-51.735
-50.353
-48.941
-47.494
-46.004
-44.458
-42.842
-41.142
-39.335
-37.387
-35.276
-32.984
-30.504
-27.844
-25.015
-22.039
-18.941
-15.751
-12.513
-9.285
-6.132
-3.128
-0.346
2.147
4.268
5.929
7.056
7.584
7.469
6.688
5.235
3.126
0.397
-2.902
-6.7
-10.911
-15.442
-20.179
-25.016
-29.855
-34.58
-39.071
-43.223
-46.934
-50.123
-52.742
-54.765
-56.216
-57.165
-57.701
-57.925
-57.934
-57.832
-57.762
-57.874
-58.3
-59.168
-60.574
-62.621
-65.504
-69.332
-74.026
-79.328
-84.72
-89.635
-93.664
-96.36
-97.101
-95.49
-91.546
-85.83
-79.595
-74.063
-70.083
-68.451
-69.961
-75.19
-83.127
-90.776
-94.624
-90.941
-78.382
-59.12
-33.288
0.632
45.09
107.073
190.473
293.703
414.524
544.987
674.027
791.878
884.748
937.554
937.618
874.766
748.186
567.908
353.616
133.681
-64.748
-219.045
-315.283
-354.86
-345.74
-301.197
-239.186
-173.035
-116.561
-81.531
-69.769
-78.207
-96.131
-109.857
-114.45
-109.915
-101.281
-95.999
-94.876
-96.14
-98.039
-97.931
-95.608
-92.276
-88.139
-83.593
-79.748
-77.029
-75.54
-75.42
-76.255
-77.644
-79.669
-82.373
-85.405
-88.487
-91.37
-93.754
-95.617
-96.976
-97.727
-97.829
-97.307
-96.187
-94.55
-92.518
-90.168
-87.582
-84.839
-81.966
-78.982
-75.923
-72.832
-69.764
-66.773
-63.884
-61.109
-58.453
-55.923
-53.522
-51.237
-49.029
-46.844
-44.624
-42.342
-39.996
-37.599
-35.16
-32.674
-30.131
-27.527
-24.867
-22.154
-19.382
-16.534
-13.59
-10.543
-7.399
-4.176
-0.895
2.431
5.798
9.202
12.639
16.102
19.587
23.1
26.657
30.268
33.938
37.658
41.411
45.185
48.972
52.77
56.578
60.401
64.249
68.138
72.089
76.11
80.197
84.325
88.452
92.527
96.492
100.302
103.922
107.32
110.467
113.333
115.889
118.097
119.914
121.287
122.153
122.467
122.203
121.357
119.953
118.033
115.656
112.874
109.732
106.269
102.519
98.514
94.285
89.869
85.304
80.643
75.949
71.278
66.674
62.166
57.759
53.45
49.216
45.042
40.915
36.829
32.785
28.789
24.849
20.972
17.168
13.436
9.767
6.153
2.584
-0.942
-4.418
-7.835
-11.176
-14.427
-17.574
-20.609
-23.529
-26.334
-29.029
-31.623
-34.13
-36.56
-38.92
-41.217
-43.454
-45.632
-47.754
-49.826
-51.853
-53.847
-55.82
-57.784
-59.751
-61.731
-63.728
-65.739
-67.747
-69.721
-71.632
-73.447
-75.136
-76.674
-78.035
-79.188
-80.102
-80.736
-81.048
-81.002
-80.552
-79.66
-78.303
-76.486
-74.267
-71.742
-69.022
-66.209
-63.38
-60.627
-58.077
-55.866
-54.122
-52.967
-52.46
-52.7
-53.928
-56.235
-59.505
-63.456
-67.478
-70.94
-73.482
-74.617
-73.593
-70.103
-64.324
-56.803
-48.908
-42.045
-36.975
-34.573
-36.129
-41.147
-46.963
-50.947
-49.376
-40.821
-28.73
-13.869
7.189
40.53
96.683
182.699
295.54
427.981
569.853
709.724
840.561
953.244
1034.736
1070.135
1044.312
951.033
793.871
588.998
363.297
144.01
-42.196
-176.595
-253.976
-278.131
-259.329
-211.852
-149.034
-81.478
-23.647
11.394
18.464
-3.877
-43.562
-80.957
-105.089
-108.622
-95.214
-78.521
-65.381
-59.961
-62.173
-65.163
-65.955
-64.073
-59.568
-55.117
-52.207
-50.657
-50.416
-51.091
-52.273
-53.983
-56.206
-58.745
-61.439
-64.188
-66.835
-69.239
-71.317
-72.953
-74.092
-74.775
-75.022
-74.867
-74.365
-73.548
-72.45
-71.106
-69.515
-67.682
-65.63
-63.382
-60.986
-58.498
-55.953
-53.383
-50.797
-48.172
-45.492
-42.74
-39.889
-36.933
-33.868
-30.703
-27.471
-24.208
-20.932
-17.659
-14.39
-11.119
-7.849
-4.581
-1.313
1.943
5.178
8.386
11.553
14.675
17.756
20.8
23.827
26.856
29.896
32.955
36.034
39.131
42.243
45.366
48.487
51.598
54.69
57.756
60.788
63.777
66.712
69.579
72.363
75.047
77.616
80.057
82.355
84.497
86.472
88.268
89.876
91.289
92.497
93.492
94.266
94.812
95.122
95.194
95.022
94.603
93.938
93.025
91.867
90.466
88.828
86.958
84.861
82.546
80.022
77.299
74.389
71.301
68.051
64.651
61.116
57.46
53.7
49.85
45.927
41.946
37.925
33.879
29.823
25.774
21.746
17.755
13.814
9.936
6.136
2.424
-1.188
-4.689
-8.07
-11.323
-14.441
-17.417
-20.246
-22.924
-25.446
-27.81
-30.015
-32.059
-33.942
-35.666
-37.232
-38.641
-39.899
-41.008
-41.973
-42.799
-43.492
-44.058
-44.505
-44.838
-45.065
-45.194
-45.233
-45.189
-45.07
-44.884
-44.639
-44.342
-44.001
-43.623
-43.215
-42.782
-42.332
-41.87
-41.402
-40.932
-40.466
-40.008
-39.562
-39.133
-38.724
-38.338
-37.977
-37.645
-37.342
-37.072
-36.834
-36.63
-36.46
-36.325
-36.225
-36.159
-36.128
-36.129
-36.162
-36.226
-36.319
-36.44
-36.588
-36.761
-36.957
-37.175
-37.413
-37.671
-37.947
-38.239
-38.547
-38.868
-39.203
-39.55
-39.908
-40.275
-40.652
-41.036
-41.428
-41.826
-42.23
-42.64
-43.053
-43.472
-43.893
-44.318
-44.745
-45.175
-45.607
-46.04
-46.475
-46.91
-47.346
-47.782
-48.217
-48.651
-49.084
-49.514
-49.941
-50.364
-50.781
-51.192
-51.595
-51.988
-52.371
-52.741
-53.098
-53.439
-53.763
-54.069
-54.354
-54.616
-54.856
-55.07
-55.258
-55.418
-55.549
-55.65
-55.72
-55.76
-55.767
-55.742
-55.685
-55.596
-55.475
-55.323
-55.139
-54.925
-54.682
-54.411
-54.113
-53.79
-53.444
-53.076
-52.689
-52.285
-51.867
-51.438
-50.999
-50.555
-50.108
-49.663
-49.221
-48.788
-48.365
-47.957
-47.567
-47.196
-46.848
-46.525
-46.229
-45.961
-45.724
-45.519
-45.346
-45.206
-45.1
-45.029
-44.991
-44.988
-45.018
-45.081
-45.176
-45.303
-45.46
-45.646
-45.858
-46.095
-46.354
-46.633
-46.928
-47.235
-47.55
-47.868
-48.183
-48.49
-48.783
-49.056
-49.305
-49.525
-49.712
-49.86
-49.967
-50.03
-50.046
-50.01
-49.918
-49.767
-49.553
-49.271
-48.917
-48.487
-47.976
-47.38
-46.697
-45.925
-45.062
-44.104
-43.045
-41.883
-40.622
-39.265
-37.821
-36.3
-34.716
-33.082
-31.424
-29.763
-28.122
-26.519
-24.963
-23.463
-22.029
-20.672
-19.406
-18.237
-17.156
-16.151
-15.214
-14.334
-13.5
-12.698
-11.891
-11.048
-10.15
-9.183
-8.155
-7.085
-5.982
-4.858
-3.733
-2.639
-1.628
-0.76
-0.072
0.413
0.677
0.7
0.435
-0.155
-1.086
-2.356
-3.94
-5.796
-7.899
-10.218
-12.699
-15.277
-17.868
-20.385
-22.782
-25.066
-27.265
-29.414
-31.537
-33.646
-35.762
-37.936
-40.257
-42.815
-45.681
-48.906
-52.52
-56.601
-61.339
-66.819
-72.905
-79.28
-85.37
-90.597
-94.609
-96.977
-97.023
-94.356
-89.055
-81.604
-73.209
-65.237
-58.517
-53.836
-52.407
-54.12
-56.93
-58.648
-56.126
-47.785
-36.199
-22.305
-3.264
26.455
76.257
152.894
254.307
373.758
501.324
627.252
746.354
851.581
932.87
976.182
964.697
890.297
754.581
571.1
364.755
161.102
-16.48
-151.974
-239.824
-283.683
-293.39
-277.87
-245.754
-203.273
-155.768
-114.26
-88.232
-81.886
-93.973
-114.576
-132.487
-142.038
-142.245
-136.616
-129.866
-123.596
-117.523
-110.666
-101.88
-91.519
-80.645
-70.234
-61.262
-54.1
-48.711
-44.979
-42.654
-41.518
-41.423
-42.214
-43.747
-45.902
-48.532
-51.493
-54.651
-57.862
-61.024
-64.057
-66.886
-69.45
-71.689
-73.565
-75.07
-76.202
-76.953
-77.302
-77.215
-76.686
-75.749
-74.45
-72.85
-70.998
-68.918
-66.636
-64.178
-61.57
-58.84
-56.004
-53.063
-50.028
-46.921
-43.779
-40.648
-37.56
-34.519
-31.526
-28.575
-25.66
-22.783
-19.937
-17.106
-14.281
-11.451
-8.612
-5.765
-2.904
-0.016
2.919
5.922
9.009
12.186
15.459
18.827
22.292
25.85
29.494
33.212
36.99
40.822
44.698
48.611
52.55
56.502
60.454
64.389
68.292
72.151
75.949
79.672
83.306
86.836
90.252
93.541
96.693
99.695
102.536
105.204
107.688
109.977
112.063
113.935
115.585
117.006
118.192
119.137
119.838
120.291
120.494
120.446
120.149
119.602
118.808
117.769
116.492
114.981
113.242
111.283
109.113
106.741
104.176
101.43
98.513
95.438
92.217
88.861
85.384
81.798
78.117
74.353
70.52
66.631
62.699
58.738
54.76
50.777
46.804
42.851
38.931
35.055
31.235
27.481
23.803
20.211
16.715
13.322
10.04
6.876
3.837
0.927
-1.85
-4.488
-6.987
-9.342
-11.554
-13.621
-15.543
-17.321
-18.956
-20.449
-21.803
-23.021
-24.105
-25.059
-25.887
-26.593
-27.182
-27.659
-28.028
-28.296
-28.468
-28.551
-28.55
-28.473
-28.326
-28.116
-27.85
-27.535
-27.178
-26.785
-26.362
-25.917
-25.454
-24.98
-24.5
-24.019
-23.541
-23.071
-22.613
-22.17
-21.746
-21.343
-20.964
-20.611
-20.287
-19.993
-19.731
-19.502
-19.307
-19.148
-19.025
-18.939
-18.89
-18.88
-18.907
-18.972
-19.075
-19.215
-19.391
-19.602
-19.847
-20.124
-20.433
-20.771
-21.136
-21.528
-21.945
-22.386
-22.85
-23.336
-23.843
-24.37
-24.917
-25.484
-26.071
-26.676
-27.301
-27.946
-28.611
-29.296
-30.001
-30.726
-31.47
-32.233
-33.011
-33.804
-34.608
-35.421
-36.24
-37.062
-37.885
-38.708
-39.526
-40.34
-41.148
-41.948
-42.74
-43.519
-44.281
-45.023
-45.738
-46.423
-47.07
-47.673
-48.223
-48.715
-49.144
-49.505
-49.792
-49.994
-50.1
-50.102
-49.995
-49.777
-49.448
-49.011
-48.468
-47.83
-47.115
-46.342
-45.527
-44.678
-43.791
-42.866
-41.903
-40.905
-39.875
-38.808
-37.684
-36.493
-35.225
-33.871
-32.424
-30.857
-29.126
-27.199
-25.052
-22.681
-20.108
-17.354
-14.439
-11.399
-8.275
-5.129
-2.05
0.894
3.651
6.165
8.39
10.259
11.675
12.565
12.874
12.565
11.633
10.077
7.888
5.094
1.745
-2.079
-6.252
-10.669
-15.251
-19.915
-24.586
-29.177
-33.568
-37.662
-41.385
-44.665
-47.458
-49.718
-51.384
-52.439
-52.902
-52.845
-52.416
-51.759
-50.992
-50.224
-49.53
-49.008
-48.803
-49.025
-49.768
-51.119
-53.084
-55.772
-59.41
-63.995
-69.396
-75.274
-80.896
-85.647
-89.166
-90.802
-89.887
-86.357
-80.257
-72.219
-63.992
-56.916
-51.872
-50.39
-52.719
-56.789
-60.967
-62.72
-60.01
-55.353
-49.708
-39.677
-19.391
21.253
90.628
187.8
306.611
437.757
569.937
695.305
804.173
883.559
919.134
896.517
810.438
664.65
473.98
263.621
58.758
-115.994
-242.4
-314.777
-335.892
-315.089
-266.933
-206.134
-144.737
-95.723
-68.759
-64.647
-80.814
-107.631
-130.531
-143.763
-145.068
-135.795
-125.014
-116.258
-110.217
-108.384
-106.793
-103.462
-99.092
-93.078
-86.931
-82.154
-78.531
-76.073
-74.579
-73.547
-72.889
-72.612
-72.545
-72.533
-72.512
-72.416
-72.203
-71.892
-71.455
-70.847
-70.086
-69.198
-68.221
-67.221
-66.249
-65.337
-64.523
-63.835
-63.277
-62.853
-62.532
-62.26
-61.992
-61.678
-61.282
-60.779
-60.135
-59.313
-58.279
-56.997
-55.445
-53.61
-51.478
-49.038
-46.298
-43.27
-39.99
-36.513
-32.881
-29.132
-25.294
-21.382
-17.414
-13.405
-9.361
-5.284
-1.172
2.978
7.165
11.385
15.638
19.929
24.269
28.675
33.155
37.71
42.34
47.035
51.786
56.581
61.4
66.218
71.014
75.763
80.444
85.039
89.527
93.885
98.091
102.121
105.955
109.574
112.958
116.089
118.951
121.53
123.812
125.787
127.447
128.782
129.784
130.448
130.768
130.741
130.367
129.645
128.576
127.166
125.42
123.346
120.954
118.254
115.258
111.981
108.438
104.645
100.619
96.378
91.942
87.328
82.558
77.652
72.629
67.511
62.317
57.069
51.785
46.485
41.189
35.915
30.679
25.5
20.392
15.372
10.453
5.648
0.971
-3.569
-7.962
-12.197
-16.267
-20.166
-23.888
-27.428
-30.782
-33.95
-36.928
-39.717
-42.316
-44.728
-46.954
-48.998
-50.862
-52.551
-54.07
-55.423
-56.616
-57.654
-58.544
-59.291
-59.901
-60.381
-60.737
-60.974
-61.099
-61.117
-61.036
-60.859
-60.594
-60.245
-59.817
-59.317
-58.749
-58.119
-57.432
-56.692
-55.904
-55.073
-54.202
-53.297
-52.361
-51.398
-50.411
-49.403
-48.379
-47.34
-46.292
-45.236
-44.176
-43.116
-42.058
-41.007
-39.964
-38.934
-37.919
-36.924
-35.952
-35.005
-34.089
-33.206
-32.359
-31.552
-30.788
-30.068
-29.397
-28.774
-28.203
-27.684
-27.22
-26.81
-26.457
-26.161
-25.923
-25.743
-25.622
-25.559
-25.555
-25.607
-25.716
-25.88
-26.097
-26.364
-26.68
-27.042
-27.447
-27.893
-28.374
-28.889
-29.432
-30
-30.586
-31.187
-31.798
-32.414
-33.03
-33.641
-34.244
-34.835
-35.408
-35.961
-36.489
-36.988
-37.453
-37.881
-38.265
-38.603
-38.89
-39.121
-39.292
-39.4
-39.44
-39.412
-39.313
-39.141
-38.895
-38.574
-38.176
-37.702
-37.148
-36.514
-35.797
-34.996
-34.111
-33.144
-32.094
-30.964
-29.756
-28.475
-27.124
-25.707
-24.226
-22.678
-21.066
-19.398
-17.683
-15.938
-14.183
-12.435
-10.714
-9.043
-7.442
-5.922
-4.491
-3.145
-1.876
-0.687
0.415
1.414
2.292
3.046
3.677
4.188
4.597
4.919
5.172
5.39
5.592
5.776
5.932
6.018
5.986
5.806
5.461
4.951
4.297
3.51
2.599
1.583
0.461
-0.763
-2.089
-3.539
-5.121
-6.806
-8.556
-10.295
-11.926
-13.385
-14.636
-15.668
-16.536
-17.304
-18.039
-18.829
-19.728
-20.796
-22.115
-23.755
-25.782
-28.279
-31.293
-34.915
-39.358
-44.72
-50.912
-57.647
-64.35
-70.449
-75.577
-79.306
-81.014
-80.293
-77.137
-72.123
-66.528
-61.488
-57.695
-55.788
-56.494
-60.437
-66.46
-71.263
-71.278
-63.081
-46.882
-26.471
-1.652
30.607
76.546
145.493
238.622
349.762
470.04
588.885
699.805
799.493
881.812
934.427
941.767
889.977
773.88
602.831
397.98
188.736
3.321
-138.288
-225.365
-262.535
-260.685
-229.935
-184.597
-133.341
-84.501
-51.888
-39.87
-48.078
-70.601
-92.567
-106.294
-110.174
-106.143
-101.243
-98.073
-95.712
-93.084
-87.949
-80.025
-70.657
-60.755
-51.313
-43.075
-36.134
-30.514
-26.162
-22.843
-20.421
-18.83
-17.989
-17.807
-18.184
-19.012
-20.179
-21.601
-23.178
-24.796
-26.369
-27.843
-29.196
-30.42
-31.507
-32.437
-33.167
-33.662
-33.882
-33.774
-33.319
-32.512
-31.366
-29.917
-28.205
-26.263
-24.117
-21.783
-19.263
-16.562
-13.683
-10.628
-7.42
-4.085
-0.658
2.809
6.283
9.743
13.179
16.593
19.995
23.391
26.791
30.21
33.655
37.133
40.648
44.201
47.799
51.452
55.177
58.995
62.92
66.957
71.111
75.377
79.748
84.217
88.768
93.382
98.041
102.729
107.43
112.127
116.805
121.442
126.018
130.511
134.898
139.159
143.271
147.214
150.966
154.509
157.825
160.897
163.71
166.247
168.495
170.439
172.068
173.371
174.339
174.965
175.243
175.17
174.744
173.966
172.84
171.369
169.56
167.421
164.962
162.196
159.134
155.791
152.183
148.327
144.24
139.942
135.452
130.79
125.978
121.038
115.991
110.861
105.669
100.438
95.189
89.944
84.723
79.546
74.433
69.4
64.465
59.645
54.952
50.401
46.004
41.77
37.709
33.828
30.134
26.631
23.321
20.208
17.293
14.574
12.051
9.721
7.58
5.626
3.852
2.252
0.821
-0.451
-1.571
-2.547
-3.389
-4.106
-4.708
-5.203
-5.602
-5.912
-6.145
-6.307
-6.407
-6.454
-6.454
-6.415
-6.344
-6.246
-6.126
-5.99
-5.841
-5.684
-5.52
-5.352
-5.183
-5.013
-4.845
-4.678
-4.514
-4.353
-4.194
-4.037
-3.882
-3.727
-3.571
-3.414
-3.253
-3.087
-2.914
-2.735
-2.546
-2.349
-2.141
-1.923
-1.696
-1.458
-1.21
-0.954
-0.69
-0.418
-0.142
0.138
0.419
0.7
0.976
1.246
1.507
1.754
1.986
2.2
2.391
2.556
2.694
2.8
2.872
2.907
2.902
2.854
2.76
2.617
2.423
2.177
1.877
1.521
1.109
0.641
0.116
-0.463
-1.097
-1.784
-2.523
-3.311
-4.146
-5.024
-5.943
-6.899
-7.887
-8.903
-9.941
-10.996
-12.062
-13.133
-14.202
-15.262
-16.308
-17.335
-18.336
-19.305
-20.236
-21.122
-21.958
-22.738
-23.454
-24.098
-24.663
-25.141
-25.527
-25.818
-26.007
-26.092
-26.069
-25.936
-25.694
-25.343
-24.881
-24.305
-23.609
-22.796
-21.873
-20.854
-19.749
-18.57
-17.328
-16.041
-14.728
-13.407
-12.085
-10.764
-9.44
-8.121
-6.82
-5.56
-4.363
-3.242
-2.199
-1.234
-0.354
0.435
1.127
1.732
2.267
2.734
3.115
3.369
3.459
3.358
3.054
2.542
1.816
0.861
-0.344
-1.815
-3.552
-5.548
-7.789
-10.28
-13.03
-16.023
-19.218
-22.543
-25.923
-29.298
-32.614
-35.818
-38.857
-41.67
-44.202
-46.416
-48.294
-49.85
-51.146
-52.231
-53.162
-54.001
-54.792
-55.631
-56.651
-57.964
-59.681
-61.919
-64.714
-68.165
-72.491
-77.686
-83.581
-89.863
-95.859
-100.997
-104.996
-107.342
-107.36
-104.977
-100.436
-94.366
-88.238
-83.146
-79.57
-78.489
-81.012
-86.235
-91.66
-94.541
-90.799
-79.3
-63.466
-43.922
-19.084
14.224
65.547
141.752
242.415
364.787
498.24
628.046
742.352
828.384
875.88
877.119
825.058
719.184
565.134
377.49
181.309
0.964
-142.555
-235.533
-281.037
-288.264
-267.142
-231.998
-190.45
-149.124
-119.669
-106.227
-109.954
-127.352
-146.386
-160.272
-166.643
-166.325
-165.138
-165.192
-165.796
-166.097
-163.899
-158.843
-152.143
-144.628
-137.339
-131.14
-126.176
-122.489
-120.047
-118.568
-117.857
-117.809
-118.298
-119.213
-120.478
-122.022
-123.764
-125.651
-127.604
-129.52
-131.329
-132.988
-134.487
-135.846
-137.088
-138.237
-139.311
-140.331
-141.287
-142.143
-142.858
-143.384
-143.698
-143.808
-143.727
-143.475
-143.064
-142.498
-141.774
-140.887
-139.825
-138.575
-137.126
-135.466
-133.61
-131.592
-129.452
-127.246
-125.009
-122.758
-120.509
-118.264
-116.026
-113.793
-111.56
-109.317
-107.057
-104.781
-102.487
-100.178
-97.847
-95.48
-93.059
-90.561
-87.971
-85.28
-82.483
-79.577
-76.567
-73.457
-70.259
-66.988
-63.659
-60.282
-56.869
-53.429
-49.974
-46.517
-43.073
-39.656
-36.281
-32.963
-29.716
-26.554
-23.49
-20.538
-17.708
-15.011
-12.455
-10.053
-7.813
-5.746
-3.86
-2.164
-0.666
0.628
1.712
2.581
3.232
