Name
Date of Birth,"Mar 27, 1959"
Recorded Date,2022-08-30 17:00:45 -0500
Classification,Sinus Rhythm
Symptoms,
Software Version,1.90
Device,"Watch4,2"
Sample Rate,510.227 hertz


Lead,Lead I
Unit,µV

-16.126
-14.533
-13.171
-12.052
-11.174
-10.51
-10.04
-9.743
-9.586
-9.563
-9.658
-9.842
-10.103
-10.418
-10.74
-11.011
-11.137
-11.003
-10.547
-9.733
-8.554
-7.063
-5.307
-3.351
-1.3
0.768
2.78
4.643
6.307
7.727
8.815
9.481
9.605
9.033
7.694
5.576
2.684
-0.902
-5.093
-9.786
-14.796
-19.949
-25.095
-30.066
-34.757
-39.098
-42.967
-46.257
-48.9
-50.798
-51.956
-52.462
-52.346
-51.699
-50.672
-49.406
-48.151
-47.186
-46.67
-46.799
-47.835
-49.854
-52.816
-56.536
-60.399
-63.737
-66.117
-66.971
-65.602
-61.755
-55.572
-47.67
-39.697
-33.447
-29.84
-29.521
-33.543
-42.219
-54.402
-68.315
-79.059
-79.152
-65.283
-36.117
8.636
62.438
122.893
194.692
280.677
389.928
528.7
687.463
849.773
991.074
1082.526
1105.891
1057.38
942.224
775.167
580.003
376.261
185.763
32.618
-75.569
-137.862
-163.303
-174.665
-183.68
-194.112
-205.004
-206.779
-197.32
-181.522
-164.534
-152.573
-147.866
-148.725
-153.443
-160.318
-167.682
-174.116
-178.098
-178.767
-176.288
-171.38
-165.001
-157.949
-150.865
-144.444
-139.367
-136.011
-134.396
-134.326
-135.433
-137.398
-139.992
-142.954
-146.046
-149.059
-151.778
-154.024
-155.65
-156.541
-156.629
-155.882
-154.277
-151.816
-148.539
-144.507
-139.815
-134.556
-128.808
-122.648
-116.145
-109.385
-102.462
-95.474
-88.508
-81.631
-74.886
-68.302
-61.905
-55.708
-49.707
-43.892
-38.237
-32.728
-27.355
-22.111
-16.991
-11.982
-7.071
-2.246
2.507
7.196
11.829
16.413
20.953
25.454
29.914
34.332
38.705
43.031
47.311
51.543
55.728
59.866
63.953
67.988
71.968
75.889
79.744
83.524
87.222
90.827
94.329
97.716
100.976
104.097
107.067
109.873
112.501
114.938
117.171
119.185
120.969
122.508
123.789
124.801
125.532
125.971
126.109
125.938
125.451
124.642
123.506
122.04
120.242
118.111
115.648
112.854
109.733
106.291
102.534
98.472
94.113
89.472
84.559
79.391
73.983
68.351
62.512
56.486
50.291
43.947
37.476
30.897
24.233
17.506
10.738
3.952
-2.829
-9.585
-16.292
-22.93
-29.478
-35.915
-42.222
-48.379
-54.369
-60.174
-65.777
-71.163
-76.317
-81.226
-85.878
-90.264
-94.374
-98.2
-101.736
-104.977
-107.919
-110.558
-112.894
-114.927
-116.656
-118.084
-119.216
-120.055
-120.607
-120.881
-120.883
-120.624
-120.114
-119.365
-118.387
-117.195
-115.803
-114.224
-112.475
-110.572
-108.532
-106.372
-104.109
-101.761
-99.346
-96.881
-94.385
-91.874
-89.366
-86.877
-84.425
-82.025
-79.694
-77.447
-75.3
-73.267
-71.361
-69.596
-67.984
-66.536
-65.261
-64.17
-63.27
-62.567
-62.068
-61.776
-61.694
-61.823
-62.163
-62.711
-63.462
-64.412
-65.553
-66.875
-68.368
-70.021
-71.821
-73.752
-75.8
-77.947
-80.176
-82.468
-84.801
-87.156
-89.511
-91.842
-94.128
-96.345
-98.47
-100.479
-102.349
-104.057
-105.58
-106.895
-107.979
-108.812
-109.374
-109.645
-109.608
-109.25
-108.554
-107.512
-106.115
-104.356
-102.232
-99.741
-96.883
-93.664
-90.088
-86.166
-81.908
-77.329
-72.447
-67.281
-61.855
-56.193
-50.323
-44.274
-38.076
-31.762
-25.367
-18.926
-12.475
-6.051
0.305
6.551
12.643
18.537
24.19
29.56
34.603
39.28
43.552
47.388
50.763
53.653
56.032
57.881
59.18
59.914
60.078
59.664
58.672
57.105
54.974
52.297
49.103
45.416
41.26
36.648
31.587
26.088
20.177
13.884
7.241
0.292
-6.916
-14.317
-21.82
-29.342
-36.802
-44.123
-51.244
-58.089
-64.567
-70.579
-76.014
-80.758
-84.738
-87.913
-90.249
-91.749
-92.415
-92.254
-91.369
-89.878
-87.887
-85.52
-82.865
-79.983
-77.07
-74.44
-72.255
-70.591
-69.332
-67.998
-66.164
-63.534
-59.522
-53.367
-44.79
-33.812
-20.855
-7.662
3.901
12.578
16.196
13.848
7.851
0.197
-6.938
-12.346
-20.233
-32.661
-44.229
-44.153
-15.536
55.47
170.126
321.406
496.546
681.003
863.533
1028.759
1156.504
1226.07
1219.178
1131.972
975.89
772.563
549.491
332.495
143.003
-4.356
-98.667
-138.125
-131.922
-91.006
-36.081
12.537
45.431
53.933
42.389
23.913
5.403
-5.73
-9.221
-12.388
-17.834
-26.331
-36.358
-43.414
-45.946
-44.537
-40.123
-34.387
-28.427
-22.822
-18.32
-15.361
-14.059
-14.312
-15.852
-18.468
-21.977
-26.173
-30.837
-35.747
-40.724
-45.632
-50.311
-54.557
-58.206
-61.142
-63.29
-64.638
-65.175
-64.896
-63.84
-62.063
-59.626
-56.596
-53.024
-48.96
-44.472
-39.641
-34.553
-29.304
-23.958
-18.558
-13.138
-7.714
-2.294
3.119
8.539
13.991
19.487
25.039
30.652
36.325
42.068
47.891
53.803
59.811
65.92
72.13
78.441
84.849
91.347
97.926
104.573
111.271
118.006
124.768
131.542
138.314
145.072
151.8
158.48
165.099
171.636
178.073
184.388
190.56
196.567
202.387
207.998
213.378
218.505
223.356
227.911
232.149
236.05
239.593
242.761
245.536
247.903
249.847
251.355
252.416
253.021
253.162
252.834
252.033
250.759
249.011
246.792
244.106
240.96
237.363
233.325
228.858
223.975
218.695
213.033
207.011
200.65
193.971
186.999
179.759
172.276
164.578
156.692
148.645
140.467
132.185
123.828
115.425
107.005
98.596
90.225
81.919
73.705
65.607
57.651
49.86
42.255
34.859
27.69
20.768
14.11
7.732
1.649
-4.126
-9.581
-14.706
-19.492
-23.932
-28.02
-31.752
-35.125
-38.138
-40.792
-43.089
-45.031
-46.623
-47.871
-48.782
-49.365
-49.629
-49.584
-49.243
-48.618
-47.722
-46.57
-45.177
-43.557
-41.727
-39.704
-37.503
-35.143
-32.641
-30.014
-27.281
-24.46
-21.569
-18.627
-15.65
-12.658
-9.668
-6.695
-3.757
-0.869
1.953
4.696
7.345
9.888
12.312
14.606
16.76
18.764
20.608
22.287
23.794
25.121
26.266
27.224
27.992
28.568
28.949
29.136
29.128
28.928
28.536
27.956
27.193
26.25
25.135
23.853
22.412
20.82
19.084
17.214
15.218
13.107
10.889
8.577
6.179
3.708
1.175
-1.41
-4.033
-6.685
-9.352
-12.023
-14.687
-17.333
-19.949
-22.523
-25.044
-27.501
-29.881
-32.173
-34.367
-36.452
-38.418
-40.256
-41.958
-43.516
-44.924
-46.175
-47.266
-48.191
-48.947
-49.533
-49.947
-50.189
-50.261
-50.166
-49.908
-49.493
-48.927
-48.221
-47.382
-46.425
-45.362
-44.208
-42.98
-41.694
-40.369
-39.027
-37.686
-36.366
-35.087
-33.869
-32.733
-31.699
-30.79
-30.027
-29.429
-29.017
-28.808
-28.819
-29.061
-29.54
-30.259
-31.221
-32.434
-33.908
-35.653
-37.671
-39.966
-42.538
-45.379
-48.474
-51.792
-55.286
-58.91
-62.622
-66.387
-70.18
-73.968
-77.717
-81.379
-84.894
-88.207
-91.266
-94.018
-96.404
-98.388
-99.976
-101.217
-102.209
-103.036
-103.741
-104.358
-104.935
-105.545
-106.287
-107.258
-108.518
-110.17
-112.416
-115.402
-119.159
-123.463
-127.702
-131.164
-133.202
-133.098
-130.102
-123.771
-114.071
-101.776
-88.768
-77.034
-68.349
-64.746
-67.78
-77.944
-94.943
-115.199
-133.273
-145.439
-146.421
-133.925
-106.3
-56.62
16.186
113.769
237.192
377.853
533.042
696.335
851.921
985.022
1072.561
1095.952
1052.737
950.251
805.244
632.875
444.363
250.648
66.436
-85.178
-189.449
-244.115
-258.6
-254.33
-241.147
-217.795
-182.924
-135.073
-86.814
-57.48
-56.201
-82.028
-121.242
-156.105
-177.564
-185.265
-185.65
-185.043
-185.095
-184.375
-179.796
-170.721
-159.255
-147.394
-136.793
-127.999
-120.606
-114.567
-110.165
-107.264
-105.365
-104.054
-102.939
-101.9
-101.136
-100.644
-100.248
-99.795
-99.146
-98.266
-97.265
-96.273
-95.355
-94.568
-93.941
-93.51
-93.365
-93.543
-94.026
-94.737
-95.536
-96.337
-97.117
-97.889
-98.672
-99.432
-100.068
-100.447
-100.47
-100.061
-99.168
-97.74
-95.705
-93.035
-89.757
-85.955
-81.755
-77.242
-72.46
-67.431
-62.175
-56.728
-51.147
-45.486
-39.771
-34.024
-28.269
-22.536
-16.863
-11.268
-5.742
-0.252
5.245
10.769
16.324
21.903
27.495
33.089
38.673
44.222
49.699
55.073
60.315
65.404
70.322
75.045
79.544
83.787
87.746
91.395
94.716
97.691
100.305
102.545
104.403
105.877
106.966
107.673
107.996
107.935
107.491
106.667
105.468
103.9
101.968
99.679
97.045
94.076
90.785
87.187
83.297
79.13
74.704
70.038
65.15
60.058
54.781
49.339
43.75
38.033
32.206
26.287
20.292
14.238
8.142
2.019
-4.116
-10.248
-16.365
-22.452
-28.496
-34.484
-40.404
-46.245
-51.994
-57.639
-63.169
-68.572
-73.837
-78.953
-83.91
-88.697
-93.304
-97.721
-101.941
-105.953
-109.75
-113.325
-116.669
-119.776
-122.64
-125.254
-127.615
-129.717
-131.556
-133.13
-134.437
-135.477
-136.248
-136.753
-136.993
-136.973
-136.696
-136.168
-135.395
-134.387
-133.151
-131.699
-130.042
-128.195
-126.171
-123.987
-121.661
-119.209
-116.652
-114.009
-111.302
-108.551
-105.779
-103.008
-100.258
-97.554
-94.917
-92.368
-89.93
-87.621
-85.462
-83.47
-81.664
-80.058
-78.666
-77.501
-76.573
-75.89
-75.459
-75.286
-75.372
-75.719
-76.323
-77.181
-78.287
-79.631
-81.202
-82.985
-84.966
-87.125
-89.441
-91.892
-94.453
-97.098
-99.798
-102.524
-105.246
-107.931
-110.547
-113.061
-115.438
-117.644
-119.647
-121.411
-122.903
-124.092
-124.946
-125.437
-125.536
-125.216
-124.455
-123.228
-121.517
-119.305
-116.575
-113.317
-109.519
-105.177
-100.287
-94.85
-88.87
-82.353
-75.309
-67.753
-59.701
-51.175
-42.196
-32.792
-22.992
-12.829
-2.339
8.44
19.466
30.695
42.082
53.575
65.123
76.675
88.174
99.568
110.802
121.821
132.572
143.004
153.07
162.72
171.91
180.594
188.726
196.266
203.174
209.415
214.957
219.772
223.835
227.135
229.66
231.404
232.357
232.504
231.832
230.34
228.03
224.913
221.011
216.358
211.003
205.02
198.484
191.474
184.062
176.31
168.285
160.058
151.711
143.345
135.053
126.92
119.016
111.414
104.15
97.219
90.569
84.091
77.677
71.246
64.717
57.996
50.975
43.536
35.554
26.945
17.584
7.261
-4.109
-16.442
-29.438
-42.466
-54.82
-65.91
-75.048
-81.364
-84.349
-83.997
-80.877
-76.489
-72.42
-69.722
-69.445
-72.774
-80.129
-90.741
-102.661
-112.276
-115.249
-107.791
-86.129
-45.825
15.383
95.639
191.761
298.776
413.697
540.3
679.792
825.071
960.14
1058.516
1096.494
1064.977
969.358
826.553
654.535
467.537
276.825
95.587
-56.891
-166.736
-229.134
-252.085
-256.295
-255.94
-256.155
-254.791
-243.387
-220.531
-190.801
-159.116
-131.302
-109.913
-95.145
-87.743
-87.276
-92.406
-101.752
-113.865
-127.708
-142.361
-156.235
-167.628
-175.608
-179.978
-181.181
-179.9
-176.61
-171.994
-167.226
-163.324
-160.881
-160.134
-160.854
-162.661
-165.254
-168.165
-170.795
-172.734
-173.751
-173.762
-172.867
-171.162
-168.708
-165.623
-162.035
-158.029
-153.674
-149.004
-144.046
-138.867
-133.568
-128.256
-123.022
-117.924
-113.006
-108.298
-103.826
-99.602
-95.626
-91.88
-88.361
-85.071
-82.012
-79.189
-76.596
-74.216
-72.032
-70.021
-68.162
-66.437
-64.828
-63.32
-61.899
-60.555
-59.28
-58.068
-56.908
-55.789
-54.699
-53.626
-52.557
-51.484
-50.396
-49.286
-48.148
-46.978
-45.774
-44.537
-43.267
-41.968
-40.643
-39.298
-37.941
-36.581
-35.227
-33.892
-32.589
-31.331
-30.135
-29.016
-27.992
-27.081
-26.299
-25.665
-25.195
-24.907
-24.816
-24.937
-25.284
-25.87
-26.704
-27.799
-29.162
-30.8
-32.719
-34.923
-37.414
-40.191
-43.252
-46.593
-50.208
-54.089
-58.225
-62.605
-67.216
-72.043
-77.07
-82.28
-87.653
-93.17
-98.809
-104.547
-110.36
-116.226
-122.118
-128.013
-133.884
-139.708
-145.459
-151.114
-156.65
-162.044
-167.275
-172.321
-177.163
-181.783
-186.162
-190.286
-194.138
-197.707
-200.98
-203.947
-206.601
-208.935
-210.942
-212.621
-213.967
-214.981
-215.662
-216.013
-216.038
-215.742
-215.132
-214.215
-213.003
-211.506
-209.735
-207.706
-205.431
-202.927
-200.207
-197.289
-194.188
-190.922
-187.506
-183.958
-180.295
-176.533
-172.688
-168.777
-164.814
-160.814
-156.792
-152.761
-148.733
-144.719
-140.732
-136.78
-132.873
-129.019
-125.226
-121.499
-117.842
-114.26
-110.753
-107.323
-103.969
-100.687
-97.475
-94.329
-91.242
-88.208
-85.219
-82.268
-79.345
-76.442
-73.548
-70.655
-67.751
-64.828
-61.875
-58.882
-55.841
-52.741
-49.575
-46.334
-43.011
-39.599
-36.092
-32.484
-28.77
-24.947
-21.014
-16.967
-12.809
-8.539
-4.161
0.32
4.899
9.57
14.323
19.151
24.041
28.983
33.964
38.97
43.989
49.005
54.004
58.972
63.892
68.751
73.535
78.228
82.816
87.285
91.621
95.81
99.84
103.698
107.37
110.846
114.113
117.162
119.983
122.569
124.911
127.002
128.837
130.411
131.72
132.758
133.52
134.001
134.198
134.108
133.728
133.057
132.094
130.844
129.312
127.502
125.42
123.07
120.452
117.57
114.43
111.037
107.398
103.518
99.404
95.077
90.555
85.852
80.976
75.921
70.68
65.255
59.648
53.866
47.925
41.844
35.655
29.419
23.196
17.045
11.02
5.154
-0.519
-5.947
-11.063
-15.792
-20.056
-23.808
-27.007
-29.612
-31.63
-33.106
-34.132
-34.861
-35.423
-35.944
-36.585
-37.489
-38.802
-40.691
-43.268
-46.703
-51.32
-57.243
-64.408
-72.626
-81.35
-89.993
-98.146
-105.077
-109.75
-111.673
-110.906
-107.935
-104.147
-101.055
-99.634
-101.26
-107.922
-118.827
-130.438
-139.797
-142.224
-137.74
-132.819
-126.649
-114.694
-86.563
-22.912
83.294
229.923
408.401
597.083
779.508
939.01
1056.939
1124.508
1131.334
1076.357
967.926
812.745
628.772
433.313
244.553
86.63
-30.725
-103.31
-137.421
-151.425
-153.765
-153.123
-152.046
-146.004
-139.09
-130.718
-121.377
-114.09
-105.881
-98.818
-95.027
-93.637
-95.259
-97.178
-96.185
-91.807
-84.078
-73.893
-62.638
-50.978
-39.443
-28.879
-20.072
-13.439
-9.056
-6.764
-6.22
-7.146
-9.35
-12.539
-16.41
-20.702
-25.151
-29.526
-33.63
-37.299
-40.413
-42.899
-44.713
-45.834
-46.275
-46.077
-45.31
-44.046
-42.347
-40.273
-37.88
-35.241
-32.443
-29.574
-26.718
-23.927
-21.231
-18.645
-16.173
-13.804
-11.519
-9.281
-7.046
-4.778
-2.451
-0.042
2.467
5.1
7.882
10.834
13.977
17.325
20.886
24.668
28.673
32.901
37.342
41.987
46.82
51.828
56.996
62.311
67.757
73.316
78.969
84.694
90.47
96.271
102.072
107.842
113.551
119.169
124.665
130.007
135.165
140.106
144.802
149.223
153.342
157.13
160.564
163.62
166.276
168.513
170.313
171.664
172.552
172.97
172.911
172.373
171.355
169.861
167.897
165.469
162.59
159.272
155.533
151.389
146.861
141.973
136.75
131.219
125.41
119.352
113.077
106.618
100.008
93.28
86.468
79.605
72.724
65.857
59.036
52.292
45.652
39.146
32.797
26.631
20.669
14.931
9.434
4.193
-0.779
-5.471
-9.874
-13.982
-17.79
-21.296
-24.499
-27.402
-30.007
-32.319
-34.345
-36.094
-37.575
-38.799
-39.779
-40.528
-41.06
-41.391
-41.536
-41.512
-41.335
-41.022
-40.589
-40.054
-39.431
-38.738
-37.989
-37.198
-36.38
-35.546
-34.71
-33.881
-33.07
-32.286
-31.537
-30.831
-30.174
-29.571
-29.027
-28.547
-28.134
-27.792
-27.522
-27.326
-27.206
-27.162
-27.195
-27.302
-27.484
-27.737
-28.061
-28.453
-28.908
-29.425
-30
-30.629
-31.308
-32.034
-32.802
-33.61
-34.453
-35.328
-36.23
-37.158
-38.107
-39.076
-40.06
-41.057
-42.064
-43.079
-44.098
-45.117
-46.133
-47.141
-48.137
-49.117
-50.074
-51.004
-51.902
-52.762
-53.58
-54.35
-55.068
-55.728
-56.325
-56.854
-57.31
-57.688
-57.983
-58.19
-58.304
-58.32
-58.236
-58.047
-57.748
-57.336
-56.807
-56.156
-55.38
-54.476
-53.44
-52.27
-50.965
-49.524
-47.947
-46.237
-44.395
-42.425
-40.331
-38.12
-35.797
-33.371
-30.849
-28.24
-25.554
-22.802
-19.997
-17.152
-14.279
-11.396
-8.519
-5.669
-2.863
-0.122
2.536
5.089
7.516
9.799
11.921
13.867
15.62
17.161
18.472
19.533
20.331
20.851
21.082
21.013
20.634
19.944
18.949
17.653
16.06
14.164
11.947
9.399
6.518
3.308
-0.221
-4.054
-8.173
-12.54
-17.094
-21.776
-26.529
-31.309
-36.089
-40.826
-45.463
-49.925
-54.119
-57.963
-61.403
-64.381
-66.857
-68.819
-70.287
-71.326
-72.04
-72.536
-72.915
-73.291
-73.785
-74.518
-75.587
-77.133
-79.368
-82.45
-86.433
-91.151
-96.141
-100.899
-105.005
-107.961
-109.104
-107.854
-103.945
-97.892
-91.084
-85.015
-80.77
-79.321
-81.855
-89.441
-102.444
-118.05
-130.545
-134.928
-127.831
-110.779
-87.725
-56.71
-11.89
55.64
155.528
287.13
442.626
612.958
784.509
942.816
1073.377
1156.326
1173.714
1120.337
1000.117
826.826
624.336
412.401
210.389
40.562
-84.527
-157.626
-179.493
-165.432
-129.993
-86.277
-47.493
-17.764
-0.743
2.54
-1.006
-6.813
-10.248
-9.325
-8.474
-9.837
-13.758
-18.989
-21.909
-21.206
-17.469
-11.622
-5.126
1.115
6.648
10.781
13.08
13.512
12.251
9.657
6.054
1.649
-3.353
-8.669
-14.032
-19.207
-23.974
-28.211
-31.83
-34.743
-36.905
-38.295
-38.902
-38.76
-37.94
-36.503
-34.518
-32.048
-29.142
-25.873
-22.332
-18.611
-14.817
-11.025
-7.282
-3.629
-0.091
3.317
6.586
9.726
12.767
15.726
18.618
21.452
24.231
26.966
29.674
32.373
35.077
37.798
40.543
43.32
46.134
48.989
51.883
54.812
57.768
60.745
63.741
66.752
69.776
72.808
75.843
78.878
81.907
84.925
87.923
90.89
93.816
96.689
99.498
102.228
104.867
107.4
109.812
112.088
114.214
116.173
117.95
119.53
120.897
122.038
122.938
123.586
123.969
124.078
123.905
123.442
122.685
121.63
120.275
118.619
116.664
114.413
111.87
109.039
105.928
102.545
98.901
95.008
90.878
86.526
81.969
77.222
72.305
67.236
62.036
56.725
51.325
45.858
40.348
34.816
29.287
23.783
18.328
12.942
7.648
2.467
-2.583
-7.483
-12.217
-16.769
-21.125
-25.273
-29.202
-32.902
-36.365
-39.585
-42.557
-45.277
-47.743
-49.954
-51.911
-53.615
-55.07
-56.28
-57.25
-57.988
-58.502
-58.801
-58.895
-58.796
-58.515
-58.067
-57.464
-56.721
-55.852
-54.873
-53.797
-52.64
-51.416
-50.138
-48.82
-47.474
-46.112
-44.743
-43.379
-42.028
-40.696
-39.391
-38.119
-36.884
-35.69
-34.541
-33.438
-32.383
-31.376
-30.418
-29.507
-28.641
-27.818
-27.034
-26.286
-25.568
-24.876
-24.205
-23.547
-22.897
-22.249
-21.597
-20.933
-20.252
-19.548
-18.815
-18.049
-17.244
-16.399
-15.51
-14.577
-13.597
-12.572
-11.503
-10.391
-9.239
-8.049
-6.825
-5.571
-4.291
-2.989
-1.672
-0.344
0.989
2.32
3.644
4.953
6.242
7.504
8.733
9.924
11.071
12.168
13.212
14.199
15.126
15.99
16.788
17.52
18.187
18.789
19.328
19.809
20.234
20.61
20.942
21.237
21.503
21.747
21.976
22.197
22.419
22.649
22.895
23.164
23.462
23.797
24.175
24.603
25.085
25.624
26.225
26.889
27.616
28.405
29.251
30.145
31.083
32.053
33.046
34.05
35.051
36.038
37.001
37.927
38.805
39.62
40.353
40.985
41.503
41.889
42.128
42.206
42.106
41.821
41.349
40.686
39.826
38.753
37.436
35.854
33.992
31.841
29.398
26.668
23.658
20.397
16.94
13.341
9.653
5.919
2.162
-1.581
-5.255
-8.792
-12.107
-15.128
-17.81
-20.113
-22.014
-23.519
-24.665
-25.541
-26.284
-27.04
-27.956
-29.181
-30.863
-33.16
-36.218
-40.199
-45.321
-51.707
-59.358
-68.101
-77.507
-87.037
-96.205
-104.459
-111.112
-115.615
-117.744
-117.862
-117.041
-116.676
-117.911
-121.447
-128.115
-138.742
-153.368
-170.709
-186.869
-195.764
-192.107
-173.047
-140.167
-97.104
-46.268
12.215
86.367
184.789
312.489
472.93
653.101
830.785
982.085
1074.51
1087.627
1017.811
868.712
663.323
433.328
203.972
3.575
-148.248
-249.524
-303.003
-323.334
-332.128
-339.18
-348.497
-357.711
-358.174
-349.007
-334.438
-319.111
-308.206
-302.476
-299.788
-298.734
-298.033
-296.526
-293.36
-287.736
-280.046
-271.906
-264.741
-259.143
-254.85
-251.637
-249.667
-249.144
-249.741
-250.456
-250.464
-249.643
-248.561
-247.75
-247.351
-247.308
-247.548
-248.229
-249.476
-251.071
-252.522
-253.4
-253.483
-252.728
-251.215
-248.971
-245.991
-242.358
-238.199
-233.648
-228.807
-223.723
-218.414
-212.924
-207.321
-201.68
-196.064
-190.506
-185.018
-179.602
-174.248
-168.937
-163.637
-158.313
-152.935
-147.482
-141.937
-136.286
-130.517
-124.617
-118.574
-112.374
-106.002
-99.451
-92.714
-85.794
-78.698
-71.434
-64.015
-56.458
-48.777
-40.99
-33.113
-25.163
-17.159
-9.12
-1.068
6.974
14.981
22.926
30.781
38.517
46.106
53.52
60.73
67.708
74.426
80.858
86.979
92.764
98.19
103.237
107.884
112.114
115.913
119.266
122.164
124.597
126.56
128.051
129.067
129.612
129.69
129.308
128.474
127.202
125.504
123.396
120.896
118.024
114.799
111.247
107.389
103.252
98.861
94.244
89.427
84.437
79.303
74.052
68.709
63.302
57.857
52.398
46.949
41.532
36.17
30.882
25.688
20.604
15.646
10.829
6.164
1.663
-2.666
-6.815
-10.779
-14.553
-18.135
-21.524
-24.721
-27.727
-30.546
-33.182
-35.639
-37.924
-40.043
-42.004
-43.814
-45.481
-47.013
-48.42
-49.711
-50.894
-51.978
-52.972
-53.886
-54.727
-55.504
-56.225
-56.896
-57.525
-58.119
-58.683
-59.224
-59.746
-60.255
-60.755
-61.248
-61.738
-62.227
-62.715
-63.204
-63.691
-64.178
-64.662
-65.143
-65.619
-66.089
-66.552
-67.008
-67.456
-67.894
-68.323
-68.74
-69.144
-69.533
-69.907
-70.263
-70.602
-70.922
-71.224
-71.508
-71.776
-72.028
-72.263
-72.483
-72.687
-72.874
-73.044
-73.198
-73.335
-73.456
-73.562
-73.656
-73.74
-73.818
-73.891
-73.96
-74.025
-74.087
-74.144
-74.192
-74.226
-74.242
-74.239
-74.213
-74.163
-74.088
-73.985
-73.856
-73.703
-73.525
-73.317
-73.072
-72.784
-72.443
-72.043
-71.576
-71.033
-70.407
-69.694
-68.894
-68.015
-67.058
-66.02
-64.895
-63.666
-62.328
-60.884
-59.336
-57.687
-55.956
-54.169
-52.371
-50.634
-49.006
-47.519
-46.194
-45.027
-44.014
-43.161
-42.456
-41.887
-41.447
-41.121
-40.91
-40.842
-40.901
-41.046
-41.201
-41.233
-41.042
-40.574
-39.776
-38.63
-37.159
-35.398
-33.438
-31.429
-29.493
-27.743
-26.273
-25.111
-24.328
-24.036
-24.366
-25.514
-27.657
-30.929
-35.478
-41.424
-48.792
-57.553
-67.576
-78.602
-90.386
-102.674
-115.204
-127.789
-140.224
-152.279
-163.732
-174.323
-183.778
-191.827
-198.185
-202.598
-204.924
-205.1
-203.161
-199.247
-193.54
-186.334
-177.986
-168.813
-159.106
-149.086
-139.013
-129.312
-120.329
-112.245
-105.012
-98.228
-91.491
-84.637
-77.277
-68.715
-58.592
-46.984
-34.759
-23.861
-15.964
-12.204
-14.09
-23.174
-40.042
-62.49
-85.29
-102.204
-108.695
-106.297
-98.654
-85.189
-61.346
-14.605
68.131
191.533
353.418
539.624
729.834
900.532
1026.648
1091.9
1085.319
1009.701
878.572
704.408
507.838
305.909
114.607
-43.01
-156.996
-225.003
-253.611
-263.949
-268.521
-271.548
-272.232
-261.858
-238.715
-208.299
-177.04
-151.657
-134.276
-123.592
-118.341
-117.296
-119.622
-123.667
-126.656
-127.075
-124.799
-120.193
-114.043
-106.664
-97.763
-87.983
-78.823
-71.156
-65.366
-61.471
-58.985
-57.744
-57.998
-59.559
-61.861
-64.44
-66.823
-68.717
-70.149
-71.065
-71.318
-70.871
-69.728
-67.926
-65.584
-62.787
-59.562
-55.952
-51.995
-47.737
-43.265
-38.67
-34.037
-29.453
-24.97
-20.619
-16.423
-12.39
-8.522
-4.812
-1.23
2.259
5.683
9.059
12.398
15.712
19.023
22.356
25.731
29.168
32.675
36.26
39.93
43.688
47.532
51.456
55.451
59.502
63.601
67.737
71.901
76.083
80.27
84.45
88.609
92.733
96.809
100.819
104.746
108.572
112.279
115.85
119.269
122.517
125.579
128.439
131.082
133.493
135.659
137.569
139.21
140.572
141.648
142.43
142.914
143.095
142.973
142.548
141.823
140.802
139.493
137.903
136.041
133.918
131.548
128.943
126.117
123.087
119.869
116.48
112.941
109.269
105.486
101.61
97.663
93.664
89.634
85.591
81.556
77.546
73.58
69.674
65.846
62.111
58.484
54.978
51.605
48.376
45.299
42.382
39.63
37.047
34.636
32.398
30.333
28.44
26.715
25.157
23.759
22.517
21.424
20.473
19.655
18.963
18.386
17.915
17.54
17.249
17.034
16.883
16.786
16.732
16.711
16.713
16.728
16.747
16.759
16.756
16.731
16.675
16.584
16.45
16.27
16.04
15.757
15.418
15.022
14.568
14.054
13.479
12.845
12.149
11.394
10.579
9.706
8.776
7.789
6.748
5.654
4.508
3.31
2.062
0.765
-0.581
-1.975
-3.417
-4.907
-6.444
-8.029
-9.662
-11.344
-13.075
-14.859
-16.697
-18.59
-20.542
-22.556
-24.632
-26.774
-28.983
-31.26
-33.606
-36.019
-38.5
-41.045
-43.654
-46.321
-49.042
-51.813
-54.627
-57.476
-60.353
-63.248
-66.15
-69.048
-71.93
-74.781
-77.588
-80.335
-83.006
-85.585
-88.055
-90.398
-92.596
-94.63
-96.481
-98.13
-99.557
-100.745
-101.674
-102.326
-102.686
-102.737
-102.467
-101.864
-100.918
-99.62
-97.964
-95.948
-93.569
-90.828
-87.728
-84.274
-80.474
-76.34
-71.884
-67.122
-62.073
-56.757
-51.201
-45.433
-39.482
-33.381
-27.163
-20.863
-14.519
-8.165
-1.837
4.432
10.608
16.653
22.532
28.205
33.638
38.799
43.654
48.176
52.337
56.116
59.504
62.491
65.068
67.221
68.923
70.152
70.9
71.157
70.923
70.211
69.038
67.442
65.486
63.231
60.738
58.061
55.237
52.309
49.337
46.389
43.556
40.922
38.55
36.512
34.865
33.612
32.729
32.138
31.71
31.358
30.991
30.481
29.728
28.627
27.064
24.998
22.301
18.692
14.045
8.406
1.981
-4.652
-10.895
-16.348
-20.312
-21.79
-20.265
-15.778
-8.886
-1.072
6.01
11.238
13.078
9.313
0.481
-9.867
-18.443
-20.306
-15.554
-11.514
-8.575
-2.458
18.245
74.997
177.069
323.112
504.251
698.41
888.54
1057.279
1183.646
1254.343
1255.072
1183.362
1051.147
871.722
667.435
458.22
259.037
90.289
-35.077
-112.575
-144.163
-145.473
-134.256
-120.212
-108.104
-95.802
-78.577
-57.872
-37.66
-21.488
-12.648
-10.902
-13.802
-19.23
-24.995
-29.14
-30.452
-28.532
-23.647
-16.635
-8.594
-0.42
7.139
13.333
17.556
19.567
19.402
17.316
13.712
8.921
3.222
-3.089
-9.721
-16.409
-22.902
-28.983
-34.523
-39.424
-43.614
-47.059
-49.734
-51.641
-52.824
-53.346
-53.276
-52.677
-51.609
-50.126
-48.302
-46.222
-43.976
-41.653
-39.311
-36.984
-34.694
-32.448
-30.246
-28.08
-25.922
-23.735
-21.492
-19.171
-16.759
-14.244
-11.608
-8.832
-5.898
-2.791
0.499
3.976
7.644
11.504
15.55
19.774
24.164
28.702
33.375
38.17
43.073
48.069
53.144
58.28
63.459
68.664
73.874
79.068
84.221
89.31
94.311
99.198
103.946
108.531
112.926
117.107
121.049
124.728
128.12
131.202
133.953
136.352
138.379
140.019
141.255
142.074
142.465
142.418
141.929
140.991
139.602
137.763
135.476
132.745
129.576
125.978
121.961
117.537
112.719
107.525
101.971
96.079
89.868
83.362
76.585
69.561
62.318
54.883
47.284
39.549
31.707
23.789
15.822
7.837
-0.138
-8.074
-15.944
-23.721
-31.379
-38.895
-46.245
-53.407
-60.361
-67.088
-73.57
-79.791
-85.737
-91.395
-96.751
-101.797
-106.523
-110.921
-114.986
-118.714
-122.102
-125.148
-127.855
-130.223
-132.257
-133.961
-135.343
-136.41
-137.172
-137.638
-137.821
-137.732
-137.385
-136.794
-135.973
-134.936
-133.7
-132.28
-130.69
-128.946
-127.064
-125.059
-122.947
-120.741
-118.457
-116.11
-113.715
-111.285
-108.835
-106.377
-103.925
-101.49
-99.084
-96.716
-94.396
-92.132
-89.933
-87.803
-85.751
-83.779
-81.892
-80.093
-78.385
-76.767
-75.24
-73.804
-72.458
-71.2
-70.028
-68.938
-67.927
-66.993
-66.13
-65.335
-64.602
-63.925
-63.299
-62.716
-62.17
-61.653
-61.158
-60.677
-60.202
-59.727
-59.244
-58.746
-58.227
-57.68
-57.099
-56.479
-55.813
-55.097
-54.324
-53.489
-52.59
-51.621
-50.58
-49.463
-48.268
-46.992
-45.634
-44.191
-42.662
-41.047
-39.344
-37.554
-35.677
-33.715
-31.673
-29.551
-27.356
-25.091
-22.764
-20.38
-17.947
-15.472
-12.96
-10.421
-7.862
-5.292
-2.72
-0.155
2.391
4.904
7.37
9.773
12.1
14.335
16.463
18.468
20.337
22.061
23.631
25.038
26.272
27.318
28.168
28.812
29.244
29.459
29.453
29.218
28.758
28.085
27.206
26.127
24.847
23.347
21.615
19.653
17.458
15.04
12.411
9.585
6.598
3.51
0.38
-2.73
-5.771
-8.717
-11.52
-14.118
-16.445
-18.407
-19.941
-21.009
-21.564
-21.59
-21.105
-20.149
-18.814
-17.233
-15.529
-13.853
-12.373
-11.231
-10.585
-10.547
-11.271
-13.047
-16.038
-20.239
-25.453
-31.19
-36.976
-42.517
-47.281
-50.441
-51.458
-50.145
-47.046
-43.554
-40.718
-39.295
-40.457
-45.484
-55.266
-68.449
-80.729
-87.342
-85.267
-76.529
-65.449
-51.261
-28.305
15.087
91.604
203.551
347.13
513.516
685.695
847.788
979.502
1056.815
1070.368
1020.271
919.787
792.689
648.998
494.988
334.675
172.179
28.209
-80.324
-146.28
-172.435
-178.419
-179.084
-180.143
-182.446
-179.478
-169.725
-157.374
-146.023
-139.605
-139.173
-142.848
-148.86
-155.393
-160.538
-162.764
-161.294
-156.135
-147.915
-137.693
-126.482
-115.063
-104.279
-94.956
-87.529
-82.149
-78.73
-76.966
-76.58
-77.363
-79.059
-81.4
-84.188
-87.215
-90.272
-93.185
-95.75
-97.808
-99.27
-100.074
-100.191
-99.623
-98.394
-96.563
-94.211
-91.414
-88.239
-84.75
-81.007
-77.088
-73.08
-69.071
-65.143
-61.354
-57.735
-54.31
-51.085
-48.055
-45.203
-42.497
-39.903
-37.389
-34.936
-32.525
-30.139
-27.757
-25.358
-22.922
-20.431
-17.871
-15.23
-12.499
-9.673
-6.749
-3.73
-0.62
2.573
5.842
9.182
12.585
16.045
19.554
23.1
26.673
30.261
33.849
37.42
40.958
44.441
47.85
51.162
54.357
57.411
60.303
63.008
65.506
67.774
69.79
71.534
72.986
74.127
74.94
75.409
75.519
75.258
74.616
73.585
72.157
70.33
68.102
65.473
62.446
59.026
55.22
51.037
46.488
41.585
36.344
30.781
24.916
18.771
12.368
5.731
-1.112
-8.135
-15.31
-22.607
-29.996
-37.447
-44.93
-52.413
-59.868
-67.263
-74.569
-81.759
-88.805
-95.68
-102.36
-108.821
-115.044
-121.007
-126.694
-132.088
-137.176
-141.944
-146.384
-150.485
-154.242
-157.648
-160.702
-163.401
-165.746
-167.739
-169.385
-170.69
-171.661
-172.309
-172.644
-172.678
-172.427
-171.905
-171.129
-170.115
-168.882
-167.447
-165.831
-164.052
-162.129
-160.081
-157.927
-155.685
-153.374
-151.009
-148.608
-146.187
-143.76
-141.342
-138.945
-136.584
-134.27
-132.014
-129.826
-127.717
-125.695
-123.768
-121.941
-120.222
-118.614
-117.12
-115.742
-114.483
-113.341
-112.317
-111.408
-110.612
-109.925
-109.343
-108.862
-108.476
-108.179
-107.966
-107.83
-107.765
-107.765
-107.823
-107.932
-108.086
-108.277
-108.499
-108.745
-109.007
-109.278
-109.551
-109.817
-110.069
-110.301
-110.504
-110.671
-110.795
-110.869
-110.887
-110.843
-110.73
-110.543
-110.275
-109.923
-109.482
-108.949
-108.319
-107.59
-106.759
-105.823
-104.781
-103.631
-102.371
-101
-99.516
-97.92
-96.213
-94.396
-92.47
-90.439
-88.306
-86.077
-83.757
-81.353
-78.872
-76.321
-73.709
-71.046
-68.341
-65.606
-62.854
-60.097
-57.353
-54.639
-51.971
-49.368
-46.846
-44.423
-42.116
-39.94
-37.905
-36.025
-34.309
-32.773
-31.433
-30.299
-29.38
-28.687
-28.224
-28.002
-28.025
-28.291
-28.791
-29.52
-30.477
-31.672
-33.123
-34.842
-36.826
-39.071
-41.571
-44.316
-47.292
-50.464
-53.771
-57.154
-60.557
-63.938
-67.267
-70.492
-73.539
-76.328
-78.76
-80.762
-82.299
-83.33
-83.816
-83.756
-83.167
-82.094
-80.672
-79.029
-77.294
-75.634
-74.174
-73.018
-72.346
-72.398
-73.352
-75.287
-78.026
-81.122
-84.189
-86.97
-89.161
-90.296
-89.876
-87.633
-84.032
-80.346
-77.831
-77.171
-78.817
-83.435
-91.786
-104.238
-118.274
-128.392
-129.629
-119.299
-100.207
-78.11
-53.448
-20.495
31.976
116.034
234.414
380.094
541.682
705.527
857.556
985.013
1071.989
1100.852
1064.622
965.721
815.244
635.132
444.783
260.9
103.06
-16.175
-92.498
-126.285
-129.581
-116.885
-92.443
-62.535
-32.463
-4.078
11.63
11.136
1.302
-13.866
-25.897
-30.71
-33.592
-36.27
-39.424
-43.318
-44.811
-42.917
-38.838
-33.455
-28.003
-23.538
-20.493
-19.122
-19.618
-21.847
-25.434
-30.109
-35.646
-41.807
-48.399
-55.203
-61.968
-68.479
-74.557
-80.046
-84.825
-88.804
-91.925
-94.163
-95.518
-96.023
-95.732
-94.694
-92.964
-90.591
-87.616
-84.108
-80.144
-75.812
-71.203
-66.383
-61.397
-56.284
-51.068
-45.762
-40.372
-34.89
-29.295
-23.581
-17.745
-11.791
-5.725
0.45
6.734
13.128
19.627
26.226
32.916
39.686
46.524
53.415
60.34
67.278
74.205
81.101
87.947
94.724
101.415
108.001
114.462
120.783
126.944
132.928
138.714
144.284
149.616
154.691
159.491
163.996
168.189
172.052
175.568
178.722
181.502
183.894
185.886
187.469
188.635
189.377
189.69
189.57
189.015
188.025
186.603
184.752
182.478
179.789
176.693
173.204
169.332
165.094
160.505
155.583
150.348
144.821
139.023
132.979
126.715
120.256
113.631
106.867
99.993
93.039
86.034
79.006
71.986
65.001
58.08
51.25
44.539
37.971
31.571
25.364
19.372
13.615
8.113
2.884
-2.056
-6.692
-11.013
-15.006
-18.664
-21.978
-24.945
-27.559
-29.819
-31.726
-33.28
-34.486
-35.348
-35.874
-36.073
-35.953
-35.528
-34.81
-33.813
-32.553
-31.045
-29.306
-27.355
-25.21
-22.888
-20.41
-17.795
-15.063
-12.233
-9.326
-6.361
-3.358
-0.337
2.685
5.689
8.656
11.571
14.416
17.176
19.836
22.382
24.8
27.078
29.203
31.165
32.955
34.564
35.985
37.21
38.235
39.056
39.67
40.074
40.268
40.251
40.026
39.594
38.958
38.122
37.092
35.874
34.476
32.904
31.17
29.281
27.249
25.086
22.802
20.41
17.924
15.357
12.723
10.037
7.312
4.565
1.812
-0.932
-3.651
-6.329
-8.951
-11.499
-13.96
-16.316
-18.555
-20.661
-22.623
-24.427
-26.062
-27.515
-28.778
-29.842
-30.7
-31.344
-31.77
-31.975
-31.956
-31.714
-31.25
-30.565
-29.665
-28.554
-27.241
-25.734
-24.044
-22.183
-20.163
-18.001
-15.713
-13.318
-10.835
-8.285
-5.691
-3.078
-0.473
2.096
4.603
7.019
9.316
11.466
13.443
15.224
16.788
18.116
19.186
19.978
20.472
20.651
20.502
20.013
19.176
17.981
16.431
14.534
12.301
9.742
6.862
3.653
0.114
-3.747
-7.919
-12.385
-17.116
-22.081
-27.231
-32.493
-37.8
-43.089
-48.304
-53.412
-58.363
-63.097
-67.544
-71.614
-75.231
-78.343
-80.876
-82.78
-84.062
-84.745
-84.903
-84.659
-84.068
-83.197
-82.159
-81.025
-79.888
-78.878
-78.062
-77.589
-77.755
-78.672
-80.257
-82.302
-84.233
-85.397
-85.313
-83.289
-78.436
-70.441
-59.66
-46.896
-33.718
-22.12
-13.739
-9.973
-12.525
-20.616
-30.174
-39.018
-45.078
-47.031
-47.972
-43.105
-19.845
31.09
118.147
238.637
375.687
516.886
655.459
787.823
913.728
1022.735
1093.801
1108.986
1059.546
951.911
804.705
634.527
454.859
275.708
106.691
-34.381
-132.816
-183.903
-192.102
-175.506
-153.89
-136.612
-127.954
-125.597
-121.33
-113.788
-102.97
-88.095
-74.919
-66.127
-61.87
-64.161
-70.844
-79.145
-88.682
-98.469
-107.679
-116.445
-124.224
-129.916
-133.331
-134.791
-134.493
-133.168
-131.846
-130.882
-130.58
-131.457
-133.533
-136.689
-140.828
-145.398
-149.716
-153.449
-156.368
-158.329
-159.395
-159.562
-158.797
-157.222
-154.979
-152.164
-148.866
-145.102
-140.86
-136.187
-131.159
-125.873
-120.439
-114.925
-109.369
-103.802
-98.244
-92.71
-87.21
-81.73
-76.246
-70.746
-65.221
-59.676
-54.116
-48.533
-42.913
-37.242
-31.5
-25.678
-19.77
-13.77
-7.677
-1.49
4.786
11.143
17.572
24.062
30.606
37.198
43.827
50.484
57.155
63.827
70.484
77.109
83.682
90.183
96.589
102.878
109.025
115.007
120.798
126.373
131.706
136.774
141.55
146.012
150.135
153.896
157.276
160.254
162.812
164.933
166.603
167.808
168.537
168.783
168.541
167.806
166.578
164.86
162.657
159.977
156.83
153.229
149.19
144.73
139.871
134.636
129.049
123.138
116.932
110.461
103.758
96.854
89.784
82.581
75.279
67.911
60.512
53.114
45.75
38.452
31.251
24.175
17.255
10.517
3.985
-2.315
-8.363
-14.139
-19.625
-24.806
-29.669
-34.202
-38.398
-42.248
-45.749
-48.898
-51.695
-54.141
-56.241
-57.998
-59.421
-60.519
-61.301
-61.78
-61.967
-61.875
-61.52
-60.914
-60.074
-59.014
-57.751
-56.3
-54.677
-52.899
-50.981
-48.94
-46.791
-44.551
-42.233
-39.854
-37.426
-34.965
-32.483
-29.994
-27.51
-25.044
-22.606
-20.209
-17.862
-15.577
-13.361
-11.224
-9.175
-7.22
-5.368
-3.626
-2
-0.497
0.876
2.115
3.212
4.162
4.961
5.603
6.084
6.401
6.549
6.527
6.33
5.959
5.41
4.684
3.781
2.701
1.446
0.02
-1.575
-3.332
-5.247
-7.313
-9.522
-11.867
-14.337
-16.924
-19.616
-22.402
-25.27
-28.206
-31.196
-34.225
-37.279
-40.342
-43.398
-46.431
-49.423
-52.359
-55.223
-57.998
-60.669
-63.219
-65.634
-67.899
-70.001
-71.928
-73.666
-75.207
-76.541
-77.662
-78.564
-79.246
-79.703
-79.937
-79.949
-79.743
-79.325
-78.701
-77.882
-76.878
-75.706
-74.383
-72.929
-71.365
-69.713
-67.998
-66.243
-64.474
-62.713
-60.981
-59.302
-57.699
-56.197
-54.823
-53.599
-52.546
-51.686
-51.035
-50.614
-50.437
-50.51
-50.835
-51.421
-52.278
-53.43
-54.898
-56.688
-58.804
-61.247
-64.008
-67.079
-70.436
-74.033
-77.821
-81.748
-85.769
-89.854
-93.966
-98.043
-102.01
-105.774
-109.245
-112.364
-115.09
-117.374
-119.192
-120.548
-121.478
-122.072
-122.431
-122.648
-122.82
-123.06
-123.497
-124.27
-125.545
-127.54
-130.412
-134.198
-138.773
-143.781
-148.743
-153.223
-156.738
-158.664
-158.52
-156.113
-151.737
-146.459
-141.713
-138.689
-138.282
-141.406
-148.862
-160.924
-176.744
-192.485
-202.128
-200.441
-184.043
-154.744
-116.615
-70.752
-15.612
58.289
161.687
298.564
468.697
658.166
843.409
1001.604
1107.397
1143.626
1108.396
1006.285
850.503
661.689
457.183
256.636
83.768
-45.762
-124.425
-155.638
-158.599
-153.335
-150.645
-153.282
-154.634
-146.764
-129.323
-106.264
-82.803
-63.553
-49.341
-39.354
-32.918
-29.195
-27.987
-28.916
-31.332
-35.126
-40.013
-45.218
-50.354
-54.98
-58.346
-60.35
-61.101
-60.556
-59.239
-58.004
-57.248
-57.329
-58.654
-61.171
-64.768
-69.319
-74.303
-79.131
-83.478
-87.116
-89.925
-91.956
-93.217
-93.718
-93.584
-92.944
-91.894
-90.501
-88.782
-86.745
-84.444
-81.959
-79.385
-76.796
-74.233
-71.72
-69.27
-66.889
-64.579
-62.322
-60.088
-57.859
-55.62
-53.365
-51.094
-48.8
-46.467
-44.077
-41.611
-39.047
-36.374
-33.582
-30.66
-27.605
-24.416
-21.095
-17.648
-14.08
-10.392
-6.587
-2.668
1.363
5.498
9.73
14.051
18.45
22.913
27.425
31.97
36.531
41.092
45.634
50.138
54.585
58.956
63.231
67.391
71.414
75.281
78.97
82.463
85.738
88.777
91.562
94.076
96.303
98.227
99.836
101.119
102.066
102.667
102.916
102.809
102.342
101.515
100.328
98.785
96.89
94.651
92.076
89.179
85.97
82.463
78.675
74.622
70.322
65.793
61.055
56.127
51.033
45.792
40.427
34.962
29.417
23.816
18.181
12.534
6.896
1.289
-4.267
-9.752
-15.148
-20.436
-25.6
-30.623
-35.491
-40.19
-44.708
-49.036
-53.165
-57.086
-60.796
-64.289
-67.562
-70.615
-73.446
-76.056
-78.448
-80.626
-82.592
-84.353
-85.915
-87.285
-88.472
-89.483
-90.329
-91.018
-91.56
-91.967
-92.248
-92.414
-92.478
-92.451
-92.344
-92.17
-91.941
-91.668
-91.364
-91.039
-90.704
-90.369
-90.044
-89.738
-89.458
-89.214
-89.011
-88.856
-88.756
-88.715
-88.738
-88.828
-88.989
-89.223
-89.532
-89.916
-90.377
-90.915
-91.53
-92.222
-92.989
-93.831
-94.746
-95.73
-96.782
-97.895
-99.067
-100.291
-101.56
-102.869
-104.21
-105.576
-106.958
-108.349
-109.74
-111.122
-112.487
-113.826
-115.128
-116.384
-117.586
-118.721
-119.782
-120.758
-121.64
-122.42
-123.089
-123.637
-124.058
-124.341
-124.479
-124.465
-124.291
-123.949
-123.433
-122.737
-121.858
-120.792
-119.538
-118.095
-116.463
-114.644
-112.642
-110.461
-108.108
-105.588
-102.91
-100.085
-97.124
-94.04
-90.846
-87.558
-84.195
-80.776
-77.323
-73.859
-70.406
-66.987
-63.627
-60.349
-57.176
-54.127
-51.22
-48.475
-45.912
-43.554
-41.423
-39.535
-37.907
-36.552
-35.485
-34.717
-34.253
-34.087
-34.215
-34.635
-35.355
-36.394
-37.762
-39.462
-41.492
-43.843
-46.499
-49.444
-52.636
-56.016
-59.526
-63.106
-66.712
-70.321
-73.886
-77.352
-80.651
-83.687
-86.387
-88.697
-90.554
-91.921
-92.804
-93.217
-93.224
-92.927
-92.403
-91.756
-91.12
-90.587
-90.266
-90.253
-90.676
-91.803
-93.837
-96.787
-100.428
-104.289
-107.849
-110.677
-112.229
-111.706
-108.525
-102.591
-94.687
-86.367
-79.036
-74.19
-73.446
-77.949
-88.713
-104.349
-119.746
-131.353
-136.981
-135.843
-131.096
-117.874
-84.011
-20.873
78.863
210.542
356.281
504.973
650.667
787.644
913.734
1014.635
1066.006
1055.119
979.366
849.813
689.245
512.896
331.474
156.147
-0.095
-119.555
-190.582
-213.421
-201.347
-174.787
-147.364
-125.044
-106.679
-87.143
-66.625
-47.827
-33.273
-25.923
-25.398
-29.197
-35.214
-40.891
-44.048
-43.912
-40.196
-33.006
-23.291
-12.051
-0.18
10.927
19.944
25.857
27.473
24.11
15.96
3.505
-12.33
-29.853
-47.415
-63.315
-75.458
-82.407
-83.499
-78.643
-68.57
-54.759
-38.912
-22.716
-7.88
4.4
13.355
18.714
20.731
20.101
18.085
15.772
13.891
12.965
13.296
14.966
18.076
22.571
27.778
33.18
38.585
43.807
48.874
53.843
58.539
62.821
66.89
70.888
74.868
78.917
82.949
86.888
90.798
94.726
98.656
102.581
106.466
110.271
114.024
117.75
121.456
125.158
128.85
132.526
136.195
139.859
143.515
147.154
150.761
154.314
157.797
161.192
164.485
167.659
170.698
173.584
176.298
178.822
181.141
183.242
185.107
186.722
188.07
189.136
189.908
190.373
190.522
190.345
189.834
188.983
187.785
186.24
184.345
182.101
179.51
176.576
173.304
169.703
165.784
161.557
157.039
152.243
147.187
141.889
136.368
130.644
124.739
118.671
112.464
106.138
99.716
93.22
86.673
80.098
73.516
66.95
60.422
53.951
47.56
41.265
35.087
29.041
23.143
17.408
11.851
6.481
1.311
-3.65
-8.395
-12.917
-17.211
-21.275
-25.106
-28.703
-32.068
-35.203
-38.108
-40.79
-43.251
-45.497
-47.534
-49.369
-51.009
-52.464
-53.741
-54.851
-55.803
-56.609
-57.279
-57.825
-58.257
-58.586
-58.825
-58.983
-59.073
-59.104
-59.087
-59.032
-58.949
-58.848
-58.737
-58.625
-58.519
-58.426
-58.352
-58.303
-58.284
-58.3
-58.355
-58.453
-58.598
-58.792
-59.038
-59.339
-59.694
-60.104
-60.569
-61.088
-61.66
-62.281
-62.949
-63.66
-64.411
-65.196
-66.012
-66.852
-67.71
-68.58
-69.454
-70.324
-71.184
-72.024
-72.836
-73.613
-74.346
-75.027
-75.649
-76.204
-76.684
-77.08
-77.386
-77.594
-77.693
-77.677
-77.538
-77.267
-76.859
-76.307
-75.605
-74.75
-73.736
-72.56
-71.22
-69.713
-68.038
-66.195
-64.183
-62.005
-59.665
-57.166
-54.515
-51.718
-48.785
-45.724
-42.548
-39.266
-35.891
-32.433
-28.908
-25.328
-21.708
-18.065
-14.417
-10.782
-7.185
-3.649
-0.198
3.145
6.355
9.408
12.281
14.954
17.41
19.633
21.606
23.311
24.728
25.843
26.642
27.117
27.256
27.053
26.502
25.605
24.375
22.818
20.937
18.724
16.162
13.241
9.962
6.33
2.351
-1.964
-6.595
-11.505
-16.627
-21.894
-27.247
-32.634
-38.017
-43.34
-48.524
-53.485
-58.123
-62.361
-66.153
-69.453
-72.216
-74.441
-76.145
-77.379
-78.281
-78.985
-79.626
-80.387
-81.403
-82.799
-84.768
-87.53
-91.257
-96.027
-101.654
-107.714
-113.818
-119.625
-124.763
-128.782
-131.157
-131.624
-130.692
-129.554
-129.47
-131.342
-135.783
-143.411
-154.986
-171.101
-189.248
-203.91
-210.04
-202.698
-182.823
-157.611
-128.447
-94.696
-50.298
22.192
130.405
275.804
456.559
651.111
835.529
986.256
1074.343
1086.059
1023.082
895.024
722.849
528.395
324.806
125.066
-56.842
-206.418
-306.259
-345.556
-324.561
-258.674
-173.959
-98.02
-56.214
-55.244
-85.994
-131.733
-169.122
-187.482
-188.769
-179.32
-170.186
-165.867
-164.046
-162.144
-157.133
-148.421
-137.825
-126.802
-116.354
-107.167
-99.573
-93.73
-89.694
-87.35
-86.452
-86.83
-88.384
-90.944
-94.297
-98.238
-102.53
-106.959
-111.328
-115.406
-119.005
-122.006
-124.326
-125.933
-126.821
-126.996
-126.491
-125.36
-123.659
-121.441
-118.76
-115.669
-112.241
-108.559
-104.708
-100.775
-96.815
-92.863
-88.939
-85.048
-81.185
-77.334
-73.47
-69.561
-65.582
-61.518
-57.356
-53.086
-48.695
-44.169
-39.496
-34.664
-29.669
-24.509
-19.185
-13.699
-8.059
-2.278
3.633
9.655
15.777
21.984
28.263
34.6
40.98
47.389
53.81
60.226
66.62
72.971
79.258
85.459
91.552
97.514
103.322
108.953
114.385
119.596
124.564
129.27
133.694
137.818
141.625
145.099
148.226
150.994
153.391
155.409
157.04
158.277
159.118
159.56
159.603
159.249
158.5
157.363
155.843
153.949
151.691
149.08
146.132
142.86
139.283
135.418
131.287
126.911
122.313
117.516
112.545
107.425
102.181
96.841
91.428
85.969
80.49
75.015
69.57
64.178
58.863
53.646
48.549
43.592
38.793
34.17
29.74
25.516
21.513
17.741
14.212
10.935
7.915
5.16
2.672
0.455
-1.491
-3.166
-4.575
-5.72
-6.607
-7.244
-7.639
-7.802
-7.744
-7.478
-7.016
-6.373
-5.563
-4.602
-3.506
-2.291
-0.973
0.431
1.904
3.429
4.991
6.574
8.161
9.738
11.291
12.805
14.267
15.666
16.99
18.229
19.374
20.415
21.345
22.159
22.85
23.415
23.85
24.153
24.323
24.361
24.268
24.045
23.697
23.228
22.641
21.943
21.139
20.237
19.244
18.169
17.019
15.804
14.533
13.216
11.863
10.483
9.087
7.684
6.284
4.896
3.53
2.195
0.9
-0.346
-1.534
-2.657
-3.705
-4.671
-5.547
-6.327
-7.003
-7.571
-8.024
-8.358
-8.568
-8.65
-8.6
-8.415
-8.093
-7.63
-7.027
-6.282
-5.395
-4.368
-3.203
-1.902
-0.468
1.096
2.783
4.588
6.504
8.525
10.643
12.848
15.13
17.477
19.877
22.317
24.783
27.257
29.722
32.157
34.546
36.868
39.104
41.232
43.234
45.093
46.793
48.319
49.655
50.783
51.685
52.348
52.756
52.901
52.768
52.348
51.634
50.63
49.34
47.767
45.907
43.746
41.275
38.497
35.415
32.04
28.39
24.485
20.366
16.097
11.738
7.35
2.984
-1.333
-5.554
-9.618
-13.453
-16.972
-20.106
-22.818
-25.051
-26.749
-27.923
-28.628
-28.965
-29.086
-29.078
-28.996
-28.937
-29.008
-29.273
-29.732
-30.39
-31.331
-32.768
-34.895
-37.742
-41.055
-44.514
-48.107
-51.5
-53.81
-54.246
-51.936
-47.529
-43.956
-42.012
-40.55
-36.766
-25.043
-6.021
14.528
30.482
33.246
20.523
-3.548
-31.658
-50.914
-45.656
-2.373
82.054
202.408
343.456
486.955
628.378
763.822
888.96
995.412
1058.053
1060.491
1001.347
891.196
758.331
620.207
478.046
331.575
176.304
21.97
-106.553
-192.098
-225.736
-212.635
-171.305
-119.866
-73.871
-42.813
-31.257
-37.232
-51.692
-67.489
-78.177
-82.642
-87.127
-94.904
-106.733
-121.154
-134.092
-144.158
-151.878
-157.831
-162.782
-166.729
-169.915
-173.352
-177.689
-183.146
-189.624
-196.741
-204.423
-212.921
-222.087
-231.434
-240.52
-248.905
-256.399
-263.052
-268.809
-273.553
-277.248
-279.9
-281.572
-282.393
-282.43
-281.698
-280.231
-278.053
-275.226
-271.847
-268.013
-263.823
-259.355
-254.657
-249.773
-244.739
-239.585
-234.332
-228.986
-223.535
-217.976
-212.316
-206.564
-200.738
-194.845
-188.879
-182.836
-176.715
-170.517
-164.25
-157.921
-151.535
-145.1
-138.628
-132.135
-125.638
-119.152
-112.688
-106.255
-99.862
-93.521
-87.242
-81.037
-74.913
-68.883
-62.958
-57.151
-51.475
-45.945
-40.572
-35.369
-30.351
-25.529
-20.919
-16.532
-12.381
-8.479
-4.837
-1.468
1.618
4.41
6.902
9.083
10.949
12.494
13.715
14.609
15.175
15.414
15.328
14.92
14.194
13.156
11.813
10.173
8.247
6.044
3.579
0.864
-2.084
-5.25
-8.615
-12.161
-15.869
-19.718
-23.686
-27.753
-31.895
-36.091
-40.317
-44.55
-48.767
-52.946
-57.065
-61.102
-65.037
-68.85
-72.521
-76.032
-79.367
-82.508
-85.441
-88.153
-90.63
-92.86
-94.835
-96.544
-97.981
-99.14
-100.015
-100.604
-100.905
-100.916
-100.638
-100.075
-99.229
-98.106
-96.713
-95.056
-93.146
-90.993
-88.609
-86.006
-83.197
-80.197
-77.021
-73.682
-70.199
-66.586
-62.861
-59.041
-55.142
-51.183
-47.18
-43.152
-39.115
-35.086
-31.082
-27.119
-23.213
-19.379
-15.632
-11.987
-8.459
-5.059
-1.803
1.3
4.237
6.999
9.577
11.963
14.149
16.132
17.904
19.464
20.806
21.93
22.834
23.518
23.982
24.228
24.26
24.08
23.695
23.108
22.328
21.362
20.216
18.9
17.423
15.793
14.023
12.122
10.103
7.979
5.762
3.467
1.109
-1.297
-3.736
-6.194
-8.656
-11.106
-13.53
-15.912
-18.238
-20.493
-22.662
-24.731
-26.684
-28.509
-30.191
-31.719
-33.082
-34.268
-35.269
-36.076
-36.683
-37.082
-37.27
-37.24
-36.99
-36.518
-35.825
-34.912
-33.782
-32.441
-30.896
-29.162
-27.252
-25.182
-22.967
-20.625
-18.174
-15.636
-13.03
-10.372
-7.68
-4.97
-2.263
0.415
3.04
5.595
8.059
10.415
12.648
14.734
16.661
18.425
20.015
21.428
22.647
23.639
24.379
24.852
25.044
24.954
24.586
23.939
23.036
21.921
20.634
19.229
17.743
16.194
14.63
13.085
11.609
10.28
9.142
8.253
7.685
7.452
7.546
7.932
8.494
9.179
9.973
10.633
10.946
10.712
9.64
7.798
5.302
1.793
-2.946
-8.628
-14.918
-20.953
-25.691
-29.151
-31.291
-31.281
-28.751
-23.946
-17.633
-11.979
-9.163
-9.904
-14.945
-25.487
-42.302
-63.719
-85.114
-100.985
-105.505
-98.707
-86.281
-67.812
-40.7
2.675
79.011
193.478
343.88
525.497
718.719
903.457
1061.377
1167.317
1203.542
1165.09
1052.866
881.073
676.735
462.032
261.529
100.446
-14.646
-82.552
-111.427
-123.894
-130.795
-135.475
-137.205
-126.205
-101.007
-68.179
-34.517
-7.303
10.517
20.136
22.615
18.662
9.736
-1.722
-12.671
-21.081
-26.414
-28.951
-28.996
-26.351
-21.154
-14.508
-8.118
-3.222
-0.269
0.779
0.126
-2.319
-6.659
-12.574
-19.381
-26.466
-33.405
-39.972
-46.132
-51.772
-56.731
-60.957
-64.463
-67.294
-69.518
-71.17
-72.235
-72.725
-72.664
-72.085
-71.061
-69.664
-67.968
-66.052
-63.969
-61.745
-59.407
-56.965
-54.423
-51.775
-49
-46.064
-42.949
-39.646
-36.146
-32.443
-28.523
-24.368
-19.966
-15.31
-10.399
-5.236
0.174
5.822
11.695
17.776
24.04
30.462
37.019
43.689
50.447
57.272
64.136
71.013
77.876
84.701
91.46
98.124
104.664
111.05
117.254
123.247
129.003
134.495
139.695
144.579
149.123
153.306
157.107
160.508
163.49
166.04
168.146
169.797
170.986
171.708
171.96
171.742
171.056
169.908
168.303
166.251
163.762
160.849
157.528
153.814
149.725
145.281
140.501
135.408
130.024
124.373
118.48
112.369
106.067
99.599
92.992
86.271
79.463
72.594
65.688
58.771
51.867
44.998
38.188
31.456
24.824
18.311
11.933
5.708
-0.349
-6.225
-11.906
-17.383
-22.644
-27.682
-32.488
-37.057
-41.382
-45.46
-49.288
-52.861
-56.18
-59.243
-62.049
-64.601
-66.898
-68.945
-70.743
-72.296
-73.61
-74.689
-75.539
-76.165
-76.576
-76.778
-76.778
-76.586
-76.209
-75.657
-74.939
-74.064
-73.042
-71.884
-70.599
-69.197
-67.689
-66.086
-64.399
-62.637
-60.813
-58.938
-57.022
-55.076
-53.113
-51.142
-49.177
-47.227
-45.303
-43.418
-41.58
-39.801
-38.09
-36.457
-34.91
-33.456
-32.104
-30.86
-29.729
-28.715
-27.824
-27.057
-26.416
-25.904
-25.519
-25.261
-25.128
-25.117
-25.222
-25.44
-25.763
-26.183
-26.693
-27.282
-27.943
-28.663
-29.431
-30.236
-31.063
-31.9
-32.731
-33.544
-34.321
-35.048
-35.71
-36.292
-36.78
-37.16
-37.419
-37.546
-37.527
-37.354
-37.018
-36.509
-35.822
-34.951
-33.893
-32.647
-31.214
-29.596
-27.799
-25.83
-23.7
-21.423
-19.011
-16.483
-13.856
-11.148
-8.382
-5.579
-2.759
0.055
2.841
5.575
8.23
10.779
13.192
15.443
17.505
19.352
20.959
22.304
23.374
24.155
24.634
24.794
24.605
24.045
23.097
21.749
19.995
17.838
15.292
12.385
9.169
5.696
2.015
-1.836
-5.829
-9.935
-14.114
-18.313
-22.459
-26.49
-30.355
-34.008
-37.399
-40.51
-43.366
-46.044
-48.687
-51.414
-54.304
-57.423
-60.851
-64.692
-69.057
-74.048
-79.708
-86.114
-93.468
-101.876
-111.268
-121.317
-131.352
-140.661
-148.721
-154.906
-158.356
-158.568
-155.587
-150.163
-143.979
-138.526
-134.784
-134.04
-137.766
-146.667
-158.754
-169.358
-173.323
-166.982
-152.158
-133.124
-108.429
-72.391
-14.736
76.373
201.725
353.551
520.927
687.586
837.705
958.53
1034.577
1052.154
1008.38
904.727
749.597
563.45
363.891
172.279
14.748
-98.058
-162.612
-186.439
-192.426
-193.76
-195.744
-198.291
-191.996
-174.671
-151.089
-126.453
-107.288
-95.971
-90.883
-90.376
-92.67
-95.98
-98.821
-99.62
-97.497
-92.682
-85.934
-78.172
-70.173
-62.568
-56.039
-51.297
-48.718
-48.275
-49.719
-52.639
-56.67
-61.566
-67.041
-72.794
-78.569
-84.1
-89.17
-93.661
-97.48
-100.559
-102.869
-104.372
-105.057
-104.972
-104.181
-102.754
-100.765
-98.271
-95.322
-91.993
-88.365
-84.525
-80.56
-76.523
-72.448
-68.358
-64.263
-60.17
-56.077
-51.964
-47.802
-43.569
-39.253
-34.844
-30.34
-25.729
-20.999
-16.138
-11.14
-6
-0.72
4.7
10.255
15.937
21.735
27.635
33.619
39.672
45.779
51.925
58.097
64.277
70.449
76.595
82.697
88.737
94.692
100.541
106.263
111.836
117.237
122.446
127.442
132.203
136.71
140.944
144.887
148.519
151.824
154.785
157.386
159.615
161.459
162.906
163.947
164.574
164.782
164.568
163.929
162.866
161.381
159.478
157.163
154.446
151.335
147.843
143.983
139.771
135.223
130.359
125.198
119.76
114.068
108.142
102.008
95.688
89.205
82.586
75.853
69.033
62.149
55.228
48.293
41.369
34.479
27.647
20.894
14.243
7.713
1.323
-4.908
-10.966
-16.834
-22.5
-27.952
-33.18
-38.176
-42.932
-47.444
-51.708
-55.721
-59.482
-62.991
-66.249
-69.258
-72.022
-74.546
-76.834
-78.894
-80.733
-82.359
-83.783
-85.015
-86.065
-86.947
-87.673
-88.257
-88.711
-89.052
-89.292
-89.448
-89.533
-89.562
-89.55
-89.51
-89.455
-89.398
-89.35
-89.322
-89.325
-89.368
-89.459
-89.607
-89.82
-90.103
-90.463
-90.906
-91.435
-92.054
-92.767
-93.575
-94.478
-95.478
-96.574
-97.762
-99.041
-100.406
-101.851
-103.371
-104.957
-106.602
-108.295
-110.026
-111.785
-113.559
-115.336
-117.106
-118.856
-120.573
-122.245
-123.861
-125.408
-126.876
-128.251
-129.523
-130.681
-131.713
-132.61
-133.362
-133.96
-134.395
-134.659
-134.744
-134.645
-134.356
-133.872
-133.19
-132.307
-131.222
-129.938
-128.456
-126.781
-124.919
-122.877
-120.665
-118.294
-115.777
-113.127
-110.359
-107.489
-104.534
-101.514
-98.449
-95.357
-92.261
-89.188
-86.162
-83.21
-80.359
-77.635
-75.065
-72.678
-70.5
-68.553
-66.858
-65.437
-64.31
-63.501
-63.032
-62.92
-63.184
-63.836
-64.889
-66.352
-68.228
-70.511
-73.194
-76.27
-79.735
-83.6
-87.871
-92.542
-97.607
-103.053
-108.854
-114.982
-121.393
-128.019
-134.794
-141.654
-148.54
-155.411
-162.222
-168.91
-175.4
-181.601
-187.424
-192.804
-197.671
-201.964
-205.677
-208.825
-211.474
-213.738
-215.697
-217.425
-219.03
-220.616
-222.294
-224.187
-226.359
-228.931
-232.164
-236.197
-241.007
-246.35
-251.627
-256.247
-259.819
-261.745
-261.221
-257.804
-251.517
-243.155
-234.442
-226.798
-221.212
-219.037
-221.648
-229.665
-241.111
-251.108
-254.251
-247.004
-231.682
-212.956
-190.741
-160.016
-107.802
-20.432
106.38
268.274
449.353
629.41
787.926
905.849
972.203
977.765
923.017
815.997
664.217
486.074
298.63
118.924
-29.743
-137.954
-203.623
-232.579
-244.171
-249.51
-252.346
-252.365
-241.847
-219.388
-190.277
-160.598
-136.7
-120.72
-111.518
-107.888
-108.651
-112.99
-119.272
-124.738
-127.812
-128.285
-126.436
-122.997
-118.271
-111.954
-104.646
-97.807
-92.296
-88.498
-86.446
-85.666
-85.982
-87.64
-90.458
-93.896
-97.535
-100.919
-103.765
-106.107
-107.888
-108.967
-109.32
-108.943
-107.861
-106.188
-104.005
-101.337
-98.232
-94.726
-90.861
-86.72
-82.386
-77.944
-73.482
-69.055
-64.695
-60.432
-56.279
-52.247
-48.34
-44.535
-40.803
-37.125
-33.487
-29.885
-26.312
-22.752
-19.182
-15.587
-11.949
-8.26
-4.515
-0.703
3.182
7.141
11.176
15.281
19.452
23.684
27.977
32.328
36.735
41.193
45.695
50.237
54.811
59.41
64.024
68.642
73.25
77.835
82.386
86.888
91.326
95.687
99.955
104.117
108.159
112.066
115.823
119.418
122.838
126.069
129.098
131.914
134.505
136.859
138.965
140.814
142.397
143.703
144.726
145.457
145.891
146.021
145.843
145.354
144.55
143.429
141.992
140.239
138.172
135.792
133.104
130.112
126.821
123.236
119.363
115.208
110.778
106.08
101.12
95.907
90.449
84.753
78.828
72.685
66.332
59.78
53.04
46.124
39.044
31.813
24.446
16.956
9.359
1.67
-6.095
-13.918
-21.783
-29.671
-37.566
-45.45
-53.303
-61.109
-68.849
-76.503
-84.055
-91.485
-98.774
-105.904
-112.857
-119.613
-126.154
-132.463
-138.52
-144.31
-149.816
-155.02
-159.909
-164.469
-168.686
-172.549
-176.048
-179.174
-181.922
-184.284
-186.258
-187.842
-189.036
-189.841
-190.26
-190.298
-189.961
-189.256
-188.192
-186.781
-185.033
-182.961
-180.58
-177.903
-174.948
-171.732
-168.271
-164.585
-160.692
-156.612
-152.366
-147.974
-143.456
-138.832
-134.122
-129.346
-124.522
-119.668
-114.801
-109.936
-105.087
-100.268
-95.49
-90.764
-86.098
-81.5
-76.974
-72.524
-68.155
-63.865
-59.655
-55.521
-51.461
-47.468
-43.538
-39.663
-35.835
-32.046
-28.285
-24.544
-20.81
-17.073
-13.32
-9.539
-5.719
-1.849
2.083
6.087
10.172
14.345
18.614
22.983
27.457
32.038
36.73
41.53
46.438
51.448
56.555
61.751
67.026
72.365
77.749
83.16
88.579
93.985
99.355
104.664
109.883
114.987
119.953
124.761
129.385
133.796
137.967
141.873
145.498
148.827
151.845
154.533
156.868
158.837
160.442
161.683
162.563
163.071
163.184
162.887
162.18
161.072
159.57
157.678
155.395
152.739
149.755
146.499
143.037
139.429
135.704
131.894
128.03
124.148
120.336
116.693
113.296
110.206
107.461
105.034
102.962
101.342
100.093
98.974
97.57
95.393
92.247
88.299
83.673
78.181
71.778
64.795
58.235
53.581
51.696
52.45
55.365
60.397
67.525
76.249
84.839
90.342
90.414
84.249
72.067
54.13
30.784
2.921
-26.734
-53.246
-71.541
-77.6
-68.297
-40.876
7.223
78.418
171.56
280.548
398.705
519.22
638.548
759.538
881.883
998.114
1095.623
1153.472
1152.528
1087.912
963.914
793.348
597.344
393.614
198.732
33.588
-86.524
-153.758
-166.56
-137.141
-85.347
-28.379
16.354
38.567
39.477
24.346
4.889
-7.908
-11.397
-7.539
-2.809
-2.207
-5.541
-10.259
-12.865
-11.935
-8.31
-3.24
2.064
6.967
11.145
14.084
15.458
15.302
13.819
11.332
8.121
4.341
0.189
-4.065
-8.171
-11.904
-15.074
-17.578
-19.332
-20.264
-20.346
-19.566
-17.934
-15.504
-12.345
-8.525
-4.117
0.815
6.214
12
18.085
24.378
30.778
37.218
43.649
50.033
56.344
62.566
68.691
74.726
80.692
86.6
92.457
98.266
104.024
109.738
115.416
121.067
126.696
132.31
137.907
143.488
149.055
154.603
160.126
165.616
171.062
176.455
181.789
187.057
192.253
197.37
202.401
207.337
212.172
216.895
221.495
225.962
230.281
234.44
238.426
242.225
245.824
249.207
252.362
255.275
257.932
260.321
262.428
264.242
265.75
266.942
267.808
268.338
268.526
268.363
267.846
266.969
265.732
264.132
262.17
259.847
257.168
254.135
250.755
247.036
242.986
238.615
233.934
228.957
223.698
218.172
212.396
206.387
200.163
193.744
187.148
180.396
173.508
166.505
159.408
152.238
145.015
137.761
130.495
123.238
116.009
108.826
101.707
94.668
87.726
80.895
74.19
67.622
61.204
54.946
48.859
42.95
37.227
31.697
26.366
21.238
16.317
11.605
7.104
2.816
-1.259
-5.124
-8.779
-12.227
-15.473
-18.52
-21.375
-24.042
-26.53
-28.844
-30.994
-32.986
-34.829
-36.533
-38.106
-39.557
-40.895
-42.13
-43.27
-44.324
-45.301
-46.209
-47.057
-47.854
-48.606
-49.323
-50.012
-50.682
-51.341
-51.997
-52.657
-53.329
-54.022
-54.741
-55.494
-56.286
-57.124
-58.012
-58.955
-59.958
-61.023
-62.155
-63.354
-64.623
-65.963
-67.374
-68.856
-70.408
-72.029
-73.716
-75.469
-77.284
-79.159
-81.091
-83.076
-85.112
-87.193
-89.316
-91.475
-93.665
-95.879
-98.11
-100.352
-102.596
-104.832
-107.054
-109.251
-111.414
-113.536
-115.606
-117.615
-119.555
-121.416
-123.191
-124.872
-126.451
-127.921
-129.278
-130.514
-131.627
-132.612
-133.466
-134.186
-134.769
-135.216
-135.525
-135.695
-135.728
-135.622
-135.382
-135.009
-134.506
-133.879
-133.133
-132.277
-131.32
-130.277
-129.161
-127.985
-126.765
-125.517
-124.257
-122.999
-121.755
-120.533
-119.344
-118.199
-117.114
-116.098
-115.162
-114.314
-113.561
-112.911
-112.374
-111.95
-111.632
-111.417
-111.304
-111.304
-111.441
-111.734
-112.191
-112.823
-113.63
-114.607
-115.75
-117.031
-118.395
-119.792
-121.164
-122.466
-123.677
-124.752
-125.633
-126.255
-126.526
-126.38
-125.783
-124.692
-123.093
-121.008
-118.483
-115.607
-112.52
-109.358
-106.276
-103.461
-101.069
-99.273
-98.235
-98.149
-99.327
-101.961
-106.027
-111.288
-117.2
-123.194
-128.859
-133.623
-136.602
-137.227
-135.45
-131.893
-128.244
-126.027
-126.061
-129.528
-137.629
-150.725
-168.425
-187.282
-201.968
-209.387
-205.839
-190.375
-162.014
-113.794
-44.736
45.876
158.4
283.962
422.697
574.831
729.052
873.575
983.455
1028.655
998.218
893.372
729.666
536.756
337.182
147.935
-14.087
-140.226
-225.882
-270.541
-285.638
-285.788
-280.05
-273.841
-265.797
-251.309
-231.75
-211.207
-193.534
-182.747
-179.194
-180.745
-185.678
-191.834
-197.041
-199.793
-199.274
-195.491
-189.164
-181.308
-172.779
-164.309
-156.69
-150.659
-146.602
-144.567
-144.354
-145.591
-147.954
-151.216
-155.116
-159.36
-163.7
-167.883
-171.685
-174.988
-177.697
-179.729
-181.051
-181.635
-181.473
-180.611
-179.116
-177.049
-174.48
-171.462
-168.039
-164.284
-160.278
-156.108
-151.869
-147.623
-143.405
-139.245
-135.153
-131.135
-127.187
-123.281
-119.381
-115.457
-111.486
-107.452
-103.341
-99.135
-94.811
-90.347
-85.726
-80.931
-75.956
-70.789
-65.427
-59.866
-54.109
-48.165
-42.045
-35.759
-29.316
-22.725
-15.999
-9.151
-2.196
4.85
11.969
19.143
26.349
33.563
40.761
47.915
54.998
61.984
68.842
75.544
82.06
88.361
94.417
100.199
105.68
110.832
115.628
120.045
124.058
127.647
130.791
133.473
135.678
137.393
138.609
139.32
139.519
139.207
138.383
137.053
135.222
132.899
130.097
126.827
123.108
118.958
114.397
109.45
104.141
98.497
92.545
86.317
79.843
73.153
66.28
59.257
52.115
44.889
37.61
30.31
23.02
15.771
8.593
1.512
-5.444
-12.251
-18.886
-25.328
-31.56
-37.563
-43.323
-48.828
-54.066
-59.03
-63.71
-68.104
-72.206
-76.017
-79.536
-82.766
-85.71
-88.374
-90.765
-92.89
-94.759
-96.382
-97.771
-98.938
-99.896
-100.658
-101.239
-101.653
-101.914
-102.038
-102.04
-101.932
-101.73
-101.447
-101.095
-100.687
-100.233
-99.746
-99.233
-98.706
-98.171
-97.639
-97.115
-96.606
-96.119
-95.658
-95.228
-94.834
-94.479
-94.166
-93.897
-93.676
-93.503
-93.38
-93.308
-93.287
-93.318
-93.4
-93.533
-93.715
-93.946
-94.224
-94.548
-94.917
-95.33
-95.785
-96.282
-96.818
-97.394
-98.007
-98.656
-99.34
-100.058
-100.806
-101.584
-102.389
-103.219
-104.07
-104.941
-105.826
-106.722
-107.623
-108.525
-109.421
-110.304
-111.168
-112.004
-112.807
-113.569
-114.281
-114.936
-115.526
-116.042
-116.475
-116.819
-117.063
-117.198
-117.216
-117.109
-116.87
-116.491
-115.964
-115.284
-114.445
-113.442
-112.27
-110.928
-109.413
-107.723
-105.859
-103.823
-101.62
-99.255
-96.735
-94.069
-91.272
-88.355
-85.337
-82.233
-79.062
-75.844
-72.6
-69.35
-66.113
-62.91
-59.76
-56.683
-53.702
-50.84
-48.119
-45.561
-43.187
-41.018
-39.072
-37.366
-35.906
-34.7
-33.755
-33.082
-32.702
-32.63
-32.875
-33.443
-34.337
-35.553
-37.075
-38.873
-40.893
-43.083
-45.395
-47.786
-50.23
-52.695
-55.133
-57.492
-59.704
-61.712
-63.477
-64.955
-66.092
-66.871
-67.325
-67.528
-67.615
-67.694
-67.821
-68.067
-68.499
-69.18
-70.196
-71.627
-73.537
-76.063
-79.405
-83.61
-88.643
-94.323
-100.131
-105.431
-109.577
-111.7
-110.919
-106.996
-99.987
-90.183
-79.023
-68.34
-59.791
-55.671
-56.383
-59.237
-62.21
-64.604
-68.842
-79.791
-96.564
-108.674
-97.848
-47.922
46.322
176.403
324.067
477.264
630.062
776.869
910.052
1007.913
1048.12
1023.207
937.927
814.648
675.982
528.092
374.355
215.469
59.282
-69.406
-153.461
-187.794
-180.199
-155.051
-129.819
-111.667
-101.48
-92.13
-81.282
-71.24
-64.071
-62.85
-67.65
-75.917
-85.432
-93.829
-99.181
-100.926
-99.142
-94.337
-87.562
-79.821
-71.914
-64.655
-58.75
-54.543
-52.122
-51.374
-51.988
-53.683
-56.23
-59.386
-62.919
-66.632
-70.335
-73.828
-76.927
-79.482
-81.387
-82.57
-82.999
-82.653
-81.528
-79.667
-77.134
-73.994
-70.312
-66.14
-61.525
-56.536
-51.257
-45.781
-40.206
-34.601
-29.012
-23.476
-18.017
-12.648
-7.375
-2.184
2.952
8.046
13.108
18.142
23.147
28.13
33.103
38.075
43.053
48.044
53.047
58.065
63.097
68.138
73.179
78.209
83.215
88.184
93.108
97.977
102.783
107.516
112.166
116.725
121.183
125.53
129.753
133.841
137.779
141.554
145.154
148.563
151.769
154.758
157.517
160.034
162.295
164.289
166.003
167.428
168.553
169.369
169.869
170.046
169.895
169.412
168.595
167.445
165.962
164.149
162.011
159.552
156.779
153.701
150.327
146.668
142.735
138.541
134.1
129.429
124.544
119.463
114.205
108.789
103.235
97.564
91.798
85.957
80.063
74.137
68.203
62.28
56.391
50.555
44.793
39.124
33.565
28.134
22.846
17.716
12.757
7.98
3.396
-0.987
-5.159
-9.115
-12.849
-16.358
-19.637
-22.686
-25.504
-28.092
-30.452
-32.587
-34.501
-36.198
-37.686
-38.971
-40.061
-40.965
-41.691
-42.249
-42.65
-42.906
-43.025
-43.021
-42.905
-42.686
-42.378
-41.989
-41.531
-41.013
-40.444
-39.834
-39.191
-38.521
-37.834
-37.135
-36.432
-35.729
-35.034
-34.35
-33.682
-33.035
-32.412
-31.817
-31.253
-30.722
-30.228
-29.772
-29.357
-28.984
-28.655
-28.371
-28.133
-27.941
-27.795
-27.698
-27.648
-27.648
-27.696
-27.794
-27.942
-28.143
-28.396
-28.702
-29.062
-29.477
-29.946
-30.471
-31.051
-31.685
-32.373
-33.113
-33.905
-34.746
-35.634
-36.567
-37.539
-38.548
-39.588
-40.653
-41.738
-42.834
-43.936
-45.034
-46.123
-47.193
-48.235
-49.242
-50.202
-51.107
-51.947
-52.711
-53.39
-53.973
-54.45
-54.811
-55.049
-55.156
-55.123
-54.945
-54.616
-54.131
-53.488
-52.685
-51.721
-50.596
-49.313
-47.876
-46.29
-44.563
-42.705
-40.727
-38.643
-36.471
-34.228
-31.933
-29.606
-27.269
-24.943
-22.651
-20.413
-18.251
-16.185
-14.237
-12.433
-10.797
-9.351
-8.115
-7.109
-6.35
-5.855
-5.635
-5.693
-6.031
-6.652
-7.562
-8.779
-10.315
-12.171
-14.347
-16.837
-19.626
-22.696
-26.017
-29.533
-33.195
-36.953
-40.766
-44.607
-48.444
-52.223
-55.882
-59.34
-62.526
-65.393
-67.891
-69.962
-71.589
-72.771
-73.558
-74.049
-74.31
-74.387
-74.341
-74.229
-74.147
-74.237
-74.586
-75.301
-76.563
-78.445
-80.941
-83.916
-86.904
-89.322
-90.693
-90.486
-88.101
-83.187
-75.72
-66.248
-56.066
-46.799
-39.69
-35.503
-35.364
-40.26
-49.875
-62.784
-74.907
-79.636
-73.428
-54.778
-23.681
16.545
67.749
134.147
219.357
328.953
460.796
608.772
763.54
906.675
1020.865
1088.26
1092.662
1032.97
915.355
751.134
560.506
360.316
168.359
8.178
-104.768
-164.483
-175.974
-159.35
-135.213
-114.108
-99.164
-85.89
-68.727
-49.145
-30.713
-16.866
-10.968
-13.153
-21.939
-35.609
-51.16
-65.424
-76.851
-84.935
-89.721
-91.582
-90.475
-86.547
-80.879
-75.082
-70.264
-66.9
-65.03
-64.481
-65.37
-67.803
-71.486
-75.837
-80.322
-84.6
-88.493
-91.935
-94.795
-96.925
-98.269
-98.857
-98.749
-97.992
-96.622
-94.655
-92.116
-89.056
-85.528
-81.591
-77.318
-72.783
-68.068
-63.258
-58.414
-53.579
-48.789
-44.065
-39.418
-34.851
-30.35
-25.896
-21.479
-17.089
-12.718
-8.357
-3.99
0.399
4.822
9.289
13.811
18.393
23.043
27.766
32.56
37.425
42.355
47.344
52.388
57.481
62.618
67.793
72.997
78.224
83.463
88.705
93.938
99.149
104.321
109.438
114.482
119.434
124.274
128.982
133.536
137.916
142.099
146.066
149.796
153.267
156.461
159.358
161.94
164.19
166.092
167.632
168.796
169.574
169.956
169.934
169.502
168.658
167.399
165.726
163.641
161.15
158.259
154.977
151.314
147.284
142.902
138.187
133.157
127.834
122.24
116.4
110.339
104.085
97.662
91.1
84.426
77.669
70.855
64.015
57.175
50.363
43.605
36.927
30.354
23.909
17.614
11.489
5.554
-0.174
-5.68
-10.949
-15.97
-20.732
-25.227
-29.447
-33.39
-37.051
-40.43
-43.527
-46.346
-48.892
-51.169
-53.187
-54.953
-56.479
-57.776
-58.855
-59.73
-60.415
-60.925
-61.274
-61.477
-61.549
-61.507
-61.364
-61.137
-60.839
-60.484
-60.086
-59.657
-59.21
-58.755
-58.302
-57.862
-57.443
-57.053
-56.698
-56.386
-56.12
-55.906
-55.747
-55.645
-55.601
-55.616
-55.691
-55.823
-56.012
-56.256
-56.552
-56.896
-57.286
-57.718
-58.189
-58.693
-59.227
-59.788
-60.37
-60.969
-61.583
-62.207
-62.839
-63.475
-64.113
-64.75
-65.384
-66.012
-66.632
-67.241
-67.838
-68.419
-68.982
-69.525
-70.045
-70.54
-71.008
-71.447
-71.855
-72.229
-72.566
-72.864
-73.12
-73.332
-73.494
-73.604
-73.658
-73.651
-73.58
-73.442
-73.231
-72.942
-72.572
-72.114
-71.564
-70.916
-70.166
-69.307
-68.337
-67.25
-66.045
-64.719
-63.271
-61.7
-60.008
-58.196
-56.266
-54.223
-52.07
-49.812
-47.457
-45.014
-42.491
-39.898
-37.249
-34.557
-31.841
-29.119
-26.41
-23.735
-21.115
-18.57
-16.125
-13.8
-11.611
-9.579
-7.72
-6.056
-4.609
-3.4
-2.446
-1.764
-1.37
-1.274
-1.491
-2.024
-2.869
-4.024
-5.487
-7.265
-9.38
-11.845
-14.661
-17.827
-21.335
-25.166
-29.299
-33.694
-38.283
-43.003
-47.789
-52.59
-57.371
-62.087
-66.673
-71.053
-75.126
-78.808
-82.038
-84.759
-86.933
-88.555
-89.646
-90.273
-90.55
-90.596
-90.533
-90.493
-90.605
-91.005
-91.819
-93.228
-95.483
-98.745
-103.043
-108.185
-113.706
-119.068
-123.761
-127.148
-128.448
-127.064
-122.793
-116.189
-108.577
-101.492
-96.335
-94.333
-96.639
-104.056
-116.417
-131.823
-146.9
-157.524
-159.202
-147.654
-118.618
-67.745
6.651
101.887
213.536
335.656
464.723
602.145
746.593
891.477
1022.203
1117.144
1156.395
1127.291
1029.651
871.688
668.774
444.043
220.361
23.881
-122.9
-213.511
-250.172
-244.859
-215.056
-170.46
-121.095
-79.637
-54.333
-52.404
-72.014
-98.247
-118.173
-124.317
-116.604
-104.64
-94.914
-88.208
-83.668
-78.439
-72.122
-66.746
-63.204
-61.495
-61.54
-63.149
-66.104
-69.933
-73.506
-75.795
-76.733
-77.038
-77.306
-77.764
-78.406
-79.142
-80.154
-81.626
-83.384
-84.961
-85.939
-86.11
-85.453
-84.08
-82.052
-79.382
-76.145
-72.472
-68.495
-64.315
-60.001
-55.583
-51.115
-46.679
-42.343
-38.162
-34.176
-30.398
-26.828
-23.462
-20.272
-17.225
-14.294
-11.459
-8.702
-6.01
-3.363
-0.74
1.877
4.508
7.174
9.899
12.704
15.607
18.619
21.747
24.996
28.367
31.863
35.488
39.243
43.129
47.146
51.29
55.56
59.948
64.446
69.041
73.716
78.456
83.241
88.052
92.867
97.663
102.416
107.103
111.698
116.178
120.515
124.684
128.66
132.417
135.932
139.182
142.144
144.798
147.124
149.106
150.729
151.979
152.846
153.32
153.396
153.068
152.337
151.202
149.666
147.736
145.42
142.729
139.677
136.278
132.552
128.517
124.194
119.605
114.774
109.724
104.482
99.072
93.519
87.851
82.093
76.27
70.408
64.532
58.664
52.828
47.045
41.335
35.717
30.207
24.822
19.576
14.482
9.55
4.79
0.209
-4.187
-8.394
-12.409
-16.233
-19.865
-23.308
-26.566
-29.642
-32.543
-35.274
-37.842
-40.254
-42.518
-44.642
-46.635
-48.504
-50.259
-51.907
-53.456
-54.915
-56.289
-57.585
-58.81
-59.968
-61.065
-62.104
-63.088
-64.021
-64.904
-65.739
-66.527
-67.268
-67.962
-68.607
-69.203
-69.747
-70.237
-70.671
-71.047
-71.364
-71.619
-71.812
-71.941
-72.006
-72.008
-71.946
-71.823
-71.639
-71.398
-71.102
-70.756
-70.363
-69.931
-69.464
-68.97
-68.456
-67.93
-67.401
-66.877
-66.368
-65.883
-65.432
-65.025
-64.673
-64.383
-64.168
-64.036
-63.995
-64.055
-64.222
-64.504
-64.904
-65.428
-66.078
-66.856
-67.762
-68.795
-69.952
-71.231
-72.625
-74.128
-75.733
-77.429
-79.205
-81.05
-82.951
-84.893
-86.862
-88.842
-90.818
-92.772
-94.686
-96.545
-98.331
-100.025
-101.61
-103.069
-104.384
-105.542
-106.527
-107.325
-107.924
-108.314
-108.485
-108.433
-108.151
-107.638
-106.891
-105.913
-104.708
-103.282
-101.644
-99.803
-97.774
-95.573
-93.219
-90.735
-88.142
-85.464
-82.729
-79.962
-77.192
-74.442
-71.738
-69.105
-66.568
-64.157
-61.898
-59.818
-57.942
-56.29
-54.886
-53.752
-52.899
-52.335
-52.065
-52.093
-52.428
-53.09
-54.091
-55.435
-57.127
-59.164
-61.534
-64.224
-67.201
-70.417
-73.822
-77.371
-81.021
-84.748
-88.512
-92.26
-95.934
-99.456
-102.758
-105.791
-108.491
-110.801
-112.711
-114.232
-115.418
-116.376
-117.153
-117.791
-118.363
-118.93
-119.606
-120.521
-121.73
-123.331
-125.516
-128.38
-131.943
-136.048
-140.111
-143.491
-145.707
-146.159
-144.203
-139.51
-132.032
-122.377
-112.251
-103.436
-97.193
-94.926
-98.075
-107.339
-122.591
-140.911
-156.166
-162.648
-156.547
-138.525
-111.516
-75.943
-29.318
37.77
134.468
264.017
425.199
604.475
781.884
935.598
1041.456
1081.578
1046.048
935.616
759.627
536.062
292.091
53.835
-149.74
-294.197
-374.351
-392.474
-361.299
-304.99
-237.804
-174.087
-129.731
-105.364
-100.693
-109.456
-114.63
-110.592
-97.698
-79.656
-67.664
-66.036
-72.779
-85.653
-99.917
-112.458
-123.025
-130.929
-135.735
-137.661
-136.969
-134.102
-129.963
-125.65
-121.844
-119.191
-118.166
-118.726
-120.681
-123.759
-127.428
-131.065
-134.298
-136.867
-138.631
-139.653
-139.957
-139.562
-138.565
-137.078
-135.173
-132.898
-130.267
-127.263
-123.918
-120.3
-116.487
-112.573
-108.618
-104.655
-100.71
-96.802
-92.938
-89.124
-85.348
-81.589
-77.836
-74.087
-70.343
-66.604
-62.862
-59.101
-55.303
-51.45
-47.526
-43.524
-39.435
-35.253
-30.977
-26.607
-22.146
-17.602
-12.979
-8.28
-3.508
1.333
6.237
11.197
16.203
21.246
26.316
31.399
36.481
41.546
46.578
51.561
56.478
61.31
66.039
70.647
75.115
79.423
83.554
87.487
91.204
94.687
97.919
100.881
103.559
105.937
108.002
109.741
111.145
112.205
112.913
113.265
113.257
112.886
112.154
111.063
109.616
107.819
105.681
103.212
100.423
97.329
93.946
90.291
86.382
82.239
77.884
73.338
68.626
63.77
58.795
53.726
48.59
43.41
38.213
33.025
27.87
22.773
17.758
12.848
8.066
3.433
-1.029
-5.303
-9.369
-13.211
-16.813
-20.162
-23.244
-26.05
-28.569
-30.796
-32.724
-34.349
-35.669
-36.683
-37.393
-37.801
-37.911
-37.729
-37.261
-36.516
-35.502
-34.231
-32.713
-30.96
-28.987
-26.805
-24.43
-21.875
-19.156
-16.288
-13.287
-10.169
-6.949
-3.643
-0.268
3.16
6.627
10.115
13.611
17.101
20.569
24.002
27.389
30.716
33.973
37.149
40.235
43.221
46.099
48.863
51.505
54.02
56.403
58.65
60.758
62.725
64.547
66.224
67.756
69.142
70.383
71.48
72.435
73.25
73.929
74.475
74.893
75.188
75.365
75.432
75.393
75.258
75.033
74.726
74.345
73.899
73.397
72.848
72.261
71.646
71.014
70.374
69.737
69.112
68.509
67.939
67.41
66.932
66.514
66.163
65.89
65.701
65.604
65.607
65.716
65.939
66.281
66.749
67.345
68.074
68.938
69.94
71.081
72.36
73.777
75.33
77.017
78.834
80.777
82.84
85.014
87.29
89.658
92.108
94.629
97.207
99.828
102.478
105.143
107.807
110.456
113.074
115.642
118.143
120.56
122.874
125.068
127.119
129.005
130.701
132.183
133.426
134.412
135.119
135.532
135.637
135.423
134.882
134.015
132.817
131.287
129.421
127.215
124.67
121.802
118.629
115.178
111.48
107.55
103.407
99.061
94.511
89.76
84.808
79.641
74.259
68.671
62.91
57.049
51.156
45.287
39.466
33.682
27.962
22.381
17.037
12.062
7.567
3.58
0.189
-2.441
-4.269
-5.315
-5.826
-6.358
-7.239
-8.495
-10.094
-11.862
-13.611
-15.323
-16.491
-16.047
-13.386
-8.253
-0.843
7.934
17.426
27.422
37.074
44.956
49.719
49.768
44.357
34.109
19.117
-0.971
-25.584
-53.832
-82.325
-104.412
-116.738
-118.43
-109.998
-95.718
-71.912
-27.741
43.835
148.665
281.727
425.697
568.395
703.055
826.299
937.897
1030.726
1087.604
1090.828
1032.604
913.345
744.034
548.197
345.918
159.679
15.786
-77.034
-118.382
-119.03
-105.033
-91.207
-83.271
-81.199
-75.732
-64.605
-51.856
-41.053
-36.913
-40.423
-48.941
-60.233
-71.997
-82.087
-89.161
-92.454
-91.904
-88.176
-82.332
-75.383
-68.175
-61.544
-56.206
-52.551
-50.698
-50.533
-51.778
-54.17
-57.498
-61.531
-66.041
-70.869
-75.854
-80.834
-85.66
-90.149
-94.156
-97.598
-100.419
-102.59
-104.105
-104.977
-105.243
-104.971
-104.223
-103.051
-101.51
-99.644
-97.515
-95.199
-92.772
-90.31
-87.867
-85.474
-83.151
-80.905
-78.735
-76.629
-74.562
-72.505
-70.431
-68.324
-66.17
-63.958
-61.672
-59.297
-56.816
-54.216
-51.487
-48.622
-45.617
-42.47
-39.181
-35.758
-32.206
-28.539
-24.763
-20.89
-16.926
-12.883
-8.77
-4.599
-0.384
3.863
8.127
12.389
16.633
20.836
24.981
29.046
33.01
36.852
40.551
44.087
47.44
50.59
53.517
56.205
58.636
60.794
62.664
64.233
65.489
66.422
67.025
67.289
67.212
66.791
66.023
64.911
63.457
61.665
59.54
57.09
54.325
51.256
47.894
44.256
40.356
36.213
31.847
27.276
22.522
17.607
12.552
7.38
2.114
-3.224
-8.611
-14.024
-19.441
-24.841
-30.202
-35.504
-40.728
-45.855
-50.868
-55.751
-60.491
-65.073
-69.485
-73.717
-77.758
-81.6
-85.235
-88.658
-91.863
-94.847
-97.608
-100.145
-102.46
-104.553
-106.429
-108.091
-109.544
-110.793
-111.846
-112.709
-113.39
-113.897
-114.241
-114.429
-114.473
-114.383
-114.17
-113.843
-113.414
-112.892
-112.287
-111.608
-110.865
-110.066
-109.219
-108.334
-107.419
-106.481
-105.528
-104.567
-103.606
-102.649
-101.704
-100.775
-99.867
-98.984
-98.132
-97.315
-96.538
-95.804
-95.118
-94.483
-93.904
-93.384
-92.924
-92.528
-92.196
-91.929
-91.728
-91.593
-91.526
-91.528
-91.6
-91.742
-91.956
-92.243
-92.604
-93.039
-93.548
-94.13
-94.785
-95.515
-96.318
-97.194
-98.144
-99.165
-100.258
-101.42
-102.649
-103.941
-105.289
-106.687
-108.129
-109.606
-111.11
-112.63
-114.158
-115.686
-117.208
-118.718
-120.207
-121.667
-123.091
-124.472
-125.802
-127.069
-128.258
-129.354
-130.343
-131.216
-131.962
-132.57
-133.028
-133.322
-133.446
-133.394
-133.158
-132.726
-132.076
-131.186
-130.046
-128.665
-127.06
-125.244
-123.228
-121.023
-118.653
-116.15
-113.533
-110.802
-107.934
-104.901
-101.697
-98.334
-94.847
-91.269
-87.613
-83.868
-80.022
-76.08
-72.049
-67.925
-63.677
-59.262
-54.673
-49.964
-45.237
-40.597
-36.112
-31.822
-27.745
-23.91
-20.364
-17.17
-14.378
-12.015
-10.115
-8.727
-7.937
-7.851
-8.519
-9.921
-11.981
-14.624
-17.805
-21.5
-25.692
-30.335
-35.367
-40.71
-46.28
-52.019
-57.846
-63.659
-69.336
-74.718
-79.689
-84.178
-88.144
-91.543
-94.332
-96.5
-98.044
-99.017
-99.484
-99.49
-99.141
-98.602
-98.06
-97.639
-97.452
-97.622
-98.325
-99.947
-102.785
-106.783
-111.669
-117.176
-123.05
-128.786
-133.829
-137.254
-137.946
-137.329
-137.265
-137.332
-138.666
-139.22
-136.535
-136.963
-142.849
-154.961
-175.803
-196.722
-213.964
-228.499
-233.629
-223.208
-184.964
-106.622
12.355
162.652
327.033
494.24
658.161
811.548
946.546
1043.157
1078.438
1043.594
939.215
778.322
585.397
380.541
183.755
17.478
-105.318
-178.712
-204.633
-196.395
-167.648
-127.75
-86.252
-51.962
-31.619
-30.73
-47.522
-71.276
-92.279
-104.859
-108.534
-109.464
-111.912
-115.754
-119.589
-120.596
-117.593
-111.868
-104.832
-97.663
-91.241
-86.016
-82.206
-79.968
-79.246
-79.757
-81.287
-83.688
-86.776
-90.387
-94.362
-98.513
-102.693
-106.748
-110.475
-113.716
-116.361
-118.33
-119.607
-120.181
-120.046
-119.237
-117.808
-115.813
-113.314
-110.358
-106.986
-103.263
-99.264
-95.071
-90.777
-86.444
-82.112
-77.814
-73.563
-69.365
-65.223
-61.121
-57.031
-52.936
-48.824
-44.684
-40.515
-36.302
-32.032
-27.691
-23.264
-18.744
-14.125
-9.402
-4.572
0.361
5.394
10.516
15.717
20.986
26.315
31.694
37.114
42.563
48.03
53.502
58.966
64.408
69.81
75.156
80.427
85.604
90.671
95.608
100.394
105.012
109.441
113.661
117.653
121.398
124.875
128.066
130.953
133.52
135.751
137.632
139.151
140.296
141.059
141.432
141.41
140.99
140.169
138.95
137.333
135.325
132.931
130.159
127.02
123.525
119.687
115.522
111.045
106.272
101.223
95.916
90.371
84.61
78.654
72.526
66.25
59.849
53.348
46.771
40.143
33.488
26.83
20.194
13.601
7.074
0.635
-5.695
-11.897
-17.952
-23.844
-29.556
-35.074
-40.385
-45.478
-50.342
-54.97
-59.352
-63.484
-67.358
-70.972
-74.322
-77.405
-80.221
-82.771
-85.055
-87.076
-88.839
-90.347
-91.607
-92.626
-93.411
-93.97
-94.313
-94.45
-94.391
-94.147
-93.728
-93.148
-92.417
-91.547
-90.549
-89.436
-88.217
-86.905
-85.507
-84.035
-82.498
-80.905
-79.265
-77.585
-75.874
-74.14
-72.39
-70.631
-68.868
-67.107
-65.354
-63.613
-61.887
-60.181
-58.496
-56.835
-55.2
-53.593
-52.014
-50.463
-48.941
-47.447
-45.981
-44.543
-43.13
-41.744
-40.382
-39.045
-37.731
-36.442
-35.176
-33.934
-32.715
-31.52
-30.348
-29.199
-28.073
-26.971
-25.89
-24.832
-23.795
-22.778
-21.78
-20.8
-19.837
-18.889
-17.954
-17.029
-16.111
-15.198
-14.286
-13.371
-12.449
-11.515
-10.563
-9.588
-8.582
-7.538
-6.447
-5.299
-4.086
-2.797
-1.423
0.048
1.627
3.324
5.15
7.116
9.231
11.507
13.951
16.574
19.381
22.38
25.575
28.971
32.572
36.377
40.388
44.603
49.017
53.628
58.428
63.409
68.56
73.871
79.326
84.908
90.598
96.373
102.206
108.07
113.936
119.773
125.549
131.231
136.786
142.187
147.403
152.404
157.16
161.637
165.806
169.638
173.106
176.185
178.855
181.091
182.879
184.214
185.089
185.495
185.418
184.831
183.715
182.062
179.866
177.133
173.876
170.111
165.876
161.233
156.244
150.975
145.484
139.814
134.017
128.166
122.346
116.667
111.223
106.086
101.317
96.959
93.029
89.517
86.371
83.495
80.777
78.101
75.343
72.383
69.091
65.342
60.956
55.684
49.361
41.972
33.714
25.041
16.468
8.47
1.64
-3.267
-5.644
-5.285
-2.704
0.859
3.968
5.366
4.016
-1.117
-10.804
-24.878
-41.53
-57.541
-68.919
-71.388
-61.018
-33.766
14.759
86.357
178.037
284.92
400.726
521.29
650.157
789.214
931.84
1065.243
1164.928
1203.356
1169.2
1059.981
884.828
672.451
447.883
239.702
81.116
-18.635
-60.677
-59.051
-45.373
-36.127
-36.204
-44.086
-47.121
-41.277
-31.003
-20.533
-15.748
-18.533
-26.355
-36.797
-47.646
-56.885
-63.132
-65.791
-64.86
-60.912
-55.053
-48.274
-41.307
-34.981
-30.059
-26.921
-25.713
-26.32
-28.399
-31.678
-35.931
-40.89
-46.298
-51.905
-57.474
-62.789
-67.655
-71.917
-75.46
-78.203
-80.104
-81.153
-81.355
-80.756
-79.429
-77.443
-74.874
-71.791
-68.26
-64.367
-60.214
-55.902
-51.54
-47.205
-42.949
-38.812
-34.82
-30.987
-27.317
-23.796
-20.398
-17.108
-13.914
-10.808
-7.786
-4.836
-1.942
0.911
3.737
6.548
9.351
12.153
14.96
17.775
20.596
23.419
26.24
29.054
31.86
34.656
37.44
40.211
42.963
45.691
48.392
51.058
53.679
56.245
58.743
61.161
63.484
65.7
67.791
69.744
71.541
73.167
74.605
75.839
76.852
77.628
78.152
78.409
78.386
78.069
77.448
76.51
75.248
73.654
71.721
69.446
66.824
63.856
60.542
56.885
52.889
48.561
43.908
38.94
33.671
28.113
22.282
16.195
9.871
3.33
-3.408
-10.32
-17.382
-24.571
-31.861
-39.229
-46.647
-54.091
-61.535
-68.955
-76.325
-83.621
-90.821
-97.9
-104.837
-111.612
-118.204
-124.596
-130.77
-136.71
-142.404
-147.839
-153.004
-157.891
-162.492
-166.802
-170.817
-174.533
-177.951
-181.07
-183.894
-186.425
-188.669
-190.632
-192.324
-193.752
-194.926
-195.859
-196.561
-197.046
-197.326
-197.416
-197.331
-197.084
-196.691
-196.167
-195.529
-194.792
-193.971
-193.082
-192.138
-191.154
-190.144
-189.12
-188.094
-187.077
-186.081
-185.115
-184.188
-183.309
-182.484
-181.721
-181.025
-180.4
-179.851
-179.38
-178.989
-178.68
-178.454
-178.311
-178.25
-178.27
-178.369
-178.545
-178.793
-179.109
-179.49
-179.928
-180.417
-180.952
-181.525
-182.128
-182.755
-183.397
-184.048
-184.698
-185.34
-185.967
-186.57
-187.142
-187.675
-188.161
-188.593
-188.965
-189.269
-189.498
-189.645
-189.704
-189.668
-189.531
-189.284
-188.922
-188.437
-187.824
-187.076
-186.189
-185.156
-183.974
-182.639
-181.148
-179.497
-177.683
-175.706
-173.562
-171.251
-168.772
-166.127
-163.314
-160.336
-157.195
-153.89
-150.427
-146.807
-143.033
-139.108
-135.036
-130.823
-126.472
-121.992
-117.389
-112.671
-107.849
-102.932
-97.933
-92.865
-87.74
-82.572
-77.375
-72.166
-66.958
-61.769
-56.615
-51.515
-46.488
-41.557
-36.74
-32.06
-27.537
-23.191
-19.044
-15.114
-11.418
-7.97
-4.788
-1.884
0.722
3.013
4.975
6.596
7.864
8.77
9.308
9.471
9.268
8.705
7.79
6.523
4.897
2.904
0.547
-2.164
-5.223
-8.606
-12.291
-16.243
-20.402
-24.707
-29.104
-33.536
-37.969
-42.363
-46.66
-50.791
-54.679
-58.242
-61.431
-64.199
-66.49
-68.296
-69.638
-70.577
-71.228
-71.68
-72.003
-72.307
-72.713
-73.346
-74.342
-75.772
-77.745
-80.493
-84.153
-88.716
-93.959
-99.358
-104.401
-108.745
-111.869
-113.054
-111.789
-107.885
-101.984
-95.469
-89.4
-84.728
-82.676
-84.448
-91.161
-101.401
-110.269
-113.208
-107.852
-96.865
-86.085
-74.86
-53.738
-7.18
77.743
201.926
352.187
508.854
660.681
801.687
928.864
1038.068
1106.961
1111.866
1040.278
888.206
678.066
446.08
223.473
42.787
-79.842
-149.929
-176.134
-176.57
-167.918
-149.855
-125.332
-98.218
-70.28
-54.574
-55.548
-66.189
-82.073
-93.971
-97.856
-99.492
-100.888
-102.896
-105.596
-105.573
-101.731
-95.229
-87.03
-78.456
-70.622
-64.07
-59.123
-56.028
-54.715
-54.825
-56.104
-58.349
-61.313
-64.789
-68.578
-72.442
-76.192
-79.677
-82.703
-85.11
-86.798
-87.689
-87.758
-87.013
-85.471
-83.175
-80.191
-76.584
-72.417
-67.749
-62.637
-57.152
-51.38
-45.407
-39.325
-33.196
-27.066
-20.966
-14.913
-8.912
-2.963
2.951
8.852
14.752
20.66
26.581
32.516
38.47
44.453
50.471
56.533
62.641
68.795
74.995
81.237
87.513
93.815
100.128
106.439
112.736
119.007
125.241
131.427
137.553
143.607
149.574
155.443
161.198
166.824
172.303
177.619
182.755
187.695
192.422
196.92
201.173
205.166
208.885
212.314
215.44
218.251
220.734
222.878
224.674
226.113
227.188
227.893
228.224
228.178
227.755
226.955
225.78
224.233
222.321
220.05
217.429
214.47
211.183
207.582
203.683
199.503
195.058
190.368
185.453
180.333
175.028
169.56
163.951
158.222
152.397
146.496
140.543
134.558
128.564
122.581
116.631
110.732
104.904
99.165
93.532
88.022
82.649
77.428
72.372
67.492
62.798
58.301
54.006
49.922
46.051
42.398
38.965
35.754
32.763
29.992
27.439
25.101
22.974
21.055
19.339
17.82
16.493
15.352
14.39
13.6
12.975
12.509
12.194
12.024
11.991
12.089
12.31
12.649
13.098
13.653
14.307
15.055
15.89
16.81
17.808
18.881
20.025
21.238
22.516
23.857
25.258
26.717
28.231
29.799
31.418
33.084
34.795
36.547
38.338
40.162
42.015
43.894
45.792
47.705
49.626
51.549
53.467
55.372
57.256
59.111
60.929
62.7
64.416
66.068
67.648
69.145
70.55
71.855
73.05
74.126
75.074
75.886
76.552
77.065
77.42
77.61
77.629
77.475
77.145
76.636
75.949
75.084
74.043
72.828
71.444
69.896
68.191
66.337
64.344
62.221
59.982
57.638
55.205
52.694
50.122
47.503
44.852
42.186
39.52
36.87
34.254
31.687
29.186
26.766
24.444
22.234
20.148
18.199
16.397
14.752
13.271
11.961
10.827
9.873
9.1
8.51
8.1
7.866
7.803
7.904
8.157
8.548
9.059
9.675
10.375
11.141
11.95
12.777
13.596
14.387
15.128
15.8
16.379
16.84
17.16
17.319
17.299
17.087
16.665
16.017
15.125
13.977
12.574
10.923
9.024
6.864
4.422
1.68
-1.364
-4.706
-8.342
-12.271
-16.489
-20.978
-25.685
-30.547
-35.501
-40.484
-45.469
-50.442
-55.363
-60.185
-64.82
-69.141
-73.087
-76.627
-79.72
-82.396
-84.627
-86.301
-87.579
-88.805
-90.283
-92.409
-95.306
-98.681
-102.588
-107.451
-113.232
-119.618
-126.019
-131.238
-134.842
-137.386
-138.823
-138.625
-136.735
-133.245
-129.123
-126.748
-127.497
-131.481
-139.297
-151.487
-168.135
-189.242
-213.136
-235.795
-253.465
-262.836
-260.161
-242.009
-204.988
-145.698
-62.458
41.558
160.184
287.456
415.813
543.04
672.391
798.879
914.825
1005.781
1045.404
1021.013
930.367
778.321
588.334
381.675
176.922
-1.12
-136.412
-221.275
-255.805
-256.295
-243.627
-230.315
-222.003
-215.572
-203.934
-186.923
-168.33
-152.293
-143.034
-140.816
-143.328
-148.597
-154.313
-158.42
-159.627
-157.311
-151.661
-143.509
-133.94
-123.871
-114.087
-105.385
-98.436
-93.578
-90.827
-89.964
-90.627
-92.507
-95.369
-98.955
-103.008
-107.303
-111.613
-115.745
-119.539
-122.855
-125.59
-127.7
-129.164
-129.984
-130.203
-129.859
-129.003
-127.723
-126.1
-124.143
-121.872
-119.328
-116.547
-113.645
-110.769
-107.93
-105.084
-102.436
-100.21
-98.266
-96.597
-95.213
-93.596
-93.002
-94.657
-96.753
-98.734
-97.296
-88.49
-76.643
-64.636
-56.77
-58.961
-65.96
-73.316
-77.983
-74.933
-67.768
-60.145
-52.882
-48.209
-44.844
-41.137
-37.413
-33.475
-29.445
-25.674
-21.957
-18.136
-14.289
-10.449
-6.617
-2.819
0.909
4.539
8.015
11.278
14.32
17.136
19.699
21.99
23.992
25.682
27.05
28.086
28.773
29.099
29.052
28.625
27.811
26.607
25.01
23.02
20.639
17.87
14.72
11.196
7.306
3.062
-1.523
-6.434
-11.656
-17.17
-22.957
-28.996
-35.265
-41.742
-48.403
-55.224
-62.181
-69.249
-76.406
-83.626
-90.885
-98.161
-105.429
-112.667
-119.851
-126.96
-133.973
-140.867
-147.625
-154.226
-160.653
-166.889
-172.92
-178.729
-184.304
-189.633
-194.703
-199.506
-204.03
-208.27
-212.218
-215.869
-219.219
-222.265
-225.006
-227.442
-229.573
-231.402
-232.931
-234.162
-235.101
-235.752
-236.12
-236.212
-236.034
-235.595
-234.903
-233.967
-232.796
-231.4
-229.79
-227.976
-225.969
-223.78
-221.419
-218.897
-216.228
-213.421
-210.488
-207.442
-204.293
-201.054
-197.736
-194.35
-190.905
-187.412
-183.881
-180.32
-176.739
-173.145
-169.547
-165.952
-162.367
-158.798
-155.253
-151.735
-148.25
-144.802
-141.394
-138.031
-134.715
-131.447
-128.23
-125.065
-121.953
-118.895
-115.891
-112.94
-110.042
-107.195
-104.397
-101.646
-98.939
-96.272
-93.643
-91.046
-88.479
-85.938
-83.417
-80.914
-78.422
-75.938
-73.458
-70.977
-68.49
-65.993
-63.483
-60.953
-58.402
-55.824
-53.216
-50.573
-47.892
-45.167
-42.397
-39.577
-36.703
-33.773
-30.784
-27.732
-24.617
-21.436
-18.189
-14.874
-11.492
-8.044
-4.531
-0.955
2.682
6.375
10.122
13.918
17.757
21.632
25.539
29.471
33.42
37.377
41.333
45.28
49.207
53.102
56.949
60.733
64.437
68.043
71.534
74.892
78.097
81.133
83.986
86.642
89.091
91.317
93.307
95.043
96.514
97.707
98.61
99.214
99.507
99.483
99.148
98.504
97.553
96.291
94.697
92.754
90.46
87.809
84.805
81.465
77.806
73.869
69.722
65.434
61.073
56.703
52.364
48.102
43.978
40.064
36.445
33.201
30.38
28.031
26.19
24.837
23.919
23.33
22.895
22.472
21.917
21.05
19.733
17.828
15.188
11.742
7.354
1.752
-5.162
-13.302
-22.455
-32.073
-41.574
-50.557
-58.31
-63.792
-66.401
-66.071
-63.157
-58.804
-54.308
-50.43
-48.328
-49.994
-54.975
-60.011
-62.341
-57.92
-47.151
-36.818
-27.446
-14.138
14.093
74.516
174.304
309.451
469.254
638.765
806.397
960.486
1087.235
1169.293
1188.101
1137.8
1022.516
855.432
661.106
458.687
267.2
108.481
-9.662
-84.345
-121.706
-141.554
-154.312
-163.495
-167.844
-157.932
-132.13
-95.969
-55.681
-19.192
9.188
28.944
39.434
40.68
33.728
20.27
2.888
-15.73
-33.447
-48.822
-60.702
-68.271
-71.385
-70.611
-67.097
-62.287
-57.64
-54.083
-52.149
-52.163
-54.092
-57.681
-62.535
-68.021
-73.377
-78.146
-82.085
-85.06
-87.13
-88.284
-88.46
-87.69
-86.019
-83.464
-80.068
-75.853
-70.836
-65.137
-58.9
-52.265
-45.401
-38.42
-31.42
-24.511
-17.776
-11.322
-5.278
0.244
5.109
9.176
12.358
14.578
15.785
16.038
15.411
13.982
11.872
9.181
6.026
2.559
-1.067
-4.706
-8.201
-11.405
-14.16
-16.282
-17.625
-18.042
-17.395
-15.645
-12.789
-8.831
-3.829
2.148
9.012
16.616
24.779
33.366
42.243
51.29
60.406
69.455
78.304
86.825
94.882
102.389
109.294
115.544
121.117
126.017
130.26
133.913
137.08
139.824
142.182
144.186
145.835
147.152
148.168
148.903
149.38
149.615
149.616
149.392
148.955
148.299
147.407
146.246
144.759
142.917
140.708
138.127
135.186
131.898
128.272
124.33
120.102
115.613
110.888
105.949
100.812
95.503
90.053
84.494
78.865
73.201
67.529
61.878
56.275
50.742
45.301
39.968
34.755
29.674
24.741
19.969
15.371
10.961
6.748
2.741
-1.052
-4.625
-7.973
-11.096
-13.993
-16.666
-19.118
-21.352
-23.372
-25.184
-26.796
-28.213
-29.443
-30.496
-31.379
-32.102
-32.674
-33.105
-33.403
-33.577
-33.638
-33.593
-33.452
-33.223
-32.914
-32.533
-32.088
-31.585
-31.032
-30.436
-29.802
-29.138
-28.448
-27.739
-27.016
-26.283
-25.544
-24.804
-24.066
-23.334
-22.609
-21.895
-21.193
-20.507
-19.838
-19.188
-18.56
-17.957
-17.383
-16.839
-16.33
-15.858
-15.428
-15.041
-14.702
-14.412
-14.175
-13.994
-13.87
-13.807
-13.808
-13.874
-14.007
-14.21
-14.482
-14.825
-15.237
-15.717
-16.264
-16.875
-17.547
-18.277
-19.062
-19.898
-20.78
-21.703
-22.661
-23.647
-24.654
-25.673
-26.694
-27.707
-28.702
-29.668
-30.593
-31.468
-32.281
-33.02
-33.675
-34.235
-34.688
-35.024
-35.231
-35.299
-35.219
-34.982
-34.581
-34.011
-33.267
-32.346
-31.246
-29.968
-28.513
-26.883
-25.083
-23.116
-20.99
-18.712
-16.294
-13.746
-11.082
-8.32
-5.48
-2.582
0.35
3.292
6.22
9.107
11.926
14.654
17.267
19.743
22.057
24.187
26.105
27.786
29.208
30.352
31.197
31.729
31.929
31.787
31.304
30.48
29.313
27.792
25.898
23.613
20.934
17.86
14.396
10.552
6.342
1.797
-3.025
-8.064
-13.259
-18.554
-23.913
-29.29
-34.617
-39.81
-44.767
-49.398
-53.64
-57.441
-60.749
-63.537
-65.811
-67.621
-69.062
-70.244
-71.282
-72.302
-73.435
-74.803
-76.509
-78.705
-81.627
-85.473
-90.3
-95.922
-101.96
-108.024
-113.812
-118.952
-122.808
-124.69
-124.251
-121.964
-118.883
-116.014
-114.285
-114.419
-117.351
-124.669
-135.685
-146.094
-151.634
-148.217
-136.942
-125.875
-117.404
-106.839
-80.907
-19.296
87.28
234.869
408.935
589.272
762.448
918.063
1046.323
1134.808
1165.299
1128.285
1024.534
864.256
670.106
463.302
263.343
91.879
-36.926
-116.413
-148.71
-149.603
-137.332
-122.819
-111.361
-100.483
-85.354
-67.627
-50.749
-38.06
-33.226
-35.84
-43.225
-53.272
-63.01
-69.757
-72.609
-71.31
-66.184
-58.375
-49.007
-38.979
-29.393
-21.29
-15.152
-11.167
-9.264
-9.086
-10.346
-12.814
-16.19
-20.181
-24.558
-29.106
-33.634
-37.981
-41.943
-45.352
-48.106
-50.13
-51.402
-51.925
-51.716
-50.822
-49.308
-47.245
-44.695
-41.718
-38.37
-34.727
-30.874
-26.899
-22.889
-18.905
-14.987
-11.161
-7.436
-3.809
-0.268
3.212
6.663
10.108
13.564
17.045
20.56
24.125
27.757
31.471
35.283
39.203
43.239
47.396
51.678
56.082
60.602
65.232
69.96
74.777
79.674
84.643
89.673
94.755
99.875
105.02
110.175
115.323
120.444
125.516
130.518
135.425
140.215
144.863
149.345
153.637
157.714
161.553
165.131
168.425
171.413
174.073
176.385
178.33
179.89
181.049
181.792
182.106
181.982
181.41
180.384
178.899
176.953
174.544
171.676
168.352
164.577
160.361
155.714
150.649
145.182
139.331
133.115
126.557
119.68
112.506
105.064
97.377
89.475
81.385
73.136
64.757
56.278
47.729
39.14
30.541
21.963
13.434
4.983
-3.362
-11.573
-19.624
-27.489
-35.143
-42.563
-49.727
-56.612
-63.2
-69.472
-75.411
-81.001
-86.23
-91.086
-95.558
-99.639
-103.32
-106.597
-109.465
-111.921
-113.964
-115.595
-116.815
-117.627
-118.036
-118.047
-117.669
-116.91
-115.781
-114.292
-112.458
-110.292
-107.81
-105.028
-101.964
-98.636
-95.064
-91.269
-87.273
-83.096
-78.762
-74.293
-69.714
-65.046
-60.315
-55.543
-50.755
-45.974
-41.224
-36.53
-31.915
-27.402
-23.013
-18.773
-14.702
-10.822
-7.153
-3.714
-0.525
2.399
5.041
7.387
9.424
11.142
12.531
13.583
14.292
14.656
14.671
14.338
13.657
12.633
11.268
9.57
7.547
5.207
2.562
-0.376
-3.595
-7.078
-10.81
-14.773
-18.948
-23.316
-27.855
-32.543
-37.358
-42.275
-47.27
-52.32
-57.398
-62.48
-67.54
-72.554
-77.498
-82.35
-87.087
-91.687
-96.13
-100.398
-104.472
-108.336
-111.974
-115.372
-118.516
-121.395
-124
-126.321
-128.351
-130.084
-131.515
-132.641
-133.464
-133.982
-134.2
-134.121
-133.751
-133.099
-132.176
-130.995
-129.571
-127.919
-126.059
-124.013
-121.804
-119.457
-116.997
-114.447
-111.833
-109.178
-106.506
-103.842
-101.209
-98.629
-96.128
-93.729
-91.455
-89.334
-87.385
-85.624
-84.071
-82.733
-81.618
-80.733
-80.086
-79.691
-79.565
-79.714
-80.138
-80.839
-81.818
-83.064
-84.558
-86.262
-88.125
-90.102
-92.159
-94.271
-96.423
-98.585
-100.712
-102.74
-104.613
-106.302
-107.798
-109.098
-110.154
-110.91
-111.381
-111.638
-111.81
-112.039
-112.328
-112.568
-112.846
-113.43
-114.599
-116.714
-119.826
-123.65
-128.241
-133.836
-140.171
-146.555
-151.816
-154.359
-153.483
-149.385
-141.768
-130.453
-116.158
-100.207
-85.286
-74.816
-70.549
-73.017
-83.037
-100.374
-123.251
-148.865
-171.962
-185.958
-185.828
-167.228
-125.326
-58.403
30.898
138.79
258.584
385.053
520.506
664.546
808.942
939.415
1031.184
1059.737
1016.585
903.974
734.812
533.509
320.462
116.146
-55.688
-182.197
-256.621
-280.26
-268.284
-233.644
-188.036
-144.403
-107.647
-83.747
-75.065
-73.883
-75.231
-74.117
-68.781
-65.679
-67.699
-74.357
-83.883
-91.855
-96.185
-97.241
-95.401
-91.132
-85.216
-78.821
-73.12
-68.972
-66.696
-66.013
-66.714
-68.96
-72.623
-77.231
-82.318
-87.396
-92.156
-96.542
-100.475
-103.797
-106.424
-108.34
-109.553
-110.121
-110.092
-109.487
-108.342
-106.702
-104.622
-102.162
-99.395
-96.398
-93.254
-90.047
-86.838
-83.666
-80.56
-77.538
-74.611
-71.778
-69.024
-66.322
-63.65
-60.996
-58.347
-55.689
-53.004
-50.268
-47.461
-44.566
-41.569
-38.459
-35.226
-31.86
-28.357
-24.714
-20.935
-17.024
-12.982
-8.813
-4.517
-0.099
4.434
9.077
13.82
18.657
23.575
28.561
33.6
38.673
43.764
48.854
53.923
58.948
63.909
68.783
73.548
78.181
82.658
86.955
91.051
94.921
98.544
101.898
104.964
107.721
110.153
112.244
113.979
115.347
116.335
116.937
117.143
116.951
116.357
115.361
113.964
112.171
109.986
107.42
104.482
101.186
97.547
93.581
89.306
84.743
79.913
74.839
69.545
64.055
58.395
52.592
46.673
40.666
34.597
28.494
22.384
16.292
10.244
4.266
-1.619
-7.389
-13.021
-18.494
-23.79
-28.89
-33.778
-38.438
-42.857
-47.024
-50.929
-54.564
-57.921
-60.997
-63.788
-66.292
-68.511
-70.444
-72.096
-73.471
-74.575
-75.415
-76
-76.34
-76.446
-76.328
-75.998
-75.469
-74.754
-73.865
-72.815
-71.619
-70.289
-68.84
-67.284
-65.637
-63.912
-62.122
-60.281
-58.402
-56.497
-54.578
-52.657
-50.746
-48.854
-46.992
-45.17
-43.397
-41.681
-40.031
-38.454
-36.957
-35.545
-34.224
-32.998
-31.873
-30.852
-29.94
-29.139
-28.455
-27.89
-27.448
-27.132
-26.946
-26.893
-26.974
-27.192
-27.548
-28.043
-28.679
-29.455
-30.372
-31.43
-32.628
-33.964
-35.436
-37.042
-38.778
-40.64
-42.623
-44.723
-46.934
-49.248
-51.661
-54.166
-56.756
-59.422
-62.157
-64.953
-67.798
-70.682
-73.595
-76.524
-79.455
-82.374
-85.267
-88.121
-90.921
-93.652
-96.299
-98.847
-101.281
-103.589
-105.756
-107.767
-109.61
-111.274
-112.748
-114.023
-115.091
-115.946
-116.581
-116.994
-117.182
-117.144
-116.88
-116.391
-115.679
-114.747
-113.602
-112.25
-110.699
-108.96
-107.047
-104.978
-102.773
-100.452
-98.039
-95.558
-93.034
-90.492
-87.959
-85.456
-83.004
-80.625
-78.343
-76.186
-74.179
-72.342
-70.697
-69.263
-68.057
-67.096
-66.389
-65.934
-65.734
-65.793
-66.125
-66.758
-67.714
-69.005
-70.642
-72.625
-74.95
-77.605
-80.559
-83.754
-87.134
-90.642
-94.231
-97.875
-101.529
-105.129
-108.601
-111.843
-114.775
-117.335
-119.462
-121.12
-122.317
-123.081
-123.486
-123.643
-123.657
-123.66
-123.795
-124.16
-124.881
-126.079
-127.924
-130.752
-134.763
-139.905
-145.993
-152.565
-159.064
-165.068
-169.928
-172.626
-172.624
-170.108
-165.723
-160.94
-157.458
-156.608
-159.965
-169.378
-184.273
-201.228
-216.665
-227.153
-233.018
-237.575
-239.481
-229.972
-194.631
-121.784
-8.358
136.225
294.18
454.227
607.867
746.638
863.958
943.528
967.867
931.695
835.007
687.556
510.057
319.358
135.92
-16.519
-127.769
-194.13
-223.17
-235.561
-242.457
-247.489
-249.656
-240.952
-221.3
-197.307
-174.231
-157.662
-149.984
-150.255
-157.757
-171.197
-187.531
-203.137
-215.77
-224.242
-228.188
-227.834
-222.991
-213.776
-201.607
-188.563
-176.058
-164.834
-155.033
-146.46
-139.297
-133.674
-129.24
-125.355
-121.459
-117.28
-112.817
-108.193
-103.351
-98.113
-92.35
-86.036
-79.24
-72.026
-64.45
-56.564
-48.46
-40.32
-32.325
-24.618
-17.281
-10.324
-3.705
2.639
8.742
14.612
20.24
25.616
30.759
35.687
40.442
45.08
49.685
54.382
59.292
64.508
70.074
75.987
82.202
88.639
95.237
101.945
108.726
115.561
122.436
129.345
136.283
143.249
150.221
157.155
164.008
170.739
177.329
183.779
190.104
196.332
202.487
208.589
214.648
220.66
226.613
232.485
238.246
243.856
249.284
254.505
259.494
264.229
268.688
272.841
276.659
280.11
283.163
285.787
287.956
289.645
290.835
291.51
291.659
291.279
290.363
288.909
286.916
284.384
281.314
277.71
273.579
268.93
263.775
258.129
252.009
245.439
238.443
231.048
223.282
215.176
206.763
198.077
189.153
180.025
170.73
161.305
151.786
142.208
132.61
123.025
113.49
104.037
94.7
85.51
76.498
67.692
59.118
50.803
42.769
35.039
27.634
20.572
13.869
7.54
1.598
-3.948
-9.09
-13.824
-18.145
-22.054
-25.552
-28.643
-31.332
-33.625
-35.531
-37.059
-38.22
-39.027
-39.491
-39.627
-39.449
-38.974
-38.216
-37.192
-35.918
-34.413
-32.692
-30.773
-28.674
-26.413
-24.007
-21.474
-18.831
-16.098
-13.29
-10.425
-7.518
-4.586
-1.644
1.295
4.217
7.109
9.96
12.757
15.491
18.15
20.726
23.209
25.591
27.864
30.021
32.053
33.956
35.721
37.344
38.819
40.141
41.305
42.306
43.142
43.808
44.303
44.625
44.774
44.748
44.549
44.178
43.636
42.927
42.052
41.016
39.822
38.475
36.979
35.34
33.565
31.66
29.632
27.489
25.24
22.893
20.457
17.944
15.365
12.73
10.052
7.346
4.624
1.902
-0.805
-3.483
-6.116
-8.688
-11.184
-13.588
-15.886
-18.063
-20.105
-21.998
-23.728
-25.284
-26.654
-27.826
-28.793
-29.543
-30.071
-30.368
-30.431
-30.255
-29.838
-29.177
-28.274
-27.131
-25.75
-24.139
-22.303
-20.254
-18.004
-15.57
-12.969
-10.222
-7.348
-4.373
-1.319
1.787
4.924
8.066
11.191
14.273
17.286
20.203
22.998
25.643
28.113
30.386
32.437
34.249
35.81
37.108
38.134
38.875
39.306
39.406
39.159
38.553
37.579
36.239
34.544
32.519
30.211
27.667
24.936
22.062
19.075
16.012
12.915
9.837
6.853
4.035
1.442
-0.87
-2.847
-4.464
-5.74
-6.741
-7.596
-8.425
-9.315
-10.343
-11.604
-13.222
-15.323
-18.03
-21.411
-25.553
-30.69
-36.963
-44.313
-52.43
-60.664
-68.296
-74.835
-79.748
-82.176
-81.568
-77.987
-72.175
-65.848
-60.62
-57.462
-57.409
-61.889
-72.029
-85.901
-98.439
-104.198
-97.773
-80.443
-59.704
-35.748
-5.741
38.945
117.47
235.984
392.121
580.806
779.757
966.214
1119.641
1213.716
1233.063
1176.179
1048.886
867.437
653.981
426.775
204.469
9.781
-138.792
-229.487
-257.991
-236.412
-187.537
-131.818
-90.251
-74.583
-81.779
-104.956
-130.571
-146.181
-149.845
-144.914
-138.939
-137.732
-141.052
-145.884
-148.424
-147.416
-144.127
-139.514
-134.479
-129.629
-125.168
-121.657
-119.523
-118.395
-117.659
-117.355
-117.593
-118.351
-119.689
-121.337
-122.928
-124.464
-125.958
-127.073
-127.541
-127.166
-125.722
-123.238
-119.798
-115.372
-109.994
-103.772
-96.791
-89.164
-81.012
-72.384
-63.363
-54.057
-44.573
-35.041
-25.569
-16.221
-7.057
1.88
10.564
18.975
27.111
34.985
42.598
49.947
57.028
63.832
70.356
76.604
82.58
88.291
93.745
98.945
103.897
108.603
113.064
117.278
121.244
124.957
128.417
131.626
134.588
137.309
139.794
142.049
144.08
145.893
147.493
148.884
150.069
151.05
151.828
152.407
152.788
152.971
152.96
152.753
152.353
151.76
150.973
149.994
148.82
147.451
145.888
144.128
142.173
140.022
137.674
135.131
132.395
129.467
126.349
123.044
119.557
115.89
112.048
108.038
103.865
99.536
95.06
90.443
85.698
80.833
75.86
70.789
65.633
60.403
55.111
49.769
44.39
38.986
33.57
28.154
22.752
17.375
12.036
6.748
1.521
-3.632
-8.702
-13.677
-18.55
-23.309
-27.949
-32.46
-36.836
-41.071
-45.159
-49.097
-52.88
-56.507
-59.975
-63.283
-66.431
-69.42
-72.25
-74.922
-77.439
-79.802
-82.014
-84.076
-85.993
-87.767
-89.401
-90.9
-92.267
-93.506
-94.621
-95.617
-96.498
-97.268
-97.932
-98.492
-98.954
-99.322
-99.598
-99.788
-99.894
-99.921
-99.871
-99.748
-99.554
-99.291
-98.961
-98.567
-98.109
-97.59
-97.011
-96.373
-95.68
-94.933
-94.134
-93.287
-92.394
-91.459
-90.485
-89.476
-88.435
-87.366
-86.274
-85.163
-84.038
-82.904
-81.766
-80.631
-79.503
-78.389
-77.295
-76.227
-75.19
-74.192
-73.237
-72.333
-71.486
-70.703
-69.99
-69.354
-68.801
-68.337
-67.968
-67.698
-67.532
-67.472
-67.521
-67.68
-67.951
-68.332
-68.824
-69.425
-70.132
-70.943
-71.853
-72.856
-73.947
-75.118
-76.36
-77.664
-79.019
-80.415
-81.839
-83.281
-84.728
-86.166
-87.581
-88.961
-90.289
-91.552
-92.733
-93.818
-94.79
-95.636
-96.342
-96.895
-97.283
-97.494
-97.52
-97.353
-96.986
-96.414
-95.631
-94.636
-93.426
-92.003
-90.368
-88.527
-86.486
-84.253
-81.844
-79.274
-76.559
-73.718
-70.772
-67.743
-64.654
-61.527
-58.384
-55.245
-52.133
-49.074
-46.096
-43.226
-40.488
-37.908
-35.51
-33.314
-31.344
-29.618
-28.141
-26.921
-25.969
-25.301
-24.948
-24.934
-25.272
-25.971
-27.037
-28.468
-30.261
-32.393
-34.817
-37.485
-40.347
-43.36
-46.498
-49.727
-52.99
-56.214
-59.311
-62.201
-64.833
-67.164
-69.151
-70.77
-72.028
-72.967
-73.675
-74.259
-74.82
-75.466
-76.32
-77.512
-79.169
-81.488
-84.71
-88.996
-94.382
-100.69
-107.5
-114.348
-120.794
-126.267
-130.079
-131.666
-130.76
-127.814
-124.046
-120.833
-119.449
-120.995
-126.402
-136.383
-151.06
-168.939
-186.843
-200.854
-206.822
-200.678
-178.546
-136.636
-71.498
16.103
120.605
236.041
355.344
475.882
602.494
733.87
862.125
972.834
1037.881
1035.423
958.653
809.305
608.81
387.634
170.734
-14.068
-147.546
-227.421
-257.882
-255.69
-243.108
-230.663
-222.486
-216.047
-204.072
-186.727
-168.282
-152.726
-144.385
-143.651
-148.064
-155.543
-163.711
-170.416
-174.3
-174.681
-171.657
-165.98
-158.723
-150.815
-143.028
-136.163
-130.88
-127.506
-126.077
-126.388
-128.081
-130.851
-134.461
-138.653
-143.185
-147.845
-152.421
-156.731
-160.617
-163.949
-166.638
-168.633
-169.904
-170.447
-170.286
-169.469
-168.063
-166.137
-163.75
-160.955
-157.803
-154.359
-150.702
-146.911
-143.064
-139.215
-135.395
-131.626
-127.919
-124.271
-120.672
-117.096
-113.511
-109.894
-106.227
-102.498
-98.694
-94.802
-90.805
-86.689
-82.439
-78.046
-73.506
-68.812
-63.963
-58.964
-53.818
-48.536
-43.131
-37.612
-31.99
-26.276
-20.482
-14.619
-8.702
-2.744
3.239
9.232
15.215
21.171
27.078
32.916
38.665
44.305
49.813
55.169
60.354
65.346
70.127
74.676
78.976
83.01
86.761
90.214
93.356
96.175
98.661
100.806
102.603
104.049
105.142
105.882
106.27
106.31
106.007
105.368
104.402
103.12
101.531
99.651
97.492
95.072
92.408
89.516
86.416
83.128
79.672
76.067
72.335
68.497
64.573
60.585
56.555
52.502
48.446
44.408
40.405
36.455
32.576
28.781
25.085
21.5
18.038
14.709
11.521
8.482
5.597
2.872
0.311
-2.084
-4.311
-6.369
-8.258
-9.98
-11.535
-12.927
-14.159
-15.234
-16.157
-16.932
-17.566
-18.064
-18.433
-18.681
-18.814
-18.841
-18.768
-18.605
-18.36
-18.039
-17.651
-17.202
-16.7
-16.152
-15.563
-14.939
-14.285
-13.608
-12.911
-12.2
-11.478
-10.75
-10.021
-9.293
-8.571
-7.859
-7.162
-6.482
-5.824
-5.192
-4.59
-4.022
-3.491
-3.001
-2.555
-2.156
-1.807
-1.51
-1.267
-1.082
-0.956
-0.892
-0.892
-0.958
-1.091
-1.295
-1.571
-1.921
-2.347
-2.85
-3.432
-4.095
-4.838
-5.662
-6.568
-7.554
-8.619
-9.762
-10.979
-12.267
-13.622
-15.04
-16.515
-18.041
-19.612
-21.221
-22.862
-24.526
-26.206
-27.893
-29.58
-31.255
-32.911
-34.536
-36.12
-37.654
-39.125
-40.524
-41.839
-43.059
-44.174
-45.171
-46.041
-46.773
-47.357
-47.782
-48.039
-48.121
-48.019
-47.728
-47.241
-46.556
-45.669
-44.579
-43.284
-41.786
-40.087
-38.189
-36.097
-33.818
-31.357
-28.725
-25.931
-22.99
-19.916
-16.727
-13.441
-10.079
-6.662
-3.212
0.249
3.698
7.113
10.474
13.758
16.941
19.999
22.906
25.638
28.173
30.489
32.567
34.389
35.939
37.209
38.191
38.877
39.252
39.294
38.983
38.307
37.26
35.842
34.064
31.939
29.494
26.776
23.833
20.713
17.463
14.117
10.712
7.297
3.934
0.703
-2.316
-5.065
-7.497
-9.58
-11.311
-12.708
-13.826
-14.768
-15.635
-16.534
-17.582
-18.889
-20.579
-22.794
-25.658
-29.323
-33.983
-39.705
-46.447
-54.029
-62.016
-69.933
-77.328
-83.639
-88.285
-90.915
-91.345
-89.798
-87.171
-84.371
-82.274
-81.707
-82.946
-86.27
-92.077
-99.45
-106.397
-109.302
-102.375
-82.671
-49.697
-4.95
46.689
106.113
177.397
264.536
374.344
504.698
649.521
802.139
945.332
1062.648
1135.548
1141.581
1074.822
939.991
748.949
528.119
301.555
89.046
-85.898
-208.438
-274.651
-284.892
-249.8
-189.303
-118.858
-56.008
-20.013
-14.498
-36.951
-76.617
-111.889
-132.769
-137.732
-130.405
-121.75
-116.133
-112.486
-109.328
-103.505
-94.526
-84.278
-73.976
-64.738
-57.341
-51.79
-48.082
-46.168
-45.743
-46.547
-48.397
-51.115
-54.509
-58.401
-62.585
-66.833
-70.949
-74.721
-77.972
-80.583
-82.47
-83.607
-83.991
-83.646
-82.619
-80.975
-78.779
-76.094
-72.976
-69.483
-65.688
-61.679
-57.548
-53.387
-49.261
-45.211
-41.266
-37.434
-33.712
-30.089
-26.537
-23.024
-19.524
-16.019
-12.492
-8.934
-5.328
-1.654
2.106
5.968
9.947
14.05
18.287
22.661
27.172
31.818
36.591
41.483
46.485
51.591
56.793
62.084
67.454
72.892
78.388
83.929
89.5
95.087
100.671
106.233
111.754
117.215
122.594
127.87
133.022
138.03
142.871
147.525
151.971
156.189
160.159
163.862
167.28
170.396
173.195
175.661
177.782
179.547
180.946
181.971
182.616
182.876
182.75
182.238
181.34
180.06
178.404
176.377
173.989
171.25
168.173
164.771
161.058
157.053
152.771
148.231
143.453
138.457
133.262
127.891
122.363
116.702
110.927
105.062
99.127
93.143
87.132
81.115
75.11
69.137
63.216
57.362
51.594
45.926
40.372
34.947
29.662
24.528
19.555
14.752
10.127
5.684
1.431
-2.628
-6.491
-10.155
-13.618
-16.878
-19.937
-22.795
-25.452
-27.911
-30.173
-32.241
-34.119
-35.809
-37.316
-38.645
-39.8
-40.786
-41.609
-42.275
-42.789
-43.16
-43.392
-43.492
-43.468
-43.325
-43.07
-42.71
-42.252
-41.703
-41.068
-40.356
-39.573
-38.726
-37.821
-36.868
-35.872
-34.841
-33.785
-32.71
-31.626
-30.541
-29.465
-28.406
-27.374
-26.379
-25.43
-24.536
-23.708
-22.955
-22.285
-21.708
-21.233
-20.867
-20.619
-20.495
-20.504
-20.651
-20.943
-21.385
-21.982
-22.738
-23.658
-24.743
-25.997
-27.419
-29.011
-30.769
-32.694
-34.781
-37.025
-39.421
-41.962
-44.641
-47.449
-50.375
-53.409
-56.537
-59.748
-63.027
-66.359
-69.728
-73.118
-76.511
-79.891
-83.24
-86.542
-89.779
-92.933
-95.987
-98.923
-101.725
-104.376
-106.859
-109.159
-111.261
-113.152
-114.818
-116.251
-117.438
-118.374
-119.052
-119.466
-119.615
-119.498
-119.114
-118.466
-117.557
-116.394
-114.986
-113.341
-111.473
-109.396
-107.132
-104.701
-102.124
-99.425
-96.629
-93.761
-90.849
-87.917
-84.988
-82.086
-79.235
-76.46
-73.792
-71.257
-68.879
-66.682
-64.688
-62.917
-61.392
-60.123
-59.114
-58.372
-57.904
-57.725
-57.867
-58.349
-59.182
-60.371
-61.914
-63.804
-66.03
-68.558
-71.33
-74.287
-77.372
-80.536
-83.752
-86.976
-90.147
-93.188
-96.006
-98.522
-100.683
-102.439
-103.758
-104.637
-105.103
-105.231
-105.14
-104.953
-104.804
-104.843
-105.202
-106.01
-107.362
-109.39
-112.325
-116.338
-121.453
-127.46
-133.924
-140.41
-146.603
-152.104
-156.24
-158.334
-158.061
-155.906
-152.964
-150.225
-148.535
-148.546
-151.189
-158.039
-168.364
-177.935
-182.609
-178.31
-166.127
-153.827
-143.196
-129.605
-100.859
-38.364
65.355
205.982
371.166
544.349
714.795
872.301
1004.175
1092.926
1116.506
1064.886
940.342
756.548
541.138
317.82
108.023
-65.691
-193.33
-269.94
-297.696
-292.373
-266.836
-232.911
-203.025
-180.756
-170.372
-173.06
-181.839
-192.102
-198.821
-200.094
-200.453
-202.082
-205.484
-209.241
-209.565
-205.033
-196.039
-183.511
-169.035
-153.678
-138.118
-123.232
-109.588
-97.376
-86.6
-77.112
-68.834
-61.722
-55.673
-50.528
-46.156
-42.541
-39.718
-37.7
-36.409
-35.692
-35.4
-35.454
-35.806
-36.389
-37.121
-37.875
-38.502
-38.934
-39.143
-39.09
-38.747
-38.039
-36.865
-35.183
-33
-30.344
-27.25
-23.728
-19.769
-15.408
-10.709
-5.764
-0.684
4.47
9.672
14.888
20.087
25.226
30.246
35.124
39.866
44.477
48.96
53.315
57.53
61.62
65.627
69.595
73.577
77.603
81.684
85.834
90.062
94.375
98.778
103.262
107.803
112.386
116.998
121.626
126.26
130.881
135.46
139.97
144.384
148.676
152.823
156.803
160.592
164.169
167.517
170.622
173.471
176.051
178.345
180.338
182.015
183.364
184.371
185.026
185.315
185.232
184.768
183.92
182.684
181.059
179.045
176.643
173.857
170.69
167.15
163.244
158.982
154.375
149.436
144.178
138.617
132.769
126.653
120.286
113.688
106.879
99.88
92.712
85.396
77.956
70.413
62.791
55.111
47.398
39.673
31.959
24.28
16.656
9.11
1.661
-5.67
-12.863
-19.901
-26.766
-33.441
-39.911
-46.161
-52.177
-57.947
-63.46
-68.706
-73.675
-78.361
-82.756
-86.857
-90.659
-94.161
-97.363
-100.266
-102.872
-105.185
-107.21
-108.955
-110.426
-111.632
-112.583
-113.29
-113.765
-114.02
-114.068
-113.925
-113.604
-113.12
-112.489
-111.727
-110.85
-109.874
-108.814
-107.686
-106.508
-105.293
-104.059
-102.819
-101.59
-100.386
-99.22
-98.107
-97.057
-96.084
-95.197
-94.406
-93.718
-93.14
-92.679
-92.339
-92.124
-92.035
-92.075
-92.243
-92.539
-92.962
-93.508
-94.173
-94.953
-95.842
-96.834
-97.923
-99.1
-100.357
-101.687
-103.081
-104.528
-106.02
-107.544
-109.09
-110.646
-112.198
-113.735
-115.243
-116.709
-118.121
-119.464
-120.728
-121.9
-122.968
-123.923
-124.752
-125.446
-125.995
-126.391
-126.623
-126.684
-126.567
-126.264
-125.771
-125.083
-124.195
-123.104
-121.806
-120.301
-118.587
-116.664
-114.53
-112.188
-109.639
-106.888
-103.941
-100.804
-97.485
-93.994
-90.343
-86.545
-82.612
-78.56
-74.402
-70.155
-65.835
-61.46
-57.048
-52.619
-48.191
-43.788
-39.434
-35.155
-30.975
-26.92
-23.015
-19.284
-15.753
-12.444
-9.374
-6.561
-4.022
-1.775
0.158
1.762
3.021
3.924
4.461
4.622
4.399
3.792
2.813
1.468
-0.235
-2.3
-4.745
-7.578
-10.796
-14.395
-18.359
-22.668
-27.297
-32.2
-37.298
-42.519
-47.783
-53.027
-58.213
-63.278
-68.149
-72.744
-76.953
-80.698
-83.931
-86.596
-88.667
-90.162
-91.12
-91.636
-91.858
-91.917
-91.974
-92.215
-92.786
-93.847
-95.511
-97.922
-101.357
-105.982
-111.789
-118.556
-125.778
-132.938
-139.683
-145.464
-149.465
-151.07
-149.974
-146.675
-142.464
-138.359
-135.287
-134.435
-136.955
-143.93
-154.163
-163.185
-166.555
-161.701
-150.487
-137.502
-121.909
-94.891
-41.99
48.072
176.006
329.939
491.513
651.18
803.819
944.717
1067.087
1146.51
1157.477
1088.206
938.251
729.988
496.113
265.05
64.088
-89.001
-187.946
-236.14
-246.96
-235.996
-213.177
-179.763
-134.39
-79.921
-27.148
8.319
17.403
1.313
-29.014
-59.181
-80.997
-93.329
-100.328
-106.601
-113.352
-118.863
-119.814
-114.982
-105.438
-93.251
-81.178
-70.542
-61.533
-54.482
-49.628
-47.071
-46.806
-48.349
-50.896
-54.024
-57.533
-61.179
-64.801
-68.136
-70.896
-73.059
-74.659
-75.579
-75.923
-76.066
-76.032
-75.695
-75.171
-74.079
-73.3
-75.439
-79.98
-84.634
-85.612
-75.725
-55.502
-32.299
-13.419
-9.205
-20.316
-36.993
-51.683
-56.217
-49.136
-37.708
-26.385
-18.202
-14.072
-10.998
-7.612
-3.995
-0.026
3.86
7.559
11.48
15.745
20.286
25.109
30.226
35.608
41.228
47.036
52.95
58.937
65.012
71.17
77.387
83.645
89.918
96.185
102.427
108.619
114.729
120.724
126.575
132.25
137.722
142.961
147.939
152.628
157.002
161.036
164.708
167.998
170.886
173.356
175.395
176.99
178.135
178.821
179.046
178.809
178.112
176.96
175.359
173.32
170.856
167.982
164.716
161.077
157.091
152.78
148.173
143.299
138.188
132.872
127.382
121.753
116.017
110.207
104.357
98.498
92.662
86.88
81.18
75.59
70.137
64.844
59.734
54.827
50.143
45.696
41.502
37.572
33.917
30.543
27.456
24.659
22.152
19.933
17.998
16.34
14.952
13.824
12.944
12.299
11.876
11.659
11.634
11.784
12.092
12.542
13.117
13.801
14.579
15.434
16.353
17.32
18.324
19.351
20.39
21.432
22.467
23.486
24.482
25.451
26.385
27.283
28.141
28.959
29.736
30.475
31.178
31.849
32.491
33.111
33.714
34.305
34.892
35.48
36.076
36.686
37.315
37.97
38.655
39.374
40.132
40.931
41.775
42.664
43.599
44.582
45.611
46.686
47.805
48.965
50.165
51.4
52.667
53.96
55.275
56.605
57.944
59.285
60.62
61.942
63.243
64.514
65.748
66.938
68.077
69.158
70.176
71.125
72.001
72.8
73.521
74.161
74.718
75.193
75.587
75.9
76.136
76.296
76.384
76.406
76.367
76.271
76.127
75.939
75.716
75.466
75.196
74.916
74.634
74.359
74.101
73.869
73.674
73.525
73.429
73.394
73.428
73.537
73.726
73.999
74.358
74.805
75.339
75.961
76.67
77.461
78.332
79.276
80.289
81.363
82.487
83.648
84.833
86.025
87.21
88.37
89.488
90.545
91.527
92.419
93.208
93.881
94.422
94.811
95.036
95.084
94.943
94.602
94.051
93.281
92.292
91.09
89.681
88.064
86.228
84.153
81.827
79.247
76.412
73.323
69.985
66.406
62.622
58.688
54.661
50.595
46.534
42.507
38.568
34.792
31.255
28.055
25.267
22.937
21.118
19.858
19.16
19.008
19.353
20.064
21.017
22.082
23.077
23.867
24.329
24.269
23.449
21.671
18.813
15.009
10.652
6.122
1.758
-2.04
-4.738
-5.723
-4.635
-1.887
1.327
3.687
4.187
2.021
-3.794
-14.344
-30.169
-48.782
-64.929
-73.697
-71.594
-60.1
-43.092
-19.07
17.535
75.961
166.01
288.336
436.536
602.204
773.526
936.366
1074.711
1167.259
1193.084
1144.786
1027.449
856.536
656.207
446.153
243.132
66.69
-68.071
-152.341
-186.714
-186.841
-172.482
-156.224
-143.982
-132.75
-117.133
-98.603
-80.42
-66.205
-60.291
-62.543
-70.893
-83.892
-97.991
-109.926
-118.644
-123.544
-124.794
-123.538
-120.322
-115.437
-110.291
-106.217
-103.825
-103.578
-105.354
-108.67
-113.441
-119.635
-126.789
-134.489
-142.415
-150.205
-157.714
-164.856
-171.436
-177.309
-182.431
-186.771
-190.335
-193.162
-195.269
-196.695
-197.504
-197.751
-197.494
-196.789
-195.702
-194.312
-192.703
-190.964
-189.158
-187.32
-185.482
-183.66
-181.857
-180.072
-178.283
-176.459
-174.579
-172.628
-170.592
-168.461
-166.219
-163.844
-161.321
-158.633
-155.769
-152.72
-149.479
-146.038
-142.399
-138.564
-134.542
-130.343
-125.975
-121.447
-116.768
-111.949
-107
-101.935
-96.767
-91.51
-86.179
-80.794
-75.373
-69.94
-64.513
-59.116
-53.77
-48.499
-43.326
-38.274
-33.366
-28.625
-24.075
-19.739
-15.641
-11.804
-8.248
-4.997
-2.069
0.516
2.741
4.592
6.056
7.122
7.782
8.028
7.857
7.265
6.253
4.822
2.977
0.721
-1.936
-4.985
-8.413
-12.207
-16.352
-20.829
-25.622
-30.711
-36.073
-41.689
-47.533
-53.583
-59.813
-66.195
-72.703
-79.308
-85.981
-92.693
-99.415
-106.117
-112.771
-119.348
-125.823
-132.167
-138.356
-144.366
-150.173
-155.755
-161.092
-166.164
-170.953
-175.442
-179.617
-183.465
-186.973
-190.131
-192.931
-195.365
-197.427
-199.113
-200.42
-201.346
-201.893
-202.062
-201.857
-201.286
-200.356
-199.076
-197.46
-195.519
-193.268
-190.723
-187.901
-184.819
-181.496
-177.952
-174.205
-170.277
-166.187
-161.958
-157.61
-153.165
-148.643
-144.064
-139.451
-134.822
-130.197
-125.595
-121.036
-116.538
-112.118
-107.794
-103.582
-99.498
-95.556
-91.768
-88.146
-84.701
-81.44
-78.372
-75.5
-72.83
-70.364
-68.104
-66.05
-64.202
-62.557
-61.112
-59.862
-58.802
-57.926
-57.225
-56.694
-56.322
-56.101
-56.023
-56.077
-56.254
-56.544
-56.935
-57.417
-57.978
-58.607
-59.292
-60.022
-60.785
-61.571
-62.368
-63.168
-63.96
-64.736
-65.488
-66.209
-66.89
-67.526
-68.111
-68.637
-69.101
-69.498
-69.826
-70.08
-70.261
-70.364
-70.391
-70.339
-70.209
-70
-69.712
-69.346
-68.901
-68.379
-67.781
-67.111
-66.37
-65.562
-64.691
-63.76
-62.775
-61.74
-60.659
-59.537
-58.381
-57.194
-55.984
-54.757
-53.52
-52.281
-51.053
-49.846
-48.672
-47.543
-46.472
-45.471
-44.551
-43.725
-43
-42.383
-41.883
-41.509
-41.271
-41.182
-41.252
-41.489
-41.901
-42.495
-43.277
-44.25
-45.407
-46.742
-48.251
-49.939
-51.818
-53.904
-56.205
-58.724
-61.461
-64.402
-67.53
-70.817
-74.211
-77.657
-81.104
-84.502
-87.821
-91.031
-94.084
-96.923
-99.472
-101.655
-103.418
-104.713
-105.501
-105.787
-105.599
-105.009
-104.142
-103.099
-101.995
-100.964
-100.135
-99.663
-99.715
-100.412
-101.935
-104.555
-108.402
-113.461
-119.494
-125.89
-132.015
-137.346
-141.204
-142.84
-141.814
-138.04
-132.197
-125.909
-120.803
-118.184
-119.206
-124.696
-134.934
-149.354
-165.656
-179.837
-187.5
-184.152
-165.551
-128.089
-68.218
15.015
117.613
233.672
356.297
481.076
610.991
747.561
884.27
1007.656
1093.411
1116.365
1066.897
946.668
768.788
559.482
341.699
136.859
-31.17
-149.632
-214.075
-225.739
-198.974
-152.723
-102.909
-67.212
-56.285
-68.61
-97.798
-130.003
-151.989
-160.713
-159.127
-154.774
-153.828
-156.501
-159.862
-160.176
-155.853
-147.672
-137.03
-125.332
-113.36
-101.559
-90.591
-80.927
-72.727
-66.052
-60.824
-56.944
-54.374
-53.008
-52.681
-53.316
-54.92
-57.443
-60.797
-64.818
-69.278
-74.029
-78.96
-83.935
-88.803
-93.383
-97.536
-101.203
-104.385
-107.069
-109.228
-110.79
-111.661
-111.813
-111.26
-110.038
-108.198
-105.763
-102.761
-99.258
-95.357
-91.179
-86.81
-82.283
-77.603
-72.778
-67.836
-62.817
-57.764
-52.688
-47.587
-42.466
-37.327
-32.184
-27.036
-21.86
-16.611
-11.238
-5.711
-0.022
5.825
11.828
17.982
24.284
30.721
37.268
43.901
50.602
57.357
64.154
70.974
77.789
84.564
91.267
97.869
104.342
110.66
116.795
122.723
128.422
133.873
139.062
143.971
148.583
152.877
156.836
160.442
163.68
166.535
168.994
171.046
172.681
173.894
174.68
175.037
174.964
174.461
173.531
172.177
170.403
168.217
165.627
162.643
159.277
155.542
151.454
147.031
142.289
137.248
131.929
126.354
120.544
114.523
108.314
101.941
95.431
88.808
82.099
75.331
68.528
61.719
54.928
48.181
41.501
34.913
28.438
22.098
15.914
9.906
4.093
-1.508
-6.878
-12.002
-16.866
-21.454
-25.755
-29.759
-33.455
-36.837
-39.898
-42.632
-45.038
-47.115
-48.861
-50.281
-51.376
-52.154
-52.622
-52.787
-52.661
-52.255
-51.582
-50.654
-49.488
-48.097
-46.499
-44.708
-42.742
-40.617
-38.352
-35.963
-33.469
-30.888
-28.238
-25.538
-22.806
-20.061
-17.32
-14.601
-11.921
-9.299
-6.748
-4.286
-1.926
0.319
2.436
4.414
6.244
7.919
9.43
10.773
11.945
12.941
13.761
14.404
14.87
15.162
15.28
15.229
15.012
14.634
14.099
13.415
12.586
11.62
10.525
9.31
7.984
6.558
5.041
3.446
1.784
0.068
-1.689
-3.475
-5.276
-7.08
-8.875
-10.649
-12.389
-14.084
-15.724
-17.3
-18.8
-20.217
-21.54
-22.763
-23.879
-24.879
-25.759
-26.512
-27.131
-27.613
-27.952
-28.144
-28.185
-28.07
-27.797
-27.364
-26.77
-26.017
-25.103
-24.033
-22.81
-21.44
-19.93
-18.287
-16.517
-14.629
-12.632
-10.538
-8.357
-6.1
-3.78
-1.412
0.986
3.395
5.798
8.177
10.516
12.798
15.001
17.105
19.092
20.945
22.648
24.183
25.527
26.659
27.564
28.232
28.657
28.834
28.755
28.413
27.807
26.943
25.826
24.461
22.843
20.966
18.833
16.451
13.837
11.011
7.987
4.785
1.438
-2.016
-5.539
-9.081
-12.597
-16.05
-19.395
-22.6
-25.644
-28.482
-31.057
-33.312
-35.166
-36.591
-37.646
-38.344
-38.645
-38.628
-38.436
-38.421
-39.204
-41.129
-44.171
-48.309
-53.521
-59.62
-66.334
-72.662
-76.744
-77.344
-74.055
-66.867
-56.25
-42.796
-27.186
-11.51
0.581
6.116
3.273
-8.639
-28.901
-56.489
-89.953
-125.587
-157.442
-179.535
-186.203
-172.913
-137.043
-76.019
10.457
117.937
240.36
370.625
504.116
641.846
781.57
914.749
1025.761
1092.337
1099.942
1046.331
940.161
797.639
630.767
449.902
266.665
96.824
-36.66
-119.543
-150.762
-142.854
-120.122
-98.591
-84.129
-75.456
-64.988
-51.381
-37.889
-27.498
-23.839
-26.992
-34.234
-43.333
-51.857
-57.623
-59.879
-58.534
-53.936
-47.098
-39.048
-30.592
-22.604
-15.924
-10.979
-7.9
-6.613
-6.787
-8.121
-10.381
-13.292
-16.58
-20.032
-23.453
-26.651
-29.463
-31.751
-33.407
-34.37
-34.617
-34.133
-32.925
-31.041
-28.549
-25.525
-22.046
-18.174
-13.968
-9.503
-4.864
-0.144
4.557
9.173
13.661
17.987
22.132
26.086
29.85
33.441
36.892
40.225
43.458
46.604
49.672
52.679
55.647
58.594
61.541
64.503
67.49
70.514
73.586
76.711
79.892
83.127
86.413
89.749
93.135
96.57
100.054
103.583
107.155
110.763
114.401
118.061
121.731
125.398
129.046
132.66
136.223
139.718
143.126
146.429
149.608
152.642
155.512
158.199
160.682
162.943
164.963
166.724
168.21
169.404
170.294
170.866
171.109
171.013
170.568
169.769
168.609
167.085
165.194
162.934
160.309
157.32
153.976
150.281
146.247
141.884
137.205
132.224
126.955
121.412
115.61
109.563
103.287
96.797
90.11
83.242
76.212
69.038
61.742
54.345
46.866
39.325
31.737
24.119
16.486
8.856
1.244
-6.335
-13.864
-21.319
-28.676
-35.916
-43.023
-49.996
-56.836
-63.535
-70.091
-76.498
-82.743
-88.806
-94.655
-100.233
-105.487
-110.366
-114.823
-118.832
-122.365
-125.383
-127.84
-129.686
-130.869
-131.361
-131.14
-130.164
-128.441
-126.037
-123.06
-119.688
-116.092
-112.372
-108.661
-105.119
-101.892
-99.154
-97.048
-95.616
-94.995
-95.445
-97.059
-99.8
-103.393
-107.146
-110.387
-112.623
-113.139
-111.064
-105.95
-97.816
-87.287
-75.87
-65.238
-56.633
-51.489
-51.681
-56.336
-61.803
-64.884
-60.835
-49.745
-38.356
-26.287
-9.09
23.819
92.275
203.306
353.309
531.829
717.292
894.367
1049.39
1166.771
1233.108
1230.92
1151.388
996.013
777.878
527.507
277.429
61.453
-94.112
-183.2
-210.975
-196.463
-161.643
-121.306
-88.533
-67.115
-58.544
-62.972
-72.808
-83.192
-89.923
-91.436
-92.974
-97.314
-104.775
-113.704
-119.851
-121.375
-118.663
-112.741
-105.322
-97.499
-89.928
-83.518
-78.815
-75.997
-75.001
-75.499
-77.234
-80.019
-83.631
-87.809
-92.302
-96.899
-101.424
-105.721
-109.58
-112.828
-115.347
-117.062
-117.956
-118.035
-117.311
-115.828
-113.655
-110.863
-107.521
-103.69
-99.43
-94.819
-89.949
-84.917
-79.826
-74.749
-69.737
-64.826
-60.035
-55.37
-50.829
-46.396
-42.042
-37.751
-33.511
-29.314
-25.158
-21.032
-16.924
-12.823
-8.717
-4.6
-0.468
3.68
7.844
12.019
16.196
20.365
24.51
28.623
32.693
36.71
40.666
44.55
48.353
52.063
55.668
59.156
62.511
65.716
68.755
71.61
74.265
76.701
78.901
80.849
82.528
83.923
85.019
85.8
86.256
86.373
86.142
85.553
84.602
83.283
81.593
79.531
77.1
74.302
71.143
67.628
63.768
59.571
55.05
50.218
45.092
39.689
34.027
28.127
22.011
15.705
9.233
2.62
-4.105
-10.916
-17.784
-24.681
-31.578
-38.447
-45.259
-51.987
-58.604
-65.084
-71.403
-77.537
-83.466
-89.17
-94.63
-99.831
-104.759
-109.402
-113.75
-117.795
-121.53
-124.952
-128.058
-130.849
-133.327
-135.497
-137.365
-138.938
-140.227
-141.243
-142
-142.511
-142.792
-142.861
-142.736
-142.435
-141.98
-141.39
-140.686
-139.89
-139.022
-138.103
-137.154
-136.193
-135.239
-134.308
-133.419
-132.585
-131.82
-131.135
-130.542
-130.049
-129.662
-129.387
-129.225
-129.177
-129.244
-129.421
-129.705
-130.091
-130.571
-131.136
-131.778
-132.486
-133.246
-134.047
-134.872
-135.707
-136.535
-137.338
-138.101
-138.805
-139.433
-139.971
-140.401
-140.709
-140.88
-140.902
-140.761
-140.446
-139.948
-139.257
-138.368
-137.277
-135.98
-134.477
-132.771
-130.866
-128.764
-126.474
-124.002
-121.357
-118.548
-115.583
-112.472
-109.226
-105.858
-102.381
-98.812
-95.166
-91.461
-87.719
-83.961
-80.203
