Name
Date of Birth,"Mar 27, 1959"
Recorded Date,2019-03-20 19:34:11 -0500
Classification,Sinus Rhythm
Symptoms,
Software Version,1.2
Device,"Watch4,2"
Sample Rate,510.227 hertz


Lead,Lead I
Unit,µV

-206.899
-242.927
-253.677
-244.564
-228.261
-214.114
-210.675
-216.285
-222.642
-225.566
-221.897
-211.323
-196.899
-179.601
-159.433
-136.772
-111.462
-83.735
-54.321
-23.692
7.807
39.71
71.567
103.045
133.835
163.634
192.199
219.242
244.423
267.468
288.163
306.323
321.812
334.504
344.261
351.009
354.76
355.561
353.501
348.641
340.988
330.614
317.662
302.246
284.473
264.469
242.341
218.274
192.575
165.506
137.247
108.15
78.747
49.307
19.902
-9.243
-38.243
-66.276
-91.115
-112.966
-133.599
-155.911
-185.576
-222.328
-260.242
-293.51
-313.925
-320.765
-321.928
-323.546
-332.166
-349.189
-368.846
-387.58
-403.067
-414.604
-424.723
-434.724
-444.707
-454.93
-465.13
-475.263
-485.684
-496.499
-507.674
-519.237
-531.209
-543.588
-556.368
-569.503
-582.915
-596.541
-610.314
-624.129
-637.841
-651.309
-664.44
-677.172
-689.472
-701.324
-712.709
-723.609
-734.02
-743.932
-753.315
-762.155
-770.444
-778.185
-785.416
-792.192
-798.585
-804.684
-810.554
-816.242
-821.784
-827.198
-832.495
-837.686
-842.774
-847.76
-852.666
-857.508
-862.302
-867.064
-871.797
-876.494
-881.144
-885.724
-890.215
-894.607
-898.895
-903.08
-907.169
-911.169
-915.092
-918.953
-922.761
-926.525
-930.249
-933.936
-937.592
-941.222
-944.834
-948.437
-952.04
-955.652
-959.279
-962.926
-966.599
-970.297
-974.024
-977.776
-981.55
-985.345
-989.158
-992.986
-996.826
-1000.674
-1004.524
-1008.371
-1012.207
-1016.023
-1019.809
-1023.554
-1027.243
-1030.865
-1034.404
-1037.846
-1041.177
-1044.381
-1047.443
-1050.348
-1053.081
-1055.628
-1057.974
-1060.106
-1062.008
-1063.668
-1065.073
-1066.211
-1067.072
-1067.645
-1067.922
-1067.895
-1067.557
-1066.903
-1065.929
-1064.631
-1063.007
-1061.057
-1058.782
-1056.183
-1053.266
-1050.037
-1046.501
-1042.671
-1038.556
-1034.169
-1029.523
-1024.634
-1019.517
-1014.19
-1008.67
-1002.975
-997.126
-991.141
-985.04
-978.845
-972.575
-966.251
-959.892
-953.517
-947.146
-940.797
-934.487
-928.231
-922.045
-915.942
-909.937
-904.041
-898.267
-892.624
-887.121
-881.768
-876.571
-871.534
-866.661
-861.952
-857.403
-853.014
-848.778
-844.691
-840.743
-836.924
-833.222
-829.629
-826.131
-822.712
-819.355
-816.036
-812.733
-809.434
-806.126
-802.799
-799.448
-796.068
-792.662
-789.247
-785.831
-782.425
-779.035
-775.655
-772.282
-768.921
-765.579
-762.272
-759.007
-755.771
-752.537
-749.29
-746.018
-742.693
-739.272
-735.666
-731.778
-727.552
-722.987
-718.054
-712.676
-706.788
-700.33
-693.298
-685.806
-677.932
-669.643
-661.099
-652.74
-644.76
-637.214
-630.341
-623.942
-618.794
-617.077
-618.408
-620.89
-621.406
-614.015
-598.996
-582.274
-569.704
-569.623
-582.545
-600.343
-616.664
-624.658
-622.862
-617.038
-610.719
-606.276
-604.44
-602.807
-600.297
-597.078
-593.159
-588.965
-584.685
-580.127
-575.326
-570.51
-565.865
-561.496
-557.596
-554.466
-552.206
-550.771
-549.879
-548.83
-547.026
-544.171
-539.733
-532.971
-523.702
-512.03
-498.595
-484.934
-471.882
-459.704
-449.391
-442.056
-438.031
-435.533
-430
-416.284
-390.51
-355.389
-318.326
-282.03
-248.252
-208.692
-143.859
-43.759
98.568
279.778
474.55
656.613
798.498
871.366
863.032
773.976
613.445
406.491
183.051
-31.318
-213.14
-347.871
-430.16
-459.249
-442.502
-395.117
-337.195
-289.631
-266.439
-269.667
-290.132
-312.782
-325.902
-325.881
-315.793
-304.264
-298.244
-300.229
-312.393
-330.457
-347.585
-358.991
-355.814
-337.762
-311.081
-280.052
-255.066
-238.579
-228.614
-227.773
-232.281
-243.258
-259.893
-273.282
-280.044
-274.625
-257.053
-236.837
-219.248
-209.798
-209.954
-213.701
-217.382
-218.781
-216.797
-214.243
-214.129
-216.018
-218.003
-216.421
-205.189
-183.922
-157.227
-132.173
-119.808
-124.596
-143.833
-169.78
-189.155
-194.026
-182.113
-157.67
-131.471
-110.717
-99.707
-97.781
-98.912
-99.396
-96.945
-91.124
-84.109
-76.83
-69.36
-61.797
-53.747
-45.177
-36.443
-27.672
-18.884
-10.115
-1.345
7.439
16.227
25.031
33.879
42.775
51.707
60.677
69.697
78.764
87.864
96.983
106.105
115.224
124.342
133.463
142.594
151.765
161.031
170.443
180.048
189.868
199.895
210.12
220.529
231.107
241.835
252.69
263.63
274.609
285.576
296.454
307.144
317.511
327.373
336.553
344.887
352.236
358.503
363.6
367.45
369.987
371.162
370.931
369.263
366.133
361.52
355.443
347.965
339.2
329.317
318.497
306.925
294.775
282.2
269.346
256.356
243.367
230.504
217.906
205.719
194.092
183.179
173.097
163.918
155.679
148.373
141.97
136.426
131.694
127.718
124.449
121.838
119.831
118.377
117.4
116.803
116.487
116.347
116.3
116.293
116.286
116.259
116.21
116.148
116.093
116.072
116.108
116.215
116.414
116.727
117.19
117.855
118.768
119.968
121.485
123.331
125.514
128.033
130.878
134.023
137.442
141.104
144.979
149.048
153.286
157.665
162.154
166.713
171.311
175.917
180.508
185.059
189.55
193.964
198.29
202.525
206.665
210.709
214.653
218.494
222.228
225.851
229.361
232.747
236.003
239.127
242.121
244.995
247.763
250.439
253.036
255.573
258.066
260.522
262.944
265.326
267.654
269.926
272.149
274.34
276.519
278.69
280.855
282.994
285.079
287.087
288.977
290.696
292.222
293.539
294.637
295.604
296.527
297.434
298.388
299.417
300.447
301.475
302.561
303.523
304.216
304.915
305.706
306.555
308.112
309.72
310.415
311.649
313.901
319.552
332.771
352.057
374.225
393.368
400.629
393.807
377.359
360.393
353.803
363.773
387.171
414.321
436.393
446.953
446.417
441.134
435.255
431.552
430.536
429.791
428.457
426.72
424.6
422.642
421.043
419.545
418.185
417.137
416.467
416.278
416.694
417.783
419.624
422.289
425.737
429.863
434.553
439.662
445.083
450.741
456.554
462.455
468.374
474.235
479.982
485.566
490.92
495.999
500.777
505.234
509.404
513.351
517.15
520.904
524.694
528.561
532.541
536.653
540.908
545.323
549.896
554.606
559.44
564.388
569.433
574.558
579.722
584.849
589.869
594.719
599.342
603.72
607.847
611.72
615.347
618.745
621.946
625.003
627.98
630.915
633.851
636.834
639.915
643.18
646.696
650.496
654.612
659.058
663.835
668.958
674.439
680.255
686.394
692.844
699.555
706.491
713.617
720.866
728.19
735.544
742.873
750.121
757.283
764.383
771.413
778.34
785.059
791.391
797.198
802.441
806.919
810.166
811.997
812.437
811.37
809.093
804.874
796.559
784.528
770.649
758.072
752.757
754.476
757.507
756.176
742.364
715.764
684.484
654.866
633.733
622.468
615.419
609.129
601.36
591.693
582.638
575.259
569.196
563.845
558.462
552.956
547.595
542.515
537.863
533.683
530.53
529.717
531.744
536.409
543.318
551.373
559.528
567.32
573.62
576.461
574.898
568.254
555.96
538.791
517.427
492.31
464.761
436.461
408.548
382.863
363.044
353.129
356.727
376.752
411.206
453.806
502.288
555.492
617.087
699.592
807.66
941.043
1094.783
1250.125
1390.761
1502.335
1569.322
1584.883
1544.918
1449.896
1308.71
1133.753
940.998
748.692
573.82
430.306
328.124
268.217
245.081
253.604
285.404
334.154
394.196
449.946
486.454
492.721
461.613
403.381
336.518
278.617
247.683
247.146
268.527
299.999
324.877
334.93
331.285
318.098
303.611
292.128
283.101
275.356
266.543
255.747
243.715
230.873
217.546
203.87
189.747
175.287
160.757
146.382
132.373
118.969
106.365
94.703
84.064
74.439
65.755
57.918
50.804
44.266
38.174
32.401
26.822
21.313
15.715
9.885
3.698
-2.952
-10.118
-17.827
-26.084
-34.868
-44.119
-53.756
-63.666
-73.735
-83.881
-94.037
-104.156
-114.185
-124.054
-133.708
-143.098
-152.183
-160.941
-169.352
-177.405
-185.099
-192.45
-199.492
-206.27
-212.819
-219.139
-225.202
-230.942
-236.3
-241.223
-245.646
-249.525
-252.816
-255.472
-257.464
-258.761
-259.33
-259.143
-258.157
-256.316
-253.594
-249.995
-245.569
-240.426
-234.673
-228.423
-221.799
-214.901
-207.838
-200.722
-193.658
-186.743
-180.083
-173.78
-167.96
-162.776
-158.359
-154.812
-152.189
-150.483
-149.689
-149.792
-150.769
-152.596
-155.239
-158.654
-162.81
-167.681
-173.233
-179.443
-186.256
-193.591
-201.394
-209.59
-218.115
-226.974
-236.165
-245.641
-255.398
-265.424
-275.654
-286.144
-297.015
-308.241
-319.756
-331.652
-343.937
-356.382
-369.001
-381.625
-393.369
-405.08
-417.796
-429.89
-441.179
-448.221
-445.423
-436.621
-426.278
-421.189
-432.631
-456.389
-482.394
-501.958
-502.086
-484.715
-461.633
-440.335
-429.819
-430.859
-435.774
-440.837
-443.362
-442.508
-441.226
-440.682
-440.619
-441.18
-441.928
-442.604
-443.46
-444.51
-445.591
-446.668
-447.728
-448.694
-449.513
-450.125
-450.445
-450.43
-450.071
-449.347
-448.249
-446.796
-445.035
-443.044
-440.897
-438.662
-436.396
-434.134
-431.906
-429.735
-427.624
-425.574
-423.584
-421.657
-419.808
-418.053
-416.398
-414.839
-413.363
-411.946
-410.568
-409.213
-407.861
-406.5
-405.121
-403.719
-402.298
-400.866
-399.425
-397.979
-396.525
-395.056
-393.571
-392.068
-390.545
-389.004
-387.445
-385.869
-384.278
-382.677
-381.068
-379.454
-377.834
-376.209
-374.58
-372.947
-371.313
-369.68
-368.05
-366.426
-364.81
-363.206
-361.616
-360.044
-358.489
-356.953
-355.438
-353.944
-352.471
-351.02
-349.592
-348.186
-346.804
-345.446
-344.112
-342.804
-341.522
-340.267
-339.039
-337.837
-336.663
-335.514
-334.391
-333.291
-332.213
-331.156
-330.117
-329.094
-328.086
-327.09
-326.106
-325.131
-324.164
-323.202
-322.245
-321.291
-320.339
-319.387
-318.434
-317.478
-316.521
-315.56
-314.596
-313.628
-312.656
-311.681
-310.704
-309.726
-308.746
-307.765
-306.784
-305.802
-304.821
-303.838
-302.854
-301.868
-300.881
-299.894
-298.912
-297.936
-296.968
-296.011
-295.068
-294.14
-293.227
-292.329
-291.442
-290.562
-289.691
-288.83
-287.986
-287.162
-286.355
-285.562
-284.778
-283.992
-283.193
-282.358
-281.455
-280.462
-279.364
-278.155
-276.84
-275.424
-273.906
-272.285
-270.56
-268.732
-266.814
-264.816
-262.741
-260.614
-258.47
-256.369
-254.403
-252.638
-251.112
-249.845
-248.832
-248.061
-247.52
-247.181
-246.998
-246.924
-246.9
-246.876
-246.818
-246.655
-246.296
-245.609
-244.426
-242.62
-240.114
-236.857
-232.837
-228.061
-222.549
-216.366
-209.62
-202.428
-194.912
-187.185
-179.356
-171.57
-164.013
-156.905
-150.488
-144.96
-140.462
-137.109
-134.984
-134.146
-134.627
-136.403
-139.397
-143.521
-148.685
-154.794
-161.736
-169.346
-177.416
-185.71
-193.992
-202.067
-209.771
-216.954
-223.481
-229.233
-234.114
-238.077
-241.107
-243.187
-244.311
-244.488
-243.789
-242.379
-240.46
-238.251
-235.941
-233.65
-231.531
-229.756
-228.47
-227.821
-227.909
-228.749
-230.476
-233.339
-237.344
-242.356
-247.97
-253.343
-257.772
-260.742
-261.42
-259.004
-253.367
-244.592
-233.466
-221.947
-211.537
-203.388
-199.412
-199.625
-201.265
-202.17
-199.092
-191.027
-182.44
-173.589
-159.631
-130.392
-70.975
25.401
155.122
306.394
464.421
619.372
761.877
881.768
965.151
993.387
957.731
859.829
709.847
528.966
336.4
150.056
-9.338
-128.214
-200.341
-228.699
-229.645
-220.744
-212.1
-207.711
-203.837
-195.598
-184.459
-173.709
-166.804
-166.98
-173.616
-184.212
-196.725
-208.387
-216.763
-220.972
-220.709
-216.244
-208.584
-198.694
-187.413
-175.844
-165.025
-155.494
-147.52
-141.11
-136.056
-132.274
-129.722
-128.267
-127.745
-128
-128.897
-130.337
-132.228
-134.428
-136.756
-139.02
-141.073
-142.828
-144.215
-145.173
-145.626
-145.464
-144.598
-142.987
-140.61
-137.482
-133.63
-129.081
-123.88
-118.1
-111.823
-105.137
-98.105
-90.754
-83.097
-75.158
-66.974
-58.617
-50.157
-41.635
-33.083
-24.528
-15.989
-7.5
0.909
9.236
17.493
25.678
33.781
41.754
49.528
57.049
64.278
71.197
77.803
84.089
90.053
95.719
101.128
106.341
111.433
116.45
121.409
126.355
131.34
136.452
141.81
147.522
153.681
160.379
167.7
175.704
184.426
193.846
203.891
214.466
225.45
236.745
248.276
259.943
271.625
283.181
294.443
305.239
315.402
324.741
333.043
340.136
345.886
350.221
353.136
354.648
354.792
353.609
351.134
347.424
342.56
336.624
329.713
321.941
313.434
304.36
294.929
285.318
275.668
266.09
256.646
247.391
238.375
229.628
221.169
213.01
205.152
197.606
190.39
183.504
176.939
170.656
164.584
158.676
152.904
147.243
141.686
136.22
130.829
125.52
120.319
115.251
110.348
105.635
101.126
96.849
92.827
89.092
85.688
82.639
79.963
77.686
75.831
74.435
73.547
73.184
73.347
74.031
75.21
76.859
78.946
81.411
84.198
87.254
90.514
93.928
97.445
101
104.532
107.965
111.204
114.18
116.841
119.132
121.026
122.502
123.551
124.208
124.514
124.51
124.257
123.81
123.233
122.595
121.955
121.376
120.934
120.692
120.702
121.024
121.701
122.771
124.272
126.196
128.528
131.242
134.287
137.609
141.139
144.809
148.57
152.379
156.19
159.966
163.673
167.271
170.729
174.01
177.073
179.894
182.463
184.78
186.863
188.742
190.458
192.05
193.545
194.96
196.303
197.584
198.806
199.974
201.088
202.155
203.189
204.201
205.202
206.191
207.16
208.096
208.977
209.786
210.507
211.131
211.653
212.073
212.392
212.615
212.75
212.804
212.777
212.671
212.486
212.226
211.896
211.504
211.059
210.57
210.048
209.503
208.944
208.379
207.813
207.251
206.698
206.155
205.629
205.122
204.641
204.19
203.773
203.396
203.063
202.776
202.539
202.353
202.221
202.144
202.123
202.159
202.253
202.406
202.618
202.889
203.219
203.606
204.047
204.542
205.085
205.674
206.304
206.97
207.669
208.395
209.144
209.911
210.692
211.482
212.277
213.074
213.869
214.659
215.443
216.219
216.988
217.749
218.504
219.253
219.996
220.735
221.471
222.203
222.933
223.659
224.383
225.106
225.833
226.568
227.316
228.083
228.874
229.699
230.566
231.483
232.454
233.487
234.589
235.768
237.039
238.409
239.883
241.461
243.143
244.923
246.799
248.756
250.773
252.827
254.897
256.971
259.049
261.128
263.201
265.26
267.294
269.302
271.301
273.296
275.291
277.291
279.298
281.333
283.441
285.651
287.985
290.44
292.989
295.603
298.26
300.922
303.547
306.071
308.405
310.487
312.27
313.707
314.754
315.335
315.345
314.705
313.357
311.269
308.443
304.89
300.621
295.693
290.182
284.191
277.852
271.263
264.5
257.647
250.792
244.06
237.608
231.566
226.037
221.117
216.854
213.27
210.371
208.089
206.341
205.046
204.076
203.306
202.613
201.839
200.831
199.438
197.427
194.49
190.463
185.365
179.469
173.356
167.591
162.575
158.789
156.887
157.224
159.588
163.09
165.987
166.609
164.118
157.952
147.45
132.561
114.339
95.173
79.201
70.86
73.198
88.952
121.131
172.05
243.158
332.717
434.43
541.367
647.32
749.428
851.178
953.617
1053.077
1140.751
1194.752
1193.593
1125.902
986.98
792.373
572.307
354.517
169.622
39.135
-36.307
-61.434
-49.635
-22.267
9.893
36.665
47.161
41.996
21.505
-9.74
-38.649
-60.254
-73.697
-80.386
-87.783
-98.361
-110.213
-121.887
-130.682
-135.8
-138.647
-140.196
-141.222
-142.526
-144.661
-147.943
-152.558
-158.409
-165.157
-172.552
-180.428
-188.561
-196.701
-204.623
-212.115
-219.024
-225.262
-230.708
-235.235
-238.742
-241.142
-242.415
-242.605
-241.798
-240.128
-237.788
-234.983
-231.923
-228.83
-225.885
-223.241
-221.044
-219.417
-218.474
-218.32
-219.047
-220.733
-223.445
-227.222
-232.056
-237.896
-244.623
-252.09
-260.14
-268.603
-277.34
-286.24
-295.186
-304.07
-312.795
-321.262
-329.369
-337.008
-344.048
-350.335
-355.76
-360.254
-363.796
-366.412
-368.137
-369.017
-369.098
-368.417
-367.025
-364.977
-362.32
-359.103
-355.399
-351.291
-346.906
-342.41
-337.936
-333.591
-329.452
-325.564
-321.965
-318.69
-315.759
-313.18
-310.961
-309.101
-307.61
-306.505
-305.782
-305.428
-305.399
-305.625
-306.056
-306.657
-307.404
-308.287
-309.299
-310.43
-311.686
-313.091
-314.664
-316.427
-318.39
-320.546
-322.891
-325.427
-328.164
-331.115
-334.282
-337.65
-341.207
-344.947
-348.87
-352.978
-357.262
-361.689
-366.22
-370.817
-375.449
-380.106
-384.783
-389.462
-394.13
-398.784
-403.438
-408.123
-412.865
-417.65
-422.43
-427.156
-431.786
-436.295
-440.674
-444.902
-448.949
-452.778
-456.353
-459.652
-462.659
-465.333
-467.603
-469.377
-470.574
-471.174
-471.217
-470.753
-469.834
-468.506
-466.812
-464.826
-462.643
-460.346
-458.008
-455.673
-453.378
-451.209
-449.283
-447.732
-446.692
-446.219
-446.304
-446.965
-448.21
-449.983
-452.225
-454.843
-457.705
-460.764
-464.027
-467.431
-470.895
-474.516
-478.388
-482.326
-486.253
-490.142
-493.592
-497.573
-503.029
-508.56
-513.744
-516.057
-512.494
-506.459
-500.204
-497.074
-501.656
-509.858
-518.219
-524.365
-524.371
-521.023
-517.138
-513.331
-511.315
-510.061
-508.246
-506.07
-503.316
-500.03
-496.447
-492.375
-487.663
-482.341
-476.407
-469.83
-462.612
-454.763
-446.289
-437.222
-427.599
-417.428
-406.728
-395.548
-383.936
-371.939
-359.608
-346.978
-334.093
-321.001
-307.754
-294.408
-281.01
-267.595
-254.195
-240.835
-227.524
-214.261
-201.028
-187.777
-174.46
-161.03
-147.442
-133.672
-119.694
-105.48
-91.005
-76.245
-61.19
-45.859
-30.285
-14.521
1.345
17.208
32.932
48.327
63.196
77.339
90.554
102.666
113.507
122.9
130.672
136.666
140.74
142.797
142.771
140.624
136.372
130.07
121.818
111.794
100.207
87.294
73.324
58.564
43.294
27.839
12.539
-2.265
-16.223
-29.006
-40.312
-49.835
-57.321
-62.559
-65.367
-65.641
-63.321
-58.379
-50.852
-40.813
-28.381
-13.743
2.863
21.18
40.9
61.688
83.197
105.032
126.815
148.184
168.769
188.241
206.292
222.628
237.007
249.249
259.205
266.791
271.967
274.703
275.036
273.061
268.904
262.765
254.865
245.43
234.727
223.029
210.607
197.739
184.684
171.657
158.876
146.544
134.847
124
114.173
105.493
98.073
91.97
87.214
83.824
81.781
81.043
81.579
83.361
86.361
90.571
95.947
102.417
109.898
118.261
127.38
137.133
147.373
157.963
168.763
179.627
190.417
201.001
211.208
220.824
229.617
237.339
243.778
248.77
252.161
253.827
253.661
251.587
247.592
241.709
234.01
224.604
213.625
201.241
187.674
173.228
158.253
143.138
128.293
114.094
100.909
89.114
79.028
70.903
65.013
61.563
60.526
61.864
65.449
71.028
78.623
88.261
99.576
112.147
125.792
140.241
155.599
172.264
189.891
208.058
226.745
245.877
265.459
285.563
305.204
322.647
336.783
346.64
351.379
350.543
343.145
328.096
307.766
287.5
271.967
266.268
269.576
274.564
280.754
290.555
312.009
363.528
452.013
576.156
730.03
893.031
1047.387
1177.161
1264.017
1296.166
1263.842
1164.341
1002.984
794.19
564.301
341.263
155.784
31.542
-29.274
-36.239
-12.132
14.97
33.667
40.626
39.317
41.423
48.043
56.85
67.469
72.908
70.512
61.589
45.231
25.286
6.851
-8.615
-20.129
-27.477
-31.635
-32.661
-29.899
-24.216
-17.482
-10.768
-4.794
0.142
4.431
8.014
10.355
11.487
11.826
11.643
11.239
10.698
9.798
8.5
6.922
5.104
3.071
0.815
-1.741
-4.624
-7.795
-11.237
-14.92
-18.803
-22.848
-27.016
-31.255
-35.521
-39.771
-43.945
-47.994
-51.885
-55.592
-59.09
-62.334
-65.269
-67.83
-69.95
-71.584
-72.705
-73.3
-73.358
-72.871
-71.819
-70.181
-67.962
-65.17
-61.812
-57.897
-53.428
-48.421
-42.916
-36.973
-30.668
-24.06
-17.189
-10.082
-2.766
4.727
12.346
20.033
27.756
35.484
43.181
50.808
58.309
65.65
72.822
79.842
86.744
93.548
100.254
106.859
113.359
119.754
126.052
132.256
138.345
144.312
150.16
155.907
161.594
167.233
172.804
178.266
183.56
188.627
193.415
197.859
201.881
205.413
208.393
210.778
212.549
213.668
214.083
213.73
212.523
210.407
207.365
203.392
198.501
192.729
186.119
178.748
170.725
162.144
153.082
143.607
133.765
123.619
113.252
102.749
92.211
81.723
71.35
61.156
51.198
41.51
32.118
23.019
14.183
5.594
-2.746
-10.828
-18.631
-26.14
-33.35
-40.254
-46.845
-53.118
-59.064
-64.679
-69.962
-74.906
-79.494
-83.706
-87.508
-90.877
-93.804
-96.285
-98.322
-99.924
-101.098
-101.859
-102.231
-102.234
-101.889
-101.219
-100.244
-98.987
-97.476
-95.74
-93.812
-91.722
-89.5
-87.174
-84.772
-82.322
-79.848
-77.374
-74.918
-72.503
-70.146
-67.868
-65.686
-63.618
-61.678
-59.88
-58.236
-56.757
-55.451
-54.324
-53.379
-52.618
-52.041
-51.645
-51.425
-51.375
-51.487
-51.751
-52.158
-52.695
-53.348
-54.105
-54.95
-55.868
-56.844
-57.86
-58.9
-59.949
-60.99
-62.008
-62.989
-63.918
-64.781
-65.568
-66.265
-66.862
-67.35
-67.719
-67.963
-68.073
-68.046
-67.877
-67.565
-67.108
-66.507
-65.766
-64.886
-63.874
-62.734
-61.474
-60.102
-58.626
-57.055
-55.4
-53.671
-51.88
-50.039
-48.16
-46.256
-44.339
-42.421
-40.515
-38.631
-36.781
-34.975
-33.224
-31.536
-29.921
-28.385
-26.938
-25.586
-24.335
-23.19
-22.156
-21.235
-20.43
-19.743
-19.174
-18.725
-18.393
-18.179
-18.082
-18.1
-18.231
-18.473
-18.825
-19.283
-19.845
-20.507
-21.264
-22.111
-23.044
-24.06
-25.153
-26.318
-27.552
-28.852
-30.216
-31.645
-33.136
-34.687
-36.296
-37.961
-39.681
-41.455
-43.279
-45.15
-47.065
-49.025
-51.033
-53.096
-55.212
-57.375
-59.571
-61.793
-64.032
-66.28
-68.526
-70.753
-72.95
-75.117
-77.264
-79.403
-81.538
-83.662
-85.759
-87.815
-89.824
-91.796
-93.738
-95.654
-97.545
-99.417
-101.291
-103.195
-105.137
-107.098
-109.033
-110.899
-112.669
-114.333
-115.89
-117.337
-118.66
-119.836
-120.852
-121.702
-122.38
-122.868
-123.128
-123.116
-122.817
-122.259
-121.501
-120.602
-119.6
-118.525
-117.4
-116.26
-115.144
-114.089
-113.119
-112.25
-111.504
-110.92
-110.556
-110.474
-110.711
-111.273
-112.141
-113.298
-114.742
-116.47
-118.478
-120.746
-123.257
-126.002
-128.995
-132.252
-135.779
-139.57
-143.608
-147.867
-152.329
-156.978
-161.794
-166.75
-171.809
-176.933
-182.092
-187.258
-192.397
-197.458
-202.366
-207.035
-211.392
-215.368
-218.898
-221.942
-224.484
-226.534
-228.144
-229.369
-230.248
-230.845
-231.244
-231.556
-231.924
-232.494
-233.405
-234.858
-237.14
-240.419
-244.667
-249.599
-254.624
-259.134
-262.673
-264.739
-264.635
-261.98
-257.045
-250.801
-245.028
-241.527
-241.312
-245.113
-253.847
-267.71
-285.438
-304.267
-319.842
-327.446
-323.427
-304.5
-267.066
-208.107
-127.788
-30.283
78.711
192.638
308.471
428.417
550.877
668.461
769.26
834.069
846.282
801.88
703.488
562.265
398.573
228.189
67.88
-63.604
-159.923
-219.416
-247.871
-262.071
-271.001
-278.009
-283.582
-281.796
-272.53
-260.695
-249.974
-244.479
-245.575
-251.594
-260.971
-272.198
-283.195
-292.039
-297.75
-299.966
-298.992
-295.708
-290.853
-285.013
-279.05
-273.852
-269.903
-267.42
-266.319
-266.271
-267.045
-268.455
-270.265
-272.247
-274.206
-275.988
-277.498
-278.691
-279.524
-279.965
-280.003
-279.635
-278.884
-277.783
-276.379
-274.741
-272.936
-271.04
-269.115
-267.203
-265.344
-263.574
-261.914
-260.364
-258.896
-257.442
-255.934
-254.321
-252.554
-250.595
-248.403
-245.927
-243.126
-239.97
-236.44
-232.527
-228.219
-223.505
-218.382
-212.87
-207.007
-200.854
-194.461
-187.861
-181.069
-174.101
-166.972
-159.7
-152.299
-144.772
-137.122
-129.365
-121.525
-113.633
-105.712
-97.772
-89.805
-81.807
-73.78
-65.74
-57.714
-49.718
-41.756
-33.829
-25.94
-18.084
-10.252
-2.409
5.504
13.533
21.713
30.061
38.567
47.231
56.056
65.045
74.203
83.507
92.904
102.329
111.704
120.929
129.886
138.422
146.35
153.502
159.733
164.921
168.979
171.812
173.321
173.414
172.001
169.032
164.51
158.459
150.939
142.045
131.901
120.678
108.598
95.867
82.683
69.228
55.656
42.142
28.877
16.058
3.896
-7.44
-17.828
-27.17
-35.404
-42.499
-48.45
-53.296
-57.125
-60.02
-62.064
-63.337
-63.9
-63.847
-63.292
-62.367
-61.232
-60.014
-58.809
-57.699
-56.743
-55.984
-55.454
-55.155
-55.058
-55.139
-55.373
-55.738
-56.228
-56.811
-57.442
-58.062
-58.597
-58.992
-59.209
-59.219
-59.006
-58.557
-57.866
-56.943
-55.814
-54.5
-53.021
-51.39
-49.615
-47.714
-45.71
-43.629
-41.503
-39.355
-37.198
-35.043
-32.897
-30.764
-28.644
-26.531
-24.413
-22.279
-20.121
-17.935
-15.715
-13.455
-11.148
-8.786
-6.362
-3.869
-1.303
1.339
4.061
6.866
9.754
12.723
15.772
18.897
22.098
25.374
28.722
32.141
35.627
39.178
42.792
46.462
50.186
53.955
57.766
61.609
65.479
69.368
73.269
77.173
81.072
84.959
88.825
92.661
96.459
100.213
103.915
107.558
111.137
114.646
118.081
121.439
124.716
127.909
131.016
134.036
136.966
139.807
142.558
145.218
147.789
150.27
152.665
154.974
157.201
159.349
161.421
163.422
165.356
167.227
169.043
170.807
172.528
174.21
175.862
177.49
179.102
180.703
182.301
183.901
185.508
187.126
188.758
190.406
192.073
193.762
195.476
197.215
198.984
200.784
202.619
204.493
206.409
208.368
210.37
212.414
214.501
216.631
218.801
221.01
223.254
225.532
227.846
230.195
232.579
234.994
237.432
239.889
242.368
244.87
247.402
249.972
252.588
255.27
258.046
260.942
263.982
267.179
270.535
274.052
277.733
281.581
285.602
289.788
294.12
298.584
303.169
307.86
312.643
317.486
322.332
327.138
331.871
336.517
341.095
345.625
350.129
354.648
359.227
363.923
368.821
373.984
379.453
385.273
391.478
398.119
405.281
413.028
421.409
430.455
440.152
450.481
461.412
472.888
484.837
497.179
509.803
522.63
535.617
548.726
561.946
575.257
588.596
601.906
615.137
628.236
641.177
653.944
666.514
678.887
691.068
703.065
714.902
726.569
738.01
749.146
759.862
770.037
779.6
788.491
796.669
804.122
810.843
816.831
822.107
826.695
830.617
833.91
836.609
838.777
840.529
842.011
843.404
844.898
846.647
848.775
851.365
854.429
857.939
861.846
866.095
870.644
875.433
880.367
885.347
890.258
894.962
899.354
903.221
906.226
908.231
909.236
909.436
909.434
909.832
911.054
913.786
918.852
926.487
936.657
948.946
961.681
973.212
982.489
987.642
987.971
985.632
982.621
981.285
983.364
985.765
986.683
990.303
1005.074
1044.996
1122.523
1239.514
1390.174
1562.128
1739.406
1909.579
2058.466
2171.162
2235.291
2237.957
2175.852
2055.117
1887.446
1694.199
1499
1323.862
1187.563
1100.219
1060.072
1058.097
1084.347
1126.089
1174.79
1222.886
1257.441
1272.587
1266.968
1245.306
1221.876
1205.132
1198.002
1199.134
1201.352
1201.814
1201.117
1200.25
1201.807
1206.292
1212.418
1219.385
1226.185
1232.021
1236.881
1240.822
1243.968
1246.692
1249.278
1251.929
1254.894
1258.436
1262.797
1268.161
1274.66
1282.356
1291.118
1300.658
1310.513
1319.995
1328.357
1334.937
1339.098
1340.214
1338.09
1332.872
1324.909
1314.803
1302.823
1288.876
1272.586
1253.345
1229.916
1200.316
1162.332
1113.595
1052.369
977.464
888.215
784.562
667.292
538.635
401.501
259.295
115.405
-26.743
-163.665
-292.268
-410.01
-515.762
-609.281
-690.956
-761.735
-823.151
-877.366
-926.445
-972.276
-1015.971
-1057.99
-1098.504
-1137.311
-1173.785
-1206.893
-1235.828
-1260.036
-1279.392
-1294.258
-1305.108
-1312.529
-1317.286
-1320.271
-1322.183
-1323.524
-1324.607
-1325.482
-1326.165
-1326.684
-1327.024
-1327.149
-1327.059
-1326.766
-1326.291
-1325.691
-1324.995
-1324.193
-1323.273
-1322.195
-1320.928
-1319.479
-1317.873
-1316.162
-1314.436
-1312.768
-1311.225
-1309.882
-1308.79
-1307.987
-1307.52
-1307.406
-1307.667
-1308.347
-1309.494
-1311.175
-1313.466
-1316.41
-1320.032
-1324.343
-1329.308
-1334.883
-1341.01
-1347.597
-1354.577
-1361.893
-1369.482
-1377.296
-1385.277
-1393.331
-1401.352
-1409.218
-1416.765
-1423.847
-1430.318
-1436.031
-1440.891
-1444.834
-1447.82
-1449.851
-1450.924
-1451.023
-1450.152
-1448.312
-1445.515
-1441.812
-1437.26
-1431.937
-1425.968
-1419.486
-1412.63
-1405.557
-1398.378
-1391.172
-1384.001
-1376.895
-1369.873
-1362.963
-1356.176
-1349.52
-1343.005
-1336.628
-1330.374
-1324.222
-1318.111
-1311.974
-1305.739
-1299.318
-1292.647
-1285.68
-1278.386
-1270.761
-1262.823
-1254.59
-1246.081
-1237.316
-1228.298
-1219.031
-1209.531
-1199.821
-1189.935
-1179.909
-1169.78
-1159.593
-1149.399
-1139.246
-1129.158
-1119.128
-1109.114
-1099.075
-1088.981
-1078.814
-1068.568
-1058.236
-1047.8
-1037.238
-1026.533
-1015.674
-1004.649
-993.433
-981.982
-970.247
-958.208
-945.887
-933.336
-920.609
-907.739
-894.75
-881.659
-868.492
-855.281
-842.055
-828.829
-815.614
-802.428
-789.303
-776.292
-763.45
-750.808
-738.367
-726.107
-714.008
-702.068
-690.29
-678.676
-667.22
-655.915
-644.765
-633.785
-622.992
-612.391
-601.98
-591.742
-581.659
-571.728
-561.957
-552.36
-542.952
-533.737
-524.719
-515.905
-507.303
-498.916
-490.74
-482.758
-474.957
-467.325
-459.859
-452.556
-445.415
-438.428
-431.589
-424.893
-418.333
-411.902
-405.588
-399.371
-393.234
-387.169
-381.173
-375.251
-369.411
-363.661
-358.008
-352.467
-347.047
-341.752
-336.578
-331.505
-326.512
-321.589
-316.736
-311.961
-307.279
-302.684
-298.165
-293.707
-289.279
-284.853
-280.394
-275.84
-271.144
-266.281
-261.247
-256.071
-250.802
-245.471
-240.1
-234.705
-229.291
-223.887
-218.539
-213.287
-208.198
-203.337
-198.78
-194.637
-191.01
-187.96
-185.521
-183.679
-182.38
-181.585
-181.257
-181.354
-181.853
-182.696
-183.8
-185.08
-186.427
-187.727
-188.87
-189.712
-190.104
-189.93
-189.098
-187.561
-185.313
-182.343
-178.634
-174.176
-168.944
-162.959
-156.278
-148.98
-141.166
-132.937
-124.386
-115.629
-106.805
-98.044
-89.469
-81.179
-73.244
-65.755
-58.818
-52.554
-47.087
-42.488
-38.787
-35.983
-34.056
-32.997
-32.802
-33.445
-34.871
-37.019
-39.819
-43.207
-47.114
-51.433
-56.019
-60.699
-65.299
-69.694
-73.787
-77.5
-80.762
-83.482
-85.567
-86.956
-87.603
-87.471
-86.544
-84.83
-82.367
-79.261
-75.646
-71.663
-67.465
-63.201
-59.026
-55.097
-51.551
-48.506
-46.107
-44.575
-44.051
-44.497
-45.636
-46.972
-48.014
-48.414
-47.794
-45.503
-40.999
-34.318
-26.188
-17.892
-10.637
-5.072
-1.586
-1.112
-4.756
-11.206
-16.625
-17.035
-8.283
9.187
30.207
54.825
86.719
133.313
206.069
307.979
433.97
575.122
720.169
860.414
986.847
1089.414
1153.997
1163.937
1113.01
1003.026
844.114
658.804
467.143
287.516
140.4
35.655
-23.825
-41.153
-29.058
0.821
40.369
81.669
117.644
141.55
148.578
140.506
125.921
113.533
108.062
108.935
111.092
111.132
109.388
107.724
108.575
112.771
119.315
127.082
135.143
142.835
149.717
155.507
160.12
163.672
166.448
168.677
170.463
171.916
173.168
174.289
175.35
176.378
177.325
178.206
179.071
179.937
180.815
181.696
182.537
183.325
184.061
184.736
185.356
185.939
186.509
187.12
187.828
188.671
189.694
190.922
192.355
193.995
195.839
197.871
200.072
202.411
204.838
207.297
209.738
212.109
214.353
216.415
218.242
219.803
221.086
222.101
222.88
223.482
223.979
224.453
225.015
225.768
226.82
228.289
230.261
232.801
235.972
239.819
244.379
249.676
255.703
262.423
269.791
277.722
286.126
294.907
303.941
313.122
322.357
331.557
340.673
349.694
358.603
367.385
376.026
384.499
392.792
400.91
408.859
416.655
424.322
431.87
439.314
446.647
453.827
460.784
467.409
473.544
479.034
483.747
487.561
490.378
492.112
492.673
491.977
489.949
486.518
481.626
475.245
467.375
458.057
447.383
435.488
422.548
408.767
394.332
379.413
364.176
348.771
333.353
318.092
303.151
288.688
274.861
261.796
249.587
238.309
227.989
218.625
210.182
202.592
195.787
189.713
184.314
179.529
175.298
171.529
168.122
164.984
162.018
159.144
156.307
153.453
150.55
147.587
144.57
141.523
138.477
135.453
132.467
129.541
126.697
123.975
121.426
119.086
116.987
115.154
113.599
112.332
111.36
110.675
110.257
110.079
110.107
110.307
110.653
111.114
111.66
112.262
112.89
113.528
114.176
114.839
115.517
116.208
116.904
117.589
118.252
118.881
119.46
119.99
120.472
120.899
121.27
121.579
121.8
121.901
121.826
121.503
120.873
119.897
118.551
116.851
114.835
112.549
110.063
107.431
104.696
101.915
99.143
96.431
93.855
91.493
89.444
87.844
86.817
86.456
86.835
87.963
89.805
92.31
95.388
98.946
102.91
107.179
111.641
116.203
120.757
125.185
129.377
133.178
136.433
139.022
140.839
141.832
142.005
141.364
139.957
137.848
135.088
131.761
127.984
123.853
119.475
114.971
110.432
105.976
101.732
97.792
94.244
91.152
88.54
86.433
84.848
83.778
83.228
83.177
83.559
84.314
85.37
86.634
88.047
89.547
91.059
92.538
93.943
95.236
96.4
97.414
98.25
98.884
99.284
99.429
99.33
99.005
98.483
97.814
97.026
96.139
95.186
94.181
93.132
92.052
90.939
89.792
88.62
87.435
86.256
85.104
83.978
82.878
81.795
80.715
79.637
78.559
77.469
76.361
75.23
74.065
72.866
71.636
70.364
69.046
67.678
66.265
64.825
63.38
61.942
60.52
59.11
57.709
56.329
54.983
53.68
52.445
51.291
50.235
49.312
48.543
47.921
47.43
47.021
46.635
46.232
45.784
45.268
44.669
43.954
43.092
42.059
40.817
39.332
37.564
35.45
32.946
30.042
26.741
23.081
19.124
14.907
10.459
5.815
1.003
-3.932
-8.933
-13.958
-18.954
-23.859
-28.612
-33.124
-37.318
-41.14
-44.535
-47.474
-49.945
-51.919
-53.363
-54.275
-54.677
-54.617
-54.184
-53.453
-52.471
-51.32
-50.109
-48.977
-48.089
-47.586
-47.556
-48.143
-49.595
-52.058
-55.521
-59.721
-63.996
-67.695
-70.39
-71.555
-70.508
-66.912
-60.876
-53.224
-45.935
-40.882
-39.049
-41.571
-49.642
-63.354
-81.916
-102.224
-117.888
-124.205
-118.557
-99.64
-68.797
-23.594
40.497
126.105
235.591
364.779
505.245
650.099
789.317
911.274
1004.571
1052.555
1039.952
961.559
818.983
625.405
405.298
184.135
-12.604
-164.433
-261.604
-306.151
-307.495
-276.778
-228.637
-173.299
-120.393
-84.389
-70.159
-77.44
-100.126
-122.642
-136.882
-140.994
-136.767
-131.547
-128.036
-125.276
-122.299
-116.847
-108.713
-99.451
-90.088
-81.758
-75.374
-71.127
-69.085
-69.176
-71.048
-74.398
-79.009
-84.636
-91.017
-97.891
-104.948
-111.912
-118.576
-124.735
-130.212
-134.85
-138.474
-140.951
-142.215
-142.249
-141.105
-138.883
-135.673
-131.575
-126.708
-121.211
-115.267
-109.056
-102.728
-96.424
-90.252
-84.322
-78.776
-73.74
-69.302
-65.507
-62.332
-59.707
-57.574
-55.876
-54.535
-53.463
-52.541
-51.633
-50.639
-49.474
-48.061
-46.318
-44.126
-41.357
-37.906
-33.704
-28.731
-23.011
-16.563
-9.401
-1.573
6.859
15.8
25.133
34.769
44.644
54.689
64.822
74.945
84.942
94.71
104.178
113.294
122.02
130.319
138.157
145.527
152.454
158.985
165.182
171.092
176.748
182.19
187.478
192.663
197.787
202.888
207.975
213.064
218.185
223.347
228.548
233.755
238.903
243.911
248.695
253.153
257.172
260.628
263.374
265.289
266.283
266.266
265.159
262.871
259.297
254.368
248.062
240.382
231.368
221.076
209.579
196.992
183.479
169.223
154.427
139.279
123.945
108.609
93.469
78.744
64.653
51.372
39.029
27.725
17.541
8.535
0.743
-5.849
-11.309
-15.72
-19.177
-21.773
-23.602
-24.783
-25.465
-25.819
-26.003
-26.143
-26.334
-26.653
-27.171
-27.942
-29.002
-30.354
-31.971
-33.82
-35.871
-38.096
-40.457
-42.896
-45.34
-47.7
-49.907
-51.912
-53.679
-55.181
-56.398
-57.314
-57.93
-58.263
-58.334
-58.166
-57.775
-57.176
-56.392
-55.451
-54.389
-53.243
-52.042
-50.805
-49.547
-48.282
-47.018
-45.761
-44.511
-43.262
-42.009
-40.749
-39.483
-38.211
-36.932
-35.642
-34.339
-33.019
-31.683
-30.33
-28.96
-27.575
-26.175
-24.764
-23.346
-21.924
-20.503
-19.086
-17.675
-16.272
-14.879
-13.5
-12.136
-10.788
-9.46
-8.153
-6.871
-5.619
-4.398
-3.213
-2.068
-0.966
0.088
1.091
2.038
2.927
3.754
4.515
5.209
5.833
6.384
6.862
7.265
7.592
7.843
8.017
8.115
8.137
8.085
7.959
7.761
7.491
7.153
6.749
6.28
5.749
5.158
4.512
3.813
3.065
2.273
1.44
0.571
-0.328
-1.254
-2.201
-3.165
-4.142
-5.128
-6.119
-7.11
-8.1
-9.084
-10.06
-11.027
-11.981
-12.922
-13.847
-14.756
-15.648
-16.522
-17.376
-18.209
-19.021
-19.812
-20.58
-21.327
-22.052
-22.757
-23.443
-24.114
-24.769
-25.412
-26.041
-26.657
-27.261
-27.851
-28.425
-28.982
-29.516
-30.027
-30.513
-30.97
-31.395
-31.781
-32.12
-32.406
-32.637
-32.814
-32.939
-33.017
-33.055
-33.068
-33.078
-33.103
-33.157
-33.252
-33.392
-33.587
-33.843
-34.165
-34.56
-35.026
-35.547
-36.109
-36.691
-37.256
-37.769
-38.18
-38.426
-38.459
-38.243
-37.751
-36.975
-35.909
-34.555
-32.936
-31.079
-29.025
-26.833
-24.569
-22.306
-20.151
-18.209
-16.594
-15.44
-14.85
-14.913
-15.699
-17.245
-19.568
-22.658
-26.469
-30.934
-35.977
-41.499
-47.388
-53.521
-59.735
-65.864
-71.746
-77.205
-82.096
-86.287
-89.68
-92.239
-93.975
-94.954
-95.27
-95.01
-94.293
-93.281
-92.152
-91.095
-90.312
-89.943
-90.182
-91.363
-93.675
-97.121
-101.511
-106.316
-110.978
-115.128
-118.206
-119.362
-118.111
-114.513
-109.121
-103.338
-98.684
-96.056
-96.556
-101.861
-111.62
-122.999
-132.974
-136.975
-133.856
-128.022
-119.74
-105.316
-75.739
-16.401
79.083
207.233
357.559
514.497
667.403
808.564
928.468
1016.563
1056.589
1034.2
946.276
796.784
602.276
389.649
183.002
7.463
-117.983
-191.534
-216.901
-204.872
-173.338
-131.856
-90.976
-63.77
-53.24
-61.626
-84.737
-107.896
-124.076
-130.897
-129.404
-127.963
-129.776
-133.203
-136.813
-137.477
-134.148
-128.306
-120.977
-113.049
-105.415
-98.583
-92.852
-88.438
-85.279
-83.124
-81.857
-81.47
-81.92
-83.143
-85.064
-87.58
-90.613
-94.113
-97.982
-102.099
-106.344
-110.627
-114.896
-119.119
-123.271
-127.318
-131.214
-134.894
-138.269
-141.245
-143.728
-145.652
-146.98
-147.696
-147.804
-147.316
-146.254
-144.635
-142.471
-139.768
-136.528
-132.758
-128.47
-123.698
-118.491
-112.91
-107.029
-100.906
-94.577
-88.067
-81.389
-74.544
-67.533
-60.354
-53.001
-45.476
-37.79
-29.958
-22.004
-13.95
-5.81
2.408
10.702
19.07
27.496
35.961
44.447
52.927
61.381
69.797
78.157
86.453
94.693
102.887
111.055
119.23
127.428
135.655
143.911
152.181
160.45
168.697
176.879
184.954
192.865
200.536
207.89
214.837
221.262
227.059
232.12
236.321
239.57
241.792
242.919
242.912
241.744
239.403
235.906
231.289
225.597
218.905
211.301
202.888
193.802
184.169
174.109
163.758
153.224
142.605
131.997
121.474
111.095
100.918
90.979
81.301
71.907
62.802
53.978
45.42
37.089
28.957
21.006
13.214
5.572
-1.924
-9.279
-16.485
-23.528
-30.395
-37.07
-43.535
-49.778
-55.78
-61.521
-66.977
-72.123
-76.939
-81.415
-85.544
-89.326
-92.765
-95.868
-98.647
-101.122
-103.311
-105.23
-106.899
-108.333
-109.552
-110.576
-111.425
-112.121
-112.683
-113.129
-113.476
-113.74
-113.937
-114.079
-114.178
-114.245
-114.289
-114.32
-114.347
-114.38
-114.427
-114.493
-114.585
-114.708
-114.866
-115.06
-115.291
-115.559
-115.862
-116.198
-116.564
-116.955
-117.368
-117.798
-118.238
-118.682
-119.126
-119.561
-119.982
-120.382
-120.754
-121.093
-121.391
-121.643
-121.844
-121.988
-122.071
-122.088
-122.035
-121.909
-121.707
-121.427
-121.067
-120.625
-120.102
-119.496
-118.81
-118.044
-117.201
-116.283
-115.294
-114.239
-113.121
-111.946
-110.718
-109.444
-108.128
-106.778
-105.398
-103.995
-102.576
-101.147
-99.714
-98.286
-96.867
-95.465
-94.088
-92.741
-91.432
-90.167
-88.952
-87.794
-86.699
-85.673
-84.72
-83.846
-83.054
-82.35
-81.736
-81.215
-80.791
-80.464
-80.236
-80.109
-80.083
-80.158
-80.336
-80.616
-80.998
-81.48
-82.064
-82.746
-83.527
-84.403
-85.373
-86.431
-87.575
-88.8
-90.101
-91.468
-92.897
-94.377
-95.903
-97.464
-99.053
-100.659
-102.274
-103.891
-105.5
-107.093
-108.661
-110.192
-111.677
-113.106
-114.471
-115.759
-116.96
-118.062
-119.055
-119.931
-120.68
-121.287
-121.741
-122.025
-122.127
-122.042
-121.765
-121.293
-120.63
-119.78
-118.755
-117.577
-116.263
-114.826
-113.278
-111.625
-109.878
-108.056
-106.174
-104.248
-102.285
-100.282
-98.235
-96.138
-93.973
-91.709
-89.31
-86.727
-83.927
-80.898
-77.632
-74.136
-70.417
-66.481
-62.346
-58.049
-53.634
-49.163
-44.707
-40.34
-36.166
-32.309
-28.89
-26.04
-23.866
-22.439
-21.827
-22.08
-23.23
-25.308
-28.318
-32.234
-37.02
-42.616
-48.925
-55.84
-63.22
-70.893
-78.698
-86.468
-94.053
-101.33
-108.178
-114.486
-120.166
-125.143
-129.351
-132.762
-135.36
-137.17
-138.301
-138.874
-139.049
-138.993
-138.827
-138.698
-138.774
-139.205
-140.132
-141.668
-143.838
-146.72
-150.524
-155.287
-160.89
-167.027
-173.038
-178.308
-182.438
-184.831
-184.676
-181.563
-175.483
-166.829
-156.813
-146.679
-137.196
-129.572
-125.48
-124.38
-123.568
-120.479
-110.955
-94.877
-78.111
-61.308
-42.253
-13.35
42.349
133.237
259.679
415.476
582.284
744.404
886.729
993.258
1053.417
1055.373
994.407
875.563
710.164
519.442
326.711
152.875
14.758
-78.777
-127.894
-139.379
-123.386
-93.185
-60.542
-35.662
-26.469
-34.07
-54.615
-79.213
-99.54
-112.723
-119.575
-124.989
-132.206
-140.384
-147.845
-152.074
-151.919
-148.296
-142.274
-134.847
-126.976
-119.398
-112.582
-106.833
-102.183
-98.424
-95.436
-93.17
-91.509
-90.323
-89.496
-88.927
-88.614
-88.601
-88.868
-89.34
-89.916
-90.482
-90.963
-91.33
-91.567
-91.662
-91.605
-91.395
-91.041
-90.554
-89.932
-89.144
-88.124
-86.81
-85.163
-83.171
-80.837
-78.172
-75.175
-71.844
-68.175
-64.167
-59.823
-55.148
-50.146
-44.841
-39.261
-33.455
-27.486
-21.398
-15.226
-8.996
-2.729
3.55
9.813
16.045
22.224
28.312
34.286
40.126
45.832
51.443
56.992
62.511
68.032
73.562
79.105
84.673
90.279
95.944
101.7
107.566
113.59
119.849
126.409
133.332
140.638
148.282
156.222
164.41
172.8
181.365
190.065
198.851
207.662
216.425
225.055
233.464
241.53
249.088
255.969
261.991
267.032
271.04
273.986
275.85
276.611
276.243
274.73
272.08
268.309
263.441
257.509
250.548
242.637
233.896
224.478
214.552
204.243
193.615
182.7
171.535
160.171
148.67
137.09
125.475
113.871
102.344
90.976
79.846
69
58.454
48.185
38.167
28.409
18.958
9.887
1.255
-6.906
-14.57
-21.712
-28.31
-34.353
-39.87
-44.921
-49.561
-53.822
-57.715
-61.231
-64.367
-67.146
-69.606
-71.799
-73.765
-75.53
-77.12
-78.567
-79.891
-81.104
-82.189
-83.103
-83.816
-84.317
-84.607
-84.7
-84.606
-84.324
-83.858
-83.212
-82.395
-81.42
-80.296
-79.029
-77.633
-76.128
-74.546
-72.931
-71.318
-69.731
-68.191
-66.712
-65.308
-63.993
-62.776
-61.657
-60.64
-59.726
-58.919
-58.224
-57.639
-57.163
-56.788
-56.506
-56.308
-56.188
-56.137
-56.148
-56.212
-56.321
-56.468
-56.648
-56.854
-57.077
-57.309
-57.539
-57.759
-57.958
-58.127
-58.258
-58.339
-58.363
-58.321
-58.207
-58.013
-57.734
-57.363
-56.897
-56.33
-55.661
-54.887
-54.006
-53.017
-51.923
-50.722
-49.419
-48.015
-46.515
-44.923
-43.245
-41.487
-39.655
-37.756
-35.798
-33.789
-31.736
-29.648
-27.534
-25.403
-23.263
-21.125
-18.997
-16.888
-14.808
-12.766
-10.769
-8.827
-6.947
-5.137
-3.405
-1.757
-0.2
1.26
2.618
3.869
5.009
6.035
6.945
7.739
8.415
8.974
9.417
9.747
9.968
10.082
10.094
10.01
9.835
9.576
9.241
8.836
8.37
7.851
7.289
6.691
6.067
5.428
4.782
4.14
3.511
2.908
2.34
1.818
1.354
0.959
0.643
0.417
0.291
0.274
0.375
0.602
0.963
1.464
2.111
2.909
3.861
4.971
6.239
7.667
9.254
10.999
12.897
14.945
17.139
19.472
21.936
24.525
27.229
30.036
32.937
35.918
38.965
42.064
45.195
48.341
51.481
54.594
57.655
60.642
63.53
66.295
68.915
71.365
73.625
75.673
77.489
79.052
80.344
81.342
82.03
82.391
82.411
82.079
81.389
80.336
78.917
77.132
74.975
72.441
69.527
66.227
62.538
58.466
54.023
49.234
44.141
38.789
33.228
27.514
21.697
15.836
9.989
4.217
-1.413
-6.824
-11.947
-16.702
-21.019
-24.846
-28.158
-30.981
-33.376
-35.425
-37.211
-38.809
-40.316
-41.865
-43.603
-45.683
-48.251
-51.418
-55.341
-60.28
-66.353
-73.468
-81.319
-89.265
-96.644
-103.001
-107.752
-110.121
-109.709
-106.566
-101.317
-95.506
-90.582
-87.362
-86.68
-89.339
-95.36
-103.787
-112.438
-117.56
-115.109
-101.608
-73.643
-27.756
37.701
121.337
219.96
328.37
443.162
564.836
692.776
823.164
944.124
1037.136
1085.186
1075.561
1008.506
894.39
744.838
576.734
404.64
241.058
103.44
2.172
-59.008
-81.982
-78.953
-60.789
-36.855
-16.376
-2.986
-1.054
-11.085
-27.031
-44.834
-59.663
-69.371
-77.583
-85.527
-93.054
-99.742
-103.116
-102.318
-98.18
-91.485
-83.354
-74.886
-66.838
-59.727
-53.882
-49.327
-45.829
-43.234
-41.45
-40.326
-39.707
-39.452
-39.422
-39.563
-39.915
-40.482
-41.205
-42.01
-42.792
-43.468
-44.021
-44.455
-44.776
-45.004
-45.152
-45.236
-45.291
-45.352
-45.421
-45.475
-45.448
-45.261
-44.876
-44.278
-43.469
-42.46
-41.241
-39.794
-38.114
-36.198
-34.042
-31.644
-28.988
-26.056
-22.857
-19.418
-15.791
-12.04
-8.204
-4.302
-0.343
3.681
7.771
11.923
16.151
20.468
24.879
29.382
33.962
38.591
43.254
47.948
52.678
57.466
62.319
67.233
72.197
77.19
82.197
87.215
92.234
97.24
102.236
107.232
112.259
117.373
122.612
127.994
133.519
139.161
144.896
150.705
156.559
162.434
168.288
174.058
179.684
185.109
190.253
195.028
199.311
202.936
205.77
207.71
208.674
208.614
207.486
205.249
201.88
197.361
191.691
184.887
176.968
167.951
157.878
146.807
134.841
122.134
108.818
95.006
80.804
66.303
51.595
36.777
21.941
7.173
-7.431
-21.775
-35.758
-49.28
-62.255
-74.607
-86.293
-97.308
-107.645
-117.294
-126.253
-134.52
-142.101
-149.013
-155.281
-160.93
-166.011
-170.593
-174.742
-178.525
-182.006
-185.244
-188.287
-191.165
-193.901
-196.509
-199
-201.382
-203.658
-205.828
-207.882
-209.808
-211.579
-213.155
-214.502
-215.598
-216.418
-216.947
-217.171
-217.086
-216.696
-216.017
-215.066
-213.859
-212.415
-210.752
-208.896
-206.874
-204.717
-202.463
-200.141
-197.777
-195.393
-193.009
-190.64
-188.302
-186.002
-183.742
-181.526
-179.357
-177.24
-175.177
-173.172
-171.222
-169.328
-167.487
-165.698
-163.961
-162.275
-160.639
-159.052
-157.514
-156.026
-154.588
-153.2
-151.86
-150.566
-149.314
-148.102
-146.926
-145.782
-144.666
-143.574
-142.502
-141.445
-140.403
-139.37
-138.344
-137.321
-136.301
-135.279
-134.255
-133.226
-132.19
-131.147
-130.094
-129.03
-127.953
-126.863
-125.758
-124.635
-123.494
-122.333
-121.151
-119.947
-118.718
-117.465
-116.186
-114.881
-113.55
-112.193
-110.81
-109.403
-107.973
-106.524
-105.058
-103.577
-102.084
-100.582
-99.073
-97.558
-96.04
-94.518
-92.992
-91.465
-89.939
-88.415
-86.898
-85.391
-83.898
-82.424
-80.976
-79.56
-78.182
-76.845
-75.555
-74.317
-73.139
-72.032
-71.002
-70.049
-69.174
-68.376
-67.648
-66.982
-66.366
-65.781
-65.21
-64.639
-64.056
-63.457
-62.835
-62.188
-61.512
-60.801
-60.057
-59.296
-58.533
-57.794
-57.109
-56.506
-56.02
-55.696
-55.568
-55.661
-55.996
-56.578
-57.406
-58.472
-59.762
-61.267
-62.964
-64.81
-66.745
-68.69
-70.562
-72.286
-73.784
-74.968
-75.762
-76.096
-75.906
-75.15
-73.797
-71.817
-69.187
-65.87
-61.845
-57.125
-51.759
-45.83
-39.429
-32.632
-25.524
-18.201
-10.762
-3.316
4.029
11.188
18.068
24.564
30.555
35.894
40.445
44.12
46.869
48.684
49.561
49.486
48.459
46.5
43.65
39.964
35.498
30.303
24.453
18.066
11.298
4.34
-2.625
-9.454
-16.033
-22.268
-28.068
-33.335
-37.991
-41.982
-45.274
-47.838
-49.65
-50.69
-50.978
-50.614
-49.76
-48.614
-47.367
-46.162
-45.102
-44.32
-43.965
-44.162
-45.029
-46.629
-48.946
-52.091
-56.248
-61.384
-67.342
-73.72
-79.737
-84.758
-88.349
-89.766
-88.273
-83.728
-76.085
-65.882
-54.777
-44.031
-34.485
-27.771
-23.955
-20.453
-15.475
-6.594
7.471
22.476
36.54
53.528
80.195
128.186
207.506
317.128
450.706
600.577
754.182
900.686
1028.187
1115.018
1142.534
1101.006
988.02
820.511
626.802
432.094
263.171
138.413
60.348
26.411
24.879
34.639
41.703
38.551
21.477
-0.773
-18.706
-29.831
-31.031
-25.49
-20.791
-19.21
-22.102
-29.151
-36.176
-40.628
-41.997
-40.031
-35.567
-29.644
-22.639
-15.012
-7.625
-1.275
3.605
6.774
8.28
8.383
7.23
4.98
1.899
-1.749
-5.731
-9.837
-13.905
-17.802
-21.368
-24.446
-26.905
-28.651
-29.643
-29.87
-29.351
-28.129
-26.26
-23.818
-20.883
-17.528
-13.825
-9.841
-5.632
-1.259
3.223
7.76
12.3
16.797
21.221
25.546
29.76
33.866
37.878
41.813
45.689
49.518
53.304
57.044
60.722
64.314
67.799
71.163
74.414
77.578
80.693
83.805
86.967
90.218
93.578
97.064
100.682
104.431
108.32
112.369
116.611
121.094
125.872
130.973
136.412
142.174
148.223
154.515
160.987
167.586
174.287
181.08
187.973
194.99
202.137
209.397
216.744
224.124
231.468
238.725
245.831
252.734
259.395
265.776
271.848
277.575
282.884
287.676
291.84
295.251
297.806
299.433
300.059
299.646
298.181
295.659
292.105
287.559
282.057
275.644
268.382
260.335
251.599
242.297
232.539
222.45
212.146
201.724
191.293
180.939
170.716
160.667
150.815
141.163
131.724
122.499
113.456
104.584
95.863
87.277
78.849
70.588
62.496
54.581
46.838
39.277
31.932
24.841
18.039
11.572
5.479
-0.188
-5.347
-9.946
-13.962
-17.391
-20.281
-22.666
-24.562
-25.995
-26.985
-27.559
-27.76
-27.626
-27.177
-26.451
-25.484
-24.331
-23.071
-21.758
-20.417
-19.057
-17.657
-16.206
-14.71
-13.172
-11.59
-9.967
-8.304
-6.612
-4.915
-3.23
-1.565
0.083
1.73
3.379
5.019
6.638
8.211
9.72
11.157
12.509
13.763
14.91
15.947
16.877
17.713
18.462
19.129
19.716
20.223
20.653
21.011
21.304
21.537
21.719
21.854
21.951
22.018
22.064
22.092
22.107
22.112
22.108
22.099
22.089
22.08
22.076
22.079
22.091
22.117
22.158
22.217
22.293
22.387
22.498
22.626
22.769
22.926
23.094
23.271
23.455
23.645
23.837
24.03
24.221
24.407
24.587
24.758
24.918
25.064
25.195
25.308
25.402
25.474
25.521
25.543
25.537
25.501
25.434
25.333
25.196
25.022
24.808
24.553
24.256
23.916
23.532
23.103
22.629
22.109
21.544
20.935
20.28
19.58
18.837
18.05
17.221
16.35
15.439
14.489
13.502
12.479
11.423
10.337
9.222
8.082
6.922
5.747
4.561
3.369
2.177
0.989
-0.188
-1.35
-2.492
-3.61
-4.7
-5.757
-6.775
-7.748
-8.671
-9.536
-10.338
-11.07
-11.724
-12.294
-12.772
-13.156
-13.44
-13.621
-13.693
-13.646
-13.477
-13.186
-12.777
-12.256
-11.629
-10.908
-10.107
-9.249
-8.356
-7.448
-6.546
-5.657
-4.789
-3.955
-3.169
-2.444
-1.79
-1.199
-0.658
-0.163
0.299
0.735
1.162
1.619
2.134
2.722
3.394
4.133
4.919
5.736
6.565
7.38
8.143
8.791
9.247
9.455
9.357
8.9
8.028
6.652
4.705
2.143
-1.052
-4.858
-9.24
-14.168
-19.602
-25.483
-31.728
-38.227
-44.845
-51.472
-58.002
-64.336
-70.37
-75.969
-81.023
-85.455
-89.244
-92.441
-95.107
-97.305
-99.084
-100.493
-101.63
-102.632
-103.652
-104.822
-106.248
-107.99
-110.199
-113.154
-116.95
-121.534
-126.653
-131.675
-136.022
-139.313
-140.926
-140.089
-136.559
-130.361
-121.879
-112.732
-104.54
-98.336
-95.978
-98.187
-102.895
-108.307
-112.368
-113.769
-115.967
-120.832
-124.107
-116.983
-85.058
-16.251
90.656
229.039
385.878
546.649
701.453
838.718
945.432
1007.304
1007.323
938.225
803.504
617.052
405.079
195.267
11.983
-128.161
-219.342
-266.027
-278.285
-264.248
-233.606
-193.725
-152.17
-122.48
-111.647
-120.861
-144.76
-169.469
-186.932
-194.99
-195.832
-196.261
-198.589
-201.866
-204.759
-204.887
-202.007
-197.473
-192.208
-187.292
-183.641
-181.46
-180.835
-181.735
-183.844
-186.919
-190.81
-195.327
-200.251
-205.398
-210.588
-215.652
-220.478
-224.938
-228.874
-232.178
-234.775
-236.631
-237.759
-238.193
-237.969
-237.137
-235.763
-233.909
-231.639
-229.019
-226.11
-222.983
-219.709
-216.361
-213.007
-209.696
-206.46
-203.314
-200.26
-197.29
-194.389
-191.538
-188.713
-185.893
-183.058
-180.19
-177.276
-174.296
-171.225
-168.039
-164.708
-161.207
-157.518
-153.631
-149.537
-145.233
-140.723
-136.015
-131.131
-126.088
-120.897
-115.568
-110.102
-104.501
-98.777
-92.943
-87.021
-81.027
-74.968
-68.843
-62.655
-56.393
-50.037
-43.557
-36.897
-30.008
-22.863
-15.451
-7.781
0.126
8.251
16.573
25.061
33.679
42.373
51.077
59.724
68.233
76.501
84.406
91.794
98.508
104.421
109.433
113.469
116.48
118.422
119.262
118.988
117.592
115.079
111.471
106.788
101.057
94.327
86.67
78.189
69.016
59.271
49.051
38.447
27.528
16.36
5.015
-6.444
-17.956
-29.451
-40.858
-52.098
-63.066
-73.661
-83.797
-93.404
-102.449
-110.914
-118.765
-125.979
-132.525
-138.377
-143.526
-147.972
-151.714
-154.763
-157.151
-158.923
-160.161
-160.97
-161.443
-161.667
-161.704
-161.594
-161.383
-161.111
-160.81
-160.505
-160.212
-159.933
-159.681
-159.466
-159.281
-159.11
-158.917
-158.639
-158.232
-157.657
-156.886
-155.909
-154.717
-153.304
-151.676
-149.849
-147.838
-145.666
-143.348
-140.894
-138.321
-135.651
-132.914
-130.147
-127.378
-124.63
-121.922
-119.27
-116.683
-114.173
-111.74
-109.382
-107.096
-104.881
-102.735
-100.662
-98.662
-96.733
-94.873
-93.079
-91.349
-89.684
-88.081
-86.54
-85.059
-83.637
-82.274
-80.97
-79.726
-78.539
-77.406
-76.324
-75.291
-74.302
-73.355
-72.445
-71.568
-70.719
-69.895
-69.093
-68.307
-67.536
-66.773
-66.017
-65.263
-64.508
-63.749
-62.983
-62.206
-61.415
-60.607
-59.778
-58.926
-58.047
-57.137
-56.193
-55.215
-54.201
-53.148
-52.058
-50.929
-49.765
-48.566
-47.336
-46.076
-44.789
-43.477
-42.143
-40.789
-39.418
-38.031
-36.632
-35.224
-33.813
-32.406
-31.008
-29.627
-28.269
-26.943
-25.654
-24.409
-23.211
-22.064
-20.972
-19.94
-18.976
-18.092
-17.294
-16.584
-15.964
-15.434
-14.984
-14.605
-14.275
-13.972
-13.681
-13.392
-13.103
-12.823
-12.555
-12.305
-12.082
-11.882
-11.706
-11.559
-11.436
-11.339
-11.282
-11.286
-11.388
-11.637
-12.054
-12.648
-13.415
-14.325
-15.344
-16.428
-17.515
-18.559
-19.519
-20.356
-21.044
-21.561
-21.863
-21.906
-21.625
-20.945
-19.821
-18.226
-16.148
-13.61
-10.648
-7.317
-3.702
0.122
4.095
8.16
12.274
16.401
20.484
24.47
28.295
31.877
35.157
38.092
40.641
42.794
44.545
45.9
46.891
47.538
47.85
47.838
47.491
46.804
45.781
44.424
42.745
40.775
38.528
36.016
33.249
30.237
27.005
23.599
20.055
16.431
12.787
9.184
5.708
2.437
-0.573
-3.255
-5.574
-7.512
-9.038
-10.115
-10.734
-10.914
-10.726
-10.3
-9.76
-9.222
-8.83
-8.751
-9.182
-10.31
-12.266
-15.129
-19.003
-24.094
-30.515
-38.193
-46.848
-55.906
-64.753
-72.928
-79.818
-84.513
-86.394
-85.432
-82.097
-77.66
-73.618
-70.915
-70.611
-74.407
-82.08
-90.841
-97.81
-98.822
-93.145
-85.472
-76.057
-60.744
-29.499
33.317
133.991
268.396
425.282
587.323
742.893
885.493
1005.644
1093.992
1139.056
1127.63
1058.522
938.394
775.758
588.455
393.076
205.594
49.652
-59.26
-116.6
-127.373
-111.338
-88.897
-70.464
-59.322
-51.442
-41.377
-29.924
-20.169
-15.034
-16.97
-25.044
-36.753
-49.885
-61.963
-71.038
-76.39
-78.007
-76.367
-72.442
-67.164
-61.317
-55.792
-51.39
-48.494
-47.172
-47.263
-48.406
-50.301
-52.724
-55.419
-58.157
-60.754
-63.057
-64.971
-66.432
-67.369
-67.724
-67.437
-66.471
-64.844
-62.6
-59.826
-56.646
-53.173
-49.509
-45.754
-41.974
-38.24
-34.624
-31.165
-27.89
-24.805
-21.882
-19.111
-16.488
-13.984
-11.565
-9.169
-6.708
-4.111
-1.328
1.689
4.968
8.539
12.439
16.68
21.252
26.127
31.26
36.614
42.172
47.904
53.779
59.749
65.76
71.775
77.778
83.763
89.719
95.632
101.478
107.24
112.923
118.552
124.155
129.754
135.375
141.044
146.813
152.749
158.905
165.303
171.944
178.799
185.846
193.067
200.438
207.936
215.516
223.107
230.643
238.06
245.273
252.184
258.659
264.522
269.633
273.882
277.188
279.503
280.781
280.978
280.064
278.016
274.828
270.509
265.069
258.515
250.885
242.234
232.663
222.329
211.363
199.876
187.972
175.734
163.249
150.61
137.901
125.204
112.608
100.208
88.1
76.385
65.143
54.447
44.334
34.8
25.849
17.484
9.705
2.511
-4.103
-10.155
-15.668
-20.666
-25.199
-29.335
-33.141
-36.684
-40.028
-43.233
-46.343
-49.39
-52.395
-55.374
-58.336
-61.291
-64.244
-67.195
-70.137
-73.06
-75.938
-78.728
-81.399
-83.925
-86.281
-88.449
-90.416
-92.17
-93.716
-95.064
-96.227
-97.218
-98.05
-98.736
-99.294
-99.746
-100.117
-100.438
-100.733
-101.019
-101.311
-101.622
-101.96
-102.331
-102.734
-103.164
-103.614
-104.081
-104.559
-105.044
-105.53
-106.009
-106.472
-106.91
-107.315
-107.682
-108.003
-108.272
-108.485
-108.638
-108.728
-108.753
-108.712
-108.601
-108.417
-108.159
-107.823
-107.409
-106.915
-106.34
-105.685
-104.951
-104.141
-103.259
-102.308
-101.293
-100.22
-99.095
-97.925
-96.718
-95.48
-94.221
-92.948
-91.669
-90.392
-89.126
-87.878
-86.655
-85.465
-84.315
-83.21
-82.157
-81.161
-80.227
-79.361
-78.566
-77.847
-77.206
-76.647
-76.171
-75.781
-75.476
-75.256
-75.121
-75.068
-75.094
-75.196
-75.368
-75.607
-75.905
-76.256
-76.654
-77.09
-77.557
-78.049
-78.556
-79.071
-79.586
-80.094
-80.588
-81.06
-81.504
-81.913
-82.281
-82.602
-82.871
-83.082
-83.23
-83.311
-83.319
-83.251
-83.104
-82.875
-82.56
-82.158
-81.667
-81.086
-80.416
-79.658
-78.812
-77.879
-76.863
-75.767
-74.592
-73.342
-72.02
-70.629
-69.173
-67.656
-66.08
-64.448
-62.763
-61.028
-59.246
-57.417
-55.545
-53.63
-51.674
-49.678
-47.645
-45.574
-43.468
-41.328
-39.156
-36.953
-34.723
-32.466
-30.184
-27.88
-25.556
-23.214
-20.856
-18.485
-16.104
-13.717
-11.327
-8.939
-6.561
-4.199
-1.861
0.445
2.707
4.917
7.062
9.133
11.12
13.013
14.8
16.472
18.016
19.42
20.672
21.759
22.67
23.394
23.924
24.256
24.387
24.315
24.039
23.55
22.841
21.905
20.734
19.322
17.668
15.777
13.671
11.384
8.953
6.42
3.825
1.207
-1.393
-3.93
-6.359
-8.625
-10.665
-12.426
-13.845
-14.864
-15.444
-15.573
-15.291
-14.683
-13.851
-12.892
-11.887
-10.929
-10.152
-9.712
-9.758
-10.425
-11.794
-13.992
-17.271
-21.775
-27.43
-33.912
-40.569
-46.761
-52.082
-56.016
-57.793
-56.929
-53.407
-47.893
-41.896
-36.677
-32.926
-31.488
-33.33
-38.916
-46.613
-52.5
-52.174
-42.395
-24.156
-0.391
30.315
72.889
135.619
226.444
344.323
482.023
629.446
775.921
913.746
1033.725
1124.096
1170.627
1160.061
1088.819
962.331
794.707
606.3
416.712
243.83
102.322
1.783
-55.532
-73.73
-61.244
-31.299
3.762
32.833
47.062
45.073
30.65
12.29
-1.955
-9.622
-11.953
-13.697
-17.826
-23.26
-28.148
-30.095
-28.12
-23.234
-16.548
-9.045
-1.697
4.755
9.88
13.444
15.511
16.384
16.272
15.323
13.74
11.753
9.58
7.405
5.342
3.446
1.784
0.45
-0.478
-0.977
-1.063
-0.778
-0.186
0.663
1.71
2.882
4.114
5.348
6.529
7.626
8.623
9.509
10.304
11.026
11.689
12.338
13.014
13.753
14.605
15.605
16.781
18.168
19.79
21.66
23.795
26.193
28.846
31.739
34.831
38.091
41.5
45.034
48.685
52.447
56.308
60.262
64.312
68.451
72.677
76.981
81.341
85.744
90.185
94.665
99.203
103.806
108.469
113.18
117.915
122.66
127.412
132.166
136.91
141.646
146.385
151.158
156.022
161.013
166.142
171.403
176.766
182.215
187.741
193.328
198.963
204.618
210.243
215.802
221.254
226.527
231.525
236.111
240.114
243.402
245.881
247.478
248.145
247.823
246.448
243.98
240.384
235.635
229.711
222.579
214.221
204.675
194.025
182.403
169.987
156.917
143.309
129.278
114.934
100.401
85.804
71.258
56.872
42.778
29.135
16.11
3.851
-7.554
-18.063
-27.671
-36.404
-44.275
-51.295
-57.492
-62.906
-67.584
-71.573
-74.923
-77.69
-79.972
-81.904
-83.624
-85.249
-86.86
-88.507
-90.223
-92.037
-93.968
-96.025
-98.201
-100.483
-102.863
-105.338
-107.898
-110.525
-113.172
-115.769
-118.253
-120.579
-122.719
-124.656
-126.378
-127.877
-129.153
-130.222
-131.104
-131.817
-132.372
-132.778
-133.044
-133.188
-133.236
-133.22
-133.164
-133.085
-132.995
-132.902
-132.812
-132.729
-132.652
-132.569
-132.473
-132.356
-132.214
-132.046
-131.847
-131.612
-131.333
-131.006
-130.625
-130.188
-129.693
-129.137
-128.519
-127.841
-127.104
-126.313
-125.472
-124.583
-123.649
-122.673
-121.659
-120.609
-119.529
-118.421
-117.289
-116.137
-114.971
-113.796
-112.617
-111.438
-110.265
-109.103
-107.956
-106.831
-105.732
-104.664
-103.632
-102.64
-101.693
-100.795
-99.949
-99.159
-98.426
-97.754
-97.144
-96.597
-96.112
-95.691
-95.333
-95.037
-94.801
-94.626
-94.507
-94.445
-94.435
-94.477
-94.568
-94.706
-94.887
-95.109
-95.37
-95.668
-96
-96.364
-96.758
-97.178
-97.624
-98.093
-98.583
-99.091
-99.616
-100.155
-100.707
-101.272
-101.847
-102.432
-103.026
-103.63
-104.242
-104.864
-105.496
-106.136
-106.787
-107.447
-108.117
-108.797
-109.487
-110.186
-110.893
-111.607
-112.326
-113.048
-113.768
-114.484
-115.19
-115.884
-116.561
-117.216
-117.846
-118.447
-119.016
-119.55
-120.044
-120.494
-120.894
-121.238
-121.518
-121.726
-121.855
-121.896
-121.84
-121.679
-121.406
-121.017
-120.504
-119.86
-119.074
-118.138
-117.051
-115.814
-114.43
-112.908
-111.255
-109.485
-107.624
-105.696
-103.72
-101.718
-99.694
-97.655
-95.61
-93.569
-91.546
-89.547
-87.563
-85.581
-83.596
-81.594
-79.566
-77.489
-75.317
-73.014
-70.558
-67.936
-65.165
-62.271
-59.275
-56.207
-53.109
-50.033
-47.055
-44.259
-41.708
-39.468
-37.612
-36.223
-35.413
-35.281
-35.896
-37.304
-39.516
-42.513
-46.268
-50.73
-55.813
-61.415
-67.409
-73.649
-80.023
-86.41
-92.67
-98.661
-104.216
-109.179
-113.441
-116.924
-119.602
-121.493
-122.662
-123.189
-123.178
-122.771
-122.141
-121.506
-121.082
-121.06
-121.603
-122.919
-125.326
-129.023
-134.006
-140.005
-146.375
-152.498
-157.971
-162.28
-164.7
-164.795
-162.555
-158.669
-154.906
-152.812
-153.001
-156.233
-163.374
-174.417
-188.69
-203.044
-211.188
-209.118
-194.849
-167.78
-130.333
-79.208
-8.61
83.072
198.235
330.35
467.516
605.844
738.129
857.275
958.39
1023.199
1033.688
981.685
864.069
694.549
497.966
297.942
117.797
-25.797
-124.884
-179.656
-195.959
-181.324
-148.026
-106.055
-65.779
-41.676
-38.707
-56.47
-88.439
-119.392
-141.428
-152.71
-155.372
-156.851
-159.834
-163.392
-166.328
-166.126
-162.361
-156.352
-148.986
-141.321
-134.269
-128.079
-122.894
-118.746
-115.402
-112.68
-110.496
-108.745
-107.301
-106.048
-104.882
-103.739
-102.641
-101.638
-100.74
-99.925
-99.152
-98.374
-97.585
-96.814
-96.095
-95.457
-94.928
-94.521
-94.251
-94.145
-94.21
-94.416
-94.704
-94.966
-95.092
-95.014
-94.684
-94.073
-93.152
-91.878
-90.213
-88.138
-85.643
-82.722
-79.37
-75.572
-71.326
-66.656
-61.608
-56.255
-50.678
-44.929
-39.041
-33.036
-26.928
-20.734
-14.469
-8.131
-1.717
4.772
11.328
17.924
24.537
31.158
37.785
44.433
51.123
57.86
64.643
71.463
78.314
85.201
92.128
99.088
106.071
113.071
120.092
127.161
134.296
141.501
148.769
156.069
163.36
170.605
177.763
184.78
191.594
198.117
204.251
209.92
215.049
219.564
223.387
226.414
228.555
229.748
229.948
229.138
227.318
224.488
220.663
215.886
210.217
203.743
196.573
188.79
180.474
171.711
162.585
153.204
143.668
134.053
124.42
114.818
105.287
95.869
86.601
77.493
68.544
59.74
51.053
42.475
34.006
25.644
17.391
9.237
1.179
-6.774
-14.603
-22.288
-29.813
-37.164
-44.326
-51.274
-57.98
-64.413
-70.539
-76.339
-81.796
-86.899
-91.638
-96.007
-100.005
-103.636
-106.91
-109.837
-112.426
-114.686
-116.626
-118.259
-119.602
-120.669
-121.479
-122.046
-122.386
-122.515
-122.447
-122.198
-121.779
-121.204
-120.483
-119.628
-118.653
-117.57
-116.391
-115.128
-113.794
-112.399
-110.955
-109.472
-107.958
-106.421
-104.869
-103.307
-101.741
-100.177
-98.617
-97.066
-95.525
-93.997
-92.484
-90.985
-89.5
-88.029
-86.571
-85.124
-83.685
-82.254
-80.828
-79.404
-77.98
-76.553
-75.121
-73.68
-72.229
-70.763
-69.279
-67.775
-66.248
-64.694
-63.111
-61.496
-59.847
-58.163
-56.44
-54.678
-52.877
-51.034
-49.15
-47.225
-45.259
-43.252
-41.207
-39.124
-37.005
-34.852
-32.669
-30.457
-28.22
-25.96
-23.682
-21.389
-19.085
-16.772
-14.455
-12.137
-9.823
-7.517
-5.222
-2.942
-0.682
1.555
3.765
5.945
8.09
10.198
12.266
14.29
16.267
18.195
20.072
21.895
23.661
25.371
27.02
28.61
30.139
31.607
33.014
34.361
35.649
36.878
38.05
39.166
40.229
41.239
42.2
43.112
43.98
44.806
45.592
46.343
47.06
47.749
48.412
49.053
49.676
50.284
50.881
51.472
52.06
52.65
53.247
53.857
54.484
55.134
55.813
56.527
57.278
58.072
58.912
59.8
60.739
61.73
62.774
63.874
65.034
66.258
67.549
68.91
70.346
71.86
73.457
75.138
76.902
78.748
80.677
82.69
84.792
86.983
89.259
91.613
94.036
96.515
99.04
101.59
104.132
106.64
109.084
111.445
113.718
115.894
117.961
119.909
121.725
123.408
124.975
126.436
127.797
129.067
130.255
131.388
132.517
133.68
134.904
136.198
137.546
138.935
140.358
141.792
143.207
144.553
145.744
146.718
147.43
147.831
147.875
147.499
146.613
145.165
143.137
140.531
137.38
133.719
129.572
125.002
120.095
114.959
109.749
104.59
99.577
94.821
90.421
86.479
83.105
80.325
78.111
76.42
75.193
74.397
73.998
73.886
73.913
73.915
73.692
73.112
72.024
70.147
67.346
63.671
59.365
55.051
51.42
48.934
48.159
49.814
54.178
61.077
69.759
78.483
85.515
89.726
89.987
85.279
75.522
61.763
46.276
33.038
26.56
30.842
49.863
87.699
146.179
223.572
316.582
419.822
529.591
647.229
773.032
902.784
1024.62
1118.431
1162.618
1142.419
1055.862
912.009
728.533
526.873
327.2
148.513
6.188
-89.249
-135.629
-138.103
-106.19
-55.946
-2.479
40.326
60.861
58.56
39.747
15.917
-1.651
-9.757
-10.686
-10.384
-12.938
-17.712
-22.549
-24.744
-23.35
-19.477
-14.362
-9.09
-4.484
-1.017
1.052
1.625
0.875
-0.873
-3.384
-6.479
-9.978
-13.683
-17.399
-20.941
-24.176
-27.009
-29.324
-30.995
-31.941
-32.113
-31.509
-30.165
-28.124
-25.435
-22.162
-18.378
-14.153
-9.557
-4.66
0.47
5.761
11.136
16.527
21.869
27.115
32.235
37.211
42.037
46.716
51.255
55.665
59.966
64.169
68.286
72.329
76.31
80.243
84.146
88.037
91.929
95.837
99.776
103.761
107.806
111.921
116.109
120.369
124.702
129.102
133.566
138.08
142.626
147.187
151.752
156.311
160.859
165.382
169.86
174.276
178.612
182.858
187.014
191.081
195.061
198.973
202.848
206.724
210.65
214.657
218.752
222.94
227.217
231.579
236.029
240.551
245.111
249.678
254.21
258.652
262.945
266.99
270.649
273.787
276.264
277.963
278.806
278.707
277.586
275.381
272.043
267.55
261.911
255.123
247.178
238.102
227.944
216.806
204.856
192.249
179.141
165.684
152.009
138.265
124.62
111.207
98.129
85.478
73.319
61.742
50.865
40.762
31.48
23.021
15.331
8.372
2.113
-3.497
-8.514
-13.015
-17.106
-20.854
-24.293
-27.459
-30.381
-33.107
-35.718
-38.262
-40.761
-43.227
-45.643
-48.007
-50.327
-52.589
-54.762
-56.807
-58.669
-60.319
-61.76
-62.987
-64.001
-64.796
-65.354
-65.674
-65.776
-65.674
-65.388
-64.935
-64.324
-63.582
-62.745
-61.852
-60.947
-60.062
-59.216
-58.43
-57.723
-57.112
-56.613
-56.237
-55.984
-55.86
-55.871
-56.022
-56.32
-56.765
-57.353
-58.079
-58.938
-59.926
-61.037
-62.267
-63.61
-65.062
-66.618
-68.276
-70.034
-71.886
-73.827
-75.852
-77.954
-80.128
-82.367
-84.665
-87.016
-89.415
-91.856
-94.335
-96.848
-99.391
-101.96
-104.55
-107.16
-109.785
-112.424
-115.074
-117.734
-120.401
-123.077
-125.76
-128.451
-131.15
-133.856
-136.571
-139.296
-142.031
-144.776
-147.533
-150.301
-153.083
-155.879
-158.69
-161.516
-164.357
-167.212
-170.083
-172.968
-175.865
-178.775
-181.696
-184.625
-187.563
-190.507
-193.455
-196.406
-199.358
-202.308
-205.254
-208.194
-211.125
-214.043
-216.946
-219.831
-222.696
-225.536
-228.35
-231.134
-233.884
-236.597
-239.27
-241.899
-244.482
-247.016
-249.496
-251.922
-254.29
-256.599
-258.848
-261.033
-263.154
-265.207
-267.192
-269.105
-270.943
-272.703
-274.38
-275.972
-277.475
-278.886
-280.201
-281.417
-282.532
-283.543
-284.447
-285.241
-285.92
-286.48
-286.917
-287.225
-287.401
-287.438
-287.331
-287.075
-286.663
-286.093
-285.359
-284.454
-283.371
-282.097
-280.627
-278.961
-277.097
-275.038
-272.791
-270.363
-267.77
-265.035
-262.172
-259.199
-256.128
-252.965
-249.727
-246.427
-243.074
-239.685
-236.265
-232.812
-229.324
-225.793
-222.199
-218.523
-214.737
-210.803
-206.701
-202.418
-197.949
-193.302
-188.482
-183.5
-178.388
-173.179
-167.915
-162.662
-157.483
-152.455
-147.681
-143.252
-139.263
-135.819
-132.995
-130.862
-129.483
-128.902
-129.153
-130.258
-132.21
-134.98
-138.524
-142.764
-147.601
-152.918
-158.559
-164.385
-170.258
-176.027
-181.565
-186.737
-191.412
-195.473
-198.82
-201.361
-203.051
-203.891
-203.912
-203.204
-201.871
-200.012
-197.788
-195.388
-193.007
-190.847
-189.08
-187.847
-187.361
-187.961
-189.835
-192.947
-197.036
-201.54
-205.927
-209.826
-212.697
-213.722
-212.421
-208.917
-203.896
-198.774
-194.945
-193.304
-194.798
-200.558
-209.888
-219.823
-226.975
-227.978
-223.116
-215.286
-203.502
-181.278
-135.772
-55.896
58.614
198.334
345.106
484.429
614.016
733.751
843.75
937.854
996.063
1001.18
945.578
830.373
672.945
495.935
319.317
162.801
38.168
-50.364
-103.848
-129.996
-136.178
-127.909
-110.144
-87.611
-69.434
-65.111
-79.019
-108.721
-144
-174.479
-194.867
-205.576
-211.827
-217.297
-222.713
-227.205
-228.605
-226.388
-221.606
-215.278
-208.634
-202.6
-197.445
-193.369
-190.466
-188.564
-187.534
-187.304
-187.758
-188.799
-190.345
-192.313
-194.655
-197.363
-200.416
-203.736
-207.218
-210.741
-214.195
-217.523
-220.703
-223.723
-226.579
-229.272
-231.8
-234.167
-236.38
-238.408
-240.188
-241.646
-242.694
-243.279
-243.384
-243
-242.131
-240.771
-238.906
-236.529
-233.64
-230.237
-226.318
-221.883
-216.931
-211.492
-205.618
-199.378
-192.85
-186.093
-179.144
-172.033
-164.78
-157.401
-149.909
-142.305
-134.588
-126.759
-118.825
-110.798
-102.69
-94.508
-86.248
-77.903
-69.462
-60.924
-52.297
-43.592
-34.824
-26.014
-17.188
-8.376
0.386
9.065
17.631
26.056
34.315
42.381
50.225
57.819
65.136
72.15
78.836
85.172
91.136
96.709
101.874
106.615
110.923
114.787
118.198
121.148
123.632
125.647
127.193
128.27
128.883
129.037
128.741
128.005
126.844
125.273
123.309
120.971
118.281
115.26
111.933
108.324
104.458
100.362
96.063
91.588
86.964
82.22
77.383
72.482
67.544
62.596
57.666
52.78
47.963
43.238
38.629
34.158
29.844
25.707
21.763
18.029
14.517
11.24
8.208
5.429
2.909
0.654
-1.335
-3.055
-4.508
-5.696
-6.622
-7.291
-7.709
-7.884
-7.823
-7.537
-7.036
-6.33
-5.433
-4.357
-3.115
-1.723
-0.194
1.457
3.215
5.065
6.992
8.983
11.022
13.097
15.194
17.3
19.405
21.496
23.564
25.6
27.595
29.543
31.436
33.27
35.04
36.743
38.375
39.935
41.422
42.834
44.173
45.438
46.633
47.759
48.819
49.818
50.76
51.649
52.492
53.294
54.061
54.801
55.519
56.222
56.917
57.611
58.31
59.021
59.748
60.499
61.277
62.087
62.933
63.818
64.746
65.718
66.737
67.803
68.917
70.08
71.292
72.553
73.861
75.215
76.613
78.053
79.532
81.046
82.592
84.164
85.759
87.37
88.993
90.62
92.247
93.866
95.472
97.057
98.616
100.142
101.629
103.071
104.462
105.799
107.074
108.286
109.429
110.499
111.494
112.41
113.244
113.994
114.657
115.231
115.714
116.104
116.401
116.604
116.712
116.726
116.647
116.475
116.213
115.861
115.423
114.902
114.3
113.621
112.868
112.045
111.156
110.205
109.194
108.129
107.012
105.845
104.634
103.379
102.085
100.755
99.392
97.999
96.58
95.14
93.682
92.214
90.738
89.259
87.782
86.312
84.853
83.407
81.978
80.567
79.179
77.817
76.485
75.186
73.925
72.706
71.533
70.413
69.351
68.352
67.419
66.559
65.777
65.084
64.489
64
63.619
63.348
63.186
63.128
63.167
63.29
63.475
63.708
63.974
64.262
64.566
64.874
65.178
65.472
65.747
65.999
66.24
66.477
66.726
67.017
67.375
67.839
68.456
69.258
70.271
71.51
72.978
74.677
76.598
78.717
81.003
83.415
85.891
88.366
90.759
92.968
94.902
96.465
97.547
98.066
97.942
97.107
95.517
93.139
89.953
85.975
81.239
75.8
69.753
63.208
56.292
49.164
41.966
34.834
27.92
21.355
15.275
9.81
5.062
1.118
-1.948
-4.112
-5.4
-5.874
-5.663
-4.906
-3.729
-2.304
-0.814
0.545
1.566
2.073
1.948
1.024
-0.974
-4.179
-8.537
-13.738
-19.134
-24.117
-28.286
-31.112
-31.842
-30.045
-25.771
-19.751
-13.582
-8.554
-5.347
-4.82
-7.907
-14.885
-23.973
-31.125
-31.641
-22.166
-3.663
20.961
52.705
95.907
158.467
248.368
364.97
501.314
647.079
790.396
922.163
1033.106
1113.208
1151.058
1135.849
1065.071
941.375
774.917
585.781
393.202
219.496
86.792
3.283
-29.672
-21.729
5.98
37.728
59.532
63.545
53.908
35.673
16.985
5.423
0.704
0.013
-1.214
-6.768
-15.777
-25.178
-32.103
-35.209
-34.874
-32.237
-28.384
-23.926
-19.516
-16.014
-13.907
-13.366
-14.339
-16.536
-19.758
-23.883
-28.671
-33.809
-39.012
-44.038
-48.728
-52.979
-56.652
-59.589
-61.662
-62.8
-63.019
-62.394
-61.004
-58.923
-56.233
-53.028
-49.433
-45.601
-41.661
-37.724
-33.883
-30.216
-26.814
-23.767
-21.135
-18.933
-17.121
-15.623
-14.376
-13.34
-12.471
-11.733
-11.075
-10.436
-9.786
-9.107
-8.374
-7.556
-6.598
-5.43
-4
-2.285
-0.291
1.963
4.463
7.214
10.215
13.475
17.002
20.806
24.917
29.358
34.132
39.223
44.588
50.175
55.913
61.752
67.646
73.556
79.456
85.329
91.159
96.928
102.623
108.229
113.732
119.145
124.474
129.725
134.908
140.027
145.113
150.192
155.283
160.395
165.508
170.584
175.584
180.464
185.147
189.544
193.528
196.943
199.667
201.608
202.694
202.872
202.062
200.188
197.195
193.04
187.698
181.153
173.371
164.342
154.115
142.78
130.487
117.423
103.734
89.54
74.951
60.073
45.033
29.964
14.971
0.169
-14.322
-28.352
-41.733
-54.307
-65.98
-76.703
-86.48
-95.345
-103.304
-110.367
-116.551
-121.883
-126.408
-130.171
-133.202
-135.55
-137.294
-138.556
-139.5
-140.264
-140.941
-141.596
-142.264
-142.969
-143.743
-144.606
-145.553
-146.582
-147.683
-148.854
-150.105
-151.428
-152.791
-154.141
-155.397
-156.499
-157.413
-158.115
-158.594
-158.845
-158.863
-158.658
-158.258
-157.685
-156.959
-156.094
-155.096
-153.981
-152.773
-151.503
-150.206
-148.911
-147.633
-146.389
-145.189
-144.042
-142.951
-141.915
-140.923
-139.968
-139.045
-138.152
-137.288
-136.451
-135.633
-134.829
-134.036
-133.247
-132.459
-131.669
-130.873
-130.069
-129.255
-128.43
-127.596
-126.753
-125.899
-125.034
-124.157
-123.266
-122.362
-121.443
-120.508
-119.559
-118.594
-117.615
-116.624
-115.621
-114.607
-113.586
-112.557
-111.525
-110.491
-109.458
-108.429
-107.407
-106.395
-105.396
-104.412
-103.448
-102.505
-101.587
-100.697
-99.837
-99.009
-98.215
-97.458
-96.739
-96.059
-95.419
-94.82
-94.263
-93.747
-93.273
-92.84
-92.448
-92.095
-91.781
-91.505
-91.264
-91.057
-90.884
-90.741
-90.626
-90.537
-90.473
-90.43
-90.405
-90.395
-90.398
-90.41
-90.428
-90.449
-90.469
-90.486
-90.496
-90.496
-90.483
-90.455
-90.409
-90.343
-90.255
-90.144
-90.008
-89.846
-89.658
-89.443
-89.202
-88.933
-88.638
-88.314
-87.963
-87.583
-87.175
-86.737
-86.269
-85.772
-85.245
-84.688
-84.101
-83.484
-82.836
-82.158
-81.448
-80.707
-79.933
-79.128
-78.29
-77.42
-76.517
-75.581
-74.612
-73.61
-72.573
-71.5
-70.388
-69.237
-68.043
-66.804
-65.518
-64.182
-62.796
-61.358
-59.868
-58.329
-56.74
-55.105
-53.426
-51.707
-49.951
-48.161
-46.338
-44.487
-42.613
-40.723
-38.824
-36.924
-35.034
-33.165
-31.33
-29.542
-27.81
-26.143
-24.546
-23.026
-21.597
-20.275
-19.079
-18.037
-17.17
-16.503
-16.067
-15.882
-15.958
-16.298
-16.89
-17.722
-18.794
-20.106
-21.665
-23.477
-25.532
-27.814
-30.304
-32.959
-35.725
-38.534
-41.299
-43.948
-46.44
-48.741
-50.848
-52.763
-54.465
-55.931
-57.136
-58.049
-58.656
-58.948
-58.923
-58.617
-58.118
-57.558
-57.105
-56.921
-57.108
-57.724
-58.821
-60.45
-62.685
-65.589
-69.197
-73.492
-78.518
-84.438
-91.27
-98.824
-106.719
-114.251
-120.731
-125.709
-128.556
-128.41
-124.89
-118.103
-108.531
-97.479
-86.326
-75.939
-67.627
-63.24
-62.131
-61.355
-58.51
-49.597
-35.03
-21.122
-7.557
9.216
38.036
96.473
191.378
321.216
479.363
647.891
812.425
958.695
1069.016
1130.669
1131.405
1067.49
945.877
779.271
587.849
392.482
213.378
67.96
-34.577
-93.636
-116.883
-114.689
-96.138
-67.88
-35.354
-6.867
9.295
8.586
-7.461
-30.112
-50.493
-63.729
-69.697
-72.712
-75.567
-78.495
-80.6
-79.806
-75.599
-69.054
-61.215
-53.354
-46.516
-40.983
-36.864
-34.179
-32.653
-32.067
-32.31
-33.198
-34.56
-36.294
-38.26
-40.328
-42.441
-44.499
-46.401
-48.089
-49.481
-50.541
-51.279
-51.695
-51.816
-51.683
-51.311
-50.72
-49.918
-48.887
-47.633
-46.183
-44.553
-42.771
-40.852
-38.784
-36.57
-34.215
-31.707
-29.043
-26.206
-23.171
-19.935
-16.508
-12.907
-9.17
-5.323
-1.372
2.675
6.815
11.045
15.354
19.74
24.211
28.767
33.409
38.131
42.919
47.763
52.658
57.606
62.615
67.691
72.834
78.039
83.299
88.609
93.96
99.346
104.764
110.214
115.704
121.254
126.883
132.62
138.498
144.535
150.736
157.102
163.616
170.267
177.033
183.876
190.757
197.623
204.402
211.015
217.374
223.361
228.867
233.78
237.97
241.346
243.827
245.346
245.863
245.344
243.768
241.144
237.494
232.85
227.274
220.84
213.636
205.788
197.411
188.619
179.538
170.266
160.891
151.496
142.145
132.888
123.776
114.837
106.093
97.564
89.254
81.157
73.257
65.517
57.907
50.409
43
35.672
28.423
21.253
14.171
7.196
0.345
-6.363
-12.907
-19.272
-25.439
-31.383
-37.082
-42.507
-47.634
-52.451
-56.947
-61.118
-64.964
-68.488
-71.696
-74.606
-77.23
-79.581
-81.675
-83.522
-85.139
-86.541
-87.746
-88.77
-89.632
-90.345
-90.926
-91.389
-91.748
-92.016
-92.206
-92.328
-92.392
-92.412
-92.396
-92.356
-92.302
-92.241
-92.182
-92.132
-92.096
-92.079
-92.085
-92.115
-92.172
-92.256
-92.368
-92.509
-92.676
-92.868
-93.084
-93.32
-93.576
-93.847
-94.13
-94.423
-94.721
-95.022
-95.322
-95.617
-95.904
-96.178
-96.436
-96.674
-96.888
-97.075
-97.229
-97.35
-97.432
-97.475
-97.476
-97.434
-97.347
-97.215
-97.038
-96.815
-96.548
-96.237
-95.884
-95.489
-95.054
-94.582
-94.074
-93.531
-92.957
-92.353
-91.722
-91.064
-90.382
-89.678
-88.954
-88.211
-87.451
-86.677
-85.889
-85.091
-84.284
-83.469
-82.65
-81.827
-81.003
-80.178
-79.355
-78.533
-77.714
-76.899
-76.087
-75.279
-74.475
-73.675
-72.879
-72.087
-71.299
-70.514
-69.732
-68.954
-68.179
-67.407
-66.639
-65.876
-65.117
-64.364
-63.618
-62.882
-62.155
-61.441
-60.742
-60.058
-59.394
-58.75
-58.129
-57.533
-56.964
-56.424
-55.916
-55.441
-55.001
-54.6
-54.24
-53.923
-53.653
-53.43
-53.258
-53.137
-53.071
-53.059
-53.104
-53.206
-53.364
-53.581
-53.854
-54.184
-54.57
-55.008
-55.497
-56.032
-56.609
-57.222
-57.865
-58.531
-59.211
-59.899
-60.587
-61.267
-61.931
-62.573
-63.185
-63.76
-64.291
-64.768
-65.181
-65.521
-65.776
-65.935
-65.987
-65.923
-65.732
-65.406
-64.94
-64.33
-63.57
-62.657
-61.583
-60.338
-58.921
-57.33
-55.569
-53.643
-51.564
-49.349
-47.025
-44.623
-42.165
-39.67
-37.15
-34.61
-32.058
-29.502
-26.945
-24.4
-21.876
-19.382
-16.932
-14.536
-12.19
-9.885
-7.596
-5.288
-2.951
-0.586
1.797
4.169
6.497
8.742
10.84
12.742
14.407
15.795
16.884
17.65
18.058
18.069
17.647
16.756
15.395
13.583
11.346
8.736
5.824
2.701
-0.508
-3.679
-6.71
-9.51
-12.006
-14.129
-15.809
-16.989
-17.659
-17.865
-17.677
-17.19
-16.487
-15.626
-14.721
-13.95
-13.492
-13.535
-14.22
-15.578
-17.735
-20.936
-25.196
-30.355
-36.034
-41.464
-46.022
-49.372
-50.889
-49.82
-45.962
-39.409
-30.834
-21.703
-13.12
-5.712
-0.469
1.522
1.602
2.969
8.656
22.812
44.844
69.012
95.39
126.548
169.273
238.125
337.49
464.067
611.189
761.616
901.315
1017.842
1096.552
1128.332
1105.756
1028.108
902.288
739.117
555.617
369.291
197.761
59.317
-34.935
-80.996
-81.767
-51.303
-6.533
36.06
59.852
59.928
39.71
7.743
-20.422
-37.147
-42.518
-39.681
-37.013
-38.021
-40.969
-44.185
-44.884
-42.182
-37.465
-31.739
-25.816
-20.497
-16.288
-13.476
-12.251
-12.53
-14.032
-16.581
-20.054
-24.259
-28.97
-33.96
-39.009
-43.953
-48.668
-53.007
-56.816
-59.966
-62.373
-64.014
-64.893
-65.037
-64.484
-63.278
-61.481
-59.16
-56.377
-53.188
-49.654
-45.834
-41.793
-37.602
-33.318
-28.995
-24.671
-20.36
-16.075
-11.834
-7.644
-3.522
0.51
4.432
8.21
11.797
15.163
18.284
21.149
23.768
26.148
28.305
30.263
32.048
33.689
35.239
36.746
38.27
39.888
41.676
43.716
46.111
48.944
52.277
56.168
60.64
65.704
71.365
77.607
84.404
91.732
99.546
107.797
116.438
125.404
134.635
144.071
153.62
163.197
172.722
182.107
191.292
200.232
208.876
217.185
225.119
232.628
239.667
246.198
252.158
257.477
262.075
265.853
268.747
270.715
271.719
271.744
270.76
268.725
265.608
261.397
256.084
249.681
242.205
233.66
224.098
213.609
202.307
190.342
177.853
164.944
151.721
138.287
124.75
111.243
97.896
84.805
72.068
59.775
48.012
36.893
26.49
16.829
7.914
-0.294
-7.827
-14.701
-20.933
-26.561
-31.63
-36.21
-40.378
-44.181
-47.664
-50.877
-53.874
-56.731
-59.509
-62.236
-64.923
-67.564
-70.152
-72.695
-75.194
-77.631
-79.981
-82.211
-84.276
-86.162
-87.857
-89.348
-90.624
-91.663
-92.453
-92.997
-93.311
-93.411
-93.313
-93.03
-92.575
-91.978
-91.268
-90.477
-89.642
-88.786
-87.927
-87.086
-86.276
-85.513
-84.809
-84.166
-83.586
-83.068
-82.614
-82.227
-81.908
-81.653
-81.457
-81.315
-81.221
-81.17
-81.158
-81.18
-81.232
-81.31
-81.411
-81.535
-81.68
-81.844
-82.025
-82.22
-82.426
-82.639
-82.859
-83.081
-83.305
-83.528
-83.75
-83.969
-84.187
-84.403
-84.619
-84.834
-85.051
-85.269
-85.492
-85.72
-85.954
-86.198
-86.453
-86.721
-87.004
-87.304
-87.622
-87.961
-88.321
-88.704
-89.11
-89.541
-89.995
-90.475
-90.979
-91.508
-92.059
-92.633
-93.228
-93.843
-94.476
-95.124
-95.785
-96.457
-97.137
-97.822
-98.508
-99.192
-99.871
-100.542
-101.202
-101.848
-102.478
-103.09
-103.682
-104.252
-104.8
-105.324
-105.824
-106.298
-106.747
-107.171
-107.569
-107.942
-108.291
-108.618
-108.922
-109.208
-109.477
-109.731
-109.973
-110.206
-110.433
-110.657
-110.881
-111.109
-111.344
-111.588
-111.847
-112.121
-112.415
-112.73
-113.067
-113.428
-113.812
-114.219
-114.645
-115.09
-115.548
-116.019
-116.497
-116.981
-117.465
-117.948
-118.425
-118.895
-119.353
-119.793
-120.21
-120.596
-120.943
-121.244
-121.49
-121.672
-121.78
-121.805
-121.741
-121.582
-121.319
-120.943
-120.444
-119.812
-119.046
-118.146
-117.114
-115.96
-114.69
-113.32
-111.875
-110.378
-108.852
-107.318
-105.784
-104.259
-102.754
-101.282
-99.856
-98.482
-97.15
-95.845
-94.559
-93.278
-91.989
-90.67
-89.278
-87.781
-86.158
-84.396
-82.506
-80.507
-78.412
-76.243
-74.033
-71.831
-69.711
-67.755
-66.028
-64.6
-63.531
-62.888
-62.757
-63.191
-64.22
-65.857
-68.084
-70.874
-74.195
-77.997
-82.201
-86.709
-91.393
-96.112
-100.747
-105.177
-109.297
-113.008
-116.221
-118.918
-121.116
-122.856
-124.195
-125.163
-125.809
-126.25
-126.625
-127.08
-127.774
-128.809
-130.317
-132.584
-135.737
-139.692
-144.204
-148.677
-152.506
-155.37
-156.796
-156.02
-152.681
-146.92
-139.301
-131.218
-124.129
-118.843
-116.235
-117.758
-123.139
-129.527
-133.841
-131.997
-122.389
-109.341
-95.379
-77.669
-49.303
2.697
89.518
210.707
359.039
522.177
684.035
833.118
957.616
1044.12
1080.404
1054.68
963.744
811.846
612.501
390.855
172.713
-14.353
-149.173
-228.664
-259.119
-255.006
-232.551
-198.257
-156.676
-113.933
-75.694
-49.607
-37.647
-33.105
-29.607
-23.077
-14.553
-11.023
-15.829
-28.021
-44.899
-61.277
-74.473
-84.308
-90.006
-91.516
-89.403
-84.152
-76.989
-69.597
-62.724
-56.701
-52.106
-49.112
-47.727
-47.939
-49.231
-50.87
-52.48
-53.854
-54.835
-55.474
-55.802
-55.8
-55.579
-55.27
-54.929
-54.597
-54.255
-53.832
-53.277
-52.544
-51.621
-50.535
-49.33
-48.039
-46.68
-45.243
-43.695
-42.016
-40.193
-38.214
-36.086
-33.816
-31.437
-29.001
-26.572
-24.209
-21.935
-19.732
-17.558
-15.357
-13.088
-10.727
-8.257
-5.656
-2.903
0.022
3.145
6.496
10.115
14.061
18.388
23.139
28.325
33.932
39.912
46.194
52.708
59.392
66.195
73.086
80.037
87.033
94.067
101.139
108.254
115.423
122.642
129.909
137.228
144.601
152.056
159.64
167.389
175.338
183.496
191.834
200.308
208.861
217.392
225.781
233.872
241.477
248.443
254.638
259.933
264.222
267.391
269.316
269.9
269.059
266.725
262.875
257.507
250.64
242.357
232.787
222.104
210.541
198.295
185.553
172.503
159.319
146.185
133.281
120.756
108.748
97.395
86.811
77.091
68.312
60.495
53.619
47.624
42.409
37.882
33.95
30.511
27.459
24.679
22.065
19.542
17.045
14.495
11.826
8.978
5.904
2.593
-0.948
-4.698
-8.618
-12.665
-16.792
-20.941
-25.046
-29.039
-32.864
-36.485
-39.875
-43.004
-45.846
-48.379
-50.591
-52.488
-54.077
-55.366
-56.368
-57.098
-57.58
-57.841
-57.915
-57.835
-57.629
-57.316
-56.911
-56.428
-55.879
-55.274
-54.618
-53.91
-53.153
-52.352
-51.511
-50.634
-49.724
-48.779
-47.801
-46.787
-45.739
-44.656
-43.542
-42.398
-41.228
-40.035
-38.824
-37.602
-36.372
-35.139
-33.906
-32.675
-31.449
-30.231
-29.023
-27.827
-26.645
-25.479
-24.332
-23.208
-22.108
-21.035
-19.991
-18.979
-17.999
-17.054
-16.144
-15.271
-14.436
-13.64
-12.885
-12.172
-11.502
-10.877
-10.295
-9.76
-9.27
-8.826
-8.428
-8.075
-7.768
-7.505
-7.287
-7.112
-6.981
-6.892
-6.845
-6.839
-6.872
-6.944
-7.052
-7.196
-7.374
-7.584
-7.825
-8.096
-8.396
-8.723
-9.076
-9.456
-9.862
-10.294
-10.75
-11.231
-11.736
-12.264
-12.816
-13.39
-13.987
-14.607
-15.249
-15.914
-16.601
-17.31
-18.042
-18.795
-19.571
-20.37
-21.191
-22.035
-22.902
-23.792
-24.706
-25.644
-26.605
-27.591
-28.599
-29.63
-30.683
-31.755
-32.846
-33.951
-35.068
-36.192
-37.319
-38.446
-39.567
-40.679
-41.777
-42.856
-43.915
-44.948
-45.953
-46.924
-47.856
-48.743
-49.581
-50.362
-51.08
-51.727
-52.295
-52.778
-53.17
-53.465
-53.654
-53.73
-53.681
-53.501
-53.187
-52.74
-52.161
-51.458
-50.638
-49.72
-48.727
-47.68
-46.597
-45.495
-44.388
-43.293
-42.227
-41.204
-40.241
-39.345
-38.513
-37.738
-37.009
-36.297
-35.575
-34.806
-33.939
-32.94
-31.786
-30.458
-28.959
-27.283
-25.436
-23.441
-21.321
-19.109
-16.864
-14.648
-12.544
-10.662
-9.102
-7.971
-7.39
-7.444
-8.201
-9.703
-11.953
-14.943
-18.651
-23.025
-28.008
-33.53
-39.486
-45.765
-52.221
-58.678
-64.981
-70.97
-76.481
-81.394
-85.625
-89.151
-92.023
-94.315
-96.097
-97.44
-98.431
-99.195
-99.882
-100.648
-101.661
-103.055
-105.017
-107.853
-111.706
-116.54
-122.13
-127.864
-133.082
-137.333
-139.937
-140.023
-137.265
-131.682
-123.713
-115.015
-107.245
-101.38
-99.033
-100.933
-105.37
-110.523
-113.985
-114.017
-112.94
-111.745
-106.981
-89.846
-46.317
32.707
147.537
289.668
443.942
600.205
752.533
892.711
1011.276
1091.579
1113.737
1070.291
964.056
806.721
619.673
421.299
227.81
58.339
-72.464
-155.704
-188.587
-181.083
-150.009
-110.257
-77.009
-58.417
-54.017
-61.418
-72.313
-79.063
-80.607
-78.474
-77.653
-82.071
-90.729
-100.484
-107.911
-111.332
-111.144
-108.486
-104.454
-99.644
-94.669
-90.36
-87.186
-85.301
-84.591
-84.713
-85.454
-86.703
-88.286
-90.008
-91.708
-93.257
-94.606
-95.741
-96.621
-97.219
-97.505
-97.466
-97.132
-96.531
-95.688
-94.646
-93.438
-92.087
-90.613
-89.005
-87.233
-85.291
-83.175
-80.88
-78.398
-75.689
-72.71
-69.432
-65.83
-61.894
-57.626
-53.016
-48.064
-42.796
-37.241
-31.461
-25.535
-19.511
-13.432
-7.338
-1.274
4.691
10.477
16.032
21.333
26.37
31.15
35.676
39.956
44.023
47.921
51.713
55.464
59.219
63.007
66.866
70.841
74.995
79.404
84.113
89.138
94.493
100.179
106.198
112.55
119.219
126.174
133.385
140.827
148.477
156.317
164.312
172.409
180.548
188.655
196.676
204.567
212.279
219.75
226.912
233.688
239.993
245.745
250.843
255.166
258.616
261.102
262.55
262.908
262.132
260.172
256.984
252.526
246.767
239.715
231.401
221.874
211.224
199.562
187.029
173.803
160.046
145.909
131.535
117.062
102.627
88.392
74.517
61.155
48.456
36.536
25.478
15.352
6.185
-2.023
-9.301
-15.712
-21.323
-26.186
-30.357
-33.897
-36.871
-39.374
-41.518
-43.397
-45.115
-46.753
-48.369
-50.018
-51.735
-53.534
-55.411
-57.348
-59.316
-61.3
-63.287
-65.258
-67.19
-69.044
-70.765
-72.315
-73.661
-74.775
-75.647
-76.266
-76.628
-76.744
-76.633
-76.32
-75.834
-75.197
-74.429
-73.552
-72.594
-71.585
-70.562
-69.553
-68.58
-67.662
-66.813
-66.043
-65.363
-64.775
-64.275
-63.859
-63.524
-63.266
-63.085
-62.974
-62.928
-62.94
-63
-63.101
-63.237
-63.401
-63.587
-63.787
-63.997
-64.211
-64.426
-64.636
-64.837
-65.022
-65.185
-65.321
-65.424
-65.489
-65.51
-65.483
-65.406
-65.274
-65.086
-64.84
-64.536
-64.172
-63.751
-63.272
-62.737
-62.149
-61.511
-60.826
-60.099
-59.332
-58.532
-57.701
-56.846
-55.97
-55.078
-54.175
-53.266
-52.355
-51.448
-50.548
-49.662
-48.792
-47.943
-47.12
-46.327
-45.567
-44.845
-44.163
-43.526
-42.937
-42.398
-41.912
-41.481
-41.107
-40.791
-40.534
-40.336
-40.198
-40.119
-40.098
-40.134
-40.227
-40.375
-40.576
-40.828
-41.13
-41.48
-41.876
-42.315
-42.796
-43.318
-43.877
-44.473
-45.102
-45.764
-46.457
-47.177
-47.922
-48.69
-49.476
-50.278
-51.092
-51.911
-52.732
-53.547
-54.353
-55.143
-55.913
-56.658
-57.373
-58.055
-58.699
-59.304
-59.864
-60.376
-60.835
-61.237
-61.577
-61.848
-62.045
-62.162
-62.192
-62.129
-61.969
-61.706
-61.334
-60.846
-60.23
-59.482
-58.6
-57.586
-56.442
-55.177
-53.802
-52.331
-50.788
-49.194
-47.566
-45.923
-44.274
-42.629
-40.997
-39.39
-37.82
-36.294
-34.807
-33.348
-31.903
-30.454
-28.985
-27.468
-25.863
-24.138
-22.273
-20.255
-18.091
-15.794
-13.387
-10.898
-8.356
-5.811
-3.328
-0.981
1.15
2.985
4.456
5.479
5.954
5.791
4.919
3.285
0.861
-2.361
-6.373
-11.146
-16.627
-22.736
-29.368
-36.403
-43.71
-51.166
-58.651
-66.036
-73.165
-79.883
-86.056
-91.567
-96.323
-100.264
-103.364
-105.628
-107.118
-107.913
-108.095
-107.793
-107.162
-106.369
-105.593
-105.013
-104.798
-105.184
-106.486
-108.888
-112.378
-116.694
-121.296
-125.653
-129.367
-131.961
-132.721
-131.17
-127.42
-122.264
-117.273
-113.997
-113.225
-115.504
-121.649
-131.978
-145.575
-160.101
-171.632
-175.928
-169.783
-150.269
-114.08
-58.155
17.955
110.966
215.746
326.266
440.016
558.814
681.952
804.407
914.904
996.139
1031.617
1010.783
931.749
800.28
630.758
443.638
260.062
102.925
-12.252
-81.87
-110.181
-111.466
-99.258
-82.592
-69.463
-61.655
-61.688
-70.644
-83.495
-96.958
-107.254
-112.997
-118.126
-124.687
-133.009
-141.8
-147.948
-150.249
-149.113
-145.395
-140.331
-134.709
-129.121
-124.372
-120.988
-119.158
-118.817
-119.697
-121.6
-124.391
-127.897
-131.892
-136.131
-140.414
-144.6
-148.572
-152.189
-155.288
-157.714
-159.358
-160.179
-160.173
-159.361
-157.774
-155.448
-152.443
-148.824
-144.66
-140.017
-134.948
-129.506
-123.755
-117.76
-111.599
-105.345
-99.05
-92.745
-86.447
-80.171
-73.938
-67.77
-61.678
-55.669
-49.76
-43.971
-38.346
-32.921
-27.71
-22.724
-17.954
-13.383
-9.002
-4.8
-0.754
3.164
6.997
10.805
14.632
18.531
22.557
26.769
31.247
36.054
41.231
46.816
52.832
59.29
66.206
73.595
81.45
89.773
98.547
107.717
117.235
127.036
137.042
147.176
157.344
167.458
177.443
187.218
196.701
205.819
214.486
222.6
230.059
236.742
242.538
247.384
251.228
254.048
255.84
256.607
256.372
255.158
252.995
249.916
245.951
241.138
235.528
229.195
222.243
214.806
207.013
198.965
190.74
182.391
173.951
165.441
156.86
148.217
139.519
130.784
122.054
113.374
104.787
96.336
88.032
79.854
71.792
63.838
55.997
48.304
40.803
33.553
26.64
20.131
14.079
8.528
3.479
-1.079
-5.172
-8.848
-12.141
-15.06
-17.62
-19.825
-21.68
-23.216
-24.462
-25.461
-26.277
-26.964
-27.562
-28.108
-28.614
-29.074
-29.471
-29.763
-29.912
-29.901
-29.714
-29.347
-28.803
-28.077
-27.164
-26.065
-24.765
-23.256
-21.531
-19.583
-17.414
-15.038
-12.471
-9.746
-6.893
-3.932
-0.883
2.242
5.436
8.69
11.997
15.357
18.765
22.215
25.699
29.206
32.728
36.258
39.791
43.321
46.844
50.354
53.842
57.302
60.722
64.091
67.398
70.628
73.768
76.804
79.726
82.522
85.184
87.7
90.064
92.266
94.301
96.161
97.839
99.33
100.627
101.725
102.621
103.31
103.79
104.058
104.114
103.956
103.587
103.008
102.221
101.23
100.039
98.653
97.078
95.323
93.393
91.299
89.05
86.655
84.126
81.475
78.711
75.847
72.893
69.861
66.761
63.604
60.399
57.156
53.885
50.596
47.296
43.995
40.7
37.42
34.161
30.929
27.732
24.573
21.459
18.392
15.376
12.414
9.509
6.662
3.874
1.146
-1.522
-4.132
-6.684
-9.18
-11.624
-14.017
-16.362
-18.664
-20.925
-23.149
-25.338
-27.496
-29.625
-31.727
-33.804
-35.857
-37.888
-39.898
-41.885
-43.849
-45.789
-47.705
-49.594
-51.456
-53.288
-55.088
-56.855
-58.585
-60.277
-61.927
-63.529
-65.079
-66.572
-68.002
-69.365
-70.653
-71.859
-72.976
-73.999
-74.921
-75.733
-76.424
-76.98
-77.39
-77.653
-77.764
-77.726
-77.543
-77.221
-76.774
-76.222
-75.583
-74.874
-74.105
-73.277
-72.401
-71.491
-70.569
-69.66
-68.781
-67.932
-67.115
-66.328
-65.559
-64.787
-63.975
-63.062
-62.005
-60.782
-59.383
-57.821
-56.106
-54.239
-52.227
-50.075
-47.804
-45.455
-43.07
-40.689
-38.381
-36.231
-34.356
-32.908
-32.006
-31.739
-32.169
-33.324
-35.225
-37.879
-41.275
-45.392
-50.191
-55.616
-61.609
-68.103
-74.999
-82.169
-89.445
-96.623
-103.526
-110.003
-115.932
-121.226
-125.834
-129.762
-133.046
-135.745
-137.914
-139.574
-140.775
-141.617
-142.223
-142.743
-143.347
-144.151
-145.346
-147.278
-150.08
-153.673
-157.779
-161.715
-164.854
-166.879
-167.221
-165.067
-160.173
-152.784
-143.669
-134.581
-127.167
-122.362
-121.458
-126.132
-135.477
-146.205
-155.187
-157.419
-152.185
-144.729
-134.331
-117.482
-86.07
-23.884
75.173
208.987
370.841
543.703
713.802
867.353
987.004
1058.569
1067.255
1007.004
882.651
708.271
508.591
308.2
131.105
-4.481
-93.131
-137.987
-151.76
-151.356
-148.944
-149.42
-152.569
-155.044
-152.914
-147.576
-140.995
-134.037
-130.723
-132.007
-136.932
-145.578
-154.759
-161.377
-164.801
-164.567
-161.197
-155.946
-149.442
-142.233
-135.315
-129.601
-125.544
-123.336
-122.854
-123.732
-125.727
-128.63
-132.117
-135.869
-139.623
-143.153
-146.315
-149
-151.074
-152.395
-152.846
-152.364
-150.951
-148.653
-145.552
-141.747
-137.35
-132.509
-127.398
-122.176
-116.991
-111.967
-107.194
-102.757
-98.733
-95.184
-92.162
-89.689
-87.761
-86.348
-85.401
-84.858
-84.646
-84.665
-84.784
-84.878
-84.821
-84.516
-83.898
-82.913
-81.509
-79.642
-77.272
-74.363
-70.889
-66.835
-62.185
-56.939
-51.107
-44.733
-37.89
-30.676
-23.194
-15.525
-7.72
0.181
8.141
16.123
24.09
32.002
39.835
47.563
55.152
62.575
69.821
76.908
83.889
90.846
97.858
104.978
112.228
119.61
127.119
134.743
142.465
150.257
158.066
165.836
173.517
181.054
188.378
195.397
201.976
207.956
213.194
217.572
221.004
223.423
224.773
225.008
224.093
222.018
218.804
214.483
209.089
202.66
195.244
186.905
177.756
167.933
157.563
146.767
135.644
124.29
112.808
101.303
89.881
78.626
67.598
56.842
46.409
36.352
26.727
17.589
8.951
0.81
-6.842
-14.014
-20.708
-26.935
-32.728
-38.135
-43.219
-48.023
-52.572
-56.882
-60.972
-64.869
-68.613
-72.245
-75.782
-79.234
-82.606
-85.902
-89.132
-92.294
-95.365
-98.309
-101.076
-103.636
-105.972
-108.077
-109.945
-111.568
-112.934
-114.031
-114.864
-115.44
-115.765
-115.846
-115.687
-115.299
-114.707
-113.945
-113.048
-112.045
-110.958
-109.803
-108.595
-107.348
-106.077
-104.79
-103.49
-102.182
-100.871
-99.566
-98.273
-96.998
-95.743
-94.507
-93.288
-92.087
-90.904
-89.74
-88.597
-87.474
-86.372
-85.296
-84.248
-83.232
-82.247
-81.295
-80.373
-79.483
-78.624
-77.793
-76.991
-76.215
-75.464
-74.739
-74.038
-73.363
-72.713
-72.087
-71.487
-70.911
-70.359
-69.831
-69.327
-68.844
-68.384
-67.944
-67.524
-67.123
-66.74
-66.374
-66.026
-65.693
-65.375
-65.07
-64.777
-64.495
-64.221
-63.953
-63.69
-63.429
-63.169
-62.908
-62.644
-62.374
-62.096
-61.808
-61.505
-61.185
-60.844
-60.479
-60.086
-59.661
-59.203
-58.709
-58.178
-57.608
-57
-56.354
-55.668
-54.942
-54.175
-53.368
-52.518
-51.625
-50.687
-49.704
-48.678
-47.61
-46.506
-45.368
-44.203
-43.016
-41.813
-40.601
-39.386
-38.172
-36.96
-35.756
-34.565
-33.393
-32.253
-31.153
-30.094
-29.079
-28.11
-27.186
-26.302
-25.445
-24.592
-23.729
-22.849
-21.951
-21.045
-20.139
-19.236
-18.342
-17.464
-16.609
-15.794
-15.023
-14.293
-13.612
-12.992
-12.465
-12.087
-11.895
-11.901
-12.111
-12.518
-13.109
-13.882
-14.81
-15.848
-16.951
-18.07
-19.176
-20.26
-21.3
-22.258
-23.071
-23.644
-23.906
-23.814
-23.321
-22.389
-20.973
-19.026
-16.545
-13.578
-10.172
-6.376
-2.224
2.271
7.075
12.125
17.333
22.588
27.793
32.862
37.691
42.156
46.111
49.41
51.967
53.746
54.721
54.872
54.176
52.619
50.222
47.041
43.15
38.634
33.574
28.062
22.224
16.219
10.243
4.486
-0.909
-5.825
-10.164
-13.841
-16.796
-19.024
-20.584
-21.566
-22.06
-22.133
-21.858
-21.365
-20.828
-20.442
-20.409
-20.873
-22
-24.073
-27.275
-31.575
-36.693
-42.007
-46.871
-50.864
-53.48
-53.979
-51.898
-47.276
-40.85
-34.244
-28.924
-25.795
-25.844
-30.197
-39.432
-51.95
-63.839
-70.427
-67.968
-56.911
-39.627
-14.465
23.598
82.881
171.171
287.52
424.637
572.148
719.567
859.25
981.836
1075.71
1125.752
1116.845
1043.985
910.793
730.788
526.474
320.374
134.228
-13.765
-113.24
-162.916
-168.893
-142.141
-97.862
-49.74
-10.28
10.58
11.433
-3.145
-23.052
-38.635
-46.776
-48.928
-50.614
-55.335
-62.066
-68.69
-72.339
-71.828
-68.188
-62.565
-56.026
-49.566
-43.87
-39.335
-36.197
-34.368
-33.548
-33.576
-34.34
-35.705
-37.542
-39.718
-42.125
-44.735
-47.525
-50.422
-53.329
-56.129
-58.749
-61.166
-63.365
-65.347
-67.119
-68.666
-69.987
-71.078
-71.896
-72.411
-72.595
-72.406
-71.84
-70.909
-69.62
-68
-66.066
-63.814
-61.25
-58.377
-55.184
-51.678
-47.866
-43.758
-39.394
-34.813
-30.037
-25.097
-20.003
-14.748
-9.333
-3.754
2.002
7.938
14.055
20.357
26.829
33.455
40.222
47.123
54.164
61.359
68.707
76.202
83.83
91.565
99.395
107.315
115.314
123.383
131.528
139.757
148.104
156.624
165.351
174.303
183.481
192.859
202.415
212.133
221.984
231.939
241.948
251.935
261.826
271.545
280.99
290.044
298.556
306.337
313.232
319.119
323.901
327.517
329.911
331.03
330.846
329.354
326.566
322.528
317.285
310.884
303.408
294.966
285.702
275.804
265.43
254.704
243.736
232.61
221.405
210.203
199.061
188.012
177.084
166.296
155.668
145.228
134.979
124.905
114.97
105.115
95.301
85.51
75.733
65.973
56.235
46.524
36.863
27.288
17.829
8.516
-0.629
-9.591
-18.347
-26.866
-35.116
-43.058
-50.666
-57.923
-64.815
-71.334
-77.478
-83.246
-88.644
-93.69
-98.396
-102.772
-106.831
-110.578
-114.025
-117.187
-120.076
-122.707
-125.092
-127.245
-129.177
-130.902
-132.431
-133.776
-134.947
-135.952
-136.8
-137.502
-138.068
-138.508
-138.832
-139.047
-139.164
-139.189
-139.131
-138.996
-138.789
-138.515
-138.177
-137.78
-137.327
-136.819
-136.258
-135.648
-134.987
-134.279
-133.523
-132.72
-131.871
-130.977
-130.039
-129.057
-128.033
-126.966
-125.857
-124.707
-123.517
-122.287
-121.018
-119.709
-118.363
-116.979
-115.558
-114.101
-112.61
-111.085
-109.529
-107.944
-106.331
-104.692
-103.032
-101.352
-99.655
-97.944
-96.223
-94.496
-92.764
-91.032
-89.302
-87.579
-85.863
-84.159
-82.468
-80.792
-79.134
-77.494
-75.875
-74.278
-72.704
-71.155
-69.633
-68.138
-66.672
-65.237
-63.833
-62.462
-61.123
-59.819
-58.548
-57.313
-56.113
-54.949
-53.82
-52.728
-51.671
-50.651
-49.668
-48.72
-47.808
-46.933
-46.094
-45.291
-44.525
-43.798
-43.11
-42.461
-41.855
-41.291
-40.773
-40.299
-39.873
-39.495
-39.165
-38.885
-38.653
-38.471
-38.339
-38.255
-38.219
-38.231
-38.288
-38.389
-38.533
-38.716
-38.937
-39.191
-39.476
-39.789
-40.124
-40.478
-40.845
-41.222
-41.602
-41.98
-42.349
-42.703
-43.034
-43.334
-43.596
-43.812
-43.974
-44.074
-44.104
-44.058
-43.927
-43.706
-43.389
-42.97
-42.444
-41.807
-41.057
-40.191
-39.208
-38.108
-36.892
-35.562
-34.121
-32.575
-30.927
-29.187
-27.361
-25.461
-23.497
-21.482
-19.43
-17.359
-15.284
-13.224
-11.196
-9.218
-7.311
-5.493
-3.783
-2.199
-0.761
0.51
1.595
2.473
3.127
3.54
3.702
3.602
3.232
2.584
1.648
0.416
-1.116
-2.955
-5.107
-7.573
-10.35
-13.424
-16.76
-20.321
-24.069
-27.961
-31.962
-36.03
-40.115
-44.166
-48.13
-51.948
-55.568
-58.934
-61.983
-64.667
-66.952
-68.839
-70.396
-71.7
-72.839
-73.895
-74.918
-75.986
-77.226
-78.771
-80.767
-83.353
-86.576
-90.537
-95.472
-101.44
-108.322
-115.767
-122.987
-129.249
-134.168
-137.246
-137.793
-135.549
-130.613
-123.677
-116.597
-110.954
-107.326
-106.446
-109.193
-115.541
-124.676
-133.535
-136.056
-126.984
-103.765
-67.767
-22.165
31.175
92.571
169.246
268.232
392.221
542.618
708.472
869.893
1006.435
1093.359
1113.271
1064.791
954.464
797.16
614.534
424.212
243.451
91.229
-21.436
-90.598
-119.684
-120.893
-105.52
-81.225
-54.797
-32.429
-20.486
-23.538
-40.287
-63.157
-84.487
-99.57
-108.086
-114.171
-120.077
-125.708
-130.174
-131.353
-128.803
-123.69
-117.031
-110.077
-103.942
-98.983
-95.361
-93.15
-92.066
-91.88
-92.477
-93.646
-95.184
-96.928
-98.696
-100.351
-101.828
-103.03
-103.843
-104.183
-103.986
-103.259
-102.067
-100.47
-98.528
-96.304
-93.86
-91.28
-88.664
-86.099
-83.67
-81.443
-79.459
-77.765
-76.398
-75.361
-74.63
-74.144
-73.817
-73.599
-73.466
-73.38
-73.304
-73.187
-72.951
-72.536
-71.887
-70.934
-69.631
-67.933
-65.793
-63.211
-60.2
-56.778
-52.973
-48.772
-44.131
-39.036
-33.483
-27.476
-21.056
-14.258
-7.127
0.243
7.772
15.394
23.043
30.697
38.345
45.959
53.517
60.974
68.27
75.375
82.273
88.938
95.375
101.591
107.614
113.523
119.389
125.252
131.139
137.036
142.905
148.726
154.47
160.096
165.566
170.815
175.767
180.374
184.578
188.313
191.497
194
195.697
196.501
196.337
195.177
193.021
189.864
185.719
180.63
174.653
167.859
160.336
152.132
143.291
133.873
123.956
113.661
103.122
92.458
81.783
71.188
60.739
50.503
40.533
30.854
21.481
12.426
3.691
-4.685
-12.643
-20.145
-27.167
-33.717
-39.829
-45.541
-50.901
-55.948
-60.713
-65.221
-69.491
-73.522
-77.311
-80.857
-84.155
-87.228
-90.119
-92.859
-95.476
-97.979
-100.357
-102.593
-104.657
-106.523
-108.168
-109.577
-110.746
-111.679
-112.385
-112.876
-113.167
-113.265
-113.164
-112.863
-112.36
-111.664
-110.789
-109.758
-108.599
-107.339
-106.006
-104.622
-103.204
-101.765
-100.313
-98.854
-97.389
-95.922
-94.459
-93.006
-91.568
-90.15
-88.754
-87.379
-86.024
-84.686
-83.361
-82.046
-80.738
-79.435
-78.135
-76.839
-75.546
-74.258
-72.972
-71.69
-70.408
-69.125
-67.841
-66.553
-65.261
-63.962
-62.657
-61.346
-60.029
-58.709
-57.385
-56.061
-54.737
-53.417
-52.105
-50.802
-49.513
-48.241
-46.99
-45.765
-44.568
-43.404
-42.278
-41.193
-40.153
-39.162
-38.225
-37.345
-36.527
-35.773
-35.087
-34.473
-33.933
-33.47
-33.085
-32.78
-32.557
-32.416
-32.357
-32.381
-32.485
-32.669
-32.93
-33.265
-33.671
-34.144
-34.68
-35.275
-35.922
-36.619
-37.358
-38.137
-38.949
-39.789
-40.653
-41.536
-42.434
-43.341
-44.253
-45.165
-46.071
-46.968
-47.851
-48.715
-49.556
-50.371
-51.157
-51.91
-52.628
-53.31
-53.953
-54.557
-55.121
-55.644
-56.127
-56.57
-56.974
-57.341
-57.673
-57.971
-58.239
-58.476
-58.686
-58.869
-59.028
-59.161
-59.27
-59.353
-59.409
-59.439
-59.441
-59.415
-59.36
-59.276
-59.164
-59.024
-58.858
-58.664
-58.44
-58.184
-57.89
-57.557
-57.179
-56.751
-56.266
-55.717
-55.102
-54.419
-53.664
-52.833
-51.92
-50.914
-49.81
-48.61
-47.313
-45.924
-44.447
-42.892
-41.276
-39.627
-37.97
-36.324
-34.698
-33.093
-31.515
-29.969
-28.464
-27.009
-25.598
-24.223
-22.881
-21.572
-20.296
-19.04
-17.776
-16.455
-15.044
-13.529
-11.92
-10.241
-8.514
-6.764
-5.023
-3.336
-1.77
-0.386
0.763
1.638
2.205
2.407
2.17
1.403
0.044
-1.925
-4.484
-7.593
-11.213
-15.289
-19.752
-24.5
-29.4
-34.337
-39.201
-43.902
-48.357
-52.458
-56.086
-59.122
-61.502
-63.245
-64.425
-65.131
-65.435
-65.395
-65.106
-64.729
-64.449
-64.438
-64.847
-65.749
-67.301
-69.812
-73.391
-77.994
-83.355
-88.752
-93.487
-97.107
-98.888
-97.975
-94.192
-87.643
-78.878
-69.822
-62.26
-57.309
-56.955
-61.932
-69.951
-78.781
-85.675
-88.225
-88.969
-89.379
-84.909
-67.375
-23.829
57.251
176.886
329.044
502.696
683.037
857.118
1009.413
1122.218
1179.943
1169.483
1089.108
946.483
756.994
545.794
337.276
156.91
24.649
-56.539
-91.405
-95.677
-88.023
-73.585
-57.057
-40.814
-23.813
-15.1
-18.342
-29.063
-45.314
-60.301
-70.327
-79.302
-87.984
-96.274
-103.984
-108.334
-108.355
-105.005
-99.108
-91.787
-84.192
-77.133
-71.113
-66.459
-63.186
-60.99
-59.674
-59.134
-59.194
-59.68
-60.431
-61.281
-62.158
-63.09
-64.083
-65.085
-66.014
-66.764
-67.27
-67.53
-67.566
-67.403
-67.066
-66.578
-65.963
-65.267
-64.539
-63.794
-63.024
-62.18
-61.184
-59.991
-58.588
-56.976
-55.153
-53.101
-50.786
-48.19
-45.307
-42.129
-38.649
-34.85
-30.708
-26.23
-21.441
-16.39
-11.148
-5.764
-0.264
5.329
11.002
16.742
22.535
28.379
34.286
40.263
46.309
52.419
58.58
64.791
71.058
77.391
83.807
90.312
96.905
103.58
110.326
117.128
123.966
130.814
137.636
144.401
151.078
157.639
164.056
170.303
176.345
182.154
187.697
192.945
197.869
202.441
206.633
210.422
213.783
216.696
219.145
221.112
222.582
223.542
223.979
223.883
223.247
222.067
220.338
218.061
215.238
211.876
207.983
203.572
198.657
193.254
187.385
181.07
174.333
167.201
159.701
151.863
143.717
135.294
126.628
117.752
108.7
99.507
90.207
80.836
71.428
62.016
52.633
43.314
34.088
24.988
16.042
7.279
-1.275
-9.594
-17.654
-25.435
-32.916
-40.08
-46.913
-53.401
-59.533
-65.301
-70.697
-75.718
-80.361
-84.625
-88.512
-92.025
-95.168
-97.95
-100.376
-102.459
-104.207
-105.633
-106.75
-107.571
-108.112
-108.387
-108.411
-108.202
-107.774
-107.145
-106.332
-105.35
-104.215
-102.945
-101.554
-100.058
-98.471
-96.806
-95.078
-93.297
-91.478
-89.629
-87.763
-85.888
-84.013
-82.147
-80.296
-78.467
-76.665
-74.897
-73.165
-71.473
-69.825
-68.223
-66.669
-65.165
-63.711
-62.309
-60.959
-59.661
-58.415
-57.22
-56.076
-54.982
-53.937
-52.941
-51.993
-51.091
-50.236
-49.427
-48.662
-47.941
-47.264
-46.629
-46.035
-45.482
-44.97
-44.497
-44.062
-43.665
-43.305
-42.982
-42.694
-42.441
-42.222
-42.036
-41.882
-41.759
-41.666
-41.601
-41.564
-41.552
-41.564
-41.599
-41.654
-41.729
-41.821
-41.927
-42.047
-42.178
-42.317
-42.463
-42.613
-42.766
-42.918
-43.07
-43.218
-43.361
-43.499
-43.63
-43.752
-43.866
-43.971
-44.065
-44.149
-44.223
-44.285
-44.338
-44.38
-44.414
-44.44
-44.46
-44.475
-44.488
-44.5
-44.515
-44.533
-44.558
-44.592
-44.638
-44.698
-44.775
-44.872
-44.991
-45.136
-45.308
-45.511
-45.746
-46.014
-46.318
-46.658
-47.035
-47.449
-47.901
-48.39
-48.915
-49.477
-50.074
-50.705
-51.368
-52.059
-52.777
-53.516
-54.273
-55.041
-55.814
-56.585
-57.348
-58.096
-58.823
-59.522
-60.187
-60.811
-61.39
-61.918
-62.388
-62.791
-63.119
-63.363
-63.516
-63.57
-63.515
-63.345
-63.051
-62.632
-62.085
-61.407
-60.597
-59.648
-58.554
-57.313
-55.929
-54.406
-52.75
-50.973
-49.091
-47.128
-45.122
-43.1
-41.082
-39.083
-37.109
-35.17
-33.276
-31.433
-29.648
-27.924
-26.261
-24.664
-23.147
-21.71
-20.345
-19.026
-17.707
-16.361
-14.983
-13.574
-12.152
-10.74
-9.367
-8.084
-6.953
-6.031
-5.369
-5
-4.932
-5.183
-5.769
-6.72
-8.083
-9.875
-12.088
-14.706
-17.69
-20.986
-24.522
-28.18
-31.819
-35.312
-38.551
-41.459
-44.004
-46.173
-47.978
-49.452
-50.61
-51.474
-52.098
-52.549
-52.938
-53.409
-54.105
-55.17
-56.812
-59.31
-62.822
-67.31
-72.468
-77.679
-82.341
-86.068
-88.444
-88.815
-86.745
-82.332
-76.337
-70.403
-66.043
-63.741
-63.869
-67.268
-74.358
-84.625
-94.975
-99.546
-93.557
-74.949
-45.639
-9.3
34.894
90.971
165.667
265.593
388.726
527.84
673.333
813.361
939.172
1042.73
1113.755
1140.086
1111.071
1022.592
877.909
692.517
490.392
295.866
133.777
19.59
-44.957
-67.829
-65.463
-53.693
-43.058
-36.935
-34.226
-34.461
-35.283
-36.792
-39.703
-42.79
-48.255
-56.692
-66.945
-78.315
-87.576
-92.627
-93.514
-90.408
-84.334
-76.429
-67.253
-57.639
-48.623
-40.737
-34.203
-29.002
-24.872
-21.637
-19.221
-17.503
-16.327
-15.607
-15.287
-15.345
-15.801
-16.608
-17.674
-18.908
-20.199
-21.491
-22.761
-24.002
-25.226
-26.447
-27.658
-28.855
-30.024
-31.116
-32.077
-32.851
-33.358
-33.562
-33.448
-33.013
-32.28
-31.258
-29.938
-28.315
-26.381
-24.125
-21.551
-18.661
-15.454
-11.962
-8.225
-4.293
-0.232
3.919
8.143
12.435
16.801
21.247
25.773
30.385
35.09
39.889
44.776
49.734
54.746
59.808
64.927
70.124
75.421
80.826
86.332
91.922
97.587
103.322
109.123
114.982
120.895
126.867
132.927
139.122
145.487
152.039
158.775
165.665
172.685
179.808
187.009
194.265
201.536
208.761
215.885
222.852
229.587
236.009
242.002
247.408
252.102
255.979
258.954
260.982
262.016
262.011
260.936
258.762
255.474
251.087
245.612
239.061
231.474
222.891
213.399
203.138
192.227
180.778
168.899
156.67
144.178
131.525
118.803
106.111
93.557
81.221
69.188
57.548
46.374
35.746
25.716
16.282
7.452
-0.774
-8.406
-15.439
-21.88
-27.763
-33.124
-38.013
-42.5
-46.635
-50.464
-54.045
-57.425
-60.668
-63.822
-66.906
-69.935
-72.916
-75.853
-78.754
-81.623
-84.438
-87.175
-89.801
-92.268
-94.546
-96.615
-98.451
-100.037
-101.351
-102.378
-103.115
-103.574
-103.764
-103.695
-103.379
-102.824
-102.056
-101.103
-99.996
-98.771
-97.456
-96.07
-94.636
-93.171
-91.692
-90.212
-88.74
-87.276
-85.826
-84.394
-82.985
-81.607
-80.261
-78.946
-77.663
-76.412
-75.193
-74.008
-72.858
-71.744
-70.67
-69.637
-68.649
-67.711
-66.825
-65.992
-65.214
-64.49
-63.82
-63.205
-62.643
-62.132
-61.67
-61.258
-60.892
-60.573
-60.298
-60.066
-59.876
-59.726
-59.615
-59.542
-59.505
-59.504
-59.536
-59.601
-59.696
-59.819
-59.969
-60.144
-60.341
-60.557
-60.791
-61.04
-61.301
-61.571
-61.848
-62.129
-62.412
-62.694
-62.974
-63.249
-63.518
-63.78
-64.033
-64.276
-64.509
-64.731
-64.94
-65.137
-65.321
-65.492
-65.649
-65.792
-65.921
-66.035
-66.136
-66.223
-66.297
-66.359
-66.41
-66.45
-66.482
-66.508
-66.528
-66.545
-66.562
-66.581
-66.605
-66.637
-66.679
-66.734
-66.804
-66.893
-67.002
-67.133
-67.289
-67.469
-67.676
-67.91
-68.172
-68.461
-68.777
-69.118
-69.484
-69.873
-70.286
-70.72
-71.174
-71.648
-72.14
-72.65
-73.175
-73.712
-74.259
-74.81
-75.359
-75.901
-76.428
-76.934
-77.408
-77.843
-78.232
-78.569
-78.845
-79.05
-79.171
-79.201
-79.136
-78.973
-78.714
-78.361
-77.922
-77.405
-76.831
-76.214
-75.568
-74.904
-74.225
-73.538
-72.846
-72.155
-71.474
-70.804
-70.134
-69.449
-68.732
-67.959
-67.109
-66.146
-65.026
-63.714
-62.184
-60.423
-58.435
-56.23
-53.824
-51.244
-48.516
-45.686
-42.813
-39.966
-37.222
-34.664
-32.374
-30.45
-28.997
-28.106
-27.85
-28.279
-29.414
-31.256
-33.779
-36.938
-40.676
-44.91
-49.546
-54.475
-59.564
-64.687
-69.701
-74.459
-78.815
-82.636
-85.807
-88.258
-89.966
-90.95
-91.286
-91.06
-90.354
-89.284
-87.997
-86.675
-85.522
-84.711
-84.386
-84.743
-86.06
-88.542
-92.193
-96.731
-101.631
-106.381
-110.605
-113.855
-115.402
-114.62
-111.499
-106.788
-101.802
-97.738
-95.249
-94.973
-98.128
-105.781
-116.395
-125.788
-129.607
-124.796
-113.163
-98.957
-80.982
-51.762
0.213
83.825
199.035
335.184
476.995
616.64
748.994
869.617
974.491
1045
1059.662
1007.417
883.648
702.781
493.061
281.162
93.198
-52.834
-149.777
-198.105
-204.9
-180.719
-139.72
-95.216
-59.646
-43.031
-46.491
-64.871
-87.485
-104.122
-111.693
-112.077
-111.319
-113.537
-118.014
-122.664
-124.662
-122.843
-118.251
-112.071
-105.334
-98.941
-93.527
-89.463
-86.939
-85.826
-85.777
-86.55
-87.982
-89.883
-92.041
-94.236
-96.262
-97.988
-99.348
-100.273
-100.686
-100.51
-99.71
-98.309
-96.374
-94.023
-91.366
-88.492
-85.497
-82.453
-79.408
-76.419
-73.529
-70.763
-68.146
-65.68
-63.339
-61.121
-59.011
-56.982
-55.011
-53.036
-50.993
-48.846
-46.566
-44.15
-41.632
-39.031
-36.362
-33.652
-30.909
-28.155
-25.427
-22.722
-20.021
-17.285
-14.447
-11.476
-8.354
-5.047
-1.518
2.287
6.446
11.004
15.988
21.426
27.324
33.698
40.564
47.895
55.633
63.697
71.986
80.433
88.993
97.613
106.253
114.867
123.408
131.868
140.246
148.526
156.69
164.707
172.546
180.202
187.69
195.016
202.182
209.161
215.903
222.356
228.449
234.092
239.177
243.575
247.173
249.89
251.664
252.443
252.179
250.815
248.305
244.632
239.808
233.862
226.838
218.793
209.814
200.012
189.528
178.506
167.056
155.275
143.25
131.075
118.858
106.708
94.722
82.974
71.515
60.394
49.661
39.351
29.476
20.032
10.996
2.357
-5.865
-13.66
-21.022
-27.959
-34.502
-40.677
-46.509
-52.009
-57.18
-62.031
-66.577
-70.826
-74.773
-78.409
-81.719
-84.699
-87.359
-89.7
-91.707
-93.366
-94.659
-95.582
-96.141
-96.359
-96.271
-95.907
-95.294
-94.46
-93.437
-92.263
-90.977
-89.621
-88.233
-86.867
-85.591
-84.461
-83.526
-82.809
-82.314
-82.024
-81.901
-81.915
-82.04
-82.251
-82.532
-82.864
-83.224
-83.592
-83.942
-84.238
-84.429
-84.474
-84.341
-84.017
-83.509
-82.842
-82.055
-81.184
-80.256
-79.298
-78.321
-77.339
-76.357
-75.381
-74.414
-73.467
-72.56
-71.71
-70.931
-70.231
-69.603
-69.036
-68.512
-68.013
-67.525
-67.035
-66.539
-66.033
-65.52
-65.005
-64.496
-63.996
-63.508
-63.032
-62.565
-62.109
-61.666
-61.238
-60.829
-60.444
-60.086
-59.758
-59.463
-59.201
-58.971
-58.769
-58.593
-58.439
-58.302
-58.181
-58.072
-57.975
-57.888
-57.808
-57.735
-57.667
-57.602
-57.539
-57.475
-57.407
-57.335
-57.256
-57.169
-57.073
-56.968
-56.854
-56.73
-56.598
-56.458
-56.312
-56.162
-56.009
-55.856
-55.706
-55.56
-55.423
-55.298
-55.187
-55.095
-55.023
-54.977
-54.957
-54.968
-55.01
-55.086
-55.195
-55.34
-55.519
-55.733
-55.98
-56.26
-56.571
-56.91
-57.276
-57.664
-58.07
-58.49
-58.918
-59.348
-59.774
-60.187
-60.581
-60.948
-61.278
-61.564
-61.796
-61.965
-62.062
-62.078
-62.003
-61.829
-61.548
-61.151
-60.632
-59.985
-59.205
-58.287
-57.229
-56.029
-54.686
-53.2
-51.574
-49.81
-47.912
-45.886
-43.738
-41.475
-39.107
-36.646
-34.105
-31.498
-28.842
-26.154
-23.455
-20.764
-18.102
-15.488
-12.944
-10.49
-8.143
-5.925
-3.855
-1.952
-0.238
1.269
2.551
3.592
4.378
4.901
5.154
5.133
4.837
4.257
3.388
2.223
0.755
-1.022
-3.108
-5.499
-8.175
-11.102
-14.242
-17.551
-20.981
-24.485
-28.016
-31.519
-34.944
-38.228
-41.306
-44.116
-46.591
-48.665
-50.285
-51.426
-52.115
-52.418
-52.427
-52.232
-51.906
-51.548
-51.301
-51.315
-51.731
-52.681
-54.231
-56.517
-59.82
-64.269
-69.785
-76.106
-82.633
-88.765
-94.143
-98.197
-100.047
-99.231
-95.817
-90.326
-84.113
-78.612
-74.628
-73.196
-75.989
-82.414
-89.363
-94.092
-92.483
-84.253
-74.688
-63.478
-45.887
-12.117
52.937
154.481
287.442
441.045
600.162
755.082
898.797
1020.884
1108.801
1145.747
1118.633
1026.572
876.889
687.305
482.088
282.666
112.088
-13.093
-90.133
-122.169
-124.378
-113.579
-96.208
-79.543
-63.676
-47.006
-35.835
-29.579
-27.824
-31.684
-36.926
-43.935
-53.604
-63.664
-73.195
-80.19
-82.957
-81.925
-77.846
-71.689
-64.485
-57.123
-50.501
-45.173
-41.344
-38.903
-37.507
-36.918
-36.965
-37.444
-38.157
-38.927
-39.648
-40.302
-40.931
-41.544
-42.094
-42.515
-42.758
-42.818
-42.727
-42.535
-42.286
-42.018
-41.771
-41.581
-41.48
-41.488
-41.588
-41.734
-41.847
-41.847
-41.684
-41.333
-40.77
-39.967
-38.888
-37.493
-35.758
-33.668
-31.207
-28.361
-25.119
-21.479
-17.465
-13.122
-8.517
-3.72
1.219
6.265
11.396
16.596
21.852
27.154
32.508
37.922
43.402
48.948
54.561
60.242
66
71.846
77.793
83.858
90.042
96.341
102.738
109.204
115.709
122.221
128.704
135.124
141.446
147.636
153.666
159.507
165.138
170.548
175.734
180.692
185.437
189.98
194.341
198.557
202.656
206.655
210.57
214.406
218.169
221.866
225.492
229.032
232.459
235.717
238.736
241.444
243.734
245.509
246.67
247.095
246.681
245.343
242.998
239.58
235.031
229.294
222.329
214.127
204.7
194.1
182.411
169.732
156.209
141.994
127.238
112.119
96.808
81.469
66.271
51.387
36.971
23.177
10.158
-1.977
-13.133
-23.251
-32.307
-40.3
-47.266
-53.258
-58.334
-62.564
-66.032
-68.823
-71.035
-72.786
-74.175
-75.298
-76.263
-77.146
-78.014
-78.925
-79.905
-80.966
-82.108
-83.317
-84.575
-85.87
-87.174
-88.458
-89.685
-90.803
-91.777
-92.581
-93.182
-93.564
-93.718
-93.634
-93.322
-92.801
-92.087
-91.205
-90.179
-89.028
-87.777
-86.455
-85.09
-83.716
-82.357
-81.033
-79.759
-78.548
-77.409
-76.348
-75.366
-74.457
-73.618
-72.846
-72.135
-71.483
-70.884
-70.331
-69.816
-69.333
-68.874
-68.435
-68.009
-67.593
-67.183
-66.774
-66.366
-65.957
-65.544
-65.127
-64.701
-64.266
-63.819
-63.36
-62.888
-62.402
-61.902
-61.389
-60.865
-60.332
-59.792
-59.248
-58.701
-58.156
-57.616
-57.085
-56.566
-56.064
-55.582
-55.124
-54.693
-54.294
-53.927
-53.597
-53.304
-53.051
-52.839
-52.669
-52.544
-52.462
-52.426
-52.434
-52.487
-52.584
-52.724
-52.905
-53.126
-53.385
-53.682
-54.013
-54.377
-54.773
-55.197
-55.649
-56.126
-56.626
-57.145
-57.679
-58.226
-58.782
-59.343
-59.908
-60.472
-61.035
-61.597
-62.16
-62.727
-63.296
-63.869
-64.447
-65.029
-65.617
-66.21
-66.807
-67.407
-68.01
-68.621
-69.249
-69.897
-70.561
-71.236
-71.908
-72.568
-73.209
-73.821
-74.385
-74.894
-75.342
-75.736
-76.097
-76.433
-76.745
-77.028
-77.263
-77.444
-77.578
-77.671
-77.736
-77.783
-77.819
-77.866
-77.96
-78.114
-78.323
-78.558
-78.761
-78.889
-78.924
-78.849
-78.663
-78.357
-77.903
-77.283
-76.486
-75.49
-74.281
-72.82
-71.048
-68.939
-66.499
-63.763
-60.811
-57.698
-54.463
-51.143
-47.773
-44.389
-41.039
-37.758
-34.565
-31.491
-28.572
-25.864
-23.444
-21.363
-19.643
-18.288
-17.269
-16.572
-16.195
-16.131
-16.363
-16.879
-17.661
-18.709
-20.043
-21.672
-23.597
-25.81
-28.284
-30.999
-33.943
-37.097
-40.437
-43.931
-47.537
-51.217
-54.943
-58.678
-62.383
-66.005
-69.46
-72.67
-75.561
-78.058
-80.099
-81.648
-82.7
-83.288
-83.494
-83.401
-83.073
-82.597
-82.082
-81.645
-81.414
-81.509
-82.018
-83.103
-85.062
-88.078
-92.128
-96.979
-102.073
-106.824
-110.829
-113.529
-114.067
-111.923
-107.19
-100.506
-93.37
-87.458
-83.767
-83.356
-87.867
-96.97
-107.836
-117.505
-121.471
-118.492
-112.616
-103.505
-86.884
-53.177
12.22
114.491
249.001
404.429
564.582
720.184
865.891
993.46
1093.306
1148.735
1142.543
1068.956
930.985
743.988
533.222
323.468
138.385
-4.622
-97.961
-143.232
-149.507
-128.557
-93.831
-56.616
-26.549
-11.64
-13.433
-28.536
-48.527
-65.109
-75.432
-80.364
-84.541
-90.917
-98.377
-105.078
-108.614
-108.037
-104.439
-99.006
-92.772
-86.732
-81.644
-77.917
-75.76
-75.071
-75.485
-76.759
-78.727
-81.169
-83.852
-86.545
-89.024
-91.149
-92.842
-93.987
-94.48
-94.227
-93.162
-91.317
-88.769
-85.62
-82.006
-78.04
-73.834
-69.509
-65.172
-60.928
-56.872
-53.068
-49.571
-46.431
-43.673
-41.305
-39.315
-37.632
-36.176
-34.863
-33.589
-32.274
-30.849
-29.238
-27.388
-25.257
-22.81
-20.029
-16.906
-13.431
-9.607
-5.446
-0.968
3.783
8.765
13.943
19.272
24.719
30.258
35.856
41.488
47.132
52.768
58.384
63.977
69.549
75.096
80.619
86.113
91.575
97.01
102.429
107.843
113.259
118.696
124.177
129.744
135.455
141.348
147.444
153.739
160.216
166.861
173.666
180.617
187.699
194.876
202.095
209.306
216.449
223.437
230.159
236.464
242.168
247.122
251.21
254.342
256.457
257.482
257.345
255.993
253.377
249.473
244.276
237.771
229.968
220.927
210.742
199.568
187.596
174.991
161.899
148.452
134.767
120.977
107.223
93.631
80.332
67.447
55.091
43.394
32.459
22.346
13.082
4.647
-3.009
-9.923
-16.136
-21.691
-26.621
-30.983
-34.841
-38.258
-41.319
-44.1
-46.68
-49.151
-51.586
-54.033
-56.527
-59.075
-61.669
-64.306
-66.974
-69.656
-72.344
-75.017
-77.648
-80.207
-82.65
-84.939
-87.041
-88.921
-90.556
-91.933
-93.045
-93.896
-94.502
-94.878
-95.04
-95.012
-94.808
-94.449
-93.962
-93.37
-92.707
-92.002
-91.275
-90.546
-89.832
-89.143
-88.489
-87.876
-87.302
-86.766
-86.268
-85.805
-85.381
-84.993
-84.637
-84.312
-84.012
-83.734
-83.474
-83.233
-83.006
-82.793
-82.592
-82.405
-82.231
-82.071
-81.925
-81.792
-81.668
-81.554
-81.447
-81.344
-81.244
-81.145
-81.044
-80.941
-80.833
-80.722
-80.605
-80.482
-80.353
-80.217
-80.075
-79.927
-79.775
-79.618
-79.458
-79.297
-79.134
-78.973
-78.814
-78.658
-78.505
-78.357
-78.214
-78.076
-77.943
-77.814
-77.69
-77.569
-77.451
-77.336
-77.222
-77.11
-76.999
-76.889
-76.78
-76.672
-76.564
-76.456
-76.35
-76.244
-76.138
-76.033
-75.928
-75.823
-75.717
-75.612
-75.504
-75.395
-75.284
-75.169
-75.05
-74.925
-74.796
-74.66
-74.519
-74.374
-74.226
-74.075
-73.925
-73.778
-73.636
-73.501
-73.377
-73.264
-73.166
-73.083
-73.016
-72.967
-72.934
-72.916
-72.913
-72.923
-72.945
-72.977
-73.017
-73.062
-73.113
-73.168
-73.224
-73.28
-73.332
-73.378
-73.414
-73.438
-73.444
-73.429
-73.384
-73.305
-73.186
-73.02
-72.798
-72.507
-72.132
-71.66
-71.087
-70.406
-69.616
-68.718
-67.716
-66.621
-65.453
-64.232
-62.972
-61.683
-60.368
-59.036
-57.701
-56.38
-55.091
-53.837
-52.612
-51.409
-50.214
-49.005
-47.75
-46.393
-44.865
-43.114
-41.107
-38.825
-36.268
-33.43
-30.308
-26.907
-23.249
-19.38
-15.361
-11.252
-7.124
-3.065
0.81
4.352
7.402
9.833
11.546
12.471
12.55
11.732
9.982
7.294
3.713
-0.694
-5.844
-11.651
-18.016
-24.815
-31.88
-39.012
-46.014
-52.714
-58.971
-64.661
-69.656
-73.852
-77.175
-79.612
-81.237
-82.148
-82.445
-82.231
-81.591
-80.64
-79.545
-78.48
-77.612
-77.11
-77.079
-77.701
-79.274
-81.925
-85.636
-90.139
-94.729
-98.712
-101.568
-102.528
-100.811
-96.114
-88.261
-78.036
-67.467
-58.176
-51.685
-48.944
-49.181
-51.274
-53.841
-56.315
-59.61
-63.778
-67.207
-62.886
-39.294
13.727
104.027
232.086
390.69
568.816
751.141
918.492
1050.726
1131.71
1150.286
1106.553
1010.001
870.983
704.66
525.357
347.574
191.064
69.543
-9.392
-46.203
-53.763
-44.131
-27.56
-13.796
-4.838
-3.316
-10.734
-22.05
-34.285
-44.283
-50.361
-56.062
-63.287
-72.039
-80.902
-86.743
-88.205
-85.589
-79.742
-71.965
-63.137
-53.954
-45.35
-37.935
-31.978
-27.526
-24.401
-22.477
-21.685
-21.896
-22.922
-24.589
-26.775
-29.393
-32.377
-35.602
-38.896
-42.094
-45.053
-47.676
-49.901
-51.668
-52.914
-53.603
-53.736
-53.324
-52.396
-50.964
-49.015
-46.55
-43.59
-40.174
-36.358
-32.204
-27.764
-23.086
-18.217
-13.206
-8.116
-3.002
2.098
7.158
12.152
17.048
21.795
26.332
30.623
34.647
38.399
41.897
45.163
48.22
51.105
53.868
56.568
59.283
62.085
65.021
68.137
71.484
75.122
79.141
83.608
88.565
94.04
100.027
106.511
113.485
120.927
128.797
137.049
145.619
154.446
163.514
172.802
182.283
191.912
201.602
211.279
220.886
230.379
239.729
248.907
257.877
266.603
275.06
283.211
291.011
298.391
305.233
311.41
316.804
321.321
324.9
327.479
328.998
329.395
328.606
326.578
323.254
318.585
312.536
305.106
296.328
286.282
275.1
262.931
249.944
236.293
222.125
207.588
192.823
177.976
163.199
148.649
134.502
120.939
108.109
96.129
85.081
75
65.893
57.743
50.499
44.106
38.505
33.634
29.437
25.85
22.791
20.16
17.829
15.67
13.58
11.475
9.293
6.994
4.548
1.946
-0.798
-3.659
-6.611
-9.632
-12.707
-15.812
-18.911
-21.953
-24.876
-27.621
-30.148
-32.428
-34.441
-36.177
-37.628
-38.801
-39.717
-40.402
-40.879
-41.168
-41.283
-41.245
-41.08
-40.819
-40.494
-40.135
-39.761
-39.387
-39.027
-38.691
-38.386
-38.113
-37.869
-37.649
-37.451
-37.276
-37.125
-36.995
-36.884
-36.789
-36.704
-36.627
-36.558
-36.492
-36.428
-36.363
-36.298
-36.231
-36.164
-36.096
-36.027
-35.955
-35.879
-35.797
-35.708
-35.613
-35.51
-35.399
-35.281
-35.156
-35.027
-34.893
-34.758
-34.621
-34.485
-34.351
-34.22
-34.094
-33.975
-33.864
-33.763
-33.674
-33.599
-33.539
-33.498
-33.476
-33.476
-33.501
-33.554
-33.636
-33.75
-33.898
-34.083
-34.307
-34.572
-34.879
-35.23
-35.626
-36.067
-36.555
-37.09
-37.67
-38.295
-38.965
-39.679
-40.436
-41.235
-42.075
-42.955
-43.873
-44.829
-45.823
-46.852
-47.915
-49.012
-50.14
-51.298
-52.483
-53.694
-54.928
-56.182
-57.453
-58.737
-60.033
-61.335
-62.641
-63.946
-65.248
-66.542
-67.825
-69.094
-70.345
-71.574
-72.78
-73.959
-75.107
-76.222
-77.3
-78.338
-79.332
-80.28
-81.177
-82.02
-82.806
-83.53
-84.189
-84.78
-85.298
-85.741
-86.107
-86.392
-86.594
-86.714
-86.75
-86.701
-86.568
-86.353
-86.058
-85.685
-85.237
-84.719
-84.134
-83.489
-82.789
-82.041
-81.251
-80.428
-79.582
-78.725
-77.868
-77.024
-76.208
-75.434
-74.718
-74.076
-73.523
-73.071
-72.736
-72.532
-72.472
-72.573
-72.85
-73.318
-73.989
-74.875
-75.986
-77.33
-78.909
-80.721
-82.765
-85.04
-87.554
-90.315
-93.331
-96.606
-100.142
-103.933
-107.968
-112.227
-116.675
-121.273
-125.98
-130.754
-135.563
-140.372
-145.145
-149.837
-154.378
-158.697
-162.728
-166.407
-169.674
-172.498
-174.867
-176.803
-178.378
-179.657
-180.699
-181.58
-182.379
-183.206
-184.189
-185.457
-187.142
-189.427
-192.569
-196.722
-201.845
-207.648
-213.573
-219.019
-223.498
-226.485
-227.25
-225.339
-220.953
-214.948
-208.962
-204.716
-203.201
-205.165
-211.585
-222.811
-237.842
-254.265
-268.075
-274.806
-270.968
-253.345
-218.358
-162.869
-86.377
7.991
114.897
227.633
342.449
460.024
580.067
699.048
807.517
889.075
924.839
900.727
812.596
665.302
476.029
270.134
71.631
-94.725
-212.942
-282.358
-308.546
-303.989
-281.837
-247.871
-208.573
-172.703
-147.867
-141.035
-151.68
-169.632
-185.416
-193.386
-193.292
-191.491
-191.937
-194.404
-197.482
-198.227
-195.529
-190.572
-184.46
-178.21
-172.649
-168.209
-165.129
-163.511
-163.145
-163.635
-164.703
-166.159
-167.826
-169.526
-171.07
-172.274
-173.018
-173.245
-172.892
-171.905
-170.248
-167.927
-164.988
-161.525
-157.667
-153.53
-149.222
-144.849
-140.484
-136.191
-132.039
-128.079
-124.348
-120.875
-117.66
-114.684
-111.928
-109.353
-106.908
-104.534
-102.14
-99.642
-96.975
-94.075
-90.909
-87.463
-83.717
-79.665
-75.313
-70.662
-65.729
-60.539
-55.107
-49.456
-43.613
-37.592
-31.431
-25.174
-18.852
-12.512
-6.177
0.162
6.511
12.88
19.291
25.744
