Name
Date of Birth,"Mar 27, 1959"
Recorded Date,2019-09-24 13:27:34 -0500
Classification,Sinus Rhythm
Symptoms,
Software Version,1.30
Device,"Watch4,2"
Sample Rate,510.227 hertz


Lead,Lead I
Unit,µV

138.101
150.203
161.259
171.092
179.573
186.61
192.12
196.039
198.31
198.904
197.85
195.222
191.134
185.74
179.208
171.72
163.489
154.729
145.632
136.362
127.044
117.775
108.654
99.777
91.239
83.124
75.478
68.313
61.606
55.317
49.396
43.78
38.398
33.149
27.903
22.536
16.929
10.964
4.609
-2.195
-9.599
-17.604
-26.108
-34.912
-43.506
-51.429
-58.612
-64.956
-70.359
-75.192
-79.742
-84.393
-90.335
-98.417
-108.654
-121.037
-134.877
-148.347
-160.019
-168.359
-170.675
-165.065
-150.603
-126.295
-92.771
-52.504
-7.621
39.292
84.418
125.012
158.887
183.445
197.929
203.344
200.605
191.506
178.738
163.901
148.478
134.477
122.68
113.017
105.424
99.005
92.515
85.552
77.782
68.711
58.415
47.076
34.877
22.449
10.472
-0.715
-10.862
-19.823
-27.647
-34.329
-39.875
-44.406
-48.044
-50.907
-53.108
-54.718
-55.8
-56.417
-56.642
-56.555
-56.226
-55.727
-55.121
-54.443
-53.714
-52.949
-52.138
-51.285
-50.407
-49.483
-48.488
-47.39
-46.143
-44.724
-43.12
-41.322
-39.336
-37.163
-34.808
-32.296
-29.661
-26.953
-24.25
-21.618
-19.111
-16.804
-14.772
-13.095
-11.863
-11.137
-10.953
-11.331
-12.268
-13.763
-15.822
-18.45
-21.682
-25.534
-29.995
-35.05
-40.664
-46.799
-53.439
-60.561
-68.134
-76.15
-84.592
-93.491
-102.989
-113.123
-123.77
-134.639
-145.144
-154.68
-162.819
-169.059
-172.757
-173.601
-171.696
-167.645
-162.914
-159.034
-157.052
-158.072
-163.161
-172.599
-185.702
-200.728
-214.363
-222.746
-222.426
-209.562
-180.067
-131.964
-66.474
13.235
101.515
194.882
296.027
407.075
526.865
646.792
745.187
796.354
779.66
684.955
521.216
315.466
102.821
-80.198
-207.025
-272.314
-286.89
-272.807
-254.686
-244.124
-242.654
-245.573
-244.753
-239.479
-233.289
-229.741
-233.113
-243.845
-259.452
-277.631
-295.54
-310.688
-322.132
-329.53
-332.886
-332.824
-330.046
-325.176
-319.057
-312.566
-306.159
-300.04
-294.267
-288.693
-283.237
-277.876
-272.496
-266.972
-261.243
-255.277
-249.086
-242.723
-236.22
-229.61
-222.969
-216.377
-209.912
-203.635
-197.579
-191.754
-186.168
-180.838
-175.786
-171.031
-166.587
-162.46
-158.654
-155.168
-151.979
-149.037
-146.249
-143.512
-140.741
-137.872
-134.868
-131.707
-128.374
-124.854
-121.149
-117.266
-113.215
-109.01
-104.659
-100.173
-95.579
-90.918
-86.257
-81.668
-77.208
-72.918
-68.826
-64.948
-61.294
-57.868
-54.657
-51.643
-48.807
-46.129
-43.592
-41.181
-38.875
-36.653
-34.491
-32.362
-30.242
-28.104
-25.924
-23.686
-21.379
-19.004
-16.566
-14.075
-11.546
-9.006
-6.494
-4.054
-1.724
0.476
2.548
4.49
6.279
7.871
9.214
10.27
11.062
11.635
11.999
12.215
12.341
12.397
12.531
12.95
13.616
14.406
15.219
15.627
15.468
15.276
15.178
14.962
15.2
15.156
14.217
14.626
16.741
22.202
33.609
47.012
59.366
66.493
62.657
50.95
34.983
18.487
6.423
-3.715
-14.351
-25.815
-39.277
-52.414
-63.534
-73.533
-82.522
-90.758
-98.573
-105.465
-111.288
-116.485
-121.026
-124.491
-126.62
-127.175
-126.124
-123.754
-120.23
-115.559
-109.874
-103.381
-96.33
-89.062
-81.831
-74.794
-68.123
-61.971
-56.486
-51.84
-48.156
-45.502
-43.918
-43.405
-43.953
-45.55
-48.149
-51.681
-56.052
-61.122
-66.762
-72.85
-79.258
-85.875
-92.601
-99.321
-105.936
-112.373
-118.568
-124.475
-130.064
-135.3
-140.166
-144.654
-148.766
-152.526
-155.964
-159.114
-162.012
-164.688
-167.166
-169.476
-171.659
-173.736
-175.744
-177.731
-179.73
-181.786
-183.93
-186.16
-188.489
-190.951
-193.563
-196.354
-199.367
-202.586
-206.047
-209.878
-214.025
-218.301
-222.381
-225.636
-227.479
-227.568
-225.398
-220.369
-212.491
-202.143
-190.159
-178.306
-168.029
-160.143
-155.872
-156.226
-160.803
-168.38
-176.747
-182.018
-180.715
-170.018
-146.141
-105.448
-47.564
24.736
107.602
195.238
285.267
381.531
483.715
585.228
674.93
732.727
740.272
693.049
593.559
452.068
288.945
121.227
-35.069
-160.089
-242.621
-279.331
-271.071
-230.062
-174.235
-118.327
-77.733
-62.128
-69.281
-92.334
-119.489
-139.641
-149.744
-151.72
-150.894
-151.104
-152.582
-153.842
-152.35
-147.336
-139.681
-130.373
-120.662
-111.459
-102.965
-95.304
-88.551
-82.504
-77.051
-72.176
-67.785
-63.83
-60.315
-57.24
-54.626
-52.537
-50.991
-49.954
-49.379
-49.201
-49.361
-49.832
-50.596
-51.644
-52.97
-54.562
-56.409
-58.503
-60.814
-63.292
-65.862
-68.435
-70.926
-73.273
-75.417
-77.309
-78.913
-80.201
-81.15
-81.746
-81.973
-81.821
-81.272
-80.307
-78.917
-77.104
-74.897
-72.349
-69.521
-66.473
-63.274
-60
-56.711
-53.456
-50.267
-47.162
-44.163
-41.289
-38.568
-36.03
-33.705
-31.627
-29.817
-28.283
-27.027
-26.039
-25.291
-24.745
-24.37
-24.139
-24.037
-24.059
-24.186
-24.404
-24.698
-25.057
-25.474
-25.938
-26.438
-26.966
-27.519
-28.11
-28.776
-29.558
-30.492
-31.61
-32.939
-34.505
-36.363
-38.553
-41.104
-44.041
-47.365
-51.077
-55.18
-59.662
-64.491
-69.613
-74.934
-80.352
-85.78
-91.127
-96.312
-101.25
-105.823
-109.933
-113.499
-116.447
-118.721
-120.272
-121.041
-121.002
-120.173
-118.596
-116.367
-113.604
-110.407
-106.893
-103.163
-99.313
-95.461
-91.704
-88.119
-84.785
-81.769
-79.138
-76.978
-75.343
-74.254
-73.71
-73.664
-74.039
-74.765
-75.752
-76.925
-78.226
-79.587
-80.953
-82.292
-83.57
-84.765
-85.857
-86.799
-87.544
-88.048
-88.263
-88.172
-87.782
-87.101
-86.148
-84.93
-83.446
-81.71
-79.741
-77.546
-75.119
-72.442
-69.484
-66.267
-62.859
-59.356
-55.885
-52.545
-49.391
-46.512
-44.012
-41.999
-40.611
-39.939
-39.989
-40.855
-42.686
-45.497
-49.239
-53.619
-57.996
-61.807
-64.561
-65.633
-64.651
-61.64
-56.818
-51.148
-46.163
-43.074
-43.141
-47.541
-56.348
-68.71
-83.133
-96.676
-105.652
-106.719
-95.963
-69.428
-26.274
31.306
100.374
175.898
255.534
343.028
438.104
535.75
626.196
687.833
701.319
658.697
558.969
417.312
258.845
105.102
-21.546
-106.722
-150.55
-158.664
-145.106
-126.326
-109.628
-97.785
-88.537
-76.777
-62.891
-49.314
-38.484
-33.399
-33.962
-38.16
-44.355
-50.393
-54.462
-55.97
-54.684
-50.75
-44.821
-37.564
-29.567
-21.546
-14.168
-7.751
-2.407
1.906
5.398
8.231
10.527
12.443
14.138
15.725
17.284
18.886
20.576
22.423
24.52
26.922
29.662
32.75
36.172
39.904
43.924
48.194
52.665
57.295
62.042
66.86
71.712
76.552
81.33
85.995
90.501
94.808
98.892
102.738
106.339
109.692
112.802
115.675
118.322
120.753
122.974
124.991
126.808
128.433
129.874
131.139
132.237
133.175
133.96
134.596
135.088
135.438
135.648
135.719
135.652
135.446
135.105
134.63
134.023
133.287
132.424
131.435
130.323
129.087
127.73
126.25
124.649
122.925
121.078
119.109
117.017
114.804
112.469
110.015
107.443
104.756
101.956
99.046
96.029
92.91
89.693
86.385
82.992
79.52
75.979
72.376
68.722
65.028
61.305
57.563
53.815
50.073
46.351
42.661
39.017
35.434
31.926
28.507
25.194
22
18.941
16.031
13.283
10.71
8.322
6.129
4.141
2.365
0.809
-0.521
-1.618
-2.479
-3.098
-3.473
-3.601
-3.481
-3.114
-2.507
-1.663
-0.59
0.703
2.207
3.911
5.804
7.872
10.109
12.501
15.038
17.704
20.478
23.344
26.288
29.297
32.362
35.475
38.628
41.824
45.073
48.384
51.767
55.22
58.729
62.281
65.867
69.471
73.084
76.687
80.249
83.746
87.159
90.465
93.641
96.644
99.413
101.896
104.052
105.859
107.321
108.448
109.252
109.766
110.034
110.118
110.102
110.044
109.986
109.981
110.075
110.335
110.848
111.677
112.865
114.441
116.407
118.756
121.472
124.507
127.784
131.212
134.689
138.158
141.594
144.956
148.221
151.354
154.317
157.153
159.925
162.676
165.467
168.347
171.342
174.598
178.297
182.407
186.924
191.764
196.719
201.882
207.376
212.992
218.54
224.1
229.561
235.004
240.632
245.751
249.649
252.085
252.556
250.556
246.009
238.622
228.326
216.229
203.259
190.108
177.919
167.179
157.775
149.527
141.473
132.375
121.416
107.32
89.022
66.856
43.115
22.397
8.429
3.131
6.419
16.182
36.735
74.72
133.495
218.282
323.502
437.905
558.816
677.547
786.428
881.619
944.334
957.38
913.282
806.557
650.832
473.182
298.217
152.756
52.781
-1.82
-16.701
-6.089
16.564
43.12
65.098
79.816
84.753
78.735
67.561
55.116
45.247
39.819
34.778
27.914
18.882
8.606
0.249
-4.731
-6.592
-5.923
-3.805
-0.934
2.302
5.31
7.709
9.386
10.402
10.977
11.252
11.309
11.256
11.227
11.372
11.79
12.508
13.519
14.837
16.472
18.424
20.667
23.111
25.661
28.24
30.761
33.16
35.372
37.324
38.959
40.224
41.073
41.482
41.44
40.936
39.989
38.635
36.921
34.948
32.804
30.563
28.31
26.114
24.036
22.143
20.492
19.13
18.119
17.516
17.365
17.709
18.567
19.948
21.866
24.304
27.243
30.671
34.554
38.86
43.561
48.623
53.998
59.64
65.467
71.385
77.323
83.21
88.99
94.607
99.986
105.069
109.812
114.183
118.173
121.776
124.982
127.793
130.235
132.348
134.203
135.874
137.401
138.823
140.166
141.464
142.767
144.107
145.482
146.872
148.231
149.51
150.66
151.604
152.233
152.428
152.043
150.955
149.072
146.303
142.558
137.75
131.782
124.595
116.18
106.547
95.736
83.806
70.825
56.916
42.245
26.987
11.336
-4.527
-20.443
-36.23
-51.691
-66.64
-80.889
-94.285
-106.726
-118.121
-128.396
-137.511
-145.442
-152.216
-157.907
-162.592
-166.354
-169.286
-171.472
-173.029
-174.1
-174.81
-175.28
-175.611
-175.87
-176.127
-176.442
-176.854
-177.384
-178.03
-178.763
-179.561
-180.406
-181.269
-182.12
-182.914
-183.588
-184.097
-184.411
-184.505
-184.371
-184.002
-183.394
-182.558
-181.517
-180.297
-178.936
-177.467
-175.913
-174.31
-172.689
-171.085
-169.537
-168.076
-166.722
-165.501
-164.433
-163.533
-162.815
-162.288
-161.948
-161.789
-161.794
-161.931
-162.172
-162.485
-162.838
-163.208
-163.568
-163.887
-164.14
-164.284
-164.28
-164.101
-163.71
-163.077
-162.186
-161.041
-159.689
-158.217
-156.714
-155.262
-153.919
-152.744
-151.821
-151.243
-151.099
-151.505
-152.52
-154.232
-156.829
-160.347
-164.672
-169.559
-174.448
-178.743
-182.05
-183.805
-183.337
-180.559
-175.696
-169.352
-163.006
-157.852
-154.602
-154.437
-158.296
-165.755
-175.692
-186.064
-193.33
-194.358
-186.376
-165.546
-128.325
-74.627
-7.346
69.928
151.651
236.565
329.45
428.91
529.214
619.373
675.962
681.243
627.826
514.357
359.605
190.394
31.81
-89.196
-162.756
-193.806
-194.257
-184.857
-177.212
-173.713
-173.01
-168.141
-158.112
-146.476
-136.185
-131.453
-133.395
-140.037
-149.661
-160.078
-168.891
-175.119
-178.428
-178.667
-176.434
-172.456
-167.308
-161.827
-156.947
-153.158
-150.673
-149.546
-149.546
-150.49
-152.276
-154.693
-157.526
-160.605
-163.772
-166.92
-169.971
-172.809
-175.303
-177.33
-178.794
-179.647
-179.873
-179.464
-178.432
-176.793
-174.574
-171.822
-168.578
-164.888
-160.801
-156.361
-151.624
-146.651
-141.499
-136.224
-130.87
-125.464
-120.023
-114.557
-109.071
-103.567
-98.045
-92.502
-86.936
-81.354
-75.76
-70.163
-64.568
-58.982
-53.408
-47.854
-42.33
-36.844
-31.409
-26.036
-20.735
-15.526
-10.431
-5.468
-0.654
3.994
8.465
12.741
16.809
20.66
24.288
27.688
30.86
33.788
36.457
38.847
40.938
42.724
44.212
45.399
46.284
46.874
47.173
47.198
46.973
46.489
45.729
44.671
43.288
41.577
39.549
37.214
34.586
31.667
28.453
24.946
21.158
17.078
12.692
7.976
2.903
-2.515
-8.234
-14.188
-20.311
-26.533
-32.779
-39.008
-45.178
-51.192
-56.969
-62.453
-67.591
-72.337
-76.684
-80.536
-83.724
-86.566
-89.413
-92.052
-94.6
-96.571
-97.144
-97.977
-100.337
-104.817
-110.584
-115.877
-128.337
-129.408
-82.972
-43.924
-81.423
-132.578
-134.492
-122.042
-119.303
-115.872
-110.448
-105.848
-102.394
-98.572
-92.862
-85.754
-77.5
-68.165
-58.111
-47.262
-35.57
-23.265
-10.529
2.486
15.577
28.528
41.098
53.02
64.069
74.099
83.002
90.7
97.134
102.292
106.212
108.973
110.685
111.464
111.414
110.657
109.335
107.587
105.559
103.397
101.212
99.101
97.149
95.413
93.934
92.731
91.788
91.067
90.524
90.101
89.749
89.409
89.011
88.497
87.823
86.943
85.837
84.486
82.873
80.992
78.852
76.461
73.839
71.014
68.008
64.853
61.581
58.226
54.827
51.414
48.006
44.621
41.268
37.955
34.689
31.473
28.304
25.182
22.106
19.077
16.097
13.164
10.277
7.431
4.624
1.852
-0.885
-3.587
-6.253
-8.883
-11.472
-14.019
-16.518
-18.966
-21.36
-23.697
-25.975
-28.192
-30.345
-32.43
-34.446
-36.388
-38.253
-40.035
-41.73
-43.332
-44.838
-46.242
-47.539
-48.726
-49.797
-50.749
-51.578
-52.281
-52.855
-53.296
-53.601
-53.768
-53.796
-53.684
-53.43
-53.035
-52.5
-51.825
-51.013
-50.066
-48.986
-47.779
-46.447
-44.997
-43.432
-41.76
-39.986
-38.118
-36.164
-34.131
-32.028
-29.866
-27.652
-25.398
-23.114
-20.81
-18.498
-16.187
-13.891
-11.618
-9.38
-7.188
-5.051
-2.981
-0.985
0.925
2.743
4.458
6.064
7.552
8.917
10.151
11.249
12.207
13.02
13.686
14.2
14.562
14.77
14.823
14.722
14.466
14.056
13.495
12.787
11.934
10.941
9.815
8.561
7.188
5.704
4.117
2.436
0.67
-1.174
-3.085
-5.055
-7.077
-9.143
-11.242
-13.365
-15.501
-17.637
-19.763
-21.866
-23.936
-25.959
-27.924
-29.822
-31.644
-33.385
-35.034
-36.582
-38.016
-39.326
-40.51
-41.565
-42.49
-43.288
-43.963
-44.527
-45.005
-45.417
-45.778
-46.096
-46.369
-46.6
-46.793
-46.951
-47.077
-47.164
-47.199
-47.175
-47.091
-46.944
-46.723
-46.401
-45.934
-45.288
-44.447
-43.413
-42.199
-40.818
-39.29
-37.642
-35.921
-34.197
-32.529
-30.966
-29.545
-28.297
-27.264
-26.495
-26.049
-25.967
-26.26
-26.924
-27.941
-29.288
-30.927
-32.801
-34.812
-36.843
-38.796
-40.585
-42.148
-43.432
-44.388
-45.001
-45.274
-45.239
-44.939
-44.405
-43.679
-42.844
-42.007
-41.297
-40.862
-40.8
-41.237
-42.4
-44.391
-47.165
-50.493
-53.86
-56.781
-58.967
-59.988
-59.236
-56.417
-51.57
-45.294
-38.947
-33.592
-29.898
-28.913
-31.706
-38.632
-48.148
-56.611
-59.724
-54.609
-42.99
-28.045
-9.845
14.538
54.561
120.492
215.857
338.505
477.547
617.527
742.506
836.839
888.211
886.814
830.338
723.655
578.564
415.225
253.587
113.686
10.578
-52.853
-80.55
-86.13
-86.206
-88.237
-94.5
-101.107
-101.085
-94.73
-85.809
-77.917
-75.019
-77.565
-83.65
-92.133
-101.732
-110.813
-118.181
-123.093
-125.265
-125.14
-123.508
-120.944
-117.942
-115.119
-113.044
-112.049
-112.254
-113.548
-115.684
-118.476
-121.789
-125.453
-129.283
-133.12
-136.828
-140.3
-143.467
-146.247
-148.557
-150.366
-151.679
-152.516
-152.914
-152.892
-152.457
-151.618
-150.375
-148.731
-146.704
-144.313
-141.584
-138.552
-135.254
-131.72
-127.974
-124.017
-119.823
-115.371
-110.637
-105.613
-100.303
-94.722
-88.901
-82.872
-76.668
-70.317
-63.843
-57.267
-50.607
-43.885
-37.122
-30.344
-23.586
-16.878
-10.249
-3.722
2.691
8.978
15.143
21.198
27.163
33.06
38.908
44.725
50.529
56.344
62.186
68.066
73.993
79.963
85.97
91.999
98.036
104.068
110.065
115.98
121.748
127.282
132.501
137.33
141.685
145.48
148.631
151.057
152.698
153.518
153.489
152.595
150.817
148.126
144.526
140.048
134.753
128.746
122.122
114.973
107.41
99.556
91.542
83.513
75.581
67.827
60.33
53.163
46.407
40.162
34.495
29.443
25.015
21.184
17.926
15.225
13.037
11.299
9.936
8.849
7.975
7.277
6.717
6.256
5.846
5.417
4.924
4.345
3.665
2.89
2.019
1.045
-0.018
-1.138
-2.276
-3.379
-4.417
-5.386
-6.274
-7.073
-7.773
-8.351
-8.801
-9.13
-9.341
-9.441
-9.435
-9.323
-9.116
-8.838
-8.513
-8.166
-7.815
-7.468
-7.131
-6.811
-6.51
-6.233
-5.977
-5.733
-5.496
-5.261
-5.026
-4.787
-4.538
-4.268
-3.966
-3.624
-3.232
-2.784
-2.271
-1.688
-1.028
-0.289
0.531
1.434
2.419
3.489
4.644
5.885
7.21
8.619
10.11
11.68
13.327
15.046
16.832
18.678
20.579
22.526
24.511
26.525
28.559
30.604
32.648
34.682
36.695
38.675
40.611
42.491
44.304
46.039
47.685
49.231
50.666
51.981
53.168
54.217
55.12
55.871
56.462
56.888
57.142
57.22
57.117
56.83
56.356
55.692
54.839
53.794
52.56
51.138
49.529
47.737
45.765
43.618
41.301
38.82
36.181
33.39
30.455
27.385
24.186
20.868
17.44
13.91
10.288
6.583
2.805
-1.037
-4.934
-8.876
-12.852
-16.853
-20.869
-24.889
-28.904
-32.903
-36.877
-40.816
-44.709
-48.548
-52.323
-56.026
-59.647
-63.177
-66.608
-69.931
-73.138
-76.221
-79.171
-81.979
-84.638
-87.139
-89.474
-91.636
-93.618
-95.412
-97.012
-98.411
-99.605
-100.587
-101.351
-101.891
-102.201
-102.277
-102.115
-101.708
-101.053
-100.146
-98.983
-97.563
-95.884
-93.943
-91.735
-89.255
-86.5
-83.476
-80.188
-76.643
-72.852
-68.829
-64.594
-60.173
-55.59
-50.863
-46.011
-41.046
-35.989
-30.864
-25.696
-20.509
-15.322
-10.142
-4.977
0.168
5.299
10.433
15.594
20.817
26.121
31.506
36.969
42.494
48.069
53.687
59.324
64.947
70.517
75.983
81.29
86.379
91.166
95.546
99.409
102.638
105.143
106.866
107.753
107.769
106.888
105.099
102.424
98.911
94.613
89.592
83.924
77.688
71.005
64.026
56.898
49.779
42.797
36.052
29.65
23.671
18.174
13.182
8.649
4.503
0.669
-2.917
-6.306
-9.564
-12.822
-16.233
-19.942
-24.115
-28.841
-34.24
-40.548
-47.797
-55.854
-64.418
-72.827
-80.433
-86.845
-91.474
-93.604
-93.134
-90.273
-85.692
-81.03
-77.559
-75.948
-77.324
-82.619
-91.423
-102.585
-113.878
-121.408
-121.748
-112.059
-88.518
-47.413
11.778
86.443
172.753
264.698
359.866
462.561
572.731
684.909
788.644
861.019
881.067
840.304
736.765
584.95
411.347
238.774
92.505
-9.88
-67.628
-84.285
-74.579
-56.025
-34.985
-18.87
-7.702
1.893
5.503
5.269
2.446
-3.971
-9.738
-15.644
-23.016
-30.224
-37.229
-42.339
-43.936
-42.44
-38.421
-32.767
-26.436
-20.069
-14.325
-9.65
-6.234
-4.07
-2.945
-2.709
-3.255
-4.424
-6.069
-8.034
-10.171
-12.39
-14.622
-16.76
-18.688
-20.293
-21.463
-22.141
-22.308
-21.95
-21.082
-19.724
-17.902
-15.659
-13.044
-10.108
-6.904
-3.482
0.107
3.81
7.569
11.332
15.044
18.675
22.206
25.627
28.937
32.14
35.24
38.247
41.175
44.034
46.832
49.572
52.254
54.88
57.457
59.994
62.499
64.98
67.434
69.862
72.261
74.626
76.948
79.206
81.372
83.426
85.357
87.159
88.834
90.386
91.812
93.116
94.303
95.38
96.356
97.232
98.002
98.668
99.244
99.762
100.269
100.798
101.365
101.979
102.639
103.345
104.081
104.815
105.492
106.057
106.46
106.662
106.635
106.344
105.742
104.764
103.332
101.392
98.901
95.826
92.13
87.786
82.8
77.216
71.115
64.591
57.725
50.6
43.298
35.902
28.501
21.19
14.059
7.188
0.652
-5.471
-11.094
-16.134
-20.543
-24.316
-27.478
-30.074
-32.146
-33.743
-34.934
-35.781
-36.339
-36.658
-36.77
-36.706
-36.504
-36.209
-35.872
-35.553
-35.289
-35.096
-34.979
-34.928
-34.928
-34.956
-34.968
-34.929
-34.819
-34.627
-34.358
-34.022
-33.621
-33.158
-32.635
-32.048
-31.398
-30.692
-29.933
-29.134
-28.316
-27.5
-26.721
-26.01
-25.388
-24.872
-24.469
-24.185
-24.026
-23.994
-24.088
-24.309
-24.659
-25.139
-25.754
-26.506
-27.391
-28.406
-29.543
-30.794
-32.152
-33.611
-35.163
-36.801
-38.518
-40.309
-42.169
-44.092
-46.07
-48.097
-50.163
-52.26
-54.378
-56.509
-58.645
-60.776
-62.895
-64.994
-67.069
-69.112
-71.118
-73.081
-74.995
-76.857
-78.662
-80.405
-82.083
-83.691
-85.226
-86.685
-88.066
-89.367
-90.586
-91.721
-92.772
-93.739
-94.621
-95.419
-96.135
-96.77
-97.326
-97.806
-98.213
-98.55
-98.822
-99.032
-99.183
-99.282
-99.331
-99.334
-99.295
-99.218
-99.106
-98.961
-98.788
-98.589
-98.365
-98.12
-97.856
-97.576
-97.281
-96.973
-96.656
-96.331
-96.001
-95.668
-95.334
-95.001
-94.669
-94.341
-94.016
-93.694
-93.376
-93.061
-92.747
-92.434
-92.12
-91.804
-91.484
-91.16
-90.828
-90.489
-90.141
-89.782
-89.413
-89.032
-88.639
-88.235
-87.82
-87.395
-86.959
-86.514
-86.06
-85.596
-85.123
-84.638
-84.14
-83.628
-83.098
-82.551
-81.982
-81.393
-80.781
-80.146
-79.489
-78.81
-78.108
-77.383
-76.634
-75.859
-75.057
-74.225
-73.36
-72.459
-71.519
-70.537
-69.51
-68.435
-67.307
-66.121
-64.869
-63.543
-62.144
-60.671
-59.127
-57.517
-55.851
-54.14
-52.404
-50.661
-48.928
-47.218
-45.542
-43.907
-42.322
-40.796
-39.341
-37.957
-36.636
-35.366
-34.129
-32.905
-31.672
-30.401
-29.051
-27.594
-26.009
-24.283
-22.416
-20.41
-18.277
-16.032
-13.697
-11.313
-8.937
-6.631
-4.472
-2.535
-0.889
0.393
1.237
1.602
1.461
0.802
-0.367
-2.037
-4.184
-6.77
-9.743
-13.029
-16.536
-20.166
-23.804
-27.335
-30.666
-33.702
-36.391
-38.756
-40.835
-42.681
-44.355
-45.866
-47.266
-48.658
-50.131
-51.797
-53.762
-56.064
-58.864
-62.443
-66.867
-72.037
-77.633
-82.962
-87.451
-90.735
-92.174
-91.069
-87.303
-81.131
-73.462
-65.967
-59.975
-56.548
-57.083
-62.631
-71.751
-81.229
-87.582
-87.153
-80.796
-71.892
-58.541
-35.434
5.976
75.72
174.618
295.62
430.604
568.945
698.966
809.806
885.798
909.303
873.373
779.346
636.972
468.069
292.472
128.909
-2.672
-93.905
-142.884
-154.411
-143.196
-119.39
-91.6
-68.379
-51.838
-46.726
-54.051
-67.338
-82.545
-94.49
-100.938
-106.055
-111.596
-117.666
-123.703
-126.926
-126.22
-122.324
-116.043
-108.504
-100.703
-93.279
-86.653
-81.091
-76.626
-73.034
-70.17
-67.979
-66.348
-65.202
-64.492
-64.16
-64.207
-64.67
-65.507
-66.624
-67.914
-69.25
-70.565
-71.838
-73.058
-74.227
-75.343
-76.397
-77.385
-78.307
-79.146
-79.854
-80.37
-80.633
-80.614
-80.331
-79.831
-79.167
-78.37
-77.445
-76.38
-75.161
-73.777
-72.207
-70.422
-68.376
-66.027
-63.368
-60.417
-57.203
-53.738
-49.995
-45.911
-41.432
-36.522
-31.167
-25.37
-19.133
-12.462
-5.391
2.021
9.681
17.484
25.354
33.248
41.134
48.976
56.71
64.253
71.535
78.514
85.171
91.491
97.448
103.021
108.212
113.056
117.625
121.999
126.226
130.324
134.295
138.142
141.884
145.536
149.088
152.493
155.678
158.576
161.142
163.326
165.071
166.295
166.887
166.751
165.827
164.075
161.475
158.002
153.619
148.307
142.097
135.058
127.292
118.904
109.98
100.617
90.93
81.041
71.082
61.169
51.381
41.788
32.464
23.486
14.95
6.939
-0.514
-7.402
-13.745
-19.577
-24.923
-29.825
-34.353
-38.568
-42.527
-46.27
-49.808
-53.151
-56.326
-59.361
-62.297
-65.181
-68.032
-70.853
-73.645
-76.389
-79.065
-81.64
-84.058
-86.272
-88.248
-89.967
-91.425
-92.628
-93.569
-94.242
-94.645
-94.76
-94.582
-94.113
-93.351
-92.308
-91.004
-89.467
-87.739
-85.871
-83.902
-81.865
-79.789
-77.683
-75.557
-73.42
-71.275
-69.128
-66.984
-64.829
-62.65
-60.434
-58.163
-55.822
-53.385
-50.807
-48.041
-45.052
-41.81
-38.307
-34.549
-30.543
-26.299
-21.845
-17.229
-12.522
-7.822
-3.206
1.255
5.496
9.456
13.047
16.176
18.77
20.768
22.126
22.819
22.82
22.101
20.674
18.588
15.93
12.827
9.394
5.721
1.889
-2.027
-5.939
-9.751
-13.389
-16.796
-19.92
-22.715
-25.127
-27.088
-28.574
-29.603
-30.222
-30.524
-30.601
-30.516
-30.321
-30.067
-29.797
-29.558
-29.383
-29.283
-29.271
-29.368
-29.604
-30.026
-30.663
-31.509
-32.541
-33.71
-34.956
-36.243
-37.539
-38.812
-40.04
-41.2
-42.276
-43.27
-44.185
-45.026
-45.786
-46.447
-46.994
-47.432
-47.773
-48.042
-48.264
-48.447
-48.593
-48.708
-48.8
-48.882
-48.968
-49.06
-49.146
-49.204
-49.224
-49.2
-49.124
-48.973
-48.712
-48.296
-47.708
-46.959
-46.07
-45.062
-43.944
-42.708
-41.354
-39.895
-38.362
-36.803
-35.244
-33.705
-32.22
-30.838
-29.637
-28.701
-28.069
-27.734
-27.676
-27.87
-28.304
-28.987
-29.895
-30.982
-32.182
-33.414
-34.626
-35.78
-36.817
-37.659
-38.192
-38.295
-37.895
-36.963
-35.475
-33.412
-30.743
-27.43
-23.487
-18.969
-13.949
-8.52
-2.744
3.33
9.629
16.055
22.486
28.791
34.866
40.631
45.992
50.841
55.068
58.564
61.271
63.185
64.314
64.684
64.302
63.166
61.29
58.715
55.492
51.677
47.331
42.509
37.304
31.851
26.282
20.731
15.299
10.05
5.038
0.318
-4.045
-7.979
-11.413
-14.3
-16.595
-18.259
-19.289
-19.699
-19.551
-18.955
-18.01
-16.836
-15.562
-14.314
-13.228
-12.45
-12.109
-12.378
-13.534
-15.737
-18.97
-23.052
-27.498
-31.781
-35.515
-38.19
-39.109
-37.924
-34.788
-30.395
-26.331
-24.241
-25.169
-30.114
-40.034
-55.03
-74.063
-94.924
-113.73
-125.94
-127.615
-114.957
-84.039
-33.105
36.454
122.066
218.953
323.454
435.792
554.527
674.778
786.194
873.066
919.005
911.759
848.414
732.714
576.817
401.77
229.033
82.386
-19.769
-74.772
-89.328
-80.162
-66.232
-55.599
-50.068
-46.04
-37.985
-26.903
-16.037
-8.348
-6.94
-11.589
-20.155
-30.941
-41.651
-50.196
-55.838
-58.328
-57.827
-55.093
-50.85
-45.695
-40.437
-35.862
-32.345
-30.018
-28.804
-28.425
-28.672
-29.393
-30.391
-31.468
-32.477
-33.321
-33.945
-34.337
-34.482
-34.339
-33.882
-33.131
-32.121
-30.905
-29.546
-28.098
-26.609
-25.138
-23.725
-22.399
-21.187
-20.087
-19.089
-18.174
-17.296
-16.415
-15.493
-14.472
-13.297
-11.92
-10.283
-8.346
-6.079
-3.449
-0.444
2.94
6.702
10.828
15.291
20.058
25.068
30.271
35.623
41.072
46.578
52.102
57.597
63.029
68.376
73.612
78.726
83.71
88.553
93.249
97.795
102.197
106.48
110.67
114.782
118.833
122.837
126.808
130.776
134.756
138.75
142.761
146.774
150.763
154.712
158.599
162.394
166.069
169.567
172.814
175.749
178.301
180.405
181.995
182.983
183.292
182.86
181.632
179.581
176.699
172.975
168.404
162.99
156.735
149.678
141.897
133.466
124.472
115.002
105.149
95.036
84.79
74.536
64.386
54.423
44.713
35.325
26.332
17.804
9.818
2.417
-4.396
-10.621
-16.264
-21.338
-25.863
-29.886
-33.479
-36.717
-39.658
-42.341
-44.789
-47.031
-49.106
-51.058
-52.934
-54.764
-56.554
-58.311
-60.039
-61.745
-63.426
-65.059
-66.606
-68.021
-69.276
-70.359
-71.268
-72.001
-72.548
-72.902
-73.052
-73.004
-72.765
-72.344
-71.745
-70.975
-70.044
-68.973
-67.794
-66.537
-65.227
-63.879
-62.506
-61.118
-59.728
-58.344
-56.974
-55.618
-54.279
-52.963
-51.674
-50.419
-49.2
-48.018
-46.871
-45.756
-44.672
-43.62
-42.598
-41.607
-40.648
-39.721
-38.83
-37.978
-37.168
-36.402
-35.68
-35.003
-34.371
-33.786
-33.247
-32.754
-32.306
-31.905
-31.55
-31.242
-30.98
-30.765
-30.596
-30.472
-30.392
-30.354
-30.358
-30.402
-30.484
-30.601
-30.754
-30.938
-31.154
-31.398
-31.668
-31.963
-32.279
-32.613
-32.962
-33.322
-33.69
-34.063
-34.438
-34.81
-35.177
-35.536
-35.885
-36.221
-36.542
-36.846
-37.132
-37.398
-37.643
-37.868
-38.071
-38.254
-38.417
-38.561
-38.689
-38.802
-38.902
-38.992
-39.075
-39.151
-39.226
-39.3
-39.378
-39.463
-39.557
-39.666
-39.792
-39.941
-40.116
-40.323
-40.564
-40.844
-41.168
-41.539
-41.96
-42.433
-42.962
-43.548
-44.192
-44.894
-45.651
-46.463
-47.326
-48.238
-49.194
-50.19
-51.22
-52.279
-53.363
-54.466
-55.582
-56.704
-57.824
-58.934
-60.026
-61.092
-62.122
-63.106
-64.034
-64.895
-65.681
-66.383
-66.988
-67.482
-67.85
-68.078
-68.159
-68.089
-67.864
-67.483
-66.951
-66.276
-65.477
-64.569
-63.564
-62.471
-61.294
-60.041
-58.727
-57.369
-55.986
-54.586
-53.168
-51.731
-50.269
-48.768
-47.206
-45.542
-43.725
-41.719
-39.504
-37.075
-34.44
-31.604
-28.572
-25.352
-21.964
-18.441
-14.83
-11.177
-7.537
-3.985
-0.612
2.462
5.11
7.232
8.756
9.634
9.84
9.359
8.189
6.346
3.863
0.787
-2.823
-6.908
-11.393
-16.176
-21.133
-26.107
-30.94
-35.5
-39.683
-43.409
-46.624
-49.311
-51.496
-53.229
-54.581
-55.605
-56.328
-56.786
-57.065
-57.279
-57.556
-58.044
-58.837
-60.068
-61.983
-64.657
-67.957
-71.53
-74.714
-76.913
-77.78
-76.789
-73.244
-67.031
-58.499
-48.629
-39.268
-31.627
-26.493
-25.335
-29.232
-38.097
-49.949
-60.109
-64.605
-61.541
-50.908
-34.493
-7.843
35.609
98.92
186.678
292.98
407.365
528.691
649.519
762.249
861.293
924.588
932.319
876.686
753.481
578.616
381.543
186.829
21.183
-96.577
-164.42
-184.027
-166.534
-130.704
-89.914
-58.729
-45.971
-49.764
-65.95
-84.184
-95.089
-97.2
-92.537
-87.27
-86.401
-89.764
-94.855
-98.284
-98.319
-95.393
-90.553
-84.899
-79.021
-73.321
-68.427
-64.705
-62.246
-60.971
-60.613
-61.001
-62.036
-63.545
-65.293
-67.053
-68.657
-69.985
-70.951
-71.442
-71.342
-70.598
-69.231
-67.339
-65.026
-62.381
-59.476
-56.373
-53.146
-49.875
-46.64
-43.515
-40.563
-37.844
-35.436
-33.428
-31.897
-30.879
-30.34
-30.185
-30.32
-30.672
-31.179
-31.799
-32.483
-33.18
-33.844
-34.443
-34.948
-35.311
-35.459
-35.28
-34.651
-33.474
-31.707
-29.357
-26.44
-22.955
-18.89
-14.236
-8.986
-3.138
3.321
10.431
18.219
26.679
35.758
45.349
55.313
65.512
75.841
86.216
96.558
106.779
116.781
126.476
135.779
144.592
152.795
160.226
166.73
172.194
176.555
179.796
181.938
183.015
183.059
182.115
180.233
177.463
173.857
169.454
164.294
158.442
151.991
145.074
137.825
130.345
122.71
114.973
107.165
99.303
91.385
83.38
75.257
67.006
58.633
50.169
41.644
33.079
24.486
15.868
7.237
-1.379
-9.952
-18.454
-26.845
-35.073
-43.059
-50.694
-57.882
-64.556
-70.673
-76.213
-81.16
-85.506
-89.256
-92.437
-95.094
-97.27
-98.995
-100.29
-101.179
-101.701
-101.918
-101.904
-101.724
-101.421
-101.03
-100.576
-100.085
-99.573
-99.039
-98.459
-97.798
-97.034
-96.163
-95.189
-94.12
-92.955
-91.689
-90.317
-88.842
-87.274
-85.623
-83.897
-82.103
-80.254
-78.372
-76.49
-74.643
-72.856
-71.145
-69.523
-67.998
-66.577
-65.267
-64.071
-62.982
-61.999
-61.119
-60.34
-59.664
-59.086
-58.599
-58.195
-57.865
-57.601
-57.395
-57.242
-57.133
-57.062
-57.025
-57.017
-57.036
-57.079
-57.14
-57.215
-57.3
-57.39
-57.482
-57.571
-57.656
-57.734
-57.802
-57.862
-57.914
-57.958
-57.995
-58.027
-58.056
-58.083
-58.112
-58.144
-58.181
-58.225
-58.28
-58.347
-58.428
-58.525
-58.64
-58.774
-58.928
-59.102
-59.298
-59.514
-59.751
-60.008
-60.285
-60.581
-60.895
-61.226
-61.572
-61.932
-62.303
-62.683
-63.068
-63.456
-63.841
-64.221
-64.593
-64.95
-65.291
-65.61
-65.903
-66.166
-66.395
-66.586
-66.736
-66.841
-66.899
-66.906
-66.862
-66.764
-66.611
-66.403
-66.139
-65.819
-65.443
-65.011
-64.524
-63.982
-63.386
-62.737
-62.037
-61.288
-60.489
-59.644
-58.755
-57.821
-56.846
-55.828
-54.768
-53.667
-52.526
-51.346
-50.129
-48.874
-47.585
-46.263
-44.911
-43.529
-42.118
-40.676
-39.203
-37.697
-36.157
-34.579
-32.962
-31.3
-29.593
-27.839
-26.036
-24.181
-22.27
-20.294
-18.251
-16.144
-13.974
-11.748
-9.474
-7.163
-4.834
-2.511
-0.216
2.034
4.222
6.337
8.364
10.287
12.094
13.772
15.315
16.728
18.018
19.196
20.285
21.31
22.304
23.311
24.356
25.458
26.632
27.877
29.199
30.597
32.049
33.532
35.012
36.435
37.747
38.883
39.753
40.279
40.39
40.016
39.122
37.685
35.69
33.142
30.049
26.438
22.361
17.881
13.074
8.029
2.841
-2.375
-7.492
-12.404
-17.048
-21.404
-25.496
-29.367
-33.052
-36.579
-40.001
-43.403
-46.896
-50.605
-54.656
-59.105
-64.064
-69.76
-76.255
-83.463
-91.097
-98.473
-104.97
-110.25
-113.744
-114.745
-113.123
-108.975
-102.917
-96.664
-91.363
-87.317
-85.662
-87.503
-92.367
-99.5
-105.945
-105.564
-95.505
-74.933
-43.376
-3.507
45.512
107.204
184.401
280.43
393.719
520.416
652.673
776.509
879.122
942.428
949.799
896.488
782.288
620.969
438.635
258.938
107.42
2.006
-56.134
-73.188
-65.136
-50.908
-38.96
-32.165
-27.565
-19.136
-7.43
4.483
13.554
16.14
12.21
3.992
-6.764
-17.665
-26.53
-32.607
-35.597
-35.608
-33.395
-29.718
-25.209
-20.714
-17.097
-14.809
-14.05
-14.81
-16.822
-19.875
-23.806
-28.4
-33.435
-38.737
-44.167
-49.615
-55.02
-60.312
-65.386
-70.15
-74.523
-78.427
-81.802
-84.619
-86.866
-88.545
-89.687
-90.315
-90.45
-90.133
-89.393
-88.259
-86.759
-84.9
-82.695
-80.173
-77.357
-74.287
-71.007
-67.542
-63.906
-60.117
-56.175
-52.083
-47.845
-43.455
-38.905
-34.197
-29.332
-24.325
-19.191
-13.934
-8.556
-3.052
2.589
8.372
14.302
20.385
26.615
32.985
39.482
46.086
52.773
59.516
66.285
73.052
79.792
86.478
93.086
99.594
105.979
112.219
118.287
124.168
129.856
135.355
140.669
145.81
150.785
155.613
160.33
164.968
169.552
174.103
178.625
183.119
187.587
192.021
196.408
200.712
204.874
208.817
212.462
215.73
218.553
220.844
222.495
223.403
223.484
222.668
220.908
218.164
214.389
209.56
203.68
196.783
188.949
180.284
170.907
160.934
150.487
139.705
128.755
117.809
107.01
96.486
86.345
76.696
67.664
59.353
51.836
45.151
39.298
34.251
29.975
26.43
23.56
21.294
19.538
18.182
17.151
16.379
15.813
15.396
15.051
14.708
14.326
13.881
13.365
12.785
12.144
11.45
10.726
10.005
9.329
8.748
8.289
7.965
7.784
7.751
7.881
8.183
8.652
9.272
10.023
10.887
11.843
12.874
13.948
15.028
16.078
17.056
17.931
18.68
19.283
19.718
19.971
20.024
19.87
19.506
18.927
18.127
17.104
15.852
14.374
12.675
10.76
8.637
6.315
3.801
1.104
-1.764
-4.793
-7.973
-11.292
-14.739
-18.301
-21.962
-25.706
-29.515
-33.372
-37.257
-41.152
-45.035
-48.889
-52.693
-56.427
-60.074
-63.615
-67.032
-70.306
-73.421
-76.361
-79.111
-81.656
-83.982
-86.078
-87.933
-89.537
-90.881
-91.958
-92.762
-93.288
-93.533
-93.494
-93.171
-92.565
-91.677
-90.512
-89.074
-87.371
-85.409
-83.2
-80.755
-78.086
-75.208
-72.134
-68.88
-65.463
-61.899
-58.205
-54.397
-50.491
-46.505
-42.457
-38.365
-34.249
-30.126
-26.015
-21.935
-17.907
-13.949
-10.08
-6.316
-2.673
0.831
4.179
7.352
10.337
13.127
15.714
18.095
20.271
22.245
24.026
25.632
27.075
28.365
29.514
30.527
31.416
32.194
32.869
33.454
33.956
34.366
34.678
34.881
34.945
34.846
34.55
34.015
33.221
32.153
30.8
29.166
27.251
25.059
22.609
19.915
16.994
13.886
10.635
7.299
3.975
0.743
-2.313
-5.096
-7.544
-9.603
-11.214
-12.343
-12.966
-13.062
-12.631
-11.665
-10.137
-8.056
-5.445
-2.352
1.133
4.934
8.986
13.204
17.517
21.85
26.105
30.206
34.097
37.71
40.986
43.845
46.169
47.87
48.888
49.176
48.715
47.462
45.349
42.335
38.4
33.545
27.803
21.207
13.776
5.549
-3.414
-13.023
-23.154
-33.694
-44.559
-55.666
-66.921
-78.194
-89.322
-100.153
-110.58
-120.512
-129.904
-138.738
-146.99
-154.66
-161.761
-168.3
-174.315
-179.862
-184.972
-189.686
-194.084
-198.21
-202.221
-206.377
-210.718
-215.133
-219.282
-222.447
-223.991
-223.522
-220.444
-214.136
-204.598
-192.165
-177.964
-164.193
-152.616
-144.412
-140.865
-142.661
-149.131
-158.95
-169.228
-175.001
-171.792
-155.668
-122.202
-69.205
2.048
89.393
188.35
294.481
408.087
529.268
654.069
772.685
868.637
921.902
917.238
851.05
726.746
558.271
370.095
184.568
26.676
-82.18
-139.091
-147.55
-118.521
-72.855
-23.059
18.967
39.456
37.472
14.799
-21.433
-55.007
-78.818
-91.439
-94.799
-97.301
-101.962
-107.684
-113.447
-116.428
-115.95
-113.379
-109.526
-105.298
-101.501
-98.293
-95.792
-94.113
-93.101
-92.622
-92.644
-93.108
-93.942
-95.089
-96.473
-98.017
-99.703
-101.522
-103.437
-105.413
-107.398
-109.339
-111.198
-112.957
-114.617
-116.186
-117.68
-119.118
-120.519
-121.903
-123.289
-124.696
-126.123
-127.554
-128.977
-130.359
-131.668
-132.886
-133.983
-134.918
-135.649
-136.119
-136.262
-136.029
-135.368
-134.236
-132.604
-130.434
-127.706
-124.404
-120.503
-116.016
-110.969
-105.385
-99.31
-92.794
-85.891
-78.675
-71.233
-63.636
-55.95
-48.236
-40.535
-32.891
-25.345
-17.93
-10.682
-3.605
3.317
10.116
16.838
23.527
30.224
36.977
43.847
50.874
58.091
65.515
73.141
80.951
88.917
96.995
105.124
113.214
121.144
128.763
135.919
142.477
148.313
153.309
157.345
160.312
162.121
162.704
162.017
160.033
156.746
152.175
146.375
139.441
131.506
122.745
113.333
103.422
93.164
82.708
72.205
61.813
51.67
41.888
32.571
23.822
15.724
8.344
1.711
-4.186
-9.39
-13.973
-18.009
-21.56
-24.699
-27.502
-30.052
-32.448
-34.766
-37.066
-39.407
-41.858
-44.478
-47.318
-50.407
-53.745
-57.321
-61.112
-65.096
-69.251
-73.546
-77.947
-82.409
-86.883
-91.336
-95.747
-100.091
-104.343
-108.48
-112.484
-116.347
-120.075
-123.674
-127.149
-130.505
-133.75
-136.892
-139.948
-142.931
-145.858
-148.738
-151.574
-154.367
-157.118
-159.824
-162.48
-165.078
-167.602
-170.042
-172.385
-174.62
-176.738
-178.723
-180.564
-182.246
-183.758
-185.087
-186.224
-187.16
-187.887
-188.398
-188.689
-188.756
-188.595
-188.207
-187.587
-186.737
-185.656
-184.345
-182.807
-181.044
-179.061
-176.864
-174.459
-171.854
-169.059
-166.082
-162.936
-159.632
-156.184
-152.604
-148.908
-145.111
-141.23
-137.281
-133.28
-129.244
-125.19
-121.131
-117.085
-113.064
-109.083
-105.154
-101.293
-97.514
-93.833
-90.264
-86.821
-83.52
-80.372
-77.391
-74.586
-71.966
-69.535
-67.299
-65.265
-63.44
-61.832
-60.444
-59.277
-58.331
-57.599
-57.072
-56.736
-56.568
-56.542
-56.64
-56.847
-57.156
-57.567
-58.078
-58.687
-59.397
-60.2
-61.091
-62.067
-63.117
-64.235
-65.427
-66.704
-68.09
-69.621
-71.308
-73.152
-75.144
-77.249
-79.434
-81.653
-83.842
-85.954
-87.947
-89.779
-91.422
-92.85
-94.018
-94.877
-95.367
-95.409
-94.955
-93.973
-92.437
-90.357
-87.752
-84.658
-81.143
-77.262
-73.057
-68.57
-63.823
-58.84
-53.657
-48.317
-42.865
-37.367
-31.87
-26.414
-21.037
-15.753
-10.566
-5.466
-0.418
4.606
9.618
14.625
19.621
24.59
29.527
34.421
39.259
44.038
48.748
53.38
57.928
62.378
66.705
70.884
74.875
78.639
82.148
85.376
88.306
90.925
93.221
95.191
96.838
98.164
99.174
99.87
100.245
100.294
100.012
99.398
98.453
97.187
95.612
93.749
91.63
89.289
86.764
84.093
81.309
78.444
75.535
72.622
69.765
67.026
64.469
62.159
60.157
58.499
57.192
56.219
55.523
55.048
54.746
54.545
54.35
54.053
53.53
52.653
51.317
49.364
46.529
42.67
37.819
32.202
26.363
20.883
16.183
12.797
11.445
12.46
15.677
20.379
24.903
27.569
27.329
23.112
13.872
-0.459
-18.776
-38.817
-56.549
-67.377
-67.401
-52.682
-18.984
35.347
108.184
196.405
294.803
399.797
514.122
637.799
763.851
880.15
965.308
997.623
969.237
880.441
741.25
574.235
398.035
232.972
101.558
10.707
-38.788
-55.347
-59.57
-61.874
-65.779
-70.936
-69.381
-59.99
-47.542
-35.839
-29.571
-30.35
-36.308
-45.679
-56.795
-67.574
-76.226
-81.819
-83.953
-82.85
-79.292
-73.98
-67.487
-60.64
-54.302
-48.937
-44.761
-41.729
-39.563
-38.08
-37.152
-36.59
-36.199
-35.842
-35.418
-34.89
-34.292
-33.615
-32.84
-31.965
-30.97
-29.865
-28.679
-27.434
-26.158
-24.896
-23.696
-22.612
-21.699
-20.991
-20.519
-20.309
-20.358
-20.65
-21.143
-21.766
-22.462
-23.182
-23.878
-24.518
-25.062
-25.447
-25.611
-25.491
-25.021
-24.138
-22.766
-20.81
-18.199
-14.895
-10.901
-6.263
-1.021
4.807
11.201
18.152
25.632
33.593
41.987
50.767
59.874
69.236
78.752
88.29
97.739
107.032
116.136
125.068
133.835
142.429
150.844
159.067
167.089
174.909
182.51
189.871
196.979
203.834
210.456
216.89
223.149
229.212
235.023
240.479
245.479
249.931
253.728
256.779
259.012
260.359
260.771
260.216
258.654
256.042
252.334
247.479
241.45
234.257
225.943
216.597
206.331
195.264
183.542
171.307
158.682
145.79
132.75
119.67
106.672
93.895
81.464
69.509
58.161
47.512
37.636
28.574
20.334
12.907
6.259
0.349
-4.863
-9.414
-13.353
-16.729
-19.606
-22.074
-24.205
-26.075
-27.77
-29.352
-30.876
-32.386
-33.899
-35.418
-36.94
-38.449
-39.929
-41.371
-42.754
-44.056
-45.247
-46.283
-47.134
-47.778
-48.186
-48.343
-48.241
-47.872
-47.244
-46.376
-45.285
-43.993
-42.527
-40.905
-39.152
-37.298
-35.371
-33.406
-31.43
-29.465
-27.531
-25.646
-23.822
-22.072
-20.403
-18.815
-17.311
-15.895
-14.567
-13.331
-12.187
-11.135
-10.173
-9.298
-8.508
-7.801
-7.176
-6.631
-6.164
-5.773
-5.456
-5.215
-5.046
-4.946
-4.913
-4.941
-5.027
-5.166
-5.354
-5.584
-5.852
-6.153
-6.482
-6.834
-7.206
-7.593
-7.989
-8.39
-8.791
-9.19
-9.58
-9.958
-10.32
-10.663
-10.983
-11.277
-11.543
-11.777
-11.979
-12.145
-12.275
-12.367
-12.421
-12.437
-12.415
-12.355
-12.26
-12.131
-11.971
-11.783
-11.569
-11.335
-11.083
-10.82
-10.549
-10.275
-10.004
-9.741
-9.492
-9.262
-9.056
-8.881
-8.743
-8.647
-8.6
-8.608
-8.675
-8.807
-9.01
-9.288
-9.646
-10.087
-10.613
-11.228
-11.934
-12.731
-13.619
-14.596
-15.66
-16.809
-18.038
-19.344
-20.72
-22.161
-23.661
-25.213
-26.811
-28.446
-30.109
-31.79
-33.479
-35.165
-36.837
-38.483
-40.089
-41.642
-43.13
-44.542
-45.864
-47.083
-48.184
-49.148
-49.962
-50.619
-51.113
-51.44
-51.6
-51.595
-51.436
-51.14
-50.722
-50.193
-49.562
-48.834
-48.018
-47.13
-46.186
-45.2
-44.181
-43.128
-42.038
-40.909
-39.725
-38.462
-37.086
-35.552
-33.829
-31.906
-29.777
-27.45
-24.934
-22.235
-19.376
-16.388
-13.316
-10.212
-7.138
-4.156
-1.352
1.166
3.282
4.87
5.829
6.086
5.578
4.26
2.104
-0.9
-4.728
-9.33
-14.644
-20.595
-27.098
-34.058
-41.343
-48.8
-56.265
-63.571
-70.574
-77.146
-83.17
-88.549
-93.226
-97.198
-100.517
-103.27
-105.541
-107.395
-108.923
-110.262
-111.592
-113.109
-114.992
-117.357
-120.359
-124.28
-129.287
-135.337
-142.135
-149.038
-155.415
-160.893
-164.979
-166.925
-166.333
-163.3
-158.589
-153.887
-150.605
-149.504
-151.591
-157.994
-169.052
-182.855
-195.105
-200.761
-196.189
-182.508
-162.862
-135.99
-97.321
-38.804
48.273
163.606
300.23
449.712
600.496
740.312
857.985
938.024
963.835
929.494
835.105
689.268
514.71
331.187
160.8
26.962
-64.282
-111.523
-124.297
-123.025
-116.098
-111.01
-109.371
-105.479
-102.565
-100.61
-99.417
-101.2
-103.074
-106.063
-111.555
-118.606
-127.196
-134.624
-138.665
-139.35
-136.883
-132.283
-126.631
-120.356
-114.126
-108.784
-104.739
-102.122
-100.819
-100.519
-100.997
-102.105
-103.644
-105.365
-107.06
-108.565
-109.767
-110.605
-110.993
-110.843
-110.1
-108.751
-106.835
-104.439
-101.65
-98.551
-95.231
-91.777
-88.278
-84.815
-81.447
-78.219
-75.168
-72.312
-69.662
-67.211
-64.918
-62.738
-60.609
-58.452
-56.197
-53.78
-51.134
-48.211
-44.974
-41.396
-37.47
-33.205
-28.612
-23.725
-18.587
-13.251
-7.785
-2.244
3.327
8.879
14.369
19.759
25.01
30.105
35.043
39.825
44.46
48.969
53.378
57.737
62.108
66.541
71.078
75.738
80.525
85.441
90.483
95.639
100.886
106.186
111.483
116.724
121.855
126.803
131.48
135.777
139.573
142.775
145.312
147.128
148.178
148.424
147.834
146.393
144.103
140.969
137.002
132.219
126.644
120.325
113.333
105.752
97.672
89.171
80.311
71.161
61.793
52.274
42.671
33.042
23.443
13.95
4.649
-4.385
-13.087
-21.409
-29.319
-36.776
-43.748
-50.202
-56.111
-61.46
-66.248
-70.468
-74.117
-77.204
-79.749
-81.798
-83.418
-84.659
-85.564
-86.17
-86.507
-86.621
-86.559
-86.352
-86.024
-85.59
-85.06
-84.451
-83.777
-83.038
-82.222
-81.305
-80.249
-79.032
-77.645
-76.078
-74.327
-72.381
-70.232
-67.887
-65.36
-62.667
-59.826
-56.848
-53.749
-50.551
-47.285
-43.983
-40.682
-37.409
-34.187
-31.037
-27.977
-25.025
-22.196
-19.497
-16.932
-14.503
-12.217
-10.077
-8.088
-6.25
-4.56
-3.018
-1.618
-0.357
0.767
1.758
2.62
3.359
3.976
4.476
4.862
5.14
5.315
5.394
5.385
5.295
5.131
4.902
4.616
4.282
3.906
3.496
3.06
2.605
2.139
1.667
1.197
0.733
0.282
-0.151
-0.563
-0.948
-1.304
-1.627
-1.916
-2.168
-2.381
-2.555
-2.69
-2.785
-2.842
-2.862
-2.847
-2.799
-2.721
-2.617
-2.489
-2.343
-2.182
-2.01
-1.833
-1.656
-1.483
-1.319
-1.171
-1.042
-0.939
-0.867
-0.83
-0.833
-0.88
-0.977
-1.126
-1.332
-1.597
-1.926
-2.319
-2.779
-3.307
-3.903
-4.568
-5.301
-6.1
-6.963
-7.887
-8.868
-9.903
-10.988
-12.116
-13.283
-14.482
-15.707
-16.95
-18.203
-19.459
-20.708
-21.942
-23.152
-24.328
-25.461
-26.541
-27.56
-28.506
-29.371
-30.145
-30.82
-31.386
-31.834
-32.157
-32.347
-32.397
-32.302
-32.055
-31.653
-31.091
-30.368
-29.481
-28.431
-27.217
-25.841
-24.305
-22.614
-20.772
-18.786
-16.661
-14.408
-12.036
-9.558
-6.985
-4.333
-1.616
1.148
3.942
6.749
9.551
12.329
15.068
17.749
20.356
22.871
25.275
27.551
29.682
31.65
33.441
35.041
36.441
37.633
38.609
39.365
39.891
40.178
40.217
39.998
39.513
38.758
37.734
36.455
34.942
33.224
31.331
29.296
27.149
24.924
22.656
20.379
18.136
15.977
13.95
12.109
10.503
9.172
8.131
7.364
6.818
6.424
6.107
5.807
5.452
4.946
4.181
3.036
1.396
-0.811
-3.682
-7.411
-12.105
-17.724
-24.047
-30.528
-36.593
-41.876
-45.957
-48.23
-48.324
-46.229
-42.44
-38.39
-35.486
-34.342
-35.615
-40.237
-48.595
-60.323
-72.854
-80.798
-79.327
-66.118
-42.981
-13.603
20.969
63.1
121.423
204.22
313.598
446.537
590.595
729.849
849.094
934.19
974.717
961.969
892.932
769.252
600.428
408.063
216.657
53.113
-62.424
-125.85
-143.026
-130.41
-104.61
-76.131
-53.345
-37.659
-30.455
-32.233
-37.637
-43.423
-46.18
-44.748
-43.379
-44.373
-48.203
-53.612
-57.321
-57.958
-55.811
-51.625
-46.573
-41.314
-36.244
-32.018
-29.05
-27.461
-27.167
-27.868
-29.326
-31.376
-33.83
-36.459
-39.044
-41.422
-43.486
-45.184
-46.483
-47.369
-47.874
-48.063
-48.013
-47.802
-47.497
-47.171
-46.907
-46.788
-46.885
-47.26
-47.972
-49.084
-50.667
-52.768
-55.387
-58.48
-61.966
-65.745
-69.722
-73.81
-77.921
-81.967
-85.858
-89.512
-92.871
-95.879
-98.472
-100.572
-102.078
-102.906
-103.001
-102.328
-100.873
-98.631
-95.597
-91.78
-87.195
-81.864
-75.813
-69.06
-61.611
-53.473
-44.66
-35.195
-25.133
-14.525
-3.428
8.094
19.979
32.145
44.51
57
69.538
82.049
94.459
106.688
118.642
130.222
141.309
151.78
161.532
170.46
178.47
185.476
191.391
196.166
199.767
202.175
203.39
203.414
202.248
199.903
196.406
191.792
186.125
179.479
171.911
163.496
154.319
144.478
134.101
123.29
112.125
100.675
88.993
77.139
65.182
53.192
41.232
29.375
17.686
6.248
-4.83
-15.453
-25.538
-35.034
-43.929
-52.206
-59.839
-66.801
-73.064
-78.611
-83.44
-87.551
-90.95
-93.656
-95.706
-97.168
-98.143
-98.736
-99.05
-99.162
-99.119
-98.966
-98.741
-98.482
-98.218
-97.975
-97.766
-97.612
-97.534
-97.544
-97.648
-97.828
-98.049
-98.269
-98.439
-98.528
-98.523
-98.416
-98.21
-97.911
-97.532
-97.092
-96.613
-96.113
-95.605
-95.101
-94.609
-94.148
-93.739
-93.407
-93.179
-93.074
-93.106
-93.281
-93.6
-94.06
-94.655
-95.372
-96.194
-97.105
-98.092
-99.142
-100.243
-101.38
-102.539
-103.701
-104.849
-105.964
-107.03
-108.029
-108.945
-109.762
-110.467
-111.046
-111.489
-111.786
-111.926
-111.901
-111.702
-111.322
-110.755
-109.997
-109.045
-107.897
-106.554
-105.017
-103.292
-101.383
-99.298
-97.045
-94.633
-92.075
-89.382
-86.569
-83.65
-80.64
-77.559
-74.423
-71.252
-68.067
-64.887
-61.734
-58.63
-55.597
-52.657
-49.831
-47.139
-44.604
-42.243
-40.077
-38.122
-36.395
-34.911
-33.683
-32.724
-32.044
-31.65
-31.55
-31.748
-32.248
-33.049
-34.153
-35.556
-37.254
-39.239
-41.505
-44.04
-46.833
-49.869
-53.133
-56.605
-60.266
-64.096
-68.069
-72.16
-76.344
-80.592
-84.876
-89.168
-93.438
-97.656
-101.795
-105.828
-109.726
-113.462
-117.011
-120.345
-123.441
-126.276
-128.827
-131.074
-132.996
-134.575
-135.796
-136.645
-137.112
-137.183
-136.847
-136.094
-134.918
-133.321
-131.308
-128.887
-126.073
-122.882
-119.34
-115.481
-111.338
-106.94
-102.317
-97.497
-92.513
-87.403
-82.206
-76.959
-71.692
-66.426
-61.178
-55.965
-50.792
-45.653
-40.536
-35.417
-30.284
-25.144
-20.005
-14.886
-9.802
-4.758
0.23
5.132
9.915
14.531
18.924
23.04
26.809
30.136
32.929
35.093
36.557
37.286
37.262
36.477
34.936
32.646
29.628
25.934
21.623
16.765
11.452
5.781
-0.135
-6.143
-12.093
-17.853
-23.306
-28.383
-33.035
-37.233
-40.986
-44.315
-47.254
-49.846
-52.108
-54.081
-55.853
-57.514
-59.155
-60.9
-62.813
-65.013
-67.73
-70.983
-74.597
-78.281
-81.471
-83.674
-84.606
-83.697
-80.19
-73.964
-65.321
-54.957
-44.293
-34.403
-26.047
-20.756
-20.077
-22.951
-26.417
-27.386
-22.767
-14.295
-6.458
1.85
16.823
49.198
110.484
203.363
321.138
452.41
585.786
711.882
821.632
906.123
952.116
945.897
883.03
764.469
601.486
417.325
234.379
76.917
-35.362
-99.074
-119.84
-113.639
-100.459
-89.741
-84.371
-80.968
-73.04
-60.971
-47.947
-37.258
-32.818
-34.812
-41.085
-49.979
-59.123
-66.303
-70.785
-72.29
-70.916
-67.426
-62.591
-57.016
-51.516
-46.933
-43.623
-41.664
-40.953
-41.142
-41.97
-43.258
-44.741
-46.144
-47.257
-47.906
-47.971
-47.405
-46.122
-44.026
-41.1
-37.374
-32.957
-28.028
-22.737
-17.205
-11.555
-5.899
-0.36
4.94
9.899
14.43
18.448
21.873
24.619
26.615
27.861
28.41
28.368
27.888
27.093
26.084
24.967
23.846
22.826
22.005
21.46
21.259
21.485
22.239
23.627
25.72
28.539
32.066
36.252
41.037
46.373
52.211
58.488
65.133
72.075
79.264
86.659
94.215
101.866
109.522
117.11
124.602
131.998
139.303
146.521
153.638
160.642
167.535
174.323
181.017
187.609
194.066
200.35
206.43
212.273
217.845
223.074
227.832
231.976
235.39
237.98
239.675
240.406
240.087
238.643
236.018
232.181
227.121
220.833
213.316
204.592
194.72
183.81
172.025
159.551
146.546
133.149
119.497
105.727
91.991
78.439
65.192
52.352
40.02
28.301
17.293
7.071
-2.331
-10.919
-18.733
-25.835
-32.274
-38.092
-43.344
-48.086
-52.389
-56.332
-59.968
-63.335
-66.483
-69.467
-72.339
-75.143
-77.896
-80.592
-83.219
-85.751
-88.169
-90.453
-92.575
-94.5
-96.192
-97.609
-98.725
-99.528
-100.004
-100.137
-99.916
-99.337
-98.405
-97.141
-95.564
-93.697
-91.562
-89.185
-86.596
-83.831
-80.927
-77.921
-74.846
-71.728
-68.592
-65.461
-62.355
-59.292
-56.287
-53.345
-50.477
-47.692
-44.998
-42.402
-39.911
-37.525
-35.248
-33.078
-31.016
-29.063
-27.219
-25.483
-23.854
-22.332
-20.916
-19.605
-18.398
-17.292
-16.283
-15.366
-14.536
-13.789
-13.118
-12.518
-11.982
-11.507
-11.086
-10.714
-10.387
-10.101
-9.85
-9.63
-9.438
-9.27
-9.122
-8.992
-8.877
-8.776
-8.685
-8.605
-8.533
-8.471
-8.417
-8.371
-8.335
-8.309
-8.294
-8.292
-8.304
-8.331
-8.376
-8.441
-8.527
-8.637
-8.773
-8.937
-9.131
-9.358
-9.62
-9.918
-10.254
-10.63
-11.049
-11.511
-12.018
-12.572
-13.174
-13.827
-14.531
-15.288
-16.099
-16.964
-17.884
-18.858
-19.886
-20.966
-22.096
-23.273
-24.494
-25.755
-27.053
-28.384
-29.744
-31.129
-32.536
-33.961
-35.401
-36.851
-38.306
-39.759
-41.204
-42.636
-44.046
-45.426
-46.767
-48.059
-49.295
-50.464
-51.558
-52.566
-53.473
-54.266
-54.932
-55.465
-55.857
-56.105
-56.21
-56.172
-56
-55.709
-55.309
-54.811
-54.22
-53.537
-52.771
-51.925
-51.002
-50.01
-48.946
-47.8
-46.563
-45.218
-43.738
-42.099
-40.267
-38.197
-35.861
-33.24
-30.321
-27.107
-23.6
-19.809
-15.764
-11.497
-7.048
-2.482
2.138
6.736
11.211
15.474
19.431
22.974
26.024
28.505
30.349
31.51
31.948
31.637
30.58
28.798
26.325
23.228
19.589
15.505
11.105
6.503
1.814
-2.841
-7.356
-11.623
-15.534
-18.997
-21.933
-24.273
-25.985
-27.083
-27.6
-27.614
-27.218
-26.496
-25.579
-24.611
-23.742
-23.135
-22.947
-23.295
-24.347
-26.364
-29.469
-33.623
-38.575
-43.745
-48.555
-52.604
-55.398
-56.312
-55.078
-51.868
-47.444
-43.473
-41.54
-42.614
-47.583
-57.157
-71.196
-88.593
-106.976
-122.327
-130.521
-128.019
-111.271
-77.122
-23.237
49.817
137.71
234.632
333.843
432.587
534.307
638.498
740.277
828.931
881.16
878.283
813.122
685.379
513.84
326.653
147.806
2.601
-94.974
-147.148
-160.263
-146.277
-117.268
-78.703
-37.281
-2.314
18.257
19.11
2.41
-21.349
-42.273
-54.841
-59.203
-61.001
-63.755
-67.868
-72.278
-74.323
-73.238
-70.068
-65.786
-61.604
-58.422
-56.379
-55.547
-55.953
-57.326
-59.465
-62.253
-65.505
-69.082
-72.879
-76.762
-80.624
-84.386
-87.938
-91.153
-93.909
-96.107
-97.699
-98.675
-99.037
-98.803
-97.995
-96.644
-94.798
-92.5
-89.793
-86.725
-83.338
-79.685
-75.827
-71.819
-67.718
-63.567
-59.388
-55.196
-50.996
-46.788
-42.569
-38.334
-34.069
-29.768
-25.428
-21.046
-16.62
-12.148
-7.626
-3.05
1.584
6.276
11.024
15.826
20.677
25.572
30.501
35.458
40.433
45.415
50.398
55.372
60.33
65.262
70.157
75.006
79.797
84.517
89.153
93.69
98.112
102.404
106.549
110.531
114.331
117.934
121.323
124.481
127.391
130.039
132.408
134.485
136.256
137.709
138.831
139.613
140.044
140.119
139.829
139.171
138.14
136.737
134.959
132.808
130.288
127.403
124.16
120.565
116.63
112.365
107.784
102.901
97.734
92.3
86.619
80.711
74.597
68.301
61.846
55.254
48.551
41.761
34.908
28.017
21.114
14.221
7.364
0.565
-6.152
-12.765
-19.253
-25.595
-31.771
-37.764
-43.556
-49.13
-54.472
-59.568
-64.405
-68.973
-73.261
-77.263
-80.972
-84.383
-87.493
-90.3
-92.804
-95.007
-96.912
-98.522
-99.843
-100.881
-101.645
-102.143
-102.385
-102.381
-102.143
-101.683
-101.015
-100.151
-99.106
-97.895
-96.532
-95.033
-93.414
-91.689
-89.876
-87.989
-86.046
-84.062
-82.053
-80.034
-78.021
-76.028
-74.069
-72.158
-70.307
-68.53
-66.836
-65.237
-63.742
-62.361
-61.102
-59.971
-58.976
-58.121
-57.412
-56.852
-56.444
-56.19
-56.091
-56.146
-56.356
-56.717
-57.228
-57.885
-58.681
-59.613
-60.673
-61.853
-63.145
-64.539
-66.026
-67.594
-69.233
-70.931
-72.676
-74.455
-76.256
-78.066
-79.872
-81.661
-83.42
-85.137
-86.797
-88.39
-89.901
-91.319
-92.633
-93.83
-94.901
-95.833
-96.619
-97.248
-97.712
-98.004
-98.118
-98.049
-97.791
-97.344
-96.704
-95.871
-94.847
-93.633
-92.232
-90.648
-88.887
-86.954
-84.857
-82.604
-80.204
-77.667
-75.003
-72.224
-69.342
-66.37
-63.323
-60.214
-57.057
-53.868
-50.662
-47.455
-44.263
-41.103
-37.989
-34.939
-31.968
-29.09
-26.32
-23.671
-21.154
-18.781
-16.562
-14.508
-12.626
-10.924
-9.411
-8.094
-6.978
-6.068
-5.366
-4.875
-4.594
-4.523
-4.659
-4.998
-5.533
-6.257
-7.163
-8.245
-9.491
-10.892
-12.435
-14.104
-15.885
-17.769
-19.745
-21.807
-23.95
-26.169
-28.469
-30.858
-33.342
-35.927
-38.616
-41.407
-44.303
-47.305
-50.408
-53.611
-56.903
-60.265
-63.672
-67.095
-70.493
-73.825
-77.045
-80.092
-82.922
-85.492
-87.764
-89.718
-91.33
-92.587
-93.496
-94.069
-94.327
-94.32
-94.105
-93.749
-93.347
-92.978
-92.714
-92.644
-92.83
-93.326
-94.186
-95.436
-97.092
-99.155
-101.599
-104.384
-107.463
-110.755
-114.158
-117.567
-120.849
-123.906
-126.691
-129.151
-131.256
-132.982
-134.278
-135.131
-135.58
-135.683
-135.523
-135.202
-134.783
-134.398
-134.299
-134.643
-135.442
-136.496
-137.276
-137.229
-135.988
-133.129
-128.109
-120.685
-111.031
-99.926
-89.018
-80.009
-74.078
-72.244
-75.387
-83.661
-96.191
-110.74
-123.478
-130.276
-127.371
-111.148
-78.373
-26.353
44.578
130.145
224.962
322.954
421.302
522.673
625.746
723.036
802.583
845.126
835.562
772.457
660.534
511.562
345.465
177.667
25.542
-89.399
-159.66
-185.641
-177.107
-156.26
-135.993
-121.028
-110.968
-98.375
-81.916
-64.511
-48.343
-36.374
-28.291
-21.649
-15.39
-8.441
0.521
11.622
24.326
37.321
48.39
56.012
60.042
60.959
58.928
54.13
46.943
38.171
29.273
21.264
14.148
7.323
0.352
-6.852
-14.139
-21.385
-28.832
-36.648
-44.576
-52.065
-58.6
-63.911
-67.982
-70.937
-72.814
-73.617
-73.426
-72.393
-70.721
-68.596
-66.147
-63.44
-60.532
-57.499
-54.443
-51.472
-48.658
-46.027
-43.57
-41.242
-39.004
-36.802
-34.566
-32.234
-29.739
-27.013
-24.014
-20.711
-17.081
-13.103
-8.738
-3.931
1.345
7.096
13.31
19.941
26.936
34.229
41.725
49.349
57.036
64.725
72.39
80.019
87.605
95.164
102.697
110.18
117.602
124.947
132.197
139.357
146.43
153.422
160.358
167.25
174.093
180.889
187.596
194.141
200.433
206.339
211.73
216.502
220.547
223.77
226.096
227.452
227.779
227.046
225.208
222.23
218.074
212.687
206.05
198.186
189.149
179.034
167.948
155.99
143.271
129.917
116.039
101.743
87.114
72.209
57.103
41.897
26.716
11.734
-2.874
-16.953
-30.353
-42.927
-54.531
-65.012
-74.232
-82.096
-88.505
-93.352
-96.515
-97.859
-97.275
-94.705
-90.142
-83.638
-75.291
-65.229
-53.619
-40.682
-26.672
-11.87
3.44
19.002
34.558
49.825
64.5
78.278
90.872
102.032
111.547
119.239
124.981
128.704
130.394
130.115
127.974
124.109
118.676
111.821
103.7
94.489
84.383
73.565
62.211
50.489
38.557
26.588
14.73
3.09
-8.26
-19.295
-30.014
-40.423
-50.535
-60.36
-69.901
-79.159
-88.127
-96.768
-105.028
-112.854
-120.196
-127.032
-133.352
-139.125
-144.318
-148.888
-152.785
-155.971
-158.408
-160.064
-160.923
-160.982
-160.26
-158.811
-156.715
-154.062
-150.947
-147.441
-143.594
-139.454
-135.06
-130.45
-125.664
-120.734
-115.689
-110.56
-105.375
-100.161
-94.945
-89.727
-84.486
-79.182
-73.763
-68.195
-62.463
-56.561
-50.492
-44.253
-37.843
-31.272
-24.562
-17.73
-10.783
-3.71
3.515
10.901
18.428
26.049
33.702
41.342
48.93
56.421
63.766
70.896
77.756
84.322
90.587
96.539
102.149
107.358
112.093
116.312
120.006
123.193
125.894
128.105
129.822
131.068
131.884
132.334
132.45
132.205
131.557
130.482
128.983
127.09
124.839
122.215
119.182
115.71
111.791
107.475
102.833
97.899
92.7
87.246
81.577
75.851
70.274
65.03
60.316
56.282
53.028
50.78
49.83
50.31
52.256
55.453
59.42
63.977
69.262
75.402
82.531
90.766
100.119
111.105
124.748
141.338
160.39
180.916
201.4
220.556
237.511
250.852
258.633
259.788
254.143
242.421
226.364
207.383
186.34
164.486
143.395
124.126
107.285
92.767
79.591
67.16
55.37
44.009
32.88
21.918
11.089
0.694
-8.593
-16.403
-22.662
-27.374
-30.722
-32.886
-33.996
-34.306
-34.136
-33.712
-33.208
-32.755
-32.413
-32.295
-32.539
-33.273
-34.625
-36.669
-39.421
-42.866
-46.955
-51.602
-56.712
-62.172
-67.869
-73.751
-79.812
-86.056
-92.506
-99.144
-105.897
-112.706
-119.535
-126.359
-133.187
-140.032
-146.848
-153.699
-160.757
-168.037
-175.426
-182.61
-188.957
-193.916
-197.16
-198.134
-196.194
-191.228
-183.432
-173.527
-162.99
-153.058
-144.565
-138.736
-136.895
-138.012
-139.315
-138.037
-129.941
-115.125
-98.481
-79.47
-55.972
-22.095
35.947
122.614
236.043
371.7
514.01
649.41
764.935
844.805
878.572
858.079
781.915
656.037
492.835
312.74
137.389
-10.469
-114.545
-171.166
-185.065
-170.77
-142.487
-110.469
-84.084
-66.122
-59.61
-64.956
-75.529
-86.92
-94.501
-96.721
-98.284
-101.676
-107.531
-114.833
-120.226
-122.33
-121.554
-118.647
-114.811
-110.789
-106.985
-103.983
-102.162
-101.618
-102.233
-103.75
-105.982
-108.793
-112.046
-115.565
-119.157
-122.683
-126.042
-129.146
-131.892
-134.164
-135.853
-136.897
-137.276
-136.984
-136.037
-134.459
-132.275
-129.527
-126.255
-122.486
-118.254
-113.593
-108.546
-103.176
-97.543
-91.704
-85.716
-79.617
-73.444
-67.24
-61.03
-54.828
-48.648
-42.501
-36.423
-30.475
-24.714
-19.19
-13.936
-8.961
-4.279
0.099
4.185
8.002
11.602
15.059
18.421
21.714
24.962
28.197
31.488
34.937
38.629
42.644
47.044
51.881
57.23
63.147
69.639
76.673
84.166
92.009
100.123
108.456
116.947
125.524
134.074
142.457
150.564
158.283
165.498
172.071
177.821
182.586
186.272
188.831
190.264
190.595
189.816
187.908
184.876
180.747
175.574
169.424
162.33
154.332
145.505
135.968
125.898
115.468
104.798
93.98
83.09
72.203
61.421
50.858
40.59
30.674
21.169
12.126
3.633
-4.222
-11.392
-17.872
-23.698
-28.909
-33.523
-37.55
-41.015
-43.958
-46.443
-48.544
-50.31
-51.779
-52.996
-54.007
-54.873
-55.657
-56.394
-57.094
-57.756
-58.373
-58.939
-59.441
-59.851
-60.132
-60.232
-60.099
-59.682
-58.932
-57.804
-56.268
-54.302
-51.907
-49.098
-45.902
-42.36
-38.521
-34.45
-30.234
-25.955
-21.689
-17.518
-13.523
-9.796
-6.448
-3.568
-1.224
0.539
1.701
2.253
2.192
1.536
0.326
-1.378
-3.493
-5.951
-8.706
-11.704
-14.898
-18.222
-21.59
-24.939
-28.223
-31.403
-34.459
-37.368
-40.108
-42.68
-45.105
-47.414
-49.654
-51.853
-54.023
-56.177
-58.321
-60.469
-62.639
-64.839
-67.061
-69.302
-71.554
-73.811
-76.072
-78.323
-80.545
-82.713
-84.8
-86.782
-88.642
-90.368
-91.952
-93.392
-94.683
-95.827
-96.837
-97.731
-98.532
-99.263
-99.94
-100.57
-101.16
-101.716
-102.244
-102.753
-103.243
-103.704
-104.122
-104.49
-104.804
-105.06
-105.242
-105.315
-105.226
-104.935
-104.415
-103.656
-102.657
-101.406
-99.908
-98.18
-96.263
-94.223
-92.122
-90.006
-87.911
-85.877
-83.956
-82.229
-80.786
-79.695
-79.01
-78.771
-79.021
-79.815
-81.174
-83.08
-85.479
-88.279
-91.397
-94.766
-98.308
-101.934
-105.546
-109.027
-112.259
-115.154
-117.613
-119.539
-120.828
-121.361
-121.071
-119.934
-117.958
-115.186
-111.66
-107.427
-102.573
-97.21
-91.445
-85.395
-79.169
-72.868
-66.634
-60.606
-54.912
-49.67
-44.957
-40.834
-37.344
-34.52
-32.338
-30.698
-29.462
-28.474
-27.604
-26.768
-25.806
-24.422
-22.457
-19.927
-16.863
-13.41
-9.494
-4.655
1.279
8.147
16.113
25.486
36.578
49.992
65.54
82.025
98.699
115.177
130.669
144.435
155.546
162.563
165.273
164.765
161.673
156.393
149.46
141.138
132.094
123.573
115.836
108.211
100.338
91.979
83.098
74.04
64.822
55.1
44.945
34.801
25.02
15.942
7.699
0.156
-6.715
-12.818
-18.129
-22.674
-26.51
-29.749
-32.483
-34.747
-36.596
-38.123
-39.425
-40.605
-41.767
-43.003
-44.403
-46.051
-48.022
-50.366
-53.183
-56.681
-60.99
-66.074
-71.699
-77.382
-82.638
-87.136
-90.441
-91.845
-90.856
-87.486
-82.358
-76.847
-72.229
-69.32
-69.11
-72.881
-81.438
-93.237
-104.544
-111.21
-109.913
-101.899
-90.431
-73.639
-46.417
-0.451
73.445
175.468
299.525
438.544
582.344
719.102
836.269
916.718
943.381
910.525
821.425
687.028
526.58
356.714
193.464
55.085
-45.945
-102.646
-118.169
-106.162
-81.715
-59.36
-45.518
-40.167
-42.738
-48.004
-53.769
-60.107
-65.409
-72.136
-81.214
-91.137
-101.089
-108.583
-112.089
-111.938
-108.585
-103.008
-96.231
-88.995
-82.204
-76.508
-72.174
-69.265
-67.593
-66.999
-67.394
-68.614
-70.482
-72.819
-75.459
-78.288
-81.228
-84.171
-86.986
-89.543
-91.707
-93.38
-94.508
-95.059
-95.02
-94.394
-93.189
-91.434
-89.173
-86.467
-83.388
-80.004
-76.386
-72.595
-68.69
-64.728
-60.769
-56.86
-53.037
-49.329
-45.765
-42.372
-39.18
-36.197
-33.415
-30.805
-28.329
-25.946
-23.604
-21.266
-18.908
-16.511
-14.067
-11.568
-9
-6.34
-3.554
-0.602
2.56
5.964
9.625
13.543
17.705
22.086
26.644
31.362
36.238
41.284
46.533
52.006
57.705
63.622
69.732
75.997
82.367
88.787
95.196
101.541
107.773
113.846
119.725
125.345
130.617
135.44
139.698
143.292
146.151
148.212
149.424
149.76
149.204
147.764
145.474
142.366
138.477
133.855
128.55
122.644
116.25
109.477
102.442
95.248
87.974
80.699
73.497
66.423
59.52
52.818
46.326
40.055
34.017
28.212
22.633
17.257
12.037
6.941
1.939
-2.99
-7.853
-12.657
-17.41
-22.104
-26.726
-31.262
-35.689
-39.989
-44.154
-48.163
-51.998
-55.635
-59.043
-62.203
-65.101
-67.728
-70.08
-72.158
-73.961
-75.499
-76.786
-77.834
-78.658
-79.269
-79.679
-79.899
-79.946
-79.834
-79.578
-79.193
-78.691
-78.086
-77.389
-76.611
-75.764
-74.857
-73.896
-72.892
-71.853
-70.789
-69.706
-68.616
-67.523
-66.436
-65.361
-64.304
-63.271
-62.265
-61.289
-60.348
-59.444
-58.578
-57.752
-56.966
-56.22
-55.514
-54.846
-54.215
-53.619
-53.058
-52.53
-52.034
-51.57
-51.136
-50.733
-50.36
-50.018
-49.704
-49.419
-49.16
-48.927
-48.718
-48.533
-48.37
-48.229
-48.111
-48.017
-47.949
-47.91
-47.899
-47.917
-47.963
-48.038
-48.141
-48.271
-48.425
-48.605
-48.811
-49.047
-49.323
-49.641
-50
-50.394
-50.811
-51.242
-51.677
-52.104
-52.506
-52.873
-53.2
-53.493
-53.766
-54.028
-54.281
-54.52
-54.726
-54.89
-55.009
-55.087
-55.135
-55.171
-55.211
-55.284
-55.427
-55.664
-56.004
-56.432
-56.896
-57.355
-57.77
-58.115
-58.386
-58.574
-58.668
-58.653
-58.504
-58.192
-57.684
-56.929
-55.86
-54.425
-52.588
-50.358
-47.796
-44.967
-41.947
-38.794
-35.545
-32.233
-28.89
-25.544
-22.226
-18.971
-15.815
-12.815
-10.048
-7.585
-5.493
-3.793
-2.454
-1.428
-0.65
-0.066
0.359
0.657
0.856
0.975
1.03
1.034
0.998
0.951
0.939
1.012
1.228
1.616
2.173
2.884
3.717
4.644
5.644
6.699
7.788
8.9
10.025
11.157
12.292
13.42
14.522
15.577
16.559
17.451
18.238
18.917
19.495
19.979
20.385
20.732
21.041
21.342
21.666
22.048
22.527
23.13
23.869
24.753
25.784
26.965
28.302
29.79
31.412
33.142
34.943
36.762
38.542
40.202
41.64
42.752
43.433
43.604
43.226
42.276
40.743
38.63
35.941
32.695
28.938
24.722
20.109
15.183
10.044
4.821
-0.324
-5.233
-9.764
-13.814
-17.347
-20.363
-22.884
-24.945
-26.577
-27.835
-28.825
-29.673
-30.498
-31.427
-32.559
-34.046
-36.194
-39.212
-43.103
-47.657
-52.375
-56.744
-60.473
-63.196
-64.251
-63.207
-60.121
-55.647
-51.201
-48.044
-46.871
-48.354
-53.408
-62.758
-74.789
-85.471
-90.582
-85.808
-71.7
-53.498
-30.939
-1.781
40.232
108.623
206.867
332.501
480.351
634.033
779.436
902.952
988.146
1024.427
1004.08
926.083
797.28
631.186
448.394
270.315
118.739
8.374
-57.586
-83.139
-81.516
-65.127
-42.648
-23.132
-9.443
-4.868
-10.981
-21.886
-33.55
-41.862
-45.047
-47.471
-51.593
-57.876
-65.222
-70.321
-71.747
-69.861
-65.436
-59.715
-53.489
-47.254
-41.732
-37.392
-34.401
-32.716
-32.098
-32.366
-33.409
-35.084
-37.218
-39.645
-42.227
-44.863
-47.479
-49.972
-52.242
-54.221
-55.862
-57.16
-58.124
-58.759
-59.087
-59.138
-58.94
-58.517
-57.873
-56.989
-55.869
-54.53
-52.994
-51.29
-49.429
-47.397
-45.182
-42.775
-40.16
-37.328
-34.265
-30.946
-27.368
-23.538
-19.48
-15.239
-10.844
-6.309
-1.644
3.146
8.054
13.057
18.136
23.279
28.473
33.706
38.963
44.218
49.454
54.668
59.869
65.082
70.326
75.604
80.912
86.232
91.547
96.846
102.123
107.367
112.561
117.691
122.744
127.723
132.634
137.465
142.18
146.72
151.022
155.039
158.74
162.108
165.123
167.761
169.994
171.8
173.175
174.12
174.624
174.659
174.183
173.169
171.627
169.6
167.127
164.235
160.933
157.209
153.071
148.535
143.613
138.309
132.605
126.472
119.905
112.928
105.585
97.928
89.979
81.741
73.239
64.513
55.633
46.691
37.753
28.873
20.116
11.553
3.279
-4.592
-11.979
-18.828
-25.106
-30.798
-35.883
-40.332
-44.148
-47.36
-50.023
-52.215
-53.989
-55.381
-56.438
-57.211
-57.766
-58.188
-58.539
-58.859
-59.182
-59.53
-59.926
-60.395
-60.94
-61.539
-62.161
-62.762
-63.314
-63.812
-64.243
-64.599
-64.869
-65.031
-65.079
-65.021
-64.861
-64.604
-64.257
-63.82
-63.31
-62.75
-62.168
-61.594
-61.05
-60.547
-60.095
-59.703
-59.375
-59.118
-58.929
-58.803
-58.734
-58.72
-58.759
-58.851
-58.992
-59.173
-59.387
-59.625
-59.88
-60.148
-60.421
-60.694
-60.962
-61.221
-61.469
-61.705
-61.925
-62.128
-62.309
-62.467
-62.597
-62.698
-62.769
-62.807
-62.813
-62.787
-62.729
-62.642
-62.527
-62.388
-62.225
-62.043
-61.844
-61.63
-61.405
-61.171
-60.931
-60.687
-60.442
-60.199
-59.959
-59.726
-59.5
-59.286
-59.084
-58.897
-58.726
-58.575
-58.442
-58.331
-58.241
-58.175
-58.131
-58.111
-58.114
-58.14
-58.187
-58.256
-58.345
-58.451
-58.574
-58.711
-58.861
-59.02
-59.188
-59.362
-59.539
-59.72
-59.903
-60.087
-60.272
-60.456
-60.641
-60.825
-61.011
-61.196
-61.381
-61.565
-61.749
-61.933
-62.117
-62.302
-62.487
-62.675
-62.868
-63.068
-63.279
-63.502
-63.738
-63.989
-64.255
-64.537
-64.837
-65.152
-65.481
-65.824
-66.184
-66.562
-66.964
-67.389
-67.826
-68.271
-68.718
-69.16
-69.59
-69.998
-70.369
-70.697
-70.986
-71.237
-71.456
-71.639
-71.774
-71.848
-71.845
-71.755
-71.58
-71.321
-70.973
-70.541
-70.036
-69.478
-68.902
-68.326
-67.739
-67.133
-66.496
-65.819
-65.116
-64.393
-63.658
-62.919
-62.173
-61.414
-60.642
-59.838
-58.963
-57.97
-56.783
-55.339
-53.619
-51.608
-49.304
-46.716
-43.846
-40.701
-37.306
-33.681
-29.85
-25.855
-21.742
-17.575
-13.451
-9.481
-5.804
-2.57
0.102
2.119
3.405
3.918
3.636
2.548
0.672
-1.964
-5.337
-9.39
-14.058
-19.263
-24.893
-30.822
-36.907
-42.972
-48.85
-54.409
-59.537
-64.172
-68.291
-71.9
-75.053
-77.829
-80.306
-82.566
-84.673
-86.703
-88.774
-90.992
-93.468
-96.322
-99.62
-103.489
-108.144
-113.587
-119.621
-125.87
-131.653
-136.351
-139.539
-140.524
-138.526
-133.342
-125.164
-114.794
-103.78
-93.416
-84.796
-79.42
-78.531
-80.925
-83.668
-83.608
-77.377
-65.985
-52.814
-35.79
-9.388
35.056
107.498
208.621
331.34
467.786
608.117
741.267
856.416
937.297
964.72
930.343
835.392
689.998
516.255
334.45
161.719
16.701
-89.355
-151.855
-170.388
-154.859
-119.9
-78.866
-46.799
-32.775
-37.485
-57.095
-80.53
-98.115
-107.129
-108.738
-108.986
-112.246
-117.821
-123.752
-127.118
-126.426
-122.529
-116.517
-109.388
-102.021
-95.087
-89.02
-84.075
-80.268
-77.346
-75.141
-73.593
-72.58
-71.974
-71.65
-71.486
-71.449
-71.558
-71.787
-72.071
-72.316
-72.423
-72.352
-72.103
-71.688
-71.128
-70.431
-69.604
-68.674
-67.656
-66.559
-65.369
-64.034
-62.509
-60.757
-58.761
-56.528
-54.067
-51.37
-48.425
-45.22
-41.747
-38.01
-34.011
-29.742
-25.204
-20.409
-15.387
-10.195
-4.888
0.49
5.903
11.324
16.73
22.091
27.38
32.584
37.689
42.693
47.591
52.374
57.04
61.589
66.026
70.373
74.653
78.886
83.096
87.301
91.521
95.781
100.111
104.528
109.041
113.648
118.335
123.081
127.861
132.647
137.408
142.095
146.651
151.015
155.12
158.91
162.327
165.298
167.736
169.562
170.712
171.139
170.812
169.709
167.818
165.135
161.672
157.465
152.557
146.998
140.843
134.121
126.878
119.185
111.129
102.801
94.293
85.679
77.039
68.459
60.013
51.767
43.767
36.032
28.587
21.46
14.679
8.3
2.362
-3.122
-8.15
-12.727
-16.871
-20.599
-23.942
-26.964
-29.71
-32.214
-34.501
-36.568
-38.429
-40.104
-41.616
-43.007
-44.307
-45.534
-46.703
-47.831
-48.919
-49.964
-50.946
-51.822
-52.562
-53.152
-53.581
-53.859
-53.987
-53.962
-53.784
-53.453
-52.972
-52.345
-51.577
-50.67
-49.634
-48.486
-47.249
-45.959
-44.645
-43.326
-42.02
-40.737
-39.489
-38.286
-37.136
-36.039
-35
-34.021
-33.106
-32.261
-31.489
-30.788
-30.158
-29.592
-29.088
-28.643
-28.253
-27.918
-27.634
-27.4
-27.214
-27.078
-26.99
-26.948
-26.95
-26.992
-27.07
-27.181
-27.319
-27.481
-27.663
-27.859
-28.066
-28.28
-28.499
-28.718
-28.934
-29.145
-29.347
-29.539
-29.719
-29.885
-30.035
-30.168
-30.284
-30.382
-30.461
-30.521
-30.561
-30.579
-30.577
-30.553
-30.508
-30.44
-30.351
-30.241
-30.111
-29.962
-29.796
-29.614
-29.417
-29.209
-28.99
-28.762
-28.526
-28.285
-28.041
-27.794
-27.546
-27.298
-27.053
-26.81
-26.57
-26.336
-26.106
-25.881
-25.662
-25.45
-25.244
-25.047
-24.86
-24.685
-24.524
-24.378
-24.251
-24.142
-24.054
-23.987
-23.94
-23.913
-23.905
-23.916
-23.946
-23.996
-24.068
-24.165
-24.288
-24.441
-24.627
-24.849
-25.111
-25.414
-25.758
-26.145
-26.578
-27.064
-27.606
-28.203
-28.854
-29.554
-30.296
-31.075
-31.88
-32.692
-33.494
-34.269
-35.004
-35.696
-36.344
-36.944
-37.492
-37.983
-38.419
-38.816
-39.197
-39.574
-39.964
-40.383
-40.846
-41.393
-42.059
-42.868
-43.84
-44.976
-46.268
-47.722
-49.341
-51.114
-53.019
-55.005
-57.004
-58.969
-60.854
-62.614
-64.205
-65.553
-66.587
-67.261
-67.533
-67.371
-66.752
-65.632
-63.959
-61.712
-58.893
-55.527
-51.681
-47.402
-42.739
-37.754
-32.511
-27.099
-21.611
-16.118
-10.688
-5.403
-0.351
4.353
8.568
12.188
15.114
17.262
18.594
19.077
18.691
17.458
15.407
12.579
9.031
4.806
-0.043
-5.433
-11.261
-17.403
-23.697
-29.995
-36.142
-41.966
-47.345
-52.179
-56.407
-60.045
-63.117
-65.652
-67.686
-69.229
-70.317
-71.051
-71.542
-71.919
-72.335
-72.901
-73.794
-75.319
-77.621
-80.648
-84.146
-87.509
-90.147
-91.694
-91.671
-89.428
-84.689
-77.614
-68.914
-60.217
-53.101
-48.508
-47.384
-50.677
-58.48
-69.847
-82.724
-93.419
-97.785
-92.332
-73.535
-37.503
17.498
89.634
175.881
271.354
372.548
482.154
601.205
723.798
838.839
925.929
962.752
940.275
857.626
723.568
560.36
386.593
222.487
90.732
-1.54
-52.98
-71.257
-76.543
-79.146
-82.742
-87.265
-84.803
-74.176
-60.258
-47.023
-39.425
-39.35
-45.053
-54.756
-66.729
-78.757
-88.822
-95.795
-99.126
-98.924
-95.954
-90.937
-84.456
-77.384
-70.655
-64.78
-60.029
-56.407
-53.662
-51.645
-50.285
-49.457
-49.054
-49.039
-49.373
-50.042
-51.057
-52.36
-53.873
-55.522
-57.216
-58.896
-60.524
-62.055
-63.468
-64.741
-65.837
-66.706
-67.282
-67.464
-67.18
-66.389
-65.059
-63.192
-60.791
-57.863
-54.432
-50.528
-46.17
-41.383
-36.182
-30.575
-24.594
-18.278
-11.686
-4.9
2.017
9.02
16.072
23.153
30.244
37.323
44.381
51.419
58.433
65.412
72.337
79.17
85.887
92.475
98.936
105.283
111.52
117.644
123.649
129.529
135.285
140.918
146.421
151.776
156.969
161.998
166.88
171.648
176.327
180.92
185.413
189.779
193.994
198.026
201.836
205.371
208.561
211.343
213.671
215.509
216.821
217.56
217.661
217.056
215.687
213.524
210.56
206.802
202.266
196.989
191.018
184.425
177.302
169.728
161.769
153.491
144.955
136.235
127.413
118.569
109.77
101.078
92.535
84.172
76.018
68.074
60.344
52.838
45.543
38.462
31.603
24.965
18.554
12.377
6.435
0.738
-4.702
-9.885
-14.796
-19.412
-23.713
-27.657
-31.229
-34.444
-37.301
-39.81
-41.981
-43.812
-45.313
-46.507
-47.412
-48.047
-48.435
-48.585
-48.522
-48.284
-47.906
-47.433
-46.889
-46.268
-45.575
-44.815
-43.998
-43.14
-42.25
-41.326
-40.376
-39.413
-38.449
-37.502
-36.577
-35.67
-34.778
-33.897
-33.029
-32.19
-31.391
-30.638
-29.935
-29.283
-28.684
-28.146
-27.667
-27.24
-26.855
-26.505
-26.183
-25.888
-25.616
-25.363
-25.123
-24.888
-24.651
-24.409
-24.154
-23.88
-23.582
-23.253
-22.888
-22.486
-22.046
-21.567
-21.048
-20.487
-19.884
-19.242
-18.56
-17.841
-17.086
-16.299
-15.481
-14.64
-13.78
-12.906
-12.025
-11.144
-10.269
-9.407
-8.566
-7.752
-6.972
-6.235
-5.546
-4.913
-4.342
-3.84
-3.414
-3.068
-2.81
-2.643
-2.572
-2.602
-2.735
-2.975
-3.324
-3.783
-4.354
-5.037
-5.833
-6.742
-7.761
-8.89
-10.127
-11.469
-12.913
-14.455
-16.09
-17.815
-19.623
-21.511
-23.472
-25.501
-27.592
-29.738
-31.933
-34.172
-36.446
-38.749
-41.075
-43.417
-45.769
-48.125
-50.478
-52.823
-55.155
-57.468
-59.757
-62.017
-64.243
-66.429
-68.572
-70.665
-72.705
-74.685
-76.6
-78.445
-80.215
-81.906
-83.511
-85.028
-86.45
-87.775
-89
-90.121
-91.135
-92.037
-92.824
-93.491
-94.035
-94.453
-94.738
-94.887
-94.893
-94.753
-94.463
-94.019
-93.415
-92.642
-91.69
-90.555
-89.236
-87.732
-86.048
-84.19
-82.166
-79.991
-77.69
-75.281
-72.779
-70.198
-67.544
-64.831
-62.078
-59.299
-56.512
-53.726
-50.939
-48.149
-45.352
-42.53
-39.658
-36.701
-33.611
-30.356
-26.923
-23.306
-19.511
-15.544
-11.407
-7.121
-2.719
1.755
6.247
10.692
15.03
19.172
23.006
26.421
29.29
31.513
33.025
33.765
33.688
32.762
30.962
28.3
24.829
20.61
15.713
10.228
4.243
-2.12
-8.705
-15.36
-21.932
-28.283
-34.313
-39.923
-45.013
-49.512
-53.37
-56.59
-59.258
-61.469
-63.321
-64.915
-66.32
-67.651
-69.087
-70.772
-72.847
-75.435
-78.554
-82.322
-87
-92.626
-99.07
-106.002
-112.706
-118.571
-123.268
-126.179
-126.534
-124.151
-119.185
-112.399
-105.441
-99.647
-95.851
-95.304
-99.356
-106.792
-114.492
-119.281
-116.445
-106.019
-93.256
-77.501
-56.042
-22.144
38.888
131.387
252.129
395.274
545.006
688.272
813.206
904.275
948.023
932.463
853.218
714.61
532.373
332.825
142.6
-10.758
-109.762
-155.137
-157.473
-137.904
-116.874
-101.903
-93.842
-87.515
-76.957
-63.6
-50.998
-42.436
-40.956
-45.918
-54.895
-65.99
-76.736
-85.075
-90.329
-92.281
-91.223
-88.023
-83.473
-78.232
-73.117
-68.854
-65.759
-63.932
-63.261
-63.457
-64.309
-65.653
-67.296
-69.072
-70.867
-72.603
-74.217
-75.657
-76.852
-77.733
-78.263
-78.457
-78.351
-77.98
-77.383
-76.592
-75.642
-74.57
-73.397
-72.117
-70.704
-69.145
-67.445
-65.629
-63.721
-61.733
-59.656
-57.458
-55.111
-52.592
-49.881
-46.957
-43.799
-40.393
-36.744
-32.886
-28.866
-24.716
-20.454
-16.083
-11.603
-7.028
-2.379
2.324
7.065
11.829
16.597
21.338
26.02
30.621
35.133
39.567
43.932
48.228
52.442
56.562
60.582
64.507
68.348
72.113
75.811
79.461
83.102
86.784
90.556
94.448
98.476
102.644
106.959
111.435
116.088
120.911
125.877
130.939
136.04
141.117
146.087
150.844
155.255
159.169
162.45
164.984
166.676
167.434
167.167
165.791
163.224
159.429
154.402
148.162
140.756
132.247
122.731
112.351
101.284
89.715
77.831
65.798
53.776
41.939
30.452
19.471
9.15
-0.403
-9.107
-16.895
-23.73
-29.596
-34.51
-38.529
-41.743
-44.244
-46.128
-47.492
-48.432
-49.069
-49.511
-49.854
-50.194
-50.598
-51.12
-51.811
-52.701
-53.805
-55.122
-56.63
-58.29
-60.073
-61.939
-63.845
-65.747
-67.583
-69.307
-70.884
-72.283
-73.487
-74.482
-75.257
-75.81
-76.153
-76.297
-76.259
-76.06
-75.717
-75.251
-74.686
-74.049
-73.369
-72.671
-71.971
-71.281
-70.612
-69.971
-69.364
-68.793
-68.254
-67.744
-67.264
-66.812
-66.387
-65.988
-65.611
-65.252
-64.906
-64.57
-64.241
-63.918
-63.598
-63.28
-62.962
-62.645
-62.33
-62.015
-61.701
-61.386
-61.068
-60.747
-60.422
-60.093
-59.758
-59.417
-59.071
-58.72
-58.366
-58.01
-57.653
-57.296
-56.942
-56.59
-56.243
-55.903
-55.569
-55.244
-54.929
-54.625
-54.333
-54.054
-53.788
-53.537
-53.3
-53.078
-52.871
-52.68
-52.503
-52.342
-52.195
-52.063
-51.944
-51.839
-51.747
-51.666
-51.595
-51.534
-51.481
-51.433
-51.39
-51.349
-51.309
-51.268
-51.224
-51.175
-51.12
-51.057
-50.986
-50.905
-50.815
-50.715
-50.604
-50.484
-50.354
-50.216
-50.071
-49.92
-49.763
-49.604
-49.443
-49.284
-49.129
-48.979
-48.838
-48.707
-48.59
-48.489
-48.406
-48.343
-48.301
-48.284
-48.292
-48.326
-48.386
-48.472
-48.583
-48.721
-48.882
-49.067
-49.272
-49.497
-49.739
-49.997
-50.268
-50.546
-50.827
-51.105
-51.374
-51.628
-51.86
-52.06
-52.219
-52.33
-52.384
-52.373
-52.287
-52.112
-51.833
-51.44
-50.925
-50.285
-49.518
-48.624
-47.607
-46.477
-45.25
-43.943
-42.567
-41.13
-39.632
-38.082
-36.492
-34.879
-33.261
-31.642
-30.021
-28.393
-26.752
-25.08
-23.354
-21.527
-19.547
-17.372
-14.98
-12.364
-9.531
-6.482
-3.221
0.248
3.904
7.714
11.631
15.608
19.588
23.498
27.236
30.673
33.67
36.117
37.932
39.057
39.454
39.099
37.983
36.117
33.535
30.289
26.439
22.047
17.195
11.988
6.569
1.113
-4.207
-9.238
-13.855
-17.96
-21.487
-24.413
-26.757
-28.568
-29.905
-30.821
-31.381
-31.677
-31.831
-31.986
-32.307
-32.948
-34.093
-36.003
-38.838
-42.573
-46.983
-51.543
-55.671
-58.929
-60.822
-60.698
-58.178
-53.326
-46.777
-39.99
-34.49
-31.288
-31.28
-35.376
-43.877
-56.071
-69.952
-81.957
-88.172
-85.064
-69.163
-37.076
14.283
84.84
170.535
266.255
365.781
466.673
573.048
684.241
793.941
890.429
949.856
952.696
891.878
767.235
595.93
404.43
215.93
55.759
-59.867
-128.306
-152.291
-144.767
-119.861
-87.603
-58.691
-37.333
-26.553
-27.242
-32.909
-39.127
-41.84
-39.651
-37.35
-37.58
-40.885
-46.083
-49.65
-50.074
-47.682
-43.231
-37.993
-32.725
-27.849
-24.044
-21.733
-21.028
-21.835
-23.845
-26.817
-30.587
-34.961
-39.709
-44.597
-49.428
-54.055
-58.37
-62.243
-65.565
-68.262
-70.281
-71.621
-72.296
-72.331
-71.766
-70.653
-69.041
-66.983
-64.528
-61.728
-58.641
-55.33
-51.858
-48.285
-44.654
-40.994
-37.324
-33.65
-29.971
-26.278
-22.555
-18.783
-14.948
-11.039
-7.046
-2.964
1.215
5.502
9.903
14.428
19.084
23.875
28.799
33.851
39.021
44.294
49.653
55.076
60.536
66.005
71.46
76.878
82.242
87.534
92.738
97.838
102.814
107.654
112.356
116.924
121.362
125.679
129.882
133.983
138.01
141.987
145.932
149.856
153.763
157.646
161.499
165.316
169.078
172.752
176.284
179.604
182.639
185.318
187.571
189.325
190.489
190.972
190.698
189.6
187.62
184.712
180.834
175.948
170.044
163.146
155.301
146.589
137.104
126.938
116.196
104.987
93.438
81.688
69.868
58.108
46.545
35.304
24.51
14.289
4.733
-4.097
-12.159
-19.449
-25.977
-31.755
-36.812
-41.189
-44.93
-48.103
-50.774
-53.018
-54.928
-56.589
-58.085
-59.504
-60.912
-62.355
-63.87
-65.474
-67.166
-68.95
-70.816
-72.747
-74.734
-76.751
-78.769
-80.754
-82.658
-84.44
-86.068
-87.505
-88.73
-89.728
-90.488
-91.013
-91.312
-91.396
-91.277
-90.972
-90.492
-89.853
-89.076
-88.183
-87.199
-86.15
-85.051
-83.918
-82.765
-81.6
-80.433
-79.268
-78.103
-76.939
-75.778
-74.62
-73.468
-72.323
-71.185
-70.053
-68.927
-67.806
-66.692
-65.585
-64.488
-63.401
-62.328
-61.27
-60.232
-59.215
-58.222
-57.254
-56.311
-55.394
-54.503
-53.639
-52.801
-51.988
-51.2
-50.438
-49.7
-48.986
-48.295
-47.627
-46.98
-46.354
-45.747
-45.159
-44.589
-44.035
-43.498
-42.977
-42.47
-41.977
-41.497
-41.03
-40.575
-40.132
-39.701
-39.281
-38.873
-38.478
-38.095
-37.726
-37.371
-37.033
-36.712
-36.41
-36.129
-35.872
-35.641
-35.438
-35.266
-35.128
-35.027
-34.964
-34.942
-34.964
-35.031
-35.146
-35.311
-35.528
-35.797
-36.121
-36.501
-36.937
-37.429
-37.977
-38.581
-39.238
-39.947
-40.706
-41.514
-42.366
-43.26
-44.191
-45.156
-46.151
-47.168
-48.203
-49.248
-50.297
-51.341
-52.372
-53.382
-54.362
-55.304
-56.202
-57.047
-57.833
-58.552
-59.199
-59.767
-60.248
-60.634
-60.918
-61.091
-61.145
-61.075
-60.876
-60.544
-60.076
-59.47
-58.728
-57.849
-56.833
-55.681
-54.388
-52.952
-51.379
-49.679
-47.864
-45.955
-43.968
-41.924
-39.846
-37.756
-35.67
-33.599
-31.541
-29.497
-27.475
-25.486
-23.555
-21.701
-19.932
-18.254
-16.669
-15.168
-13.747
-12.394
-11.087
-9.812
-8.575
-7.396
-6.315
-5.378
-4.616
-4.047
-3.683
-3.535
-3.626
-3.976
-4.603
-5.535
-6.796
-8.413
-10.42
-12.826
-15.608
-18.727
-22.111
-25.683
-29.375
-33.126
-36.877
-40.563
-44.113
-47.465
-50.562
-53.338
-55.736
-57.714
-59.256
-60.395
-61.191
-61.703
-61.985
-62.113
-62.186
-62.319
-62.638
-63.271
-64.288
-65.81
-68.072
-71.142
-74.921
-79.115
-83.06
-86.148
-88.034
-88.16
-85.838
-81.024
-74.045
-65.817
-58.36
-53.054
-50.537
-52.257
-59.264
-70.958
-86.312
-101.64
-111.403
-113.155
-104.099
-82.583
-47.75
4.262
72.666
156.916
255.378
361.59
477.008
597.936
713.216
813.666
876.89
882.546
825.27
702.996
530.825
337.093
145.754
-16.921
-132.488
-199.697
-222.816
-213.204
-185.382
-147.223
-106.845
-73.498
-53.313
-51.022
-64.53
-83.343
-98.316
-104.456
-102.066
-97.587
-95.246
-95.038
-95.5
-93.711
-88.501
-80.947
-72.209
-63.349
-55.154
-48.043
-42.284
-38.06
-35.342
-33.937
-33.71
-34.568
-36.386
-38.993
-42.211
-45.86
-49.775
-53.823
-57.829
-61.587
-64.951
-67.821
-70.138
-71.873
-72.995
-73.455
-73.237
-72.36
-70.849
-68.749
-66.108
-62.967
-59.4
-55.496
-51.353
-47.074
-42.733
-38.368
-34.009
-29.673
-25.372
-21.126
-16.938
-12.795
-8.687
-4.604
-0.532
3.537
7.621
11.745
15.937
20.222
24.614
29.115
33.719
38.409
43.172
47.994
52.861
57.758
62.668
67.574
72.454
77.29
82.072
86.795
91.455
96.054
100.604
105.126
109.657
114.245
118.919
123.697
128.588
133.591
138.709
143.947
149.307
154.779
160.341
165.955
171.577
177.15
182.591
187.796
192.628
196.948
200.643
203.62
205.796
207.1
207.454
206.79
205.057
202.218
198.248
193.139
186.899
179.565
171.213
161.959
151.96
141.381
130.359
119.035
107.544
96.029
84.639
73.512
62.759
52.486
42.803
33.806
25.576
18.164
11.581
5.802
0.773
-3.567
-7.271
-10.404
-13.041
-15.269
-17.187
-18.878
-20.4
-21.816
-23.199
-24.611
-26.112
-27.738
-29.496
-31.382
-33.382
-35.477
-37.649
-39.867
-42.092
-44.276
-46.367
-48.324
-50.127
-51.752
-53.174
-54.371
-55.329
-56.042
-56.521
-56.778
-56.822
-56.667
-56.325
-55.82
-55.176
-54.423
-53.591
-52.704
-51.777
-50.827
-49.867
-48.907
-47.956
-47.019
-46.091
-45.175
-44.271
-43.381
-42.506
-41.646
-40.795
-39.951
-39.111
-38.271
-37.43
-36.585
-35.736
-34.882
-34.025
-33.164
-32.302
-31.442
-30.583
-29.726
-28.871
-28.02
-27.172
-26.328
-25.489
-24.656
-23.831
-23.016
-22.213
-21.424
-20.653
-19.901
-19.171
-18.465
-17.787
-17.138
-16.522
-15.941
-15.398
-14.896
-14.437
-14.024
-13.659
-13.344
-13.081
-12.87
-12.713
-12.61
-12.561
-12.568
-12.63
-12.746
-12.917
-13.141
-13.416
-13.743
-14.118
-14.539
-15.003
-15.508
-16.05
-16.626
-17.232
-17.865
-18.522
-19.199
-19.892
-20.6
-21.32
-22.048
-22.781
-23.519
-24.258
-24.997
-25.735
-26.469
-27.198
-27.923
-28.641
-29.353
-30.057
-30.752
-31.437
-32.113
-32.776
-33.425
-34.059
-34.676
-35.276
-35.858
-36.42
-36.964
-37.489
-37.995
-38.483
-38.954
-39.405
-39.835
-40.239
-40.615
-40.958
-41.264
-41.525
-41.736
-41.889
-41.982
-42.01
-41.965
-41.84
-41.624
-41.308
-40.89
-40.367
-39.74
-39.011
-38.18
-37.258
-36.26
-35.203
-34.1
-32.959
-31.775
-30.549
-29.285
-27.985
-26.657
-25.298
-23.893
-22.432
-20.911
-19.321
-17.659
-15.903
-14.017
-11.975
-9.762
-7.378
-4.85
-2.204
0.539
3.346
6.179
8.984
11.684
14.219
16.543
18.603
20.352
21.726
22.634
23.007
22.799
21.984
20.57
18.581
16.038
12.99
9.504
5.659
1.564
-2.685
-7.019
-11.357
-15.62
-19.721
-23.551
-27.014
-30.054
-32.628
-34.733
-36.422
-37.753
-38.812
-39.705
-40.52
-41.369
-42.388
-43.697
-45.426
-47.686
-50.545
-54.122
-58.613
-64.088
-70.462
-77.436
-84.385
-90.72
-96.006
-99.683
-101.068
-99.766
-95.768
-89.681
-83.003
-77.057
-72.666
-70.984
-73.022
-78.974
-88.455
-98.564
-104.9
-104.997
-95.79
-76.454
-46.454
-0.436
62.516
143.247
241.862
350.535
466.87
588.603
707.691
816.77
901.079
941.22
924.684
847.339
713.559
539.827
349.639
165.237
9.876
-100.608
-164.644
-187.262
-180.622
-158.222
-126.675
-92.197
-62.068
-42.048
-37.535
-47.883
-64.392
-79.085
-87.259
-88.659
-88.682
-90.667
-94.221
-97.982
-99.311
-97.123
-92.429
-86.228
-79.437
-72.855
-66.936
-61.928
-57.976
-54.97
-52.644
-50.84
-49.472
-48.441
-47.661
-47.059
-46.594
-46.291
-46.174
-46.214
-46.346
-46.497
-46.632
-46.758
-46.895
-47.052
-47.225
-47.403
-47.583
-47.754
-47.883
-47.914
-47.761
-47.346
-46.632
-45.608
-44.282
-42.663
-40.738
-38.489
-35.915
-33.022
-29.824
-26.34
-22.585
-18.595
-14.431
-10.169
-5.891
-1.663
2.491
6.563
10.557
14.478
18.319
22.085
25.793
29.461
33.106
36.754
40.428
44.175
48.072
52.19
56.594
61.332
66.42
71.859
77.643
83.753
90.167
96.853
103.767
110.869
118.12
125.463
132.837
140.159
147.307
154.17
160.641
166.606
171.979
176.687
180.657
183.848
186.241
187.817
188.573
188.507
187.607
185.885
183.361
180.067
176.068
171.427
166.204
160.479
154.324
147.8
140.97
133.87
126.501
118.877
111.004
102.892
94.573
86.077
77.425
68.652
59.785
50.86
41.928
33.03
24.202
15.487
6.926
-1.423
-9.467
-17.124
-24.328
-31.011
-37.139
-42.685
-47.623
-51.945
-55.666
-58.813
-61.439
-63.606
-65.357
-66.737
-67.792
-68.575
-69.162
-69.621
-70.005
-70.36
-70.718
-71.104
-71.544
-72.055
-72.629
-73.248
-73.881
-74.483
-75.031
-75.508
-75.898
-76.188
-76.358
-76.392
-76.289
-76.055
-75.695
-75.22
-74.633
-73.941
-73.167
-72.334
-71.471
-70.611
-69.777
-68.984
-68.247
-67.579
-66.988
-66.481
-66.057
-65.712
-65.443
-65.247
-65.124
-65.074
-65.092
-65.172
-65.308
-65.494
-65.724
-65.995
-66.303
-66.641
-67.009
-67.403
-67.822
-68.266
-68.732
-69.217
-69.72
-70.235
-70.761
-71.293
-71.827
-72.361
-72.891
-73.414
-73.928
-74.433
-74.927
-75.409
-75.878
-76.334
-76.777
-77.207
-77.622
-78.023
-78.41
-78.781
-79.135
-79.473
-79.792
-80.093
-80.374
-80.633
-80.871
-81.086
-81.277
-81.443
-81.583
-81.699
-81.788
-81.851
-81.889
-81.903
-81.892
-81.858
-81.803
-81.725
-81.628
-81.51
-81.373
-81.218
-81.045
-80.854
-80.647
-80.424
-80.188
-79.939
-79.681
-79.413
-79.14
-78.864
-78.588
-78.313
-78.042
-77.778
-77.523
-77.278
-77.044
-76.823
-76.614
-76.417
-76.231
-76.055
-75.887
-75.726
-75.569
-75.415
-75.262
-75.107
-74.946
-74.775
-74.59
-74.385
-74.157
-73.9
-73.607
-73.27
-72.883
-72.441
-71.938
-71.364
-70.708
-69.957
-69.101
-68.134
-67.056
-65.863
-64.558
-63.147
-61.639
-60.054
-58.409
-56.719
-54.992
-53.233
-51.453
-49.667
-47.895
-46.156
-44.458
-42.801
-41.179
-39.586
-38.005
-36.41
-34.757
-32.989
-31.066
-28.964
-26.676
-24.207
-21.558
-18.731
-15.728
-12.562
-9.267
-5.889
-2.48
0.898
4.164
7.221
9.94
12.182
13.843
14.848
15.157
14.763
13.659
11.849
9.352
6.203
2.463
-1.793
-6.484
-11.511
-16.753
-22.071
-27.289
-32.234
-36.772
-40.808
-44.306
-47.292
-49.806
-51.905
-53.652
-55.099
-56.33
-57.457
-58.608
-59.924
-61.539
-63.553
-66.123
-69.497
-73.77
-78.857
-84.436
-89.841
-94.466
-97.895
-99.581
-98.842
-95.353
-89.165
-80.89
-72.076
-63.991
-57.302
-53.168
-52.578
-55.514
-61.493
-67.549
-69.113
-63.94
-49.27
-24.247
11.625
63.441
131.591
216.457
317.738
427.421
544.645
667.356
785.255
890.789
966.338
990.004
954.779
857.532
704.847
521.619
329.135
151.771
17.47
-66.919
-103.237
-103.212
-92.567
-84.273
-81.804
-84.073
-81.486
-71.552
-58.587
-46.389
-39.727
-40.066
-45.299
-53.373
-62.327
-70.321
-75.999
-78.701
-78.354
-75.346
-70.478
-64.523
-58.101
-51.936
-46.727
-42.81
-40.257
-38.944
-38.564
-38.878
-39.728
-40.911
-42.222
-43.51
-44.666
-45.634
-46.426
-47.039
-47.431
-47.58
-47.475
-47.124
-46.577
-45.888
-45.103
-44.268
-43.42
-42.589
-41.811
-41.106
-40.467
-39.864
-39.235
-38.52
-37.682
-36.691
-35.519
-34.135
-32.498
-30.567
-28.321
-25.746
-22.829
-19.563
-15.934
-11.943
-7.612
-2.987
1.865
6.882
12.02
17.24
22.504
27.772
33.008
38.186
43.297
48.336
53.293
58.153
62.902
67.526
72.03
76.435
80.77
85.064
89.35
93.66
98.03
102.508
107.122
111.884
116.791
121.824
126.969
132.211
137.522
142.872
148.226
153.525
158.712
163.718
168.447
172.803
176.681
179.954
182.525
184.311
185.245
185.296
184.434
182.643
179.927
176.299
171.771
166.376
160.153
153.149
145.458
137.177
128.418
119.325
110.025
100.645
91.302
82.075
73.034
64.239
55.734
47.557
39.756
32.366
25.424
18.967
12.996
7.507
2.479
-2.137
-6.394
-10.357
-14.084
-17.607
-20.945
-24.112
-27.117
-29.963
-32.663
-35.229
-37.676
-40.036
-42.321
-44.542
-46.701
-48.781
-50.756
-52.588
-54.246
-55.713
-56.98
-58.049
-58.925
-59.615
-60.13
-60.48
-60.675
-60.712
-60.592
-60.317
-59.896
-59.345
-58.686
-57.95
-57.161
-56.345
-55.52
-54.701
-53.899
-53.123
-52.377
-51.664
-50.987
-50.353
-49.767
-49.238
-48.77
-48.364
-48.022
-47.74
-47.517
-47.349
-47.232
-47.164
-47.14
-47.16
-47.221
-47.323
-47.465
-47.645
-47.859
-48.106
-48.38
-48.679
-48.998
-49.334
-49.683
-50.041
-50.405
-50.773
-51.141
-51.508
-51.87
-52.227
-52.577
-52.917
-53.245
-53.562
-53.865
-54.153
-54.425
-54.682
-54.922
-55.145
-55.353
-55.544
-55.72
-55.881
-56.027
-56.159
-56.278
-56.385
-56.481
-56.567
-56.643
-56.713
-56.777
-56.838
-56.897
-56.957
-57.018
-57.084
-57.156
-57.235
-57.322
-57.418
-57.525
-57.643
-57.772
-57.914
-58.07
-58.239
-58.423
-58.622
-58.836
-59.067
-59.313
-59.575
-59.853
-60.146
-60.455
-60.777
-61.113
-61.461
-61.821
-62.19
-62.567
-62.95
-63.334
-63.717
-64.094
-64.461
-64.81
-65.138
-65.439
-65.708
-65.94
-66.13
-66.275
-66.37
-66.413
-66.4
-66.325
-66.184
-65.968
-65.674
-65.295
-64.824
-64.255
-63.581
-62.797
-61.9
-60.887
-59.755
-58.499
-57.111
-55.587
-53.928
-52.139
-50.224
-48.191
-46.05
-43.818
-41.519
-39.179
-36.822
-34.466
-32.115
-29.781
-27.477
-25.213
-23.006
-20.859
-18.761
-16.709
-14.704
-12.743
-10.824
-8.93
-7.026
-5.091
-3.108
-1.08
0.97
3.028
5.077
7.091
9.038
10.864
12.492
13.866
14.943
15.676
16.028
15.943
15.352
14.226
12.552
10.339
7.621
4.426
0.781
-3.255
-7.605
-12.17
-16.826
-21.473
-26.035
-30.421
-34.563
-38.388
-41.832
-44.91
-47.666
-50.155
-52.446
-54.573
-56.578
-58.569
-60.67
-63.018
-65.773
-69.021
-72.87
-77.544
-83.115
-89.484
-96.377
-103.157
-109.139
-113.836
-116.648
-116.823
-114.037
-108.402
-100.55
-92.055
-84.539
-79.099
-76.912
-79.119
-85.891
-96.262
-108.187
-117.98
-121.311
-114.365
-93.268
-53.803
5.525
82.284
173.38
273.915
380.742
497.022
622.595
749.789
865.352
947.271
974.67
940.805
848.48
709.455
543.685
367.616
198.154
54.327
-51.807
-113.326
-133.816
-127.5
-108.413
-89.407
-75.808
-66.879
-62.492
-59.303
-56.495
-54.594
-52.242
-51.967
-54.747
-59.632
-66.237
-71.473
-73.285
-71.79
-67.124
-60.282
-52.358
-43.817
-35.355
-27.845
-21.709
-17.101
-13.999
-12.193
-11.565
-12.067
-13.574
-15.887
-18.827
-22.249
-26.037
-30.105
-34.334
-38.579
-42.728
-46.696
-50.436
-53.919
-57.103
-59.93
-62.328
-64.23
-65.599
-66.424
-66.712
-66.483
-65.763
-64.587
-63.003
-61.062
-58.804
-56.257
-53.43
-50.329
-46.97
-43.385
-39.619
-35.723
-31.729
-27.655
-23.508
-19.291
-15.009
-10.661
-6.239
-1.728
2.874
7.562
12.315
17.113
21.945
26.816
31.737
36.719
41.763
46.858
51.996
57.175
62.399
67.67
72.989
78.358
83.793
89.329
95.013
100.877
106.931
113.167
119.567
126.115
132.794
139.586
146.455
153.349
160.205
166.966
173.57
179.938
185.975
191.554
196.549
200.87
204.45
207.242
209.214
210.328
210.56
209.906
208.379
206.012
202.838
198.878
194.167
188.762
182.732
176.175
169.177
161.787
154.048
145.999
137.68
129.137
120.412
111.52
102.483
93.326
84.089
74.827
65.598
56.442
47.411
38.555
29.934
21.637
13.736
6.286
-0.661
-7.068
-12.898
-18.107
-22.669
-26.586
-29.87
-32.553
-34.674
-36.277
-37.427
-38.215
-38.729
-39.069
-39.316
-39.529
-39.764
-40.071
-40.493
-41.066
-41.816
-42.745
-43.855
-45.144
-46.599
-48.202
-49.916
-51.686
-53.462
-55.203
-56.877
-58.466
-59.954
-61.327
-62.58
-63.716
-64.739
-65.661
-66.49
-67.228
-67.884
-68.47
-69.004
-69.51
-70.004
-70.496
-70.993
-71.497
-72.009
-72.527
-73.046
-73.554
-74.042
-74.502
-74.928
-75.317
-75.662
-75.959
-76.2
-76.38
-76.494
-76.54
-76.515
-76.417
-76.245
-75.999
-75.68
-75.291
-74.833
-74.308
-73.717
-73.062
-72.345
-71.569
-70.735
-69.846
-68.906
-67.918
-66.885
-65.813
-64.705
-63.567
-62.402
-61.214
-60.008
-58.789
-57.56
-56.326
-55.09
-53.857
-52.63
-51.415
-50.214
-49.031
-47.87
-46.736
-45.631
-44.56
-43.526
-42.533
-41.584
-40.682
-39.832
-39.035
-38.295
-37.615
-36.996
-36.442
-35.955
-35.536
-35.187
-34.91
-34.706
-34.578
-34.528
-34.556
-34.665
-34.855
-35.128
-35.484
-35.925
-36.451
-37.06
-37.751
-38.523
-39.374
-40.301
-41.298
-42.362
-43.487
-44.667
-45.899
-47.174
-48.486
-49.83
-51.2
-52.589
-53.99
-55.397
-56.8
-58.192
-59.565
-60.91
-62.218
-63.477
-64.678
-65.811
-66.866
-67.833
-68.7
-69.455
-70.083
-70.571
-70.916
-71.112
-71.157
-71.054
-70.806
-70.425
-69.929
-69.334
-68.652
-67.894
-67.064
-66.174
-65.239
-64.273
-63.291
-62.3
-61.297
-60.28
-59.241
-58.165
-57.024
-55.782
-54.39
-52.815
-51.042
-49.06
-46.872
-44.481
-41.888
-39.105
-36.16
-33.087
-29.933
-26.749
-23.589
-20.529
-17.671
-15.124
-13.01
-11.424
-10.432
-10.092
-10.444
-11.513
-13.312
-15.822
-18.994
-22.773
-27.093
-31.879
-37.047
-42.48
-48.027
-53.522
-58.799
-63.713
-68.146
-71.99
-75.161
-77.612
-79.333
-80.366
-80.775
-80.611
-79.938
-78.847
-77.458
-75.936
-74.469
-73.242
-72.472
-72.438
-73.332
-75.167
-77.737
-80.585
-83.174
-85.041
-85.693
-84.451
-80.853
-75.054
-67.834
-60.639
-55.108
-52.331
-53.142
-58.686
-69.569
-84.928
-102.47
-118.506
-128.671
-129.264
-116.925
-87.611
-37.584
33.33
121.307
221.279
326.975
435.656
550.23
668.655
782.574
879.665
939.943
946.793
897.214
794.14
648.273
480.398
306.829
145.533
18.287
-67.265
-110.058
-118.052
-112.21
-104.986
-101.374
-101.406
-97.418
-87.581
-75.659
-65.189
-60.559
-62.903
-70.16
-80.536
-92.195
-103.262
-112.275
-118.342
-121.204
-121.181
-119.037
-115.473
-111.053
-106.491
-102.506
-99.49
-97.575
-96.667
-96.481
-96.793
-97.447
-98.247
-98.997
-99.556
-99.825
-99.761
-99.373
-98.659
-97.604
-96.201
-94.452
-92.37
-89.984
-87.326
-84.436
-81.363
-78.161
-74.882
-71.571
-68.267
-64.988
-61.752
-58.563
-55.403
-52.254
-49.099
-45.929
-42.749
-39.581
-36.44
-33.333
-30.266
-27.227
-24.202
-21.178
-18.134
-15.05
-11.903
-8.668
-5.331
-1.888
1.673
5.366
9.223
13.299
17.643
22.289
27.268
32.589
38.246
44.233
50.525
57.075
63.835
70.75
77.764
84.844
91.96
99.081
106.176
113.196
120.096
126.832
133.368
139.673
145.724
151.495
156.971
162.163
167.071
171.694
176.028
180.031
183.648
186.824
189.491
191.582
193.045
193.834
193.913
193.256
191.845
189.669
186.718
182.969
178.417
173.061
166.929
160.088
152.623
144.632
136.233
127.556
118.716
109.809
100.924
92.125
83.473
75.024
66.837
58.97
51.484
44.433
37.848
31.729
26.058
20.799
15.9
11.288
6.907
2.712
-1.327
-5.222
-8.984
-12.622
-16.149
-19.58
-22.938
-26.252
-29.542
-32.813
-36.06
-39.26
-42.384
-45.385
-48.231
-50.892
-53.353
-55.612
-57.672
-59.534
-61.206
-62.693
-63.998
-65.112
-66.033
-66.758
-67.293
-67.652
-67.852
-67.921
-67.881
-67.754
-67.555
-67.295
-66.981
-66.618
-66.207
-65.747
-65.238
-64.683
-64.087
-63.454
-62.786
-62.084
-61.345
-60.567
-59.747
-58.88
-57.962
-56.992
-55.968
-54.891
-53.76
-52.58
-51.353
-50.08
-48.765
-47.409
-46.014
-44.583
-43.118
-41.622
-40.097
-38.548
-36.978
-35.392
-33.794
-32.191
-30.587
-28.989
-27.402
-25.832
-24.287
-22.773
-21.294
-19.859
-18.473
-17.141
-15.87
-14.664
-13.529
-12.468
-11.485
-10.584
-9.767
-9.035
-8.39
-7.832
-7.361
-6.976
-6.677
-6.461
-6.328
-6.275
-6.301
-6.404
-6.581
-6.829
-7.146
-7.527
-7.969
-8.467
-9.016
-9.613
-10.253
-10.93
-11.642
-12.384
-13.152
-13.943
-14.753
-15.58
-16.42
-17.272
-18.133
-19.001
-19.876
-20.757
-21.644
-22.537
-23.436
-24.342
-25.257
-26.179
-27.11
-28.049
-28.996
-29.948
-30.906
-31.867
-32.83
-33.793
-34.754
-35.713
-36.669
-37.62
-38.565
-39.503
-40.43
-41.344
-42.239
-43.11
-43.949
-44.75
-45.505
-46.206
-46.848
-47.422
-47.922
-48.344
-48.679
-48.92
-49.058
-49.079
-48.976
-48.741
-48.372
-47.869
-47.239
-46.492
-45.639
-44.695
-43.67
-42.57
-41.396
-40.139
-38.793
-37.352
-35.816
-34.196
-32.501
-30.741
-28.922
-27.048
-25.115
-23.109
-21.013
-18.806
-16.475
-14.025
-11.477
-8.872
-6.261
-3.706
-1.255
1.051
3.181
5.109
6.806
8.248
9.398
10.208
10.622
10.575
10.014
8.905
7.242
5.049
2.381
-0.675
-4.042
-7.648
-11.426
-15.324
-19.288
-23.263
-27.19
-30.995
-34.591
-37.889
-40.795
-43.233
-45.153
-46.549
-47.481
-48.058
-48.394
-48.593
-48.731
-48.881
-49.158
-49.687
-50.577
-51.945
-53.871
-56.476
-60.016
-64.627
-70.213
-76.473
-82.811
-88.567
-93.284
-96.421
-97.205
-95.24
-90.685
-84.285
-77.525
-71.875
-68.487
-68.392
-72.578
-81.528
-93.143
-104.224
-112.41
-113.785
-107.414
-92.905
-62.578
-12.262
59.745
155.224
264.478
379.728
500.567
623.558
745.858
859.288
944.08
979.785
955.788
870.638
734.318
567.659
389.049
217.03
71.57
-37.113
-103.603
-129.775
-129.179
-112.805
-90.252
-71.05
-57.105
-51.695
-56.219
-65.068
-74.808
-81.58
-83.78
-85.594
-89.326
-95.384
-102.544
-107.565
-109.058
-107.318
-103.067
-97.432
-91.088
-84.497
-78.395
-73.27
-69.289
-66.382
-64.272
-62.765
-61.764
-61.154
-60.773
-60.467
-60.148
-59.804
-59.5
-59.273
-59.111
-58.982
-58.84
-58.678
-58.523
-58.415
-58.388
-58.471
-58.681
-59.03
-59.537
-60.202
-60.993
-61.846
-62.657
-63.315
-63.748
-63.901
-63.739
-63.227
-62.316
-60.964
-59.146
-56.848
-54.058
-50.769
-46.965
-42.648
-37.849
-32.624
-27.05
-21.218
-15.194
-9.034
-2.794
3.485
9.768
16.027
22.254
28.444
34.581
40.653
46.64
52.531
58.338
64.082
69.787
75.497
81.254
87.098
93.082
99.235
105.563
112.067
118.725
125.514
132.421
139.416
146.462
153.514
160.511
167.38
174.049
180.419
186.371
191.787
196.538
200.523
203.676
205.936
207.261
207.619
206.983
205.348
202.733
199.166
194.684
189.344
183.209
176.377
168.974
161.122
152.947
144.555
136.025
127.436
118.856
110.343
101.948
93.705
85.634
77.756
70.092
62.648
55.425
48.402
41.539
34.804
28.173
21.631
15.174
8.805
2.523
-3.66
-9.725
-15.652
-21.417
-27.003
-32.398
-37.583
-42.539
-47.243
-51.664
-55.78
-59.579
-63.049
-66.187
-68.992
-71.465
-73.614
-75.454
-76.997
-78.257
-79.247
-79.978
-80.462
-80.716
-80.756
-80.599
-80.262
-79.761
-79.109
-78.325
-77.424
-76.419
-75.325
-74.154
-72.92
-71.634
-70.311
-68.964
-67.606
-66.246
-64.898
-63.572
-62.276
-61.021
-59.814
-58.661
-57.569
-56.542
-55.585
-54.701
-53.893
-53.163
-52.511
-51.938
-51.442
-51.023
-50.678
-50.404
-50.197
-50.055
-49.971
-49.942
-49.961
-50.022
-50.119
-50.245
-50.394
-50.56
-50.734
-50.911
-51.085
-51.248
-51.396
-51.521
-51.62
-51.686
-51.714
-51.701
-51.643
-51.536
-51.378
-51.165
-50.897
-50.573
-50.192
-49.755
-49.262
-48.715
-48.117
-47.47
-46.777
-46.044
-45.274
-44.472
-43.646
-42.8
-41.941
-41.077
-40.214
-39.359
-38.521
-37.705
-36.919
-36.169
-35.464
-34.807
-34.208
-33.67
-33.2
-32.803
-32.483
-32.246
-32.094
-32.032
-32.061
-32.184
-32.402
-32.715
-33.126
-33.631
-34.232
-34.925
-35.708
-36.578
-37.53
-38.56
-39.662
-40.829
-42.054
-43.33
-44.648
-45.999
-47.373
-48.76
-50.15
-51.532
-52.897
-54.233
-55.531
-56.78
-57.974
-59.102
-60.156
-61.126
-62.003
-62.777
-63.441
-63.985
-64.4
-64.678
-64.81
-64.789
-64.61
-64.266
-63.751
-63.058
-62.176
-61.101
-59.837
-58.384
-56.749
-54.941
-52.972
-50.862
-48.637
-46.319
-43.928
-41.484
-38.997
-36.488
-33.979
-31.493
-29.05
-26.664
-24.337
-22.07
-19.859
-17.69
-15.539
-13.372
-11.145
-8.829
-6.411
-3.886
-1.261
1.461
4.283
7.198
10.186
13.217
16.248
19.227
22.095
24.774
27.162
29.154
30.64
31.535
31.796
31.403
30.352
28.644
26.286
23.298
19.723
15.618
11.052
6.113
0.899
-4.467
-9.837
-15.055
-19.98
-24.498
-28.563
-32.192
-35.415
-38.28
-40.824
-43.066
-45.066
-46.929
-48.741
-50.615
-52.693
-55.065
-57.913
-61.553
-66.052
-71.288
-77.002
-82.521
-87.173
-90.561
-92.022
-90.74
-86.687
-80.25
-72.112
-64.012
-57.632
-53.858
-54.045
-59.664
-69.072
-79.793
-90.743
-97.9
-100.047
-97.137
-81.003
-45.076
14.571
99.829
201.929
310.311
419.636
529.775
642.465
754.149
854.124
920.216
930.531
875.887
755.225
584.046
389.81
197.065
31.858
-87.693
-158.065
-182.254
-173.605
-147.938
-116.935
-91.293
-74.643
-68.53
-72.409
-80.056
-87.599
-91.673
-91.465
-91.192
-92.957
-97.053
-102.071
-104.711
-103.626
-99.116
-91.957
-83.398
-74.219
-64.935
-56.302
-48.815
-42.663
-37.816
-34.065
-31.278
-29.409
-28.42
-28.191
-28.567
-29.424
-30.657
-32.192
-33.945
-35.798
-37.632
-39.363
-40.936
-42.324
-43.53
-44.534
-45.304
-45.796
-45.937
-45.683
-45.026
-43.969
-42.536
-40.757
-38.657
-36.273
-33.658
-30.843
-27.852
-24.693
-21.355
-17.843
-14.178
-10.393
-6.54
-2.658
1.234
5.12
8.996
12.865
16.728
20.591
24.474
28.385
32.325
36.29
40.261
44.225
48.174
52.109
56.037
59.964
63.892
67.822
71.748
75.661
79.556
83.437
87.302
91.16
95.023
98.903
102.823
106.817
110.907
115.103
119.406
123.799
128.263
132.778
137.319
141.863
146.369
150.778
155.025
159.04
162.745
166.066
168.911
171.166
172.741
173.568
173.599
172.82
171.216
168.773
165.491
161.378
156.463
150.799
144.444
137.458
129.917
121.906
113.537
104.956
96.283
87.61
79.013
70.536
62.231
54.156
46.355
38.862
31.7
24.879
18.418
12.344
6.664
1.365
-3.593
-8.284
-12.758
-17.042
-21.155
-25.098
-28.878
-32.513
-36.006
-39.349
-42.54
-45.577
-48.473
-51.26
-53.95
-56.537
-59
-61.298
-63.405
-65.311
-67.009
-68.498
-69.778
-70.846
-71.713
-72.404
-72.933
-73.31
-73.54
-73.612
-73.531
-73.31
-72.969
-72.537
-72.038
-71.487
-70.905
-70.312
-69.724
-69.154
-68.612
-68.097
-67.613
-67.168
-66.77
-66.429
-66.155
-65.949
-65.816
-65.756
-65.77
-65.858
-66.019
-66.248
-66.544
-66.903
-67.325
-67.809
-68.353
-68.953
-69.606
-70.308
-71.052
-71.834
-72.647
-73.483
-74.335
-75.196
-76.059
-76.917
-77.764
-78.591
-79.393
-80.163
-80.894
-81.58
-82.216
-82.795
-83.311
-83.76
-84.137
-84.439
-84.66
-84.799
-84.852
-84.817
-84.692
-84.478
-84.172
-83.775
-83.288
-82.712
-82.051
-81.307
-80.485
-79.589
-78.627
-77.604
-76.529
-75.408
-74.25
-73.063
-71.855
-70.634
-69.411
-68.193
-66.988
-65.807
-64.659
-63.553
-62.5
-61.508
-60.586
-59.742
-58.984
-58.32
-57.757
-57.302
-56.958
-56.733
-56.634
-56.665
-56.833
-57.136
-57.57
-58.135
-58.828
-59.643
-60.575
-61.611
-62.741
-63.961
-65.265
-66.649
-68.11
-69.632
-71.203
-72.81
-74.438
-76.083
-77.74
-79.395
-81.032
-82.646
-84.224
-85.764
-87.262
-88.69
-90.02
-91.229
-92.292
-93.198
-93.937
-94.488
-94.837
-94.97
-94.874
-94.549
-93.999
-93.214
-92.196
-90.948
-89.466
-87.786
-85.941
-83.944
-81.819
-79.575
-77.223
-74.788
-72.284
-69.71
-67.065
-64.345
-61.537
-58.65
-55.68
-52.607
-49.425
-46.11
-42.645
-39.048
-35.332
-31.52
-27.64
-23.72
-19.796
-15.937
-12.217
-8.699
-5.454
-2.541
-0.025
2.004
3.474
4.332
4.537
4.09
3.012
1.325
-0.931
-3.695
-6.9
-10.445
-14.213
-18.103
-22.005
-25.807
-29.402
-32.661
-35.47
-37.764
-39.515
-40.733
-41.473
-41.784
-41.709
-41.341
-40.797
-40.224
-39.795
-39.661
-39.942
-40.807
-42.507
-45.195
-48.861
-53.277
-57.929
-62.299
-66.007
-68.603
-69.48
-68.284
-65.081
-60.498
-55.944
-52.811
-51.933
-54.047
-59.906
-69.683
-82.625
-96.76
-108.614
-114.527
-111.323
-95.832
-64.969
-15.921
51.224
132.494
222.833
316.436
411.478
512.579
619.699
726.765
821.572
879.981
882.685
823.311
702.492
537.435
353.966
173.316
19.761
-89.932
-155.502
-180.342
-177.419
-163.556
-142.391
-118.634
-96.427
-75.418
-64.317
-66.1
-75.06
-88.381
-99.09
-103.829
-107.024
-110.003
-113.334
-117.098
-118.501
-116.615
-112.324
-106.341
-99.738
-93.441
-87.859
-83.233
-79.74
-77.286
-75.582
-74.438
-73.704
-73.205
-72.804
-72.374
-71.796
-71.017
-70.023
-68.776
-67.224
-65.334
-63.111
-60.597
-57.849
-54.93
-51.891
-48.776
-45.637
-42.523
-39.47
-36.501
-33.618
-30.807
-28.047
-25.319
-22.611
-19.902
-17.15
-14.307
-11.328
-8.171
-4.808
-1.215
2.631
6.745
11.135
15.791
20.696
25.82
31.12
36.56
42.108
47.731
53.391
59.052
64.676
70.229
75.693
81.049
86.282
91.385
96.344
101.157
105.826
110.354
114.755
119.052
123.26
127.402
131.51
135.614
139.75
143.965
148.275
152.694
157.222
161.846
166.561
171.353
176.197
181.065
185.925
190.726
195.413
199.918
204.144
207.99
211.348
214.094
216.132
217.389
217.811
217.363
216.02
213.76
210.586
206.503
201.518
195.659
188.958
181.474
173.312
164.589
155.435
146.004
136.433
126.838
117.319
107.952
98.801
89.927
81.375
73.188
65.419
58.113
51.316
45.053
39.308
34.049
29.229
24.78
20.63
16.724
13.016
9.478
6.099
2.868
-0.22
-3.172
-6.003
-8.735
-11.398
-14.014
-16.585
-19.104
-21.551
-23.892
-26.087
-28.103
-29.914
-31.506
-32.882
-34.045
-35.003
-35.767
-36.347
-36.745
-36.96
-36.989
-36.835
-36.506
-36.018
-35.393
-34.659
-33.843
-32.969
-32.056
-31.12
-30.169
-29.214
-28.258
-27.305
-26.36
-25.43
-24.524
-23.651
-22.817
-22.027
-21.283
-20.587
-19.938
-19.336
-18.779
-18.267
-17.8
-17.378
-17.002
-16.676
-16.399
-16.174
-16
-15.876
-15.801
-15.774
-15.794
-15.859
-15.966
-16.115
-16.302
-16.527
-16.788
-17.083
-17.41
-17.767
-18.151
-18.559
-18.99
-19.44
-19.905
-20.383
-20.871
-21.366
-21.864
-22.363
-22.86
-23.351
-23.834
-24.305
-24.762
-25.201
-25.621
-26.018
-26.39
-26.735
-27.051
-27.337
-27.592
-27.815
-28.006
-28.163
-28.288
-28.38
-28.439
-28.467
-28.464
-28.432
-28.373
-28.29
-28.183
-28.057
-27.915
-27.758
-27.591
-27.418
-27.241
-27.065
-26.895
-26.735
-26.59
-26.465
-26.364
-26.292
-26.253
-26.251
-26.288
-26.368
-26.492
-26.66
-26.873
-27.133
-27.438
-27.789
-28.183
-28.621
-29.101
-29.621
-30.177
-30.765
-31.379
-32.013
-32.66
-33.313
-33.964
-34.605
-35.227
-35.823
-36.387
-36.91
-37.381
-37.787
-38.111
-38.34
-38.464
-38.473
-38.362
-38.129
-37.774
-37.306
-36.741
-36.091
-35.368
-34.581
-33.731
-32.823
-31.866
-30.868
-29.847
-28.812
-27.768
-26.72
-25.67
-24.605
-23.508
-22.349
-21.074
-19.643
-18.021
-16.18
-14.116
-11.828
-9.322
-6.613
-3.716
-0.654
2.534
5.809
9.128
12.423
15.62
18.623
21.305
23.553
25.263
26.341
26.73
26.395
25.313
23.491
20.945
17.701
13.803
9.304
4.259
-1.256
-7.154
-13.332
-19.655
-26
-32.259
-38.335
-44.167
-49.734
-55.052
-60.159
-65.115
-69.967
-74.743
-79.493
-84.289
-89.201
-94.311
-99.711
-105.447
-111.594
-118.305
-125.543
-133.11
-140.655
-147.505
-153.017
-156.774
-158.192
-156.602
-151.908
-144.337
-134.549
-124.109
-114.264
-105.7
-99.55
-96.749
-96.94
-99.105
-101.291
-99.977
-92.049
-74.939
-45.12
0.772
62.991
138.95
225.04
315.395
407.287
504.387
606.563
709.38
804.692
871.749
889.878
848.903
743.527
585.649
402.127
218.741
64.528
-39.953
-93.998
-105.941
-94.729
-81.676
-75.32
-76.968
-81.648
-81.736
-76.957
-70.316
-65.076
-64.888
-69.806
-77.685
-86.888
-95.304
-101.081
-103.658
-102.876
-98.923
-92.566
-84.57
-75.548
-66.31
-57.702
-50.174
-43.949
-39.049
-35.251
-32.403
-30.419
-29.169
-28.533
-28.405
-28.681
-29.29
-30.206
-31.38
-32.739
-34.196
-35.653
-37.056
-38.386
-39.649
-40.869
-42.053
-43.195
-44.281
-45.281
-46.189
-46.997
-47.681
-48.205
-48.529
-48.626
-48.5
-48.175
-47.64
-46.872
-45.839
-44.5
-42.847
-40.879
-38.596
-36.002
-33.094
-29.876
-26.379
-22.648
-18.723
-14.636
-10.389
-5.969
-1.397
3.305
8.112
13
17.969
23.013
28.112
33.235
38.346
43.42
48.453
53.453
58.424
63.362
68.251
73.07
77.824
82.518
87.151
91.716
96.188
100.555
104.825
109.022
113.179
117.309
121.401
125.431
129.375
133.198
136.869
140.341
143.545
146.418
148.909
150.98
152.611
153.765
154.393
154.433
153.81
152.477
150.416
147.619
144.093
139.861
134.959
129.452
123.432
116.98
110.164
103.043
95.657
88.064
80.334
72.542
64.773
57.097
49.565
42.229
35.129
28.292
21.731
15.44
9.386
3.55
-2.073
-7.483
-12.666
-17.617
-22.339
-26.833
-31.103
-35.149
-38.972
-42.575
-45.962
-49.131
-52.078
-54.787
-57.236
-59.411
-61.31
-62.932
-64.288
-65.386
-66.236
-66.854
-67.259
-67.471
-67.507
-67.384
-67.117
-66.723
-66.222
-65.636
-64.986
-64.295
-63.579
-62.858
-62.147
-61.461
-60.814
-60.216
-59.675
-59.2
-58.798
-58.476
-58.241
-58.099
-58.053
-58.105
-58.259
-58.514
-58.869
-59.323
-59.871
-60.509
-61.231
-62.032
-62.902
-63.836
-64.824
-65.859
-66.93
-68.03
-69.15
-70.279
-71.411
-72.534
-73.642
-74.725
-75.777
-76.79
-77.758
-78.674
-79.534
-80.334
-81.069
-81.736
-82.333
-82.858
-83.31
-83.689
-83.994
-84.225
-84.385
-84.476
-84.499
-84.458
-84.357
-84.2
-83.991
-83.735
-83.437
-83.102
-82.735
-82.341
-81.925
-81.492
-81.047
-80.594
-80.138
-79.684
-79.235
-78.796
-78.369
-77.959
-77.569
-77.2
-76.854
-76.534
-76.241
-75.974
-75.734
-75.522
-75.336
-75.177
-75.043
-74.934
-74.847
-74.783
-74.737
-74.709
-74.695
-74.692
-74.699
-74.711
-74.726
-74.74
-74.751
-74.756
-74.752
-74.737
-74.706
-74.656
-74.585
-74.489
-74.363
-74.203
-74.005
-73.764
-73.477
-73.14
-72.752
-72.308
-71.808
-71.25
-70.633
-69.954
-69.212
-68.403
-67.524
-66.571
-65.54
-64.428
-63.233
-61.955
-60.591
-59.144
-57.616
-56.008
-54.322
-52.556
-50.708
-48.777
-46.766
-44.681
-42.532
-40.334
-38.105
-35.866
-33.642
-31.451
-29.309
-27.224
-25.198
-23.229
-21.316
-19.464
-17.685
-15.989
-14.384
-12.873
-11.457
-10.127
-8.868
-7.659
-6.47
-5.284
-4.093
-2.907
-1.749
-0.653
0.335
1.177
1.848
2.324
2.584
2.606
2.371
1.855
1.039
-0.097
-1.58
-3.419
-5.609
-8.123
-10.904
-13.879
-16.956
-20.041
-23.052
-25.918
-28.569
-30.947
-33.004
-34.705
-36.056
-37.086
-37.825
-38.311
-38.576
-38.676
-38.724
-38.859
-39.249
-40.048
-41.341
-43.24
-45.942
-49.532
-53.963
-59.01
-64.107
-68.72
-72.557
-75.193
-76.051
-74.857
-71.58
-66.686
-61.576
-57.423
-54.645
-54.053
-56.639
-62.439
-71.058
-80.078
-84.187
-80.35
-67.466
-45.701
-17.766
18.216
66.53
130.854
215.842
319.158
435.583
559.417
677.694
778.013
846.332
865.692
830.902
744.368
614.375
459.663
296.721
140.747
9.74
-85.512
-140.916
-159.536
-155.632
-144.103
-133.078
-125.758
-118.95
-108.429
-95.431
-82.676
-72.975
-69.093
-70.636
-75.694
-82.764
-89.685
-94.515
-96.554
-95.59
-91.863
-86.18
-79.294
-71.795
-64.444
-57.973
-52.72
-48.79
-46.095
-44.351
-43.344
-42.936
-42.952
-43.243
-43.734
-44.365
-45.105
-45.94
-46.808
-47.636
-48.379
-49.01
-49.529
-49.96
-50.324
-50.646
-50.952
-51.26
-51.575
-51.872
-52.098
-52.195
-52.104
-51.787
-51.23
-50.423
-49.356
-48.016
-46.384
-44.443
-42.176
-39.567
-36.599
-33.259
-29.544
-25.474
-21.085
-16.43
-11.563
-6.527
-1.349
3.949
9.349
14.839
20.405
26.044
31.751
37.52
43.339
49.197
55.079
60.983
66.908
72.861
78.848
84.87
90.916
96.976
103.033
109.065
115.048
120.951
126.741
132.389
137.868
143.152
148.215
153.025
157.552
161.773
165.664
169.205
172.382
175.181
177.595
179.627
181.281
182.563
183.478
184.018
184.178
183.954
183.342
182.345
180.956
179.161
176.939
174.278
171.164
167.585
163.525
158.946
153.822
148.139
141.891
135.1
127.799
120.019
111.801
103.199
94.279
85.13
75.856
66.539
57.264
48.112
39.174
30.562
22.38
14.708
7.61
1.124
-4.729
-9.927
-14.466
-18.366
-21.667
-24.433
-26.744
-28.659
-30.231
-31.517
-32.574
-33.482
-34.315
-35.123
-35.945
-36.809
-37.734
-38.739
-39.839
-41.02
-42.259
-43.523
-44.762
-45.952
-47.075
-48.113
-49.053
-49.875
-50.561
-51.109
-51.527
-51.82
-51.997
-52.062
-52.022
-51.896
-51.708
-51.484
-51.252
-51.031
-50.834
-50.672
-50.554
-50.484
-50.467
-50.5
-50.574
-50.685
-50.83
-51.003
-51.204
-51.425
-51.657
-51.894
-52.127
-52.35
-52.558
-52.745
-52.905
-53.037
-53.136
-53.202
-53.232
-53.227
-53.184
-53.101
-52.976
-52.81
-52.602
-52.351
-52.059
-51.726
-51.356
-50.951
-50.514
-50.049
-49.56
-49.052
-48.529
-47.996
-47.457
-46.917
-46.38
-45.852
-45.335
-44.834
-44.352
-43.892
-43.456
-43.046
-42.666
-42.317
-42
-41.718
-41.472
-41.265
-41.097
-40.968
-40.879
-40.83
-40.82
-40.848
-40.912
-41.01
-41.14
-41.298
-41.484
-41.693
-41.924
-42.173
-42.438
-42.717
-43.007
-43.306
-43.611
-43.918
-44.226
-44.533
-44.836
-45.135
-45.429
-45.718
-46.004
-46.29
-46.575
-46.859
-47.141
-47.419
-47.693
-47.96
-48.217
-48.461
-48.694
-48.919
-49.143
-49.372
-49.604
-49.834
-50.055
-50.254
-50.419
-50.54
-50.597
-50.578
-50.476
-50.294
-50.043
-49.735
-49.369
-48.937
-48.424
-47.818
-47.127
-46.36
-45.533
-44.675
-43.822
-43.019
-42.33
-41.799
-41.443
-41.259
-41.22
-41.291
-41.458
-41.715
-42.051
-42.452
-42.885
-43.307
-43.677
-43.925
-43.962
-43.677
-42.946
-41.682
-39.845
-37.432
-34.476
-31.034
-27.145
-22.856
-18.236
-13.358
-8.31
-3.195
1.885
6.797
11.366
15.401
18.716
21.164
22.662
23.176
22.708
21.296
18.98
15.822
11.914
7.355
2.249
-3.282
-9.11
-15.086
-21.018
-26.71
-31.987
-36.71
-40.797
-44.238
-47.075
-49.374
-51.233
-52.744
-53.985
-55.068
-56.127
-57.278
-58.667
-60.438
-62.687
-65.605
-69.445
-74.23
-79.817
-85.86
-91.623
-96.41
-99.733
-100.861
-99.052
-94.201
-86.528
-76.785
-66.691
-57.937
-51.654
-49.107
-51.39
-56.841
-63.229
-69.408
-71.268
-67.404
-57.366
-33.08
10.048
74.025
161.535
263.855
372.914
487.887
605.424
722.735
832.337
915.308
950.868
927.874
844.56
710.03
545.022
368.589
199.739
60.07
-38.445
-92.028
-106.105
-98.899
-87.387
-79.93
-78.696
-78.339
-73.317
-64.676
-55.328
-48.512
-47.198
-50.87
-57.506
-65.602
-73.054
-78.004
-79.849
-78.43
-74.04
-67.558
-59.78
-51.335
-43.028
-35.655
-29.643
-25.192
-22.282
-20.682
-20.219
-20.773
-22.194
-24.314
-26.978
-30.053
-33.406
-36.93
-40.497
-43.963
-47.205
-50.132
-52.659
-54.719
-56.278
-57.312
-57.81
-57.775
-57.18
-56.008
-54.275
-52.007
-49.254
-46.087
-42.565
-38.751
-34.72
-30.524
-26.219
-21.87
-17.508
-13.155
-8.842
-4.592
-0.451
3.524
7.307
10.889
14.27
17.472
20.514
23.416
26.223
28.969
31.685
34.416
37.188
40.022
42.948
45.998
49.208
52.642
56.342
60.332
64.633
69.249
74.177
79.423
84.977
90.828
96.961
103.345
109.944
116.728
123.653
130.676
137.746
144.782
151.701
158.429
164.899
171.049
176.815
182.11
186.83
190.884
194.199
196.717
198.403
199.219
199.126
198.087
196.088
193.14
189.274
184.517
178.885
172.395
165.089
157.048
148.395
139.252
129.717
119.879
109.818
99.625
89.409
79.285
69.335
59.622
50.203
41.133
32.492
24.365
16.804
9.823
3.397
-2.506
-7.9
-12.795
-17.216
-21.202
-24.817
-28.135
-31.196
-34.027
-36.656
-39.113
-41.45
-43.73
-45.99
-48.244
-50.49
-52.721
-54.939
-57.15
-59.343
-61.488
-63.548
-65.477
-67.253
-68.872
-70.325
-71.606
-72.702
-73.598
-74.289
-74.789
-75.108
-75.258
-75.25
-75.091
-74.801
-74.41
-73.951
-73.456
-72.951
-72.452
-71.975
-71.535
-71.144
-70.816
-70.556
-70.364
-70.246
-70.204
-70.244
-70.372
-70.589
-70.893
-71.281
-71.752
-72.301
-72.928
-73.628
-74.398
-75.232
-76.124
-77.071
-78.069
-79.112
-80.194
-81.305
-82.44
-83.591
-84.753
-85.915
-87.07
-88.208
-89.318
-90.393
-91.422
-92.394
-93.301
-94.13
-94.873
-95.524
-96.073
-96.513
-96.833
-97.017
-97.054
-96.939
-96.665
-96.228
-95.63
-94.873
-93.97
-92.944
-91.812
-90.596
-89.309
-87.961
-86.563
-85.125
-83.651
-82.147
-80.61
-79.025
-77.378
-75.652
-73.82
-71.851
-69.702
-67.311
-64.63
-61.613
-58.222
-54.432
-50.22
-45.584
-40.545
-35.141
-29.433
-23.505
-17.45
-11.37
-5.383
0.396
5.845
10.829
15.231
18.941
21.852
23.874
24.92
24.942
23.935
21.924
18.975
15.184
10.671
5.586
0.087
-5.682
-11.58
-17.467
-23.226
-28.734
-33.872
-38.529
-42.594
-45.986
-48.661
-50.603
-51.83
-52.393
-52.365
-51.856
-50.978
-49.82
-48.459
-46.96
-45.368
-43.732
-42.098
-40.511
-39.025
-37.682
-36.506
-35.516
-34.711
-34.075
-33.586
-33.195
-32.85
-32.509
-32.14
-31.726
-31.264
-30.749
-30.179
-29.548
-28.841
-28.048
-27.167
-26.192
-25.116
-23.93
-22.61
-21.157
-19.592
-17.941
-16.242
-14.522
-12.803
-11.118
-9.508
-8.03
-6.741
-5.687
-4.898
-4.411
-4.276
-4.555
-5.322
-6.619
-8.443
-10.769
-13.557
-16.764
-20.344
-24.226
-28.312
-32.481
-36.623
-40.648
-44.486
-48.068
-51.299
-54.087
-56.343
-58.045
-59.256
-60.056
-60.535
-60.772
-60.828
-60.823
-60.925
-61.285
-62.043
-63.312
-65.138
-67.675
-71.176
-75.667
-81.054
-87.037
-92.941
-98.15
-102.199
-104.333
-103.805
-100.519
-94.516
-86.324
-77.566
-69.697
-63.88
-61.793
-63.265
-65.588
-66.94
-65.861
-62.963
-61.54
-60.247
-50.888
-20.819
40.346
134.443
252.668
379.421
505.876
629.442
746.758
853.383
933.657
965.239
937.252
848.487
709.099
542.221
367.728
203.455
67.901
-30.765
-89.275
-110.229
-106.152
-86.628
-61.229
-39.929
-26.155
-25.011
-36.71
-53.92
-72.063
-85.79
-93.344
-99.382
-105.84
-112.898
-119.848
-123.753
-123.474
-119.731
-113.338
-105.438
-97.041
-88.843
-81.354
-74.92
-69.654
-65.381
-61.985
-59.452
-57.695
-56.67
-56.368
-56.708
-57.651
-59.183
-61.211
-63.617
-66.289
-69.079
-71.872
-74.587
-77.135
-79.462
-81.535
-83.309
-84.749
-85.801
-86.381
-86.44
-85.956
-84.93
-83.404
-81.42
-79.017
-76.257
-73.208
-69.936
-66.523
-63.029
-59.486
-55.927
-52.364
-48.826
-45.363
-42.001
-38.744
-35.571
-32.432
-29.286
-26.115
-22.888
-19.565
-16.086
-12.365
-8.333
-3.956
0.785
5.885
11.343
17.176
23.38
29.927
36.773
43.851
51.126
58.6
66.277
74.144
82.158
90.24
98.323
106.367
114.338
122.211
129.949
137.492
144.79
151.814
158.537
164.927
170.916
176.386
181.217
185.316
188.618
191.097
192.722
193.455
193.265
192.139
190.085
187.139
183.333
178.693
173.257
167.086
160.278
152.973
145.313
137.41
129.359
121.234
113.107
105.054
97.136
89.396
81.856
74.534
67.446
60.617
54.058
47.76
41.696
35.814
30.071
24.444
18.917
13.484
8.141
2.883
-2.283
-7.339
-12.263
-17.037
-21.647
-26.087
-30.345
-34.403
-38.238
-41.826
-45.147
-48.194
-50.963
-53.454
-55.671
-57.619
-59.313
-60.772
-62.013
-63.053
-63.907
-64.588
-65.109
-65.488
-65.74
-65.883
-65.931
-65.898
-65.796
-65.639
-65.437
-65.203
-64.945
-64.669
-64.385
-64.098
-63.818
-63.55
-63.3
-63.074
-62.874
-62.706
-62.57
-62.468
-62.4
-62.366
-62.363
-62.389
-62.442
-62.518
-62.614
-62.724
-62.845
-62.972
-63.102
-63.228
-63.347
-63.455
-63.548
-63.621
-63.672
-63.695
-63.688
-63.648
-63.57
-63.453
-63.293
-63.088
-62.837
-62.538
-62.191
-61.795
-61.35
-60.857
-60.316
-59.729
-59.098
-58.426
-57.714
-56.965
-56.184
-55.374
-54.539
-53.683
-52.81
-51.925
-51.031
-50.133
-49.235
-48.34
-47.452
-46.574
-45.712
-44.867
-44.044
-43.247
-42.478
-41.741
-41.039
-40.374
-39.75
-39.167
-38.627
-38.132
-37.683
-37.279
-36.922
-36.611
-36.346
-36.127
-35.953
-35.824
-35.736
-35.69
-35.683
-35.712
-35.776
-35.872
-35.998
-36.15
-36.326
-36.524
-36.741
-36.972
-37.216
-37.467
-37.722
-37.976
-38.223
-38.459
-38.677
-38.874
-39.045
-39.185
-39.289
-39.355
-39.38
-39.362
-39.297
-39.183
-39.014
-38.786
-38.495
-38.137
-37.707
-37.2
-36.611
-35.936
-35.175
-34.327
-33.39
-32.361
-31.233
-30.005
-28.678
-27.258
-25.75
-24.162
-22.503
-20.789
-19.045
-17.293
-15.555
-13.845
-12.168
-10.53
-8.941
-7.411
-5.952
-4.567
-3.245
-1.98
-0.772
0.387
1.497
2.582
3.678
4.814
6.009
7.263
8.557
9.873
11.197
12.502
13.762
14.929
15.936
16.733
17.281
17.535
17.457
16.987
16.041
14.56
12.507
9.874
6.689
2.982
-1.216
-5.847
-10.84
-16.1
-21.504
-26.955
-32.365
-37.639
-42.686
-47.395
-51.636
-55.313
-58.371
-60.8
-62.635
-63.927
-64.721
-65.079
-65.093
-64.89
-64.629
-64.457
-64.502
-64.88
-65.738
-67.318
-69.787
-73.13
-77.122
-81.257
-84.966
-87.807
-89.294
-88.768
-85.808
-80.439
-73.239
-65.604
-59.057
-54.638
-53.254
-55.809
-62.614
-72.971
-84.931
-95.006
-99.25
-94.1
-76.12
-41.985
11.279
83.811
172.071
271.141
374.712
479.317
587.392
698.11
805.989
901.595
964.576
976.151
928.257
818.28
658.963
474.917
289.194
127.804
10
-59.827
-84.023
-75.416
-50.082
-19.703
4.874
19.559
22.749
15.137
3.347
-8.28
-16.04
-19.085
-21.902
-26.778
-34.188
-42.826
-49.299
-52.216
-51.844
-48.896
-44.619
-39.788
-34.896
-30.694
-27.672
-25.998
-25.643
-26.374
-28.016
-30.467
-33.588
-37.186
-41.064
-45.058
-49.055
-52.98
-56.724
-60.164
-63.181
-65.666
-67.561
-68.847
-69.519
-69.588
-69.071
-67.989
-66.375
-64.269
-61.717
-58.765
-55.463
-51.858
-48.005
-43.957
-39.764
-35.477
-31.143
-26.797
-22.473
-18.196
-13.988
-9.872
-5.882
-2.044
1.618
5.085
8.347
11.396
14.231
16.848
19.253
21.468
23.537
25.522
27.493
29.516
31.647
33.947
36.489
39.352
42.605
46.304
50.498
55.229
60.543
66.499
73.133
80.446
88.405
96.935
105.938
115.327
125.014
134.904
144.888
154.847
164.659
174.221
183.429
192.171
200.319
207.718
214.221
219.728
224.175
227.536
229.818
231.015
231.133
230.191
228.211
225.23
221.29
216.421
210.661
204.072
196.735
188.773
180.325
171.495
162.37
153.02
143.499
133.869
124.189
114.514
104.9
95.413
86.125
77.112
68.446
60.181
52.36
44.993
38.068
31.583
25.536
19.927
14.754
10.013
5.69
1.773
-1.763
-4.962
-7.884
-10.59
-13.137
-15.575
-17.952
-20.304
-22.649
-25.005
-27.38
-29.778
-32.207
-34.668
-37.16
-39.678
-42.209
-44.726
-47.192
-49.572
-51.84
-53.97
-55.942
-57.737
-59.344
-60.761
-61.994
-63.049
-63.931
-64.646
-65.2
-65.605
-65.875
-66.026
-66.081
-66.058
-65.97
-65.83
-65.648
-65.43
-65.183
-64.908
-64.602
-64.263
-63.89
-63.483
-63.042
-62.569
-62.059
-61.513
-60.929
-60.306
-59.645
-58.947
-58.214
-57.45
-56.657
-55.84
-55.004
-54.154
-53.294
-52.428
-51.56
-50.691
-49.827
-48.97
-48.123
-47.289
-46.471
-45.672
-44.897
-44.147
-43.425
-42.734
-42.076
-41.454
-40.869
-40.323
-39.817
-39.353
-38.932
-38.554
-38.219
-37.928
-37.679
-37.471
-37.303
-37.173
-37.08
-37.022
-36.996
-37
-37.032
-37.09
-37.173
-37.277
-37.402
-37.546
-37.707
-37.884
-38.076
-38.282
-38.5
-38.73
-38.972
-39.226
-39.49
-39.767
-40.055
-40.355
-40.668
-40.995
-41.337
-41.695
-42.07
-42.464
-42.878
-43.313
-43.773
-44.257
-44.767
-45.303
-45.867
-46.459
-47.079
-47.724
-48.395
-49.088
-49.801
-50.531
-51.277
-52.033
-52.796
-53.562
-54.328
-55.089
-55.84
-56.575
-57.286
-57.967
-58.61
-59.208
-59.752
-60.232
-60.638
-60.962
-61.196
-61.331
-61.356
-61.258
-61.025
-60.646
-60.117
-59.434
-58.595
-57.605
-56.467
-55.193
-53.8
-52.306
-50.72
-49.054
-47.311
-45.502
-43.643
-41.75
-39.836
-37.912
-35.977
-34.029
-32.066
-30.075
-28.031
-25.905
-23.652
-21.246
-18.677
-15.941
-13.047
-10.001
-6.811
-3.496
-0.086
3.379
6.849
10.271
13.589
16.72
19.565
22.014
23.949
25.279
25.94
25.874
25.042
23.421
21
17.808
13.895
9.319
4.15
-1.535
-7.65
-14.07
-20.647
-27.226
-33.652
-39.796
-45.547
-50.8
-55.467
-59.498
-62.9
-65.735
-68.097
-70.074
-71.73
-73.146
-74.45
-75.81
-77.412
-79.418
-81.931
-85.076
-89.089
-94.122
-100.141
-106.891
-113.789
-120.228
-125.81
-130.05
-132.237
-131.972
-129.302
-124.849
-120.067
-116.238
-114.165
-114.93
-119.702
-128.945
-140.922
-151.659
-156.735
-152.952
-141.491
-125.339
-102.75
-68.782
-15.477
65.568
173.508
301.205
440.863
581.801
712.839
823.22
896.934
917.216
877.973
780.398
634.284
461.481
281.474
113.18
-22.755
-117.832
-169.849
-182.542
-170.363
-144.128
-113.227
-88.185
-72.701
-71.415
-84.929
-105.58
-128.127
-146.795
-158.878
-168.55
-177.512
-186.025
-193.778
-197.87
-197.218
-192.564
-184.637
-174.683
-163.798
-152.596
-141.537
-130.963
-120.976
-111.504
-102.56
-94.18
-86.308
