Name
Date of Birth,"Mar 27, 1959"
Recorded Date,2022-08-13 14:00:41 -0500
Classification,Sinus Rhythm
Symptoms,
Software Version,1.90
Device,"Watch4,2"
Sample Rate,510.227 hertz


Lead,Lead I
Unit,µV

-9.162
-9.238
-9.349
-9.49
-9.655
-9.836
-10.027
-10.221
-10.41
-10.587
-10.745
-10.878
-10.979
-11.042
-11.062
-11.033
-10.952
-10.815
-10.619
-10.363
-10.044
-9.663
-9.22
-8.715
-8.149
-7.523
-6.841
-6.105
-5.319
-4.485
-3.609
-2.694
-1.747
-0.772
0.224
1.237
2.259
3.287
4.314
5.336
6.347
7.345
8.325
9.284
10.22
11.132
12.019
12.881
13.72
14.537
15.337
16.123
16.9
17.674
18.45
19.234
20.033
20.853
21.7
22.58
23.499
24.463
25.477
26.546
27.674
28.865
30.12
31.442
32.831
34.287
35.806
37.385
39.017
40.694
42.409
44.148
45.901
47.654
49.391
51.098
52.758
54.355
55.869
57.282
58.571
59.714
60.687
61.467
62.033
62.364
62.44
62.244
61.763
60.987
59.906
58.505
56.765
54.67
52.208
49.375
46.17
42.598
38.674
34.422
29.883
25.097
20.105
14.938
9.621
4.18
-1.349
-6.92
-12.467
-17.93
-23.262
-28.423
-33.376
-38.097
-42.589
-46.893
-51.095
-55.271
-59.47
-63.726
-68.073
-72.571
-77.303
-82.364
-87.821
-93.768
-100.345
-107.604
-115.498
-123.802
-132.046
-139.698
-146.268
-151.224
-153.985
-154.21
-151.868
-147.472
-142.138
-137.038
-133.173
-131.433
-132.637
-137.267
-145.066
-154.501
-162.972
-167.529
-165.064
-152.556
-127.073
-85.619
-27.252
45.722
130.027
221.408
317.32
418.623
524.004
628.483
721.612
788.187
814.192
790.52
717.174
600.023
449.367
281.419
112.498
-37.623
-149.655
-216.715
-241.213
-236.622
-222.362
-208.998
-200.379
-194.372
-185.262
-173.084
-160.586
-150.541
-146.259
-147.801
-153.148
-160.612
-167.843
-172.778
-174.695
-173.38
-169.119
-162.798
-155.284
-147.273
-139.589
-133.016
-127.936
-124.497
-122.632
-122.055
-122.516
-123.82
-125.733
-128.031
-130.559
-133.168
-135.712
-138.069
-140.083
-141.63
-142.641
-143.07
-142.897
-142.126
-140.778
-138.896
-136.547
-133.79
-130.676
-127.249
-123.551
-119.636
-115.567
-111.413
-107.239
-103.094
-99.003
-94.986
-91.051
-87.193
-83.402
-79.653
-75.918
-72.173
-68.403
-64.594
-60.734
-56.81
-52.805
-48.704
-44.494
-40.165
-35.707
-31.116
-26.387
-21.522
-16.522
-11.395
-6.15
-0.794
4.663
10.214
15.847
21.554
27.321
33.135
38.983
44.849
50.717
56.569
62.385
68.147
73.834
79.428
84.907
90.253
95.445
100.465
105.293
109.912
114.304
118.451
122.34
125.955
129.283
132.313
135.033
137.437
139.516
141.266
142.685
143.771
144.526
144.951
145.051
144.833
144.305
143.474
142.353
140.952
139.286
137.368
135.215
132.843
130.27
127.512
124.59
121.522
118.326
115.023
111.631
108.169
104.657
101.112
97.554
94
90.467
86.972
83.529
80.153
76.858
73.655
70.555
67.567
64.699
61.958
59.348
56.874
54.539
52.343
50.289
48.375
46.599
44.96
43.453
42.074
40.819
39.681
38.654
37.73
36.903
36.164
35.504
34.914
34.385
33.907
33.47
33.063
32.675
32.297
31.917
31.526
31.113
30.668
30.183
29.65
29.06
28.406
27.682
26.882
26.001
25.034
23.977
22.827
21.581
20.238
18.795
17.252
15.608
13.864
12.02
10.078
8.039
5.905
3.679
1.364
-1.037
-3.517
-6.073
-8.699
-11.387
-14.132
-16.926
-19.762
-22.632
-25.528
-28.443
-31.37
-34.301
-37.23
-40.149
-43.051
-45.93
-48.78
-51.595
-54.37
-57.099
-59.777
-62.401
-64.965
-67.465
-69.899
-72.261
-74.549
-76.757
-78.884
-80.926
-82.879
-84.742
-86.513
-88.189
-89.77
-91.256
-92.647
-93.942
-95.141
-96.246
-97.257
-98.175
-98.999
-99.73
-100.368
-100.914
-101.367
-101.728
-101.996
-102.17
-102.251
-102.237
-102.127
-101.921
-101.617
-101.215
-100.713
-100.112
-99.413
-98.617
-97.725
-96.738
-95.659
-94.492
-93.239
-91.904
-90.49
-89.001
-87.443
-85.821
-84.14
-82.409
-80.632
-78.821
-76.986
-75.139
-73.295
-71.465
-69.665
-67.91
-66.216
-64.597
-63.067
-61.637
-60.321
-59.131
-58.086
-57.199
-56.483
-55.951
-55.612
-55.478
-55.56
-55.861
-56.378
-57.11
-58.057
-59.225
-60.635
-62.298
-64.217
-66.396
-68.83
-71.511
-74.431
-77.562
-80.855
-84.267
-87.75
-91.266
-94.798
-98.307
-101.745
-105.054
-108.151
-110.978
-113.492
-115.647
-117.414
-118.795
-119.808
-120.515
-121.013
-121.378
-121.71
-122.099
-122.611
-123.34
-124.349
-125.739
-127.733
-130.455
-133.91
-138.028
-142.511
-146.982
-151.16
-154.576
-156.511
-156.521
-154.461
-150.542
-145.597
-140.719
-136.929
-135.349
-137.503
-143.463
-151.133
-158.246
-161.719
-160.73
-159.433
-159.799
-159.694
-152.579
-123.825
-61.092
39.526
175.634
333.814
496.319
645.677
763.717
837.75
859.103
826.568
746.5
626.93
481.352
323.325
165.753
26.865
-78.775
-144.887
-171.361
-170.575
-161.424
-154.085
-154.107
-160.666
-163.706
-159.985
-150.278
-134.856
-120.272
-110.09
-103.724
-101.846
-102.591
-104.094
-106.433
-109.214
-111.969
-114.417
-116.368
-117.819
-118.917
-119.701
-119.909
-119.399
-118.5
-117.836
-117.789
-118.466
-119.821
-121.764
-124.392
-127.768
-131.646
-135.526
-139.001
-141.842
-143.969
-145.423
-146.172
-146.141
-145.35
-143.891
-141.874
-139.39
-136.481
-133.141
-129.393
-125.296
-120.927
-116.378
-111.712
-106.961
-102.151
-97.298
-92.412
-87.504
-82.568
-77.583
-72.538
-67.424
-62.239
-56.989
-51.677
-46.295
-40.835
-35.287
-29.644
-23.907
-18.078
-12.16
-6.16
-0.085
6.052
12.236
18.454
24.694
30.945
37.196
43.434
49.645
55.815
61.928
67.967
73.913
79.745
85.444
90.986
96.353
101.52
106.468
111.174
115.616
119.774
123.627
127.154
130.336
133.154
135.591
137.629
139.255
140.456
141.22
141.537
141.401
140.807
139.75
138.23
136.248
133.807
130.91
127.568
123.788
119.582
114.966
109.955
104.569
98.828
92.756
86.378
79.719
72.807
65.671
58.341
50.847
43.221
35.494
27.697
19.863
12.024
4.21
-3.548
-11.22
-18.778
-26.194
-33.442
-40.499
-47.34
-53.945
-60.295
-66.37
-72.156
-77.638
-82.804
-87.645
-92.153
-96.323
-100.152
-103.64
-106.787
-109.596
-112.074
-114.226
-116.062
-117.591
-118.826
-119.778
-120.462
-120.893
-121.087
-121.061
-120.83
-120.413
-119.826
-119.087
-118.213
-117.221
-116.127
-114.947
-113.697
-112.393
-111.048
-109.676
-108.291
-106.905
-105.528
-104.173
-102.846
-101.558
-100.315
-99.122
-97.985
-96.909
-95.895
-94.946
-94.065
-93.251
-92.504
-91.825
-91.213
-90.665
-90.182
-89.76
-89.4
-89.099
-88.856
-88.671
-88.542
-88.47
-88.454
-88.495
-88.592
-88.748
-88.963
-89.238
-89.575
-89.975
-90.441
-90.975
-91.578
-92.254
-93.005
-93.834
-94.744
-95.737
-96.816
-97.984
-99.243
-100.596
-102.045
-103.589
-105.231
-106.97
-108.805
-110.736
-112.759
-114.871
-117.066
-119.34
-121.686
-124.095
-126.56
-129.069
-131.612
-134.179
-136.755
-139.328
-141.884
-144.408
-146.887
-149.305
-151.648
-153.901
-156.05
-158.079
-159.974
-161.723
-163.31
-164.724
-165.949
-166.976
-167.792
-168.388
-168.756
-168.887
-168.775
-168.416
-167.808
-166.949
-165.84
-164.483
-162.88
-161.039
-158.966
-156.673
-154.17
-151.472
-148.595
-145.559
-142.386
-139.098
-135.718
-132.268
-128.771
-125.253
-121.739
-118.254
-114.823
-111.469
-108.217
-105.094
-102.125
-99.332
-96.735
-94.346
-92.178
-90.246
-88.56
-87.127
-85.95
-85.03
-84.366
-83.967
-83.829
-83.943
-84.301
-84.886
-85.678
-86.656
-87.789
-89.042
-90.378
-91.762
-93.161
-94.542
-95.866
-97.095
-98.196
-99.151
-99.952
-100.581
-100.994
-101.129
-100.954
-100.502
-99.819
-98.91
-97.808
-96.607
-95.488
-94.837
-95
-96.02
-97.849
-100.417
-103.449
-106.588
-109.24
-110.226
-108.33
-102.962
-93.923
-81.348
-65.803
-47.959
-29.037
-11.198
3.125
12.005
14.347
9.865
-1.538
-18.625
-37.854
-55.386
-66.497
-68.836
-65.578
-57.801
-43.484
-18.08
29.611
107.907
217.588
356.857
516.503
681.852
836.785
960.37
1032.436
1040.765
983.692
870.545
719.041
549.135
378.75
224.608
99.574
11.648
-37.296
-52.803
-43.012
-16.887
18.043
55.345
86.08
102.781
101.766
85.037
61.795
40.816
26.912
20.42
16.882
13.265
9.235
5.595
4.48
6.544
10.716
15.892
20.836
24.635
27.107
28.213
27.924
26.428
23.896
20.435
16.216
11.409
6.117
0.453
-5.457
-11.515
-17.554
-23.373
-28.829
-33.813
-38.263
-42.163
-45.494
-48.245
-50.44
-52.119
-53.324
-54.095
-54.465
-54.462
-54.133
-53.537
-52.74
-51.812
-50.801
-49.736
-48.633
-47.494
-46.317
-45.091
-43.794
-42.397
-40.878
-39.219
-37.408
-35.437
-33.291
-30.956
-28.418
-25.667
-22.693
-19.492
-16.062
-12.402
-8.517
-4.416
-0.109
4.392
9.072
13.919
18.92
24.06
29.322
34.69
40.146
45.67
51.241
56.835
62.429
67.995
73.509
78.942
84.267
89.457
94.484
99.32
103.94
108.317
112.427
116.246
119.75
122.919
125.733
128.175
130.229
131.881
133.119
133.934
134.32
134.271
133.785
132.863
131.506
129.718
127.508
124.884
121.856
118.438
114.646
110.497
106.01
101.206
96.11
90.743
85.133
79.305
73.287
67.105
60.789
54.365
47.862
41.309
34.732
28.159
21.616
15.128
8.72
2.415
-3.765
-9.801
-15.672
-21.362
-26.855
-32.137
-37.196
-42.021
-46.603
-50.935
-55.012
-58.829
-62.386
-65.681
-68.716
-71.494
-74.02
-76.298
-78.337
-80.143
-81.726
-83.096
-84.263
-85.24
-86.037
-86.668
-87.145
-87.481
-87.689
-87.782
-87.772
-87.672
-87.495
-87.251
-86.951
-86.608
-86.229
-85.825
-85.403
-84.971
-84.536
-84.103
-83.677
-83.261
-82.859
-82.473
-82.104
-81.751
-81.415
-81.094
-80.786
-80.489
-80.199
-79.913
-79.627
-79.337
-79.038
-78.725
-78.393
-78.038
-77.655
-77.239
-76.786
-76.291
-75.75
-75.161
-74.519
-73.821
-73.067
-72.254
-71.382
-70.451
-69.462
-68.415
-67.313
-66.16
-64.957
-63.711
-62.425
-61.105
-59.757
-58.389
-57.005
-55.615
-54.225
-52.844
-51.478
-50.136
-48.824
-47.55
-46.32
-45.142
-44.021
-42.963
-41.974
-41.058
-40.22
-39.463
-38.791
-38.204
-37.705
-37.294
-36.969
-36.728
-36.569
-36.488
-36.48
-36.539
-36.659
-36.834
-37.053
-37.31
-37.593
-37.893
-38.2
-38.502
-38.789
-39.048
-39.27
-39.444
-39.561
-39.61
-39.583
-39.47
-39.265
-38.96
-38.55
-38.029
-37.391
-36.634
-35.756
-34.758
-33.638
-32.399
-31.046
-29.585
-28.026
-26.378
-24.652
-22.861
-21.02
-19.142
-17.243
-15.337
-13.436
-11.554
-9.706
-7.909
-6.182
-4.54
-2.999
-1.572
-0.275
0.878
1.88
2.727
3.418
3.949
4.311
4.485
4.456
4.215
3.756
3.077
2.184
1.086
-0.189
-1.598
-3.097
-4.647
-6.216
-7.787
-9.331
-10.808
-12.171
-13.357
-14.316
-15.012
-15.398
-15.441
-15.152
-14.561
-13.749
-12.827
-11.862
-10.928
-10.101
-9.434
-9.006
-8.897
-9.15
-9.894
-11.32
-13.49
-16.414
-19.978
-23.748
-27.27
-30.133
-31.655
-31.108
-28.242
-23.018
-15.72
-7.645
-0.193
5.58
7.82
5.79
1.385
-3.785
-7.849
-9.959
-14.083
-22.391
-31.125
-32.118
-11.068
44.818
137.807
263.191
410.026
562.682
708.705
834.311
924.11
967.504
956.399
890.926
779.751
634.75
472.012
308.132
159.674
40.619
-41.886
-88.1
-105.649
-103.27
-87.451
-62.361
-31.637
-2.602
16.629
20.742
10.463
-6.013
-20.264
-27.726
-28.415
-26.964
-26.642
-27.499
-28.416
-27.364
-23.665
-18.325
-12.341
-6.58
-1.66
2.13
4.61
5.708
5.554
4.415
2.507
-0.018
-3.019
-6.348
-9.853
-13.364
-16.722
-19.788
-22.449
-24.623
-26.255
-27.318
-27.799
-27.703
-27.07
-25.954
-24.407
-22.482
-20.221
-17.662
-14.862
-11.884
-8.798
-5.677
-2.568
0.499
3.502
6.433
9.291
12.081
14.824
17.552
20.287
23.046
25.847
28.7
31.624
34.641
37.771
41.033
44.444
48.017
51.761
55.688
59.8
64.098
68.58
73.237
78.061
83.046
88.184
93.469
98.89
104.436
110.097
115.862
121.719
127.653
133.644
139.668
145.701
151.713
157.677
163.56
169.33
174.951
180.392
185.622
190.616
195.343
199.772
203.865
207.581
210.885
213.757
216.175
218.119
219.583
220.568
221.093
221.197
220.906
220.226
219.159
217.684
215.788
213.464
210.699
207.482
203.802
199.639
194.989
189.861
184.24
178.095
171.367
163.956
155.809
146.923
137.314
127.039
116.168
104.779
92.986
80.936
68.758
56.574
44.483
32.547
20.871
9.579
-1.171
-11.182
-20.309
-28.47
-35.602
-41.679
-46.718
-50.749
-53.869
-56.236
-57.969
-59.168
-59.906
-60.216
-60.166
-59.849
-59.372
-58.865
-58.431
-58.133
-58.028
-58.16
-58.536
-59.143
-59.915
-60.737
-61.527
-62.237
-62.834
-63.318
-63.676
-63.88
-63.911
-63.749
-63.378
-62.795
-61.991
-60.952
-59.691
-58.229
-56.612
-54.909
-53.172
-51.432
-49.715
-48.035
-46.403
-44.834
-43.332
-41.89
-40.509
-39.191
-37.941
-36.77
-35.682
-34.674
-33.743
-32.878
-32.073
-31.327
-30.635
-29.996
-29.41
-28.879
-28.406
-27.999
-27.664
-27.403
-27.219
-27.112
-27.081
-27.128
-27.252
-27.452
-27.726
-28.074
-28.495
-28.99
-29.56
-30.202
-30.916
-31.702
-32.557
-33.48
-34.468
-35.52
-36.632
-37.801
-39.024
-40.297
-41.618
-42.982
-44.386
-45.824
-47.292
-48.784
-50.296
-51.818
-53.346
-54.871
-56.386
-57.884
-59.359
-60.802
-62.206
-63.565
-64.871
-66.118
-67.3
-68.408
-69.436
-70.378
-71.227
-71.979
-72.63
-73.174
-73.608
-73.93
-74.136
-74.226
-74.199
-74.053
-73.788
-73.406
-72.907
-72.293
-71.569
-70.739
-69.809
-68.789
-67.689
-66.521
-65.298
-64.034
-62.742
-61.439
-60.139
-58.855
-57.599
-56.384
-55.224
-54.134
-53.131
-52.231
-51.446
-50.791
-50.277
-49.917
-49.722
-49.691
-49.826
-50.13
-50.613
-51.293
-52.192
-53.318
-54.679
-56.28
-58.113
-60.17
-62.427
-64.839
-67.358
-69.935
-72.527
-75.108
-77.649
-80.106
-82.417
-84.512
-86.319
-87.797
-88.909
-89.616
-89.922
-89.858
-89.496
-88.965
-88.369
-87.807
-87.401
-87.259
-87.487
-88.21
-89.511
-91.519
-94.486
-98.517
-103.548
-109.41
-115.655
-121.808
-127.553
-132.333
-135.329
-136.081
-134.612
-131.339
-127.363
-123.857
-121.484
-121.136
-124.3
-130.68
-137.685
-142.734
-142.162
-135.758
-128.49
-121.093
-110.1
-86.436
-35.588
48.735
163.49
299.017
440.599
578.236
704.931
811.761
888.976
923.531
904.819
832.029
711.913
558.646
390.318
224.041
75.417
-43.917
-126.667
-173.148
-188.729
-178.682
-152.414
-117.327
-81.175
-57.013
-50.526
-62.478
-88
-113.759
-132.173
-140.978
-141.571
-140.385
-140.004
-139.916
-139.309
-136.079
-129.968
-122.298
-114.005
-106.132
-99.466
-94.14
-90.225
-87.73
-86.447
-86.213
-86.903
-88.359
-90.42
-92.946
-95.816
-98.887
-102.023
-105.052
-107.777
-110.049
-111.779
-112.917
-113.444
-113.355
-112.662
-111.4
-109.63
-107.411
-104.793
-101.823
-98.546
-95.019
-91.316
-87.513
-83.686
-79.889
-76.154
-72.501
-68.937
-65.46
-62.059
-58.715
-55.397
-52.084
-48.76
-45.412
-42.029
-38.599
-35.104
-31.531
-27.864
-24.092
-20.209
-16.209
-12.088
-7.849
-3.493
0.972
5.537
10.194
14.936
19.753
24.637
29.579
34.568
39.59
44.634
49.684
54.723
59.732
64.692
69.582
74.382
79.069
83.622
88.02
92.239
96.259
100.059
103.618
106.916
109.933
112.651
115.055
117.128
118.855
120.225
121.228
121.853
122.096
121.95
121.413
120.485
119.167
117.462
115.377
112.917
110.094
106.918
103.403
99.566
95.423
90.993
86.298
81.36
76.202
70.848
65.324
59.656
53.87
47.993
42.052
36.074
30.087
24.116
18.189
12.331
6.567
0.921
-4.583
-9.924
-15.082
-20.037
-24.771
-29.269
-33.517
-37.502
-41.213
-44.642
-47.781
-50.625
-53.17
-55.415
-57.359
-59.004
-60.353
-61.41
-62.182
-62.674
-62.897
-62.859
-62.57
-62.043
-61.29
-60.324
-59.158
-57.808
-56.289
-54.615
-52.803
-50.868
-48.827
-46.695
-44.488
-42.222
-39.911
-37.569
-35.211
-32.848
-30.494
-28.159
-25.854
-23.589
-21.373
-19.214
-17.12
-15.097
-13.152
-11.289
-9.514
-7.83
-6.241
-4.748
-3.355
-2.062
-0.871
0.218
1.206
2.094
2.883
3.574
4.171
4.677
5.095
5.428
5.681
5.858
5.961
5.996
5.966
5.874
5.723
5.518
5.261
4.956
4.607
4.216
3.786
3.322
2.827
2.305
1.757
1.189
0.604
0.005
-0.603
-1.217
-1.833
-2.447
-3.055
-3.653
-4.238
-4.806
-5.355
-5.882
-6.385
-6.862
-7.309
-7.725
-8.108
-8.454
-8.762
-9.027
-9.249
-9.424
-9.55
-9.627
-9.653
-9.626
-9.546
-9.412
-9.226
-8.988
-8.699
-8.362
-7.979
-7.557
-7.098
-6.609
-6.098
-5.572
-5.042
-4.516
-4.004
-3.515
-3.062
-2.657
-2.316
-2.049
-1.863
-1.769
-1.774
-1.891
-2.129
-2.496
-2.993
-3.626
-4.402
-5.331
-6.426
-7.685
-9.099
-10.657
-12.351
-14.18
-16.156
-18.277
-20.54
-22.942
-25.467
-28.108
-30.861
-33.696
-36.579
-39.472
-42.305
-45.03
-47.685
-50.299
-52.896
-55.473
-57.921
-60.118
-62.049
-63.739
-65.062
-65.839
-66.087
-65.833
-65.244
-64.994
-64.525
-63.097
-61.852
-60.983
-62.838
-70.231
-79.894
-89.211
-94.286
-90.39
-81.42
-71.045
-61.726
-57.113
-54.531
-51.715
-49.033
-45.889
-43.722
-43.589
-45.346
-49.446
-56.371
-66.646
-78.892
-89.532
-95.868
-95.215
-88.478
-81.024
-72.601
-60.031
-35.726
14.497
95.578
206.478
341.88
487.043
631.008
761.203
861.013
918.806
922.514
869.821
769.528
632.625
475.969
312.475
153.124
12.481
-99.993
-176.697
-216.178
-226.057
-212.616
-181.482
-138.337
-88.427
-41.955
-9.842
2.717
-2.302
-15.915
-29.167
-37.545
-41.48
-45.183
-50.84
-58.143
-65.744
-70.949
-72.323
-70.261
-65.473
-59.315
-53.452
-48.61
-45.041
-42.989
-42.475
-43.461
-45.945
-49.623
-53.87
-58.281
-62.597
-66.58
-70.178
-73.329
-75.914
-77.923
-79.406
-80.383
-80.895
-80.983
-80.639
-79.883
-78.757
-77.289
-75.544
-73.588
-71.485
-69.308
-67.108
-64.914
-62.752
-60.636
-58.571
-56.559
-54.583
-52.617
-50.641
-48.642
-46.605
-44.517
-42.357
-40.098
-37.719
-35.201
-32.53
-29.694
-26.681
-23.482
-20.093
-16.511
-12.739
-8.784
-4.649
-0.337
4.147
8.796
13.6
18.548
23.629
28.829
34.133
39.522
44.976
50.472
55.989
61.501
66.984
72.412
77.758
82.994
88.093
93.027
97.767
102.287
106.557
110.552
114.246
117.615
120.636
123.289
125.554
127.413
128.853
129.859
130.423
130.535
130.189
129.382
128.114
126.387
124.205
121.575
118.507
115.014
111.109
106.809
102.135
97.105
91.743
86.073
80.12
73.912
67.475
60.84
54.036
47.093
40.042
32.912
25.736
18.541
11.359
4.216
-2.858
-9.837
-16.697
-23.411
-29.958
-36.317
-42.466
-48.39
-54.071
-59.495
-64.65
-69.525
-74.113
-78.406
-82.399
-86.09
-89.477
-92.56
-95.34
-97.821
-100.008
-101.905
-103.522
-104.865
-105.945
-106.771
-107.355
-107.708
-107.843
-107.772
-107.508
-107.064
-106.455
-105.693
-104.792
-103.767
-102.63
-101.394
-100.073
-98.68
-97.225
-95.72
-94.177
-92.604
-91.012
-89.41
-87.805
-86.207
-84.621
-83.054
-81.513
-80.002
-78.527
-77.091
-75.698
-74.352
-73.056
-71.812
-70.623
-69.492
-68.42
-67.41
-66.462
-65.578
-64.76
-64.007
-63.32
-62.7
-62.147
-61.661
-61.241
-60.889
-60.603
-60.387
-60.238
-60.154
-60.13
-60.164
-60.254
-60.404
-60.611
-60.863
-61.161
-61.521
-61.955
-62.475
-63.079
-63.736
-64.436
-65.202
-66.012
-66.795
-67.497
-68.057
-68.459
-68.776
-69.026
-69.117
-69.12
-69.335
-69.829
-70.498
-71.372
-72.126
-73.313
-76.847
-82.397
-88.154
-91.289
-86.345
-73.401
-57.984
-45.514
-43.705
-53.383
-67.178
-79.368
-83.884
-79.396
-71.395
-63.342
-57.5
-54.68
-52.663
-50.386
-47.952
-45.287
-42.738
-40.422
-38.053
-35.551
-32.987
-30.371
-27.708
-25.027
-22.363
-19.765
-17.304
-15.02
-12.909
-10.981
-9.259
-7.755
-6.481
-5.444
-4.646
-4.095
-3.813
-3.819
-4.123
-4.734
-5.657
-6.888
-8.419
-10.226
-12.269
-14.512
-16.914
-19.445
-22.083
-24.801
-27.566
-30.336
-33.049
-35.651
-38.095
-40.334
-42.317
-44.021
-45.458
-46.68
-47.789
-48.869
-49.966
-51.131
-52.425
-53.92
-55.696
-57.826
-60.343
-63.331
-66.993
-71.434
-76.608
-82.298
-88.01
-93.191
-97.437
-100.23
-100.812
-98.769
-94.233
-87.72
-80.469
-73.951
-69.132
-67.123
-69.637
-76.376
-84.659
-92.117
-95.14
-93.32
-91.146
-87.936
-78.849
-54.582
-1.489
84.703
198.946
331.532
469.675
605.856
734.643
846.32
927.98
962.709
937.505
851.174
711.151
534.257
342.013
153.903
-10.378
-134.893
-211.873
-240.028
-225.782
-183.393
-127.621
-72.762
-32.889
-12.479
-9.871
-19.383
-29.125
-33.832
-34.62
-33.83
-37.263
-46.488
-58.374
-70.372
-79.725
-84.932
-86.144
-83.828
-78.689
-71.882
-64.894
-58.619
-53.401
-49.501
-47.007
-45.93
-46.33
-47.914
-50.071
-52.45
-54.837
-57.067
-59.104
-60.815
-62.053
-62.8
-63.089
-62.945
-62.413
-61.504
-60.226
-58.643
-56.767
-54.608
-52.204
-49.561
-46.723
-43.751
-40.683
-37.567
-34.445
-31.333
-28.254
-25.225
-22.218
-19.209
-16.159
-13.009
-9.766
-6.438
-3.013
0.506
4.132
7.888
11.771
15.781
19.937
24.249
28.732
33.401
38.243
43.246
48.395
53.669
59.07
64.603
70.257
76.028
81.904
87.87
93.919
100.044
106.219
112.415
118.608
124.767
130.868
136.889
142.803
148.581
154.195
159.615
164.811
169.757
174.424
178.782
182.805
186.465
189.739
192.609
195.054
197.057
198.603
199.678
200.273
200.38
199.994
199.112
197.736
195.867
193.512
190.683
187.389
183.645
179.468
174.878
169.897
164.549
158.858
152.852
146.559
140.009
133.232
126.261
119.125
111.859
104.493
97.062
89.597
82.13
74.693
67.318
60.034
52.871
45.856
39.015
32.372
25.951
19.772
13.853
8.211
2.86
-2.188
-6.924
-11.341
-15.434
-19.2
-22.638
-25.75
-28.54
-31.011
-33.17
-35.025
-36.586
-37.861
-38.862
-39.602
-40.092
-40.347
-40.381
-40.209
-39.845
-39.307
-38.61
-37.77
-36.804
-35.729
-34.562
-33.317
-32.011
-30.659
-29.275
-27.872
-26.463
-25.059
-23.67
-22.307
-20.976
-19.685
-18.439
-17.243
-16.101
-15.017
-13.991
-13.027
-12.124
-11.284
-10.506
-9.791
-9.139
-8.547
-8.016
-7.544
-7.129
-6.769
-6.462
-6.206
-5.996
-5.831
-5.705
-5.615
-5.558
-5.528
-5.523
-5.537
-5.567
-5.61
-5.662
-5.719
-5.781
-5.843
-5.905
-5.965
-6.021
-6.072
-6.118
-6.157
-6.188
-6.212
-6.225
-6.229
-6.219
-6.196
-6.156
-6.097
-6.018
-5.913
-5.782
-5.619
-5.423
-5.19
-4.919
-4.605
-4.248
-3.845
-3.394
-2.894
-2.343
-1.741
-1.085
-0.376
0.388
1.207
2.079
3.006
3.986
5.019
6.101
7.231
8.406
9.623
10.877
12.164
13.477
14.809
16.153
17.497
18.833
20.145
21.419
22.639
23.79
24.854
25.816
26.657
27.361
27.915
28.305
28.517
28.538
28.353
27.947
27.305
26.418
25.273
23.861
22.174
20.203
17.952
15.422
12.613
9.522
6.134
2.439
-1.562
-5.867
-10.47
-15.353
-20.499
-25.875
-31.425
-37.095
-42.829
-48.577
-54.306
-59.974
-65.523
-70.888
-75.993
-80.769
-85.181
-89.192
-92.763
-95.892
-98.605
-100.969
-103.109
-105.124
-107.098
-109.134
-111.334
-113.815
-116.71
-120.098
-124.07
-128.781
-134.291
-140.558
-147.414
-154.475
-161.331
-167.655
-173.008
-176.792
-178.557
-178.146
-175.902
-172.577
-168.813
-165.151
-162.151
-160.711
-162.001
-165.167
-167.026
-164.768
-155.337
-139.89
-124.5
-109.647
-92.818
-66.408
-15.248
66.539
178.031
313.538
457.2
596.62
719.991
812.888
864.653
864.084
806.683
697.057
546.153
372.627
195.373
33.122
-97.263
-186.613
-233.84
-246.954
-240.232
-227.194
-214.346
-202.09
-187.739
-168.235
-145.194
-122.836
-104.71
-93.94
-91.594
-96.603
-107.163
-120.957
-135.307
-148.04
-158.115
-164.948
-168.014
-167.327
-163.305
-156.679
-148.839
-141.236
-134.605
-129.359
-125.839
-124.056
-123.949
-125.387
-127.866
-130.781
-133.773
-136.562
-138.933
-140.837
-142.2
-142.946
-143.113
-142.749
-141.878
-140.544
-138.77
-136.553
-133.925
-130.921
-127.579
-123.965
-120.147
-116.193
-112.176
-108.147
-104.14
-100.182
-96.288
-92.465
-88.714
-85.019
-81.358
-77.718
-74.084
-70.444
-66.785
-63.087
-59.328
-55.491
-51.561
-47.526
-43.376
-39.103
-34.702
-30.171
-25.511
-20.727
-15.826
-10.814
-5.697
-0.481
4.824
10.209
15.663
21.174
26.728
32.311
37.904
43.487
49.041
54.542
59.969
65.298
70.503
75.56
80.444
85.13
89.593
93.808
97.752
101.402
104.734
107.731
110.372
112.64
114.521
116.002
117.073
117.724
117.951
117.748
117.115
116.051
114.559
112.645
110.316
107.581
104.452
100.944
97.072
92.857
88.318
83.479
78.364
72.998
67.409
61.626
55.676
49.592
43.402
37.138
30.831
24.512
18.211
11.958
5.78
-0.293
-6.237
-12.026
-17.636
-23.047
-28.238
-33.189
-37.885
-42.311
-46.452
-50.299
-53.841
-57.071
-59.985
-62.578
-64.848
-66.798
-68.427
-69.742
-70.746
-71.448
-71.856
-71.98
-71.833
-71.427
-70.775
-69.894
-68.798
-67.504
-66.029
-64.388
-62.599
-60.679
-58.644
-56.51
-54.295
-52.013
-49.679
-47.309
-44.916
-42.514
-40.116
-37.733
-35.376
-33.055
-30.781
-28.559
-26.4
-24.308
-22.29
-20.351
-18.494
-16.724
-15.041
-13.449
-11.948
-10.537
-9.217
-7.986
-6.844
-5.787
-4.814
-3.924
-3.113
-2.379
-1.72
-1.133
-0.617
-0.168
0.215
0.535
0.794
0.993
1.134
1.218
1.247
1.222
1.143
1.012
0.828
0.592
0.304
-0.034
-0.421
-0.859
-1.345
-1.879
-2.46
-3.088
-3.76
-4.477
-5.235
-6.035
-6.872
-7.745
-8.651
-9.585
-10.544
-11.522
-12.515
-13.517
-14.522
-15.524
-16.517
-17.493
-18.445
-19.366
-20.247
-21.082
-21.863
-22.581
-23.228
-23.798
-24.283
-24.676
-24.974
-25.169
-25.256
-25.233
-25.096
-24.844
-24.474
-23.986
-23.38
-22.657
-21.82
-20.874
-19.822
-18.671
-17.429
-16.106
-14.715
-13.269
-11.782
-10.268
-8.744
-7.226
-5.731
-4.274
-2.869
-1.528
-0.269
0.893
1.94
2.858
3.632
4.25
4.698
4.962
5.036
4.918
4.609
4.105
3.402
2.481
1.331
-0.05
-1.669
-3.524
-5.607
-7.907
-10.396
-13.027
-15.752
-18.525
-21.306
-24.07
-26.78
-29.39
-31.845
-34.076
-36.033
-37.68
-38.97
-39.867
-40.378
-40.529
-40.399
-40.112
-39.744
-39.38
-39.126
-39.06
-39.281
-39.89
-40.932
-42.505
-44.795
-47.884
-51.746
-56.267
-61.069
-65.723
-69.894
-73.044
-74.426
-73.605
-70.566
-65.568
-59.458
-53.374
-48.166
-44.923
-45.441
-49.514
-54.342
-57.555
-55.803
-48.886
-43.006
-40.388
-38.489
-30.166
1.392
68.966
175.873
319.661
484.865
651.028
797.683
902.899
953.764
944.858
880.158
771.926
630.35
468.581
299.084
134.61
-5.503
-108.104
-168.508
-189.308
-182.695
-159.814
-126.851
-89.928
-55.264
-28.969
-16.488
-17.529
-25.228
-33.289
-38.403
-40.682
-43.938
-49.915
-57.505
-65.041
-70.1
-71.444
-69.278
-64.135
-57.14
-49.764
-43.061
-37.609
-33.671
-31.25
-30.404
-31.192
-33.409
-36.588
-40.271
-44.149
-48.04
-51.856
-55.446
-58.634
-61.323
-63.491
-65.161
-66.345
-67.029
-67.194
-66.853
-66.039
-64.799
-63.179
-61.215
-58.951
-56.445
-53.759
-50.965
-48.112
-45.228
-42.336
-39.444
-36.553
-33.661
-30.751
-27.796
-24.779
-21.682
-18.487
-15.184
-11.758
-8.193
-4.474
-0.59
3.468
7.706
12.127
16.731
21.516
26.473
31.592
36.86
42.264
47.791
53.427
59.156
64.963
70.831
76.741
82.675
88.611
94.528
100.401
106.205
111.914
117.504
122.949
128.221
133.295
138.145
142.746
147.075
151.106
154.817
158.187
161.195
163.823
166.055
167.875
169.272
170.234
170.755
170.828
170.451
169.623
168.345
166.62
164.455
161.858
158.838
155.409
151.582
147.376
142.808
137.896
132.664
127.133
121.328
115.273
108.994
102.518
95.872
89.083
82.18
75.191
68.142
61.063
53.98
46.92
39.908
32.969
26.127
19.402
12.817
6.389
0.138
-5.923
-11.777
-17.412
-22.817
-27.981
-32.897
-37.559
-41.96
-46.097
-49.969
-53.573
-56.911
-59.985
-62.796
-65.35
-67.651
-69.706
-71.521
-73.105
-74.466
-75.615
-76.563
-77.32
-77.899
-78.311
-78.569
-78.685
-78.672
-78.541
-78.305
-77.975
-77.563
-77.081
-76.539
-75.947
-75.316
-74.655
-73.973
-73.279
-72.58
-71.885
-71.199
-70.53
-69.885
-69.268
-68.685
-68.141
-67.641
-67.189
-66.787
-66.438
-66.145
-65.909
-65.73
-65.608
-65.544
-65.537
-65.585
-65.688
-65.845
-66.052
-66.309
-66.614
-66.964
-67.358
-67.794
-68.268
-68.779
-69.325
-69.904
-70.514
-71.154
-71.821
-72.514
-73.231
-73.971
-74.73
-75.507
-76.299
-77.104
-77.92
-78.745
-79.577
-80.414
-81.255
-82.098
-82.942
-83.786
-84.628
-85.467
-86.301
-87.13
-87.95
-88.76
-89.558
-90.34
-91.104
-91.848
-92.567
-93.26
-93.922
-94.548
-95.136
-95.679
-96.174
-96.617
-97.002
-97.325
-97.582
-97.769
-97.883
-97.921
-97.879
-97.753
-97.542
-97.242
-96.853
-96.371
-95.796
-95.126
-94.362
-93.504
-92.554
-91.515
-90.389
-89.182
-87.9
-86.552
-85.148
-83.697
-82.21
-80.699
-79.177
-77.655
-76.144
-74.653
-73.191
-71.769
-70.399
-69.095
-67.866
-66.725
-65.68
-64.742
-63.923
-63.229
-62.657
-62.208
-61.882
-61.686
-61.639
-61.752
-62.031
-62.482
-63.106
-63.896
-64.842
-65.914
-67.064
-68.243
-69.407
-70.522
-71.566
-72.505
-73.295
-73.888
-74.22
-74.251
-73.949
-73.265
-72.177
-70.717
-68.939
-66.952
-64.889
-62.822
-60.841
-59.071
-57.557
-56.324
-55.412
-54.833
-54.711
-55.3
-56.691
-58.823
-61.702
-65.261
-69.128
-72.746
-75.427
-76.068
-74.874
-73.557
-71.825
-68.98
-63.505
-51.139
-34.029
-18.292
-7.502
-7.882
-18.535
-32.473
-48.899
-63.749
-71.631
-67.894
-39.415
23.787
121.787
249.531
393.771
539.471
677.646
797.408
887.368
938.82
940.274
889.663
792.66
655.645
495.754
328.712
170.189
41.286
-50.192
-103.356
-124.241
-130.636
-132.644
-133.703
-133.839
-126.319
-109.448
-87.141
-63.966
-45.376
-33.45
-27.108
-25.174
-26.667
-31.052
-37.511
-44.347
-49.944
-53.681
-55.692
-56.393
-55.91
-53.946
-50.568
-46.54
-42.888
-40.26
-38.815
-38.406
-38.911
-40.484
-43.202
-46.808
-50.813
-54.725
-58.231
-61.233
-63.735
-65.68
-66.999
-67.664
-67.714
-67.248
-66.355
-65.08
-63.435
-61.426
-59.078
-56.448
-53.612
-50.648
-47.626
-44.591
-41.569
-38.58
-35.635
-32.742
-29.899
-27.087
-24.279
-21.455
-18.603
-15.72
-12.799
-9.825
-6.777
-3.635
-0.384
2.988
6.484
10.114
13.88
17.786
21.826
25.994
30.28
34.676
39.176
43.772
48.455
53.213
58.034
62.905
67.809
72.733
77.656
82.559
87.421
92.221
96.938
101.549
106.031
110.362
114.519
118.48
122.222
125.722
128.959
131.912
134.561
136.887
138.872
140.502
141.762
142.641
143.128
143.215
142.898
142.173
141.038
139.495
137.547
135.2
132.461
129.34
125.85
122.005
117.822
113.318
108.513
103.429
98.088
92.514
86.73
80.763
74.639
68.383
62.023
55.586
49.099
42.589
36.083
29.607
23.187
16.846
10.608
4.495
-1.474
-7.277
-12.899
-18.322
-23.531
-28.515
-33.262
-37.763
-42.01
-45.998
-49.722
-53.18
-56.372
-59.298
-61.959
-64.36
-66.504
-68.395
-70.042
-71.451
-72.63
-73.588
-74.335
-74.883
-75.24
-75.419
-75.432
-75.289
-75.003
-74.584
-74.044
-73.394
-72.644
-71.806
-70.888
-69.901
-68.853
-67.752
-66.607
-65.424
-64.209
-62.969
-61.709
-60.433
-59.146
-57.853
-56.557
-55.262
-53.971
-52.688
-51.415
-50.156
-48.913
-47.687
-46.482
-45.298
-44.139
-43.004
-41.897
-40.819
-39.771
-38.756
-37.775
-36.83
-35.923
-35.057
-34.234
-33.456
-32.725
-32.046
-31.42
-30.85
-30.34
-29.891
-29.505
-29.186
-28.934
-28.751
-28.637
-28.592
-28.616
-28.707
-28.864
-29.084
-29.365
-29.703
-30.095
-30.535
-31.019
-31.541
-32.097
-32.681
-33.286
-33.905
-34.531
-35.158
-35.776
-36.378
-36.955
-37.498
-37.996
-38.441
-38.822
-39.131
-39.356
-39.49
-39.522
-39.443
-39.247
-38.924
-38.469
-37.877
-37.142
-36.262
-35.234
-34.056
-32.728
-31.25
-29.624
-27.853
-25.942
-23.894
-21.717
-19.416
-17.003
-14.486
-11.876
-9.18
-6.409
-3.573
-0.692
2.215
5.126
8.021
10.88
13.681
16.4
19.014
21.506
23.862
26.072
28.127
30.008
31.697
33.173
34.415
35.428
36.212
36.774
37.127
37.257
37.157
36.839
36.305
35.554
34.602
33.38
31.823
30.032
28.081
26.064
24.126
22.161
20.029
17.852
15.725
13.469
11
8.081
4.402
0.378
-3.499
-7.165
-10.461
-13.09
-14.946
-15.598
-14.562
-12.358
-9.549
-6.33
-3.079
-0.066
2.611
4.436
4.909
4.241
2.486
-0.371
-4.048
-8.389
-13.053
-17.384
-20.93
-23.353
-23.987
-22.546
-19.23
-14.376
-9.035
-4.476
-1.489
-1.125
-4.904
-12.046
-19.598
-25.283
-25.639
-21.055
-17.004
-12.846
-4.388
17.213
67.186
150.46
263.602
398.195
538.023
672.237
790.41
880.234
933.567
938.83
892.293
798.409
662.173
499.61
327.719
163.859
31.329
-57.722
-100.69
-103.24
-82.997
-53.732
-24.65
-2.93
11.168
15.89
10.947
1.201
-10.575
-20.604
-26.806
-31.931
-36.836
-41.453
-45.498
-46.911
-45.068
-40.804
-34.954
-28.633
-22.784
-17.928
-14.365
-12.272
-11.61
-12.146
-13.698
-16.113
-19.187
-22.753
-26.66
-30.731
-34.828
-38.811
-42.498
-45.741
-48.438
-50.512
-51.936
-52.698
-52.787
-52.229
-51.065
-49.337
-47.094
-44.372
-41.204
-37.645
-33.758
-29.614
-25.294
-20.851
-16.323
-11.735
-7.101
-2.424
2.294
7.07
11.928
16.881
21.94
27.111
32.395
37.798
43.33
48.998
54.809
60.764
66.862
73.1
79.471
85.965
92.569
99.265
106.032
112.85
119.702
126.568
133.428
140.261
147.044
153.756
160.371
166.866
173.214
179.385
185.353
191.086
196.558
201.737
206.596
211.106
215.238
218.966
222.264
225.106
227.469
229.332
230.674
231.478
231.73
231.417
230.528
229.057
227.001
224.357
221.129
217.321
212.941
207.999
202.508
196.485
189.949
182.92
175.423
167.484
159.131
150.397
141.313
131.914
122.238
112.321
102.203
91.923
81.52
71.036
60.51
49.984
39.496
29.085
18.789
8.645
-1.313
-11.052
-20.541
-29.753
-38.66
-47.239
-55.47
-63.332
-70.81
-77.891
-84.562
-90.816
-96.648
-102.052
-107.029
-111.579
-115.708
-119.42
-122.724
-125.631
-128.152
-130.301
-132.093
-133.546
-134.677
-135.505
-136.05
-136.333
-136.375
-136.198
-135.822
-135.269
-134.56
-133.714
-132.75
-131.688
-130.544
-129.334
-128.075
-126.779
-125.461
-124.131
-122.801
-121.481
-120.177
-118.898
-117.649
-116.436
-115.261
-114.128
-113.039
-111.995
-110.997
-110.043
-109.133
-108.266
-107.439
-106.649
-105.893
-105.169
-104.472
-103.799
-103.147
-102.513
-101.895
-101.291
-100.698
-100.117
-99.548
-98.99
-98.445
-97.914
-97.401
-96.907
-96.436
-95.992
-95.58
-95.204
-94.868
-94.579
-94.342
-94.162
-94.044
-93.993
-94.016
-94.116
-94.299
-94.569
-94.931
-95.387
-95.943
-96.602
-97.364
-98.234
-99.211
-100.297
-101.491
-102.791
-104.195
-105.701
-107.302
-108.994
-110.771
-112.624
-114.545
-116.524
-118.551
-120.615
-122.705
-124.809
-126.915
-129.008
-131.077
-133.109
-135.09
-137.008
-138.849
-140.601
-142.251
-143.788
-145.201
-146.477
-147.608
-148.582
-149.391
-150.027
-150.484
-150.755
-150.834
-150.719
-150.407
-149.898
-149.193
-148.296
-147.21
-145.945
-144.512
-142.921
-141.187
-139.323
-137.344
-135.269
-133.112
-130.889
-128.616
-126.308
-123.983
-121.661
-119.363
-117.109
-114.917
-112.806
-110.795
-108.902
-107.143
-105.526
-104.06
-102.755
-101.629
-100.709
-100.02
-99.574
-99.379
-99.441
-99.755
-100.313
-101.093
-102.049
-103.138
-104.319
-105.556
-106.838
-108.14
-109.422
-110.634
-111.71
-112.592
-113.259
-113.685
-113.845
-113.749
-113.428
-112.958
-112.473
-112.083
-111.868
-111.919
-112.304
-113.12
-114.498
-116.528
-119.31
-122.976
-127.546
-132.959
-139.04
-145.363
-151.419
-156.743
-160.788
-162.989
-163.001
-160.754
-156.66
-151.654
-146.848
-143.125
-141.054
-141.328
-144.553
-150.605
-158.338
-164.674
-164.958
-155.345
-133.834
-101.509
-61.064
-14.306
38.65
103.405
185.762
288.66
414.118
552.545
688.045
804.15
877.148
890.533
839.746
724.894
561.812
376.077
189.906
29.391
-86.606
-155.995
-182.469
-180.924
-171.664
-163.323
-158.545
-154.58
-143.825
-126.049
-105.997
-87.838
-75.875
-71.319
-72.552
-78.162
-86.988
-97.152
-106.431
-113.608
-118.3
-120.615
-121.211
-120.42
-118.038
-114.632
-111.421
-109.1
-108.048
-108.323
-109.537
-111.563
-114.598
-118.495
-122.804
-127.181
-131.269
-134.832
-137.894
-140.407
-142.244
-143.378
-143.814
-143.573
-142.736
-141.371
-139.493
-137.137
-134.338
-131.128
-127.578
-123.76
-119.746
-115.616
-111.424
-107.206
-102.994
-98.808
-94.662
-90.564
-86.504
-82.462
-78.425
-74.385
-70.34
-66.286
-62.211
-58.098
-53.932
-49.699
-45.391
-41.001
-36.522
-31.946
-27.271
-22.496
-17.623
-12.657
-7.602
-2.458
2.771
8.083
13.473
18.934
24.458
30.039
35.667
41.331
47.015
52.707
58.388
64.043
69.654
75.201
80.664
86.023
91.257
96.345
101.266
105.998
110.519
114.81
118.849
122.618
126.099
129.273
132.125
134.64
136.805
138.61
140.045
141.101
141.774
142.06
141.957
141.465
140.586
139.326
137.689
135.684
133.323
130.617
127.58
124.229
120.58
116.654
112.469
108.047
103.41
98.581
93.583
88.44
83.175
77.812
72.376
66.89
61.376
55.858
50.358
44.895
39.491
34.163
28.93
23.808
18.811
13.954
9.249
4.708
0.339
-3.847
-7.845
-11.648
-15.251
-18.651
-21.845
-24.834
-27.616
-30.192
-32.564
-34.735
-36.708
-38.486
-40.073
-41.474
-42.694
-43.737
-44.609
-45.314
-45.86
-46.249
-46.488
-46.58
-46.532
-46.346
-46.027
-45.578
-45.002
-44.303
-43.483
-42.544
-41.489
-40.32
-39.039
-37.649
-36.149
-34.543
-32.833
-31.019
-29.104
-27.089
-24.978
-22.772
-20.475
-18.09
-15.62
-13.07
-10.444
-7.748
-4.986
-2.165
0.71
3.632
6.594
9.588
12.607
15.642
18.686
21.728
24.76
27.773
30.756
33.701
36.598
39.439
42.213
44.913
47.53
50.054
52.48
54.799
57.004
59.09
61.05
62.881
64.578
66.139
67.563
68.847
69.992
71
71.871
72.609
73.215
73.694
74.051
74.29
74.418
74.441
74.367
74.204
73.96
73.645
73.268
72.84
72.37
71.869
71.346
70.812
70.277
69.751
69.243
68.765
68.323
67.928
67.588
67.31
67.099
66.96
66.898
66.916
67.014
67.195
67.457
67.8
68.221
68.718
69.287
69.924
70.621
71.374
72.173
73.011
73.875
74.753
75.63
76.492
77.323
78.107
78.829
79.471
80.02
80.464
80.791
80.991
81.05
80.954
80.692
80.254
79.631
78.816
77.804
76.59
75.176
73.571
71.784
69.818
67.671
65.331
62.79
60.046
57.101
53.963
50.645
47.165
43.555
39.871
36.162
32.479
28.863
25.338
21.944
18.727
15.744
13.069
10.768
8.891
7.479
6.553
6.101
6.089
6.454
7.101
7.934
8.832
9.682
10.4
10.897
11.116
10.938
10.116
8.503
6.11
3.067
-0.267
-3.491
-6.354
-8.393
-8.814
-7.165
-3.466
1.92
7.934
13.304
17.178
18.395
15.134
7.823
-0.673
-7.955
-10.32
-8.25
-8.11
-10.179
-10.752
0.079
40.622
118.628
232.962
375.699
527.77
675.324
805.01
901.614
957.134
961.443
912.236
816.827
681.817
521.839
351.871
185.831
43.422
-62.328
-126.279
-150.051
-145.189
-123.714
-93.494
-61.756
-34.661
-17.006
-13.02
-21.793
-35.96
-48.723
-56.115
-57.838
-58.278
-60.339
-63.622
-66.901
-68.1
-66.427
-62.913
-58.613
-54.379
-50.877
-48.51
-47.503
-47.961
-49.777
-52.657
-56.363
-60.732
-65.595
-70.776
-76.102
-81.391
-86.473
-91.214
-95.504
-99.255
-102.409
-104.937
-106.825
-108.079
-108.736
-108.85
-108.472
-107.655
-106.442
-104.874
-103.008
-100.909
-98.648
-96.296
-93.904
-91.5
-89.107
-86.738
-84.393
-82.07
-79.749
-77.402
-75.01
-72.557
-70.033
-67.43
-64.733
-61.925
-58.994
-55.926
-52.712
-49.344
-45.817
-42.127
-38.273
-34.258
-30.088
-25.772
-21.315
-16.724
-12.007
-7.171
-2.226
2.817
7.946
13.149
18.409
23.71
29.032
34.353
39.652
44.907
50.094
55.188
60.164
64.996
69.661
74.131
78.384
82.393
86.135
89.587
92.728
95.537
97.994
100.083
101.786
103.089
103.981
104.451
104.491
104.096
103.26
101.984
100.268
98.116
95.533
92.529
89.113
85.301
81.107
76.55
71.652
66.435
60.924
55.146
49.127
42.899
36.49
29.932
23.255
16.493
9.677
2.837
-3.993
-10.783
-17.504
-24.125
-30.618
-36.956
-43.114
-49.066
-54.79
-60.264
-65.47
-70.39
-75.009
-79.313
-83.291
-86.934
-90.236
-93.193
-95.802
-98.064
-99.981
-101.559
-102.805
-103.728
-104.339
-104.65
-104.676
-104.433
-103.936
-103.204
-102.256
-101.111
-99.788
-98.309
-96.692
-94.96
-93.132
-91.23
-89.273
-87.281
-85.275
-83.272
-81.291
-79.35
-77.464
-75.65
-73.921
-72.291
-70.772
-69.373
-68.104
-66.973
-65.984
-65.142
-64.451
-63.91
-63.52
-63.28
-63.186
-63.233
-63.418
-63.733
-64.172
-64.727
-65.388
-66.147
-66.994
-67.918
-68.909
-69.956
-71.047
-72.172
-73.318
-74.473
-75.628
-76.769
-77.885
-78.966
-80.001
-80.979
-81.892
-82.73
-83.485
-84.149
-84.717
-85.183
-85.542
-85.791
-85.926
-85.947
-85.851
-85.639
-85.312
-84.872
-84.319
-83.658
-82.892
-82.025
-81.061
-80.004
-78.861
-77.635
-76.333
-74.961
-73.523
-72.025
-70.472
-68.872
-67.229
-65.549
-63.839
-62.103
-60.345
-58.572
-56.787
-54.995
-53.198
-51.399
-49.601
-47.806
-46.017
-44.233
-42.456
-40.687
-38.924
-37.169
-35.422
-33.682
-31.948
-30.218
-28.495
-26.777
-25.065
-23.36
-21.664
-19.979
-18.311
-16.665
-15.048
-13.465
-11.923
-10.431
-8.995
-7.623
-6.32
-5.09
-3.938
-2.872
-1.9
-1.033
-0.278
0.357
0.865
1.236
1.461
1.536
1.464
1.245
0.876
0.351
-0.353
-1.249
-2.342
-3.635
-5.127
-6.809
-8.669
-10.676
-12.779
-14.93
-17.081
-19.198
-21.263
-23.246
-25.105
-26.79
-28.237
-29.401
-30.261
-30.783
-30.944
-30.765
-30.291
-29.616
-28.889
-28.208
-27.662
-27.362
-27.395
-27.869
-28.896
-30.526
-32.829
-35.953
-39.956
-44.787
-50.256
-55.909
-61.259
-65.937
-69.452
-71.157
-70.628
-67.792
-63.076
-57.503
-52.015
-47.277
-44.088
-43.467
-46.258
-51.147
-54.667
-53.505
-44.336
-28.277
-10.612
9.149
33.435
68.341
127.088
212.821
322.903
454.018
591.493
721.941
833.629
906.499
926.031
885.985
784.567
635.987
463.915
289.097
134.877
17.214
-62.026
-104.848
-122.646
-131.083
-135.824
-138.467
-136.637
-124.378
-103.269
-79.037
-56.147
-39.269
-30.076
-27.707
-31.7
-40.934
-52.85
-64.612
-74.454
-81.492
-85.662
-87.285
-86.221
-82.53
-77.226
-71.82
-67.38
-64.427
-62.998
-62.89
-64.191
-66.977
-70.978
-75.666
-80.551
-85.314
-89.789
-93.922
-97.6
-100.684
-103.116
-104.911
-106.111
-106.751
-106.858
-106.44
-105.514
-104.123
-102.309
-100.119
-97.612
-94.846
-91.888
-88.804
-85.64
-82.427
-79.191
-75.945
-72.694
-69.436
-66.156
-62.833
-59.455
-56.01
-52.49
-48.885
-45.18
-41.36
-37.413
-33.332
-29.11
-24.743
-20.229
-15.565
-10.758
-5.814
-0.742
4.447
9.743
15.137
20.616
26.169
31.784
37.445
43.139
48.85
54.562
60.255
65.909
71.504
77.017
82.426
87.709
92.841
97.801
102.563
107.106
111.406
115.442
119.191
122.634
125.752
128.526
130.941
132.982
134.637
135.893
136.744
137.181
137.201
136.801
135.98
134.74
133.085
131.02
128.554
125.695
122.456
118.85
114.891
110.599
105.992
101.09
95.916
90.494
84.848
79.004
72.989
66.83
60.555
54.19
47.765
41.306
34.84
28.395
21.995
15.666
9.432
3.314
-2.665
-8.486
-14.132
-19.584
-24.829
-29.852
-34.643
-39.19
-43.485
-47.522
-51.295
-54.799
-58.034
-60.998
-63.693
-66.119
-68.283
-70.188
-71.842
-73.251
-74.426
-75.376
-76.111
-76.644
-76.984
-77.146
-77.14
-76.98
-76.678
-76.247
-75.7
-75.048
-74.302
-73.476
-72.578
-71.619
-70.609
-69.555
-68.467
-67.351
-66.215
-65.063
-63.902
-62.737
-61.571
-60.409
-59.252
-58.105
-56.967
-55.84
-54.725
-53.622
-52.53
-51.449
-50.379
-49.318
-48.266
-47.223
-46.188
-45.159
-44.138
-43.122
-42.113
-41.111
-40.115
-39.128
-38.151
-37.185
-36.233
-35.299
-34.384
-33.494
-32.63
-31.798
-31.002
-30.245
-29.533
-28.87
-28.26
-27.709
-27.221
-26.802
-26.455
-26.184
-25.995
-25.889
-25.869
-25.939
-26.098
-26.348
-26.689
-27.12
-27.641
-28.249
-28.944
-29.72
-30.574
-31.501
-32.496
-33.552
-34.662
-35.816
-37.006
-38.224
-39.459
-40.702
-41.944
-43.172
-44.377
-45.548
-46.674
-47.745
-48.749
-49.675
-50.513
-51.255
-51.891
-52.414
-52.816
-53.093
-53.238
-53.249
-53.123
-52.859
-52.456
-51.913
-51.232
-50.418
-49.473
-48.404
-47.218
-45.923
-44.534
-43.063
-41.526
-39.936
-38.311
-36.667
-35.021
-33.391
-31.789
-30.228
-28.723
-27.29
-25.948
-24.713
-23.599
-22.621
-21.792
-21.123
-20.629
-20.312
-20.171
-20.206
-20.419
-20.82
-21.429
-22.26
-23.318
-24.607
-26.123
-27.859
-29.804
-31.929
-34.184
-36.52
-38.895
-41.272
-43.636
-45.954
-48.179
-50.256
-52.115
-53.701
-54.979
-55.909
-56.468
-56.665
-56.529
-56.126
-55.554
-54.898
-54.256
-53.731
-53.391
-53.316
-53.576
-54.274
-55.633
-57.785
-60.697
-64.24
-68.093
-71.874
-75.337
-78.067
-79.332
-78.668
-76.1
-71.986
-67.287
-63.177
-60.417
-59.889
-63.096
-69.883
-77.821
-84.687
-87.474
-86.266
-85.861
-86.662
-84.391
-69.415
-27.724
45.999
147.543
266.483
389.148
508.373
620.211
718.347
794.232
832.997
821.071
754.856
637.895
484.608
316.737
154.513
18.593
-77.705
-132.273
-149.528
-142.588
-123.865
-101.47
-82.693
-68.989
-62.235
-63.582
-68.666
-74.73
-78.788
-79.478
-80.13
-82.554
-86.939
-92.149
-95.45
-95.673
-93.134
-88.613
-83.194
-77.517
-72.012
-67.271
-63.677
-61.379
-60.323
-60.252
-60.978
-62.363
-64.255
-66.498
-68.903
-71.314
-73.599
-75.618
-77.255
-78.424
-79.057
-79.123
-78.618
-77.54
-75.912
-73.791
-71.226
-68.269
-64.97
-61.36
-57.49
-53.425
-49.233
-44.99
-40.754
-36.558
-32.429
-28.384
-24.429
-20.566
-16.781
-13.046
-9.341
-5.65
-1.959
1.739
5.459
9.219
13.038
16.933
20.917
25.002
29.197
33.512
37.952
42.52
47.214
52.029
56.96
62.006
67.162
72.423
77.782
83.23
88.759
94.358
100.016
105.717
111.444
117.181
122.907
128.603
134.248
139.818
145.291
150.642
155.848
160.884
165.724
170.344
174.717
178.821
182.63
186.122
189.275
192.068
194.484
196.504
198.114
199.302
200.057
200.369
200.235
199.648
198.609
197.118
195.177
192.794
189.974
186.728
183.07
179.013
174.574
169.773
164.628
159.162
153.399
147.364
141.083
134.585
127.897
121.049
114.072
106.996
99.852
92.671
85.484
78.32
71.208
64.178
57.256
50.468
43.839
37.392
31.148
25.127
19.347
13.823
8.571
3.602
-1.074
-5.448
-9.514
-13.266
-16.703
-19.824
-22.629
-25.12
-27.302
-29.181
-30.765
-32.063
-33.086
-33.846
-34.356
-34.631
-34.687
-34.54
-34.208
-33.708
-33.058
-32.278
-31.385
-30.398
-29.335
-28.215
-27.054
-25.871
-24.68
-23.498
-22.338
-21.214
-20.139
-19.124
-18.179
-17.315
-16.54
-15.861
-15.285
-14.817
-14.461
-14.221
-14.097
-14.092
-14.203
-14.431
-14.771
-15.221
-15.777
-16.432
-17.181
-18.016
-18.929
-19.912
-20.956
-22.052
-23.189
-24.359
-25.551
-26.756
-27.965
-29.169
-30.359
-31.528
-32.668
-33.772
-34.834
-35.848
-36.808
-37.711
-38.553
-39.33
-40.04
-40.681
-41.251
-41.751
-42.181
-42.541
-42.832
-43.057
-43.218
-43.318
-43.362
-43.354
-43.299
-43.202
-43.07
-42.908
-42.721
-42.516
-42.299
-42.074
-41.847
-41.623
-41.406
-41.2
-41.007
-40.83
-40.67
-40.529
-40.405
-40.299
-40.208
-40.131
-40.066
-40.009
-39.958
-39.908
-39.856
-39.798
-39.73
-39.647
-39.544
-39.417
-39.262
-39.074
-38.848
-38.581
-38.269
-37.911
-37.507
-37.055
-36.559
-36.018
-35.439
-34.824
-34.179
-33.511
-32.825
-32.127
-31.426
-30.731
-30.055
-29.409
-28.809
-28.267
-27.801
-27.423
-27.151
-26.995
-26.965
-27.069
-27.317
-27.72
-28.301
-29.077
-30.062
-31.269
-32.707
-34.382
-36.29
-38.416
-40.731
-43.201
-45.797
-48.489
-51.265
-54.101
-56.971
-59.84
-62.656
-65.373
-67.957
-70.375
-72.59
-74.592
-76.395
-78.052
-79.677
-81.371
-83.207
-85.262
-87.608
-90.327
-93.522
-97.269
-101.611
-106.638
-112.501
-119.289
-126.991
-135.433
-144.232
-152.957
-161.193
-168.384
-173.804
-176.878
-177.451
-175.802
-172.59
-168.761
-165.201
-162.947
-163.747
-167.795
-172.832
-176.558
-176.218
-172.608
-171.559
-174.549
-177.714
-169.87
-133.161
-58.695
51.988
188.552
333.292
474.715
606.295
720.739
810.777
863.877
866.504
813.949
709.27
564.661
399.142
230.588
76.777
-48.579
-137.973
-188.565
-206.778
-202.32
-185.076
-165.744
-148.329
-134.806
-127.006
-121.865
-118.706
-117.299
-115.762
-116.431
-120.07
-125.452
-132.2
-137.561
-139.643
-138.688
-134.882
-129.125
-122.528
-115.622
-109.033
-103.522
-99.426
-96.808
-95.596
-95.536
-96.392
-98.011
-100.196
-102.715
-105.416
-108.164
-110.826
-113.295
-115.428
-117.104
-118.258
-118.849
-118.861
-118.297
-117.174
-115.529
-113.425
-110.918
-108.059
-104.898
-101.475
-97.847
-94.079
-90.237
-86.388
-82.579
-78.839
-75.187
-71.633
-68.176
-64.808
-61.509
-58.253
-55.018
-51.79
-48.555
-45.304
-42.02
-38.689
-35.294
-31.821
-28.261
-24.604
-20.844
-16.976
-13.002
-8.921
-4.741
-0.468
3.89
8.328
12.837
17.409
22.036
26.707
31.41
36.134
40.863
45.582
50.274
54.92
59.501
63.997
68.388
72.653
76.771
80.722
84.484
88.037
91.361
94.437
97.246
99.772
101.999
103.913
105.501
106.752
107.659
108.213
108.411
108.248
107.725
106.842
105.602
104.011
102.073
99.799
97.199
94.283
91.065
87.562
83.789
79.763
75.506
71.035
66.374
61.543
56.565
51.464
46.262
40.984
35.652
30.289
24.919
19.564
14.246
8.985
3.801
-1.287
-6.261
-11.105
-15.804
-20.342
-24.708
-28.891
-32.879
-36.663
-40.238
-43.595
-46.731
-49.64
-52.321
-54.771
-56.991
-58.98
-60.741
-62.275
-63.585
-64.677
-65.554
-66.223
-66.688
-66.959
-67.04
-66.942
-66.67
-66.234
-65.643
-64.904
-64.027
-63.02
-61.893
-60.654
-59.311
-57.874
-56.349
-54.747
-53.073
-51.337
-49.545
-47.704
-45.82
-43.901
-41.953
-39.98
-37.99
-35.986
-33.975
-31.96
-29.948
-27.941
-25.945
-23.963
-21.999
-20.057
-18.14
-16.252
-14.395
-12.572
-10.786
-9.039
-7.334
-5.672
-4.057
-2.488
-0.969
0.498
1.913
3.273
4.578
5.825
7.014
8.143
9.209
10.213
11.152
12.025
12.83
13.567
14.234
14.83
15.355
15.809
16.192
16.505
16.748
16.923
17.031
17.074
17.055
16.976
16.84
16.65
16.41
16.125
15.799
15.437
15.045
14.628
14.194
13.749
13.299
12.852
12.415
11.995
11.602
11.243
10.926
10.662
10.458
10.324
10.269
10.301
10.428
10.655
10.991
11.442
12.011
12.704
13.522
14.468
15.544
16.751
18.087
19.55
21.137
22.843
24.662
26.587
28.605
30.705
32.874
35.097
37.359
39.644
41.935
44.216
46.471
48.687
50.847
52.935
54.93
56.814
58.567
60.172
61.612
62.873
63.936
64.792
65.438
65.871
66.087
66.075
65.816
65.292
64.496
63.425
62.075
60.456
58.581
56.476
54.189
51.769
49.261
46.706
44.128
41.552
39.024
36.599
34.342
32.318
30.564
29.118
28.021
27.276
26.859
26.707
26.704
26.762
26.811
26.757
26.501
25.944
24.965
23.483
21.411
18.55
14.801
10.214
4.977
-0.455
-5.57
-10.013
-13.342
-14.893
-14.255
-11.446
-6.995
-2.145
1.905
4.402
4.603
1.544
-5.576
-15.473
-24.677
-29.383
-25.512
-13.186
3.251
24.179
51.663
91.036
154.155
244.274
359.405
496.011
639.608
775.597
889.08
960.397
978.725
942.302
856.998
738.45
600.067
450.102
296.131
144.882
9.538
-94.559
-159.773
-185.238
-181.799
-163.662
-137.941
-111.277
-84.52
-57.236
-35.016
-18.195
-7.364
-4.069
-5.463
-12.609
-26.124
-43.811
-64.213
-83.953
-100.202
-112.003
-118.809
-120.921
-119.106
-114.214
-107.595
-100.792
-94.821
-90.357
-87.704
-86.802
-87.532
-89.631
-92.612
-95.872
-98.968
-101.601
-103.59
-104.91
-105.531
-105.422
-104.616
-103.169
-101.122
-98.506
-95.344
-91.641
-87.42
-82.729
-77.616
-72.156
-66.424
-60.493
-54.439
-48.322
-42.185
-36.063
-29.983
-23.962
-18.013
-12.137
-6.329
-0.585
5.096
10.715
16.278
21.792
27.27
32.72
38.149
43.562
48.962
54.352
59.734
65.107
70.469
75.813
81.135
86.43
91.692
96.918
102.1
107.234
112.31
117.322
122.261
127.117
131.878
136.531
141.062
145.456
149.698
153.77
157.656
161.339
164.801
168.026
170.995
173.692
176.1
178.203
179.983
181.428
182.522
183.253
183.609
183.579
183.156
182.332
181.103
179.465
177.417
174.959
172.096
168.831
165.172
161.128
156.711
151.933
146.812
141.365
135.612
129.575
123.277
116.743
109.999
103.072
95.99
88.782
81.477
74.106
66.699
59.286
51.9
44.569
37.325
30.198
23.216
16.408
9.802
3.422
-2.705
-8.558
-14.114
-19.353
-24.26
-28.817
-33.012
-36.834
-40.275
-43.328
-45.991
-48.261
-50.14
-51.632
-52.741
-53.476
-53.847
-53.865
-53.543
-52.898
-51.946
-50.706
-49.2
-47.449
-45.477
-43.307
-40.968
-38.484
-35.884
-33.197
-30.452
-27.677
-24.904
-22.161
-19.479
-16.885
-14.408
-12.076
-9.915
-7.95
-6.204
-4.7
-3.457
-2.495
-1.83
-1.477
-1.45
-1.759
-2.415
-3.423
-4.79
-6.519
-8.611
-11.066
-13.879
-17.047
-20.563
-24.417
-28.598
-33.095
-37.892
-42.972
-48.318
-53.909
-59.725
-65.743
-71.938
-78.287
-84.763
-91.341
-97.994
-104.696
-111.422
-118.144
-124.838
-131.478
-138.04
-144.499
-150.834
-157.022
-163.042
-168.874
-174.499
-179.9
-185.061
-189.967
-194.604
-198.961
-203.027
-206.793
-210.25
-213.393
-216.217
-218.718
-220.895
-222.746
-224.275
-225.482
-226.372
-226.951
-227.225
-227.2
-226.886
-226.291
-225.425
-224.297
-222.918
-221.298
-219.448
-217.381
-215.106
-212.638
-209.986
-207.163
-204.18
-201.051
-197.786
-194.398
-190.899
-187.301
-183.616
-179.858
-176.038
-172.171
-168.27
-164.35
-160.427
-156.516
-152.633
-148.794
-145.014
-141.309
-137.694
-134.181
-130.784
-127.515
-124.386
-121.411
-118.602
-115.975
-113.542
-111.316
-109.306
-107.523
-105.975
-104.665
-103.595
-102.766
-102.185
-101.863
-101.813
-102.043
-102.556
-103.352
-104.425
-105.762
-107.337
-109.112
-111.047
-113.098
-115.232
-117.42
-119.631
-121.831
-123.971
-125.986
-127.823
-129.431
-130.773
-131.818
-132.544
-132.967
-133.145
-133.179
-133.167
-133.178
-133.264
-133.501
-133.992
-134.852
-136.203
-138.113
-140.656
-144.013
-148.262
-153.347
-159.038
-164.802
-170.068
-174.422
-177.389
-178.362
-177.01
-173.302
-167.758
-161.629
-156.004
-151.748
-149.767
-150.886
-155.804
-163.374
-170.091
-172.312
-166.326
-152.007
-133.393
-110.154
-79.908
-36.552
31.906
128.639
251.258
393.975
542.085
684.026
808.077
898.844
944.316
933.835
864.128
742.418
583.385
406.873
231.902
75.875
-48.363
-134.747
-182.05
-196.057
-186.117
-159.665
-124.601
-88.482
-56.392
-34.552
-24.666
-21.763
-21.846
-20.613
-17.553
-17.299
-21.565
-30.155
-40.966
-50.033
-55.843
-58.252
-57.084
-53.013
-46.694
-38.894
-31.113
-24.366
-18.955
-15.082
-12.834
-12.187
-13.121
-15.355
-18.267
-21.418
-24.579
-27.55
-30.23
-32.513
-34.263
-35.444
-36.11
-36.287
-35.989
-35.237
-34.027
-32.384
-30.357
-27.985
-25.315
-22.403
-19.304
-16.086
-12.816
-9.541
-6.292
-3.09
0.055
3.141
6.173
9.167
12.148
15.135
18.145
21.194
24.298
27.476
30.749
34.133
37.641
41.286
45.076
49.018
53.118
57.376
61.79
66.353
71.06
75.903
80.875
85.967
91.169
96.47
101.857
107.316
112.832
118.39
123.968
129.547
135.105
140.618
146.063
151.416
156.651
161.742
166.665
171.394
175.904
180.171
184.171
187.883
191.284
194.355
197.079
199.438
201.419
203.008
204.196
204.974
205.337
205.279
204.8
203.899
202.58
200.848
198.71
196.175
193.254
189.96
186.308
182.317
178.004
173.391
168.498
163.35
157.971
152.384
146.617
140.693
134.64
128.481
122.243
115.95
109.626
103.294
96.977
90.694
84.465
78.309
72.242
66.28
60.435
54.721
49.146
43.72
38.45
33.341
28.397
23.62
19.011
14.569
10.293
6.177
2.219
-1.589
-5.252
-8.78
-12.18
-15.461
-18.635
-21.709
-24.695
-27.602
-30.44
-33.218
-35.946
-38.632
-41.284
-43.908
-46.512
-49.101
-51.68
-54.252
-56.82
-59.387
-61.952
-64.515
-67.077
-69.635
-72.186
-74.728
-77.256
-79.765
-82.251
-84.708
-87.128
-89.506
-91.833
-94.104
-96.31
-98.444
-100.498
-102.467
-104.344
-106.122
-107.796
-109.362
-110.815
-112.152
-113.372
-114.471
-115.451
-116.31
-117.051
-117.677
-118.191
-118.597
-118.9
-119.107
-119.224
-119.26
-119.221
-119.117
-118.958
-118.752
-118.511
-118.244
-117.962
-117.677
-117.398
-117.136
-116.901
-116.703
-116.552
-116.455
-116.421
-116.457
-116.57
-116.765
-117.047
-117.419
-117.885
-118.445
-119.099
-119.847
-120.686
-121.613
-122.621
-123.707
-124.862
-126.079
-127.35
-128.665
-130.013
-131.384
-132.766
-134.146
-135.513
-136.852
-138.15
-139.394
-140.571
-141.67
-142.678
-143.583
-144.374
-145.041
-145.577
-145.974
-146.223
-146.32
-146.258
-146.036
-145.652
-145.106
-144.398
-143.532
-142.513
-141.349
-140.05
-138.629
-137.096
-135.465
-133.753
-131.975
-130.148
-128.286
-126.402
-124.513
-122.635
-120.788
-118.991
-117.262
-115.618
-114.076
-112.653
-111.366
-110.225
-109.235
-108.399
-107.723
-107.217
-106.905
-106.802
-106.918
-107.261
-107.836
-108.636
-109.653
-110.862
-112.218
-113.679
-115.205
-116.758
-118.324
-119.869
-121.354
-122.737
-123.956
-124.957
-125.703
-126.145
-126.248
-126.031
-125.523
-124.797
-123.963
-123.086
-122.25
-121.555
-121.062
-120.857
-121.015
-121.556
-122.604
-124.363
-126.883
-130.17
-134.086
-138.16
-141.962
-145.138
-147.044
-147.005
-144.757
-140.178
-133.584
-126.255
-119.501
-114.351
-112.434
-114.158
-117.537
-120.878
-122.203
-120.965
-121.266
-125.224
-129.34
-125.261
-98.613
-37.55
58.831
183.778
324.475
466.317
599.703
714.599
799.5
843.009
833.312
766.801
647.89
489.256
313.016
141.058
-3.794
-104.943
-161.5
-178.921
-171.462
-154.744
-131.825
-105.927
-79.343
-52.03
-32.671
-24.67
-23.76
-27.7
-30.277
-28.434
-25.883
-23.541
-21.604
-19.976
-16.218
-9.606
-1.066
8.663
18.601
27.874
36.007
42.706
47.77
51.277
53.525
54.744
55.116
54.845
54.108
53.075
51.93
50.837
49.921
49.295
49.048
49.238
49.901
51.057
52.706
54.819
57.354
60.264
63.501
67.026
70.806
74.789
78.919
83.129
87.352
91.541
95.673
99.726
103.695
107.579
111.386
115.136
118.861
122.584
126.322
130.09
133.896
137.757
141.691
145.712
149.836
154.073
158.427
162.905
167.51
172.239
177.088
182.047
187.105
192.251
197.475
202.766
208.113
213.502
218.918
224.346
229.77
235.171
240.529
245.823
251.029
256.125
261.087
265.892
270.513
274.928
279.111
283.04
286.689
290.037
293.062
295.741
298.057
299.991
301.527
302.651
303.351
303.618
303.444
302.824
301.756
300.239
298.277
295.871
293.031
289.764
286.081
281.996
277.524
272.682
267.489
261.965
256.135
250.021
243.648
237.044
230.235
223.25
216.117
208.866
201.526
194.126
186.695
179.263
171.858
164.506
157.235
150.068
143.03
136.142
129.424
122.894
116.57
110.465
104.593
98.965
93.589
88.472
83.62
79.036
74.722
70.677
66.9
63.388
60.136
57.139
54.389
51.879
49.599
47.539
45.687
44.032
42.56
41.257
40.111
39.106
38.227
37.461
36.793
36.209
35.694
35.236
34.822
34.439
34.077
33.723
33.369
33.006
32.625
32.219
31.782
31.308
30.793
30.232
29.622
28.96
28.245
27.474
26.647
25.763
24.821
23.823
22.769
21.66
20.498
19.286
18.026
16.72
15.373
13.987
12.566
11.113
9.632
8.126
6.598
5.052
3.49
1.914
0.328
-1.267
-2.869
-4.477
-6.089
-7.705
-9.324
-10.946
-12.571
-14.197
-15.826
-17.458
-19.091
-20.726
-22.362
-23.999
-25.636
-27.274
-28.912
-30.548
-32.183
-33.817
-35.448
-37.077
-38.702
-40.323
-41.939
-43.548
-45.149
-46.741
-48.321
-49.885
-51.432
-52.958
-54.459
-55.932
-57.373
-58.777
-60.14
-61.457
-62.723
-63.933
-65.083
-66.168
-67.182
-68.123
-68.986
-69.768
-70.466
-71.076
-71.597
-72.028
-72.366
-72.612
-72.764
-72.822
-72.787
-72.66
-72.444
-72.142
-71.756
-71.294
-70.764
-70.175
-69.537
-68.862
-68.16
-67.445
-66.731
-66.028
-65.348
-64.701
-64.098
-63.551
-63.076
-62.687
-62.396
-62.215
-62.155
-62.229
-62.45
-62.825
-63.354
-64.042
-64.894
-65.925
-67.161
-68.617
-70.304
-72.231
-74.4
-76.81
-79.458
-82.321
-85.36
-88.536
-91.808
-95.15
-98.545
-101.961
-105.355
-108.674
-111.85
-114.839
-117.616
-120.152
-122.431
-124.468
-126.298
-127.996
-129.671
-131.417
-133.332
-135.523
-138.1
-141.182
-144.863
-149.27
-154.581
-160.885
-168.174
-176.281
-184.806
-193.336
-201.546
-208.975
-215.023
-219.269
-221.551
-222.28
-222.509
-223.201
-224.924
-228.413
-234.649
-244.169
-256.997
-271.059
-281.996
-287.157
-285.134
-275.618
-260.441
-235.998
-196.178
-138.469
-59.153
37.56
142.373
253.226
363.998
468.18
560.588
622.935
637.784
596.865
495.726
347.581
177.554
7.002
-140.025
-248.181
-318.916
-355.423
-368.178
-370.489
-363.149
-348.249
-329.101
-305.421
-285.502
-274.585
-269.495
-268.443
-266.641
-261.883
-258.322
-258.29
-262.253
-268.55
-273.793
-276.634
-277.184
-275.982
-273.635
-269.97
-265.264
-260.69
-257.018
-254.635
-253.604
-253.547
-254.353
-256.251
-259.132
-262.537
-266.076
-269.354
-272.117
-274.37
-276.047
-276.998
-277.165
-276.529
-275.092
-272.917
-270.056
-266.505
-262.283
-257.41
-251.906
-245.829
-239.244
-232.214
-224.809
-217.078
-209.05
-200.753
-192.205
-183.422
-174.411
-165.17
-155.68
-145.938
-135.946
-125.712
-115.246
-104.55
-93.623
-82.467
-71.091
-59.506
-47.73
-35.777
-23.666
-11.419
0.94
13.382
25.876
38.395
50.913
63.403
75.839
88.195
100.441
112.552
124.501
136.263
147.809
159.114
170.148
180.887
191.305
201.377
211.078
220.386
229.276
237.729
245.725
253.244
260.271
266.788
272.785
278.248
283.17
287.543
291.363
294.625
297.33
299.48
301.077
302.128
302.64
302.623
302.089
301.051
299.525
297.528
295.077
292.191
288.894
285.205
281.15
276.752
272.037
267.033
261.766
256.264
250.558
244.676
238.648
232.502
226.268
219.975
213.651
207.322
201.016
194.759
188.574
182.486
176.517
170.69
165.023
159.534
154.24
149.156
144.295
139.668
135.283
131.151
127.276
123.665
120.322
117.251
114.454
111.931
109.681
107.703
105.992
104.542
103.348
102.4
101.69
101.208
100.943
100.887
101.027
101.352
101.851
102.512
103.322
104.269
105.339
106.519
107.796
109.158
110.595
112.096
113.651
115.252
116.893
118.569
120.273
122
123.742
125.494
127.249
129
130.741
132.462
134.16
135.832
137.478
139.101
140.701
142.283
143.85
145.405
146.951
148.486
150.006
151.502
152.972
154.415
155.834
157.24
158.634
160.013
161.376
162.714
164.006
165.227
166.331
167.269
168.008
168.525
168.807
168.865
168.7
168.318
167.736
166.948
165.953
164.754
163.334
161.693
159.865
157.896
155.871
153.901
152.051
150.374
148.912
147.653
146.578
145.64
144.747
143.83
142.831
141.689
140.381
138.861
137.026
134.757
131.889
128.223
123.615
117.938
111.061
102.932
93.544
82.939
71.253
58.618
45.152
30.985
16.218
0.985
-14.514
-30.053
-45.372
-60.183
-74.245
-87.317
-99.143
-109.544
-118.394
-125.631
-131.287
-135.417
-138.07
-139.314
-139.222
-137.9
-135.512
-132.246
-128.317
-123.946
-119.327
-114.656
-110.147
-105.974
-102.271
-99.135
-96.596
-94.669
-93.375
-92.719
-92.694
-93.271
-94.387
-95.958
-97.89
-100.106
-102.549
-105.177
-107.938
-110.785
-113.687
-116.628
-119.613
-122.646
-125.708
-128.763
-131.781
-134.74
-137.636
-140.488
-143.305
-146.068
-148.744
-151.274
-153.61
-155.724
-157.584
-159.169
-160.48
-161.54
-162.417
-163.221
-164.063
-165.063
-166.347
-168.015
-170.168
-172.883
-176.255
-180.475
-185.665
-191.803
-198.733
-206.085
-213.454
-220.551
-226.976
-232.112
-235.504
-236.964
-236.808
-235.964
-235.286
-235.486
-237.299
-241.459
-248.716
-258.176
-266.831
-271.634
-269.313
-259.81
-247.033
-230.806
-208.918
-175.414
-118.797
-35.709
71.899
198.143
329.298
455.411
566.228
649.26
694.828
691.697
635.013
528.501
381.852
213.053
41.786
-113.55
-237.159
-319.941
-360.966
-365.558
-343.24
-307.148
-269.095
-239.911
-227.977
-234.173
-254.249
-279.027
-299.812
-313.752
-322.051
-329.657
-339.892
-352.168
-364.809
-375.337
-382.683
-387.629
-391.078
-393.863
-396.657
-399.862
-403.681
-408.212
-413.336
-418.776
-424.321
-429.811
-435.068
-439.886
-444.074
-447.453
-449.889
-451.317
-451.657
-450.833
-448.8
-445.528
-441.023
-435.317
-428.449
-420.461
-411.41
-401.36
-390.372
-378.524
-365.901
-352.592
-338.697
-324.304
-309.487
-294.316
-278.848
-263.136
-247.226
-231.154
-214.947
-198.634
-182.247
-165.818
-149.382
-132.969
-116.606
-100.316
-84.122
-68.047
-52.115
-36.35
-20.776
-5.414
9.712
24.58
39.164
53.444
67.402
81.024
94.299
107.213
119.756
131.92
143.699
155.084
166.07
176.651
186.819
196.569
205.897
214.799
223.27
231.306
238.904
246.061
252.774
259.04
264.858
270.223
275.134
279.589
283.587
287.126
290.208
292.832
295
296.713
297.977
298.793
299.167
299.104
298.611
297.694
296.362
294.623
292.488
289.969
287.078
283.829
280.237
276.32
272.094
267.577
262.79
257.752
252.485
247.01
241.349
235.525
229.562
223.483
217.314
211.078
204.799
198.503
192.212
185.95
179.741
173.607
167.568
161.647
155.864
150.237
144.785
139.525
134.472
129.641
125.046
120.696
116.603
112.773
109.215
105.933
102.931
100.211
97.775
95.622
93.752
92.16
90.843
89.797
89.014
88.487
88.209
88.169
88.357
88.762
89.372
90.175
91.157
92.305
93.604
95.038
96.594
98.254
100.004
101.827
103.707
105.63
107.579
109.54
111.498
113.44
115.351
117.217
119.026
120.765
122.42
123.979
125.43
126.759
127.956
129.008
129.902
130.629
131.177
131.534
131.692
131.638
131.365
130.863
130.125
129.142
127.908
126.417
124.664
122.644
120.354
117.791
114.952
111.836
108.441
104.767
100.812
96.579
92.068
87.281
82.222
76.895
71.305
65.46
59.367
53.037
46.481
39.711
32.741
25.587
18.265
10.795
3.196
-4.512
-12.308
-20.169
-28.072
-35.993
-43.909
-51.795
-59.626
-67.376
-75.02
-82.531
-89.885
-97.055
-104.015
-110.739
-117.202
-123.379
-129.244
-134.774
-139.946
-144.739
-149.132
-153.106
-156.645
-159.736
-162.367
-164.526
-166.207
-167.406
-168.121
-168.353
-168.106
-167.384
-166.196
-164.552
-162.465
-159.952
-157.028
-153.714
-150.033
-146.012
-141.68
-137.069
-132.21
-127.139
-121.89
-116.5
-111.006
-105.44
-99.838
-94.235
-88.668
-83.176
-77.796
-72.561
-67.505
-62.658
-58.051
-53.712
-49.661
-45.912
-42.479
-39.382
-36.644
-34.302
-32.38
-30.893
-29.852
-29.266
-29.134
-29.454
-30.202
-31.332
-32.797
-34.554
-36.564
-38.807
-41.237
-43.792
-46.398
-48.966
-51.421
-53.719
-55.816
-57.672
-59.278
-60.638
-61.783
-62.813
-63.83
-64.938
-66.254
-67.854
-69.825
-72.328
-75.578
-79.772
-84.966
-90.968
-97.436
-104.042
-110.446
-116.234
-120.83
-123.631
-124.431
-123.792
-122.72
-122.226
-123.43
-127.397
-134.972
-147.065
-162.932
-179.144
-193.179
-203.153
-207.787
-208.472
-201.515
-178.258
-132.3
-58.6
40.118
152.301
269.377
386.062
499.503
609.254
707.53
780.873
815.392
799.28
731.192
616.189
464.16
292.926
119.515
-35.989
-152.686
-223.415
-247.656
-233.257
-199.123
-157.563
-119.907
-98.042
-92.071
-101.223
-120.694
-137.602
-146.994
-148.053
-142.167
-136.661
-134.196
-133.225
-132.584
-129.771
-124.033
-116.748
-108.826
-100.964
-93.836
-87.818
-83.129
-79.93
-78.142
-77.489
-77.786
-78.914
-80.71
-82.994
-85.567
-88.215
-90.749
-93.009
-94.86
-96.195
-96.937
-97.045
-96.503
-95.315
-93.514
-91.149
-88.269
-84.928
-81.173
-77.043
-72.602
-67.92
-63.075
-58.148
-53.196
-48.255
-43.353
-38.505
-33.713
-28.978
-24.282
-19.598
-14.907
-10.196
-5.454
-0.675
4.151
9.042
14.01
19.069
24.229
29.495
34.872
40.365
45.974
51.693
57.518
63.438
69.444
75.531
81.691
87.915
94.195
100.519
106.876
113.254
119.639
126.015
132.365
138.669
144.909
151.064
157.115
163.041
168.819
174.429
179.85
185.06
190.039
194.766
199.221
203.387
207.244
210.775
213.967
216.803
219.272
221.363
223.066
224.377
225.288
225.798
225.904
225.609
224.914
223.826
222.35
220.494
218.271
215.692
212.772
209.526
205.973
202.132
198.022
193.665
189.083
184.299
179.336
174.218
168.969
163.612
158.173
152.674
147.139
141.592
136.053
130.545
125.088
119.701
114.403
109.208
104.134
99.194
94.4
89.763
85.292
80.996
76.881
72.952
69.213
65.667
62.314
59.154
56.187
53.409
50.818
48.41
46.179
44.119
42.226
40.491
38.907
37.467
36.163
34.986
33.928
32.981
32.134
31.381
30.712
30.119
29.595
29.131
28.722
28.359
28.037
27.751
27.495
27.265
27.057
26.866
26.69
26.526
26.371
26.222
26.078
25.936
25.796
25.655
25.511
25.364
25.211
25.052
24.884
24.706
24.517
24.316
24.102
23.873
23.628
23.368
23.091
22.796
22.483
22.151
21.798
21.423
21.025
20.602
20.151
19.672
19.162
18.619
18.04
17.424
16.768
16.069
15.326
14.536
13.698
12.81
11.871
10.881
9.838
8.743
7.596
6.397
5.147
3.847
2.498
1.099
-0.348
-1.843
-3.385
-4.974
-6.609
-8.29
-10.015
-11.782
-13.59
-15.437
-17.319
-19.235
-21.182
-23.156
-25.155
-27.174
-29.21
-31.258
-33.315
-35.377
-37.44
-39.499
-41.551
-43.594
-45.626
-47.645
-49.649
-51.637
-53.609
-55.565
-57.505
-59.43
-61.339
-63.233
-65.113
-66.98
-68.835
-70.68
-72.518
-74.353
-76.192
-78.042
-79.91
-81.806
-83.738
-85.715
-87.747
-89.843
-92.008
-94.248
-96.567
-98.975
-101.481
-104.093
-106.816
-109.655
-112.614
-115.696
-118.904
-122.235
-125.676
-129.22
-132.862
-136.604
-140.462
-144.447
-148.559
-152.8
-157.165
-161.642
-166.221
-170.869
-175.536
-180.172
-184.731
-189.173
-193.478
-197.609
-201.514
-205.135
-208.39
-211.216
-213.571
-215.41
-216.708
-217.478
-217.75
-217.589
-217.097
-216.369
-215.525
-214.691
-213.963
-213.452
-213.251
-213.494
-214.46
-216.303
-218.979
-222.336
-225.971
-229.44
-232.485
-234.651
-235.14
-233.522
-229.895
-224.739
-219.262
-214.806
-212.172
-212.323
-216.789
-225.17
-234.68
-242.681
-245.507
-242.882
-239.542
-235.584
-226.589
-202.938
-150.42
-63.752
52.438
187.347
326.411
460.604
584.156
689.085
765.866
800.708
781.975
708.096
584.153
424.026
248.196
75.886
-72.375
-181.196
-246.075
-269.674
-264.515
-244.429
-219.15
-197.255
-180.921
-171.748
-170.773
-173.577
-177.395
-179.506
-178.501
-177.574
-178.416
-180.979
-184.042
-184.831
-182.185
-176.507
-168.645
-159.823
-150.841
-142.243
-134.739
-128.758
-124.453
-121.769
-120.445
-120.274
-121.106
-122.759
-125.02
-127.685
-130.567
-133.508
-136.367
-138.972
-141.182
-142.898
-144.055
-144.631
-144.623
-144.039
-142.909
-141.284
-139.213
-136.743
-133.917
-130.776
-127.374
-123.778
-120.053
-116.267
-112.465
-108.671
-104.903
-101.16
-97.434
-93.71
-89.958
-86.147
-82.249
-78.243
-74.111
-69.84
-65.41
-60.802
-55.997
-50.979
-45.736
-40.259
-34.543
-28.584
-22.384
-15.95
-9.29
-2.417
4.658
11.923
19.363
26.967
34.716
42.593
50.58
58.655
66.796
74.977
83.172
91.352
99.489
107.553
115.513
123.339
131
138.466
145.706
152.69
159.388
165.772
171.814
177.489
182.77
187.637
192.068
196.044
199.551
202.573
205.101
207.126
208.641
209.644
210.134
210.111
209.581
208.549
207.023
205.017
202.542
199.614
196.252
192.476
188.306
183.767
178.881
173.675
168.176
162.411
156.409
150.197
143.807
137.266
130.606
123.855
117.042
110.195
103.342
96.508
89.719
82.998
76.368
69.85
63.463
57.225
51.152
45.261
39.563
34.071
28.795
23.744
18.924
14.342
10.001
5.905
2.056
-1.546
-4.901
-8.01
-10.876
-13.502
-15.894
-18.056
-19.995
-21.719
-23.234
-24.549
-25.674
-26.616
-27.385
-27.99
-28.441
-28.747
-28.916
-28.958
-28.882
-28.696
-28.407
-28.025
-27.556
-27.007
-26.386
-25.698
-24.95
-24.148
-23.297
-22.404
-21.473
-20.511
-19.522
-18.511
-17.485
-16.446
-15.4
-14.35
-13.3
-12.254
-11.215
-10.186
-9.169
-8.168
-7.185
-6.221
-5.279
-4.362
-3.47
-2.606
-1.771
-0.968
-0.198
0.536
1.234
1.893
2.511
3.087
3.62
4.109
4.553
4.953
5.308
5.619
5.886
6.113
6.299
6.448
6.562
6.644
6.698
6.726
6.733
6.723
6.701
6.67
6.634
6.599
6.57
6.553
6.551
6.571
6.619
6.702
6.827
6.999
7.227
7.516
7.873
8.305
8.818
9.418
10.11
10.9
11.791
12.788
13.896
15.117
16.452
17.904
19.471
21.154
22.952
24.861
26.878
28.999
31.219
33.533
35.935
38.417
40.971
43.587
46.255
48.966
51.705
54.456
57.203
59.927
62.613
65.242
67.794
70.251
72.595
74.812
76.89
78.814
80.571
82.144
83.519
84.681
85.619
86.321
86.777
86.977
86.919
86.609
86.051
85.25
84.204
82.898
81.324
79.481
77.365
74.98
72.34
69.464
66.387
63.169
59.863
56.52
53.183
49.876
46.641
43.525
40.57
37.842
35.395
33.265
31.519
30.189
29.235
28.606
28.208
27.911
27.661
27.38
26.937
26.294
25.435
24.324
22.978
21.295
19.006
15.985
12.258
7.843
2.892
-2.144
-6.669
-10.029
-11.244
-10.495
-9.408
-8.011
-5.914
-1.661
8.642
23.711
38.545
48.248
45.854
30.648
7.882
-17.656
-38.501
-47.12
-37.23
0.101
72.169
180.495
321.588
483.926
650.465
802.075
918.288
984.089
991.145
941.117
844.968
714.982
564.025
401.29
235.391
79.318
-51.964
-143.082
-185.932
-182.369
-144.25
-89.779
-36.449
0.088
13.853
7.404
-11.82
-30.488
-41.559
-44.6
-41.893
-40.354
-42.696
-47.202
-52.301
-55.421
-55.813
-54.751
-53.136
-51.743
-51.275
-52.123
-54.502
-58.5
-63.949
-70.531
-78.005
-86.213
-94.974
-104.061
-113.265
-122.371
-131.173
-139.564
-147.449
-154.734
-161.373
-167.329
-172.579
-177.137
-181.05
-184.351
-187.084
-189.29
-190.993
-192.24
-193.093
-193.617
-193.889
-193.966
-193.878
-193.653
-193.306
-192.846
-192.276
-191.588
-190.756
-189.762
-188.599
-187.258
-185.741
-184.042
-182.15
-180.057
-177.757
-175.245
-172.524
-169.595
-166.462
-163.131
-159.613
-155.922
-152.073
-148.083
-143.963
-139.726
-135.383
-130.948
-126.433
-121.851
-117.214
-112.534
-107.824
-103.1
-98.374
-93.662
-88.977
-84.333
-79.743
-75.221
-70.781
-66.437
-62.2
-58.084
-54.102
-50.266
-46.588
-43.077
-39.744
-36.598
-33.644
-30.891
-28.343
-26.002
-23.873
-21.955
-20.249
-18.756
-17.472
-16.397
-15.526
-14.856
-14.384
-14.103
-14.009
-14.093
-14.35
-14.772
-15.35
-16.075
-16.937
-17.928
-19.035
-20.248
-21.556
-22.945
-24.404
-25.919
-27.477
-29.067
-30.675
-32.289
-33.897
-35.488
-37.052
-38.577
-40.055
-41.476
-42.833
-44.117
-45.321
-46.438
-47.462
-48.389
-49.212
-49.926
-50.529
-51.016
-51.384
-51.631
-51.754
-51.752
-51.626
-51.374
-50.998
-50.501
-49.884
-49.152
-48.309
-47.36
-46.311
-45.168
-43.937
-42.626
-41.241
-39.791
-38.282
-36.721
-35.118
-33.479
-31.811
-30.122
-28.419
-26.708
-24.997
-23.29
-21.596
-19.918
-18.263
-16.637
-15.043
-13.486
-11.972
-10.502
-9.081
-7.709
-6.39
-5.123
-3.909
-2.747
-1.636
-0.574
0.44
1.411
2.34
3.231
4.089
4.918
5.721
6.505
7.272
8.028
8.776
9.522
10.268
11.017
11.773
12.538
13.315
14.104
14.908
15.726
16.561
17.41
18.274
19.151
20.039
20.934
21.834
22.735
23.631
24.52
25.395
26.251
27.082
27.884
28.649
29.373
30.048
30.67
31.231
31.727
32.152
32.503
32.776
32.967
33.076
33.101
33.042
32.9
32.677
32.375
31.998
31.55
31.039
30.469
29.85
29.191
28.501
27.794
27.079
26.371
25.681
25.022
24.408
23.853
23.37
22.97
22.667
22.473
22.402
22.465
22.672
23.033
23.556
24.249
25.117
26.165
27.392
28.795
30.373
32.121
34.034
36.105
38.325
40.682
43.164
45.761
48.461
51.25
54.108
57.014
59.95
62.899
65.845
68.772
71.663
74.498
77.269
79.964
82.572
85.083
87.477
89.728
91.823
93.745
95.482
97.036
98.404
99.592
100.622
101.509
102.274
102.939
103.52
104.039
104.523
104.988
105.46
105.964
106.534
107.24
108.136
109.218
110.46
111.775
113.114
114.542
115.978
117.199
117.995
118.099
117.447
116.303
114.655
112.146
108.857
105.145
101.541
99.124
98.377
98.944
101.067
105.409
111.804
119.765
128.319
134.988
138.124
137.423
131.451
120.122
106.183
91.675
79.265
69.421
57.018
40.974
26.313
25.44
57.046
129.945
241.297
378.649
522.814
662.43
792.255
905.129
993.493
1045.739
1047.754
996.828
898.638
761.679
602.871
437.024
277.43
142.975
45.662
-10.558
-28.867
-23.96
-10.946
2.659
14.329
27.128
44.829
65.835
86.832
104.207
114.669
117.808
114.277
104.968
91.88
77.001
61.852
47.954
35.984
26.107
18.849
14.346
12.152
11.631
11.836
11.689
10.709
8.716
5.409
0.756
-5.137
-12.104
-19.694
-27.33
-34.655
-41.469
-47.632
-53.14
-57.977
-62.101
-65.553
-68.417
-70.762
-72.641
-74.076
-75.065
-75.621
-75.798
-75.664
-75.302
-74.797
-74.203
-73.56
-72.902
-72.257
-71.649
-71.095
-70.6
-70.159
-69.773
-69.451
-69.206
-69.048
-68.982
-69.004
-69.106
-69.287
-69.547
-69.89
-70.32
-70.841
-71.456
-72.172
-73
-73.949
-75.025
-76.232
-77.573
-79.05
-80.664
-82.42
-84.317
-86.358
-88.541
-90.87
-93.344
-95.966
-98.737
-101.655
-104.721
-107.936
-111.297
-114.805
-118.457
-122.253
-126.189
-130.265
-134.478
-138.825
-143.303
-147.907
-152.633
-157.477
-162.432
-167.492
-172.651
-177.9
-183.231
-188.637
-194.107
-199.633
-205.204
-210.809
-216.438
-222.08
-227.721
-233.351
-238.955
-244.521
-250.035
-255.482
-260.851
-266.126
-271.293
-276.34
-281.253
-286.019
-290.625
-295.059
-299.309
-303.363
-307.211
-310.842
-314.247
-317.416
-320.341
-323.015
-325.431
-327.584
-329.467
-331.079
-332.415
-333.473
-334.253
-334.755
-334.979
-334.926
-334.601
-334.006
-333.146
-332.026
-330.653
-329.032
-327.172
-325.08
-322.766
-320.237
-317.502
-314.57
-311.451
-308.152
-304.682
-301.05
-297.263
-293.332
-289.264
-285.069
-280.755
-276.331
-271.806
-267.188
-262.485
-257.705
-252.854
-247.938
-242.965
-237.938
-232.865
-227.749
-222.597
-217.412
-212.199
-206.961
-201.701
-196.423
-191.128
-185.818
-180.497
-175.167
-169.834
-164.501
-159.172
-153.856
-148.558
-143.289
-138.058
-132.869
-127.731
-122.652
-117.638
-112.697
-107.836
-103.055
-98.358
-93.75
-89.24
-84.84
-80.559
-76.406
-72.391
-68.527
-64.828
-61.308
-57.977
-54.837
-51.888
-49.135
-46.587
-44.266
-42.192
-40.366
-38.788
-37.456
-36.353
-35.464
-34.756
-34.169
-33.655
-33.175
-32.698
-32.222
-31.754
-31.3
-30.861
-30.418
-29.93
-29.363
-28.699
-27.94
-27.128
-26.303
-25.509
-24.807
-24.263
-23.987
-24.018
-24.235
-24.369
-24.096
-23.221
-21.817
-20.049
-17.894
-15.421
-12.86
-10.625
-9.405
-9.529
-10.566
-11.838
-12.766
-12.631
-10.865
-6.84
0.61
12.205
27.726
46.618
67.932
90.307
112.862
134.837
154.895
172.014
185.699
195.597
202.177
206.596
209.507
211.351
212.859
214.537
216.878
220.543
225.477
231.002
236.763
242.56
248.211
253.812
259.288
264.311
268.887
273.263
277.522
281.715
285.747
289.29
292.127
294.13
295.077
294.77
293.035
289.669
284.554
277.631
268.827
258.122
245.526
231.052
214.785
196.87
177.51
156.995
135.629
113.722
91.561
69.425
47.628
26.41
5.964
-13.585
-32.298
-50.229
-67.21
-83.072
-97.634
-110.478
-121.294
-129.67
-134.665
-135.453
-131.649
-123.025
-109.844
-92.967
-72.992
-50.758
-28.037
-6.711
11.535
25.127
33.44
36.783
35.069
28.524
18.74
8.181
0.012
-2.085
4.988
23.583
56.684
107.458
176.574
261.21
357.034
458.532
562.542
671.886
787.462
903.665
1009.422
1084.803
1109.19
1074.585
982.137
842.306
676.082
501.527
335.32
196.26
94.941
36.015
19.418
33.994
65.222
101.387
129.63
143.19
143.2
132.346
118.782
110.2
107.706
109.847
112.339
111.702
108.164
103.792
100.874
100.125
101.476
104.377
107.84
111.416
114.726
117.135
118.647
119.586
119.713
118.949
117.366
114.848
111.551
107.745
103.403
98.474
93.195
87.77
82.386
77.307
72.645
68.44
64.804
61.803
59.41
57.608
56.359
55.591
55.288
55.437
55.995
56.931
58.219
59.809
61.666
63.756
66.005
68.362
70.803
73.302
75.849
78.442
81.063
83.699
86.344
88.978
91.568
94.088
96.491
98.743
100.82
102.691
104.351
105.794
106.994
107.95
108.679
109.201
109.554
109.785
109.922
110.014
110.128
110.311
110.603
111.034
111.61
112.328
113.177
114.139
115.191
116.279
117.3
118.122
118.577
118.482
117.67
115.952
113.132
109.061
103.612
96.687
88.225
78.181
66.515
53.202
38.229
21.618
3.458
-16.101
-36.841
-58.514
-80.869
-103.619
-126.489
-149.246
-171.685
-193.635
-214.96
-235.533
-255.217
-273.883
-291.4
-307.646
-322.554
-336.118
-348.403
-359.511
-369.565
-378.728
-387.141
-394.92
-402.155
-408.901
-415.189
-421.05
-426.527
-431.664
-436.524
-441.185
-445.701
-450.099
-454.368
-458.465
-462.331
-465.881
-469.049
-471.79
-474.078
-475.92
-477.339
-478.359
-479.007
-479.322
-479.323
-479.019
-478.422
-477.533
-476.37
-474.964
-473.351
-471.578
-469.672
-467.643
-465.5
-463.243
-460.871
-458.386
-455.777
-453.012
-450.077
-446.959
-443.664
-440.222
-436.665
-433.026
-429.361
-425.738
-422.236
-418.954
-415.965
-413.314
-411.041
-409.159
-407.69
-406.667
-406.096
-405.965
-406.239
-406.84
-407.662
-408.578
-409.4
-409.895
-409.826
-408.941
-407.017
-403.875
-399.34
-393.262
-385.509
-375.958
-364.518
-351.126
-335.75
-318.408
-299.177
-278.187
-255.652
-231.861
-207.109
-181.704
-155.953
-130.142
-104.571
-79.539
-55.314
-32.131
-10.217
10.217
28.983
45.932
60.985
74.121
85.395
94.925
102.84
109.28
114.414
118.42
121.498
123.873
125.727
127.212
128.486
129.709
131.028
132.576
134.435
136.64
139.201
142.097
145.302
148.783
152.478
156.315
160.205
164.044
167.761
171.315
174.66
177.752
180.555
183.039
185.201
187.065
188.653
189.99
191.103
192.023
192.792
193.463
194.09
194.73
195.425
196.2
197.079
198.079
199.209
200.476
201.876
203.391
205.011
206.727
208.529
210.407
212.344
214.317
216.298
218.259
220.174
222.014
223.753
225.368
226.839
228.149
229.292
230.26
231.043
231.631
232.008
232.164
232.091
231.785
231.247
230.48
229.495
228.311
226.952
225.428
223.747
221.9
219.867
217.633
215.187
212.518
209.63
206.524
203.203
199.681
195.964
192.061
187.997
183.782
179.451
175.067
170.684
166.429
162.476
158.871
155.596
152.536
149.421
146.102
142.53
138.51
133.9
128.843
123.679
119.197
116.388
115.689
117.275
121.303
127.649
135.99
145.539
154.582
161.327
164.823
164.409
159.696
150.524
136.399
117.419
94.866
70.115
44.006
17.326
-9.333
-35.169
-57.16
-71.312
-74.813
-64.863
-42.344
-12.043
23.845
63.715
111.271
177.298
268.342
387.789
530.519
678.479
811.672
909.337
954.315
940.541
870.13
750.383
594.894
420.741
243.924
84.112
-41.562
-127.585
-174.752
-194.809
-205.779
-216.652
-230.841
-246.353
-256.371
-260.169
-261.197
-262.813
-268.955
-280.548
-295.821
-312.975
-330.138
-345.537
-357.828
-366.369
-371.063
-372.288
-370.906
-367.78
-363.612
-359.185
-355.208
-352.016
-349.75
-348.365
-347.605
-347.275
-347.206
-347.166
-346.953
-346.405
-345.364
-343.704
-341.289
-337.944
-333.543
-328.01
-321.301
-313.423
-304.39
-294.228
-283.007
-270.817
-257.75
-243.905
-229.368
-214.22
-198.564
-182.507
-166.163
-149.653
-133.067
-116.476
-99.944
-83.516
-67.23
-51.117
-35.19
-19.451
-3.911
11.419
26.525
41.39
56.006
70.371
84.48
98.331
111.921
125.243
138.296
151.075
163.576
175.791
187.715
199.339
210.659
221.674
232.382
242.784
252.879
262.667
272.148
281.321
290.186
298.74
306.979
314.898
322.493
329.76
336.691
343.282
349.525
355.415
360.945
366.109
370.9
375.312
379.339
382.975
386.215
389.057
391.495
393.529
395.157
396.378
397.194
397.608
397.623
397.244
396.476
395.327
393.806
391.922
389.687
387.113
384.212
381.002
377.496
373.713
369.669
365.384
360.875
356.163
351.266
346.204
340.996
335.66
330.215
324.68
319.071
313.405
307.697
301.961
296.211
290.459
284.714
278.985
273.28
267.605
261.965
256.361
250.797
245.272
239.787
234.339
228.925
223.542
218.186
212.852
207.535
202.228
196.926
191.624
186.315
180.996
175.661
170.305
164.926
159.521
154.086
148.622
143.127
137.603
132.051
126.475
120.878
115.267
109.648
104.029
98.42
92.83
87.272
81.758
76.3
70.913
65.611
60.41
55.323
50.367
45.557
40.906
36.43
32.141
28.051
24.171
20.512
17.082
13.888
10.934
8.226
5.764
3.551
1.585
-0.138
-1.621
-2.871
-3.897
-4.708
-5.315
-5.731
-5.971
-6.051
-5.986
-5.795
-5.497
-5.111
-4.659
-4.161
-3.639
-3.115
-2.61
-2.146
-1.743
-1.42
-1.197
-1.091
-1.117
-1.289
-1.62
-2.121
-2.8
-3.664
-4.717
-5.963
-7.401
-9.03
-10.845
-12.84
-15.008
-17.338
-19.819
-22.437
-25.18
-28.03
-30.97
-33.983
-37.049
-40.148
-43.258
-46.358
-49.423
-52.432
-55.361
-58.186
-60.886
-63.438
-65.822
-68.018
-70.007
-71.772
-73.296
-74.567
-75.572
-76.3
-76.743
-76.895
-76.753
-76.316
-75.584
-74.563
-73.258
-71.677
-69.828
-67.725
-65.378
-62.803
-60.015
-57.031
-53.869
-50.549
-47.093
-43.526
-39.875
-36.166
-32.427
-28.688
-24.978
-21.325
-17.756
-14.296
-10.966
-7.79
-4.788
-1.982
0.605
2.958
5.058
6.891
8.445
9.711
10.684
11.363
11.752
11.851
11.663
11.181
10.39
9.278
7.84
6.075
3.986
1.581
-1.127
-4.115
-7.342
-10.769
-14.353
-18.054
-21.842
-25.685
-29.546
-33.385
-37.136
-40.733
-44.144
-47.363
-50.391
-53.254
-55.958
-58.511
-61.003
-63.546
-66.264
-69.287
-72.703
-76.562
-80.989
-86.204
-92.309
-99.338
-107.164
-115.372
-123.604
-131.634
-139.051
-145.312
-150.242
-153.82
-156.286
-158.865
-162.79
-168.854
-178.58
-192.542
-208.927
-226.18
-242.652
-257.389
-273.55
-292.884
-311.671
-322.296
-312.458
-271.779
-199.131
-99.858
15.683
135.568
251.208
352.199
426.143
460.469
442.169
367.35
242.038
79.001
-102.502
-283.66
-448.271
-583.039
-677.801
-729.16
-741.884
-724.216
-691.865
-659.259
-632.788
-617.985
-611.636
-606.135
-598.746
-585.911
-568.874
-554.079
-544.69
-542.06
-545.011
-549.086
-551.432
-551.3
-548.637
-543.829
-536.672
-526.892
-514.841
-501.515
-488.199
-475.572
-463.785
-452.94
-443.167
-434.565
-427.12
-420.475
-414.002
-407.285
-400.111
-392.374
-384.079
-375.206
-365.707
-355.614
-345.035
-334.07
-322.807
-311.3
-299.56
-287.617
-275.521
-263.342
-251.166
-239.077
-227.149
-215.434
-203.963
-192.761
-181.844
-171.219
-160.883
-150.819
-141.002
-131.413
-122.043
-112.882
-103.919
-95.133
-86.499
-77.993
-69.596
-61.292
-53.067
-44.91
-36.809
-28.757
-20.749
-12.784
-4.865
3.01
10.843
18.633
26.379
34.077
41.722
49.308
56.828
64.273
71.63
78.887
86.03
93.042
99.907
106.609
113.129
119.447
125.546
131.405
137.005
142.327
147.353
152.062
156.439
160.465
164.126
167.406
170.292
172.772
174.836
176.476
177.686
178.459
178.794
178.689
178.146
177.166
175.756
173.921
171.671
169.015
165.966
162.539
158.75
154.616
150.157
145.393
140.346
135.039
129.497
123.744
117.805
111.706
105.473
99.133
92.711
86.233
79.726
73.213
66.721
60.272
53.89
47.596
41.412
35.357
29.45
23.707
18.146
12.78
7.624
2.688
-2.015
-6.478
-10.69
-14.646
-18.341
-21.769
-24.929
-27.818
-30.436
-32.786
-34.867
-36.685
-38.244
-39.548
-40.603
-41.417
-41.997
-42.352
-42.49
-42.421
-42.154
-41.7
-41.069
-40.272
-39.319
-38.221
-36.989
-35.633
-34.163
-32.591
-30.925
-29.177
-27.356
-25.472
-23.536
-21.556
-19.542
-17.503
-15.448
-13.385
-11.323
-9.269
-7.231
-5.215
-3.228
-1.276
0.635
2.499
4.311
6.066
7.76
9.389
10.948
12.436
13.849
15.184
16.439
17.612
18.7
19.702
20.616
21.441
22.175
22.816
23.365
23.82
24.183
24.452
24.63
24.716
24.711
24.618
24.437
24.171
23.821
23.39
22.88
22.296
21.64
20.918
20.132
19.288
18.39
17.443
16.453
15.426
14.365
13.278
12.169
11.047
9.917
8.786
7.662
6.553
5.467
4.412
3.397
2.429
1.517
0.669
-0.106
-0.802
-1.408
-1.919
-2.327
-2.624
-2.804
-2.859
-2.784
-2.575
-2.228
-1.741
-1.109
-0.332
0.59
1.658
2.87
4.224
5.718
7.347
9.107
10.992
12.993
15.102
17.31
19.605
21.972
24.395
26.858
29.342
31.831
34.304
36.742
39.126
41.44
43.668
45.796
47.808
49.683
51.405
52.958
54.325
55.494
56.452
57.184
57.685
57.954
57.993
57.802
57.373
56.689
55.735
54.507
52.999
51.213
49.162
46.862
44.345
41.667
38.881
36.038
33.184
30.345
27.558
24.87
22.335
20.026
18.005
16.312
14.996
14.092
13.583
13.432
13.561
13.84
14.184
14.511
14.723
14.754
14.515
13.904
12.847
11.206
8.786
5.486
1.287
-3.644
-8.827
-13.728
-17.809
-20.377
-20.767
-18.556
-13.536
-6.278
1.778
9.183
14.336
16.424
16.111
13.992
11.029
7.175
-0.05
-10.954
-22.311
-26.31
-9.088
40.033
123.251
235.235
363.402
496.168
627.614
753.196
864.956
950.221
994.269
985.298
923.731
819.445
684.012
532.348
375.934
225.202
96.012
-0.6
-58.541
-77.91
-69.84
-45.319
-14.189
13.696
34.595
44.992
44.272
37.953
29.951
24.32
22.396
20.557
17.114
11.678
5.213
0.484
-1.638
-1.699
-0.464
0.93
1.797
1.805
0.442
-2.614
-7.365
-13.645
-21.162
-29.648
-38.926
-48.832
-59.131
-69.596
-80.021
-90.199
-100.002
-109.334
-118.105
-126.257
-133.752
-140.561
-146.694
-152.193
-157.094
-161.438
-165.261
-168.584
-171.451
-173.921
-176.056
-177.93
-179.592
-181.069
-182.381
-183.539
-184.549
-185.409
-186.105
-186.609
-186.9
-186.966
-186.798
-186.395
-185.75
-184.851
-183.688
-182.256
-180.552
-178.577
-176.333
-173.824
-171.057
-168.04
-164.787
-161.315
-157.635
-153.759
-149.699
-145.466
-141.072
-136.529
-131.85
-127.046
-122.13
-117.117
-112.021
-106.858
-101.642
-96.387
-91.108
-85.82
-80.537
-75.272
-70.039
-64.851
-59.719
-54.655
-49.671
-44.777
-39.98
-35.291
-30.717
-26.264
-21.94
-17.749
-13.695
-9.783
-6.016
-2.397
1.075
4.396
7.568
10.591
13.467
16.197
18.784
21.232
23.545
25.727
27.785
29.724
31.55
33.271
34.892
36.42
37.864
39.229
40.523
41.752
42.923
44.042
45.115
46.147
47.145
48.114
49.059
49.985
50.896
51.797
52.691
53.584
54.478
55.376
56.282
57.197
58.124
59.065
60.02
60.991
61.978
62.982
64.003
65.041
66.094
67.162
68.245
69.341
70.449
71.568
72.698
73.837
74.985
76.141
77.305
78.475
79.653
80.836
82.025
83.218
84.416
85.618
86.822
88.028
89.235
90.443
91.651
92.857
94.061
95.263
96.461
97.656
98.846
100.032
101.212
102.387
103.556
104.718
105.872
107.019
108.155
109.281
110.394
111.494
112.576
113.64
114.682
115.7
116.691
117.652
118.58
119.472
120.325
121.137
121.905
122.626
123.3
123.923
124.493
125.009
125.47
125.873
126.216
126.498
126.719
126.875
126.967
126.992
126.951
126.841
126.663
126.417
126.101
125.717
125.266
124.747
124.162
123.514
122.804
122.035
121.208
120.327
119.394
118.412
117.383
116.309
115.194
114.038
112.844
111.613
110.348
109.051
107.723
106.367
104.986
103.582
102.157
100.715
99.258
97.789
96.312
94.83
93.346
91.864
90.387
88.92
87.465
86.026
84.606
83.206
81.831
80.482
79.162
77.872
76.615
75.39
74.202
73.052
71.94
70.869
69.84
68.853
67.909
67.006
66.139
65.306
64.499
63.713
62.939
62.171
61.398
60.612
59.806
58.974
58.107
57.196
56.228
55.192
54.075
52.867
51.556
50.131
48.579
46.888
45.055
43.077
40.944
38.641
36.139
33.412
30.444
27.221
23.733
19.975
15.944
11.651
7.135
2.433
-2.414
-7.372
-12.422
-17.541
-22.684
-27.793
-32.798
-37.637
-42.276
-46.695
-50.872
-54.806
-58.528
-62.108
-65.662
-69.328
-73.236
-77.511
-82.281
-87.678
-93.835
-100.921
-109.135
-118.594
-129.294
-141.066
-153.577
-166.43
-179.218
-191.442
-202.458
-211.724
-219.016
-224.619
-229.314
-234.044
-239.678
-246.817
-256.037
-267.969
-282.501
-298.247
-313.131
-323.366
-324.877
-315.875
-293.744
-257.73
-209.353
-147.334
-72.699
13.558
113.143
223.286
340.578
458.861
564.115
642.366
678.958
661.967
591.061
472.509
318.89
148.354
-21.703
-174.797
-297.001
-379.268
-421.141
-427.966
-406.404
-368.158
-322.063
-275.984
-242.082
-224.34
-222.172
-230.749
-238.22
-239.019
-232.948
-223.12
-216.448
-215.147
-218.145
-223.741
-228.665
-231.736
-233.224
-232.63
-230.062
-225.951
-220.318
-213.738
-207.094
-200.676
-194.713
-189.611
-185.427
-182.072
-179.484
-177.255
-174.829
-171.943
-168.424
-164.135
-159.121
-153.387
-146.906
-139.766
-132.084
-123.931
-115.376
-106.45
-97.145
-87.501
-77.588
-67.485
-57.292
-47.082
-36.898
-26.781
-16.762
-6.862
2.896
12.507
21.979
31.314
40.508
49.551
58.43
67.141
75.69
84.085
92.337
100.452
108.432
116.279
123.994
131.577
139.026
146.333
153.49
160.49
167.33
174.005
180.513
186.848
193.004
198.974
204.753
210.332
215.702
220.853
225.773
230.449
234.872
239.027
242.902
246.484
249.759
252.713
255.333
257.607
259.52
261.06
262.216
262.975
263.33
263.27
262.788
261.88
260.541
258.77
256.567
253.934
250.876
247.397
243.508
239.216
234.535
229.479
224.062
218.303
212.221
205.839
199.18
192.268
185.13
177.794
170.289
162.644
154.889
147.056
139.176
131.279
123.397
115.561
107.802
100.149
92.631
85.276
78.109
71.155
64.437
57.976
51.791
45.898
40.312
35.047
30.112
25.517
21.268
17.368
13.821
10.626
7.781
5.28
3.119
1.287
-0.225
-1.43
-2.341
-2.974
-3.346
-3.473
-3.376
-3.074
-2.588
-1.939
-1.148
-0.237
0.773
1.859
3
4.178
5.371
6.56
7.729
8.86
9.937
10.946
11.872
12.703
13.427
14.036
14.52
14.872
15.086
15.16
15.088
14.872
14.51
14.004
13.357
12.573
11.657
10.615
9.455
8.183
6.81
5.345
3.798
2.179
0.5
-1.23
-2.999
-4.796
-6.613
-8.438
-10.262
-12.076
-13.872
-15.641
-17.377
-19.073
-20.724
-22.324
-23.869
-25.358
-26.788
-28.159
-29.472
-30.727
-31.928
-33.08
-34.186
-35.254
-36.289
-37.301
-38.297
-39.289
-40.287
-41.301
-42.344
-43.427
-44.563
-45.764
-47.043
-48.412
-49.882
-51.464
-53.171
-55.013
-56.999
-59.139
-61.439
-63.909
-66.553
-69.376
-72.382
-75.572
-78.947
-82.505
-86.245
-90.163
-94.252
-98.507
-102.917
-107.473
-112.163
-116.973
-121.89
-126.895
-131.973
-137.106
-142.274
-147.458
-152.638
-157.792
-162.901
-167.944
-172.901
-177.751
-182.475
-187.053
-191.468
-195.703
-199.744
-203.575
-207.187
-210.568
-213.713
-216.615
-219.272
-221.682
-223.845
-225.764
-227.441
-228.881
-230.091
-231.078
-231.853
-232.427
-232.815
-233.034
-233.103
-233.039
-232.863
-232.595
-232.253
-231.85
-231.401
-230.922
-230.432
-229.957
-229.517
-229.13
-228.81
-228.568
-228.413
-228.344
-228.346
-228.383
-228.425
-228.439
-228.405
-228.311
-228.136
-227.856
-227.436
-226.829
-226.005
-224.944
-223.626
-222.033
-220.147
-217.982
-215.617
-213.178
-210.783
-208.522
-206.431
-204.551
-202.975
-201.796
-201.11
-200.989
-201.411
-202.421
-204.174
-206.71
-209.933
-213.56
-216.966
-219.541
-220.893
-220.495
-217.702
-212.218
-204.063
-193.735
-182.429
-171.441
-161.736
-154.423
-150.9
-150.461
-150.379
-148.288
-140.596
-127.382
-113.683
-99.091
-80.645
-51.184
3.929
90.065
205.631
345.032
492.285
633.902
756.537
844.013
885.57
872.745
804.872
689.671
539.142
371.305
203.602
55.121
-56.348
-124.55
-150.992
-148.661
-137.018
-126.652
-121.714
-119.562
-112.885
-100.85
-86.657
-73.722
-66.058
-64.249
-66.309
-70.683
-75.598
-79.353
-80.855
-79.464
-75.133
-68.464
-60.376
-51.625
-42.84
-34.672
-27.683
-22.206
-18.342
-15.959
-14.781
-14.565
-15.113
-16.231
-17.735
-19.46
-21.249
-22.936
-24.372
-25.444
-26.07
-26.203
-25.824
-24.918
-23.492
-21.59
-19.275
-16.609
-13.651
-10.444
-7.026
-3.453
0.211
3.897
7.533
11.074
14.494
17.776
20.915
23.915
26.787
29.56
32.272
34.954
37.63
40.321
43.044
45.822
48.681
51.643
54.73
57.96
61.348
64.906
68.646
72.573
76.69
80.995
85.484
90.151
94.991
99.998
105.164
110.477
115.927
121.499
127.178
132.946
138.781
144.663
150.565
156.462
162.327
168.132
173.848
179.447
184.897
190.171
195.238
200.07
204.636
208.91
212.864
216.473
219.712
222.559
224.993
226.996
228.552
229.647
230.272
230.416
230.076
229.247
227.931
226.128
223.846
221.09
217.871
214.203
210.1
205.579
200.662
195.371
189.728
183.759
177.492
170.954
164.175
157.185
150.014
142.694
135.255
127.73
120.151
112.548
104.953
97.395
89.904
82.507
75.23
68.099
61.136
54.363
47.798
41.459
35.362
29.519
23.942
18.64
13.62
8.886
4.442
0.288
-3.576
-7.154
-10.451
-13.473
-16.227
-18.723
-20.971
-22.983
-24.772
-26.351
-27.735
-28.94
-29.982
-30.876
-31.642
-32.294
-32.852
-33.331
-33.748
-34.12
-34.461
-34.787
-35.111
-35.446
-35.803
-36.193
-36.626
-37.108
-37.647
-38.248
-38.915
-39.651
-40.457
-41.334
-42.281
-43.296
-44.376
-45.518
-46.717
-47.968
-49.265
-50.602
-51.972
-53.367
-54.779
-56.199
-57.619
-59.03
-60.422
-61.787
-63.115
-64.398
-65.626
-66.794
-67.892
-68.915
-69.857
-70.712
-71.476
-72.146
-72.72
-73.197
-73.575
-73.856
-74.04
-74.13
-74.128
-74.038
-73.864
-73.61
-73.28
-72.879
-72.413
-71.886
-71.304
-70.671
-69.993
-69.275
-68.522
-67.739
-66.93
-66.1
-65.253
-64.393
-63.524
-62.648
-61.769
-60.887
-60.005
-59.122
-58.238
-57.35
-56.458
-55.557
-54.643
-53.713
-52.761
-51.783
-50.77
-49.718
-48.62
-47.47
-46.261
-44.986
-43.64
-42.217
-40.712
-39.12
-37.439
-35.665
-33.794
-31.828
-29.764
-27.604
-25.347
-22.996
-20.553
-18.023
-15.409
-12.717
-9.956
-7.131
-4.255
-1.342
1.595
4.539
7.474
10.383
13.246
16.046
18.765
21.387
23.9
26.287
28.532
30.616
32.523
34.239
35.752
37.049
38.119
38.951
39.544
39.901
40.025
39.916
39.566
38.959
38.086
36.947
35.539
33.87
31.952
29.798
27.444
24.941
22.341
19.691
17.029
14.379
11.783
9.295
6.972
4.889
3.102
1.647
0.574
-0.089
-0.349
-0.232
0.191
0.818
1.567
2.348
3.054
3.578
3.798
3.618
2.933
1.576
-0.559
-3.476
-7.042
-10.874
-14.505
-17.564
-19.615
-20.065
-18.49
-14.757
-9.243
-3.03
2.684
7.089
9.396
8.551
3.766
-5.065
-15.815
-24.107
-25.795
-18.273
-2.773
18.045
44.437
79.609
131.657
208.417
312.119
439.983
581.575
723.389
849.924
944.589
995.33
991.714
932.681
825.589
678.739
508.102
328.559
154.234
4.942
-106.647
-174.256
-198.568
-192.375
-168.056
-135.509
-103.7
-74.976
-51.891
-35.795
-22.687
-10.668
2.038
15.259
24.155
26.221
21.034
10.021
-3.382
-17.067
-29.827
-40.863
-49.784
-56.168
-60.016
-61.923
-62.515
-62.494
-62.666
-63.481
-65.374
-68.644
-73.168
-78.709
-84.941
-91.381
-97.58
-103.28
-108.297
-112.559
-116.121
-119.001
-121.245
-122.959
-124.236
-125.151
-125.751
-126.048
-126.056
-125.822
-125.412
-124.901
-124.353
-123.797
-123.254
-122.736
-122.249
-121.802
-121.388
-120.987
-120.586
-120.179
-119.762
-119.336
-118.897
-118.428
-117.911
-117.329
-116.664
-115.906
-115.044
-114.069
-112.975
-111.759
-110.42
-108.959
-107.379
-105.678
-103.855
-101.911
-99.849
-97.672
-95.385
-92.997
-90.514
-87.948
-85.31
-82.614
-79.874
-77.103
-74.316
-71.529
-68.758
-66.02
-63.332
-60.711
-58.176
-55.744
-53.435
-51.267
-49.257
-47.424
-45.785
-44.355
-43.151
-42.185
-41.47
-41.017
-40.835
-40.931
-41.31
-41.975
-42.927
-44.167
-45.69
-47.492
-49.565
-51.902
-54.491
-57.319
-60.373
-63.636
-67.093
-70.725
-74.513
-78.438
-82.48
-86.617
-90.828
-95.092
-99.386
-103.688
-107.975
-112.225
-116.418
-120.53
-124.543
-128.435
-132.189
-135.787
-139.212
-142.45
-145.488
-148.313
-150.915
-153.286
-155.419
-157.308
-158.95
-160.343
-161.487
-162.382
-163.031
-163.438
-163.607
-163.544
-163.256
-162.751
-162.037
-161.122
-160.017
-158.731
-157.274
-155.656
-153.89
-151.984
-149.951
-147.8
-145.544
-143.191
-140.752
-138.237
-135.654
-133.011
-130.317
-127.579
-124.801
-121.991
-119.152
-116.289
-113.403
-110.499
-107.576
-104.636
-101.679
-98.703
-95.709
-92.694
-89.657
-86.596
-83.509
-80.393
-77.247
-74.069
-70.857
-67.611
-64.328
-61.008
-57.65
-54.255
-50.822
-47.353
-43.849
-40.311
-36.743
-33.147
-29.526
-25.886
-22.23
-18.563
-14.891
-11.221
-7.558
-3.91
-0.283
3.313
6.872
10.385
13.843
17.239
20.564
23.81
26.97
30.035
33.001
35.859
38.605
41.235
43.744
46.128
48.387
50.517
52.52
54.395
56.144
57.768
59.271
60.657
61.93
63.095
64.158
65.126
66.005
66.805
67.533
68.199
68.811
69.379
69.913
70.423
70.919
71.411
71.909
72.421
72.958
73.529
74.141
74.803
75.521
76.301
77.146
78.062
79.05
80.112
81.248
82.456
83.734
85.079
86.488
87.955
89.473
91.035
92.633
94.257
95.896
97.536
99.162
100.761
102.315
103.811
105.23
106.556
107.775
108.873
109.838
110.658
111.32
111.809
112.112
112.219
112.12
111.807
111.275
110.516
109.53
108.323
106.901
105.269
103.426
101.359
99.059
96.531
93.777
90.808
87.638
84.282
80.772
77.158
73.492
69.825
66.199
62.639
59.182
55.876
52.781
49.975
47.521
45.46
43.831
42.656
41.936
41.648
41.733
42.089
42.609
43.181
43.68
44.001
44.04
43.712
42.899
41.41
39.093
35.905
31.979
27.622
23.16
18.851
15.022
12.208
10.947
11.554
13.735
16.687
19.648
21.886
22.796
21.68
17.38
10.326
3.515
-0.074
2.578
10.941
19.707
27.753
38.415
60.839
109.266
189.522
298.578
426.776
559.242
686.658
803.261
901.567
973.672
1006.775
988.439
915.743
791.997
629.906
450.517
272.56
116.279
-2.527
-82.08
-124.676
-140.52
-143.73
-136.817
-122.64
-104.479
-81.875
-62.934
-52.09
-45.241
-40.37
-32.482
-19.862
-8.178
-0.729
0.82
-3.453
-10.507
-18.859
-28.101
-37.361
-46.178
-53.743
-59.329
-63.034
-65.111
-65.778
-65.532
-65.096
-65.083
-66.083
-68.417
-71.995
-76.639
-82.088
-87.925
-93.683
-99.033
-103.753
-107.752
-111.068
-113.732
-115.79
-117.33
-118.447
-119.209
-119.649
-119.77
-119.57
-119.079
-118.359
-117.48
-116.493
-115.424
-114.286
-113.081
-111.808
-110.463
-109.021
-107.452
-105.732
-103.847
-101.79
-99.558
-97.138
-94.514
-91.669
-88.583
-85.242
-81.634
-77.751
-73.588
-69.144
-64.423
-59.432
-54.18
-48.679
-42.937
-36.964
-30.772
-24.374
-17.788
-11.029
-4.118
2.923
10.07
17.297
24.574
31.875
39.17
46.428
53.62
60.712
67.675
74.477
81.087
87.474
93.608
99.46
105
110.202
115.04
119.489
123.527
127.133
130.288
132.977
135.186
136.904
138.121
138.833
139.035
138.729
137.916
136.602
134.796
132.508
129.752
126.545
122.906
118.857
114.42
109.622
104.489
99.051
93.337
87.379
81.207
74.855
68.356
61.742
55.048
48.307
41.552
34.815
28.128
21.523
15.03
8.677
2.491
-3.501
-9.274
-14.808
-20.08
-25.073
-29.77
-34.157
-38.222
-41.955
-45.349
-48.398
-51.098
-53.45
-55.453
-57.11
-58.427
-59.408
-60.063
-60.401
-60.433
-60.169
-59.625
-58.813
-57.749
-56.449
-54.929
-53.206
-51.298
-49.223
-46.998
-44.641
-42.172
-39.606
-36.963
-34.258
-31.51
-28.732
-25.942
-23.152
-20.377
-17.63
-14.921
-12.262
-9.662
-7.131
-4.677
-2.305
-0.023
2.165
4.254
6.241
8.123
9.898
11.564
13.121
14.568
15.906
17.136
18.259
19.277
20.191
21.006
21.723
22.346
22.879
23.325
23.688
23.971
24.18
24.319
24.39
24.398
24.348
24.242
24.085
23.88
23.631
23.341
23.015
22.655
22.266
21.852
21.415
20.96
20.491
20.012
19.528
19.044
18.564
18.093
17.636
17.199
16.789
16.409
16.067
15.767
15.516
15.318
15.181
15.109
15.108
15.184
15.342
15.588
15.927
16.365
16.907
17.557
18.318
19.196
20.192
21.311
22.553
23.919
25.41
27.025
28.764
30.622
32.598
34.685
36.877
39.167
41.547
44.007
46.535
49.119
51.746
54.401
57.071
59.738
62.387
65
67.557
70.042
72.432
74.704
76.836
78.802
80.58
82.144
83.47
84.535
85.318
85.799
85.962
85.789
85.264
84.369
83.087
81.408
79.321
76.817
73.892
70.539
66.762
62.57
57.977
52.99
47.616
41.846
35.683
29.134
22.215
14.945
7.349
-0.547
-8.697
-17.037
-25.501
-34.021
-42.541
-51.019
-59.407
-67.64
-75.637
-83.303
-90.553
-97.331
-103.596
-109.305
-114.437
-119.001
-123.04
-126.644
-129.921
-132.963
-135.868
-138.738
-141.68
-144.809
-148.297
-152.356
-157.138
-162.679
-168.826
-175.252
-181.58
-187.44
-192.368
-195.76
-197.105
-196.203
-193.457
-189.851
-186.515
-184.465
-184.526
-187.46
-193.858
-203.721
-215.729
-227.339
-235.453
-236.656
-227.745
-205.75
-167.431
-111.036
-38.263
47.407
141.412
240.521
345.816
458.634
576.042
688.223
778.601
827.482
820.175
753.486
632.815
473.634
298.299
127.112
-18.672
-123.673
-185.983
-211.122
-214.152
-212.483
-213.879
-220.548
-229.115
-233.979
-235.62
-236.738
-239.987
-248.288
-261.354
-276.99
-293.444
-308.496
-320.169
-327.783
-331.157
-330.457
-326.448
-320.017
-311.934
-303.178
-294.766
-287.243
-280.888
-275.804
-271.843
-268.891
-266.892
-265.678
-265.07
-264.94
-265.16
-265.645
-266.347
-267.12
-267.795
-268.203
-268.154
-267.536
-266.293
-264.376
-261.774
-258.504
-254.586
-250.072
-245.03
-239.519
-233.595
-227.315
-220.724
-213.888
-206.879
-199.77
-192.636
-185.528
-178.47
-171.48
-164.562
-157.708
-150.909
-144.144
-137.384
-130.606
-123.794
-116.934
-110.018
-103.034
-95.969
-88.808
-81.54
-74.156
-66.652
-59.027
-51.279
-43.411
-35.43
-27.344
-19.166
-10.909
-2.583
5.8
14.228
22.685
31.155
39.622
48.065
56.465
64.801
73.046
81.177
89.167
96.991
104.622
112.035
119.204
126.106
132.715
139.01
144.969
150.572
155.802
160.642
165.076
169.093
172.681
175.832
178.54
180.8
182.611
183.973
184.889
185.363
185.404
185.02
184.224
183.027
181.448
179.502
177.209
174.591
171.67
168.472
165.021
161.344
157.467
153.418
149.224
144.912
140.508
136.04
131.533
127.011
122.497
118.016
113.588
109.233
104.969
100.814
96.783
92.891
89.147
85.565
82.152
78.915
75.86
72.992
70.312
67.821
65.519
63.404
61.471
59.717
58.135
56.718
55.459
54.348
53.377
52.537
51.817
51.208
50.7
50.284
49.95
49.689
49.493
49.354
49.265
49.218
49.209
49.231
49.282
49.356
49.451
49.567
49.7
49.851
50.019
50.207
50.414
50.644
50.899
51.182
51.497
51.848
52.239
52.675
53.161
53.699
54.295
54.952
55.672
56.46
57.315
58.24
59.235
60.297
61.427
62.621
63.874
65.183
66.54
67.939
69.371
70.827
72.298
73.77
75.234
76.675
78.081
79.436
80.727
81.936
83.05
84.051
84.922
85.647
86.21
86.593
86.781
86.758
86.509
86.021
85.28
84.276
82.998
81.439
79.591
77.449
75.01
72.273
69.238
65.909
62.29
58.388
54.21
49.768
45.074
40.142
34.989
29.632
24.091
18.388
12.546
6.589
0.544
-5.564
-11.705
-17.851
-23.973
-30.039
-36.021
-41.886
-47.606
-53.151
-58.492
-63.602
-68.455
-73.026
-77.294
-81.238
-84.839
-88.081
-90.951
-93.438
-95.532
-97.227
-98.52
-99.411
-99.902
-99.997
-99.706
-99.04
-98.016
-96.654
-94.975
-93.004
-90.769
-88.3
-85.629
-82.789
-79.813
-76.735
-73.59
-70.417
-67.255
-64.146
-61.127
-58.239
-55.518
-53.002
-50.725
-48.72
-47.011
-45.621
-44.574
-43.897
-43.628
-43.798
-44.43
-45.543
-47.146
-49.239
-51.818
-54.864
-58.333
-62.18
-66.357
-70.816
-75.527
-80.451
-85.54
-90.728
-95.933
-101.073
-106.09
-110.934
-115.562
-119.963
-124.145
-128.161
-132.122
-136.128
-140.282
-144.692
-149.456
-154.681
-160.467
-166.885
-174.037
-182.071
-191.076
-201.038
-211.757
-222.834
-233.876
-244.526
-254.329
-262.71
-269.08
-273.083
-275.021
-275.648
-275.608
-275.518
-275.917
-277.374
-280.964
-286.398
-290.453
-289.682
-281.192
-264.96
-246.591
-229.942
-212.625
-187.099
-140.014
-60.157
52.481
190.589
341.953
491.631
629.122
744.055
824.165
857.991
835.314
753.917
619.709
447.318
259.218
77.44
-76.093
-186.598
-252.387
-278.583
-277.161
-260.364
-234.078
-203.849
-175.596
-154.578
-146.269
-150.531
-160.311
-169.001
-172.574
-170.852
-168.405
-167.841
-168.405
-168.642
-166.254
-160.42
-152.233
-142.807
-133.062
-123.834
-115.721
-109.054
-104.029
-100.573
-98.375
-97.215
-96.938
-97.36
-98.287
-99.541
-100.928
-102.293
-103.512
-104.419
-104.877
-104.797
-104.113
-102.809
-100.894
-98.382
-95.316
-91.754
-87.754
-83.372
-78.657
-73.656
-68.428
-63.044
-57.578
-52.105
-46.68
-41.335
-36.094
-30.964
-25.944
-21.024
-16.182
-11.39
-6.623
-1.867
2.894
7.67
12.475
17.327
22.243
27.238
32.325
37.514
42.813
48.228
53.759
59.407
65.167
71.031
76.994
83.05
89.192
95.414
101.708
108.061
114.464
120.903
127.364
133.828
140.278
146.691
153.048
159.324
165.498
171.545
177.442
183.164
188.688
193.99
199.047
203.835
208.332
212.516
216.367
219.866
222.994
225.735
228.075
230
231.499
232.563
233.186
233.362
233.089
232.366
231.194
229.579
227.525
225.042
222.141
218.836
215.143
211.08
206.668
201.928
196.883
191.56
185.983
180.18
174.18
168.01
161.7
155.281
148.781
142.231
135.661
129.102
122.582
116.13
109.774
103.542
97.459
91.552
85.843
80.357
75.114
70.133
65.434
61.033
56.943
53.177
49.746
46.656
43.915
41.524
39.487
37.802
36.466
35.476
34.825
34.505
34.506
34.816
35.423
36.313
37.468
38.871
40.505
42.35
44.385
46.588
48.938
51.412
53.985
56.634
59.334
62.06
64.787
67.491
70.146
72.729
75.216
77.585
79.814
81.883
83.773
85.467
86.948
88.202
89.214
89.975
90.472
90.699
90.649
90.316
89.698
88.793
87.601
86.123
84.364
82.328
80.021
77.45
74.626
71.559
68.262
64.748
61.032
57.131
53.062
48.842
44.491
40.026
35.468
30.834
26.143
21.415
16.666
11.913
7.175
2.464
-2.203
-6.814
-11.357
-15.82
-20.196
-24.475
-28.651
-32.719
-36.673
-40.511
-44.231
-47.832
-51.313
-54.678
-57.928
-61.067
-64.101
-67.037
-69.882
-72.645
-75.334
-77.959
-80.53
-83.056
-85.548
-88.015
-90.465
-92.907
-95.351
-97.803
-100.269
-102.755
-105.265
-107.802
-110.366
-112.959
-115.579
-118.222
-120.886
-123.565
-126.256
-128.951
-131.644
-134.326
-136.988
-139.623
-142.22
-144.769
-147.258
-149.675
-152.008
-154.247
-156.38
-158.396
-160.283
-162.033
-163.639
-165.096
-166.4
-167.546
-168.531
-169.355
-170.018
-170.52
-170.86
-171.039
-171.058
-170.92
-170.635
-170.211
-169.657
-168.983
-168.197
-167.311
-166.339
-165.287
-164.157
-162.956
-161.688
-160.371
-159.033
-157.697
-156.377
-155.09
-153.844
-152.641
-151.478
-150.337
-149.178
-147.962
-146.655
-145.231
-143.683
-141.991
-140.123
-138.04
-135.682
-133.013
-130.014
-126.657
-122.926
-118.857
-114.506
-109.981
-105.436
-100.973
-96.692
-92.722
-89.16
-86.122
-83.726
-82.038
-81.181
-81.36
-82.653
-84.992
-88.171
-91.705
-95.082
-97.875
-99.462
-99.063
-96.247
-91.064
-83.971
-76.004
-68.333
-61.875
-57.752
-57.362
-60.347
-64.305
-66.81
-65.5
-60.952
-55.956
-49.317
-34.353
0.079
63.234
156.313
270.976
393.257
514.109
630.542
741.64
844.598
927.691
971.303
958.164
880.319
740.226
555.798
354.087
161.049
2.779
-106.132
-166.767
-186.679
-180.438
-160.905
-132.735
-100.095
-67.985
-41.564
-26.491
-23.097
-24.994
-25.769
-22.425
-16.494
-13.106
-15.128
-21.418
-29.078
-34.975
-37.865
-37.991
-35.458
-30.574
-23.841
-16.131
-8.778
-2.614
2.173
5.528
7.366
7.632
6.329
3.775
0.608
-2.711
-5.917
-8.811
-11.322
-13.362
-14.813
-15.658
-15.951
-15.731
-15.048
-13.94
-12.4
-10.449
-8.122
-5.455
-2.514
0.631
3.914
7.262
10.631
13.992
17.321
20.609
23.853
27.06
30.251
33.455
36.688
39.963
43.293
46.688
50.168
53.756
57.466
61.311
65.3
69.437
73.729
78.177
82.776
87.521
92.401
97.402
102.515
107.728
113.03
118.407
123.844
129.326
134.837
140.361
145.878
151.369
156.813
162.186
167.468
172.636
177.667
182.538
187.227
191.712
195.971
199.983
203.728
207.187
210.342
213.175
215.672
217.819
219.603
221.013
222.042
222.682
222.929
222.781
222.234
221.291
219.954
218.226
216.114
213.624
210.765
207.547
203.981
200.081
195.86
191.335
186.521
181.436
176.097
170.524
164.735
158.751
152.589
146.271
139.816
133.243
126.574
119.826
113.019
106.172
99.301
92.426
85.561
78.723
71.926
65.185
58.513
51.922
45.424
39.031
32.751
26.595
20.57
14.686
8.948
3.364
-2.063
-7.327
-12.423
-17.35
-22.105
-26.685
-31.09
-35.319
-39.373
-43.252
-46.959
-50.495
-53.864
-57.069
-60.114
-63.004
-65.743
-68.337
-70.792
-73.113
-75.307
-77.381
-79.342
-81.196
-82.953
-84.62
-86.205
-87.715
-89.161
-90.55
-91.89
-93.19
-94.459
-95.705
-96.936
-98.161
-99.388
-100.624
-101.877
-103.154
-104.461
-105.805
-107.19
-108.621
-110.104
-111.641
-113.235
-114.889
-116.606
-118.387
-120.232
-122.141
-124.115
-126.152
-128.249
-130.405
-132.615
-134.876
-137.184
-139.534
-141.919
-144.335
-146.775
-149.232
-151.7
-154.17
-156.635
-159.086
-161.515
-163.914
-166.273
-168.584
-170.84
-173.03
-175.148
-177.184
-179.131
-180.981
-182.725
-184.355
-185.864
-187.245
-188.49
-189.593
-190.547
-191.347
-191.988
-192.466
-192.777
-192.916
-192.881
-192.67
-192.28
-191.709
-190.955
-190.018
-188.897
-187.593
-186.106
-184.438
-182.591
-180.566
-178.367
-175.997
-173.459
-170.757
-167.895
-164.879
-161.714
-158.408
-154.967
-151.401
-147.717
-143.926
-140.037
-136.062
-132.011
-127.895
-123.723
-119.509
-115.264
-110.999
-106.727
-102.461
-98.216
-94.008
-89.854
-85.77
-81.773
-77.879
-74.105
-70.466
-66.974
-63.641
-60.476
-57.49
-54.696
-52.105
-49.726
-47.567
-45.633
-43.928
-42.456
-41.216
-40.204
-39.409
-38.824
-38.444
-38.275
-38.331
-38.619
-39.138
-39.883
-40.847
-42.018
-43.381
-44.904
-46.536
-48.229
-49.938
-51.624
-53.262
-54.808
-56.205
-57.388
-58.278
-58.808
-58.938
-58.639
-57.886
-56.687
-55.059
-53.036
-50.724
-48.236
-45.687
-43.223
-40.961
-38.998
-37.495
-36.677
-36.687
-37.571
-39.171
-41.071
-42.857
-44.225
-44.787
-44.039
-41.601
-37.405
-31.982
-26.533
-22.389
-20.443
-21.365
-26.075
-35.031
-47.73
-62.689
-76.008
-83.308
-82.381
-70.346
-46.207
-9.467
43.854
112.817
196.494
294.216
399.442
511.822
628.888
740.241
836.882
901.891
917.498
879.294
787.88
651.619
489.503
317.801
153.53
17.035
-80.055
-133.163
-143.924
-125.552
-93.62
-59.762
-35.496
-26.145
-30.323
-45.142
-62.149
-73.111
-75.604
-70.524
-63.096
-58.044
-55.77
-54.672
-52.54
-49.04
-45.882
-44.582
-45.644
-48.47
-52.485
-57.669
-63.92
-70.683
-76.928
-81.824
-85.355
-88.171
-90.781
-93.307
-95.689
-97.86
-99.984
-102.247
-104.523
-106.42
-107.591
-107.867
-107.232
-105.792
-103.599
-100.652
-97.008
-92.77
-88.046
-82.936
-77.505
-71.787
-65.83
-59.687
-53.404
-47.031
-40.604
-34.143
-27.663
-21.17
-14.658
-8.128
-1.591
4.943
11.458
17.944
24.393
30.793
37.13
43.392
49.566
55.645
61.62
67.481
73.211
78.793
84.21
89.447
94.492
99.332
103.957
108.354
112.514
116.428
120.087
123.483
126.606
129.446
131.992
134.237
136.174
137.794
139.091
140.061
140.698
140.999
140.962
140.585
139.868
138.809
137.41
135.671
133.596
131.187
128.448
125.383
122
118.305
114.305
110.011
105.431
100.578
95.463
90.098
84.498
78.678
72.653
66.438
60.053
53.514
46.841
40.052
33.167
26.206
19.188
12.134
5.062
-2.009
-9.058
-16.068
-23.021
-29.897
-36.679
-43.351
-49.895
-56.296
-62.538
-68.607
-74.49
-80.173
-85.644
-90.895
-95.913
-100.692
-105.224
-109.501
-113.52
-117.276
-120.765
-123.986
-126.938
-129.621
-132.036
-134.186
-136.072
-137.7
-139.071
-140.192
-141.068
-141.705
-142.108
-142.286
-142.245
-141.994
-141.541
-140.894
-140.064
-139.058
-137.888
-136.562
-135.091
-133.484
-131.751
-129.902
-127.947
-125.894
-123.753
-121.532
-119.24
-116.884
-114.472
-112.011
-109.507
-106.967
-104.397
-101.803
-99.19
-96.563
-93.929
-91.291
-88.655
-86.026
-83.407
-80.804
-78.219
-75.657
-73.122
-70.615
-68.14
-65.7
-63.297
-60.932
-58.608
-56.327
-54.088
-51.894
-49.747
-47.647
-45.597
-43.597
-41.65
-39.757
-37.921
-36.144
-34.427
-32.774
-31.186
-29.665
-28.212
-26.83
-25.518
-24.278
-23.111
-22.015
-20.992
-20.04
-19.159
-18.346
-17.601
-16.92
-16.303
-15.746
-15.246
-14.801
-14.407
-14.062
-13.762
-13.502
-13.279
-13.087
-12.922
-12.778
-12.647
-12.524
-12.399
-12.266
-12.116
-11.94
-11.731
-11.479
-11.177
-10.815
-10.387
-9.884
-9.3
-8.626
-7.857
-6.987
-6.011
-4.925
-3.726
-2.412
-0.979
0.572
2.241
4.029
5.933
7.952
10.084
12.324
14.668
17.109
19.641
22.255
24.941
27.684
30.469
33.282
36.104
38.921
41.712
44.46
47.146
49.758
52.28
54.698
56.996
59.156
61.164
63.004
64.666
66.137
67.408
68.466
69.309
69.938
70.356
70.562
70.546
70.291
69.784
69.023
68.007
66.741
65.234
63.497
61.562
59.479
57.298
55.067
52.824
50.589
48.405
46.321
44.4
42.721
41.337
40.286
39.61
39.334
39.454
39.945
40.732
41.71
42.792
43.879
44.866
45.665
46.165
46.282
45.911
44.867
43.029
40.4
37.122
33.523
29.995
26.853
24.501
23.563
24.547
27.612
32.347
37.852
43.188
47.482
49.957
49.579
45.073
37.211
29.127
23.769
24.71
31.833
40.384
50.891
66.428
94.194
147.794
231.716
344.122
479.321
623.259
765.347
894.587
996.522
1058.359
1065.726
1011.53
898.588
738.574
553.278
365.593
197.12
64.431
-24.735
-70.425
-79.197
-61.029
-28.738
6.385
34.014
46.237
43.261
29.924
15.545
8.906
11.878
21.775
32.35
38.83
40.686
38.945
35.447
31.073
25.229
17.677
8.958
-0.405
-9.811
-18.472
-25.926
-31.871
-36.023
-38.706
-40.769
-42.731
-44.944
-47.765
-51.224
-55.279
-59.891
-64.717
-69.275
-73.289
-76.6
-79.123
-80.924
-82.048
-82.52
-82.446
-81.939
-81.071
-79.891
-78.424
-76.68
-74.704
-72.568
-70.327
-68.03
-65.707
-63.374
-61.04
-58.71
-56.377
-54.022
-51.63
-49.194
-46.709
-44.175
-41.592
-38.953
-36.245
-33.459
-30.581
-27.599
-24.503
-21.286
-17.943
-14.473
-10.88
-7.166
-3.335
0.611
4.67
8.84
13.116
17.496
21.974
26.544
31.199
35.926
40.714
45.55
50.42
55.308
60.198
65.073
69.914
74.704
79.422
84.049
88.565
92.948
97.178
101.235
105.099
108.75
112.172
115.345
118.255
120.886
123.226
125.265
126.992
128.398
129.479
130.228
130.642
130.721
130.463
129.869
128.944
127.69
126.116
124.228
122.036
119.551
116.784
113.75
110.461
106.935
103.186
99.232
95.09
90.778
86.314
81.717
77.005
72.195
67.305
62.352
57.352
52.319
47.268
42.212
37.162
32.13
27.125
22.156
17.232
12.359
7.545
2.794
-1.889
-6.499
-11.032
-15.487
-19.861
-24.153
-28.361
-32.484
-36.524
-40.48
-44.353
-48.145
-51.855
-55.486
-59.038
-62.514
-65.914
-69.239
-72.49
-75.667
-78.769
-81.795
-84.745
-87.615
-90.404
-93.107
-95.722
-98.243
-100.665
-102.985
-105.197
-107.296
-109.275
-111.132
-112.859
-114.452
-115.906
-117.217
-118.379
-119.39
-120.244
-120.939
-121.471
-121.837
-122.036
-122.066
-121.927
-121.616
-121.136
-120.486
-119.668
-118.684
-117.539
-116.234
-114.776
-113.169
-111.421
-109.538
-107.528
-105.4
-103.164
-100.829
-98.405
-95.904
-93.336
-90.713
-88.045
-85.344
-82.622
-79.889
-77.157
-74.437
-71.74
-69.077
-66.457
-63.892
-61.389
-58.958
-56.606
-54.341
-52.171
-50.101
-48.136
-46.281
-44.541
-42.917
-41.413
-40.03
-38.768
-37.627
-36.605
-35.699
-34.906
-34.222
-33.641
-33.157
-32.763
-32.451
-32.215
-32.046
-31.936
-31.874
-31.852
-31.86
-31.888
-31.927
-31.965
-31.993
-32.002
-31.982
-31.926
-31.826
-31.674
-31.462
-31.187
-30.842
-30.424
-29.93
-29.356
-28.701
-27.966
-27.152
-26.262
-25.298
-24.267
-23.177
-22.036
-20.859
-19.656
-18.441
-17.23
-16.038
-14.88
-13.773
-12.731
-11.766
-10.894
-10.127
-9.485
-8.986
-8.643
-8.472
-8.487
-8.7
-9.124
-9.768
-10.632
-11.714
-13.017
-14.547
-16.322
-18.359
-20.659
-23.227
-26.06
-29.147
-32.473
-36.008
-39.7
-43.495
-47.345
-51.203
-55.041
-58.829
-62.517
-66.045
-69.345
-72.348
-75.015
-77.309
-79.184
-80.641
-81.705
-82.442
-82.973
-83.398
-83.796
-84.272
-84.934
-85.887
-87.262
-89.144
-91.625
-94.904
-99.073
-104.068
-109.702
-115.513
-120.989
-125.779
-129.418
-131.217
-130.778
-128.133
-123.795
-119.001
-114.89
-112.155
-111.558
-114.065
-120.379
-129.081
-136.583
-138.952
-132.102
-116.334
-96.182
-71.547
-40.89
0.964
66.141
158.002
274.799
412.507
556.202
692.369
808.045
887.114
918.415
894.416
813.969
683.658
518.132
338.623
165.61
19.961
-84.054
-144.646
-164.903
-156.132
-134.122
-109.199
-91.301
-86.059
-91.172
-103.132
-115.191
-120.679
-118.928
-112.322
-105.533
-102.411
-102.938
-104.926
-105.406
-102.912
-97.836
-91.097
-83.775
-76.497
-69.559
-63.48
-58.816
-55.84
-54.596
-54.966
-56.715
-59.664
-63.667
-68.509
-73.957
-79.802
-85.838
-91.871
-97.73
-103.268
-108.385
-113.014
-117.117
-120.673
-123.684
-126.174
-128.192
-129.789
-131.007
-131.884
-132.455
-132.772
-132.894
-132.887
-132.811
-132.704
-132.583
-132.454
-132.313
-132.146
-131.931
-131.635
-131.214
-130.636
-129.874
-128.906
-127.712
-126.27
-124.558
-122.553
-120.237
-117.596
-114.621
-111.305
-107.643
-103.637
-99.293
-94.619
-89.63
-84.339
-78.758
-72.904
-66.793
-60.443
-53.877
-47.116
-40.186
-33.113
-25.926
-18.656
-11.337
-4.002
3.315
10.579
17.755
24.807
31.703
38.406
44.884
51.104
57.034
62.644
67.904
72.787
77.268
81.323
84.93
88.071
90.73
92.893
94.549
95.692
96.315
96.416
95.997
95.062
93.616
91.669
89.234
86.325
82.96
79.16
74.947
70.346
65.384
60.089
54.49
48.619
42.508
36.188
29.692
23.055
16.31
9.49
2.628
-4.242
-11.089
-17.881
-24.587
-31.18
-37.63
-43.912
-50.002
-55.877
-61.515
-66.899
-72.011
-76.835
-81.36
-85.575
-89.47
-93.039
-96.278
-99.183
-101.755
-103.994
-105.904
-107.488
-108.753
-109.706
-110.355
-110.71
-110.78
-110.579
-110.116
-109.406
-108.462
-107.297
-105.924
-104.359
-102.616
-100.707
-98.647
-96.45
-94.128
-91.695
-89.163
-86.543
-83.846
-81.085
-78.267
-75.403
-72.502
-69.571
-66.617
-63.648
-60.67
-57.687
-54.706
-51.731
-48.766
-45.815
-42.882
-39.971
-37.084
-34.226
-31.398
-28.604
-25.848
-23.131
-20.457
-17.829
-15.25
-12.724
-10.253
-7.841
-5.492
-3.209
-0.995
1.145
3.208
5.189
7.086
8.894
10.609
12.228
13.748
15.164
16.475
17.677
18.769
19.748
20.614
21.365
22.001
22.524
22.933
23.232
23.422
23.507
23.491
23.379
23.175
22.887
22.52
22.081
21.577
21.017
20.409
19.762
19.084
18.386
17.678
16.971
16.274
15.599
14.956
14.355
13.807
13.321
12.909
12.579
12.339
12.199
12.165
12.246
12.448
12.775
13.231
13.819
14.543
15.401
16.395
17.522
18.779
20.163
21.67
23.295
25.031
26.871
28.807
30.829
32.929
35.092
37.305
39.552
41.816
44.08
46.327
48.54
50.699
52.787
54.79
56.695
58.488
60.154
61.678
63.043
64.235
65.243
66.056
66.664
67.058
67.233
67.195
66.947
66.491
65.825
64.932
63.801
62.431
60.818
58.964
56.886
54.596
52.127
49.53
46.85
44.136
41.428
38.75
36.134
33.627
31.274
29.146
27.3
25.772
24.613
23.85
23.462
23.413
23.628
23.991
24.437
24.878
25.206
25.345
25.191
24.646
23.656
22.071
19.67
16.393
12.257
7.458
2.523
-2.074
-5.93
-8.404
-8.867
-7.103
-3.106
2.594
8.554
13.41
16.046
14.917
9.843
2.587
-5.449
-11.932
-16.244
-21.205
-25.885
-26.124
-13.219
25.589
95.125
192.76
309.869
433.356
556.329
674.138
779.028
861.525
905.657
896.503
830.288
710.989
553.456
380.381
211.467
66.864
-38.727
-103.559
-132.091
-137.536
-135.903
-133.919
-132.866
-129.36
-118.346
-100.947
-81.46
-64.367
-53.749
-50.653
-54.616
-64.979
-80.008
-97.736
-116.081
-132.87
-147.029
-158.135
-165.686
-169.619
-170.315
-168.394
-165.04
-161.586
-158.704
-156.747
-156.049
-156.632
-158.44
-161.375
-164.998
-168.77
-172.385
-175.604
-178.239
-180.256
-181.596
-182.198
-182.105
-181.371
-180.02
-178.094
-175.616
-172.588
-169.043
-165.019
-160.556
-155.719
-150.572
-145.184
-139.629
-133.964
-128.228
-122.458
-116.678
-110.906
-105.156
-99.429
-93.717
-88.02
-82.336
-76.666
-71.008
-65.355
-59.697
-54.028
-48.342
-42.634
-36.904
-31.148
-25.366
-19.56
-13.733
-7.89
-2.039
3.815
9.669
15.516
21.352
27.169
32.961
38.721
44.441
50.112
55.722
61.26
66.713
72.066
77.305
82.414
87.379
92.181
96.805
101.235
105.454
109.446
113.196
116.687
119.907
122.841
125.477
127.804
129.81
131.488
132.829
133.828
134.479
134.779
134.728
134.323
133.567
132.463
131.016
129.231
127.117
124.684
121.942
118.906
115.591
112.014
108.191
104.143
99.89
95.452
90.853
86.115
81.26
76.311
71.293
66.227
61.138
56.047
50.977
45.949
40.984
36.102
31.321
26.66
22.135
17.762
13.556
9.529
5.693
2.059
-1.364
-4.568
-7.547
-10.298
-12.815
-15.099
-17.148
-18.964
-20.55
-21.91
-23.048
-23.971
-24.687
-25.203
-25.529
-25.673
-25.647
-25.46
-25.123
-24.649
-24.049
-23.333
-22.515
-21.604
-20.614
-19.555
-18.438
-17.274
-16.073
-14.844
-13.598
-12.342
-11.084
-9.833
-8.594
-7.374
-6.179
-5.012
-3.878
-2.78
-1.721
-0.702
0.274
1.208
2.097
2.943
3.745
4.504
5.22
5.894
6.528
7.122
7.677
8.194
8.676
9.123
9.536
9.916
10.264
10.581
10.866
11.121
11.344
11.535
11.692
11.816
11.902
11.951
11.959
11.924
11.842
11.712
11.529
11.29
10.993
10.633
10.207
9.713
9.149
8.512
7.801
7.014
6.151
5.211
4.195
3.104
1.938
0.699
-0.611
-1.988
-3.43
-4.931
-6.488
-8.093
-9.741
-11.423
-13.131
-14.858
-16.594
-18.328
-20.052
-21.753
-23.421
-25.045
-26.613
-28.114
-29.536
-30.866
-32.095
-33.211
-34.205
-35.068
-35.791
-36.368
-36.79
-37.055
-37.157
-37.093
-36.861
-36.458
-35.886
-35.145
-34.24
-33.172
-31.948
-30.574
-29.063
-27.426
-25.677
-23.828
-21.895
-19.894
-17.843
-15.758
-13.654
-11.545
-9.446
-7.375
-5.351
-3.391
-1.514
0.264
1.928
3.462
4.85
6.084
7.159
8.072
8.818
9.386
9.757
9.917
9.858
9.574
9.064
8.335
7.398
6.277
5.015
3.654
2.233
0.786
-0.669
-2.099
-3.468
-4.733
-5.843
-6.753
-7.438
-7.86
-7.997
-7.876
-7.534
-7.044
-6.513
-6.005
-5.605
-5.421
-5.525
-5.997
-6.931
-8.372
-10.433
-13.3
-17.003
-21.491
-26.63
-32.022
-37.242
-41.939
-45.541
-47.391
-47.269
-45.186
-41.326
-36.658
-32.356
-29.365
-29.028
-31.698
-35.733
-39.482
-42.304
-45.72
-52.666
-63.123
-70.847
-62.706
-27.017
39.103
129.815
229.695
325.918
417.481
506.01
593.444
675.652
733.387
746.289
703.242
601.583
455.634
290.248
126.92
-12.295
-112.555
-173.001
-197.542
-198.893
-193.546
-188.842
-187.501
-187.173
-181.887
-171.595
-159.545
-148.887
-143.132
-142.751
-145.981
-151.443
-157.586
-162.914
-166.39
-167.387
-165.846
-162.276
-157.437
-151.965
-146.373
-141.207
-136.992
-134.038
-132.428
-132.048
-132.629
-133.936
-135.798
-138.039
-140.482
-142.978
-145.362
-147.467
-149.2
-150.492
-151.291
-151.585
-151.349
-150.565
-149.255
-147.469
-145.259
-142.682
-139.784
-136.592
-133.155
-129.53
-125.785
-121.996
-118.215
-114.47
-110.783
-107.165
-103.624
-100.163
-96.767
-93.407
-90.06
-86.707
-83.336
-79.939
-76.5
-73
-69.419
-65.742
-61.954
-58.047
-54.013
-49.843
-45.534
-41.086
-36.503
-31.794
-26.965
-22.021
-16.97
-11.819
-6.577
-1.256
4.132
9.578
15.066
20.581
26.105
31.619
37.105
42.544
47.914
53.195
58.365
63.402
68.286
72.994
77.505
81.798
85.851
89.644
93.16
96.379
99.288
101.87
104.113
106.009
107.548
108.725
109.537
109.982
110.062
109.778
109.138
108.147
106.815
105.153
103.173
100.891
98.321
95.482
92.394
89.074
85.546
81.831
77.952
73.931
69.794
65.563
61.264
56.92
52.557
48.198
43.866
39.585
35.376
31.258
27.252
23.373
19.638
16.061
12.653
9.424
6.384
3.539
0.894
-1.549
-3.786
-5.818
-7.647
-9.275
-10.706
-11.945
-12.997
-13.87
-14.572
-15.11
-15.493
-15.73
-15.833
-15.81
-15.673
-15.432
-15.098
-14.683
-14.197
-13.649
-13.051
-12.411
-11.738
-11.039
-10.321
-9.591
-8.853
-8.112
-7.37
-6.63
-5.893
-5.159
-4.429
-3.701
-2.974
-2.246
-1.514
-0.776
-0.029
0.729
1.502
2.292
3.1
3.931
4.784
5.663
6.568
7.501
8.462
9.45
10.467
11.509
12.577
13.666
14.775
15.899
17.034
18.175
19.316
20.45
21.57
22.67
23.741
24.775
25.763
26.696
27.566
28.364
29.082
29.71
30.243
30.671
30.989
31.192
31.273
31.229
31.056
30.753
30.317
29.748
29.047
28.216
27.257
26.174
24.971
23.655
22.232
20.71
19.096
17.401
15.634
13.804
11.925
10.005
8.058
6.096
4.13
2.172
0.236
-1.669
-3.529
-5.334
-7.073
-8.737
-10.316
-11.802
-13.188
-14.467
-15.634
-16.684
-17.615
-18.424
-19.11
-19.673
-20.115
-20.438
-20.646
-20.742
-20.733
-20.625
-20.424
-20.138
-19.775
-19.344
-18.854
-18.313
