Name
Date of Birth,"Mar 27, 1959"
Recorded Date,2020-09-21 22:33:49 -0500
Classification,Sinus Rhythm
Symptoms,
Software Version,1.90
Device,"Watch4,2"
Sample Rate,510.227 hertz


Lead,Lead I
Unit,µV

-77.832
-84.23
-90.259
-95.751
-100.564
-104.583
-107.713
-109.889
-111.056
-111.171
-110.208
-108.156
-105.028
-100.855
-95.666
-89.491
-82.379
-74.386
-65.616
-56.219
-46.323
-36.043
-25.482
-14.723
-3.855
7.03
17.857
28.556
39.066
49.32
59.231
68.702
77.643
85.952
93.565
100.453
106.569
111.887
116.386
120.04
122.848
124.81
125.918
126.166
125.55
124.079
121.787
118.708
114.881
110.368
105.208
99.441
93.118
86.255
78.866
70.972
62.577
53.701
44.374
34.629
24.514
14.079
3.376
-7.522
-18.536
-29.594
-40.602
-51.481
-62.16
-72.534
-82.508
-92.001
-100.927
-109.225
-116.849
-123.759
-129.938
-135.39
-140.129
-144.202
-147.676
-150.619
-153.13
-155.292
-157.179
-158.885
-160.488
-162.052
-163.639
-165.292
-167.041
-168.914
-170.925
-173.073
-175.352
-177.737
-180.189
-182.665
-185.104
-187.456
-189.683
-191.745
-193.614
-195.276
-196.715
-197.931
-198.934
-199.73
-200.33
-200.752
-201.009
-201.121
-201.115
-201.017
-200.861
-200.673
-200.472
-200.275
-200.093
-199.931
-199.796
-199.686
-199.594
-199.515
-199.445
-199.379
-199.315
-199.247
-199.17
-199.078
-198.965
-198.826
-198.656
-198.453
-198.214
-197.936
-197.617
-197.256
-196.854
-196.41
-195.924
-195.394
-194.82
-194.2
-193.535
-192.826
-192.071
-191.272
-190.43
-189.545
-188.621
-187.661
-186.665
-185.639
-184.584
-183.506
-182.408
-181.293
-180.167
-179.033
-177.896
-176.758
-175.624
-174.497
-173.38
-172.278
-171.193
-170.128
-169.087
-168.072
-167.087
-166.134
-165.215
-164.332
-163.486
-162.678
-161.911
-161.184
-160.498
-159.855
-159.254
-158.695
-158.179
-157.705
-157.273
-156.881
-156.529
-156.215
-155.938
-155.695
-155.485
-155.306
-155.156
-155.034
-154.936
-154.862
-154.809
-154.776
-154.76
-154.758
-154.77
-154.793
-154.825
-154.865
-154.911
-154.962
-155.016
-155.074
-155.133
-155.194
-155.254
-155.312
-155.368
-155.419
-155.464
-155.502
-155.53
-155.547
-155.551
-155.541
-155.516
-155.473
-155.41
-155.327
-155.221
-155.091
-154.934
-154.749
-154.535
-154.287
-154.006
-153.689
-153.334
-152.937
-152.497
-152.011
-151.477
-150.893
-150.254
-149.558
-148.803
-147.985
-147.103
-146.154
-145.135
-144.045
-142.88
-141.64
-140.326
-138.94
-137.483
-135.956
-134.357
-132.688
-130.95
-129.148
-127.283
-125.356
-123.369
-121.329
-119.249
-117.144
-115.03
-112.918
-110.815
-108.73
-106.676
-104.671
-102.734
-100.877
-99.111
-97.449
-95.909
-94.515
-93.29
-92.241
-91.363
-90.643
-90.066
-89.628
-89.333
-89.19
-89.193
-89.322
-89.544
-89.829
-90.171
-90.595
-91.129
-91.76
-92.455
-93.16
-93.886
-94.767
-95.852
-97.002
-97.915
-98.229
-97.798
-96.867
-95.697
-94.242
-92.602
-91.174
-90.807
-92.777
-97.789
-105.381
-114.633
-124.87
-135.199
-144.626
-151.659
-153.948
-150.033
-140.376
-126.45
-109.957
-92.961
-77.152
-64.276
-56.982
-56.915
-63.634
-75.662
-90.871
-106.548
-120.73
-132.093
-138.839
-140.127
-136.845
-130.166
-121.684
-113.764
-107.835
-104.03
-102.282
-101.356
-98.324
-90.733
-76.338
-51.688
-14.027
37.654
103.642
180.971
262.935
343.895
419.848
489.615
554.428
613.131
659.323
678.505
656.696
585.313
462.801
305.971
137.753
-18.274
-136.145
-207.321
-234.811
-229.005
-210.751
-192.13
-177.492
-166.97
-154.301
-138.397
-122.097
-108.036
-100.124
-99.101
-102.869
-109.594
-116.884
-122.559
-125.835
-126.403
-124.308
-120.2
-114.796
-108.664
-102.503
-97.027
-92.542
-89.139
-86.769
-85.155
-84.067
-83.357
-82.831
-82.324
-81.772
-81.099
-80.243
-79.195
-77.903
-76.363
-74.647
-72.808
-70.913
-69.028
-67.191
-65.45
-63.867
-62.465
-61.238
-60.157
-59.159
-58.218
-57.347
-56.546
-55.819
-55.136
-54.422
-53.614
-52.663
-51.514
-50.126
-48.458
-46.465
-44.148
-41.545
-38.709
-35.717
-32.613
-29.409
-26.119
-22.755
-19.342
-15.922
-12.527
-9.185
-5.93
-2.802
0.168
2.962
5.596
8.126
10.62
13.163
15.815
18.609
21.578
24.752
28.162
31.838
35.807
40.093
44.73
49.763
55.223
61.121
67.428
74.086
81.024
88.153
95.411
102.749
110.114
117.458
124.727
131.868
138.846
145.624
152.154
158.381
164.255
169.74
174.843
179.581
183.97
188.031
191.756
195.125
198.133
200.779
203.058
204.967
206.474
207.54
208.139
208.242
207.827
206.871
205.319
203.12
200.249
196.691
192.461
187.593
182.094
175.962
169.213
161.87
153.99
145.655
136.941
127.939
118.737
109.416
100.085
90.84
81.754
72.879
64.258
55.918
47.915
40.322
33.189
26.554
20.425
14.782
9.605
4.859
0.507
-3.486
-7.17
-10.59
-13.771
-16.728
-19.472
-22.016
-24.398
-26.665
-28.843
-30.938
-32.942
-34.833
-36.593
-38.201
-39.638
-40.876
-41.881
-42.626
-43.101
-43.304
-43.231
-42.867
-42.181
-41.152
-39.797
-38.155
-36.279
-34.209
-31.976
-29.61
-27.142
-24.616
-22.079
-19.569
-17.106
-14.715
-12.426
-10.29
-8.367
-6.688
-5.246
-3.998
-2.906
-1.946
-1.107
-0.381
0.249
0.811
1.325
1.799
2.234
2.638
3.035
3.467
3.98
4.596
5.304
6.072
6.873
7.695
8.532
9.376
10.214
11.031
11.823
12.6
13.373
14.145
14.908
15.642
16.33
16.963
17.549
18.102
18.634
19.149
19.651
20.147
20.646
21.153
21.667
22.176
22.672
23.149
23.604
24.041
24.458
24.854
25.225
25.568
25.879
26.158
26.401
26.605
26.765
26.88
26.95
26.976
26.961
26.906
26.813
26.68
26.512
26.308
26.071
25.8
25.497
25.162
24.798
24.408
23.993
23.558
23.105
22.638
22.163
21.683
21.202
20.725
20.256
19.798
19.356
18.932
18.529
18.148
17.791
17.459
17.152
16.871
16.616
16.386
16.181
16.001
15.844
15.711
15.6
15.511
15.443
15.396
15.369
15.361
15.37
15.397
15.44
15.497
15.567
15.645
15.731
15.821
15.912
16.002
16.086
16.163
16.23
16.285
16.327
16.357
16.375
16.382
16.382
16.376
16.367
16.357
16.349
16.343
16.342
16.345
16.353
16.366
16.383
16.409
16.444
16.491
16.553
16.631
16.729
16.85
16.996
17.167
17.361
17.578
17.821
18.096
18.408
18.751
19.122
19.513
19.912
20.307
20.68
21.001
21.241
21.374
21.378
21.248
20.979
20.568
20.009
19.295
18.428
17.435
16.342
15.172
13.952
12.706
11.473
10.326
9.328
8.527
7.966
7.656
7.602
7.82
8.317
9.085
10.1
11.302
12.621
14.015
15.439
16.856
18.215
19.415
20.372
21.032
21.338
21.267
20.795
19.865
18.431
16.468
13.963
10.948
7.481
3.595
-0.691
-5.373
-10.453
-15.885
-21.625
-27.631
-33.878
-40.416
-47.192
-53.983
-60.431
-66.021
-70.269
-72.872
-73.51
-71.713
-67.237
-60.163
-51.002
-40.926
-31.078
-22.197
-15.031
-10.344
-8.508
-9.324
-11.636
-13.076
-11.084
-3.173
13.307
40.83
81.886
136.875
202.899
276.277
352.632
429.884
511.382
597.49
681.985
753.792
793.611
784.219
721.701
609.19
455.829
277.049
85.985
-101.324
-259.871
-368.166
-415.477
-403.953
-353.659
-290.829
-231.78
-182.731
-140.616
-97.956
-53.677
-12.032
21.242
41.002
46.722
40.986
27.477
10.263
-7.707
-23.815
-35.759
-42.529
-43.964
-40.613
-33.886
-25.313
-16.26
-8.259
-2.441
0.743
1.158
-0.92
-4.887
-10.15
-16.088
-22.018
-27.513
-32.378
-36.481
-39.811
-42.386
-44.19
-45.274
-45.726
-45.586
-44.877
-43.638
-41.91
-39.787
-37.402
-34.865
-32.26
-29.651
-27.076
-24.577
-22.201
-19.975
-17.91
-16.005
-14.252
-12.649
-11.195
-9.872
-8.644
-7.466
-6.283
-5.053
-3.743
-2.328
-0.789
0.893
2.731
4.732
6.899
9.232
11.736
14.418
17.287
20.346
23.593
27.025
30.638
34.429
38.394
42.529
46.827
51.284
55.893
60.648
65.543
70.568
75.71
80.954
86.285
91.685
97.136
102.617
108.108
113.586
119.031
124.421
129.733
134.946
140.037
144.983
149.764
154.358
158.745
162.905
166.817
170.463
173.826
176.888
179.633
182.047
184.117
185.829
187.173
188.141
188.725
188.92
188.722
188.13
187.143
185.764
183.996
181.846
179.32
176.428
173.181
169.592
165.675
161.446
156.921
152.12
147.062
141.767
136.256
130.548
124.665
118.628
112.459
106.181
99.814
93.382
86.908
80.418
73.936
67.487
61.093
54.773
48.55
42.443
36.471
30.651
24.996
19.52
14.239
9.172
4.337
-0.255
-4.601
-8.703
-12.562
-16.179
-19.557
-22.702
-25.629
-28.344
-30.847
-33.125
-35.165
-36.964
-38.53
-39.879
-41.03
-41.988
-42.751
-43.31
-43.669
-43.831
-43.792
-43.536
-43.042
-42.303
-41.347
-40.223
-38.983
-37.66
-36.272
-34.826
-33.335
-31.822
-30.32
-28.852
-27.435
-26.086
-24.835
-23.733
-22.837
-22.175
-21.733
-21.467
-21.332
-21.307
-21.38
-21.547
-21.791
-22.092
-22.43
-22.8
-23.204
-23.632
-24.063
-24.453
-24.756
-24.952
-25.051
-25.086
-25.086
-25.065
-25.032
-24.993
-24.966
-24.966
-24.997
-25.05
-25.116
-25.191
-25.284
-25.415
-25.602
-25.852
-26.158
-26.505
-26.88
-27.278
-27.692
-28.113
-28.531
-28.936
-29.327
-29.712
-30.094
-30.476
-30.856
-31.225
-31.581
-31.921
-32.244
-32.55
-32.837
-33.103
-33.349
-33.575
-33.782
-33.971
-34.14
-34.285
-34.405
-34.498
-34.564
-34.602
-34.613
-34.596
-34.553
-34.485
-34.395
-34.285
-34.158
-34.015
-33.857
-33.689
-33.512
-33.33
-33.144
-32.958
-32.774
-32.598
-32.431
-32.278
-32.143
-32.028
-31.939
-31.879
-31.851
-31.859
-31.906
-31.995
-32.127
-32.307
-32.534
-32.81
-33.136
-33.511
-33.936
-34.41
-34.932
-35.499
-36.108
-36.758
-37.445
-38.167
-38.918
-39.696
-40.495
-41.311
-42.141
-42.977
-43.816
-44.652
-45.478
-46.289
-47.08
-47.843
-48.574
-49.265
-49.911
-50.505
-51.043
-51.519
-51.928
-52.265
-52.527
-52.71
-52.812
-52.831
-52.764
-52.612
-52.372
-52.047
-51.637
-51.143
-50.568
-49.914
-49.186
-48.388
-47.524
-46.602
-45.628
-44.609
-43.554
-42.472
-41.373
-40.268
-39.167
-38.084
-37.029
-36.015
-35.052
-34.152
-33.326
-32.584
-31.936
-31.391
-30.96
-30.652
-30.477
-30.443
-30.557
-30.821
-31.237
-31.806
-32.528
-33.405
-34.439
-35.629
-36.973
-38.471
-40.12
-41.917
-43.847
-45.882
-47.989
-50.137
-52.294
-54.437
-56.538
-58.568
-60.496
-62.288
-63.913
-65.347
-66.565
-67.536
-68.237
-68.652
-68.8
-68.754
-68.596
-68.411
-68.268
-68.201
-68.261
-68.541
-69.135
-70.125
-71.573
-73.483
-75.921
-79.082
-83.032
-87.66
-92.611
-97.25
-101.034
-103.609
-104.477
-103.003
-98.923
-92.4
-84.377
-76.478
-69.8
-65.308
-64.329
-67.721
-75.741
-86.407
-94.682
-97.242
-92.498
-80.975
-66.407
-44.476
-7.295
49.683
133.144
237.387
349.625
465.548
575.689
671.526
748.365
789.341
779.565
716.688
601.132
443.788
267.513
89.982
-68.96
-186.457
-256.707
-281.792
-272.018
-249.603
-226.105
-204.537
-184.542
-159.887
-130.458
-100.801
-74.523
-55.609
-45.343
-42.769
-46.559
-54.285
-63.148
-70.988
-76.612
-79.808
-80.566
-78.634
-74.103
-67.584
-60.319
-53.832
-48.972
-45.942
-44.787
-45.565
-48.292
-52.881
-58.891
-65.581
-72.398
-79.005
-85.217
-90.962
-96.13
-100.575
-104.203
-107.011
-109.024
-110.268
-110.755
-110.468
-109.41
-107.625
-105.206
-102.277
-98.97
-95.414
-91.7
-87.889
-84.044
-80.214
-76.453
-72.802
-69.271
-65.855
-62.554
-59.374
-56.32
-53.392
-50.564
-47.799
-45.059
-42.305
-39.511
-36.659
-33.735
-30.724
-27.619
-24.414
-21.11
-17.715
-14.235
-10.666
-7.005
-3.246
0.62
4.591
8.66
12.816
17.046
21.337
25.679
30.056
34.449
38.849
43.247
47.651
52.076
56.527
61
65.481
69.944
74.373
78.768
83.124
87.446
91.736
95.99
100.22
104.456
108.7
112.937
117.128
121.2
125.101
128.795
132.257
135.473
138.419
141.056
143.354
145.287
146.823
147.935
148.572
148.662
148.168
147.085
145.439
143.298
140.712
137.708
134.315
130.557
126.464
122.074
117.416
112.504
107.367
102.04
96.577
91.057
85.531
80.024
74.539
69.054
63.558
58.059
52.559
47.06
41.57
36.093
30.646
25.263
19.965
14.762
9.659
4.642
-0.287
-5.114
-9.821
-14.377
-18.759
-22.952
-26.938
-30.697
-34.216
-37.486
-40.506
-43.285
-45.829
-48.138
-50.215
-52.058
-53.67
-55.058
-56.231
-57.198
-57.97
-58.558
-58.974
-59.235
-59.353
-59.342
-59.213
-58.974
-58.636
-58.209
-57.705
-57.133
-56.505
-55.829
-55.118
-54.381
-53.63
-52.872
-52.117
-51.371
-50.642
-49.935
-49.257
-48.612
-48.003
-47.433
-46.906
-46.424
-45.988
-45.598
-45.254
-44.956
-44.703
-44.492
-44.321
-44.188
-44.089
-44.021
-43.981
-43.966
-43.972
-43.998
-44.041
-44.097
-44.165
-44.242
-44.326
-44.414
-44.505
-44.596
-44.687
-44.775
-44.86
-44.942
-45.02
-45.093
-45.163
-45.229
-45.292
-45.351
-45.408
-45.462
-45.516
-45.569
-45.624
-45.682
-45.744
-45.813
-45.89
-45.977
-46.074
-46.183
-46.304
-46.436
-46.581
-46.737
-46.903
-47.078
-47.261
-47.449
-47.64
-47.833
-48.022
-48.206
-48.38
-48.541
-48.685
-48.807
-48.904
-48.973
-49.01
-49.013
-48.977
-48.901
-48.781
-48.616
-48.401
-48.136
-47.817
-47.442
-47.01
-46.519
-45.968
-45.357
-44.686
-43.956
-43.167
-42.321
-41.42
-40.467
-39.464
-38.417
-37.328
-36.203
-35.048
-33.868
-32.67
-31.461
-30.247
-29.034
-27.829
-26.636
-25.463
-24.313
-23.19
-22.1
-21.045
-20.03
-19.057
-18.13
-17.251
-16.422
-15.645
-14.921
-14.25
-13.633
-13.069
-12.556
-12.095
-11.684
-11.319
-10.998
-10.719
-10.476
-10.265
-10.08
-9.915
-9.764
-9.619
-9.474
-9.32
-9.153
-8.965
-8.751
-8.507
-8.227
-7.909
-7.55
-7.148
-6.7
-6.206
-5.667
-5.084
-4.458
-3.792
-3.09
-2.357
-1.599
-0.821
-0.03
0.766
1.56
2.344
3.107
3.843
4.54
5.19
5.781
6.302
6.743
7.093
7.342
7.479
7.492
7.371
7.105
6.69
6.123
5.399
4.513
3.461
2.238
0.846
-0.709
-2.426
-4.302
-6.33
-8.496
-10.774
-13.125
-15.515
-17.911
-20.282
-22.598
-24.826
-26.92
-28.839
-30.549
-32.026
-33.254
-34.213
-34.875
-35.228
-35.307
-35.184
-34.962
-34.745
-34.601
-34.589
-34.783
-35.281
-36.128
-37.364
-39.036
-41.152
-43.757
-46.979
-50.872
-55.33
-60.346
-65.733
-70.687
-74.597
-76.973
-76.78
-74.858
-72.273
-67.485
-60.866
-50.666
-34.502
-18.022
-5.069
-0.037
-8.391
-23.811
-39.179
-47.932
-41.175
-17.854
20.803
72.778
134.347
203.933
281.136
369.337
469.529
574.854
673.697
745.138
766.797
730.486
635.861
491.855
321.791
145.16
-16.915
-138.889
-212.546
-237.999
-225.281
-198.295
-170.342
-146.61
-127.278
-104.634
-77.759
-50.32
-25.579
-8.694
-1.49
-2.625
-10.597
-22.311
-34.268
-44.784
-52.975
-58.417
-61.167
-61.014
-57.993
-53.098
-47.9
-43.441
-40.174
-38.163
-37.219
-37.435
-38.915
-41.373
-44.248
-47.056
-49.5
-51.472
-53.029
-54.143
-54.726
-54.772
-54.327
-53.468
-52.277
-50.801
-49.038
-47.003
-44.727
-42.251
-39.636
-36.943
-34.221
-31.521
-28.878
-26.315
-23.855
-21.51
-19.289
-17.19
-15.202
-13.309
-11.498
-9.764
-8.098
-6.491
-4.924
-3.375
-1.828
-0.264
1.331
2.973
4.676
6.458
8.33
10.303
12.387
14.592
16.926
19.4
22.026
24.812
27.765
30.892
34.199
37.689
41.365
45.225
49.267
53.485
57.871
62.416
67.11
71.941
76.897
81.963
87.124
92.364
97.668
103.017
108.391
113.768
119.124
124.433
129.671
134.81
139.823
144.682
149.358
153.827
158.067
162.054
165.765
169.174
172.253
174.978
177.333
179.304
180.879
182.05
182.816
183.183
183.171
182.801
182.084
181.025
179.62
177.868
175.77
173.331
170.554
167.432
163.956
160.124
155.94
151.408
146.524
141.265
135.587
129.459
122.874
115.845
108.407
100.593
92.447
84.023
75.394
66.656
57.897
49.191
40.593
32.161
23.965
16.101
8.681
1.799
-4.481
-10.12
-15.099
-19.401
-23.03
-26.016
-28.421
-30.335
-31.834
-32.968
-33.777
-34.297
-34.577
-34.688
-34.712
-34.709
-34.724
-34.791
-34.935
-35.184
-35.545
-36.004
-36.519
-37.033
-37.506
-37.917
-38.258
-38.524
-38.707
-38.788
-38.752
-38.6
-38.332
-37.951
-37.456
-36.848
-36.134
-35.334
-34.482
-33.616
-32.761
-31.937
-31.154
-30.422
-29.75
-29.145
-28.61
-28.139
-27.731
-27.386
-27.104
-26.889
-26.74
-26.652
-26.619
-26.632
-26.686
-26.776
-26.896
-27.043
-27.212
-27.399
-27.604
-27.826
-28.064
-28.314
-28.573
-28.839
-29.106
-29.374
-29.637
-29.893
-30.14
-30.374
-30.596
-30.803
-30.997
-31.175
-31.339
-31.488
-31.623
-31.745
-31.853
-31.949
-32.035
-32.11
-32.178
-32.24
-32.298
-32.353
-32.408
-32.465
-32.527
-32.595
-32.672
-32.759
-32.859
-32.973
-33.104
-33.253
-33.422
-33.611
-33.823
-34.057
-34.314
-34.594
-34.896
-35.221
-35.565
-35.928
-36.309
-36.704
-37.112
-37.53
-37.956
-38.386
-38.817
-39.248
-39.674
-40.094
-40.504
-40.902
-41.286
-41.653
-42.002
-42.33
-42.636
-42.918
-43.173
-43.401
-43.601
-43.773
-43.915
-44.03
-44.117
-44.178
-44.215
-44.229
-44.225
-44.204
-44.17
-44.127
-44.079
-44.031
-43.988
-43.955
-43.939
-43.944
-43.975
-44.038
-44.136
-44.273
-44.453
-44.677
-44.947
-45.263
-45.627
-46.04
-46.502
-47.013
-47.575
-48.187
-48.851
-49.565
-50.327
-51.133
-51.978
-52.856
-53.761
-54.682
-55.613
-56.545
-57.47
-58.379
-59.267
-60.126
-60.946
-61.714
-62.414
-63.035
-63.568
-64.007
-64.346
-64.588
-64.738
-64.812
-64.829
-64.8
-64.728
-64.615
-64.448
-64.222
-63.931
-63.564
-63.123
-62.605
-62.008
-61.336
-60.593
-59.766
-58.836
-57.766
-56.512
-55.054
-53.389
-51.525
-49.496
-47.34
-45.103
-42.855
-40.653
-38.541
-36.567
-34.75
-33.112
-31.699
-30.567
-29.792
-29.463
-29.631
-30.328
-31.578
-33.361
-35.647
-38.376
-41.441
-44.752
-48.232
-51.811
-55.462
-59.154
-62.83
-66.428
-69.839
-72.941
-75.667
-77.948
-79.737
-81.068
-81.919
-82.312
-82.471
-82.554
-82.719
-83.18
-83.878
-84.697
-85.795
-87.269
-88.979
-90.991
-93.141
-95.034
-96.825
-98.536
-99.796
-100.484
-100.561
-99.574
-97.524
-94.962
-92.082
-89.502
-88.004
-87.757
-89.136
-93.214
-100.66
-109.789
-117.003
-118.707
-113.038
-103.397
-95.753
-90.656
-80.949
-53.51
3.376
92.509
204.467
322.989
437.831
542.543
632.822
706.668
751.813
753.126
705.285
607.539
468.69
308.472
143.337
-10.253
-133.401
-217.269
-258.404
-258.927
-231.809
-187.981
-138.13
-94.21
-61.584
-46.089
-47.821
-57.887
-70.084
-77.637
-78.037
-76.797
-76.417
-77.791
-80.939
-82.627
-81.664
-78.847
-74.78
-70.558
-67.051
-64.506
-63.057
-62.779
-63.45
-64.704
-66.307
-68.078
-69.847
-71.504
-72.927
-73.982
-74.615
-74.812
-74.554
-73.832
-72.632
-70.971
-68.914
-66.562
-64.055
-61.508
-59.001
-56.598
-54.343
-52.258
-50.369
-48.67
-47.131
-45.735
-44.47
-43.319
-42.285
-41.346
-40.455
-39.553
-38.557
-37.397
-36.03
-34.42
-32.541
-30.387
-27.963
-25.294
-22.436
-19.427
-16.29
-13.039
-9.669
-6.183
-2.594
1.087
4.85
8.683
12.585
16.553
20.58
24.666
28.82
33.061
37.424
41.937
46.611
51.449
56.446
61.594
66.885
72.304
77.82
83.396
88.998
94.597
100.178
105.729
111.231
116.663
122.001
127.221
132.32
137.293
142.134
146.835
151.387
155.793
160.073
164.262
168.387
172.455
176.458
180.375
184.193
187.895
191.458
194.845
197.992
200.835
203.321
205.402
207.029
208.138
208.651
208.483
207.568
205.867
203.359
200.037
195.886
190.899
185.087
178.484
171.164
163.205
154.681
145.679
136.294
126.647
116.864
107.069
97.359
87.814
78.502
69.487
60.843
52.638
44.927
37.752
31.123
25.045
19.511
14.496
9.953
5.812
2.002
-1.533
-4.829
-7.91
-10.8
-13.519
-16.1
-18.565
-20.944
-23.267
-25.553
-27.817
-30.064
-32.277
-34.428
-36.469
-38.361
-40.076
-41.601
-42.93
-44.062
-44.999
-45.743
-46.301
-46.678
-46.868
-46.867
-46.674
-46.294
-45.743
-45.046
-44.232
-43.329
-42.363
-41.352
-40.31
-39.248
-38.175
-37.095
-36.007
-34.916
-33.827
-32.75
-31.692
-30.659
-29.654
-28.678
-27.731
-26.812
-25.92
-25.052
-24.208
-23.387
-22.592
-21.824
-21.086
-20.38
-19.708
-19.071
-18.468
-17.9
-17.366
-16.865
-16.397
-15.96
-15.554
-15.18
-14.837
-14.525
-14.245
-13.996
-13.778
-13.592
-13.437
-13.313
-13.22
-13.157
-13.124
-13.122
-13.148
-13.203
-13.287
-13.397
-13.535
-13.697
-13.885
-14.096
-14.33
-14.585
-14.861
-15.155
-15.467
-15.795
-16.138
-16.495
-16.865
-17.247
-17.64
-18.042
-18.452
-18.87
-19.293
-19.72
-20.149
-20.579
-21.007
-21.433
-21.854
-22.27
-22.678
-23.078
-23.469
-23.849
-24.219
-24.577
-24.923
-25.256
-25.577
-25.886
-26.182
-26.465
-26.738
-27
-27.252
-27.495
-27.731
-27.961
-28.186
-28.406
-28.624
-28.84
-29.055
-29.272
-29.492
-29.716
-29.946
-30.185
-30.434
-30.695
-30.969
-31.259
-31.565
-31.889
-32.231
-32.592
-32.973
-33.375
-33.797
-34.239
-34.7
-35.18
-35.676
-36.188
-36.711
-37.243
-37.781
-38.32
-38.857
-39.387
-39.906
-40.409
-40.893
-41.351
-41.778
-42.17
-42.52
-42.823
-43.073
-43.265
-43.392
-43.449
-43.431
-43.335
-43.154
-42.886
-42.527
-42.074
-41.525
-40.879
-40.133
-39.288
-38.345
-37.306
-36.174
-34.954
-33.651
-32.272
-30.824
-29.318
-27.763
-26.17
-24.551
-22.917
-21.282
-19.658
-18.059
-16.497
-14.984
-13.534
-12.159
-10.874
-9.69
-8.62
-7.678
-6.873
-6.218
-5.719
-5.381
-5.206
-5.198
-5.36
-5.697
-6.215
-6.914
-7.794
-8.856
-10.096
-11.505
-13.063
-14.74
-16.504
-18.326
-20.178
-22.037
-23.88
-25.673
-27.386
-28.98
-30.421
-31.68
-32.725
-33.521
-34.042
-34.287
-34.291
-34.119
-33.838
-33.501
-33.139
-32.795
-32.535
-32.44
-32.599
-33.089
-33.95
-35.249
-37.128
-39.652
-42.749
-46.179
-49.44
-52.004
-53.494
-53.498
-51.501
-47.265
-40.885
-32.895
-24.569
-17.204
-11.677
-8.908
-9.758
-14.411
-22.322
-31.898
-40.109
-43.799
-40.112
-25.872
1.939
45.847
105.706
177.675
256.694
337.04
417.504
501.801
588.126
669.858
732.93
755.748
727.06
646.697
521.964
369.799
206.507
44.992
-97.6
-204.917
-269.472
-288.263
-271.091
-236.024
-192.421
-150.339
-112.893
-77.446
-48.552
-24.509
-4.521
9.626
21.063
27.464
26.861
20.671
8.92
-5.353
-18.744
-30.176
-38.472
-43.285
-45.038
-43.999
-40.756
-36.272
-31.587
-27.391
-24.136
-22.096
-21.229
-21.403
-22.423
-23.884
-25.275
-26.298
-26.8
-26.725
-26.168
-25.192
-23.84
-22.242
-20.555
-18.909
-17.394
-16.051
-14.86
-13.814
-12.912
-12.139
-11.499
-10.983
-10.567
-10.237
-9.976
-9.762
-9.572
-9.367
-9.089
-8.676
-8.079
-7.261
-6.207
-4.919
-3.407
-1.698
0.187
2.231
4.417
6.74
9.197
11.785
14.506
17.359
20.331
23.403
26.56
29.79
33.091
36.47
39.937
43.514
47.218
51.064
55.065
59.22
63.523
67.966
72.536
77.219
82.009
86.896
91.867
96.908
102.003
107.13
112.267
117.378
122.417
127.34
132.11
136.705
141.11
145.31
149.292
153.042
156.547
159.809
162.834
165.621
168.162
170.45
172.489
174.303
175.945
177.458
178.868
180.185
181.405
182.528
183.558
184.477
185.254
185.829
186.143
186.16
185.857
185.209
184.182
182.71
180.693
178.05
174.722
170.655
165.816
160.166
153.664
146.317
138.172
129.313
119.83
109.793
99.259
88.295
76.982
65.425
53.769
42.141
30.663
19.468
8.684
-1.553
-11.095
-19.84
-27.738
-34.774
-40.952
-46.276
-50.739
-54.345
-57.116
-59.085
-60.311
-60.854
-60.774
-60.152
-59.083
-57.679
-56.082
-54.42
-52.781
-51.221
-49.778
-48.472
-47.337
-46.401
-45.68
-45.184
-44.922
-44.892
-45.105
-45.57
-46.267
-47.156
-48.167
-49.209
-50.223
-51.172
-52.033
-52.802
-53.464
-54.005
-54.425
-54.731
-54.921
-54.994
-54.932
-54.704
-54.301
-53.737
-53.042
-52.271
-51.463
-50.637
-49.812
-49
-48.211
-47.457
-46.737
-46.036
-45.352
-44.686
-44.05
-43.47
-42.955
-42.507
-42.118
-41.771
-41.452
-41.158
-40.881
-40.612
-40.345
-40.078
-39.814
-39.564
-39.337
-39.133
-38.953
-38.792
-38.649
-38.527
-38.428
-38.355
-38.31
-38.296
-38.316
-38.374
-38.473
-38.614
-38.796
-39.015
-39.267
-39.551
-39.863
-40.201
-40.562
-40.942
-41.338
-41.749
-42.173
-42.605
-43.044
-43.485
-43.925
-44.362
-44.791
-45.21
-45.616
-46.006
-46.378
-46.729
-47.059
-47.364
-47.645
-47.899
-48.128
-48.329
-48.504
-48.654
-48.78
-48.884
-48.968
-49.037
-49.094
-49.142
-49.188
-49.235
-49.289
-49.354
-49.435
-49.538
-49.665
-49.822
-50.013
-50.242
-50.511
-50.825
-51.186
-51.596
-52.058
-52.572
-53.14
-53.763
-54.439
-55.17
-55.953
-56.787
-57.669
-58.598
-59.569
-60.577
-61.618
-62.684
-63.769
-64.865
-65.965
-67.06
-68.141
-69.199
-70.224
-71.208
-72.14
-73.012
-73.815
-74.539
-75.178
-75.724
-76.171
-76.512
-76.743
-76.86
-76.859
-76.739
-76.498
-76.134
-75.648
-75.04
-74.313
-73.468
-72.511
-71.445
-70.279
-69.022
-67.684
-66.277
-64.815
-63.31
-61.778
-60.234
-58.691
-57.163
-55.662
-54.203
-52.801
-51.472
-50.232
-49.094
-48.07
-47.172
-46.41
-45.795
-45.333
-45.024
-44.87
-44.875
-45.05
-45.414
-45.979
-46.754
-47.744
-48.944
-50.352
-51.96
-53.749
-55.684
-57.729
-59.843
-61.994
-64.158
-66.302
-68.384
-70.347
-72.118
-73.639
-74.866
-75.768
-76.331
-76.556
-76.453
-76.065
-75.464
-74.74
-74.012
-73.391
-72.992
-72.939
-73.327
-74.318
-76.143
-78.896
-82.573
-87.01
-91.812
-96.646
-101.306
-105.429
-108.559
-110.414
-110.81
-110.105
-109.269
-109.008
-109.782
-111.953
-115.647
-121.017
-128.109
-135.822
-141.994
-144.452
-140.965
-129.804
-109.505
-77.827
-32.55
27.431
99.85
179.473
261.66
341.805
421.063
505.673
593.389
678.675
747.941
775.411
749.151
665.989
528.587
359.565
179.754
8.593
-126.671
-211.305
-242.182
-225.812
-185.016
-143.163
-112.392
-95.756
-87.268
-78.718
-68.239
-57.856
-50.74
-49.559
-53.49
-60.087
-66.922
-71.766
-73.805
-73.093
-69.942
-65.078
-59.285
-53.232
-47.677
-43.299
-40.388
-39.003
-39.033
-40.189
-42.237
-44.97
-48.148
-51.546
-54.975
-58.275
-61.319
-64.016
-66.287
-68.072
-69.333
-70.054
-70.244
-69.93
-69.155
-67.973
-66.431
-64.581
-62.471
-60.148
-57.669
-55.096
-52.489
-49.906
-47.389
-44.966
-42.659
-40.48
-38.428
-36.499
-34.678
-32.943
-31.279
-29.674
-28.115
-26.593
-25.093
-23.6
-22.099
-20.575
-19.014
-17.406
-15.739
-14.002
-12.186
-10.284
-8.292
-6.204
-4.016
-1.722
0.683
3.204
5.842
8.6
11.477
14.475
17.592
20.826
24.174
27.631
31.194
34.86
38.622
42.475
46.411
50.419
54.489
58.611
62.771
66.958
71.159
75.358
79.543
83.704
87.829
91.902
95.904
99.81
103.598
107.252
110.754
114.093
117.257
120.238
123.037
125.667
128.136
130.452
132.612
134.603
136.409
138.024
139.439
140.648
141.636
142.374
142.819
142.935
142.666
141.943
140.676
138.741
136.017
132.4
127.797
122.145
115.392
107.488
98.402
88.139
76.729
64.25
50.837
36.64
21.869
6.776
-8.378
-23.282
-37.613
-51.054
-63.309
-74.133
-83.382
-90.915
-96.505
-99.988
-101.325
-100.75
-98.859
-96.331
-93.786
-91.963
-91.848
-94.412
-100.306
-109.222
-119.782
-130.422
-139.183
-143.805
-142.156
-131.844
-114.121
-95.915
-85.265
-90.49
-111.385
-133.993
-143.739
-133.815
-118.271
-129.026
-224.462
-481.269
-830.047
-1122.949
-1086.197
-2306.978
-3365.195
-2618.885
-1253.703
-700.01
-574.67
-664.395
-412.576
77.553
428.932
491.521
340.019
141.417
3.847
-82.337
-118.749
-83.179
-0.49
82.675
132.684
141.113
123.318
99.47
85.474
82.45
76.594
60.542
37.757
20.369
29.9
75.088
143.25
210.289
244.52
224.71
155.346
63.375
-13.691
-44.847
-17.313
52.117
127.399
179.405
187.231
152.08
101.481
57.665
37.244
50.201
84.94
124.942
158.182
170.214
153.74
117.397
74.67
41.676
37.681
65.483
110.483
155.442
180.904
175.968
150.098
118.426
92.907
83.274
86.979
94.788
102.231
105.803
105.143
103.683
102.36
100.922
99.581
97.843
95.589
93.345
91.296
89.417
87.823
86.572
85.617
84.93
84.465
84.118
83.853
83.693
83.628
83.645
83.73
83.856
83.994
84.123
84.218
84.257
84.219
84.093
83.87
83.549
83.134
82.633
82.051
81.391
80.656
79.848
78.971
78.034
77.045
76.013
74.949
73.861
72.761
71.659
70.564
69.486
68.433
67.411
66.427
65.491
64.609
63.792
63.045
62.376
61.792
61.297
60.896
60.592
60.386
60.277
60.264
60.346
60.519
60.78
61.123
61.543
62.034
62.588
63.197
63.85
64.535
65.241
65.955
66.664
67.352
68.007
68.615
69.164
69.644
70.043
70.35
70.553
70.639
70.598
70.421
70.099
69.626
68.995
68.205
67.259
66.161
64.917
63.525
61.98
60.276
58.414
56.391
54.213
51.887
49.423
46.843
44.175
41.452
38.704
35.958
33.23
30.543
27.923
25.407
23.041
20.87
18.928
17.254
15.877
14.794
13.999
13.451
13.086
12.866
12.739
12.641
12.515
12.28
11.844
11.141
10.066
8.445
6.207
3.379
0.121
-3.137
-5.929
-7.905
-8.622
-7.593
-4.628
0.146
6.147
12.064
16.503
18.47
17.054
11.525
1.831
-11.34
-26.357
-40.134
-49.02
-49.895
-40.015
-16.812
21.534
75.678
144.941
224.92
308.189
388.107
459.627
522.112
577.598
625.384
660.124
668.609
637.53
558.381
429.495
267.353
94.627
-63.206
-178.367
-243.821
-262.324
-244.306
-211.164
-170.35
-127.582
-90.007
-56.85
-35.957
-30.171
-32.136
-38.334
-41.384
-37.763
-32.776
-28.418
-25.817
-25.352
-23.96
-20.535
-15.854
-10.487
-5.459
-1.568
0.954
1.981
1.446
-0.46
-3.337
-6.874
-10.838
-14.997
-19.18
-23.224
-26.936
-30.219
-33.058
-35.42
-37.274
-38.589
-39.3
-39.392
-38.909
-37.902
-36.453
-34.658
-32.587
-30.314
-27.922
-25.479
-23.052
-20.688
-18.402
-16.205
-14.107
-12.123
-10.277
-8.579
-7.016
-5.571
-4.216
-2.92
-1.657
-0.4
0.885
2.225
3.643
5.158
6.776
8.501
10.342
12.308
14.409
16.658
19.058
21.615
24.333
27.215
30.263
33.479
36.859
40.401
44.104
47.965
51.981
56.15
60.468
64.926
69.517
74.231
79.056
83.979
88.985
94.058
99.179
104.33
109.491
114.643
119.763
124.831
129.823
134.717
139.489
144.117
148.578
152.848
156.907
160.731
164.301
167.595
170.595
173.283
175.642
177.657
179.313
180.599
181.502
182.015
182.13
181.841
181.145
180.039
178.524
176.601
174.276
171.553
168.441
164.951
161.093
156.883
152.335
147.467
142.296
136.844
131.13
125.178
119.01
112.651
106.126
99.459
92.677
85.806
78.871
71.899
64.915
57.944
51.012
44.143
37.36
30.687
24.144
17.753
11.533
5.504
-0.319
-5.919
-11.283
-16.399
-21.255
-25.842
-30.155
-34.186
-37.933
-41.394
-44.567
-47.455
-50.06
-52.387
-54.441
-56.23
-57.763
-59.048
-60.096
-60.919
-61.53
-61.94
-62.164
-62.215
-62.107
-61.855
-61.474
-60.977
-60.379
-59.696
-58.94
-58.127
-57.269
-56.38
-55.472
-54.556
-53.643
-52.743
-51.867
-51.021
-50.213
-49.451
-48.74
-48.084
-47.487
-46.953
-46.483
-46.077
-45.737
-45.461
-45.249
-45.098
-45.006
-44.97
-44.987
-45.054
-45.167
-45.323
-45.517
-45.744
-46.001
-46.283
-46.585
-46.903
-47.233
-47.571
-47.912
-48.253
-48.591
-48.922
-49.244
-49.554
-49.85
-50.129
-50.391
-50.633
-50.856
-51.06
-51.243
-51.408
-51.554
-51.685
-51.8
-51.903
-51.995
-52.079
-52.156
-52.229
-52.299
-52.371
-52.444
-52.523
-52.609
-52.705
-52.812
-52.933
-53.07
-53.225
-53.398
-53.591
-53.806
-54.043
-54.302
-54.585
-54.891
-55.222
-55.577
-55.956
-56.359
-56.785
-57.233
-57.702
-58.19
-58.696
-59.218
-59.753
-60.3
-60.857
-61.421
-61.991
-62.564
-63.138
-63.712
-64.283
-64.849
-65.406
-65.953
-66.487
-67.007
-67.509
-67.992
-68.453
-68.892
-69.305
-69.692
-70.052
-70.381
-70.679
-70.944
-71.175
-71.368
-71.524
-71.64
-71.714
-71.745
-71.734
-71.677
-71.576
-71.427
-71.231
-70.986
-70.692
-70.348
-69.951
-69.5
-68.994
-68.433
-67.82
-67.154
-66.437
-65.671
-64.859
-64.006
-63.119
-62.198
-61.247
-60.268
-59.262
-58.239
-57.21
-56.179
-55.155
-54.146
-53.161
-52.214
-51.32
-50.481
-49.701
-48.982
-48.326
-47.745
-47.254
-46.86
-46.577
-46.404
-46.34
-46.397
-46.585
-46.894
-47.321
-47.849
-48.454
-49.143
-49.921
-50.777
-51.71
-52.695
-53.706
-54.732
-55.756
-56.762
-57.741
-58.664
-59.503
-60.264
-60.951
-61.575
-62.172
-62.734
-63.257
-63.782
-64.339
-64.978
-65.78
-66.793
-68.051
-69.608
-71.488
-73.717
-76.324
-79.293
-82.631
-86.357
-90.438
-94.899
-99.751
-104.894
-110.212
-115.394
-119.857
-123.05
-124.427
-123.387
-119.7
-113.308
-104.072
-92.895
-81.421
-70.865
-63.039
-58.421
-54.725
-51.961
-51.244
-53.644
-63.325
-76.972
-83.17
-71.019
-28.267
45.294
135.986
230.876
317.335
393.153
465.376
533.599
592.495
628.93
625.75
577.947
487.985
363.241
218.814
67.709
-74.911
-188.39
-260.915
-288.844
-279.095
-250.938
-218.195
-188.036
-161.91
-134.14
-103.794
-73.757
-47.035
-28.667
-20.873
-22.229
-30.746
-43.148
-55.843
-67.062
-75.973
-81.787
-83.979
-82.544
-77.86
-71.082
-64.029
-57.749
-52.599
-48.858
-46.623
-45.914
-46.732
-48.707
-51.117
-53.504
-55.648
-57.406
-58.801
-59.815
-60.364
-60.467
-60.214
-59.667
-58.882
-57.889
-56.662
-55.207
-53.557
-51.745
-49.828
-47.855
-45.868
-43.909
-42.005
-40.173
-38.429
-36.779
-35.223
-33.755
-32.36
-31.018
-29.721
-28.456
-27.209
-25.965
-24.7
-23.391
-22.019
-20.565
-19.012
-17.347
-15.553
-13.618
-11.531
-9.282
-6.865
-4.275
-1.502
1.458
4.612
7.963
11.514
15.264
19.213
23.361
27.703
32.233
36.945
41.828
46.873
52.067
57.397
62.848
68.403
74.043
79.751
85.504
91.281
97.059
102.815
108.524
114.16
119.7
125.118
130.387
135.485
140.385
145.064
149.499
153.668
157.549
161.122
164.369
167.27
169.812
171.979
173.759
175.141
176.116
176.677
176.819
176.539
175.836
174.711
173.166
171.207
168.84
166.075
162.923
159.396
155.511
151.282
146.73
141.872
136.731
131.327
125.685
119.828
113.781
107.569
101.218
94.754
88.202
81.589
74.94
68.282
61.637
55.032
48.49
42.033
35.683
29.462
23.39
17.485
11.766
6.248
0.947
-4.125
-8.956
-13.535
-17.855
-21.91
-25.695
-29.206
-32.442
-35.404
-38.092
-40.51
-42.662
-44.553
-46.189
-47.579
-48.731
-49.653
-50.357
-50.852
-51.15
-51.262
-51.199
-50.974
-50.6
-50.087
-49.45
-48.699
-47.849
-46.91
-45.895
-44.816
-43.683
-42.507
-41.299
-40.066
-38.817
-37.56
-36.301
-35.047
-33.803
-32.574
-31.363
-30.174
-29.01
-27.872
-26.764
-25.686
-24.639
-23.625
-22.644
-21.698
-20.785
-19.907
-19.064
-18.256
-17.482
-16.743
-16.038
-15.367
-14.729
-14.124
-13.55
-13.007
-12.495
-12.014
-11.562
-11.14
-10.748
-10.387
-10.058
-9.76
-9.497
-9.267
-9.074
-8.918
-8.8
-8.722
-8.685
-8.688
-8.734
-8.822
-8.951
-9.121
-9.332
-9.583
-9.871
-10.197
-10.558
-10.953
-11.381
-11.838
-12.324
-12.838
-13.376
-13.937
-14.521
-15.124
-15.746
-16.384
-17.037
-17.701
-18.376
-19.059
-19.746
-20.436
-21.125
-21.812
-22.494
-23.169
-23.834
-24.488
-25.131
-25.761
-26.376
-26.978
-27.565
-28.138
-28.697
-29.242
-29.773
-30.291
-30.797
-31.29
-31.77
-32.239
-32.695
-33.138
-33.568
-33.983
-34.382
-34.765
-35.131
-35.477
-35.804
-36.109
-36.393
-36.653
-36.889
-37.099
-37.282
-37.437
-37.561
-37.654
-37.712
-37.735
-37.72
-37.664
-37.566
-37.423
-37.233
-36.992
-36.701
-36.357
-35.958
-35.503
-34.992
-34.425
-33.803
-33.127
-32.398
-31.618
-30.791
-29.92
-29.009
-28.063
-27.086
-26.084
-25.064
-24.033
-22.998
-21.967
-20.949
-19.953
-18.987
-18.061
-17.183
-16.361
-15.602
-14.915
-14.308
-13.79
-13.368
-13.05
-12.844
-12.76
-12.803
-12.981
-13.295
-13.744
-14.332
-15.059
-15.931
-16.953
-18.124
-19.442
-20.908
-22.516
-24.257
-26.116
-28.058
-30.046
-32.045
-34.02
-35.947
-37.798
-39.538
-41.134
-42.545
-43.733
-44.677
-45.358
-45.751
-45.845
-45.642
-45.178
-44.551
-43.858
-43.196
-42.646
-42.253
-42.09
-42.261
-42.842
-43.902
-45.503
-47.639
-50.377
-53.858
-58.05
-62.778
-67.767
-72.548
-76.702
-79.896
-81.589
-81.251
-78.766
-74.368
-68.586
-62.026
-55.38
-49.661
-45.813
-44.663
-45.002
-42.985
-37.06
-27.46
-16.223
-8.604
-1.223
16.419
52.077
113.953
199.017
291.611
383.242
468.533
542.282
607.047
655.445
669.142
640.694
564.851
443.639
299.515
150.666
14.805
-85.414
-145.294
-166.494
-156.341
-134.89
-113.772
-97.801
-88.162
-78.484
-66.854
-55.437
-46.214
-42.626
-45.197
-51.692
-60.176
-68.346
-74.374
-77.722
-78.184
-75.905
-71.518
-65.741
-59.269
-52.871
-47.227
-42.657
-39.264
-36.998
-35.656
-35.081
-35.152
-35.723
-36.65
-37.845
-39.242
-40.798
-42.512
-44.323
-46.126
-47.823
-49.306
-50.51
-51.419
-52.024
-52.33
-52.348
-52.091
-51.579
-50.845
-49.91
-48.79
-47.487
-45.988
-44.308
-42.488
-40.576
-38.636
-36.708
-34.806
-32.941
-31.122
-29.35
-27.621
-25.921
-24.226
-22.522
-20.803
-19.072
-17.342
-15.614
-13.872
-12.1
-10.268
-8.357
-6.353
-4.241
-2.003
0.371
2.888
5.549
8.346
11.277
14.345
17.55
20.899
24.391
28.024
31.792
35.688
39.702
43.825
48.045
52.346
56.716
61.142
65.612
70.115
74.639
79.17
83.69
88.181
92.625
96.999
101.284
105.455
109.492
113.374
117.083
120.6
123.909
126.993
129.835
132.416
134.714
136.71
138.391
139.748
140.775
141.473
141.848
141.911
141.673
141.142
140.323
139.212
137.798
136.071
134.019
131.64
128.942
125.932
122.617
119
115.081
110.852
106.296
101.392
96.113
90.447
84.396
77.986
71.264
64.288
57.129
49.846
42.484
35.087
27.694
20.347
13.088
5.971
-0.945
-7.588
-13.874
-19.74
-25.139
-30.054
-34.498
-38.505
-42.127
-45.411
-48.39
-51.094
-53.542
-55.753
-57.745
-59.541
-61.169
-62.669
-64.099
-65.503
-66.92
-68.362
-69.824
-71.283
-72.697
-74.035
-75.268
-76.377
-77.352
-78.19
-78.892
-79.46
-79.901
-80.211
-80.376
-80.387
-80.236
-79.922
-79.459
-78.863
-78.162
-77.38
-76.541
-75.664
-74.763
-73.847
-72.92
-71.986
-71.043
-70.091
-69.136
-68.182
-67.235
-66.301
-65.381
-64.476
-63.586
-62.708
-61.842
-60.986
-60.141
-59.306
-58.483
-57.677
-56.89
-56.127
-55.39
-54.681
-54.003
-53.355
-52.739
-52.155
-51.603
-51.082
-50.593
-50.134
-49.708
-49.313
-48.949
-48.618
-48.318
-48.049
-47.813
-47.608
-47.434
-47.291
-47.179
-47.098
-47.047
-47.024
-47.031
-47.065
-47.127
-47.215
-47.328
-47.466
-47.627
-47.811
-48.016
-48.242
-48.487
-48.751
-49.034
-49.335
-49.654
-49.992
-50.348
-50.723
-51.118
-51.532
-51.967
-52.421
-52.895
-53.388
-53.901
-54.432
-54.98
-55.544
-56.123
-56.716
-57.32
-57.934
-58.556
-59.182
-59.811
-60.439
-61.062
-61.678
-62.282
-62.871
-63.441
-63.988
-64.508
-64.996
-65.449
-65.86
-66.225
-66.54
-66.798
-66.995
-67.124
-67.18
-67.159
-67.056
-66.866
-66.585
-66.21
-65.738
-65.168
-64.497
-63.725
-62.851
-61.877
-60.805
-59.636
-58.376
-57.029
-55.601
-54.1
-52.533
-50.908
-49.233
-47.52
-45.777
-44.015
-42.246
-40.478
-38.724
-36.995
-35.304
-33.663
-32.086
-30.583
-29.167
-27.852
-26.648
-25.57
-24.624
-23.819
-23.159
-22.65
-22.298
-22.111
-22.091
-22.237
-22.548
-23.019
-23.645
-24.419
-25.324
-26.334
-27.42
-28.554
-29.711
-30.875
-32.025
-33.139
-34.191
-35.147
-35.984
-36.681
-37.214
-37.566
-37.72
-37.666
-37.415
-37.012
-36.516
-35.984
-35.47
-34.995
-34.571
-34.225
-34.001
-33.962
-34.164
-34.666
-35.482
-36.658
-38.313
-40.424
-42.837
-45.24
-47.064
-47.797
-47.151
-44.753
-40.163
-33.413
-24.761
-14.838
-5.096
3.338
9.856
13.547
13.796
11.023
6.038
0.54
-2.157
0.645
10.881
31.449
64.682
111.288
171.416
241.95
315.961
387.978
454.3
514.257
570.026
620.759
660.403
675.196
651.386
581.144
463.717
316.106
161.464
22.505
-76.826
-130.448
-144.039
-129.284
-106.625
-87.08
-73.386
-64.707
-54.78
-42.187
-29.416
-18.708
-13.156
-13.102
-16.543
-21.787
-26.847
-30.134
-31.229
-30.072
-26.928
-22.479
-17.366
-12.125
-7.354
-3.591
-1.075
0.146
0.179
-0.719
-2.331
-4.489
-7.005
-9.701
-12.427
-15.043
-17.431
-19.509
-21.206
-22.471
-23.277
-23.611
-23.478
-22.903
-21.927
-20.598
-18.966
-17.075
-14.966
-12.68
-10.268
-7.784
-5.283
-2.818
-0.426
1.87
4.053
6.114
8.052
9.874
11.594
13.234
14.807
16.326
17.804
19.251
20.681
22.111
23.557
25.034
26.556
28.136
29.785
31.516
33.336
35.255
37.277
39.409
41.656
44.025
46.523
49.154
51.925
54.837
57.894
61.098
64.447
67.941
71.576
75.347
79.248
83.27
87.405
91.642
95.969
100.37
104.832
109.338
113.869
118.407
122.932
127.423
131.86
136.22
140.481
144.621
148.618
152.448
156.091
159.523
162.724
165.674
168.353
170.743
172.825
174.585
176.007
177.078
177.787
178.123
178.079
177.647
176.825
175.608
173.998
171.995
169.604
166.831
163.684
160.172
156.308
152.105
147.578
142.744
137.621
132.229
126.588
120.721
114.65
108.398
101.992
95.456
88.814
82.094
75.32
68.518
61.713
54.93
48.194
41.527
34.954
28.494
22.171
16.002
10.008
4.204
-1.394
-6.772
-11.918
-16.821
-21.473
-25.866
-29.995
-33.855
-37.444
-40.761
-43.806
-46.581
-49.089
-51.335
-53.324
-55.064
-56.562
-57.829
-58.875
-59.71
-60.346
-60.795
-61.071
-61.185
-61.152
-60.985
-60.697
-60.302
-59.813
-59.243
-58.605
-57.91
-57.17
-56.396
-55.598
-54.784
-53.964
-53.146
-52.336
-51.541
-50.767
-50.019
-49.301
-48.618
-47.971
-47.364
-46.799
-46.277
-45.799
-45.364
-44.973
-44.624
-44.317
-44.049
-43.818
-43.622
-43.458
-43.323
-43.215
-43.13
-43.065
-43.018
-42.985
-42.966
-42.957
-42.956
-42.963
-42.975
-42.991
-43.012
-43.037
-43.065
-43.098
-43.136
-43.18
-43.231
-43.29
-43.358
-43.435
-43.523
-43.623
-43.734
-43.858
-43.995
-44.145
-44.309
-44.49
-44.689
-44.909
-45.151
-45.416
-45.709
-46.03
-46.381
-46.761
-47.166
-47.596
-48.05
-48.527
-49.026
-49.545
-50.083
-50.64
-51.216
-51.81
-52.418
-53.033
-53.641
-54.237
-54.82
-55.394
-55.965
-56.541
-57.126
-57.732
-58.372
-59.052
-59.771
-60.518
-61.267
-62.004
-62.721
-63.413
-64.091
-64.756
-65.395
-66.001
-66.554
-67.026
-67.395
-67.622
-67.657
-67.477
-67.073
-66.457
-65.681
-64.783
-63.797
-62.753
-61.655
-60.513
-59.342
-58.15
-56.952
-55.787
-54.693
-53.723
-52.953
-52.423
-52.161
-52.178
-52.423
-52.843
-53.385
-53.993
-54.646
-55.339
-56.07
-56.842
-57.661
-58.495
-59.313
-60.076
-60.718
-61.189
-61.441
-61.418
-61.118
-60.574
-59.826
-58.92
-57.873
-56.661
-55.264
-53.67
-51.863
-49.861
-47.686
-45.356
-42.92
-40.44
-38.001
-35.718
-33.681
-31.931
-30.491
-29.384
-28.643
-28.341
-28.531
-29.229
-30.451
-32.195
-34.451
-37.222
-40.478
-44.15
-48.137
-52.302
-56.499
-60.63
-64.61
-68.352
-71.78
-74.811
-77.414
-79.608
-81.424
-82.882
-83.976
-84.703
-85.107
-85.281
-85.347
-85.442
-85.682
-86.191
-87.173
-88.727
-90.802
-93.184
-95.382
-96.9
-97.438
-96.643
-94.066
-89.559
-83.304
-75.914
-68.705
-62.867
-59.048
-57.916
-60.092
-65.589
-73.744
-82.878
-90.011
-92.248
-87.119
-71.867
-43.908
-0.985
56.799
125.738
201.077
277.661
353.955
434.223
519.059
604.272
680.029
724.822
720.709
660.058
541.095
380.137
203.541
35.123
-97.834
-178.888
-209.926
-199.918
-168.081
-135.015
-108.977
-92.052
-81.043
-69.718
-57.407
-46.246
-38.536
-36.78
-40.51
-47.355
-54.936
-60.886
-64.115
-64.605
-62.63
-58.805
-53.819
-48.315
-43.053
-38.767
-35.807
-34.251
-34.005
-34.816
-36.469
-38.778
-41.515
-44.461
-47.432
-50.274
-52.842
-55.012
-56.69
-57.823
-58.406
-58.459
-58.002
-57.061
-55.669
-53.878
-51.748
-49.345
-46.727
-43.94
-41.044
-38.121
-35.273
-32.61
-30.197
-28.045
-26.126
-24.406
-22.863
-21.479
-20.231
-19.081
-17.991
-16.929
-15.88
-14.834
-13.772
-12.656
-11.428
-10.028
-8.424
-6.614
-4.621
-2.466
-0.154
2.309
4.918
7.659
10.518
13.495
16.6
19.848
23.242
26.776
30.431
34.187
38.037
41.983
46.032
50.191
54.456
58.822
63.286
67.845
72.493
77.217
81.994
86.801
91.62
96.436
101.235
106.004
110.725
115.376
119.936
124.382
128.692
132.844
136.815
140.58
144.12
147.418
150.459
153.231
155.721
157.914
159.794
161.344
162.548
163.397
163.886
164.013
163.783
163.207
162.301
161.081
159.562
157.752
155.654
153.263
150.574
147.58
144.285
140.703
136.846
132.725
128.349
123.723
118.839
113.687
108.247
102.496
96.421
90.028
83.342
76.41
69.291
62.055
54.761
47.452
40.171
32.957
25.851
18.894
12.138
5.641
-0.526
-6.284
-11.568
-16.334
-20.568
-24.284
-27.519
-30.33
-32.762
-34.855
-36.638
-38.137
-39.373
-40.369
-41.15
-41.749
-42.208
-42.59
-42.943
-43.308
-43.703
-44.125
-44.553
-44.953
-45.295
-45.554
-45.716
-45.775
-45.732
-45.592
-45.363
-45.054
-44.667
-44.193
-43.626
-42.96
-42.2
-41.361
-40.463
-39.535
-38.604
-37.694
-36.824
-36.008
-35.256
-34.571
-33.954
-33.401
-32.91
-32.484
-32.123
-31.83
-31.608
-31.452
-31.36
-31.326
-31.345
-31.409
-31.512
-31.646
-31.807
-31.989
-32.188
-32.402
-32.628
-32.862
-33.1
-33.336
-33.567
-33.786
-33.989
-34.171
-34.327
-34.453
-34.546
-34.604
-34.625
-34.609
-34.555
-34.463
-34.335
-34.173
-33.978
-33.752
-33.498
-33.219
-32.917
-32.596
-32.26
-31.912
-31.557
-31.2
-30.845
-30.499
-30.164
-29.846
-29.549
-29.278
-29.036
-28.827
-28.654
-28.522
-28.433
-28.392
-28.4
-28.461
-28.577
-28.748
-28.976
-29.261
-29.602
-29.997
-30.447
-30.948
-31.498
-32.095
-32.737
-33.421
-34.142
-34.899
-35.687
-36.503
-37.341
-38.198
-39.069
-39.95
-40.835
-41.722
-42.604
-43.48
-44.346
-45.197
-46.031
-46.846
-47.636
-48.401
-49.136
-49.84
-50.509
-51.142
-51.737
-52.291
-52.804
-53.273
-53.699
-54.078
-54.411
-54.695
-54.93
-55.114
-55.246
-55.324
-55.347
-55.315
-55.226
-55.079
-54.873
-54.607
-54.281
-53.893
-53.441
-52.925
-52.342
-51.692
-50.973
-50.185
-49.326
-48.396
-47.398
-46.33
-45.195
-43.996
-42.735
-41.415
-40.041
-38.619
-37.154
-35.655
-34.129
-32.584
-31.031
-29.479
-27.938
-26.417
-24.927
-23.476
-22.076
-20.738
-19.471
-18.288
-17.202
-16.223
-15.361
-14.627
-14.024
-13.56
-13.237
-13.062
-13.041
-13.183
-13.493
-13.977
-14.639
-15.48
-16.496
-17.671
-18.983
-20.409
-21.923
-23.505
-25.14
-26.811
-28.498
-30.182
-31.83
-33.414
-34.903
-36.262
-37.459
-38.471
-39.288
-39.94
-40.484
-40.979
-41.476
-42.002
-42.581
-43.262
-44.11
-45.187
-46.567
-48.296
-50.449
-53.196
-56.634
-60.712
-65.204
-69.621
-73.408
-76.171
-77.498
-76.849
-73.917
-68.786
-62.074
-55.157
-49.525
-46.201
-46.016
-49.796
-57.904
-69.823
-83.845
-96.831
-105.188
-105.709
-95.411
-71.318
-30.502
27.569
99.712
181.079
265.899
351.313
440.961
536.565
632.97
719.881
777.222
784.314
734.717
628.556
474.952
297.75
116.686
-45.986
-164.679
-234.564
-258.357
-246.707
-220.362
-185.558
-144.534
-101.492
-60.09
-32.439
-27.026
-41.265
-64.858
-84.268
-91.548
-87.645
-79.334
-72.115
-67.628
-64.744
-60.716
-54.746
-47.885
-41.113
-35.421
-31.315
-28.678
-27.47
-27.657
-28.933
-30.993
-33.616
-36.595
-39.786
-43.081
-46.324
-49.338
-52.013
-54.268
-56.047
-57.328
-58.087
-58.297
-57.965
-57.104
-55.764
-54.027
-51.964
-49.636
-47.102
-44.42
-41.659
-38.895
-36.19
-33.577
-31.074
-28.688
-26.425
-24.299
-22.309
-20.451
-18.704
-17.038
-15.432
-13.868
-12.327
-10.792
-9.24
-7.643
-5.981
-4.246
-2.427
-0.518
1.494
3.621
5.874
8.259
10.782
13.448
16.263
19.232
22.36
25.649
29.1
32.711
36.481
40.409
44.492
48.725
53.099
57.605
62.234
66.973
71.81
76.73
81.717
86.753
91.822
96.904
101.98
107.029
112.031
116.963
121.804
126.531
131.122
135.554
139.805
143.853
147.676
151.255
154.568
157.597
160.325
162.736
164.815
166.549
167.927
168.94
169.58
169.843
169.724
169.223
168.34
167.076
165.436
163.426
161.052
158.324
155.252
151.849
148.127
144.102
139.789
135.207
130.373
125.308
120.03
114.563
108.928
103.147
97.244
91.242
85.163
79.033
72.873
66.706
60.554
54.44
48.382
42.401
36.515
30.741
25.096
19.595
14.251
9.077
4.085
-0.715
-5.314
-9.704
-13.879
-17.832
-21.559
-25.057
-28.323
-31.357
-34.158
-36.727
-39.067
-41.18
-43.072
-44.747
-46.211
-47.471
-48.535
-49.411
-50.107
-50.632
-50.997
-51.209
-51.279
-51.216
-51.029
-50.727
-50.319
-49.813
-49.219
-48.544
-47.797
-46.984
-46.114
-45.193
-44.23
-43.23
-42.201
-41.149
-40.081
-39.002
-37.918
-36.835
-35.758
-34.692
-33.64
-32.607
-31.597
-30.612
-29.656
-28.73
-27.838
-26.98
-26.16
-25.378
-24.636
-23.935
-23.278
-22.665
-22.098
-21.578
-21.107
-20.686
-20.315
-19.997
-19.731
-19.519
-19.361
-19.256
-19.205
-19.207
-19.261
-19.367
-19.522
-19.727
-19.978
-20.274
-20.614
-20.994
-21.413
-21.869
-22.359
-22.881
-23.432
-24.009
-24.61
-25.232
-25.872
-26.527
-27.193
-27.867
-28.546
-29.227
-29.905
-30.578
-31.242
-31.893
-32.53
-33.149
-33.748
-34.325
-34.877
-35.405
-35.906
-36.379
-36.825
-37.243
-37.633
-37.996
-38.332
-38.643
-38.93
-39.193
-39.435
-39.658
-39.864
-40.055
-40.233
-40.401
-40.562
-40.719
-40.875
-41.034
-41.198
-41.371
-41.557
-41.758
-41.978
-42.22
-42.485
-42.777
-43.097
-43.445
-43.824
-44.233
-44.672
-45.141
-45.638
-46.163
-46.714
-47.288
-47.883
-48.496
-49.124
-49.763
-50.408
-51.056
-51.703
-52.342
-52.969
-53.579
-54.166
-54.724
-55.248
-55.73
-56.164
-56.544
-56.864
-57.117
-57.296
-57.397
-57.413
-57.341
-57.177
-56.916
-56.557
-56.096
-55.534
-54.869
-54.102
-53.233
-52.264
-51.199
-50.041
-48.794
-47.464
-46.057
-44.582
-43.045
-41.458
-39.829
-38.17
-36.492
-34.808
-33.13
-31.469
-29.839
-28.253
-26.723
-25.261
-23.882
-22.598
-21.423
-20.369
-19.449
-18.677
-18.059
-17.604
-17.317
-17.203
-17.269
-17.522
-17.971
-18.618
-19.468
-20.523
-21.781
-23.238
-24.876
-26.664
-28.568
-30.554
-32.589
-34.644
-36.688
-38.683
-40.593
-42.376
-43.992
-45.408
-46.594
-47.513
-48.149
-48.5
-48.598
-48.531
-48.397
-48.289
-48.298
-48.486
-48.926
-49.733
-51.017
-52.864
-55.342
-58.455
-62.261
-66.918
-72.449
-78.707
-85.327
-91.724
-97.432
-102.16
-105.449
-106.679
-105.524
-101.982
-96.726
-90.93
-85.171
-79.994
-76.406
-75.099
-76.472
-78.999
-78.198
-71.634
-58.994
-41.596
-24.163
-3.282
29.555
79.31
153.295
247.576
349.963
456.787
560.205
652.13
727.859
770.647
764.587
705.779
594.81
442.777
270.33
94.336
-69.05
-201.072
-289.377
-327.688
-313.147
-255.371
-174.346
-90.015
-25.145
5.077
3.451
-19.941
-48.816
-68.188
-75.48
-74.347
-71.142
-71.101
-74.608
-79.188
-81.697
-80.709
-76.24
-69.386
-62.186
-55.813
-50.6
-46.751
-44.078
-42.409
-41.997
-42.773
-44.303
-46.282
-48.407
-50.472
-52.486
-54.389
-56.002
-57.225
-58.025
-58.382
-58.348
-57.952
-57.181
-56.051
-54.593
-52.842
-50.85
-48.663
-46.313
-43.847
-41.314
-38.767
-36.263
-33.842
-31.535
-29.359
-27.321
-25.416
-23.639
-21.972
-20.396
-18.895
-17.447
-16.035
-14.645
-13.258
-11.856
-10.422
-8.936
-7.38
-5.739
-3.997
-2.143
-0.165
1.946
4.196
6.592
9.139
11.842
14.707
17.739
20.94
24.313
27.859
31.579
35.47
39.529
43.75
48.126
52.646
57.301
62.078
66.964
71.943
76.999
82.115
87.272
92.451
97.632
102.794
107.915
112.974
117.95
122.818
127.558
132.148
136.566
140.791
144.803
148.582
152.109
155.366
158.336
161.004
163.353
165.372
167.047
168.368
169.326
169.914
170.126
169.96
169.414
168.488
167.183
165.504
163.455
161.044
158.278
155.168
151.724
147.959
143.887
139.522
134.881
129.981
124.839
119.475
113.908
108.159
102.247
96.195
90.024
83.756
77.413
71.019
64.594
58.161
51.743
45.36
39.033
32.783
26.629
20.59
14.682
8.924
3.329
-2.087
-7.311
-12.331
-17.137
-21.717
-26.064
-30.169
-34.027
-37.632
-40.98
-44.067
-46.893
-49.457
-51.759
-53.802
-55.589
-57.124
-58.412
-59.46
-60.275
-60.866
-61.242
-61.414
-61.391
-61.186
-60.811
-60.277
-59.598
-58.786
-57.853
-56.812
-55.676
-54.457
-53.167
-51.818
-50.422
-48.991
-47.535
-46.066
-44.594
-43.13
-41.683
-40.263
-38.877
-37.535
-36.243
-35.009
-33.837
-32.734
-31.704
-30.75
-29.876
-29.083
-28.373
-27.747
-27.203
-26.742
-26.362
-26.061
-25.837
-25.686
-25.607
-25.596
-25.65
-25.765
-25.939
-26.166
-26.445
-26.77
-27.138
-27.544
-27.985
-28.456
-28.953
-29.472
-30.009
-30.56
-31.121
-31.688
-32.259
-32.828
-33.394
-33.953
-34.502
-35.041
-35.566
-36.077
-36.572
-37.052
-37.515
-37.961
-38.391
-38.804
-39.201
-39.582
-39.948
-40.298
-40.634
-40.955
-41.262
-41.555
-41.836
-42.105
-42.362
-42.609
-42.845
-43.073
-43.291
-43.503
-43.708
-43.907
-44.102
-44.294
-44.483
-44.672
-44.861
-45.051
-45.242
-45.436
-45.631
-45.83
-46.031
-46.235
-46.442
-46.652
-46.865
-47.081
-47.301
-47.523
-47.749
-47.978
-48.21
-48.444
-48.681
-48.92
-49.161
-49.403
-49.646
-49.889
-50.131
-50.371
-50.608
-50.839
-51.064
-51.279
-51.483
-51.673
-51.847
-52.003
-52.137
-52.247
-52.331
-52.387
-52.411
-52.401
-52.354
-52.268
-52.139
-51.965
-51.743
-51.47
-51.145
-50.766
-50.329
-49.834
-49.279
-48.664
-47.988
-47.25
-46.452
-45.595
-44.68
-43.71
-42.688
-41.619
-40.507
-39.359
-38.183
-36.985
-35.775
-34.563
-33.357
-32.169
-31.008
-29.883
-28.804
-27.779
-26.818
-25.931
-25.128
-24.42
-23.817
-23.328
-22.961
-22.723
-22.619
-22.65
-22.815
-23.115
-23.55
-24.128
-24.855
-25.735
-26.769
-27.959
-29.301
-30.782
-32.387
-34.09
-35.864
-37.685
-39.531
-41.387
-43.235
-45.055
-46.814
-48.476
-49.997
-51.341
-52.476
-53.367
-53.997
-54.377
-54.539
-54.542
-54.447
-54.285
-54.088
-53.912
-53.813
-53.883
-54.227
-54.897
-55.978
-57.618
-59.888
-62.762
-66.065
-69.341
-72.068
-73.895
-74.474
-73.381
-70.391
-65.543
-59.373
-53.061
-47.994
-45.096
-44.803
-47.906
-55.082
-65.939
-79.25
-91.52
-97.124
-93.313
-79.313
-55.69
-26.112
10.611
58.494
121.375
205.255
308.865
426.772
550.567
663.586
751.03
798.474
792.97
734.827
630.192
488.201
325.053
154.654
-8.664
-145.112
-240.705
-289.721
-294.406
-267.118
-222.04
-169.339
-117.602
-75.469
-49.561
-43.47
-54.488
-71.963
-85.685
-90.092
-85.339
-77.311
-70.286
-65.202
-61.247
-56.009
-48.741
-40.464
-32.149
-24.88
-19.344
-15.565
-13.539
-13.184
-14.174
-16.195
-18.977
-22.265
-25.853
-29.572
-33.244
-36.69
-39.795
-42.48
-44.672
-46.317
-47.362
-47.751
-47.467
-46.546
-45.045
-43.05
-40.662
-37.962
-35.028
-31.949
-28.805
-25.671
-22.613
-19.666
-16.848
-14.18
-11.681
-9.373
-7.268
-5.353
-3.605
-1.995
-0.488
0.943
2.324
3.687
5.059
6.462
7.916
9.429
11.006
12.657
14.395
16.233
18.185
20.263
22.474
24.828
27.331
29.989
32.811
35.8
38.966
42.314
45.844
49.554
53.441
57.495
61.705
66.052
70.511
75.056
79.663
84.313
88.988
93.672
98.348
102.998
107.6
112.143
116.625
121.049
125.422
129.753
134.057
138.356
142.686
147.073
151.528
156.051
160.63
165.252
169.896
174.536
179.142
183.67
188.065
192.272
196.22
199.835
203.037
205.728
207.802
209.17
209.761
209.52
208.404
206.379
203.431
199.564
194.795
189.155
182.678
175.395
167.369
158.675
149.407
139.679
129.612
119.321
108.923
98.529
88.257
78.212
68.474
59.104
50.149
41.657
33.687
26.303
19.54
13.408
7.907
3.012
-1.297
-5.053
-8.306
-11.124
-13.588
-15.767
-17.708
-19.439
-20.987
-22.385
-23.683
-24.935
-26.174
-27.419
-28.683
-29.973
-31.3
-32.664
-34.042
-35.394
-36.668
-37.83
-38.861
-39.754
-40.505
-41.105
-41.541
-41.801
-41.885
-41.801
-41.551
-41.142
-40.575
-39.859
-39.018
-38.081
-37.086
-36.058
-35.015
-33.971
-32.936
-31.923
-30.941
-29.997
-29.089
-28.22
-27.391
-26.607
-25.874
-25.195
-24.567
-23.987
-23.453
-22.962
-22.515
-22.111
-21.75
-21.431
-21.156
-20.928
-20.75
-20.624
-20.549
-20.527
-20.556
-20.636
-20.764
-20.94
-21.162
-21.427
-21.734
-22.082
-22.468
-22.892
-23.351
-23.845
-24.37
-24.926
-25.51
-26.119
-26.753
-27.407
-28.079
-28.768
-29.469
-30.18
-30.898
-31.62
-32.343
-33.064
-33.779
-34.486
-35.182
-35.865
-36.532
-37.183
-37.815
-38.427
-39.018
-39.589
-40.139
-40.667
-41.174
-41.661
-42.128
-42.575
-43.003
-43.413
-43.806
-44.184
-44.547
-44.898
-45.238
-45.57
-45.894
-46.214
-46.531
-46.848
-47.167
-47.49
-47.82
-48.158
-48.505
-48.864
-49.236
-49.621
-50.02
-50.433
-50.861
-51.301
-51.755
-52.219
-52.693
-53.175
-53.662
-54.152
-54.642
-55.13
-55.611
-56.084
-56.543
-56.987
-57.411
-57.812
-58.184
-58.525
-58.83
-59.094
-59.315
-59.488
-59.608
-59.674
-59.68
-59.624
-59.504
-59.316
-59.058
-58.729
-58.327
-57.851
-57.302
-56.678
-55.982
-55.213
-54.374
-53.468
-52.496
-51.464
-50.373
-49.229
-48.036
-46.8
-45.526
-44.222
-42.892
-41.545
-40.19
-38.836
-37.494
-36.175
-34.887
-33.642
-32.451
-31.324
-30.268
-29.292
-28.402
-27.606
-26.911
-26.327
-25.861
-25.521
-25.311
-25.237
-25.304
-25.514
-25.865
-26.355
-26.981
-27.744
-28.652
-29.714
-30.93
-32.304
-33.833
-35.506
-37.311
-39.222
-41.203
-43.216
-45.224
-47.192
-49.098
-50.913
-52.605
-54.137
-55.461
-56.53
-57.313
-57.783
-57.916
-57.721
-57.237
-56.529
-55.706
-54.865
-54.076
-53.427
-53.012
-52.933
-53.312
-54.249
-55.813
-58.103
-61.27
-65.356
-70.28
-75.774
-81.312
-86.392
-90.635
-93.603
-94.771
-93.84
-90.825
-86.187
-81.041
-76.416
-72.897
-71.069
-71.516
-74.419
-79.361
-84.947
-88.566
-87.601
-79.772
-62.574
-33.572
9.713
67.832
137.433
213.618
291.342
368.379
448.884
536.042
625.625
707.069
760.118
762.68
706.113
591.096
428.054
240.22
48.946
-124.663
-257.119
-335.621
-357.084
-327.625
-264.936
-191.598
-125.972
-79.04
-55.758
-49.481
-49.387
-49.761
-45.501
-38.521
-35.509
-37.651
-44.629
-54.478
-62.866
-68.285
-70.677
-69.669
-65.986
-60.727
-54.974
-49.859
-45.986
-43.41
-42.044
-41.976
-43.254
-45.629
-48.599
-51.645
-54.42
-56.791
-58.763
-60.29
-61.287
-61.734
-61.671
-61.166
-60.291
-59.085
-57.552
-55.706
-53.584
-51.231
-48.705
-46.063
-43.355
-40.633
-37.943
-35.319
-32.786
-30.363
-28.058
-25.876
-23.811
-21.852
-19.984
-18.196
-16.477
-14.816
-13.196
-11.598
-10.005
-8.4
-6.768
-5.097
-3.372
-1.58
0.294
2.264
4.339
6.53
8.845
11.292
13.881
16.619
19.513
22.565
25.78
29.162
32.718
36.46
40.39
44.503
48.788
53.23
57.811
62.52
67.333
72.223
77.17
82.156
87.173
92.225
97.306
102.401
107.483
112.517
117.478
122.353
127.131
131.806
136.37
140.814
145.141
149.373
153.508
157.525
161.382
165.003
168.334
171.342
173.998
176.292
178.2
179.686
180.725
181.296
181.371
180.93
179.93
178.307
176.033
173.114
169.585
165.525
160.993
156.027
150.668
144.951
138.915
132.612
126.078
119.34
112.436
105.41
98.324
91.266
84.292
77.433
70.698
64.069
57.54
51.121
44.818
38.635
32.578
26.654
20.879
15.286
9.892
4.706
-0.272
-5.059
-9.658
-14.062
-18.256
-22.218
-25.934
-29.395
-32.591
-35.513
-38.155
-40.518
-42.609
-44.447
-46.045
-47.412
-48.557
-49.487
-50.21
-50.74
-51.09
-51.274
-51.307
-51.204
-50.98
-50.654
-50.242
-49.757
-49.212
-48.617
-47.983
-47.32
-46.639
-45.951
-45.263
-44.585
-43.926
-43.293
-42.694
-42.133
-41.615
-41.143
-40.719
-40.344
-40.019
-39.743
-39.516
-39.335
-39.2
-39.109
-39.058
-39.046
-39.069
-39.123
-39.206
-39.313
-39.44
-39.583
-39.737
-39.899
-40.063
-40.227
-40.384
-40.532
-40.667
-40.784
-40.881
-40.955
-41.002
-41.021
-41.01
-40.967
-40.893
-40.787
-40.65
-40.483
-40.288
-40.065
-39.818
-39.549
-39.258
-38.95
-38.626
-38.289
-37.94
-37.584
-37.223
-36.859
-36.495
-36.135
-35.78
-35.435
-35.101
-34.784
-34.484
-34.207
-33.954
-33.73
-33.537
-33.377
-33.253
-33.166
-33.119
-33.112
-33.145
-33.22
-33.336
-33.493
-33.69
-33.926
-34.2
-34.512
-34.859
-35.241
-35.657
-36.105
-36.583
-37.091
-37.628
-38.191
-38.78
-39.393
-40.028
-40.684
-41.358
-42.048
-42.751
-43.465
-44.187
-44.914
-45.644
-46.373
-47.1
-47.821
-48.533
-49.236
-49.925
-50.6
-51.258
-51.897
-52.515
-53.11
-53.681
-54.227
-54.744
-55.232
-55.689
-56.111
-56.498
-56.845
-57.151
-57.413
-57.627
-57.792
-57.905
-57.964
-57.967
-57.911
-57.795
-57.618
-57.378
-57.073
-56.703
-56.266
-55.761
-55.188
-54.548
-53.838
-53.061
-52.216
-51.306
-50.33
-49.291
-48.191
-47.031
-45.815
-44.547
-43.229
-41.866
-40.465
-39.03
-37.572
-36.097
-34.616
-33.138
-31.674
-30.233
-28.828
-27.467
-26.16
-24.914
-23.739
-22.643
-21.635
-20.726
-19.925
-19.242
-18.684
-18.26
-17.975
-17.836
-17.84
-17.987
-18.276
-18.707
-19.29
-20.032
-20.937
-22.007
-23.246
-24.647
-26.201
-27.886
-29.67
-31.519
-33.4
-35.282
-37.146
-38.964
-40.712
-42.354
-43.849
-45.158
-46.245
-47.078
-47.624
-47.87
-47.839
-47.577
-47.168
-46.689
-46.193
-45.746
-45.427
-45.331
-45.558
-46.208
-47.346
-49.066
-51.531
-54.819
-58.883
-63.502
-68.192
-72.434
-75.827
-77.92
-78.159
-76.245
-72.224
-66.62
-60.69
-55.721
-52.603
-52.194
-55.278
-62.079
-72.026
-83.423
-93.21
-98.129
-95.168
-81.156
-53.185
-8.648
52.651
127.112
209.845
295.543
381.653
470.762
562.951
652.049
726.665
768.363
760.947
700.442
590.965
444.027
277.549
107.2
-51.511
-180.352
-265.275
-299.459
-284.468
-232.725
-165.703
-103.332
-58.655
-38.704
-37.201
-42.572
-48.369
-48.663
-44.987
-43.888
-46.283
-52.368
-60.773
-67.239
-70.462
-70.573
-67.226
-61.599
-55.27
-48.998
-43.614
-39.652
-36.963
-35.505
-35.476
-36.724
-38.826
-41.443
-44.188
-46.799
-49.271
-51.533
-53.433
-54.899
-55.904
-56.445
-56.572
-56.311
-55.652
-54.61
-53.219
-51.518
-49.564
-47.403
-45.077
-42.633
-40.121
-37.592
-35.096
-32.671
-30.34
-28.121
-26.02
-24.038
-22.167
-20.395
-18.705
-17.081
-15.503
-13.955
-12.421
-10.883
-9.324
-7.727
-6.077
-4.359
-2.562
-0.674
1.313
3.407
5.613
7.939
10.39
12.973
15.695
18.563
21.582
24.757
28.091
31.586
35.244
39.061
43.037
47.167
51.451
55.889
60.479
65.21
70.064
75.02
80.049
85.124
90.219
95.296
100.329
105.294
110.175
114.974
119.688
124.308
128.816
133.184
137.384
141.404
145.234
148.868
152.31
155.562
158.633
161.555
164.34
166.979
169.446
171.68
173.615
175.211
176.441
177.291
177.754
177.813
177.456
176.69
175.506
173.896
171.833
169.254
166.116
162.421
158.187
153.476
148.36
142.869
137.036
130.896
124.467
117.779
110.841
103.627
96.128
88.357
80.354
72.21
64.001
55.772
47.564
39.4
31.304
23.345
15.578
8.03
0.752
-6.216
-12.805
-18.905
-24.429
-29.324
-33.562
-37.159
-40.131
-42.477
-44.22
-45.395
-46.052
-46.278
-46.137
-45.666
-44.912
-43.923
-42.767
-41.542
-40.328
-39.174
-38.121
-37.19
-36.4
-35.78
-35.329
-35.028
-34.842
-34.721
-34.633
-34.568
-34.514
-34.457
-34.381
-34.256
-34.065
-33.81
-33.488
-33.1
-32.644
-32.115
-31.52
-30.881
-30.221
-29.569
-28.942
-28.349
-27.796
-27.29
-26.834
-26.432
-26.082
-25.773
-25.5
-25.262
-25.055
-24.882
-24.738
-24.617
-24.514
-24.423
-24.342
-24.267
-24.197
-24.13
-24.066
-24.006
-23.952
-23.908
-23.875
-23.854
-23.846
-23.851
-23.869
-23.901
-23.947
-24.005
-24.078
-24.164
-24.266
-24.384
-24.52
-24.674
-24.847
-25.039
-25.252
-25.485
-25.739
-26.011
-26.304
-26.614
-26.942
-27.287
-27.646
-28.018
-28.401
-28.794
-29.194
-29.6
-30.01
-30.422
-30.837
-31.252
-31.667
-32.081
-32.493
-32.904
-33.311
-33.716
-34.117
-34.515
-34.908
-35.298
-35.684
-36.068
-36.449
-36.829
-37.207
-37.585
-37.963
-38.342
-38.723
-39.107
-39.494
-39.887
-40.285
-40.691
-41.107
-41.532
-41.968
-42.414
-42.87
-43.337
-43.813
-44.297
-44.789
-45.287
-45.79
-46.297
-46.808
-47.321
-47.834
-48.345
-48.852
-49.352
-49.839
-50.311
-50.763
-51.192
-51.594
-51.966
-52.306
-52.611
-52.88
-53.112
-53.304
-53.453
-53.554
-53.604
-53.597
-53.53
-53.397
-53.196
-52.922
-52.571
-52.146
-51.646
-51.071
-50.419
-49.684
-48.863
-47.959
-46.979
-45.928
-44.817
-43.655
-42.462
-41.265
-40.093
-38.971
-37.916
-36.93
-36.018
-35.188
-34.445
-33.799
-33.244
-32.759
-32.332
-31.952
-31.607
-31.288
-30.964
-30.58
-30.094
-29.473
-28.704
-27.799
-26.765
-25.608
-24.351
-23.028
-21.701
-20.458
-19.365
-18.464
-17.803
-17.421
-17.374
-17.742
-18.568
-19.874
-21.664
-23.913
-26.601
-29.707
-33.174
-36.912
-40.799
-44.684
-48.453
-52.025
-55.314
-58.262
-60.822
-62.951
-64.663
-65.995
-66.967
-67.629
-68.05
-68.301
-68.508
-68.815
-69.352
-70.307
-71.89
-74.186
-77.159
-80.599
-84.082
-87.203
-89.658
-91.052
-90.888
-88.89
-85.127
-80.121
-74.899
-70.391
-67.052
-65.269
-65.648
-68.439
-73.133
-78.318
-81.521
-80.119
-72.257
-56.078
-29.044
11.007
65.443
133.091
209.183
288.668
366.784
441.828
517.218
593.404
667.378
731.338
765.702
752.826
683.674
554.217
379.964
188.718
6.453
-136.231
-220.641
-249.198
-232.689
-193.19
-153.955
-124.095
-104.888
-92.025
-78.697
-64.105
-50.823
-41.613
-38.865
-41.883
-48.313
-55.661
-61.468
-64.683
-65.213
-63.281
-59.567
-54.783
-49.531
-44.585
-40.693
-38.186
-37.138
-37.424
-38.729
-40.8
-43.438
-46.397
-49.447
-52.412
-55.146
-57.544
-59.546
-61.094
-62.144
-62.674
-62.68
-62.175
-61.197
-59.795
-58.026
-55.947
-53.609
-51.062
-48.35
-45.525
-42.643
-39.758
-36.921
-34.168
-31.524
-29.006
-26.623
-24.376
-22.258
-20.253
-18.338
-16.497
-14.714
-12.976
-11.271
-9.581
-7.887
-6.172
-4.418
-2.609
-0.733
1.227
3.283
5.447
7.726
10.129
12.661
15.331
18.148
21.12
24.254
27.552
31.017
34.652
38.458
42.433
46.573
50.869
55.316
59.908
64.64
69.507
74.495
79.583
84.748
89.974
95.237
100.515
105.781
111.002
116.155
121.227
126.204
131.075
135.819
140.405
144.803
148.984
152.929
156.634
160.087
163.267
166.164
168.776
171.103
173.164
174.946
176.408
177.52
178.247
178.574
178.504
178.037
177.164
175.881
174.17
172.03
169.474
166.498
163.089
159.233
154.902
150.112
144.92
139.375
133.524
127.407
121.043
114.462
107.712
100.826
93.842
86.788
79.681
72.558
65.471
58.469
51.611
44.925
38.403
32.046
25.862
19.858
14.054
8.458
3.066
-2.112
-7.061
-11.766
-16.208
-20.382
-24.296
-27.958
-31.378
-34.557
-37.482
-40.145
-42.548
-44.689
-46.572
-48.201
-49.571
-50.691
-51.577
-52.243
-52.706
-52.979
-53.07
-52.991
-52.753
-52.369
-51.856
-51.227
-50.495
-49.675
-48.782
-47.829
-46.834
-45.808
-44.761
-43.704
-42.646
-41.597
-40.565
-39.558
-38.584
-37.648
-36.757
-35.917
-35.133
-34.408
-33.746
-33.147
-32.613
-32.145
-31.743
-31.406
-31.133
-30.922
-30.772
-30.681
-30.646
-30.664
-30.734
-30.851
-31.013
-31.216
-31.455
-31.726
-32.027
-32.351
-32.696
-33.057
-33.432
-33.817
-34.209
-34.606
-35.004
-35.403
-35.799
-36.191
-36.578
-36.957
-37.329
-37.691
-38.045
-38.389
-38.724
-39.05
-39.367
-39.676
-39.976
-40.268
-40.552
-40.828
-41.098
-41.361
-41.618
-41.871
-42.12
-42.366
-42.61
-42.853
-43.097
-43.341
-43.586
-43.833
-44.082
-44.333
-44.585
-44.839
-45.094
-45.35
-45.606
-45.861
-46.115
-46.367
-46.615
-46.86
-47.1
-47.334
-47.561
-47.782
-47.996
-48.202
-48.401
-48.593
-48.778
-48.956
-49.128
-49.294
-49.455
-49.611
-49.762
-49.911
-50.057
-50.201
-50.346
-50.491
-50.639
-50.791
-50.948
-51.112
-51.284
-51.465
-51.656
-51.859
-52.074
-52.303
-52.545
-52.801
-53.072
-53.356
-53.653
-53.961
-54.279
-54.606
-54.937
-55.272
-55.605
-55.935
-56.257
-56.567
-56.86
-57.133
-57.379
-57.594
-57.772
-57.909
-57.997
-58.033
-58.011
-57.925
-57.771
-57.544
-57.241
-56.857
-56.39
-55.837
-55.196
-54.466
-53.647
-52.74
-51.746
-50.669
-49.513
-48.281
-46.982
-45.623
-44.211
-42.758
-41.273
-39.767
-38.253
-36.743
-35.247
-33.78
-32.354
-30.982
-29.677
-28.453
-27.323
-26.302
-25.404
-24.643
-24.029
-23.57
-23.273
-23.143
-23.187
-23.412
-23.825
-24.431
-25.232
-26.231
-27.427
-28.817
-30.387
-32.11
-33.952
-35.883
-37.871
-39.894
-41.925
-43.933
-45.884
-47.738
-49.459
-51.015
-52.379
-53.516
-54.402
-55.021
-55.393
-55.591
-55.692
-55.775
-55.904
-56.11
-56.446
-57.004
-57.872
-59.148
-60.932
-63.261
-66.214
-69.967
-74.534
-79.776
-85.374
-90.671
-95.05
-98.115
-99.328
-98.064
-94.202
-87.939
-79.962
-71.862
-64.934
-59.94
-58.006
-60.054
-65.824
-74.371
-83.569
-89.637
-89.406
-80.146
-58.126
-20.142
35.59
108.002
192.162
281.914
371.24
459.13
548.531
636.081
716.257
775.867
791.623
753.402
658.048
509.74
333.988
152.38
-14.879
-142.957
-226.422
-266.701
-270.8
-258.802
-241.584
-222.54
-202.287
-174.87
-139.752
-101.861
-66.112
-37.853
-19.338
-10.267
-9.794
-15.913
-26.39
-38.789
-50.608
-60.575
-68.003
-72.135
-72.8
-70.296
-65.249
-58.995
-52.985
-47.903
-44.093
-41.858
-41.178
-41.972
-44.079
-46.948
-49.908
-52.567
-54.714
-56.255
-57.242
-57.681
-57.545
-56.899
-55.855
-54.5
-52.897
-51.069
-49.005
-46.719
-44.265
-41.707
-39.117
-36.562
-34.075
-31.678
-29.386
-27.208
-25.149
-23.209
-21.373
-19.621
-17.937
-16.314
-14.743
-13.216
-11.716
-10.219
-8.699
-7.136
-5.511
-3.811
-2.021
-0.127
1.88
4.012
6.275
8.673
11.215
13.909
16.764
19.785
22.977
26.345
29.89
33.613
37.513
41.587
45.831
50.239
54.801
59.508
64.351
69.315
74.386
79.55
84.787
90.081
95.41
100.755
106.092
111.4
116.655
121.834
126.912
131.865
136.669
141.301
145.738
149.956
153.934
157.649
161.082
164.212
167.022
169.494
171.611
173.361
174.729
175.705
176.281
176.449
176.205
175.546
174.471
172.982
171.083
168.779
166.077
162.989
159.524
155.697
151.524
147.02
142.205
137.097
131.717
126.088
120.231
114.17
107.928
101.531
95.003
88.369
81.654
74.884
68.084
61.279
54.494
47.754
41.08
34.498
28.028
21.692
15.509
9.497
3.675
-1.943
-7.342
-12.509
-17.435
-22.11
-26.526
-30.678
-34.562
-38.174
-41.513
-44.581
-47.377
-49.906
-52.171
-54.178
-55.932
-57.441
-58.714
-59.759
-60.587
-61.208
-61.633
-61.875
-61.945
-61.856
-61.623
-61.257
-60.772
-60.183
-59.501
-58.741
-57.914
-57.034
-56.112
-55.16
-54.187
-53.205
-52.222
-51.247
-50.287
-49.351
-48.443
-47.57
-46.736
-45.946
-45.203
-44.51
-43.868
-43.28
-42.746
-42.267
-41.842
-41.471
-41.153
-40.887
-40.669
-40.499
-40.374
-40.289
-40.244
-40.233
-40.253
-40.301
-40.373
-40.466
-40.575
-40.697
-40.829
-40.967
-41.109
-41.25
-41.39
-41.524
-41.651
-41.769
-41.876
-41.971
-42.055
-42.124
-42.181
-42.224
-42.255
-42.273
-42.279
-42.274
-42.26
-42.237
-42.207
-42.171
-42.13
-42.086
-42.04
-41.993
-41.947
-41.903
-41.863
-41.827
-41.797
-41.774
-41.76
-41.755
-41.761
-41.778
-41.809
-41.853
-41.912
-41.987
-42.077
-42.184
-42.307
-42.445
-42.597
-42.763
-42.941
-43.129
-43.325
-43.527
-43.735
-43.945
-44.157
-44.369
-44.58
-44.789
-44.995
-45.197
-45.395
-45.59
-45.78
-45.966
-46.149
-46.328
-46.505
-46.679
-46.85
-47.019
-47.184
-47.345
-47.498
-47.644
-47.779
-47.904
-48.016
-48.116
-48.204
-48.279
-48.346
-48.404
-48.455
-48.501
-48.54
-48.572
-48.594
-48.604
-48.6
-48.576
-48.527
-48.448
-48.338
-48.191
-48.003
-47.766
-47.468
-47.103
-46.666
-46.156
-45.574
-44.924
-44.212
-43.448
-42.652
-41.843
-41.037
-40.249
-39.479
-38.726
-37.992
-37.28
-36.592
-35.926
-35.261
-34.574
-33.845
-33.052
-32.172
-31.174
-30.005
-28.621
-26.993
-25.1
-22.95
-20.562
-17.954
-15.148
-12.178
-9.091
-5.959
-2.869
0.112
2.913
5.471
7.714
9.54
10.865
11.628
11.795
11.372
10.384
8.85
6.801
4.289
1.384
-1.814
-5.182
-8.621
-12.046
-15.372
-18.514
-21.362
-23.819
-25.826
-27.371
-28.506
-29.29
-29.781
-30.028
-30.072
-29.996
-29.925
-30.004
-30.369
-31.125
-32.336
-34.104
-36.626
-39.977
-44.063
-48.579
-52.921
-56.512
-58.962
-59.832
-58.581
-54.974
-49.135
-41.679
-34.015
-27.516
-23.087
-21.664
-24.054
-30.34
-39.826
-50.738
-59.869
-63.925
-59.875
-44.342
-14.362
32.41
95.755
171.842
255.863
342.231
428.195
515.92
603.812
686.421
754.373
788.474
773.124
701.791
572.181
398.088
203.601
12.369
-146.642
-253.434
-306.324
-312.299
-290.083
-260.706
-232.299
-206.813
-181.033
-148.758
-111
-72.168
-36.599
-9.576
6.75
13.484
12.135
4.804
-6.09
-19.12
-32.978
-45.653
-55.612
-62.214
-65.208
-65.007
-62.527
-58.335
-53.106
-48.004
-43.838
-41.015
-39.755
-39.833
-40.871
-42.632
-44.752
-46.735
-48.291
-49.261
-49.582
-49.357
-48.674
-47.575
-46.149
-44.491
-42.654
-40.683
-38.594
-36.387
-34.089
-31.751
-29.421
-27.143
-24.936
-22.811
-20.772
-18.82
-16.955
-15.164
-13.43
-11.743
-10.097
-8.486
-6.907
-5.348
-3.792
-2.222
-0.62
1.033
2.753
4.554
6.448
8.445
10.553
12.781
15.135
17.621
20.248
23.024
25.954
29.046
32.301
35.723
39.312
43.066
46.983
51.057
55.284
59.655
64.165
68.802
73.558
78.42
83.376
88.412
93.513
98.662
103.841
109.032
114.214
119.366
124.467
129.494
134.424
139.233
143.899
148.398
152.707
156.803
160.664
164.268
167.596
170.627
173.343
175.728
177.766
179.443
180.748
181.669
182.2
182.332
182.061
181.385
180.3
178.809
176.912
174.613
171.919
168.836
165.374
161.544
157.36
152.838
147.992
142.844
137.412
131.717
125.784
119.636
113.297
106.794
100.153
93.4
86.563
79.67
72.746
65.819
58.915
52.059
45.277
38.593
32.029
25.607
19.349
13.273
7.399
1.743
-3.679
-8.852
-13.763
-18.401
-22.756
-26.82
-30.587
-34.052
-37.213
-40.07
-42.624
-44.877
-46.835
-48.503
-49.89
-51.005
-51.859
-52.462
-52.829
-52.972
-52.906
-52.646
-52.207
-51.605
-50.855
-49.973
-48.974
-47.873
-46.686
-45.427
-44.111
-42.752
-41.363
-39.958
-38.55
-37.151
-35.772
-34.424
-33.117
-31.859
-30.658
-29.521
-28.453
-27.459
-26.542
-25.704
-24.948
-24.274
-23.682
-23.169
-22.736
-22.379
-22.095
-21.881
-21.734
-21.65
-21.624
-21.654
-21.735
-21.864
-22.037
-22.25
-22.5
-22.784
-23.097
-23.437
-23.799
-24.181
-24.579
-24.991
-25.413
-25.844
-26.281
-26.724
-27.17
-27.619
-28.07
-28.524
-28.98
-29.437
-29.898
-30.362
-30.83
-31.302
-31.78
-32.265
-32.756
-33.254
-33.759
-34.271
-34.789
-35.313
-35.841
-36.372
-36.904
-37.438
-37.971
-38.502
-39.029
-39.553
-40.071
-40.582
-41.085
-41.578
-42.06
-42.53
-42.986
-43.427
-43.851
-44.258
-44.646
-45.015
-45.364
-45.694
-46.003
-46.292
-46.561
-46.812
-47.046
-47.264
-47.468
-47.662
-47.849
-48.03
-48.21
-48.392
-48.58
-48.776
-48.984
-49.206
-49.446
-49.705
-49.986
-50.29
-50.621
-50.978
-51.364
-51.779
-52.223
-52.696
-53.198
-53.728
-54.285
-54.865
-55.467
-56.088
-56.723
-57.369
-58.02
-58.671
-59.315
-59.948
-60.56
-61.146
-61.696
-62.204
-62.662
-63.062
-63.396
-63.657
-63.839
-63.936
-63.942
-63.852
-63.661
-63.366
-62.963
-62.45
-61.826
-61.09
-60.241
-59.282
-58.215
-57.043
-55.771
-54.405
-52.953
-51.423
-49.826
-48.172
-46.474
-44.746
-43.002
-41.257
-39.526
-37.822
-36.162
-34.561
-33.032
-31.592
-30.253
-29.03
-27.938
-26.991
-26.201
-25.58
-25.134
-24.868
-24.788
-24.898
-25.207
-25.72
-26.438
-27.363
-28.497
-29.838
-31.378
-33.101
-34.972
-36.953
-39.007
-41.098
-43.199
-45.279
-47.304
-49.236
-51.039
-52.673
-54.115
-55.339
-56.313
-57.021
-57.454
-57.643
-57.674
-57.64
-57.633
-57.724
-57.949
-58.357
-59.027
-60.038
-61.478
-63.426
-65.888
-68.919
-72.666
-77.126
-82.169
-87.438
-92.212
-95.816
-97.797
-97.619
-94.779
-89.215
-81.107
-71.31
-61.606
-53.505
-48.097
-46.465
-49.082
-55.464
-64.562
-73.88
-79.305
-77.166
-64.346
-37.551
5.422
64.919
140.35
227.582
318.519
407.348
489.249
560.429
621.407
667.845
691.053
683.572
635.86
545.497
420.187
272.306
122.281
-8.261
-105.043
-161.472
-182.787
-183.49
-175.82
-166.897
-158.193
-145.35
-126.981
-106.086
-86.221
-71.646
-64.22
-62.752
-65.572
-70.906
-76.748
-81.406
-83.973
-84.071
-81.901
-78.179
-73.535
-68.459
-63.598
-59.582
-56.694
-55.003
-54.35
-54.387
-54.864
-55.602
-56.401
-57.08
-57.49
-57.516
-57.095
-56.219
-54.893
-53.145
-51.017
-48.578
-45.928
-43.18
-40.445
-37.827
-35.409
-33.252
-31.402
-29.886
-28.731
-27.948
-27.528
-27.447
-27.649
-28.07
-28.652
-29.321
-29.991
-30.577
-30.996
-31.179
-31.078
-30.66
-29.899
-28.784
-27.307
-25.477
-23.317
-20.862
-18.159
-15.25
-12.164
-8.932
-5.584
-2.146
1.36
4.922
8.542
12.22
15.957
19.755
23.616
27.549
31.567
35.689
39.937
44.328
48.872
53.57
58.418
63.404
68.508
73.699
78.94
84.194
89.429
94.62
99.749
104.806
109.78
114.662
119.434
124.071
128.552
132.857
136.973
140.893
144.62
148.17
151.564
154.832
157.989
161.036
163.956
166.708
169.244
171.506
173.446
175.032
176.24
177.046
177.429
177.368
176.833
175.785
174.18
171.959
169.085
165.538
161.328
156.496
151.103
145.231
138.953
132.332
125.425
118.278
110.937
103.447
95.855
88.212
80.582
73.044
65.664
58.497
51.578
44.918
38.509
32.327
26.354
20.573
14.977
9.566
4.345
-0.679
-5.497
-10.101
-14.491
-18.68
-22.677
-26.494
-30.133
-33.59
-36.85
-39.897
-42.714
-45.289
-47.613
-49.685
-51.508
-53.088
-54.438
-55.572
-56.503
-57.24
-57.793
-58.168
-58.376
-58.429
-58.339
-58.12
-57.788
-57.358
-56.843
-56.256
-55.61
-54.915
-54.178
-53.406
-52.606
-51.784
-50.946
-50.099
-49.248
-48.398
-47.555
-46.722
-45.903
-45.101
-44.317
-43.554
-42.812
-42.092
-41.393
-40.716
-40.06
-39.426
-38.812
-38.219
-37.645
-37.091
-36.556
-36.039
-35.54
-35.058
-34.591
-34.141
-33.706
-33.285
-32.879
-32.489
-32.114
-31.755
-31.414
-31.091
-30.789
-30.508
-30.251
-30.018
-29.812
-29.634
-29.487
-29.373
-29.292
-29.248
-29.24
-29.271
-29.342
-29.452
-29.602
-29.792
-30.022
-30.291
-30.599
-30.945
-31.328
-31.746
-32.199
-32.685
-33.201
-33.747
-34.319
-34.916
-35.534
-36.17
-36.822
-37.485
-38.157
-38.833
-39.508
-40.18
-40.843
-41.492
-42.125
-42.737
-43.325
-43.885
-44.416
-44.914
-45.38
-45.812
-46.209
-46.571
-46.897
-47.189
-47.446
-47.67
-47.86
-48.019
-48.148
-48.249
-48.325
-48.377
-48.409
-48.422
-48.42
-48.405
-48.381
-48.351
-48.319
-48.288
-48.264
-48.249
-48.251
-48.271
-48.315
-48.386
-48.487
-48.618
-48.782
-48.977
-49.202
-49.456
-49.736
-50.042
-50.371
-50.721
-51.089
-51.474
-51.875
-52.288
-52.708
-53.128
-53.542
-53.944
-54.326
-54.68
-54.997
-55.27
-55.493
-55.661
-55.769
-55.811
-55.777
-55.653
-55.431
-55.107
-54.679
-54.147
-53.513
-52.782
-51.969
-51.101
-50.202
-49.289
-48.368
-47.438
-46.5
-45.559
-44.619
-43.685
-42.748
-41.795
-40.822
-39.826
-38.806
-37.749
-36.621
-35.371
-33.96
-32.372
-30.611
-28.702
-26.662
-24.516
-22.299
-20.061
-17.878
-15.821
-13.941
-12.276
-10.861
-9.75
-9.015
-8.748
-9.007
-9.811
-11.153
-13.008
-15.355
-18.161
-21.366
-24.881
-28.585
-32.368
-36.151
-39.872
-43.47
-46.869
-49.977
-52.704
-55.014
-56.936
-58.513
-59.8
-60.835
-61.634
-62.259
-62.822
-63.457
-64.292
-65.421
-66.885
-68.762
-71.224
-74.353
-78.088
-82.148
-85.947
-88.886
-90.532
-90.428
-88.016
-83.008
-75.509
-66.134
-56.328
-47.627
-41.134
-37.936
-39.021
-44.663
-54.22
-65.89
-76.348
-82.006
-79.544
-65.283
-35.792
11.786
77.323
156.479
243.776
333.102
422.48
516.288
614.16
710.304
792.635
836.649
823.31
745.478
602.589
414.081
209.126
13.483
-142.615
-242.261
-287.826
-285.775
-255.248
-214.518
-168.435
-125.065
-85.609
-49.207
-23.061
-5.093
5.936
8.796
8.248
3.05
-7.619
-20.684
-35.381
-49.071
-59.165
-65.165
-66.721
-64.369
-59.332
-53.011
-46.822
-41.573
-37.673
-35.408
-34.778
-35.727
-38.082
-41.295
-44.752
-48.068
-50.991
-53.403
-55.313
-56.679
-57.454
-57.686
-57.45
-56.806
-55.808
-54.473
-52.795
-50.797
-48.521
-46.015
-43.348
-40.579
-37.76
-34.944
-32.167
-29.457
-26.838
-24.324
-21.923
-19.632
-17.444
-15.35
-13.343
-11.416
-9.559
-7.757
-5.99
-4.24
-2.488
-0.719
1.08
2.926
4.83
6.808
8.869
11.025
13.283
15.653
18.146
20.773
23.542
26.462
29.541
32.785
36.199
39.788
43.553
47.496
51.614
55.904
60.361
64.977
69.745
74.651
79.685
84.83
90.071
95.39
100.768
106.184
111.616
117.042
122.436
127.776
133.036
138.19
143.212
148.077
152.758
157.231
161.47
165.45
169.149
172.542
175.609
178.33
180.685
182.657
184.232
185.396
186.139
186.452
186.33
185.768
184.765
183.322
181.442
179.133
176.4
173.255
169.71
165.779
161.477
156.823
151.836
146.537
140.948
135.093
128.996
122.684
116.184
109.522
102.726
95.826
88.849
81.823
74.778
67.74
60.738
53.798
46.945
40.204
33.599
27.151
20.88
14.805
8.942
3.307
-2.086
-7.227
-12.106
-16.713
-21.044
-25.092
-28.855
-32.33
-35.519
-38.422
-41.042
-43.383
-45.452
-47.255
-48.8
-50.097
-51.157
-51.99
-52.609
-53.027
-53.257
-53.312
-53.208
-52.958
-52.576
-52.077
-51.474
-50.78
-50.01
-49.173
-48.284
-47.351
-46.387
-45.399
-44.398
-43.391
-42.387
-41.391
-40.411
-39.453
-38.52
-37.618
-36.751
-35.92
-35.13
-34.38
-33.674
-33.01
-32.39
-31.812
-31.275
-30.778
-30.318
-29.894
-29.504
-29.143
-28.811
-28.504
-28.22
-27.956
-27.71
-27.482
-27.268
-27.067
-26.879
-26.703
-26.538
-26.384
-26.24
-26.106
-25.983
-25.87
-25.768
-25.677
-25.597
-25.53
-25.475
-25.434
-25.407
-25.395
-25.4
-25.423
-25.464
-25.526
-25.61
-25.717
-25.848
-26.005
-26.188
-26.399
-26.637
-26.903
-27.197
-27.519
-27.867
-28.242
-28.641
-29.063
-29.507
-29.971
-30.451
-30.947
-31.456
-31.975
-32.503
-33.037
-33.575
-34.115
-34.654
-35.192
-35.725
-36.252
-36.772
-37.281
-37.778
-38.262
-38.731
-39.182
-39.616
-40.03
-40.425
-40.8
-41.153
-41.487
-41.8
-42.094
-42.37
-42.629
-42.872
-43.101
-43.319
-43.528
-43.73
-43.928
-44.125
-44.323
-44.526
-44.736
-44.954
-45.183
-45.425
-45.68
-45.951
-46.239
-46.545
-46.87
-47.215
-47.58
-47.967
-48.374
-48.802
-49.249
-49.714
-50.195
-50.689
-51.194
-51.705
-52.219
-52.732
-53.242
-53.744
-54.233
-54.706
-55.156
-55.58
-55.973
-56.327
-56.634
-56.887
-57.079
-57.204
-57.259
-57.237
-57.136
-56.949
-56.676
-56.316
-55.869
-55.331
-54.696
-53.955
-53.109
-52.165
-51.134
-50.027
-48.853
-47.621
-46.347
-45.052
-43.751
-42.449
-41.143
-39.824
-38.497
-37.173
-35.874
-34.621
-33.423
-32.28
-31.187
-30.148
-29.168
-28.245
-27.363
-26.499
-25.646
-24.822
-24.072
-23.44
-22.951
-22.622
-22.456
-22.459
-22.651
-23.054
-23.683
-24.537
-25.61
-26.895
-28.407
-30.166
-32.166
-34.366
-36.693
-39.072
-41.445
-43.76
-45.97
-48.023
-49.865
-51.449
-52.748
-53.766
-54.535
-55.107
-55.523
-55.814
-56.011
-56.176
-56.414
-56.837
-57.551
-58.653
-60.211
-62.318
-65.131
-68.721
-73.012
-77.758
-82.465
-86.588
-89.706
-91.361
-90.991
-88.255
-83.158
-76.169
-68.441
-61.242
-55.477
-52.009
-51.702
-54.898
-61.146
-68.979
-75.638
-77.994
-73.107
-57.97
-29.627
14.6
74.798
147.691
228.95
313.041
397.522
486.01
578.624
670.833
753.282
804.406
804.86
746.318
626.018
458.08
268.251
80.122
-78.536
-187.346
-244.335
-256.11
-240.646
-219.335
-200.679
-185.858
-170.415
-147.281
-116.76
-82.653
-49.203
-21.501
-1.838
9.511
12.853
9.897
2.528
-8.047
-20.697
-34.214
-47.026
-57.482
-64.66
-68.425
-69.206
-67.611
-64.143
-59.467
-54.638
-50.608
-47.909
-46.742
-46.92
-48.106
-50.048
-52.384
-54.63
-56.454
-57.679
-58.241
-58.232
-57.752
-56.846
-55.599
-54.102
-52.4
-50.529
-48.502
-46.315
-43.999
-41.606
-39.191
-36.802
-34.464
-32.19
-29.989
-27.864
-25.813
-23.826
-21.886
-19.985
-18.122
-16.296
-14.507
-12.747
-11
-9.249
-7.473
-5.654
-3.773
-1.816
0.234
2.39
4.659
7.047
9.558
12.201
14.989
17.935
21.051
24.342
27.809
31.452
35.27
39.255
43.39
47.648
52
56.428
60.922
65.478
70.09
74.75
79.448
84.174
88.93
93.721
98.545
103.394
108.262
113.15
118.078
123.085
128.196
133.419
138.737
144.117
149.53
154.938
160.293
165.534
170.574
175.333
179.751
183.778
187.369
190.466
192.987
194.834
195.931
196.229
195.708
194.362
192.19
189.208
185.454
180.999
175.943
170.372
164.35
157.927
151.154
144.094
136.831
129.46
122.053
114.668
107.351
100.139
93.074
86.18
79.46
72.891
66.431
60.057
53.763
47.554
41.438
35.415
29.478
23.62
17.849
12.175
6.605
1.149
-4.193
-9.408
-14.475
-19.361
-24.03
-28.457
-32.628
-36.532
-40.164
-43.518
-46.592
-49.388
-51.916
-54.184
-56.199
-57.967
-59.493
-60.785
-61.855
-62.718
-63.389
-63.882
-64.209
-64.381
-64.412
-64.312
-64.093
-63.761
-63.325
-62.792
-62.172
-61.475
-60.709
-59.885
-59.012
-58.098
-57.151
-56.181
-55.194
-54.195
-53.191
-52.187
-51.186
-50.194
-49.214
-48.249
-47.303
-46.377
-45.475
-44.598
-43.747
-42.925
-42.133
-41.371
-40.64
-39.943
-39.28
-38.652
-38.06
-37.506
-36.99
-36.514
-36.079
-35.683
-35.329
-35.016
-34.743
-34.512
-34.32
-34.17
-34.059
-33.988
-33.957
-33.965
-34.011
-34.095
-34.216
-34.372
-34.564
-34.79
-35.049
-35.339
-35.66
-36.009
-36.387
-36.79
-37.217
-37.665
-38.132
-38.616
-39.113
-39.621
-40.136
-40.656
-41.178
-41.699
-42.216
-42.726
-43.227
-43.715
-44.189
-44.644
-45.08
-45.492
-45.881
-46.242
-46.577
-46.882
-47.158
-47.404
-47.62
-47.805
-47.959
-48.082
-48.176
-48.24
-48.276
-48.284
-48.267
-48.226
-48.163
-48.081
-47.982
-47.869
-47.745
-47.613
-47.476
-47.337
-47.2
-47.067
-46.943
-46.83
-46.733
-46.655
-46.6
-46.57
-46.568
-46.598
-46.661
-46.759
-46.894
-47.066
-47.276
-47.524
-47.811
-48.135
-48.497
-48.894
-49.326
-49.789
-50.283
-50.803
-51.347
-51.91
-52.49
-53.081
-53.68
-54.282
-54.882
-55.474
-56.054
-56.615
-57.153
-57.662
-58.134
-58.565
-58.948
-59.277
-59.547
-59.752
-59.886
-59.947
-59.928
-59.828
-59.642
-59.37
-59.008
-58.557
-58.015
-57.384
-56.664
-55.857
-54.967
-53.996
-52.949
-51.831
-50.648
-49.406
-48.112
-46.774
-45.402
-44.005
-42.594
-41.178
-39.771
-38.384
-37.029
-35.716
-34.458
-33.265
-32.147
-31.115
-30.178
-29.347
-28.631
-28.039
-27.58
-27.26
-27.085
-27.054
-27.168
-27.426
-27.825
-28.371
-29.063
-29.901
-30.883
-32.01
-33.274
-34.668
-36.17
-37.748
-39.369
-41
-42.608
-44.168
-45.651
-47.025
-48.258
-49.314
-50.157
-50.763
-51.098
-51.134
-50.853
-50.264
-49.419
-48.407
-47.319
-46.237
-45.22
-44.338
-43.69
-43.372
-43.458
-43.999
-45.002
-46.535
-48.777
-51.81
-55.538
-59.711
-63.864
-67.543
-70.41
-71.981
-71.547
-68.672
-63.409
-56.229
-48.088
-40.113
-33.356
-29.072
-28.768
-31.945
-35.692
-37.288
-34.937
-30.905
-30.252
-33.054
-31.365
-10.752
41.488
128.714
241.041
360.582
477.292
586.426
685.706
773.92
833.229
840.653
783.315
653.864
466.295
252.274
40.513
-136.816
-257.282
-321.738
-336.402
-317.564
-285.113
-242.073
-192.767
-142.358
-91.434
-51.871
-29.039
-17.344
-14.983
-14.995
-13.386
-15.205
-21.147
-30.234
-41.601
-50.934
-55.601
-55.646
-51.441
-44.117
-35.445
-27.041
-19.823
-14.462
-11.401
-10.486
-11.531
-14.336
-18.285
-22.681
-27.092
-31.179
-34.747
-37.824
-40.364
-42.29
-43.62
-44.356
-44.5
-44.083
-43.117
-41.613
-39.631
-37.265
-34.605
-31.755
-28.803
-25.816
-22.852
-19.948
-17.128
-14.413
-11.823
-9.388
-7.124
-5.037
-3.119
-1.357
0.276
1.811
3.284
4.735
6.201
7.706
9.27
10.907
12.625
14.432
16.337
18.35
20.482
22.744
25.144
27.691
30.39
33.244
36.258
39.429
42.76
46.249
49.899
53.708
57.678
61.807
66.092
70.529
75.111
79.829
84.671
89.625
94.677
99.809
105.006
110.249
115.518
120.794
126.055
131.281
136.447
141.531
146.51
151.36
156.056
160.577
164.897
168.995
172.848
176.434
179.733
182.725
185.391
187.714
189.677
191.267
192.469
193.274
193.671
193.655
193.218
192.358
191.075
189.369
187.244
184.704
181.757
178.413
174.683
170.581
166.121
161.32
156.198
150.774
145.07
139.108
132.912
126.507
119.918
113.17
106.29
99.306
92.242
85.127
77.987
70.849
63.739
56.683
49.705
42.83
36.08
29.476
23.04
16.79
10.744
4.919
-0.672
-6.015
-11.099
-15.914
-20.452
-24.708
-28.677
-32.358
-35.75
-38.853
-41.672
-44.209
-46.47
-48.462
-50.192
-51.669
-52.903
-53.903
-54.682
-55.25
-55.622
-55.809
-55.825
-55.684
-55.399
-54.983
-54.451
-53.815
-53.088
-52.283
-51.412
-50.488
-49.523
-48.526
-47.509
-46.481
-45.451
-44.427
-43.416
-42.423
-41.455
-40.516
-39.609
-38.738
-37.906
-37.114
-36.364
-35.658
-34.995
-34.377
-33.802
-33.27
-32.78
-32.33
-31.92
-31.547
-31.211
-30.909
-30.64
-30.402
-30.192
-30.009
-29.85
-29.713
-29.595
-29.495
-29.411
-29.339
-29.28
-29.231
-29.19
-29.158
-29.134
-29.116
-29.105
-29.1
-29.102
-29.11
-29.124
-29.145
-29.174
-29.209
-29.253
-29.306
-29.367
-29.439
-29.52
-29.613
-29.717
-29.833
-29.962
-30.104
-30.26
-30.431
-30.618
-30.823
-31.047
-31.291
-31.556
-31.844
-32.157
-32.494
-32.858
-33.249
-33.668
-34.116
-34.593
-35.1
-35.637
-36.203
-36.8
-37.426
-38.081
-38.765
-39.476
-40.214
-40.978
-41.767
-42.578
-43.412
-44.266
-45.139
-46.029
-46.934
-47.852
-48.779
-49.714
-50.653
-51.593
-52.531
-53.462
-54.384
-55.293
-56.184
-57.054
-57.9
-58.717
-59.501
-60.249
-60.957
-61.621
-62.238
-62.805
-63.318
-63.775
-64.173
-64.51
-64.785
-64.994
-65.137
-65.212
-65.217
-65.152
-65.015
-64.805
-64.522
-64.165
-63.734
-63.229
-62.651
-62.001
-61.28
-60.488
-59.628
-58.701
-57.709
-56.654
-55.54
-54.368
-53.143
-51.868
-50.548
-49.186
-47.787
-46.357
-44.9
-43.423
-41.929
-40.424
-38.916
-37.408
-35.908
-34.423
-32.959
-31.522
-30.124
-28.772
-27.476
-26.246
-25.091
-24.022
-23.049
-22.181
-21.426
-20.79
-20.278
-19.898
-19.656
-19.557
-19.607
-19.813
-20.176
-20.701
-21.391
-22.242
-23.249
-24.405
-25.702
-27.137
-28.712
-30.428
-32.284
-34.281
-36.416
-38.682
-41.064
-43.536
-46.061
-48.6
-51.113
-53.563
-55.924
-58.165
-60.256
-62.161
-63.835
-65.236
-66.327
-67.068
-67.423
-67.382
-66.969
-66.23
-65.258
-64.137
-62.93
-61.721
-60.6
-59.652
-58.98
-58.685
-58.823
-59.501
-60.902
-63.073
-65.954
-69.314
-72.639
-75.417
-77.263
-77.639
-75.93
-71.944
-65.812
-58.205
-50.586
-44.217
-39.945
-38.788
-41.584
-48.196
-57.722
-68.096
-75.822
-77.438
-69.896
-49.943
-14.348
37.517
103.197
179.244
260.38
343.876
432.904
527.406
621.08
703.168
754.466
757.234
707.027
606.066
463.008
295.475
119.556
-47.803
-184.04
-273.286
-310.686
-298.263
-248.655
-181.467
-110.174
-47.083
-4.404
15.192
10.845
-13.948
-48.55
-83.086
-107.744
-116.549
-107.809
-85.928
-60.912
-40.062
-29.531
-29.494
-33.429
-37.486
-39.001
-37.636
-36.419
-36.487
-37.608
-39.588
-41.683
-43.658
-45.838
-48.223
-50.635
-52.96
-55.072
-56.887
-58.345
-59.369
-59.873
-59.834
-59.297
-58.319
-56.958
-55.267
-53.29
-51.073
-48.659
-46.098
-43.44
-40.74
-38.054
-35.421
-32.869
-30.416
-28.072
-25.841
-23.719
-21.688
-19.727
-17.819
-15.95
-14.108
-12.284
-10.464
-8.631
-6.771
-4.869
-2.911
-0.888
1.212
3.401
5.687
8.075
10.573
13.182
15.908
18.757
21.735
24.845
28.094
31.482
35.012
38.686
42.503
46.462
50.558
54.786
59.141
63.615
68.2
72.885
77.659
82.51
87.423
92.385
97.379
102.39
107.399
112.39
117.344
122.242
127.065
131.793
136.405
140.882
145.204
149.351
153.302
157.038
160.539
163.787
166.764
169.452
171.835
173.897
175.625
177.005
178.028
178.682
178.96
178.855
178.364
177.483
176.211
174.549
172.501
170.069
167.26
164.082
160.544
156.656
152.431
147.882
143.024
137.873
132.448
126.766
120.848
114.715
108.39
101.895
95.256
88.496
81.641
74.716
67.747
60.76
53.782
46.837
39.951
33.148
26.451
19.884
13.469
7.225
1.171
-4.674
-10.295
-15.676
-20.806
-25.67
-30.26
-34.566
-38.581
-42.299
-45.716
-48.829
-51.637
-54.141
-56.343
-58.248
-59.86
-61.187
-62.238
-63.022
-63.551
-63.837
-63.893
-63.734
-63.374
-62.83
-62.118
-61.254
-60.254
-59.136
-57.915
-56.607
-55.228
-53.793
-52.315
-50.81
-49.291
-47.77
-46.259
-44.77
-43.314
-41.9
-40.538
-39.236
-38.001
-36.84
-35.758
-34.759
-33.846
-33.022
-32.289
-31.645
-31.092
-30.626
-30.247
-29.951
-29.733
-29.59
-29.518
-29.511
-29.564
-29.671
-29.829
-30.032
-30.274
-30.552
-30.861
-31.196
-31.553
-31.929
-32.319
-32.719
-33.127
-33.539
-33.952
-34.362
-34.767
-35.166
-35.554
-35.932
-36.298
-36.65
-36.988
-37.311
-37.621
-37.917
-38.2
-38.472
-38.732
-38.984
-39.229
-39.467
-39.7
-39.929
-40.156
-40.381
-40.604
-40.825
-41.045
-41.263
-41.479
-41.693
-41.904
-42.11
-42.312
-42.509
-42.701
-42.886
-43.065
-43.236
-43.401
-43.557
-43.706
-43.847
-43.98
-44.104
-44.219
-44.326
-44.423
-44.511
-44.589
-44.658
-44.716
-44.766
-44.807
-44.839
-44.865
-44.885
-44.9
-44.913
-44.926
-44.94
-44.959
-44.984
-45.017
-45.063
-45.123
-45.199
-45.294
-45.409
-45.547
-45.708
-45.893
-46.104
-46.34
-46.601
-46.887
-47.198
-47.532
-47.89
-48.268
-48.666
-49.082
-49.512
-49.955
-50.407
-50.864
-51.322
-51.779
-52.229
-52.668
-53.092
-53.495
-53.873
-54.22
-54.53
-54.8
-55.022
-55.191
-55.303
-55.352
-55.333
-55.244
-55.079
-54.836
-54.513
-54.106
-53.615
-53.039
-52.377
-51.63
-50.798
-49.884
-48.892
-47.824
-46.686
-45.484
-44.224
-42.915
-41.565
-40.183
-38.781
-37.369
-35.957
-34.556
-33.177
-31.831
-30.528
-29.278
-28.093
-26.983
-25.959
-25.034
-24.218
-23.522
-22.955
-22.524
-22.232
-22.082
-22.076
-22.217
-22.513
-22.97
-23.591
-24.379
-25.335
-26.456
-27.734
-29.148
-30.664
-32.251
-33.877
-35.514
-37.143
-38.742
-40.284
-41.743
-43.083
-44.27
-45.279
-46.081
-46.649
-46.967
-47.039
-46.916
-46.679
-46.414
-46.194
-46.056
-46.038
-46.204
-46.627
-47.394
-48.587
-50.249
-52.441
-55.313
-58.924
-63.199
-67.875
-72.39
-76.122
-78.615
-79.4
-77.944
-74.018
-67.773
-59.839
-51.655
-44.757
-40.22
-39.065
-42.148
-49.505
-60.309
-72.675
-83.218
-88.26
-84.533
-68.561
-37.203
11.646
77.201
155.269
240.538
326.922
412.802
500.795
587.689
666.481
724.034
740.95
708.735
629.912
512.464
371.652
222.107
74.58
-55.472
-149.979
-200.334
-206.426
-179.71
-143.057
-111.538
-90.608
-79.663
-71.241
-62.012
-53.563
-47.93
-47.668
-52.563
-60.289
-68.453
-74.763
-78.222
-78.733
-76.476
-72.091
-66.345
-59.922
-53.643
-48.262
-44.11
-41.31
-39.807
-39.366
-39.804
-40.956
-42.607
-44.553
-46.646
-48.755
-50.777
-52.633
-54.212
-55.419
-56.2
-56.512
-56.353
-55.733
-54.674
-53.213
-51.396
-49.274
-46.892
-44.295
-41.528
-38.644
-35.702
-32.76
-29.879
-27.102
-24.458
-21.968
-19.639
-17.467
-15.445
-13.555
-11.774
-10.085
-8.474
-6.927
-5.432
-3.975
-2.541
-1.11
0.337
1.818
3.35
4.95
6.633
8.414
10.304
12.315
14.452
16.722
19.134
21.697
24.424
27.33
30.424
33.71
37.192
40.87
44.738
48.784
52.988
57.317
61.745
66.255
70.834
75.478
80.18
84.928
89.715
94.533
99.374
104.236
109.108
113.972
118.823
123.666
128.52
133.426
138.404
143.448
148.544
153.658
158.75
163.781
168.687
173.393
177.83
181.935
185.659
188.974
191.83
194.168
195.916
196.98
197.295
196.83
195.563
193.493
190.637
187.024
182.719
177.817
172.4
166.533
160.274
153.658
146.738
139.582
132.263
124.867
117.465
110.106
102.84
95.71
88.739
81.94
75.3
68.775
62.343
55.994
49.728
43.561
37.5
31.544
25.695
19.957
14.334
8.832
3.457
-1.791
-6.901
-11.857
-16.631
-21.187
-25.495
-29.54
-33.31
-36.799
-40.006
-42.925
-45.561
-47.922
-50.014
-51.846
-53.422
-54.745
-55.823
-56.667
-57.291
-57.71
-57.94
-57.992
-57.882
-57.622
-57.225
-56.702
-56.065
-55.322
-54.481
-53.555
-52.553
-51.489
-50.371
-49.212
-48.02
-46.807
-45.581
-44.352
-43.126
-41.911
-40.712
-39.535
-38.387
-37.271
-36.191
-35.152
-34.156
-33.206
-32.305
-31.455
-30.656
-29.91
-29.217
-28.577
-27.991
-27.457
-26.976
-26.546
-26.166
-25.836
-25.554
-25.318
-25.127
-24.978
-24.868
-24.796
-24.76
-24.756
-24.783
-24.837
-24.918
-25.022
-25.148
-25.294
-25.458
-25.639
-25.835
-26.045
-26.268
-26.502
-26.748
-27.003
-27.269
-27.543
-27.826
-28.118
-28.417
-28.725
-29.04
-29.363
-29.693
-30.031
-30.376
-30.728
-31.088
-31.456
-31.831
-32.214
-32.604
-33.002
-33.407
-33.819
-34.238
-34.663
-35.094
-35.53
-35.971
-36.415
-36.863
-37.311
-37.76
-38.208
-38.652
-39.093
-39.527
-39.954
-40.371
-40.778
-41.173
-41.553
-41.919
-42.268
-42.6
-42.913
-43.207
-43.48
-43.732
-43.962
-44.171
-44.359
-44.525
-44.671
-44.796
-44.902
-44.989
-45.06
-45.114
-45.153
-45.181
-45.197
-45.206
-45.208
-45.206
-45.204
-45.202
-45.203
-45.211
-45.226
-45.25
-45.286
-45.334
-45.397
-45.475
-45.569
-45.681
-45.809
-45.954
-46.116
-46.293
-46.484
-46.687
-46.9
-47.119
-47.343
-47.568
-47.79
-48.007
-48.213
-48.404
-48.575
-48.723
-48.841
-48.923
-48.965
-48.962
-48.909
-48.801
-48.635
-48.405
-48.109
-47.743
-47.307
-46.797
-46.213
-45.553
-44.819
-44.01
-43.13
-42.181
-41.166
-40.091
-38.962
-37.788
-36.575
-35.335
-34.076
-32.81
-31.548
-30.303
-29.084
-27.902
-26.769
-25.695
-24.692
-23.771
-22.945
-22.225
-21.625
-21.154
-20.824
-20.641
-20.607
-20.725
-20.995
-21.421
-22.011
-22.771
-23.703
-24.814
-26.106
-27.575
-29.216
-31.004
-32.903
-34.876
-36.887
-38.903
-40.901
-42.851
-44.723
-46.483
-48.089
-49.504
-50.695
-51.627
-52.261
-52.575
-52.576
-52.323
-51.91
-51.431
-50.967
-50.567
-50.291
-50.233
-50.486
-51.145
-52.311
-54.02
-56.362
-59.532
-63.574
-68.368
-73.602
-78.616
-82.761
-85.621
-86.631
-85.149
-81.043
-74.504
-66.338
-58.257
-51.69
-47.569
-46.997
-50.789
-58.663
-69.51
-80.903
-88.975
-90.041
-80.708
-57.38
-16.562
42.332
116.119
200.453
289.431
380.418
477.286
580.17
682.052
770.772
824.859
824.48
764.735
647.124
482.272
294.43
103.879
-66.716
-191.529
-263.719
-284.057
-260.378
-213.872
-157.487
-101.21
-57.706
-30.956
-23.726
-34.507
-51.568
-65.514
-71.399
-68.553
-63.409
-60.662
-60.565
-61.927
-61.793
-58.815
-54.025
-48.566
-43.473
-39.391
-36.508
-34.903
-34.601
-35.445
-37.126
-39.397
-42.104
-45.096
-48.234
-51.374
-54.347
-57.03
-59.349
-61.233
-62.632
-63.517
-63.874
-63.717
-63.085
-62.028
-60.599
-58.848
-56.821
-54.56
-52.111
-49.526
-46.863
-44.179
-41.526
-38.941
-36.45
-34.071
-31.812
-29.672
-27.641
-25.704
-23.838
-22.03
-20.266
-18.534
-16.822
-15.114
-13.394
-11.646
-9.854
-8.003
-6.079
-4.069
-1.962
0.253
2.584
5.038
7.619
10.335
13.192
16.196
19.353
22.666
26.139
29.774
33.572
37.534
41.656
45.935
50.365
54.941
59.653
64.492
69.446
74.504
79.65
84.869
90.144
95.458
100.789
106.117
111.421
116.677
121.863
126.953
131.924
136.751
141.41
145.877
150.129
154.143
157.898
161.371
164.545
167.399
169.917
172.083
173.882
175.301
176.329
176.957
177.177
176.985
176.376
175.35
173.906
172.048
169.779
167.106
164.039
160.587
156.763
152.581
148.059
143.215
138.068
132.639
126.951
121.028
114.893
108.574
102.094
95.48
88.758
81.956
75.098
68.212
61.323
54.456
47.637
40.887
34.232
27.691
21.287
15.039
8.965
3.083
-2.593
-8.048
-13.269
-18.246
-22.968
-27.43
-31.623
-35.545
-39.192
-42.565
-45.662
-48.488
-51.044
-53.337
-55.373
-57.159
-58.703
-60.015
-61.105
-61.984
-62.664
-63.155
-63.471
-63.623
-63.624
-63.487
-63.223
-62.845
-62.364
-61.793
-61.143
-60.423
-59.646
-58.82
-57.956
-57.061
-56.143
-55.212
-54.272
-53.331
-52.394
-51.465
-50.549
-49.648
-48.767
-47.907
-47.07
-46.256
-45.467
-44.702
-43.962
-43.246
-42.553
-41.882
-41.233
-40.605
-39.997
-39.407
-38.836
-38.282
-37.746
-37.226
-36.723
-36.237
-35.768
-35.317
-34.884
-34.471
-34.077
-33.704
-33.353
-33.025
-32.722
-32.444
-32.194
-31.972
-31.779
-31.618
-31.488
-31.392
-31.331
-31.305
-31.316
-31.363
-31.448
-31.571
-31.732
-31.93
-32.165
-32.436
-32.742
-33.081
-33.452
-33.851
-34.277
-34.728
-35.199
-35.687
-36.191
-36.704
-37.226
-37.751
-38.277
-38.8
-39.317
-39.825
-40.32
-40.801
-41.263
-41.706
-42.126
-42.522
-42.892
-43.235
-43.551
-43.838
-44.096
-44.325
-44.527
-44.7
-44.847
-44.969
-45.067
-45.143
-45.2
-45.241
-45.267
-45.283
-45.291
-45.295
-45.298
-45.304
-45.316
-45.338
-45.371
-45.42
-45.487
-45.575
-45.686
-45.822
-45.985
-46.178
-46.4
-46.654
-46.939
-47.255
-47.603
-47.98
-48.386
-48.82
-49.278
-49.759
-50.261
-50.779
-51.311
-51.853
-52.4
-52.947
-53.491
-54.025
-54.544
-55.042
-55.515
-55.956
-56.361
-56.723
-57.039
-57.304
-57.511
-57.656
-57.736
-57.744
-57.678
-57.532
-57.304
-56.99
-56.587
-56.095
-55.511
-54.835
-54.065
-53.203
-52.248
-51.204
-50.072
-48.854
-47.556
-46.181
-44.737
-43.228
-41.664
-40.052
-38.4
-36.72
-35.021
-33.314
-31.612
-29.926
-28.269
-26.653
-25.093
-23.599
-22.183
-20.857
-19.633
-18.521
-17.532
-16.678
-15.969
-15.416
-15.028
-14.811
-14.772
-14.911
-15.228
-15.721
-16.391
-17.24
-18.272
-19.483
-20.872
-22.438
-24.175
-26.071
-28.106
-30.245
-32.457
-34.71
-36.976
-39.235
-41.461
-43.625
-45.692
-47.622
-49.376
-50.92
-52.22
-53.239
-53.949
-54.349
-54.479
-54.411
-54.224
-53.976
-53.697
-53.426
-53.233
-53.21
-53.46
-54.081
-55.128
-56.688
-58.951
-61.993
-65.734
-69.891
-73.866
-77.035
-78.978
-79.215
-77.136
-72.51
-65.52
-56.866
-48.136
-40.882
-36.094
-34.843
-38.126
-46.048
-57.787
-71.303
-82.864
-88.718
-85.541
-69.522
-37.065
14.647
84.908
168.805
260.601
353.785
447.805
548.009
651.364
750.537
829.606
860.425
829.521
734.66
581.587
395.971
200.789
15.215
-137.382
-243.852
-298.824
-303.553
-271.612
-223.907
-177.94
-144.335
-127.878
-121.755
-115.871
-105.467
-85.91
-59.719
-35.171
-15.785
-4.11
-0.247
-0.152
-2.124
-6.074
-11.156
-16.932
-22.761
-27.316
-30.062
-31.264
-31.012
-29.454
-27.149
-24.837
-23.152
-22.682
-23.632
-25.799
-28.985
-32.945
-37.291
-41.572
-45.44
-48.652
-51.087
-52.758
-53.686
-53.896
-53.454
-52.464
-51.008
-49.161
-47.001
-44.583
-41.971
-39.247
-36.474
-33.699
-30.961
-28.279
-25.666
-23.143
-20.718
-18.389
-16.154
-14.003
-11.924
-9.901
-7.906
-5.906
-3.875
-1.787
0.377
2.633
4.994
7.468
10.056
12.761
15.587
18.537
21.616
24.828
28.175
31.658
35.276
39.024
42.901
46.904
51.028
55.269
59.622
64.085
68.652
73.32
78.082
82.929
87.852
92.839
97.878
102.958
108.062
113.175
118.283
123.367
128.412
133.399
138.309
143.123
147.822
152.384
156.789
161.018
165.049
168.863
172.439
175.761
178.808
181.564
184.012
186.138
187.927
189.366
190.444
191.151
191.478
191.417
190.963
190.112
188.86
187.207
185.154
182.702
179.856
176.623
173.008
169.023
164.678
159.988
154.966
149.629
143.997
138.089
131.927
125.534
118.932
112.149
105.208
98.136
90.96
83.706
76.401
69.073
61.748
54.452
47.21
40.048
32.989
26.058
19.276
12.666
6.248
0.041
-5.936
-11.667
-17.136
-22.329
-27.235
-31.842
-36.143
-40.13
-43.799
-47.148
-50.177
-52.885
-55.277
-57.358
-59.134
-60.613
-61.806
-62.723
-63.377
-63.781
-63.949
-63.897
-63.638
-63.189
-62.566
-61.784
-60.86
-59.81
-58.649
-57.394
-56.059
-54.662
-53.216
-51.737
-50.239
-48.737
-47.242
-45.768
-44.327
-42.928
-41.581
-40.296
-39.078
-37.934
-36.87
-35.889
-34.994
-34.187
-33.467
-32.835
-32.289
-31.826
-31.444
-31.14
-30.909
-30.748
-30.651
-30.615
-30.636
-30.708
-30.828
-30.989
-31.189
-31.422
-31.682
-31.966
-32.269
-32.585
-32.909
-33.238
-33.566
-33.89
-34.206
-34.509
-34.797
-35.066
-35.315
-35.541
-35.743
-35.92
-36.072
-36.199
-36.302
-36.383
-36.442
-36.483
-36.507
-36.517
-36.515
-36.502
-36.481
-36.454
-36.423
-36.388
-36.352
-36.316
-36.282
-36.251
-36.224
-36.204
-36.19
-36.186
-36.191
-36.209
-36.24
-36.285
-36.347
-36.428
-36.527
-36.648
-36.79
-36.956
-37.146
-37.359
-37.596
-37.857
-38.14
-38.446
-38.772
-39.118
-39.482
-39.863
-40.261
-40.674
-41.102
-41.545
-42.001
-42.471
-42.954
-43.451
-43.961
-44.484
-45.021
-45.571
-46.134
-46.711
-47.3
-47.9
-48.512
-49.132
-49.76
-50.394
-51.03
-51.667
-52.302
-52.932
-53.554
-54.166
-54.766
-55.349
-55.915
-56.459
-56.979
-57.473
-57.938
-58.37
-58.765
-59.121
-59.434
-59.7
-59.915
-60.074
-60.173
-60.207
-60.172
-60.063
-59.876
-59.605
-59.249
-58.802
-58.262
-57.628
-56.898
-56.071
-55.149
-54.133
-53.026
-51.831
-50.553
-49.198
-47.771
-46.28
-44.734
-43.14
-41.508
-39.848
-38.17
-36.487
-34.808
-33.146
-31.513
-29.92
-28.381
-26.91
-25.518
-24.22
-23.028
-21.959
-21.024
-20.238
-19.611
-19.152
-18.867
-18.763
-18.847
-19.127
-19.608
-20.289
-21.172
-22.254
-23.532
-25
-26.641
-28.428
-30.335
-32.336
-34.408
-36.534
-38.692
-40.856
-42.999
-45.085
-47.085
-48.973
-50.72
-52.297
-53.682
-54.858
-55.835
-56.671
-57.421
-58.142
-58.878
-59.635
-60.436
-61.34
-62.424
-63.757
-65.383
-67.315
-69.605
-72.405
-75.815
-79.762
-83.944
-87.858
-91.055
-93.208
-93.955
-92.755
-89.178
-83.266
-75.71
-67.714
-60.283
-54.325
-50.93
-51.091
-55.737
-63.617
-70.577
-74.071
-72.952
-67.873
-62.67
-53.328
-29.327
16.641
91.027
189.763
297.414
405.608
510.483
607.286
694.388
760.27
784.696
758.114
679.562
556.058
404.091
237.715
68.25
-87.201
-208.729
-283.699
-307.516
-290.071
-254.705
-217.075
-184.778
-158.507
-130.249
-98.138
-65.929
-37.219
-17.317
-8.573
-9.339
-17.352
-29.828
-43.638
-56.493
-67.205
-74.897
-78.808
-78.898
-75.597
-69.648
-62.493
-55.575
-49.569
-44.887
-41.874
-40.523
-40.758
-42.412
-44.918
-47.636
-50.204
-52.381
-54.05
-55.24
-55.928
-56.08
-55.764
-55.066
-54.055
-52.791
-51.288
-49.53
-47.537
-45.345
-43.009
-40.598
-38.171
-35.78
-33.461
-31.234
-29.121
-27.131
-25.268
-23.529
-21.898
-20.358
-18.896
-17.506
-16.175
-14.891
-13.631
-12.369
-11.084
-9.754
-8.362
-6.892
-5.328
-3.653
-1.857
0.071
2.141
4.359
6.736
9.28
12
14.905
18.001
21.291
24.779
28.469
32.362
36.455
40.745
45.228
49.898
54.745
59.761
64.933
70.249
75.694
81.251
86.903
92.629
98.408
104.219
110.037
115.839
121.599
127.292
132.891
138.371
143.706
148.869
153.834
158.577
163.073
167.297
171.227
174.84
178.116
181.035
183.579
185.731
187.478
188.807
189.707
190.17
190.189
189.761
188.882
187.553
185.776
183.555
180.897
177.811
174.309
170.402
166.106
161.44
156.42
151.069
145.408
139.46
133.251
126.806
120.153
113.319
106.331
99.22
92.014
84.741
77.432
70.113
62.814
55.562
48.383
41.302
34.346
27.536
20.896
14.445
8.205
2.192
-3.578
-9.09
-14.331
-19.29
-23.959
-28.331
-32.4
-36.162
-39.618
-42.766
-45.61
-48.152
-50.4
-52.36
-54.04
-55.451
-56.605
-57.512
-58.187
-58.643
-58.895
-58.957
-58.844
-58.571
-58.155
-57.608
-56.948
-56.188
-55.342
-54.425
-53.45
-52.429
-51.376
-50.302
-49.217
-48.132
-47.055
-45.997
-44.963
-43.961
-42.997
-42.075
-41.199
-40.372
-39.596
-38.872
-38.2
-37.58
-37.009
-36.487
-36.011
-35.577
-35.184
-34.828
-34.506
-34.215
-33.952
-33.713
-33.497
-33.3
-33.121
-32.956
-32.805
-32.665
-32.536
-32.415
-32.303
-32.198
-32.099
-32.007
-31.92
-31.839
-31.764
-31.695
-31.633
-31.578
-31.532
-31.497
-31.473
-31.463
-31.469
-31.493
-31.538
-31.604
-31.695
-31.811
-31.955
-32.127
-32.328
-32.558
-32.818
-33.107
-33.423
-33.767
-34.136
-34.529
-34.944
-35.378
-35.829
-36.296
-36.775
-37.265
-37.763
-38.267
-38.775
-39.286
-39.797
-40.306
-40.813
-41.314
-41.808
-42.293
-42.767
-43.229
-43.675
-44.105
-44.517
-44.909
-45.281
-45.632
-45.962
-46.27
-46.557
-46.824
-47.071
-47.3
-47.512
-47.71
-47.896
-48.071
-48.237
-48.398
-48.555
-48.71
-48.865
-49.02
-49.178
-49.338
-49.502
-49.67
-49.841
-50.016
-50.195
-50.378
-50.563
-50.752
-50.944
-51.137
-51.332
-51.526
-51.718
-51.907
-52.09
-52.266
-52.43
-52.582
-52.718
-52.834
-52.927
-52.994
-53.03
-53.03
-52.992
-52.91
-52.78
-52.598
-52.362
-52.068
-51.715
-51.299
-50.819
-50.274
-49.665
-48.989
-48.248
-47.442
-46.572
-45.641
-44.649
-43.602
-42.502
-41.355
-40.168
-38.946
-37.697
-36.43
-35.152
-33.874
-32.606
-31.356
-30.135
-28.951
-27.817
-26.741
-25.737
-24.814
-23.983
-23.257
-22.646
-22.162
-21.816
-21.615
-21.564
-21.665
-21.923
-22.341
-22.929
-23.691
-24.63
-25.745
-27.037
-28.5
-30.128
-31.901
-33.785
-35.742
-37.739
-39.743
-41.733
-43.682
-45.562
-47.34
-48.977
-50.441
-51.708
-52.754
-53.557
-54.101
-54.384
-54.445
-54.369
-54.247
-54.169
-54.205
-54.392
-54.79
-55.482
-56.551
-58.08
-60.15
-62.779
-66.022
-70.017
-74.756
-80.089
-85.702
-90.98
-95.346
-98.423
-99.712
-98.626
-95.01
-88.996
-81.158
-72.861
-65.214
-58.852
-54.737
-53.71
-55.619
-59.711
-64.205
-65.905
-62.179
-50.79
-28.602
7.181
58.227
123.505
198.413
277.54
355.683
432.726
512.845
593.754
670.671
731.079
751.688
721.683
637.209
501.57
339.434
172.005
19.076
-95.384
-166.876
-197.687
-195.939
-182.474
-168.372
-157.315
-149.554
-137.748
-120.087
-100.224
-81.42
-67.955
-61.109
-59.061
-60.218
-62.9
-65.473
-66.767
-66.101
-63.35
-58.884
-53.408
-47.537
-41.74
-36.572
-32.583
-30.04
-28.979
-29.24
-30.498
-32.487
-35.012
-37.851
-40.782
-43.619
-46.191
-48.382
-50.144
-51.441
-52.249
-52.563
-52.38
-51.721
-50.635
-49.18
-47.412
-45.388
-43.159
-40.773
-38.289
-35.766
-33.267
-30.847
-28.545
-26.381
-24.37
-22.515
-20.816
-19.265
-17.843
-16.523
-15.285
-14.109
-12.98
-11.885
-10.806
-9.722
-8.612
-7.455
-6.234
-4.932
-3.534
-2.022
-0.382
1.401
3.337
5.433
7.698
10.146
12.788
15.64
18.709
21.998
25.508
29.238
33.18
37.326
41.657
46.147
50.773
55.517
60.361
65.291
70.285
75.316
80.36
85.394
90.4
95.373
100.307
105.201
110.07
114.938
119.836
124.805
129.867
135.029
140.297
145.666
151.134
156.703
162.357
168.077
173.839
179.6
185.309
190.9
196.263
201.273
205.805
209.722
212.919
215.311
216.807
217.339
216.853
215.3
212.659
208.919
204.054
198.068
190.993
182.892
173.892
164.147
153.805
143.03
131.971
120.77
109.594
98.579
87.832
77.452
67.519
58.115
49.351
41.315
34.054
27.589
21.884
16.884
12.543
8.795
5.564
2.767
0.294
-1.94
-3.979
-5.867
-7.64
-9.343
-11.053
-12.827
-14.693
-16.666
-18.737
-20.892
-23.128
-25.423
-27.735
-30.018
-32.209
-34.264
-36.173
-37.924
-39.511
-40.92
-42.128
-43.12
-43.904
-44.485
-44.872
-45.072
-45.088
-44.933
-44.636
-44.227
-43.739
-43.196
-42.612
-41.997
-41.362
-40.717
-40.071
-39.43
-38.79
-38.152
-37.519
-36.894
-36.283
-35.686
-35.101
-34.523
-33.95
-33.381
-32.814
-32.25
-31.688
-31.127
-30.569
-30.018
-29.476
-28.947
-28.432
-27.932
-27.447
-26.98
-26.533
-26.106
-25.7
-25.317
-24.958
-24.626
-24.322
-24.049
-23.808
-23.601
-23.43
-23.295
-23.197
-23.138
-23.118
-23.136
-23.194
-23.29
-23.425
-23.597
-23.806
-24.051
-24.329
-24.641
-24.983
-25.354
-25.753
-26.176
-26.622
-27.089
-27.574
-28.075
-28.589
-29.113
-29.645
-30.182
-30.72
-31.258
-31.791
-32.317
-32.834
-33.338
-33.827
-34.298
-34.749
-35.18
-35.588
-35.971
-36.331
-36.665
-36.975
-37.259
-37.519
-37.754
-37.965
-38.154
-38.321
-38.466
-38.591
-38.696
-38.784
-38.854
-38.909
-38.95
-38.978
-38.995
-39.003
-39.002
-38.996
-38.985
-38.971
-38.956
-38.943
-38.933
-38.927
-38.927
-38.936
-38.953
-38.981
-39.021
-39.073
-39.138
-39.217
-39.31
-39.417
-39.538
-39.675
-39.825
-39.99
-40.169
-40.362
-40.568
-40.786
-41.016
-41.257
-41.507
-41.765
-42.031
-42.302
-42.577
-42.853
-43.129
-43.403
-43.67
-43.929
-44.177
-44.409
-44.622
-44.814
-44.98
-45.117
-45.221
-45.288
-45.314
-45.296
-45.228
-45.109
-44.933
-44.697
-44.398
-44.034
-43.602
-43.099
-42.524
-41.876
-41.155
-40.36
-39.492
-38.551
-37.541
-36.463
-35.321
-34.118
-32.859
-31.551
-30.2
-28.816
-27.408
-25.986
-24.561
-23.145
-21.749
-20.386
-19.065
-17.798
-16.594
-15.465
-14.423
-13.48
-12.647
-11.934
-11.352
-10.908
-10.609
-10.463
-10.468
-10.624
-10.932
-11.394
-12.021
-12.825
-13.806
-14.971
-16.318
-17.841
-19.53
-21.371
-23.33
-25.379
-27.487
-29.62
-31.762
-33.886
-35.957
-37.934
-39.762
-41.386
-42.769
-43.873
-44.663
-45.14
-45.314
-45.223
-44.94
-44.516
-44.007
-43.498
-43.065
-42.805
-42.834
-43.233
-44.131
-45.709
-48.061
-51.176
-54.889
-58.803
-62.48
-65.55
-67.532
-67.887
-66.257
-62.579
-57.365
-51.643
-46.54
-43.067
-42.11
-44.592
-51.151
-61.549
-74.252
-86.819
-96.293
-99.321
-92.764
-73.199
-36.939
16.985
85.926
166.609
254.474
346.564
445.46
550.303
653.783
744.642
803.601
812.611
766.425
667.625
526.202
360.173
185.138
16.418
-126.954
-232.014
-292.903
-309.744
-291.096
-247.705
-188.002
-122.282
-63.247
-21.08
-2.387
-5.062
-17.237
-28.767
-34.245
-34.084
-35.065
-40.975
-51.113
-63.272
-73.347
-78.803
-79.766
-76.919
-71.404
-64.717
-58.036
-52.036
-47.209
-43.901
-42.131
-41.859
-42.988
-45.052
-47.467
-49.878
-52.016
-53.729
-55.032
-55.886
-56.237
-56.132
-55.641
-54.817
-53.716
-52.355
-50.721
-48.836
-46.736
-44.463
-42.081
-39.645
-37.205
-34.815
-32.51
-30.316
-28.255
-26.338
-24.567
-22.937
-21.435
-20.047
-18.762
-17.566
-16.445
-15.382
-14.352
-13.331
-12.299
-11.231
-10.107
-8.907
-7.613
-6.207
-4.675
-3.004
-1.184
0.797
2.949
5.277
7.793
10.508
13.431
16.573
19.937
23.518
27.308
31.306
35.502
39.887
44.446
49.159
54.012
59.003
64.125
69.374
74.736
80.182
85.685
91.217
96.757
102.299
107.826
113.311
118.737
124.09
129.362
134.557
139.651
144.589
149.322
153.801
157.991
161.88
165.446
168.664
171.507
173.94
175.941
177.504
178.605
179.212
179.292
178.801
177.734
176.134
174.034
171.465
168.453
165.003
161.135
156.885
152.278
147.342
142.1
136.564
130.767
124.757
118.586
112.312
105.964
99.538
93.041
86.485
79.885
73.268
66.653
60.044
53.462
46.934
40.487
34.152
27.949
21.881
15.956
10.176
4.557
-0.876
-6.103
-11.109
-15.88
-20.408
-24.682
-28.687
-32.419
-35.883
-39.084
-42.027
-44.719
-47.158
-49.349
-51.298
-53.012
-54.502
-55.778
-56.85
-57.73
-58.431
-58.966
-59.35
-59.596
-59.714
-59.716
-59.614
-59.419
-59.142
-58.796
-58.389
-57.931
-57.434
-56.906
-56.355
-55.79
-55.217
-54.64
-54.067
-53.499
-52.942
-52.397
-51.868
-51.354
-50.859
-50.382
-49.924
-49.485
-49.064
-48.662
-48.277
-47.909
-47.555
-47.214
-46.885
-46.566
-46.256
-45.952
-45.654
-45.359
-45.068
-44.778
-44.49
-44.203
-43.916
-43.63
-43.344
-43.06
-42.777
-42.498
-42.223
-41.955
-41.695
-41.445
-41.208
-40.985
-40.78
-40.592
-40.425
-40.281
-40.159
-40.063
-39.992
-39.949
-39.933
-39.945
-39.986
-40.055
-40.153
-40.279
-40.433
-40.614
-40.821
-41.053
-41.307
-41.584
-41.88
-42.194
-42.525
-42.87
-43.227
-43.594
-43.968
-44.347
-44.729
-45.111
-45.492
-45.869
-46.24
-46.603
-46.958
-47.303
-47.637
-47.96
-48.271
-48.57
-48.858
-49.135
-49.402
-49.659
-49.907
-50.147
-50.381
-50.611
-50.837
-51.062
-51.288
-51.516
-51.747
-51.984
-52.229
-52.482
-52.746
-53.021
-53.31
-53.614
-53.933
-54.27
-54.624
-54.997
-55.389
-55.801
-56.231
-56.682
-57.151
-57.638
-58.143
-58.664
-59.201
-59.751
-60.314
-60.888
-61.47
-62.059
-62.653
-63.249
-63.844
-64.438
-65.026
-65.606
-66.175
-66.731
-67.271
-67.791
-68.289
-68.762
-69.206
-69.617
-69.994
-70.332
-70.628
-70.879
-71.082
-71.234
-71.331
-71.372
-71.352
-71.269
-71.12
-70.903
-70.616
-70.255
-69.819
-69.307
-68.716
-68.046
-67.296
-66.465
-65.553
-64.56
-63.489
-62.339
-61.114
-59.817
-58.451
-57.02
-55.531
-53.991
-52.406
-50.786
-49.139
-47.476
-45.807
-44.144
-42.497
-40.878
-39.297
-37.766
-36.296
-34.898
-33.584
-32.365
-31.253
-30.262
-29.402
-28.686
-28.123
-27.72
-27.482
-27.413
-27.521
-27.812
-28.295
-28.975
-29.853
-30.932
-32.211
-33.683
-35.335
-37.133
-39.045
-41.033
-43.067
-45.116
-47.153
-49.144
-51.053
-52.84
-54.466
-55.899
-57.111
-58.074
-58.771
-59.194
-59.372
-59.387
-59.324
-59.275
-59.32
-59.504
-59.895
-60.586
-61.665
-63.222
-65.35
-68.082
-71.489
-75.729
-80.788
-86.509
-92.595
-98.442
-103.474
-107.31
-109.388
-109.032
-106.08
-100.691
-93.415
-85.613
-78.374
-72.298
-68.464
-67.92
-70.549
-75.497
-81.043
-84.033
-81.566
-71.235
-49.661
-13.18
38.977
104.505
180.37
261.786
346.87
439.679
540.018
640.874
730.729
789.527
798.918
754.178
657.988
520.209
358.962
189.506
26.047
-112.715
-212.746
-266.862
-272.383
-238.421
-182.27
-120.356
-70.673
-45.098
-43.963
-61.293
-83.616
-98.95
-103.518
-98.966
-92.585
-89.53
-89.789
-91.638
-91.747
-88.597
-83.066
-76.126
-68.787
-61.787
-55.464
-50.049
-45.684
-42.268
-39.548
-37.367
-35.653
-34.343
-33.342
-32.538
-31.812
-31.09
-30.378
-29.673
-28.941
-28.162
-27.319
-26.407
-25.459
-24.511
-23.573
-22.643
-21.703
-20.706
-19.629
-18.475
-17.24
-15.934
-14.55
-13.056
-11.443
-9.71
-7.849
-5.856
-3.718
-1.41
1.067
3.696
6.446
9.266
12.125
15.011
17.909
20.811
23.705
26.573
29.409
32.224
35.023
37.813
40.597
43.374
46.155
48.965
51.831
54.783
57.848
61.039
64.369
67.851
71.493
75.303
79.28
83.417
87.709
92.15
96.734
101.456
106.305
111.266
116.321
121.452
126.64
131.866
137.111
142.351
147.567
152.736
157.837
162.85
167.753
172.52
177.128
181.553
185.769
189.754
193.484
196.936
200.086
202.915
205.403
207.53
209.28
210.637
211.586
212.114
212.213
211.872
211.085
209.849
208.162
206.023
203.436
200.405
196.939
193.047
188.742
184.037
178.951
173.501
167.709
161.598
155.192
148.516
141.6
134.47
127.156
119.689
112.098
104.417
96.675
88.906
81.14
73.41
65.745
58.176
50.733
43.444
36.337
29.438
22.77
16.358
10.222
4.382
-1.144
-6.342
-11.199
-15.703
-19.846
-23.623
-27.029
-30.065
-32.731
-35.03
-36.969
-38.554
-39.795
-40.704
-41.292
-41.575
-41.568
-41.287
-40.751
-39.978
-38.989
-37.803
-36.441
-34.924
-33.274
-31.51
-29.656
-27.73
-25.754
-23.749
-21.732
-19.724
-17.743
-15.804
-13.926
-12.121
-10.404
-8.786
-7.278
-5.889
-4.627
-3.498
-2.507
-1.657
-0.952
-0.391
0.024
0.295
0.424
0.415
0.27
-0.004
-0.404
-0.923
-1.555
-2.294
-3.132
-4.064
-5.081
-6.175
-7.34
-8.566
-9.846
-11.172
-12.534
-13.926
-15.339
-16.766
-18.2
-19.633
-21.061
-22.476
-23.873
-25.248
-26.597
-27.913
-29.196
-30.441
-31.646
-32.809
-33.929
-35.004
-36.034
-37.017
-37.954
-38.844
-39.686
-40.479
-41.225
-41.921
-42.569
-43.168
-43.719
-44.223
-44.681
-45.095
-45.467
-45.798
-46.09
-46.346
-46.569
-46.761
-46.924
-47.062
-47.178
-47.273
-47.353
-47.418
-47.473
-47.52
-47.562
-47.601
-47.639
-47.678
-47.72
-47.768
-47.824
-47.89
-47.97
-48.067
-48.182
-48.319
-48.481
-48.671
-48.89
-49.14
-49.424
-49.741
-50.092
-50.478
-50.899
-51.353
-51.84
-52.358
-52.906
-53.48
-54.077
-54.694
-55.327
-55.973
-56.626
-57.282
-57.937
-58.587
-59.226
-59.851
-60.456
-61.037
-61.588
-62.104
-62.579
-63.006
-63.379
-63.693
-63.941
-64.117
-64.216
-64.231
-64.159
-63.995
-63.735
-63.377
-62.917
-62.354
-61.687
-60.917
-60.045
-59.072
-58.002
-56.839
-55.589
-54.258
-52.852
-51.38
-49.849
-48.271
-46.654
-45.01
-43.35
-41.685
-40.029
-38.394
-36.792
-35.237
-33.741
-32.317
-30.979
-29.741
-28.614
-27.612
-26.749
-26.037
-25.488
-25.11
-24.91
-24.89
-25.056
-25.411
-25.962
-26.714
-27.665
-28.811
-30.153
-31.681
-33.386
-35.248
-37.23
-39.295
-41.409
-43.542
-45.667
-47.757
-49.778
-51.692
-53.463
-55.053
-56.438
-57.596
-58.495
-59.12
-59.472
-59.585
-59.544
-59.435
-59.338
-59.316
-59.411
-59.68
-60.208
-61.077
-62.362
-64.134
-66.401
-69.22
-72.73
-76.921
-81.651
-86.583
-91.106
-94.667
-96.903
-97.341
-95.414
-90.922
-83.934
-75.09
-65.779
-57.142
-49.92
-44.999
-43.117
-44.304
-48.008
-52.352
-54.098
-50.484
-38.93
-16.45
19.551
71.18
137.489
213.148
292.308
369.122
443.657
522.19
603.182
681.319
742.277
759.132
719.4
618.065
457.712
265.978
67.5
-111.689
-240.174
-313.08
-333.529
-312.579
-275.542
-230.316
-182.27
-138.431
-96.687
-65.438
-48.972
-40.881
-39.228
-38.056
-34.225
-32.954
-35.401
-41.118
-49.319
-56.249
-59.942
-60.157
-56.918
-51.123
-44.044
-37.094
-31.23
-26.899
-24.33
-23.508
-24.357
-26.782
-30.378
-34.456
-38.531
-42.31
-45.608
-48.424
-50.728
-52.433
-53.536
-54.079
-54.075
-53.545
-52.512
-50.969
-48.964
-46.588
-43.92
-41.05
-38.07
-35.046
-32.04
-29.095
-26.227
-23.448
-20.769
-18.206
-15.778
-13.494
-11.347
-9.329
-7.419
-5.586
-3.805
-2.042
-0.258
1.572
3.472
5.458
7.539
9.719
12.008
14.414
16.95
19.626
22.45
25.43
28.571
31.879
35.354
38.998
42.809
46.784
50.92
55.217
59.671
64.279
69.036
73.935
78.968
84.126
89.396
94.765
100.219
105.742
111.315
116.92
122.538
128.149
133.731
139.261
144.717
150.074
155.308
160.395
165.31
170.029
174.528
178.783
182.772
186.474
189.867
192.932
195.653
198.011
199.993
201.586
202.778
203.561
203.925
203.866
203.379
202.461
201.112
199.333
197.126
194.498
191.455
188.005
184.161
179.935
175.342
170.398
165.123
159.536
153.659
147.515
141.128
134.524
127.728
120.769
113.672
106.466
99.179
91.837
84.469
77.1
69.758
62.468
55.255
48.142
41.152
34.308
27.63
21.139
14.854
8.791
2.967
-2.604
-7.909
-12.937
-17.678
-22.125
-26.273
-30.117
-33.656
-36.889
-39.818
-42.447
-44.781
-46.826
-48.59
-50.083
-51.316
-52.3
-53.048
-53.574
-53.89
-54.011
-53.951
-53.726
-53.35
-52.838
-52.204
-51.465
-50.634
-49.727
-48.757
-47.74
-46.688
-45.614
-44.531
-43.45
-42.382
-41.336
-40.322
-39.347
-38.418
-37.542
-36.723
-35.966
-35.273
-34.647
-34.089
-33.599
-33.177
-32.822
-32.532
-32.304
-32.137
-32.028
-31.973
-31.97
-32.015
-32.104
-32.235
-32.403
-32.604
-32.834
-33.089
-33.366
-33.66
-33.968
-34.287
-34.614
-34.946
-35.28
-35.616
-35.949
-36.28
-36.607
-36.929
-37.245
-37.554
-37.858
-38.156
-38.448
-38.737
-39.022
-39.305
-39.586
-39.868
-40.15
-40.434
-40.721
-41.012
-41.307
-41.607
-41.914
-42.228
-42.549
-42.88
-43.22
-43.57
-43.932
-44.304
-44.688
-45.083
-45.489
-45.907
-46.336
-46.776
-47.226
-47.687
-48.158
-48.638
-49.127
-49.624
-50.128
-50.639
-51.155
-51.676
-52.202
-52.733
-53.266
-53.804
-54.345
-54.89
-55.438
-55.99
-56.544
-57.101
-57.661
-58.222
-58.785
-59.348
-59.911
-60.472
-61.031
-61.587
-62.137
-62.682
-63.219
-63.746
-64.262
-64.765
-65.251
-65.72
-66.169
-66.594
-66.995
-67.367
-67.709
-68.018
-68.29
-68.523
-68.713
-68.856
-68.949
-68.988
-68.971
-68.892
-68.751
-68.542
-68.265
-67.917
-67.496
-67.001
-66.433
-65.79
-65.074
-64.285
-63.427
-62.501
-61.511
-60.462
-59.358
-58.207
-57.015
-55.792
-54.545
-53.285
-52.022
-50.766
-49.528
-48.317
-47.143
-46.014
-44.942
-43.936
-43.007
-42.169
-41.432
-40.806
-40.301
-39.927
-39.692
-39.598
-39.649
-39.845
-40.19
-40.696
-41.37
-42.221
-43.254
-44.469
-45.865
-47.432
-49.154
-51.003
-52.948
-54.958
-57.002
-59.058
-61.102
-63.11
-65.045
-66.863
-68.516
-69.965
-71.173
-72.109
-72.759
-73.134
-73.274
-73.253
-73.15
-73.024
-72.942
-72.983
-73.232
-73.79
-74.767
-76.224
-78.263
-81.055
-84.676
-89.095
-94.128
-99.315
-104.156
-108.323
-111.403
-112.839
-112.3
-109.749
-105.607
-101.076
-97.432
-95.28
-95.119
-97.878
-103.949
-112.866
-123.546
-131.844
-133.327
-126.869
-110.194
-83.758
-48.603
0.165
62.501
138.743
229.755
327.292
429.344
532.475
625.4
702.475
750.075
751.617
704.011
604.706
458.485
286.288
106.23
-58.584
-181.247
-254.468
-277.909
-263.006
-232.929
-198.463
-169.023
-147.084
-128.025
-115.42
-107.11
-101.492
-99.883
-98.068
-97.105
-98.526
-100.633
-103.481
-105.151
-103.824
-100.018
-94.332
-87.684
-81.068
-75.034
-70.119
-66.698
-64.868
-64.503
-65.296
-66.989
-69.381
-72.256
-75.424
-78.686
-81.864
-84.832
-87.497
-89.775
-91.606
-92.949
-93.785
-94.118
-93.975
-93.398
-92.438
-91.147
-89.574
-87.765
-85.763
-83.622
-81.397
-79.149
-76.931
-74.781
-72.721
-70.767
-68.924
-67.188
-65.549
-63.985
-62.471
-60.985
-59.513
-58.037
-56.546
-55.023
-53.447
-51.803
-50.074
-48.244
-46.301
-44.233
-42.029
-39.681
-37.181
-34.527
-31.714
-28.739
-25.597
-22.284
-18.797
-15.135
-11.297
-7.284
-3.097
1.259
5.778
10.453
15.275
20.232
25.313
30.506
35.795
41.165
46.6
52.081
57.59
63.108
68.614
74.087
79.506
84.848
90.09
95.211
100.186
104.993
109.608
114.009
118.175
122.083
125.713
129.046
132.061
134.743
137.075
139.042
140.631
141.832
142.634
143.03
143.014
142.584
141.737
140.473
138.796
136.709
134.219
131.333
128.062
124.416
120.409
116.056
111.373
106.379
101.092
95.534
89.726
83.692
77.455
71.042
64.477
57.786
50.997
44.135
37.228
30.301
23.381
16.494
9.664
2.916
-3.726
-10.24
-16.606
-22.803
-28.813
-34.619
-40.206
-45.561
-50.67
-55.524
-60.114
-64.432
-68.472
-72.231
-75.707
-78.898
-81.806
-84.433
-86.784
-88.863
-90.679
-92.239
-93.553
-94.631
-95.484
-96.124
-96.565
-96.819
-96.9
-96.822
-96.6
-96.248
-95.779
-95.208
-94.548
-93.813
-93.014
-92.165
-91.275
-90.357
-89.419
-88.471
-87.522
-86.579
-85.649
-84.739
-83.854
-82.999
-82.177
-81.391
-80.644
-79.937
-79.27
-78.645
-78.06
-77.514
-77.007
-76.537
-76.101
-75.698
-75.325
-74.979
-74.658
-74.359
-74.079
-73.816
-73.567
-73.331
-73.105
-72.889
-72.681
-72.481
-72.286
-72.098
-71.916
-71.738
-71.567
-71.4
-71.24
-71.086
-70.938
-70.798
-70.666
-70.543
-70.43
-70.327
-70.235
-70.155
-70.086
-70.03
-69.986
-69.954
-69.934
-69.927
-69.931
-69.946
-69.97
-70.004
-70.044
-70.091
-70.14
-70.191
-70.242
-70.288
-70.329
-70.361
-70.383
-70.391
-70.384
-70.36
-70.316
-70.251
-70.164
-70.052
-69.916
-69.754
-69.565
-69.35
-69.11
-68.843
-68.552
-68.238
-67.901
-67.545
-67.17
-66.779
-66.374
-65.959
-65.535
-65.106
-64.676
-64.246
-63.821
-63.404
-62.998
-62.607
-62.232
-61.878
-61.545
-61.237
-60.954
-60.698
-60.47
-60.269
-60.097
-59.953
-59.835
-59.741
-59.671
-59.62
-59.586
-59.565
-59.552
-59.544
-59.534
-59.518
-59.49
-59.444
-59.374
-59.273
-59.135
-58.952
-58.718
-58.427
-58.071
-57.644
-57.14
-56.554
-55.88
-55.114
-54.252
-53.29
-52.226
-51.059
-49.787
-48.41
-46.929
-45.345
-43.662
-41.883
-40.013
-38.058
-36.027
-33.928
-31.771
-29.567
-27.327
-25.064
-22.789
-20.514
-18.251
-16.011
-13.808
-11.654
-9.566
-7.556
-5.639
-3.828
-2.134
-0.569
0.858
2.141
3.277
4.261
5.089
5.747
6.224
6.511
6.605
6.504
6.211
5.737
5.098
4.321
3.437
2.475
1.465
0.426
-0.619
-1.645
-2.616
-3.484
-4.198
-4.717
-5.009
-5.044
-4.812
-4.326
-3.621
-2.765
-1.827
-0.861
0.072
0.905
1.564
1.96
2
1.606
0.66
-1.002
-3.433
-6.571
-10.194
-13.889
-17.239
-19.921
-21.553
-21.622
-19.852
-16.325
-11.513
-6.433
-2.069
1.092
2.643
2.017
-0.956
-5.771
-11.177
-14.787
-13.861
-6.445
9.167
35.069
73.025
124.025
188.329
262.89
341.835
420.623
494.424
562.374
628.647
691.639
747.393
785.996
788.163
745.029
653.941
518.763
361.806
202.252
59.688
-43.467
-103.861
-122.512
-108.402
-80.504
-46.785
-15.932
8.352
28.393
39.842
45.555
48.135
47.526
48.533
49.678
49.132
48.34
46.816
46.409
48.902
53.634
60.042
67.256
74.276
80.643
85.971
89.966
92.597
94.048
94.629
94.606
94.211
93.647
93.069
92.638
92.496
92.737
93.44
94.682
96.502
98.903
101.857
105.294
109.112
113.181
117.331
121.381
125.147
128.469
131.223
133.292
134.579
134.99
134.446
132.897
130.335
126.778
122.268
116.875
110.682
103.808
96.4
88.608
80.585
72.463
