Name
Date of Birth,"Mar 27, 1959"
Recorded Date,2022-08-08 17:29:26 -0500
Classification,Sinus Rhythm
Symptoms,
Software Version,1.90
Device,"Watch4,2"
Sample Rate,510.227 hertz


Lead,Lead I
Unit,µV

53.417
60.033
66.267
71.978
77.104
81.585
85.392
88.525
90.976
92.777
94.007
94.754
95.127
95.247
95.181
94.977
94.674
94.294
93.879
93.465
93.055
92.642
92.215
91.76
91.269
90.728
90.092
89.313
88.338
87.112
85.604
83.798
81.683
79.257
76.519
73.473
70.138
66.538
62.693
58.621
54.338
49.863
45.221
40.444
35.563
30.609
25.61
20.591
15.578
10.595
5.662
0.795
-3.99
-8.68
-13.261
-17.716
-22.034
-26.199
-30.2
-34.028
-37.675
-41.137
-44.413
-47.506
-50.42
-53.165
-55.747
-58.178
-60.47
-62.636
-64.684
-66.628
-68.48
-70.255
-71.973
-73.65
-75.305
-76.955
-78.616
-80.305
-82.039
-83.831
-85.685
-87.606
-89.602
-91.689
-93.894
-96.238
-98.736
-101.397
-104.227
-107.225
-110.389
-113.696
-117.103
-120.56
-124.018
-127.437
-130.792
-134.049
-137.156
-140.048
-142.648
-144.888
-146.728
-148.137
-149.083
-149.554
-149.576
-149.214
-148.58
-147.802
-146.997
-146.282
-145.791
-145.652
-145.986
-146.947
-148.721
-151.449
-155.17
-159.743
-164.826
-170.034
-175.016
-179.337
-182.404
-183.648
-182.728
-179.913
-176.123
-172.375
-169.407
-167.877
-168.624
-172.513
-180.013
-189.176
-195.798
-196.006
-187.053
-170.054
-148.128
-120.273
-82.138
-26.123
55.966
164.821
295.13
438.043
581.52
714.498
825.353
901.878
933.114
911.241
836.201
712.48
550.528
368.522
185.602
25.149
-92.904
-164.181
-194.052
-198.246
-193.086
-182.279
-164.737
-138.282
-105.45
-77.361
-63.155
-64.141
-73.799
-82.346
-83.941
-79.772
-75.694
-75.679
-80.305
-87.77
-94.5
-98.977
-101.426
-101.628
-99.846
-96.503
-91.757
-86.338
-81.25
-76.861
-73.341
-71.01
-69.913
-70.008
-71.245
-73.223
-75.396
-77.436
-79.092
-80.185
-80.702
-80.612
-79.871
-78.533
-76.675
-74.357
-71.651
-68.596
-65.201
-61.495
-57.524
-53.351
-49.062
-44.742
-40.468
-36.301
-32.279
-28.432
-24.779
-21.33
-18.085
-15.032
-12.147
-9.419
-6.837
-4.389
-2.063
0.162
2.314
4.419
6.504
8.591
10.703
12.862
15.09
17.404
19.824
22.362
25.033
27.851
30.833
33.996
37.353
40.92
44.708
48.728
52.99
57.503
62.271
67.297
72.581
78.119
83.908
89.94
96.204
102.688
109.376
116.251
123.292
130.477
137.782
145.179
152.639
160.132
167.627
175.088
182.483
189.776
196.931
203.912
210.684
217.21
223.456
229.385
234.964
240.16
244.94
249.274
253.133
256.489
259.318
261.596
263.305
264.426
264.946
264.853
264.14
262.801
260.835
258.244
255.031
251.205
246.778
241.762
236.176
230.04
223.377
216.212
208.573
200.49
191.997
183.126
173.913
164.394
154.608
144.592
134.387
124.031
113.565
103.028
92.46
81.901
71.388
60.96
50.652
40.499
30.534
20.788
11.29
2.067
-6.857
-15.459
-23.721
-31.624
-39.154
-46.299
-53.049
-59.399
-65.344
-70.881
-76.013
-80.742
-85.073
-89.013
-92.571
-95.758
-98.585
-101.066
-103.216
-105.05
-106.585
-107.838
-108.827
-109.57
-110.088
-110.397
-110.517
-110.466
-110.262
-109.923
-109.465
-108.904
-108.255
-107.533
-106.75
-105.918
-105.05
-104.153
-103.238
-102.311
-101.379
-100.445
-99.514
-98.589
-97.672
-96.762
-95.859
-94.964
-94.075
-93.189
-92.305
-91.419
-90.528
-89.628
-88.717
-87.789
-86.841
-85.869
-84.87
-83.84
-82.776
-81.675
-80.534
-79.353
-78.128
-76.859
-75.545
-74.186
-72.781
-71.332
-69.839
-68.305
-66.73
-65.119
-63.474
-61.798
-60.095
-58.37
-56.625
-54.866
-53.096
-51.32
-49.543
-47.767
-45.998
-44.239
-42.494
-40.766
-39.059
-37.374
-35.715
-34.084
-32.481
-30.909
-29.369
-27.86
-26.383
-24.937
-23.523
-22.14
-20.786
-19.461
-18.163
-16.89
-15.641
-14.413
-13.203
-12.01
-10.831
-9.663
-8.503
-7.348
-6.196
-5.045
-3.892
-2.735
-1.572
-0.401
0.779
1.968
3.169
4.381
5.604
6.839
8.084
9.338
10.601
11.871
13.147
14.426
15.706
16.988
18.268
19.545
20.819
22.086
23.347
24.6
25.843
27.075
28.295
29.502
30.695
31.874
33.038
34.187
35.321
36.442
37.55
38.648
39.736
40.818
41.896
42.974
44.054
45.142
46.242
47.359
48.498
49.664
50.864
52.102
53.384
54.714
56.096
57.535
59.034
60.596
62.224
63.919
65.683
67.518
69.424
71.4
73.445
75.558
77.736
79.975
82.27
84.612
86.993
89.403
91.83
94.263
96.686
99.087
101.45
103.762
106.011
108.182
110.261
112.232
114.077
115.78
117.327
118.704
119.897
120.894
121.687
122.27
122.643
122.801
122.735
122.429
121.864
121.029
119.915
118.52
116.851
114.917
112.739
110.359
107.822
105.174
102.462
99.718
96.977
94.285
91.703
89.31
87.188
85.399
83.993
83.009
82.455
82.322
82.557
83.055
83.714
84.418
85.047
85.493
85.623
85.286
84.357
82.658
79.972
76.19
71.311
65.509
59.227
52.962
47.167
42.416
39.349
38.431
39.829
43.108
47.196
50.862
53.136
53.366
50.872
45.077
36.05
25.15
15.929
13.511
22.352
45.047
80.782
127.098
182.879
248.591
329.679
431.638
555.98
701.014
855.695
1004.693
1131.864
1220.318
1257.49
1234.745
1150.172
1007.469
819.385
609.369
402.891
229.281
110.008
47.313
32.291
43.466
57.61
65.568
66.846
67.619
75.851
91.33
109.414
124.982
133.566
134.391
128.55
117.322
102.667
86.465
70.583
56.902
46.266
38.914
35.145
34.774
37.246
41.853
47.39
52.57
56.761
59.625
60.851
60.455
58.534
55.23
51.014
46.418
41.76
37.295
33.229
29.663
26.708
24.452
22.874
21.933
21.604
21.853
22.659
23.997
25.813
28.045
30.626
33.486
36.549
39.734
42.956
46.131
49.195
52.104
54.827
57.346
59.652
61.745
63.632
65.332
66.862
68.236
69.471
70.581
71.584
72.503
73.363
74.192
75.015
75.856
76.743
77.7
78.753
79.927
81.241
82.707
84.345
86.173
88.22
90.517
93.087
95.944
99.099
102.558
106.325
110.394
114.741
119.326
124.108
129.06
134.171
139.445
144.879
150.466
156.195
162.055
168.056
174.214
180.534
187.009
193.634
200.421
207.414
214.688
222.3
230.263
238.552
247.111
255.886
264.81
273.8
282.743
291.487
299.89
307.839
315.248
322.03
328.075
333.234
337.322
340.197
341.77
341.996
340.863
338.364
334.522
329.402
323.123
315.852
307.733
298.87
289.341
279.228
268.635
257.701
246.587
235.413
224.272
213.235
202.359
191.706
181.309
171.162
161.215
151.39
141.638
131.947
122.32
112.767
103.287
93.862
84.479
75.149
65.887
56.708
47.626
38.648
29.795
21.109
12.65
4.486
-3.337
-10.788
-17.849
-24.504
-30.742
-36.551
-41.933
-46.901
-51.464
-55.632
-59.411
-62.806
-65.828
-68.498
-70.839
-72.875
-74.629
-76.121
-77.372
-78.402
-79.231
-79.875
-80.351
-80.669
-80.843
-80.892
-80.83
-80.676
-80.445
-80.153
-79.817
-79.45
-79.068
-78.683
-78.305
-77.945
-77.61
-77.308
-77.047
-76.831
-76.664
-76.549
-76.489
-76.484
-76.534
-76.639
-76.796
-77.002
-77.253
-77.547
-77.878
-78.242
-78.634
-79.05
-79.485
-79.933
-80.391
-80.853
-81.314
-81.768
-82.212
-82.639
-83.044
-83.423
-83.77
-84.081
-84.352
-84.58
-84.761
-84.892
-84.971
-84.995
-84.964
-84.878
-84.735
-84.536
-84.283
-83.977
-83.62
-83.216
-82.768
-82.279
-81.753
-81.195
-80.608
-79.996
-79.364
-78.717
-78.057
-77.389
-76.718
-76.047
-75.379
-74.72
-74.073
-73.441
-72.828
-72.239
-71.677
-71.147
-70.651
-70.195
-69.78
-69.412
-69.093
-68.826
-68.613
-68.457
-68.36
-68.323
-68.346
-68.43
-68.576
-68.782
-69.048
-69.373
-69.756
-70.196
-70.691
-71.241
-71.844
-72.497
-73.201
-73.954
-74.753
-75.597
-76.486
-77.416
-78.387
-79.395
-80.438
-81.514
-82.62
-83.752
-84.906
-86.079
-87.266
-88.464
-89.666
-90.871
-92.071
-93.265
-94.447
-95.613
-96.76
-97.883
-98.98
-100.045
-101.075
-102.065
-103.012
-103.911
-104.757
-105.547
-106.275
-106.936
-107.527
-108.041
-108.474
-108.821
-109.075
-109.233
-109.29
-109.24
-109.081
-108.808
-108.42
-107.913
-107.286
-106.537
-105.667
-104.675
-103.561
-102.327
-100.974
-99.505
-97.923
-96.232
-94.436
-92.542
-90.557
-88.491
-86.352
-84.153
-81.906
-79.625
-77.326
-75.023
-72.732
-70.469
-68.25
-66.091
-64.009
-62.023
-60.149
-58.404
-56.811
-55.387
-54.149
-53.116
-52.3
-51.708
-51.353
-51.238
-51.373
-51.772
-52.447
-53.404
-54.652
-56.195
-58.03
-60.15
-62.529
-65.121
-67.885
-70.773
-73.74
-76.755
-79.776
-82.762
-85.67
-88.437
-91.006
-93.335
-95.365
-97.056
-98.392
-99.367
-100.035
-100.51
-100.898
-101.308
-101.832
-102.522
-103.455
-104.726
-106.414
-108.644
-111.525
-115.163
-119.759
-125.422
-132.101
-139.61
-147.428
-154.809
-161.059
-165.406
-167.044
-165.506
-160.546
-152.52
-142.77
-132.951
-124.984
-119.72
-116.374
-114.457
-113.091
-113.952
-121.68
-135.873
-151.955
-158.208
-135.058
-72.099
30.559
163.149
304.594
441.824
572.303
696.512
818.568
932.099
1020.032
1066.704
1058.869
995.561
887.056
743.964
580.298
408.61
239.396
88.755
-29.577
-108.24
-144.059
-144.534
-124.25
-96.045
-73.484
-65.299
-70.82
-86.253
-103.688
-115.395
-119.917
-119.377
-118.475
-120.724
-125.949
-131.909
-135.509
-135.368
-131.952
-126.195
-119.284
-112.038
-104.888
-98.434
-93.25
-89.538
-87.3
-86.415
-86.656
-87.849
-89.85
-92.437
-95.378
-98.511
-101.659
-104.66
-107.362
-109.579
-111.178
-112.092
-112.279
-111.737
-110.496
-108.59
-106.082
-103.061
-99.603
-95.786
-91.686
-87.368
-82.916
-78.42
-73.966
-69.646
-65.522
-61.633
-58.008
-54.656
-51.576
-48.758
-46.18
-43.809
-41.618
-39.583
-37.683
-35.898
-34.202
-32.565
-30.958
-29.348
-27.708
-26.01
-24.228
-22.336
-20.312
-18.135
-15.785
-13.248
-10.503
-7.534
-4.32
-0.844
2.911
6.957
11.308
15.974
20.961
26.272
31.909
37.867
44.139
50.718
57.592
64.744
72.158
79.814
87.686
95.751
103.979
112.34
120.801
129.327
137.881
146.425
154.92
163.327
171.604
179.711
187.605
195.247
202.595
209.61
216.252
222.482
228.266
233.568
238.355
242.598
246.268
249.343
251.799
253.621
254.792
255.302
255.142
254.31
252.803
250.626
247.785
244.291
240.156
235.398
230.038
224.1
217.61
210.598
203.096
195.139
186.762
178.006
168.909
159.515
149.865
140.005
129.978
119.829
109.604
99.347
89.101
78.909
68.814
58.854
49.07
39.496
30.168
21.117
12.374
3.965
-4.086
-11.758
-19.032
-25.893
-32.328
-38.33
-43.892
-49.01
-53.685
-57.92
-61.72
-65.093
-68.049
-70.602
-72.767
-74.56
-76.001
-77.111
-77.91
-78.422
-78.671
-78.681
-78.477
-78.084
-77.525
-76.827
-76.012
-75.105
-74.128
-73.103
-72.051
-70.99
-69.94
-68.917
-67.935
-67.008
-66.148
-65.365
-64.667
-64.06
-63.549
-63.137
-62.825
-62.614
-62.503
-62.487
-62.563
-62.725
-62.967
-63.28
-63.658
-64.09
-64.567
-65.079
-65.617
-66.171
-66.73
-67.286
-67.828
-68.347
-68.835
-69.283
-69.683
-70.028
-70.312
-70.528
-70.672
-70.74
-70.728
-70.634
-70.458
-70.198
-69.855
-69.431
-68.926
-68.345
-67.69
-66.966
-66.177
-65.329
-64.429
-63.481
-62.494
-61.473
-60.425
-59.357
-58.276
-57.188
-56.098
-55.012
-53.937
-52.876
-51.836
-50.82
-49.833
-48.88
-47.964
-47.088
-46.255
-45.468
-44.728
-44.037
-43.395
-42.804
-42.264
-41.775
-41.335
-40.945
-40.602
-40.305
-40.051
-39.839
-39.666
-39.527
-39.421
-39.345
-39.294
-39.268
-39.262
-39.275
-39.306
-39.351
-39.411
-39.483
-39.566
-39.659
-39.761
-39.87
-39.987
-40.11
-40.238
-40.371
-40.508
-40.649
-40.793
-40.94
-41.089
-41.241
-41.394
-41.549
-41.706
-41.865
-42.028
-42.194
-42.366
-42.543
-42.728
-42.922
-43.125
-43.338
-43.563
-43.799
-44.046
-44.304
-44.573
-44.852
-45.14
-45.436
-45.74
-46.049
-46.362
-46.679
-46.996
-47.314
-47.63
-47.943
-48.252
-48.555
-48.852
-49.14
-49.418
-49.684
-49.935
-50.168
-50.381
-50.569
-50.731
-50.861
-50.957
-51.012
-51.025
-50.989
-50.901
-50.758
-50.553
-50.285
-49.948
-49.542
-49.062
-48.507
-47.876
-47.167
-46.38
-45.515
-44.572
-43.552
-42.456
-41.285
-40.042
-38.729
-37.35
-35.909
-34.412
-32.87
-31.291
-29.686
-28.068
-26.45
-24.845
-23.269
-21.735
-20.255
-18.84
-17.504
-16.259
-15.122
-14.108
-13.232
-12.509
-11.953
-11.575
-11.389
-11.403
-11.616
-12.027
-12.639
-13.457
-14.501
-15.787
-17.325
-19.12
-21.176
-23.485
-26.033
-28.792
-31.707
-34.72
-37.776
-40.823
-43.828
-46.754
-49.548
-52.147
-54.472
-56.446
-58.02
-59.145
-59.772
-59.902
-59.577
-58.903
-58.042
-57.125
-56.271
-55.596
-55.222
-55.265
-55.782
-56.765
-58.291
-60.563
-63.74
-67.925
-72.995
-78.609
-84.629
-90.873
-96.637
-100.966
-102.957
-102.791
-102.186
-102.87
-105.018
-105.205
-98.874
-84.1
-62.334
-41.86
-31.817
-36.482
-57.312
-86.654
-111.115
-117.854
-91.305
-21.344
91.02
239.652
411.449
589.241
762.674
921.136
1051.2
1143.809
1186.163
1168.87
1094.862
967.791
798.5
606.248
408.18
228.689
91.113
3.311
-36.002
-42.372
-38.868
-37.247
-41.368
-47.978
-48.933
-43.396
-35.299
-28.68
-27.905
-33.682
-43.886
-56.449
-69.132
-79.91
-87.387
-90.911
-90.515
-86.811
-80.794
-73.419
-65.562
-58.137
-51.944
-47.403
-44.637
-43.547
-43.87
-45.388
-47.914
-51.214
-55.045
-59.206
-63.533
-67.866
-72.059
-75.936
-79.303
-82.029
-84.034
-85.279
-85.766
-85.516
-84.561
-82.963
-80.803
-78.158
-75.108
-71.731
-68.099
-64.3
-60.427
-56.573
-52.829
-49.263
-45.915
-42.812
-39.963
-37.363
-35.003
-32.862
-30.908
-29.117
-27.469
-25.943
-24.524
-23.192
-21.923
-20.69
-19.467
-18.227
-16.943
-15.592
-14.149
-12.591
-10.894
-9.038
-7.002
-4.77
-2.322
0.363
3.311
6.552
10.11
13.996
18.219
22.78
27.673
32.886
38.399
44.167
50.154
56.32
62.63
69.072
75.633
82.294
89.035
95.83
102.668
109.564
116.541
123.609
130.786
138.09
145.55
153.239
161.213
169.501
178.119
187.036
196.199
205.563
215.068
224.631
234.147
243.462
252.403
260.834
268.62
275.63
281.725
286.713
290.431
292.763
293.621
292.974
290.82
287.155
282.007
275.455
267.609
258.633
248.723
238.029
226.692
214.856
202.668
190.314
177.967
165.751
153.765
142.084
130.765
119.867
109.436
99.464
89.922
80.756
71.883
63.263
54.868
46.669
38.643
30.752
22.962
15.272
7.694
0.241
-7.076
-14.25
-21.274
-28.114
-34.73
-41.081
-47.113
-52.797
-58.117
-63.053
-67.599
-71.75
-75.505
-78.875
-81.885
-84.552
-86.89
-88.913
-90.635
-92.076
-93.26
-94.209
-94.946
-95.493
-95.867
-96.087
-96.172
-96.136
-95.992
-95.752
-95.424
-95.02
-94.552
-94.03
-93.467
-92.874
-92.262
-91.64
-91.018
-90.404
-89.805
-89.227
-88.674
-88.15
-87.657
-87.198
-86.776
-86.39
-86.043
-85.734
-85.464
-85.231
-85.037
-84.879
-84.756
-84.667
-84.61
-84.582
-84.583
-84.61
-84.659
-84.73
-84.818
-84.921
-85.034
-85.156
-85.281
-85.406
-85.528
-85.641
-85.742
-85.827
-85.893
-85.936
-85.954
-85.945
-85.905
-85.833
-85.727
-85.585
-85.407
-85.191
-84.936
-84.642
-84.308
-83.936
-83.524
-83.076
-82.591
-82.071
-81.519
-80.938
-80.329
-79.697
-79.045
-78.376
-77.695
-77.006
-76.313
-75.622
-74.937
-74.262
-73.604
-72.965
-72.352
-71.768
-71.216
-70.702
-70.228
-69.797
-69.413
-69.076
-68.79
-68.556
-68.375
-68.248
-68.174
-68.153
-68.185
-68.266
-68.396
-68.571
-68.789
-69.046
-69.338
-69.662
-70.012
-70.384
-70.774
-71.176
-71.586
-71.998
-72.407
-72.809
-73.198
-73.571
-73.924
-74.252
-74.553
-74.824
-75.063
-75.267
-75.436
-75.568
-75.662
-75.72
-75.741
-75.728
-75.681
-75.603
-75.498
-75.369
-75.22
-75.055
-74.88
-74.699
-74.516
-74.338
-74.17
-74.017
-73.883
-73.775
-73.697
-73.655
-73.651
-73.691
-73.777
-73.912
-74.098
-74.336
-74.628
-74.973
-75.371
-75.821
-76.32
-76.868
-77.461
-78.095
-78.766
-79.468
-80.196
-80.943
-81.701
-82.462
-83.217
-83.957
-84.673
-85.356
-85.995
-86.581
-87.104
-87.554
-87.92
-88.193
-88.364
-88.423
-88.362
-88.174
-87.851
-87.388
-86.779
-86.021
-85.11
-84.044
-82.821
-81.441
-79.906
-78.216
-76.375
-74.387
-72.259
-69.996
-67.608
-65.106
-62.503
-59.813
-57.054
-54.243
-51.4
-48.543
-45.695
-42.876
-40.104
-37.398
-34.778
-32.262
-29.87
-27.624
-25.545
-23.651
-21.96
-20.488
-19.25
-18.26
-17.524
-17.044
-16.824
-16.872
-17.207
-17.845
-18.797
-20.07
-21.667
-23.58
-25.8
-28.301
-31.037
-33.959
-37.012
-40.148
-43.328
-46.509
-49.641
-52.658
-55.472
-58.011
-60.207
-61.996
-63.344
-64.252
-64.736
-64.875
-64.779
-64.512
-64.186
-63.948
-63.867
-64.01
-64.459
-65.263
-66.598
-68.784
-72
-76.191
-81.308
-87.315
-93.813
-100.195
-105.865
-109.673
-111.823
-114.581
-117.86
-120.454
-119.747
-109.365
-90.73
-72.433
-62.524
-71.645
-98.295
-127.48
-147.977
-149.066
-128.144
-94.525
-48.925
12.937
93.799
201.268
332.186
474.209
620.83
763.122
894.29
1010.113
1097.824
1142.133
1130.782
1058.053
927.366
752.766
556.144
359.396
186.403
55.077
-32.236
-81.657
-107.607
-125.087
-135.077
-131.808
-110.467
-71.087
-26.964
4.407
13.613
0.486
-24.872
-49.894
-67.989
-78.57
-85.559
-92.316
-99.394
-105.241
-106.977
-103.676
-96.29
-86.405
-76.249
-67.206
-59.642
-53.894
-50.198
-48.519
-48.769
-50.599
-53.359
-56.601
-60.111
-63.715
-67.281
-70.659
-73.638
-76.059
-77.889
-79.102
-79.669
-79.572
-78.789
-77.331
-75.267
-72.687
-69.676
-66.316
-62.678
-58.829
-54.853
-50.838
-46.871
-43.035
-39.391
-35.974
-32.81
-29.913
-27.284
-24.915
-22.784
-20.858
-19.107
-17.503
-16.023
-14.643
-13.338
-12.076
-10.826
-9.557
-8.239
-6.843
-5.343
-3.712
-1.923
0.046
2.218
4.612
7.247
10.146
13.328
16.814
20.621
24.764
29.256
34.107
39.325
44.912
50.868
57.189
63.868
70.894
78.254
85.93
93.902
102.147
110.639
119.347
128.239
137.282
146.438
155.668
164.931
174.185
183.387
192.492
201.454
210.228
218.769
227.031
234.97
242.541
249.701
256.41
262.628
268.317
273.443
277.973
281.879
285.135
287.719
289.612
290.8
291.272
291.019
290.041
288.336
285.911
282.773
278.935
274.414
269.228
263.403
256.962
249.937
242.359
234.263
225.686
216.667
207.247
197.468
187.374
177.009
166.418
155.647
144.742
133.748
122.709
111.67
100.673
89.76
78.971
68.344
57.915
47.717
37.783
28.14
18.816
9.832
1.209
-7.036
-14.887
-22.334
-29.367
-35.981
-42.173
-47.941
-53.288
-58.217
-62.735
-66.85
-70.572
-73.914
-76.889
-79.512
-81.798
-83.766
-85.432
-86.816
-87.937
-88.814
-89.467
-89.916
-90.18
-90.278
-90.23
-90.054
-89.766
-89.383
-88.921
-88.394
-87.816
-87.198
-86.551
-85.885
-85.21
-84.533
-83.859
-83.196
-82.548
-81.918
-81.309
-80.724
-80.164
-79.63
-79.123
-78.641
-78.185
-77.754
-77.346
-76.96
-76.594
-76.245
-75.912
-75.593
-75.283
-74.982
-74.687
-74.396
-74.106
-73.817
-73.526
-73.234
-72.938
-72.64
-72.338
-72.034
-71.726
-71.417
-71.107
-70.796
-70.486
-70.177
-69.87
-69.567
-69.268
-68.973
-68.683
-68.398
-68.118
-67.845
-67.577
-67.314
-67.057
-66.805
-66.558
-66.317
-66.08
-65.848
-65.622
-65.4
-65.182
-64.969
-64.759
-64.553
-64.349
-64.147
-63.947
-63.747
-63.547
-63.345
-63.142
-62.937
-62.73
-62.52
-62.308
-62.093
-61.878
-61.661
-61.444
-61.229
-61.017
-60.808
-60.605
-60.409
-60.221
-60.043
-59.876
-59.72
-59.577
-59.447
-59.331
-59.228
-59.138
-59.062
-58.998
-58.946
-58.906
-58.876
-58.855
-58.843
-58.838
-58.839
-58.844
-58.851
-58.858
-58.864
-58.866
-58.862
-58.849
-58.825
-58.787
-58.733
-58.66
-58.566
-58.45
-58.31
-58.144
-57.95
-57.73
-57.482
-57.207
-56.906
-56.579
-56.23
-55.86
-55.473
-55.071
-54.659
-54.24
-53.818
-53.4
-52.988
-52.589
-52.208
-51.849
-51.519
-51.222
-50.966
-50.755
-50.594
-50.489
-50.446
-50.468
-50.56
-50.726
-50.967
-51.287
-51.687
-52.167
-52.727
-53.365
-54.081
-54.871
-55.731
-56.657
-57.643
-58.682
-59.766
-60.888
-62.039
-63.207
-64.383
-65.556
-66.713
-67.844
-68.936
-69.977
-70.954
-71.855
-72.667
-73.377
-73.974
-74.444
-74.776
-74.959
-74.984
-74.842
-74.526
-74.029
-73.346
-72.475
-71.414
-70.161
-68.719
-67.088
-65.274
-63.283
-61.121
-58.798
-56.326
-53.717
-50.986
-48.155
-45.243
-42.27
-39.258
-36.23
-33.211
-30.227
-27.302
-24.459
-21.719
-19.103
-16.637
-14.347
-12.257
-10.386
-8.753
-7.37
-6.254
-5.421
-4.883
-4.64
-4.692
-5.035
-5.675
-6.631
-7.919
-9.542
-11.5
-13.779
-16.365
-19.245
-22.389
-25.749
-29.27
-32.889
-36.55
-40.211
-43.834
-47.381
-50.799
-54.017
-56.947
-59.497
-61.604
-63.237
-64.391
-65.111
-65.428
-65.32
-64.923
-64.505
-64.312
-64.628
-65.542
-66.833
-68.538
-71.05
-74.385
-78.246
-82.117
-84.966
-86.304
-86.492
-85.371
-82.249
-76.956
-69.748
-61.617
-54.747
-50.697
-49.806
-52.77
-60.723
-72.996
-87.101
-100.111
-107.49
-108.432
-106.915
-102.424
-90.95
-63.085
-4.073
91.305
218.611
367.512
522.334
673.105
814.602
938.019
1032.831
1086.571
1087.008
1033.417
933.338
795.291
632.442
456.632
280.361
124.999
8.513
-61.639
-86.127
-79.725
-60.763
-36.172
-11.668
9.564
28.294
36.708
31.871
19.21
1.746
-13.527
-22.769
-29.791
-35.862
-41.534
-47.054
-50.002
-49.62
-46.93
-42.832
-38.485
-34.829
-32.288
-31.07
-31.304
-32.899
-35.553
-39.036
-43.172
-47.748
-52.595
-57.566
-62.478
-67.183
-71.561
-75.45
-78.728
-81.322
-83.176
-84.288
-84.675
-84.365
-83.412
-81.883
-79.85
-77.379
-74.538
-71.387
-68.001
-64.464
-60.86
-57.278
-53.78
-50.412
-47.205
-44.175
-41.329
-38.662
-36.161
-33.8
-31.559
-29.423
-27.376
-25.403
-23.485
-21.598
-19.717
-17.818
-15.876
-13.869
-11.775
-9.574
-7.247
-4.776
-2.146
0.657
3.646
6.84
10.253
13.901
17.799
21.958
26.389
31.102
36.102
41.392
46.972
52.838
58.985
65.404
72.084
79.01
86.165
93.53
101.083
108.798
116.65
124.609
132.645
140.724
148.813
156.878
164.881
172.787
180.558
188.157
195.548
202.693
209.556
216.101
222.293
228.098
233.484
238.419
242.875
246.825
250.243
253.109
255.402
257.107
258.21
258.701
258.574
257.824
256.451
254.457
251.85
248.637
244.831
240.447
235.502
230.018
224.017
217.524
210.566
203.172
195.373
187.2
178.687
169.868
160.778
151.455
141.934
132.252
122.446
112.555
102.613
92.658
82.724
72.847
63.06
53.394
43.88
34.547
25.422
16.53
7.893
-0.468
-8.534
-16.289
-23.72
-30.815
-37.565
-43.963
-50.002
-55.681
-60.997
-65.951
-70.546
-74.784
-78.673
-82.218
-85.428
-88.313
-90.884
-93.152
-95.132
-96.835
-98.278
-99.474
-100.44
-101.19
-101.742
-102.11
-102.312
-102.363
-102.277
-102.071
-101.759
-101.353
-100.867
-100.313
-99.702
-99.046
-98.353
-97.634
-96.896
-96.149
-95.398
-94.65
-93.911
-93.187
-92.48
-91.795
-91.134
-90.499
-89.893
-89.316
-88.769
-88.252
-87.765
-87.307
-86.876
-86.472
-86.092
-85.734
-85.397
-85.077
-84.773
-84.484
-84.206
-83.939
-83.681
-83.431
-83.186
-82.947
-82.711
-82.477
-82.244
-82.011
-81.776
-81.539
-81.299
-81.054
-80.806
-80.552
-80.293
-80.029
-79.759
-79.483
-79.203
-78.916
-78.625
-78.329
-78.029
-77.726
-77.421
-77.113
-76.805
-76.495
-76.185
-75.874
-75.562
-75.249
-74.935
-74.62
-74.302
-73.984
-73.663
-73.342
-73.019
-72.695
-72.37
-72.046
-71.721
-71.396
-71.072
-70.748
-70.427
-70.107
-69.789
-69.474
-69.163
-68.855
-68.551
-68.251
-67.956
-67.666
-67.381
-67.101
-66.828
-66.562
-66.304
-66.055
-65.817
-65.59
-65.375
-65.173
-64.984
-64.81
-64.649
-64.502
-64.368
-64.248
-64.14
-64.043
-63.958
-63.882
-63.814
-63.754
-63.699
-63.648
-63.6
-63.552
-63.504
-63.453
-63.398
-63.338
-63.271
-63.196
-63.112
-63.016
-62.907
-62.784
-62.643
-62.484
-62.305
-62.105
-61.882
-61.637
-61.368
-61.075
-60.761
-60.425
-60.069
-59.694
-59.303
-58.898
-58.481
-58.056
-57.626
-57.193
-56.762
-56.336
-55.919
-55.514
-55.125
-54.753
-54.403
-54.077
-53.777
-53.504
-53.262
-53.052
-52.876
-52.735
-52.631
-52.565
-52.537
-52.547
-52.594
-52.678
-52.796
-52.945
-53.121
-53.32
-53.537
-53.766
-54.002
-54.238
-54.467
-54.681
-54.873
-55.034
-55.156
-55.231
-55.25
-55.205
-55.088
-54.894
-54.616
-54.248
-53.785
-53.224
-52.561
-51.794
-50.921
-49.941
-48.852
-47.656
-46.355
-44.951
-43.449
-41.855
-40.176
-38.425
-36.613
-34.755
-32.865
-30.961
-29.06
-27.18
-25.338
-23.551
-21.835
-20.206
-18.683
-17.286
-16.034
-14.946
-14.037
-13.323
-12.819
-12.538
-12.487
-12.667
-13.077
-13.72
-14.604
-15.748
-17.167
-18.866
-20.851
-23.12
-25.665
-28.475
-31.52
-34.749
-38.109
-41.548
-45.019
-48.489
-51.917
-55.25
-58.421
-61.347
-63.954
-66.183
-67.982
-69.308
-70.145
-70.506
-70.447
-70.066
-69.462
-68.747
-68.043
-67.464
-67.133
-67.155
-67.653
-68.829
-70.865
-73.834
-77.644
-82.016
-86.578
-90.995
-94.842
-97.47
-98.255
-96.842
-93.441
-88.829
-83.884
-79.57
-76.895
-76.964
-81.129
-88.841
-96.935
-102.313
-101.718
-95.578
-88.793
-81.173
-68.014
-38.9
21.448
118.355
247.565
398.435
555.797
709.607
852.017
972.415
1056.916
1090.988
1067.442
990.096
872.654
730.26
573.58
410.893
250.581
106.588
-5.095
-75.937
-107.084
-110.936
-103.506
-93.61
-84.481
-74.559
-60.814
-45.195
-31.166
-21.503
-19.142
-24.692
-36.544
-52.678
-70.202
-85.966
-98.387
-106.976
-111.412
-111.648
-108.101
-101.478
-93.094
-84.759
-77.526
-71.766
-67.742
-65.531
-65.134
-66.52
-69.327
-72.895
-76.797
-80.82
-84.785
-88.608
-92.133
-95.131
-97.498
-99.233
-100.336
-100.822
-100.693
-99.927
-98.549
-96.635
-94.254
-91.487
-88.408
-85.07
-81.549
-77.924
-74.28
-70.703
-67.259
-63.985
-60.909
-58.043
-55.387
-52.942
-50.691
-48.607
-46.663
-44.834
-43.096
-41.432
-39.82
-38.232
-36.643
-35.022
-33.342
-31.58
-29.712
-27.714
-25.565
-23.244
-20.732
-18.014
-15.072
-11.891
-8.452
-4.739
-0.736
3.569
8.188
13.129
18.398
23.998
29.928
36.184
42.757
49.639
56.815
64.271
71.986
79.94
88.109
96.467
104.983
113.629
122.37
131.171
139.997
148.808
157.567
166.232
174.764
183.121
191.263
199.147
206.736
213.987
220.864
227.328
233.345
238.879
243.901
248.38
252.291
255.609
258.316
260.395
261.833
262.62
262.75
262.221
261.033
259.191
256.702
253.577
249.83
245.479
240.545
235.05
229.022
222.489
215.482
208.034
200.18
191.957
183.402
174.556
165.456
156.145
146.662
137.048
127.345
117.592
107.827
98.09
88.417
78.843
69.402
60.124
51.04
42.177
33.558
25.208
17.145
9.389
1.953
-5.15
-11.909
-18.317
-24.369
-30.064
-35.4
-40.38
-45.008
-49.29
-53.234
-56.848
-60.145
-63.135
-65.832
-68.25
-70.404
-72.31
-73.983
-75.44
-76.696
-77.768
-78.672
-79.423
-80.035
-80.524
-80.902
-81.182
-81.376
-81.497
-81.553
-81.555
-81.51
-81.427
-81.311
-81.168
-81.002
-80.816
-80.611
-80.391
-80.155
-79.904
-79.638
-79.354
-79.053
-78.732
-78.389
-78.023
-77.63
-77.209
-76.757
-76.271
-75.75
-75.193
-74.597
-73.962
-73.287
-72.572
-71.817
-71.022
-70.187
-69.314
-68.403
-67.456
-66.475
-65.461
-64.418
-63.349
-62.256
-61.144
-60.015
-58.874
-57.723
-56.567
-55.41
-54.254
-53.103
-51.961
-50.831
-49.716
-48.62
-47.545
-46.494
-45.469
-44.472
-43.506
-42.57
-41.667
-40.797
-39.962
-39.162
-38.399
-37.672
-36.983
-36.332
-35.72
-35.147
-34.613
-34.119
-33.664
-33.25
-32.875
-32.541
-32.247
-31.994
-31.783
-31.613
-31.486
-31.403
-31.362
-31.366
-31.415
-31.508
-31.647
-31.831
-32.062
-32.339
-32.662
-33.031
-33.447
-33.909
-34.414
-34.963
-35.553
-36.183
-36.849
-37.548
-38.279
-39.036
-39.817
-40.618
-41.435
-42.263
-43.097
-43.934
-44.767
-45.592
-46.403
-47.196
-47.965
-48.705
-49.411
-50.079
-50.704
-51.281
-51.806
-52.276
-52.686
-53.033
-53.315
-53.53
-53.676
-53.753
-53.759
-53.697
-53.568
-53.373
-53.116
-52.8
-52.43
-52.01
-51.545
-51.041
-50.504
-49.941
-49.359
-48.764
-48.166
-47.569
-46.983
-46.414
-45.87
-45.357
-44.882
-44.451
-44.072
-43.75
-43.49
-43.298
-43.179
-43.137
-43.174
-43.293
-43.495
-43.78
-44.149
-44.599
-45.127
-45.731
-46.405
-47.145
-47.943
-48.794
-49.688
-50.618
-51.572
-52.541
-53.515
-54.48
-55.427
-56.343
-57.218
-58.04
-58.797
-59.48
-60.076
-60.574
-60.965
-61.239
-61.385
-61.394
-61.258
-60.969
-60.523
-59.914
-59.139
-58.195
-57.081
-55.797
-54.343
-52.723
-50.94
-49
-46.91
-44.68
-42.321
-39.847
-37.271
-34.611
-31.885
-29.112
-26.315
-23.516
-20.742
-18.018
-15.371
-12.826
-10.406
-8.133
-6.029
-4.114
-2.407
-0.925
0.319
1.308
2.026
2.459
2.595
2.436
1.99
1.269
0.283
-0.964
-2.483
-4.279
-6.351
-8.699
-11.326
-14.23
-17.407
-20.827
-24.421
-28.129
-31.895
-35.691
-39.53
-43.406
-47.284
-51.101
-54.759
-58.157
-61.243
-63.941
-66.12
-67.762
-68.936
-69.831
-70.836
-72.304
-74.428
-77.35
-81.128
-85.48
-89.974
-94.111
-97.116
-98.373
-97.46
-93.97
-87.834
-79.673
-70.387
-60.83
-52.102
-45.035
-40.494
-39.833
-43.928
-52.629
-65.569
-82.375
-102.02
-123.772
-145.291
-161.415
-169.057
-166.76
-154.139
-133.778
-102.929
-53.354
20.92
124.127
252.029
391.149
530.853
665.22
792.24
911.125
1014.443
1086.135
1108.201
1071.232
975.589
831.351
657.477
471.203
289.833
133.66
15.282
-60.851
-97.483
-108.583
-106.458
-94.116
-74.011
-47.487
-19.873
-3.916
-6.715
-26.517
-54.751
-79.615
-94.419
-99.791
-100.669
-100.909
-101.562
-101.653
-99.087
-93.543
-86.215
-78.24
-70.829
-64.788
-60.238
-57.238
-55.793
-55.647
-56.586
-58.45
-61.041
-64.171
-67.692
-71.448
-75.266
-79.003
-82.488
-85.52
-87.956
-89.71
-90.735
-91.03
-90.614
-89.513
-87.779
-85.49
-82.719
-79.541
-76.028
-72.245
-68.271
-64.198
-60.117
-56.121
-52.278
-48.632
-45.209
-42.021
-39.07
-36.347
-33.834
-31.499
-29.317
-27.267
-25.328
-23.481
-21.704
-19.971
-18.254
-16.529
-14.77
-12.956
-11.068
-9.086
-6.991
-4.765
-2.388
0.155
2.883
5.813
8.963
12.348
15.985
19.885
24.056
28.507
33.247
38.286
43.639
49.315
55.307
61.603
68.18
75.001
82.035
89.246
96.586
104.014
111.502
119.031
126.604
134.226
141.882
149.545
157.171
164.712
172.15
179.469
186.658
193.729
200.686
207.542
214.342
221.106
227.808
234.4
240.778
246.818
252.434
257.562
262.153
266.175
269.571
272.283
274.267
275.462
275.802
275.214
273.58
270.814
266.903
261.871
255.812
248.863
241.12
232.668
223.59
213.949
203.821
193.287
182.399
171.221
159.837
148.348
136.895
125.605
114.547
103.763
93.246
82.955
72.879
63.014
53.346
43.885
34.638
25.619
16.864
8.41
0.277
-7.533
-15.041
-22.266
-29.207
-35.849
-42.164
-48.111
-53.664
-58.8
-63.494
-67.73
-71.507
-74.825
-77.704
-80.174
-82.252
-83.957
-85.303
-86.302
-86.973
-87.34
-87.426
-87.26
-86.869
-86.282
-85.528
-84.639
-83.64
-82.554
-81.401
-80.198
-78.963
-77.713
-76.463
-75.23
-74.027
-72.868
-71.766
-70.733
-69.779
-68.91
-68.132
-67.449
-66.862
-66.372
-65.978
-65.677
-65.466
-65.341
-65.295
-65.322
-65.415
-65.566
-65.766
-66.008
-66.281
-66.577
-66.887
-67.201
-67.51
-67.806
-68.08
-68.326
-68.535
-68.702
-68.82
-68.885
-68.893
-68.84
-68.723
-68.539
-68.287
-67.968
-67.582
-67.128
-66.608
-66.023
-65.384
-64.695
-63.965
-63.199
-62.398
-61.57
-60.733
-59.89
-59.028
-58.138
-57.21
-56.248
-55.292
-54.356
-53.411
-52.487
-51.662
-50.997
-50.559
-50.362
-50.319
-50.403
-50.713
-51.159
-51.386
-51.307
-51.033
-50.517
-50.122
-49.2
-45.525
-39.466
-33.1
-29.685
-35.511
-50.483
-68.202
-82.395
-84.139
-72.462
-55.871
-40.97
-34.766
-38.798
-46.719
-54.525
-59.604
-61.02
-61.342
-61.81
-62.314
-62.951
-63.336
-63.348
-63.335
-63.409
-63.507
-63.634
-63.808
-64.014
-64.236
-64.444
-64.577
-64.616
-64.589
-64.506
-64.365
-64.168
-63.915
-63.608
-63.257
-62.867
-62.438
-61.969
-61.464
-60.925
-60.357
-59.762
-59.144
-58.507
-57.855
-57.191
-56.52
-55.844
-55.17
-54.499
-53.837
-53.186
-52.551
-51.935
-51.34
-50.771
-50.231
-49.721
-49.245
-48.806
-48.406
-48.046
-47.73
-47.459
-47.233
-47.055
-46.923
-46.839
-46.802
-46.812
-46.867
-46.966
-47.107
-47.287
-47.505
-47.755
-48.035
-48.34
-48.665
-49.005
-49.353
-49.704
-50.05
-50.386
-50.705
-51
-51.264
-51.49
-51.67
-51.798
-51.866
-51.867
-51.794
-51.641
-51.399
-51.065
-50.632
-50.097
-49.454
-48.702
-47.838
-46.861
-45.77
-44.566
-43.25
-41.826
-40.296
-38.666
-36.941
-35.13
-33.24
-31.284
-29.274
-27.226
-25.157
-23.082
-21.02
-18.991
-17.012
-15.104
-13.28
-11.556
-9.947
-8.472
-7.147
-5.992
-5.02
-4.247
-3.686
-3.348
-3.243
-3.379
-3.751
-4.357
-5.199
-6.282
-7.627
-9.251
-11.161
-13.361
-15.85
-18.617
-21.652
-24.925
-28.385
-31.979
-35.652
-39.356
-43.062
-46.73
-50.307
-53.722
-56.881
-59.696
-62.104
-64.048
-65.494
-66.431
-66.874
-66.878
-66.537
-65.961
-65.278
-64.609
-64.057
-63.735
-63.729
-64.186
-65.385
-67.521
-70.632
-74.605
-79.068
-83.576
-87.801
-91.255
-93.159
-92.934
-90.415
-85.951
-80.622
-75.851
-72.873
-72.804
-77.163
-86.141
-97.597
-108.946
-116.693
-119.043
-119.06
-118.327
-113.547
-97.305
-55.855
22.618
138.885
287.474
456.893
631.773
801.281
952.045
1066.921
1131.133
1131.245
1063.796
937.347
767.427
574.692
379.394
199.856
50.921
-57.285
-121.219
-144.221
-134.634
-105.377
-68.82
-37.382
-20.304
-19.197
-31.56
-48.702
-62.078
-69.143
-70.846
-72.133
-76.653
-83.849
-91.357
-96.076
-96.675
-93.8
-88.616
-82.409
-76.001
-69.966
-64.994
-61.473
-59.478
-58.921
-59.542
-61.146
-63.607
-66.736
-70.313
-74.145
-78.057
-81.9
-85.533
-88.774
-91.476
-93.548
-94.934
-95.628
-95.644
-95.002
-93.755
-91.974
-89.73
-87.095
-84.133
-80.906
-77.491
-73.978
-70.455
-67.016
-63.728
-60.633
-57.765
-55.134
-52.743
-50.585
-48.636
-46.864
-45.242
-43.747
-42.356
-41.05
-39.801
-38.579
-37.351
-36.086
-34.752
-33.321
-31.765
-30.057
-28.174
-26.093
-23.795
-21.264
-18.482
-15.43
-12.089
-8.442
-4.475
-0.176
4.467
9.461
14.811
20.517
26.576
32.982
39.725
46.793
54.171
61.84
69.778
77.96
86.36
94.947
103.69
112.555
121.504
130.499
139.502
148.471
157.365
166.141
174.756
183.167
191.333
199.21
206.759
213.937
220.708
227.033
232.878
238.211
243
247.219
250.842
253.849
256.222
257.946
259.011
259.408
259.135
258.189
256.575
254.298
251.369
247.801
243.61
238.815
233.439
227.505
221.043
214.081
206.651
198.787
190.525
181.9
172.952
163.72
154.243
144.561
134.715
124.746
114.693
104.596
94.492
84.42
74.415
64.512
54.744
45.143
35.737
26.553
17.618
8.954
0.581
-7.482
-15.22
-22.619
-29.667
-36.357
-42.68
-48.633
-54.213
-59.42
-64.254
-68.719
-72.82
-76.563
-79.958
-83.013
-85.74
-88.151
-90.259
-92.077
-93.62
-94.903
-95.942
-96.75
-97.345
-97.741
-97.954
-97.998
-97.89
-97.642
-97.268
-96.781
-96.194
-95.518
-94.763
-93.94
-93.058
-92.125
-91.15
-90.139
-89.099
-88.036
-86.955
-85.86
-84.756
-83.645
-82.53
-81.413
-80.295
-79.177
-78.059
-76.942
-75.824
-74.707
-73.589
-72.468
-71.345
-70.218
-69.087
-67.949
-66.804
-65.653
-64.493
-63.325
-62.148
-60.964
-59.772
-58.573
-57.367
-56.156
-54.94
-53.721
-52.5
-51.277
-50.054
-48.833
-47.616
-46.403
-45.197
-44.001
-42.815
-41.643
-40.487
-39.349
-38.232
-37.137
-36.069
-35.028
-34.018
-33.041
-32.098
-31.193
-30.326
-29.5
-28.716
-27.975
-27.279
-26.628
-26.023
-25.464
-24.952
-24.487
-24.07
-23.701
-23.379
-23.106
-22.88
-22.703
-22.575
-22.494
-22.462
-22.478
-22.541
-22.652
-22.811
-23.016
-23.268
-23.567
-23.912
-24.303
-24.741
-25.226
-25.758
-26.337
-26.964
-27.64
-28.365
-29.141
-29.969
-30.849
-31.783
-32.773
-33.819
-34.923
-36.085
-37.308
-38.592
-39.938
-41.346
-42.817
-44.35
-45.945
-47.603
-49.322
-51.102
-52.941
-54.837
-56.79
-58.796
-60.851
-62.953
-65.096
-67.277
-69.49
-71.728
-73.986
-76.255
-78.529
-80.8
-83.06
-85.3
-87.511
-89.684
-91.808
-93.875
-95.873
-97.792
-99.621
-101.351
-102.971
-104.472
-105.844
-107.078
-108.165
-109.095
-109.863
-110.459
-110.877
-111.111
-111.155
-111.005
-110.659
-110.115
-109.373
-108.434
-107.3
-105.975
-104.465
-102.776
-100.915
-98.89
-96.713
-94.394
-91.945
-89.38
-86.716
-83.969
-81.158
-78.306
-75.433
-72.562
-69.716
-66.919
-64.195
-61.565
-59.05
-56.671
-54.445
-52.394
-50.537
-48.896
-47.487
-46.325
-45.424
-44.794
-44.449
-44.393
-44.623
-45.135
-45.928
-47.004
-48.376
-50.054
-52.036
-54.317
-56.891
-59.742
-62.854
-66.194
-69.708
-73.337
-77.021
-80.708
-84.359
-87.932
-91.36
-94.57
-97.472
-99.985
-102.057
-103.644
-104.704
-105.218
-105.198
-104.694
-103.803
-102.639
-101.316
-99.948
-98.644
-97.517
-96.673
-96.261
-96.513
-97.595
-99.534
-102.246
-105.486
-108.953
-112.397
-115.403
-117.252
-117.349
-115.43
-111.595
-106.426
-100.775
-95.427
-91.269
-89.755
-91.285
-94.312
-96.959
-96.786
-93.515
-91.27
-92.217
-93.573
-86.616
-55.707
11.024
114.906
248.493
397.217
548.347
695.678
834.324
956.413
1048.714
1094.012
1079.275
1002.615
871.822
702.652
514.322
324.777
151.989
11.007
-88.406
-143.926
-161.007
-149.618
-122.77
-91.501
-66.035
-54.254
-57.13
-71.886
-90.365
-104.197
-110.857
-111.457
-110.74
-112.309
-115.795
-119.145
-119.677
-116.378
-110.083
-102.017
-93.422
-85.08
-77.485
-71.213
-66.609
-63.719
-62.431
-62.498
-63.697
-65.878
-68.848
-72.378
-76.282
-80.381
-84.489
-88.432
-92.008
-95.059
-97.496
-99.265
-100.345
-100.74
-100.472
-99.597
-98.195
-96.342
-94.105
-91.547
-88.728
-85.723
-82.622
-79.515
-76.49
-73.611
-70.914
-68.424
-66.153
-64.099
-62.248
-60.573
-59.035
-57.604
-56.255
-54.967
-53.719
-52.487
-51.243
-49.963
-48.62
-47.194
-45.661
-44.001
-42.191
-40.212
-38.044
-35.671
-33.078
-30.251
-27.175
-23.835
-20.219
-16.321
-12.129
-7.635
-2.826
2.316
7.797
13.617
19.77
26.24
33
40.015
47.243
54.64
62.169
69.8
77.518
85.32
93.205
101.173
109.21
117.286
125.371
133.44
141.473
149.459
157.402
165.323
173.254
181.237
189.289
197.405
205.54
213.616
221.535
229.179
236.453
243.286
249.611
255.374
260.518
264.983
268.696
271.571
273.505
274.376
274.093
272.605
269.906
266.046
261.111
255.224
248.495
241.016
232.871
224.126
214.848
205.102
194.962
184.511
173.854
163.122
152.43
141.873
131.51
121.361
111.418
101.643
92.005
82.484
73.074
63.785
54.633
45.644
36.841
28.256
19.898
11.76
3.838
-3.871
-11.359
-18.598
-25.553
-32.177
-38.427
-44.266
-49.666
-54.611
-59.096
-63.122
-66.7
-69.849
-72.583
-74.914
-76.854
-78.413
-79.607
-80.455
-80.982
-81.214
-81.18
-80.908
-80.428
-79.768
-78.954
-78.007
-76.95
-75.8
-74.576
-73.296
-71.979
-70.644
-69.31
-67.992
-66.707
-65.471
-64.297
-63.196
-62.179
-61.252
-60.421
-59.691
-59.064
-58.541
-58.122
-57.806
-57.589
-57.468
-57.438
-57.492
-57.623
-57.824
-58.085
-58.399
-58.754
-59.142
-59.553
-59.976
-60.401
-60.82
-61.222
-61.599
-61.943
-62.245
-62.498
-62.695
-62.828
-62.891
-62.88
-62.788
-62.613
-62.352
-62.002
-61.562
-61.032
-60.413
-59.705
-58.911
-58.032
-57.074
-56.039
-54.932
-53.759
-52.526
-51.238
-49.904
-48.529
-47.122
-45.69
-44.241
-42.783
-41.323
-39.87
-38.431
-37.013
-35.624
-34.269
-32.956
-31.689
-30.476
-29.322
-28.23
-27.206
-26.253
-25.376
-24.576
-23.856
-23.219
-22.666
-22.197
-21.814
-21.517
-21.304
-21.175
-21.129
-21.162
-21.274
-21.459
-21.715
-22.037
-22.42
-22.861
-23.353
-23.892
-24.472
-25.089
-25.736
-26.41
-27.104
-27.814
-28.536
-29.264
-29.995
-30.725
-31.451
-32.168
-32.874
-33.566
-34.243
-34.901
-35.54
-36.157
-36.751
-37.322
-37.869
-38.391
-38.89
-39.367
-39.822
-40.258
-40.676
-41.081
-41.475
-41.86
-42.241
-42.619
-43
-43.385
-43.777
-44.18
-44.596
-45.026
-45.473
-45.938
-46.421
-46.923
-47.442
-47.979
-48.53
-49.094
-49.666
-50.245
-50.825
-51.402
-51.972
-52.531
-53.072
-53.589
-54.075
-54.524
-54.927
-55.276
-55.562
-55.776
-55.91
-55.955
-55.903
-55.746
-55.476
-55.085
-54.569
-53.92
-53.133
-52.204
-51.131
-49.911
-48.546
-47.035
-45.384
-43.597
-41.682
-39.65
-37.513
-35.283
-32.972
-30.597
-28.176
-25.729
-23.276
-20.833
-18.421
-16.058
-13.767
-11.57
-9.491
-7.55
-5.764
-4.154
-2.738
-1.542
-0.585
0.123
0.578
0.78
0.72
0.377
-0.265
-1.216
-2.476
-4.043
-5.911
-8.075
-10.521
-13.207
-16.087
-19.099
-22.184
-25.312
-28.464
-31.63
-34.789
-37.872
-40.791
-43.469
-45.845
-47.892
-49.622
-51.012
-52.03
-52.762
-53.395
-54.252
-55.672
-57.786
-60.515
-63.732
-67.456
-71.726
-76.45
-81.164
-85.173
-88.029
-89.657
-90.278
-89.937
-88.426
-85.523
-81.466
-77.062
-73.268
-70.917
-70.357
-71.724
-75.376
-81.932
-91.625
-103.754
-115.485
-122.27
-120.227
-106.895
-83.642
-53.374
-16.111
30.954
95.636
185.846
304.24
448.149
606.639
765.657
908.931
1019.415
1085.634
1097.624
1054.29
962.991
831.671
675.615
509.653
347.131
206.483
99.693
30.85
-3.001
-16.31
-23.831
-32.597
-44.22
-54.391
-58.191
-56.348
-51.927
-47.86
-46.685
-48.597
-52.576
-57.731
-62.893
-66.991
-69.583
-70.974
-71.653
-71.841
-71.476
-70.6
-69.48
-68.498
-67.844
-67.164
-66.101
-64.755
-63.57
-62.918
-62.932
-63.549
-64.649
-66.359
-68.792
-71.765
-74.881
-77.729
-80.007
-81.607
-82.537
-82.756
-82.22
-80.953
-79.029
-76.569
-73.691
-70.458
-66.908
-63.079
-59.023
-54.819
-50.556
-46.318
-42.182
-38.2
-34.405
-30.823
-27.465
-24.331
-21.415
-18.698
-16.154
-13.762
-11.508
-9.378
-7.357
-5.424
-3.551
-1.708
0.131
1.991
3.895
5.864
7.92
10.081
12.366
14.79
17.367
20.11
23.038
26.165
29.508
33.081
36.895
40.96
45.284
49.875
54.735
59.865
65.264
70.926
76.845
83.013
89.418
96.046
102.881
109.903
117.093
124.427
131.879
139.423
147.029
154.667
162.305
169.911
177.45
184.889
192.193
199.326
206.255
212.944
219.359
225.466
231.232
236.625
241.612
246.165
250.255
253.855
256.942
259.492
261.487
262.908
263.742
263.976
263.602
262.612
261.004
258.778
255.937
252.486
248.435
243.796
238.586
232.822
226.526
219.722
212.435
204.695
196.532
187.978
179.067
169.836
160.321
150.56
140.593
130.46
120.201
109.855
99.464
89.068
78.707
68.419
58.242
48.214
38.369
28.743
19.366
10.269
1.48
-6.975
-15.073
-22.795
-30.121
-37.039
-43.536
-49.603
-55.234
-60.426
-65.177
-69.491
-73.372
-76.826
-79.863
-82.494
-84.732
-86.593
-88.092
-89.248
-90.08
-90.609
-90.855
-90.84
-90.588
-90.12
-89.46
-88.631
-87.657
-86.559
-85.359
-84.081
-82.743
-81.366
-79.969
-78.569
-77.181
-75.821
-74.501
-73.232
-72.025
-70.888
-69.827
-68.848
-67.954
-67.148
-66.431
-65.804
-65.264
-64.811
-64.44
-64.148
-63.931
-63.784
-63.7
-63.675
-63.702
-63.774
-63.885
-64.027
-64.195
-64.381
-64.579
-64.782
-64.984
-65.179
-65.362
-65.528
-65.672
-65.79
-65.88
-65.938
-65.962
-65.95
-65.903
-65.818
-65.697
-65.539
-65.345
-65.117
-64.856
-64.564
-64.243
-63.895
-63.522
-63.127
-62.712
-62.28
-61.834
-61.375
-60.907
-60.433
-59.954
-59.473
-58.993
-58.517
-58.047
-57.585
-57.135
-56.697
-56.275
-55.87
-55.484
-55.12
-54.779
-54.463
-54.174
-53.913
-53.682
-53.483
-53.317
-53.186
-53.091
-53.033
-53.013
-53.033
-53.094
-53.196
-53.34
-53.526
-53.756
-54.029
-54.345
-54.704
-55.106
-55.549
-56.033
-56.557
-57.119
-57.716
-58.348
-59.011
-59.704
-60.423
-61.166
-61.93
-62.71
-63.504
-64.308
-65.117
-65.929
-66.738
-67.541
-68.333
-69.11
-69.868
-70.604
-71.314
-71.994
-72.642
-73.254
-73.829
-74.364
-74.857
-75.307
-75.712
-76.073
-76.388
-76.658
-76.882
-77.062
-77.198
-77.291
-77.342
-77.351
-77.321
-77.252
-77.146
-77.003
-76.825
-76.613
-76.367
-76.088
-75.777
-75.435
-75.061
-74.656
-74.22
-73.75
-73.247
-72.709
-72.133
-71.517
-70.858
-70.153
-69.398
-68.589
-67.723
-66.796
-65.804
-64.741
-63.605
-62.392
-61.098
-59.722
-58.261
-56.715
-55.083
-53.365
-51.565
-49.684
-47.728
-45.704
-43.618
-41.48
-39.301
-37.092
-34.867
-32.638
-30.419
-28.223
-26.065
-23.958
-21.916
-19.956
-18.095
-16.351
-14.741
-13.284
-11.995
-10.891
-9.984
-9.283
-8.796
-8.527
-8.487
-8.69
-9.151
-9.882
-10.891
-12.18
-13.748
-15.582
-17.657
-19.933
-22.368
-24.915
-27.537
-30.204
-32.885
-35.548
-38.141
-40.602
-42.871
-44.89
-46.617
-48.006
-49.03
-49.694
-50.054
-50.214
-50.275
-50.31
-50.377
-50.544
-50.901
-51.541
-52.569
-54.061
-56.132
-59.005
-62.803
-67.495
-72.88
-78.465
-83.656
-87.901
-90.517
-90.682
-87.921
-82.25
-74.208
-65.04
-56.254
-49.33
-45.836
-47.304
-53.512
-62.157
-70.531
-75.89
-78.272
-79.392
-77.199
-64.523
-29.307
38.907
142.172
272.615
416.118
561.529
702.143
834.544
952.687
1043.094
1091.52
1085.303
1022.151
910.076
758.111
581.52
395.328
215.245
64.225
-42.725
-101.289
-117.157
-109.566
-96.577
-86.576
-81.965
-78.542
-71.623
-62.684
-54.783
-50.698
-52.839
-60.434
-71.156
-83.061
-93.963
-102.037
-106.661
-107.873
-106.116
-102.339
-97.511
-92.386
-87.775
-84.436
-82.718
-82.695
-84.264
-87.117
-90.967
-95.594
-100.738
-106.14
-111.62
-117.007
-122.134
-126.859
-131.018
-134.48
-137.178
-139.07
-140.144
-140.411
-139.907
-138.692
-136.85
-134.463
-131.605
-128.348
-124.762
-120.928
-116.939
-112.884
-108.85
-104.904
-101.088
-97.434
-93.963
-90.683
-87.59
-84.67
-81.899
-79.259
-76.737
-74.32
-71.996
-69.746
-67.551
-65.389
-63.24
-61.083
-58.899
-56.668
-54.372
-51.993
-49.517
-46.927
-44.209
-41.348
-38.326
-35.124
-31.723
-28.106
-24.255
-20.156
-15.791
-11.149
-6.22
-0.996
4.525
10.345
16.463
22.874
29.568
36.535
43.759
51.227
58.921
66.82
74.903
83.147
91.529
100.025
108.605
117.237
125.886
134.513
143.081
151.548
159.871
168.006
175.912
183.547
190.873
197.856
204.457
210.636
216.351
221.555
226.212
230.294
233.772
236.629
238.859
240.461
241.459
241.878
241.733
241.03
239.767
237.923
235.49
232.457
228.81
224.557
219.702
214.245
208.204
201.59
194.391
186.59
178.137
168.97
159.072
148.452
137.143
125.226
112.786
99.928
86.792
73.495
60.136
46.823
33.625
20.619
7.912
-4.38
-16.112
-27.11
-37.26
-46.481
-54.712
-61.957
-68.243
-73.628
-78.233
-82.162
-85.487
-88.28
-90.58
-92.419
-93.866
-94.992
-95.883
-96.66
-97.407
-98.191
-99.074
-100.075
-101.185
-102.376
-103.566
-104.686
-105.699
-106.578
-107.321
-107.937
-108.419
-108.766
-108.981
-109.047
-108.953
-108.694
-108.259
-107.653
-106.9
-106.031
-105.099
-104.154
-103.227
-102.342
-101.513
-100.742
-100.035
-99.389
-98.793
-98.242
-97.732
-97.261
-96.832
-96.443
-96.086
-95.752
-95.429
-95.102
-94.761
-94.397
-94
-93.564
-93.086
-92.563
-91.997
-91.39
-90.741
-90.05
-89.314
-88.534
-87.709
-86.838
-85.923
-84.963
-83.961
-82.92
-81.845
-80.74
-79.611
-78.463
-77.302
-76.132
-74.96
-73.791
-72.63
-71.482
-70.351
-69.243
-68.162
-67.113
-66.101
-65.128
-64.2
-63.319
-62.489
-61.712
-60.99
-60.323
-59.715
-59.164
-58.672
-58.24
-57.867
-57.553
-57.298
-57.102
-56.961
-56.876
-56.844
-56.861
-56.927
-57.038
-57.191
-57.385
-57.617
-57.885
-58.187
-58.521
-58.886
-59.279
-59.7
-60.146
-60.616
-61.109
-61.623
-62.157
-62.709
-63.279
-63.866
-64.469
-65.086
-65.718
-66.363
-67.021
-67.691
-68.372
-69.064
-69.766
-70.479
-71.201
-71.932
-72.672
-73.421
-74.178
-74.941
-75.71
-76.483
-77.258
-78.034
-78.808
-79.579
-80.345
-81.102
-81.85
-82.586
-83.307
-84.012
-84.696
-85.358
-85.994
-86.601
-87.177
-87.718
-88.221
-88.682
-89.099
-89.468
-89.785
-90.048
-90.251
-90.393
-90.468
-90.474
-90.407
-90.262
-90.038
-89.729
-89.335
-88.851
-88.277
-87.608
-86.844
-85.982
-85.019
-83.954
-82.785
-81.509
-80.127
-78.636
-77.036
-75.328
-73.512
-71.589
-69.56
-67.43
-65.2
-62.875
-60.459
-57.957
-55.376
-52.724
-50.006
-47.234
-44.414
-41.56
-38.684
-35.8
-32.922
-30.067
-27.251
-24.49
-21.801
-19.202
-16.706
-14.329
-12.084
-9.987
-8.054
-6.303
-4.751
-3.411
-2.299
-1.427
-0.807
-0.446
-0.346
-0.505
-0.921
-1.598
-2.55
-3.788
-5.317
-7.141
-9.259
-11.66
-14.332
-17.249
-20.365
-23.632
-26.999
-30.419
-33.861
-37.288
-40.654
-43.904
-46.954
-49.73
-52.171
-54.216
-55.816
-56.949
-57.606
-57.829
-57.714
-57.338
-56.79
-56.173
-55.572
-55.127
-54.982
-55.24
-56.068
-57.683
-60.237
-63.809
-68.259
-73.134
-77.936
-82.226
-85.459
-87.03
-86.415
-83.323
-78.243
-72.455
-67.358
-64.05
-63.421
-66.397
-73.755
-85.695
-99.69
-110.671
-113.914
-105.949
-87.598
-62.001
-27.957
19.113
87.09
184.265
310.206
457.871
616.844
773.563
916.903
1036.065
1119.091
1155.427
1137.199
1064.04
940.895
778.838
595.88
409.172
239.754
106.28
13.082
-40.388
-64.255
-74.262
-73.677
-66.017
-55.226
-40.604
-30.476
-29.031
-31.454
-35.304
-34.987
-28.769
-22.413
-19.11
-20.523
-26.277
-33.087
-39.469
-45.129
-49.55
-52.716
-54.242
-53.754
-51.602
-48.187
-43.804
-38.939
-34.245
-30.285
-27.575
-26.393
-26.631
-28.108
-30.628
-33.837
-37.291
-40.617
-43.495
-45.741
-47.345
-48.308
-48.643
-48.413
-47.689
-46.543
-45.048
-43.25
-41.175
-38.866
-36.377
-33.782
-31.165
-28.605
-26.175
-23.929
-21.895
-20.089
-18.515
-17.16
-16.01
-15.042
-14.222
-13.524
-12.922
-12.389
-11.9
-11.421
-10.916
-10.347
-9.679
-8.879
-7.917
-6.767
-5.403
-3.8
-1.94
0.197
2.625
5.359
8.416
11.81
15.553
19.654
24.121
28.956
34.163
39.738
45.677
51.972
58.608
65.571
72.843
80.404
88.23
96.295
104.572
113.029
121.635
130.355
139.152
147.99
156.829
165.63
174.353
182.956
191.399
199.641
207.642
215.363
222.764
229.809
236.461
242.684
248.447
253.718
258.469
262.673
266.306
269.349
271.783
273.595
274.772
275.308
275.195
274.433
273.023
270.967
268.273
264.95
261.011
256.472
251.35
245.666
239.444
232.708
225.486
217.808
209.705
201.209
192.354
183.177
173.712
163.999
154.074
143.976
133.744
123.416
113.031
102.625
92.237
81.901
71.652
61.524
51.548
41.755
32.174
22.831
13.752
4.96
-3.524
-11.68
-19.493
-26.946
-34.029
-40.73
-47.043
-52.96
-58.479
-63.598
-68.318
-72.641
-76.572
-80.119
-83.288
-86.092
-88.543
-90.654
-92.44
-93.918
-95.105
-96.019
-96.679
-97.105
-97.315
-97.33
-97.17
-96.854
-96.401
-95.833
-95.166
-94.419
-93.61
-92.754
-91.869
-90.967
-90.063
-89.17
-88.298
-87.458
-86.66
-85.912
-85.22
-84.589
-84.026
-83.531
-83.108
-82.757
-82.476
-82.263
-82.116
-82.031
-82.002
-82.024
-82.09
-82.193
-82.327
-82.484
-82.655
-82.832
-83.009
-83.176
-83.327
-83.455
-83.553
-83.615
-83.637
-83.614
-83.542
-83.417
-83.238
-83.001
-82.707
-82.353
-81.941
-81.47
-80.942
-80.36
-79.726
-79.043
-78.317
-77.551
-76.752
-75.925
-75.077
-74.214
-73.343
-72.471
-71.606
-70.755
-69.926
-69.124
-68.358
-67.633
-66.954
-66.327
-65.756
-65.244
-64.793
-64.407
-64.085
-63.829
-63.639
-63.512
-63.449
-63.448
-63.506
-63.621
-63.788
-64.006
-64.27
-64.575
-64.916
-65.29
-65.691
-66.114
-66.554
-67.006
-67.465
-67.926
-68.383
-68.833
-69.272
-69.694
-70.097
-70.479
-70.836
-71.167
-71.472
-71.75
-72.003
-72.231
-72.438
-72.624
-72.794
-72.95
-73.096
-73.236
-73.374
-73.514
-73.661
-73.818
-73.99
-74.18
-74.394
-74.633
-74.902
-75.203
-75.537
-75.907
-76.313
-76.756
-77.236
-77.752
-78.302
-78.884
-79.496
-80.133
-80.792
-81.466
-82.149
-82.834
-83.513
-84.177
-84.818
-85.424
-85.986
-86.492
-86.933
-87.298
-87.576
-87.756
-87.827
-87.78
-87.603
-87.289
-86.828
-86.212
-85.432
-84.484
-83.362
-82.062
-80.583
-78.92
-77.076
-75.052
-72.85
-70.474
-67.929
-65.221
-62.36
-59.356
-56.22
-52.965
-49.607
-46.163
-42.655
-39.104
-35.533
-31.966
-28.426
-24.938
-21.53
-18.228
-15.055
-12.032
-9.182
-6.527
-4.095
-1.907
0.018
1.663
3.016
4.063
4.786
5.177
5.233
4.957
4.356
3.427
2.153
0.523
-1.463
-3.801
-6.477
-9.478
-12.789
-16.384
-20.214
-24.222
-28.344
-32.522
-36.712
-40.877
-44.974
-48.945
-52.724
-56.227
-59.367
-62.088
-64.351
-66.136
-67.485
-68.419
-68.919
-69.119
-69.274
-69.615
-70.432
-71.808
-73.53
-75.654
-78.539
-82.202
-86.366
-90.513
-93.696
-95.514
-96.345
-96.056
-93.987
-89.866
-83.849
-76.896
-70.927
-67.279
-66.224
-68.327
-74.79
-85.383
-98.031
-109.874
-116.737
-118.331
-119.068
-119.198
-115.103
-95.769
-44.141
45.536
169.401
314.755
462.144
603.473
737.185
861.759
974.325
1061.103
1102.98
1086.228
1006.714
871.496
697.8
506.514
317.412
149.43
16.446
-73.806
-120.751
-130.945
-114.045
-82.577
-47.68
-19.579
-6.765
-10.487
-27.272
-48.402
-64.876
-73.699
-76.08
-76.936
-79.923
-84.703
-89.247
-90.869
-88.596
-83.336
-76.331
-68.788
-61.477
-54.847
-49.394
-45.431
-42.981
-41.918
-42.021
-43.082
-44.96
-47.483
-50.447
-53.685
-57.036
-60.332
-63.409
-66.074
-68.182
-69.649
-70.432
-70.516
-69.906
-68.628
-66.736
-64.315
-61.439
-58.179
-54.603
-50.771
-46.763
-42.672
-38.591
-34.61
-30.794
-27.185
-23.81
-20.684
-17.808
-15.173
-12.757
-10.525
-8.451
-6.513
-4.69
-2.962
-1.304
0.315
1.923
3.551
5.228
6.977
8.827
10.799
12.916
15.197
17.658
20.316
23.186
26.287
29.636
33.249
37.141
41.324
45.809
50.604
55.715
61.143
66.886
72.939
79.294
85.94
92.862
100.046
107.469
115.11
122.944
130.944
139.078
147.315
155.62
163.96
172.295
180.589
188.801
196.892
204.821
212.548
220.033
227.235
234.114
240.632
246.751
252.436
257.651
262.364
266.545
270.166
273.203
275.632
277.436
278.599
279.109
278.957
278.138
276.65
274.496
271.681
268.214
264.106
259.374
254.035
248.113
241.629
234.613
227.092
219.098
210.664
201.826
192.621
183.086
173.26
163.183
152.896
142.44
131.853
121.178
110.454
99.72
89.014
78.374
67.835
57.432
47.197
37.161
27.351
17.795
8.517
-0.463
-9.126
-17.454
-25.435
-33.057
-40.311
-47.19
-53.691
-59.81
-65.549
-70.909
-75.895
-80.512
-84.768
-88.671
-92.233
-95.463
-98.376
-100.983
-103.3
-105.339
-107.117
-108.649
-109.949
-111.034
-111.92
-112.622
-113.154
-113.533
-113.772
-113.884
-113.882
-113.779
-113.586
-113.311
-112.966
-112.559
-112.096
-111.585
-111.032
-110.441
-109.819
-109.167
-108.489
-107.789
-107.068
-106.328
-105.57
-104.797
-104.01
-103.21
-102.397
-101.575
-100.742
-99.901
-99.053
-98.197
-97.336
-96.471
-95.601
-94.73
-93.857
-92.984
-92.114
-91.248
-90.388
-89.536
-88.696
-87.869
-87.058
-86.267
-85.498
-84.755
-84.039
-83.353
-82.702
-82.085
-81.507
-80.968
-80.469
-80.011
-79.595
-79.22
-78.884
-78.588
-78.329
-78.105
-77.914
-77.755
-77.623
-77.517
-77.434
-77.369
-77.321
-77.286
-77.26
-77.24
-77.222
-77.203
-77.18
-77.149
-77.106
-77.049
-76.974
-76.879
-76.759
-76.614
-76.44
-76.236
-76
-75.733
-75.433
-75.102
-74.74
-74.349
-73.932
-73.492
-73.032
-72.557
-72.069
-71.574
-71.076
-70.581
-70.093
-69.618
-69.159
-68.724
-68.315
-67.938
-67.598
-67.3
-67.046
-66.843
-66.693
-66.601
-66.569
-66.602
-66.703
-66.873
-67.116
-67.434
-67.827
-68.296
-68.841
-69.461
-70.156
-70.921
-71.755
-72.653
-73.611
-74.623
-75.684
-76.786
-77.924
-79.091
-80.279
-81.48
-82.687
-83.892
-85.087
-86.265
-87.417
-88.536
-89.613
-90.641
-91.61
-92.515
-93.347
-94.099
-94.762
-95.33
-95.794
-96.15
-96.39
-96.509
-96.501
-96.362
-96.088
-95.676
-95.126
-94.438
-93.611
-92.647
-91.548
-90.319
-88.963
-87.486
-85.893
-84.191
-82.388
-80.493
-78.515
-76.466
-74.357
-72.204
-70.019
-67.816
-65.612
-63.425
-61.274
-59.179
-57.157
-55.221
-53.388
-51.674
-50.096
-48.671
-47.409
-46.319
-45.411
-44.693
-44.179
-43.88
-43.798
-43.924
-44.248
-44.763
-45.474
-46.394
-47.53
-48.876
-50.424
-52.171
-54.117
-56.263
-58.589
-61.051
-63.589
-66.144
-68.676
-71.17
-73.622
-76.013
-78.283
-80.337
-82.076
-83.442
-84.412
-84.976
-85.1
-84.696
-83.768
-82.514
-81.285
-80.45
-80.2
-80.454
-81.054
-82.108
-83.762
-85.88
-87.954
-89.168
-88.893
-87.203
-84.572
-81.036
-76.441
-70.891
-64.902
-59.757
-56.961
-57.044
-59.885
-65.749
-74.752
-86.558
-100.782
-115.9
-128.973
-137.834
-139.642
-129.541
-105.231
-65.943
-11.725
51.948
121.977
200.724
289.936
395.801
521.368
659.2
798.623
921.409
1007.67
1043.791
1019.976
937.283
803.819
632.018
441.67
251.572
82.66
-45.606
-126.83
-162.956
-167.598
-160.786
-153.051
-148.122
-142.729
-129.351
-107.802
-82.146
-56.849
-37.281
-24.942
-18.745
-18.368
-22.604
-29.613
-37.911
-45.98
-52.517
-57.253
-60.22
-60.99
-59.536
-56.361
-52.101
-47.68
-44.054
-41.559
-40.265
-40.376
-41.862
-44.554
-48.254
-52.497
-56.693
-60.499
-63.721
-66.225
-68.019
-69.109
-69.454
-69.114
-68.2
-66.797
-64.987
-62.824
-60.322
-57.523
-54.499
-51.336
-48.129
-44.969
-41.908
-38.981
-36.213
-33.617
-31.203
-28.972
-26.905
-24.974
-23.16
-21.449
-19.829
-18.287
-16.801
-15.339
-13.869
-12.363
-10.794
-9.14
-7.377
-5.482
-3.435
-1.216
1.19
3.797
6.621
9.682
12.997
16.583
20.454
24.623
29.099
33.894
39.013
44.46
50.235
56.337
62.76
69.5
76.546
83.888
91.511
99.4
107.534
115.895
124.457
133.194
142.079
151.08
160.166
169.303
178.454
187.584
196.654
205.625
214.46
223.118
231.559
239.746
247.638
255.198
262.387
269.171
275.513
281.381
286.742
291.569
295.833
299.512
302.582
305.024
306.822
307.963
308.435
308.231
307.346
305.779
303.531
300.607
297.017
292.771
287.885
282.376
276.266
269.577
262.337
254.574
246.319
237.605
228.469
218.945
209.074
198.895
188.449
177.778
166.923
155.928
144.836
133.688
122.528
111.397
100.336
89.385
78.581
67.963
57.565
47.421
37.562
28.016
18.81
9.967
1.509
-6.547
-14.185
-21.392
-28.159
-34.48
-40.349
-45.766
-50.733
-55.253
-59.333
-62.983
-66.212
-69.035
-71.466
-73.522
-75.222
-76.586
-77.635
-78.392
-78.879
-79.121
-79.142
-78.968
-78.623
-78.132
-77.52
-76.81
-76.026
-75.191
-74.324
-73.447
-72.577
-71.734
-70.931
-70.184
-69.506
-68.907
-68.397
-67.984
-67.674
-67.47
-67.377
-67.395
-67.525
-67.764
-68.112
-68.563
-69.114
-69.757
-70.487
-71.295
-72.173
-73.111
-74.099
-75.127
-76.183
-77.258
-78.34
-79.419
-80.483
-81.523
-82.529
-83.492
-84.402
-85.251
-86.032
-86.738
-87.363
-87.902
-88.35
-88.703
-88.96
-89.119
-89.178
-89.137
-88.997
-88.759
-88.424
-87.995
-87.475
-86.867
-86.175
-85.405
-84.56
-83.648
-82.674
-81.644
-80.566
-79.446
-78.291
-77.109
-75.907
-74.692
-73.47
-72.25
-71.039
-69.842
-68.668
-67.522
-66.411
-65.341
-64.316
-63.343
-62.425
-61.568
-60.775
-60.05
-59.396
-58.815
-58.311
-57.886
-57.542
-57.28
-57.1
-57.005
-56.993
-57.065
-57.219
-57.456
-57.772
-58.166
-58.636
-59.178
-59.79
-60.469
-61.211
-62.011
-62.865
-63.768
-64.716
-65.703
-66.723
-67.77
-68.839
-69.923
-71.017
-72.113
-73.207
-74.292
-75.361
-76.408
-77.427
-78.413
-79.358
-80.257
-81.103
-81.893
-82.619
-83.277
-83.862
-84.368
-84.792
-85.131
-85.379
-85.536
-85.597
-85.56
-85.424
-85.187
-84.848
-84.407
-83.864
-83.219
-82.475
-81.633
-80.696
-79.667
-78.549
-77.348
-76.067
-74.712
-73.289
-71.804
-70.263
-68.674
-67.046
-65.386
-63.703
-62.008
-60.31
-58.622
-56.957
-55.327
-53.747
-52.231
-50.792
-49.444
-48.201
-47.074
-46.072
-45.206
-44.484
-43.918
-43.518
-43.292
-43.248
-43.394
-43.733
-44.272
-45.012
-45.947
-47.071
-48.38
-49.87
-51.552
-53.431
-55.508
-57.781
-60.248
-62.894
-65.704
-68.648
-71.679
-74.744
-77.793
-80.777
-83.663
-86.413
-88.981
-91.309
-93.328
-94.973
-96.196
-96.952
-97.202
-96.944
-96.199
-95.039
-93.583
-91.933
-90.202
-88.517
-86.991
-85.759
-84.947
-84.64
-84.986
-86.201
-88.423
-91.689
-95.886
-100.667
-105.65
-110.46
-114.514
-117.067
-117.485
-115.478
-111.285
-105.568
-99.278
-93.387
-88.941
-87.572
-89.545
-92.976
-95.794
-95.241
-92.006
-91.066
-92.725
-92.944
-79.788
-34.987
48.037
166.454
307.671
451.506
589.681
719.522
838.748
944.428
1022.656
1055.39
1029.454
940.38
793.17
602.72
391.583
183.249
3.7
-127.413
-205.928
-237.601
-236.948
-218.235
-187.351
-147.247
-102.64
-62.987
-38.412
-34.548
-47.78
-66.152
-81.243
-89.18
-91.212
-93.755
-98.705
-104.958
-111.199
-114.265
-112.898
-108.044
-100.463
-91.536
-83.023
-75.634
-69.641
-65.349
-62.763
-61.813
-62.487
-64.471
-67.152
-70.157
-73.253
-76.218
-78.963
-81.342
-83.176
-84.415
-85.082
-85.198
-84.785
-83.86
-82.421
-80.513
-78.204
-75.557
-72.642
-69.519
-66.252
-62.918
-59.595
-56.361
-53.274
-50.367
-47.663
-45.171
-42.89
-40.807
-38.905
-37.149
-35.512
-33.968
-32.489
-31.049
-29.62
-28.172
-26.674
-25.098
-23.413
-21.593
-19.614
-17.452
-15.087
-12.501
-9.679
-6.607
-3.272
0.342
4.246
8.456
12.981
17.832
23.017
28.541
34.406
40.609
47.146
54.008
61.182
68.653
76.403
84.41
92.654
101.111
109.755
118.559
127.497
136.537
145.651
154.803
163.959
173.08
182.123
191.047
199.808
208.364
216.674
224.696
232.391
239.723
246.658
253.161
259.195
264.72
269.695
274.081
277.852
280.989
283.481
285.331
286.55
287.156
287.171
286.612
285.486
283.789
281.502
278.608
275.087
270.941
266.189
260.848
254.932
248.451
241.408
233.792
225.577
216.727
207.197
196.966
186.049
174.495
162.398
149.869
137.041
124.024
110.905
97.767
84.687
71.745
59.022
46.617
34.643
23.231
12.537
2.682
-6.255
-14.244
-21.311
-27.52
-32.969
-37.742
-41.904
-45.511
-48.604
-51.224
-53.408
-55.203
-56.666
-57.881
-58.96
-59.995
-61.059
-62.186
-63.371
-64.582
-65.756
-66.844
-67.805
-68.614
-69.265
-69.763
-70.118
-70.347
-70.469
-70.485
-70.379
-70.14
-69.759
-69.244
-68.622
-67.928
-67.214
-66.523
-65.899
-65.374
-64.97
-64.699
-64.565
-64.565
-64.689
-64.931
-65.289
-65.764
-66.355
-67.058
-67.866
-68.766
-69.744
-70.786
-71.872
-72.989
-74.12
-75.252
-76.376
-77.483
-78.565
-79.617
-80.63
-81.598
-82.51
-83.36
-84.139
-84.839
-85.454
-85.978
-86.407
-86.738
-86.969
-87.103
-87.138
-87.077
-86.924
-86.681
-86.355
-85.95
-85.47
-84.924
-84.316
-83.653
-82.941
-82.187
-81.397
-80.577
-79.734
-78.873
-78
-77.121
-76.239
-75.36
-74.487
-73.623
-72.772
-71.934
-71.114
-70.311
-69.527
-68.763
-68.018
-67.291
-66.581
-65.886
-65.202
-64.527
-63.856
-63.187
-62.515
-61.836
-61.147
-60.445
-59.726
-58.988
-58.23
-57.45
-56.648
-55.824
-54.978
-54.112
-53.228
-52.329
-51.418
-50.499
-49.577
-48.657
-47.745
-46.848
-45.974
-45.129
-44.321
-43.558
-42.849
-42.202
-41.625
-41.128
-40.718
-40.405
-40.197
-40.101
-40.125
-40.275
-40.556
-40.973
-41.53
-42.228
-43.068
-44.05
-45.172
-46.43
-47.821
-49.338
-50.975
-52.724
-54.574
-56.516
-58.537
-60.625
-62.764
-64.94
-67.136
-69.338
-71.528
-73.69
-75.806
-77.859
-79.831
-81.705
-83.464
-85.09
-86.568
-87.88
-89.011
-89.948
-90.679
-91.193
-91.478
-91.528
-91.336
-90.899
-90.214
-89.279
-88.095
-86.666
-84.997
-83.095
-80.969
-78.631
-76.095
-73.38
-70.505
-67.49
-64.359
-61.133
-57.838
-54.501
-51.147
-47.797
-44.474
-41.201
-38.003
-34.908
-31.942
-29.127
-26.484
-24.033
-21.794
-19.789
-18.034
-16.536
-15.295
-14.319
-13.618
-13.218
-13.14
-13.392
-13.977
-14.894
-16.137
-17.698
-19.558
-21.669
-23.979
-26.436
-28.992
-31.616
-34.287
-36.958
-39.574
-42.069
-44.353
-46.367
-48.079
-49.448
-50.466
-51.179
-51.592
-51.749
-51.852
-52.057
-52.542
-53.541
-55.054
-57.026
-59.674
-63.248
-67.698
-72.955
-78.621
-83.966
-88.837
-93.197
-96.537
-98.286
-98.173
-96.053
-92.687
-89.733
-88.068
-88.208
-91.076
-97.501
-108.015
-122.843
-139.549
-153.141
-159.695
-156.351
-143.171
-122.359
-92.541
-49.091
15.3
107.355
226.429
366.142
515.989
664.014
801.803
919.1
1004.118
1046.272
1034.153
966.222
848.882
689.786
504.82
309.402
119.691
-40.404
-155.884
-222.02
-241.599
-232.382
-210.195
-181.174
-151.813
-120.767
-86.744
-56.307
-29.933
-9.093
3.693
11.382
12.811
6.983
-3.958
-18.9
-34.895
-48.667
-58.88
-64.91
-66.803
-65.115
-60.63
-54.343
-47.413
-41.177
-36.544
-33.834
-33.172
-34.422
-37.241
-41.296
-46.084
-50.924
-55.345
-59.11
-62.084
-64.296
-65.783
-66.522
-66.552
-65.97
-64.852
-63.26
-61.242
-58.805
-55.983
-52.857
-49.515
-46.063
-42.602
-39.192
-35.88
-32.704
-29.689
-26.853
-24.207
-21.741
-19.441
-17.299
-15.308
-13.465
-11.762
-10.184
-8.712
-7.322
-5.993
-4.704
-3.436
-2.167
-0.877
0.455
1.85
3.328
4.911
6.619
8.474
10.497
12.712
15.149
17.84
20.814
24.084
27.664
31.558
35.769
40.296
45.119
50.205
55.52
61.032
66.723
72.599
78.656
84.884
91.274
97.805
104.479
111.324
118.355
125.575
132.996
140.619
148.484
156.665
165.213
174.155
183.483
193.135
203.055
213.192
223.462
233.776
244.001
253.958
263.504
272.528
280.912
288.545
295.279
300.913
305.295
308.316
309.905
310.054
308.754
305.998
301.834
296.35
289.677
281.999
273.459
264.158
254.208
243.717
232.823
221.711
210.525
199.362
188.312
177.43
166.774
156.409
146.353
136.583
127.055
117.693
108.458
99.35
90.359
81.486
72.717
64.021
55.394
46.858
38.429
30.127
21.966
13.952
6.113
-1.5
-8.835
-15.836
-22.461
-28.691
-34.509
-39.901
-44.859
-49.377
-53.46
-57.128
-60.396
-63.275
-65.777
-67.911
-69.693
-71.149
-72.303
-73.18
-73.804
-74.195
-74.374
-74.364
-74.183
-73.848
-73.374
-72.772
-72.055
-71.239
-70.338
-69.365
-68.334
-67.258
-66.148
-65.015
-63.871
-62.723
-61.578
-60.442
-59.32
-58.217
-57.135
-56.079
-55.049
-54.049
-53.081
-52.144
-51.24
-50.369
-49.529
-48.721
-47.942
-47.19
-46.465
-45.763
-45.083
-44.424
-43.785
-43.165
-42.562
-41.976
-41.407
-40.855
-40.319
-39.8
-39.298
-38.813
-38.347
-37.901
-37.477
-37.076
-36.701
-36.353
-36.035
-35.75
-35.498
-35.282
-35.103
-34.963
-34.864
-34.809
-34.797
-34.833
-34.918
-35.055
-35.246
-35.493
-35.799
-36.165
-36.594
-37.086
-37.644
-38.268
-38.958
-39.715
-40.54
-41.432
-42.39
-43.415
-44.505
-45.659
-46.877
-48.155
-49.493
-50.889
-52.341
-53.849
-55.41
-57.023
-58.688
-60.403
-62.167
-63.978
-65.835
-67.737
-69.682
-71.666
-73.689
-75.746
-77.836
-79.956
-82.102
-84.272
-86.463
-88.672
-90.896
-93.132
-95.376
-97.625
-99.876
-102.125
-104.369
-106.605
-108.828
-111.036
-113.224
-115.388
-117.525
-119.629
-121.694
-123.717
-125.69
-127.608
-129.462
-131.247
-132.954
-134.578
-136.11
-137.545
-138.875
-140.094
-141.194
-142.171
-143.017
-143.726
-144.292
-144.71
-144.974
-145.079
-145.022
-144.798
-144.405
-143.84
-143.101
-142.188
-141.101
-139.839
-138.403
-136.795
-135.02
-133.081
-130.983
-128.734
-126.343
-123.822
-121.184
-118.446
-115.624
-112.735
-109.798
-106.832
-103.857
-100.891
-97.949
-95.05
-92.21
-89.448
-86.788
-84.248
-81.849
-79.607
-77.54
-75.664
-73.996
-72.547
-71.32
-70.321
-69.557
-69.044
-68.807
-68.868
-69.235
-69.914
-70.902
-72.192
-73.77
-75.607
-77.647
-79.837
-82.122
-84.453
-86.799
-89.119
-91.357
-93.444
-95.294
-96.832
-98.008
-98.787
-99.142
-99.071
-98.592
-97.765
-96.7
-95.526
-94.376
-93.379
-92.657
-92.346
-92.572
-93.503
-95.341
-98.176
-101.984
-106.606
-111.683
-116.834
-121.718
-125.854
-128.676
-129.858
-129.239
-127.059
-124.139
-121.268
-119.136
-118.412
-119.389
-122.046
-126.294
-131.241
-134.903
-134.057
-124.316
-101.966
-65.347
-16.788
39.508
100.484
165.032
238.758
328.229
436.639
565.732
706.095
842.074
957.479
1029.404
1041.969
990.408
875.073
712.768
529.171
346.723
190.188
74.397
-1.096
-40.118
-53.264
-52.943
-43.89
-31.126
-21.423
-18.721
-26.565
-44.56
-64.695
-79.598
-86.339
-85.824
-83.422
-83.277
-85.67
-88.751
-90.117
-88.991
-85.608
-80.638
-75.021
-69.156
-63.387
-58.344
-54.081
-50.354
-47.407
-45.317
-44.045
-43.723
-44.194
-45.177
-46.658
-48.652
-50.902
-53.194
-55.315
-56.973
-58.092
-58.664
-58.62
-57.948
-56.685
-54.865
-52.567
-49.898
-46.915
-43.675
-40.248
-36.686
-33.071
-29.492
-26.028
-22.76
-19.745
-17.012
-14.582
-12.458
-10.633
-9.093
-7.811
-6.748
-5.874
-5.159
-4.576
-4.099
-3.695
-3.323
-2.946
-2.523
-2.019
-1.399
-0.63
0.319
1.478
2.873
4.527
6.461
8.695
11.251
14.148
17.406
21.04
25.061
29.478
34.298
39.523
45.151
51.175
57.586
64.369
71.508
78.982
86.767
94.836
103.159
111.702
120.431
129.306
138.287
147.33
156.393
165.428
174.39
183.232
191.907
200.367
208.567
216.463
224.008
231.163
237.884
244.135
249.879
255.082
259.714
263.746
267.156
269.922
272.028
273.461
274.212
274.276
273.652
272.342
270.354
267.696
264.384
260.435
255.869
250.712
244.991
238.735
231.979
224.758
217.109
209.072
200.687
191.997
183.044
173.87
164.521
155.039
145.466
135.846
126.219
116.627
107.107
97.697
88.433
79.347
70.472
61.837
53.467
45.388
37.621
30.185
23.098
16.372
10.02
4.049
-1.534
-6.727
-11.528
-15.94
-19.967
-23.616
-26.895
-29.817
-32.393
-34.638
-36.567
-38.198
-39.549
-40.639
-41.487
-42.112
-42.536
-42.779
-42.86
-42.801
-42.62
-42.338
-41.973
-41.544
-41.067
-40.56
-40.04
-39.521
-39.017
-38.543
-38.11
-37.73
-37.414
-37.169
-37.004
-36.926
-36.938
-37.046
-37.252
-37.556
-37.959
-38.459
-39.055
-39.742
-40.518
-41.377
-42.312
-43.319
-44.389
-45.515
-46.689
-47.903
-49.149
-50.418
-51.701
-52.99
-54.275
-55.547
-56.798
-58.018
-59.199
-60.333
-61.409
-62.42
-63.358
-64.215
-64.985
-65.66
-66.236
-66.707
-67.069
-67.319
-67.454
-67.474
-67.378
-67.166
-66.84
-66.402
-65.856
-65.205
-64.455
-63.611
-62.68
-61.669
-60.585
-59.436
-58.23
-56.975
-55.682
-54.358
-53.014
-51.659
-50.302
-48.955
-47.627
-46.328
-45.068
-43.858
-42.706
-41.621
-40.613
-39.688
-38.856
-38.121
-37.491
-36.97
-36.563
-36.272
-36.101
-36.05
-36.12
-36.309
-36.616
-37.039
-37.574
-38.217
-38.962
-39.806
-40.741
-41.762
-42.862
-44.036
-45.274
-46.57
-47.917
-49.305
-50.727
-52.175
-53.641
-55.116
-56.593
-58.064
-59.522
-60.958
-62.367
-63.74
-65.072
-66.356
-67.587
-68.759
-69.868
-70.91
-71.882
-72.783
-73.61
-74.363
-75.042
-75.646
-76.177
-76.634
-77.02
-77.334
-77.577
-77.751
-77.858
-77.899
-77.876
-77.791
-77.646
-77.444
-77.185
-76.872
-76.506
-76.09
-75.625
-75.114
-74.559
-73.963
-73.329
-72.662
-71.964
-71.239
-70.491
-69.725
-68.945
-68.152
-67.352
-66.548
-65.744
-64.945
-64.156
-63.381
-62.629
-61.908
-61.23
-60.603
-60.039
-59.548
-59.143
-58.835
-58.634
-58.544
-58.573
-58.728
-59.015
-59.444
-60.026
-60.763
-61.664
-62.73
-63.966
-65.373
-66.948
-68.68
-70.558
-72.576
-74.735
-77.051
-79.538
-82.197
-85.031
-88.032
-91.187
-94.48
-97.876
-101.315
-104.737
-108.082
-111.298
-114.356
-117.216
-119.824
-122.115
-123.994
-125.383
-126.227
-126.48
-126.119
-125.151
-123.609
-121.575
-119.173
-116.55
-113.864
-111.267
-108.891
-106.868
-105.309
-104.379
-104.37
-105.472
-107.703
-110.943
-114.797
-118.806
-122.623
-125.702
-127.201
-126.52
-123.463
-118.337
-112.186
-106.359
-102.006
-100.245
-102.59
-109.125
-117.704
-125.823
-129.957
-128.473
-124.437
-119.026
-108.993
-87.225
-40.136
43.829
165.526
319.717
494.076
670.052
834.519
974.511
1075.558
1132.479
1139.346
1092.076
995.795
851.471
666.27
458.947
248.611
62.72
-73.868
-154.102
-179.583
-165.067
-133.94
-101.23
-78.903
-72.6
-77.556
-89.308
-101.555
-108.176
-109.068
-105.817
-101.555
-99.02
-97.994
-96.85
-93.051
-85.523
-75.171
-63.767
-53.606
-46.034
-41.113
-38.515
-38.086
-39.618
-42.761
-46.822
-50.697
-53.667
-55.744
-57.388
-58.966
-60.583
-62.169
-63.65
-65.166
-66.836
-68.524
-69.89
-70.632
-70.621
-69.882
-68.548
-66.7
-64.374
-61.648
-58.64
-55.476
-52.277
-49.132
-46.095
-43.225
-40.579
-38.199
-36.124
-34.373
-32.943
-31.822
-30.978
-30.376
-29.985
-29.781
-29.74
-29.838
-30.044
-30.327
-30.655
-30.999
-31.327
-31.608
-31.803
-31.879
-31.805
-31.553
-31.1
-30.421
-29.489
-28.277
-26.758
-24.906
-22.696
-20.108
-17.117
-13.707
-9.861
-5.569
-0.824
4.378
10.037
16.15
22.713
29.716
37.145
44.984
53.213
61.81
70.749
79.998
89.525
99.295
109.269
119.406
129.663
139.995
150.356
160.698
170.97
181.124
191.109
200.874
210.367
219.54
228.342
236.726
244.644
252.052
258.908
265.171
270.806
275.777
280.055
283.611
286.423
288.471
289.738
290.213
289.888
288.759
286.826
284.095
280.573
276.274
271.214
265.414
258.899
251.695
243.835
235.352
226.284
216.672
206.557
195.985
185.004
173.66
162.006
150.091
137.968
125.688
113.305
100.869
88.432
76.045
63.756
51.614
39.665
27.953
16.519
5.403
-5.359
-15.732
-25.686
-35.192
-44.228
-52.77
-60.801
-68.306
-75.274
-81.695
-87.564
-92.88
-97.644
-101.859
-105.533
-108.675
-111.299
-113.419
-115.052
-116.219
-116.939
-117.237
-117.137
-116.664
-115.845
-114.708
-113.281
-111.593
-109.672
-107.547
-105.246
-102.796
-100.225
-97.559
-94.823
-92.04
-89.233
-86.424
-83.633
-80.878
-78.176
-75.544
-72.995
-70.541
-68.193
-65.96
-63.85
-61.869
-60.019
-58.305
-56.727
-55.285
-53.978
-52.803
-51.755
-50.831
-50.025
-49.329
-48.738
-48.241
-47.833
-47.503
-47.244
-47.046
-46.902
-46.801
-46.737
-46.702
-46.687
-46.686
-46.691
-46.696
-46.695
-46.682
-46.652
-46.601
-46.524
-46.419
-46.282
-46.111
-45.905
-45.662
-45.382
-45.065
-44.711
-44.321
-43.895
-43.436
-42.945
-42.425
-41.879
-41.308
-40.716
-40.106
-39.481
-38.843
-38.196
-37.543
-36.885
-36.227
-35.571
-34.919
-34.274
-33.64
-33.018
-32.412
-31.825
-31.259
-30.718
-30.204
-29.719
-29.267
-28.85
-28.471
-28.133
-27.84
-27.594
-27.398
-27.255
-27.17
-27.144
-27.182
-27.285
-27.457
-27.7
-28.019
-28.415
-28.891
-29.45
-30.094
-30.825
-31.645
-32.556
-33.557
-34.648
-35.83
-37.1
-38.456
-39.897
-41.418
-43.016
-44.686
-46.424
-48.222
-50.075
-51.975
-53.913
-55.881
-57.87
-59.868
-61.864
-63.847
-65.806
-67.727
-69.6
-71.41
-73.146
-74.795
-76.343
-77.778
-79.089
-80.262
-81.286
-82.15
-82.846
-83.365
-83.7
-83.845
-83.796
-83.552
-83.11
-82.471
-81.636
-80.607
-79.388
-77.987
-76.411
-74.669
-72.772
-70.735
-68.573
-66.307
-63.958
-61.547
-59.094
-56.624
-54.163
-51.739
-49.378
-47.104
-44.941
-42.912
-41.043
-39.361
-37.891
-36.65
-35.653
-34.914
-34.446
-34.264
-34.379
-34.79
-35.491
-36.475
-37.738
-39.294
-41.151
-43.305
-45.748
-48.468
-51.445
-54.669
-58.116
-61.737
-65.481
-69.284
-73.08
-76.836
-80.514
-84.082
-87.518
-90.752
-93.697
-96.28
-98.414
-100.055
-101.228
-101.923
-102.108
-101.863
-101.318
-100.759
-100.658
-101.252
-102.531
-104.438
-106.91
-109.958
-113.563
-117.199
-119.77
-120.419
-118.77
-114.84
-108.906
-100.915
-90.778
-79.258
-68.175
-59.451
-54.637
-54.679
-59.801
-70.456
-86.04
-103.767
-119.887
-131.026
-137.136
-140.209
-139.333
-128.323
-94.073
-24.603
81.51
215.919
361.426
503.551
639.207
769.632
896.291
1011.468
1095.96
1129.392
1097.093
997.666
841.332
645
429.606
215.563
23.451
-127.73
-225.714
-267.263
-257.005
-208.294
-139.986
-69.454
-15.125
10.649
8.447
-15.759
-48.453
-74.801
-90.582
-96.075
-95.288
-95.188
-97.221
-99.961
-101.987
-100.814
-95.785
-88.38
-80.166
-72.487
-66.301
-61.803
-58.84
-57.443
-57.716
-59.471
-62.338
-65.981
-70.026
-74.276
-78.687
-83.089
-87.259
-91.01
-94.211
-96.807
-98.799
-100.178
-100.913
-101.014
-100.516
-99.492
-98.025
-96.183
-94.026
-91.609
-88.998
-86.277
-83.532
-80.844
-78.275
-75.86
-73.618
-71.561
-69.687
-67.985
-66.431
-64.989
-63.628
-62.319
-61.039
-59.766
-58.473
-57.131
-55.707
-54.173
-52.499
-50.661
-48.632
-46.389
-43.912
-41.182
-38.183
-34.902
-31.325
-27.44
-23.232
-18.689
-13.801
-8.56
-2.961
3.001
9.327
16.013
23.055
30.444
38.169
46.217
54.57
63.212
72.12
81.273
90.644
100.206
109.929
119.782
129.732
139.743
149.779
159.803
169.775
179.656
189.405
198.983
208.348
217.46
226.282
234.772
242.895
250.614
257.894
264.702
271.007
276.781
281.997
286.632
290.664
294.076
296.852
298.98
300.451
301.258
301.399
300.872
299.68
297.829
295.327
292.186
288.419
284.044
279.08
273.552
267.482
260.899
253.832
246.313
238.374
230.051
221.379
212.395
203.137
193.643
183.951
174.101
164.13
154.078
143.98
133.875
123.797
113.781
103.86
94.066
84.429
74.976
65.733
56.723
47.969
39.491
31.308
23.433
15.881
8.661
1.782
-4.748
-10.927
-16.756
-22.237
-27.378
-32.182
-36.658
-40.812
-44.657
-48.208
-51.482
-54.497
-57.267
-59.811
-62.148
-64.302
-66.295
-68.147
-69.873
-71.485
-72.995
-74.424
-75.789
-77.113
-78.417
-79.7
-80.971
-82.232
-83.483
-84.751
-86.057
-87.402
-88.79
-90.215
-91.666
-93.207
-94.909
-96.697
-98.5
-100.229
-101.773
-103.252
-104.843
-106.505
-108.144
-109.901
-111.959
-114.626
-118.293
-122.739
-127.455
-132.26
-137.108
-141.79
-146.01
-149.248
-150.765
-150.641
-149.609
-148.107
-146.348
-144.547
-142.925
-141.933
-142.365
-144.379
-147.29
-150.576
-153.939
-157.165
-160.198
-162.849
-164.579
-165.126
-164.885
-164.199
-163.291
-162.334
-161.273
-160.088
-158.998
-158.167
-157.483
-156.841
-156.159
-155.353
-154.494
-153.653
-152.808
-151.94
-151.065
-150.194
-149.354
-148.579
-147.856
-147.174
-146.532
-145.923
-145.356
-144.84
-144.376
-143.966
-143.607
-143.298
-143.036
-142.822
-142.657
-142.54
-142.468
-142.437
-142.443
-142.482
-142.55
-142.644
-142.754
-142.873
-142.991
-143.1
-143.191
-143.259
-143.293
-143.285
-143.225
-143.105
-142.915
-142.648
-142.294
-141.847
-141.296
-140.634
-139.855
-138.95
-137.914
-136.741
-135.424
-133.958
-132.339
-130.564
-128.629
-126.532
-124.275
-121.855
-119.276
-116.54
-113.65
-110.612
-107.431
-104.113
-100.667
-97.1
-93.422
-89.645
-85.779
-81.837
-77.837
-73.794
-69.725
-65.649
-61.585
-57.552
-53.569
-49.657
-45.832
-42.111
-38.509
-35.045
-31.735
-28.599
-25.653
-22.913
-20.393
-18.106
-16.065
-14.278
-12.746
-11.47
-10.45
-9.691
-9.207
-9.011
-9.107
-9.5
-10.19
-11.165
-12.413
-13.906
-15.595
-17.43
-19.36
-21.334
-23.318
-25.269
-27.139
-28.868
-30.383
-31.614
-32.508
-33.017
-33.099
-32.746
-31.979
-30.861
-29.507
-28.015
-26.49
-25.05
-23.818
-22.937
-22.539
-22.722
-23.622
-25.44
-28.32
-32.298
-37.199
-42.604
-48.073
-53.199
-57.446
-60.146
-60.682
-58.746
-54.757
-49.651
-44.332
-39.694
-36.692
-36.421
-39.991
-46.67
-53.145
-55.959
-52.742
-44.484
-34.279
-21.092
2.047
46.686
121.945
228.701
358.184
496.201
633.564
765.332
888.234
996.633
1075.718
1107.798
1080.257
990.126
846.148
665.564
468.105
273.498
100.467
-36.973
-129.29
-174.995
-179.994
-153.055
-107.331
-55.617
-10.027
19.203
29.462
24.077
11.87
0.837
-6.852
-12.4
-20.427
-33.306
-48.781
-64.049
-75.772
-81.7
-81.983
-77.445
-69.165
-58.764
-47.929
-37.644
-28.565
-21.216
-15.701
-12.098
-10.425
-10.252
-10.942
-12.094
-13.461
-14.884
-16.348
-17.759
-18.958
-19.942
-20.817
-21.661
-22.505
-23.318
-23.978
-24.38
-24.511
-24.371
-23.978
-23.36
-22.517
-21.466
-20.265
-18.963
-17.597
-16.168
-14.609
-12.86
-10.903
-8.747
-6.436
-4.039
-1.581
0.922
3.441
5.969
8.493
11.01
13.548
16.138
18.793
21.513
24.273
27.047
29.84
32.665
35.554
38.548
41.678
44.971
48.462
52.178
56.136
60.349
64.811
69.512
74.448
79.618
85.024
90.668
96.544
102.639
108.941
115.431
122.089
128.893
135.815
142.828
149.906
157.024
164.157
171.282
178.374
185.405
192.345
199.164
205.831
212.312
218.576
224.586
230.311
235.718
240.777
245.457
249.731
253.571
256.952
259.85
262.242
264.108
265.432
266.197
266.391
266.003
265.026
263.455
261.289
258.528
255.177
251.242
246.733
241.661
236.042
229.894
223.235
216.089
208.481
200.438
191.988
183.165
174.001
164.532
154.793
144.823
134.659
124.341
113.906
103.393
92.843
82.292
71.779
61.34
51.012
40.83
30.827
21.035
11.483
2.2
-6.788
-15.46
-23.793
-31.769
-39.371
-46.588
-53.408
-59.822
-65.826
-71.416
-76.593
-81.359
-85.72
-89.681
-93.254
-96.45
-99.282
-101.765
-103.918
-105.757
-107.303
-108.575
-109.594
-110.383
-110.963
-111.357
-111.588
-111.676
-111.646
-111.516
-111.31
-111.045
-110.742
-110.417
-110.088
-109.768
-109.472
-109.213
-108.999
-108.841
-108.746
-108.719
-108.765
-108.885
-109.081
-109.352
-109.694
-110.106
-110.58
-111.111
-111.693
-112.316
-112.971
-113.65
-114.341
-115.034
-115.718
-116.381
-117.012
-117.6
-118.134
-118.601
-118.993
-119.297
-119.507
-119.611
-119.603
-119.476
-119.222
-118.838
-118.319
-117.662
-116.865
-115.926
-114.847
-113.629
-112.274
-110.786
-109.169
-107.431
-105.577
-103.616
-101.556
-99.405
-97.175
-94.875
-92.517
-90.112
-87.671
-85.208
-82.735
-80.264
-77.808
-75.38
-72.993
-70.659
-68.39
-66.198
-64.096
-62.092
-60.198
-58.424
-56.779
-55.269
-53.905
-52.69
-51.632
-50.736
-50.004
-49.439
-49.044
-48.819
-48.763
-48.876
-49.155
-49.597
-50.198
-50.955
-51.861
-52.911
-54.097
-55.412
-56.848
-58.395
-60.045
-61.786
-63.608
-65.499
-67.447
-69.441
-71.467
-73.514
-75.568
-77.617
-79.647
-81.646
-83.601
-85.5
-87.329
-89.078
-90.734
-92.286
-93.723
-95.035
-96.211
-97.243
-98.123
-98.842
-99.393
-99.769
-99.963
-99.97
-99.785
-99.404
-98.822
-98.038
-97.049
-95.856
-94.459
-92.86
-91.06
-89.065
-86.878
-84.505
-81.954
-79.232
-76.347
-73.311
-70.134
-66.827
-63.405
-59.882
-56.273
-52.597
-48.873
-45.119
-41.356
-37.606
-33.889
-30.226
-26.64
-23.148
-19.77
-16.527
-13.437
-10.522
-7.804
-5.303
-3.037
-1.024
0.719
2.179
3.342
4.204
4.761
5.012
4.947
4.548
3.803
2.705
1.254
-0.546
-2.681
-5.134
-7.874
-10.851
-14.012
-17.304
-20.678
-24.102
-27.54
-30.947
-34.261
-37.4
-40.29
-42.877
-45.12
-46.985
-48.461
-49.549
-50.303
-50.829
-51.217
-51.569
-51.973
-52.498
-53.257
-54.372
-55.95
-58.154
-61.165
-65.081
-69.91
-75.495
-81.441
-87.307
-92.633
-96.816
-99.232
-99.39
-97.044
-92.549
-86.851
-81.027
-76.089
-72.907
-72.196
-74.44
-79.651
-86.586
-92.687
-94.817
-89.733
-74.412
-46.023
-1.975
60.058
139.556
232.273
333.377
437.433
541.803
648.751
757.11
860.141
946.592
998.51
1001.38
952.399
855.226
720.472
564.186
399.057
239.288
103.229
2.942
-56.446
-78.316
-78.589
-73.611
-71.725
-75.453
-80.69
-81.732
-78.512
-73.39
-68.388
-65.678
-65.193
-65.525
-65.995
-65.913
-64.517
-61.883
-59.064
-56.992
-56.414
-57.673
-60.231
-63.676
-68.035
-73.013
-77.865
-82.05
-85.193
-87.307
-89.072
-90.927
-92.921
-95.177
-97.808
-100.792
-104.081
-107.443
-110.384
-112.609
-114.028
-114.575
-114.297
-113.257
-111.484
-109.073
-106.174
-102.885
-99.277
-95.413
-91.327
-87.087
-82.79
-78.504
-74.287
-70.18
-66.201
-62.364
-58.676
-55.123
-51.685
-48.345
-45.091
-41.915
-38.813
-35.775
-32.788
-29.835
-26.897
-23.956
-20.989
-17.976
-14.899
-11.744
-8.497
-5.148
-1.687
1.898
5.619
9.491
13.527
17.741
22.145
26.75
31.566
36.601
41.859
47.341
53.047
58.976
65.123
71.483
78.045
84.801
91.736
98.835
106.081
113.454
120.931
128.488
136.1
143.737
151.372
158.973
166.508
173.946
181.252
188.395
195.338
202.05
208.495
214.642
220.457
225.908
230.966
235.601
239.784
243.491
246.697
249.38
251.523
253.107
254.119
254.547
254.383
253.622
252.261
250.3
247.744
244.6
240.877
236.589
231.751
226.383
220.507
214.145
207.324
200.073
192.423
184.404
176.051
167.398
158.481
149.337
140.003
130.517
120.917
111.239
101.522
91.803
82.117
72.499
62.985
53.607
44.395
35.38
26.589
18.047
9.779
1.804
-5.858
-13.193
-20.186
-26.827
-33.107
-39.022
-44.567
-49.742
-54.547
-58.987
-63.066
-66.791
-70.172
-73.219
-75.943
-78.357
-80.475
-82.312
-83.883
-85.204
-86.293
-87.165
-87.839
-88.331
-88.658
-88.838
-88.888
-88.822
-88.658
-88.409
-88.09
-87.714
-87.293
-86.838
-86.358
-85.863
-85.359
-84.854
-84.352
-83.858
-83.376
-82.907
-82.455
-82.019
-81.6
-81.198
-80.813
-80.444
-80.089
-79.748
-79.418
-79.097
-78.785
-78.48
-78.179
-77.88
-77.582
-77.284
-76.983
-76.678
-76.368
-76.051
-75.728
-75.397
-75.059
-74.714
-74.363
-74.007
-73.648
-73.287
-72.926
-72.568
-72.215
-71.869
-71.534
-71.211
-70.903
-70.612
-70.34
-70.089
-69.861
-69.656
-69.475
-69.319
-69.189
-69.083
-69.003
-68.946
-68.913
-68.903
-68.914
-68.946
-68.997
-69.065
-69.149
-69.247
-69.358
-69.48
-69.61
-69.746
-69.886
-70.027
-70.168
-70.305
-70.437
-70.562
-70.677
-70.781
-70.873
-70.951
-71.015
-71.066
-71.102
-71.125
-71.137
-71.138
-71.13
-71.116
-71.098
-71.08
-71.063
-71.053
-71.051
-71.061
-71.087
-71.132
-71.199
-71.291
-71.411
-71.561
-71.745
-71.964
-72.222
-72.52
-72.859
-73.241
-73.669
-74.142
-74.66
-75.225
-75.834
-76.487
-77.182
-77.916
-78.684
-79.483
-80.308
-81.154
-82.014
-82.882
-83.751
-84.612
-85.457
-86.279
-87.067
-87.813
-88.508
-89.143
-89.708
-90.196
-90.597
-90.906
-91.113
-91.212
-91.196
-91.061
-90.8
-90.411
-89.887
-89.229
-88.432
-87.499
-86.428
-85.222
-83.887
-82.43
-80.861
-79.188
-77.426
-75.588
-73.688
-71.743
-69.768
-67.778
-65.788
-63.814
-61.874
-59.988
-58.176
-56.461
-54.861
-53.396
-52.084
-50.942
-49.987
-49.225
-48.663
-48.308
-48.176
-48.292
-48.68
-49.355
-50.328
-51.602
-53.173
-55.032
-57.151
-59.485
-61.982
-64.592
-67.271
-69.991
-72.721
-75.419
-78.025
-80.452
-82.627
-84.494
-86.01
-87.144
-87.888
-88.254
-88.317
-88.203
-88.021
-87.888
-87.907
-88.168
-88.816
-89.983
-91.777
-94.37
-97.966
-102.68
-108.527
-115.29
-122.45
-129.487
-135.92
-141.103
-144.325
-145.035
-142.996
-138.736
-133.554
-128.712
-125.078
-123.616
-125.379
-130.882
-140.154
-150.72
-157.442
-156.996
-147.173
-127.143
-98.875
-58.524
0.725
81.904
188.889
316.821
454.534
596.614
735.404
864.611
978.367
1062.168
1100.853
1083.56
1007.14
879.238
715.079
533.116
351.477
187.735
56.018
-35.877
-87.758
-106.904
-102.456
-82.595
-53.525
-20.783
6.598
20.207
16.199
-3.433
-29.405
-52.571
-68.527
-77.042
-82.059
-86.59
-90.936
-94.088
-94.166
-90.511
-83.883
-75.727
-67.653
-60.675
-55.208
-51.38
-49.122
-48.387
-49.186
-51.245
-54.261
-57.999
-62.178
-66.693
-71.478
-76.355
-81.13
-85.624
-89.641
-93.063
-95.849
-97.939
-99.303
-99.954
-99.901
-99.204
-97.945
-96.186
-93.996
-91.438
-88.567
-85.461
-82.203
-78.875
-75.562
-72.321
-69.181
-66.165
-63.279
-60.52
-57.88
-55.337
-52.857
-50.416
-47.994
-45.572
-43.138
-40.671
-38.148
-35.547
-32.844
-30.02
-27.059
-23.943
-20.657
-17.187
-13.52
-9.648
-5.566
-1.266
3.262
8.027
13.038
18.299
23.811
29.582
35.614
41.912
48.477
55.292
62.341
69.609
77.079
84.729
92.541
100.482
108.519
116.636
124.815
133.036
141.285
149.52
157.704
165.801
173.768
181.585
189.236
196.682
203.889
210.839
217.504
223.876
229.95
235.667
240.97
245.811
250.137
253.926
257.165
259.823
261.879
263.306
264.069
264.164
263.591
262.318
260.329
257.594
254.077
249.825
244.886
239.294
233.098
226.318
218.973
211.111
202.778
194.009
184.85
175.332
165.484
155.372
145.057
134.606
124.096
113.544
102.964
92.392
81.852
71.384
61.033
50.819
40.765
30.912
21.296
11.955
2.931
-5.763
-14.113
-22.106
-29.735
-36.971
-43.788
-50.171
-56.107
-61.585
-66.604
-71.153
-75.225
-78.829
-81.979
-84.686
-86.968
-88.835
-90.3
-91.38
-92.093
-92.462
-92.511
-92.262
-91.739
-90.968
-89.975
-88.786
-87.43
-85.93
-84.307
-82.587
-80.79
-78.939
-77.057
-75.162
-73.273
-71.407
-69.583
-67.814
-66.114
-64.494
-62.963
-61.53
-60.201
-58.98
-57.871
-56.875
-55.992
-55.223
-54.563
-54.011
-53.561
-53.209
-52.948
-52.77
-52.67
-52.639
-52.667
-52.748
-52.871
-53.029
-53.212
-53.411
-53.619
-53.826
-54.026
-54.21
-54.373
-54.507
-54.608
-54.67
-54.69
-54.664
-54.592
-54.47
-54.299
-54.08
-53.813
-53.5
-53.144
-52.748
-52.315
-51.849
-51.355
-50.837
-50.302
-49.754
-49.199
-48.643
-48.092
-47.55
-47.024
-46.52
-46.043
-45.598
-45.189
-44.823
-44.503
-44.234
-44.019
-43.86
-43.762
-43.726
-43.753
-43.844
-44
-44.22
-44.503
-44.848
-45.253
-45.716
-46.234
-46.804
-47.422
-48.084
-48.786
-49.525
-50.294
-51.09
-51.907
-52.742
-53.588
-54.443
-55.301
-56.157
-57.008
-57.848
-58.674
-59.481
-60.265
-61.024
-61.753
-62.45
-63.112
-63.736
-64.321
-64.864
-65.362
-65.816
-66.222
-66.581
-66.89
-67.149
-67.356
-67.513
-67.618
-67.671
-67.673
-67.622
-67.52
-67.365
-67.157
-66.895
-66.578
-66.205
-65.775
-65.287
-64.74
-64.133
-63.464
-62.731
-61.932
-61.067
-60.132
-59.125
-58.044
-56.887
-55.652
-54.339
-52.946
-51.474
-49.922
-48.291
-46.582
-44.799
-42.942
-41.016
-39.022
-36.967
-34.855
-32.692
-30.485
-28.243
-25.976
-23.696
-21.419
-19.158
-16.93
-14.749
-12.634
-10.602
-8.67
-6.852
-5.163
-3.619
-2.236
-1.034
-0.03
0.759
1.32
1.636
1.697
1.49
1.01
0.257
-0.765
-2.058
-3.627
-5.49
-7.66
-10.14
-12.93
-16.028
-19.421
-23.094
-27.015
-31.13
-35.383
-39.717
-44.084
-48.452
-52.777
-57.002
-61.058
-64.857
-68.321
-71.389
-74.006
-76.126
-77.728
-78.821
-79.454
-79.72
-79.718
-79.557
-79.357
-79.231
-79.296
-79.646
-80.419
-81.828
-84.052
-87.155
-91.026
-95.351
-99.776
-103.993
-107.526
-109.683
-109.852
-107.663
-103.371
-97.854
-91.947
-86.548
-82.857
-82.113
-85.453
-92.307
-99.593
-104.027
-103.521
-99.4
-94.811
-88.465
-72.969
-35.186
36.586
144.171
278.891
425.397
571.124
710.336
841.722
961.033
1056.096
1111.373
1111.736
1053.284
943.683
793.056
616.937
429.786
244.946
82.669
-39.919
-114.816
-140.612
-127.323
-92.81
-49.727
-10.691
12.124
17.514
5.706
-18.078
-40.415
-55.681
-62.607
-62.432
-62.183
-64.401
-67.485
-70.093
-69.784
-65.901
-59.862
-52.777
-45.58
-39.068
-33.707
-29.764
-27.351
-26.387
-26.624
-27.858
-29.967
-32.778
-36.081
-39.719
-43.542
-47.395
-51.16
-54.68
-57.769
-60.314
-62.249
-63.534
-64.173
-64.189
-63.611
-62.499
-60.931
-58.974
-56.697
-54.167
-51.437
-48.583
-45.68
-42.807
-40.041
-37.438
-35.026
-32.828
-30.848
-29.079
-27.509
-26.115
-24.863
-23.724
-22.678
-21.698
-20.767
-19.858
-18.942
-17.992
-16.981
-15.886
-14.684
-13.356
-11.881
-10.245
-8.434
-6.435
-4.236
-1.822
0.825
3.72
6.874
10.298
14
17.989
22.272
26.849
31.715
36.866
42.298
48.016
54.022
60.307
66.845
73.604
80.552
87.66
94.897
102.222
109.587
116.951
124.293
131.61
138.901
146.151
153.326
160.374
167.245
173.909
180.357
186.588
192.584
198.33
203.818
209.069
214.117
218.963
223.556
227.803
231.611
234.92
237.703
239.95
241.648
242.762
243.248
243.072
242.223
240.684
238.419
235.356
231.413
226.564
220.856
214.4
207.301
199.63
191.437
182.765
173.673
164.235
154.517
144.565
134.412
124.108
113.731
103.395
93.218
83.274
73.581
64.112
54.85
45.801
36.979
28.401
20.063
11.963
4.116
-3.441
-10.67
-17.552
-24.087
-30.298
-36.212
-41.833
-47.147
-52.125
-56.748
-61.009
-64.903
-68.425
-71.564
-74.318
-76.699
-78.734
-80.454
-81.879
-83.027
-83.907
-84.536
-84.933
-85.123
-85.127
-84.97
-84.673
-84.259
-83.752
-83.178
-82.559
-81.913
-81.251
-80.586
-79.933
-79.303
-78.707
-78.155
-77.654
-77.211
-76.833
-76.526
-76.294
-76.138
-76.058
-76.052
-76.12
-76.258
-76.463
-76.729
-77.051
-77.423
-77.838
-78.291
-78.774
-79.28
-79.801
-80.331
-80.863
-81.39
-81.905
-82.401
-82.873
-83.316
-83.724
-84.095
-84.423
-84.708
-84.947
-85.139
-85.286
-85.387
-85.443
-85.457
-85.431
-85.369
-85.273
-85.149
-84.999
-84.831
-84.647
-84.455
-84.258
-84.063
-83.875
-83.699
-83.541
-83.406
-83.3
-83.228
-83.194
-83.204
-83.261
-83.369
-83.534
-83.756
-84.041
-84.389
-84.802
-85.282
-85.829
-86.442
-87.12
-87.862
-88.664
-89.525
-90.439
-91.405
-92.417
-93.471
-94.563
-95.687
-96.839
-98.015
-99.208
-100.413
-101.626
-102.841
-104.052
-105.253
-106.441
-107.608
-108.75
-109.861
-110.937
-111.972
-112.962
-113.901
-114.786
-115.612
-116.375
-117.073
-117.702
-118.261
-118.748
-119.162
-119.503
-119.771
-119.966
-120.09
-120.141
-120.122
-120.034
-119.876
-119.652
-119.361
-119.004
-118.583
-118.1
-117.556
-116.953
-116.291
-115.573
-114.799
-113.971
-113.09
-112.158
-111.175
-110.141
-109.058
-107.927
-106.749
-105.524
-104.252
-102.932
-101.565
-100.149
-98.684
-97.167
-95.597
-93.972
-92.291
-90.553
-88.757
-86.904
-84.991
-83.022
-80.996
-78.917
-76.786
-74.607
-72.381
-70.115
-67.811
-65.477
-63.118
-60.741
-58.356
-55.974
-53.609
-51.272
-48.978
-46.742
-44.577
-42.5
-40.524
-38.66
-36.921
-35.319
-33.865
-32.578
-31.471
-30.557
-29.847
-29.352
-29.081
-29.044
-29.246
-29.681
-30.346
-31.239
-32.367
-33.75
-35.4
-37.321
-39.512
-41.969
-44.68
-47.631
-50.792
-54.108
-57.522
-60.977
-64.422
-67.825
-71.144
-74.318
-77.265
-79.895
-82.123
-83.897
-85.18
-85.931
-86.135
-85.808
-85.007
-83.837
-82.424
-80.884
-79.339
-77.93
-76.793
-76.064
-75.934
-76.63
-78.297
-80.951
-84.41
-88.267
-92.099
-95.55
-98.151
-99.292
-98.503
-95.634
-91.168
-86.279
-82.14
-79.537
-79.182
-81.807
-87.929
-97.703
-108.85
-116.67
-116.761
-104.941
-81.249
-49.839
-11.814
32.715
88.933
168.602
278.034
419.311
586.059
759.491
917.962
1039.719
1108.469
1116.881
1067.615
970.171
834.463
674.183
501.965
330.476
178.677
61.12
-15.408
-52.245
-63.563
-65.478
-66.424
-68.528
-67.28
-57.504
-40.367
-20.287
-2.382
9.133
13.366
10.731
1.888
-11.423
-27.237
-43.34
-57.452
-68.514
-76.191
-80.059
-80.148
-76.952
-71.201
-64.243
-57.559
-51.87
-47.546
-44.915
-43.978
-44.679
-46.909
-50.174
-53.894
-57.748
-61.486
-64.932
-68.021
-70.609
-72.575
-73.923
-74.677
-74.867
-74.528
-73.665
-72.287
-70.449
-68.211
-65.641
-62.815
-59.789
-56.628
-53.404
-50.183
-47.04
-44.03
-41.185
-38.531
-36.081
-33.835
-31.793
-29.942
-28.258
-26.719
-25.303
-23.984
-22.741
-21.554
-20.397
-19.244
-18.069
-16.846
-15.552
-14.165
-12.663
-11.026
-9.233
-7.267
-5.113
-2.756
-0.178
2.634
5.697
9.023
12.626
16.514
20.696
25.179
29.964
35.053
40.442
46.127
52.099
58.348
64.862
71.626
78.621
85.827
93.221
100.779
108.473
116.274
124.152
132.074
140.006
147.913
155.76
163.511
171.128
178.574
185.814
192.809
199.525
205.924
211.974
217.64
222.891
227.697
232.029
235.86
239.169
241.932
244.133
245.754
246.783
247.21
247.028
246.234
244.825
242.805
240.179
236.957
233.149
228.772
223.843
218.383
212.416
205.967
199.066
191.741
184.027
175.957
167.566
158.892
149.973
140.846
131.552
122.13
112.619
103.059
93.487
83.942
74.461
65.079
55.831
46.75
37.867
29.211
20.809
12.686
4.865
-2.636
-9.797
-16.606
-23.05
-29.12
-34.809
-40.115
-45.035
-49.571
-53.727
-57.509
-60.926
-63.987
-66.706
-69.095
-71.169
-72.947
-74.444
-75.679
-76.672
-77.441
-78.007
-78.389
-78.608
-78.682
-78.632
-78.476
-78.233
-77.919
-77.551
-77.144
-76.712
-76.267
-75.822
-75.384
-74.964
-74.567
-74.199
-73.864
-73.564
-73.299
-73.07
-72.874
-72.709
-72.572
-72.456
-72.357
-72.269
-72.186
-72.1
-72.005
-71.894
-71.76
-71.596
-71.396
-71.153
-70.862
-70.517
-70.114
-69.649
-69.119
-68.521
-67.854
-67.117
-66.311
-65.437
-64.498
-63.496
-62.436
-61.323
-60.163
-58.963
-57.73
-56.472
-55.199
-53.919
-52.642
-51.377
-50.135
-48.925
-47.756
-46.638
-45.579
-44.587
-43.669
-42.833
-42.085
-41.431
-40.875
-40.421
-40.073
-39.831
-39.698
-39.673
-39.757
-39.946
-40.239
-40.632
-41.121
-41.7
-42.365
-43.108
-43.923
-44.801
-45.733
-46.712
-47.726
-48.768
-49.827
-50.893
-51.957
-53.009
-54.042
-55.045
-56.013
-56.936
-57.809
-58.625
-59.38
-60.068
-60.687
-61.233
-61.705
-62.102
-62.423
-62.669
-62.842
-62.943
-62.976
-62.945
-62.852
-62.703
-62.503
-62.258
-61.974
-61.658
-61.317
-60.958
-60.591
-60.221
-59.858
-59.508
-59.18
-58.88
-58.615
-58.392
-58.215
-58.09
-58.02
-58.01
-58.062
-58.178
-58.358
-58.602
-58.911
-59.281
-59.711
-60.197
-60.735
-61.321
-61.948
-62.61
-63.302
-64.014
-64.739
-65.469
-66.195
-66.906
-67.593
-68.247
-68.855
-69.407
-69.893
-70.302
-70.624
-70.849
-70.966
-70.968
-70.846
-70.593
-70.202
-69.668
-68.987
-68.156
-67.172
-66.036
-64.747
-63.308
-61.723
-59.995
-58.131
-56.137
-54.025
-51.804
-49.491
-47.098
-44.642
-42.144
-39.621
-37.094
-34.583
-32.107
-29.685
-27.337
-25.083
-22.943
-20.94
-19.095
-17.427
-15.957
-14.7
-13.674
-12.89
-12.356
-12.076
-12.055
-12.303
-12.837
-13.677
-14.834
-16.316
-18.127
-20.262
-22.709
-25.446
-28.43
-31.618
-34.961
-38.412
-41.939
-45.502
-49.053
-52.532
-55.854
-58.934
-61.703
-64.101
-66.077
-67.616
-68.721
-69.442
-69.879
-70.12
-70.259
-70.404
-70.658
-71.146
-71.998
-73.318
-75.251
-78.031
-81.821
-86.649
-92.338
-98.437
-104.445
-109.93
-114.365
-117.058
-117.425
-115.284
-111.176
-106.262
-101.775
-98.787
-98.179
-100.973
-108.33
-119.346
-130.44
-137.797
-137.014
-127.474
-113.565
-95.088
-69.087
-27.966
42.083
145.745
281.059
440.894
609.249
774.312
922.795
1038.476
1110.098
1124.102
1076.436
974.247
825.899
648.561
459.203
271.749
106.114
-21.285
-102.376
-133.992
-124.352
-91.458
-49.196
-11.817
7.631
8.823
-6.8
-33.275
-57.102
-73.428
-81.838
-83.844
-86.399
-91.732
-97.728
-102.849
-104.639
-102.325
-97.355
-90.865
-83.719
-76.812
-70.747
-65.824
-62.223
-59.874
-58.474
-57.862
-57.981
-58.726
-59.985
-61.62
-63.484
-65.476
-67.497
-69.419
-71.111
-72.424
-73.249
-73.559
-73.369
-72.756
-71.84
-70.69
-69.334
-67.766
-65.973
-63.98
-61.832
-59.573
-57.247
-54.892
-52.555
-50.303
-48.197
-46.251
-44.446
-42.715
-40.97
-39.166
-37.302
-35.409
-33.514
-31.626
-29.737
-27.848
-25.969
-24.102
-22.233
-20.323
-18.329
-16.229
-14.02
-11.719
-9.344
-6.892
-4.34
-1.651
1.208
4.259
7.526
11.035
14.816
18.893
23.273
27.95
32.915
38.164
43.698
49.519
55.626
62.01
68.655
75.545
82.662
89.986
97.494
105.158
112.946
120.83
128.781
136.773
144.779
152.768
160.706
168.56
176.297
183.884
191.286
198.465
205.387
212.016
218.319
224.264
229.82
234.956
239.645
243.859
247.576
250.773
253.432
255.534
257.068
258.02
258.384
258.154
257.327
255.904
253.888
251.286
248.106
244.361
240.066
235.237
229.895
224.063
217.765
211.028
203.881
196.354
188.481
180.295
171.831
163.127
154.219
145.145
135.942
126.65
117.305
107.945
98.607
89.325
80.134
71.067
62.156
53.431
44.919
36.646
28.638
20.915
13.497
6.402
-0.355
-6.762
-12.809
-18.487
-23.791
-28.719
-33.27
-37.445
-41.249
-44.687
-47.767
-50.498
-52.892
-54.961
-56.719
-58.181
-59.364
-60.284
-60.958
-61.406
-61.643
-61.69
-61.564
-61.283
-60.864
-60.324
-59.682
-58.951
-58.149
-57.289
-56.387
-55.454
-54.504
-53.548
-52.595
-51.656
-50.738
-49.848
-48.993
-48.178
-47.406
-46.682
-46.006
-45.382
-44.81
-44.29
-43.823
-43.406
-43.039
-42.721
-42.451
-42.225
-42.043
-41.902
-41.801
-41.739
-41.714
-41.724
-41.768
-41.845
-41.953
-42.092
-42.261
-42.459
-42.684
-42.937
-43.216
-43.522
-43.854
-44.211
-44.593
-45
-45.433
-45.89
-46.372
-46.879
-47.41
-47.964
-48.542
-49.142
-49.763
-50.404
-51.064
-51.74
-52.43
-53.132
-53.843
-54.559
-55.277
-55.994
-56.705
-57.407
-58.095
-58.765
-59.414
-60.037
-60.629
-61.188
-61.709
-62.188
-62.623
-63.009
-63.345
-63.626
-63.851
-64.016
-64.121
-64.163
-64.141
-64.054
-63.903
-63.687
-63.406
-63.063
-62.658
-62.193
-61.671
-61.096
-60.47
-59.797
-59.082
-58.33
-57.544
-56.731
-55.896
-55.045
-54.184
-53.318
-52.454
-51.597
-50.755
-49.932
-49.135
-48.37
-47.643
-46.959
-46.324
-45.744
-45.222
-44.765
-44.375
-44.057
-43.814
-43.648
-43.561
-43.554
-43.629
-43.784
-44.02
-44.334
-44.725
-45.189
-45.723
-46.324
-46.986
-47.704
-48.473
-49.286
-50.136
-51.016
-51.918
-52.833
-53.751
-54.665
-55.563
-56.438
-57.277
-58.07
-58.808
-59.479
-60.074
-60.581
-60.992
-61.296
-61.485
-61.551
-61.486
-61.285
-60.942
-60.451
-59.81
-59.015
-58.067
-56.966
-55.713
-54.311
-52.763
-51.075
-49.255
-47.31
-45.249
-43.083
-40.825
-38.491
-36.099
-33.671
-31.229
-28.795
-26.393
-24.045
-21.772
-19.594
-17.53
-15.594
-13.807
-12.186
-10.749
-9.518
-8.511
-7.742
-7.219
-6.943
-6.904
-7.097
-7.519
-8.172
-9.067
-10.216
-11.626
-13.306
-15.27
-17.519
-20.046
-22.813
-25.767
-28.865
-32.077
-35.406
-38.86
-42.408
-45.994
-49.528
-52.904
-56.064
-58.945
-61.428
-63.465
-65.088
-66.413
-67.766
-69.476
-71.611
-74.194
-77.22
-80.392
-83.404
-85.924
-87.263
-86.913
-84.941
-81.431
-76.596
-71.254
-66.03
-61.453
-58.488
-57.65
-58.713
-61.736
-66.885
-73.58
-81.527
-90.687
-100.409
-110.594
-122.05
-133.402
-141.085
-142.926
-136.252
-121.772
-105.223
-86.899
-62.71
-24.391
40.587
136.608
259.514
400.128
546.672
690.498
822.527
931.684
1003.555
1022.047
981.182
883.818
740.412
570.791
392.068
221.062
77.225
-28.72
-91.244
-112.028
-104.907
-82.374
-55.209
-33.729
-20.606
-18.498
-27.778
-42.494
-58.72
-72.265
-81.38
-89.571
-98.453
-108.374
-118.314
-125.326
-128.342
-127.754
-124.366
-119.51
-114.092
-108.706
-104.038
-100.495
-98.203
-97.118
-97.051
-97.868
-99.47
-101.713
-104.434
-107.457
-110.665
-113.991
-117.339
-120.578
-123.553
-126.097
-128.103
-129.531
-130.351
-130.559
-130.172
-129.213
-127.73
-125.796
-123.471
-120.816
-117.891
-114.744
-111.44
-108.055
-104.659
-101.327
-98.112
-95.042
-92.137
-89.405
-86.843
-84.442
-82.184
-80.039
-77.983
-75.999
-74.063
-72.16
-70.265
-68.354
-66.404
-64.388
-62.283
-60.067
-57.72
-55.224
-52.564
-49.722
-46.682
-43.431
-39.953
-36.234
-32.262
-28.024
-23.507
-18.704
-13.606
-8.208
-2.515
3.475
9.765
16.354
23.246
30.427
37.866
45.539
53.422
61.488
69.706
78.04
86.439
94.872
103.326
111.784
120.235
128.649
136.973
145.163
153.17
160.962
168.535
175.866
182.918
189.67
196.112
202.24
208.077
213.594
218.707
223.346
227.441
230.948
233.864
236.169
237.84
238.85
239.157
238.741
237.611
235.746
233.108
229.656
225.328
220.136
214.17
207.507
200.219
192.363
183.963
175.066
165.742
156.047
146.038
135.759
125.236
114.532
103.735
92.936
82.239
71.694
61.289
51.032
40.935
31.018
21.319
11.859
2.635
-6.332
-15.007
-23.358
-31.345
-38.954
-46.192
-53.068
-59.595
-65.768
-71.558
-76.949
-81.935
-86.51
-90.675
-94.431
-97.767
-100.691
-103.228
-105.401
-107.235
-108.753
-109.965
-110.891
-111.55
-111.964
-112.161
-112.165
-111.997
-111.683
-111.246
-110.711
-110.106
-109.449
-108.757
-108.045
-107.327
-106.618
-105.929
-105.271
-104.653
-104.08
-103.56
-103.098
-102.698
-102.362
-102.09
-101.881
-101.732
-101.641
-101.602
-101.61
-101.659
-101.742
-101.851
-101.979
-102.118
-102.26
-102.398
-102.522
-102.626
-102.701
-102.74
-102.736
-102.682
-102.573
-102.404
-102.17
-101.869
-101.499
-101.059
-100.549
-99.971
-99.326
-98.617
-97.848
-97.021
-96.142
-95.215
-94.245
-93.239
-92.202
-91.141
-90.063
-88.973
-87.878
-86.784
-85.698
-84.623
-83.567
-82.533
-81.526
-80.551
-79.612
-78.711
-77.852
-77.037
-76.269
-75.547
-74.873
-74.246
-73.665
-73.127
-72.63
-72.17
-71.745
-71.349
-70.978
-70.629
-70.295
-69.973
-69.657
-69.343
-69.025
-68.701
-68.365
-68.014
-67.644
-67.254
-66.84
-66.401
-65.937
-65.445
-64.927
-64.381
-63.809
-63.212
-62.589
-61.944
-61.279
-60.595
-59.896
-59.185
-58.467
-57.746
-57.027
-56.315
-55.615
-54.931
-54.269
-53.634
-53.03
-52.462
-51.934
-51.45
-51.012
-50.624
-50.288
-50.005
-49.775
-49.6
-49.477
-49.406
-49.383
-49.407
-49.474
-49.58
-49.72
-49.891
-50.086
-50.301
-50.529
-50.764
-50.999
-51.227
-51.44
-51.629
-51.787
-51.906
-51.976
-51.991
-51.942
-51.822
-51.624
-51.34
-50.963
-50.488
-49.909
-49.22
-48.417
-47.497
-46.457
-45.297
-44.014
-42.61
-41.086
-39.445
-37.689
-35.823
-33.852
-31.781
-29.617
-27.368
-25.042
-22.651
-20.204
-17.714
-15.196
-12.665
-10.138
-7.631
-5.164
-2.753
-0.417
1.825
3.958
5.965
7.83
9.537
11.071
12.413
13.548
14.461
15.137
15.565
15.734
15.634
15.265
14.625
13.715
12.533
11.067
9.31
7.259
4.914
2.282
-0.628
-3.796
-7.191
-10.765
-14.463
-18.232
-22.025
-25.803
-29.529
-33.157
-36.63
-39.875
-42.828
-45.437
-47.663
-49.474
-50.844
-51.784
-52.353
-52.666
-52.848
-53.007
-53.227
-53.591
-54.213
-55.236
-56.81
-59.042
-62.044
-65.943
-70.804
-76.623
-83.194
-90.04
-96.585
-102.258
-106.464
-108.593
-108.167
-104.966
-99.372
-92.41
-85.22
-78.735
-73.846
-71.482
-72.442
-77.15
-83.408
-86.635
-82.89
-68.302
-43.08
-11.609
26.663
73.329
132.843
216.457
326.513
461.036
616.608
777.821
930.261
1058.401
1140.944
1163.111
1116.377
1001.052
829.356
621.589
400.557
187.974
4.068
-137.019
-228.031
-267.422
-260.779
-220.706
-161.833
-99.997
-52.376
-26.284
-21.03
-30.511
-40.529
-43.62
-40.328
-33.704
-31.22
-35.887
-45.079
-55.651
-64.016
-68.468
-69.155
-66.502
-61.244
-54.207
-46.51
-39.412
-33.574
-29.305
-26.834
-26.123
-27.105
-29.622
-33.154
-37.071
-40.944
-44.466
-47.423
-49.744
-51.351
-52.168
-52.227
-51.593
-50.323
-48.482
-46.117
-43.252
-39.938
-36.241
-32.233
-28.011
-23.673
-19.313
-15.024
-10.875
-6.914
-3.178
0.311
3.543
6.52
9.256
11.774
14.09
16.218
18.173
19.971
21.638
23.199
24.682
26.109
27.505
28.894
30.302
31.757
33.283
34.905
36.64
38.508
40.528
42.723
45.113
47.713
50.541
53.616
56.96
60.605
64.571
68.865
73.488
78.43
83.668
89.185
94.956
100.945
107.127
113.483
120.007
126.714
133.616
140.709
147.975
155.373
162.865
170.435
178.071
185.763
193.524
201.358
209.277
217.324
225.515
233.82
242.185
250.5
258.637
266.501
274.018
281.129
287.793
293.938
299.496
304.414
308.613
312.018
314.54
316.047
316.442
315.698
313.823
310.898
307.042
302.339
296.856
290.667
283.818
276.374
268.404
259.947
251.058
241.812
232.298
222.65
212.985
203.365
193.823
184.35
174.9
165.458
156.02
146.57
137.116
127.669
118.243
108.877
99.613
90.472
81.463
72.573
63.789
55.122
46.597
38.25
30.135
22.29
14.748
7.55
0.722
-5.72
-11.764
-17.414
-22.686
-27.585
-32.112
-36.269
-40.054
-43.471
-46.532
-49.247
-51.632
-53.703
-55.477
-56.976
-58.219
-59.224
-60.007
-60.581
-60.957
-61.149
-61.169
-61.032
-60.751
-60.341
-59.817
-59.193
-58.486
-57.708
-56.873
-55.992
-55.076
-54.135
-53.179
-52.216
-51.254
-50.3
-49.361
-48.444
-47.554
-46.697
-45.877
-45.099
-44.366
-43.681
-43.048
-42.469
-41.944
-41.477
-41.068
-40.719
-40.43
-40.202
-40.037
-39.934
-39.895
-39.918
-40.005
-40.154
-40.365
-40.637
-40.969
-41.361
-41.811
-42.319
-42.883
-43.504
-44.181
-44.911
-45.695
-46.53
-47.414
-48.346
-49.323
-50.343
-51.403
-52.501
-53.633
-54.799
-55.994
-57.216
-58.462
-59.73
-61.015
-62.315
-63.626
-64.945
-66.268
-67.592
-68.912
-70.226
-71.53
-72.821
-74.094
-75.347
-76.575
-77.774
-78.941
-80.073
-81.167
-82.218
-83.227
-84.189
-85.106
-85.976
-86.799
-87.575
-88.307
-88.994
-89.638
-90.241
-90.804
-91.33
-91.82
-92.278
-92.708
-93.114
-93.501
-93.873
-94.236
-94.595
-94.956
-95.324
-95.706
-96.107
-96.534
-96.994
-97.494
-98.041
-98.644
-99.308
-100.04
-100.847
-101.733
-102.702
-103.755
-104.895
-106.12
-107.429
-108.821
-110.293
-111.843
-113.47
-115.171
-116.944
-118.785
-120.69
-122.654
-124.667
-126.719
-128.797
-130.882
-132.962
-135.021
-137.044
-139.018
-140.927
-142.756
-144.496
-146.132
-147.646
-149.017
-150.216
-151.216
-152.008
-152.582
-152.941
-153.098
-153.061
-152.84
-152.459
-151.93
-151.253
-150.421
-149.399
-148.154
-146.67
-144.945
-142.997
-140.844
-138.481
-135.898
-133.083
-130.007
-126.648
-122.977
-118.936
-114.497
-109.673
-104.51
-99.104
-93.578
-88.015
-82.479
-77.021
-71.68
-66.525
-61.625
-57.035
-52.832
-49.096
-45.918
-43.433
-41.737
-40.855
-40.777
-41.432
-42.715
-44.567
-46.934
-49.762
-53.021
-56.649
-60.585
-64.782
-69.157
-73.61
-78.026
-82.25
-86.158
-89.685
-92.773
-95.405
-97.587
-99.29
-100.496
-101.201
-101.387
-101.079
-100.328
-99.191
-97.762
-96.129
-94.399
-92.725
-91.197
-89.888
-88.909
-88.33
-88.303
-89.111
-90.85
-93.479
-97.025
-101.231
-105.434
-109.079
-111.452
-111.402
-109.481
-106.412
-101.225
-94.921
-86.367
-74.258
-63.315
-55.47
-53.915
-62.717
-77.708
-97.922
-121.184
-139.567
-147.516
-132.942
-83.635
2.682
123.216
266.97
419.799
572.381
718.223
850.571
960.011
1036.199
1067.018
1043.762
967.066
839.465
670.407
478.518
282.588
106.831
-26.508
-109.4
-144.335
-145.204
-131.894
-118.935
-112.135
-111.473
-113.731
-114.397
-113.755
-113.149
-112.734
-115.557
-122.093
-131.053
-141.967
-151.951
-158.593
-161.49
-160.499
-156.372
-150.318
-143.066
-135.325
-127.944
-121.601
-116.657
-113.2
-111.118
-110.172
-110.149
-110.88
-112.143
-113.707
-115.423
-117.171
-118.817
-120.244
-121.308
-121.845
-121.763
-121.015
-119.572
-117.443
-114.662
-111.27
-107.341
-102.962
-98.209
-93.16
-87.885
-82.451
-76.938
-71.428
-65.998
-60.727
-55.671
-50.861
-46.321
-42.059
-38.068
-34.338
-30.847
-27.563
-24.463
-21.524
-18.723
-16.04
-13.45
-10.927
-8.442
-5.968
-3.477
-0.945
1.651
4.334
7.124
10.04
13.101
16.32
19.715
23.302
27.097
31.117
35.376
39.884
44.652
49.687
54.995
60.577
66.431
72.553
78.936
85.569
92.442
99.538
106.84
114.327
121.978
129.768
137.67
145.655
153.695
161.757
169.807
177.814
185.741
193.553
201.215
208.69
215.943
222.937
229.637
236.009
242.018
247.63
252.816
257.544
261.786
265.516
268.71
271.347
273.408
274.877
275.742
275.992
275.62
274.623
272.999
270.752
267.887
264.412
260.338
255.68
250.456
244.683
238.386
231.587
224.314
216.595
208.461
199.943
191.077
181.895
172.436
162.736
152.833
142.766
132.574
122.295
111.97
101.637
91.334
81.099
70.967
60.975
51.155
41.541
32.162
23.047
14.221
5.71
-2.467
-10.288
-17.738
-24.802
-31.469
-37.728
-43.574
-48.999
-54.004
-58.586
-62.747
-66.493
-69.827
-72.758
-75.294
-77.448
-79.232
-80.659
-81.746
-82.508
-82.964
-83.133
-83.034
-82.688
-82.115
-81.337
-80.375
-79.25
-77.984
-76.598
-75.111
-73.543
-71.913
-70.238
-68.536
-66.823
-65.111
-63.416
-61.749
-60.122
-58.544
-57.023
-55.569
-54.187
-52.884
-51.663
-50.529
-49.484
-48.53
-47.668
-46.897
-46.218
-45.626
-45.121
-44.697
-44.351
-44.078
-43.872
-43.727
-43.636
-43.591
-43.587
-43.615
-43.668
-43.74
-43.824
-43.913
-44.002
-44.085
-44.158
-44.217
-44.258
-44.279
-44.276
-44.248
-44.194
-44.112
-44.002
-43.863
-43.695
-43.499
-43.276
-43.027
-42.753
-42.457
-42.14
-41.806
-41.457
-41.097
-40.73
-40.36
-39.991
-39.628
-39.277
-38.941
-38.627
-38.339
-38.081
-37.857
-37.672
-37.528
-37.428
-37.374
-37.367
-37.409
-37.5
-37.64
-37.828
-38.065
-38.349
-38.68
-39.055
-39.473
-39.933
-40.432
-40.969
-41.541
-42.146
-42.782
-43.448
-44.14
-44.855
-45.593
-46.348
-47.119
-47.903
-48.695
-49.493
-50.294
-51.094
-51.892
-52.685
-53.472
-54.251
-55.021
-55.782
-56.534
-57.276
-58.009
-58.734
-59.45
-60.159
-60.862
-61.558
-62.249
-62.934
-63.615
-64.291
-64.961
-65.625
-66.281
-66.927
-67.56
-68.179
-68.779
-69.359
-69.913
-70.439
-70.933
-71.391
-71.809
-72.182
-72.505
-72.773
-72.98
-73.12
-73.187
-73.174
-73.074
-72.881
-72.59
-72.194
-71.687
-71.064
-70.319
-69.448
-68.447
-67.314
-66.046
-64.642
-63.102
-61.429
-59.625
-57.696
-55.646
-53.486
-51.225
-48.875
-46.45
-43.964
-41.434
-38.875
-36.305
-33.741
-31.199
-28.697
-26.252
-23.882
-21.608
-19.451
-17.432
-15.572
-13.891
-12.407
-11.14
-10.105
-9.311
-8.769
-8.484
-8.472
-8.754
-9.345
-10.258
-11.498
-13.065
-14.952
-17.141
-19.602
-22.284
-25.137
-28.107
-31.15
-34.233
-37.319
-40.368
-43.323
-46.11
-48.665
-50.938
-52.891
-54.495
-55.733
-56.622
-57.233
-57.691
-58.123
-58.631
-59.298
-60.2
-61.44
-63.144
-65.444
-68.424
-72.17
-76.814
-82.395
-88.869
-96.015
-103.303
-110.139
-115.998
-120.295
-122.411
-121.967
-118.799
-113.264
-106.537
-99.756
-93.719
-89.323
-87.341
-88.221
-92.194
-97.117
-98.278
-91.644
-73.567
-44.441
-8.852
32.125
78.788
136.733
217.353
325.456
461.834
619.867
781.48
928.112
1040.978
1102.05
1101.385
1036.915
911.478
738.01
538.857
336.62
158.452
26.408
-55.434
-91.831
-99.545
-100.67
-104.509
-112.724
-121.22
-121.641
-112.862
-98.874
-83.96
-72.664
-66.422
-64.328
-65.256
-68.047
-72.111
-76.821
-81.571
-86.221
-90.515
-94.03
-96.777
-98.649
-99.281
-98.778
-97.302
-94.896
-92.038
-89.403
-87.305
-86.011
-85.816
-86.679
-88.54
-91.325
-94.631
-97.939
-100.891
-103.231
-104.818
-105.668
-105.777
-105.128
-103.798
-101.894
-99.517
-96.751
-93.639
-90.196
-86.462
-82.508
-78.424
-74.313
-70.267
-66.35
-62.603
-59.057
-55.729
-52.627
-49.748
-47.074
-44.579
-42.242
-40.054
-38.004
-36.078
-34.257
-32.511
-30.808
-29.12
-27.419
-25.681
-23.881
-21.997
-20.008
-17.896
-15.644
-13.24
-10.665
-7.902
-4.932
-1.736
1.702
5.397
9.363
13.611
18.15
22.986
28.12
33.552
39.276
45.287
51.574
58.123
64.92
71.947
79.186
86.617
94.217
101.959
109.819
117.767
125.773
133.803
141.819
149.781
157.65
165.386
172.953
180.312
187.427
194.258
200.771
206.934
212.715
218.079
222.986
227.39
231.257
234.568
237.313
239.491
241.104
242.146
242.626
242.566
241.974
240.853
239.188
236.943
234.104
230.674
226.672
222.142
217.107
211.57
205.531
198.99
191.943
184.4
176.345
167.733
158.566
148.882
138.761
128.343
117.734
107.005
96.217
85.406
74.63
63.971
53.5
43.276
33.374
23.858
14.836
6.454
-1.207
-8.121
-14.319
-19.906
-24.951
-29.483
-33.539
-37.142
-40.323
-43.138
-45.613
-47.755
-49.599
-51.185
-52.593
-53.947
-55.315
-56.721
-58.153
-59.548
-60.869
-62.11
-63.256
-64.29
-65.204
-65.988
-66.655
-67.245
-67.775
-68.248
-68.653
-68.948
-69.121
-69.181
-69.148
-69.061
-68.947
-68.823
-68.709
-68.632
-68.606
-68.641
-68.733
-68.86
-69.011
-69.182
-69.37
-69.579
-69.809
-70.05
-70.296
-70.537
-70.765
-70.971
-71.146
-71.276
-71.353
-71.372
-71.33
-71.23
-71.074
-70.861
-70.594
-70.273
-69.902
-69.483
-69.019
-68.51
-67.959
-67.369
-66.746
-66.095
-65.421
-64.731
-64.03
-63.325
-62.624
-61.933
-61.258
-60.605
-59.982
-59.392
-58.842
-58.337
-57.881
-57.479
-57.132
-56.845
-56.62
-56.456
-56.355
-56.315
-56.334
-56.41
-56.539
-56.718
-56.941
-57.203
-57.5
-57.827
-58.178
-58.547
-58.929
-59.318
-59.708
-60.092
-60.464
-60.819
-61.149
-61.45
-61.717
-61.944
-62.129
-62.266
-62.353
-62.386
-62.364
-62.284
-62.145
-61.947
-61.69
-61.374
-61.001
-60.574
-60.095
-59.568
-58.997
-58.386
-57.742
-57.069
-56.373
-55.66
-54.935
-54.206
-53.479
-52.759
-52.054
-51.369
-50.712
-50.089
-49.504
-48.963
-48.472
-48.034
-47.654
-47.334
-47.078
-46.887
-46.763
-46.705
-46.716
-46.792
-46.933
-47.138
-47.403
-47.725
-48.1
-48.523
-48.99
-49.493
-50.027
-50.585
-51.158
-51.739
-52.32
-52.891
-53.444
-53.97
-54.459
-54.9
-55.286
-55.605
-55.849
-56.009
-56.075
-56.04
-55.896
-55.637
-55.259
-54.757
-54.128
-53.371
-52.484
-51.467
-50.323
-49.053
-47.661
-46.152
-44.531
-42.806
-40.986
-39.081
-37.105
-35.072
-32.999
-30.9
-28.795
-26.703
-24.646
-22.649
-20.733
-18.917
-17.22
-15.663
-14.267
-13.053
-12.039
-11.235
-10.652
-10.304
-10.203
-10.365
-10.794
-11.482
-12.421
-13.603
-15.025
-16.703
-18.642
-20.837
-23.286
-25.981
-28.922
-32.112
-35.533
-39.143
-42.885
-46.692
-50.516
-54.335
-58.13
-61.891
-65.567
-69.066
-72.293
-75.161
-77.611
-79.628
-81.163
-82.12
-82.515
-82.47
-82.272
-82.393
-83.104
-84.405
-86.253
-88.597
-91.4
-94.63
-97.813
-99.894
-100.078
-98.057
-93.884
-87.932
-80.362
-71.184
-61.057
-51.645
-44.811
-42.056
-44.218
-51.431
-63.859
-81.589
-103.909
-128.609
-152.048
-170.178
-179.167
-175.344
-155.094
-115.095
-52.226
33.415
136.951
252.799
374.701
499.076
628.979
764.229
896.893
1012.809
1088.525
1102.631
1048.95
931.463
763.516
567.211
361.331
164.353
-1.557
-121.471
-189.384
-206.172
-183.734
-139.626
-85.957
-35.086
0.997
20.666
23.379
13.468
3.313
-2.715
-4.16
-2.65
-5.584
-15.304
-29.574
-46.016
-60.346
-70.115
-75.692
-77.551
-76.349
-72.999
-68.124
-62.465
-57.177
-53.094
-50.506
-49.536
-50.092
-51.896
-54.736
-58.32
-62.143
-65.828
-69.137
-71.868
-73.978
-75.471
-76.302
-76.478
-76.043
-75.017
-73.443
-71.371
-68.822
-65.832
-62.452
-58.734
-54.75
-50.584
-46.311
-42.012
-37.748
-33.558
-29.478
-25.531
-21.733
-18.091
-14.601
-11.248
-8.021
-4.91
-1.906
1.002
3.832
6.604
9.335
12.044
14.746
17.458
20.193
22.966
25.79
28.675
31.631
34.666
37.791
41.015
44.35
47.806
51.394
55.121
58.998
63.031
67.227
71.59
76.122
80.822
85.69
90.721
95.909
101.246
106.722
112.323
118.036
123.844
129.729
135.671
141.648
147.638
153.616
159.557
165.434
171.221
176.891
182.414
187.765
192.913
197.832
202.493
206.869
210.933
214.659
218.023
220.998
223.563
225.696
227.377
228.588
229.314
229.541
229.257
228.455
227.129
225.274
222.891
219.982
216.552
212.607
208.159
203.219
197.804
191.93
185.617
178.887
171.764
164.273
156.441
148.297
139.87
131.19
122.291
113.203
103.959
94.592
85.136
75.624
66.088
56.561
47.075
37.661
28.349
19.167
10.143
1.301
-7.333
-15.738
-23.895
-31.785
-39.392
-46.703
-53.707
-60.393
-66.755
-72.788
-78.488
-83.855
-88.89
-93.595
-97.974
-102.034
-105.781
-109.223
-112.372
-115.236
-117.827
-120.157
-122.238
-124.083
-125.706
-127.118
-128.334
-129.366
-130.227
-130.93
-131.486
-131.908
-132.204
-132.387
-132.465
-132.446
-132.338
-132.148
-131.882
-131.545
-131.141
-130.674
-130.147
-129.56
-128.916
-128.216
-127.458
-126.643
-125.77
-124.837
-123.843
-122.787
-121.667
-120.481
-119.229
-117.91
-116.524
-115.07
-113.549
-111.962
-110.31
-108.596
-106.82
-104.988
-103.102
-101.166
-99.185
-97.164
-95.109
-93.026
-90.921
-88.801
-86.673
-84.543
-82.419
-80.309
-78.219
-76.158
-74.132
-72.151
-70.22
-68.349
-66.544
-64.813
-63.161
-61.595
-60.12
-58.741
-57.462
-56.286
-55.215
-54.253
-53.399
-52.655
-52.019
-51.492
-51.07
-50.751
-50.533
-50.41
-50.38
-50.436
-50.575
-50.791
-51.077
-51.43
-51.842
-52.309
-52.824
-53.381
-53.973
-54.595
-55.24
-55.901
-56.573
-57.248
-57.923
-58.59
-59.245
-59.884
-60.501
-61.095
-61.66
-62.196
-62.698
-63.167
-63.6
-63.998
-64.361
-64.69
-64.987
-65.254
-65.493
-65.707
-65.898
-66.071
-66.228
-66.371
-66.505
-66.632
-66.756
-66.88
-67.006
-67.139
-67.281
-67.434
-67.602
-67.787
-67.99
-68.212
-68.456
-68.72
-69.006
-69.313
-69.64
-69.987
-70.35
-70.728
-71.117
-71.513
-71.912
-72.306
-72.69
-73.056
-73.398
-73.706
-73.974
-74.192
-74.352
-74.446
-74.465
-74.401
-74.246
-73.991
-73.628
-73.149
-72.548
-71.818
-70.953
-69.948
-68.8
-67.505
-66.06
-64.466
-62.721
-60.826
-58.783
-56.595
-54.267
-51.805
-49.216
-46.509
-43.695
-40.789
-37.805
-34.763
-31.68
-28.577
-25.475
-22.397
-19.366
-16.403
-13.531
-10.77
-8.142
-5.67
-3.375
-1.282
0.588
2.213
3.573
4.65
5.427
5.891
6.036
5.857
5.348
4.501
3.3
1.734
-0.203
-2.514
-5.194
-8.23
-11.6
-15.266
-19.173
-23.261
-27.472
-31.753
-36.063
-40.355
-44.581
-48.677
-52.568
-56.181
-59.459
-62.354
-64.819
-66.836
-68.425
-69.65
-70.633
-71.5
-72.344
-73.252
-74.32
-75.65
-77.359
-79.564
-82.323
-85.716
-89.889
-94.903
-100.708
-107.062
-113.443
-119.278
-124.075
-127.274
-128.231
-126.506
-121.95
-115.012
-106.802
-98.365
-90.655
-84.623
-81.092
-80.9
-83.297
-85.057
-82.476
-71.627
-51.224
-25.069
4.768
38.636
79.647
139.2
226.819
345.974
497.052
668.027
839.483
991.263
1099.895
1148.224
1130.002
1047.419
911.542
739.39
548.888
357.769
185.068
45.92
-51.218
-105.359
-125.021
-121.081
-102.394
-75.302
-44.333
-16.65
0.196
1.6
-11.466
-30.738
-47.746
-58.114
-61.794
-63.207
-65.5
-68.442
-70.731
-70.372
-66.754
-61.018
-54.379
-47.866
-42.209
-37.807
-34.881
-33.496
-33.517
-34.662
-36.676
-39.389
-42.634
-46.232
-50.039
-53.888
-57.61
-61.062
-64.073
-66.508
-68.29
-69.371
-69.736
-69.398
-68.388
-66.764
-64.604
-61.983
-58.966
-55.618
-51.996
-48.176
-44.245
-40.292
-36.404
-32.649
-29.068
-25.693
-22.541
-19.617
-16.915
-14.416
-12.088
-9.908
-7.855
-5.909
-4.054
-2.267
-0.523
1.202
2.933
4.692
6.493
8.356
10.297
12.334
14.484
16.763
19.182
21.76
24.516
27.47
30.642
34.047
37.695
41.595
45.761
50.209
54.958
60.016
65.382
71.048
77.003
83.232
89.711
96.397
103.23
110.151
117.115
124.094
131.078
138.051
144.994
151.885
158.704
165.453
172.142
178.77
185.328
191.809
198.225
204.623
211.085
217.675
224.412
231.277
238.217
245.185
252.117
258.935
265.531
271.759
277.481
282.596
287.027
290.7
293.518
295.34
295.991
295.339
293.305
289.862
285.015
278.776
271.189
262.344
252.385
241.507
229.878
217.625
204.846
191.64
178.131
164.478
150.86
137.416
124.253
111.456
99.09
87.227
75.902
65.112
54.803
44.891
35.322
26.078
17.158
8.565
0.289
-7.695
-15.414
-22.867
-30.053
-36.97
-43.62
-50.012
-56.14
-61.977
-67.477
-72.589
-77.28
-81.538
-85.362
-88.754
-91.719
-94.266
-96.411
-98.186
-99.617
-100.729
-101.541
-102.073
-102.348
-102.398
-102.259
-101.964
-101.544
-101.028
-100.441
-99.809
-99.155
-98.498
-97.853
-97.23
-96.642
-96.1
-95.618
-95.205
-94.872
-94.623
-94.467
-94.407
-94.448
-94.588
-94.827
-95.161
-95.586
-96.095
-96.682
-97.339
-98.056
-98.825
-99.635
-100.476
-101.337
-102.206
-103.071
-103.92
-104.743
-105.526
-106.261
-106.935
-107.539
-108.064
-108.502
-108.847
-109.091
-109.231
-109.26
-109.177
-108.978
-108.662
-108.229
-107.678
-107.01
-106.229
-105.337
-104.339
-103.239
-102.045
-100.762
-99.399
-97.963
-96.463
-94.908
-93.307
-91.672
-90.01
-88.334
-86.654
-84.98
-83.322
-81.692
-80.099
-78.553
-77.063
-75.638
-74.285
-73.012
-71.825
-70.731
-69.733
-68.837
-68.046
-67.362
-66.789
-66.327
-65.978
-65.741
-65.615
-65.601
-65.694
-65.893
-66.194
-66.592
-67.083
-67.661
-68.32
-69.052
-69.851
-70.709
-71.618
-72.569
-73.553
-74.562
-75.586
-76.617
-77.647
-78.666
-79.668
-80.643
-81.586
-82.491
-83.35
-84.158
-84.911
-85.602
-86.229
-86.787
-87.273
-87.682
-88.013
-88.264
-88.431
-88.516
-88.517
-88.433
-88.267
-88.019
-87.691
-87.285
-86.805
-86.253
-85.632
-84.948
-84.204
-83.403
-82.551
-81.65
-80.705
-79.721
-78.699
-77.644
-76.557
-75.441
-74.298
-73.128
-71.934
-70.716
-69.475
-68.211
-66.926
-65.619
-64.293
-62.946
-61.58
-60.195
-58.79
-57.368
-55.927
-54.468
-52.992
-51.498
-49.988
-48.463
-46.925
-45.377
-43.822
-42.267
-40.717
-39.177
-37.657
-36.163
-34.704
-33.289
-31.925
-30.619
-29.38
-28.217
-27.142
-26.166
-25.302
-24.559
-23.949
-23.48
-23.162
-23.002
-23.001
-23.161
-23.482
-23.97
-24.644
-25.516
-26.595
-27.885
-29.385
-31.086
-32.979
-35.043
-37.237
-39.523
-41.86
-44.213
-46.564
-48.888
-51.158
-53.326
-55.329
-57.105
-58.615
-59.827
-60.719
-61.286
-61.537
-61.522
-61.34
-61.075
-60.818
-60.649
-60.627
-60.849
-61.418
-62.423
-64.009
-66.342
-69.513
-73.53
-78.25
-83.303
-88.285
-92.791
-96.29
-98.235
-98.196
-95.95
-91.848
-86.792
-81.804
-77.832
-75.645
-75.827
-78.82
-84.688
-92.339
-99.503
-103.327
-100.807
-89.313
-66.395
-29.581
23.495
92.778
174.74
264.742
357.358
450.162
546.476
647.429
749.163
842.339
906.624
922.252
880.123
777.936
628.952
457.882
286.113
136.939
27.432
-42.156
-76.592
-86.974
-89.77
-89.485
-85.267
-78.58
-66.073
-51.202
-42.21
-38.557
-40.474
-46.444
-51.029
-55.154
-59.683
-63.459
-66.884
-68.436
-66.883
-62.962
-57.388
-51.032
-44.806
-39.25
-34.825
-31.87
-30.473
-30.487
-31.638
-33.699
-36.469
-39.758
-43.395
-47.189
-50.961
-54.547
-57.786
-60.558
-62.78
-64.395
-65.384
-65.741
-65.476
-64.638
-63.299
-61.526
-59.388
-56.94
-54.234
-51.341
-48.338
-45.31
-42.342
-39.496
-36.808
-34.31
-32.018
-29.938
-28.072
-26.399
-24.891
-23.527
-22.288
-21.159
-20.127
-19.171
-18.266
-17.386
-16.508
-15.607
-14.662
-13.651
-12.552
-11.345
-10.013
-8.54
-6.912
-5.114
-3.129
-0.938
1.472
4.119
7.013
10.167
13.591
17.292
21.273
25.537
30.082
34.903
39.996
45.352
50.96
56.806
62.874
69.148
75.606
82.227
88.984
95.853
102.804
109.809
116.834
123.848
130.816
137.704
144.475
151.094
157.525
163.732
169.677
175.327
180.647
185.604
190.166
194.304
197.989
201.196
203.902
206.087
207.732
208.823
209.348
209.297
208.666
207.45
205.651
203.27
200.313
196.79
192.711
188.093
182.951
177.306
171.18
164.6
157.591
150.185
142.413
134.309
125.908
117.247
108.365
99.299
90.089
80.776
71.399
61.997
52.609
43.274
34.03
24.912
15.956
7.193
-1.343
-9.623
-17.62
-25.308
-32.663
-39.664
-46.291
-52.528
-58.358
-63.771
-68.756
-73.305
-77.413
-81.078
-84.299
-87.08
-89.425
-91.342
-92.839
-93.93
-94.627
-94.946
-94.905
-94.521
-93.816
-92.81
-91.525
-89.984
-88.21
-86.227
-84.06
-81.731
-79.264
-76.684
-74.013
-71.275
-68.492
-65.685
-62.877
-60.087
-57.337
-54.646
-52.031
-49.509
-47.097
-44.809
-42.659
-40.657
-38.814
-37.138
-35.635
-34.312
-33.171
-32.214
-31.442
-30.855
-30.448
-30.22
-30.164
-30.274
-30.544
-30.965
-31.528
-32.224
-33.043
-33.973
-35.004
-36.123
-37.319
-38.58
-39.892
-41.242
-42.618
-44.006
-45.393
-46.766
-48.113
-49.422
-50.681
-51.881
-53.011
-54.062
-55.027
-55.9
-56.673
-57.343
-57.907
-58.361
-58.706
-58.94
-59.066
-59.087
-59.004
-58.823
-58.55
-58.189
-57.749
-57.236
-56.659
-56.026
-55.347
-54.631
-53.889
-53.131
-52.367
-51.609
-50.868
-50.153
-49.477
-48.849
-48.278
-47.775
-47.349
-47.006
-46.755
-46.602
-46.552
-46.611
-46.781
-47.066
-47.467
-47.984
-48.617
-49.364
-50.223
-51.189
-52.258
-53.424
-54.682
-56.022
-57.439
-58.923
-60.466
-62.058
-63.689
-65.349
-67.029
-68.716
-70.402
-72.075
-73.724
-75.34
-76.913
-78.432
-79.888
-81.272
-82.575
-83.789
-84.908
-85.924
-86.833
-87.628
-88.307
-88.865
-89.301
-89.615
-89.806
-89.875
-89.823
-89.655
-89.374
-88.986
-88.497
-87.911
-87.238
-86.485
-85.662
-84.778
-83.843
-82.868
-81.864
-80.842
-79.817
-78.8
-77.805
-76.846
-75.94
-75.102
-74.349
-73.698
-73.164
-72.763
-72.511
-72.421
-72.505
-72.774
-73.238
-73.905
-74.787
-75.894
-77.233
-78.813
-80.637
-82.712
-85.042
-87.626
-90.458
-93.532
-96.841
-100.386
-104.173
-108.202
-112.463
-116.945
-121.632
-126.502
-131.524
-136.655
-141.831
-146.995
-152.089
-157.069
-161.904
-166.549
-170.954
-175.057
-178.788
-182.1
-184.971
-187.372
-189.272
-190.675
-191.618
-192.184
-192.502
-192.665
-192.724
-192.733
-192.751
-192.863
-193.17
-193.768
-194.698
-196.007
-197.78
-199.999
-202.571
-205.24
-207.509
-208.875
-208.952
-207.313
-203.505
-197.422
-189.16
-179.135
-168.348
-157.559
-147.157
-137.757
-129.9
-123.403
-117.637
-111.208
-101.73
-87.366
-66.653
-37.504
2.006
53.173
115.225
184.573
257.175
329.166
400.406
473.918
547.467
615.686
668.082
689.007
671.75
617.019
529.626
420.974
301.894
181.82
74.524
-5.542
-49.898
-56.574
-33.36
4.843
44.59
75.768
94.011
98.656
92.321
81.173
69.217
60.386
56.052
52.697
48.848
43.977
38.068
33.415
30.978
30.235
30.69
31.474
31.871
31.652
30.732
29.031
26.63
23.747
20.535
17.128
13.71
10.425
7.408
4.82
2.732
1.164
0.167
-0.225
0.002
0.864
2.33
4.349
6.882
9.886
13.307
17.096
21.185
25.5
29.967
34.5
39.031
43.502
47.859
52.059
56.067
59.85
63.394
66.693
69.738
72.522
75.038
77.28
79.246
80.936
82.352
83.498
84.381
85.009
85.392
85.544
85.479
85.216
84.774
84.178
83.45
82.611
81.683
80.686
79.644
78.596
77.577
76.619
75.756
75.014
74.415
73.975
73.697
