Name
Date of Birth,"Mar 27, 1959"
Recorded Date,2021-03-25 15:07:48 -0500
Classification,Sinus Rhythm
Symptoms,
Software Version,1.90
Device,"Watch4,2"
Sample Rate,510.227 hertz


Lead,Lead I
Unit,µV

605.358
767.282
812.457
729.345
549.992
332.641
133.787
-8.762
-85.992
-110.997
-104.875
-86.209
-63.978
-40.321
-14.241
12.875
36.579
53.785
63.339
68.689
74.405
81.72
89.078
92.029
87.631
76.51
61.165
45.024
30.074
16.625
4.832
-5.051
-12.945
-19.061
-24.131
-29.142
-34.583
-40.478
-46.798
-53.61
-60.971
-68.863
-77.083
-85.239
-93.119
-100.714
-108.05
-115.175
-122.077
-128.673
-134.916
-140.828
-146.419
-151.691
-156.644
-161.232
-165.424
-169.212
-172.577
-175.495
-177.945
-179.887
-181.281
-182.11
-182.375
-182.095
-181.315
-180.081
-178.415
-176.338
-173.853
-170.949
-167.624
-163.865
-159.652
-154.989
-149.878
-144.321
-138.342
-131.953
-125.142
-117.887
-110.133
-101.81
-92.901
-83.412
-73.378
-62.885
-52.026
-40.921
-29.728
-18.576
-7.578
3.153
13.537
23.492
32.898
41.629
49.525
56.396
62.112
66.575
69.711
71.518
72.022
71.284
69.436
66.583
62.805
58.178
52.741
46.532
39.62
32.074
23.986
15.488
6.682
-2.345
-11.512
-20.796
-30.198
-39.751
-49.546
-59.671
-70.188
-81.168
-92.646
-104.637
-117.168
-130.247
-143.88
-158.104
-172.929
-188.359
-204.39
-220.973
-238.043
-255.513
-273.228
-291.011
-308.681
-326.018
-342.834
-358.96
-374.208
-388.419
-401.448
-413.146
-423.422
-432.221
-439.507
-445.291
-449.621
-452.586
-454.38
-455.244
-455.416
-455.177
-454.787
-454.523
-454.724
-455.681
-457.651
-460.914
-465.73
-472.329
-480.883
-491.353
-503.565
-517.387
-532.508
-548.359
-564.289
-579.493
-593.968
-608.996
-625.569
-643.541
-660.494
-671.193
-671.684
-663.184
-651.918
-648.657
-662.943
-693.043
-726.891
-745.486
-728.196
-667.549
-570.018
-449.27
-322.074
-197.983
-78.253
36.929
143.471
232.938
295.954
327.224
332.827
327.279
325.835
340.507
373.238
416.251
459.051
493.412
516.739
532.076
544.672
557.475
570.548
582.576
591.697
597.327
600.056
600.488
599.243
596.883
593.886
590.6
587.23
583.792
580.145
576.244
572.138
567.836
563.318
558.567
553.568
548.406
543.286
538.381
533.785
529.524
525.549
521.851
518.49
515.533
513.04
511.04
509.521
508.479
507.93
507.857
508.192
508.799
509.456
509.956
510.161
509.985
509.391
508.337
506.754
504.585
501.801
498.398
494.386
489.76
484.493
478.587
472.089
465.093
457.75
450.185
442.471
434.654
426.743
418.752
410.699
402.586
394.386
386.074
377.633
369.076
360.45
351.788
343.105
334.39
325.608
316.759
307.875
298.997
290.194
281.522
273.014
264.72
256.698
248.969
241.539
234.384
227.408
220.521
213.64
206.665
199.52
192.132
184.366
176.026
166.97
157.162
146.712
135.908
125.07
114.484
104.538
95.797
88.727
83.483
79.832
77.03
74.063
70.043
64.118
55.166
42.994
28.832
14.224
1.617
-7.516
-14.429
-18.933
-18.208
-6.71
25.149
84.374
171.017
279.446
398.6
517.726
630.852
735.177
828.709
905.993
956.778
967.74
926.94
830.257
681.859
496.343
297.592
110.032
-42.673
-144.679
-194.726
-198.57
-169.77
-125.569
-76.925
-34.439
-4.664
14.049
23.924
31.6
44.62
62.957
83.729
101.802
111.09
111.348
105.999
97.664
88.521
77.149
59.458
35.278
7.622
-16.606
-27.968
-23.276
-4.866
20.161
40.611
51.02
50.77
42.073
31.816
23.683
18.716
17.925
18.957
20.468
22.417
23.887
25.405
27.452
29.709
32.289
35.109
37.97
40.996
44.289
47.823
51.618
55.722
60.026
64.273
68.375
72.355
76.155
79.976
83.421
85.183
85.456
85.398
86.844
93.338
104.72
117.234
127.212
129.526
123.667
114.523
105.896
101.836
103.24
106.563
109.63
111.033
110.328
109.045
107.962
107.144
106.809
106.947
107.667
109.265
111.857
115.435
120.002
125.546
132.016
139.313
147.313
155.923
165.069
174.706
184.76
195.073
205.448
215.647
225.434
234.643
243.142
250.809
257.562
263.349
268.127
271.896
274.654
276.334
276.895
276.309
274.561
271.718
267.882
263.186
257.802
251.876
245.519
238.841
231.918
224.801
217.554
210.22
202.849
195.545
188.391
181.457
174.815
168.487
162.467
156.737
151.229
145.885
140.676
135.576
130.584
125.715
120.973
116.368
111.917
107.609
103.436
99.398
95.482
91.696
88.059
84.599
81.36
78.388
75.709
73.34
71.287
69.546
68.109
66.965
66.091
65.467
65.078
64.905
64.934
65.149
65.525
66.036
66.652
67.343
68.08
68.839
69.596
70.329
71.023
71.66
72.232
72.727
73.135
73.444
73.642
73.72
73.668
73.477
73.14
72.652
72.013
71.222
70.283
69.203
67.989
66.654
65.206
63.659
62.023
60.31
58.531
56.698
54.82
52.91
50.979
49.039
47.104
45.191
43.313
41.487
39.725
38.041
36.45
34.962
33.585
32.332
31.212
30.239
29.433
28.802
28.346
28.066
27.955
27.996
28.173
28.444
28.754
29.056
29.302
29.456
29.504
29.419
29.173
28.743
28.109
27.282
26.294
25.152
23.838
22.347
20.686
18.937
17.231
15.654
14.249
13.011
11.946
11.153
10.67
10.373
9.975
9.111
7.541
5.308
2.482
-1.112
-5.549
-10.686
-16.042
-20.839
-24.736
-28.033
-31.199
-34.555
-38.656
-44.353
-53.029
-65.801
-82.391
-102.084
-124.529
-151.627
-186.371
-228.891
-275.284
-316.901
-344.627
-354.659
-349.743
-338.03
-327.683
-323.126
-323.884
-325.511
-325.888
-325.732
-327.551
-336.529
-352.689
-371.195
-387.473
-395.245
-393.745
-388.497
-383.781
-384.216
-390.964
-400.344
-410.118
-418.678
-425.308
-431.264
-436.715
-440.984
-443.663
-443.905
-440.942
-434.688
-425.118
-412.458
-397.87
-382.64
-367.777
-354.849
-344.504
-335.321
-326.038
-315.153
-302.353
-291.62
-285.521
-281.479
-271.971
-242.947
-182.114
-87.946
32.542
165.651
296.366
417.326
524.283
610.472
666.754
678.067
629.701
517.391
348.189
141.22
-75.518
-275.201
-438.794
-555.862
-626.472
-657.395
-654.848
-627.855
-586.26
-539.878
-501.689
-477.986
-468.466
-468.438
-467.892
-462.775
-454.671
-446.768
-444.895
-450.776
-461.846
-475.529
-488.539
-498.417
-504.791
-507.762
-507.557
-504.889
-500.58
-495.201
-489.531
-484.586
-480.828
-478.434
-477.5
-477.713
-478.711
-480.239
-481.828
-482.934
-483.268
-482.655
-481.019
-478.447
-474.97
-470.59
-465.396
-459.491
-452.955
-445.872
-438.287
-430.226
-421.759
-412.978
-403.985
-394.893
-385.782
-376.702
-367.703
-358.818
-350.077
-341.506
-333.107
-324.877
-316.819
-308.939
-301.246
-293.75
-286.45
-279.339
-272.41
-265.655
-259.067
-252.645
-246.384
-240.282
-234.338
-228.551
-222.923
-217.455
-212.145
-206.99
-201.984
-197.122
-192.398
-187.807
-183.344
-179.005
-174.785
-170.682
-166.695
-162.823
-159.064
-155.419
-151.889
-148.475
-145.178
-142.003
-138.951
-136.026
-133.235
-130.583
-128.076
-125.722
-123.528
-121.504
-119.658
-117.999
-116.539
-115.286
-114.251
-113.443
-112.874
-112.553
-112.49
-112.694
-113.174
-113.937
-114.991
-116.343
-117.997
-119.958
-122.227
-124.808
-127.699
-130.9
-134.408
-138.222
-142.335
-146.743
-151.439
-156.415
-161.661
-167.168
-172.923
-178.914
-185.126
-191.545
-198.154
-204.935
-211.87
-218.94
-226.123
-233.399
-240.746
-248.141
-255.562
-262.984
-270.384
-277.738
-285.022
-292.211
-299.283
-306.213
-312.979
-319.556
-325.923
-332.058
-337.939
-343.544
-348.854
-353.847
-358.506
-362.811
-366.745
-370.291
-373.433
-376.157
-378.45
-380.3
-381.696
-382.63
-383.095
-383.084
-382.594
-381.622
-380.167
-378.232
-375.818
-372.929
-369.572
-365.755
-361.487
-356.778
-351.642
-346.091
-340.141
-333.809
-327.112
-320.071
-312.706
-305.04
-297.096
-288.9
-280.479
-271.86
-263.073
-254.146
-245.11
-235.995
-226.833
-217.654
-208.488
-199.366
-190.316
-181.37
-172.554
-163.896
-155.422
-147.156
-139.123
-131.345
-123.842
-116.633
-109.735
-103.164
-96.933
-91.055
-85.541
-80.399
-75.635
-71.255
-67.261
-63.655
-60.435
-57.596
-55.134
-53.039
-51.302
-49.912
-48.856
-48.119
-47.689
-47.552
-47.694
-48.101
-48.757
-49.647
-50.757
-52.072
-53.573
-55.244
-57.064
-59.016
-61.086
-63.261
-65.525
-67.865
-70.265
-72.712
-75.195
-77.704
-80.223
-82.734
-85.224
-87.683
-90.113
-92.526
-94.926
-97.314
-99.689
-102.05
-104.396
-106.724
-109.014
-111.226
-113.325
-115.276
-117.056
-118.654
-120.039
-121.173
-122.007
-122.484
-122.566
-122.241
-121.496
-120.319
-118.73
-116.763
-114.481
-112.019
-109.499
-107.044
-104.799
-102.876
-101.382
-100.464
-100.29
-100.961
-102.518
-104.857
-107.696
-110.779
-113.885
-116.695
-118.83
-119.981
-119.915
-118.749
-117.157
-115.763
-114.964
-115.294
-117.185
-120.792
-126.448
-133.205
-137.941
-137.775
-130.263
-114.586
-93.804
-70.326
-42.932
-7.985
41.842
113.313
205.661
314.101
431.442
547.452
655.541
748.099
811.887
834.129
801.738
708.026
560.506
377.263
185.951
15.246
-114.609
-193.726
-226.989
-226.097
-201.951
-166.255
-124.325
-81.11
-45.785
-21.161
-8.34
-4.255
0.936
10.721
24.31
38.809
47.66
48.627
43.208
32.981
20.812
8.743
-2.51
-11.916
-18.901
-23.544
-25.95
-26.286
-24.938
-22.406
-19.348
-16.677
-14.958
-14.275
-14.566
-15.615
-17.19
-19.145
-21.228
-23.073
-24.477
-25.375
-25.768
-25.765
-25.436
-24.784
-23.849
-22.679
-21.306
-19.773
-18.107
-16.324
-14.445
-12.491
-10.474
-8.408
-6.297
-4.133
-1.905
0.413
2.839
5.386
8.064
10.879
13.842
16.971
20.284
23.799
27.534
31.502
35.719
40.198
44.95
49.981
55.29
60.874
66.727
72.847
79.229
85.866
92.747
99.86
107.189
114.718
122.427
130.293
138.288
146.383
154.547
162.749
170.953
179.126
187.23
195.227
203.08
210.749
218.195
225.38
232.263
238.807
244.973
250.726
256.03
260.852
265.162
268.931
272.132
274.744
276.746
278.122
278.858
278.945
278.377
277.152
275.271
272.74
269.568
265.769
261.361
256.364
250.804
244.708
238.109
231.041
223.541
215.649
207.407
198.861
190.056
181.04
171.862
162.572
153.22
143.858
134.535
125.303
116.21
107.305
98.635
90.246
82.182
74.482
67.188
60.334
53.955
48.081
42.737
37.95
33.737
30.117
27.101
24.7
22.919
21.76
21.221
21.298
21.983
23.262
25.122
27.543
30.505
33.984
37.953
42.383
47.244
52.501
58.121
64.068
70.303
76.787
83.482
90.346
97.341
104.425
111.56
118.706
125.824
132.878
139.832
146.651
153.303
159.756
165.981
171.952
177.643
183.033
188.101
192.83
197.205
201.214
204.846
208.095
210.956
213.425
215.504
217.194
218.501
219.431
219.994
220.201
220.068
219.609
218.844
217.791
216.472
214.909
213.123
211.139
208.982
206.675
204.243
201.71
199.101
196.441
193.753
191.061
188.384
185.746
183.164
180.657
178.243
175.937
173.751
171.697
169.787
168.03
166.433
165.002
163.74
162.647
161.724
160.967
160.371
159.925
159.615
159.431
159.358
159.38
159.479
159.639
159.84
160.069
160.311
160.549
160.765
160.937
161.047
161.079
161.017
160.844
160.545
160.101
159.506
158.757
157.85
156.778
155.526
154.074
152.411
150.534
148.444
146.148
143.654
140.979
138.157
135.243
132.29
129.346
126.445
123.613
120.891
118.332
115.992
113.93
112.182
110.768
109.714
109.031
108.701
108.678
108.874
109.177
109.492
109.722
109.768
109.527
108.897
107.794
106.129
103.803
100.792
97.127
92.937
88.533
84.242
80.363
77.294
75.466
75.183
76.663
79.752
83.845
88.398
93.013
97.2
100.493
102.538
102.973
102.914
105.031
111.433
124.184
143.625
167.141
194.014
225.151
262.27
311.271
376.186
456.579
551.068
653.016
753.023
843.067
912.248
948.834
943.229
887.541
780.928
632.732
460.114
286.433
134.628
20.058
-51.038
-83.087
-86.01
-69.352
-42.348
-10.95
19.555
43.771
60.302
69.963
76.788
84.924
94.429
103.231
107.422
104.465
95.253
82.218
68.424
56.225
46.685
40.056
36.253
35.079
36.007
38.31
41.163
43.567
44.809
44.624
42.898
39.713
35.334
30.006
24.11
18.195
12.607
7.514
3.005
-0.971
-4.446
-7.388
-9.828
-11.847
-13.488
-14.794
-15.781
-16.424
-16.738
-16.769
-16.573
-16.225
-15.771
-15.227
-14.608
-13.921
-13.169
-12.359
-11.481
-10.511
-9.436
-8.247
-6.94
-5.517
-3.969
-2.283
-0.446
1.552
3.719
6.053
8.553
11.217
14.035
16.998
20.091
23.297
26.599
29.984
33.436
36.937
40.471
44.018
47.557
51.07
54.535
57.929
61.229
64.413
67.456
70.338
73.036
75.528
77.795
79.816
81.573
83.048
84.226
85.091
85.629
85.83
85.682
85.178
84.313
83.081
81.48
79.512
77.177
74.479
71.425
68.022
64.279
60.207
55.818
51.127
46.148
40.899
35.396
29.66
23.711
17.568
11.254
4.791
-1.801
-8.5
-15.283
-22.129
-29.017
-35.928
-42.841
-49.737
-56.597
-63.405
-70.144
-76.798
-83.354
-89.799
-96.122
-102.311
-108.359
-114.256
-119.996
-125.574
-130.984
-136.223
-141.287
-146.176
-150.889
-155.425
-159.787
-163.975
-167.992
-171.842
-175.527
-179.053
-182.423
-185.642
-188.714
-191.645
-194.439
-197.102
-199.639
-202.055
-204.355
-206.544
-208.628
-210.61
-212.494
-214.286
-215.987
-217.603
-219.135
-220.588
-221.964
-223.266
-224.497
-225.659
-226.755
-227.787
-228.758
-229.668
-230.52
-231.314
-232.052
-232.736
-233.366
-233.943
-234.468
-234.943
-235.368
-235.743
-236.07
-236.348
-236.576
-236.755
-236.885
-236.965
-236.993
-236.97
-236.894
-236.766
-236.584
-236.348
-236.056
-235.708
-235.301
-234.834
-234.305
-233.711
-233.049
-232.317
-231.513
-230.634
-229.677
-228.64
-227.52
-226.314
-225.021
-223.638
-222.162
-220.589
-218.918
-217.148
-215.275
-213.302
-211.225
-209.046
-206.764
-204.383
-201.903
-199.327
-196.658
-193.898
-191.05
-188.12
-185.112
-182.032
-178.885
-175.68
-172.425
-169.132
-165.815
-162.483
-159.149
-155.827
-152.527
-149.266
-146.051
-142.893
-139.798
-136.777
-133.841
-131.002
-128.271
-125.655
-123.162
-120.8
-118.579
-116.506
-114.58
-112.794
-111.148
-109.643
-108.288
-107.1
-106.086
-105.246
-104.579
-104.084
-103.753
-103.573
-103.514
-103.526
-103.562
-103.583
-103.558
-103.466
-103.27
-102.921
-102.367
-101.552
-100.441
-99.012
-97.239
-95.108
-92.636
-89.859
-86.846
-83.706
-80.539
-77.448
-74.545
-71.925
-69.684
-67.941
-66.839
-66.479
-66.881
-67.936
-69.422
-71.081
-72.638
-73.739
-73.919
-72.775
-70.108
-66.112
-61.35
-56.419
-52.01
-48.918
-47.874
-49.607
-53.884
-58.918
-62.627
-62.71
-58.077
-49.444
-36.502
-17.894
9.796
51.567
111.021
190.125
287.591
399.42
519.52
638.243
743.443
821.509
858.76
845.664
780.385
667.604
519.103
352.307
185.398
36.768
-79.197
-155.481
-193.328
-200.061
-183.89
-154.443
-117.991
-80.432
-51.192
-33.574
-28.088
-31.361
-33.735
-31.409
-25.099
-17.332
-13.899
-16.901
-24.826
-35.985
-47.818
-58.447
-67.364
-74.37
-79.479
-82.962
-85.223
-86.556
-87.376
-88.419
-90.214
-93.02
-96.963
-101.858
-107.387
-113.318
-119.345
-125.079
-130.279
-134.803
-138.582
-141.67
-144.122
-145.967
-147.267
-148.088
-148.474
-148.461
-148.083
-147.362
-146.354
-145.129
-143.747
-142.255
-140.685
-139.056
-137.382
-135.673
-133.931
-132.148
-130.316
-128.435
-126.51
-124.549
-122.554
-120.523
-118.448
-116.321
-114.139
-111.895
-109.589
-107.22
-104.789
-102.298
-99.755
-97.167
-94.539
-91.874
-89.172
-86.433
-83.659
-80.85
-78.009
-75.136
-72.232
-69.302
-66.349
-63.379
-60.395
-57.403
-54.407
-51.412
-48.424
-45.449
-42.492
-39.561
-36.662
-33.801
-30.985
-28.223
-25.52
-22.883
-20.319
-17.834
-15.435
-13.127
-10.917
-8.811
-6.812
-4.928
-3.163
-1.522
-0.01
1.369
2.612
3.714
4.672
5.485
6.151
6.668
7.037
7.257
7.33
7.257
7.04
6.682
6.186
5.554
4.792
3.904
2.895
1.77
0.534
-0.806
-2.245
-3.777
-5.395
-7.092
-8.863
-10.7
-12.596
-14.545
-16.538
-18.568
-20.628
-22.709
-24.805
-26.907
-29.007
-31.097
-33.17
-35.217
-37.232
-39.206
-41.133
-43.005
-44.816
-46.558
-48.226
-49.814
-51.316
-52.726
-54.039
-55.252
-56.36
-57.358
-58.245
-59.017
-59.671
-60.207
-60.622
-60.917
-61.091
-61.144
-61.079
-60.896
-60.598
-60.189
-59.672
-59.053
-58.335
-57.527
-56.633
-55.662
-54.621
-53.518
-52.363
-51.165
-49.934
-48.68
-47.415
-46.15
-44.896
-43.664
-42.468
-41.317
-40.225
-39.201
-38.257
-37.403
-36.651
-36.008
-35.484
-35.087
-34.825
-34.704
-34.731
-34.909
-35.243
-35.735
-36.387
-37.199
-38.17
-39.296
-40.576
-42.004
-43.575
-45.282
-47.118
-49.072
-51.136
-53.296
-55.541
-57.858
-60.232
-62.648
-65.091
-67.546
-69.996
-72.428
-74.824
-77.169
-79.449
-81.649
-83.757
-85.76
-87.644
-89.401
-91.021
-92.496
-93.821
-94.99
-96.002
-96.855
-97.55
-98.093
-98.491
-98.752
-98.884
-98.9
-98.811
-98.629
-98.368
-98.04
-97.658
-97.237
-96.795
-96.349
-95.921
-95.529
-95.194
-94.932
-94.757
-94.678
-94.7
-94.828
-95.071
-95.443
-95.965
-96.654
-97.517
-98.564
-99.799
-101.216
-102.804
-104.529
-106.336
-108.187
-110.055
-111.928
-113.818
-115.695
-117.494
-119.157
-120.611
-121.808
-122.751
-123.388
-123.608
-123.441
-123.025
-122.526
-122.207
-122.139
-122.153
-122.234
-122.52
-122.961
-123.387
-123.597
-123.255
-122.404
-121.577
-120.98
-120.418
-119.838
-119.241
-118.624
-118.188
-117.701
-116.268
-113.563
-110.037
-106.028
-101.896
-98.083
-94.6
-91.727
-90.519
-90.505
-89.179
-84.383
-73.577
-55.647
-33.367
-8.051
21.415
57.353
106.971
176.714
267.632
378.7
502.541
627.497
743.274
836.453
894.373
907.37
866.581
771.058
627.21
448.61
258.098
79.213
-66.239
-163.272
-211.127
-216.248
-191.534
-153.405
-112.212
-77.853
-57.578
-50.746
-55.963
-67.306
-76.216
-80.873
-81.498
-80.252
-81.599
-85.704
-90.657
-94.815
-95.783
-92.562
-85.552
-75.996
-65.412
-54.256
-43.204
-31.052
-16.217
-1.253
12.245
21.718
23.696
21.135
16.812
12.775
12.289
14.021
16.628
20.688
26.297
34.959
47.819
64.563
84.878
108.292
133.993
160.987
187.775
212.648
234.457
252.544
266.312
275.299
279.359
278.65
273.981
266.69
257.786
248.05
238.382
229.468
221.79
215.722
211.142
207.54
204.656
202.327
200.358
198.763
197.635
197.083
197.425
199.063
202.174
206.791
212.863
220.181
228.535
237.72
247.443
257.389
267.332
277.118
286.641
295.843
304.614
312.796
320.268
326.937
332.751
337.704
341.802
345.062
347.541
349.327
350.53
351.281
351.667
351.727
351.491
350.971
350.198
349.23
348.097
346.811
345.382
343.81
342.1
340.261
338.279
336.119
333.742
331.101
328.17
324.947
321.436
317.647
313.59
309.277
304.73
299.983
295.063
289.996
284.805
279.508
274.132
268.71
263.276
257.859
252.488
247.183
241.96
236.837
231.824
226.931
222.162
217.518
213.005
208.63
204.399
200.316
196.384
192.597
188.951
185.436
182.039
178.745
175.534
172.388
169.29
166.23
163.197
160.173
157.136
154.057
150.905
147.657
144.3
140.82
137.211
133.473
129.62
125.69
121.731
117.787
113.876
109.995
106.131
102.292
98.505
94.802
91.199
87.667
84.16
80.652
77.143
73.646
70.115
66.414
62.421
58.136
53.71
49.358
45.177
41.049
36.824
32.516
28.143
23.624
18.624
12.67
5.606
-2.179
-9.997
-17.316
-23.675
-28.584
-31.355
-31.144
-27.544
-20.876
-11.952
-1.469
10.063
22.155
34.226
45.509
55.511
64.301
72.332
79.949
87.24
94.192
100.801
107.244
113.675
120.005
125.979
131.395
136.217
140.544
144.505
148.136
151.413
154.349
157.004
159.467
161.804
164.027
166.113
168.048
169.839
171.505
173.06
174.486
175.74
176.772
177.551
178.068
178.326
178.33
178.087
177.604
176.896
175.992
174.915
173.681
172.302
170.78
169.123
167.342
165.453
163.472
161.412
159.283
157.093
154.846
152.543
150.179
147.747
145.236
142.637
139.943
137.148
134.246
131.235
128.117
124.891
121.553
118.089
114.47
110.676
106.694
102.515
98.131
93.54
88.741
83.753
78.615
73.366
68.039
62.66
57.241
51.807
46.403
41.085
35.922
30.972
26.263
21.821
17.673
13.814
10.222
6.842
3.553
0.231
-3.231
-6.957
-11.051
-15.594
-20.719
-26.596
-33.33
-40.984
-49.475
-58.496
-67.754
-76.99
-85.817
-93.786
-100.506
-105.597
-109.125
-111.832
-114.406
-117.391
-121.498
-127.242
-135.005
-145.425
-157.521
-167.891
-173.536
-171.679
-161.453
-146.131
-127.357
-102.886
-67.961
-14.038
65.868
170.507
293.607
425.062
551.731
665.114
758.804
825.079
857.411
846.755
784.116
667.337
502.776
307.869
110.286
-61.563
-187.342
-258.936
-283.885
-276.625
-248.826
-210.387
-165.127
-117.667
-78.765
-54.347
-47.69
-55.512
-65.486
-71.029
-70.209
-64.381
-60.182
-59.92
-61.791
-64.083
-64.012
-60.179
-53.255
-44.028
-33.414
-22.723
-13.227
-5.618
-0.162
2.908
3.435
1.372
-3.177
-9.391
-15.904
-21.841
-27.023
-31.554
-35.488
-38.944
-42.292
-46.765
-54.676
-67.463
-84.705
-105.445
-128.794
-155.614
-189.681
-232.917
-282.825
-332.589
-371.073
-389.577
-386.11
-364.33
-330.681
-289.814
-243.863
-193.716
-146.455
-116.142
-115.626
-154.716
-228.288
-315.889
-395.832
-447.525
-464.513
-456.668
-437.935
-424.152
-423.115
-432.548
-447.186
-460.192
-468.308
-472.279
-473.635
-474.194
-474.392
-473.576
-471.246
-467.005
-460.889
-453.241
-444.313
-434.405
-423.763
-412.508
-400.742
-388.487
-375.731
-362.507
-348.871
-334.882
-320.573
-305.926
-290.893
-275.456
-259.599
-243.298
-226.518
-209.166
-191.188
-172.606
-153.49
-133.977
-114.223
-94.381
-74.605
-55.096
-36.11
-17.929
-0.871
14.79
28.849
41.125
51.463
59.716
65.749
69.47
70.884
70.093
67.174
62.204
55.185
46.04
34.901
22.109
8.051
-6.883
-22.285
-37.83
-53.008
-66.921
-78.995
-89.131
-97.488
-104.7
-111.547
-118.47
-126.079
-135.568
-147.806
-163.206
-181.882
-202.915
-225.013
-247.488
-269.657
-290.455
-309.118
-325.014
-337.616
-347.567
-356.016
-363.53
-370.551
-377.531
-384.651
-392.274
-400.878
-410.156
-419.388
-428.163
-436.165
-443.264
-449.547
-454.894
-459.025
-461.951
-463.885
-464.994
-465.458
-465.357
-464.626
-463.272
-461.362
-458.916
-455.954
-452.523
-448.595
-444.1
-439.048
-433.479
-427.567
-421.658
-415.92
-410.293
-404.687
-398.985
-393.084
-386.948
-380.167
-371.865
-361.452
-348.802
-334.149
-318.111
-301.272
-284.017
-267.244
-252.502
-240.591
-231.349
-224.216
-218.632
-216.284
-220.357
-232.435
-250.841
-268.667
-277.622
-271.233
-246.695
-208.706
-163.958
-121.462
-92.482
-82.547
-93.982
-121.743
-151.585
-170.798
-170.707
-151.245
-122.958
-96.593
-78.199
-67.877
-59.275
-47.668
-33.829
-22.037
-18.317
-25.193
-39.716
-55.364
-65.856
-68.226
-63.709
-56.692
-50.125
-44.471
-37.591
-27.659
-16.663
-8.133
-6.864
-13.825
-24.566
-34.709
-39.59
-38.026
-33.055
-26.399
-19.298
-12.02
-3.203
7.341
18.688
29.712
38.909
44.861
46.742
44.089
36.774
25.134
9.982
-7.593
-26.493
-45.549
-63.823
-80.723
-95.95
-109.542
-121.871
-133.483
-144.759
-155.989
-167.342
-178.787
-190.193
-201.307
-211.707
-220.852
-228.366
-234.101
-238.059
-240.457
-241.592
-241.712
-241.067
-239.936
-238.548
-236.829
-234.477
-231.046
-225.905
-218.622
-209.024
-197.03
-182.733
-166.775
-150.168
-133.928
-119.336
-107.4
-98.873
-94.713
-95.478
-100.941
-110.555
-123.777
-139.924
-158.545
-178.11
-195.456
-208.002
-214.22
-215.039
-212.692
-206.398
-191.819
-161.038
-107.759
-32.898
56.446
147.814
231.817
308.15
379.439
449.099
513.891
556.369
556.078
496.19
368.983
187.413
-21.707
-226.625
-395.834
-510.029
-565.358
-568.42
-531.891
-471.734
-401.097
-331.105
-273.757
-233.018
-207.357
-191.365
-173.912
-150.594
-123.18
-95.786
-76.029
-66.74
-66.312
-72.097
-79.119
-85.005
-89.936
-94.835
-103.068
-114.481
-125.359
-132.008
-129.296
-117.549
-102.647
-89.471
-82.9
-83.571
-87.412
-91.811
-94.852
-95.872
-96.165
-95.991
-95.003
-93.138
-90.127
-86.014
-81.122
-75.588
-69.527
-63.108
-56.47
-49.714
-42.881
-35.948
-28.886
-21.688
-14.371
-6.967
0.493
7.989
15.497
23.007
30.521
38.05
45.631
53.301
61.094
69.037
77.142
85.406
93.823
102.373
111.033
119.782
128.601
137.469
146.37
155.282
164.182
173.043
181.835
190.522
199.071
207.447
215.616
223.545
231.202
238.559
245.59
252.269
258.569
264.467
269.934
274.948
279.483
283.518
287.031
290.004
292.419
294.265
295.53
296.207
296.292
295.785
294.685
292.997
290.731
287.895
284.503
280.573
276.122
271.173
265.75
259.881
253.596
246.926
239.906
232.57
224.957
217.104
209.05
200.835
192.498
184.08
175.621
167.16
158.737
150.391
142.159
134.079
126.185
118.51
111.085
103.939
97.098
90.587
84.425
78.633
73.226
68.218
63.619
59.438
55.681
52.348
49.441
46.957
44.892
43.237
41.984
41.122
40.639
40.519
40.748
41.308
42.183
43.352
44.798
46.499
48.436
50.587
52.932
55.451
58.124
60.93
63.85
66.866
69.959
73.112
76.31
79.537
82.777
86.019
89.25
92.458
95.634
98.769
101.855
104.885
107.854
110.756
113.588
116.344
119.023
121.622
124.138
126.571
128.918
131.179
133.353
135.441
137.441
139.354
141.179
142.917
144.568
146.132
147.609
149
150.306
151.527
152.664
153.719
154.693
155.587
156.403
157.142
157.807
158.398
158.919
159.37
159.756
160.078
160.339
160.545
160.699
160.806
160.873
160.904
160.905
160.883
160.845
160.798
160.749
160.705
160.675
160.664
160.683
160.737
160.835
160.982
161.185
161.451
161.783
162.185
162.66
163.21
163.837
164.539
165.318
166.172
167.097
168.09
169.148
170.265
171.435
172.649
173.896
175.162
176.436
177.705
178.952
180.163
181.321
182.413
183.425
184.348
185.171
185.88
186.463
186.907
187.202
187.338
187.304
187.093
186.701
186.123
185.364
184.432
183.332
182.07
180.645
179.051
177.283
175.35
173.259
171.022
168.661
166.199
163.675
161.143
158.65
156.244
153.967
151.848
149.923
148.229
146.807
145.716
145.016
144.737
144.892
145.484
146.49
147.888
149.65
151.693
153.914
156.209
158.471
160.63
162.652
164.477
165.99
167.086
167.725
168.04
168.354
169
170.258
172.401
175.779
180.754
187.527
195.788
204.741
213.518
221.191
226.908
229.992
229.652
226.232
222.056
219.627
221.514
228.74
239.044
251.759
269.401
296.512
340.525
406.189
490.984
589.556
695.147
799.86
898.995
985.025
1043.908
1061.296
1023.357
924.252
772.975
588.136
395.447
221.042
82.198
-12.116
-62.036
-74.95
-57.62
-18.162
34.094
90.474
138.47
168.568
178.859
172.411
159.152
148.65
143.687
143.683
144.552
141.914
135.955
128.171
120.355
114.903
112.216
111.556
112.349
113.443
113.676
112.676
110.23
106.111
100.446
93.372
85.026
75.841
66.364
56.974
47.933
39.399
31.385
23.917
17.043
10.76
5.03
-0.193
-4.944
-9.237
-13.063
-16.422
-19.345
-21.883
-24.1
-26.064
-27.816
-29.368
-30.731
-31.902
-32.874
-33.641
-34.182
-34.463
-34.458
-34.152
-33.531
-32.587
-31.309
-29.675
-27.665
-25.264
-22.463
-19.262
-15.663
-11.67
-7.29
-2.539
2.565
7.997
13.735
19.758
26.042
32.562
39.289
46.195
53.247
60.413
67.66
74.951
82.248
89.514
96.709
103.795
110.736
117.493
124.028
130.307
136.293
141.954
147.258
152.173
156.673
160.73
164.32
167.423
170.02
172.096
173.637
174.635
175.084
174.979
174.322
173.116
171.366
169.082
166.277
162.965
159.164
154.894
150.178
145.042
139.513
133.619
127.393
120.865
114.069
107.04
99.811
92.419
84.898
77.283
69.609
61.911
54.223
46.579
39.008
31.543
24.213
17.044
10.063
3.293
-3.245
-9.53
-15.547
-21.279
-26.714
-31.842
-36.654
-41.146
-45.314
-49.156
-52.673
-55.867
-58.744
-61.309
-63.569
-65.534
-67.215
-68.624
-69.772
-70.675
-71.348
-71.805
-72.064
-72.141
-72.055
-71.824
-71.465
-70.998
-70.44
-69.809
-69.124
-68.401
-67.658
-66.91
-66.173
-65.461
-64.788
-64.167
-63.608
-63.121
-62.717
-62.402
-62.185
-62.07
-62.064
-62.169
-62.39
-62.729
-63.188
-63.767
-64.467
-65.288
-66.229
-67.286
-68.459
-69.743
-71.135
-72.632
-74.229
-75.923
-77.707
-79.577
-81.527
-83.552
-85.647
-87.806
-90.023
-92.294
-94.616
-96.986
-99.404
-101.866
-104.372
-106.919
-109.505
-112.131
-114.798
-117.506
-120.259
-123.061
-125.917
-128.838
-131.832
-134.908
-138.071
-141.324
-144.673
-148.127
-151.699
-155.404
-159.261
-163.284
-167.488
-171.891
-176.505
-181.343
-186.407
-191.695
-197.203
-202.929
-208.88
-215.072
-221.513
-228.196
-235.1
-242.179
-249.394
-256.726
-264.164
-271.703
-279.348
-287.064
-294.848
-302.762
-310.79
-318.855
-326.82
-334.39
-341.347
-347.735
-353.623
-359.104
-364.515
-370.18
-376.537
-384.393
-394.277
-406.155
-419.811
-434.711
-449.899
-464.632
-478.084
-488.979
-496.489
-500.441
-500.942
-498.69
-494.828
-490.129
-485.348
-481.534
-479.303
-478.849
-480.156
-482.66
-485.526
-488.265
-490.488
-491.73
-491.783
-490.56
-488.01
-484.362
-479.929
-474.793
-468.949
-462.458
-455.338
-447.705
-439.819
-431.793
-423.684
-415.711
-408.055
-400.669
-393.379
-385.722
-376.995
-366.775
-354.802
-340.724
-324.45
-306.279
-286.802
-267.105
-248.54
-232.14
-218.88
-209.845
-205.861
-207.435
-214.642
-227.099
-243.645
-262.261
-280.418
-295.061
-304.851
-310.833
-314.063
-314.66
-307.955
-285.387
-239.758
-166.121
-67.399
48.45
174.405
301.185
422.182
529.33
607.535
642.245
619.516
532.875
390.872
211.725
21.594
-152.375
-291.799
-386.702
-436.967
-450.882
-436.566
-402.289
-356.808
-306.439
-260.558
-229.781
-218.651
-227.757
-251.559
-277.579
-296.631
-303.974
-297.933
-284.367
-269.921
-257.834
-251.161
-248.7
-246.789
-244.309
-240.386
-235.296
-230.989
-228.067
-226.382
-225.863
-225.996
-226.501
-227.446
-228.713
-230.095
-231.447
-232.593
-233.379
-233.726
-233.552
-232.777
-231.365
-229.301
-226.583
-223.243
-219.319
-214.852
-209.884
-204.448
-198.587
-192.352
-185.804
-179.016
-172.039
-164.904
-157.633
-150.235
-142.716
-135.08
-127.317
-119.406
-111.329
-103.073
-94.631
-86.003
-77.185
-68.168
-58.945
-49.508
-39.859
-30.002
-19.946
-9.7
0.723
11.304
22.022
32.848
43.756
54.722
65.719
76.723
87.703
98.63
109.474
120.205
130.79
141.196
151.389
161.332
170.991
180.332
189.321
197.925
206.111
213.849
221.11
227.865
234.087
239.754
244.84
249.326
253.195
256.43
259.021
260.958
262.235
262.848
262.798
262.09
260.729
258.725
256.09
252.839
248.99
244.564
239.583
234.073
228.061
221.576
214.65
207.317
199.611
191.567
183.222
174.613
165.778
156.754
147.58
138.291
128.926
119.519
110.106
100.722
91.399
82.17
73.063
64.107
55.329
46.751
38.398
30.287
22.437
14.861
7.575
0.59
-6.082
-12.433
-18.457
-24.15
-29.508
-34.529
-39.214
-43.566
-47.589
-51.291
-54.677
-57.75
-60.515
-62.977
-65.143
-67.026
-68.639
-69.991
-71.092
-71.95
-72.576
-72.981
-73.171
-73.148
-72.911
-72.458
-71.79
-70.914
-69.84
-68.58
-67.131
-65.477
-63.601
-61.477
-59.103
-56.498
-53.67
-50.612
-47.325
-43.783
-40.007
-36.09
-32.004
-27.625
-22.848
-17.519
-11.659
-5.531
0.761
7.29
13.901
20.325
26.245
31.156
35.041
38.461
41.707
44.835
48.093
51.724
56.125
62.018
69.445
77.694
86.322
95.056
103.585
111.776
119.293
125.459
130.159
133.849
136.824
139.337
141.566
143.442
145.047
146.65
148.236
149.578
150.526
150.932
150.76
150.117
149.015
147.443
145.5
143.24
140.669
137.691
134.024
129.517
124.256
118.375
112.064
105.616
99.288
93.588
89.33
86.861
86.021
86.418
87.358
88.181
88.464
87.465
84.113
77.971
69.177
58.281
46.329
34.102
22.018
10.792
1.356
-5.769
-10.385
-12.75
-13.609
-13.356
-12.087
-10.037
-7.475
-4.649
-1.794
1.164
4.582
8.625
13.297
18.513
24.068
29.856
35.83
41.877
47.837
53.511
58.724
63.402
67.547
71.187
74.368
77.07
79.223
80.837
81.966
82.702
83.202
83.55
83.788
83.986
84.226
84.612
85.263
86.239
87.548
89.172
91.064
93.169
95.498
98.035
100.619
103.072
105.167
106.677
107.589
107.961
107.628
106.356
104.21
101.301
97.991
94.941
92.338
90.212
89.012
89.271
91.169
94.741
99.385
103.831
107.34
109.359
109.083
105.596
98.897
90.472
82.573
78.276
78.85
82.237
87.513
96.781
115.078
151.8
214.576
303.087
412.354
532.93
652.979
765.601
864.92
943.021
992.344
1001.73
960.345
864.895
719.633
539.861
349.868
174.101
33.508
-61.29
-111.953
-126.112
-117.658
-100.304
-83.652
-77.142
-82.756
-97.247
-115.758
-128.911
-132.02
-125.571
-112.082
-97.59
-85.476
-75.919
-68.332
-61.036
-53.769
-47.6
-43.304
-41.456
-41.868
-43.644
-46.137
-48.791
-51.047
-52.57
-53.148
-52.713
-51.583
-50.345
-49.413
-49.062
-49.411
-50.328
-51.634
-53.154
-54.617
-55.69
-56.162
-55.903
-54.873
-53.16
-50.851
-48.017
-44.744
-41.115
-37.188
-33.027
-28.69
-24.225
-19.699
-15.164
-10.653
-6.193
-1.795
2.542
6.828
11.087
15.352
19.646
23.983
28.375
32.824
37.338
41.93
46.608
51.385
56.269
61.266
66.381
71.617
76.969
82.43
87.989
93.628
99.336
105.098
110.902
116.734
122.58
128.423
134.248
140.037
145.771
151.427
156.983
162.415
167.699
172.811
177.727
182.424
186.878
191.066
194.969
198.565
201.834
204.76
207.323
209.51
211.307
212.7
213.68
214.238
214.369
214.068
213.334
212.167
210.57
208.548
206.108
203.258
200.009
196.374
192.368
188.005
183.304
178.286
172.971
167.383
161.546
155.484
149.224
142.792
136.214
129.518
122.729
115.875
108.981
102.073
95.176
88.316
81.515
74.797
68.184
61.695
55.351
49.168
43.165
37.354
31.751
26.367
21.211
16.295
11.625
7.207
3.046
-0.855
-4.494
-7.871
-10.987
-13.845
-16.447
-18.8
-20.908
-22.778
-24.416
-25.832
-27.032
-28.027
-28.824
-29.435
-29.869
-30.137
-30.248
-30.214
-30.045
-29.752
-29.345
-28.834
-28.23
-27.543
-26.781
-25.955
-25.072
-24.142
-23.173
-22.172
-21.147
-20.105
-19.052
-17.994
-16.937
-15.886
-14.845
-13.819
-12.813
-11.829
-10.872
-9.945
-9.052
-8.196
-7.379
-6.605
-5.876
-5.195
-4.563
-3.983
-3.457
-2.986
-2.572
-2.216
-1.92
-1.685
-1.512
-1.402
-1.356
-1.375
-1.458
-1.605
-1.818
-2.095
-2.436
-2.84
-3.306
-3.832
-4.418
-5.062
-5.761
-6.511
-7.311
-8.156
-9.041
-9.963
-10.915
-11.892
-12.887
-13.894
-14.906
-15.917
-16.92
-17.907
-18.871
-19.803
-20.698
-21.547
-22.342
-23.075
-23.74
-24.328
-24.835
-25.254
-25.578
-25.803
-25.926
-25.941
-25.847
-25.642
-25.323
-24.891
-24.345
-23.688
-22.923
-22.054
-21.086
-20.028
-18.892
-17.688
-16.43
-15.132
-13.808
-12.473
-11.145
-9.836
-8.561
-7.331
-6.16
-5.063
-4.059
-3.162
-2.387
-1.749
-1.262
-0.937
-0.79
-0.827
-1.047
-1.452
-2.045
-2.838
-3.854
-5.106
-6.598
-8.334
-10.31
-12.515
-14.937
-17.539
-20.267
-23.068
-25.888
-28.691
-31.453
-34.136
-36.689
-39.056
-41.161
-42.953
-44.403
-45.473
-46.144
-46.431
-46.372
-46.055
-45.61
-45.146
-44.775
-44.607
-44.724
-45.23
-46.21
-47.765
-50.061
-53.187
-57.129
-61.789
-66.905
-72.121
-77.101
-81.368
-84.262
-85.274
-84.191
-81.156
-76.696
-71.611
-66.746
-62.933
-61.377
-62.462
-64.905
-66.905
-66.186
-61.988
-56.501
-51.214
-44.9
-31.76
-1.796
53.736
138.799
249.912
378.212
513.009
643.828
762.773
860.945
927.8
951.444
919.717
827.944
681.531
496.949
300.256
117.381
-32.279
-138.03
-200.621
-226.573
-222.306
-197.493
-161.106
-122.154
-92.976
-78.307
-76.665
-82.925
-86.386
-82.536
-73.327
-62.575
-56.775
-58.571
-66.178
-77.023
-87.913
-96.736
-102.927
-106.431
-107.386
-106.048
-102.888
-98.528
-93.697
-89.338
-86.136
-84.37
-84.18
-85.472
-87.985
-91.48
-95.6
-99.827
-103.771
-107.215
-110.031
-112.229
-113.842
-114.84
-115.236
-115.095
-114.468
-113.401
-111.927
-110.042
-107.759
-105.128
-102.209
-99.083
-95.824
-92.478
-89.074
-85.631
-82.162
-78.673
-75.167
-71.628
-68.038
-64.382
-60.653
-56.844
-52.955
-48.976
-44.892
-40.692
-36.366
-31.912
-27.331
-22.624
-17.799
-12.864
-7.831
-2.719
2.454
7.67
12.91
18.156
23.389
28.589
33.732
38.799
43.765
48.609
53.305
57.829
62.156
66.261
70.12
73.709
77.005
79.985
82.629
84.917
86.831
88.354
89.471
90.17
90.438
90.269
89.655
88.594
87.083
85.124
82.722
79.885
76.62
72.941
68.862
64.399
59.57
54.397
48.901
43.106
37.037
30.719
24.18
17.448
10.552
3.522
-3.613
-10.823
-18.078
-25.351
-32.612
-39.833
-46.988
-54.051
-60.997
-67.803
-74.447
-80.91
-87.171
-93.215
-99.027
-104.594
-109.906
-114.953
-119.73
-124.231
-128.454
-132.396
-136.06
-139.445
-142.557
-145.399
-147.976
-150.296
-152.366
-154.193
-155.788
-157.159
-158.316
-159.269
-160.027
-160.601
-161.001
-161.236
-161.317
-161.253
-161.053
-160.728
-160.284
-159.73
-159.075
-158.325
-157.486
-156.565
-155.567
-154.498
-153.36
-152.159
-150.898
-149.58
-148.207
-146.783
-145.309
-143.788
-142.223
-140.614
-138.966
-137.28
-135.56
-133.809
-132.031
-130.229
-128.409
-126.575
-124.733
-122.888
-121.046
-119.213
-117.395
-115.6
-113.833
-112.102
-110.413
-108.774
-107.192
-105.672
-104.221
-102.846
-101.551
-100.343
-99.225
-98.201
-97.275
-96.45
-95.726
-95.106
-94.59
-94.178
-93.867
-93.654
-93.537
-93.509
-93.565
-93.696
-93.895
-94.15
-94.452
-94.79
-95.153
-95.527
-95.898
-96.255
-96.582
-96.868
-97.096
-97.253
-97.325
-97.299
-97.162
-96.903
-96.511
-95.974
-95.284
-94.435
-93.419
-92.233
-90.873
-89.335
-87.619
-85.727
-83.661
-81.427
-79.029
-76.477
-73.783
-70.961
-68.03
-65.006
-61.909
-58.759
-55.579
-52.391
-49.218
-46.079
-42.992
-39.978
-37.061
-34.266
-31.615
-29.129
-26.828
-24.732
-22.86
-21.233
-19.86
-18.745
-17.894
-17.314
-17.02
-17.036
-17.375
-18.043
-19.041
-20.366
-22.01
-23.958
-26.179
-28.617
-31.223
-33.952
-36.766
-39.642
-42.536
-45.395
-48.16
-50.766
-53.166
-55.323
-57.196
-58.766
-60.044
-61.066
-61.907
-62.651
-63.368
-64.141
-65.06
-66.205
-67.671
-69.511
-71.792
-74.665
-78.201
-82.367
-87.048
-91.895
-96.487
-100.527
-103.606
-105.153
-104.841
-102.607
-98.696
-93.935
-89.315
-85.637
-83.746
-84.769
-88.884
-94.585
-99.788
-101.661
-98.604
-92.781
-86.119
-77.152
-61.497
-29.814
27.484
112.051
220.519
344.444
471.322
592.438
698.341
777.907
820.135
812.35
748.311
629.918
469.166
288.632
112.297
-36.833
-143.18
-203.396
-221.923
-208.324
-173.972
-128.844
-81.389
-41.841
-19.075
-15.665
-29.6
-51.923
-71.122
-82.276
-84.863
-82.162
-79.761
-79.264
-79.908
-80.458
-79.112
-75.604
-70.724
-65.41
-60.616
-56.897
-54.422
-53.153
-52.964
-53.774
-55.528
-58.005
-60.993
-64.283
-67.654
-70.99
-74.163
-77.013
-79.429
-81.338
-82.697
-83.495
-83.733
-83.397
-82.506
-81.096
-79.2
-76.863
-74.118
-71.002
-67.569
-63.883
-60.018
-56.033
-51.963
-47.836
-43.668
-39.468
-35.243
-30.987
-26.678
-22.301
-17.846
-13.306
-8.678
-3.958
0.864
5.799
10.853
16.031
21.33
26.749
32.283
37.925
43.666
49.489
55.376
61.31
67.277
73.261
79.244
85.211
91.14
97.015
102.817
108.525
114.118
119.575
124.87
129.983
134.891
139.573
144.005
148.167
152.037
155.597
158.826
161.708
164.226
166.363
168.107
169.445
170.368
170.868
170.94
170.58
169.788
168.563
166.911
164.837
162.348
159.455
156.168
152.503
148.476
144.104
139.406
134.404
129.12
123.58
117.807
111.828
105.671
99.362
92.931
86.405
79.812
73.183
66.544
59.923
53.349
46.847
40.443
34.161
28.025
22.056
16.273
10.696
5.34
0.222
-4.647
-9.254
-13.59
-17.647
-21.42
-24.905
-28.1
-31.003
-33.618
-35.945
-37.99
-39.758
-41.256
-42.49
-43.471
-44.207
-44.709
-44.989
-45.058
-44.93
-44.616
-44.131
-43.488
-42.701
-41.782
-40.745
-39.604
-38.369
-37.054
-35.671
-34.231
-32.744
-31.22
-29.67
-28.101
-26.523
-24.942
-23.364
-21.796
-20.243
-18.708
-17.197
-15.712
-14.258
-12.836
-11.449
-10.099
-8.789
-7.52
-6.293
-5.108
-3.968
-2.872
-1.821
-0.816
0.142
1.054
1.919
2.735
3.502
4.219
4.886
5.504
6.07
6.586
7.05
7.462
7.823
8.131
8.386
8.588
8.737
8.832
8.874
8.863
8.802
8.691
8.533
8.329
8.084
7.8
7.481
7.131
6.753
6.354
5.938
5.51
5.077
4.643
4.217
3.803
3.409
3.042
2.706
2.408
2.153
1.946
1.793
1.698
1.665
1.696
1.795
1.965
2.208
2.523
2.911
3.37
3.897
4.491
5.146
5.853
6.604
7.388
8.196
9.017
9.838
10.644
11.424
12.167
12.862
13.498
14.061
14.535
14.906
15.161
15.288
15.275
15.11
14.78
14.28
13.608
12.764
11.743
10.536
9.121
7.486
5.629
3.543
1.232
-1.3
-4.046
-6.979
-10.058
-13.243
-16.497
-19.794
-23.12
-26.448
-29.737
-32.94
-35.996
-38.862
-41.511
-43.906
-46.026
-47.882
-49.499
-50.945
-52.315
-53.682
-55.124
-56.72
-58.532
-60.638
-63.095
-65.978
-69.435
-73.564
-78.373
-83.778
-89.536
-95.303
-100.776
-105.567
-109.109
-110.942
-110.885
-109.122
-106.238
-103.128
-100.684
-99.676
-101.258
-105.92
-112.51
-119.332
-124.224
-126.157
-127.303
-129.177
-129.728
-122.738
-97.343
-45.14
34.63
135.693
246.605
357.931
465.23
566.057
655.941
724.01
754.047
730.551
646.715
508.11
332.289
146.306
-23.603
-157.5
-243.807
-285.591
-292.577
-274.825
-244.024
-205.85
-164.505
-128.423
-103.197
-92.181
-95.213
-104.827
-113.523
-118.179
-118.16
-116.244
-115.848
-117.151
-119.258
-121.004
-120.642
-117.704
-112.758
-106.558
-100.351
-95.138
-91.21
-88.617
-87.351
-87.395
-88.743
-91.224
-94.415
-97.897
-101.397
-104.718
-107.769
-110.474
-112.726
-114.481
-115.75
-116.548
-116.896
-116.821
-116.323
-115.42
-114.144
-112.522
-110.604
-108.446
-106.109
-103.663
-101.158
-98.623
-96.078
-93.534
-90.994
-88.459
-85.919
-83.347
-80.726
-78.042
-75.284
-72.448
-69.521
-66.484
-63.323
-60.024
-56.582
-52.993
-49.257
-45.373
-41.346
-37.184
-32.899
-28.507
-24.022
-19.457
-14.826
-10.144
-5.426
-0.693
4.039
8.751
13.423
18.034
22.561
26.981
31.271
35.406
39.367
43.129
46.67
49.97
53.008
55.767
58.228
60.376
62.195
63.672
64.795
65.557
65.949
65.965
65.603
64.862
63.743
62.248
60.385
58.16
55.583
52.664
49.418
45.859
42.004
37.871
33.48
28.851
24.008
18.974
13.773
8.431
2.972
-2.576
-8.189
-13.841
-19.505
-25.158
-30.775
-36.332
-41.806
-47.176
-52.42
-57.519
-62.454
-67.208
-71.765
-76.11
-80.232
-84.118
-87.758
-91.145
-94.271
-97.132
-99.722
-102.04
-104.085
-105.856
-107.355
-108.586
-109.551
-110.257
-110.709
-110.915
-110.882
-110.62
-110.138
-109.446
-108.555
-107.476
-106.221
-104.802
-103.231
-101.521
-99.685
-97.735
-95.685
-93.549
-91.338
-89.068
-86.751
-84.401
-82.03
-79.652
-77.279
-74.925
-72.602
-70.321
-68.096
-65.937
-63.856
-61.863
-59.969
-58.185
-56.518
-54.979
-53.575
-52.316
-51.207
-50.256
-49.47
-48.853
-48.411
-48.149
-48.069
-48.175
-48.469
-48.952
-49.626
-50.489
-51.54
-52.779
-54.201
-55.803
-57.58
-59.526
-61.636
-63.901
-66.314
-68.865
-71.545
-74.344
-77.25
-80.252
-83.337
-86.494
-89.708
-92.966
-96.255
-99.559
-102.864
-106.155
-109.416
-112.634
-115.793
-118.879
-121.876
-124.771
-127.55
-130.201
-132.709
-135.062
-137.249
-139.26
-141.083
-142.713
-144.139
-145.356
-146.357
-147.14
-147.702
-148.042
-148.159
-148.054
-147.729
-147.188
-146.438
-145.484
-144.334
-142.997
-141.484
-139.81
-137.991
-136.043
-133.982
-131.825
-129.591
-127.3
-124.969
-122.614
-120.249
-117.89
-115.556
-113.267
-111.039
-108.889
-106.83
-104.879
-103.052
-101.361
-99.815
-98.414
-97.16
-96.058
-95.119
-94.363
-93.799
-93.426
-93.246
-93.253
-93.438
-93.788
-94.271
-94.836
-95.438
-96.036
-96.602
-97.115
-97.538
-97.823
-97.918
-97.765
-97.332
-96.593
-95.513
-94.078
-92.302
-90.224
-87.927
-85.502
-83.021
-80.564
-78.202
-76.015
-74.097
-72.513
-71.347
-70.726
-70.712
-71.294
-72.38
-73.7
-74.905
-75.679
-75.602
-74.146
-70.923
-65.795
-58.964
-50.992
-42.697
-34.862
-28.17
-23.685
-21.774
-21.364
-21.061
-18.898
-13.911
-7.925
-1.663
7.04
23.465
56.9
113.852
194.274
292.929
399.826
506.366
608.729
704.016
787.85
852.411
883.618
867.967
799.502
679.172
520.71
346.499
178.149
36.887
-64.231
-123.145
-142.305
-128.641
-92.52
-43.204
8.368
48.772
71.488
76.007
67.496
58.555
56.43
61.509
70.921
77.633
78.454
74.998
69.792
65.951
64.824
66.232
69.844
75.111
81.538
88.396
94.761
100.139
104.321
107.17
108.743
109.09
108.292
106.707
104.79
102.873
101.227
100.004
99.233
98.967
99.251
100.076
101.422
103.251
105.509
108.166
111.211
114.619
118.368
122.412
126.686
131.123
135.658
140.244
144.857
149.477
154.093
158.698
163.288
167.874
172.481
177.122
181.806
186.54
191.324
196.172
201.098
206.116
211.232
216.45
221.769
227.188
232.703
238.308
243.991
249.738
255.531
261.357
267.199
273.043
278.871
284.665
290.405
296.071
301.644
307.101
312.419
317.576
322.544
327.302
331.824
336.086
340.064
343.735
347.075
350.063
352.679
354.903
356.717
358.104
359.049
359.541
359.567
359.12
358.193
356.783
354.887
352.507
349.646
346.311
342.509
338.251
333.548
328.416
322.871
316.931
310.616
303.947
296.949
289.645
282.063
274.229
266.173
257.922
249.506
240.957
232.302
223.573
214.798
206.007
197.229
188.491
179.82
171.242
162.782
154.463
146.307
138.333
130.56
123.003
115.679
108.598
101.773
95.212
88.924
82.914
77.187
71.746
66.591
61.724
57.142
52.843
48.821
45.071
41.587
38.36
35.382
32.643
30.132
27.84
25.754
23.862
22.152
20.611
19.227
17.986
16.877
15.886
15.002
14.214
13.509
12.878
12.311
11.797
11.328
10.895
10.49
10.105
9.733
9.367
9.001
8.63
8.247
7.849
7.432
6.991
6.525
6.03
5.504
4.945
4.352
3.725
3.061
2.361
1.624
0.851
0.04
-0.807
-1.691
-2.612
-3.571
-4.568
-5.605
-6.681
-7.798
-8.959
-10.163
-11.413
-12.71
-14.055
-15.448
-16.893
-18.388
-19.937
-21.538
-23.193
-24.904
-26.67
-28.493
-30.372
-32.309
-34.302
-36.353
-38.46
-40.622
-42.838
-45.106
-47.422
-49.785
-52.191
-54.636
-57.115
-59.622
-62.15
-64.691
-67.239
-69.785
-72.318
-74.83
-77.309
-79.746
-82.131
-84.454
-86.703
-88.868
-90.94
-92.91
-94.767
-96.504
-98.111
-99.58
-100.904
-102.076
-103.09
-103.943
-104.629
-105.146
-105.496
-105.682
-105.706
-105.573
-105.288
-104.858
-104.292
-103.598
-102.786
-101.862
-100.837
-99.723
-98.538
-97.297
-96.015
-94.707
-93.388
-92.074
-90.784
-89.533
-88.324
-87.169
-86.078
-85.07
-84.175
-83.417
-82.807
-82.357
-82.075
-81.964
-82.029
-82.255
-82.608
-83.058
-83.572
-84.131
-84.729
-85.343
-85.934
-86.453
-86.836
-87.047
-87.068
-86.883
-86.47
-85.836
-85.012
-84.069
-83.119
-82.249
-81.541
-81.082
-80.961
-81.288
-82.166
-83.708
-86.063
-89.317
-93.454
-98.34
-103.705
-109.22
-114.575
-119.369
-123.065
-125.255
-125.765
-124.857
-123.193
-121.388
-120.077
-119.986
-121.84
-126.512
-133.727
-141.103
-145.985
-145.892
-140.226
-131.921
-122.274
-108.783
-85.854
-43.942
23.975
117.058
229.997
353.405
476.635
592.89
693.961
769.108
806.149
791.918
720.538
595.407
430.626
248.619
71.287
-81.45
-196.864
-271.669
-307.165
-309.565
-288.897
-254.599
-216.599
-185.683
-166.61
-159.564
-161.431
-163.61
-161.473
-155.409
-147.75
-144.152
-147.139
-155.276
-166.022
-175.804
-182.754
-186.665
-187.628
-186.121
-182.619
-177.636
-172.113
-167.061
-163.089
-160.583
-159.672
-160.265
-162.243
-165.375
-169.262
-173.435
-177.522
-181.244
-184.454
-187.113
-189.187
-190.655
-191.522
-191.81
-191.557
-190.8
-189.562
-187.855
-185.694
-183.108
-180.145
-176.869
-173.348
-169.647
-165.81
-161.861
-157.818
-153.689
-149.48
-145.19
-140.803
-136.299
-131.664
-126.886
-121.96
-116.881
-111.638
-106.216
-100.605
-94.799
-88.796
-82.6
-76.216
-69.65
-62.916
-56.028
-49.008
-41.878
-34.66
-27.375
-20.047
-12.701
-5.362
1.941
9.181
16.328
23.353
30.223
36.906
43.368
49.577
55.501
61.105
66.359
71.232
75.692
79.713
83.268
86.332
88.881
90.895
92.356
93.25
93.564
93.288
92.416
90.946
88.879
86.217
82.969
79.145
74.758
69.824
64.364
58.399
51.954
45.057
37.736
30.025
21.958
13.57
4.9
-4.013
-13.129
-22.408
-31.806
-41.283
-50.796
-60.303
-69.765
-79.14
-88.389
-97.475
-106.362
-115.014
-123.4
-131.489
-139.253
-146.667
-153.708
-160.356
-166.594
-172.407
-177.782
-182.71
-187.185
-191.203
-194.761
-197.861
-200.506
-202.701
-204.454
-205.775
-206.675
-207.168
-207.269
-206.995
-206.364
-205.395
-204.107
-202.522
-200.66
-198.545
-196.197
-193.64
-190.894
-187.983
-184.927
-181.748
-178.465
-175.098
-171.666
-168.186
-164.675
-161.149
-157.62
-154.104
-150.612
-147.156
-143.744
-140.387
-137.091
-133.864
-130.71
-127.635
-124.642
-121.733
-118.911
-116.177
-113.531
-110.973
-108.502
-106.116
-103.815
-101.594
-99.454
-97.389
-95.398
-93.478
-91.625
-89.837
-88.112
-86.447
-84.839
-83.286
-81.787
-80.34
-78.944
-77.598
-76.301
-75.054
-73.857
-72.709
-71.612
-70.566
-69.572
-68.631
-67.744
-66.914
-66.139
-65.422
-64.764
-64.164
-63.625
-63.147
-62.73
-62.375
-62.081
-61.848
-61.675
-61.56
-61.502
-61.497
-61.543
-61.636
-61.772
-61.947
-62.156
-62.393
-62.651
-62.925
-63.206
-63.488
-63.761
-64.018
-64.248
-64.443
-64.593
-64.691
-64.727
-64.692
-64.577
-64.374
-64.076
-63.676
-63.167
-62.541
-61.795
-60.923
-59.922
-58.789
-57.523
-56.124
-54.596
-52.943
-51.17
-49.284
-47.293
-45.206
-43.032
-40.781
-38.462
-36.083
-33.657
-31.194
-28.71
-26.222
-23.743
-21.288
-18.873
-16.509
-14.215
-12.003
-9.877
-7.847
-5.921
-4.115
-2.457
-0.972
0.329
1.434
2.336
3.034
3.528
3.829
3.972
3.989
3.912
3.768
3.564
3.318
3.065
2.852
2.742
2.791
3.025
3.465
4.131
5.02
6.11
7.343
8.616
9.826
10.881
11.687
12.156
12.198
11.716
10.594
8.665
5.802
1.988
-2.667
-7.892
-13.362
-18.783
-23.761
-27.756
-30.328
-31.234
-30.649
-29.275
-27.814
-26.955
-27.502
-30.107
-35.44
-43.264
-51.538
-57.761
-59.49
-56.093
-49.805
-41.193
-27.852
-3.557
41.655
113.128
209.112
322.137
440.205
554.562
661.889
759.764
843.641
904.509
928.066
901.638
821.008
689.267
519.917
333.944
152.26
-3.934
-119.49
-189.555
-216.529
-208.856
-177.956
-134.557
-87.885
-47.963
-22.212
-12.17
-15.849
-25.507
-32.435
-34.116
-30.836
-26.022
-24.717
-27.666
-33.717
-41.288
-47.573
-51.341
-52.865
-52.34
-50.351
-47.622
-44.384
-40.983
-38.138
-36.315
-35.697
-36.392
-38.248
-40.955
-44.324
-48.051
-51.647
-54.798
-57.315
-59.068
-60.078
-60.368
-59.907
-58.724
-56.894
-54.461
-51.473
-47.962
-43.922
-39.388
-34.422
-29.094
-23.493
-17.679
-11.687
-5.546
0.724
7.11
13.602
20.204
26.932
33.792
40.783
47.903
55.143
62.5
69.978
77.579
85.305
93.152
101.112
109.175
117.329
125.559
133.845
142.167
150.498
158.818
167.105
175.339
183.498
191.563
199.508
207.314
214.958
222.418
229.669
236.689
243.454
249.94
256.128
261.994
267.519
272.683
277.468
281.857
285.835
289.388
292.503
295.17
297.378
299.122
300.396
301.197
301.525
301.379
300.764
299.685
298.149
296.167
293.748
290.907
287.659
284.02
280.008
275.643
270.945
265.938
260.643
255.087
249.293
243.288
237.099
230.751
224.271
217.687
211.024
204.308
197.565
190.82
184.096
177.417
170.806
164.284
157.871
151.585
145.444
139.465
133.661
128.046
122.631
117.427
112.44
107.679
103.148
98.852
94.793
90.972
87.39
84.044
80.932
78.051
75.395
72.96
70.739
68.725
66.91
65.286
63.844
62.574
61.468
60.514
59.702
59.023
58.465
58.017
57.669
57.41
57.23
57.116
57.06
57.051
57.08
57.136
57.21
57.294
57.379
57.457
57.52
57.56
57.571
57.547
57.48
57.365
57.196
56.969
56.678
56.319
55.888
55.379
54.791
54.119
53.361
52.513
51.574
50.54
49.412
48.186
46.863
45.442
43.922
42.304
40.588
38.776
36.868
34.865
32.77
30.584
28.309
25.949
23.507
20.985
18.386
15.716
12.977
10.174
7.31
4.391
1.422
-1.593
-4.647
-7.736
-10.852
-13.99
-17.143
-20.304
-23.466
-26.622
-29.764
-32.886
-35.981
-39.04
-42.057
-45.024
-47.933
-50.777
-53.548
-56.239
-58.841
-61.347
-63.75
-66.043
-68.219
-70.272
-72.194
-73.979
-75.622
-77.116
-78.455
-79.633
-80.647
-81.49
-82.16
-82.654
-82.969
-83.104
-83.058
-82.831
-82.424
-81.84
-81.08
-80.149
-79.049
-77.788
-76.373
-74.81
-73.11
-71.281
-69.337
-67.292
-65.163
-62.964
-60.712
-58.424
-56.119
-53.814
-51.527
-49.274
-47.069
-44.929
-42.873
-40.92
-39.09
-37.399
-35.864
-34.499
-33.319
-32.341
-31.572
-31.012
-30.667
-30.54
-30.643
-31
-31.621
-32.51
-33.669
-35.093
-36.772
-38.693
-40.827
-43.122
-45.537
-48.028
-50.565
-53.136
-55.709
-58.242
-60.688
-62.977
-65.064
-66.925
-68.523
-69.835
-70.874
-71.667
-72.282
-72.834
-73.402
-74.065
-74.918
-76.026
-77.479
-79.354
-81.723
-84.712
-88.399
-92.771
-97.715
-102.959
-108.142
-112.932
-116.917
-119.547
-120.42
-119.334
-116.476
-112.533
-108.24
-104.364
-101.799
-101.413
-104.067
-109.67
-116.334
-121.423
-122.138
-117.219
-107.903
-95.188
-78.438
-53.82
-14.756
45.123
129.435
236.527
361.04
493.828
622.865
736.16
819.657
859.667
846.077
772.592
641.185
463.281
258.148
51.481
-130.903
-268.411
-350.334
-378.377
-361.72
-315.553
-256.633
-198.148
-153.139
-128.593
-123.008
-131.533
-143.452
-149.517
-148.692
-142.956
-137.194
-136.153
-139.284
-144.176
-148.722
-150.824
-149.911
-146.544
-141.221
-134.668
-127.971
-122.032
-117.284
-113.984
-112.282
-112.12
-113.453
-116.152
-119.762
-123.757
-127.763
-131.472
-134.715
-137.446
-139.586
-141.074
-141.917
-142.146
-141.804
-140.948
-139.595
-137.749
-135.431
-132.668
-129.516
-126.051
-122.349
-118.486
-114.514
-110.463
-106.359
-102.215
-98.037
-93.823
-89.556
-85.209
-80.767
-76.222
-71.567
-66.799
-61.907
-56.875
-51.691
-46.347
-40.839
-35.168
-29.338
-23.352
-17.22
-10.954
-4.571
1.907
8.464
15.084
21.748
28.439
35.137
41.822
48.474
55.072
61.593
68.015
74.314
80.463
86.438
92.216
97.771
103.081
108.122
112.873
117.311
121.417
125.173
128.561
131.565
134.171
136.367
138.143
139.489
140.4
140.871
140.9
140.488
139.636
138.35
136.634
134.498
131.951
129.006
125.675
121.974
117.919
113.53
108.826
103.83
98.562
93.049
87.313
81.381
75.277
69.029
62.663
56.204
49.678
43.111
36.528
29.955
23.414
16.928
10.521
4.211
-1.98
-8.036
-13.939
-19.673
-25.226
-30.585
-35.738
-40.677
-45.393
-49.879
-54.13
-58.143
-61.916
-65.447
-68.736
-71.785
-74.598
-77.176
-79.526
-81.653
-83.564
-85.265
-86.765
-88.072
-89.195
-90.144
-90.929
-91.559
-92.046
-92.398
-92.628
-92.744
-92.757
-92.676
-92.512
-92.273
-91.967
-91.605
-91.192
-90.737
-90.248
-89.729
-89.188
-88.631
-88.061
-87.485
-86.906
-86.328
-85.755
-85.19
-84.635
-84.094
-83.569
-83.062
-82.575
-82.108
-81.664
-81.242
-80.845
-80.473
-80.125
-79.803
-79.507
-79.236
-78.992
-78.775
-78.584
-78.418
-78.279
-78.165
-78.078
-78.015
-77.978
-77.965
-77.976
-78.011
-78.068
-78.148
-78.248
-78.366
-78.502
-78.651
-78.813
-78.983
-79.159
-79.336
-79.51
-79.677
-79.832
-79.97
-80.085
-80.171
-80.222
-80.232
-80.194
-80.1
-79.944
-79.718
-79.414
-79.026
-78.548
-77.972
-77.291
-76.498
-75.587
-74.554
-73.392
-72.096
-70.66
-69.082
-67.358
-65.486
-63.465
-61.293
-58.972
-56.502
-53.887
-51.132
-48.241
-45.221
-42.079
-38.822
-35.462
-32.01
-28.48
-24.884
-21.239
-17.563
-13.875
-10.197
-6.55
-2.953
0.572
4.006
7.326
10.512
13.546
16.405
19.07
21.518
23.729
25.682
27.357
28.74
29.815
30.572
31.002
31.106
30.878
30.313
29.406
28.144
26.528
24.569
22.277
19.662
16.744
13.55
10.116
6.5
2.746
-1.112
-5.047
-9.047
-13.075
-17.073
-20.989
-24.768
-28.396
-31.894
-35.253
-38.427
-41.4
-44.177
-46.826
-49.502
-52.263
-55.06
-57.924
-60.925
-64.278
-68.357
-73.324
-79.081
-85.531
-92.613
-100.149
-107.918
-115.233
-120.814
-123.76
-123.731
-120.62
-114.526
-105.791
-94.852
-82.778
-71.883
-64.146
-60.622
-62.267
-68.92
-78.869
-90.261
-100.521
-107.394
-111.668
-114.638
-115.524
-109.414
-87.08
-38.983
40.547
148.955
278.252
417.7
555.169
680.788
782.975
849.357
868.414
829.885
732.081
581.749
394.133
193.303
3.878
-153.824
-265.777
-328.782
-348.241
-331.123
-287.413
-228.355
-163.079
-103.841
-60.786
-36.497
-29.749
-33.044
-37.095
-38.736
-38.162
-38.928
-45.829
-59.034
-76.16
-93.748
-107.828
-116.97
-121.447
-121.736
-118.805
-113.599
-106.85
-99.718
-93.435
-88.61
-85.48
-84.047
-84.064
-85.275
-87.443
-90.12
-92.765
-95.069
-96.885
-98.181
-99.039
-99.477
-99.463
-99.022
-98.212
-97.076
-95.641
-93.908
-91.848
-89.472
-86.82
-83.945
-80.919
-77.784
-74.561
-71.264
-67.903
-64.487
-61.021
-57.498
-53.897
-50.202
-46.4
-42.48
-38.439
-34.261
-29.928
-25.42
-20.72
-15.817
-10.705
-5.38
0.162
5.919
11.885
18.052
24.406
30.935
37.628
44.468
51.441
58.529
65.71
72.965
80.27
87.601
94.932
102.233
109.477
116.634
123.672
130.562
137.272
143.769
150.024
156.005
161.684
167.03
172.015
176.614
180.803
184.558
187.86
190.691
193.036
194.882
196.221
197.046
197.354
197.144
196.42
195.187
193.454
191.233
188.54
185.391
181.806
177.807
173.422
168.675
163.598
158.222
152.578
146.702
140.629
134.394
128.034
121.586
115.085
108.567
102.068
95.622
89.264
83.024
76.934
71.021
65.314
59.836
54.609
49.654
44.987
40.622
36.572
32.847
29.451
26.389
23.663
21.27
19.206
17.466
16.039
14.915
14.08
13.519
13.215
13.149
13.302
13.654
14.181
14.863
15.677
16.598
17.604
18.673
19.78
20.904
22.023
23.116
24.163
25.145
26.045
26.846
27.534
28.096
28.519
28.794
28.913
28.868
28.655
28.272
27.716
26.987
26.089
25.024
23.797
22.415
20.885
19.215
17.415
15.494
13.463
11.333
9.115
6.822
4.465
2.056
-0.392
-2.869
-5.363
-7.863
-10.358
-12.839
-15.297
-17.724
-20.113
-22.457
-24.749
-26.986
-29.164
-31.279
-33.33
-35.316
-37.237
-39.095
-40.891
-42.628
-44.31
-45.941
-47.526
-49.068
-50.573
-52.046
-53.492
-54.917
-56.325
-57.721
-59.11
-60.497
-61.886
-63.279
-64.681
-66.092
-67.515
-68.95
-70.395
-71.85
-73.311
-74.777
-76.243
-77.705
-79.157
-80.593
-82.005
-83.386
-84.728
-86.02
-87.252
-88.413
-89.493
-90.481
-91.367
-92.141
-92.791
-93.308
-93.683
-93.907
-93.973
-93.873
-93.6
-93.147
-92.512
-91.691
-90.683
-89.488
-88.107
-86.544
-84.808
-82.908
-80.854
-78.656
-76.329
-73.885
-71.342
-68.715
-66.018
-63.267
-60.478
-57.67
-54.866
-52.088
-49.357
-46.694
-44.12
-41.657
-39.33
-37.155
-35.143
-33.307
-31.662
-30.229
-29.04
-28.119
-27.478
-27.13
-27.08
-27.324
-27.855
-28.649
-29.656
-30.83
-32.129
-33.519
-34.988
-36.506
-38.034
-39.524
-40.914
-42.16
-43.249
-44.153
-44.854
-45.378
-45.769
-46.126
-46.607
-47.315
-48.344
-49.803
-51.757
-54.296
-57.519
-61.456
-66.17
-71.776
-78.282
-85.638
-93.704
-102.088
-110.355
-118.119
-124.825
-129.841
-132.73
-133.266
-131.58
-128.249
-124.047
-119.696
-115.965
-113.992
-113.988
-114.508
-113.872
-109.866
-101.726
-92.47
-84.111
-74.842
-59.42
-27.21
31.535
117.81
226.659
347.723
468.121
580.87
680.883
760.82
812.404
822.64
778.805
677.191
523.618
335.799
141.747
-31.611
-164.164
-245.731
-281.601
-282.568
-257.881
-218.795
-170.758
-120.196
-79.651
-54.13
-45.699
-50.963
-57.394
-59.021
-54.98
-47.167
-42.49
-43.545
-48.507
-55.071
-59.94
-61.408
-59.839
-55.786
-49.94
-43.074
-35.952
-29.403
-24.012
-20.157
-17.921
-17.182
-17.84
-19.642
-22.204
-25.075
-27.846
-30.261
-32.214
-33.682
-34.653
-35.117
-35.073
-34.558
-33.632
-32.325
-30.658
-28.634
-26.25
-23.546
-20.578
-17.415
-14.136
-10.789
-7.399
-3.989
-0.568
2.862
6.297
9.75
13.25
16.812
20.449
24.167
27.969
31.863
35.866
39.993
44.255
48.657
53.201
57.883
62.702
67.65
72.716
77.882
83.13
88.442
93.8
99.186
104.582
109.969
115.322
120.621
125.844
130.967
135.965
140.812
145.483
149.949
154.187
158.171
161.876
165.279
168.355
171.085
173.448
175.427
177.005
178.166
178.898
179.192
179.037
178.43
177.365
175.842
173.862
171.429
168.549
165.233
161.49
157.334
152.78
147.845
142.549
136.913
130.959
124.71
118.194
111.436
104.466
97.312
90.004
82.572
75.047
67.459
59.838
52.214
44.614
37.069
29.604
22.247
15.022
7.954
1.065
-5.624
-12.093
-18.324
-24.301
-30.009
-35.437
-40.571
-45.404
-49.926
-54.132
-58.018
-61.579
-64.815
-67.726
-70.312
-72.576
-74.524
-76.16
-77.491
-78.524
-79.269
-79.734
-79.929
-79.866
-79.556
-79.011
-78.243
-77.263
-76.087
-74.725
-73.193
-71.502
-69.667
-67.702
-65.619
-63.432
-61.156
-58.802
-56.384
-53.916
-51.41
-48.879
-46.334
-43.789
-41.254
-38.742
-36.263
-33.826
-31.443
-29.123
-26.874
-24.706
-22.626
-20.642
-18.76
-16.989
-15.333
-13.8
-12.393
-11.118
-9.978
-8.978
-8.121
-7.408
-6.842
-6.423
-6.152
-6.029
-6.052
-6.22
-6.53
-6.979
-7.564
-8.281
-9.124
-10.089
-11.17
-12.361
-13.655
-15.045
-16.524
-18.086
-19.721
-21.423
-23.182
-24.991
-26.842
-28.725
-30.631
-32.551
-34.476
-36.396
-38.303
-40.186
-42.038
-43.848
-45.609
-47.311
-48.949
-50.513
-51.997
-53.394
-54.698
-55.903
-57.004
-57.996
-58.874
-59.632
-60.269
-60.78
-61.162
-61.414
-61.533
-61.516
-61.364
-61.075
-60.649
-60.087
-59.388
-58.555
-57.59
-56.496
-55.276
-53.936
-52.479
-50.911
-49.24
-47.471
-45.613
-43.673
-41.659
-39.581
-37.446
-35.267
-33.052
-30.813
-28.562
-26.314
-24.084
-21.886
-19.736
-17.65
-15.643
-13.732
-11.93
-10.251
-8.705
-7.304
-6.06
-4.988
-4.1
-3.407
-2.918
-2.64
-2.582
-2.752
-3.153
-3.777
-4.623
-5.689
-6.98
-8.512
-10.296
-12.329
-14.611
-17.132
-19.882
-22.846
-25.993
-29.273
-32.637
-36.037
-39.438
-42.822
-46.152
-49.382
-52.454
-55.289
-57.838
-60.07
-61.95
-63.459
-64.605
-65.416
-65.965
-66.367
-66.717
-67.113
-67.657
-68.431
-69.54
-71.074
-73.153
-75.947
-79.551
-83.964
-89.05
-94.504
-99.971
-105.121
-109.514
-112.6
-113.96
-113.392
-111.244
-108.312
-105.382
-103.291
-102.8
-104.555
-109.301
-116.722
-124.652
-130.567
-131.653
-126.391
-115.554
-98.946
-75.143
-40.745
8.577
75.454
160.836
262.347
376.582
499.208
621.608
732.583
818.13
860.778
847.155
772.266
638.075
459.753
262
69.681
-91.722
-205.379
-268.515
-285.964
-268.915
-231.494
-184.862
-138.37
-102.212
-82.724
-80.527
-92.566
-109.731
-123.074
-130.088
-131.107
-129.541
-129.446
-130.906
-132.738
-133.625
-131.779
-126.923
-119.825
-111.349
-102.823
-95.272
-89.024
-84.203
-80.826
-78.907
-78.46
-79.321
-81.109
-83.437
-86.045
-88.769
-91.478
-93.998
-96.157
-97.846
-99.029
-99.713
-99.898
-99.566
-98.711
-97.353
-95.526
-93.279
-90.655
-87.688
-84.425
-80.926
-77.26
-73.5
-69.698
-65.883
-62.076
-58.284
-54.508
-50.742
-46.966
-43.151
-39.275
-35.321
-31.272
-27.119
-22.846
-18.436
-13.878
-9.158
-4.268
0.795
6.033
11.445
17.025
22.765
28.649
34.662
40.787
47.008
53.308
59.668
66.069
72.489
78.907
85.3
91.644
97.91
104.073
110.102
115.968
121.643
127.097
132.302
137.227
141.847
146.135
150.064
153.612
156.756
159.473
161.746
163.558
164.894
165.741
166.09
165.934
165.267
164.088
162.399
160.203
157.506
154.318
150.649
146.514
141.929
136.913
131.487
125.674
119.5
112.992
106.179
99.092
91.762
84.222
76.505
68.645
60.676
52.631
44.544
36.449
28.377
20.361
12.432
4.618
-3.05
-10.547
-17.848
-24.927
-31.765
-38.34
-44.634
-50.633
-56.321
-61.687
-66.72
-71.414
-75.761
-79.758
-83.404
-86.697
-89.641
-92.238
-94.494
-96.417
-98.013
-99.293
-100.268
-100.949
-101.348
-101.48
-101.357
-100.994
-100.406
-99.607
-98.614
-97.441
-96.104
-94.617
-92.996
-91.256
-89.41
-87.474
-85.46
-83.381
-81.25
-79.078
-76.877
-74.657
-72.429
-70.2
-67.98
-65.776
-63.594
-61.441
-59.322
-57.241
-55.203
-53.21
-51.266
-49.373
-47.533
-45.746
-44.015
-42.34
-40.721
-39.159
-37.653
-36.203
-34.808
-33.467
-32.18
-30.945
-29.76
-28.625
-27.536
-26.494
-25.496
-24.54
-23.625
-22.749
-21.911
-21.108
-20.34
-19.606
-18.903
-18.233
-17.593
-16.983
-16.403
-15.854
-15.334
-14.844
-14.385
-13.956
-13.557
-13.189
-12.852
-12.546
-12.272
-12.029
-11.82
-11.643
-11.5
-11.392
-11.318
-11.28
-11.278
-11.313
-11.383
-11.49
-11.633
-11.812
-12.025
-12.271
-12.549
-12.858
-13.196
-13.559
-13.945
-14.351
-14.772
-15.206
-15.647
-16.09
-16.53
-16.963
-17.383
-17.785
-18.163
-18.513
-18.828
-19.103
-19.333
-19.513
-19.637
-19.701
-19.7
-19.63
-19.489
-19.274
-18.984
-18.617
-18.177
-17.665
-17.086
-16.443
-15.744
-14.993
-14.198
-13.368
-12.507
-11.623
-10.725
-9.819
-8.919
-8.035
-7.18
-6.367
-5.608
-4.916
-4.305
-3.786
-3.363
-3.04
-2.826
-2.731
-2.776
-2.981
-3.355
-3.907
-4.645
-5.567
-6.667
-7.924
-9.295
-10.741
-12.223
-13.712
-15.199
-16.665
-18.076
-19.394
-20.567
-21.55
-22.328
-22.881
-23.172
-23.208
-23.044
-22.774
-22.557
-22.525
-22.74
-23.271
-24.202
-25.582
-27.455
-29.871
-32.847
-36.451
-40.854
-46.133
-52.219
-59.016
-66.313
-73.58
-80.169
-85.495
-88.654
-89.683
-89.868
-89.161
-87.28
-83.303
-74.273
-61.213
-48.405
-39.88
-40.723
-51.329
-66.968
-82.513
-92.311
-91.393
-74.943
-38.556
21.917
108.528
217.154
342.081
475.389
607.208
730.369
834.627
907.628
936.52
907.617
815.398
664.983
473.322
268.238
78.059
-74.476
-176.663
-228.378
-236.634
-212.253
-168.618
-118.395
-74.614
-48.484
-43.447
-56.493
-78.027
-95.597
-103.761
-102.775
-96.958
-93.175
-93.129
-95.048
-97.098
-96.869
-93.919
-89.458
-84.079
-78.26
-72.857
-68.386
-65.098
-63.228
-62.626
-62.989
-64.29
-66.528
-69.442
-72.788
-76.343
-79.836
-83.134
-86.132
-88.668
-90.633
-91.976
-92.67
-92.712
-92.128
-90.934
-89.167
-86.875
-84.096
-80.875
-77.252
-73.28
-69.024
-64.551
-59.936
-55.226
-50.452
-45.639
-40.799
-35.935
-31.047
-26.118
-21.126
-16.058
-10.905
-5.662
-0.328
5.105
10.644
16.295
22.061
27.941
33.933
40.031
46.229
52.514
58.872
65.285
71.733
78.198
84.661
91.103
97.505
103.848
110.111
116.273
122.314
128.212
133.943
139.485
144.814
149.907
154.743
159.3
163.557
167.493
171.091
174.332
177.202
179.684
181.766
183.435
184.682
185.5
185.882
185.824
185.325
184.385
183.007
181.196
178.959
176.306
173.248
169.799
165.972
161.785
157.257
152.407
147.256
141.827
136.143
130.229
124.111
117.813
111.362
104.785
98.108
91.357
84.559
77.737
70.918
64.126
57.385
50.717
44.143
37.685
31.362
25.191
19.189
13.37
7.749
2.336
-2.858
-7.825
-12.559
-17.053
-21.304
-25.309
-29.069
-32.584
-35.854
-38.884
-41.678
-44.24
-46.576
-48.694
-50.6
-52.304
-53.813
-55.137
-56.285
-57.268
-58.096
-58.78
-59.33
-59.758
-60.074
-60.288
-60.412
-60.456
-60.43
-60.344
-60.206
-60.025
-59.811
-59.57
-59.309
-59.035
-58.754
-58.471
-58.19
-57.915
-57.649
-57.395
-57.155
-56.931
-56.724
-56.535
-56.365
-56.214
-56.082
-55.967
-55.871
-55.79
-55.724
-55.672
-55.631
-55.601
-55.578
-55.562
-55.549
-55.54
-55.53
-55.52
-55.508
-55.491
-55.47
-55.443
-55.409
-55.369
-55.323
-55.271
-55.214
-55.154
-55.092
-55.031
-54.972
-54.916
-54.868
-54.829
-54.801
-54.788
-54.792
-54.816
-54.862
-54.933
-55.032
-55.162
-55.323
-55.519
-55.749
-56.017
-56.32
-56.661
-57.038
-57.449
-57.894
-58.371
-58.878
-59.411
-59.967
-60.541
-61.13
-61.728
-62.328
-62.926
-63.512
-64.081
-64.625
-65.138
-65.611
-66.036
-66.406
-66.714
-66.952
-67.113
-67.191
-67.178
-67.067
-66.856
-66.539
-66.112
-65.575
-64.924
-64.161
-63.289
-62.312
-61.236
-60.066
-58.81
-57.475
-56.073
-54.611
-53.098
-51.541
-49.951
-48.339
-46.717
-45.101
-43.503
-41.936
-40.413
-38.95
-37.561
-36.259
-35.047
-33.932
-32.924
-32.035
-31.29
-30.706
-30.292
-30.057
-30.006
-30.137
-30.445
-30.911
-31.494
-32.158
-32.866
-33.592
-34.325
-35.042
-35.711
-36.296
-36.743
-37.019
-37.111
-36.993
-36.649
-36.099
-35.376
-34.571
-33.825
-33.228
-32.867
-32.839
-33.188
-34.008
-35.397
-37.354
-39.924
-43.211
-47.232
-51.989
-57.421
-63.182
-68.856
-74.199
-78.829
-82.075
-83.492
-82.867
-80.047
-76.213
-72.825
-69.783
-67.666
-66.058
-63.147
-59.608
-55.356
-50.72
-48.665
-50.354
-55.535
-59.981
-54.177
-27.366
29.105
115.53
224.953
346.738
468.574
583.079
684.361
763.63
811.362
815.118
764.457
658.352
504.428
319.933
130.268
-40.035
-172.28
-256.338
-295.931
-301.458
-283.054
-252.033
-213.672
-172.136
-135.515
-106.749
-88.186
-79.163
-72.504
-65.65
-58.424
-51.709
-50.115
-54.707
-63.443
-74.334
-84.07
-90.552
-93.732
-93.717
-90.922
-86.174
-80.165
-73.63
-67.575
-62.722
-59.294
-57.384
-56.906
-57.548
-59.048
-61.052
-63.022
-64.624
-65.717
-66.212
-66.157
-65.605
-64.537
-62.995
-61.068
-58.804
-56.248
-53.427
-50.328
-46.976
-43.427
-39.739
-35.989
-32.224
-28.466
-24.731
-21.03
-17.365
-13.741
-10.148
-6.563
-2.972
0.634
4.264
7.922
11.617
15.368
19.191
23.102
27.111
31.224
35.445
39.775
44.213
48.754
53.392
58.113
62.909
67.771
72.689
77.652
82.647
87.659
92.672
97.671
102.636
107.549
112.389
117.134
121.763
126.254
130.586
134.736
138.683
142.406
145.883
149.095
152.021
154.643
156.944
158.906
160.516
161.762
162.631
163.114
163.205
162.898
162.191
161.083
159.575
157.671
155.377
152.7
149.65
146.24
142.483
138.395
133.993
129.297
124.327
119.105
113.654
107.998
102.161
96.168
90.046
83.82
77.516
71.159
64.776
58.392
52.031
45.717
39.473
33.321
27.281
21.373
15.614
10.022
4.611
-0.606
-5.616
-10.41
-14.978
-19.313
-23.412
-27.269
-30.883
-34.254
-37.383
-40.271
-42.923
-45.344
-47.538
-49.514
-51.279
-52.841
-54.211
-55.397
-56.411
-57.264
-57.966
-58.53
-58.966
-59.286
-59.501
-59.623
-59.661
-59.628
-59.531
-59.383
-59.191
-58.964
-58.712
-58.441
-58.159
-57.872
-57.586
-57.305
-57.035
-56.778
-56.538
-56.317
-56.117
-55.94
-55.786
-55.655
-55.548
-55.464
-55.403
-55.362
-55.34
-55.337
-55.348
-55.374
-55.412
-55.459
-55.516
-55.578
-55.646
-55.718
-55.793
-55.868
-55.944
-56.018
-56.089
-56.158
-56.223
-56.285
-56.341
-56.394
-56.442
-56.486
-56.527
-56.564
-56.598
-56.629
-56.657
-56.682
-56.705
-56.726
-56.744
-56.759
-56.773
-56.784
-56.793
-56.798
-56.798
-56.792
-56.779
-56.754
-56.716
-56.661
-56.585
-56.484
-56.356
-56.195
-55.998
-55.758
-55.472
-55.134
-54.74
-54.284
-53.759
-53.162
-52.487
-51.73
-50.887
-49.954
-48.927
-47.805
-46.586
-45.268
-43.851
-42.334
-40.718
-39.003
-37.192
-35.287
-33.294
-31.216
-29.059
-26.834
-24.551
-22.223
-19.862
-17.482
-15.095
-12.719
-10.368
-8.055
-5.794
-3.595
-1.471
0.561
2.485
4.286
5.952
7.47
8.829
10.016
11.02
11.836
12.468
12.912
13.165
13.213
13.035
12.617
11.957
11.053
9.905
8.519
6.905
5.093
3.133
1.072
-1.044
-3.182
-5.32
-7.419
-9.425
-11.282
-12.917
-14.277
-15.336
-16.059
-16.422
-16.433
-16.115
-15.523
-14.779
-13.989
-13.266
-12.736
-12.493
-12.625
-13.256
-14.539
-16.596
-19.472
-23.055
-27.086
-31.301
-35.438
-39.169
-42.061
-43.671
-43.738
-42.424
-40.344
-38.133
-36.429
-35.927
-37.24
-41.059
-47.191
-53.638
-57.835
-57.254
-51.203
-42.077
-31.13
-16.592
7.297
50.36
118.846
211.949
322.469
438.539
551.204
656.277
751.473
832.652
888.877
905.376
869.194
775.382
632.066
457.125
274.047
106.038
-30.914
-127.711
-183.535
-203.636
-193.39
-161.58
-117.448
-70.136
-32.109
-9.257
-1.249
-3.675
-6.097
-3.222
4.274
13.65
19.025
18.176
12.872
5.256
-1.69
-6.376
-8.734
-8.797
-6.916
-3.649
0.423
4.633
8.257
10.846
12.172
12.104
10.691
8.143
4.75
0.911
-2.87
-6.281
-9.155
-11.381
-12.971
-13.935
-14.254
-13.972
-13.176
-11.919
-10.246
-8.187
-5.737
-2.93
0.167
3.486
6.936
10.458
14.022
17.606
21.193
24.778
28.354
31.928
35.526
39.161
42.841
46.572
50.351
54.187
58.094
62.089
66.186
70.395
74.719
79.162
83.725
88.407
93.202
98.101
103.093
108.167
113.315
118.528
123.797
129.109
134.452
139.812
145.174
150.521
155.836
161.097
166.284
171.375
176.347
181.179
185.847
190.327
194.596
198.63
202.408
205.907
209.104
211.978
214.509
216.679
218.469
219.864
220.848
221.409
221.535
221.219
220.452
219.231
217.551
215.413
212.819
209.771
206.278
202.347
197.988
193.216
188.047
182.497
176.588
170.341
163.782
156.934
149.825
142.485
134.942
127.226
119.37
111.403
103.358
95.267
87.161
79.072
71.03
63.066
55.207
47.484
39.922
32.547
25.384
18.453
11.777
5.375
-0.738
-6.546
-12.036
-17.198
-22.022
-26.504
-30.638
-34.423
-37.86
-40.951
-43.7
-46.115
-48.204
-49.977
-51.447
-52.627
-53.532
-54.178
-54.583
-54.764
-54.741
-54.534
-54.161
-53.644
-53.003
-52.258
-51.43
-50.538
-49.603
-48.643
-47.676
-46.721
-45.794
-44.909
-44.083
-43.327
-42.654
-42.075
-41.599
-41.233
-40.985
-40.859
-40.859
-40.987
-41.244
-41.631
-42.144
-42.781
-43.539
-44.413
-45.397
-46.484
-47.667
-48.938
-50.29
-51.712
-53.197
-54.735
-56.317
-57.933
-59.574
-61.232
-62.899
-64.566
-66.225
-67.871
-69.496
-71.095
-72.663
-74.196
-75.69
-77.143
-78.553
-79.918
-81.237
-82.512
-83.742
-84.928
-86.073
-87.177
-88.244
-89.277
-90.277
-91.249
-92.195
-93.12
-94.027
-94.919
-95.799
-96.67
-97.535
-98.394
-99.249
-100.101
-100.948
-101.79
-102.624
-103.448
-104.259
-105.053
-105.824
-106.566
-107.273
-107.939
-108.556
-109.115
-109.608
-110.026
-110.361
-110.605
-110.75
-110.785
-110.705
-110.501
-110.168
-109.697
-109.084
-108.321
-107.405
-106.332
-105.098
-103.704
-102.147
-100.43
-98.556
-96.534
-94.372
-92.081
-89.67
-87.153
-84.543
-81.858
-79.109
-76.311
-73.477
-70.621
-67.763
-64.924
-62.121
-59.372
-56.695
-54.106
-51.624
-49.267
-47.044
-44.961
-43.027
-41.255
-39.665
-38.291
-37.154
-36.266
-35.636
-35.272
-35.173
-35.339
-35.744
-36.344
-37.096
-37.96
-38.909
-39.929
-40.983
-42.021
-42.986
-43.803
-44.421
-44.817
-44.962
-44.83
-44.431
-43.79
-42.967
-42.09
-41.274
-40.625
-40.272
-40.318
-40.864
-42.056
-44.059
-46.981
-50.841
-55.512
-60.69
-66.032
-71.209
-75.831
-79.42
-81.578
-82.129
-81.298
-79.846
-78.731
-78.724
-80.44
-84.482
-91.234
-100.686
-112.053
-122.688
-128.706
-126.721
-114.337
-91.854
-61.119
-22.515
25.155
86.228
164.728
260.909
371.933
489.368
603.561
705.49
784.069
829.694
832.697
784.967
686.214
543.251
370.973
191.712
27.309
-104.434
-192.61
-238.374
-248.911
-234.068
-206.353
-173.939
-144.234
-123.552
-112.077
-107.886
-105.719
-100.161
-90.892
-80.599
-73.902
-73.896
-80.02
-89.804
-100.107
-108.94
-115.715
-120.168
-122.353
-122.418
-120.684
-117.893
-114.858
-112.324
-110.783
-110.492
-111.592
-114.047
-117.649
-122.091
-126.943
-131.699
-136.044
-139.805
-142.873
-145.256
-146.962
-147.969
-148.322
-148.102
-147.353
-146.119
-144.421
-142.251
-139.642
-136.656
-133.362
-129.849
-126.178
-122.377
-118.472
-114.477
-110.398
-106.246
-102.014
-97.68
-93.234
-88.672
-83.992
-79.2
-74.294
-69.263
-64.097
-58.786
-53.325
-47.717
-41.965
-36.074
-30.054
-23.916
-17.677
-11.358
-4.976
1.451
7.907
14.373
20.832
27.26
33.638
39.944
46.154
52.244
58.189
63.962
69.539
74.892
79.999
84.833
89.37
93.588
97.465
100.979
104.113
106.847
109.165
111.053
112.499
113.491
114.022
114.087
113.68
112.803
111.457
109.646
107.378
104.661
101.507
97.931
93.949
89.579
84.841
79.758
74.354
68.655
62.689
56.484
50.071
43.48
36.743
29.891
22.957
15.973
8.97
1.979
-4.969
-11.846
-18.623
-25.271
-31.766
-38.083
-44.199
-50.093
-55.748
-61.145
-66.271
-71.112
-75.66
-79.905
-83.841
-87.466
-90.777
-93.775
-96.462
-98.842
-100.921
-102.707
-104.209
-105.439
-106.407
-107.128
-107.615
-107.883
-107.949
-107.827
-107.536
-107.091
-106.51
-105.81
-105.009
-104.123
-103.168
-102.161
-101.118
-100.053
-98.98
-97.912
-96.862
-95.84
-94.856
-93.92
-93.038
-92.219
-91.467
-90.786
-90.181
-89.654
-89.205
-88.835
-88.544
-88.33
-88.191
-88.125
-88.128
-88.197
-88.328
-88.515
-88.756
-89.043
-89.373
-89.739
-90.137
-90.561
-91.004
-91.463
-91.931
-92.403
-92.876
-93.345
-93.806
-94.257
-94.694
-95.115
-95.519
-95.905
-96.273
-96.622
-96.954
-97.269
-97.57
-97.859
-98.139
-98.412
-98.683
-98.953
-99.228
-99.51
-99.803
-100.11
-100.435
-100.782
-101.153
-101.551
-101.98
-102.443
-102.941
-103.478
-104.054
-104.671
-105.33
-106.029
-106.769
-107.548
-108.363
-109.211
-110.088
-110.991
-111.913
-112.849
-113.793
-114.736
-115.672
-116.59
-117.482
-118.339
-119.151
-119.907
-120.598
-121.214
-121.745
-122.183
-122.517
-122.739
-122.841
-122.814
-122.652
-122.348
-121.895
-121.29
-120.527
-119.606
-118.525
-117.285
-115.889
-114.342
-112.65
-110.822
-108.867
-106.797
-104.623
-102.36
-100.022
-97.623
-95.18
-92.709
-90.227
-87.754
-85.309
-82.915
-80.592
-78.362
-76.246
-74.265
-72.437
-70.775
-69.293
-68.002
-66.921
-66.07
-65.469
-65.129
-65.058
-65.262
-65.742
-66.491
-67.488
-68.691
-70.059
-71.552
-73.139
-74.801
-76.512
-78.239
-79.94
-81.562
-83.064
-84.419
-85.606
-86.599
-87.381
-87.96
-88.41
-88.853
-89.41
-90.177
-91.205
-92.531
-94.231
-96.386
-99.078
-102.376
-106.289
-110.85
-116.178
-122.299
-129.133
-136.449
-143.699
-150.262
-155.663
-159.329
-160.603
-159.201
-155.059
-148.398
-140.323
-132.096
-124.637
-119.306
-116.823
-116.128
-115.863
-114.233
-110.036
-104.835
-100.054
-94.498
-82.631
-55.017
-2.454
80.252
190.408
319.997
458.134
592.736
714.214
812.225
876.433
896.601
862.463
770.874
625.589
440.451
240.427
50.795
-104.643
-210.17
-265.964
-278.708
-261.222
-230.186
-195.337
-165.72
-148.274
-141.838
-144.369
-149.996
-150.289
-143.391
-130.971
-117.455
-108.964
-107.275
-111.279
-118.906
-127.505
-135.92
-143.57
-149.752
-154.315
-157.185
-158.454
-158.625
-158.058
-157.128
-156.556
-156.885
-158.378
-161.153
-165.01
-169.623
-174.729
-179.953
-184.848
-189.127
-192.608
-195.203
-196.95
-197.87
-197.969
-197.31
-195.96
-193.962
-191.354
-188.146
-184.35
-180.012
-175.196
-169.981
-164.429
-158.571
-152.43
-146.02
-139.35
-132.424
-125.239
-117.774
-110.021
-101.983
-93.666
-85.08
-76.233
-67.125
-57.758
-48.137
-38.269
-28.169
-17.854
-7.341
3.344
14.175
25.119
36.143
47.215
58.303
69.377
80.405
91.355
102.194
112.888
123.406
133.713
143.774
153.555
163.021
172.14
180.879
189.209
197.098
204.519
211.446
217.855
223.724
229.035
233.769
237.914
241.457
244.39
246.707
248.407
249.489
249.957
249.816
249.076
247.75
245.853
243.401
240.414
236.916
232.929
228.481
223.6
218.316
212.659
206.663
200.363
193.794
186.991
179.992
172.834
165.552
158.185
150.768
143.336
135.922
128.56
121.282
114.117
107.092
100.236
93.57
87.118
80.9
74.932
69.23
63.807
58.674
53.838
49.306
45.082
41.167
37.56
34.261
31.265
28.566
26.158
24.03
22.174
20.577
19.227
18.109
17.209
16.512
16.002
15.662
15.476
15.428
15.502
15.682
15.952
16.297
16.702
17.155
17.642
18.15
18.669
19.19
19.702
20.198
20.671
21.115
21.525
21.897
22.229
22.517
22.761
22.96
23.113
23.222
23.289
23.316
23.305
23.261
23.186
23.085
22.962
22.823
22.67
22.509
22.345
22.181
22.023
21.874
21.738
21.618
21.519
21.442
21.39
21.364
21.366
21.397
21.457
21.546
21.664
21.81
21.983
22.183
22.407
22.654
22.923
23.212
23.518
23.839
24.174
24.521
24.878
25.242
25.613
25.989
26.37
26.753
27.14
27.528
27.918
28.31
28.705
29.103
29.505
29.913
30.329
30.757
31.199
31.659
32.141
32.647
33.182
33.75
34.356
35.003
35.694
36.434
37.227
38.076
38.985
39.956
40.992
42.094
43.263
44.501
45.805
47.175
48.609
50.104
51.658
53.266
54.925
56.627
58.369
60.142
61.938
63.747
65.556
67.351
69.119
70.845
72.515
74.111
75.621
77.029
78.325
79.499
80.539
81.43
82.16
82.716
83.091
83.276
83.264
83.045
82.615
81.975
81.13
80.084
78.837
77.38
75.7
73.791
71.656
69.3
66.731
63.958
60.996
57.876
54.649
51.362
48.058
44.769
41.524
38.365
35.347
32.535
29.998
27.782
25.923
24.448
23.372
22.693
22.389
22.406
22.653
23.033
23.445
23.783
23.947
23.852
23.379
22.36
20.708
18.405
15.556
12.487
9.516
6.878
4.91
4.01
4.421
6.309
9.465
13.009
16.15
18.368
18.985
17.486
13.677
7.228
-0.714
-6.715
-7.767
-1.343
13.274
32.859
55.399
82.578
118.473
170.782
245.592
341.12
451.591
568.711
682.325
786.493
874.105
932.957
950.556
913.347
814.587
660.758
468.77
266.16
81.3
-64.409
-158.462
-203.85
-210.254
-187.849
-149.875
-103.193
-54.839
-15.908
10.644
23.467
25.641
27.909
33.903
43.317
54.197
59.959
58.371
51.397
40.987
30.574
22.805
17.997
16.057
16.76
19.448
23.498
28.499
33.729
38.182
41.383
43.131
43.313
42.232
40.201
37.435
34.368
31.471
28.986
27.072
25.784
25.039
24.816
25.113
25.856
26.983
28.449
30.208
32.257
34.586
37.154
39.901
42.756
45.66
48.588
51.52
54.449
57.373
60.289
63.209
66.158
69.152
72.201
75.314
78.492
81.745
85.089
88.538
92.105
95.803
99.635
103.604
107.711
111.952
116.319
120.802
125.386
130.06
134.811
139.626
144.492
149.394
154.314
159.234
164.135
168.995
173.79
178.497
183.089
187.541
191.826
195.919
199.793
203.423
206.782
209.847
212.594
214.999
217.042
218.701
219.96
220.8
221.209
221.173
220.682
219.729
218.308
216.416
214.052
211.219
207.919
204.159
199.949
195.299
190.223
184.736
178.857
172.606
166.005
159.078
151.853
144.356
136.616
128.664
120.529
112.245
103.841
95.35
86.804
78.233
69.668
61.14
52.677
44.307
36.057
27.951
20.013
12.264
4.724
-2.589
-9.658
-16.469
-23.01
-29.269
-35.237
-40.909
-46.278
-51.343
-56.102
-60.555
-64.705
-68.556
-72.114
-75.386
-78.38
-81.105
-83.573
-85.795
-87.783
-89.549
-91.107
-92.471
-93.653
-94.667
-95.527
-96.245
-96.834
-97.305
-97.669
-97.939
-98.122
-98.229
-98.269
-98.249
-98.177
-98.058
-97.899
-97.704
-97.477
-97.222
-96.941
-96.636
-96.309
-95.959
-95.589
-95.196
-94.781
-94.342
-93.878
-93.387
-92.867
-92.317
-91.735
-91.12
-90.47
-89.784
-89.063
-88.307
-87.515
-86.69
-85.832
-84.945
-84.03
-83.092
-82.133
-81.159
-80.174
-79.183
-78.193
-77.208
-76.236
-75.282
-74.353
-73.455
-72.596
-71.781
-71.017
-70.311
-69.669
-69.097
-68.602
-68.189
-67.864
-67.629
-67.49
-67.45
-67.51
-67.671
-67.934
-68.298
-68.761
-69.321
-69.975
-70.718
-71.545
-72.45
-73.426
-74.464
-75.558
-76.696
-77.87
-79.068
-80.281
-81.498
-82.71
-83.904
-85.071
-86.2
-87.28
-88.302
-89.255
-90.131
-90.92
-91.614
-92.206
-92.691
-93.066
-93.326
-93.472
-93.504
-93.427
-93.244
-92.961
-92.584
-92.123
-91.585
-90.981
-90.32
-89.614
-88.875
-88.117
-87.355
-86.608
-85.89
-85.22
-84.615
-84.092
-83.672
-83.369
-83.194
-83.159
-83.277
-83.564
-84.047
-84.744
-85.664
-86.812
-88.191
-89.798
-91.623
-93.641
-95.804
-98.066
-100.387
-102.73
-105.078
-107.407
-109.677
-111.847
-113.865
-115.688
-117.308
-118.718
-119.899
-120.859
-121.634
-122.306
-123.035
-123.971
-125.218
-126.862
-128.963
-131.581
-134.816
-138.749
-143.392
-148.729
-154.729
-161.414
-168.804
-176.822
-185.214
-193.504
-201.24
-208.067
-213.424
-216.673
-217.418
-215.237
-210.669
-204.904
-197.932
-190.141
-181.077
-169.56
-156.911
-143.516
-130.453
-120.796
-114.927
-113.206
-113.631
-107.438
-85.385
-39.847
33.687
129.5
237.486
349.403
457.252
557.906
647.61
715.646
747.801
727.615
645.423
504.517
320.559
120.54
-67.775
-223.015
-331.668
-392.386
-410.679
-393.072
-351.144
-296.644
-241.146
-199.105
-176.211
-170.927
-177.211
-182.748
-181.835
-175.265
-166.207
-161.653
-164.153
-171.639
-181.583
-190.165
-195.221
-196.914
-195.539
-191.646
-186.043
-179.365
-172.342
-165.959
-160.906
-157.413
-155.572
-155.291
-156.294
-158.318
-161.011
-163.844
-166.428
-168.566
-170.135
-171.137
-171.601
-171.492
-170.817
-169.633
-167.981
-165.895
-163.398
-160.48
-157.146
-153.439
-149.411
-145.134
-140.68
-136.088
-131.383
-126.581
-121.688
-116.709
-111.641
-106.465
-101.158
-95.701
-90.084
-84.299
-78.341
-72.198
-65.855
-59.299
-52.518
-45.509
-38.274
-30.815
-23.138
-15.254
-7.179
1.07
9.468
17.995
26.627
35.343
44.118
52.926
61.738
70.527
79.263
87.915
96.451
104.837
113.039
121.022
128.753
136.198
143.323
150.094
156.482
162.455
167.984
173.043
177.605
181.648
185.151
188.095
190.465
192.249
193.435
194.019
193.996
193.367
192.134
190.304
187.885
184.889
181.333
177.233
172.61
167.487
161.889
155.844
149.383
142.536
135.34
127.828
120.039
112.01
103.78
95.389
86.877
78.283
69.648
61.011
52.41
43.884
35.47
27.202
19.115
11.241
3.609
-3.752
-10.815
-17.559
-23.962
-30.005
-35.671
-40.949
-45.826
-50.293
-54.346
-57.98
-61.194
-63.989
-66.369
-68.34
-69.91
-71.089
-71.89
-72.325
-72.411
-72.164
-71.605
-70.752
-69.626
-68.251
-66.648
-64.841
-62.855
-60.713
-58.439
-56.058
-53.594
-51.07
-48.51
-45.934
-43.366
-40.824
-38.33
-35.9
-33.552
-31.303
-29.167
-27.156
-25.284
-23.561
-21.996
-20.597
-19.369
-18.319
-17.449
-16.762
-16.259
-15.938
-15.797
-15.834
-16.045
-16.422
-16.961
-17.652
-18.487
-19.458
-20.553
-21.761
-23.073
-24.476
-25.959
-27.51
-29.117
-30.769
-32.455
-34.162
-35.881
-37.601
-39.311
-41.002
-42.666
-44.293
-45.875
-47.406
-48.878
-50.286
-51.625
-52.888
-54.072
-55.173
-56.189
-57.117
-57.955
-58.703
-59.361
-59.929
-60.409
-60.802
-61.111
-61.338
-61.486
-61.558
-61.558
-61.488
-61.351
-61.15
-60.887
-60.566
-60.188
-59.757
-59.273
-58.738
-58.154
-57.521
-56.841
-56.114
-55.339
-54.516
-53.647
-52.731
-51.769
-50.76
-49.705
-48.603
-47.457
-46.265
-45.029
-43.748
-42.422
-41.052
-39.64
-38.187
-36.693
-35.162
-33.598
-32.007
-30.395
-28.772
-27.144
-25.521
-23.912
-22.328
-20.778
-19.27
-17.809
-16.405
-15.066
-13.807
-12.638
-11.568
-10.605
-9.759
-9.037
-8.449
-7.998
-7.68
-7.495
-7.443
-7.534
-7.791
-8.227
-8.847
-9.656
-10.652
-11.83
-13.185
-14.693
-16.31
-17.997
-19.713
-21.429
-23.133
-24.793
-26.369
-27.805
-29.029
-29.988
-30.654
-30.987
-30.97
-30.611
-29.936
-29.012
-27.945
-26.819
-25.732
-24.787
-24.067
-23.681
-23.715
-24.273
-25.544
-27.638
-30.548
-34.132
-38.041
-41.878
-45.329
-47.986
-49.303
-48.908
-46.665
-42.97
-38.809
-35.11
-32.728
-32.473
-34.966
-40.88
-49.685
-58.666
-64.648
-64.333
-56.227
-42.808
-25.356
-2.497
29.392
79.11
153.41
252.5
373.422
506.485
639.201
761.99
862.832
929.711
951.68
917.019
821.542
670.967
481.771
281.321
97.982
-44.517
-133.662
-172.418
-170.902
-144.205
-107.574
-69.345
-37.703
-17.906
-8.783
-8.796
-11.87
-10.559
-4.058
5.888
15.44
19.493
17.245
10.523
1.343
-7.735
-15.13
-20.396
-23.349
-24.082
-22.95
-20.482
-17.111
-13.371
-10.045
-7.677
-6.548
-6.814
-8.343
-10.846
-14.112
-17.811
-21.459
-24.754
-27.512
-29.616
-31.1
-31.995
-32.281
-31.994
-31.212
-29.976
-28.331
-26.305
-23.887
-21.11
-18.031
-14.715
-11.246
-7.677
-4.039
-0.355
3.358
7.093
10.841
14.609
18.417
22.274
26.184
30.148
34.163
38.235
42.372
46.585
50.882
55.268
59.741
64.3
68.939
73.653
78.428
83.252
88.106
92.975
97.846
102.702
107.529
112.31
117.025
121.658
126.19
130.6
134.868
138.971
142.889
146.597
150.076
153.303
156.257
158.918
161.265
163.28
164.943
166.24
167.153
167.669
167.775
167.461
166.718
165.54
163.922
161.863
159.363
156.425
153.056
149.263
145.057
140.45
135.458
130.098
124.389
118.352
112.01
105.388
98.512
91.41
84.112
76.646
69.045
61.34
53.563
45.747
37.923
30.125
22.384
14.731
7.199
-0.184
-7.388
-14.386
-21.15
-27.657
-33.883
-39.807
-45.411
-50.678
-55.592
-60.142
-64.318
-68.112
-71.518
-74.533
-77.157
-79.39
-81.236
-82.7
-83.789
-84.513
-84.883
-84.91
-84.608
-83.994
-83.082
-81.892
-80.442
-78.751
-76.839
-74.729
-72.442
-70
-67.424
-64.738
-61.965
-59.125
-56.241
-53.336
-50.428
-47.539
-44.688
-41.893
-39.171
-36.539
-34.011
-31.602
-29.322
-27.184
-25.197
-23.369
-21.708
-20.219
-18.906
-17.774
-16.823
-16.056
-15.471
-15.067
-14.841
-14.791
-14.912
-15.197
-15.642
-16.238
-16.978
-17.853
-18.854
-19.971
-21.193
-22.51
-23.911
-25.384
-26.918
-28.501
-30.123
-31.772
-33.438
-35.111
-36.782
-38.44
-40.077
-41.686
-43.258
-44.786
-46.266
-47.691
-49.056
-50.359
-51.595
-52.762
-53.857
-54.88
-55.829
-56.705
-57.506
-58.233
-58.888
-59.473
-59.989
-60.44
-60.83
-61.161
-61.438
-61.665
-61.847
-61.988
-62.093
-62.164
-62.207
-62.224
-62.219
-62.197
-62.161
-62.111
-62.052
-61.984
-61.908
-61.826
-61.737
-61.639
-61.533
-61.417
-61.29
-61.15
-60.995
-60.825
-60.636
-60.427
-60.197
-59.944
-59.666
-59.36
-59.024
-58.656
-58.255
-57.82
-57.35
-56.844
-56.305
-55.736
-55.141
-54.525
-53.893
-53.248
-52.598
-51.948
-51.302
-50.664
-50.037
-49.424
-48.833
-48.272
-47.749
-47.269
-46.838
-46.461
-46.144
-45.893
-45.708
-45.581
-45.51
-45.496
-45.548
-45.688
-45.927
-46.268
-46.715
-47.265
-47.913
-48.653
-49.456
-50.275
-51.068
-51.797
-52.433
-52.968
-53.372
-53.601
-53.609
-53.328
-52.715
-51.751
-50.41
-48.672
-46.555
-44.088
-41.339
-38.441
-35.508
-32.647
-29.992
-27.641
-25.691
-24.281
-23.564
-23.656
-24.617
-26.36
-28.63
-31.149
-33.611
-35.632
-36.762
-36.59
-34.854
-31.695
-27.81
-24.017
-21.042
-19.736
-20.856
-24.855
-32.128
-41.62
-50.209
-54.858
-52.448
-41.437
-23.81
-0.443
29.598
68.946
124.833
202.525
302.095
420.569
547.894
671.961
783.034
869.636
922.237
932.095
889.537
791.749
643.833
460.57
267.69
91.397
-47.765
-139.053
-187.314
-203.738
-199.09
-184.352
-163.297
-138.604
-117.267
-101.738
-93.664
-91.813
-88.46
-80.228
-67.687
-53.465
-43.247
-39.385
-40.911
-46.07
-52.419
-58.643
-64.107
-68.092
-70.348
-70.779
-69.537
-67.174
-64.1
-60.763
-57.895
-56.047
-55.514
-56.415
-58.57
-61.656
-65.381
-69.362
-73.161
-76.495
-79.201
-81.211
-82.555
-83.263
-83.356
-82.894
-81.951
-80.576
-78.797
-76.625
-74.074
-71.186
-68.031
-64.686
-61.207
-57.624
-53.951
-50.194
-46.353
-42.428
-38.4
-34.239
-29.927
-25.453
-20.813
-16.007
-11.027
-5.86
-0.494
5.081
10.873
16.881
23.104
29.536
36.166
42.98
49.958
57.078
64.317
71.656
79.073
86.546
94.052
101.564
109.057
116.504
123.878
131.147
138.282
145.249
152.02
158.562
164.845
170.839
176.514
181.843
186.798
191.354
195.487
199.176
202.398
205.137
207.377
209.104
210.308
210.98
211.115
210.71
209.766
208.284
206.272
203.737
200.689
197.142
193.112
188.614
183.67
178.301
172.53
166.382
159.886
153.068
145.961
138.593
130.996
123.203
115.247
107.16
98.974
90.722
82.435
74.144
65.88
57.672
49.548
41.534
33.657
25.939
18.403
11.069
3.956
-2.921
-9.545
-15.904
-21.987
-27.784
-33.288
-38.491
-43.391
-47.983
-52.267
-56.243
-59.912
-63.278
-66.346
-69.12
-71.607
-73.816
-75.754
-77.431
-78.858
-80.045
-81.003
-81.745
-82.283
-82.628
-82.794
-82.793
-82.638
-82.341
-81.915
-81.372
-80.724
-79.982
-79.158
-78.263
-77.309
-76.304
-75.26
-74.185
-73.091
-71.984
-70.874
-69.769
-68.677
-67.605
-66.559
-65.547
-64.574
-63.646
-62.768
-61.944
-61.18
-60.479
-59.845
-59.281
-58.789
-58.372
-58.032
-57.771
-57.59
-57.49
-57.472
-57.537
-57.684
-57.913
-58.224
-58.617
-59.089
-59.64
-60.268
-60.971
-61.748
-62.596
-63.513
-64.495
-65.54
-66.644
-67.805
-69.019
-70.281
-71.59
-72.94
-74.328
-75.75
-77.201
-78.678
-80.175
-81.688
-83.213
-84.746
-86.28
-87.812
-89.336
-90.85
-92.346
-93.822
-95.271
-96.689
-98.072
-99.413
-100.708
-101.951
-103.137
-104.26
-105.316
-106.3
-107.206
-108.029
-108.765
-109.408
-109.955
-110.399
-110.736
-110.962
-111.071
-111.061
-110.929
-110.671
-110.285
-109.769
-109.121
-108.343
-107.433
-106.392
-105.221
-103.923
-102.499
-100.955
-99.295
-97.525
-95.653
-93.688
-91.641
-89.525
-87.354
-85.142
-82.903
-80.654
-78.41
-76.188
-74.002
-71.867
-69.798
-67.812
-65.928
-64.167
-62.545
-61.079
-59.787
-58.683
-57.784
-57.103
-56.642
-56.406
-56.402
-56.642
-57.147
-57.936
-59.014
-60.385
-62.049
-63.996
-66.216
-68.684
-71.349
-74.168
-77.098
-80.104
-83.167
-86.264
-89.353
-92.384
-95.297
-98.031
-100.561
-102.856
-104.881
-106.637
-108.151
-109.485
-110.759
-112.068
-113.482
-115.086
-116.956
-119.178
-121.856
-125.049
-128.827
-133.322
-138.58
-144.568
-151.128
-157.881
-164.404
-170.337
-175.209
-178.483
-179.774
-178.897
-176.185
-172.488
-168.598
-165.299
-163.378
-163.5
-166.476
-171.878
-177.057
-179.044
-174.8
-163.339
-147.917
-130.229
-108.927
-79.794
-32.761
39.796
138.427
259.86
393.355
525.786
647.352
746.018
810.234
829.265
791.388
692.866
539.775
348.676
147.205
-36.915
-181.025
-272.364
-313.583
-313.513
-284.824
-242.818
-197.059
-158.197
-136.113
-131.953
-144.255
-164.967
-181.627
-189.284
-187.329
-179.071
-171.354
-166.351
-162.932
-159.651
-154.269
-146.429
-137.384
-128.024
-119.119
-111.253
-104.673
-99.512
-95.813
-93.444
-92.156
-91.772
-92.165
-93.165
-94.601
-96.292
-98.03
-99.634
-100.946
-101.833
-102.2
-101.988
-101.165
-99.721
-97.67
-95.046
-91.903
-88.291
-84.255
-79.839
-75.082
-70.043
-64.79
-59.395
-53.931
-48.449
-42.98
-37.542
-32.147
-26.793
-21.473
-16.166
-10.845
-5.493
-0.098
5.349
10.852
16.419
22.062
27.787
33.603
39.511
45.512
51.602
57.776
64.025
70.336
76.692
83.076
89.47
95.857
102.22
108.541
114.802
120.983
127.065
133.029
138.853
144.516
149.995
155.267
160.31
165.103
169.623
173.851
177.766
181.349
184.584
187.455
189.945
192.042
193.735
195.013
195.867
196.293
196.286
195.844
194.966
193.656
191.918
189.758
187.186
184.213
180.85
177.114
173.019
168.585
163.831
158.776
153.444
147.858
142.041
136.02
129.819
123.465
116.984
110.402
103.747
97.043
90.316
83.591
76.893
70.245
63.668
57.186
50.817
44.581
38.495
32.575
26.837
21.293
15.955
10.832
5.933
1.264
-3.169
-7.363
-11.317
-15.029
-18.499
-21.731
-24.725
-27.488
-30.023
-32.336
-34.434
-36.325
-38.016
-39.517
-40.835
-41.98
-42.961
-43.787
-44.469
-45.014
-45.433
-45.735
-45.928
-46.021
-46.022
-45.938
-45.777
-45.546
-45.25
-44.895
-44.485
-44.025
-43.518
-42.967
-42.375
-41.742
-41.072
-40.364
-39.62
-38.84
-38.023
-37.169
-36.277
-35.347
-34.378
-33.369
-32.318
-31.226
-30.09
-28.912
-27.689
-26.423
-25.113
-23.759
-22.362
-20.923
-19.443
-17.924
-16.369
-14.78
-13.161
-11.515
-9.847
-8.16
-6.461
-4.754
-3.045
-1.34
0.356
2.037
3.696
5.327
6.924
8.482
9.995
11.458
12.864
14.211
15.493
16.706
17.848
18.915
19.904
20.815
21.645
22.394
23.061
23.649
24.157
24.59
24.95
25.243
25.471
25.642
25.762
25.836
25.873
25.88
25.864
25.833
25.796
25.762
25.737
25.732
25.752
25.805
25.897
26.036
26.224
26.466
26.765
27.124
27.544
28.026
28.57
29.175
29.84
30.561
31.335
32.155
33.012
33.894
34.79
35.688
36.573
37.429
38.241
38.995
39.678
40.28
40.788
41.187
41.465
41.607
41.602
41.44
41.111
40.603
39.911
39.029
37.958
36.704
35.266
33.641
31.822
29.793
27.547
25.086
22.411
19.525
16.438
13.168
9.747
6.227
2.657
-0.924
-4.468
-7.943
-11.304
-14.491
-17.447
-20.108
-22.412
-24.331
-25.842
-26.928
-27.594
-27.851
-27.742
-27.375
-26.874
-26.359
-25.955
-25.736
-25.798
-26.307
-27.368
-29.031
-31.219
-33.634
-35.954
-37.963
-39.38
-39.863
-39.176
-37.135
-33.929
-30.369
-27.259
-25.187
-24.865
-26.89
-31.644
-39.504
-49.04
-56.826
-60.117
-56.151
-44.84
-29.648
-10.495
14.37
49.699
105.152
183.468
282.22
395.433
509.933
616.714
709.273
778.631
817.862
816.818
765.579
662.902
514.377
335.04
147.396
-27.029
-169.137
-265.994
-314.306
-317.01
-282.756
-225.806
-161.01
-102.883
-63.272
-45.022
-44.352
-52.511
-58.776
-58.865
-53.782
-47.885
-47.038
-52.502
-62.166
-72.937
-81.282
-85.959
-87.342
-85.853
-82.321
-77.52
-72.154
-67.248
-63.551
-61.33
-60.635
-61.324
-63.145
-65.866
-69.117
-72.378
-75.274
-77.615
-79.319
-80.426
-80.972
-80.937
-80.337
-79.237
-77.688
-75.735
-73.407
-70.703
-67.648
-64.294
-60.707
-56.968
-53.133
-49.231
-45.282
-41.296
-37.276
-33.229
-29.151
-25.022
-20.829
-16.562
-12.212
-7.779
-3.255
1.374
6.124
11.011
16.043
21.222
26.546
32.015
37.622
43.359
49.215
55.171
61.214
67.329
73.503
79.721
85.966
92.218
98.458
104.665
110.817
116.891
122.861
128.701
134.385
139.887
145.181
150.242
155.042
159.557
163.762
167.635
171.154
174.297
177.046
179.384
181.295
182.767
183.789
184.354
184.455
184.088
183.253
181.952
180.187
177.965
175.294
172.185
168.651
164.706
160.368
155.656
150.59
145.194
139.492
133.51
127.277
120.82
114.169
107.356
100.411
93.365
86.25
79.095
71.932
64.79
57.698
50.683
43.772
36.989
30.358
23.901
17.638
11.586
5.763
0.183
-5.141
-10.197
-14.978
-19.474
-23.681
-27.594
-31.211
-34.531
-37.554
-40.285
-42.725
-44.881
-46.759
-48.367
-49.714
-50.811
-51.669
-52.299
-52.715
-52.928
-52.953
-52.802
-52.49
-52.029
-51.433
-50.715
-49.888
-48.963
-47.954
-46.87
-45.723
-44.524
-43.281
-42.004
-40.703
-39.384
-38.057
-36.727
-35.403
-34.091
-32.795
-31.523
-30.28
-29.069
-27.895
-26.763
-25.675
-24.634
-23.645
-22.709
-21.828
-21.006
-20.244
-19.543
-18.907
-18.338
-17.836
-17.405
-17.047
-16.764
-16.559
-16.434
-16.391
-16.435
-16.567
-16.79
-17.107
-17.52
-18.032
-18.644
-19.359
-20.177
-21.1
-22.129
-23.263
-24.503
-25.847
-27.296
-28.845
-30.494
-32.238
-34.075
-36
-38.008
-40.093
-42.25
-44.471
-46.749
-49.077
-51.445
-53.844
-56.263
-58.693
-61.122
-63.536
-65.925
-68.274
-70.57
-72.8
-74.951
-77.009
-78.96
-80.791
-82.488
-84.039
-85.431
-86.653
-87.693
-88.541
-89.187
-89.624
-89.845
-89.842
-89.612
-89.15
-88.454
-87.525
-86.362
-84.967
-83.343
-81.496
-79.431
-77.158
-74.686
-72.027
-69.193
-66.204
-63.076
-59.83
-56.488
-53.07
-49.599
-46.1
-42.596
-39.108
-35.659
-32.27
-28.964
-25.768
-22.705
-19.799
-17.07
-14.538
-12.223
-10.148
-8.327
-6.767
-5.475
-4.462
-3.742
-3.341
-3.275
-3.547
-4.16
-5.115
-6.404
-8.019
-9.936
-12.108
-14.489
-17.035
-19.712
-22.503
-25.371
-28.267
-31.131
-33.894
-36.509
-38.952
-41.196
-43.21
-44.99
-46.556
-47.971
-49.34
-50.746
-52.262
-53.967
-55.935
-58.26
-61.034
-64.351
-68.334
-73.051
-78.478
-84.498
-90.88
-97.328
-103.55
-109.156
-113.63
-116.573
-117.778
-117.408
-115.998
-114.07
-112.205
-111.086
-111.369
-113.835
-118.328
-122.982
-125.654
-124.203
-117.901
-108.946
-98.329
-84.094
-61.769
-23.132
38.38
122.515
224.631
335.835
445.303
546.882
635.773
705.404
749.255
756.869
717.701
628.727
493.369
325.126
146.914
-18.703
-151.081
-237.145
-277.396
-277.819
-249.865
-208.744
-164.632
-128.51
-109.147
-106.287
-117.013
-132.9
-142.949
-143.815
-136.547
-125.09
-115.219
-108.598
-104.118
-100.662
-97.17
-93.502
-89.99
-86.933
-84.637
-83.259
-82.968
-83.571
-84.427
-85.3
-86.362
-87.716
-89.498
-91.676
-93.985
-96.322
-98.742
-101.144
-103.298
-105.011
-106.106
-106.512
-106.288
-105.462
-104.043
-102.071
-99.616
-96.744
-93.524
-90.014
-86.249
-82.281
-78.178
-73.992
-69.763
-65.519
-61.275
-57.035
-52.805
-48.574
-44.319
-40.023
-35.679
-31.279
-26.824
-22.31
-17.731
-13.079
-8.352
-3.548
1.334
6.294
11.329
16.435
21.601
26.814
32.059
37.322
42.591
47.853
53.096
58.304
63.464
68.561
73.582
78.51
83.328
88.019
92.563
96.942
101.141
105.141
108.926
112.479
115.784
118.827
121.595
124.073
126.249
128.113
129.653
130.861
131.729
132.251
132.422
132.237
131.695
130.796
129.54
127.931
125.972
123.67
121.033
118.069
114.789
111.204
107.329
103.176
98.761
94.103
89.217
84.123
78.841
73.389
67.789
62.062
56.228
50.308
44.325
38.298
32.249
26.199
20.168
14.176
8.243
2.387
-3.372
-9.019
-14.535
-19.906
-25.116
-30.151
-34.999
-39.648
-44.088
-48.309
-52.302
-56.061
-59.579
-62.851
-65.873
-68.641
-71.153
-73.409
-75.409
-77.152
-78.642
-79.881
-80.874
-81.625
-82.14
-82.425
-82.488
-82.338
-81.982
-81.431
-80.694
-79.783
-78.708
-77.481
-76.116
-74.623
-73.016
-71.307
-69.51
-67.638
-65.704
-63.72
-61.7
-59.657
-57.603
-55.552
-53.515
-51.506
-49.536
-47.616
-45.759
-43.975
-42.274
-40.665
-39.156
-37.756
-36.472
-35.31
-34.276
-33.375
-32.611
-31.986
-31.503
-31.164
-30.968
-30.915
-31.005
-31.234
-31.601
-32.102
-32.734
-33.492
-34.372
-35.368
-36.476
-37.688
-38.999
-40.4
-41.886
-43.448
-45.078
-46.768
-48.509
-50.294
-52.114
-53.961
-55.828
-57.706
-59.586
-61.462
-63.326
-65.17
-66.987
-68.771
-70.516
-72.215
-73.863
-75.456
-76.989
-78.458
-79.857
-81.184
-82.434
-83.604
-84.688
-85.683
-86.584
-87.388
-88.092
-88.692
-89.186
-89.57
-89.841
-89.997
-90.035
-89.952
-89.746
-89.414
-88.954
-88.365
-87.647
-86.797
-85.817
-84.707
-83.468
-82.1
-80.606
-78.987
-77.244
-75.381
-73.4
-71.307
-69.104
-66.801
-64.403
-61.921
-59.366
-56.753
-54.091
-51.396
-48.684
-45.972
-43.276
-40.613
-37.994
-35.434
-32.948
-30.554
-28.268
-26.103
-24.069
-22.179
-20.444
-18.879
-17.498
-16.304
-15.293
-14.458
-13.801
-13.331
-13.069
-13.028
-13.205
-13.602
-14.218
-15.053
-16.106
-17.356
-18.752
-20.239
-21.764
-23.291
-24.814
-26.32
-27.787
-29.163
-30.36
-31.301
-31.948
-32.272
-32.268
-31.924
-31.186
-30.085
-28.81
-27.647
-26.892
-26.707
-27.018
-27.708
-28.863
-30.609
-32.88
-35.263
-37.105
-37.903
-37.654
-36.665
-34.902
-32.047
-27.97
-23.075
-18.349
-14.941
-13.536
-14.227
-17.379
-23.825
-33.307
-44.257
-54.841
-62.27
-66.147
-69.092
-70.072
-65.666
-48.714
-7.326
62.754
157.84
269.477
383.006
490.263
591.938
689.46
785.049
873.149
937.194
959.811
926.332
831.282
683.523
501.375
310.299
135.867
-3.172
-96.7
-147.81
-165.76
-160.066
-141.655
-115.28
-85.637
-61.497
-46.102
-41.617
-46.314
-51.461
-53.258
-51.594
-48.239
-48.684
-54.696
-64.501
-75.94
-85.818
-92.466
-95.808
-95.923
-93.255
-88.454
-82.211
-75.378
-68.904
-63.416
-59.294
-56.759
-55.802
-56.284
-57.964
-60.495
-63.428
-66.418
-69.213
-71.598
-73.492
-74.849
-75.624
-75.828
-75.492
-74.639
-73.296
-71.497
-69.256
-66.596
-63.558
-60.178
-56.517
-52.643
-48.621
-44.52
-40.389
-36.259
-32.151
-28.076
-24.037
-20.028
-16.035
-12.034
-8.008
-3.944
0.171
4.348
8.602
12.95
17.404
21.975
26.669
31.489
36.436
41.508
46.699
51.999
57.396
62.874
68.417
74.011
79.638
85.282
90.924
96.543
102.119
107.631
113.056
118.37
123.548
128.563
133.389
138
142.368
146.469
150.275
153.763
156.909
159.691
162.088
164.082
165.655
166.794
167.485
167.721
167.492
166.796
165.631
163.999
161.903
159.352
156.355
152.924
149.074
144.822
140.189
135.194
129.861
124.216
118.284
112.094
105.675
99.059
92.277
85.362
78.346
71.262
64.144
57.024
49.933
42.903
35.963
29.143
22.47
15.969
9.665
3.579
-2.269
-7.862
-13.183
-18.221
-22.963
-27.403
-31.534
-35.352
-38.854
-42.042
-44.917
-47.483
-49.745
-51.711
-53.389
-54.79
-55.924
-56.804
-57.444
-57.858
-58.061
-58.068
-57.896
-57.562
-57.08
-56.469
-55.744
-54.922
-54.017
-53.046
-52.022
-50.959
-49.871
-48.77
-47.666
-46.571
-45.492
-44.439
-43.419
-42.438
-41.501
-40.613
-39.777
-38.997
-38.273
-37.607
-37
-36.451
-35.961
-35.526
-35.147
-34.82
-34.543
-34.312
-34.126
-33.98
-33.87
-33.794
-33.748
-33.727
-33.729
-33.75
-33.786
-33.834
-33.89
-33.952
-34.017
-34.082
-34.144
-34.201
-34.253
-34.296
-34.329
-34.352
-34.364
-34.364
-34.352
-34.327
-34.29
-34.24
-34.178
-34.106
-34.022
-33.929
-33.827
-33.717
-33.601
-33.478
-33.351
-33.219
-33.083
-32.945
-32.805
-32.662
-32.519
-32.376
-32.233
-32.091
-31.951
-31.813
-31.679
-31.547
-31.419
-31.294
-31.172
-31.052
-30.933
-30.814
-30.694
-30.571
-30.446
-30.315
-30.176
-30.027
-29.867
-29.692
-29.499
-29.286
-29.05
-28.787
-28.496
-28.174
-27.819
-27.429
-27
-26.533
-26.026
-25.476
-24.882
-24.242
-23.556
-22.823
-22.042
-21.214
-20.34
-19.423
-18.469
-17.482
-16.468
-15.434
-14.388
-13.337
-12.288
-11.249
-10.225
-9.223
-8.247
-7.306
-6.411
-5.572
-4.797
-4.096
-3.477
-2.946
-2.514
-2.187
-1.96
-1.834
-1.811
-1.899
-2.121
-2.493
-3.022
-3.711
-4.56
-5.563
-6.714
-7.987
-9.339
-10.723
-12.1
-13.435
-14.717
-15.923
-17.016
-17.946
-18.652
-19.083
-19.219
-19.044
-18.537
-17.708
-16.594
-15.268
-13.861
-12.5
-11.289
-10.333
-9.737
-9.608
-10.056
-11.203
-13.191
-16.11
-19.975
-24.685
-29.978
-35.514
-40.953
-45.84
-49.618
-51.858
-52.283
-50.975
-48.596
-45.894
-43.494
-42.218
-42.838
-45.815
-51.637
-59.264
-65.535
-67.596
-62.561
-49.273
-30.254
-6.347
23.784
63.266
120.016
199.447
301.34
422.616
552.986
680
793.427
880.823
932.028
938.891
893.422
794.934
649.625
471.17
282.633
107.47
-34.776
-132.092
-186.982
-208.139
-205.206
-189.596
-165.579
-136.902
-111.737
-92.905
-82.816
-80.604
-77.832
-70.79
-59.621
-46.534
-37.711
-35.799
-39.943
-48.585
-58.967
-69.469
-79.252
-87.232
-92.966
-96.331
-97.392
-96.577
-94.246
-90.74
-86.785
-83.238
-80.644
-79.253
-78.999
-79.619
-80.88
-82.536
-84.246
-85.622
-86.41
-86.502
-85.897
-84.666
-82.866
-80.543
-77.755
-74.58
-71.074
-67.266
-63.189
-58.87
-54.359
-49.731
-45.039
-40.317
-35.586
-30.858
-26.136
-21.425
-16.713
-11.976
-7.198
-2.371
2.505
7.431
12.421
17.502
22.702
28.037
33.507
39.104
44.822
50.655
56.593
62.615
68.686
74.784
80.903
87.066
93.292
99.588
105.935
112.297
118.639
124.944
131.218
137.47
143.691
149.872
156.011
162.136
168.285
174.461
180.609
186.624
192.4
197.87
202.992
207.75
212.114
216.036
219.456
222.323
224.61
226.282
227.286
227.527
226.902
225.364
222.949
219.757
215.885
211.394
206.321
200.695
194.566
187.998
181.047
173.75
166.129
158.227
150.116
141.907
133.719
125.622
117.627
109.699
101.812
93.966
86.176
78.452
70.788
63.181
55.646
48.219
40.944
33.842
26.915
20.139
13.492
6.972
0.601
-5.585
-11.556
-17.298
-22.797
-28.038
-32.998
-37.664
-42.04
-46.142
-49.99
-53.595
-56.959
-60.083
-62.969
-65.624
-68.061
-70.29
-72.323
-74.17
-75.841
-77.351
-78.715
-79.944
-81.046
-82.023
-82.88
-83.622
-84.255
-84.784
-85.213
-85.546
-85.789
-85.946
-86.025
-86.03
-85.963
-85.829
-85.632
-85.373
-85.057
-84.688
-84.267
-83.799
-83.289
-82.739
-82.155
-81.543
-80.906
-80.251
-79.584
-78.91
-78.236
-77.569
-76.915
-76.28
-75.671
-75.095
-74.559
-74.069
-73.632
-73.253
-72.938
-72.694
-72.524
-72.433
-72.423
-72.498
-72.66
-72.911
-73.252
-73.683
-74.204
-74.813
-75.509
-76.291
-77.153
-78.092
-79.103
-80.179
-81.315
-82.503
-83.735
-85.003
-86.299
-87.612
-88.936
-90.261
-91.577
-92.876
-94.149
-95.387
-96.583
-97.728
-98.813
-99.832
-100.776
-101.64
-102.418
-103.105
-103.694
-104.183
-104.568
-104.846
-105.015
-105.072
-105.017
-104.849
-104.567
-104.173
-103.669
-103.057
-102.339
-101.519
-100.603
-99.595
-98.502
-97.33
-96.083
-94.768
-93.392
-91.962
-90.484
-88.964
-87.41
-85.829
-84.234
-82.634
-81.039
-79.458
-77.902
-76.38
-74.903
-73.479
-72.11
-70.801
-69.557
-68.385
-67.293
-66.288
-65.373
-64.553
-63.833
-63.219
-62.715
-62.318
-62.019
-61.814
-61.7
-61.683
-61.777
-61.99
-62.324
-62.784
-63.368
-64.071
-64.887
-65.79
-66.741
-67.702
-68.638
-69.526
-70.351
-71.083
-71.687
-72.124
-72.345
-72.32
-72.024
-71.429
-70.533
-69.363
-67.962
-66.409
-64.794
-63.2
-61.735
-60.512
-59.631
-59.207
-59.309
-60.025
-61.534
-63.916
-67.139
-71.091
-75.424
-79.739
-83.762
-87.085
-89.141
-89.614
-88.44
-85.861
-82.683
-79.854
-78.181
-78.548
-82.033
-88.641
-96.79
-104.43
-108.753
-108.657
-106.041
-101.986
-95.547
-81.966
-52.763
-0.374
78.892
182.955
305.322
436.908
566.48
681.667
768.487
811.387
797.826
722.972
589.778
412.818
215.724
22.557
-142.609
-263.092
-334.608
-360.116
-349.141
-314.612
-267.375
-216.372
-171.115
-137.941
-118.063
-109.951
-106.142
-98.59
-85.77
-69.196
-53.716
-45.111
-44.33
-49.868
-59.794
-71.335
-82.822
-93.557
-102.546
-109.32
-113.997
-116.65
-117.417
-116.663
-114.846
-112.577
-110.663
-109.531
-109.171
-109.462
-110.195
-111.182
-112.301
-113.331
-113.949
-113.98
-113.389
-112.209
-110.555
-108.492
-106.033
-103.214
-100.104
-96.761
-93.241
-89.592
-85.82
-81.936
-77.954
-73.883
-69.737
-65.518
-61.218
-56.822
-52.318
-47.7
-42.971
-38.132
-33.183
-28.118
-22.928
-17.603
-12.141
-6.539
-0.795
5.092
11.122
17.292
23.592
30.011
36.535
43.155
49.859
56.637
63.475
70.356
77.265
84.183
91.092
97.97
104.794
111.54
118.182
124.695
131.054
137.232
143.205
148.946
154.428
159.628
164.52
169.08
173.285
177.113
180.542
183.555
186.134
188.264
189.932
191.128
191.844
192.074
191.817
191.071
189.839
188.127
185.941
183.293
180.196
176.664
172.715
168.369
163.649
158.578
153.182
147.49
141.529
135.331
128.925
122.345
115.621
108.788
101.876
94.92
87.95
80.998
74.094
67.268
60.547
53.959
47.526
41.274
35.221
29.387
23.788
18.439
13.353
8.538
4.003
-0.245
-4.204
-7.872
-11.247
-14.332
-17.131
-19.649
-21.891
-23.867
-25.585
-27.055
-28.289
-29.299
-30.097
-30.696
-31.11
-31.352
-31.436
-31.376
-31.186
-30.878
-30.465
-29.959
-29.372
-28.714
-27.995
-27.225
-26.411
-25.561
-24.681
-23.778
-22.856
-21.921
-20.976
-20.025
-19.071
-18.117
-17.165
-16.218
-15.276
-14.343
-13.419
-12.507
-11.607
-10.723
-9.856
-9.008
-8.181
-7.378
-6.602
-5.855
-5.141
-4.463
-3.825
-3.23
-2.684
-2.191
-1.756
-1.384
-1.08
-0.851
-0.701
-0.635
-0.658
-0.775
-0.99
-1.307
-1.728
-2.257
-2.897
-3.647
-4.51
-5.484
-6.569
-7.763
-9.063
-10.465
-11.966
-13.56
-15.241
-17.003
-18.839
-20.743
-22.707
-24.722
-26.78
-28.873
-30.989
-33.12
-35.255
-37.384
-39.495
-41.578
-43.625
-45.623
-47.564
-49.439
-51.24
-52.958
-54.586
-56.117
-57.545
-58.864
-60.07
-61.16
-62.132
-62.985
-63.718
-64.332
-64.831
-65.218
-65.494
-65.666
-65.737
-65.713
-65.599
-65.402
-65.128
-64.785
-64.38
-63.925
-63.432
-62.913
-62.38
-61.846
-61.323
-60.824
-60.361
-59.941
-59.57
-59.253
-58.998
-58.812
-58.705
-58.68
-58.741
-58.892
-59.139
-59.483
-59.923
-60.454
-61.063
-61.745
-62.496
-63.321
-64.232
-65.234
-66.329
-67.515
-68.788
-70.141
-71.558
-73.011
-74.452
-75.839
-77.134
-78.304
-79.326
-80.169
-80.793
-81.158
-81.216
-80.925
-80.257
-79.209
-77.786
-76.018
-73.953
-71.638
-69.174
-66.69
-64.314
-62.179
-60.397
-59.031
-58.181
-58.033
-58.688
-60.151
-62.306
-64.795
-67.255
-69.454
-71.059
-71.6
-70.754
-68.408
-64.823
-60.814
-57.326
-55.132
-54.973
-57.751
-63.489
-70.77
-77.648
-81.501
-81.139
-78.399
-74.242
-66.903
-51.007
-17.016
41.843
125.33
226.7
334.203
438.376
534.769
621.548
695.843
748.388
764.508
729.115
634.53
485.324
298.754
103.308
-72.359
-206.144
-285.888
-316.199
-309.268
-276.834
-231.422
-179.284
-125.337
-79.913
-50.07
-39.177
-45.414
-58.409
-68.721
-72.227
-68.845
-63.091
-59.267
-57.941
-58.248
-58.316
-56.015
-51.23
-44.735
-37.44
-30.745
-25.45
-21.711
-19.713
-19.58
-21.322
-24.935
-30.157
-36.434
-43.273
-50.27
-57.15
-63.786
-70.058
-75.857
-81.119
-85.819
-89.962
-93.556
-96.569
-98.924
-100.518
-101.275
-101.202
-100.356
-98.843
-96.812
-94.361
-91.553
-88.458
-85.111
-81.538
-77.763
-73.767
-69.514
-65.001
-60.244
-55.282
-50.161
-44.89
-39.455
-33.83
-27.977
-21.872
-15.504
-8.854
-1.915
5.307
12.797
20.519
28.429
36.491
44.679
52.969
61.339
69.76
78.197
86.614
94.975
103.239
111.367
119.313
127.036
134.496
141.657
148.488
154.961
161.046
166.715
171.942
176.701
180.968
184.72
187.935
190.593
192.678
194.176
195.078
195.376
195.067
194.149
192.625
190.502
187.787
184.493
180.634
176.227
171.294
165.856
159.94
153.574
146.787
139.614
132.088
124.247
116.128
107.772
99.216
90.504
81.674
72.768
63.826
54.888
45.994
37.183
28.492
19.958
11.617
3.502
-4.356
-11.927
-19.184
-26.103
-32.662
-38.841
-44.625
-50
-54.954
-59.479
-63.571
-67.226
-70.445
-73.231
-75.591
-77.532
-79.066
-80.207
-80.971
-81.376
-81.443
-81.193
-80.649
-79.837
-78.781
-77.509
-76.048
-74.424
-72.666
-70.802
-68.859
-66.864
-64.844
-62.825
-60.831
-58.886
-57.013
-55.232
-53.564
-52.026
-50.634
-49.403
-48.346
-47.472
-46.792
-46.31
-46.032
-45.96
-46.094
-46.432
-46.97
-47.702
-48.62
-49.715
-50.975
-52.388
-53.94
-55.617
-57.402
-59.278
-61.229
-63.238
-65.285
-67.353
-69.424
-71.48
-73.504
-75.478
-77.387
-79.215
-80.947
-82.569
-84.068
-85.432
-86.65
-87.713
-88.614
-89.344
-89.899
-90.274
-90.469
-90.482
-90.314
-89.967
-89.444
-88.751
-87.894
-86.88
-85.717
-84.414
-82.982
-81.432
-79.776
-78.024
-76.19
-74.286
-72.324
-70.317
-68.276
-66.214
-64.14
-62.067
-60.004
-57.962
-55.949
-53.975
-52.046
-50.169
-48.351
-46.597
-44.91
-43.294
-41.751
-40.282
-38.887
-37.567
-36.32
-35.145
-34.038
-32.997
-32.019
-31.1
-30.234
-29.418
-28.646
-27.913
-27.215
-26.547
-25.905
-25.286
-24.687
-24.109
-23.552
-23.018
-22.507
-22.021
-21.564
-21.138
-20.746
-20.389
-20.069
-19.787
-19.548
-19.359
-19.225
-19.152
-19.145
-19.207
-19.345
-19.566
-19.87
-20.254
-20.717
-21.261
-21.893
-22.632
-23.491
-24.472
-25.578
-26.805
-28.145
-29.59
-31.115
-32.675
-34.231
-35.744
-37.185
-38.543
-39.793
-40.897
-41.809
-42.469
-42.839
-42.901
-42.635
-42.028
-41.103
-39.895
-38.484
-36.994
-35.522
-34.164
-33.028
-32.191
-31.75
-31.8
-32.425
-33.762
-35.891
-38.8
-42.383
-46.404
-50.544
-54.505
-57.901
-60.208
-61.031
-60.152
-57.699
-54.227
-50.289
-46.5
-43.601
-42.251
-43.223
-46.384
-49.896
-51.685
-49.716
-43.204
-34.073
-23.073
-7.961
15.697
55.41
116.891
199.347
298.174
405.48
512.426
614.08
705.401
778.581
823.666
827.183
777.926
673.356
520.417
337.296
150.065
-16.193
-141.578
-216.716
-245.697
-238.67
-208.673
-168.849
-127.787
-94.13
-74.872
-71.099
-80.763
-96.275
-108.832
-115.756
-117.33
-116.981
-119.032
-123.331
-128.331
-132.492
-133.688
-131.392
-126.275
-118.883
-110.316
-101.96
-94.445
-88.06
-83.057
-79.475
-77.322
-76.623
-77.138
-78.376
-80.032
-81.916
-83.847
-85.735
-87.425
-88.742
-89.623
-90.071
-90.091
-89.683
-88.839
-87.543
-85.82
-83.717
-81.272
-78.531
-75.524
-72.293
-68.892
-65.382
-61.829
-58.275
-54.745
-51.252
-47.797
-44.374
-40.971
-37.563
-34.117
-30.604
-27
-23.281
-19.428
-15.421
-11.237
-6.859
-2.267
2.553
7.609
12.909
18.456
24.248
30.279
36.539
43.015
49.691
56.552
63.581
70.758
78.063
85.472
92.961
100.504
108.07
115.63
123.149
130.592
137.924
145.108
152.107
158.883
165.398
171.617
177.503
183.021
188.136
192.817
197.034
200.757
203.961
206.622
208.72
210.238
211.161
211.479
211.183
210.271
208.742
206.598
203.847
200.497
196.562
192.059
187.005
181.425
175.342
168.786
161.787
154.379
146.597
138.479
130.063
121.39
112.502
103.44
94.247
84.967
75.642
66.314
57.025
47.817
38.73
29.802
21.071
12.571
4.337
-3.601
-11.214
-18.476
-25.363
-31.853
-37.929
-43.574
-48.776
-53.523
-57.809
-61.629
-64.98
-67.863
-70.282
-72.241
-73.749
-74.816
-75.455
-75.679
-75.506
-74.952
-74.039
-72.786
-71.217
-69.354
-67.222
-64.846
-62.253
-59.469
-56.521
-53.435
-50.239
-46.959
-43.621
-40.252
-36.876
-33.518
-30.201
-26.948
-23.78
-20.718
-17.78
-14.984
-12.346
-9.881
-7.602
-5.521
-3.648
-1.991
-0.558
0.645
1.616
2.35
2.846
3.105
3.129
2.92
2.482
1.822
0.947
-0.136
-1.417
-2.886
-4.532
-6.343
-8.308
-10.412
-12.644
-14.99
-17.435
-19.967
-22.57
-25.231
-27.937
-30.675
-33.431
-36.194
-38.952
-41.693
-44.408
-47.085
-49.716
-52.292
-54.804
-57.245
-59.608
-61.887
-64.076
-66.171
-68.168
-70.064
-71.858
-73.547
-75.131
-76.609
-77.981
-79.248
-80.41
-81.469
-82.424
-83.276
-84.028
-84.681
-85.236
-85.695
-86.058
-86.327
-86.5
-86.58
-86.566
-86.457
-86.252
-85.951
-85.553
-85.057
-84.464
-83.771
-82.979
-82.087
-81.094
-80
-78.805
-77.508
-76.108
-74.607
-73.005
-71.303
-69.505
-67.612
-65.631
-63.568
-61.432
-59.232
-56.977
-54.677
-52.345
-49.991
-47.628
-45.265
-42.911
-40.578
-38.277
-36.026
-33.838
-31.727
-29.704
-27.784
-25.978
-24.301
-22.762
-21.36
-20.1
-18.987
-18.036
-17.272
-16.712
-16.363
-16.233
-16.322
-16.624
-17.132
-17.82
-18.637
-19.538
-20.477
-21.421
-22.354
-23.242
-24.042
-24.697
-25.136
-25.31
-25.193
-24.752
-23.97
-22.861
-21.46
-19.852
-18.169
-16.517
-15.011
-13.758
-12.841
-12.36
-12.401
-13.069
-14.529
-16.875
-20.103
-24.108
-28.631
-33.336
-37.903
-41.879
-44.645
-45.684
-44.715
-41.879
-37.709
-32.941
-28.382
-24.766
-23.075
-23.772
-25.98
-27.949
-27.33
-23.23
-17.099
-10.344
-2.818
10.892
40.187
92.677
173.22
278.457
399.208
527.135
652.75
769.202
869.364
942.134
975.267
956.574
880.546
749.918
577.688
385.971
197.507
34.341
-88.49
-167.004
-204.054
-207.965
-189.458
-157.985
-121.23
-87.854
-64.807
-53.882
-54.279
-59.729
-62.065
-59.17
-51.99
-44.158
-40.978
-43.673
-50.922
-61.023
-71.491
-80.731
-88.136
-93.363
-96.492
-97.806
-97.62
-96.223
-93.956
-91.471
-89.515
-88.538
-88.733
-90.033
-92.19
-94.995
-98.22
-101.49
-104.4
-106.682
-108.199
-108.933
-108.941
-108.247
-106.869
-104.863
-102.3
-99.242
-95.733
-91.795
-87.451
-82.751
-77.767
-72.578
-67.249
-61.819
-56.318
-50.762
-45.169
-39.55
-33.902
-28.216
-22.492
-16.732
-10.942
-5.131
0.696
6.543
12.407
18.292
24.195
30.112
36.037
41.961
47.87
53.752
59.59
65.366
71.064
76.67
82.17
87.55
92.797
97.896
102.832
107.594
112.165
116.53
120.676
124.588
128.252
131.656
134.789
137.64
140.201
142.463
144.42
146.068
147.403
148.423
149.127
149.515
149.592
149.359
148.824
147.992
146.871
145.472
143.805
141.883
139.718
137.324
134.716
131.91
128.922
125.77
122.469
119.04
115.498
111.863
108.154
104.387
100.582
96.755
92.921
89.098
85.299
81.536
77.822
74.168
70.581
67.071
63.643
60.302
57.051
53.894
50.83
47.86
44.983
42.195
39.495
36.877
34.338
31.872
29.474
27.138
24.857
22.626
20.437
18.283
16.159
14.058
11.973
9.899
7.831
5.765
3.696
1.622
-0.458
-2.547
-4.643
-6.747
-8.855
-10.964
-13.071
-15.17
-17.255
-19.319
-21.354
-23.353
-25.307
-27.207
-29.044
-30.808
-32.492
-34.085
-35.579
-36.966
-38.238
-39.386
-40.404
-41.285
-42.022
-42.612
-43.049
-43.33
-43.451
-43.411
-43.209
-42.846
-42.321
-41.638
-40.8
-39.81
-38.675
-37.402
-35.996
-34.468
-32.826
-31.08
-29.242
-27.322
-25.332
-23.283
-21.189
-19.061
-16.911
-14.751
-12.593
-10.449
-8.33
-6.247
-4.21
-2.23
-0.315
1.526
3.283
4.95
6.519
7.984
9.34
10.581
11.703
12.702
13.578
14.327
14.95
15.447
15.818
16.066
16.194
16.205
16.104
15.896
15.585
15.178
14.681
14.102
13.448
12.727
11.948
11.119
10.251
9.351
8.43
7.497
6.561
5.633
4.724
3.842
2.999
2.204
1.469
0.803
0.218
-0.277
-0.673
-0.96
-1.131
-1.176
-1.089
-0.862
-0.49
0.033
0.711
1.55
2.551
3.716
5.045
6.539
8.193
10.004
11.965
14.067
16.3
18.654
21.116
23.673
26.311
29.017
31.777
34.578
37.405
40.24
43.062
45.852
48.59
51.256
53.83
56.295
58.627
60.809
62.83
64.677
66.332
67.774
68.967
69.882
70.503
70.816
70.814
70.497
69.864
68.933
67.745
66.338
64.751
63.015
61.141
59.15
57.083
54.995
52.958
51.031
49.238
47.594
46.114
44.79
43.592
42.448
41.228
39.801
38.06
35.907
33.253
30.001
26.056
21.293
15.558
8.783
0.984
-7.711
-16.989
-26.529
-36.04
-45.072
-53.075
-59.641
-64.438
-67.514
-69.544
-71.056
-72.387
-74.11
-76.661
-80.328
-85.701
-91.935
-96
-95.474
-88.185
-73.47
-54.362
-32.279
-5.041
31.363
84.08
158.83
254.178
365.234
484.512
602.558
713.011
808.161
877.483
909.164
890.903
817.289
691.096
525.651
342.851
164.369
10.983
-103.523
-175.888
-207.79
-206.116
-181.855
-144.422
-103.523
-70.137
-48.625
-38.86
-37.62
-35.889
-29.327
-19.189
-8.238
-2.264
-4.009
-12.224
-24.681
-38.36
-51.18
-61.921
-70.003
-75.498
-78.51
-79.442
-78.953
-77.494
-75.731
-74.641
-74.736
-76.234
-79.206
-83.334
-88.3
-93.878
-99.662
-105.206
-110.256
-114.647
-118.324
-121.364
-123.785
-125.584
-126.819
-127.534
-127.767
-127.552
-126.891
-125.79
-124.285
-122.432
-120.297
-117.935
-115.374
-112.631
-109.717
-106.633
-103.385
-99.964
-96.35
-92.534
-88.512
-84.279
-79.839
-75.189
-70.319
-65.222
-59.892
-54.323
-48.518
-42.481
-36.22
-29.747
-23.077
-16.23
-9.229
-2.097
5.146
12.476
19.869
27.301
34.743
42.167
49.545
56.845
64.035
71.082
77.951
84.609
91.024
97.161
102.988
108.472
113.584
118.294
122.574
126.398
129.74
132.58
134.896
136.671
137.891
138.545
138.624
138.123
137.039
135.374
133.134
130.326
126.962
123.057
118.627
113.694
108.282
102.417
96.128
89.445
82.403
75.037
67.385
59.486
51.379
43.105
34.706
26.223
17.697
9.17
0.681
-7.729
-16.023
-24.163
-32.115
-39.845
-47.321
-54.515
-61.4
-67.953
-74.153
-79.981
-85.422
-90.464
-95.098
-99.316
-103.116
-106.495
-109.458
-112.007
-114.149
-115.896
-117.257
-118.247
-118.882
-119.179
-119.157
-118.837
-118.238
-117.384
-116.297
-115.001
-113.519
-111.875
-110.092
-108.193
-106.202
-104.141
-102.031
-99.893
-97.746
-95.609
-93.499
-91.432
-89.423
-87.484
-85.629
-83.867
-82.206
-80.656
-79.221
-77.907
-76.717
-75.654
-74.718
-73.909
-73.226
-72.667
-72.229
-71.909
-71.701
-71.603
-71.607
-71.709
-71.902
-72.18
-72.537
-72.965
-73.458
-74.009
-74.612
-75.258
-75.942
-76.656
-77.394
-78.149
-78.915
-79.686
-80.454
-81.215
-81.963
-82.693
-83.398
-84.074
-84.716
-85.318
-85.878
-86.39
-86.849
-87.253
-87.596
-87.875
-88.087
-88.226
-88.29
-88.275
-88.177
-87.992
-87.716
-87.348
-86.882
-86.317
-85.649
-84.878
-84.002
-83.019
-81.928
-80.73
-79.426
-78.015
-76.499
-74.879
-73.157
-71.336
-69.419
-67.41
-65.313
-63.132
-60.872
-58.539
-56.14
-53.679
-51.164
-48.602
-45.998
-43.362
-40.701
-38.025
-35.342
-32.66
-29.99
-27.341
-24.725
-22.151
-19.629
-17.167
-14.775
-12.463
-10.24
-8.114
-6.094
-4.186
-2.402
-0.751
0.755
2.109
3.3
4.323
5.167
5.826
6.296
6.575
6.664
6.562
6.267
5.776
5.086
4.2
3.12
1.847
0.383
-1.269
-3.1
-5.093
-7.235
-9.517
-11.935
-14.5
-17.21
-20.058
-23.039
-26.141
-29.349
-32.644
-35.99
-39.332
-42.622
-45.813
-48.872
-51.778
-54.494
-56.977
-59.18
-61.048
-62.547
-63.654
-64.34
-64.6
-64.464
-63.98
-63.235
-62.332
-61.364
-60.445
-59.693
-59.215
-59.127
-59.506
-60.443
-62.108
-64.575
-67.809
-71.686
-75.865
-79.951
-83.656
-86.572
-88.14
-88.043
-86.216
-82.899
-78.871
-75.033
-72.145
-71.042
-72.729
-77.193
-82.995
-88.203
-90.116
-87.623
-82.271
-74.802
-64.151
-45.842
-12.172
43.438
123.705
225.731
342.796
466.102
585.837
693.138
777.134
824.964
824.746
766.812
649.463
482.798
287.193
90.341
-80.4
-205.742
-278.478
-303.685
-292.634
-258.843
-214.765
-168.856
-130.162
-105.194
-94.305
-95.557
-101.312
-102.908
-98.646
-89.651
-79.983
-75.271
-76.627
-82.529
-91.121
-99.625
-106.189
-110.598
-112.901
-113.261
-112.137
-109.908
-106.801
-103.395
-100.588
-98.836
-98.353
-99.241
-101.227
-104.057
-107.57
-111.38
-115.044
-118.308
-120.999
-123.054
-124.547
-125.489
-125.871
-125.752
-125.182
-124.203
-122.854
-121.142
-119.069
-116.674
-114.01
-111.149
-108.147
-105.034
-101.827
-98.539
-95.172
-91.731
-88.207
-84.58
-80.838
-76.976
-72.99
-68.885
-64.658
-60.3
-55.804
-51.163
-46.375
-41.44
-36.362
-31.147
-25.806
-20.353
-14.803
-9.177
-3.494
2.229
7.975
13.724
19.458
25.154
30.793
36.352
41.81
47.141
52.322
57.328
62.135
66.72
71.059
75.13
78.912
82.383
85.526
88.322
90.755
92.81
94.474
95.735
96.584
97.014
97.019
96.596
95.745
94.466
92.764
90.644
88.114
85.185
81.869
78.181
74.136
69.754
65.053
60.057
54.788
49.272
43.534
37.603
31.506
25.273
18.932
12.513
6.045
-0.443
-6.921
-13.363
-19.741
-26.028
-32.201
-38.233
-44.104
-49.792
-55.277
-60.543
-65.572
-70.35
-74.867
-79.111
-83.074
-86.75
-90.135
-93.226
-96.022
-98.527
-100.742
-102.675
-104.331
-105.721
-106.854
-107.743
-108.401
-108.842
-109.082
-109.137
-109.023
-108.758
-108.36
-107.845
-107.233
-106.541
-105.786
-104.986
-104.158
-103.317
-102.48
-101.661
-100.875
-100.133
-99.449
-98.833
-98.296
-97.847
-97.492
-97.24
-97.095
-97.061
-97.14
-97.333
-97.641
-98.062
-98.593
-99.231
-99.97
-100.807
-101.733
-102.742
-103.827
-104.979
-106.189
-107.448
-108.747
-110.077
-111.428
-112.791
-114.157
-115.517
-116.862
-118.184
-119.475
-120.727
-121.934
-123.088
-124.185
-125.218
-126.184
-127.079
-127.9
-128.645
-129.314
-129.905
-130.421
-130.861
-131.23
-131.53
-131.764
-131.937
-132.054
-132.12
-132.141
-132.122
-132.069
-131.989
-131.888
-131.77
-131.643
-131.51
-131.378
-131.251
-131.135
-131.031
-130.946
-130.88
-130.837
-130.819
-130.826
-130.86
-130.918
-131
-131.103
-131.226
-131.365
-131.516
-131.673
-131.83
-131.982
-132.122
-132.242
-132.334
-132.389
-132.4
-132.359
-132.257
-132.087
-131.841
-131.512
-131.094
-130.581
-129.968
-129.25
-128.424
-127.486
-126.436
-125.272
-123.995
-122.607
-121.111
-119.511
-117.815
-116.033
-114.173
-112.247
-110.265
-108.24
-106.187
-104.118
-102.044
-99.977
-97.931
-95.92
-93.962
-92.073
-90.267
-88.558
-86.96
-85.485
-84.148
-82.955
-81.905
-81.003
-80.251
-79.659
-79.248
-79.028
-79.003
-79.174
-79.54
-80.09
-80.817
-81.694
-82.678
-83.732
-84.818
-85.912
-87.004
-88.069
-89.07
-89.966
-90.694
-91.211
-91.494
-91.509
-91.23
-90.666
-89.84
-88.809
-87.676
-86.506
-85.367
-84.341
-83.487
-82.882
-82.604
-82.719
-83.351
-84.597
-86.468
-88.869
-91.561
-94.193
-96.428
-97.886
-98.049
-96.509
-93.07
-87.927
-81.778
-75.436
-69.8
-65.835
-64.41
-66.49
-72.047
-79.055
-84.94
-86.991
-83.689
-76.826
-67.73
-54.434
-32.677
5.718
68.82
157.522
268.306
393.24
519.819
638.607
740.228
813.339
848.923
837.233
771.683
654.013
492.37
303.653
111.469
-60.758
-192.942
-274.662
-308.666
-304.89
-277.344
-239.748
-199.679
-163.806
-137.801
-122.63
-118.296
-120.267
-120.893
-117.374
-109.936
-101.618
-97.183
-97.62
-101.315
-106.053
-109.482
-110.819
-110.109
-107.467
-103.368
-98.317
-93.041
-88.412
-84.828
-82.438
-81.364
-81.549
-82.909
-85.275
-88.219
-91.217
-93.904
-96.061
-97.577
-98.439
-98.625
-98.102
-96.896
-95.081
-92.731
-89.901
-86.624
-82.911
-78.785
-74.305
-69.542
-64.579
-59.496
-54.345
-49.154
-43.945
-38.73
-33.514
-28.298
-23.067
-17.796
-12.47
-7.079
-1.619
3.913
9.527
15.24
21.066
27.018
33.102
39.32
45.673
52.159
58.774
65.509
72.352
79.289
86.306
93.392
100.534
107.719
114.932
122.155
129.371
136.563
143.71
150.792
157.787
164.67
171.418
178.008
184.417
190.619
196.593
202.313
207.758
212.905
217.733
222.223
226.354
230.111
233.477
236.439
238.985
241.103
242.787
244.032
244.833
245.19
245.105
244.582
243.626
242.248
240.458
238.269
235.696
232.757
229.469
225.854
221.934
217.731
213.27
208.577
203.678
198.601
193.375
188.029
182.592
177.094
171.565
166.033
160.527
155.074
149.701
144.433
139.294
134.308
129.497
124.881
120.477
116.304
112.375
108.704
105.299
102.17
99.321
96.756
94.478
92.488
90.784
89.366
88.232
87.378
86.801
86.495
86.453
86.668
87.127
87.818
88.724
89.83
91.119
92.575
94.178
95.914
97.766
99.723
101.772
103.902
106.097
108.343
110.625
112.927
115.235
117.534
119.81
122.052
124.251
126.4
128.495
130.53
132.492
134.362
136.108
137.703
139.125
140.357
141.383
142.198
142.804
143.218
143.476
143.617
143.676
143.686
143.665
143.627
143.585
143.56
143.589
143.697
143.887
144.146
144.443
144.741
145.017
145.215
145.215
144.889
144.099
142.717
140.71
138.033
134.579
