Name
Date of Birth,"Mar 27, 1959"
Recorded Date,2020-07-27 03:36:40 -0500
Classification,Sinus Rhythm
Symptoms,
Software Version,1.90
Device,"Watch4,2"
Sample Rate,510.227 hertz


Lead,Lead I
Unit,µV

114.365
152.893
1008.176
567.085
-879.827
-366.661
271.59
345.305
213.734
51.755
-58.709
1029.938
1444.286
-634.018
-298.359
355.484
752.112
935.036
692.029
425.371
354.004
478.381
858.999
959.321
2369.411
996.092
-676.637
-329.706
175.239
158.709
64.452
-153.688
-262.02
-253.127
-128.475
116.366
426.903
704.35
791.244
653.161
456.526
292.168
134.976
22.804
9.116
86.96
215.571
341.076
421.446
439.288
398.907
326.323
255.556
207.274
192.737
210.511
239.539
264.072
267.226
238.887
198.274
143.592
59.475
1.523
57.892
205.848
315.209
327.166
309.179
306.095
276.007
197.499
103.186
13.99
-58.764
-101.179
-114.901
-108.509
-94.054
-83.746
-80.444
-81.745
-83.391
-81.352
-74.571
-62.866
-44.695
-21.694
2.508
21.925
26.482
13.117
-15.963
-53.568
-85.122
-101.878
-100.17
-82.801
-61.48
-44.718
-38.221
-42.895
-52.495
-62.944
-71.572
-77.112
-81.884
-86.767
-91.019
-93.82
-94.613
-94.237
-93.83
-93.251
-88.38
-72.769
-44.035
-5.894
31.25
55.072
60.563
52.31
41.666
39.554
50.467
71.736
96.301
118.945
137.917
153.766
168.674
183.602
198.278
212.577
226.278
239.378
252.167
264.742
277.045
289.113
301.007
312.704
324.166
335.35
346.196
356.611
366.539
375.997
384.837
392.938
400.586
407.863
414.632
421.468
427.87
432.963
438.074
443.484
451.003
464.39
482.513
502.511
518.795
522.833
512.006
491.004
470.005
460.501
469.287
493.012
520.777
543.276
553.367
549.829
537.775
519.909
498.774
477.854
455.962
431.189
401.406
360.324
307.687
250.926
199.149
167.97
166.598
190.391
229.267
261.842
268.423
242.628
186.422
116.317
53.236
11.376
-2.991
4.616
23.353
44.606
65.458
87.237
111.345
133.447
143.934
136.149
108.624
71.525
41.589
28.427
35.183
54.217
72.914
88.538
104.53
127.243
160.626
194.925
213.111
202.735
162.266
107.365
62.768
46.272
62.518
100.311
139.389
165.255
172.666
165.391
153.611
144.031
137.965
135.502
134.899
133.868
133.727
131.865
122.843
109.255
94.162
86.69
100.563
133.385
175.3
210.366
218.84
196.795
149.021
85.155
19.752
-36.731
-73.686
-83.038
-64.6
-25.252
20.149
57.73
81.38
92.02
96.028
97.876
97.985
95.322
88.642
79.042
68.436
58.042
49.077
42.139
37.468
35.204
34.633
34.383
33.834
31.849
26.343
16.798
4.335
-6.42
-8.092
2.429
21.689
39.748
44.734
31.874
5.832
-21.878
-40.018
-44.198
-37.321
-26.634
-17.82
-12.604
-9.914
-7.398
-4.045
-0.082
4.212
8.739
13.958
20.276
27.542
35.51
43.953
52.51
60.893
68.143
72.693
73.86
71.601
66.889
61.118
54.816
48.38
41.041
35.734
32.99
22.712
25.797
76.126
120.991
97.86
66.426
90.42
136.222
170.994
196.002
197.651
159.731
84.984
-12.107
-104.87
-165.068
-180.121
-149.664
-90.697
-31.211
8.426
13.534
-15.845
-66.241
-126.38
-188.016
-248.176
-298.354
-341.631
-417.969
-500.789
-468.73
-319.843
-189.04
-124.551
-95.714
-107.194
-173.088
-285.741
-422.149
-557.922
-676.359
-765.555
-824.857
-864.878
-898.1
-933.351
-974.198
-1018.303
-1058.005
-1088.245
-1106.67
-1109.739
-1101.401
-1090.327
-1084.301
-1097.02
-1135.168
-1191.66
-1257.49
-1313.554
-1347.269
-1371.202
-1370.255
-1318.967
-1281.597
-1326.153
-1389.977
-1405.837
-1406.17
-1416.433
-1424.563
-1426.855
-1418.149
-1417.858
-1463.712
-1518.579
-1497.603
-1415.484
-1383.45
-1434.511
-1478.616
-1464.404
-1437.583
-1427.998
-1420.695
-1410.306
-1396.765
-1374.071
-1343.041
-1306.729
-1271.224
-1245.863
-1234.008
-1234.12
-1238.31
-1234.631
-1213.106
-1168.792
-1106.78
-1039.276
-982.051
-950.667
-950.612
-972.829
-998.08
-999.092
-956.326
-867.406
-731.005
-590.067
-505.234
-421.516
-268.356
-112.971
-28.463
2.832
-2.68
-65.655
-182.192
-311.58
-462.517
-681.49
-893.205
-952.629
-927.036
-1053.468
-1342.83
-1546.031
-1561.13
-1527.99
-1528.301
-1509.134
-1450.68
-1392.646
-1355.688
-1338.273
-1336.199
-1336.633
-1328.256
-1310.287
-1286.63
-1264.818
-1250.954
-1245.488
-1246.848
-1253.338
-1263.694
-1277.286
-1293.986
-1313.041
-1332.648
-1351.72
-1369.666
-1385.353
-1398.212
-1408.4
-1414.234
-1414.576
-1411.54
-1405.836
-1400.174
-1399.195
-1399.968
-1398.836
-1392.646
-1374.697
-1347.49
-1319.465
-1296.567
-1287.841
-1296.285
-1315.287
-1340.458
-1366.22
-1387.554
-1406.852
-1424.801
-1440.097
-1452.694
-1459.813
-1459.394
-1452.847
-1441.703
-1427.266
-1411.525
-1393.507
-1374.315
-1353.664
-1320.995
-1298.722
-1325.039
-1348.825
-1306.596
-1256.333
-1257.072
-1272.51
-1275.079
-1278.407
-1287.191
-1299.528
-1316.23
-1336.445
-1358.626
-1380.195
-1398.839
-1413.584
-1423.25
-1426.731
-1424.2
-1416.048
-1402.799
-1386.125
-1366.798
-1345.017
-1322.702
-1301.22
-1282.552
-1266.566
-1252.232
-1249.578
-1236.236
-1165.84
-1106.453
-1153.022
-1204.75
-1148.484
-1072.612
-1057.888
-1057.348
-1040.409
-1021.098
-1001.599
-979.247
-955.121
-929.544
-902.889
-874.969
-845.751
-815.658
-784.888
-753.621
-721.878
-688.973
-653.883
-615.77
-573.509
-525.99
-472.319
-411.362
-342.449
-266.158
-183.399
-95.154
-2.728
91.941
185.131
272.617
348.672
410.733
457.597
475.668
487.132
542.924
575.273
488.648
389.779
391.301
394.721
317.501
223.597
175.4
179.59
227.821
328.23
478.804
594.919
599.695
548.674
518.708
502.892
492.631
504.403
516.3
540.627
640.982
710.214
584.775
449.53
581.874
837.206
895.314
726.478
544.742
544.146
734.042
934.599
969.43
854.148
733.167
709.569
798.057
925.647
980.597
953.881
941.758
985.492
1042.365
1087.257
1129.426
1173.581
1216.078
1258.87
1314.198
1360.394
1359.65
1363.58
1437.221
1526.177
1574.631
1620.772
1685.743
1731.451
1768.324
1867.992
1978.812
1930.649
1776.701
1872.748
2397.236
2907.75
3415.585
1470.226
1349.539
2033.689
1705.629
1342.369
846.595
636.856
669.538
644.053
552.242
450.767
1031.917
1415.464
805.729
263.349
478.446
674.708
867.723
1039.952
1176.38
1241.315
1274.525
1342.655
1474.306
1627.631
1701.984
1673.956
1634.714
1635.606
1651.473
1667.643
1686.877
1707.243
1722.728
1730.469
1736.573
1745.721
1757.457
1769.683
1778.879
1780.648
1777.394
1776.634
1767.149
1757.199
1805.015
1885.294
1845.706
1659.394
1525.575
1555.607
1628.627
1661.7
1704.724
1772.683
1833.462
1880.862
1917.656
1945.03
1969.867
1993.924
2018.172
2044.794
2070.67
2094.019
2115.705
2136.964
2159.905
2184.926
2209.238
2227.623
2240.255
2253.097
2273.047
2308.729
2359.611
2416.256
2471.391
2516.464
2548.057
2570.65
2584.623
2591.174
2594.425
2592.379
2585.243
2571.446
2545.833
2520.463
2480.916
2395.405
2332.345
2367.469
2427.773
2435.807
2418.142
2395.618
2360.047
2319.049
2284.196
2261.519
2249.547
2241.745
2235.208
2228.063
2219.95
2213.182
2208.253
2204.456
2201.317
2197.848
2193.335
2187.675
2180.745
2172.211
2162.042
2150.85
2139.35
2128.168
2116.939
2103.563
2085.643
2062.617
2037.047
2013.331
1995.126
1980.458
1960.137
1919.405
1848.543
1757.882
1632.89
1446.231
1282.207
1236.793
1237.783
1200.675
1157.81
1127.094
1085.474
1042.067
980.807
850.395
716.516
726.413
842.109
835.873
623.61
411.223
392.533
473.338
472.557
394.571
328.143
286.785
250.826
218.756
190.774
163.857
136.985
110.047
83.416
57.425
31.97
7.026
-17.208
-40.651
-62.979
-83.246
-100.617
-114.74
-125.541
-133.591
-140.039
-145.637
-151.366
-159.129
-170.808
-188.063
-212.184
-243.062
-279.634
-321.375
-367.326
-415.249
-462.473
-505.591
-541.088
-567.176
-582.751
-585.714
-574.636
-549.464
-512.385
-468.857
-424.232
-381.142
-338.2
-292.922
-247.511
-210.113
-195.511
-217.81
-280.679
-376.974
-489.97
-601.121
-699.169
-780.699
-847.901
-903.674
-948.22
-979.56
-995.55
-997.06
-987.853
-973.126
-958.202
-946.221
-938.869
-937.43
-942.4
-953.765
-970.312
-989.306
-1008.048
-1024.98
-1039.206
-1050.373
-1058.382
-1062.864
-1064.206
-1063.795
-1062.865
-1062.212
-1062.26
-1062.976
-1064.36
-1066.725
-1070.073
-1074.01
-1078.196
-1082.344
-1086.312
-1090.178
-1093.937
-1097.417
-1100.487
-1103.118
-1105.307
-1107.082
-1108.42
-1109.135
-1109.058
-1108.248
-1106.828
-1104.963
-1102.799
-1100.26
-1097.259
-1093.997
-1090.755
-1087.448
-1083.847
-1079.468
-1073.846
-1067.165
-1059.714
-1051.778
-1043.681
-1035.765
-1028.853
-1023.148
-1017.61
-1012.727
-1009.631
-1011.002
-1022.593
-1043.059
-1065.444
-1082
-1081.917
-1064.91
-1040.404
-1016.173
-1000.596
-995.021
-993.212
-992.032
-989.726
-985.998
-983.186
-981.589
-980.341
-979.182
-977.539
-975.047
-971.583
-966.869
-960.779
-953.546
-945.414
-936.398
-926.393
-915.22
-902.742
-888.944
-873.818
-857.291
-839.31
-819.88
-799.082
-777.083
-754.063
-730.196
-705.669
-680.669
-655.373
-629.967
-604.613
-579.473
-554.734
-530.574
-507.171
-484.689
-463.263
-443.011
-424.032
-406.402
-390.179
-375.382
-361.994
-349.983
-339.325
-330
-322.009
-315.34
-309.943
-305.751
-302.678
-300.636
-299.539
-299.289
-299.77
-300.847
-302.381
-304.259
-306.4
-308.732
-311.168
-313.595
-315.859
-317.802
-319.293
-320.213
-320.451
-319.902
-318.454
-316.012
-312.529
-307.991
-302.402
-295.762
-288.036
-279.178
-269.173
-258.05
-245.89
-232.801
-218.885
-204.244
-189.007
-173.321
-157.363
-141.319
-125.334
-109.522
-94.002
-78.892
-64.354
-50.583
-37.736
-25.935
-15.267
-5.773
2.496
9.462
15.058
19.252
22.071
23.62
24.033
23.387
21.709
19.076
15.707
11.909
7.91
3.712
-0.954
-6.318
-12.243
-18.534
-25.244
-32.38
-39.792
-47.237
-53.651
-58.901
-64.842
-71.356
-77.022
-79.228
-72.578
-57.832
-42.098
-31.548
-32.871
-46.779
-66.27
-87.794
-110.546
-132.203
-151.658
-165.145
-165.343
-152.807
-134.295
-115.812
-104.867
-102.445
-102.556
-101.716
-97.127
-87.897
-76.338
-63.215
-48.358
-32.068
-14.392
4.234
22.983
41.414
59.298
76.268
92.255
107.529
122.478
137.741
153.848
170.873
188.653
206.954
224.847
240.924
253.859
262.073
264.184
259.311
246.585
225.435
196.597
161.623
122.109
80.105
37.555
-3.623
-40.681
-71.017
-93.343
-107.041
-111.908
-108.341
-96.554
-77.382
-53.287
-26.905
-0.342
24.311
45.66
62.755
74.158
79.268
79.009
74.553
67.324
59.128
50.984
43.682
38.542
36.265
36.726
39.605
44.198
49.725
55.781
61.897
67.553
72.214
76.546
82.622
90.274
97.941
102.422
97.654
84.07
67.578
54.188
52.477
62.721
76.671
87.983
89.803
81.068
67.902
54.016
41.993
32.598
23.414
13.471
2.963
-8.107
-19.288
-30.444
-41.855
-53.543
-65.384
-77.326
-89.316
-101.276
-113.119
-124.72
-135.942
-146.703
-156.991
-166.825
-176.203
-185.104
-193.488
-201.292
-208.465
-214.988
-220.883
-226.194
-230.979
-235.294
-239.181
-242.751
-246.176
-249.564
-252.884
-255.917
-258.412
-260.295
-261.76
-263.101
-264.388
-265.659
-267.218
-269.723
-274.015
-280.66
-289.448
-299.533
-310.344
-321.408
-331.854
-340.518
-345.812
-346.239
-341.563
-332.797
-320.982
-307.295
-293.334
-280.649
-271.252
-267.252
-269.405
-277.057
-289.004
-303.546
-318.687
-332.725
-343.768
-350.042
-350.812
-346.358
-337.785
-326.879
-315.436
-304.916
-296.81
-290.636
-285.006
-279.753
-272.876
-264.231
-253.84
-235.26
-203.508
-155.387
-89.609
-13.789
64.173
142.461
222.868
306.567
390.49
461.21
495.533
480.164
411.044
293.833
152.817
7.962
-123.613
-223.058
-288.481
-322.121
-330.308
-329.425
-326.864
-324.375
-321.515
-311.771
-294.114
-272.398
-250.041
-231.781
-219.775
-213.512
-213.006
-217.69
-226.14
-236.908
-248.357
-258.733
-267.142
-273.147
-275.97
-275.301
-271.504
-265.175
-257.318
-249.116
-241.128
-233.644
-227.095
-221.627
-217.223
-213.83
-211.088
-208.553
-206.081
-203.635
-201.193
-198.828
-196.544
-194.32
-192.244
-190.435
-188.971
-187.917
-187.312
-187.162
-187.51
-188.407
-189.871
-191.895
-194.414
-197.327
-200.536
-203.949
-207.478
-211.029
-214.495
-217.742
-220.649
-223.1
-224.959
-226.101
-226.394
-225.699
-223.918
-220.988
-216.883
-211.625
-205.262
-197.855
-189.502
-180.322
-170.452
-160.065
-149.325
-138.386
-127.438
-116.662
-106.242
-96.381
-87.248
-78.991
-71.749
-65.63
-60.705
-57.012
-54.529
-53.193
-52.914
-53.567
-55.025
-57.16
-59.811
-62.824
-66.042
-69.289
-72.402
-75.211
-77.529
-79.164
-79.95
-79.763
-78.53
-76.222
-72.831
-68.375
-62.88
-56.384
-48.944
-40.598
-31.393
-21.386
-10.64
0.737
12.606
24.802
37.157
49.533
61.817
73.916
85.751
97.255
108.358
119.002
129.12
138.608
147.359
155.272
162.25
168.253
173.271
177.314
180.411
182.582
183.837
184.19
183.641
182.179
179.801
176.518
172.365
167.435
161.838
155.691
149.12
142.221
135.074
127.767
120.375
112.968
105.631
98.456
91.545
85.034
79.051
73.698
69.05
65.132
61.945
59.48
57.709
56.607
56.142
56.267
56.941
58.121
59.753
61.763
64.062
66.524
69.027
71.472
73.782
75.905
77.808
79.459
80.847
81.968
82.831
83.448
83.828
83.979
83.917
83.671
83.283
82.814
82.321
81.84
81.402
81.021
80.708
80.47
80.304
80.196
80.127
80.084
80.054
80.031
80.003
79.955
79.867
79.715
79.481
79.156
78.734
78.213
77.595
76.884
76.088
75.223
74.304
73.344
72.354
71.346
70.33
69.321
68.333
67.38
66.474
65.626
64.848
64.151
63.545
63.039
62.64
62.356
62.193
62.156
62.253
62.489
62.868
63.394
64.068
64.892
65.867
66.992
68.264
69.681
71.238
72.929
74.748
76.687
78.737
80.89
83.136
85.465
87.865
90.327
92.839
95.391
97.97
100.567
103.168
105.763
108.34
110.887
113.393
115.847
118.238
120.558
122.796
124.944
126.993
128.937
130.767
132.479
134.066
135.524
136.849
138.038
139.089
140.003
140.78
141.421
141.928
142.303
142.551
142.674
142.676
142.562
142.336
142.003
141.567
141.036
140.415
139.709
138.927
138.074
137.158
136.186
135.164
134.097
132.991
131.851
130.681
129.484
128.264
127.023
125.764
124.493
123.214
121.929
120.64
119.349
118.058
116.768
115.48
114.189
112.893
111.59
110.284
108.979
107.681
106.389
105.1
103.81
102.513
101.205
99.873
98.496
97.055
95.53
93.92
92.235
90.48
88.66
86.774
84.816
82.797
80.743
78.672
76.607
74.576
72.613
70.788
69.191
67.908
67.016
66.563
66.57
67.064
68.074
69.616
71.699
74.293
77.341
80.802
84.612
88.689
92.928
97.168
101.227
104.934
108.101
110.561
112.189
112.864
112.505
111.032
108.301
104.286
99.129
93.092
86.593
80.028
73.679
68.006
63.676
61.11
60.366
60.997
62.055
62.892
62.959
61.331
57.236
50.183
41.44
34.506
31.523
33.562
40.077
48.078
61.219
86.206
127.17
190.53
272.812
365.315
465.645
564.992
655.67
729.613
768.274
761.695
709.258
618.686
510.809
401.427
299.054
207.442
123.245
47.606
-16.066
-65.72
-96.842
-109.532
-105.038
-84.248
-55.243
-25.247
-1.671
8.223
7.666
0.555
-9.406
-16.617
-22.5
-28.112
-32.39
-36.279
-38.426
-37.775
-35.31
-31.573
-27.335
-23.618
-20.859
-19.192
-18.723
-19.348
-20.819
-22.954
-25.622
-28.667
-31.977
-35.515
-39.196
-42.93
-46.647
-50.219
-53.521
-56.486
-59.065
-61.232
-62.998
-64.372
-65.374
-66.045
-66.419
-66.518
-66.357
-65.938
-65.27
-64.391
-63.352
-62.218
-61.057
-59.913
-58.808
-57.757
-56.757
-55.799
-54.877
-53.979
-53.093
-52.218
-51.356
-50.519
-49.725
-48.988
-48.313
-47.694
-47.12
-46.586
-46.102
-45.698
-45.394
-45.209
-45.144
-45.186
-45.326
-45.547
-45.823
-46.116
-46.371
-46.516
-46.494
-46.266
-45.791
-45.03
-43.926
-42.402
-40.397
-37.871
-34.8
-31.185
-27.026
-22.327
-17.117
-11.444
-5.377
0.989
7.584
14.351
21.229
28.161
35.076
41.883
48.514
54.92
61.056
66.89
72.391
77.526
82.291
86.701
90.781
94.575
98.115
101.419
104.519
107.437
110.192
112.806
115.282
117.612
119.793
121.817
123.676
125.367
126.87
128.16
129.217
130.008
130.501
130.66
130.436
129.797
128.737
127.257
125.38
123.142
120.576
117.727
114.657
111.414
108.052
104.614
101.131
97.648
94.221
90.916
87.814
84.979
82.442
80.228
78.343
76.779
75.52
74.526
73.735
73.097
72.573
72.134
71.766
71.445
71.131
70.78
70.338
69.762
69.025
68.103
66.98
65.652
64.125
62.424
60.597
58.676
56.681
54.626
52.511
50.341
48.13
45.888
43.626
41.354
39.076
36.8
34.536
32.283
30.036
27.783
25.5
23.172
20.791
18.354
15.861
13.315
10.717
8.072
5.391
2.681
-0.05
-2.796
-5.552
-8.312
-11.065
-13.801
-16.507
-19.173
-21.788
-24.343
-26.831
-29.245
-31.577
-33.825
-35.985
-38.057
-40.036
-41.92
-43.708
-45.398
-46.989
-48.48
-49.872
-51.166
-52.363
-53.465
-54.476
-55.399
-56.238
-56.998
-57.684
-58.299
-58.851
-59.344
-59.784
-60.178
-60.531
-60.85
-61.141
-61.411
-61.665
-61.911
-62.154
-62.401
-62.655
-62.924
-63.211
-63.52
-63.856
-64.221
-64.619
-65.05
-65.516
-66.019
-66.558
-67.133
-67.742
-68.384
-69.057
-69.757
-70.482
-71.228
-71.99
-72.766
-73.551
-74.341
-75.13
-75.915
-76.691
-77.453
-78.197
-78.918
-79.61
-80.271
-80.894
-81.475
-82.011
-82.496
-82.925
-83.297
-83.606
-83.851
-84.029
-84.139
-84.178
-84.147
-84.046
-83.876
-83.639
-83.338
-82.976
-82.558
-82.088
-81.572
-81.016
-80.425
-79.807
-79.167
-78.513
-77.852
-77.193
-76.549
-75.93
-75.347
-74.813
-74.336
-73.93
-73.605
-73.372
-73.242
-73.218
-73.31
-73.528
-73.881
-74.386
-75.05
-75.873
-76.85
-77.978
-79.256
-80.688
-82.279
-84.021
-85.911
-87.949
-90.146
-92.525
-95.098
-97.862
-100.799
-103.879
-107.092
-110.448
-113.96
-117.634
-121.437
-125.291
-129.132
-132.925
-136.63
-140.23
-143.631
-146.636
-149.203
-151.448
-153.492
-155.529
-157.56
-159.287
-160.62
-161.729
-162.517
-162.769
-162.249
-160.472
-157.559
-154.38
-151.462
-149.082
-147.817
-148.092
-150.348
-155.288
-162.534
-170.765
-179.14
-186.912
-193.141
-197.394
-199.307
-198.576
-196.306
-194.256
-193.512
-195.063
-199.73
-207.442
-217.625
-228.909
-238.233
-242.117
-237.513
-221.376
-191.004
-144.395
-82.012
-7.317
75.125
159.885
245.403
334.488
424.952
510.464
578.525
609.762
593.906
531.456
430.102
305.324
171.47
38.641
-81.594
-176.243
-237.813
-264.186
-261.802
-246.123
-227.836
-212.163
-199.912
-186.687
-172.069
-158.485
-147.93
-143.108
-144.129
-149.006
-156.102
-163.343
-168.845
-171.93
-172.394
-170.431
-166.769
-162.13
-157.094
-152.354
-148.56
-146.008
-144.783
-144.799
-145.789
-147.538
-149.886
-152.634
-155.597
-158.633
-161.609
-164.426
-167.009
-169.26
-171.099
-172.48
-173.371
-173.773
-173.704
-173.19
-172.271
-170.995
-169.41
-167.561
-165.491
-163.243
-160.869
-158.429
-155.982
-153.585
-151.277
-149.086
-147.03
-145.114
-143.335
-141.678
-140.118
-138.629
-137.19
-135.786
-134.406
-133.039
-131.668
-130.28
-128.858
-127.392
-125.887
-124.345
-122.777
-121.205
-119.651
-118.149
-116.742
-115.459
-114.322
-113.342
-112.516
-111.845
-111.32
-110.918
-110.612
-110.366
-110.124
-109.83
-109.419
-108.802
-107.897
-106.616
-104.861
-102.566
-99.676
-96.147
-91.959
-87.095
-81.556
-75.37
-68.573
-61.208
-53.339
-45.029
-36.355
-27.421
-18.329
-9.171
-0.049
8.975
17.849
26.521
34.959
43.144
51.065
58.743
66.198
73.435
80.473
87.325
94.005
100.552
106.992
113.336
119.589
125.731
131.723
137.54
143.143
148.475
153.475
158.06
162.155
165.715
168.69
171.036
172.713
173.679
173.902
173.378
172.114
170.12
167.436
164.096
160.139
155.637
150.667
145.321
139.689
133.845
127.87
121.854
115.893
110.072
104.466
99.132
94.12
89.495
85.295
81.555
78.301
75.53
73.233
71.395
69.994
68.998
68.374
68.061
67.986
68.098
68.347
68.693
69.1
69.513
69.888
70.2
70.426
70.561
70.603
70.547
70.394
70.163
69.877
69.572
69.299
69.086
68.958
68.938
69.043
69.298
69.722
70.323
71.098
72.046
73.161
74.442
75.887
77.48
79.204
81.037
82.955
84.939
86.977
89.057
91.169
93.303
95.452
97.614
99.791
101.983
104.188
106.405
108.631
110.865
113.109
115.363
117.626
119.899
122.178
124.461
126.746
129.029
131.306
133.572
135.821
138.05
140.254
142.43
144.576
146.688
148.765
150.804
152.803
154.761
156.675
158.543
160.362
162.13
163.844
165.503
167.102
168.641
170.116
171.525
172.868
174.141
175.345
176.479
177.543
178.537
179.461
180.315
181.101
181.821
182.474
183.063
183.59
184.056
184.464
184.817
185.116
185.364
185.565
185.722
185.837
185.915
185.958
185.97
185.955
185.919
185.863
185.793
185.712
185.626
185.538
185.454
185.378
185.315
185.268
185.243
185.242
185.27
185.331
185.426
185.559
185.733
185.953
186.227
186.559
186.95
187.396
187.891
188.428
188.996
189.581
190.16
190.715
191.227
191.682
192.073
192.387
192.608
192.715
192.681
192.486
192.122
191.585
190.875
190.002
188.985
187.859
186.678
185.491
184.327
183.201
182.115
181.07
180.071
179.123
178.231
177.394
176.596
175.815
175.02
174.16
173.159
171.908
170.266
168.101
165.31
161.823
157.591
152.579
146.758
140.112
132.643
124.361
115.285
105.435
94.852
83.611
71.833
59.686
47.376
35.118
23.101
11.486
0.41
-10.011
-19.68
-28.526
-36.516
-43.635
-49.865
-55.193
-59.616
-63.143
-65.846
-67.855
-69.328
-70.429
-71.298
-72.02
-72.722
-73.61
-74.783
-76.202
-77.716
-79.006
-79.804
-79.989
-79.235
-76.941
-72.731
-66.574
-58.672
-49.688
-40.406
-31.354
-23.507
-18.612
-16.397
-14.298
-10.405
-1.95
9.327
15.587
15.298
11.446
13.899
42.164
105.683
204.697
332.852
472.033
607.929
727.925
817.463
866.997
867.12
814.886
715.462
579.48
425.255
271.05
136.154
36.564
-24.012
-49.035
-51.468
-48.294
-47.516
-51.905
-58.958
-62.656
-62.867
-62.142
-62.968
-68.691
-79.657
-93.978
-110.004
-125.607
-138.825
-148.947
-155.795
-159.451
-160.522
-159.706
-157.606
-155.033
-152.853
-151.525
-151.241
-152.038
-153.73
-156.179
-159.316
-162.979
-166.976
-171.15
-175.346
-179.447
-183.363
-186.947
-190.015
-192.389
-193.899
-194.441
-193.977
-192.486
-189.973
-186.457
-181.965
-176.554
-170.307
-163.315
-155.682
-147.516
-138.942
-130.122
-121.25
-112.526
-104.139
-96.236
-88.921
-82.277
-76.37
-71.26
-66.992
-63.594
-61.081
-59.456
-58.723
-58.876
-59.882
-61.668
-64.12
-67.105
-70.487
-74.149
-77.992
-81.922
-85.852
-89.69
-93.35
-96.752
-99.806
-102.429
-104.537
-106.04
-106.88
-107.033
-106.497
-105.297
-103.466
-101.03
-98.026
-94.495
-90.473
-86.018
-81.185
-76.041
-70.681
-65.195
-59.669
-54.197
-48.843
-43.656
-38.683
-33.951
-29.483
-25.294
-21.376
-17.712
-14.293
-11.086
-8.052
-5.131
-2.224
0.756
3.875
7.19
10.731
14.521
18.592
22.963
27.633
32.58
37.75
43.074
48.49
53.91
59.222
64.282
68.902
72.91
76.17
78.563
79.993
80.361
79.566
77.521
74.181
69.538
63.618
56.468
48.142
38.725
28.345
17.177
5.44
-6.658
-18.931
-31.202
-43.296
-55.021
-66.189
-76.624
-86.196
-94.816
-102.412
-108.933
-114.34
-118.623
-121.811
-123.974
-125.212
-125.619
-125.295
-124.336
-122.854
-120.985
-118.856
-116.584
-114.26
-111.939
-109.665
-107.474
-105.39
-103.424
-101.578
-99.825
-98.138
-96.488
-94.831
-93.127
-91.331
-89.375
-87.201
-84.76
-82.009
-78.943
-75.582
-71.942
-68.054
-63.947
-59.639
-55.163
-50.553
-45.838
-41.063
-36.268
-31.485
-26.766
-22.165
-17.731
-13.52
-9.55
-5.807
-2.281
1.041
4.168
7.094
9.821
12.362
14.72
16.899
18.902
20.723
22.374
23.876
25.251
26.527
27.71
28.777
29.715
30.514
31.166
31.674
32.035
32.237
32.28
32.173
31.923
31.544
31.04
30.406
29.638
28.732
27.693
26.538
25.28
23.928
22.494
20.984
19.409
17.783
16.115
14.406
12.657
10.869
9.047
7.199
5.33
3.446
1.548
-0.36
-2.278
-4.202
-6.13
-8.062
-9.997
-11.935
-13.877
-15.818
-17.757
-19.692
-21.624
-23.551
-25.473
-27.39
-29.302
-31.208
-33.109
-35.006
-36.899
-38.786
-40.669
-42.545
-44.415
-46.278
-48.133
-49.978
-51.812
-53.633
-55.439
-57.226
-58.994
-60.737
-62.453
-64.138
-65.789
-67.401
-68.972
-70.498
-71.974
-73.397
-74.763
-76.069
-77.312
-78.487
-79.593
-80.626
-81.583
-82.464
-83.266
-83.987
-84.629
-85.189
-85.671
-86.073
-86.4
-86.652
-86.833
-86.947
-86.999
-86.995
-86.941
-86.842
-86.708
-86.549
-86.375
-86.196
-86.024
-85.872
-85.753
-85.679
-85.662
-85.713
-85.842
-86.059
-86.372
-86.791
-87.326
-87.986
-88.777
-89.703
-90.77
-91.982
-93.34
-94.84
-96.476
-98.244
-100.142
-102.174
-104.345
-106.654
-109.102
-111.685
-114.395
-117.222
-120.15
-123.152
-126.197
-129.253
-132.288
-135.28
-138.203
-141.025
-143.705
-146.193
-148.436
-150.393
-152.024
-153.296
-154.198
-154.733
-154.924
-154.827
-154.485
-153.951
-153.301
-152.612
-151.972
-151.48
-151.196
-151.212
-151.703
-152.764
-154.386
-156.443
-158.56
-160.36
-161.65
-162.162
-161.449
-159.255
-155.596
-150.891
-146.313
-142.984
-141.334
-141.797
-145.137
-151.791
-161.575
-172.498
-180.22
-180.6
-171.795
-155.819
-136.005
-113.94
-88.194
-50.558
7.285
89.519
197.089
319.725
440.987
543.231
606.808
621.519
587.644
512.624
411.721
296.757
173.948
49.527
-72.531
-183.235
-268.205
-319.904
-334.242
-312.673
-267.653
-210.496
-154.282
-115.005
-97.733
-101.834
-120.161
-137.755
-146.919
-146.111
-137.968
-129.864
-124.73
-121.881
-120.048
-116.826
-111.73
-105.813
-99.757
-94.3
-89.945
-86.644
-84.325
-82.864
-81.957
-81.377
-80.989
-80.666
-80.285
-79.738
-78.921
-77.754
-76.216
-74.316
-72.069
-69.503
-66.669
-63.644
-60.524
-57.407
-54.383
-51.521
-48.876
-46.492
-44.398
-42.629
-41.202
-40.119
-39.37
-38.912
-38.703
-38.698
-38.845
-39.077
-39.33
-39.542
-39.658
-39.647
-39.484
-39.152
-38.642
-37.946
-37.068
-36.023
-34.836
-33.543
-32.174
-30.748
-29.289
-27.821
-26.365
-24.938
-23.549
-22.192
-20.861
-19.55
-18.25
-16.95
-15.636
-14.284
-12.871
-11.375
-9.778
-8.069
-6.236
-4.267
-2.153
0.113
2.525
5.075
7.755
10.554
13.46
16.454
19.508
22.594
25.689
28.782
31.864
34.929
37.969
40.974
43.937
46.859
49.746
52.598
55.414
58.191
60.937
63.67
66.427
69.233
72.097
75.016
77.971
80.946
83.921
86.869
89.756
92.533
95.152
97.581
99.793
101.759
103.445
104.794
105.731
106.203
106.168
105.599
104.479
102.791
100.518
97.668
94.264
90.342
85.944
81.091
75.797
70.089
63.995
57.564
50.867
43.954
36.875
29.692
22.466
15.275
8.213
1.346
-5.274
-11.598
-17.585
-23.175
-28.304
-32.919
-36.971
-40.429
-43.274
-45.472
-47.003
-47.877
-48.123
-47.804
-47.012
-45.829
-44.33
-42.6
-40.725
-38.805
-36.954
-35.273
-33.856
-32.786
-32.147
-32.027
-32.504
-33.621
-35.395
-37.813
-40.832
-44.414
-48.515
-53.072
-58.011
-63.242
-68.659
-74.156
-79.641
-85.021
-90.204
-95.102
-99.64
-103.772
-107.473
-110.734
-113.544
-115.893
-117.781
-119.228
-120.271
-120.96
-121.363
-121.556
-121.614
-121.62
-121.645
-121.74
-121.924
-122.195
-122.517
-122.859
-123.216
-123.583
-123.944
-124.278
-124.515
-124.574
-124.386
-123.857
-122.886
-121.398
-119.256
-116.357
-112.789
-108.641
-104.05
-99.2
-94.016
-88.385
-82.458
-76.37
-70.017
-63.415
-56.42
-48.819
-41.108
-33.82
-27.079
-21.072
-16.093
-12.243
-9.932
-9.623
-10.846
-13.099
-16.222
-19.896
-23.886
-28.076
-31.971
-35.052
-37.506
-39.514
-41.08
-42.35
-43.264
-43.719
-43.894
-43.97
-43.826
-43.378
-42.591
-41.378
-39.831
-38.067
-36.083
-33.893
-31.551
-29.089
-26.55
-23.982
-21.369
-18.686
-15.922
-13.055
-10.074
-6.976
-3.737
-0.337
3.248
7.045
11.07
15.331
19.836
24.584
29.577
34.809
40.272
45.948
51.825
57.889
64.13
70.54
77.101
83.801
90.625
97.558
104.59
111.708
118.895
126.134
133.404
140.685
147.953
155.183
162.337
169.384
176.294
183.041
189.602
195.953
202.064
207.908
213.461
218.706
223.638
228.254
232.553
236.547
240.258
243.716
246.964
250.029
252.923
255.657
258.227
260.634
262.882
264.962
266.851
268.519
269.924
271.015
271.74
272.023
271.77
270.889
269.28
266.869
263.613
259.469
254.413
248.43
241.508
233.66
224.923
215.341
204.977
193.92
182.263
170.133
157.684
145.057
132.398
119.835
107.47
95.409
83.749
72.571
61.951
51.949
42.606
33.951
25.976
18.632
11.855
5.567
-0.31
-5.849
-11.15
-16.307
-21.399
-26.498
-31.633
-36.872
-42.392
-48.286
-54.522
-60.957
-67.216
-72.911
-77.811
-81.513
-83.408
-83.193
-80.927
-77.016
-72.47
-68.377
-65.503
-64.952
-68.263
-75.085
-82.972
-89.56
-91.47
-89.142
-88.334
-90.045
-91.924
-86.078
-56.098
6.518
102.427
226.812
362.621
493.658
605.42
681.343
714.015
701.783
648.308
564.994
461.257
344.627
222.415
102.684
-1.917
-80.765
-128.539
-148.443
-153.129
-152.006
-149.473
-145.026
-132.514
-110.613
-82.546
-52.245
-24.605
-2.017
15.295
26.979
32.801
33.124
28.796
21.161
11.431
0.629
-10.101
-19.795
-27.427
-32.345
-34.604
-34.596
-32.795
-29.849
-26.555
-23.465
-21.086
-19.737
-19.358
-19.798
-20.842
-22.13
-23.262
-23.99
-24.154
-23.697
-22.69
-21.164
-19.135
-16.646
-13.744
-10.465
-6.838
-2.87
1.445
6.081
10.983
16.076
21.264
26.476
31.661
36.782
41.804
46.676
51.324
55.662
59.611
63.109
66.107
68.559
70.414
71.649
72.27
72.317
71.867
70.991
69.75
68.199
66.398
64.431
62.41
60.467
58.724
57.29
56.265
55.749
55.857
56.676
58.265
60.648
63.809
67.727
72.383
77.749
83.784
90.421
97.565
105.102
112.924
120.93
129.032
137.141
145.155
152.984
160.557
167.821
174.757
181.357
187.611
193.524
199.118
204.436
209.549
214.547
219.507
224.484
229.514
234.618
239.825
245.156
250.621
256.217
261.918
267.685
273.471
279.22
284.845
290.232
295.241
299.702
303.476
306.459
308.558
309.707
309.843
308.904
306.845
303.634
299.242
293.656
286.879
278.931
269.883
259.838
248.932
237.332
225.182
212.607
199.733
186.672
173.534
160.432
147.477
134.776
122.46
110.658
99.474
88.991
79.247
70.25
61.988
54.423
47.522
41.253
35.574
30.448
25.843
21.714
18.011
14.67
11.592
8.678
5.85
3.044
0.224
-2.631
-5.536
-8.492
-11.493
-14.528
-17.583
-20.648
-23.725
-26.806
-29.873
-32.9
-35.836
-38.636
-41.272
-43.722
-45.977
-48.034
-49.891
-51.558
-53.053
-54.399
-55.614
-56.715
-57.71
-58.613
-59.442
-60.219
-60.973
-61.729
-62.503
-63.31
-64.161
-65.064
-66.026
-67.049
-68.126
-69.254
-70.428
-71.645
-72.906
-74.208
-75.546
-76.915
-78.31
-79.726
-81.16
-82.608
-84.065
-85.527
-86.991
-88.454
-89.916
-91.374
-92.824
-94.265
-95.692
-97.103
-98.493
-99.859
-101.199
-102.506
-103.78
-105.016
-106.212
-107.366
-108.477
-109.541
-110.559
-111.53
-112.454
-113.332
-114.164
-114.952
-115.696
-116.397
-117.059
-117.681
-118.265
-118.814
-119.329
-119.812
-120.264
-120.688
-121.086
-121.458
-121.806
-122.133
-122.44
-122.73
-123.003
-123.264
-123.513
-123.755
-123.991
-124.225
-124.458
-124.694
-124.935
-125.182
-125.437
-125.702
-125.978
-126.266
-126.566
-126.879
-127.205
-127.543
-127.893
-128.255
-128.628
-129.012
-129.405
-129.807
-130.217
-130.635
-131.059
-131.489
-131.924
-132.363
-132.804
-133.245
-133.684
-134.12
-134.549
-134.969
-135.376
-135.767
-136.139
-136.487
-136.809
-137.099
-137.354
-137.569
-137.743
-137.87
-137.947
-137.972
-137.942
-137.855
-137.706
-137.495
-137.22
-136.877
-136.466
-135.983
-135.427
-134.797
-134.092
-133.309
-132.449
-131.512
-130.497
-129.407
-128.241
-127.004
-125.696
-124.321
-122.885
-121.392
-119.847
-118.257
-116.628
-114.97
-113.292
-111.603
-109.913
-108.232
-106.57
-104.938
-103.346
-101.802
-100.315
-98.893
-97.544
-96.276
-95.099
-94.021
-93.052
-92.197
-91.463
-90.856
-90.377
-90.028
-89.806
-89.71
-89.74
-89.899
-90.193
-90.622
-91.189
-91.892
-92.724
-93.672
-94.719
-95.838
-97
-98.178
-99.345
-100.477
-101.553
-102.547
-103.426
-104.151
-104.681
-104.976
-104.999
-104.718
-104.115
-103.197
-101.994
-100.555
-98.93
-97.154
-95.27
-93.343
-91.447
-89.663
-88.084
-86.77
-85.821
-85.41
-85.6
-86.347
-87.466
-88.533
-89.128
-88.97
-87.689
-84.834
-80.27
-74.127
-66.948
-59.94
-54.199
-50.405
-49.268
-51.323
-56.453
-63.948
-72.203
-78.367
-79.536
-73.207
-56.848
-28.375
13.369
68.5
135.667
211.609
292.144
372.698
447.873
512.1
560.268
587.86
592.786
576.093
539.555
486.126
416.75
329.444
226.899
115.307
7.394
-77.636
-129.252
-145.641
-134.291
-112.552
-91.499
-75.346
-64.223
-52.386
-37.732
-21.985
-6.641
5.713
13.862
18.643
20.687
20.211
17.639
13.243
7.089
-0.316
-8.131
-15.946
-23.299
-29.398
-33.933
-36.789
-37.824
-37.461
-36.412
-35.031
-33.639
-32.623
-32.052
-31.943
-32.331
-32.937
-33.394
-33.529
-33.237
-32.492
-31.415
-30.115
-28.667
-27.206
-25.847
-24.654
-23.672
-22.894
-22.278
-21.789
-21.391
-21.064
-20.805
-20.607
-20.453
-20.315
-20.143
-19.88
-19.474
-18.885
-18.086
-17.061
-15.798
-14.304
-12.599
-10.724
-8.727
-6.641
-4.482
-2.259
0.02
2.342
4.685
7.031
9.372
11.701
14.015
16.31
18.584
20.844
23.107
25.402
27.76
30.201
32.741
35.392
38.164
41.072
44.125
47.32
50.651
54.108
57.682
61.362
65.133
68.97
72.847
76.741
80.634
84.516
88.375
92.192
95.945
99.613
103.185
106.662
110.047
113.341
116.555
119.708
122.833
125.975
129.168
132.422
135.733
139.084
142.459
145.85
149.247
152.635
155.981
159.248
162.4
165.402
168.206
170.739
172.898
174.572
175.667
176.126
175.91
174.992
173.349
170.959
167.803
163.883
159.207
153.779
147.599
140.672
133.014
124.686
115.785
106.415
96.671
86.629
76.356
65.925
55.407
44.868
34.368
23.961
13.709
3.699
-5.986
-15.269
-24.072
-32.352
-40.092
-47.274
-53.893
-59.946
-65.441
-70.402
-74.855
-78.808
-82.278
-85.291
-87.888
-90.14
-92.105
-93.827
-95.369
-96.79
-98.15
-99.517
-100.926
-102.396
-103.937
-105.545
-107.224
-108.988
-110.842
-112.773
-114.764
-116.784
-118.826
-120.9
-122.988
-125.056
-127.05
-128.917
-130.63
-132.183
-133.573
-134.795
-135.84
-136.697
-137.369
-137.872
-138.213
-138.398
-138.413
-138.232
-137.851
-137.286
-136.572
-135.738
-134.795
-133.749
-132.603
-131.373
-130.07
-128.703
-127.267
-125.756
-124.169
-122.516
-120.815
-119.087
-117.342
-115.581
-113.799
-111.997
-110.177
-108.347
-106.511
-104.667
-102.82
-100.977
-99.151
-97.356
-95.6
-93.889
-92.227
-90.616
-89.064
-87.578
-86.164
-84.829
-83.577
-82.414
-81.345
-80.375
-79.508
-78.743
-78.079
-77.515
-77.049
-76.679
-76.403
-76.216
-76.116
-76.097
-76.155
-76.286
-76.482
-76.737
-77.042
-77.39
-77.773
-78.183
-78.61
-79.048
-79.489
-79.925
-80.348
-80.75
-81.125
-81.465
-81.761
-82.007
-82.196
-82.321
-82.376
-82.357
-82.259
-82.079
-81.815
-81.464
-81.026
-80.5
-79.884
-79.18
-78.386
-77.504
-76.533
-75.473
-74.327
-73.096
-71.784
-70.397
-68.939
-67.415
-65.833
-64.196
-62.512
-60.786
-59.021
-57.22
-55.387
-53.526
-51.645
-49.754
-47.864
-45.978
-44.1
-42.233
-40.374
-38.522
-36.665
-34.786
-32.867
-30.898
-28.874
-26.803
-24.691
-22.544
-20.366
-18.157
-15.926
-13.685
-11.451
-9.234
-7.053
-4.935
-2.929
-1.104
0.469
1.738
2.677
3.275
3.535
3.463
3.071
2.384
1.445
0.305
-0.989
-2.395
-3.868
-5.336
-6.7
-7.822
-8.567
-8.835
-8.56
-7.706
-6.257
-4.214
-1.601
1.524
5.069
8.933
13.023
17.252
21.523
25.71
29.649
33.143
36.003
38.079
39.262
39.467
38.636
36.742
33.796
29.862
25.045
19.452
13.188
6.359
-0.919
-8.49
-16.168
-23.752
-31.056
-37.929
-44.246
-49.898
-54.795
-58.894
-62.212
-64.83
-66.855
-68.388
-69.507
-70.284
-70.826
-71.272
-71.761
-72.426
-73.373
-74.654
-76.392
-78.757
-81.746
-85.25
-88.996
-92.454
-95.116
-96.58
-96.253
-93.58
-88.528
-81.123
-71.744
-61.63
-52.013
-44.123
-39.531
-38.009
-37.213
-35.614
-32.218
-28.269
-27.065
-27.439
-22.236
-0.588
46.469
121.298
216.655
319.967
424.753
525.903
619.341
700.982
753.712
760.615
712.501
605.915
457.705
293.646
138.302
17.618
-59.129
-96.011
-103.323
-100.666
-99.239
-100.922
-103.902
-100.471
-88.327
-71.155
-53.186
-39.36
-31.472
-28.241
-28.214
-29.923
-32.041
-33.498
-33.2
-30.543
-25.642
-19.009
-11.358
-3.297
4.664
11.96
18.067
22.673
25.691
27.212
27.437
26.539
24.665
21.985
18.672
14.909
10.875
6.742
2.678
-1.186
-4.753
-7.954
-10.738
-13.06
-14.879
-16.18
-16.962
-17.23
-16.982
-16.211
-14.924
-13.164
-11.001
-8.534
-5.878
-3.127
-0.371
2.315
4.878
7.266
9.438
11.367
13.014
14.324
15.237
15.672
15.573
14.903
13.627
11.751
9.305
6.333
2.919
-0.853
-4.916
-9.205
-13.658
-18.209
-22.761
-27.202
-31.426
-35.312
-38.754
-41.65
-43.88
-45.356
-46.028
-45.87
-44.906
-43.172
-40.685
-37.47
-33.568
-29.031
-23.946
-18.414
-12.514
-6.334
0.037
6.501
12.941
19.258
25.383
31.279
36.931
42.331
47.462
52.312
56.894
61.236
65.387
69.396
73.294
77.104
80.86
84.611
88.408
92.288
96.267
100.328
104.443
108.586
112.725
116.821
120.816
124.629
128.169
131.36
134.144
136.473
138.303
139.562
140.185
140.126
139.351
137.854
135.643
132.721
129.101
124.816
119.914
114.473
108.589
102.327
95.741
88.874
81.751
74.437
67.006
59.516
52.029
44.596
37.265
30.101
23.176
16.531
10.199
4.186
-1.523
-6.913
-11.95
-16.594
-20.781
-24.482
-27.688
-30.383
-32.559
-34.22
-35.379
-36.075
-36.374
-36.315
-35.925
-35.221
-34.199
-32.878
-31.296
-29.494
-27.525
-25.434
-23.247
-20.997
-18.718
-16.426
-14.127
-11.81
-9.438
-6.993
-4.472
-1.876
0.778
3.484
6.238
9.039
11.879
14.755
17.656
20.577
23.514
26.455
29.382
32.269
35.079
37.783
40.362
42.798
45.08
47.197
49.138
50.898
52.477
53.873
55.083
56.106
56.937
57.575
58.022
58.28
58.356
58.254
57.978
57.534
56.924
56.154
55.228
54.149
52.92
51.545
50.03
48.38
46.603
44.707
42.701
40.594
38.395
36.116
33.766
31.356
28.898
26.4
23.875
21.332
18.782
16.236
13.704
11.196
8.723
6.296
3.923
1.615
-0.618
-2.766
-4.819
-6.769
-8.606
-10.321
-11.906
-13.352
-14.652
-15.798
-16.785
-17.605
-18.255
-18.73
-19.027
-19.144
-19.081
-18.837
-18.413
-17.812
-17.037
-16.092
-14.982
-13.711
-12.286
-10.715
-9.003
-7.16
-5.194
-3.113
-0.927
1.354
3.719
6.159
8.661
11.213
13.805
16.424
19.057
21.691
24.315
26.916
29.481
31.998
34.455
36.841
39.146
41.359
43.472
45.477
47.367
49.137
50.782
52.3
53.687
54.943
56.066
57.056
57.912
58.635
59.224
59.681
60.006
60.204
60.278
60.232
60.072
59.804
59.436
58.976
58.435
57.82
57.141
56.406
55.628
54.817
53.987
53.151
52.314
51.483
50.662
49.851
49.049
48.245
47.426
46.58
45.694
44.759
43.771
42.72
41.602
40.413
39.15
37.812
36.413
34.964
33.483
31.998
30.535
29.13
27.829
26.669
25.678
24.882
24.29
23.91
23.743
23.768
23.964
24.297
24.711
25.149
25.543
25.805
25.858
25.619
24.991
23.894
22.257
20.017
17.137
13.586
9.356
4.464
-1.051
-7.13
-13.687
-20.619
-27.813
-35.133
-42.456
-49.659
-56.608
-63.182
-69.27
-74.77
-79.605
-83.72
-87.087
-89.717
-91.654
-92.975
-93.785
-94.194
-94.336
-94.377
-94.471
-94.764
-95.404
-96.504
-98.176
-100.582
-103.776
-107.685
-112.131
-116.757
-121.19
-125.147
-128.3
-130.182
-130.487
-129.157
-126.436
-123.029
-119.626
-116.614
-114.217
-112.722
-112.451
-113.143
-113.72
-112.641
-106.968
-93.975
-73.251
-43.337
-4.863
39.126
89.292
144.593
205.022
274.605
353.41
439.126
524.323
594.957
635.938
633.854
585.181
494.165
370.263
231.458
92.433
-32.154
-125.314
-182.97
-206.48
-203.665
-192.129
-180.763
-171.911
-164.66
-152.18
-132.845
-109.783
-85.787
-64.387
-47.218
-33.951
-24.519
-18.945
-16.887
-17.807
-21.228
-26.73
-33.615
-40.931
-47.732
-52.967
-56.047
-56.928
-55.623
-52.298
-47.454
-41.821
-36.032
-30.654
-25.993
-22.023
-18.658
-15.755
-13.032
-10.136
-6.849
-3.074
1.183
5.767
10.534
15.369
20.136
24.692
28.945
32.829
36.306
39.363
41.964
44.067
45.651
46.722
47.33
47.557
47.486
47.218
46.854
46.477
46.16
45.965
45.936
46.108
46.52
47.208
48.21
49.57
51.308
53.421
55.868
58.593
61.53
64.602
67.749
70.926
74.096
77.237
80.329
83.354
86.293
89.126
91.825
94.346
96.648
98.702
100.508
102.08
103.438
104.6
105.557
106.295
106.802
107.056
107.045
106.754
106.173
105.299
104.157
102.795
101.278
99.672
98.017
96.341
94.676
93.069
91.593
90.314
89.297
88.606
88.301
88.452
89.114
90.313
92.037
94.24
96.858
99.813
103.052
106.525
110.169
113.91
117.647
121.284
124.718
127.839
130.52
132.613
133.994
134.573
134.297
133.144
131.104
128.174
124.342
119.596
113.936
107.367
99.915
91.619
82.541
72.767
62.414
51.63
40.555
29.306
17.987
6.687
-4.501
-15.487
-26.166
-36.432
-46.181
-55.308
-63.726
-71.368
-78.193
-84.186
-89.364
-93.767
-97.444
-100.445
-102.819
-104.615
-105.893
-106.721
-107.183
-107.371
-107.38
-107.303
-107.222
-107.199
-107.285
-107.514
-107.902
-108.45
-109.153
-109.996
-110.965
-112.047
-113.219
-114.45
-115.7
-116.919
-118.059
-119.082
-119.955
-120.656
-121.17
-121.486
-121.605
-121.534
-121.283
-120.867
-120.297
-119.583
-118.737
-117.777
-116.723
-115.601
-114.431
-113.225
-111.994
-110.745
-109.481
-108.207
-106.918
-105.609
-104.273
-102.905
-101.499
-100.055
-98.566
-97.024
-95.422
-93.753
-92.011
-90.194
-88.298
-86.32
-84.257
-82.111
-79.883
-77.578
-75.194
-72.728
-70.175
-67.534
-64.813
-62.02
-59.162
-56.247
-53.279
-50.27
-47.235
-44.185
-41.122
-38.04
-34.933
-31.801
-28.654
-25.508
-22.38
-19.279
-16.202
-13.146
-10.114
-7.108
-4.128
-1.161
1.813
4.796
7.768
10.69
13.52
16.234
18.819
21.27
23.58
25.732
27.704
29.476
31.04
32.382
33.482
34.302
34.797
34.949
34.773
34.309
33.598
32.663
31.52
30.179
28.658
26.982
25.172
23.24
21.191
19.041
16.814
14.554
12.305
10.094
7.921
5.766
3.617
1.468
-0.679
-2.822
-4.969
-7.124
-9.284
-11.435
-13.564
-15.662
-17.729
-19.776
-21.813
-23.84
-25.848
-27.822
-29.749
-31.623
-33.436
-35.182
-36.849
-38.429
-39.923
-41.334
-42.667
-43.924
-45.102
-46.198
-47.21
-48.14
-48.99
-49.762
-50.462
-51.091
-51.653
-52.153
-52.595
-52.981
-53.312
-53.585
-53.799
-53.953
-54.049
-54.088
-54.069
-53.996
-53.872
-53.699
-53.48
-53.213
-52.895
-52.526
-52.106
-51.639
-51.133
-50.597
-50.046
-49.496
-48.962
-48.457
-47.988
-47.557
-47.156
-46.779
-46.416
-46.064
-45.73
-45.415
-45.124
-44.855
-44.604
-44.359
-44.1
-43.804
-43.441
-42.991
-42.444
-41.807
-41.104
-40.368
-39.64
-38.952
-38.326
-37.782
-37.333
-36.999
-36.794
-36.738
-36.86
-37.194
-37.786
-38.673
-39.876
-41.391
-43.196
-45.251
-47.496
-49.88
-52.347
-54.837
-57.301
-59.689
-61.953
-64.054
-65.944
-67.565
-68.853
-69.744
-70.188
-70.164
-69.655
-68.666
-67.226
-65.377
-63.195
-60.779
-58.219
-55.595
-52.971
-50.407
-47.982
-45.779
-43.889
-42.403
-41.364
-40.847
-40.984
-41.789
-43.181
-44.933
-46.566
-47.598
-47.67
-46.299
-43.007
-37.72
-30.553
-22.104
-13.658
-6.317
-0.996
1.207
-0.354
-5.396
-13.256
-22.27
-29.365
-31.633
-26.257
-9.771
19.197
59.073
108.621
165.519
228.509
301.053
382.928
467.469
543.739
594.198
603.683
568.799
492.32
382.81
254.784
118.783
-11.931
-119.726
-195.939
-236.441
-246.422
-243.182
-237.394
-233.688
-232.187
-225.563
-211.829
-194.63
-177.348
-164.231
-156.964
-154.455
-155.612
-159.574
-165.171
-170.63
-174.781
-177.231
-177.992
-177.557
-176.402
-174.493
-171.966
-169.693
-168.26
-167.898
-168.71
-170.369
-172.551
-175.225
-178.344
-181.583
-184.67
-187.387
-189.511
-191.043
-192.015
-192.379
-192.105
-191.188
-189.616
-187.4
-184.599
-181.255
-177.427
-173.206
-168.655
-163.839
-158.839
-153.726
-148.565
-143.392
-138.22
-133.029
-127.823
-122.631
-117.477
-112.392
-107.38
-102.429
-97.525
-92.655
-87.817
-83.011
-78.23
-73.467
-68.736
-64.067
-59.514
-55.146
-51.004
-47.106
-43.46
-40.069
-36.938
-34.076
-31.481
-29.135
-27.01
-25.077
-23.301
-21.639
-20.024
-18.37
-16.564
-14.493
-12.064
-9.2
-5.841
-1.937
2.555
7.665
13.407
19.774
26.746
34.296
42.391
50.976
59.978
69.303
78.825
88.43
98.017
107.485
116.751
125.739
134.378
142.612
150.4
157.707
164.508
170.783
176.51
181.683
186.313
190.416
194.029
197.175
199.866
202.122
203.954
205.368
206.375
206.975
207.164
206.945
206.328
205.319
203.924
202.145
199.971
197.399
194.424
191.043
187.263
183.084
178.504
173.521
168.135
162.338
156.12
149.464
142.337
134.726
126.629
118.054
109.02
99.552
89.668
79.407
68.813
57.943
46.864
35.651
24.382
13.16
2.105
-8.662
-19.009
-28.828
-38.037
-46.562
-54.346
-61.342
-67.511
-72.836
-77.323
-80.989
-83.857
-85.971
-87.382
-88.171
-88.447
-88.313
-87.876
-87.225
-86.428
-85.548
-84.643
-83.755
-82.92
-82.16
-81.482
-80.892
-80.399
-79.997
-79.675
-79.403
-79.135
-78.83
-78.457
-77.992
-77.424
-76.744
-75.945
-75.03
-74.011
-72.9
-71.714
-70.465
-69.159
-67.809
-66.429
-65.038
-63.661
-62.314
-61.008
-59.751
-58.545
-57.39
-56.285
-55.223
-54.189
-53.174
-52.165
-51.152
-50.13
-49.087
-48.015
-46.902
-45.739
-44.516
-43.227
-41.864
-40.422
-38.894
-37.277
-35.568
-33.766
-31.871
-29.881
-27.798
-25.621
-23.351
-20.991
-18.545
-16.014
-13.403
-10.718
-7.964
-5.149
-2.28
0.636
3.59
6.572
9.574
12.586
15.599
18.602
21.587
24.544
27.464
30.339
33.159
35.917
38.605
41.216
43.742
46.177
48.516
50.753
52.883
54.902
56.808
58.599
60.271
61.826
63.262
64.579
65.779
66.864
67.835
68.696
69.45
70.101
70.655
71.116
71.49
71.784
72.003
72.154
72.243
72.278
72.263
72.206
72.113
71.99
71.843
71.679
71.503
71.322
71.14
70.962
70.794
70.638
70.5
70.381
70.285
70.214
70.17
70.154
70.166
70.208
70.28
70.379
70.507
70.661
70.839
71.039
71.258
71.493
71.74
71.997
72.26
72.525
72.789
73.048
73.301
73.542
73.769
73.98
74.17
74.338
74.481
74.596
74.682
74.737
74.76
74.75
74.706
74.629
74.517
74.373
74.197
73.991
73.756
73.494
73.208
72.901
72.577
72.239
71.891
71.538
71.184
70.834
70.493
70.165
69.853
69.563
69.297
69.059
68.852
68.678
68.539
68.437
68.373
68.348
68.362
68.413
68.501
68.624
68.78
68.965
69.175
69.404
69.646
69.893
70.138
70.371
70.583
70.763
70.903
70.993
71.024
70.986
70.87
70.666
70.361
69.946
69.413
68.752
67.957
67.02
65.937
64.706
63.326
61.798
60.116
58.272
56.255
54.06
51.686
49.13
46.4
43.504
40.456
37.285
34.02
30.692
27.334
23.97
20.629
17.346
14.164
11.136
8.315
5.742
3.455
1.479
-0.184
-1.543
-2.629
-3.505
-4.23
-4.877
-5.544
-6.314
-7.287
-8.566
-10.241
-12.431
-15.283
-18.859
-23.125
-27.928
-32.964
-37.925
-42.522
-46.396
-49.153
-50.506
-50.382
-49.132
-47.4
-45.853
-45.145
-45.709
-47.843
-51.977
-58.119
-65.098
-71.47
-74.502
-69.814
-55.628
-31.137
3.494
43.254
86.544
136.475
195.426
270.285
364.066
469.16
575.382
666.711
726.781
745.656
716.261
639.239
519.218
366.101
198.991
37.368
-96.41
-183.07
-218.767
-208.714
-166.335
-113.54
-66.28
-32.748
-17.844
-15.643
-17.064
-18.076
-14.674
-9.259
-8.636
-14.762
-27.935
-45.906
-63.602
-78.715
-90.601
-98.472
-102.591
-103.378
-101.152
-97.095
-92.61
-88.386
-84.807
-82.239
-80.801
-80.534
-81.44
-83.144
-85.102
-87.047
-88.846
-90.413
-91.777
-92.904
-93.72
-94.277
-94.689
-95.015
-95.304
-95.561
-95.736
-95.821
-95.823
-95.721
-95.519
-95.224
-94.829
-94.357
-93.835
-93.278
-92.705
-92.117
-91.487
-90.799
-90.041
-89.2
-88.284
-87.302
-86.264
-85.205
-84.151
-83.119
-82.123
-81.163
-80.232
-79.33
-78.451
-77.586
-76.742
-75.916
-75.106
-74.311
-73.523
-72.725
-71.901
-71.021
-70.056
-68.983
-67.781
-66.433
-64.928
-63.25
-61.389
-59.339
-57.092
-54.638
-51.974
-49.092
-45.985
-42.651
-39.087
-35.298
-31.292
-27.081
-22.675
-18.09
-13.345
-8.462
-3.467
1.617
6.766
11.957
17.169
22.381
27.572
32.722
37.807
42.811
47.725
52.546
57.275
61.918
66.48
70.97
75.406
79.798
84.15
88.468
92.745
96.969
101.129
105.208
109.193
113.063
116.777
120.282
123.512
126.399
128.883
130.906
132.396
133.297
133.554
133.119
131.959
130.052
127.371
123.893
119.597
114.471
108.537
101.849
94.481
86.516
78.027
69.089
59.795
50.242
40.525
30.739
20.97
11.305
1.848
-7.28
-15.967
-24.103
-31.614
-38.467
-44.645
-50.139
-54.941
-59.047
-62.476
-65.259
-67.432
-69.028
-70.086
-70.654
-70.809
-70.655
-70.289
-69.805
-69.275
-68.739
-68.235
-67.795
-67.443
-67.198
-67.066
-67.041
-67.122
-67.312
-67.605
-67.992
-68.439
-68.894
-69.314
-69.665
-69.919
-70.065
-70.095
-70
-69.782
-69.45
-69.016
-68.495
-67.899
-67.23
-66.5
-65.72
-64.908
-64.091
-63.287
-62.509
-61.767
-61.067
-60.413
-59.808
-59.249
-58.727
-58.236
-57.768
-57.32
-56.889
-56.471
-56.062
-55.656
-55.247
-54.832
-54.408
-53.973
-53.525
-53.063
-52.586
-52.095
-51.592
-51.079
-50.557
-50.026
-49.488
-48.943
-48.393
-47.84
-47.285
-46.73
-46.177
-45.63
-45.09
-44.56
-44.044
-43.544
-43.063
-42.603
-42.168
-41.76
-41.381
-41.034
-40.72
-40.441
-40.197
-39.991
-39.821
-39.689
-39.593
-39.534
-39.51
-39.521
-39.564
-39.64
-39.745
-39.878
-40.037
-40.22
-40.422
-40.643
-40.878
-41.125
-41.381
-41.641
-41.904
-42.166
-42.424
-42.675
-42.915
-43.141
-43.352
-43.543
-43.714
-43.861
-43.983
-44.079
-44.147
-44.186
-44.195
-44.175
-44.126
-44.046
-43.938
-43.8
-43.635
-43.444
-43.228
-42.988
-42.727
-42.448
-42.152
-41.842
-41.521
-41.191
-40.856
-40.517
-40.178
-39.841
-39.51
-39.187
-38.874
-38.575
-38.291
-38.025
-37.779
-37.555
-37.355
-37.179
-37.03
-36.907
-36.813
-36.747
-36.711
-36.703
-36.723
-36.772
-36.848
-36.949
-37.074
-37.22
-37.385
-37.567
-37.761
-37.965
-38.175
-38.387
-38.598
-38.804
-39
-39.182
-39.346
-39.488
-39.603
-39.687
-39.736
-39.746
-39.713
-39.633
-39.502
-39.316
-39.073
-38.767
-38.395
-37.956
-37.445
-36.861
-36.203
-35.469
-34.659
-33.771
-32.808
-31.77
-30.659
-29.479
-28.233
-26.926
-25.563
-24.152
-22.699
-21.213
-19.7
-18.169
-16.628
-15.088
-13.563
-12.066
-10.611
-9.211
-7.88
-6.629
-5.472
-4.42
-3.482
-2.665
-1.978
-1.43
-1.034
-0.805
-0.752
-0.877
-1.177
-1.642
-2.263
-3.039
-3.967
-5.041
-6.26
-7.621
-9.129
-10.794
-12.616
-14.585
-16.676
-18.845
-21.063
-23.317
-25.612
-27.981
-30.425
-32.915
-35.4
-37.809
-40.095
-42.255
-44.228
-45.903
-47.272
-48.393
-49.494
-50.989
-53.047
-55.58
-58.479
-61.583
-64.7
-67.686
-70.01
-70.775
-69.674
-66.902
-62.914
-58.432
-53.833
-49.224
-45.272
-43.04
-42.849
-44.5
-47.384
-50.678
-54.443
-59.116
-64.41
-69.808
-75.469
-81.788
-89.257
-96.71
-100.624
-97.992
-87.314
-70.892
-52.683
-31.836
-4.112
38.052
103.268
191.886
298.228
414.981
530.711
634.218
716.164
763.915
766.182
720.494
629.319
500.662
351.044
195.751
50.515
-64.857
-138.728
-168.603
-160.237
-130.608
-96.691
-67.468
-45.984
-29.487
-13.565
1.927
14.78
22.15
21.463
13.298
0.33
-14.183
-27.365
-37.868
-45.231
-49.195
-49.598
-46.654
-41.277
-34.973
-29.053
-24.171
-20.557
-18.234
-17.3
-17.85
-19.674
-22.284
-25.205
-28.153
-31.021
-33.803
-36.431
-38.767
-40.707
-42.227
-43.342
-44.073
-44.419
-44.356
-43.871
-42.986
-41.751
-40.217
-38.431
-36.435
-34.266
-31.969
-29.594
-27.194
-24.819
-22.508
-20.286
-18.169
-16.168
-14.287
-12.528
-10.887
-9.352
-7.908
-6.544
-5.25
-4.019
-2.842
-1.707
-0.6
0.49
1.573
2.661
3.763
4.89
6.052
7.262
8.527
9.859
11.267
12.763
14.361
16.072
17.908
19.88
22.002
24.286
26.752
29.411
32.269
35.331
38.597
42.063
45.721
49.559
53.552
57.679
61.923
66.267
70.702
75.214
79.787
84.399
89.026
93.646
98.25
102.833
107.391
111.933
116.476
121.051
125.709
130.494
135.429
140.528
145.789
151.203
156.767
162.475
168.315
174.275
180.324
186.421
192.514
198.534
204.382
209.942
215.067
219.611
223.46
226.516
228.699
229.945
230.192
229.381
227.463
224.4
220.159
214.736
208.15
200.444
191.705
182.049
171.623
160.599
149.126
137.345
125.389
113.382
101.45
89.727
78.346
67.431
57.113
47.493
38.644
30.627
23.458
17.132
11.616
6.849
2.764
-0.695
-3.588
-5.978
-7.931
-9.532
-10.877
-12.054
-13.154
-14.253
-15.404
-16.659
-18.049
-19.587
-21.271
-23.085
-24.999
-26.994
-29.05
-31.139
-33.235
-35.296
-37.269
-39.114
-40.795
-42.283
-43.562
-44.619
-45.444
-46.04
-46.419
-46.596
-46.592
-46.425
-46.107
-45.658
-45.097
-44.45
-43.746
-43.007
-42.248
-41.483
-40.723
-39.976
-39.248
-38.54
-37.85
-37.176
-36.515
-35.869
-35.237
-34.619
-34.014
-33.418
-32.831
-32.251
-31.678
-31.112
-30.553
-30.004
-29.465
-28.937
-28.426
-27.932
-27.457
-27.002
-26.567
-26.152
-25.759
-25.387
-25.037
-24.709
-24.404
-24.123
-23.866
-23.636
-23.433
-23.258
-23.112
-22.996
-22.909
-22.854
-22.83
-22.836
-22.874
-22.942
-23.041
-23.169
-23.324
-23.506
-23.712
-23.94
-24.188
-24.455
-24.737
-25.032
-25.338
-25.653
-25.974
-26.3
-26.629
-26.959
-27.288
-27.615
-27.937
-28.255
-28.565
-28.867
-29.16
-29.442
-29.713
-29.972
-30.218
-30.451
-30.672
-30.879
-31.074
-31.256
-31.428
-31.589
-31.742
-31.888
-32.028
-32.166
-32.303
-32.441
-32.582
-32.73
-32.886
-33.053
-33.232
-33.424
-33.632
-33.857
-34.1
-34.361
-34.641
-34.941
-35.26
-35.597
-35.954
-36.329
-36.722
-37.131
-37.555
-37.995
-38.448
-38.912
-39.387
-39.871
-40.362
-40.859
-41.359
-41.86
-42.36
-42.857
-43.348
-43.831
-44.304
-44.764
-45.209
-45.637
-46.046
-46.435
-46.802
-47.146
-47.466
-47.762
-48.032
-48.276
-48.495
-48.689
-48.856
-48.999
-49.117
-49.21
-49.278
-49.322
-49.343
-49.339
-49.311
-49.259
-49.181
-49.078
-48.949
-48.794
-48.612
-48.401
-48.162
-47.895
-47.597
-47.268
-46.908
-46.516
-46.089
-45.628
-45.131
-44.597
-44.026
-43.415
-42.765
-42.074
-41.344
-40.572
-39.761
-38.909
-38.019
-37.091
-36.128
-35.131
-34.103
-33.049
-31.975
-30.888
-29.794
-28.701
-27.618
-26.554
-25.519
-24.521
-23.569
-22.669
-21.831
-21.061
-20.37
-19.767
-19.262
-18.862
-18.576
-18.41
-18.369
-18.461
-18.683
-19.036
-19.521
-20.141
-20.908
-21.832
-22.918
-24.171
-25.592
-27.175
-28.913
-30.793
-32.788
-34.872
-37.015
-39.19
-41.375
-43.549
-45.68
-47.729
-49.644
-51.373
-52.876
-54.117
-55.068
-55.725
-56.093
-56.203
-56.113
-55.867
-55.527
-55.168
-54.866
-54.714
-54.813
-55.237
-56.111
-57.607
-59.805
-62.696
-66.129
-69.744
-73.197
-76.224
-78.455
-79.468
-79
-76.987
-73.842
-70.481
-67.769
-66.342
-66.75
-69.481
-74.801
-82.568
-91.635
-99.818
-104.682
-103.954
-95.425
-76.766
-45.739
-0.256
59.26
128.941
204.459
280.981
356.554
434.884
516.929
599.416
674.496
722.846
725.963
674.18
563.03
406.224
230.321
60.813
-74.032
-157.823
-193.097
-188.508
-159.365
-120.653
-78.52
-38.415
-7.364
9.576
8.9
-7.312
-29.426
-48.39
-59.378
-62.322
-62.274
-63
-65.171
-67.944
-69.123
-67.924
-65.197
-61.873
-58.946
-57.022
-56.108
-56.158
-57.114
-58.756
-60.901
-63.425
-66.19
-69.084
-72.03
-74.938
-77.713
-80.292
-82.603
-84.555
-86.089
-87.165
-87.768
-87.916
-87.638
-86.96
-85.921
-84.563
-82.924
-81.047
-78.973
-76.742
-74.4
-71.996
-69.579
-67.197
-64.887
-62.673
-60.569
-58.582
-56.708
-54.945
-53.282
-51.707
-50.211
-48.784
-47.418
-46.104
-44.831
-43.587
-42.356
-41.123
-39.874
-38.593
-37.269
-35.888
-34.441
-32.916
-31.307
-29.606
-27.806
-25.897
-23.871
-21.718
-19.427
-16.989
-14.394
-11.634
-8.701
-5.591
-2.301
1.169
4.816
8.635
12.625
16.781
21.103
25.586
30.218
34.992
39.893
44.902
50
55.154
60.331
65.503
70.646
75.74
80.774
85.733
90.603
95.377
100.036
104.568
108.965
113.21
117.291
121.205
124.949
128.543
132.013
135.369
138.611
141.738
144.728
147.568
150.238
152.695
154.906
156.837
158.447
159.709
160.598
161.068
161.08
160.581
159.503
157.81
155.478
152.479
148.811
144.467
139.447
133.798
127.57
120.809
113.582
105.946
97.964
89.733
81.334
72.852
64.384
56
47.76
39.741
32.001
24.602
17.607
11.034
4.89
-0.812
-6.086
-10.945
-15.414
-19.554
-23.412
-27.019
-30.414
-33.617
-36.642
-39.522
-42.282
-44.947
-47.551
-50.107
-52.619
-55.099
-57.539
-59.925
-62.233
-64.417
-66.44
-68.286
-69.939
-71.394
-72.653
-73.71
-74.563
-75.217
-75.667
-75.915
-75.965
-75.816
-75.479
-74.971
-74.314
-73.541
-72.68
-71.752
-70.775
-69.764
-68.728
-67.68
-66.626
-65.57
-64.518
-63.478
-62.457
-61.464
-60.505
-59.582
-58.696
-57.846
-57.03
-56.246
-55.493
-54.769
-54.073
-53.405
-52.765
-52.153
-51.572
-51.02
-50.495
-49.996
-49.521
-49.068
-48.633
-48.215
-47.812
-47.42
-47.038
-46.664
-46.298
-45.936
-45.578
-45.222
-44.868
-44.513
-44.159
-43.805
-43.451
-43.099
-42.749
-42.404
-42.065
-41.734
-41.415
-41.108
-40.817
-40.544
-40.291
-40.059
-39.851
-39.667
-39.509
-39.378
-39.274
-39.197
-39.147
-39.124
-39.126
-39.154
-39.206
-39.28
-39.374
-39.488
-39.619
-39.764
-39.92
-40.085
-40.255
-40.427
-40.594
-40.754
-40.9
-41.028
-41.132
-41.206
-41.245
-41.244
-41.197
-41.099
-40.945
-40.73
-40.451
-40.104
-39.687
-39.198
-38.635
-37.998
-37.288
-36.505
-35.65
-34.727
-33.736
-32.681
-31.566
-30.393
-29.167
-27.892
-26.574
-25.218
-23.83
-22.417
-20.987
-19.546
-18.103
-16.666
-15.244
-13.844
-12.475
-11.147
-9.867
-8.644
-7.487
-6.401
-5.396
-4.476
-3.647
-2.914
-2.281
-1.749
-1.321
-0.997
-0.778
-0.663
-0.65
-0.739
-0.926
-1.209
-1.584
-2.047
-2.593
-3.216
-3.91
-4.667
-5.481
-6.342
-7.243
-8.175
-9.128
-10.093
-11.061
-12.021
-12.964
-13.879
-14.757
-15.59
-16.367
-17.08
-17.723
-18.289
-18.773
-19.169
-19.475
-19.688
-19.805
-19.827
-19.752
-19.582
-19.317
-18.959
-18.513
-17.981
-17.37
-16.684
-15.931
-15.12
-14.261
-13.363
-12.437
-11.496
-10.552
-9.617
-8.704
-7.823
-6.988
-6.21
-5.501
-4.871
-4.333
-3.898
-3.575
-3.375
-3.305
-3.37
-3.575
-3.919
-4.405
-5.033
-5.807
-6.731
-7.806
-9.034
-10.417
-11.952
-13.632
-15.439
-17.347
-19.327
-21.346
-23.374
-25.382
-27.337
-29.207
-30.957
-32.546
-33.933
-35.084
-35.962
-36.534
-36.778
-36.691
-36.308
-35.696
-34.93
-34.082
-33.212
-32.385
-31.692
-31.245
-31.136
-31.446
-32.223
-33.534
-35.538
-38.32
-41.806
-45.757
-49.75
-53.364
-56.289
-58.129
-58.293
-56.409
-52.51
-47.068
-41.058
-35.26
-30.335
-27.321
-27.145
-30.322
-35.516
-39.267
-39.408
-34.781
-25.803
-15.226
0.89
29.559
74.573
142.06
228.845
325.242
429.114
533.432
629.811
712.588
765.42
772.964
731.758
642.399
514.961
370.199
223.859
92.109
-7.072
-69.372
-95.805
-94.148
-82.227
-69.692
-59.9
-52.669
-42.05
-27.205
-11.671
1.562
9.089
10.271
7.031
1
-6.127
-12.724
-17.687
-20.355
-20.617
-18.866
-15.767
-11.95
-7.935
-4.268
-1.421
0.384
1.149
1.04
0.32
-0.8
-2.181
-3.692
-5.198
-6.604
-7.817
-8.763
-9.404
-9.69
-9.585
-9.08
-8.182
-6.918
-5.355
-3.578
-1.658
0.35
2.417
4.551
6.74
8.96
11.182
13.368
15.485
17.51
19.42
21.193
22.822
24.313
25.695
27.022
28.327
29.626
30.917
32.172
33.375
34.526
35.621
36.659
37.644
38.578
39.475
40.362
41.251
42.153
43.066
43.977
44.885
45.797
46.728
47.701
48.738
49.856
51.075
52.417
53.9
55.54
57.347
59.319
61.461
63.775
66.264
68.931
71.78
74.808
78.015
81.398
84.944
88.643
92.479
96.43
100.474
104.583
108.718
112.852
116.963
121.03
125.043
128.989
132.853
136.621
140.282
143.82
147.229
150.498
153.608
156.553
159.331
161.951
164.444
166.828
169.103
171.262
173.288
175.16
176.863
178.374
179.652
180.662
181.37
181.748
181.787
181.468
180.76
179.619
177.977
175.781
172.999
169.609
165.589
160.927
155.611
149.641
143.06
135.916
128.248
120.1
111.498
102.478
93.104
83.451
73.614
63.69
53.763
43.919
34.261
24.896
15.925
7.435
-0.531
-7.944
-14.77
-20.983
-26.552
-31.457
-35.703
-39.313
-42.315
-44.746
-46.65
-48.08
-49.117
-49.861
-50.4
-50.816
-51.164
-51.48
-51.805
-52.176
-52.623
-53.166
-53.815
-54.568
-55.427
-56.393
-57.455
-58.596
-59.777
-60.944
-62.057
-63.078
-63.984
-64.761
-65.397
-65.882
-66.216
-66.407
-66.463
-66.398
-66.219
-65.93
-65.541
-65.069
-64.531
-63.955
-63.36
-62.762
-62.172
-61.599
-61.048
-60.524
-60.027
-59.549
-59.089
-58.64
-58.202
-57.775
-57.358
-56.948
-56.545
-56.146
-55.751
-55.361
-54.977
-54.599
-54.229
-53.87
-53.524
-53.194
-52.884
-52.596
-52.33
-52.088
-51.869
-51.676
-51.506
-51.359
-51.234
-51.131
-51.049
-50.987
-50.945
-50.924
-50.922
-50.941
-50.98
-51.04
-51.12
-51.221
-51.342
-51.482
-51.639
-51.813
-52.001
-52.201
-52.41
-52.626
-52.847
-53.069
-53.29
-53.507
-53.718
-53.921
-54.113
-54.293
-54.46
-54.613
-54.751
-54.874
-54.983
-55.079
-55.162
-55.233
-55.293
-55.342
-55.38
-55.409
-55.428
-55.438
-55.44
-55.434
-55.422
-55.404
-55.382
-55.358
-55.333
-55.311
-55.292
-55.279
-55.274
-55.281
-55.3
-55.336
-55.39
-55.464
-55.56
-55.681
-55.827
-56
-56.199
-56.424
-56.675
-56.951
-57.251
-57.574
-57.918
-58.283
-58.668
-59.071
-59.492
-59.929
-60.382
-60.849
-61.329
-61.82
-62.321
-62.829
-63.342
-63.86
-64.378
-64.895
-65.409
-65.916
-66.415
-66.901
-67.373
-67.826
-68.258
-68.666
-69.047
-69.4
-69.722
-70.011
-70.266
-70.486
-70.67
-70.815
-70.922
-70.988
-71.012
-70.992
-70.925
-70.811
-70.646
-70.43
-70.159
-69.833
-69.45
-69.008
-68.506
-67.942
-67.317
-66.628
-65.877
-65.062
-64.186
-63.248
-62.252
-61.2
-60.094
-58.939
-57.738
-56.496
-55.218
-53.911
-52.579
-51.23
-49.87
-48.508
-47.151
-45.809
-44.489
-43.201
-41.954
-40.758
-39.625
-38.563
-37.584
-36.698
-35.917
-35.252
-34.713
-34.309
-34.044
-33.925
-33.958
-34.149
-34.506
-35.035
-35.738
-36.618
-37.674
-38.904
-40.303
-41.854
-43.532
-45.308
-47.158
-49.057
-50.988
-52.929
-54.856
-56.739
-58.543
-60.237
-61.795
-63.188
-64.391
-65.388
-66.171
-66.761
-67.224
-67.624
-68.033
-68.51
-69.077
-69.777
-70.672
-71.83
-73.334
-75.249
-77.586
-80.379
-83.732
-87.659
-92.075
-96.744
-101.15
-104.808
-107.423
-108.663
-108.094
-105.496
-100.889
-94.635
-87.829
-81.497
-76.057
-72.115
-70.49
-71.493
-74.94
-78.973
-79.506
-73.064
-58.134
-36.261
-10.434
18.241
51.314
95.768
158.359
241.536
344.856
459.2
571.281
667.78
733.876
757.567
731.487
654.076
529.02
369.099
195.482
29.816
-104.222
-189.529
-224.731
-216.481
-179.107
-132.748
-90.47
-59.086
-42.894
-36.863
-33.505
-29.619
-21.487
-11.18
-5.401
-6.187
-13.716
-25.846
-37.756
-47.302
-54.31
-58.463
-59.77
-58.4
-54.599
-49.412
-44.315
-40.056
-36.802
-34.692
-33.878
-34.459
-36.479
-39.561
-43.011
-46.526
-49.987
-53.35
-56.686
-59.785
-62.356
-64.445
-66.164
-67.353
-67.938
-67.672
-66.196
-63.853
-61.066
-57.87
-54.415
-50.995
-47.745
-45.135
-43.707
-43.074
-42.827
-42.905
-43.09
-43.253
-43.394
-43.122
-42.026
-40.41
-38.56
-36.571
-34.656
-32.8
-30.917
-29.194
-27.801
-26.599
-25.48
-24.369
-23.137
-21.824
-20.485
-19.069
-17.55
-15.935
-14.218
-12.413
-10.539
-8.568
-6.471
-4.235
-1.84
0.716
3.433
6.32
9.377
12.61
16.023
19.617
23.395
27.358
31.497
35.807
40.275
44.887
49.623
54.46
59.368
64.321
69.295
74.269
79.226
84.147
89.013
93.806
98.503
103.092
107.566
111.925
116.171
120.309
124.347
128.3
132.194
136.045
139.858
143.629
147.344
150.988
154.541
157.983
161.291
164.43
167.358
170.028
172.385
174.368
175.92
176.965
177.423
177.233
176.351
174.754
172.43
169.364
165.555
161.008
155.733
149.751
143.081
135.735
127.752
119.188
110.102
100.587
90.731
80.604
70.276
59.801
49.232
38.638
28.071
17.571
7.197
-2.991
-12.899
-22.407
-31.434
-39.918
-47.81
-55.09
-61.724
-67.672
-72.913
-77.435
-81.23
-84.303
-86.645
-88.229
-89.065
-89.194
-88.705
-87.728
-86.364
-84.698
-82.813
-80.787
-78.717
-76.697
-74.789
-73.031
-71.463
-70.125
-69.079
-68.406
-68.151
-68.321
-68.89
-69.795
-70.995
-72.449
-74.106
-75.9
-77.747
-79.575
-81.345
-83.044
-84.651
-86.138
-87.457
-88.547
-89.374
-89.924
-90.197
-90.202
-89.944
-89.431
-88.688
-87.758
-86.695
-85.536
-84.3
-82.987
-81.603
-80.158
-78.672
-77.163
-75.639
-74.102
-72.557
-71.006
-69.458
-67.913
-66.362
-64.786
-63.164
-61.484
-59.741
-57.937
-56.073
-54.15
-52.17
-50.138
-48.064
-45.957
-43.823
-41.667
-39.492
-37.305
-35.116
-32.936
-30.776
-28.646
-26.554
-24.507
-22.513
-20.579
-18.709
-16.905
-15.169
-13.502
-11.907
-10.384
-8.937
-7.565
-6.269
-5.05
-3.909
-2.844
-1.854
-0.939
-0.095
0.679
1.386
2.03
2.612
3.137
3.606
4.024
4.392
4.716
4.997
5.24
5.449
5.626
5.776
5.902
6.008
6.095
6.167
6.226
6.274
6.312
6.341
6.362
6.377
6.385
6.388
6.386
6.38
6.368
6.353
6.332
6.305
6.272
6.233
6.186
6.131
6.067
5.994
5.912
5.82
5.718
5.606
5.482
5.347
5.201
5.041
4.869
4.684
4.486
4.275
4.052
3.818
3.573
3.319
3.058
2.79
2.518
2.244
1.968
1.693
1.422
1.157
0.9
0.655
0.425
0.211
0.019
-0.15
-0.292
-0.404
-0.484
-0.529
-0.536
-0.501
-0.421
-0.294
-0.115
0.119
0.41
0.762
1.178
1.658
2.206
2.822
3.507
4.263
5.088
5.983
6.946
7.978
9.074
10.234
11.452
12.725
14.047
15.412
16.814
18.243
19.693
21.153
22.615
24.067
25.499
26.9
28.259
29.565
30.807
31.972
33.049
34.027
34.893
35.638
36.247
36.711
37.019
37.163
37.137
36.937
36.559
36.001
35.255
34.318
33.188
31.865
30.348
28.64
26.747
24.685
22.48
20.163
17.764
15.313
12.831
10.345
7.883
5.475
3.156
0.962
-1.073
-2.921
-4.547
-5.93
-7.053
-7.932
-8.622
-9.189
-9.7
-10.214
-10.754
-11.357
-12.091
-13.016
-14.205
-15.741
-17.66
-20.037
-23.031
-26.651
-30.781
-35.166
-39.265
-42.552
-44.676
-45.13
-43.339
-39.212
-32.962
-25.208
-17.33
-10.454
-5.25
-2.782
-3.951
-8.528
-15.576
-23.236
-28.337
-27.997
-19.765
-0.314
33.645
82.221
142.846
212.555
286.716
365.353
453.124
546.961
639.051
714.575
751.891
742.392
688.33
600.096
495.348
383.074
268.286
157.008
56.466
-20.732
-66.134
-81.174
-75.558
-62.528
-50.83
-42.045
-32.857
-21.082
-7.946
3.704
10.583
11.821
8.85
3.316
-3.011
-8.605
-12.407
-13.746
-12.484
-9.011
-4.033
1.742
7.714
13.299
17.983
21.483
23.705
24.696
24.616
23.613
21.806
19.357
16.431
13.151
9.651
6.053
2.482
-0.901
-3.963
-6.627
-8.838
-10.568
-11.801
-12.508
-12.667
-12.287
-11.387
-9.995
-8.146
-5.87
-3.22
-0.266
2.9
6.177
9.489
12.788
16.042
19.23
22.335
25.338
28.226
31.005
33.679
36.251
38.722
41.092
43.37
45.577
47.744
49.903
52.08
54.292
56.551
58.867
61.249
63.707
66.242
68.853
71.541
74.309
77.163
80.108
83.149
86.283
89.51
92.826
96.226
99.709
103.268
106.897
110.589
114.336
118.13
121.962
125.821
129.694
133.564
137.414
141.226
144.981
148.658
152.235
155.691
159.004
162.15
165.107
167.853
170.366
172.621
174.598
176.274
177.628
178.639
179.287
179.553
179.419
178.867
177.882
176.449
174.555
172.19
169.345
166.012
162.187
157.867
153.05
147.741
141.941
135.658
128.9
121.677
114.003
105.892
97.361
88.43
79.118
69.448
59.443
49.129
38.532
27.679
16.599
5.322
-6.122
-17.703
-29.388
-41.145
-52.941
-64.744
-76.52
-88.237
-99.863
-111.365
-122.713
-133.877
-144.827
-155.536
-165.978
-176.128
-185.962
-195.457
-204.595
-213.355
-221.721
-229.678
-237.214
-244.315
-250.974
-257.182
-262.933
-268.225
-273.053
-277.418
-281.319
-284.76
-287.743
-290.276
-292.364
-294.017
-295.244
-296.057
-296.468
-296.492
-296.143
-295.436
-294.387
-293.013
-291.329
-289.354
-287.104
-284.597
-281.851
-278.882
-275.709
-272.348
-268.816
-265.129
-261.302
-257.35
-253.288
-249.129
-244.887
-240.575
-236.204
-231.787
-227.335
-222.858
-218.367
-213.869
-209.375
-204.891
-200.423
-195.978
-191.562
-187.177
-182.829
-178.521
-174.255
-170.035
-165.862
-161.738
-157.664
-153.642
-149.672
-145.755
-141.891
-138.082
-134.328
-130.629
-126.989
-123.406
-119.884
-116.423
-113.025
-109.692
-106.424
-103.223
-100.09
-97.026
-94.032
-91.108
-88.255
-85.474
-82.765
-80.131
-77.572
-75.088
-72.681
-70.352
-68.1
-65.928
-63.835
-61.822
-59.89
-58.038
-56.267
-54.576
-52.965
-51.433
-49.979
-48.599
-47.292
-46.054
-44.882
-43.77
-42.716
-41.715
-40.762
-39.853
-38.984
-38.151
-37.35
-36.579
-35.832
-35.107
-34.402
-33.713
-33.037
-32.372
-31.717
-31.068
-30.425
-29.786
-29.15
-28.514
-27.879
-27.244
-26.607
-25.968
-25.328
-24.687
-24.046
-23.407
-22.772
-22.144
-21.527
-20.925
-20.341
-19.78
-19.246
-18.744
-18.276
-17.847
-17.459
-17.116
-16.819
-16.571
-16.373
-16.225
-16.129
-16.084
-16.089
-16.143
-16.244
-16.39
-16.579
-16.808
-17.074
-17.374
-17.705
-18.063
-18.443
-18.841
-19.252
-19.67
-20.087
-20.498
-20.895
-21.268
-21.612
-21.916
-22.173
-22.375
-22.515
-22.584
-22.575
-22.483
-22.301
-22.023
-21.645
-21.163
-20.575
-19.877
-19.07
-18.152
-17.124
-15.987
-14.743
-13.395
-11.945
-10.399
-8.76
-7.033
-5.226
-3.345
-1.398
0.605
2.654
4.735
6.838
8.946
11.046
13.122
15.159
17.142
19.055
20.886
22.622
24.247
25.75
27.117
28.335
29.392
30.277
30.98
31.493
31.812
31.934
31.86
31.59
31.124
30.455
29.58
28.496
27.202
25.697
23.987
22.085
20.009
17.789
15.457
13.045
10.583
8.096
5.612
3.159
0.771
-1.508
-3.633
-5.565
-7.264
-8.692
-9.831
-10.686
-11.28
-11.676
-11.932
-12.089
-12.2
-12.322
-12.523
-12.898
-13.538
-14.516
-15.938
-17.947
-20.623
-23.964
-27.805
-31.763
-35.393
-38.285
-39.999
-40.068
-38.218
-34.445
-29.181
-23.402
-18.255
-14.711
-13.591
-15.598
-20.979
-29.315
-39.292
-48.529
-53.977
-52.699
-42.119
-19.665
16.801
68.367
134.868
213.252
297.617
382.47
463.567
539.796
612.055
677.05
726.549
748.182
731.118
673.435
582.19
469.437
346.221
221.052
101.35
-3.119
-80.948
-125.837
-139.295
-130.868
-112.278
-90.95
-69.208
-45.397
-19.089
7.33
30.656
47.11
54.564
53.346
44.883
31.607
16.538
2.197
-9.913
-18.825
-23.75
-24.459
-21.187
-14.617
-6.205
2.498
10.65
17.744
23.381
27.459
29.905
30.758
30.456
29.536
28.296
26.918
25.483
23.976
22.459
21.004
19.592
18.182
16.747
15.292
13.871
12.562
11.431
10.519
9.851
9.454
9.34
9.515
9.977
10.711
11.689
12.893
14.303
15.897
17.667
19.593
21.649
23.802
26.013
28.246
30.475
32.675
34.823
36.906
38.917
40.861
42.751
44.607
46.446
48.287
50.151
52.058
54.027
56.073
58.209
60.441
62.779
65.235
67.825
70.567
73.463
76.511
79.708
83.037
86.481
90.017
93.605
97.215
100.83
104.441
108.053
111.686
115.345
119.031
122.745
126.481
130.239
134.023
137.822
141.644
145.502
149.422
153.454
157.646
162.019
166.595
171.388
176.384
181.58
186.967
192.511
198.191
203.981
209.85
215.786
221.759
227.724
233.625
239.384
244.91
250.123
254.924
259.197
262.852
265.794
267.951
269.293
269.78
269.372
268.038
265.743
262.456
258.164
252.855
246.515
239.167
230.85
221.647
211.687
201.09
189.986
178.486
166.673
154.64
142.493
130.328
118.236
106.323
94.69
83.464
72.804
62.827
53.619
45.22
37.616
30.789
24.716
19.369
14.723
10.742
7.369
4.567
2.31
0.548
-0.776
-1.763
-2.558
-3.276
-4.003
-4.795
-5.67
-6.645
-7.742
-8.962
-10.289
-11.704
-13.174
-14.695
-16.297
-17.988
-19.765
-21.596
-23.41
-25.161
-26.825
-28.389
-29.859
-31.238
-32.516
-33.714
-34.873
-36.032
-37.241
-38.51
-39.813
-41.137
-42.476
-43.836
-45.247
-46.718
-48.243
-49.821
-51.447
-53.119
-54.843
-56.603
-58.364
-60.095
-61.759
-63.345
-64.871
-66.346
-67.772
-69.148
-70.467
-71.728
-72.941
-74.105
-75.213
-76.257
-77.229
-78.129
-78.969
-79.757
-80.504
-81.209
-81.861
-82.454
-82.985
-83.451
-83.851
-84.182
-84.437
-84.618
-84.732
-84.784
-84.784
-84.735
-84.638
-84.496
-84.314
-84.096
-83.848
-83.578
-83.289
-82.988
-82.679
-82.37
-82.066
-81.772
-81.491
-81.224
-80.975
-80.744
-80.536
-80.353
-80.195
-80.064
-79.962
-79.893
-79.856
-79.854
-79.887
-79.955
-80.06
-80.201
-80.378
-80.591
-80.838
-81.12
-81.436
-81.784
-82.164
-82.575
-83.014
-83.482
-83.976
-84.494
-85.035
-85.596
-86.175
-86.772
-87.384
-88.011
-88.65
-89.301
-89.964
-90.636
-91.318
-92.009
-92.708
-93.414
-94.125
-94.842
-95.564
-96.289
-97.018
-97.751
-98.486
-99.223
-99.961
-100.699
-101.436
-102.17
-102.9
-103.623
-104.338
-105.044
-105.738
-106.419
-107.085
-107.735
-108.367
-108.98
-109.57
-110.136
-110.676
-111.186
-111.663
-112.106
-112.51
-112.874
-113.193
-113.466
-113.689
-113.859
-113.972
-114.026
-114.016
-113.94
-113.795
-113.577
-113.284
-112.916
-112.47
-111.947
-111.346
-110.669
-109.916
-109.09
-108.193
-107.226
-106.193
-105.097
-103.942
-102.733
-101.473
-100.17
-98.83
-97.461
-96.073
-94.676
-93.28
-91.896
-90.534
-89.207
-87.926
-86.699
-85.537
-84.448
-83.443
-82.532
-81.729
-81.044
-80.484
-80.059
-79.775
-79.638
-79.651
-79.813
-80.121
-80.573
-81.172
-81.929
-82.855
-83.956
-85.237
-86.699
-88.334
-90.133
-92.079
-94.142
-96.288
-98.484
-100.695
-102.899
-105.069
-107.175
-109.173
-111.006
-112.615
-113.952
-114.975
-115.656
-115.996
-116.004
-115.723
-115.223
-114.561
-113.817
-113.093
-112.482
-112.097
-112.06
-112.45
-113.403
-115.133
-117.737
-121.193
-125.317
-129.647
-133.731
-137.308
-140.003
-141.306
-140.96
-138.991
-135.905
-132.964
-131.386
-131.705
-134.325
-139.896
-148.489
-159.391
-171.228
-180.005
-181.601
-174.673
-157.024
-128.763
-90.718
-39.42
24.338
99.845
186.943
278.97
374.522
470.64
557.778
629.729
673.354
674.638
631.553
544.042
418.71
273.117
120.898
-21.243
-132.519
-205.759
-239.27
-239.83
-226.511
-209.858
-194.207
-180.241
-161.424
-136.784
-110.584
-86.527
-69.46
-61.847
-62.782
-70.775
-83.763
-99.064
-114.062
-127.086
-137.115
-143.302
-145.561
-144.255
-139.895
-133.701
-127.209
-121.253
-116.301
-112.723
-110.462
-109.393
-109.403
-110.007
-110.599
-110.854
-110.54
-109.515
-107.811
-105.411
-102.299
-98.596
-94.428
-89.893
-85.101
-80.126
-75.027
-69.907
-64.867
-59.997
-55.39
-51.106
-47.208
-43.765
-40.8
-38.304
-36.226
-34.46
-32.924
-31.55
-30.263
-28.995
-27.672
-26.212
-24.556
-22.667
-20.504
-18.036
-15.222
-12.006
-8.38
-4.365
-0.015
4.577
9.348
14.258
19.265
24.327
29.406
34.455
39.453
44.401
49.281
54.063
58.701
63.13
67.318
71.255
74.937
78.374
81.559
84.472
87.101
89.442
91.484
93.232
94.681
95.824
96.693
97.337
97.824
98.24
98.651
99.115
99.708
100.51
101.597
103.054
104.951
107.358
110.356
113.999
118.319
123.329
128.987
135.235
142.003
149.196
156.728
164.513
172.436
180.382
188.247
195.91
203.25
210.134
216.396
221.908
226.578
230.338
233.172
235.075
236.038
236.087
235.247
233.537
231.003
227.681
223.591
218.794
213.367
207.412
201.083
194.502
187.767
180.974
174.189
167.48
160.929
154.598
148.544
142.849
137.579
132.81
128.641
125.123
122.285
120.135
118.636
117.761
117.494
117.801
118.65
120.008
121.82
124.036
126.61
129.461
132.519
135.715
138.959
142.197
145.392
148.51
151.544
154.49
157.335
160.083
162.748
165.335
167.873
170.383
172.887
175.425
178.032
180.726
183.531
186.449
189.461
192.559
195.728
198.951
202.222
205.528
208.85
212.178
215.493
218.778
222.015
225.175
228.227
231.158
233.963
236.655
239.265
241.811
244.29
246.701
249.022
251.226
253.282
255.143
256.747
258.044
258.986
259.536
259.671
259.352
258.528
257.14
255.112
252.39
248.944
244.75
239.798
234.1
227.681
220.592
212.912
204.708
196.041
186.969
177.544
167.825
157.874
147.753
137.525
127.244
116.947
106.667
96.431
86.246
76.105
65.99
55.864
45.701
35.479
25.167
14.722
4.113
-6.675
-17.643
-28.777
-40.057
-51.462
-62.949
-74.456
-85.909
-97.232
-108.357
-119.229
-129.792
-139.988
-149.739
-158.947
-167.532
-175.45
-182.667
-189.169
-194.941
-199.976
-204.303
-208.004
-211.166
-213.872
-216.178
-218.116
-219.72
-221.041
-222.143
-223.109
-224.001
-224.86
-225.724
-226.635
-227.634
-228.763
-230.018
-231.339
-232.657
-233.918
-235.091
-236.174
-237.158
-238.025
-238.75
-239.317
-239.717
-239.953
-240.019
-239.895
-239.556
-238.978
-238.167
-237.166
-236.028
-234.793
-233.487
-232.124
-230.717
-229.287
-227.849
-226.403
-224.943
-223.461
-221.957
-220.443
-218.937
-217.453
-215.993
-214.55
-213.106
-211.65
-210.172
-208.664
-207.113
-205.507
-203.837
-202.102
-200.306
-198.452
-196.541
-194.569
-192.531
-190.421
-188.234
-185.963
-183.604
-181.155
-178.619
-176.002
-173.314
-170.571
-167.79
-164.986
-162.171
-159.352
-156.531
-153.701
-150.86
-148.001
-145.125
-142.243
-139.363
-136.494
-133.639
-130.802
-127.972
-125.135
-122.27
-119.349
-116.357
-113.291
-110.164
-107.007
-103.861
-100.774
-97.786
-94.924
-92.212
-89.667
-87.306
-85.146
-83.216
-81.558
-80.218
-79.255
-78.711
-78.612
-78.954
-79.708
-80.82
-82.205
-83.789
-85.501
-87.28
-89.081
-90.857
-92.563
-94.146
-95.54
-96.672
-97.462
-97.841
-97.752
-97.177
-96.138
-94.699
-92.972
-91.066
-89.07
-87.077
-85.177
-83.458
-82.014
-80.936
-80.292
-80.177
-80.761
-82.126
-84.236
-86.915
-89.756
-92.287
-94.11
-94.747
-93.592
-90.301
-84.9
-77.795
-70.066
-62.897
-57.113
-53.617
-53.374
-56.695
-63.026
-71.031
-78.112
-81.091
-77.144
-63.265
-35.984
6.187
61.654
128.123
201.851
280.595
367.705
464.444
565.621
661.031
731.667
757.564
731.264
653.101
532.324
389.224
239.64
99.582
-12.845
-92.456
-138.488
-156.412
-162.066
-163.144
-161.435
-156.021
-140.202
-112.947
-78.395
-41.192
-7.139
20.283
39.692
50.402
52.836
47.913
36.97
21.967
4.642
-13.189
-29.276
-42.214
-51.342
-56.377
-57.761
-56.284
-52.612
-47.749
-43.042
-39.272
-36.829
-35.902
-36.253
-37.596
-39.726
-42.225
-44.57
-46.477
-47.799
-48.501
-48.703
-48.465
-47.798
-46.771
-45.453
-43.887
-42.109
-40.125
-37.92
-35.516
-32.954
-30.282
-27.556
-24.81
-22.064
-19.337
-16.641
-13.988
-11.387
-8.842
-6.356
-3.931
-1.57
0.723
2.947
5.11
7.22
9.288
11.329
13.352
15.367
17.379
19.396
21.423
23.466
25.533
27.63
29.767
31.951
34.194
36.507
38.9
41.383
43.968
46.662
49.474
52.414
55.494
58.727
62.12
65.679
69.405
73.295
77.345
81.546
85.883
90.338
94.889
99.516
104.203
108.94
113.71
118.493
123.265
127.995
132.662
137.259
141.78
146.222
150.594
154.906
159.186
163.478
167.813
172.215
176.696
181.248
185.874
190.58
195.374
200.268
205.253
210.294
215.351
220.375
225.293
230.026
234.46
238.447
241.864
244.602
246.571
247.705
247.928
247.153
245.306
242.316
238.142
232.784
226.25
218.568
209.803
200.042
189.42
178.123
166.318
154.158
141.796
129.363
117.015
104.927
93.257
82.155
71.746
62.118
53.351
45.511
38.627
32.702
27.693
23.514
20.089
17.348
15.211
13.602
12.423
11.547
10.871
10.3
9.752
9.17
8.497
7.681
6.694
5.531
4.204
2.752
1.204
-0.414
-2.066
-3.715
-5.309
-6.783
-8.088
-9.191
-10.062
-10.686
-11.048
-11.135
-10.95
-10.507
-9.824
-8.926
-7.835
-6.568
-5.153
-3.616
-1.992
-0.316
1.382
3.082
4.765
6.418
8.027
9.583
11.08
12.519
13.898
15.215
16.47
17.659
18.78
19.835
20.827
21.757
22.629
23.441
24.197
24.898
25.545
26.141
26.685
27.18
27.626
28.027
28.387
28.712
29.005
29.272
29.518
29.748
29.967
30.18
30.39
30.599
30.812
31.029
31.254
31.488
31.732
31.988
32.257
32.539
32.834
33.142
33.462
33.795
34.138
34.491
34.852
35.218
35.589
35.961
36.332
36.699
37.06
37.41
37.746
38.065
38.363
38.635
38.88
39.092
39.268
39.407
39.505
39.561
39.573
39.54
39.462
39.339
39.17
38.957
38.699
38.397
38.054
37.67
37.247
36.787
36.292
35.764
35.207
34.622
34.013
33.383
32.733
32.068
31.391
30.704
30.011
29.315
28.618
27.926
27.239
26.561
25.895
25.242
24.604
23.983
23.379
22.793
22.225
21.675
21.142
20.626
20.127
19.642
19.172
18.713
18.265
17.825
17.391
16.961
16.533
16.103
15.669
15.23
14.782
14.322
13.848
13.357
12.846
12.311
11.75
11.16
10.537
9.879
9.183
8.445
7.665
6.839
5.965
5.041
4.066
3.037
1.953
0.81
-0.392
-1.657
-2.985
-4.38
-5.843
-7.377
-8.985
-10.669
-12.432
-14.278
-16.211
-18.235
-20.355
-22.575
-24.901
-27.337
-29.888
-32.556
-35.345
-38.257
-41.295
-44.461
-47.756
-51.182
-54.741
-58.435
-62.265
-66.233
-70.337
-74.574
-78.94
-83.429
-88.036
-92.759
-97.595
-102.539
-107.585
-112.727
-117.957
-123.265
-128.63
-134.023
-139.407
-144.746
-150.005
-155.151
-160.151
-164.973
-169.578
-173.928
-177.986
-181.719
-185.1
-188.103
-190.709
-192.911
-194.726
-196.221
-197.473
-198.568
-199.582
-200.567
-201.587
-202.735
-204.108
-205.79
-207.851
-210.321
-213.251
-216.776
-220.926
-225.585
-230.481
-235.141
-239.138
-242.184
-243.845
-243.532
-240.994
-236.311
-229.998
-223.109
-216.271
-209.974
-205.312
-203.213
-203.973
-206.305
-206.748
-202.96
-194.266
-181.519
-167.436
-148.511
-118.149
-72.45
-5.761
78.319
170.248
267.537
363.359
450.301
523.912
569.511
573.132
531.613
445.107
321.55
177.726
27.596
-114.62
-230.279
-308.43
-347.38
-350.043
-329.023
-297.474
-258.603
-217.037
-177.767
-143.246
-122.512
-118.179
-124.39
-137.7
-150.809
-160.169
-169.273
-178.463
-188.383
-199.204
-207.663
-212.067
-212.586
-209.583
-204.593
-199.459
-194.823
-190.912
-188.048
-186.333
-185.798
-186.468
-188.03
-189.87
-191.658
-193.244
-194.498
-195.429
-195.99
-196.054
-195.6
-194.681
-193.331
-191.582
-189.443
-186.88
-183.896
-180.529
-176.818
-172.818
-168.572
-164.112
-159.479
-154.719
-149.879
-145.007
-140.14
-135.301
-130.51
-125.778
-121.121
-116.548
-112.059
-107.647
-103.3
-99.006
-94.752
-90.524
-86.296
-82.043
-77.739
-73.368
-68.925
-64.404
-59.799
-55.104
-50.312
-45.43
-40.475
-35.458
-30.384
-25.258
-20.085
-14.891
-9.722
-4.617
0.39
5.281
10.052
14.695
19.2
23.575
27.842
32.045
36.245
40.486
44.789
49.18
53.689
58.376
63.324
68.602
74.269
80.378
86.969
94.096
101.795
110.062
118.858
128.112
137.726
147.626
157.754
168.037
178.391
188.707
198.852
208.708
218.159
227.075
235.314
242.726
249.185
254.615
258.983
262.286
264.538
265.749
265.925
265.096
263.306
260.611
257.078
252.773
247.772
242.178
236.124
229.745
223.156
216.439
209.648
202.826
196.006
189.222
182.497
175.842
169.262
162.767
156.369
150.079
143.897
137.804
131.761
125.735
119.707
113.67
107.633
101.603
95.593
89.62
83.714
77.904
72.22
66.683
61.308
56.111
51.113
46.339
41.819
37.575
33.624
29.976
26.638
23.614
20.905
18.507
16.406
14.59
13.047
11.766
10.737
9.949
9.386
9.033
8.873
8.892
9.075
9.407
9.871
10.452
11.136
11.909
12.761
13.678
14.648
15.659
16.7
17.76
18.83
19.9
20.962
22.006
23.026
24.017
24.972
25.888
26.761
27.588
28.367
29.097
29.778
30.41
30.993
31.53
32.02
32.468
32.874
33.242
33.576
33.878
34.153
34.404
34.635
34.849
35.051
35.243
35.429
35.61
35.79
35.97
36.153
36.34
36.532
36.732
36.939
37.156
37.382
37.617
37.861
38.115
38.375
38.643
38.917
39.195
39.477
39.761
40.046
40.329
40.609
40.884
41.15
41.407
41.651
41.879
42.09
42.281
42.452
42.601
42.727
42.83
42.909
42.965
42.996
43.003
42.986
42.945
42.879
42.79
42.677
42.542
42.385
42.208
42.01
41.793
41.558
41.304
41.033
40.744
40.439
40.118
39.782
39.433
39.071
38.699
38.317
37.928
37.532
37.129
36.719
36.301
35.876
35.44
34.991
34.529
34.05
33.555
33.04
32.506
31.949
31.369
30.763
30.129
29.464
28.765
28.025
27.242
26.412
25.533
24.604
23.621
22.584
21.491
20.343
19.139
17.876
16.551
15.153
13.68
12.134
10.519
8.845
7.121
5.352
3.55
1.729
-0.101
-1.935
-3.776
-5.638
-7.525
-9.437
-11.363
-13.286
-15.196
-17.096
-18.987
-20.876
-22.77
-24.67
-26.592
-28.564
-30.596
-32.68
-34.792
-36.88
-38.908
-40.856
-42.708
-44.46
-46.099
-47.6
-48.944
-50.119
-51.103
-51.883
-52.425
-52.675
-52.612
-52.239
-51.583
-50.705
-49.65
-48.443
-47.114
-45.684
-44.181
-42.64
-41.084
-39.526
-37.99
-36.503
-35.109
-33.871
-32.826
-31.986
-31.349
-30.886
-30.584
-30.444
-30.461
-30.63
-30.945
-31.397
-31.99
-32.733
-33.619
-34.622
-35.702
-36.802
-37.882
-38.911
-39.868
-40.734
-41.484
-42.083
-42.501
-42.717
-42.713
-42.474
-41.983
-41.23
-40.232
-39.052
-37.783
-36.531
-35.399
-34.472
-33.813
-33.505
-33.637
-34.296
-35.573
-37.537
-40.198
-43.608
-47.834
-52.805
-58.355
-64.128
-69.541
-74.08
-77.299
-78.65
-77.707
-74.348
-68.656
-61.214
-53.002
-44.75
-37.183
-31.13
-26.858
-24.042
-21.788
-18.227
-11.166
1.439
21.947
52.769
95.717
150.236
213.308
281.501
350.579
420.128
493.568
568.377
640.108
698.683
724.8
709.393
648.8
544.354
414.303
274.514
141.45
36.162
-35.366
-72.871
-82.477
-81.88
-80.601
-81.51
-84.146
-81.024
-69.584
-52.656
-33.293
-15.809
-2.335
7.294
13.433
16.468
16.528
13.977
9.346
2.995
-4.461
-12.145
-19.579
-26.219
-31.329
-34.733
-36.441
-36.461
-35.319
-33.807
-32.35
-31.311
-31.096
-31.76
-33.298
-35.684
-38.557
-41.447
-44.079
-46.269
-47.92
-49.078
-49.764
-49.98
-49.814
-49.372
-48.729
-47.942
-47.024
-45.96
-44.766
-43.484
-42.164
-40.861
-39.62
-38.47
-37.429
-36.513
-35.731
-35.083
-34.567
-34.175
-33.896
-33.724
-33.657
-33.691
-33.82
-34.031
-34.308
-34.629
-34.978
-35.338
-35.696
-36.038
-36.353
-36.626
-36.847
-37.003
-37.082
-37.073
-36.961
-36.732
-36.373
-35.871
-35.214
-34.393
-33.397
-32.216
-30.838
-29.248
-27.436
-25.397
-23.129
-20.633
-17.916
-14.985
-11.856
-8.555
-5.103
-1.524
2.164
5.946
9.806
13.72
17.665
21.611
25.53
29.409
33.239
37.012
40.731
44.41
48.075
51.772
55.542
59.407
63.383
67.469
71.661
75.96
80.366
84.874
89.478
94.158
98.877
103.594
108.248
112.747
116.985
120.825
124.131
126.805
128.759
129.917
130.22
129.604
128.001
125.363
121.635
116.762
110.727
103.524
95.181
85.774
75.405
64.204
52.32
39.867
26.951
13.691
0.197
-13.408
-26.978
-40.371
-53.426
-65.95
-77.79
-88.81
-98.901
-108.01
-116.112
-123.195
-129.275
-134.351
-138.412
-141.475
-143.569
-144.742
-145.086
-144.708
-143.744
-142.383
-140.795
-139.135
-137.544
-136.109
-134.899
-133.977
-133.391
-133.192
-133.449
-134.202
-135.477
-137.281
-139.585
-142.342
-145.474
-148.864
-152.39
-155.934
-159.4
-162.723
-165.86
-168.772
-171.424
-173.785
-175.808
-177.464
-178.735
-179.608
-180.09
-180.198
-179.964
-179.449
-178.721
-177.853
-176.902
-175.904
-174.882
-173.855
-172.839
-171.85
-170.906
-170.018
-169.195
-168.448
-167.784
-167.21
-166.723
-166.312
-165.957
-165.634
-165.327
-165.027
-164.731
-164.436
-164.141
-163.846
-163.553
-163.266
-162.987
-162.714
-162.444
-162.172
-161.897
-161.618
-161.335
-161.051
-160.765
-160.478
-160.187
-159.89
-159.584
-159.265
-158.928
-158.565
-158.171
-157.738
-157.263
-156.739
-156.163
-155.527
-154.828
-154.061
-153.221
-152.303
-151.304
-150.218
-149.041
-147.769
-146.4
-144.93
-143.357
-141.679
-139.895
-138.004
-136.007
-133.903
-131.693
-129.377
-126.956
-124.43
-121.802
-119.072
-116.242
-113.315
-110.294
-107.183
-103.986
-100.708
-97.353
-93.926
-90.434
-86.881
-83.272
-79.614
-75.911
-72.169
-68.393
-64.59
-60.765
-56.924
-53.071
-49.213
-45.354
-41.5
-37.654
-33.822
-30.006
-26.211
-22.44
-18.696
-14.985
-11.308
-7.671
-4.076
-0.528
2.972
6.42
9.814
13.151
16.432
19.654
22.816
25.918
28.958
31.937
34.853
37.705
40.493
43.217
45.876
48.472
51.003
53.472
55.878
58.224
60.511
62.74
64.913
67.03
69.092
71.101
73.056
74.96
76.812
78.616
80.373
82.089
83.767
85.412
87.031
88.627
90.206
91.771
93.326
94.874
96.417
97.957
99.499
101.048
102.613
104.198
105.807
107.439
109.092
110.758
112.427
114.086
115.721
117.321
118.879
120.395
121.873
123.32
124.741
126.137
127.5
128.825
130.108
131.349
132.55
133.72
134.873
136.029
137.212
138.437
139.705
141.003
142.301
143.564
144.749
145.82
146.751
147.51
148.07
148.402
148.48
148.27
147.739
146.85
145.561
143.855
141.733
139.216
136.347
133.179
129.782
126.221
122.555
118.852
115.174
111.572
108.097
104.794
101.69
98.802
96.136
93.657
91.319
89.072
86.832
84.5
81.957
79.074
75.734
71.852
67.311
61.962
55.746
48.681
40.952
32.94
25.009
17.47
10.715
5.193
1.223
-1.033
-1.862
-2.07
-2.411
-3.452
-5.712
-9.628
-15.449
-23.13
-31.71
-39.177
-43.377
-42.294
-33.793
-15.797
13.622
56.441
112
176.323
245.746
316.536
387.753
463.575
544.1
622.95
689.021
724.335
714.635
658.045
559.642
430.349
285.468
136.894
-3.882
-121.157
-202.986
-243.882
-243.35
-211.431
-164.467
-116.233
-80.42
-65.532
-69.813
-87.409
-107.922
-121.651
-126.378
-124.166
-120.216
-118.458
-118.724
-119.357
-118.167
-114.378
-108.894
-102.754
-96.862
-91.819
-87.924
-85.395
-84.364
-84.758
-86.383
-89.079
-92.713
-97.151
-102.236
-107.8
-113.654
-119.626
-125.57
-131.315
-136.704
-141.619
-145.962
-149.663
-152.668
-154.944
-156.476
-157.283
-157.397
-156.855
-155.702
-153.996
-151.811
-149.24
-146.386
-143.349
-140.217
-137.06
-133.931
-130.873
-127.921
-125.089
-122.375
-119.767
-117.251
-114.824
-112.487
-110.236
-108.064
-105.951
-103.88
-101.838
-99.818
-97.813
-95.818
-93.83
-91.858
-89.926
-88.076
-86.345
-84.75
-83.291
-81.952
-80.714
-79.554
-78.444
-77.341
-76.187
-74.923
-73.506
-71.898
-70.068
-67.973
-65.554
-62.741
-59.48
-55.744
-51.529
-46.851
-41.724
-36.175
-30.245
-23.996
-17.511
-10.866
-4.113
2.703
9.543
16.371
23.134
29.776
36.27
42.598
48.765
54.792
60.682
66.446
72.102
77.676
83.208
88.726
94.226
99.698
105.122
110.46
115.688
120.776
125.658
130.271
134.541
138.373
141.701
144.467
146.608
148.077
148.818
148.782
147.953
146.334
143.932
140.781
136.908
132.339
127.146
121.398
115.174
108.582
101.706
94.621
87.415
80.167
72.962
65.902
59.059
52.482
46.226
40.326
34.825
29.781
25.213
21.132
17.543
14.426
11.771
9.575
7.814
6.454
5.453
4.741
4.272
4.02
3.95
4.035
4.241
4.513
4.823
5.154
5.488
5.821
6.141
6.432
6.695
6.948
7.211
7.523
7.907
8.368
8.916
9.556
10.294
11.146
12.113
13.185
14.353
15.61
16.948
18.362
19.84
21.358
22.891
24.412
25.897
27.334
28.709
30.012
31.233
32.363
33.4
34.348
35.208
35.981
36.668
37.268
37.785
38.226
38.598
38.909
39.166
39.375
39.544
39.679
39.788
39.877
39.952
40.017
40.079
40.146
40.225
40.324
40.452
40.616
40.824
41.085
41.406
41.795
42.257
42.798
43.424
44.139
44.948
45.855
46.863
47.975
49.192
50.516
51.948
53.487
55.134
56.886
58.743
60.701
62.758
64.91
67.152
69.48
71.89
74.374
76.928
79.543
82.214
84.931
87.688
90.477
93.288
96.115
98.949
101.781
104.604
107.41
110.192
112.943
115.654
118.319
120.931
123.484
125.973
128.392
130.736
133.001
135.183
137.28
139.288
141.207
143.035
144.77
146.415
147.969
149.434
150.813
152.107
153.322
154.46
155.526
156.526
157.465
158.347
159.18
159.968
160.717
161.434
162.125
162.795
163.451
164.098
164.743
165.391
166.047
166.716
167.403
168.111
168.842
169.601
170.388
171.204
172.051
172.928
173.835
174.768
175.727
176.706
177.703
178.711
179.724
180.735
181.737
182.721
183.678
184.598
185.473
186.291
187.042
187.715
188.299
188.782
189.154
189.401
189.514
189.479
189.287
188.926
188.386
187.657
186.731
185.599
184.252
182.685
180.891
178.863
176.596
174.088
171.334
168.333
165.083
161.584
157.837
153.844
149.609
145.133
140.422
135.482
130.318
124.936
119.342
113.544
107.547
101.36
94.99
88.444
81.731
74.861
67.842
60.687
53.407
46.013
38.515
30.924
23.249
15.501
7.69
-0.173
-8.077
-16.01
-23.957
-31.904
-39.835
-47.739
-55.612
-63.449
-71.248
-79.004
-86.713
-94.365
-101.946
-109.44
-116.818
-124.051
-131.108
-137.958
-144.577
-150.94
-157.024
-162.797
-168.219
-173.245
-177.839
-181.97
-185.61
-188.754
-191.418
-193.637
-195.48
-197.021
-198.324
-199.475
-200.566
-201.699
-202.992
-204.558
-206.49
-208.927
-212.047
-215.93
-220.542
-225.677
-230.932
-235.923
-240.35
-243.847
-245.922
-246.257
-244.892
-242.313
-239.519
-237.466
-236.635
-237.404
-240.352
-245.733
-253.061
-260.982
-266.958
-268.209
-262.838
-248.943
-224.155
-186.512
-134.586
-69.592
3.787
80.97
157.865
233.746
311.326
388.047
457.433
508.025
523.541
496.734
428.884
326.415
202.336
68.764
-64.544
-184.059
-274.779
-328.724
-344.398
-330.433
-305.16
-280.525
-261.9
-249.703
-237.97
-225.06
-213.088
-203.812
-199.895
-201.519
-206.482
-212.872
-218.828
-222.833
-224.439
-223.717
-220.939
-216.758
-211.893
-206.931
-202.456
-198.994
-196.751
-195.719
-195.788
-196.708
-198.258
-200.282
-202.593
-205.018
-207.433
-209.719
-211.787
-213.578
-215.014
-216.04
-216.626
-216.755
-216.436
-215.698
-214.574
-213.106
-211.347
-209.338
-207.123
-204.745
-202.247
-199.676
-197.08
-194.503
-191.987
-189.562
-187.247
-185.053
-182.985
-181.034
-179.193
-177.445
-175.773
-174.163
-172.602
-171.077
-169.576
-168.084
-166.586
-165.066
-163.511
-161.906
-160.239
-158.496
-156.667
-154.743
-152.714
-150.573
-148.311
-145.922
-143.396
-140.726
-137.903
-134.921
-131.773
-128.454
-124.959
-121.285
-117.43
-113.395
-109.182
-104.793
-100.234
-95.51
-90.632
-85.608
-80.45
-75.172
-69.786
-64.308
-58.753
-53.138
-47.478
-41.79
-36.092
-30.4
-24.734
-19.111
-13.553
-8.077
-2.704
2.546
7.655
12.602
17.368
21.937
26.293
30.417
34.293
37.903
41.233
44.272
47.016
49.46
51.607
53.46
55.03
56.334
57.389
58.21
58.813
59.209
59.409
59.425
59.269
58.957
58.498
57.891
57.134
56.218
55.133
53.871
52.414
50.735
48.817
46.648
44.227
41.566
38.683
35.604
32.36
28.985
25.529
22.056
18.638
15.358
12.294
9.522
7.122
5.183
3.783
2.983
2.83
3.351
4.561
6.462
9.045
12.29
16.156
20.586
25.507
30.833
36.481
42.378
48.443
54.59
60.743
66.835
72.812
78.636
84.275
89.702
94.899
99.855
104.574
109.068
113.362
117.489
121.477
125.342
129.107
132.788
136.401
139.956
143.455
146.89
150.254
153.541
156.744
159.853
162.855
165.731
168.462
171.025
173.403
175.584
177.557
179.315
180.854
182.172
183.27
184.157
184.838
185.316
185.596
185.682
185.577
185.289
184.823
184.183
183.375
182.403
181.267
179.972
178.519
176.908
175.139
173.212
171.127
168.884
166.485
163.93
161.224
158.366
155.361
152.211
148.92
145.491
141.929
138.237
134.419
130.48
126.424
122.257
117.983
113.61
109.143
104.589
99.955
95.251
90.485
85.667
80.807
75.916
71.006
66.088
61.176
56.28
51.415
46.593
41.828
37.132
32.519
28.001
23.592
19.303
15.145
11.131
7.269
3.57
0.043
-3.306
-6.467
-9.433
-12.199
-14.759
-17.109
-19.243
-21.161
-22.859
-24.338
-25.599
-26.645
-27.478
-28.105
-28.529
-28.761
-28.807
-28.676
-28.379
-27.924
-27.322
-26.587
-25.73
-24.764
-23.703
-22.562
-21.355
-20.102
-18.817
-17.517
-16.216
-14.928
-13.669
-12.452
-11.292
-10.2
-9.187
-8.266
-7.453
-6.765
-6.216
-5.811
-5.553
-5.439
-5.468
-5.641
-5.951
-6.39
-6.952
-7.635
-8.446
-9.402
-10.507
-11.763
-13.161
-14.682
-16.318
-18.071
-19.94
-21.93
-24.045
-26.285
-28.662
-31.198
-33.897
-36.749
-39.722
-42.758
-45.816
-48.868
-51.89
-54.872
-57.795
-60.624
-63.338
-65.914
-68.326
-70.554
-72.558
-74.279
-75.687
-76.777
-77.567
-78.107
-78.434
-78.566
-78.524
-78.324
-77.985
-77.539
-77.005
-76.394
-75.723
-75.011
-74.294
-73.631
-73.059
-72.596
-72.249
-72.001
-71.851
-71.82
-71.921
-72.165
-72.565
-73.116
-73.819
-74.689
-75.731
-76.945
-78.328
-79.848
-81.478
-83.202
-85.003
-86.868
-88.765
-90.627
-92.384
-93.976
-95.344
-96.456
-97.29
-97.812
-97.999
-97.838
-97.316
-96.448
-95.269
-93.798
-92.062
-90.114
-88.035
-85.962
-84.061
-82.478
-81.335
-80.745
-80.811
-81.641
-83.342
-85.98
-89.597
-94.237
-99.963
-106.779
-114.569
-123.053
-131.778
-140.266
-148.101
-154.833
-159.89
-162.832
-163.597
-162.536
-160.42
-158.057
-155.881
-154.228
-153.748
-154.907
-157.387
-160.021
-160.832
-157.582
-148.46
-131.801
-105.285
-66.259
-14.055
49.059
119.704
193.745
269.371
350.308
438.522
529.836
615.484
677.877
697.768
667.601
587.471
465.763
321.581
171.281
29.777
-85.706
-166.47
-209.835
-217.851
-200.599
-168.422
-129.476
-92.006
-63.958
-51.59
-57.27
-77.247
-101.756
-121.468
-131.934
-134.089
-133.055
-132.65
-133.567
-134.689
-133.941
-130.717
-125.895
-120.438
-115.302
-111.028
-107.618
-105.078
-103.378
-102.332
-101.796
-101.656
-101.791
-102.126
-102.612
-103.196
-103.821
-104.45
-105.035
-105.518
-105.866
-106.064
-106.117
-106.049
-105.887
-105.653
-105.371
-105.074
-104.779
-104.493
-104.204
-103.886
-103.528
-103.129
-102.688
-102.201
-101.647
-101.001
-100.249
-99.378
-98.375
-97.224
-95.902
-94.391
-92.695
-90.831
-88.825
-86.708
-84.5
-82.222
-79.906
-77.595
-75.329
-73.135
-71.01
-68.935
-66.9
-64.918
-63.019
-61.229
-59.531
-57.869
-56.184
-54.445
-52.653
-50.833
-48.906
-46.661
-43.982
-40.929
-37.769
-34.861
-32.332
-29.921
-27.4
-24.897
-22.431
-19.734
-16.01
-9.994
-0.996
10.561
23.9
38.687
54.182
69.19
82.071
90.074
92.192
90.358
85.035
75.529
60.24
34.953
2.607
-27.135
-45.147
-40.916
-13.755
26.916
72.69
113.997
146.737
173.807
195.978
213.553
226.022
230.593
226.964
216.872
202.26
185.956
170.191
156.326
145.483
138.168
134.147
132.699
132.8
133.241
133.168
132.001
129.292
124.943
119.04
111.801
103.641
94.994
86.081
77.023
67.93
58.812
49.713
40.676
31.663
22.679
13.81
5.145
-3.386
-11.922
-20.308
-28.415
-36.213
-43.368
-50.768
-59.045
-66.666
-73.286
-76.224
-72.673
-65.523
-55.032
-45.087
-42.529
-46.326
-58.97
-77.997
-93.301
-101.853
-98.148
-81.96
-63.279
-47.422
-39.797
-42.208
-48.472
-54.917
-59.359
-60.735
-61.384
-62.568
-64.22
-66.441
-68.86
-71.347
-74.203
-77.493
-81.11
-84.95
-88.907
-92.894
-96.819
-100.595
-104.085
-107.101
-109.619
-111.71
-113.411
-114.826
-115.909
-116.355
-116.086
-115.29
-113.882
-111.646
-108.353
-103.509
-97.199
-90.237
-83.07
-75.851
-69.017
-63.003
-58.426
-56.315
-56.8
-59.039
-62.519
-66.89
-71.724
-76.803
-81.616
-85.264
-87.583
-89.127
-90.262
-91.295
-92.402
-93.455
-94.537
-95.967
-97.76
-99.661
-101.481
-103.037
-104.285
-105.382
-106.418
-107.386
-108.314
-109.246
-110.215
-111.276
-112.447
-113.693
-114.989
-116.33
-117.72
-119.177
-120.718
-122.339
-124.025
-125.752
-127.489
-129.206
-130.883
-132.502
-134.052
-135.522
-136.906
-138.201
-139.41
-140.533
-141.561
-142.482
-143.282
-143.949
-144.474
-144.852
-145.077
-145.146
-145.053
-144.794
-144.366
-143.765
-142.985
-142.02
-140.865
-139.512
-137.959
-136.203
-134.243
-132.079
-129.711
-127.142
-124.374
-121.41
-118.254
-114.91
-111.383
-107.676
-103.797
-99.751
-95.546
-91.189
-86.689
-82.056
-77.3
-72.432
-67.462
-62.402
-57.264
-52.058
-46.796
-41.49
-36.149
-30.786
-25.41
-20.032
-14.662
-9.31
-3.985
1.305
6.553
11.75
16.89
21.968
26.977
31.913
36.771
41.546
46.236
50.835
55.343
59.755
64.073
68.293
72.418
76.447
80.383
84.226
87.98
91.647
95.231
98.734
102.161
105.515
108.8
112.02
115.178
118.276
121.319
124.308
127.244
130.13
132.966
135.752
138.487
141.171
143.804
146.384
148.909
151.378
153.788
156.136
158.419
160.634
162.773
164.83
166.797
168.667
170.429
172.074
173.592
174.973
176.209
177.291
178.212
178.963
179.536
179.923
180.115
180.105
179.887
179.454
178.804
177.933
176.844
175.541
174.026
172.303
170.365
168.209
165.832
163.233
160.413
157.377
154.141
150.725
147.166
143.502
139.773
136.02
132.277
128.581
124.969
121.488
118.189
115.121
112.331
109.857
107.735
105.981
104.575
103.472
102.591
101.847
101.169
100.475
99.664
98.629
97.259
95.437
93.09
90.121
86.366
81.771
76.405
70.47
64.418
58.734
53.783
50.029
48.068
48.174
50.31
54.105
58.491
62.437
65.33
66.401
64.87
60.677
54.486
47.707
42.996
43.271
51.012
69.043
100.484
146.575
205.756
275.498
351.722
431.928
519.028
614.138
712.429
804.203
871.353
895.023
868.267
792.204
675.612
536.291
389.368
249.569
135.339
58.078
21.566
22.071
44.196
71.147
93.466
107.325
115.427
122.983
130.834
137.57
141.138
139.28
132.539
123.088
113.106
104.838
99.353
96.696
96.689
98.827
102.457
106.958
111.567
115.513
118.405
120.114
120.661
120.231
118.971
116.996
114.482
111.603
108.485
105.228
101.887
98.493
95.097
91.753
88.514
85.44
82.567
79.934
77.584
75.533
73.786
72.339
71.166
70.25
69.57
69.094
68.796
68.655
68.65
68.783
69.047
69.422
69.89
70.423
70.981
71.547
72.105
72.642
73.158
73.652
74.123
74.582
75.04
75.5
75.965
76.427
76.879
77.325
77.775
78.243
78.751
79.317
79.954
80.679
81.504
82.439
83.492
84.665
85.957
87.372
88.912
90.586
92.399
94.355
96.455
98.699
101.084
103.606
106.261
109.044
111.946
114.96
118.081
121.301
124.614
128.012
131.484
135.02
138.608
142.234
145.884
149.543
153.194
156.821
160.408
163.937
167.392
170.755
174.009
177.136
180.118
182.938
185.578
188.021
190.25
192.248
194
195.489
196.702
197.624
198.242
198.543
198.517
198.154
197.443
196.378
194.95
193.156
190.99
188.45
185.535
182.244
178.58
174.546
170.145
165.385
160.272
154.814
149.023
142.909
136.485
129.764
122.762
115.494
107.977
100.229
92.269
84.117
75.793
67.317
58.712
49.999
41.2
32.338
23.434
14.511
5.591
-3.304
-12.154
-20.938
-29.636
-38.228
-46.697
-55.023
-63.191
-71.184
-78.988
-86.588
-93.971
-101.127
-108.045
-114.716
-121.131
-127.284
-133.169
-138.783
-144.121
-149.182
-153.964
-158.47
-162.699
-166.655
-170.341
-173.762
-176.923
-179.83
-182.491
-184.912
-187.102
-189.067
-190.818
-192.363
-193.71
-194.87
-195.852
-196.666
-197.321
-197.827
-198.194
-198.431
-198.548
-198.555
-198.459
-198.27
-197.996
-197.645
-197.226
-196.745
-196.211
-195.629
-195.005
-194.345
-193.655
-192.937
-192.197
-191.438
-190.662
-189.873
-189.074
-188.265
-187.45
-186.63
-185.806
-184.979
-184.15
-183.32
-182.488
-181.655
-180.819
-179.981
-179.141
-178.296
-177.446
-176.591
-175.728
-174.856
-173.974
-173.079
-172.17
-171.245
-170.302
-169.338
-168.353
-167.344
-166.31
-165.251
-164.164
-163.05
-161.906
-160.732
-159.528
-158.292
-157.024
-155.723
-154.39
-153.024
-151.625
-150.194
-148.731
-147.237
-145.714
-144.162
-142.583
-140.978
-139.348
-137.695
-136.021
-134.328
-132.619
-130.896
-129.162
-127.42
-125.672
-123.921
-122.17
-120.421
-118.678
-116.941
-115.215
-113.5
-111.8
-110.116
-108.452
-106.809
-105.189
-103.594
-102.026
-100.486
-98.974
-97.491
-96.038
-94.616
-93.223
-91.861
-90.529
-89.228
-87.956
-86.714
-85.5
-84.315
-83.158
-82.027
-80.922
-79.841
-78.785
-77.75
-76.738
-75.748
-74.778
-73.829
-72.9
-71.991
-71.1
-70.228
-69.374
-68.538
-67.72
-66.92
-66.138
-65.375
-64.632
-63.91
-63.211
-62.535
-61.885
-61.26
-60.663
-60.095
-59.556
-59.047
-58.569
-58.123
-57.708
-57.327
-56.978
-56.662
-56.378
-56.126
-55.905
-55.713
-55.55
-55.413
-55.3
-55.21
-55.14
-55.089
-55.055
-55.033
-55.023
-55.021
-55.023
-55.026
-55.027
-55.021
-55.004
-54.974
-54.925
-54.856
-54.764
-54.645
-54.498
-54.321
-54.114
-53.877
-53.608
-53.309
-52.98
-52.625
-52.245
-51.844
-51.426
-50.995
-50.557
-50.12
-49.691
-49.278
-48.891
-48.539
-48.232
-47.98
-47.792
-47.677
-47.643
-47.697
-47.848
-48.104
-48.476
-48.97
-49.596
-50.357
-51.261
-52.307
-53.495
-54.821
-56.279
-57.864
-59.578
-61.422
-63.398
-65.507
-67.752
-70.129
-72.627
-75.228
-77.906
-80.629
-83.367
-86.087
-88.766
-91.373
-93.882
-96.26
-98.463
-100.444
-102.153
-103.54
-104.551
-105.155
-105.348
-105.149
-104.612
-103.788
-102.712
-101.433
-100.017
-98.546
-97.118
-95.838
-94.789
-94.091
-93.959
-94.529
-95.794
-97.573
-99.392
-100.689
-101.028
-99.927
-96.772
-91.287
-83.654
-74.538
-65.485
-58.209
-53.918
-53.773
-58.84
-69.235
-83.981
-101.048
-116.731
-126.649
-126.98
-113.848
-83.271
-33.583
33.594
115.411
206.928
304.355
409.145
520.743
632.937
734.804
807.648
833.102
804.727
724.719
603.232
457.964
303.556
154.082
26.905
-65.717
-117.678
-130.291
-116.997
-94.416
-72.731
-57.024
-45.528
-33.073
-19.657
-7.427
1.316
3.598
-0.441
-8.596
-19.047
-29.637
-38.517
-45.125
-49.382
-51.465
-52.068
-51.897
-51.487
-51.492
-52.531
-54.837
-58.421
-63.15
-68.707
-74.823
-81.295
-87.867
-94.287
-100.362
-105.927
-110.862
-115.098
-118.569
-121.226
-123.056
-124.064
-124.287
-123.799
-122.688
-121.059
-119.038
-116.745
-114.308
-111.864
-109.535
-107.433
-105.661
-104.3
-103.409
-103.029
-103.174
-103.837
-105
-106.616
-108.624
-110.948
-113.489
-116.158
-118.869
-121.525
-124.051
-126.38
-128.446
-130.206
-131.625
-132.673
-133.336
-133.612
-133.496
-132.999
-132.138
-130.937
-129.438
-127.671
-125.661
-123.434
-121.002
-118.372
-115.552
-112.541
-109.329
-105.909
-102.265
-98.381
-94.25
-89.865
-85.217
-80.299
-75.101
-69.62
-63.868
-57.862
-51.624
-45.175
-38.535
-31.724
-24.775
-17.723
-10.607
-3.465
3.678
10.803
17.891
24.925
31.902
38.824
45.711
52.592
59.478
66.371
73.265
80.147
87.013
93.862
100.688
107.479
114.211
120.846
127.345
133.653
139.69
145.353
150.517
155.054
158.864
161.866
163.986
165.156
165.318
164.414
162.408
159.275
154.991
149.554
142.979
135.304
126.618
117.047
106.743
95.862
84.547
72.931
61.154
49.358
37.669
26.203
15.057
4.321
-5.898
-15.507
-24.436
-32.641
-40.121
-46.909
-53.053
-58.604
-63.62
-68.161
-72.301
-76.127
-79.701
-83.074
-86.287
-89.38
-92.413
-95.443
-98.508
-101.626
-104.796
-108.001
-111.223
-114.444
-117.634
-120.763
-123.789
-126.658
-129.335
-131.796
-134.016
-135.975
-137.643
-138.989
-139.996
-140.669
-141.016
-141.061
-140.827
-140.329
-139.59
-138.628
-137.462
-136.128
-134.653
-133.06
-131.382
-129.646
-127.884
-126.138
-124.437
-122.783
-121.167
-119.561
-117.922
-116.227
-114.457
-112.597
-110.641
-108.568
-106.356
-103.993
-101.453
-98.711
-95.737
-92.479
-88.902
-85
-80.786
-76.299
-71.601
-66.731
-61.723
-56.611
-51.416
-46.168
-40.896
-35.616
-30.351
-25.133
-19.997
-15.001
-10.194
-5.6
-1.229
2.931
6.907
10.715
14.364
17.867
21.23
24.456
27.547
30.493
33.283
35.915
38.393
40.732
42.947
45.04
47.009
48.845
50.531
52.059
53.42
54.604
55.607
56.429
57.072
57.546
57.866
58.043
58.084
57.999
57.793
57.477
57.062
56.56
55.986
55.353
54.675
53.968
53.248
52.529
51.824
51.145
50.502
49.907
49.371
48.904
48.52
48.228
48.04
47.967
48.02
48.208
48.542
49.028
49.675
50.487
51.47
52.628
53.964
55.481
57.179
59.06
61.123
63.366
65.788
68.385
71.153
74.087
77.18
80.426
83.816
87.342
90.994
94.762
98.636
102.605
106.656
110.778
114.958
119.183
123.437
127.707
131.977
136.231
140.454
144.629
148.741
152.775
156.715
160.545
164.25
167.816
171.229
174.474
177.538
180.408
183.071
185.518
187.738
189.723
191.466
192.961
194.203
195.189
195.917
196.385
196.591
196.535
196.217
195.638
194.8
193.704
192.354
190.757
188.92
186.851
184.562
182.063
179.367
176.488
173.439
170.234
166.888
163.412
159.821
156.131
152.36
148.528
144.652
140.745
136.82
132.886
128.949
125.009
121.061
117.095
113.109
109.106
105.091
101.079
97.082
93.111
89.178
85.287
81.443
77.655
73.921
70.247
66.644
63.132
59.742
56.513
53.463
50.598
47.911
45.375
42.96
40.629
38.328
36.016
33.661
31.229
28.704
26.072
23.297
20.338
17.139
13.632
9.776
5.545
0.925
-4.066
-9.395
-15.008
-20.819
-26.755
-32.755
-38.766
-44.749
-50.667
-56.459
-62.056
-67.382
-72.346
-76.878
-80.915
-84.408
-87.349
-89.761
-91.709
-93.284
-94.556
-95.595
-96.47
-97.26
-98.061
-98.979
-100.1
-101.546
-103.487
-106.031
-109.212
-112.906
-116.764
-120.387
-123.394
-125.336
-125.727
-124.233
-120.762
-115.73
-110.104
-104.975
-101.339
-100.092
-102.04
-107.685
-116.925
-128.527
-140.076
-148.612
-151.166
-144.763
-126.355
-93.249
-43.254
23.07
101.659
187.829
276.18
363.669
452.083
540.424
624.023
694.728
735.147
729.823
671.844
558.88
403.753
229.518
58.135
-84.077
-179.816
-228.457
-234.811
-215.494
-188.383
-159.563
-135.411
-115.602
-97.222
-84.779
-76.983
-72.95
-73.393
-74.382
-76.475
-80.552
-85.091
-90.045
-93.847
-95.19
-94.564
-92.466
-89.702
-87.124
-85.228
-84.539
-85.355
-87.65
-91.215
-95.66
-100.646
-105.941
-111.294
-116.464
-121.242
-125.437
-128.913
-131.612
-133.443
-134.3
-134.104
-132.772
-130.271
-126.637
-121.927
-116.216
-109.605
-102.174
-93.996
-85.156
-75.727
-65.779
-55.386
-44.602
-33.482
-22.097
-10.508
1.228
13.043
24.885
36.701
48.428
60.015
71.407
82.527
93.285
103.596
113.368
122.518
130.964
138.612
145.362
151.119
155.795
159.333
161.716
162.944
163.047
162.069
160.073
157.163
153.487
149.198
144.456
139.437
134.318
129.304
124.65
120.602
117.406
115.29
114.433
114.99
117.103
120.88
126.398
133.685
142.703
153.383
165.635
179.326
194.303
210.371
227.27
244.723
262.442
280.124
297.494
314.29
330.235
345.066
358.548
370.47
380.687
389.097
395.625
400.239
402.944
403.778
402.838
400.247
396.15
390.719
384.126
376.535
368.137
359.128
349.69
340.005
330.217
320.428
310.73
301.179
291.799
282.6
273.559
264.624
255.735
246.809
237.745
228.464
218.884
208.92
198.511
187.588
176.107
164.059
151.441
138.278
124.625
110.544
96.112
81.436
66.632
51.834
37.208
22.893
9.005
-4.34
-17.053
-29.048
-40.246
-50.599
-60.068
-68.624
-76.26
-82.979
-88.785
-93.72
-97.836
-101.195
-103.904
-106.048
-107.695
-108.92
-109.786
-110.35
-110.68
-110.828
-110.843
-110.789
-110.733
-110.727
-110.829
-111.07
-111.475
-112.073
-112.865
-113.848
-115.034
-116.412
-117.976
-119.725
-121.645
-123.715
-125.915
-128.198
-130.5
-132.778
-134.986
-137.088
-139.055
-140.845
-142.428
-143.788
-144.911
-145.795
-146.439
-146.838
-146.995
-146.925
-146.649
-146.205
-145.641
-144.993
-144.288
-143.555
-142.816
-142.098
-141.428
-140.818
-140.271
-139.792
-139.385
-139.054
-138.805
-138.632
-138.524
-138.469
-138.447
-138.447
-138.464
-138.489
-138.517
-138.545
-138.569
-138.59
-138.614
-138.644
-138.682
-138.727
-138.779
-138.841
-138.914
-139.001
-139.105
-139.225
-139.36
-139.511
-139.674
-139.846
-140.023
-140.201
-140.373
-140.535
-140.681
-140.81
-140.916
-140.997
-141.049
-141.07
-141.056
-141.007
-140.919
-140.791
-140.621
-140.407
-140.15
-139.85
-139.505
-139.118
-138.688
-138.218
-137.708
-137.16
-136.577
-135.962
-135.317
-134.646
-133.952
-133.241
-132.516
-131.782
-131.045
-130.309
-129.581
-128.863
-128.164
-127.486
-126.837
-126.22
-125.642
-125.107
-124.62
-124.184
-123.804
-123.483
-123.222
-123.024
-122.889
-122.819
-122.814
-122.872
-122.994
-123.179
-123.423
-123.726
-124.086
-124.498
-124.959
-125.467
-126.016
-126.603
-127.223
-127.87
-128.541
-129.23
-129.931
-130.64
-131.35
-132.057
-132.753
-133.434
-134.092
-134.721
-135.317
-135.873
-136.384
-136.847
-137.259
-137.617
-137.921
-138.168
-138.357
-138.49
-138.563
-138.578
-138.534
-138.429
-138.264
-138.038
-137.752
-137.409
-137.01
-136.559
-136.057
-135.51
-134.921
-134.293
-133.631
-132.936
-132.21
-131.456
-130.68
-129.887
-129.084
-128.272
-127.451
-126.621
-125.779
-124.916
-124.02
-123.073
-122.056
-120.95
-119.739
-118.41
-116.956
-115.369
-113.643
-111.776
-109.769
-107.631
-105.376
-103.017
-100.574
-98.07
-95.539
-93.027
-90.581
-88.245
-86.065
-84.079
-82.317
-80.793
-79.508
-78.451
-77.594
-76.895
-76.299
-75.743
-75.163
-74.491
-73.652
-72.56
-71.121
-69.235
-66.8
-63.707
-59.87
-55.226
-49.734
-43.38
-36.183
-28.186
-19.467
-10.128
-0.268
10.017
20.632
31.478
42.436
53.364
64.106
74.493
84.366
93.586
102.032
109.603
116.237
121.907
126.634
130.464
133.44
135.579
136.862
137.266
136.793
135.48
133.405
130.658
127.303
123.394
118.983
114.11
108.829
103.127
96.854
89.952
82.523
74.846
67.51
61.145
56.165
53.036
52.341
54.237
58.459
64.29
70.114
74.277
75.677
73.161
65.716
53.371
37.127
18.931
2.322
-8.683
-10.551
0.548
28.526
74.582
136.522
211.422
294.561
383.414
481.259
587.479
694.74
790.201
852.628
863.822
819.5
724.146
589.716
433.588
268.923
109.027
-27.689
-126.702
-180.193
-188.956
-167.638
-135.047
-102.747
-76.337
-54.054
-30.113
-4.624
19.103
37.332
45.423
42.451
30.497
11.921
-10.36
-33.477
-55.386
-74.618
-89.916
-100.82
-107.599
-110.808
-111.377
-110.55
-109.483
-108.94
-109.504
-111.4
-114.495
-118.594
-123.334
-128.156
-132.507
-135.984
-138.287
-139.276
-138.945
-137.279
-134.317
-130.154
-124.885
-118.595
-111.34
-103.147
-94.056
-84.137
-73.505
-62.329
-50.8
-39.123
-27.529
-16.231
-5.413
4.758
14.166
22.732
30.382
37.06
42.712
47.276
50.704
52.95
53.999
53.889
52.698
50.54
47.573
43.958
39.857
35.438
30.842
26.192
21.604
17.172
12.997
9.196
5.895
3.24
1.349
0.298
0.132
0.857
2.453
4.888
8.11
12.04
16.612
21.757
27.416
33.542
40.069
46.905
53.942
61.042
68.093
75.013
81.733
88.205
94.392
100.257
105.788
111.006
115.926
120.569
124.963
129.128
133.112
136.994
140.86
144.814
148.941
153.289
157.905
162.82
168.054
173.632
179.55
185.771
192.249
198.918
205.685
212.451
219.083
225.411
231.26
236.441
240.769
244.097
246.285
247.205
246.741
244.774
241.203
235.978
229.078
220.52
210.37
198.712
185.667
171.411
156.134
140.063
123.444
106.498
89.44
72.498
55.899
39.892
24.723
10.584
-2.373
-14.035
-24.332
-33.211
-40.645
-46.66
-51.315
-54.705
-56.956
-58.181
-58.5
-58.058
-57.022
-55.593
-53.98
-52.343
-50.802
-49.452
-48.363
-47.603
-47.226
-47.253
-47.672
-48.445
-49.521
-50.854
-52.386
-54.031
-55.677
-57.179
-58.401
-59.251
-59.666
-59.614
-59.07
-58.01
-56.422
-54.311
-51.707
-48.662
-45.236
-41.491
-37.519
-33.435
-29.382
-25.536
-22.042
-19.015
-16.556
-14.734
-13.614
-13.268
-13.754
-15.126
-17.434
-20.698
-24.914
-30.068
-36.097
-42.915
-50.409
-58.427
-66.842
-75.541
-84.407
-93.34
-102.242
-110.986
-119.445
-127.48
-134.919
-141.627
-147.499
-152.441
-156.404
-159.355
-161.277
-162.19
-162.119
-161.076
-159.086
-156.17
-152.358
-147.718
-142.342
-136.351
-129.914
-123.178
-116.264
-109.301
-102.394
-95.646
-89.165
-83.025
-77.284
-72.006
-67.259
-63.102
-59.592
-56.748
-54.554
-52.973
-51.928
-51.352
-51.185
-51.354
-51.782
-52.389
-53.081
-53.79
-54.466
-55.055
-55.493
-55.723
-55.69
-55.365
-54.741
-53.821
-52.624
-51.167
-49.471
-47.566
-45.493
-43.296
-41.029
-38.73
-36.42
-34.127
-31.878
-29.697
-27.607
-25.618
-23.729
-21.94
-20.25
-18.656
-17.155
-15.737
-14.388
-13.092
-11.832
-10.597
-9.384
-8.189
-7.011
-5.85
-4.708
-3.594
-2.518
-1.487
-0.51
0.409
1.262
2.043
2.742
3.351
3.862
4.268
4.565
4.747
4.81
4.752
4.572
4.271
3.849
3.309
2.652
1.879
0.992
-0.006
-1.114
-2.327
-3.644
-5.058
-6.565
-8.158
-9.831
-11.575
-13.382
-15.245
-17.156
-19.105
-21.084
-23.086
-25.101
-27.122
-29.139
-31.142
-33.123
-35.073
-36.981
-38.838
-40.635
-42.363
-44.014
-45.582
-47.059
-48.441
-49.724
-50.903
-51.976
-52.939
-53.788
-54.519
-55.128
-55.614
-55.972
-56.201
-56.3
-56.269
-56.11
-55.828
-55.427
-54.91
-54.279
-53.531
-52.67
-51.702
-50.635
-49.479
-48.245
-46.95
-45.617
-44.281
-42.968
-41.696
-40.48
-39.324
-38.233
-37.217
-36.282
-35.434
-34.673
-33.996
-33.406
-32.91
-32.506
-32.181
-31.905
-31.631
-31.326
-30.978
-30.589
-30.17
-29.739
-29.309
-28.907
-28.58
-28.377
-28.339
-28.498
-28.863
-29.455
-30.308
-31.477
-33.023
-34.983
-37.358
-40.135
-43.285
-46.766
-50.538
-54.549
-58.702
-62.912
-67.088
-71.12
-74.949
-78.533
-81.816
-84.783
-87.37
-89.445
-91.066
-92.446
-93.776
-95.336
-97.211
-99.166
-101.266
-103.871
-106.931
-110.155
-113.031
-114.57
-114.457
-113.25
-111.042
-107.579
-103.015
-97.647
-92.527
-89.726
-90.305
-94.13
-101.184
-111.371
-124.416
-139.979
-156.323
-170.254
-179.049
-180.683
-173.564
-156.399
-127.586
-85.553
-29.919
36.883
110.354
186.256
260.618
333.077
406.884
480.704
549.636
603.231
624.552
604.514
542.992
446.248
328.135
201.23
74.179
-41.809
-134.638
-197.026
-224.172
-221.39
-201.964
-174.257
-147.735
-125.829
-106.964
-94.672
-86.816
-81.729
-79.933
-77.8
-76.256
-76.559
-77.291
-78.397
-78.248
-75.344
-70.108
-63.041
-54.881
-46.439
-38.156
-30.428
-23.526
-17.483
-12.161
-7.309
-2.716
1.783
6.347
11.117
16.203
21.67
27.541
33.812
40.474
47.503
54.818
62.279
69.752
77.109
84.236
91.054
97.459
103.324
108.554
113.062
116.812
119.827
122.108
123.648
124.476
124.609
124.163
123.389
122.372
121.047
119.369
117.209
114.646
112.069
109.646
107.293
105.196
103.682
103.126
104.147
106.749
110.172
113.972
117.991
121.841
125.159
127.413
127.67
125.842
122.806
119.111
115.102
111.173
107.486
104.448
102.885
102.934
104.016
105.759
107.862
110.122
112.631
115.276
117.676
119.767
121.772
123.844
126.158
128.779
131.582
134.53
137.674
141
144.474
148.061
151.693
155.339
159.014
162.716
166.441
170.181
173.902
177.571
181.149
184.594
187.872
190.961
193.839
196.486
198.862
200.908
202.581
203.837
204.664
205.079
205.074
204.624
203.716
202.33
200.52
198.449
196.121
193.394
190.116
186.068
181.263
176.033
170.524
164.602
158.348
152.069
146.264
141.803
138.954
137.03
135.397
133.682
131.484
128.38
123.556
115.481
103.345
87.785
69.864
50.77
31.444
12.457
-5.264
-20.022
-30.518
-36.743
-39.493
-40.111
-39.614
-38.421
-37.05
-36.456
-37.606
-40.825
-45.74
-51.415
-57.126
-62.639
-67.843
-72.564
-76.484
-79.394
-81.408
-82.901
-84.183
-85.35
-86.373
-87.159
-87.708
-88.081
-88.28
-88.274
-88.026
-87.519
-86.785
-85.886
-84.867
-83.751
-82.567
-81.342
-80.122
-78.972
-77.943
-77.077
-76.398
-75.906
-75.592
-75.42
-75.36
-75.387
-75.476
-75.607
-75.761
-75.919
-76.058
-76.157
-76.185
-76.099
-75.86
-75.44
-74.825
-74.02
-73.046
-71.936
-70.721
-69.427
-68.074
-66.678
-65.248
-63.793
-62.32
-60.832
-59.339
-57.859
-56.408
-55.002
-53.646
-52.338
-51.069
-49.824
-48.59
-47.356
-46.115
-44.863
-43.601
-42.333
-41.068
-39.815
-38.583
-37.375
-36.197
-35.049
-33.935
-32.86
-31.829
-30.847
-29.918
-29.047
-28.24
-27.499
-26.826
-26.222
-25.686
-25.216
-24.81
-24.467
-24.184
-23.958
-23.785
-23.664
-23.593
-23.571
-23.597
-23.669
-23.785
-23.946
-24.148
-24.389
-24.661
-24.956
-25.262
-25.578
-25.901
-26.233
-26.58
-26.947
-27.337
-27.762
-28.226
-28.729
-29.267
-29.822
-30.379
-30.928
-31.466
-31.998
-32.532
-33.058
-33.569
-34.051
-34.482
-34.844
-35.114
-35.252
-35.233
-35.051
-34.713
-34.252
-33.713
-33.122
-32.497
-31.851
-31.191
-30.536
-29.911
-29.332
-28.829
-28.431
-28.178
-28.127
-28.324
-28.781
-29.493
-30.422
-31.511
-32.722
-34.027
-35.398
-36.816
-38.262
-39.712
-41.161
-42.595
-43.996
-45.335
-46.566
-47.649
-48.571
-49.334
-49.962
-50.496
-50.965
-51.396
-51.818
-52.246
-52.689
-53.154
-53.626
-54.087
-54.527
-54.94
-55.334
-55.72
-56.106
-56.499
-56.901
-57.309
-57.717
-58.114
-58.485
-58.823
-59.128
-59.405
-59.676
-59.968
-60.313
-60.742
-61.276
-61.922
-62.67
-63.491
-64.347
-65.192
-65.995
-66.736
-67.401
-67.981
-68.465
-68.844
-69.106
-69.226
-69.173
-68.901
-68.375
-67.577
-66.507
-65.195
-63.686
-62.038
-60.289
-58.465
-56.583
-54.647
-52.661
-50.621
-48.517
-46.348
-44.131
-41.902
-39.699
-37.559
-35.503
-33.542
-31.674
-29.896
-28.223
-26.683
-25.32
-24.182
-23.314
-22.768
-22.608
-22.888
-23.649
-24.91
-26.672
-28.928
-31.67
-34.884
-38.552
-42.638
-47.08
-51.803
-56.716
-61.728
-66.763
-71.736
-76.549
-81.108
-85.317
-89.096
-92.387
-95.142
-97.311
-98.868
-99.815
-100.183
-100.043
-99.477
-98.555
-97.348
-95.927
-94.38
-92.813
-91.337
-90.046
-89.064
-88.554
-88.611
-89.219
-90.191
-91.149
-91.667
-91.383
-89.91
-86.744
-81.555
-74.469
-66.085
-57.494
-49.924
-44.171
-40.839
-40.791
-44.523
-51.492
-60.163
-67.942
-71.726
-68.995
-57.456
-34.236
3.436
56.058
121.314
195.684
274.52
355.638
441.163
530.162
617.046
693.063
742.876
752.328
717.516
638.019
519.59
377.984
226.16
81.186
-34.939
-113.414
-151.61
-155.804
-145.053
-130.466
-116.21
-102.585
-82.711
-54.96
-23.157
8.535
34.48
51.712
60.161
60.435
54.077
43.053
29.299
14.695
0.945
-10.746
-19.485
-24.798
-26.747
-25.871
-23.055
-19.286
-15.566
-12.557
-10.684
-10.193
-11.047
-13.069
-15.962
-19.295
-22.593
-25.546
-27.989
-29.851
-31.172
-31.98
-32.296
-32.189
-31.741
-31.016
-30.051
-28.861
-27.44
-25.807
-24.008
-22.095
-20.129
-18.158
-16.212
-14.314
-12.483
-10.73
-9.067
-7.495
-6.011
-4.606
-3.279
-2.029
-0.853
0.254
1.305
2.317
3.307
4.292
5.285
6.301
7.352
8.451
9.611
10.842
12.155
13.561
15.071
16.698
18.456
20.356
22.409
24.627
27.018
29.593
32.359
35.324
38.493
41.87
45.46
49.265
53.285
57.52
61.967
66.622
71.479
76.529
81.763
87.169
92.731
98.433
104.259
110.188
116.2
122.274
128.388
134.518
140.643
146.738
152.78
158.743
164.6
170.325
175.892
181.274
186.444
191.373
196.035
200.404
204.457
208.17
211.518
214.479
217.026
219.139
220.804
222.008
222.742
222.999
222.78
222.09
220.943
219.349
217.321
214.87
212.003
208.735
205.079
201.048
196.657
191.918
186.83
181.396
175.614
169.473
162.961
156.064
148.752
141.017
132.854
124.267
115.271
105.883
96.126
86.036
75.655
65.033
54.242
43.355
32.454
21.645
11.027
0.702
-9.218
-18.645
-27.505
-35.729
-43.273
-50.096
-56.172
-61.494
-66.07
-69.913
-73.065
-75.573
-77.5
-78.939
-79.974
-80.686
-81.166
-81.484
-81.7
-81.873
-82.044
-82.245
-82.505
-82.835
-83.241
-83.73
-84.291
-84.907
-85.551
-86.181
-86.76
-87.262
-87.659
-87.934
-88.078
-88.08
-87.943
-87.675
-87.287
-86.789
-86.197
-85.52
-84.777
-83.985
-83.167
-82.349
-81.552
-80.791
-80.078
-79.421
-78.825
-78.293
-77.824
-77.412
-77.052
-76.74
-76.474
-76.249
-76.064
-75.913
-75.792
-75.696
-75.62
-75.562
-75.519
-75.489
-75.47
-75.461
-75.461
-75.469
-75.484
-75.506
-75.531
-75.558
-75.583
-75.606
-75.624
-75.636
-75.64
-75.635
-75.621
-75.599
-75.568
-75.53
-75.485
-75.433
-75.377
-75.316
-75.253
-75.188
-75.122
-75.055
-74.989
-74.923
-74.857
-74.791
-74.725
-74.657
-74.588
-74.516
-74.442
-74.365
-74.284
-74.2
-74.113
-74.022
-73.927
-73.828
-73.726
-73.619
-73.509
-73.394
-73.275
-73.151
-73.023
-72.888
-72.748
-72.601
-72.447
-72.285
-72.114
-71.934
-71.745
-71.546
-71.339
-71.124
-70.901
-70.671
-70.437
-70.199
-69.96
-69.72
-69.482
-69.247
-69.017
-68.794
-68.579
-68.375
-68.182
-68.004
-67.84
-67.693
-67.565
-67.455
-67.366
-67.298
-67.252
-67.228
-67.228
-67.253
-67.304
-67.382
-67.487
-67.622
-67.785
-67.979
-68.202
-68.454
-68.733
-69.04
-69.372
-69.728
-70.105
-70.502
-70.915
-71.343
-71.783
-72.233
-72.688
-73.147
-73.607
-74.063
-74.514
-74.957
-75.388
-75.806
-76.208
-76.591
-76.954
-77.294
-77.607
-77.891
-78.142
-78.356
-78.527
-78.652
-78.725
-78.744
-78.704
-78.602
-78.435
-78.203
-77.904
-77.537
-77.102
-76.598
-76.024
-75.377
-74.655
-73.859
-72.985
-72.032
-70.999
-69.883
-68.685
-67.407
-66.047
-64.603
-63.072
-61.452
-59.746
-57.958
-56.096
-54.17
-52.191
-50.176
-48.149
-46.133
-44.15
-42.22
-40.352
-38.555
-36.839
-35.214
-33.691
-32.275
-30.954
-29.717
-28.553
-27.45
-26.395
-25.367
-24.328
-23.247
-22.102
-20.878
-19.578
-18.214
-16.794
-15.332
-13.855
-12.4
-11.026
-9.8
-8.775
-8.002
-7.528
-7.403
-7.691
-8.435
-9.661
-11.38
-13.581
-16.244
-19.343
-22.843
-26.68
-30.778
-35.037
-39.341
-43.591
-47.693
-51.563
-55.126
-58.316
-61.11
-63.503
-65.509
-67.153
-68.445
-69.421
-70.141
-70.696
-71.194
-71.748
-72.458
-73.46
-74.935
-76.969
-79.515
-82.359
-85.076
-87.267
-88.659
-88.929
-87.635
-84.509
-79.606
-73.412
-66.963
-61.236
-56.704
-53.722
-52.772
-54.037
-57.094
-60.708
-62.468
-59.776
-50.891
-34.089
-7.398
30.797
81.813
144.887
215.989
290.845
365.793
438.992
512.725
587.389
658.508
718.502
753.663
750.4
704.437
616.041
492.18
349.867
203.63
70.739
-29.26
-90.936
-113.571
-105.628
-84.782
-59.307
-36.761
-19.441
-4.129
6.044
12.587
16.764
17.65
18.613
18.843
17.179
15.048
12.546
11.283
12.726
16.459
21.995
28.586
35.413
42.011
47.908
52.775
56.542
59.313
61.34
62.822
63.91
64.763
65.518
66.294
67.172
68.187
69.34
70.657
72.16
73.831
75.64
77.542
79.473
81.382
83.221
84.941
86.495
87.847
88.977
89.882
90.574
91.071
91.388
91.535
91.533
91.416
91.224
90.996
90.766
90.561
90.406
90.324
90.336
90.453
90.673
90.988
91.377
91.815
92.283
92.772
93.27
93.768
94.26
94.741
95.218
95.706
96.217
96.763
97.359
98.021
98.768
99.627
100.624
101.788
103.144
104.711
106.504
108.539
110.823
113.363
116.159
119.206
122.497
126.028
129.789
133.772
137.964
142.35
146.913
151.636
156.498
161.481
166.561
171.719
176.931
182.177
187.433
192.675
197.878
203.017
208.064
212.993
217.775
222.381
226.782
230.949
234.857
238.476
241.78
244.74
247.325
249.51
251.275
252.605
253.486
253.909
253.868
253.366
252.414
251.02
249.192
246.936
244.251
241.146
237.631
233.724
229.441
224.792
219.779
214.401
208.657
202.536
196.02
189.073
181.651
173.726
165.283
156.321
146.855
136.901
126.475
115.601
104.312
92.652
80.681
68.466
56.082
43.621
31.196
18.942
7.012
-4.462
-15.371
-25.628
-35.168
-43.937
-51.891
-59.003
-65.261
-70.664
-75.227
-78.977
-81.952
-84.209
-85.83
-86.92
-87.605
-88.011
-88.239
-88.376
-88.487
-88.621
-88.819
-89.113
-89.519
-90.054
-90.728
-91.539
-92.49
-93.575
-94.775
-96.06
-97.38
-98.67
-99.882
-100.981
-101.946
-102.772
-103.455
-103.996
-104.404
-104.689
-104.861
-104.937
-104.921
-104.813
-104.62
-104.344
-104.005
-103.642
-103.283
-102.945
-102.643
-102.379
-102.157
-101.983
-101.856
-101.768
-101.712
-101.679
-101.668
-101.686
-101.736
-101.822
-101.941
-102.079
-102.225
-102.373
-102.515
-102.649
-102.77
-102.868
-102.941
-102.993
-103.025
-103.038
-103.031
-103.001
-102.944
-102.859
-102.746
-102.606
-102.443
-102.257
-102.052
-101.83
-101.596
-101.354
-101.106
-100.855
-100.6
-100.344
-100.088
-99.835
-99.59
-99.354
-99.131
-98.926
-98.743
-98.586
-98.459
-98.363
-98.299
-98.268
-98.269
-98.302
-98.368
-98.467
-98.602
-98.773
-98.983
-99.235
-99.53
-99.87
-100.252
-100.668
-101.112
-101.584
-102.085
-102.619
-103.195
-103.819
-104.499
-105.246
-106.068
-106.966
-107.935
-108.961
-110.025
-111.116
-112.231
-113.371
-114.544
-115.743
-116.959
-118.177
-119.373
-120.521
-121.59
-122.535
-123.314
-123.905
-124.298
-124.507
-124.562
-124.479
-124.268
-123.935
-123.478
-122.909
-122.247
-121.517
-120.757
-120.014
-119.344
-118.824
-118.523
-118.492
-118.755
-119.303
-120.098
-121.109
-122.306
-123.649
-125.105
-126.634
-128.175
-129.667
-131.028
-132.158
-132.954
-133.301
-133.088
-132.222
-130.636
-128.303
-125.23
-121.438
-116.953
-111.815
-106.061
-99.73
-92.885
-85.595
-77.947
-70.05
-62.01
-53.927
-45.907
-38.046
-30.412
-23.045
-15.945
-9.083
-2.428
4.048
10.374
16.567
22.656
28.671
34.645
40.617
46.624
52.687
58.835
65.099
71.474
77.93
84.397
90.76
96.903
102.721
108.11
112.98
117.249
120.84
123.694
125.766
127.021
127.43
126.945
125.518
123.137
119.818
115.635
110.685
105.016
98.687
91.8
84.434
76.661
68.581
60.23
51.719
