Name
Date of Birth,"Mar 27, 1959"
Recorded Date,2019-12-07 23:14:33 -0500
Classification,Sinus Rhythm
Symptoms,
Software Version,1.50
Device,"Watch4,2"
Sample Rate,510.227 hertz


Lead,Lead I
Unit,µV

1086.59
1021.11
1119.043
1114.16
1087.583
1028.733
946.207
882.784
845.886
820.855
793.054
758.966
722.835
694.081
683.332
685.577
692.778
695.3
682.291
659.246
632.044
604.521
582.909
563.158
542.126
520.244
495.765
470.936
447.837
426.069
406.193
387.959
370.412
353.406
336.737
320.091
303.563
287.2
270.899
254.642
238.41
222.178
206.013
190
174.176
158.602
143.322
128.36
113.778
99.594
85.798
72.413
59.422
46.812
34.579
22.662
10.998
-0.481
-11.9
-23.374
-35.029
-47.04
-59.55
-72.655
-86.457
-101.001
-116.309
-132.446
-149.436
-167.277
-185.959
-205.389
-225.44
-245.979
-266.819
-287.771
-308.639
-329.167
-349.115
-368.3
-386.546
-403.725
-419.735
-434.424
-447.674
-459.422
-469.623
-478.314
-485.589
-491.545
-496.324
-500.09
-503.002
-505.267
-507.104
-508.666
-510.093
-511.488
-512.921
-514.514
-516.376
-518.569
-521.131
-524.013
-527.21
-530.712
-534.359
-538.114
-541.565
-544.244
-546.645
-548.859
-551.875
-556.824
-562.41
-567.134
-563.576
-557.424
-563.817
-541.401
-490.027
-516.077
-936.222
-482.126
-421.987
-536.245
-649.874
-641.617
-615.161
-622.02
-632.015
-641.593
-655.224
-670.063
-685.027
-698.937
-712.177
-725.017
-736.827
-747.757
-757.528
-767.113
-777.438
-787.277
-796.067
-799.222
-796.875
-788.602
-757.212
-744.847
-816.349
-883.075
-851.24
-782.288
-693.568
-620.456
-719.659
-906.46
-901.462
-742.319
-673.671
-717.721
-755.896
-762.246
-763.169
-761.718
-756.54
-751.565
-750.363
-753.293
-755.157
-753.231
-744.594
-732.731
-727.401
-703.58
-681.015
-799.214
-1027.362
-1025.78
-710.425
-514.064
-661.354
-836.844
-835.511
-796.282
-798.618
-801.849
-802.467
-809.733
-818.605
-826.999
-833.486
-838.651
-844.358
-850.656
-857.375
-864.444
-871.684
-879.049
-886.483
-893.801
-900.802
-907.405
-913.528
-919.379
-925.096
-930.383
-935.256
-938.689
-939.864
-939.473
-937.648
-938.081
-940.299
-946.369
-974.979
-988.578
-922.668
-862.532
-914.832
-984.026
-972.73
-943.262
-942.665
-944.408
-942.26
-937.957
-913.975
-904.273
-971.554
-1051.622
-1008.312
-873.719
-819.997
-886.177
-938.182
-908.509
-863.972
-846.878
-840.805
-838.218
-838.079
-836.461
-831.359
-823.238
-817.538
-808.337
-782.511
-731.686
-643.414
-519.545
-372.926
-208.322
-39.796
119.818
257.718
346.821
372.83
332.697
235.157
109.483
-22.902
-150.645
-268.553
-383.034
-494.612
-595.77
-679.471
-739.088
-773.001
-785.239
-780.833
-764.195
-739.785
-712.712
-687.583
-667.32
-653.107
-644.263
-639.131
-636.327
-634.2
-630.381
-622.698
-609.911
-591.715
-568.705
-541.928
-512.302
-480.735
-448.363
-416.3
-385.275
-355.647
-327.475
-300.648
-275.152
-251.078
-228.464
-207.302
-187.594
-169.336
-152.552
-137.292
-123.541
-111.207
-100.163
-90.254
-81.356
-73.402
-66.32
-60.024
-54.409
-49.333
-44.65
-40.246
-36.032
-31.927
-27.869
-23.81
-19.702
-15.551
-11.398
-7.287
-3.258
0.672
4.501
8.215
11.782
15.163
18.315
21.2
23.828
26.235
28.485
30.693
32.968
35.451
38.317
41.734
45.86
50.846
56.811
63.855
72.1
81.66
92.653
105.214
119.412
135.253
152.688
171.59
191.798
213.133
235.365
258.234
281.503
304.923
328.26
351.313
373.842
395.589
416.276
435.581
453.217
468.978
482.711
494.332
503.817
511.16
516.41
519.669
521.033
520.609
518.512
514.835
509.704
503.296
495.812
487.508
478.642
469.416
459.993
450.501
441.019
431.615
422.322
413.127
404.014
394.969
385.975
377.032
368.127
359.213
350.228
341.083
331.67
321.92
311.784
301.228
290.243
278.835
267.021
254.85
242.381
229.664
216.752
203.687
190.503
177.248
163.967
150.712
137.547
124.527
111.7
99.121
86.832
74.869
63.272
52.06
41.238
30.807
20.751
11.051
1.7
-7.302
-15.946
-24.214
-32.106
-39.634
-46.815
-53.689
-60.292
-66.67
-72.889
-79.011
-85.075
-91.096
-97.049
-102.876
-108.528
-113.978
-119.212
-124.223
-128.992
-133.476
-137.621
-141.364
-144.645
-147.384
-149.469
-150.782
-151.225
-150.746
-149.364
-147.158
-144.216
-140.61
-136.411
-131.697
-126.563
-121.128
-115.531
-109.889
-104.314
-98.946
-93.952
-89.515
-85.818
-82.986
-81.071
-80.057
-79.898
-80.534
-81.897
-83.894
-86.407
-89.3
-92.413
-95.625
-98.819
-101.854
-104.586
-106.852
-108.483
-109.355
-109.41
-108.661
-107.169
-105.037
-102.367
-99.262
-95.857
-92.338
-88.908
-85.745
-83.04
-80.931
-79.597
-79.339
-80.266
-82.293
-85.139
-88.176
-90.767
-92.491
-92.7
-90.582
-85.972
-79.101
-70.796
-62.827
-56.541
-52.701
-52.492
-56.935
-65.735
-77.633
-89.826
-97.963
-98.453
-87.789
-61.956
-17.714
47.041
130.41
227.85
336.187
450.306
567.552
684.677
787.65
864.885
906.626
903.446
859.968
783.126
676.583
548.606
408.289
263.136
126.794
12.486
-78.865
-145.746
-189.909
-217.729
-224.917
-209.187
-173.15
-118.123
-51.543
17.627
84.335
143.415
189.724
220.553
234.068
228.951
206.318
169.393
121.832
68.825
17.127
-28.377
-63.954
-85.931
-92.382
-82.941
-58.622
-22.883
18.934
62.254
103.419
138.878
165.529
180.816
183.383
173.535
153.414
125.86
93.185
57.946
23.533
-6.802
-29.971
-42.923
-44.241
-33.725
-11.285
21.949
63.348
110.238
158.983
204.827
244.159
273.816
290.964
294.59
284.96
262.821
230.566
192.02
150.612
110.395
75.514
48.633
31.828
26.409
31.961
46.881
69.357
96.562
125.19
152.792
177.072
196.356
210.235
218.96
223.104
223.954
223.159
221.872
221.111
221.553
223.265
226.176
230.107
234.617
239.177
243.516
247.515
251.2
254.748
258.245
261.72
265.227
268.814
272.485
276.199
279.881
283.449
286.87
290.153
293.305
296.331
299.21
301.903
304.361
306.572
308.545
310.323
311.988
313.607
315.238
316.936
318.732
320.63
322.598
324.568
326.443
328.141
329.591
330.734
331.511
331.836
331.611
330.712
328.984
326.295
322.518
317.547
311.321
303.82
295.087
285.223
274.38
262.697
250.315
237.38
224.045
210.501
196.929
183.515
170.462
157.96
146.22
135.43
125.733
117.22
109.922
103.806
98.797
94.822
91.783
89.57
88.054
87.077
86.51
86.239
86.152
86.135
86.048
85.761
85.177
84.237
82.914
81.214
79.163
76.789
74.151
71.322
68.387
65.446
62.568
59.795
57.164
54.712
52.484
50.524
48.856
47.482
46.401
45.605
45.085
44.829
44.802
44.961
45.256
45.637
46.066
46.52
46.978
47.421
47.834
48.2
48.511
48.767
48.962
49.086
49.128
49.075
48.924
48.674
48.325
47.878
47.331
46.685
45.94
45.097
44.154
43.108
41.956
40.694
39.32
37.833
36.234
34.524
32.708
30.793
28.788
26.703
24.548
22.333
20.068
17.764
15.428
13.07
10.691
8.301
5.908
3.528
1.181
-1.116
-3.355
-5.527
-7.626
-9.653
-11.616
-13.533
-15.44
-17.359
-19.301
-21.271
-23.255
-25.241
-27.223
-29.188
-31.128
-33.037
-34.898
-36.7
-38.437
-40.081
-41.587
-42.888
-43.879
-44.476
-44.633
-44.319
-43.536
-42.31
-40.666
-38.659
-36.372
-33.865
-31.21
-28.493
-25.776
-23.159
-20.772
-18.754
-17.298
-16.606
-16.788
-17.905
-19.994
-23.028
-26.996
-31.9
-37.625
-44.012
-51.008
-58.6
-66.755
-75.412
-84.334
-93.182
-101.702
-109.789
-117.087
-122.515
-125.607
-126.69
-125.554
-123.874
-121.031
-112.445
-99.201
-81.321
-65.754
-61.912
-49.922
-56.241
-134.122
-182.931
-96.795
12.531
35.591
22.244
18.786
13.88
6.705
5.793
9.62
13.152
14.565
14.366
13.232
11.843
10.394
8.455
5.946
3.111
0.035
-3.256
-6.659
-10.04
-13.244
-16.093
-18.521
-20.597
-22.266
-23.449
-24.293
-24.917
-25.484
-26.25
-27.118
-27.883
-28.663
-29.535
-30.209
-30.562
-30.257
-28.83
-26.754
-24.578
-22.291
-20.029
-18.14
-16.73
-16.372
-17.729
-20.158
-23.013
-26.166
-29.284
-32.174
-34.835
-36.714
-37.233
-36.846
-35.973
-34.768
-33.554
-32.324
-30.982
-29.822
-29.114
-28.693
-28.425
-28.221
-27.909
-27.558
-27.259
-26.948
-26.592
-26.206
-25.786
-25.354
-24.95
-24.544
-24.103
-23.615
-23.049
-22.402
-21.686
-20.903
-20.063
-19.171
-18.22
-17.208
-16.127
-14.97
-13.755
-12.496
-11.205
-9.899
-8.562
-7.175
-5.767
-4.379
-3.003
-1.616
-0.089
1.73
3.703
5.632
7.377
8.827
10.112
11.384
12.397
12.803
12.924
13.295
14.522
17.164
20.902
25.396
30.608
36.341
42.081
46.522
49.851
54.666
60.672
65.684
64.073
44.422
8.07
-32.58
-64.365
-68.498
-44.137
-8.86
24.125
40.77
38.196
28.282
17.578
9.717
6.323
3.57
-0.071
-3.738
-7.315
-10.246
-12.13
-13.143
-13.529
-13.583
-13.646
-14.085
-14.993
-16.226
-17.735
-19.521
-21.645
-24.202
-27.318
-31.166
-35.787
-41.16
-47.055
-52.84
-57.767
-61.112
-61.969
-59.586
-53.815
-44.604
-32.783
-20.461
-9.8
-3.465
-2.423
-4.307
-6.724
-7.861
-11.4
-26.696
-55.842
-92.557
-116.533
-97.513
-22.339
107.116
273.5
448.187
617.663
774.321
908.15
1006.955
1050.546
1025.26
935.409
801.641
649.235
496.165
349.402
206.111
65.895
-64.536
-176.361
-260.267
-311.874
-332.445
-324.791
-293.427
-244.514
-184.954
-121.676
-61.109
-7.574
36.076
66.689
82.791
85.101
75.449
56.702
32.231
3.947
-26.661
-56.487
-83.169
-105.255
-121.329
-131.318
-135.893
-134.627
-126.988
-114.081
-97.127
-77.682
-58.09
-39.54
-22.524
-8.193
2.266
8.531
10.574
9.094
5.654
1.072
-4.325
-9.982
-15.423
-20.309
-24.323
-27.592
-30.659
-33.72
-36.748
-39.696
-42.368
-44.685
-46.663
-48.199
-49.137
-49.392
-48.93
-47.789
-46.091
-43.92
-41.337
-38.415
-35.224
-31.866
-28.436
-25.005
-21.638
-18.376
-15.245
-12.276
-9.477
-6.844
-4.371
-2.037
0.187
2.324
4.402
6.455
8.513
10.618
12.806
15.099
17.514
20.064
22.752
25.584
28.554
31.651
34.866
38.188
41.608
45.118
48.707
52.359
56.061
59.797
63.549
67.304
71.047
74.762
78.436
82.053
85.602
89.068
92.439
95.698
98.832
101.822
104.656
107.32
109.801
112.084
114.159
116.016
117.645
119.042
120.198
121.11
121.773
122.184
122.342
122.246
121.896
121.293
120.434
119.319
117.953
116.341
114.492
112.418
110.129
107.634
104.948
102.086
99.06
95.885
92.567
89.113
85.531
81.834
78.043
74.176
70.241
66.242
62.176
58.039
53.834
49.565
45.228
40.824
36.349
31.809
27.231
22.648
18.091
13.576
9.092
4.64
0.246
-4.036
-8.117
-11.922
-15.436
-18.662
-21.618
-24.333
-26.75
-28.868
-30.816
-32.618
-34.218
-35.455
-35.847
-34.996
-32.962
-29.888
-26.009
-22.033
-18.576
-16.362
-16.881
-21.341
-30.124
-43.284
-59.991
-78.25
-96.362
-112.764
-125.049
-131.308
-130.378
-121.441
-105.388
-84.919
-62.567
-40.423
-20.877
-5.71
3.586
5.528
0.355
-9.851
-22.76
-36.539
-49.694
-61.326
-70.502
-75.97
-77.411
-75.718
-72.252
-68.111
-63.885
-59.721
-55.779
-52.551
-50.361
-49.081
-48.256
-47.463
-46.533
-45.52
-44.564
-43.665
-42.738
-41.745
-40.73
-39.768
-38.921
-38.204
-37.563
-36.949
-36.331
-35.687
-35.029
-34.389
-33.805
-33.318
-32.943
-32.653
-32.421
-32.252
-32.175
-32.259
-32.473
-32.664
-32.768
-32.894
-33.394
-34.692
-36.909
-39.745
-42.793
-45.877
-48.89
-51.567
-52.97
-51.798
-47.381
-39.989
-30.777
-20.943
-11.157
-1.934
5.344
8.704
6.776
-0.779
-12.484
-26.147
-40.536
-54.942
-68.108
-78.363
-84.162
-84.455
-80.253
-73.745
-66.193
-58.29
-50.719
-44.126
-39.481
-37.871
-38.974
-41.486
-44.611
-47.841
-50.964
-54.08
-56.918
-58.918
-60.057
-60.732
-61.219
-61.77
-62.414
-62.937
-63.294
-63.58
-63.819
-63.994
-64.071
-63.974
-63.69
-63.278
-62.774
-62.205
-61.586
-60.9
-60.144
-59.327
-58.461
-57.559
-56.634
-55.687
-54.713
-53.71
-52.678
-51.62
-50.542
-49.449
-48.345
-47.23
-46.112
-45.002
-43.914
-42.862
-41.853
-40.893
-39.982
-39.125
-38.329
-37.61
-36.981
-36.448
-36.007
-35.64
-35.339
-35.11
-34.964
-34.911
-34.959
-35.104
-35.357
-35.751
-36.32
-37.088
-38.061
-39.202
-40.481
-41.894
-43.463
-45.249
-47.292
-49.561
-51.974
-54.429
-56.836
-59.151
-61.338
-63.252
-64.674
-65.501
-65.832
-66.023
-66.454
-67.212
-68.04
-68.599
-68.858
-68.818
-68.219
-66.381
-62.482
-56.309
-48.638
-40.822
-33.765
-28.163
-24.897
-25.027
-29.835
-39.791
-53.759
-69.793
-86.423
-102.306
-116.077
-126.8
-133.413
-135.801
-135.756
-135.264
-135.605
-138.15
-143.817
-152.322
-163.043
-173.858
-180.388
-178.788
-165.885
-138.038
-92.515
-28.187
55.026
154.691
265.326
381.399
496.983
604.219
695.152
762.876
801.104
807.711
785.71
735.853
659.221
557.215
428.209
282.169
137.29
11.054
-76.608
-122.008
-137.427
-134.509
-127.846
-123.707
-117.275
-108.061
-96.831
-85.481
-79.383
-80.296
-86.841
-97.316
-109.239
-120.147
-128.368
-132.989
-133.553
-130.283
-124.022
-115.6
-105.852
-95.81
-86.336
-77.913
-70.822
-65.076
-60.528
-57.117
-54.757
-53.292
-52.574
-52.485
-52.983
-54.098
-55.831
-58.108
-60.783
-63.682
-66.684
-69.707
-72.687
-75.574
-78.256
-80.594
-82.493
-83.877
-84.724
-85.096
-84.998
-84.338
-83.128
-81.458
-79.48
-77.47
-75.509
-73.333
-70.601
-67.157
-62.832
-57.426
-51.217
-44.492
-37.336
-30.769
-24.658
-16.63
-7.724
-0.602
0.734
-12.834
-40.622
-71.995
-96.021
-97.226
-73.322
-38.139
-3.409
18.805
25.464
25.937
25.708
27.666
32.485
36.443
38.674
40.263
41.555
43.366
46.031
49.451
53.824
59.157
64.986
70.842
76.51
81.979
87.381
92.783
98.122
103.329
108.424
113.47
118.487
123.44
128.24
132.799
137.075
141.054
144.737
148.112
151.161
153.864
156.201
158.159
159.729
160.904
161.678
162.046
162.005
161.558
160.713
159.483
157.878
155.905
153.568
150.874
147.834
144.463
140.779
136.798
132.54
128.022
123.268
118.299
113.138
107.81
102.335
96.738
91.043
85.273
79.453
73.607
67.759
61.931
56.145
50.423
44.784
39.248
33.832
28.554
23.427
18.465
13.679
9.079
4.671
0.462
-3.545
-7.348
-10.945
-14.338
-17.529
-20.521
-23.319
-25.928
-28.356
-30.609
-32.697
-34.628
-36.412
-38.059
-39.579
-40.983
-42.281
-43.485
-44.603
-45.648
-46.628
-47.555
-48.437
-49.283
-50.102
-50.901
-51.685
-52.459
-53.227
-53.992
-54.754
-55.515
-56.272
-57.026
-57.772
-58.509
-59.233
-59.94
-60.625
-61.284
-61.911
-62.501
-63.05
-63.552
-64.002
-64.394
-64.726
-64.991
-65.187
-65.31
-65.356
-65.321
-65.205
-65.003
-64.715
-64.34
-63.878
-63.328
-62.694
-61.978
-61.182
-60.313
-59.375
-58.374
-57.315
-56.207
-55.055
-53.867
-52.65
-51.411
-50.158
-48.897
-47.636
-46.381
-45.138
-43.912
-42.708
-41.532
-40.387
-39.277
-38.205
-37.175
-36.189
-35.249
-34.359
-33.519
-32.732
-31.998
-31.318
-30.692
-30.119
-29.597
-29.123
-28.696
-28.314
-27.972
-27.669
-27.402
-27.166
-26.961
-26.782
-26.629
-26.498
-26.387
-26.295
-26.22
-26.163
-26.124
-26.103
-26.1
-26.118
-26.156
-26.217
-26.301
-26.408
-26.538
-26.691
-26.867
-27.064
-27.282
-27.518
-27.773
-28.045
-28.336
-28.643
-28.966
-29.304
-29.654
-30.017
-30.388
-30.762
-31.135
-31.5
-31.853
-32.19
-32.505
-32.793
-33.047
-33.259
-33.425
-33.541
-33.599
-33.589
-33.5
-33.316
-33.036
-32.668
-32.217
-31.682
-31.068
-30.378
-29.62
-28.811
-27.955
-27.043
-26.065
-25.008
-23.878
-22.696
-21.481
-20.256
-19.026
-17.779
-16.517
-15.258
-14.008
-12.766
-11.524
-10.253
-8.969
-7.733
-6.594
-5.602
-4.783
-4.126
-3.638
-3.333
-3.233
-3.372
-3.76
-4.381
-5.245
-6.38
-7.829
-9.656
-11.858
-14.365
-17.127
-20.094
-23.244
-26.581
-30.069
-33.651
-37.266
-40.843
-44.354
-47.79
-51.129
-54.351
-57.381
-60.101
-62.444
-64.374
-65.873
-67.006
-67.746
-67.956
-67.705
-67.167
-66.736
-67.099
-68.572
-71.035
-74.399
-78.581
-83.334
-88.363
-92.555
-93.866
-91.071
-83.93
-72.703
-58.263
-41.493
-23.236
-5.757
7.184
12.69
9.13
-3.872
-25.169
-53.433
-87.102
-122.665
-154.788
-178.198
-188.13
-180.943
-154.731
-108.176
-40.429
47.277
151.572
268.057
389.074
504.272
605.675
687.287
748.8
797.72
837.034
859.859
850.792
786.41
650.718
453.088
223.196
4.006
-159.392
-248.171
-268.09
-239.99
-196.484
-156.703
-125.788
-102.694
-78.595
-51.361
-25.238
-4.757
3.918
-0.713
-15.103
-34.962
-55.799
-74.258
-88.972
-98.947
-103.26
-102.039
-96.489
-88.587
-80.276
-72.897
-67.053
-63
-61.066
-61.347
-63.527
-66.925
-70.862
-74.898
-78.831
-82.627
-86.15
-89.204
-91.681
-93.563
-94.876
-95.65
-95.87
-95.485
-94.49
-92.927
-90.85
-88.335
-85.44
-82.206
-78.693
-74.97
-71.111
-67.2
-63.299
-59.451
-55.693
-52.05
-48.535
-45.161
-41.926
-38.814
-35.815
-32.916
-30.107
-27.384
-24.737
-22.156
-19.627
-17.135
-14.664
-12.202
-9.734
-7.247
-4.73
-2.175
0.426
3.076
5.779
8.543
11.377
14.293
17.311
20.442
23.698
27.083
30.595
34.225
37.954
41.763
45.629
49.533
53.464
57.423
61.417
65.46
69.563
73.728
77.941
82.191
86.465
90.761
95.078
99.429
103.841
108.346
112.984
117.781
122.738
127.831
133.003
138.184
143.284
148.232
152.974
157.464
161.658
165.512
168.979
172.001
174.509
176.42
177.636
178.082
177.709
176.508
174.512
171.783
168.414
164.485
160.062
155.202
149.951
144.354
138.454
132.303
125.953
119.48
112.977
106.524
100.191
94.013
87.999
82.132
76.369
70.68
65.038
59.428
53.85
48.308
42.811
37.372
32.008
26.722
21.502
16.339
11.225
6.165
1.176
-3.716
-8.473
-13.063
-17.457
-21.631
-25.572
-29.272
-32.73
-35.951
-38.944
-41.716
-44.271
-46.612
-48.738
-50.656
-52.372
-53.897
-55.244
-56.425
-57.455
-58.345
-59.106
-59.748
-60.277
-60.7
-61.018
-61.237
-61.36
-61.393
-61.343
-61.216
-61.019
-60.758
-60.438
-60.065
-59.644
-59.176
-58.666
-58.113
-57.521
-56.891
-56.225
-55.524
-54.791
-54.027
-53.235
-52.415
-51.57
-50.701
-49.807
-48.89
-47.95
-46.991
-46.014
-45.023
-44.021
-43.016
-42.015
-41.026
-40.056
-39.112
-38.198
-37.318
-36.475
-35.675
-34.921
-34.213
-33.555
-32.956
-32.429
-31.991
-31.653
-31.414
-31.265
-31.2
-31.214
-31.302
-31.452
-31.645
-31.869
-32.126
-32.436
-32.82
-33.294
-33.856
-34.488
-35.168
-35.886
-36.65
-37.48
-38.384
-39.371
-40.461
-41.7
-43.152
-44.873
-46.861
-49.07
-51.441
-53.926
-56.495
-59.138
-61.829
-64.529
-67.187
-69.748
-72.185
-74.469
-76.539
-78.291
-79.59
-80.306
-80.397
-79.901
-78.864
-77.337
-75.363
-72.982
-70.275
-67.354
-64.314
-61.229
-58.147
-55.101
-52.175
-49.5
-47.231
-45.523
-44.45
-44.004
-44.175
-44.945
-46.272
-48.108
-50.343
-52.829
-55.458
-58.164
-60.899
-63.633
-66.293
-68.765
-70.939
-72.709
-74.017
-74.852
-75.201
-75.053
-74.433
-73.393
-72.014
-70.41
-68.639
-66.71
-64.635
-62.421
-60.099
-57.732
-55.362
-53.007
-50.682
-48.39
-46.132
-43.925
-41.743
-39.529
-37.239
-34.839
-32.344
-29.829
-27.348
-24.936
-22.625
-20.423
-18.361
-16.498
-14.876
-13.529
-12.496
-11.803
-11.511
-11.718
-12.479
-13.819
-15.719
-18.099
-20.902
-24.1
-27.652
-31.522
-35.653
-39.957
-44.362
-48.812
-53.236
-57.566
-61.708
-65.53
-68.936
-71.852
-74.238
-76.098
-77.433
-78.222
-78.478
-78.25
-77.615
-76.697
-75.615
-74.452
-73.319
-72.358
-71.728
-71.611
-72.178
-73.537
-75.816
-79.199
-83.741
-89.363
-95.8
-102.505
-108.909
-114.564
-118.897
-121.161
-120.9
-118.03
-112.977
-106.942
-101.096
-96.164
-92.964
-92.471
-95.109
-100.379
-106.596
-110.593
-109.002
-98.769
-76.596
-38.918
17.576
92.581
181.866
280.406
381.729
485.095
596.259
713.135
829.895
931.129
986.763
978.127
895.462
742.571
548.991
345.672
163.976
28.299
-59.351
-107.156
-132.598
-152.877
-173.554
-192.804
-202.025
-195.021
-173.23
-142.563
-112.102
-87.741
-70.444
-59.638
-54.026
-53.134
-57.199
-65.075
-74.287
-82.597
-88.949
-93.23
-95.767
-96.514
-94.919
-91.05
-85.951
-80.98
-77.029
-74.368
-72.857
-72.389
-73.203
-75.412
-78.698
-82.447
-86.104
-89.342
-92.05
-94.23
-95.796
-96.652
-96.827
-96.425
-95.597
-94.44
-92.956
-91.138
-89.015
-86.646
-84.155
-81.583
-78.812
-75.922
-73.163
-70.77
-69.092
-68.149
-67.482
-66.908
-66.519
-66.081
-65.265
-63.463
-59.549
-53.283
-45.415
-36.507
-27.14
-17.961
-9.287
-2.097
1.813
1.793
-1.773
-8.117
-15.716
-23.464
-31.021
-37.327
-40.724
-40.302
-35.588
-27.062
-16.48
-4.944
7.193
19.211
30.355
39.964
47.181
52.092
55.844
59.116
62.22
65.438
68.736
72.29
76.614
81.734
87.223
92.8
98.226
103.401
108.486
113.493
118.282
122.808
127.073
131.091
134.918
138.547
141.898
144.914
147.552
149.787
151.634
153.094
154.156
154.807
155.029
154.815
154.177
153.134
151.701
149.886
147.695
145.139
142.244
139.044
135.573
131.842
127.85
123.587
119.059
114.29
109.307
104.148
98.816
93.295
87.58
81.663
75.579
69.399
63.158
56.852
50.474
43.996
37.495
31.208
25.174
19.21
13.116
6.593
-0.35
-7.23
-13.81
-20.261
-26.471
-32.004
-36.157
-37.674
-36.104
-32.378
-27.396
-21.715
-15.951
-10.764
-7.362
-8.022
-14.048
-24.662
-38.461
-53.817
-69.443
-84.6
-98.044
-107.415
-110.913
-108.588
-101.673
-92.209
-81.744
-70.912
-60.484
-51.845
-46.399
-44.635
-45.969
-48.977
-52.542
-56.28
-59.981
-63.359
-65.89
-67.178
-67.337
-66.913
-66.38
-65.913
-65.491
-64.98
-64.382
-63.797
-63.238
-62.641
-61.92
-61.024
-59.972
-58.841
-57.693
-56.554
-55.432
-54.313
-53.198
-52.099
-51.032
-50.015
-49.06
-48.168
-47.344
-46.595
-45.928
-45.358
-44.891
-44.529
-44.267
-44.099
-44.026
-44.052
-44.182
-44.422
-44.772
-45.225
-45.781
-46.435
-47.181
-48.014
-48.93
-49.909
-50.935
-51.986
-53.037
-54.082
-55.111
-56.112
-57.067
-57.932
-58.675
-59.283
-59.749
-60.106
-60.376
-60.524
-60.508
-60.285
-59.834
-59.235
-58.545
-57.68
-56.665
-55.655
-54.96
-55.223
-56.981
-60.265
-64.995
-71.089
-78.145
-85.662
-92.705
-97.326
-97.633
-92.805
-82.665
-67.656
-48.883
-27.474
-5.299
14.07
26.655
29.746
22.034
3.604
-24.308
-60.079
-100.807
-141.226
-174.631
-194.868
-196.914
-176.81
-131.766
-59.839
37.223
153.127
280.03
410.851
543.793
679.991
815.059
935.662
1018.607
1041.279
994.049
885.731
743.185
590.896
442.767
302.467
159.91
16.61
-111.577
-209.517
-258.001
-253.695
-213.492
-154.051
-93.666
-43.489
-2.23
30.719
55.599
71.108
73.091
61.448
39.11
10.697
-17.693
-42.592
-62.366
-75.334
-81.043
-79.984
-73.111
-62.739
-51.693
-41.492
-33.009
-26.978
-23.506
-22.598
-24.162
-27.458
-31.535
-35.866
-40.121
-44.096
-47.788
-51.063
-53.761
-55.893
-57.508
-58.633
-59.285
-59.433
-59.031
-58.1
-56.686
-54.844
-52.639
-50.12
-47.348
-44.393
-41.324
-38.215
-35.121
-32.082
-29.14
-26.321
-23.637
-21.092
-18.665
-16.325
-14.059
-11.843
-9.664
-7.513
-5.346
-3.13
-0.838
1.564
4.061
6.642
9.338
12.167
15.163
18.368
21.683
24.994
28.396
31.971
35.87
40.274
44.993
49.768
54.641
59.701
64.811
69.766
73.956
76.69
78.143
78.86
79.287
79.721
80.335
81.486
84.218
89.745
98.339
109.373
121.652
134.261
146.851
158.903
169.362
176.886
180.547
180.624
178.512
175.277
171.35
167.146
163.116
160.062
158.959
159.804
161.607
163.611
165.392
166.704
167.597
167.858
166.955
164.816
161.809
158.225
154.322
150.198
145.705
140.82
135.668
130.293
124.688
118.848
112.721
106.32
99.732
93.017
86.228
79.401
72.547
65.684
58.844
52.053
45.345
38.749
32.282
25.963
19.809
13.835
8.059
2.496
-2.847
-7.963
-12.85
-17.503
-21.91
-26.065
-29.963
-33.604
-36.989
-40.124
-43.008
-45.647
-48.046
-50.211
-52.151
-53.874
-55.389
-56.704
-57.828
-58.774
-59.552
-60.173
-60.651
-60.995
-61.217
-61.328
-61.339
-61.26
-61.102
-60.874
-60.584
-60.243
-59.857
-59.433
-58.977
-58.496
-57.994
-57.474
-56.941
-56.396
-55.843
-55.284
-54.721
-54.157
-53.592
-53.026
-52.461
-51.897
-51.335
-50.775
-50.217
-49.66
-49.104
-48.551
-48.002
-47.459
-46.921
-46.386
-45.855
-45.328
-44.81
-44.302
-43.807
-43.323
-42.853
-42.398
-41.966
-41.562
-41.186
-40.835
-40.504
-40.192
-39.905
-39.649
-39.428
-39.236
-39.063
-38.903
-38.761
-38.641
-38.547
-38.475
-38.41
-38.345
-38.289
-38.257
-38.274
-38.344
-38.459
-38.607
-38.773
-38.979
-39.265
-39.657
-40.175
-40.795
-41.458
-42.146
-42.875
-43.66
-44.534
-45.429
-46.132
-46.639
-47.163
-47.924
-49.224
-51.044
-52.903
-54.585
-56.285
-57.943
-59.189
-59.374
-57.286
-52.497
-45.922
-38.424
-30.56
-22.9
-15.93
-10.749
-9.627
-14.043
-23.578
-37.024
-52.589
-68.702
-84.554
-98.784
-108.828
-112.283
-108.088
-96.882
-80.979
-62.694
-43.477
-24.781
-8.448
3.208
8.006
5.582
-2.578
-14.525
-28.343
-42.64
-56.606
-68.873
-77.571
-81.936
-82.16
-79.038
-74.235
-68.84
-63.075
-57.435
-52.658
-49.144
-47.309
-47.216
-47.958
-48.928
-50.026
-51.087
-52.126
-53.164
-53.9
-54.131
-54.119
-54.056
-54.03
-54.147
-54.285
-54.336
-54.362
-54.412
-54.474
-54.541
-54.575
-54.526
-54.421
-54.294
-54.162
-54.051
-53.96
-53.881
-53.823
-53.796
-53.812
-53.883
-54.006
-54.176
-54.386
-54.634
-54.92
-55.245
-55.607
-56
-56.417
-56.854
-57.31
-57.785
-58.277
-58.782
-59.296
-59.812
-60.327
-60.837
-61.34
-61.829
-62.302
-62.752
-63.177
-63.572
-63.935
-64.262
-64.55
-64.794
-64.992
-65.142
-65.242
-65.291
-65.288
-65.235
-65.132
-64.983
-64.788
-64.551
-64.274
-63.96
-63.61
-63.226
-62.81
-62.363
-61.886
-61.378
-60.842
-60.279
-59.693
-59.085
-58.458
-57.815
-57.16
-56.494
-55.816
-55.127
-54.423
-53.701
-52.956
-52.186
-51.387
-50.556
-49.692
-48.792
-47.858
-46.887
-45.876
-44.818
-43.702
-42.519
-41.269
-39.952
-38.577
-37.157
-35.713
-34.269
-32.852
-31.482
-30.173
-28.927
-27.736
-26.593
-25.484
-24.408
-23.374
-22.393
-21.468
-20.601
-19.785
-19.001
-18.218
-17.4
-16.501
-15.491
-14.36
-13.119
-11.805
-10.473
-9.194
-8.027
-7.012
-6.18
-5.559
-5.182
-5.078
-5.289
-5.854
-6.803
-8.185
-10.025
-12.328
-15.073
-18.197
-21.603
-25.168
-28.773
-32.323
-35.742
-38.961
-41.908
-44.523
-46.755
-48.598
-50.102
-51.297
-52.228
-52.935
-53.438
-53.816
-54.22
-54.815
-55.775
-57.255
-59.318
-62.1
-65.853
-70.621
-76.258
-82.304
-87.87
-92.165
-94.65
-94.626
-91.368
-84.693
-74.844
-63.009
-51.436
-41.945
-35.863
-34.532
-38.715
-48.017
-60.98
-74.002
-81.845
-80.167
-64.571
-30.516
24.77
102.81
201.455
312.717
430.112
549.384
666.944
782.955
888.372
965.575
1000.567
980.969
906.914
792.563
649.835
489.04
322.055
157.921
8.98
-108.133
-188.705
-238.252
-264.768
-281.28
-292.186
-291.701
-277.361
-248.103
-207.056
-162.537
-118.777
-77.286
-39.546
-6.518
19.489
36.518
44.851
45.657
39.773
28.139
11.853
-7.066
-25.252
-40.291
-51.324
-58.213
-61.325
-61.183
-58.257
-53.716
-49.54
-47.056
-46.82
-48.929
-52.905
-58.26
-64.661
-71.525
-78.076
-83.809
-88.42
-91.795
-94.082
-95.383
-95.733
-95.226
-93.95
-91.969
-89.361
-86.192
-82.516
-78.435
-74.066
-69.506
-64.847
-60.162
-55.513
-50.953
-46.515
-42.214
-38.054
-34.047
-30.206
-26.543
-23.059
-19.74
-16.568
-13.512
-10.542
-7.632
-4.763
-1.919
0.908
3.725
6.537
9.34
12.13
14.905
17.672
20.437
23.209
25.989
28.777
31.574
34.381
37.206
40.061
42.956
45.891
48.87
51.894
54.963
58.074
61.21
64.341
67.435
70.473
73.449
76.37
79.236
82.047
84.8
87.494
90.145
92.776
95.398
98.019
100.645
103.299
106.028
108.904
111.987
115.302
118.845
122.59
126.511
130.571
134.719
138.885
142.963
146.858
150.496
153.823
156.785
159.309
161.29
162.596
163.126
162.817
161.644
159.602
156.694
152.943
148.406
143.182
137.405
131.19
124.62
117.757
110.664
103.422
96.135
88.924
81.879
75.067
68.536
62.324
56.471
50.99
45.868
41.05
36.465
32.061
27.813
23.71
19.745
15.901
12.153
8.474
4.858
1.303
-2.196
-5.642
-9.043
-12.398
-15.685
-18.87
-21.914
-24.79
-27.487
-30
-32.325
-34.462
-36.409
-38.175
-39.772
-41.214
-42.508
-43.66
-44.672
-45.553
-46.314
-46.969
-47.531
-48.011
-48.418
-48.76
-49.043
-49.273
-49.455
-49.587
-49.67
-49.703
-49.688
-49.628
-49.526
-49.384
-49.203
-48.987
-48.737
-48.456
-48.144
-47.802
-47.428
-47.022
-46.585
-46.115
-45.612
-45.076
-44.507
-43.906
-43.273
-42.61
-41.918
-41.197
-40.45
-39.679
-38.886
-38.075
-37.247
-36.408
-35.561
-34.712
-33.864
-33.022
-32.19
-31.372
-30.573
-29.795
-29.041
-28.315
-27.619
-26.955
-26.326
-25.734
-25.184
-24.676
-24.213
-23.797
-23.429
-23.112
-22.847
-22.634
-22.473
-22.366
-22.313
-22.313
-22.367
-22.474
-22.634
-22.844
-23.103
-23.41
-23.761
-24.153
-24.584
-25.05
-25.548
-26.076
-26.63
-27.209
-27.809
-28.429
-29.066
-29.718
-30.382
-31.056
-31.738
-32.426
-33.117
-33.811
-34.505
-35.197
-35.887
-36.571
-37.25
-37.92
-38.581
-39.229
-39.865
-40.485
-41.09
-41.678
-42.249
-42.802
-43.338
-43.858
-44.361
-44.849
-45.323
-45.782
-46.229
-46.663
-47.086
-47.498
-47.898
-48.289
-48.67
-49.041
-49.403
-49.756
-50.099
-50.43
-50.751
-51.06
-51.355
-51.637
-51.903
-52.153
-52.386
-52.6
-52.794
-52.965
-53.112
-53.232
-53.322
-53.379
-53.4
-53.38
-53.316
-53.204
-53.04
-52.819
-52.538
-52.191
-51.774
-51.284
-50.718
-50.071
-49.343
-48.53
-47.632
-46.648
-45.578
-44.42
-43.176
-41.848
-40.438
-38.949
-37.385
-35.753
-34.059
-32.313
-30.527
-28.711
-26.875
-25.032
-23.195
-21.384
-19.615
-17.908
-16.278
-14.74
-13.311
-12.011
-10.854
-9.854
-9.014
-8.336
-7.828
-7.496
-7.355
-7.41
-7.654
-8.076
-8.665
-9.416
-10.335
-11.427
-12.684
-14.097
-15.661
-17.381
-19.271
-21.338
-23.559
-25.895
-28.292
-30.706
-33.129
-35.566
-38.038
-40.544
-43.016
-45.377
-47.554
-49.474
-51.129
-52.474
-53.354
-53.755
-53.845
-53.947
-54.697
-56.663
-59.904
-64.366
-70.021
-76.461
-83.214
-89.485
-93.465
-93.431
-88.762
-79.379
-65.831
-49.521
-31.606
-13.663
0.998
8.959
7.942
-3.461
-24.913
-54.603
-90.945
-131.688
-172.478
-208.194
-233.595
-243.604
-235.316
-207.481
-158.529
-87.458
4.93
116.376
240.279
366.45
487.416
598.217
699.398
795.266
882.577
950.962
982.864
959
872.308
727.184
539.998
335.483
137.696
-28.746
-146.651
-211.01
-228.161
-217.074
-195.67
-173.9
-154.123
-130.748
-101.628
-70.11
-40.591
-19.13
-8.533
-7.663
-15.048
-27.76
-41.84
-54.587
-64.512
-70.791
-73.598
-73.335
-69.839
-63.807
-57.006
-50.802
-46.042
-43.125
-41.773
-41.785
-43.402
-46.473
-50.404
-54.716
-58.947
-62.819
-66.355
-69.484
-72.02
-73.883
-75.061
-75.571
-75.493
-74.87
-73.696
-72.003
-69.832
-67.236
-64.287
-61.049
-57.585
-53.967
-50.266
-46.552
-42.881
-39.29
-35.809
-32.456
-29.234
-26.146
-23.18
-20.323
-17.567
-14.904
-12.322
-9.812
-7.361
-4.952
-2.572
-0.203
2.172
4.566
6.991
9.458
11.974
14.546
17.18
19.874
22.636
25.473
28.396
31.421
34.564
37.827
41.212
44.713
48.315
52.006
55.772
59.59
63.442
67.323
71.232
75.185
79.2
83.282
87.425
91.606
95.806
100.02
104.248
108.494
112.776
117.107
121.504
126.009
130.645
135.399
140.241
145.095
149.873
154.511
158.961
163.186
167.161
170.838
174.17
177.117
179.626
181.64
183.095
183.892
183.955
183.261
181.816
179.68
176.94
173.658
169.88
165.658
161.021
156.016
150.687
145.061
139.174
133.074
126.824
120.52
114.244
108.039
101.924
95.885
89.88
83.891
77.91
71.919
65.92
59.914
53.907
47.926
41.998
36.137
30.347
24.616
18.931
13.299
7.739
2.277
-3.047
-8.204
-13.168
-17.908
-22.404
-26.642
-30.614
-34.322
-37.777
-40.982
-43.941
-46.651
-49.112
-51.326
-53.302
-55.047
-56.573
-57.892
-59.016
-59.963
-60.746
-61.378
-61.873
-62.239
-62.485
-62.619
-62.652
-62.593
-62.453
-62.242
-61.971
-61.651
-61.292
-60.905
-60.497
-60.077
-59.65
-59.223
-58.799
-58.384
-57.981
-57.591
-57.218
-56.862
-56.524
-56.205
-55.904
-55.62
-55.351
-55.095
-54.85
-54.611
-54.378
-54.146
-53.913
-53.676
-53.433
-53.183
-52.923
-52.651
-52.367
-52.069
-51.755
-51.424
-51.076
-50.71
-50.327
-49.926
-49.509
-49.077
-48.631
-48.173
-47.705
-47.227
-46.743
-46.254
-45.762
-45.268
-44.776
-44.289
-43.809
-43.341
-42.887
-42.45
-42.034
-41.641
-41.274
-40.935
-40.626
-40.348
-40.101
-39.888
-39.709
-39.564
-39.454
-39.377
-39.332
-39.319
-39.336
-39.379
-39.449
-39.542
-39.656
-39.79
-39.944
-40.116
-40.307
-40.515
-40.74
-40.983
-41.242
-41.517
-41.806
-42.108
-42.422
-42.748
-43.085
-43.432
-43.789
-44.156
-44.533
-44.92
-45.316
-45.72
-46.133
-46.555
-46.985
-47.423
-47.872
-48.333
-48.805
-49.292
-49.793
-50.309
-50.84
-51.385
-51.941
-52.506
-53.074
-53.642
-54.204
-54.756
-55.293
-55.812
-56.31
-56.783
-57.227
-57.639
-58.017
-58.353
-58.641
-58.874
-59.042
-59.139
-59.159
-59.097
-58.949
-58.71
-58.378
-57.954
-57.435
-56.818
-56.096
-55.256
-54.29
-53.199
-51.99
-50.673
-49.271
-47.802
-46.286
-44.752
-43.221
-41.705
-40.211
-38.726
-37.235
-35.739
-34.247
-32.783
-31.37
-30.014
-28.711
-27.456
-26.225
-24.999
-23.754
-22.44
-21.027
-19.522
-17.949
-16.374
-14.88
-13.521
-12.329
-11.328
-10.525
-9.956
-9.662
-9.676
-10.042
-10.809
-12.032
-13.793
-16.148
-19.086
-22.548
-26.427
-30.579
-34.899
-39.309
-43.725
-48.079
-52.291
-56.266
-59.936
-63.238
-66.094
-68.42
-70.115
-71.125
-71.492
-71.331
-70.796
-70.057
-69.227
-68.409
-67.749
-67.381
-67.44
-68.068
-69.316
-71.259
-74.089
-77.848
-82.42
-87.5
-92.403
-96.43
-99.132
-99.907
-98.063
-93.451
-86.207
-77.017
-67.507
-58.92
-51.889
-47.338
-45.959
-47.395
-50.746
-53.834
-52.919
-45.13
-28.038
1.41
45.807
107.01
183.99
271.345
362.497
451.514
538.774
631.306
729.822
828.294
907.814
936.747
897.93
790.792
632.974
460.549
299.194
160.921
47.932
-47.906
-129.221
-193.149
-236.807
-256.438
-252.565
-229.572
-192.541
-148.087
-102.225
-58.726
-20.437
10.602
32.821
44.908
46.862
40.329
27.566
10.482
-9.329
-30.282
-50.282
-67.177
-79.786
-87.908
-92.022
-92.854
-91.008
-87.304
-83.076
-79.543
-77.387
-76.883
-77.851
-79.912
-82.787
-86.058
-89.135
-91.618
-93.306
-94.132
-94.216
-93.681
-92.589
-91.044
-89.162
-87.004
-84.612
-82
-79.154
-76.108
-72.918
-69.646
-66.348
-63.058
-59.794
-56.574
-53.412
-50.313
-47.276
-44.292
-41.359
-38.484
-35.671
-32.924
-30.239
-27.606
-25.01
-22.437
-19.87
-17.294
-14.698
-12.071
-9.405
-6.692
-3.926
-1.102
1.787
4.75
7.795
10.93
14.162
17.498
20.942
24.499
28.171
31.959
35.864
39.884
44.019
48.265
52.617
57.071
61.619
66.252
70.962
75.735
80.561
85.424
90.31
95.202
100.084
104.936
109.74
114.476
119.125
123.667
128.083
132.351
136.453
140.37
144.084
147.575
150.826
153.82
156.54
158.972
161.1
162.912
164.396
165.541
166.338
166.78
166.861
166.577
165.925
164.904
163.513
161.755
159.633
157.152
154.32
151.144
147.634
143.803
139.663
135.228
130.513
125.534
120.309
114.855
109.192
103.339
97.316
91.145
84.848
78.446
71.962
65.419
58.84
52.247
45.662
39.107
32.602
26.169
19.827
13.595
7.492
1.534
-4.261
-9.878
-15.304
-20.525
-25.531
-30.309
-34.851
-39.15
-43.199
-46.993
-50.525
-53.789
-56.788
-59.523
-61.996
-64.21
-66.167
-67.865
-69.319
-70.546
-71.535
-72.282
-72.786
-73.038
-73.068
-72.919
-72.577
-72.028
-71.349
-70.6
-69.831
-69.115
-68.416
-67.651
-66.885
-66.23
-65.441
-64.231
-62.791
-61.114
-59.156
-57.574
-54.632
-48.642
-42.039
-35.57
-33.702
-41.782
-53.907
-66.145
-72.638
-65.333
-51.36
-36.763
-25.684
-24.964
-29.715
-34.981
-39.662
-40.737
-39.96
-39.585
-39.184
-39.043
-39.01
-38.629
-38.197
-37.953
-37.817
-37.77
-37.841
-38.019
-38.288
-38.636
-39.017
-39.379
-39.739
-40.116
-40.501
-40.892
-41.288
-41.682
-42.081
-42.488
-42.899
-43.313
-43.727
-44.142
-44.557
-44.974
-45.393
-45.815
-46.241
-46.671
-47.106
-47.548
-47.998
-48.458
-48.927
-49.409
-49.903
-50.412
-50.938
-51.48
-52.042
-52.622
-53.222
-53.843
-54.483
-55.143
-55.821
-56.517
-57.23
-57.959
-58.703
-59.46
-60.229
-61.007
-61.793
-62.584
-63.379
-64.174
-64.966
-65.754
-66.534
-67.304
-68.061
-68.803
-69.525
-70.226
-70.899
-71.542
-72.149
-72.713
-73.229
-73.692
-74.097
-74.439
-74.717
-74.925
-75.065
-75.136
-75.14
-75.072
-74.932
-74.715
-74.418
-74.037
-73.568
-73.005
-72.345
-71.584
-70.722
-69.763
-68.709
-67.557
-66.306
-64.946
-63.476
-61.902
-60.228
-58.462
-56.619
-54.717
-52.787
-50.876
-49.015
-47.225
-45.521
-43.901
-42.368
-40.926
-39.576
-38.318
-37.15
-36.061
-35.046
-34.108
-33.232
-32.389
-31.53
-30.577
-29.481
-28.228
-26.817
-25.271
-23.627
-21.918
-20.198
-18.543
-17.014
-15.678
-14.591
-13.785
-13.315
-13.255
-13.694
-14.747
-16.491
-18.945
-22.103
-25.927
-30.355
-35.315
-40.704
-46.375
-52.198
-58.043
-63.784
-69.325
-74.562
-79.371
-83.63
-87.227
-90.084
-92.193
-93.58
-94.27
-94.334
-93.867
-93.011
-91.971
-90.937
-90.082
-89.624
-89.839
-90.906
-92.843
-95.455
-98.28
-100.806
-102.607
-103.169
-101.779
-97.991
-91.981
-84.545
-77.264
-71.897
-69.574
-71.252
-78.136
-90.719
-108.073
-127.895
-146.086
-157.748
-158.984
-146.116
-115.078
-62.906
11.369
106.478
218.179
340.12
465.817
587.82
697.367
786.02
846.512
873.648
865.042
821.078
744.259
639.686
514.926
378.913
241.228
110.809
-4.288
-97.705
-165.963
-208.384
-226.676
-224.577
-207.142
-179.756
-148.51
-119.194
-95.37
-78.795
-69.832
-67.497
-70.248
-76.392
-83.495
-89.034
-91.748
-91.278
-87.924
-82.596
-76.126
-69.204
-62.779
-57.796
-54.726
-53.702
-54.566
-56.912
-60.427
-64.864
-69.919
-75.288
-80.71
-85.953
-90.841
-95.256
-99.094
-102.273
-104.744
-106.481
-107.483
-107.784
-107.438
-106.514
-105.082
-103.21
-100.96
-98.393
-95.585
-92.614
-89.556
-86.483
-83.442
-80.464
-77.572
-74.776
-72.078
-69.468
-66.925
-64.423
-61.943
-59.47
-56.991
-54.495
-51.966
-49.387
-46.743
-44.017
-41.198
-38.277
-35.243
-32.088
-28.809
-25.402
-21.868
-18.207
-14.421
-10.507
-6.466
-2.298
1.998
6.417
10.958
15.616
20.385
25.258
30.225
35.274
40.395
45.572
50.794
56.043
61.305
66.564
71.803
77.004
82.151
87.225
92.207
97.079
101.821
106.415
110.841
115.081
119.117
122.931
126.507
129.831
132.886
135.662
138.146
140.327
142.196
143.745
144.966
145.854
146.406
146.617
146.489
146.022
145.219
144.085
142.627
140.85
138.765
136.379
133.704
130.749
127.528
124.052
120.335
116.391
112.238
107.891
103.367
98.686
93.865
88.925
83.885
78.762
73.574
68.339
63.072
57.791
52.508
47.238
41.992
36.784
31.629
26.539
21.528
16.607
11.786
7.076
2.485
-1.979
-6.311
-10.513
-14.584
-18.523
-22.324
-25.977
-29.478
-32.83
-36.041
-39.115
-42.062
-44.896
-47.643
-50.344
-53.035
-55.74
-58.468
-61.211
-63.963
-66.723
-69.492
-72.273
-75.05
-77.799
-80.503
-83.157
-85.744
-88.227
-90.531
-92.529
-94.112
-95.198
-95.739
-95.715
-95.105
-93.888
-92.063
-89.65
-86.701
-83.28
-79.424
-75.149
-70.498
-65.558
-60.502
-55.601
-51.105
-47.222
-44.123
-41.921
-40.745
-40.745
-42.01
-44.585
-48.468
-53.573
-59.919
-67.646
-76.667
-86.693
-97.161
-107.093
-115.627
-122.209
-126.08
-126.43
-123.005
-115.87
-105.883
-94.968
-84.67
-76.057
-70.394
-68.462
-69.93
-73.752
-77.348
-76.535
-67.379
-45.901
-7.814
50.474
128.382
221.041
323.01
427.171
533.857
650.75
774.859
895.681
991.579
1029.378
993.402
886.447
721.068
522.219
312.457
106.531
-76.293
-214.09
-294.932
-314.007
-277.111
-206.294
-121.065
-37.449
26.53
63.078
70.674
52.943
23.849
-3.773
-23.492
-34.678
-43.232
-53.874
-67.054
-80.229
-88.624
-90.184
-85.87
-77.684
-68.59
-60.329
-53.216
-47.679
-44.083
-42.484
-42.919
-44.999
-47.899
-51.105
-54.395
-57.61
-60.705
-63.595
-66.101
-68.116
-69.654
-70.716
-71.302
-71.399
-70.954
-69.95
-68.421
-66.423
-64.024
-61.278
-58.234
-54.932
-51.428
-47.789
-44.085
-40.384
-36.739
-33.183
-29.738
-26.415
-23.222
-20.157
-17.208
-14.354
-11.571
-8.844
-6.162
-3.517
-0.899
1.706
4.315
6.947
9.616
12.34
15.132
18.005
20.97
24.033
27.199
30.467
33.835
37.303
40.873
44.552
48.349
52.271
56.316
60.482
64.758
69.126
73.562
78.034
82.507
86.949
91.337
95.656
99.901
104.07
108.16
112.159
116.044
119.797
123.403
126.85
130.127
133.235
136.191
139.029
141.794
144.516
147.205
149.854
152.433
154.914
157.249
159.395
161.315
162.964
164.304
165.3
165.913
166.094
165.765
164.832
163.19
160.767
157.513
153.404
148.431
142.586
135.904
128.439
120.262
111.455
102.092
92.253
82.03
71.544
60.95
50.412
40.091
30.113
20.594
11.635
3.344
-4.173
-10.857
-16.685
-21.655
-25.783
-29.074
-31.554
-33.274
-34.322
-34.82
-34.884
-34.608
-34.067
-33.331
-32.475
-31.589
-30.763
-30.054
-29.495
-29.106
-28.9
-28.901
-29.11
-29.506
-30.035
-30.625
-31.225
-31.803
-32.344
-32.831
-33.246
-33.562
-33.756
-33.825
-33.771
-33.598
-33.305
-32.892
-32.366
-31.75
-31.082
-30.405
-29.747
-29.125
-28.551
-28.031
-27.575
-27.19
-26.874
-26.619
-26.421
-26.276
-26.183
-26.144
-26.155
-26.208
-26.293
-26.4
-26.522
-26.653
-26.788
-26.924
-27.057
-27.187
-27.314
-27.443
-27.574
-27.708
-27.844
-27.981
-28.118
-28.254
-28.387
-28.516
-28.64
-28.758
-28.872
-28.981
-29.089
-29.194
-29.3
-29.407
-29.518
-29.634
-29.757
-29.888
-30.03
-30.184
-30.351
-30.533
-30.731
-30.946
-31.179
-31.429
-31.698
-31.984
-32.287
-32.606
-32.941
-33.29
-33.654
-34.032
-34.423
-34.829
-35.248
-35.682
-36.13
-36.593
-37.07
-37.559
-38.061
-38.574
-39.096
-39.627
-40.163
-40.703
-41.245
-41.788
-42.328
-42.865
-43.395
-43.917
-44.428
-44.926
-45.41
-45.877
-46.326
-46.756
-47.166
-47.555
-47.921
-48.265
-48.585
-48.88
-49.149
-49.392
-49.607
-49.795
-49.954
-50.084
-50.185
-50.258
-50.303
-50.321
-50.314
-50.283
-50.229
-50.155
-50.063
-49.955
-49.835
-49.704
-49.568
-49.428
-49.288
-49.151
-49.021
-48.901
-48.792
-48.699
-48.622
-48.565
-48.529
-48.515
-48.527
-48.564
-48.628
-48.719
-48.839
-48.987
-49.164
-49.368
-49.599
-49.856
-50.138
-50.443
-50.77
-51.115
-51.478
-51.855
-52.243
-52.639
-53.041
-53.444
-53.846
-54.243
-54.63
-55.007
-55.368
-55.712
-56.037
-56.339
-56.617
-56.871
-57.098
-57.298
-57.471
-57.617
-57.736
-57.83
-57.901
-57.949
-57.979
-57.992
-57.991
-57.979
-57.959
-57.935
-57.91
-57.888
-57.872
-57.865
-57.871
-57.893
-57.935
-57.999
-58.089
-58.206
-58.353
-58.531
-58.742
-58.985
-59.261
-59.571
-59.912
-60.284
-60.684
-61.111
-61.56
-62.028
-62.51
-63.002
-63.496
-63.987
-64.467
-64.928
-65.364
-65.766
-66.126
-66.438
-66.692
-66.881
-66.998
-67.035
-66.987
-66.845
-66.604
-66.26
-65.807
-65.242
-64.561
-63.763
-62.846
-61.809
-60.654
-59.381
-57.993
-56.493
-54.885
-53.175
-51.368
-49.473
-47.498
-45.454
-43.354
-41.212
-39.043
-36.865
-34.694
-32.55
-30.45
-28.412
-26.451
-24.583
-22.821
-21.18
-19.673
-18.315
-17.121
-16.104
-15.276
-14.647
-14.227
-14.022
-14.032
-14.256
-14.691
-15.34
-16.214
-17.323
-18.672
-20.267
-22.11
-24.191
-26.496
-28.993
-31.637
-34.377
-37.162
-39.943
-42.683
-45.342
-47.876
-50.233
-52.348
-54.158
-55.614
-56.672
-57.287
-57.455
-57.211
-56.624
-55.818
-54.911
-53.985
-53.146
-52.514
-52.206
-52.368
-53.145
-54.623
-56.959
-60.389
-64.961
-70.576
-76.897
-83.213
-88.842
-93.256
-95.729
-95.497
-92.347
-86.478
-78.831
-71.292
-65.421
-62.307
-63.194
-68.903
-79.005
-92.059
-105.077
-113.518
-113.054
-99.55
-68.698
-17.143
54.695
142.916
242.448
347.915
459.136
578.309
700.42
812.323
891.607
915.338
874.562
777.082
645.445
504.227
369.256
246.587
133.736
29.733
-61.565
-135.174
-186.34
-214.48
-223.157
-216.961
-200.762
-179.199
-156.474
-135.811
-118.314
-103.972
-92.342
-82.763
-75.094
-68.917
-63.11
-57.259
-52.439
-49.655
-49.555
-52.224
-56.523
-61.637
-67.533
-73.713
-79.034
-82.682
-84.135
-83.568
-82.205
-80.841
-79.661
-78.954
-78.979
-79.875
-81.756
-84.334
-86.868
-88.904
-90.274
-90.891
-90.842
-90.176
-88.866
-87.006
-84.769
-82.271
-79.593
-76.766
-73.77
-70.63
-67.408
-64.167
-60.97
-57.851
-54.822
-51.89
-49.05
-46.294
-43.609
-40.972
-38.37
-35.792
-33.231
-30.683
-28.148
-25.618
-23.08
-20.521
-17.922
-15.268
-12.553
-9.768
-6.91
-3.978
-0.97
2.114
5.273
8.51
11.827
15.226
18.711
22.282
25.94
29.684
33.511
37.418
41.398
45.446
49.555
53.718
57.925
62.167
66.434
70.716
75.002
79.279
83.535
87.757
91.932
96.047
100.088
104.042
107.895
111.634
115.248
118.724
122.051
125.219
128.217
131.034
133.663
136.094
138.319
140.329
142.119
143.681
145.011
146.103
146.954
147.561
147.922
148.038
147.906
147.528
146.905
146.039
144.932
143.588
142.011
140.206
138.178
135.935
133.481
130.826
127.975
124.937
121.72
118.332
114.781
111.075
107.225
103.238
99.126
94.899
90.566
86.141
81.633
77.056
72.42
67.739
63.025
58.29
53.547
48.809
44.089
39.401
34.755
30.167
25.647
21.208
16.862
12.619
8.489
4.484
0.612
-3.119
-6.698
-10.119
-13.373
-16.454
-19.355
-22.07
-24.596
-26.927
-29.061
-30.997
-32.734
-34.272
-35.612
-36.757
-37.711
-38.477
-39.062
-39.47
-39.711
-39.791
-39.72
-39.508
-39.165
-38.701
-38.128
-37.457
-36.698
-35.864
-34.965
-34.012
-33.015
-31.987
-30.938
-29.877
-28.817
-27.766
-26.736
-25.734
-24.769
-23.849
-22.981
-22.171
-21.424
-20.745
-20.136
-19.601
-19.141
-18.757
-18.449
-18.216
-18.056
-17.966
-17.943
-17.981
-18.078
-18.227
-18.423
-18.66
-18.935
-19.24
-19.57
-19.921
-20.285
-20.658
-21.035
-21.409
-21.774
-22.127
-22.462
-22.774
-23.059
-23.315
-23.539
-23.728
-23.88
-23.994
-24.071
-24.109
-24.108
-24.071
-23.999
-23.893
-23.757
-23.594
-23.407
-23.201
-22.98
-22.747
-22.507
-22.264
-22.022
-21.786
-21.559
-21.344
-21.147
-20.971
-20.82
-20.697
-20.608
-20.554
-20.54
-20.567
-20.638
-20.753
-20.916
-21.125
-21.381
-21.685
-22.037
-22.435
-22.879
-23.367
-23.899
-24.471
-25.081
-25.727
-26.406
-27.115
-27.85
-28.61
-29.392
-30.191
-31.007
-31.834
-32.67
-33.512
-34.355
-35.194
-36.027
-36.847
-37.651
-38.434
-39.192
-39.921
-40.618
-41.278
-41.899
-42.477
-43.009
-43.491
-43.921
-44.294
-44.608
-44.86
-45.047
-45.167
-45.216
-45.194
-45.096
-44.921
-44.665
-44.327
-43.903
-43.39
-42.788
-42.096
-41.311
-40.435
-39.469
-38.414
-37.273
-36.05
-34.747
-33.37
-31.923
-30.411
-28.84
-27.217
-25.547
-23.839
-22.101
-20.345
-18.582
-16.824
-15.084
-13.376
-11.713
-10.11
-8.581
-7.136
-5.787
-4.544
-3.419
-2.425
-1.578
-0.889
-0.368
-0.025
0.133
0.099
-0.13
-0.55
-1.157
-1.946
-2.92
-4.09
-5.468
-7.061
-8.871
-10.897
-13.128
-15.55
-18.142
-20.862
-23.669
-26.519
-29.373
-32.204
-34.984
-37.67
-40.21
-42.533
-44.564
-46.252
-47.544
-48.402
-48.829
-48.843
-48.495
-47.877
-47.061
-46.128
-45.19
-44.357
-43.752
-43.522
-43.771
-44.661
-46.464
-49.298
-53.12
-57.696
-62.426
-66.697
-70.099
-72.08
-71.954
-69.437
-64.623
-58.236
-52.048
-47.736
-46.318
-48.751
-55.813
-67.487
-82.95
-99.985
-114.28
-121.377
-117.77
-99.889
-64.34
-8.699
68.277
163.916
270.688
381.063
489.689
595.612
700.009
798.656
879.514
923.372
914.484
846.656
726.227
571.959
399.533
226.468
70.402
-59.379
-148.817
-194.983
-209.744
-201.739
-184.811
-167.224
-144.903
-118.771
-91.122
-64.315
-44.762
-35.14
-34.122
-39.88
-49.614
-60.25
-69.473
-75.918
-78.85
-78.343
-75.267
-70.528
-64.926
-59.489
-55.155
-52.375
-51.339
-51.937
-53.783
-56.583
-60.109
-64.067
-68.19
-72.294
-76.216
-79.844
-83.114
-85.917
-88.161
-89.797
-90.793
-91.151
-90.901
-90.075
-88.724
-86.912
-84.701
-82.148
-79.309
-76.232
-72.976
-69.605
-66.182
-62.77
-59.415
-56.15
-52.999
-49.976
-47.083
-44.317
-41.664
-39.108
-36.635
-34.234
-31.898
-29.614
-27.371
-25.153
-22.944
-20.729
-18.492
-16.221
-13.902
-11.525
-9.081
-6.562
-3.965
-1.285
1.483
4.345
7.306
10.371
13.545
16.832
20.234
23.755
27.397
31.16
35.042
39.042
43.156
47.38
51.707
56.131
60.641
65.226
69.875
74.571
79.299
84.04
88.774
93.481
98.14
102.726
107.218
111.593
115.827
119.9
123.79
127.477
130.94
134.163
137.126
139.814
142.212
144.305
146.081
147.526
148.631
149.386
149.784
149.818
149.483
148.776
147.697
146.247
144.427
142.244
139.704
136.816
133.592
130.045
126.192
122.05
117.639
112.978
108.09
102.998
97.724
92.292
86.725
81.047
75.281
69.448
63.573
57.676
51.778
45.902
40.067
34.294
28.6
23.005
17.525
12.178
6.979
1.941
-2.921
-7.597
-12.076
-16.349
-20.409
-24.25
-27.869
-31.263
-34.432
-37.378
-40.103
-42.611
-44.909
-47.001
-48.896
-50.6
-52.122
-53.469
-54.652
-55.677
-56.554
-57.293
-57.901
-58.388
-58.763
-59.035
-59.212
-59.303
-59.317
-59.262
-59.145
-58.975
-58.758
-58.502
-58.213
-57.898
-57.562
-57.209
-56.844
-56.471
-56.092
-55.71
-55.325
-54.939
-54.553
-54.168
-53.782
-53.396
-53.011
-52.625
-52.238
-51.85
-51.461
-51.07
-50.677
-50.281
-49.883
-49.483
-49.08
-48.674
-48.266
-47.855
-47.442
-47.026
-46.609
-46.19
-45.77
-45.349
-44.928
-44.507
-44.088
-43.67
-43.257
-42.847
-42.443
-42.046
-41.657
-41.276
-40.906
-40.547
-40.2
-39.867
-39.549
-39.246
-38.96
-38.692
-38.442
-38.212
-38.002
-37.813
-37.647
-37.502
-37.382
-37.285
-37.214
-37.168
-37.149
-37.156
-37.191
-37.254
-37.345
-37.463
-37.61
-37.786
-37.99
-38.223
-38.485
-38.777
-39.099
-39.45
-39.831
-40.241
-40.681
-41.15
-41.646
-42.17
-42.721
-43.296
-43.896
-44.519
-45.162
-45.824
-46.504
-47.197
-47.901
-48.613
-49.329
-50.046
-50.76
-51.467
-52.164
-52.846
-53.511
-54.154
-54.772
-55.359
-55.913
-56.428
-56.901
-57.327
-57.7
-58.017
-58.274
-58.466
-58.589
-58.64
-58.616
-58.513
-58.327
-58.057
-57.699
-57.252
-56.713
-56.081
-55.355
-54.537
-53.627
-52.626
-51.536
-50.36
-49.102
-47.764
-46.352
-44.87
-43.322
-41.714
-40.053
-38.346
-36.598
-34.82
-33.018
-31.206
-29.395
-27.597
-25.826
-24.095
-22.418
-20.809
-19.281
-17.844
-16.509
-15.284
-14.179
-13.206
-12.376
-11.699
-11.183
-10.836
-10.664
-10.673
-10.866
-11.236
-11.776
-12.48
-13.35
-14.395
-15.628
-17.055
-18.68
-20.505
-22.524
-24.726
-27.089
-29.572
-32.131
-34.722
-37.305
-39.855
-42.345
-44.741
-46.989
-49.028
-50.792
-52.227
-53.287
-53.928
-54.142
-53.945
-53.392
-52.58
-51.591
-50.515
-49.458
-48.535
-47.874
-47.619
-47.897
-48.869
-50.799
-53.85
-58.021
-63.108
-68.557
-73.719
-78.073
-81.008
-81.751
-79.835
-75.302
-68.856
-62.282
-57.574
-56.123
-59.141
-67.778
-82.389
-102.171
-124.792
-145.592
-159.168
-161.13
-147.214
-113.083
-55.537
26.91
131.333
249.434
372.377
493.45
611.62
728.483
838.769
931.252
986.949
985.662
921.591
798.404
627.972
433.159
234.353
53.735
-82.461
-163.003
-188.622
-172.863
-142.93
-116.229
-99.139
-90.188
-80.047
-66.228
-51.798
-40.124
-35.658
-38.675
-46.264
-56.102
-65.484
-72.209
-75.681
-75.749
-72.761
-67.761
-61.719
-55.417
-49.727
-45.419
-42.856
-42.157
-43.206
-45.657
-49.22
-53.652
-58.684
-64.059
-69.545
-74.936
-80.049
-84.731
-88.861
-92.339
-95.099
-97.109
-98.363
-98.874
-98.686
-97.864
-96.464
-94.556
-92.197
-89.444
-86.377
-83.076
-79.629
-76.121
-72.614
-69.15
-65.763
-62.473
-59.29
-56.214
-53.231
-50.32
-47.465
-44.658
-41.888
-39.149
-36.428
-33.708
-30.976
-28.216
-25.417
-22.567
-19.657
-16.676
-13.618
-10.479
-7.253
-3.94
-0.534
2.972
6.583
10.306
14.147
18.109
22.198
26.416
30.763
35.24
39.841
44.564
49.4
54.342
59.381
64.504
69.7
74.953
80.249
85.571
90.901
96.22
101.509
106.747
111.914
116.989
121.949
126.773
131.44
135.927
140.215
144.282
148.108
151.674
154.962
157.955
160.635
162.988
165.001
166.66
167.956
168.879
169.424
169.585
169.36
168.748
167.751
166.372
164.616
162.492
160.006
157.171
153.997
150.497
146.688
142.583
138.202
133.56
128.678
123.574
118.269
112.784
107.139
101.355
95.453
89.455
83.38
77.251
71.087
64.908
58.736
52.588
46.484
40.442
34.479
28.612
22.856
17.225
11.733
6.391
1.211
-3.797
-8.624
-13.263
-17.706
-21.947
-25.982
-29.806
-33.418
-36.814
-39.994
-42.958
-45.705
-48.239
-50.559
-52.67
-54.573
-56.272
-57.773
-59.078
-60.194
-61.126
-61.881
-62.465
-62.886
-63.151
-63.269
-63.247
-63.094
-62.818
-62.428
-61.932
-61.339
-60.658
-59.898
-59.066
-58.172
-57.225
-56.233
-55.203
-54.145
-53.065
-51.971
-50.87
-49.769
-48.675
-47.594
-46.532
-45.494
-44.487
-43.515
-42.582
-41.693
-40.851
-40.058
-39.318
-38.631
-38
-37.424
-36.903
-36.439
-36.029
-35.674
-35.372
-35.122
-34.92
-34.766
-34.657
-34.589
-34.56
-34.567
-34.607
-34.676
-34.772
-34.891
-35.03
-35.185
-35.355
-35.535
-35.723
-35.916
-36.111
-36.305
-36.498
-36.686
-36.868
-37.044
-37.214
-37.376
-37.531
-37.68
-37.824
-37.965
-38.102
-38.239
-38.378
-38.52
-38.668
-38.824
-38.992
-39.173
-39.37
-39.586
-39.823
-40.084
-40.37
-40.684
-41.028
-41.403
-41.812
-42.256
-42.736
-43.254
-43.812
-44.409
-45.047
-45.726
-46.445
-47.203
-48
-48.833
-49.7
-50.599
-51.526
-52.477
-53.449
-54.437
-55.437
-56.442
-57.447
-58.446
-59.435
-60.405
-61.353
-62.272
-63.157
-64.001
-64.799
-65.547
-66.238
-66.867
-67.428
-67.915
-68.322
-68.646
-68.88
-69.02
-69.061
-69
-68.831
-68.553
-68.162
-67.655
-67.03
-66.285
-65.418
-64.431
-63.326
-62.107
-60.776
-59.337
-57.79
-56.143
-54.4
-52.569
-50.655
-48.663
-46.599
-44.472
-42.294
-40.085
-37.858
-35.625
-33.398
-31.186
-29.009
-26.894
-24.864
-22.935
-21.121
-19.431
-17.882
-16.5
-15.304
-14.308
-13.516
-12.916
-12.51
-12.31
-12.328
-12.587
-13.072
-13.74
-14.557
-15.489
-16.551
-17.808
-19.276
-20.944
-22.796
-24.751
-26.839
-29.224
-31.84
-34.461
-36.85
-38.644
-39.819
-40.794
-41.685
-42.331
-42.87
-43.519
-44.804
-47.764
-52.564
-58.464
-64.923
-71.414
-77.376
-82.581
-86.164
-86.501
-83.115
-76.521
-67.598
-57.957
-48.84
-40.81
-34.995
-32.923
-35.205
-41.801
-51.79
-63.157
-74.418
-84.646
-92.825
-98.305
-100.951
-101.045
-99.645
-98.154
-97.405
-98.026
-100.165
-102.992
-105.09
-104.176
-97.28
-82.106
-56.99
-19.873
30.953
96.089
175.195
264.212
355.744
444.403
527.129
605.958
686.549
767.678
838.711
879.455
868.687
798.663
679.37
535.903
394.443
270.316
166.691
77.697
-0.857
-67.589
-119.079
-151.64
-165.497
-164.626
-153.498
-136.844
-118.946
-103.123
-91.593
-85.225
-83.685
-85.883
-90.57
-96.35
-101.628
-104.87
-105.221
-102.615
-97.486
-90.595
-82.705
-74.47
-66.617
-59.899
-54.741
-51.244
-49.314
-48.667
-49.037
-50.256
-52.109
-54.367
-56.877
-59.485
-62.086
-64.652
-67.113
-69.38
-71.387
-73.034
-74.226
-74.939
-75.167
-74.923
-74.262
-73.213
-71.809
-70.104
-68.136
-65.942
-63.552
-60.956
-58.158
-55.182
-52.056
-48.836
-45.593
-42.361
-39.161
-36.017
-32.925
-29.888
-26.911
-23.976
-21.067
-18.177
-15.305
-12.47
-9.686
-6.95
-4.251
-1.567
1.137
3.884
6.694
9.592
12.592
15.705
18.941
22.298
25.769
29.352
33.05
36.865
40.803
44.864
49.041
53.329
57.717
62.193
66.745
71.357
76.013
80.698
85.397
90.098
94.789
99.453
104.076
108.64
113.126
117.516
121.79
125.926
129.904
133.703
137.303
140.684
143.829
146.719
149.339
151.673
153.705
155.423
156.815
157.87
158.58
158.936
158.935
158.572
157.845
156.754
155.301
153.488
151.321
148.807
145.954
142.771
139.27
135.464
131.366
126.994
122.364
117.494
112.403
107.113
101.645
96.021
90.263
84.395
78.439
72.419
66.356
60.274
54.194
48.138
42.127
36.179
30.316
24.554
18.91
13.401
8.042
2.846
-2.174
-7.007
-11.645
-16.078
-20.299
-24.304
-28.088
-31.649
-34.985
-38.098
-40.988
-43.658
-46.113
-48.357
-50.397
-52.239
-53.892
-55.365
-56.665
-57.803
-58.788
-59.63
-60.338
-60.924
-61.396
-61.765
-62.04
-62.23
-62.344
-62.39
-62.378
-62.315
-62.207
-62.063
-61.887
-61.686
-61.465
-61.227
-60.976
-60.716
-60.449
-60.175
-59.897
-59.615
-59.328
-59.037
-58.74
-58.436
-58.125
-57.804
-57.471
-57.127
-56.769
-56.395
-56.006
-55.598
-55.173
-54.729
-54.265
-53.783
-53.28
-52.759
-52.219
-51.661
-51.086
-50.495
-49.89
-49.272
-48.643
-48.006
-47.362
-46.715
-46.067
-45.422
-44.784
-44.154
-43.538
-42.939
-42.359
-41.803
-41.272
-40.771
-40.301
-39.865
-39.464
-39.099
-38.773
-38.485
-38.237
-38.028
-37.859
-37.729
-37.638
-37.586
-37.572
-37.594
-37.652
-37.745
-37.872
-38.033
-38.224
-38.447
-38.698
-38.978
-39.282
-39.611
-39.963
-40.334
-40.724
-41.132
-41.555
-41.992
-42.443
-42.907
-43.384
-43.873
-44.375
-44.889
-45.416
-45.957
-46.513
-47.083
-47.668
-48.269
-48.884
-49.516
-50.162
-50.821
-51.493
-52.175
-52.865
-53.56
-54.257
-54.954
-55.645
-56.328
-56.999
-57.652
-58.284
-58.89
-59.464
-60
-60.494
-60.938
-61.326
-61.652
-61.909
-62.088
-62.183
-62.187
-62.093
-61.892
-61.578
-61.145
-60.586
-59.896
-59.071
-58.108
-57.003
-55.756
-54.368
-52.839
-51.174
-49.376
-47.449
-45.401
-43.239
-40.972
-38.608
-36.16
-33.64
-31.063
-28.446
-25.806
-23.162
-20.533
-17.94
-15.403
-12.942
-10.575
-8.32
-6.196
-4.222
-2.419
-0.808
0.593
1.768
2.702
3.382
3.798
3.942
3.818
3.425
2.763
1.827
0.602
-0.924
-2.755
-4.89
-7.325
-10.05
-13.053
-16.312
-19.786
-23.437
-27.223
-31.107
-35.063
-39.053
-43.03
-46.923
-50.649
-54.128
-57.292
-60.085
-62.466
-64.402
-65.882
-66.919
-67.541
-67.799
-67.769
-67.531
-67.192
-66.877
-66.689
-66.817
-67.53
-68.99
-71.235
-74.093
-77.113
-79.837
-81.915
-82.886
-82.197
-79.563
-75.045
-69.364
-63.988
-60.403
-59.76
-63.014
-70.887
-83.501
-100.167
-118.821
-135.935
-147.508
-149.669
-138.842
-111.863
-66.303
-0.909
83.495
183.852
295.488
412.635
528.899
637.221
730.112
800.333
841.87
852.426
833.876
789.175
722.368
632.745
514.226
368.442
203.931
41.653
-85.528
-158.969
-176.216
-151.064
-113.296
-82.876
-66.414
-62.377
-60.784
-56.639
-51.243
-46.983
-47.248
-52.288
-59.83
-67.475
-72.818
-74.919
-73.887
-70.085
-64.354
-57.59
-50.553
-44.119
-39.077
-35.804
-34.438
-34.923
-37.004
-40.41
-44.875
-50.097
-55.769
-61.633
-67.465
-73.049
-78.204
-82.789
-86.685
-89.824
-92.174
-93.707
-94.422
-94.342
-93.507
-91.996
-89.9
-87.291
-84.247
-80.853
-77.195
-73.378
-69.505
-65.639
-61.824
-58.091
-54.457
-50.943
-47.56
-44.303
-41.163
-38.118
-35.151
-32.253
-29.415
-26.624
-23.865
-21.117
-18.358
-15.581
-12.78
-9.946
-7.074
-4.153
-1.177
1.859
4.958
8.122
11.358
14.671
18.068
21.554
25.132
28.806
32.578
36.451
40.427
44.504
48.681
52.953
57.315
61.761
66.283
70.872
75.517
80.206
84.927
89.665
94.407
99.135
103.834
108.484
113.068
117.566
121.958
126.224
130.345
134.302
138.075
141.645
144.994
148.106
150.963
153.549
155.848
157.848
159.535
160.897
161.924
162.607
162.939
162.916
162.533
161.788
160.682
159.216
157.394
155.22
152.702
149.848
146.668
143.175
139.381
135.303
130.956
126.357
121.526
116.482
111.245
105.834
100.272
94.58
88.778
82.888
76.932
70.93
64.905
58.877
52.867
46.895
40.982
35.147
29.409
23.784
18.291
12.944
7.758
2.746
-2.079
-6.708
-11.132
-15.343
-19.336
-23.105
-26.649
-29.966
-33.055
-35.918
-38.558
-40.979
-43.184
-45.179
-46.971
-48.567
-49.973
-51.198
-52.25
-53.138
-53.871
-54.458
-54.909
-55.235
-55.444
-55.549
-55.558
-55.482
-55.332
-55.117
-54.847
-54.529
-54.173
-53.786
-53.374
-52.944
-52.501
-52.05
-51.594
-51.137
-50.68
-50.226
-49.776
-49.329
-48.886
-48.446
-48.009
-47.574
-47.139
-46.704
-46.267
-45.827
-45.384
-44.936
-44.482
-44.021
-43.553
-43.077
-42.591
-42.094
-41.588
-41.07
-40.543
-40.005
-39.459
-38.906
-38.347
-37.785
-37.224
-36.665
-36.112
-35.569
-35.04
-34.528
-34.039
-33.576
-33.145
-32.749
-32.393
-32.081
-31.817
-31.604
-31.446
-31.346
-31.306
-31.327
-31.411
-31.56
-31.775
-32.056
-32.404
-32.818
-33.298
-33.842
-34.451
-35.121
-35.85
-36.636
-37.475
-38.364
-39.299
-40.277
-41.292
-42.341
-43.419
-44.522
-45.645
-46.785
-47.935
-49.094
-50.255
-51.416
-52.572
-53.721
-54.859
-55.984
-57.093
-58.183
-59.253
-60.301
-61.323
-62.32
-63.287
-64.224
-65.129
-65.999
-66.833
-67.628
-68.384
-69.097
-69.768
-70.393
-70.971
-71.501
-71.98
-72.406
-72.777
-73.09
-73.342
-73.53
-73.65
-73.699
-73.674
-73.57
-73.384
-73.11
-72.746
-72.286
-71.727
-71.065
-70.295
-69.415
-68.421
-67.311
-66.084
-64.74
-63.279
-61.701
-60.009
-58.206
-56.297
-54.284
-52.175
-49.974
-47.691
-45.332
-42.908
-40.428
-37.905
-35.352
-32.784
-30.217
-27.668
-25.155
-22.695
-20.306
-18.008
-15.816
-13.748
-11.819
-10.046
-8.445
-7.035
-5.832
-4.853
-4.111
-3.618
-3.385
-3.418
-3.718
-4.285
-5.116
-6.212
-7.58
-9.226
-11.154
-13.361
-15.844
-18.59
-21.577
-24.774
-28.133
-31.609
-35.151
-38.714
-42.262
-45.752
-49.145
-52.39
-55.423
-58.181
-60.61
-62.658
-64.282
-65.463
-66.22
-66.605
-66.71
-66.624
-66.416
-66.163
-65.968
-65.947
-66.223
-66.929
-68.153
-70.018
-72.731
-76.371
-80.871
-85.975
-91.107
-95.632
-99.1
-101.005
-100.718
-97.99
-92.889
-85.937
-78.587
-72.323
-68.046
-66.564
-68.513
-73.734
-81.393
-89.743
-95.362
-94.37
-83.586
-60.254
-21.766
33.745
106.416
195.225
295.468
398.329
498.18
591.511
676.04
754.34
820.776
860.761
862.915
816.455
722.233
596.443
452.271
300.265
151.69
13.877
-101.85
-179.841
-217.73
-224.358
-210.449
-191.571
-174.198
-154.184
-131.959
-108.409
-85.459
-68.864
-60.232
-57.943
-60.773
-66.48
-72.461
-77.029
-79.085
-78.055
-74.396
-69.106
-62.927
-56.531
-50.732
-46.212
-43.353
-42.304
-42.871
-44.652
-47.337
-50.661
-54.358
-58.201
-61.988
-65.535
-68.713
-71.425
-73.589
-75.154
-76.093
-76.39
-76.06
-75.136
-73.671
-71.736
-69.4
-66.728
-63.776
-60.595
-57.247
-53.799
-50.318
-46.867
-43.493
-40.221
-37.071
-34.057
-31.177
-28.426
-25.786
-23.232
-20.743
-18.308
-15.912
-13.543
-11.188
-8.827
-6.445
-4.024
-1.552
0.984
3.596
6.293
9.084
11.973
14.963
18.058
21.26
24.573
28.002
31.55
35.22
39.015
42.936
46.983
51.156
55.453
59.868
64.398
69.035
73.773
78.601
83.51
88.488
93.523
98.599
103.702
108.814
113.917
118.992
124.019
128.976
133.843
138.598
143.218
147.682
151.968
156.056
159.925
163.555
166.928
170.025
172.829
175.324
177.497
179.332
180.817
181.942
182.697
183.075
183.069
182.675
181.891
180.715
179.149
177.195
174.858
172.145
169.064
165.626
161.843
157.729
153.302
148.578
143.578
138.322
132.832
127.131
121.243
115.192
109.001
102.696
96.301
89.839
83.336
76.814
70.296
63.806
57.365
50.994
44.714
38.543
32.5
26.603
20.868
15.308
9.94
4.774
-0.179
-4.908
-9.406
-13.666
-17.685
-21.458
-24.987
-28.27
-31.311
-34.113
-36.681
-39.023
-41.144
-43.054
-44.76
-46.272
-47.6
-48.752
-49.739
-50.571
-51.257
-51.808
-52.233
-52.541
-52.743
-52.846
-52.862
-52.797
-52.661
-52.463
-52.21
-51.91
-51.572
-51.202
-50.807
-50.392
-49.963
-49.525
-49.081
-48.633
-48.185
-47.737
-47.291
-46.847
-46.406
-45.968
-45.532
-45.1
-44.671
-44.246
-43.826
-43.412
-43.005
-42.606
-42.217
-41.839
-41.476
-41.128
-40.798
-40.488
-40.199
-39.934
-39.692
-39.476
-39.285
-39.122
-38.985
-38.876
-38.795
-38.744
-38.722
-38.731
-38.772
-38.846
-38.953
-39.094
-39.27
-39.479
-39.723
-40
-40.309
-40.648
-41.015
-41.407
-41.821
-42.253
-42.7
-43.157
-43.621
-44.086
-44.549
-45.006
-45.454
-45.889
-46.309
-46.712
-47.097
-47.463
-47.81
-48.137
-48.444
-48.731
-48.999
-49.249
-49.482
-49.697
-49.898
-50.086
-50.263
-50.432
-50.596
-50.759
-50.924
-51.097
-51.281
-51.481
-51.702
-51.95
-52.23
-52.548
-52.907
-53.313
-53.769
-54.278
-54.844
-55.466
-56.145
-56.879
-57.667
-58.504
-59.388
-60.314
-61.275
-62.266
-63.281
-64.313
-65.354
-66.397
-67.432
-68.452
-69.445
-70.403
-71.314
-72.169
-72.956
-73.663
-74.281
-74.798
-75.204
-75.488
-75.639
-75.648
-75.507
-75.208
-74.746
-74.116
-73.316
-72.347
-71.209
-69.907
-68.448
-66.838
-65.089
-63.212
-61.22
-59.129
-56.955
-54.716
-52.429
-50.113
-47.789
-45.476
-43.195
-40.965
-38.807
-36.743
-34.794
-32.985
-31.336
-29.868
-28.601
-27.551
-26.729
-26.147
-25.812
-25.734
-25.924
-26.392
-27.143
-28.185
-29.518
-31.142
-33.047
-35.211
-37.598
-40.177
-42.914
-45.78
-48.755
-51.81
-54.917
-58.041
-61.134
-64.151
-67.047
-69.767
-72.256
-74.472
-76.387
-78.03
-79.461
-80.735
-81.89
-82.934
-83.871
-84.762
-85.684
-86.726
-87.991
-89.532
-91.453
-94.002
-97.303
-101.281
-105.634
-109.676
-112.68
-114.206
-113.758
-110.673
-104.72
-96.16
-85.927
-76.043
-68.521
-64.627
-65.521
-72.266
-84.968
-102.577
-122.543
-140.314
-151.098
-150.728
-135.02
-99.913
-42.072
37.79
134.623
242.144
352.23
463.372
581.311
702.929
822.014
922.811
973.111
955.97
863.735
697.953
489.397
266.923
59.993
-96.893
-195.637
-238.848
-239.464
-226.422
-213.947
-205.744
-200.547
-187.604
-165.069
-138.908
-114.181
-97.001
-89.306
-88.642
-92.74
-99.415
-106.177
-111.067
-113.045
-111.737
-107.576
-101.596
-94.666
-87.444
-80.78
-75.474
-71.92
-70.242
-70.253
-71.539
-73.787
-76.76
-80.193
-83.839
-87.486
-90.941
-94.055
-96.729
-98.874
-100.428
-101.355
-101.644
-101.305
-100.376
-98.918
-96.999
-94.692
-92.062
-89.165
-86.058
-82.808
-79.485
-76.164
-72.909
-69.768
-66.77
-63.936
-61.275
-58.787
-56.461
-54.275
-52.202
-50.219
-48.309
-46.454
-44.64
-42.846
-41.051
-39.234
-37.375
-35.455
-33.46
-31.374
-29.182
-26.874
-24.441
-21.875
-19.172
-16.325
-13.327
-10.172
-6.854
-3.371
0.281
4.103
8.094
12.253
16.575
21.054
25.684
30.454
35.355
40.374
45.499
50.715
56.004
61.35
66.734
72.135
77.534
82.908
88.235
93.491
98.655
103.702
108.609
113.352
117.91
122.26
126.381
130.253
133.857
137.174
140.19
142.888
145.254
147.278
148.947
150.253
151.189
151.75
151.933
151.735
151.157
150.201
148.871
147.173
145.115
142.706
139.958
136.882
133.493
129.807
125.841
121.613
117.144
112.452
107.56
102.489
97.261
91.899
86.424
80.858
75.223
69.54
63.831
58.116
52.414
46.743
41.124
35.572
30.103
24.732
19.473
14.338
9.338
4.482
-0.224
-4.775
-9.169
-13.403
-17.478
-21.395
-25.159
-28.773
-32.239
-35.563
-38.746
-41.795
-44.717
-47.52
-50.214
-52.808
-55.31
-57.729
-60.073
-62.348
-64.555
-66.696
-68.772
-70.788
-72.761
-74.704
-76.628
-78.541
-80.45
-82.352
-84.241
-86.096
-87.881
-89.562
-91.102
-92.471
-93.649
-94.613
-95.334
-95.775
-95.882
-95.611
-94.926
-93.796
-92.194
-90.121
-87.62
-84.765
-81.678
-78.474
-75.228
-72.033
-69
-66.237
-63.879
-62.078
-60.916
-60.531
-61.144
-62.79
-65.373
-68.608
-71.824
-74.388
-75.875
-75.65
-73.036
-67.916
-60.459
-51.43
-42.618
-35.363
-30.379
-28.784
-31.358
-37.668
-46.699
-56.069
-61.416
-59.149
-46.691
-20.376
23.019
84.408
163.93
257.979
357.723
457.9
555.143
645.909
731.464
804.871
852.706
865.546
831.129
748.915
628.614
476.146
306.871
137.366
-15.985
-130.049
-194.463
-214.572
-205.799
-188.416
-173.989
-161.285
-142.769
-114.872
-80.186
-44.807
-15.906
3.811
14.753
16.832
11.216
0.135
-13.933
-28.063
-40.363
-50.49
-58.165
-62.615
-63.591
-61.523
-57.604
-53.615
-50.595
-48.721
-48.067
-48.775
-50.901
-54.396
-58.826
-63.358
-67.441
-70.879
-73.601
-75.655
-77.047
-77.715
-77.682
-77.091
-76.06
-74.667
-72.953
-70.901
-68.521
-65.873
-63.027
-60.07
-57.078
-54.097
-51.153
-48.268
-45.458
-42.736
-40.111
-37.574
-35.107
-32.697
-30.335
-28.02
-25.745
-23.499
-21.257
-18.997
-16.701
-14.354
-11.942
-9.449
-6.853
-4.141
-1.308
1.65
4.733
7.935
11.25
14.661
18.137
21.657
25.209
28.791
32.412
36.077
39.788
43.549
47.364
51.239
55.186
59.208
63.297
67.465
71.733
76.142
80.761
85.629
90.748
96.108
101.673
107.396
113.228
119.093
124.893
130.544
135.966
141.096
145.895
150.299
154.226
157.579
160.228
162.083
163.096
163.233
162.488
160.877
158.435
155.237
151.4
147.02
142.174
136.926
131.308
125.379
119.217
112.904
106.544
100.218
93.981
87.888
81.98
76.279
70.788
65.478
60.285
55.168
50.105
45.09
40.133
35.237
30.394
25.601
20.855
16.152
11.498
6.894
2.337
-2.162
-6.584
-10.896
-15.047
-19.002
-22.739
-26.241
-29.498
-32.506
-35.255
-37.746
-39.987
-41.983
-43.738
-45.255
-46.535
-47.584
-48.411
-49.032
-49.463
-49.721
-49.818
-49.77
-49.589
-49.289
-48.882
-48.377
-47.781
-47.103
-46.352
-45.539
-44.674
-43.769
-42.831
-41.871
-40.899
-39.925
-38.956
-38.001
-37.067
-36.16
-35.287
-34.455
-33.67
-32.935
-32.257
-31.638
-31.081
-30.59
-30.165
-29.806
-29.513
-29.285
-29.121
-29.019
-28.975
-28.988
-29.053
-29.168
-29.33
-29.535
-29.781
-30.062
-30.375
-30.718
-31.086
-31.475
-31.882
-32.303
-32.734
-33.173
-33.615
-34.058
-34.497
-34.93
-35.352
-35.762
-36.155
-36.529
-36.883
-37.215
-37.523
-37.808
-38.069
-38.307
-38.522
-38.716
-38.891
-39.047
-39.188
-39.314
-39.43
-39.538
-39.64
-39.739
-39.839
-39.943
-40.052
-40.171
-40.301
-40.444
-40.603
-40.781
-40.978
-41.198
-41.442
-41.712
-42.01
-42.337
-42.695
-43.083
-43.503
-43.953
-44.433
-44.942
-45.478
-46.04
-46.625
-47.232
-47.858
-48.499
-49.153
-49.816
-50.484
-51.154
-51.819
-52.477
-53.122
-53.749
-54.355
-54.934
-55.483
-55.997
-56.472
-56.906
-57.293
-57.631
-57.917
-58.147
-58.321
-58.435
-58.49
-58.483
-58.417
-58.291
-58.107
-57.866
-57.57
-57.221
-56.821
-56.373
-55.879
-55.342
-54.765
-54.153
-53.508
-52.835
-52.14
-51.425
-50.698
-49.962
-49.223
-48.486
-47.756
-47.038
-46.338
-45.66
-45.008
-44.389
-43.805
-43.261
-42.759
-42.302
-41.891
-41.528
-41.212
-40.943
-40.721
-40.544
-40.411
-40.32
-40.271
-40.261
-40.289
-40.353
-40.452
-40.584
-40.746
-40.936
-41.152
-41.391
-41.65
-41.927
-42.218
-42.52
-42.83
-43.145
-43.461
-43.775
-44.082
-44.381
-44.667
-44.939
-45.194
-45.432
-45.651
-45.852
-46.036
-46.202
-46.354
-46.493
-46.621
-46.739
-46.85
-46.955
-47.055
-47.153
-47.248
-47.341
-47.433
-47.524
-47.614
-47.703
-47.791
-47.877
-47.961
-48.043
-48.123
-48.199
-48.272
-48.341
-48.405
-48.463
-48.515
-48.558
-48.59
-48.608
-48.609
-48.588
-48.541
-48.463
-48.347
-48.188
-47.979
-47.714
-47.388
-46.993
-46.526
-45.98
-45.352
-44.639
-43.838
-42.946
-41.962
-40.885
-39.716
-38.454
-37.1
-35.657
-34.127
-32.513
-30.82
-29.051
-27.214
-25.313
-23.357
-21.357
-19.322
-17.264
-15.198
-13.137
-11.096
-9.09
-7.135
-5.245
-3.435
-1.72
-0.116
1.363
2.7
3.879
4.883
5.701
6.319
6.729
6.928
6.913
6.681
6.232
5.552
4.634
3.473
2.063
0.401
-1.509
-3.655
-6.007
-8.519
-11.145
-13.839
-16.559
-19.276
-21.953
-24.551
-27.027
-29.322
-31.382
-33.162
-34.611
-35.685
-36.356
-36.631
-36.584
-36.331
-35.991
-35.668
-35.421
-35.315
-35.456
-35.954
-36.937
-38.542
-40.821
-43.891
-47.982
-53.133
-59.208
-65.812
-72.099
-77.253
-80.755
-81.952
-80.174
-75.333
-67.662
-58.172
-48.996
-41.868
-37.832
-37.957
-42.797
-51.713
-63.385
-74.827
-80.999
-77.492
-60.882
-27.548
25.285
98.636
192.318
301.672
417.267
530.483
634.758
728.496
813.141
887.424
944.812
968.484
941.951
854.247
701.079
501.286
283.372
79.945
-70.952
-155.194
-176.891
-153.365
-117.328
-87.86
-70.809
-64.185
-56.601
-44.483
-30.875
-19.331
-15.218
-19.493
-29.221
-41.886
-54.466
-64.467
-71.176
-74.333
-74.121
-71.454
-67.291
-62.434
-57.81
-54.263
-52.163
-51.642
-52.622
-54.778
-57.849
-61.622
-65.844
-70.285
-74.775
-79.163
-83.318
-87.137
-90.481
-93.236
-95.336
-96.737
-97.436
-97.448
-96.804
-95.553
-93.759
-91.485
-88.792
-85.733
-82.361
-78.74
-74.945
-71.05
-67.134
-63.255
-59.455
-55.766
-52.207
-48.786
-45.505
-42.353
-39.315
-36.38
-33.542
-30.796
-28.138
-25.56
-23.051
-20.599
-18.19
-15.815
-13.461
-11.119
-8.778
-6.432
-4.072
-1.695
0.704
3.131
5.594
8.099
10.655
13.27
15.95
18.702
21.532
24.446
27.445
30.533
33.71
36.977
40.332
43.775
47.302
50.909
54.593
58.348
62.166
66.039
69.959
73.915
77.896
81.888
85.879
89.854
93.797
97.694
101.529
105.284
108.945
112.496
115.919
119.198
122.319
125.266
128.024
130.578
132.916
135.025
136.893
138.509
139.865
140.952
141.763
142.29
142.53
142.477
142.128
141.482
140.538
139.297
137.761
135.934
133.821
131.429
128.765
125.839
122.663
119.246
115.603
111.747
107.692
103.455
99.051
94.498
89.812
85.012
80.115
75.139
70.104
65.026
59.924
54.814
49.715
44.643
39.614
34.645
29.75
24.945
20.244
15.661
11.207
6.895
2.736
-1.262
-5.089
-8.739
-12.205
-15.483
-18.569
-21.46
-24.155
-26.654
-28.958
-31.068
-32.987
-34.719
-36.269
-37.642
-38.844
-39.881
-40.761
-41.492
-42.08
-42.534
-42.862
-43.071
-43.172
-43.171
-43.078
-42.902
-42.651
-42.335
-41.962
-41.54
-41.078
-40.583
-40.063
-39.525
-38.976
-38.422
-37.869
-37.321
-36.784
-36.262
-35.759
-35.278
-34.822
-34.392
-33.992
-33.621
-33.28
-32.971
-32.693
-32.446
-32.23
-32.046
-31.892
-31.768
-31.674
-31.609
-31.572
-31.563
-31.578
-31.619
-31.682
-31.767
-31.873
-31.998
-32.141
-32.301
-32.476
-32.667
-32.87
-33.087
-33.314
-33.551
-33.798
-34.053
-34.316
-34.586
-34.863
-35.147
-35.439
-35.737
-36.043
-36.356
-36.676
-37.003
-37.337
-37.677
-38.024
-38.376
-38.734
-39.097
-39.464
-39.836
-40.21
-40.587
-40.964
-41.341
-41.717
-42.089
-42.457
-42.818
-43.173
-43.519
-43.857
-44.184
-44.501
-44.807
-45.101
-45.383
-45.652
-45.908
-46.15
-46.379
-46.593
-46.793
-46.979
-47.152
-47.312
-47.46
-47.595
-47.72
-47.835
-47.942
-48.041
-48.135
-48.225
-48.315
-48.406
-48.501
-48.605
-48.719
-48.847
-48.993
-49.158
-49.346
-49.558
-49.797
-50.064
-50.359
-50.683
-51.036
-51.418
-51.827
-52.263
-52.724
-53.207
-53.71
-54.23
-54.763
-55.306
-55.855
-56.406
-56.953
-57.492
-58.018
-58.524
-59.005
-59.454
-59.865
-60.23
-60.541
-60.791
-60.972
-61.075
-61.093
-61.018
-60.843
-60.562
-60.168
-59.657
-59.026
-58.271
-57.39
-56.382
-55.247
-53.988
-52.605
-51.103
-49.485
-47.759
-45.929
-44.005
-41.996
-39.91
-37.758
-35.554
-33.31
-31.041
-28.762
-26.49
-24.244
-22.039
-19.897
-17.833
-15.865
-14.011
-12.286
-10.706
-9.29
-8.051
-7.006
-6.172
-5.559
-5.179
-5.041
-5.146
-5.496
-6.09
-6.928
-8.014
-9.353
-10.945
-12.794
-14.897
-17.249
-19.834
-22.625
-25.577
-28.645
-31.782
-34.942
-38.089
-41.183
-44.182
-47.041
-49.698
-52.098
-54.188
-55.915
-57.233
-58.107
-58.537
-58.58
-58.334
-57.909
-57.405
-56.883
-56.418
-56.128
-56.125
-56.542
-57.522
-59.133
-61.522
-64.949
-69.468
-74.946
-81.014
-86.897
-91.858
-95.395
-96.789
-95.248
-90.596
-83.09
-73.786
-64.73
-57.543
-53.304
-53.295
-58.419
-68.29
-81.426
-94.627
-103.135
-102.564
-88.729
-57.195
-4.326
69.575
160.195
261.983
369.658
484.425
610.399
742.86
866.828
956.081
985.513
948.439
855.354
729.753
590.397
441.654
284.948
123.573
-25.311
-135.788
-194.225
-203.203
-182.578
-156.942
-138.98
-129.073
-119.768
-105.485
-87.479
-70.31
-58.869
-54.576
-55.695
-60.098
-65.572
-70.336
-73.149
-73.249
-70.639
-65.969
-60.144
-53.938
-47.967
-42.843
-39.168
-37.273
-37.183
-38.691
-41.43
-45.08
-49.406
-54.155
-59.05
-63.847
-68.327
-72.31
-75.708
-78.457
-80.498
-81.811
-82.385
-82.233
-81.407
-79.975
-78.004
-75.562
-72.715
-69.525
-66.07
-62.435
-58.708
-54.974
-51.292
-47.703
-44.237
-40.913
-37.74
-34.72
-31.842
-29.083
-26.43
-23.871
-21.398
-19.006
-16.682
-14.41
-12.175
-9.961
-7.755
-5.547
-3.324
-1.076
1.206
3.528
5.896
8.314
10.789
13.33
15.947
18.649
21.445
24.344
27.353
30.48
33.729
37.104
40.605
44.231
47.982
51.854
55.844
59.946
64.153
68.456
72.847
77.313
81.842
86.419
91.029
95.654
100.276
104.877
109.435
113.931
118.344
122.652
126.833
130.866
134.729
138.399
141.855
145.075
148.039
150.728
153.122
155.207
156.965
158.386
159.456
160.167
160.51
160.48
160.072
159.285
158.117
156.571
154.651
152.362
149.712
146.712
143.371
139.705
135.727
131.454
126.903
122.092
117.041
111.771
106.304
100.663
94.87
88.95
82.928
76.828
70.673
64.489
58.298
52.124
45.987
39.908
33.909
28.007
22.221
16.568
11.063
5.721
0.554
-4.427
-9.212
-13.791
-18.16
-22.311
-26.241
-29.946
-33.424
-36.673
-39.694
-42.488
-45.055
-47.4
-49.526
-51.439
-53.144
-54.648
-55.958
-57.082
-58.028
-58.804
-59.418
-59.879
-60.195
-60.375
-60.426
-60.358
-60.178
-59.895
-59.516
-59.049
-58.501
-57.878
-57.187
-56.434
-55.625
-54.765
-53.861
-52.918
-51.943
-50.941
-49.919
-48.882
-47.835
-46.786
-45.738
-44.697
-43.667
-42.654
-41.662
-40.695
-39.759
-38.856
-37.992
-37.169
-36.392
-35.665
-34.989
-34.369
-33.806
-33.304
-32.865
-32.492
-32.186
-31.95
-31.786
-31.694
-31.675
-31.73
-31.859
-32.06
-32.332
-32.672
-33.077
-33.545
-34.071
-34.651
-35.279
-35.952
-36.662
-37.405
-38.175
-38.964
-39.767
-40.577
-41.389
-42.196
-42.992
-43.772
-44.53
-45.26
-45.959
-46.62
-47.24
-47.813
-48.337
-48.806
-49.219
-49.571
-49.862
-50.09
-50.253
-50.351
-50.386
-50.359
-50.271
-50.125
-49.925
-49.674
-49.378
-49.041
-48.67
-48.272
-47.851
-47.416
-46.973
-46.528
-46.09
-45.663
-45.255
-44.872
-44.519
-44.204
-43.931
-43.705
-43.532
-43.417
-43.362
-43.373
-43.452
-43.601
-43.822
-44.116
-44.484
-44.926
-45.44
-46.025
-46.678
-47.396
-48.174
-49.008
-49.89
-50.814
-51.773
-52.758
-53.759
-54.768
-55.776
-56.772
-57.746
-58.69
-59.592
-60.443
-61.232
-61.95
-62.587
-63.133
-63.579
-63.916
-64.135
-64.228
-64.189
-64.011
-63.687
-63.214
-62.587
-61.802
-60.857
-59.752
-58.485
-57.06
-55.477
-53.743
-51.862
-49.842
-47.691
-45.42
-43.041
-40.568
-38.016
-35.401
-32.741
-30.054
-27.358
-24.673
-22.016
-19.407
-16.863
-14.404
-12.048
-9.816
-7.725
-5.798
-4.052
-2.505
-1.174
-0.074
0.786
1.399
1.756
1.849
1.665
1.193
0.424
-0.648
-2.026
-3.707
-5.683
-7.927
-10.4
-13.059
-15.859
-18.759
-21.726
-24.72
-27.699
-30.62
-33.422
-36.051
-38.465
-40.612
-42.452
-43.96
-45.132
-46.023
-46.728
-47.35
-47.983
-48.7
-49.564
-50.684
-52.18
-54.171
-56.782
-60.082
-64.166
-69.232
-75.353
-82.415
-90.107
-97.775
-104.714
-110.425
-114.327
-115.668
-114.076
-109.59
-102.824
-95.325
-88.629
-83.71
-81.573
-83.24
-88.939
-97.918
-108.129
-115.792
-116.969
-108.179
-85.696
-45.787
14.683
94.973
190.085
294.049
399.577
506.198
620.617
740.584
859.756
961.443
1012.784
996.6
906.371
745.728
546.712
337.934
146.449
3.215
-86.567
-126.771
-129.462
-121.699
-116.066
-115.453
-118.711
-115.399
-103.525
-88.353
-74.005
-65.84
-65.443
-70.371
-78.578
-88.141
-96.844
-103.051
-105.938
-105.214
-101.368
-95.41
-88.204
-80.477
-73.093
-66.837
-62.128
-59.131
-57.722
-57.587
-58.49
-60.234
-62.601
-65.375
-68.373
-71.451
-74.475
-77.34
-79.917
-82.06
-83.673
-84.701
-85.118
-84.933
-84.176
-82.884
-81.116
-78.945
-76.431
-73.635
-70.618
-67.436
-64.153
-60.839
-57.558
-54.372
-51.327
-48.448
-45.748
-43.228
-40.878
-38.683
-36.62
-34.66
-32.779
-30.958
-29.175
-27.413
-25.652
-23.869
-22.042
-20.149
-18.171
-16.089
-13.888
-11.556
-9.079
-6.448
-3.657
-0.698
2.433
5.744
9.24
12.925
16.803
20.872
25.133
29.583
34.216
39.023
43.994
49.117
54.377
59.758
65.243
70.811
76.443
82.115
87.806
93.49
99.142
104.738
110.252
115.658
120.93
126.042
130.97
135.69
140.178
144.411
148.367
152.026
155.367
158.374
161.028
163.314
165.221
166.736
167.85
168.557
168.851
168.73
168.194
167.244
165.885
164.122
161.964
159.42
156.505
153.23
149.613
145.67
141.419
136.881
132.075
127.023
121.746
116.266
110.607
104.789
98.837
92.773
86.62
80.402
74.14
67.858
61.577
55.318
49.104
42.952
36.883
30.914
25.063
19.345
13.775
8.369
3.137
-1.909
-6.759
-11.404
-15.838
-20.056
-24.053
-27.827
-31.377
-34.702
-37.802
-40.678
-43.333
-45.768
-47.988
-49.995
-51.796
-53.394
-54.796
-56.009
-57.04
-57.897
-58.586
-59.118
-59.499
-59.739
-59.846
-59.831
-59.702
-59.469
-59.142
-58.732
-58.246
-57.697
-57.091
-56.438
-55.747
-55.024
-54.276
-53.51
-52.732
-51.948
-51.163
-50.383
-49.612
-48.854
-48.115
-47.397
-46.704
-46.039
-45.404
-44.802
-44.233
-43.699
-43.201
-42.74
-42.316
-41.93
-41.58
-41.265
-40.985
-40.736
-40.518
-40.326
-40.157
-40.01
-39.879
-39.763
-39.658
-39.561
-39.471
-39.384
-39.299
-39.213
-39.124
-39.031
-38.93
-38.822
-38.704
-38.576
-38.437
-38.286
-38.124
-37.95
-37.766
-37.571
-37.366
-37.153
-36.932
-36.705
-36.474
-36.239
-36.005
-35.773
-35.548
-35.331
-35.127
-34.94
-34.773
-34.629
-34.512
-34.425
-34.37
-34.351
-34.369
-34.428
-34.529
-34.675
-34.866
-35.104
-35.391
-35.726
-36.11
-36.542
-37.022
-37.549
-38.121
-38.736
-39.392
-40.088
-40.82
-41.586
-42.383
-43.206
-44.053
-44.918
-45.797
-46.684
-47.575
-48.464
-49.345
-50.213
-51.062
-51.887
-52.683
-53.445
-54.167
-54.844
-55.471
-56.041
-56.551
-56.995
-57.368
-57.665
-57.882
-58.016
-58.061
-58.016
-57.877
-57.642
-57.309
-56.874
-56.337
-55.697
-54.952
-54.103
-53.15
-52.095
-50.938
-49.684
-48.335
-46.896
-45.369
-43.76
-42.075
-40.319
-38.497
-36.618
-34.688
-32.719
-30.72
-28.703
-26.681
-24.667
-22.677
-20.724
-18.823
-16.987
-15.228
-13.56
-11.995
-10.546
-9.226
-8.046
-7.022
-6.165
-5.487
-4.999
-4.708
-4.617
-4.728
-5.044
-5.569
-6.31
-7.274
-8.466
-9.891
-11.552
-13.448
-15.569
-17.892
-20.378
-22.989
-25.685
-28.424
-31.174
-33.896
-36.544
-39.073
-41.426
-43.551
-45.407
-46.948
-48.135
-48.947
-49.39
-49.52
-49.44
-49.266
-49.095
-49.004
-49.083
-49.442
-50.216
-51.559
-53.594
-56.362
-59.949
-64.532
-70.161
-76.764
-84.042
-91.274
-97.822
-103.309
-107.159
-108.671
-107.541
-103.682
-97.588
-90.948
-85.009
-80.112
-77.532
-78.712
-83.562
-91.928
-100.838
-102.633
-94.032
-74.904
-45.766
-14.06
19.605
64.161
127.75
225.02
363.582
532.583
713.354
874.854
983.608
1022.494
987.376
888.133
745.185
575.794
394.521
217.935
63.757
-51.993
-119.459
-143.125
-141.977
-134.077
-130.468
-133.044
-133.256
-126.178
-113.933
-100.535
-91.921
-90.801
-95.414
-103.392
-112.561
-120.765
-126.37
-128.549
-126.896
-121.687
-113.847
-104.267
-93.703
-83.046
-73.174
-64.576
-57.499
-51.939
-47.657
-44.506
-42.402
-41.185
-40.658
-40.672
-41.107
-41.899
-43.05
-44.502
-46.139
-47.88
-49.645
-51.396
-53.134
-54.833
-56.451
-57.938
-59.229
-60.292
-61.127
-61.728
-62.089
-62.193
-62.002
-61.507
-60.731
-59.686
-58.385
-56.828
-54.998
-52.908
-50.592
-48.096
-45.48
-42.783
-40.018
-37.207
-34.364
-31.508
-28.667
-25.85
-23.043
-20.241
-17.436
-14.624
-11.809
-8.977
-6.098
-3.142
-0.072
3.137
6.499
10.026
13.729
17.617
21.694
25.957
30.393
34.994
39.749
44.651
49.692
54.857
60.127
65.481
70.897
76.353
81.83
87.306
92.757
98.162
103.5
108.752
113.897
118.917
123.789
128.492
133.003
137.301
141.366
145.177
148.714
151.959
154.895
157.506
159.778
161.7
163.259
164.448
165.258
165.683
165.719
165.364
164.617
163.48
161.955
160.048
157.766
155.117
152.113
148.766
145.089
141.099
136.811
132.243
127.415
122.345
117.053
111.562
105.892
100.066
94.106
88.036
81.88
75.66
69.399
63.119
56.844
50.594
44.39
38.252
32.2
26.253
20.429
14.744
9.214
3.855
-1.32
-6.3
-11.073
-15.631
-19.967
-24.075
-27.949
-31.585
-34.982
-38.138
-41.052
-43.727
-46.163
-48.364
-50.334
-52.078
-53.605
-54.924
-56.039
-56.96
-57.694
-58.25
-58.642
-58.882
-58.981
-58.95
-58.799
-58.541
-58.192
-57.767
-57.273
-56.719
-56.104
-55.437
-54.73
-53.996
-53.247
-52.484
-51.703
-50.901
-50.086
-49.268
-48.454
-47.644
-46.827
-45.999
-45.169
-44.359
-43.597
-42.894
-42.245
-41.639
-41.063
-40.535
-40.098
-39.787
-39.632
-39.614
-39.672
-39.786
-39.975
-40.256
-40.672
-41.152
-41.463
-41.599
-41.779
-42.241
-43.312
-44.977
-46.726
-48.304
-49.903
-51.42
-52.421
-52.225
-49.557
-43.973
-36.474
-27.975
-19.012
-10.264
-2.371
3.61
5.35
1.427
-7.451
-20.154
-35.1
-50.579
-65.704
-79.392
-89.069
-92.606
-89.645
-80.528
-67.155
-52.002
-36.189
-20.579
-7.008
2.754
7.618
6.852
1.691
-5.59
-13.949
-22.772
-31.23
-38.666
-44.19
-46.785
-46.99
-46.227
-45.067
-43.859
-42.633
-41.093
-39.782
-39.491
-39.923
-40.478
-41.128
-41.982
-43.976
-48.148
-53.878
-60.106
-66.694
-73.552
-79.923
-84.875
-86.221
-81.279
-71.968
-61.3
-48.51
-34.622
-16.715
8.703
32.458
47.253
46.018
21.501
-16.884
-60.057
-101.033
-130.538
-150.064
-160.584
-160.458
-151.832
-134.416
-109.238
-80.464
-50.45
-21.803
2.013
18.614
26.344
25.031
16.849
5.065
-8.175
-21.529
-33.628
-43.218
-48.854
-49.764
-46.827
-41.872
-36.194
-30.429
-24.865
-19.621
-15.222
-12.158
-10.287
-9.056
-7.99
-6.87
-5.753
-4.855
-4.214
-3.769
-3.516
-3.508
-3.834
-4.565
-5.699
-7.173
-8.928
-10.934
-13.187
-15.692
-18.443
-21.399
-24.497
-27.675
-30.88
-34.069
-37.222
-40.311
-43.299
-46.147
-48.803
-51.231
-53.403
-55.284
-56.824
-57.983
-58.748
-59.171
-59.355
-59.406
-59.417
-59.441
-59.538
-59.798
-60.31
-61.174
-62.5
-64.335
-66.791
-70.083
-74.266
-79.254
-84.741
-90.014
-94.32
-97.057
-97.404
-94.547
-88.302
-78.865
-67.207
-55.366
-45.131
-38.034
-35.942
-40.106
-50.215
-65.04
-81.685
-95.061
-100.355
-92.732
-66.134
-17.916
49.902
135.269
233.563
344.279
474.366
621.502
775.074
911.588
995.919
1010.404
953.125
838.172
692.459
528.491
354.529
181.576
21.842
-102.269
-175.124
-199.375
-191.416
-172.427
-156.533
-145.782
-133.005
-114.238
-91.744
-70.087
-55.368
-49.792
-51.339
-57.639
-66.203
-74.486
-80.639
-83.615
-82.983
-79.22
-73.393
-66.449
-59.166
-52.407
-46.953
-43.202
-41.303
-41.109
-42.253
-44.442
-47.448
-51.008
-54.88
-58.879
-62.822
-66.566
-70.005
-73.004
-75.458
-77.313
-78.53
-79.104
-79.059
-78.423
-77.245
-75.592
-73.523
-71.095
-68.364
-65.383
-62.216
-58.935
-55.607
-52.297
-49.051
-45.895
-42.849
-39.919
-37.103
-34.389
-31.758
-29.189
-26.664
-24.172
-21.7
-19.237
-16.772
-14.287
-11.768
-9.201
-6.573
-3.874
-1.095
1.773
4.734
7.793
10.952
14.212
17.574
21.043
24.62
28.308
32.109
36.024
40.051
44.19
48.439
52.791
57.242
61.784
66.408
71.105
75.865
80.676
85.525
90.401
95.289
100.173
105.039
109.869
114.646
119.351
123.967
128.475
132.853
137.083
141.146
145.022
148.692
152.139
155.344
158.29
160.962
163.343
165.419
167.178
168.607
169.695
170.434
170.816
170.836
170.489
169.774
168.689
167.235
165.415
163.232
160.692
157.801
154.569
151.005
147.121
142.932
138.451
133.697
128.685
123.436
117.968
112.304
106.463
100.468
94.341
88.105
81.782
75.395
68.967
62.52
56.077
49.658
43.284
36.975
30.75
24.628
18.625
12.758
7.041
1.489
-3.886
-9.071
-14.058
-18.836
-23.398
-27.738
-31.853
-35.738
-39.393
-42.818
-46.014
-48.982
-51.727
-54.254
-56.567
-58.673
-60.578
-62.29
-63.818
-65.168
-66.35
-67.373
-68.245
-68.976
-69.572
-70.044
-70.399
-70.645
-70.791
-70.843
-70.811
-70.7
-70.519
-70.274
-69.972
-69.618
-69.218
-68.777
-68.3
-67.789
-67.249
-66.682
-66.091
-65.478
-64.846
-64.195
-63.527
-62.845
-62.148
-61.44
-60.721
-59.993
-59.258
-58.519
-57.777
-57.035
-56.297
-55.566
-54.844
-54.135
-53.441
-52.768
-52.116
-51.489
-50.89
-50.321
-49.786
-49.285
-48.822
-48.398
-48.016
-47.677
-47.384
-47.137
-46.939
-46.79
-46.691
-46.642
-46.644
-46.698
-46.801
-46.953
-47.152
-47.397
-47.685
-48.012
-48.376
-48.773
-49.198
-49.647
-50.117
-50.603
-51.1
-51.605
-52.113
-52.622
-53.128
-53.627
-54.118
-54.598
-55.065
-55.518
-55.956
-56.378
-56.782
-57.17
-57.54
-57.894
-58.23
-58.55
-58.855
-59.147
-59.426
-59.695
-59.956
-60.211
-60.463
-60.715
-60.97
-61.229
-61.496
-61.773
-62.061
-62.364
-62.681
-63.015
-63.366
-63.733
-64.116
-64.513
-64.923
-65.341
-65.764
-66.187
-66.606
-67.016
-67.411
-67.786
-68.135
-68.451
-68.73
-68.965
-69.148
-69.274
-69.335
-69.324
-69.235
-69.061
-68.798
-68.438
-67.978
-67.414
-66.742
-65.958
-65.061
-64.05
-62.922
-61.68
-60.324
-58.857
-57.283
-55.61
-53.848
-52.007
-50.101
-48.141
-46.141
-44.118
-42.09
-40.076
-38.091
-36.148
-34.261
-32.447
-30.726
-29.113
-27.622
-26.264
-25.045
-23.978
-23.077
-22.355
-21.821
-21.474
-21.304
-21.314
-21.516
-21.929
-22.569
-23.442
-24.541
-25.868
-27.433
-29.238
-31.281
-33.526
-35.924
-38.425
-40.977
-43.557
-46.16
-48.753
-51.294
-53.706
-55.868
-57.714
-59.226
-60.366
-61.153
-61.544
-61.379
-60.786
-60.12
-59.695
-59.932
-60.957
-62.414
-64.354
-67.257
-71.06
-75.371
-79.485
-82.041
-82.642
-82.11
-80.642
-77.937
-74.196
-69.776
-66.065
-65.797
-70.28
-79.193
-92.336
-109.375
-129.786
-153.006
-176.64
-196.43
-208.806
-210.934
-200.597
-176.417
-136.401
-78.353
-2.083
90.673
195.249
304.023
411.113
512.823
609.804
705.465
797.183
874.526
917.957
907.521
836.36
713.877
564.61
414.675
279.846
164.864
65.696
-20.549
-91.591
-143.918
-174.38
-183.79
-176.845
-158.717
-134.75
-109.933
-88.246
-72.259
-62.927
-59.801
-61.515
-66.558
-73.327
-79.939
-84.596
-86.33
-85.036
-81.21
-75.76
-69.505
-63.114
-57.353
-52.964
-50.342
-49.559
-50.464
-52.715
-56.013
-60.138
-64.829
-69.816
-74.874
-79.791
-84.394
-88.557
-92.172
-95.156
-97.462
-99.064
-99.956
-100.163
-99.733
-98.729
-97.219
-95.264
-92.925
-90.258
-87.334
-84.228
-81.019
-77.78
-74.562
-71.4
-68.319
-65.335
-62.452
-59.666
-56.962
-54.316
-51.711
-49.135
-46.578
-44.031
-41.48
-38.909
-36.304
-33.649
-30.934
-28.148
-25.282
-22.329
-19.281
-16.137
-12.896
-9.557
-6.119
-2.58
1.063
4.813
8.67
12.636
16.711
20.896
25.187
29.582
34.077
38.665
43.339
48.092
52.916
57.799
62.731
67.699
72.69
77.689
82.68
87.648
92.573
97.438
102.224
106.911
111.482
115.915
120.193
124.296
128.206
131.905
135.377
138.604
141.572
144.264
146.669
148.773
150.563
152.031
153.165
153.959
154.405
154.499
154.235
153.612
152.628
151.284
149.581
147.524
145.118
142.37
139.288
135.883
132.166
128.151
123.851
119.282
114.461
109.405
104.132
98.662
93.013
87.206
81.261
75.197
69.037
62.799
56.505
50.175
43.829
37.487
31.17
24.895
18.684
12.554
6.523
0.608
-5.173
-10.805
-16.274
-21.567
-26.669
-31.571
-36.262
-40.732
-44.975
-48.983
-52.752
-56.276
-59.554
-62.582
-65.361
-67.889
-70.169
-72.201
-73.989
-75.535
-76.844
-77.92
-78.77
-79.4
-79.815
-80.024
-80.036
-79.858
-79.501
-78.974
-78.289
-77.456
-76.487
-75.393
-74.187
-72.881
-71.488
-70.023
-68.5
-66.932
-65.337
-63.728
-62.122
-60.533
-58.973
-57.457
-55.996
-54.6
-53.281
-52.049
-50.914
-49.889
-48.985
-48.212
-47.579
-47.092
-46.752
-46.559
-46.51
-46.605
-46.851
-47.25
-47.806
-48.527
-49.418
-50.48
-51.711
-53.089
-54.581
-56.15
-57.76
-59.374
-60.971
-62.522
-64.001
-65.377
-66.605
-67.644
-68.46
-69.004
-69.234
-69.115
-68.637
-67.851
-66.856
-65.749
-64.624
-63.536
-62.531
-61.709
-61.167
-61.015
-61.394
-62.364
-64.059
-66.747
-70.516
-75.279
-80.714
-86.05
-90.475
-93.451
-94.264
-92.143
-87.006
-79.19
-69.823
-61.216
-55.362
-53.613
-57.463
-67.859
-84.177
-104.709
-126.006
-142.603
-149.339
-141.696
-114.839
-64.576
8.914
101.594
208.406
321.323
438.134
563.284
691.821
813.519
910.838
956.707
938.977
860.573
730.704
567.598
388.75
207.506
43.808
-77.875
-144.753
-155.659
-124.967
-82.174
-46.94
-26.816
-20.673
-18.147
-14.687
-11.938
-12.3
-19.348
-32.792
-49.273
-65.791
-79.392
-88.643
-93.544
-94.242
-91.416
-86.113
-79.327
-72.155
-65.586
-60.045
-55.611
-52.256
-49.784
-48.033
-46.912
-46.241
-45.86
-45.705
-45.736
-45.952
-46.367
-46.895
-47.409
-47.814
-48.025
-48.046
-47.962
-47.822
-47.656
-47.498
-47.363
-47.267
-47.232
-47.225
-47.182
-47.058
-46.823
-46.484
-46.081
-45.628
-45.124
-44.535
-43.79
-42.838
-41.643
-40.17
-38.389
-36.29
-33.867
-31.158
-28.241
-25.169
-21.977
-18.685
-15.29
-11.798
-8.224
-4.585
-0.896
2.827
6.577
10.341
14.104
17.863
21.623
25.404
29.245
33.172
37.199
41.333
45.57
49.908
54.346
58.872
63.469
68.122
72.816
77.536
82.273
87.012
91.733
96.414
101.03
105.558
109.976
114.265
118.404
122.376
126.163
129.75
133.126
136.277
139.189
141.849
144.241
146.354
148.175
149.695
150.901
151.785
152.34
152.561
152.443
151.985
151.184
150.042
148.559
146.741
144.591
142.116
139.325
136.226
132.829
129.147
125.192
120.977
116.518
111.831
106.93
101.835
96.562
91.131
85.56
79.869
74.078
68.206
62.276
56.306
50.319
44.334
38.372
32.454
26.599
20.826
15.155
9.603
4.186
-1.077
-6.174
-11.089
-15.81
-20.325
-24.623
-28.695
-32.533
-36.131
-39.483
-42.585
-45.434
-48.028
-50.369
-52.456
-54.293
-55.883
-57.231
-58.344
-59.229
-59.893
-60.347
-60.6
-60.663
-60.548
-60.267
-59.833
-59.259
-58.559
-57.745
-56.833
-55.836
-54.767
-53.639
-52.466
-51.26
-50.033
-48.795
-47.558
-46.331
-45.123
-43.943
-42.797
-41.692
-40.633
-39.626
-38.675
-37.781
-36.948
-36.177
-35.468
-34.821
-34.236
-33.71
-33.242
-32.828
-32.467
-32.154
-31.885
-31.657
-31.464
-31.303
-31.169
-31.057
-30.963
-30.883
-30.813
-30.748
-30.687
-30.625
-30.562
-30.495
-30.423
-30.345
-30.263
-30.174
-30.082
-29.986
-29.889
-29.791
-29.695
-29.605
-29.521
-29.447
-29.386
-29.341
-29.315
-29.31
-29.329
-29.374
-29.447
-29.55
-29.686
-29.854
-30.057
-30.295
-30.569
-30.878
-31.222
-31.602
-32.014
-32.459
-32.932
-33.432
-33.955
-34.497
-35.055
-35.624
-36.199
-36.776
-37.35
-37.915
-38.466
-38.998
-39.506
-39.985
-40.429
-40.834
-41.197
-41.513
-41.781
-41.997
-42.16
-42.269
-42.323
-42.323
-42.269
-42.162
-42.002
-41.793
-41.535
-41.232
-40.887
-40.504
-40.086
-39.637
-39.162
-38.667
-38.155
-37.632
-37.104
-36.575
-36.051
-35.538
-35.042
-34.569
-34.124
-33.713
-33.342
-33.014
-32.736
-32.51
-32.339
-32.226
-32.172
-32.178
-32.244
-32.37
-32.556
-32.798
-33.096
-33.447
-33.848
-34.296
-34.787
-35.317
-35.882
-36.478
-37.099
-37.743
-38.403
-39.076
-39.757
-40.441
-41.124
-41.8
-42.464
-43.111
-43.735
-44.332
-44.896
-45.422
-45.907
-46.346
-46.736
-47.076
-47.362
-47.593
-47.77
-47.891
-47.958
-47.972
-47.934
-47.847
-47.715
-47.539
-47.325
-47.076
-46.796
-46.49
-46.163
-45.818
-45.46
-45.094
-44.723
-44.353
-43.988
-43.632
-43.292
-42.97
-42.674
-42.406
-42.171
-41.974
-41.818
-41.706
-41.641
-41.625
-41.659
-41.744
-41.88
-42.067
-42.303
-42.586
-42.912
-43.278
-43.678
-44.107
-44.559
-45.026
-45.503
-45.981
-46.453
-46.911
-47.347
-47.753
-48.121
-48.442
-48.709
-48.912
-49.042
-49.092
-49.053
-48.918
-48.68
-48.332
-47.868
-47.284
-46.575
-45.738
-44.772
-43.675
-42.447
-41.089
-39.605
-37.998
-36.274
-34.441
-32.506
-30.484
-28.386
-26.229
-24.026
-21.797
-19.557
-17.328
-15.125
-12.966
-10.866
-8.841
-6.907
-5.084
-3.391
-1.845
-0.463
0.74
1.751
2.555
3.144
3.517
3.672
3.608
3.319
2.787
1.997
0.939
-0.395
-2.006
-3.888
-6.03
-8.409
-10.985
-13.714
-16.552
-19.46
-22.411
-25.374
-28.31
-31.164
-33.866
-36.34
-38.527
-40.369
-41.821
-42.876
-43.54
-43.859
-43.914
-43.77
-43.504
-43.222
-43.021
-43.015
-43.333
-44.079
-45.418
-47.626
-50.855
-55.083
-60.07
-65.241
-69.988
-73.856
-76.273
-76.481
-74.035
-69.017
-62.225
-55.445
-50.539
-48.741
-51.129
-58.797
-72.109
-90.202
-110.612
-128.931
-140.293
-140.436
-125.225
-90.542
-32.812
47.697
146.162
256.336
370.812
487.917
611.918
739.298
860.772
958.594
1005.97
989.812
909.48
773.317
603.378
418.564
236.131
77.558
-43.455
-119.127
-151.355
-157.296
-153.327
-149.41
-148.278
-142.853
-128.931
-108.765
-87.084
-70.421
-61.692
-59.704
-62.532
-68.039
-74.439
-80.309
-84.098
-84.884
-82.752
-78.353
-72.611
-66.323
-60.099
-54.604
-50.503
-48.166
-47.607
-48.62
-50.85
-53.985
-57.808
-62.071
-66.522
-70.942
-75.131
-78.929
-82.227
-84.936
-86.988
-88.351
-89.01
-88.972
-88.279
-86.988
-85.17
-82.9
-80.246
-77.271
-74.044
-70.637
-67.131
-63.603
-60.122
-56.736
-53.478
-50.37
-47.425
-44.645
-42.023
-39.542
-37.179
-34.917
-32.744
-30.646
-28.612
-26.625
-24.668
-22.724
-20.777
-18.811
-16.814
-14.774
-12.679
-10.52
-8.289
-5.982
-3.592
-1.114
1.46
4.137
6.925
9.83
12.856
16.009
19.29
22.703
26.245
29.915
33.71
37.623
41.65
45.783
50.013
54.332
58.727
63.187
67.7
72.249
76.821
81.399
85.965
90.502
94.991
99.414
103.752
107.987
112.1
116.073
119.888
123.528
126.975
130.214
133.229
136.004
138.526
140.783
142.762
144.454
145.851
146.946
147.732
148.207
148.366
148.208
147.733
146.942
145.837
144.421
142.7
140.679
138.366
135.771
132.903
129.772
126.391
122.773
118.93
114.877
110.628
106.199
101.604
96.861
91.985
86.994
81.904
76.732
71.495
66.208
60.889
55.552
50.214
44.888
39.59
34.334
29.132
23.999
18.947
13.988
9.134
4.394
-0.219
-4.698
-9.034
-13.219
-17.245
-21.106
-24.797
-28.312
-31.647
-34.799
-37.764
-40.541
-43.128
-45.525
-47.733
-49.752
-51.584
-53.23
-54.693
-55.976
-57.082
-58.014
-58.776
-59.373
-59.81
-60.09
-60.222
-60.21
-60.06
-59.781
-59.378
-58.859
-58.232
-57.504
-56.684
-55.781
-54.802
-53.756
-52.654
-51.503
-50.312
-49.091
-47.847
-46.588
-45.323
-44.06
-42.804
-41.564
-40.346
-39.157
-38.004
-36.891
-35.825
-34.812
-33.856
-32.961
-32.132
-31.373
-30.685
-30.072
-29.536
-29.079
-28.701
-28.402
-28.184
-28.044
-27.982
-27.994
-28.078
-28.232
-28.449
-28.728
-29.062
-29.448
-29.88
-30.354
-30.864
-31.406
-31.975
-32.565
-33.171
-33.789
-34.414
-35.04
-35.664
-36.28
-36.885
-37.474
-38.044
-38.59
-39.11
-39.6
-40.058
-40.48
-40.865
-41.211
-41.517
-41.782
-42.007
-42.192
-42.339
-42.45
-42.526
-42.571
-42.588
-42.58
-42.551
-42.505
-42.445
-42.376
-42.301
-42.224
-42.15
-42.082
-42.024
-41.98
-41.954
-41.948
-41.967
-42.013
-42.09
-42.2
-42.348
-42.536
-42.766
-43.042
-43.364
-43.736
-44.158
-44.63
-45.153
-45.727
-46.35
-47.021
-47.736
-48.494
-49.29
-50.12
-50.979
-51.863
-52.766
-53.682
-54.605
-55.528
-56.446
-57.352
-58.239
-59.101
-59.931
-60.721
-61.465
-62.155
-62.784
-63.344
-63.829
-64.23
-64.54
-64.753
-64.86
-64.856
-64.734
-64.489
-64.114
-63.606
-62.961
-62.176
-61.248
-60.179
-58.966
-57.613
-56.12
-54.493
-52.735
-50.852
-48.851
-46.739
-44.523
-42.215
-39.822
-37.357
-34.831
-32.256
-29.649
-27.024
-24.399
-21.791
-19.219
-16.703
-14.261
-11.912
-9.674
-7.564
-5.598
-3.79
-2.157
-0.716
0.518
1.53
2.307
2.84
3.12
3.142
2.907
2.417
1.677
0.689
-0.555
-2.058
-3.824
-5.854
-8.147
-10.693
-13.472
-16.456
-19.601
-22.862
-26.192
-29.548
-32.894
-36.188
-39.388
-42.44
-45.279
-47.842
-50.068
-51.902
-53.291
-54.208
-54.674
-54.742
-54.505
-54.049
-53.434
-52.734
-52.058
-51.534
-51.309
-51.534
-52.303
-53.76
-56.161
-59.607
-64.028
-69.115
-74.18
-78.534
-81.717
-83.148
-82.115
-78.382
-72.145
-64.257
-56.616
-50.905
-48.118
-49.378
-55.587
-66.607
-81.333
-97.055
-109.141
-113.353
-106.058
-82.955
-40.289
24.397
110.149
211.29
320.484
432.421
547.277
666.584
785.86
891.621
961.656
976.884
930.421
828.733
688.181
523.379
347.125
173.353
18.505
-97.604
-163.521
-182.846
-172.416
-152.929
-137.144
-127.022
-116.334
-100.693
-81.759
-63.937
-52.655
-49.857
-53.737
-61.751
-71.236
-79.978
-86.372
-89.497
-89.148
-85.772
-80.325
-73.781
-66.909
-60.487
-55.242
-51.519
-49.399
-48.727
-49.131
-50.318
-52.107
-54.3
-56.719
-59.223
-61.658
-63.888
-65.822
-67.345
-68.387
-68.92
-68.918
-68.399
-67.421
-66.074
-64.482
-62.743
-60.897
-58.938
-56.864
-54.693
-52.473
-50.265
-48.114
-46.056
-44.114
-42.306
-40.652
-39.149
-37.759
-36.413
-35.029
-33.55
-31.97
-30.316
-28.609
-26.855
-25.046
-23.171
-21.234
-19.237
-17.167
-14.998
-12.703
-10.266
-7.689
-4.99
-2.19
0.706
3.713
6.853
10.148
13.609
17.245
21.065
25.084
29.308
33.733
38.341
43.112
48.031
53.085
58.265
63.558
68.946
74.406
79.917
85.455
90.997
96.518
101.989
107.383
112.671
117.83
122.838
127.672
132.31
136.729
140.906
144.82
148.451
151.781
154.789
157.459
159.776
161.726
163.299
164.486
165.281
165.679
165.678
165.278
164.482
163.293
161.718
159.764
157.44
154.76
151.735
148.379
144.708
140.739
136.489
131.978
127.225
122.251
117.075
111.72
106.208
100.559
94.797
88.943
83.019
77.047
71.048
65.044
59.054
53.097
47.193
41.358
35.609
29.961
24.428
19.024
13.76
8.647
3.694
-1.09
-5.698
-10.123
-14.361
-18.407
-22.258
-25.912
-29.368
-32.624
-35.683
-38.544
-41.209
-43.683
-45.967
-48.067
-49.987
-51.733
-53.311
-54.726
-55.985
-57.096
-58.065
-58.899
-59.605
-60.191
-60.663
-61.029
-61.295
-61.469
-61.557
-61.565
-61.499
-61.366
-61.172
-60.921
-60.62
-60.273
-59.886
-59.462
-59.008
-58.526
-58.022
-57.498
-56.958
-56.406
-55.844
-55.274
-54.698
-54.12
-53.539
-52.958
-52.379
-51.801
-51.226
-50.654
-50.087
-49.525
-48.969
-48.419
-47.876
-47.341
-46.815
-46.298
-45.791
-45.296
-44.813
-44.343
-43.887
-43.447
-43.023
-42.615
-42.226
-41.856
-41.505
-41.175
-40.866
-40.579
-40.316
-40.077
-39.862
-39.674
-39.511
-39.375
-39.267
-39.187
-39.136
-39.113
-39.119
-39.155
-39.218
-39.31
-39.429
-39.574
-39.744
-39.936
-40.149
-40.381
-40.629
-40.891
-41.164
-41.444
-41.731
-42.019
-42.307
-42.592
-42.871
-43.142
-43.401
-43.647
-43.877
-44.09
-44.283
-44.455
-44.604
-44.729
-44.83
-44.906
-44.955
-44.978
-44.975
-44.946
-44.891
-44.812
-44.71
-44.586
-44.442
-44.281
-44.104
-43.915
-43.715
-43.508
-43.296
-43.082
-42.868
-42.657
-42.45
-42.25
-42.057
-41.873
-41.697
-41.531
-41.372
-41.221
-41.075
-40.934
-40.793
-40.652
-40.505
-40.35
-40.183
-39.999
-39.794
-39.563
-39.3
-39
-38.659
-38.271
-37.829
-37.33
-36.767
-36.136
-35.433
-34.654
-33.796
-32.857
-31.835
-30.731
-29.544
-28.277
-26.932
-25.517
-24.037
-22.501
-20.919
-19.302
-17.662
-16.014
-14.37
-12.743
-11.147
-9.596
-8.105
-6.687
-5.36
-4.141
-3.045
-2.088
-1.285
-0.648
-0.188
0.088
0.176
0.072
-0.231
-0.748
-1.492
-2.47
-3.69
-5.156
-6.866
-8.808
-10.965
-13.303
-15.786
-18.383
-21.065
-23.807
-26.587
-29.374
-32.123
-34.782
-37.291
-39.599
-41.663
-43.437
-44.895
-46.049
-46.938
-47.643
-48.243
-48.783
-49.307
-49.879
-50.574
-51.499
-52.773
-54.481
-56.76
-59.812
-63.75
-68.548
-73.948
-79.391
-84.248
-87.97
-89.94
-89.471
-86.115
-79.874
-71.527
-62.557
-54.62
-49.166
-47.413
-50.642
-59.72
-74.26
-92.107
-109.828
-123.296
-128.01
-119.778
-93.967
-45.648
26.123
117.055
222.128
335.048
452.93
581.334
720.213
859.681
983.748
1064.542
1076.349
1012.79
876.729
681.822
457.56
228.296
20.907
-132.388
-221.379
-247.929
-227.52
-192.525
-161.331
-140.326
-128.038
-113.229
-93.359
-72.478
-54.558
-45.145
-45.017
-50.959
-60.433
-70.352
-77.939
-82.288
-83.05
-80.36
-75.207
-68.622
-61.414
-54.572
-49.087
-45.409
-43.698
-43.872
-45.536
-48.375
-52.15
-56.556
-61.293
-66.132
-70.864
-75.333
-79.44
-83.054
-86.063
-88.4
-90.017
-90.911
-91.11
-90.647
-89.575
-87.957
-85.857
-83.339
-80.466
-77.303
-73.921
-70.396
-66.804
-63.213
-59.673
-56.219
-52.877
-49.655
-46.551
-43.553
-40.645
-37.805
-35.022
-32.283
-29.579
-26.903
-24.246
-21.598
-18.95
-16.291
-13.61
-10.896
-8.141
-5.336
-2.475
0.449
3.439
6.501
9.636
12.845
16.132
19.503
22.967
26.538
30.221
34.017
37.924
41.94
46.052
50.244
54.489
58.743
62.976
67.168
71.309
75.4
79.44
83.425
87.354
91.229
95.051
98.829
102.564
106.246
109.884
113.498
117.13
120.851
124.701
128.686
132.803
137.019
141.294
145.585
149.823
153.919
157.795
161.378
164.615
167.475
169.903
171.829
173.161
173.781
173.605
172.596
170.728
168.002
164.443
160.091
155.029
149.381
143.25
136.72
129.859
122.708
115.328
107.802
100.218
92.682
85.279
78.067
71.097
64.416
58.04
51.973
46.184
40.603
35.184
29.905
24.751
19.729
14.839
10.066
5.401
0.836
-3.637
-8.018
-12.312
-16.527
-20.656
-24.685
-28.586
-32.313
-35.836
-39.136
-42.203
-45.034
-47.628
-49.983
-52.107
-54.011
-55.706
-57.202
-58.505
-59.619
-60.553
-61.32
-61.934
-62.414
-62.777
-63.036
-63.204
-63.294
-63.318
-63.285
-63.203
-63.078
-62.914
-62.72
-62.502
-62.271
-62.032
-61.794
-61.562
-61.344
-61.146
-60.972
-60.825
-60.706
-60.618
-60.56
-60.533
-60.536
-60.567
-60.624
-60.706
-60.809
-60.931
-61.068
-61.218
-61.374
-61.535
-61.696
-61.853
-62.003
-62.14
-62.263
-62.367
-62.45
-62.508
-62.539
-62.54
-62.506
-62.437
-62.328
-62.178
-61.984
-61.745
-61.459
-61.126
-60.747
-60.322
-59.854
-59.344
-58.796
-58.212
-57.598
-56.957
-56.293
-55.613
-54.92
-54.221
-53.52
-52.825
-52.14
-51.471
-50.824
-50.203
-49.615
-49.063
-48.554
-48.09
-47.678
-47.321
-47.024
-46.79
-46.623
-46.528
-46.506
-46.561
-46.694
-46.908
-47.203
-47.579
-48.036
-48.572
-49.185
-49.873
-50.633
-51.462
-52.353
-53.304
-54.309
-55.362
-56.457
-57.59
-58.752
-59.939
-61.143
-62.358
-63.578
-64.796
-66.006
-67.202
-68.378
-69.527
-70.642
-71.718
-72.749
-73.727
-74.647
-75.503
-76.289
-76.998
-77.626
-78.169
-78.621
-78.979
-79.24
-79.4
-79.458
-79.411
-79.258
-78.997
-78.627
-78.147
-77.558
-76.859
-76.051
-75.136
-74.115
-72.988
-71.758
-70.428
-68.999
-67.475
-65.86
-64.158
-62.373
-60.512
-58.581
-56.587
-54.54
-52.447
-50.32
-48.17
-46.01
-43.852
-41.71
-39.6
-37.534
-35.529
-33.595
-31.747
-29.998
-28.359
-26.844
-25.465
-24.233
-23.165
-22.273
-21.569
-21.065
-20.768
-20.681
-20.806
-21.146
-21.699
-22.476
-23.481
-24.718
-26.191
-27.905
-29.859
-32.045
-34.44
-37.001
-39.687
-42.458
-45.273
-48.105
-50.919
-53.681
-56.354
-58.891
-61.247
-63.388
-65.263
-66.827
-68.048
-68.912
-69.468
-69.813
-70.042
-70.245
-70.477
-70.783
-71.259
-72.014
-73.166
-74.851
-77.14
-80.138
-84.079
-89.06
-94.984
-101.534
-107.948
-113.359
-117.135
-118.572
-116.903
-111.931
-103.926
-93.827
-83.763
-75.915
-71.903
-73.328
-81.281
-95.466
-114.415
-135.166
-152.595
-161.228
-156.119
-132.316
-85.992
-15.51
78.618
193.384
322.49
457.855
590.62
710.917
809.265
877.843
910.89
904.959
860.099
779.742
669.854
538.828
396.458
252.657
116.74
-2.523
-98.444
-167.786
-210.136
-227.63
-224.512
-206.045
-177.888
-146.531
-117.92
-95.641
-81.411
-75.391
-76.328
-82.447
-91.773
-101.606
-109.296
-113.502
-113.822
-110.579
-104.735
-97.237
-88.922
-80.851
-74.037
-68.967
-65.799
-64.411
-64.449
-65.648
-67.805
-70.647
-73.914
-77.399
-80.912
-84.307
-87.469
-90.243
-92.501
-94.167
-95.184
-95.548
-95.281
-94.412
-92.996
-91.103
-88.797
-86.14
-83.192
-80.008
-76.659
-73.221
-69.769
-66.383
-63.116
-60.003
-57.072
-54.329
-51.772
-49.389
-47.158
-45.049
-43.042
-41.117
-39.259
-37.453
-35.682
-33.924
-32.159
-30.365
-28.524
-26.619
-24.633
-22.552
-20.364
-18.059
-15.63
-13.07
-10.374
-7.533
-4.54
-1.388
1.926
5.408
9.058
12.879
16.868
21.023
25.336
29.802
34.409
39.147
44.005
48.968
54.022
59.151
64.339
69.569
74.822
80.079
85.321
90.527
95.676
100.745
105.711
110.553
115.246
119.769
124.1
128.217
132.099
135.729
139.087
142.158
144.927
147.379
149.503
151.286
152.721
153.801
154.519
154.873
154.861
154.485
153.746
152.649
151.198
149.399
147.259
144.787
141.99
138.881
135.47
131.771
127.798
123.567
119.097
114.407
109.515
104.443
99.211
93.842
88.357
82.776
77.12
71.406
65.653
59.88
54.102
48.337
42.598
36.901
31.262
25.697
20.219
14.839
9.567
4.41
-0.626
-5.535
-10.312
-14.957
-19.464
-23.828
-28.04
-32.085
-35.952
-39.646
-43.172
-46.545
-49.789
-52.921
-55.963
-58.939
-61.862
-64.732
-67.546
-70.278
-72.914
-75.449
-77.884
-80.24
-82.533
-84.755
-86.881
-88.869
-90.636
-92.107
-93.202
-93.82
-93.897
-93.397
-92.308
-90.659
-88.491
-85.825
-82.678
-79.048
-74.923
-70.334
-65.352
-60.104
-54.787
-49.603
-44.748
-40.414
-36.78
-34.01
-32.227
-31.514
-31.904
-33.371
-35.964
-39.848
-45.026
-51.317
-58.284
-65.068
-70.822
-74.95
-76.683
-75.219
-70.347
-62.24
-51.885
-41.392
-32.578
-26.74
-25.249
-28.812
-36.798
-47.736
-58.551
-64.503
-61.072
-44.011
-9.035
47.114
123.622
216.186
319.567
426.117
533.779
646.844
761.731
871.643
961.112
1001.093
975.205
877.641
715.206
518.161
316.649
139.373
8.713
-73.379
-114.506
-131.307
-140.705
-148.54
-154.324
-152.097
-138.099
-116.035
-92.385
-73.827
-63.715
-61.456
-65.096
-72.352
-81.307
-89.929
-96.053
-98.453
-96.833
-91.632
-83.79
-74.173
-63.533
-52.784
-42.813
-34.128
-26.92
-21.117
-16.485
-12.898
-10.312
-8.654
-7.857
-7.872
-8.635
-10.097
-12.214
-14.895
-18.028
-21.522
-25.288
-29.256
-33.382
-37.611
-41.883
-46.118
-50.204
-54.029
-57.483
-60.482
-62.983
-64.962
-66.408
-67.331
-67.753
-67.696
-67.193
-66.264
-64.915
-63.163
-61.033
-58.569
-55.843
-52.917
-49.848
-46.675
-43.423
-40.108
-36.74
-33.315
-29.819
-26.233
-22.537
-18.717
-14.771
-10.689
-6.458
-2.059
2.536
7.343
12.372
17.625
23.1
28.788
34.678
40.75
46.974
53.323
59.766
66.277
72.83
79.397
85.946
92.444
98.857
105.154
111.305
117.279
123.045
128.576
133.844
138.823
143.493
147.83
151.812
155.418
158.629
161.427
163.795
165.721
167.192
168.198
168.732
168.791
168.372
167.476
166.107
164.269
161.969
159.218
156.028
152.414
148.392
143.98
139.2
134.072
128.622
122.874
116.855
110.591
104.112
97.446
90.623
83.672
76.624
69.508
62.353
55.19
48.046
40.949
33.927
27.006
20.212
13.569
7.099
0.825
-5.235
-11.06
-16.634
-21.942
-26.97
-31.707
-36.142
-40.266
-44.074
-47.562
-50.725
-53.566
-56.083
-58.282
-60.165
-61.741
-63.017
-64.001
-64.705
-65.139
-65.316
-65.248
-64.951
-64.437
-63.721
-62.82
-61.748
-60.521
-59.156
-57.669
-56.077
-54.395
-52.64
-50.828
-48.975
-47.096
-45.206
-43.32
-41.452
-39.614
-37.819
-36.079
-34.402
-32.799
-31.277
-29.842
-28.502
-27.26
-26.12
-25.085
-24.158
-23.338
-22.628
-22.028
-21.536
-21.153
-20.877
-20.706
-20.638
-20.67
-20.799
-21.022
-21.335
-21.733
-22.212
-22.765
-23.389
-24.075
-24.82
-25.615
-26.455
-27.334
-28.245
-29.183
-30.14
-31.113
-32.095
-33.083
-34.072
-35.058
-36.039
-37.011
-37.971
-38.917
-39.847
-40.757
-41.645
-42.51
-43.348
-44.157
-44.935
-45.68
-46.389
-47.062
-47.697
-48.292
-48.847
-49.362
-49.837
-50.272
-50.668
-51.026
-51.348
-51.635
-51.889
-52.112
-52.307
-52.475
-52.618
-52.739
-52.838
-52.916
-52.976
-53.018
-53.043
-53.052
-53.047
-53.03
-53.001
-52.962
-52.917
-52.867
-52.815
-52.763
-52.714
-52.67
-52.633
-52.607
-52.591
-52.589
-52.602
-52.631
-52.677
-52.74
-52.82
-52.917
-53.031
-53.161
-53.306
-53.465
-53.638
-53.823
-54.021
-54.231
-54.453
-54.687
-54.933
-55.19
-55.459
-55.738
-56.028
-56.327
-56.634
-56.947
-57.265
-57.586
-57.908
-58.228
-58.545
-58.857
-59.16
-59.454
-59.736
-60.004
-60.258
-60.495
-60.715
-60.918
-61.104
-61.271
-61.421
-61.554
-61.669
-61.767
-61.846
-61.908
-61.951
-61.975
-61.979
-61.963
-61.927
-61.869
-61.791
-61.692
-61.573
-61.434
-61.277
-61.104
-60.915
-60.713
-60.5
-60.28
-60.054
-59.826
-59.599
-59.377
-59.16
-58.953
-58.758
-58.577
-58.411
-58.263
-58.135
-58.028
-57.944
-57.884
-57.851
-57.844
-57.867
-57.92
-58.004
-58.12
-58.269
-58.452
-58.669
-58.919
-59.203
-59.519
-59.866
-60.241
-60.642
-61.065
-61.505
-61.956
-62.414
-62.873
-63.325
-63.765
-64.185
-64.579
-64.939
-65.258
-65.53
-65.747
-65.902
-65.989
-65.999
-65.927
-65.767
-65.513
-65.16
-64.703
-64.136
-63.458
-62.663
-61.751
-60.719
-59.565
-58.29
-56.894
-55.38
-53.751
-52.012
-50.17
-48.235
-46.219
-44.134
-41.992
-39.81
-37.602
-35.386
-33.178
-30.991
-28.84
-26.74
-24.71
-22.765
-20.926
-19.21
-17.632
-16.207
-14.949
-13.87
-12.981
-12.286
-11.788
-11.493
-11.411
-11.56
-11.963
-12.627
-13.559
-14.76
-16.221
-17.93
-19.869
-21.998
-24.277
-26.667
-29.129
-31.636
-34.162
-36.663
-39.085
-41.351
-43.385
-45.13
-46.546
-47.599
-48.293
-48.642
-48.69
-48.523
-48.216
-47.861
-47.566
-47.429
-47.57
-48.125
-49.203
-50.99
-53.744
-57.557
-62.393
-68.016
-73.912
-79.636
-84.854
-89.054
-91.656
-92.312
-90.901
-88.003
-84.862
-82.399
-81.301
-82.113
-85.112
-90.593
-98.499
-107.246
-114.105
-116.437
-111.275
-96.192
-69.545
-28.632
29.132
104.011
194.795
297.188
403.12
505.866
601.223
689.339
773.395
852.975
920.151
954.304
934.057
846.418
689.646
487.623
272.332
74.609
-74.251
-166.396
-207.161
-209.446
-198.258
-186.721
-178.591
-173.353
-162.638
-144.926
-124.822
-106.397
-94.678
-90.885
-92.504
-97.323
-103.046
-107.531
-109.393
-107.862
-102.832
-94.878
-85.036
-74.275
-63.422
-53.349
-44.817
-38.249
-33.801
-31.422
-30.866
-31.902
-34.34
-37.921
-42.381
-47.488
-53.022
-58.767
-64.521
-70.068
-75.197
-79.768
-83.677
-86.844
-89.216
-90.725
-91.336
-91.054
-89.9
-87.919
-85.165
-81.7
-77.606
-73.005
-68.026
-62.803
-57.464
-52.101
-46.779
-41.554
-36.468
-31.565
-26.874
-22.404
-18.157
-14.132
-10.329
-6.747
-3.378
-0.193
2.842
5.764
8.616
11.426
14.212
16.992
19.779
22.582
25.406
28.251
31.113
33.991
36.889
39.81
42.76
45.74
48.746
51.779
54.832
57.906
60.999
64.108
67.233
70.372
73.526
76.694
79.877
83.072
86.274
89.478
92.675
95.856
99.013
102.135
105.21
108.229
111.179
114.05
116.833
119.517
122.092
124.547
126.873
129.06
131.098
132.978
134.69
136.227
137.579
138.738
139.698
140.451
140.99
141.311
141.406
141.271
140.903
140.298
139.453
138.368
137.043
135.479
133.679
131.645
129.384
126.899
124.197
121.286
118.172
114.864
111.37
107.699
103.861
99.866
95.724
91.445
87.042
82.527
77.912
73.21
68.434
63.599
58.719
53.809
48.884
43.959
39.049
34.171
29.339
24.568
19.873
15.267
10.765
6.379
2.12
-2
-5.972
-9.784
-13.43
-16.901
-20.189
-23.289
-26.193
-28.898
-31.399
-33.693
-35.776
-37.648
-39.308
-40.757
-41.995
-43.026
-43.853
-44.482
-44.919
-45.17
-45.244
-45.15
-44.898
-44.498
-43.961
-43.299
-42.524
-41.647
-40.68
-39.635
-38.524
-37.358
-36.147
-34.904
-33.639
-32.362
-31.084
-29.815
-28.564
-27.341
-26.155
-25.016
-23.93
-22.906
-21.951
-21.071
-20.271
-19.555
-18.928
-18.391
-17.947
-17.596
-17.338
-17.172
-17.096
-17.106
-17.201
-17.376
-17.628
-17.951
-18.343
-18.797
-19.311
-19.879
-20.498
-21.162
-21.867
-22.608
-23.381
-24.18
-25.001
-25.837
-26.685
-27.537
-28.39
-29.237
-30.073
-30.894
-31.694
-32.47
-33.218
-33.933
-34.614
-35.257
-35.861
-36.425
-36.948
-37.429
-37.869
-38.269
-38.628
-38.947
-39.226
-39.467
-39.67
-39.835
-39.963
-40.054
-40.11
-40.13
-40.118
-40.074
-40.001
-39.902
-39.778
-39.634
-39.474
-39.3
-39.117
-38.929
-38.741
-38.556
-38.38
-38.217
-38.07
-37.943
-37.839
-37.761
-37.712
-37.693
-37.706
-37.752
-37.832
-37.948
-38.1
-38.29
-38.517
-38.784
-39.09
-39.435
-39.82
-40.242
-40.701
-41.194
-41.718
-42.27
-42.845
-43.437
-44.041
-44.65
-45.257
-45.856
-46.437
-46.993
-47.515
-47.995
-48.423
-48.793
-49.096
-49.325
-49.473
-49.534
-49.503
-49.374
-49.143
-48.805
-48.355
-47.79
-47.107
-46.304
-45.377
-44.327
-43.152
-41.856
-40.441
-38.91
-37.271
-35.53
-33.697
-31.784
-29.802
-27.766
-25.691
-23.594
-21.491
-19.401
-17.339
-15.323
-13.371
-11.501
-9.731
-8.076
-6.555
-5.181
-3.973
-2.945
-2.112
-1.487
-1.078
-0.891
-0.933
-1.213
-1.746
-2.539
-3.595
-4.909
-6.479
-8.297
-10.352
-12.617
-15.048
-17.596
-20.214
-22.861
-25.51
-28.125
-30.667
-33.085
-35.323
-37.338
-39.103
-40.6
-41.812
-42.726
-43.34
-43.709
-43.947
-44.173
-44.501
-45.004
-45.708
-46.675
-47.989
-49.749
-52.054
-54.968
-58.496
-62.662
-67.596
-73.303
-79.624
-86.185
-92.256
-97.093
-100.129
-100.743
-98.196
-92.137
-82.678
-70.379
-56.779
-43.563
-31.977
-23.616
-20.024
-21.56
-27.451
-35.998
-43.744
-46.457
-40.317
-20.376
18.809
78.225
154.728
245.297
344.231
451.269
573.712
707.612
841.069
953.101
1011.423
999.839
920.234
784.036
612.482
423.039
226.676
40.199
-112.976
-215.43
-258.65
-251.461
-220.854
-187.037
-160.115
-140.693
-118.782
-91.511
-62.421
-35.662
-17.591
-10.539
-13.381
-24.591
-40.987
-58.995
-75.902
-89.924
-100.419
-107.138
-109.592
-107.775
-102.302
-94.525
-86.254
-78.55
-71.756
-66.079
-61.731
-58.846
-57.441
-57.152
-57.284
-57.421
-57.397
-57.147
-56.697
-56.027
-55.13
-54.092
-53.078
-52.208
-51.529
-51.045
-50.725
-50.546
-50.492
-50.522
-50.574
-50.603
-50.599
-50.549
-50.448
-50.269
-49.939
-49.402
-48.621
-47.56
-46.202
-44.531
-42.527
-40.197
-37.58
-34.727
-31.71
-28.577
-25.35
-22.048
-18.69
-15.299
-11.913
-8.552
-5.216
-1.911
1.362
4.602
7.8
10.967
14.132
17.327
20.591
23.949
27.413
30.993
34.698
38.532
42.498
46.59
50.79
55.088
59.471
63.929
68.451
73.023
77.622
82.227
86.815
91.365
95.858
100.274
104.594
108.798
112.87
116.794
120.556
124.141
127.531
130.71
133.661
136.368
138.815
140.988
142.871
144.452
145.719
146.664
147.278
147.554
147.488
147.076
146.318
145.214
143.767
141.98
139.86
137.414
134.651
131.581
128.216
124.567
120.649
116.475
112.063
107.427
102.586
97.555
92.354
87.002
81.518
75.923
70.236
64.478
58.67
52.832
46.987
41.153
35.351
29.601
23.92
18.327
12.838
7.47
2.236
-2.851
-7.778
-12.535
-17.112
-21.501
-25.695
-29.688
-33.475
-37.052
-40.417
-43.566
-46.501
-49.219
-51.724
-54.016
-56.098
-57.976
-59.652
-61.133
-62.426
-63.537
-64.475
-65.248
-65.865
-66.336
-66.671
-66.881
-66.974
-66.963
-66.857
-66.665
-66.398
-66.065
-65.674
-65.234
-64.753
-64.238
-63.696
-63.136
-62.563
-61.983
-61.403
-60.829
-60.266
-59.719
-59.192
-58.689
-58.215
-57.771
-57.362
-56.988
-56.652
-56.355
-56.096
-55.876
-55.694
-55.548
-55.437
-55.359
-55.312
-55.294
-55.301
-55.332
-55.385
-55.458
-55.547
-55.653
-55.772
-55.902
-56.042
-56.19
-56.343
-56.5
-56.657
-56.814
-56.967
-57.115
-57.255
-57.385
-57.503
-57.607
-57.696
-57.768
-57.822
-57.857
-57.873
-57.869
-57.847
-57.807
-57.75
-57.677
-57.591
-57.493
-57.383
-57.265
-57.139
-57.007
-56.87
-56.73
-56.587
-56.444
-56.302
-56.162
-56.027
-55.898
-55.777
-55.667
-55.57
-55.487
-55.422
-55.377
-55.354
-55.354
-55.381
-55.436
-55.52
-55.635
-55.781
-55.959
-56.169
-56.41
-56.68
-56.978
-57.302
-57.649
-58.017
-58.404
-58.807
-59.223
-59.649
-60.081
-60.518
-60.954
-61.386
-61.808
-62.217
-62.607
-62.972
-63.307
-63.605
-63.862
-64.07
-64.224
-64.316
-64.342
-64.295
-64.168
-63.955
-63.652
-63.253
-62.755
-62.155
-61.45
-60.639
-59.721
-58.697
-57.568
-56.336
-55.003
-53.572
-52.047
-50.433
-48.735
-46.961
-45.117
-43.212
-41.258
-39.268
-37.253
-35.23
-33.213
-31.218
-29.264
-27.366
-25.539
-23.8
-22.162
-20.641
-19.253
-18.013
-16.936
-16.038
-15.332
-14.829
-14.538
-14.466
-14.613
-14.978
-15.558
-16.352
-17.368
-18.612
-20.087
-21.799
-23.747
-25.928
-28.327
-30.921
-33.672
-36.54
-39.483
-42.462
-45.444
-48.397
-51.285
-54.062
-56.673
-59.06
-61.166
-62.94
-64.329
-65.298
-65.857
-66.043
-65.932
-65.604
-65.11
-64.512
-63.897
-63.364
-63.032
-63.033
-63.453
-64.42
-66.174
-68.822
-72.325
-76.434
-80.516
-83.889
-86.053
-86.418
-84.287
-79.382
-71.854
-62.516
-53.286
-46.076
-42.188
-42.874
-49.131
-60.994
-77.477
-96.074
-112.055
-120.407
-117.104
-98.008
-59.302
1.376
84.845
187.621
301.193
417.258
529.38
635.67
736.972
828.334
900.1
936.786
922.286
851.392
725.64
555.774
363.117
171.165
7.725
-103.942
-157.056
-160.88
-138.818
-113.932
-98.489
-92.869
-88.128
-79.143
-66.68
-54.273
-47.851
-49.311
-56.493
-67.079
-78.128
-86.894
-92.444
-94.456
-92.849
-88.476
-82.33
-75.19
-68.038
-61.877
-57.197
-54.205
-52.94
-53.104
-54.433
-56.761
-59.821
-63.352
-67.163
-71.073
-74.933
-78.64
-82.051
-85
-87.377
-89.106
-90.15
-90.519
-90.231
-89.313
-87.815
-85.799
-83.328
-80.465
-77.269
-73.801
-70.13
-66.331
-62.483
-58.657
-54.91
-51.28
-47.79
-44.448
-41.257
-38.209
-35.292
-32.487
-29.779
-27.157
-24.609
-22.127
-19.698
-17.304
-14.929
-12.557
-10.171
-7.758
-5.306
-2.804
-0.241
2.388
5.092
7.874
10.743
13.705
16.769
19.943
23.233
26.646
30.186
33.858
37.663
41.601
45.67
49.867
54.185
58.618
63.158
67.795
72.516
77.309
82.159
87.051
91.966
96.885
101.79
106.657
111.467
116.196
120.822
125.322
129.673
133.853
137.839
141.61
145.144
148.421
151.42
154.125
156.516
158.577
160.295
161.654
162.645
163.257
163.484
163.32
162.762
161.809
160.461
158.723
156.599
154.097
151.226
147.997
144.425
140.523
136.31
131.804
127.024
121.992
116.731
111.264
105.615
99.808
93.868
87.821
81.692
75.506
69.289
63.065
56.858
50.693
44.591
38.576
32.668
26.887
21.251
15.778
10.483
5.38
0.481
-4.201
-8.658
-12.882
-16.868
-20.61
-24.106
-27.355
-30.358
-33.116
-35.633
-37.914
-39.965
-41.794
-43.408
-44.818
-46.032
-47.062
-47.918
-48.612
-49.156
-49.561
-49.84
-50.004
-50.065
-50.035
-49.926
-49.747
-49.51
-49.225
-48.9
-48.546
-48.17
-47.779
-47.382
-46.985
-46.592
-46.21
-45.843
-45.494
-45.167
-44.862
-44.582
-44.328
-44.098
-43.893
-43.711
-43.55
-43.41
-43.286
-43.178
-43.081
-42.994
-42.914
-42.837
-42.762
-42.685
-42.604
-42.516
-42.421
-42.315
-42.197
-42.065
-41.919
-41.756
-41.577
-41.379
-41.163
-40.928
-40.674
-40.4
-40.106
-39.794
-39.462
-39.113
-38.748
-38.369
-37.976
-37.573
-37.162
-36.745
-36.324
-35.901
-35.48
-35.063
-34.652
-34.249
-33.858
-33.48
-33.118
-32.775
-32.452
-32.152
-31.877
-31.628
-31.409
-31.219
-31.061
-30.935
-30.844
-30.789
-30.771
-30.791
-30.851
-30.952
-31.093
-31.277
-31.503
-31.771
-32.081
-32.431
-32.822
-33.252
-33.721
-34.227
-34.769
-35.345
-35.954
-36.593
-37.259
-37.949
-38.659
-39.384
-40.121
-40.863
-41.606
-42.342
-43.067
-43.777
-44.466
-45.131
-45.765
-46.365
-46.925
-47.441
-47.906
-48.312
-48.651
-48.912
-49.089
-49.175
-49.166
-49.056
-48.836
-48.505
-48.062
-47.502
-46.824
-46.017
-45.068
-43.969
-42.724
-41.343
-39.841
-38.232
-36.527
-34.743
-32.906
-31.033
-29.132
-27.199
-25.21
-23.157
-21.046
-18.891
-16.727
-14.569
-12.417
-10.269
-8.116
-5.951
-3.77
-1.551
0.753
3.155
5.642
8.165
10.632
12.976
15.156
17.143
18.927
20.483
21.772
22.764
23.437
23.758
23.688
23.163
22.082
20.396
18.099
15.232
11.9
8.196
4.197
-0.022
-4.393
-8.848
-13.317
-17.746
-22.1
-26.322
-30.332
-34.028
-37.276
-39.98
-42.085
-43.58
-44.523
-45.018
-45.184
-45.15
-45.032
-44.893
-44.799
-44.841
-45.091
-45.661
-46.685
-48.23
-50.467
-53.67
-57.904
-63.043
-68.658
-73.88
-77.896
-80.184
-80.085
-76.938
-70.671
-61.629
-51.092
-41.421
-34.509
-31.525
-33.577
-41.182
-53.662
-69.436
-84.864
-94.484
-93.782
-78.853
-45.724
8.29
84.334
180.191
288.425
400.304
509.794
616.042
720.466
819.134
900.001
943.683
934.322
868.506
755.022
611.281
453.484
294.26
145.33
19.071
-73.215
-124.569
-136.418
-119.567
-83.386
-39.936
-2.529
22.685
25.365
4.788
-26.444
-59.94
-83.674
-92.658
-95.031
-94.647
-94.714
-96.837
-96.598
-92.44
-85.481
-76.447
-67.15
-58.931
-51.72
-45.529
-40.554
-36.668
-33.794
-31.93
-30.931
-30.673
-31.138
-32.275
-34.038
-36.408
-39.301
-42.58
-46.082
-49.644
-53.167
-56.576
-59.79
-62.721
-65.251
-67.304
-68.868
-69.936
-70.509
-70.572
-70.075
-68.999
-67.372
-65.234
-62.645
-59.661
-56.306
-52.622
-48.675
-44.536
-40.297
-36.022
-31.736
-27.46
-23.218
-19.042
-14.975
-11.042
-7.241
-3.57
-0.027
3.394
6.685
9.859
12.946
15.979
18.999
22.032
25.093
28.195
31.351
34.573
37.877
41.266
44.737
48.29
51.929
55.658
59.484
63.404
67.412
71.501
75.662
79.887
84.169
88.5
92.868
97.264
101.68
106.106
110.532
114.947
119.334
123.678
127.959
132.159
136.258
140.235
144.068
147.736
151.218
154.496
157.548
160.355
162.899
165.16
167.122
168.767
170.079
171.045
171.65
171.885
171.739
171.205
170.278
168.953
167.228
165.105
162.586
159.674
156.376
152.7
148.658
144.263
139.53
134.477
129.123
123.49
117.601
111.478
105.149
98.639
91.975
85.184
78.293
71.331
64.327
57.309
50.305
43.344
36.452
29.659
22.989
16.468
10.12
3.967
-1.968
-7.667
-13.11
-18.282
-23.167
-27.752
-32.026
-35.98
-39.608
-42.906
-45.873
-48.509
-50.815
-52.798
-54.462
-55.818
-56.875
-57.643
-58.136
-58.368
-58.355
-58.113
-57.662
-57.019
-56.206
-55.243
-54.153
-52.959
-51.684
-50.353
-48.988
-47.614
-46.253
-44.926
-43.655
-42.457
-41.351
-40.356
-39.486
-38.758
-38.186
-37.785
-37.564
-37.532
-37.695
-38.05
-38.597
-39.332
-40.253
-41.365
-42.668
-44.156
-45.83
-47.687
-49.716
-51.905
-54.223
-56.62
-59.057
-61.491
-63.881
-66.204
-68.421
-70.493
-72.382
-74.037
-75.416
-76.489
-77.215
-77.551
-77.481
-77.018
-76.233
-75.24
-74.146
-73.029
-71.951
-70.974
-70.198
-69.736
-69.7
-70.201
-71.275
-73.033
-75.684
-79.267
-83.66
-88.49
-92.984
-96.384
-98.178
-97.68
-94.215
-87.732
-78.408
-67.203
-56.186
-47.083
-41.307
-40.466
-45.33
-55.216
-68.966
-83.826
-94.836
-97.424
-86.839
-57.444
-7.134
61.633
146.25
241.912
345.095
460.011
586.704
716.637
835.875
918.329
937.769
883.713
755.62
568.243
352.153
136.725
-47.436
-176.77
-247.844
-269.705
-263.327
-249.249
-235.281
-220.498
-197.191
-161.845
-119.285
-76.632
-41.658
-18.191
-6.059
-4.675
-12.342
-26.239
-43.071
-59.543
-73.533
-84.41
-91.861
-95.251
-94.46
-90.155
-83.858
-77.551
-72.407
-68.712
-66.574
-66.178
-67.627
-70.881
-75.476
-80.559
-85.575
-90.287
-94.572
-98.432
-101.817
-104.619
-106.847
-108.61
-109.992
-111.052
-111.813
-112.237
-112.325
-112.112
-111.635
-110.959
-110.141
-109.223
-108.252
-107.258
-106.259
-105.274
-104.309
-103.365
-102.432
-101.492
-100.526
-99.525
-98.481
-97.381
-96.21
-94.942
-93.556
-92.036
-90.367
-88.54
-86.547
-84.382
-82.04
-79.524
-76.84
-73.991
-70.986
-67.827
-64.516
-61.058
-57.46
-53.727
-49.866
-45.882
-41.785
-37.588
-33.306
-28.953
-24.541
-20.077
-15.575
-11.058
-6.551
-2.082
2.316
6.611
10.761
14.71
18.408
21.808
24.872
27.579
29.909
31.84
33.347
34.412
35.027
35.209
34.984
34.366
33.382
32.068
30.474
28.687
26.779
24.798
22.782
20.744
18.687
16.628
14.579
12.531
10.459
8.311
6.02
3.549
0.856
-2.118
-5.443
-9.226
-13.549
-18.44
-23.901
-29.901
-36.398
-43.37
-50.815
-58.687
-66.904
-75.327
-83.78
-92.154
-100.383
-108.41
-116.102
-123.178
-129.473
-135.07
-140.244
-145.315
-150.358
-155.035
-159.035
-162.509
-165.44
-167.432
-167.533
-164.282
-156.838
-145.493
-130.775
