Name
Date of Birth,"Mar 27, 1959"
Recorded Date,2019-05-01 15:01:34 -0500
Classification,Sinus Rhythm
Symptoms,
Software Version,1.2
Device,"Watch4,2"
Sample Rate,510.227 hertz


Lead,Lead I
Unit,µV

78.394
81.46
83.379
84.046
83.393
81.439
78.247
73.94
68.699
62.721
56.203
49.318
42.192
34.935
27.666
20.499
13.554
6.973
0.861
-4.702
-9.653
-13.975
-17.674
-20.796
-23.431
-25.693
-27.705
-29.561
-31.321
-33.02
-34.689
-36.355
-38.046
-39.796
-41.624
-43.543
-45.573
-47.721
-49.993
-52.377
-54.842
-57.34
-59.817
-62.234
-64.57
-66.809
-68.946
-70.976
-72.898
-74.713
-76.431
-78.056
-79.588
-81.021
-82.351
-83.576
-84.699
-85.729
-86.675
-87.545
-88.344
-89.077
-89.748
-90.362
-90.919
-91.419
-91.857
-92.233
-92.547
-92.801
-92.999
-93.143
-93.235
-93.278
-93.277
-93.233
-93.15
-93.029
-92.872
-92.679
-92.453
-92.197
-91.912
-91.602
-91.27
-90.917
-90.548
-90.166
-89.772
-89.368
-88.957
-88.537
-88.111
-87.679
-87.24
-86.795
-86.345
-85.889
-85.428
-84.964
-84.495
-84.023
-83.548
-83.07
-82.59
-82.108
-81.624
-81.138
-80.652
-80.167
-79.684
-79.204
-78.728
-78.258
-77.795
-77.341
-76.896
-76.463
-76.045
-75.643
-75.261
-74.903
-74.571
-74.271
-74.006
-73.78
-73.598
-73.464
-73.382
-73.355
-73.385
-73.477
-73.631
-73.851
-74.137
-74.491
-74.912
-75.399
-75.953
-76.571
-77.251
-77.99
-78.785
-79.632
-80.527
-81.465
-82.441
-83.449
-84.482
-85.532
-86.592
-87.652
-88.704
-89.736
-90.74
-91.704
-92.617
-93.469
-94.249
-94.947
-95.552
-96.055
-96.446
-96.716
-96.858
-96.863
-96.725
-96.438
-95.997
-95.399
-94.639
-93.717
-92.63
-91.379
-89.963
-88.385
-86.645
-84.748
-82.697
-80.498
-78.157
-75.683
-73.083
-70.368
-67.549
-64.637
-61.646
-58.588
-55.478
-52.328
-49.154
-45.971
-42.792
-39.634
-36.511
-33.44
-30.436
-27.519
-24.704
-22.007
-19.444
-17.029
-14.776
-12.696
-10.8
-9.095
-7.589
-6.291
-5.21
-4.356
-3.735
-3.353
-3.212
-3.313
-3.657
-4.237
-5.045
-6.075
-7.321
-8.781
-10.464
-12.374
-14.508
-16.861
-19.422
-22.165
-25.063
-28.079
-31.162
-34.269
-37.357
-40.39
-43.34
-46.168
-48.826
-51.262
-53.414
-55.226
-56.666
-57.691
-58.288
-58.492
-58.348
-57.937
-57.363
-56.683
-55.965
-55.308
-54.805
-54.587
-54.804
-55.538
-56.901
-59.046
-61.96
-65.541
-69.55
-73.476
-76.817
-79.205
-80.277
-79.759
-77.824
-74.872
-71.441
-68.462
-66.709
-66.623
-68.476
-72.134
-76.459
-79.719
-80.254
-75.949
-64.8
-45.172
-15.379
25.635
77.165
137.359
204.334
275.234
346.563
414.5
473.984
520.018
549.439
560.169
550.526
520.531
471.684
406.766
331.063
250.827
171.422
98.05
35.413
-13.591
-47.413
-65.912
-71.339
-67.098
-56.587
-43.726
-31.898
-23.128
-18.791
-19.372
-24.075
-31.607
-40.427
-48.576
-54.693
-58.242
-58.937
-56.962
-52.879
-47.266
-40.923
-34.789
-29.411
-25.013
-21.68
-19.295
-17.743
-16.972
-16.823
-17.093
-17.643
-18.355
-19.167
-20.046
-20.898
-21.595
-22.001
-22.012
-21.578
-20.686
-19.33
-17.511
-15.243
-12.555
-9.501
-6.133
-2.492
1.381
5.454
9.687
14.026
18.416
22.799
27.129
31.377
35.522
39.551
43.454
47.227
50.873
54.406
57.834
61.165
64.408
67.569
70.658
73.682
76.642
79.545
82.402
85.223
88.024
90.827
93.651
96.531
99.511
102.631
105.936
109.453
113.188
117.15
121.342
125.765
130.432
135.339
140.463
145.786
151.283
156.92
162.667
168.447
174.153
179.673
184.889
189.719
194.123
198.068
201.54
204.54
207.073
209.189
210.975
212.516
213.906
215.233
216.598
218.174
220.17
222.817
226.364
231.003
236.911
244.266
253.178
263.736
275.97
289.78
305.098
321.836
339.672
358.329
377.499
396.732
415.836
434.613
452.442
468.751
483.348
495.933
506.428
514.84
520.425
522.583
521.465
517.378
510.372
500.353
486.783
469.132
447.827
423.446
396.047
365.31
331.219
294.565
256.904
220.183
185.975
155.289
129.203
109.372
97.135
92.887
96.295
106.352
121.825
142.191
167.146
195.585
226.272
258.071
289.791
320.375
348.762
373.275
391.888
403.296
406.745
402.123
390.046
371.658
348.583
322.692
296.059
270.385
246.855
226.145
208.347
193.003
179.212
166.255
153.56
140.749
127.787
114.749
101.837
89.525
78.456
69.028
61.418
55.621
51.376
48.453
46.673
45.783
45.53
45.687
46.044
46.501
47.082
47.82
48.729
49.794
50.927
52.065
53.206
54.359
55.536
56.742
57.951
59.056
60.019
60.883
61.593
62.448
63.59
64.556
65.284
64.47
61.079
55.905
48.977
44.554
41.888
43.421
71.892
81.986
-4.596
-84.384
-27.892
47.239
21.973
-27.073
-41.547
-48.61
-57.005
-61.989
-66.47
-70.8
-74.874
-78.243
-80.075
-80.628
-80.038
-78.334
-75.668
-72.078
-67.613
-62.425
-56.688
-50.559
-44.217
-37.864
-31.714
-26.001
-20.934
-16.659
-13.275
-10.84
-9.385
-8.968
-9.649
-11.487
-14.56
-18.89
-24.446
-31.209
-39.139
-48.161
-58.188
-69.089
-80.704
-92.919
-105.66
-118.869
-132.514
-146.548
-160.903
-175.518
-190.319
-205.251
-220.286
-235.386
-250.513
-265.651
-280.792
-295.948
-311.157
-326.426
-341.73
-357.04
-372.313
-387.506
-402.588
-417.527
-432.285
-446.836
-461.17
-475.271
-489.133
-502.759
-516.139
-529.275
-542.187
-554.894
-567.427
-579.829
-592.126
-604.352
-616.529
-628.643
-640.665
-652.524
-664.094
-675.261
-685.905
-695.865
-705.017
-713.206
-720.189
-725.749
-729.638
-731.561
-731.329
-728.741
-723.527
-715.65
-705.224
-692.48
-678.008
-662.325
-645.581
-628.015
-609.843
-590.827
-570.816
-549.515
-525.868
-499.241
-469.841
-437.964
-404.511
-371.243
-339.542
-310.923
-288.06
-273.157
-267.382
-271.595
-285.198
-306.169
-332.714
-362.702
-392.577
-418.763
-438.287
-448.371
-447.886
-437.301
-417.235
-388.83
-354.424
-316.754
-278.402
-241.981
-209.101
-180.269
-155.78
-135.58
-119.029
-105.26
-93.582
-83.345
-74.282
-66.586
-60.5
-56.355
-54.666
-55.942
-60.417
-68.11
-78.812
-92.166
-107.86
-125.543
-144.789
-165.098
-185.997
-207.173
-228.416
-249.423
-269.747
-288.741
-305.528
-319.375
-329.753
-336.086
-338.059
-335.747
-329.532
-320.573
-310.625
-301.22
-293.779
-289.498
-288.605
-290.488
-293.8
-295.733
-292.734
-281.437
-258.249
-220.247
-166.378
-97.09
-14.298
78.094
174.952
270.438
357.628
429.96
482.717
512.777
518.386
499.356
457.353
396.015
320.989
238.71
154.955
74.709
2.861
-55.81
-98.289
-123.772
-133.372
-129.695
-115.577
-93.666
-67.465
-41.328
-18.375
-0.28
12.405
20.426
24.702
25.944
25.582
25.634
27.354
31.336
37.632
45.524
54.369
63.74
72.949
81.228
88.139
93.442
97.137
99.505
100.763
101.073
100.66
99.713
98.404
96.893
95.303
93.753
92.359
91.216
90.402
89.972
89.957
90.382
91.252
92.543
94.229
96.281
98.672
101.394
104.422
107.725
111.265
114.994
118.882
122.915
127.082
131.376
135.799
140.356
145.059
149.932
154.992
160.248
165.706
171.368
177.234
183.311
189.602
196.106
202.821
209.741
216.857
224.161
231.642
239.282
247.065
254.971
262.98
271.078
279.245
287.466
295.723
303.998
312.273
320.532
328.754
336.921
345.013
353.009
360.892
368.643
376.243
383.674
390.921
397.967
404.796
411.393
417.743
423.834
429.651
435.182
440.416
445.342
449.952
454.236
458.187
461.799
465.066
467.982
470.542
472.742
474.578
476.047
477.146
477.873
478.226
478.205
477.81
477.042
475.902
474.393
472.517
470.277
467.677
464.722
461.415
457.763
453.773
449.451
444.806
439.848
434.586
429.031
423.194
417.089
410.726
404.121
397.286
390.237
382.988
375.558
367.962
360.219
352.347
344.367
336.297
328.158
319.97
311.755
303.532
295.322
287.147
279.027
270.984
263.038
255.209
247.518
239.982
232.619
225.447
218.48
211.73
205.211
198.932
192.901
187.127
181.614
176.365
171.383
166.669
162.221
158.037
154.11
150.433
146.997
143.793
140.807
138.027
135.438
133.023
130.766
128.65
126.656
124.764
122.954
121.204
119.494
117.801
116.104
114.383
112.616
110.785
108.871
106.86
104.735
102.484
100.094
97.556
94.862
92.006
88.981
85.782
82.407
78.857
75.131
71.235
67.171
62.947
58.572
54.062
49.43
44.692
39.863
34.957
29.993
24.987
19.96
14.93
9.91
4.919
-0.021
-4.882
-9.635
-14.259
-18.746
-23.094
-27.3
-31.356
-35.257
-39.006
-42.612
-46.076
-49.386
-52.514
-55.429
-58.117
-60.578
-62.83
-64.89
-66.759
-68.423
-69.862
-71.071
-72.046
-72.776
-73.231
-73.369
-73.18
-72.697
-71.996
-71.153
-70.214
-69.206
-68.137
-67.024
-65.903
-64.819
-63.811
-62.901
-62.115
-61.501
-61.135
-61.106
-61.457
-62.168
-63.168
-64.389
-65.798
-67.375
-69.113
-70.985
-72.957
-75
-77.105
-79.269
-81.48
-83.7
-85.861
-87.888
-89.746
-91.448
-93.043
-94.571
-96.052
-97.496
-98.912
-100.326
-101.758
-103.214
-104.681
-106.14
-107.589
-109.038
-110.517
-112.054
-113.657
-115.317
-117.009
-118.714
-120.422
-122.123
-123.802
-125.442
-127.028
-128.557
-130.04
-131.483
-132.888
-134.25
-135.559
-136.807
-137.989
-139.105
-140.15
-141.122
-142.016
-142.828
-143.557
-144.202
-144.759
-145.222
-145.582
-145.831
-145.963
-145.973
-145.859
-145.616
-145.243
-144.739
-144.107
-143.35
-142.474
-141.484
-140.386
-139.187
-137.897
-136.524
-135.08
-133.572
-132.011
-130.408
-128.772
-127.117
-125.455
-123.801
-122.17
-120.578
-119.044
-117.582
-116.209
-114.938
-113.777
-112.737
-111.827
-111.059
-110.452
-110.023
-109.781
-109.739
-109.903
-110.275
-110.85
-111.605
-112.507
-113.523
-114.623
-115.783
-116.995
-118.242
-119.505
-120.756
-121.947
-123.041
-124.009
-124.818
-125.441
-125.857
-126.065
-126.121
-126.117
-126.135
-126.24
-126.445
-126.754
-127.215
-127.883
-128.844
-130.204
-132.009
-134.351
-137.381
-141.09
-145.351
-149.872
-154.031
-157.258
-159.154
-159.19
-157.023
-152.822
-146.997
-140.492
-134.746
-130.694
-129.036
-130.637
-135.598
-143.095
-151.602
-158.415
-160.448
-155.484
-141.244
-115.237
-76.116
-23.604
41.063
114.703
193.782
274.893
353.489
424.262
482.195
522.568
542.376
540.436
515.936
469.422
403.628
322.8
232.623
139.697
49.805
-31.734
-99.836
-151.438
-185.445
-202.295
-204.56
-195.926
-180.164
-161.674
-144.521
-131.175
-123.108
-120.753
-123.187
-129.069
-136.791
-144.181
-149.632
-152.426
-152.235
-149.344
-144.456
-138.245
-131.542
-125.335
-120.199
-116.379
-113.964
-112.785
-112.666
-113.493
-115.06
-117.134
-119.561
-122.221
-125.024
-127.903
-130.736
-133.371
-135.697
-137.638
-139.161
-140.261
-140.933
-141.191
-141.064
-140.599
-139.843
-138.839
-137.617
-136.207
-134.647
-132.984
-131.271
-129.563
-127.896
-126.291
-124.756
-123.289
-121.88
-120.511
-119.157
-117.784
-116.364
-114.873
-113.29
-111.598
-109.773
-107.793
-105.634
-103.274
-100.693
-97.876
-94.808
-91.477
-87.875
-83.996
-79.838
-75.401
-70.686
-65.693
-60.425
-54.885
-49.079
-43.017
-36.707
-30.162
-23.397
-16.43
-9.282
-1.976
5.466
13.015
20.645
28.327
36.029
43.72
51.368
58.939
66.401
73.719
80.86
87.79
94.479
100.893
107.002
112.777
118.191
123.216
127.829
132.007
135.729
138.977
141.736
143.99
145.73
146.948
147.638
147.798
147.427
146.53
145.113
143.185
140.757
137.845
134.465
130.637
126.382
121.725
116.689
111.303
105.595
99.594
93.332
86.839
80.147
73.289
66.297
59.202
52.037
44.834
37.623
30.435
23.298
16.241
9.291
2.474
-4.187
-10.67
-16.954
-23.021
-28.855
-34.441
-39.769
-44.827
-49.608
-54.106
-58.317
-62.241
-65.877
-69.226
-72.294
-75.085
-77.605
-79.863
-81.867
-83.627
-85.155
-86.46
-87.555
-88.453
-89.166
-89.707
-90.091
-90.329
-90.436
-90.425
-90.308
-90.1
-89.811
-89.453
-89.038
-88.575
-88.073
-87.543
-86.989
-86.421
-85.842
-85.257
-84.671
-84.086
-83.504
-82.926
-82.354
-81.787
-81.225
-80.668
-80.114
-79.563
-79.013
-78.464
-77.913
-77.36
-76.804
-76.243
-75.676
-75.102
-74.521
-73.932
-73.333
-72.724
-72.105
-71.475
-70.834
-70.184
-69.524
-68.855
-68.179
-67.498
-66.814
-66.129
-65.446
-64.769
-64.101
-63.445
-62.804
-62.182
-61.582
-61.007
-60.46
-59.944
-59.46
-59.011
-58.597
-58.221
-57.881
-57.579
-57.315
-57.087
-56.896
-56.739
-56.617
-56.527
-56.468
-56.44
-56.439
-56.464
-56.514
-56.586
-56.678
-56.786
-56.909
-57.042
-57.184
-57.331
-57.48
-57.629
-57.773
-57.912
-58.042
-58.16
-58.266
-58.358
-58.433
-58.491
-58.532
-58.555
-58.56
-58.548
-58.519
-58.475
-58.418
-58.348
-58.267
-58.177
-58.079
-57.974
-57.865
-57.752
-57.637
-57.522
-57.408
-57.296
-57.188
-57.086
-56.99
-56.901
-56.82
-56.747
-56.682
-56.624
-56.573
-56.527
-56.484
-56.443
-56.402
-56.358
-56.308
-56.249
-56.177
-56.087
-55.975
-55.835
-55.664
-55.454
-55.201
-54.897
-54.539
-54.12
-53.635
-53.079
-52.445
-51.729
-50.926
-50.031
-49.038
-47.945
-46.745
-45.437
-44.018
-42.487
-40.843
-39.086
-37.217
-35.237
-33.151
-30.962
-28.675
-26.293
-23.824
-21.274
-18.652
-15.968
-13.23
-10.451
-7.643
-4.821
-2.002
0.798
3.562
6.275
8.918
11.474
13.929
16.267
18.477
20.546
22.457
24.196
25.747
27.096
28.232
29.143
29.821
30.256
30.447
30.398
30.112
29.589
28.822
27.798
26.509
24.956
23.137
21.061
18.747
16.218
13.511
10.685
7.791
4.876
1.983
-0.862
-3.619
-6.231
-8.643
-10.792
-12.62
-14.096
-15.173
-15.82
-16.061
-15.933
-15.514
-14.923
-14.226
-13.499
-12.85
-12.355
-12.142
-12.357
-13.08
-14.44
-16.604
-19.554
-23.203
-27.325
-31.37
-34.853
-37.364
-38.271
-37.134
-33.977
-29.048
-23.118
-17.43
-12.829
-10.056
-10.097
-13.254
-18.879
-25.576
-30.881
-31.776
-25.68
-9.96
18.34
61.167
118.822
190.065
272.011
360.545
450.911
537.453
613.396
672.257
709.287
721.291
706.521
665.399
600.499
516.245
419.251
317.246
217.013
124.925
47.144
-12.5
-52.625
-73.59
-78.069
-70.231
-53.894
-33.411
-13.803
1.708
11.483
14.844
12.703
6.653
-2.043
-11.587
-19.746
-25.372
-28.006
-27.643
-25.111
-21.225
-16.549
-11.859
-7.929
-5.134
-3.665
-3.506
-4.365
-6.033
-8.346
-11.084
-14.08
-17.182
-20.239
-23.134
-25.739
-27.941
-29.662
-30.845
-31.46
-31.5
-30.966
-29.886
-28.324
-26.344
-24.007
-21.369
-18.459
-15.319
-11.999
-8.545
-5.011
-1.429
2.183
5.801
9.398
12.945
16.413
19.786
23.077
26.301
29.47
32.587
35.641
38.624
41.513
44.275
46.865
49.223
51.312
53.117
54.661
55.996
57.19
58.324
59.461
60.644
61.914
63.31
64.87
66.637
68.667
71.03
73.812
77.12
81.027
85.578
90.768
96.547
102.833
109.514
116.494
123.69
131.032
138.463
145.926
153.373
160.742
167.972
174.976
181.647
187.893
193.643
198.861
203.545
207.721
211.438
214.74
217.659
220.218
222.426
224.282
225.782
226.917
227.678
228.071
228.119
227.845
227.266
226.39
225.208
223.703
221.848
219.621
217.004
213.984
210.562
206.745
202.546
197.988
193.095
187.891
182.392
176.617
170.581
164.305
157.813
151.13
144.285
137.308
130.229
123.079
115.884
108.672
101.468
94.292
87.165
80.107
73.138
66.278
59.547
52.965
46.548
40.314
34.278
28.455
22.856
17.49
12.367
7.491
2.869
-1.497
-5.604
-9.451
-13.04
-16.372
-19.451
-22.281
-24.868
-27.22
-29.344
-31.249
-32.945
-34.443
-35.754
-36.891
-37.866
-38.691
-39.381
-39.949
-40.408
-40.771
-41.053
-41.266
-41.423
-41.536
-41.616
-41.676
-41.724
-41.77
-41.822
-41.887
-41.973
-42.084
-42.224
-42.398
-42.608
-42.855
-43.14
-43.463
-43.821
-44.213
-44.637
-45.088
-45.563
-46.058
-46.567
-47.084
-47.605
-48.123
-48.631
-49.123
-49.593
-50.035
-50.442
-50.808
-51.129
-51.4
-51.617
-51.776
-51.875
-51.91
-51.882
-51.788
-51.629
-51.405
-51.118
-50.77
-50.363
-49.903
-49.393
-48.839
-48.246
-47.621
-46.97
-46.301
-45.62
-44.934
-44.252
-43.58
-42.927
-42.301
-41.708
-41.157
-40.654
-40.207
-39.822
-39.504
-39.26
-39.093
-39.008
-39.009
-39.098
-39.277
-39.547
-39.911
-40.368
-40.917
-41.557
-42.287
-43.104
-44.004
-44.985
-46.041
-47.168
-48.361
-49.614
-50.922
-52.279
-53.679
-55.117
-56.585
-58.079
-59.591
-61.117
-62.649
-64.182
-65.71
-67.228
-68.73
-70.211
-71.666
-73.091
-74.481
-75.833
-77.141
-78.403
-79.615
-80.774
-81.875
-82.917
-83.895
-84.807
-85.651
-86.425
-87.126
-87.752
-88.301
-88.771
-89.161
-89.468
-89.69
-89.823
-89.866
-89.816
-89.671
-89.43
-89.089
-88.647
-88.103
-87.455
-86.704
-85.847
-84.884
-83.815
-82.64
-81.36
-79.975
-78.489
-76.902
-75.22
-73.447
-71.587
-69.648
-67.634
-65.553
-63.413
-61.221
-58.987
-56.72
-54.43
-52.129
-49.829
-47.548
-45.3
-43.102
-40.97
-38.92
-36.969
-35.132
-33.423
-31.852
-30.43
-29.169
-28.081
-27.18
-26.478
-25.982
-25.699
-25.637
-25.801
-26.194
-26.812
-27.647
-28.696
-29.955
-31.428
-33.127
-35.053
-37.202
-39.565
-42.126
-44.866
-47.764
-50.78
-53.864
-56.966
-60.039
-63.048
-65.964
-68.739
-71.32
-73.643
-75.641
-77.268
-78.487
-79.269
-79.615
-79.537
-79.065
-78.26
-77.181
-75.904
-74.532
-73.15
-71.852
-70.759
-69.954
-69.581
-69.847
-70.777
-72.26
-74.058
-75.7
-76.793
-77.133
-76.312
-73.79
-69.479
-63.639
-57
-50.832
-46.011
-42.843
-41.85
-43.739
-48.358
-54.703
-60.842
-63.831
-61.081
-50.82
-30.908
1.33
47.172
106.368
177.355
256.578
339.73
422.701
500.092
564.914
611.568
635.865
634.553
607.299
555.915
483.057
393.845
296.027
196.701
102.777
21.415
-43.056
-88.634
-114.423
-122.116
-115.713
-99.085
-76.874
-54.658
-35.987
-22.913
-16.785
-17.189
-22.684
-31.994
-43.118
-53.473
-61.667
-67.004
-69.163
-68.727
-66.406
-62.732
-58.56
-54.827
-51.986
-50.267
-49.717
-50.077
-51.175
-52.894
-55.012
-57.341
-59.752
-62.132
-64.415
-66.547
-68.419
-69.941
-71.057
-71.724
-71.943
-71.722
-71.069
-70.021
-68.624
-66.928
-64.984
-62.828
-60.49
-58.012
-55.442
-52.835
-50.252
-47.737
-45.319
-43.022
-40.857
-38.827
-36.93
-35.15
-33.463
-31.851
-30.296
-28.785
-27.307
-25.845
-24.378
-22.889
-21.355
-19.76
-18.085
-16.314
-14.431
-12.423
-10.278
-7.987
-5.546
-2.946
-0.18
2.759
5.877
9.179
12.667
16.345
20.212
24.267
28.505
32.921
37.506
42.25
47.143
52.17
57.318
62.57
67.908
73.315
78.77
84.253
89.741
95.21
100.639
106.002
111.276
116.435
121.456
126.315
130.988
135.451
139.684
143.663
147.369
150.782
153.883
156.656
159.086
161.159
162.862
164.186
165.121
165.663
165.805
165.548
164.888
163.829
162.372
160.524
158.291
155.682
152.706
149.375
145.704
141.707
137.401
132.804
127.934
122.812
117.459
111.897
106.148
100.237
94.187
88.021
81.764
75.441
69.075
62.691
56.311
49.959
43.656
37.423
31.282
25.251
19.349
13.592
7.997
2.578
-2.651
-7.678
-12.493
-17.086
-21.448
-25.574
-29.457
-33.096
-36.486
-39.627
-42.52
-45.166
-47.57
-49.735
-51.668
-53.374
-54.864
-56.144
-57.226
-58.119
-58.835
-59.385
-59.78
-60.033
-60.156
-60.162
-60.061
-59.867
-59.59
-59.242
-58.834
-58.377
-57.88
-57.353
-56.805
-56.244
-55.68
-55.118
-54.567
-54.031
-53.516
-53.028
-52.569
-52.144
-51.753
-51.399
-51.081
-50.802
-50.559
-50.351
-50.177
-50.035
-49.923
-49.837
-49.774
-49.731
-49.705
-49.692
-49.688
-49.691
-49.697
-49.704
-49.707
-49.705
-49.695
-49.675
-49.641
-49.593
-49.528
-49.443
-49.338
-49.209
-49.057
-48.879
-48.674
-48.443
-48.184
-47.898
-47.584
-47.243
-46.876
-46.482
-46.064
-45.621
-45.154
-44.667
-44.158
-43.631
-43.086
-42.525
-41.95
-41.362
-40.762
-40.152
-39.533
-38.906
-38.273
-37.635
-36.994
-36.352
-35.711
-35.074
-34.443
-33.821
-33.21
-32.615
-32.036
-31.478
-30.944
-30.437
-29.96
-29.517
-29.11
-28.745
-28.422
-28.147
-27.922
-27.75
-27.634
-27.575
-27.577
-27.642
-27.771
-27.965
-28.227
-28.557
-28.956
-29.422
-29.956
-30.556
-31.22
-31.945
-32.727
-33.564
-34.45
-35.379
-36.346
-37.345
-38.368
-39.407
-40.455
-41.502
-42.539
-43.557
-44.546
-45.495
-46.395
-47.236
-48.008
-48.7
-49.303
-49.809
-50.209
-50.493
-50.655
-50.687
-50.583
-50.339
-49.95
-49.414
-48.728
-47.892
-46.907
-45.775
-44.5
-43.085
-41.538
-39.865
-38.075
-36.178
-34.186
-32.111
-29.968
-27.773
-25.545
-23.303
-21.067
-18.857
-16.694
-14.601
-12.595
-10.697
-8.925
-7.295
-5.826
-4.536
-3.443
-2.564
-1.917
-1.514
-1.367
-1.486
-1.877
-2.54
-3.475
-4.681
-6.163
-7.93
-9.988
-12.339
-14.982
-17.91
-21.106
-24.544
-28.184
-31.977
-35.871
-39.82
-43.78
-47.716
-51.591
-55.357
-58.957
-62.325
-65.403
-68.14
-70.496
-72.43
-73.94
-75.065
-75.87
-76.459
-76.923
-77.303
-77.671
-78.109
-78.704
-79.588
-80.886
-82.668
-85.05
-88.191
-92.078
-96.581
-101.385
-105.859
-109.469
-111.828
-112.432
-110.912
-107.354
-102.094
-95.939
-90.232
-85.862
-83.356
-83.385
-85.981
-90.231
-94.676
-96.974
-94.124
-83.756
-63.774
-31.856
13.177
70.92
139.82
216.934
298.266
379.596
456.024
521.77
571.728
602.356
611.415
597.858
561.959
505.527
432.158
347.23
256.731
165.988
79.841
3.14
-60.038
-107.444
-138.658
-155.077
-159.28
-153.833
-141.505
-125.941
-110.752
-98.304
-89.809
-85.361
-84.248
-85.819
-89.319
-93.324
-96.27
-97.259
-96.006
-92.783
-88.256
-82.937
-77.233
-71.753
-67.149
-63.814
-61.897
-61.315
-61.804
-63.148
-65.192
-67.744
-70.599
-73.569
-76.482
-79.196
-81.608
-83.63
-85.195
-86.259
-86.794
-86.794
-86.274
-85.272
-83.841
-82.036
-79.91
-77.509
-74.874
-72.058
-69.123
-66.129
-63.139
-60.193
-57.319
-54.535
-51.853
-49.276
-46.799
-44.404
-42.067
-39.768
-37.493
-35.227
-32.96
-30.677
-28.359
-25.99
-23.553
-21.034
-18.421
-15.703
-12.868
-9.909
-6.82
-3.6
-0.247
3.241
6.866
10.631
14.536
18.583
22.77
27.096
31.559
36.153
40.874
45.712
50.659
55.704
60.834
66.038
71.3
76.605
81.936
87.275
92.605
97.904
103.153
108.33
113.413
118.381
123.21
127.88
132.369
136.654
140.716
144.533
148.088
151.362
154.337
156.998
159.33
161.319
162.954
164.224
165.12
165.635
165.763
165.501
164.847
163.8
162.364
160.541
158.337
155.76
152.819
149.525
145.891
141.931
137.663
133.103
128.27
123.185
117.869
112.343
106.631
100.756
94.742
88.614
82.395
76.11
69.784
63.44
57.102
50.794
44.537
38.353
32.264
26.289
20.448
14.758
9.237
3.9
-1.239
-6.166
-10.871
-15.343
-19.574
-23.558
-27.289
-30.764
-33.979
-36.935
-39.631
-42.069
-44.252
-46.185
-47.873
-49.322
-50.54
-51.536
-52.32
-52.901
-53.291
-53.5
-53.54
-53.423
-53.162
-52.768
-52.254
-51.632
-50.915
-50.116
-49.245
-48.315
-47.338
-46.322
-45.28
-44.219
-43.15
-42.079
-41.016
-39.967
-38.939
-37.939
-36.972
-36.044
-35.158
-34.318
-33.527
-32.788
-32.102
-31.469
-30.89
-30.364
-29.891
-29.468
-29.094
-28.767
-28.483
-28.24
-28.033
-27.86
-27.715
-27.595
-27.495
-27.412
-27.341
-27.28
-27.223
-27.169
-27.114
-27.054
-26.987
-26.909
-26.816
-26.706
-26.575
-26.422
-26.242
-26.034
-25.797
-25.528
-25.227
-24.893
-24.526
-24.126
-23.695
-23.233
-22.742
-22.226
-21.686
-21.128
-20.554
-19.969
-19.378
-18.786
-18.197
-17.616
-17.047
-16.495
-15.965
-15.46
-14.985
-14.543
-14.141
-13.781
-13.469
-13.208
-13.003
-12.859
-12.779
-12.766
-12.825
-12.958
-13.167
-13.456
-13.825
-14.276
-14.81
-15.424
-16.12
-16.894
-17.742
-18.663
-19.649
-20.697
-21.8
-22.953
-24.149
-25.382
-26.644
-27.929
-29.23
-30.54
-31.852
-33.157
-34.449
-35.719
-36.96
-38.163
-39.32
-40.423
-41.462
-42.431
-43.319
-44.12
-44.825
-45.426
-45.915
-46.287
-46.534
-46.653
-46.638
-46.486
-46.195
-45.765
-45.195
-44.486
-43.64
-42.66
-41.547
-40.307
-38.945
-37.465
-35.873
-34.176
-32.381
-30.496
-28.531
-26.494
-24.397
-22.251
-20.069
-17.865
-15.654
-13.452
-11.277
-9.144
-7.072
-5.077
-3.175
-1.38
0.291
1.824
3.205
4.421
5.458
6.305
6.948
7.375
7.575
7.54
7.271
6.766
6.024
5.04
3.803
2.306
0.554
-1.448
-3.7
-6.192
-8.913
-11.83
-14.889
-18.035
-21.217
-24.391
-27.529
-30.597
-33.544
-36.315
-38.851
-41.104
-43.059
-44.695
-45.979
-46.898
-47.462
-47.737
-47.867
-47.986
-48.201
-48.589
-49.188
-50.059
-51.311
-53.059
-55.418
-58.478
-62.217
-66.65
-71.874
-77.819
-84.271
-90.757
-96.465
-100.626
-102.721
-102.356
-99.24
-93.475
-85.369
-75.645
-65.682
-56.842
-50.241
-46.417
-45.079
-45.053
-44.697
-41.905
-33.715
-16.982
11.415
53.632
109.917
178.854
257.954
343.667
430.919
513.718
585.274
639.098
670.856
677.92
658.708
613.679
545.71
459.331
361.02
258.355
157.721
65.081
-13.506
-74.292
-115.898
-138.421
-144.194
-137.014
-120.312
-98.279
-76.029
-56.904
-42.742
-34.545
-31.753
-33.18
-37.91
-44.265
-49.94
-53.661
-54.872
-53.49
-50.231
-45.778
-40.563
-35.3
-30.818
-27.554
-25.706
-25.235
-25.808
-27.168
-29.14
-31.5
-34.039
-36.594
-39.011
-41.166
-42.976
-44.367
-45.286
-45.701
-45.598
-44.978
-43.862
-42.3
-40.359
-38.106
-35.605
-32.91
-30.061
-27.113
-24.125
-21.159
-18.279
-15.527
-12.929
-10.508
-8.276
-6.238
-4.39
-2.716
-1.187
0.22
1.523
2.739
3.883
4.976
6.042
7.105
8.187
9.31
10.494
11.759
13.127
14.612
16.231
17.996
19.917
22.005
24.273
26.73
29.386
32.249
35.325
38.618
42.132
45.866
49.818
53.983
58.354
62.922
67.675
72.601
77.684
82.907
88.252
93.698
99.223
104.804
110.413
116.027
121.616
127.153
132.61
137.957
143.166
148.208
153.055
157.679
162.054
166.153
169.953
173.429
176.561
179.328
181.712
183.696
185.267
186.412
187.121
187.388
187.207
186.575
185.491
183.958
181.98
179.564
176.717
173.451
169.779
165.716
161.278
156.486
151.359
145.919
140.189
134.195
127.961
121.515
114.881
108.089
101.164
94.135
87.029
79.872
72.692
65.513
58.361
51.261
44.235
37.305
30.494
23.821
17.304
10.96
4.807
-1.141
-6.872
-12.374
-17.637
-22.653
-27.413
-31.915
-36.152
-40.124
-43.829
-47.268
-50.443
-53.358
-56.017
-58.425
-60.589
-62.516
-64.216
-65.695
-66.964
-68.033
-68.91
-69.607
-70.133
-70.498
-70.714
-70.79
-70.737
-70.564
-70.284
-69.904
-69.435
-68.886
-68.267
-67.586
-66.853
-66.074
-65.257
-64.411
-63.541
-62.654
-61.756
-60.851
-59.945
-59.041
-58.143
-57.253
-56.375
-55.51
-54.66
-53.826
-53.009
-52.211
-51.433
-50.674
-49.936
-49.219
-48.523
-47.848
-47.195
-46.563
-45.952
-45.363
-44.794
-44.246
-43.719
-43.212
-42.726
-42.259
-41.813
-41.386
-40.98
-40.593
-40.227
-39.882
-39.558
-39.256
-38.978
-38.725
-38.497
-38.297
-38.126
-37.986
-37.877
-37.801
-37.761
-37.756
-37.788
-37.859
-37.969
-38.12
-38.312
-38.546
-38.822
-39.141
-39.503
-39.906
-40.351
-40.836
-41.36
-41.922
-42.519
-43.149
-43.81
-44.498
-45.211
-45.944
-46.693
-47.453
-48.22
-48.988
-49.752
-50.506
-51.246
-51.965
-52.658
-53.32
-53.945
-54.529
-55.065
-55.548
-55.975
-56.338
-56.634
-56.858
-57.006
-57.073
-57.057
-56.955
-56.765
-56.484
-56.111
-55.647
-55.09
-54.44
-53.7
-52.87
-51.953
-50.952
-49.871
-48.714
-47.486
-46.192
-44.839
-43.432
-41.978
-40.483
-38.955
-37.4
-35.825
-34.237
-32.645
-31.056
-29.48
-27.928
-26.411
-24.939
-23.524
-22.178
-20.912
-19.735
-18.656
-17.683
-16.822
-16.08
-15.464
-14.983
-14.643
-14.454
-14.423
-14.555
-14.855
-15.324
-15.964
-16.769
-17.736
-18.865
-20.159
-21.633
-23.294
-25.147
-27.194
-29.429
-31.841
-34.41
-37.101
-39.872
-42.678
-45.481
-48.25
-50.963
-53.589
-56.087
-58.403
-60.473
-62.24
-63.666
-64.724
-65.396
-65.689
-65.647
-65.348
-64.912
-64.442
-64.004
-63.667
-63.505
-63.637
-64.213
-65.397
-67.315
-70.096
-73.879
-78.641
-84.236
-90.38
-96.598
-102.419
-107.46
-111.363
-113.797
-114.863
-114.982
-114.635
-114.454
-114.796
-115.671
-117.017
-118.74
-119.994
-119.191
-114.719
-104.988
-88.884
-65.736
-34.743
5.128
53.943
110.348
172.545
238.584
306.624
374.515
438.975
495.571
540.283
570.515
584.439
580.445
557.002
513.949
453.401
379.508
297.283
211.31
125.736
45.189
-25.092
-81.423
-122.347
-148.219
-160.927
-162.621
-155.313
-142.079
-127.083
-113.409
-102.815
-96.046
-92.614
-91.926
-93.623
-96.568
-98.958
-99.636
-98.069
-94.262
-88.909
-82.608
-75.721
-68.867
-62.802
-58.006
-54.732
-52.987
-52.496
-53.025
-54.404
-56.414
-58.834
-61.472
-64.144
-66.687
-68.977
-70.912
-72.413
-73.432
-73.941
-73.927
-73.398
-72.396
-70.983
-69.225
-67.185
-64.916
-62.46
-59.874
-57.222
-54.573
-51.996
-49.538
-47.226
-45.083
-43.119
-41.336
-39.729
-38.276
-36.943
-35.704
-34.537
-33.422
-32.342
-31.276
-30.197
-29.081
-27.903
-26.642
-25.28
-23.796
-22.173
-20.398
-18.458
-16.345
-14.053
-11.576
-8.906
-6.037
-2.964
0.317
3.808
7.509
11.418
15.531
19.842
24.341
29.016
33.852
38.837
43.951
49.175
54.49
59.873
65.301
70.749
76.192
81.602
86.953
92.218
97.367
102.375
107.213
111.855
116.276
120.45
124.356
127.971
131.274
134.247
136.872
139.134
141.019
142.516
143.614
144.306
144.587
144.454
143.907
142.947
141.58
139.81
137.647
135.101
132.184
128.91
125.295
121.356
117.112
112.585
107.795
102.765
97.52
92.082
86.477
80.73
74.865
68.906
62.877
56.803
50.706
44.61
38.535
32.505
26.538
20.654
14.872
9.209
3.68
-1.7
-6.918
-11.962
-16.821
-21.487
-25.95
-30.204
-34.245
-38.067
-41.668
-45.047
-48.204
-51.141
-53.859
-56.363
-58.658
-60.749
-62.643
-64.346
-65.867
-67.213
-68.394
-69.419
-70.296
-71.037
-71.65
-72.147
-72.537
-72.83
-73.036
-73.166
-73.228
-73.231
-73.185
-73.098
-72.977
-72.831
-72.667
-72.492
-72.311
-72.132
-71.957
-71.792
-71.641
-71.505
-71.387
-71.288
-71.209
-71.15
-71.11
-71.088
-71.083
-71.092
-71.113
-71.142
-71.176
-71.211
-71.243
-71.267
-71.28
-71.276
-71.251
-71.202
-71.124
-71.013
-70.867
-70.681
-70.454
-70.183
-69.865
-69.499
-69.084
-68.619
-68.106
-67.543
-66.933
-66.278
-65.58
-64.842
-64.068
-63.26
-62.425
-61.566
-60.689
-59.8
-58.905
-58.01
-57.123
-56.25
-55.399
-54.577
-53.789
-53.043
-52.345
-51.7
-51.114
-50.591
-50.136
-49.752
-49.442
-49.209
-49.053
-48.975
-48.975
-49.051
-49.202
-49.424
-49.714
-50.069
-50.484
-50.953
-51.472
-52.034
-52.632
-53.26
-53.91
-54.572
-55.239
-55.902
-56.55
-57.175
-57.767
-58.318
-58.818
-59.259
-59.633
-59.931
-60.147
-60.274
-60.305
-60.234
-60.058
-59.773
-59.376
-58.865
-58.24
-57.502
-56.651
-55.688
-54.617
-53.442
-52.165
-50.79
-49.324
-47.772
-46.141
-44.439
-42.675
-40.858
-39
-37.113
-35.208
-33.299
-31.4
-29.524
-27.684
-25.893
-24.162
-22.503
-20.929
-19.451
-18.08
-16.827
-15.704
-14.72
-13.888
-13.216
-12.715
-12.388
-12.235
-12.256
-12.452
-12.828
-13.393
-14.154
-15.109
-16.256
-17.594
-19.117
-20.815
-22.66
-24.608
-26.613
-28.636
-30.648
-32.63
-34.562
-36.413
-38.143
-39.702
-41.055
-42.182
-43.062
-43.674
-44.004
-44.049
-43.872
-43.591
-43.316
-43.147
-43.133
-43.286
-43.653
-44.31
-45.357
-46.913
-49.065
-51.831
-55.258
-59.449
-64.372
-69.853
-75.477
-80.537
-84.366
-86.496
-86.613
-84.484
-80.232
-74.247
-67.21
-60.332
-54.794
-51.466
-50.744
-52.39
-55.245
-57.608
-57.524
-52.299
-39.139
-15.393
21.022
70.671
132.401
204.018
282.522
363.521
441.883
511.691
566.808
602.841
617.103
607.919
575.261
521.226
449.365
365.12
275.35
185.943
102.215
29.45
-28.878
-71.256
-97.456
-109.243
-109.934
-102.492
-90.253
-77.233
-66.059
-58.185
-54.439
-54.324
-56.65
-60.54
-64.71
-67.428
-67.863
-65.717
-60.986
-54.382
-46.689
-38.449
-30.384
-23.257
-17.446
-13.162
-10.46
-9.119
-8.965
-9.855
-11.558
-13.87
-16.613
-19.605
-22.696
-25.737
-28.554
-31.012
-33.018
-34.506
-35.453
-35.845
-35.68
-34.995
-33.838
-32.262
-30.327
-28.075
-25.55
-22.814
-19.932
-16.975
-14.016
-11.104
-8.27
-5.539
-2.923
-0.424
1.959
4.243
6.451
8.597
10.694
12.752
14.776
16.779
18.778
20.785
22.815
24.878
26.984
29.144
31.365
33.653
36.011
38.443
40.949
43.533
46.2
48.955
51.803
54.748
57.793
60.943
64.198
67.558
71.02
74.58
78.233
81.971
85.786
89.667
93.606
97.591
101.613
105.66
109.721
113.783
117.833
121.857
125.838
129.759
133.598
137.333
140.944
144.412
147.716
150.84
153.763
156.468
158.943
161.172
163.137
164.819
166.191
167.233
167.936
168.295
168.316
168.012
167.395
166.479
165.288
163.838
162.136
160.18
157.947
155.414
152.577
149.438
146.021
142.347
138.417
134.226
129.77
125.024
119.97
114.584
108.815
102.636
96.061
89.125
81.912
74.526
67.037
59.501
51.96
44.443
37.005
29.702
22.577
15.695
9.122
2.935
-2.749
-7.841
-12.313
-16.168
-19.47
-22.316
-24.767
-26.871
-28.677
-30.211
-31.515
-32.628
-33.567
-34.358
-35.043
-35.681
-36.363
-37.17
-38.128
-39.243
-40.478
-41.768
-43.073
-44.361
-45.595
-46.754
-47.821
-48.782
-49.648
-50.431
-51.126
-51.719
-52.178
-52.469
-52.585
-52.53
-52.323
-51.993
-51.563
-51.053
-50.487
-49.885
-49.256
-48.609
-47.938
-47.234
-46.497
-45.729
-44.938
-44.136
-43.326
-42.513
-41.698
-40.883
-40.067
-39.253
-38.439
-37.625
-36.815
-36.014
-35.23
-34.474
-33.754
-33.078
-32.452
-31.883
-31.376
-30.936
-30.566
-30.27
-30.051
-29.912
-29.856
-29.886
-30.003
-30.208
-30.501
-30.879
-31.34
-31.88
-32.496
-33.182
-33.935
-34.749
-35.619
-36.541
-37.511
-38.522
-39.568
-40.643
-41.737
-42.843
-43.951
-45.05
-46.129
-47.178
-48.19
-49.158
-50.079
-50.949
-51.764
-52.523
-53.225
-53.865
-54.441
-54.946
-55.37
-55.711
-55.968
-56.143
-56.249
-56.291
-56.272
-56.196
-56.064
-55.865
-55.588
-55.205
-54.684
-54.009
-53.171
-52.173
-51.033
-49.765
-48.388
-46.93
-45.401
-43.811
-42.178
-40.498
-38.784
-37.078
-35.43
-33.924
-32.665
-31.72
-31.147
-30.994
-31.262
-31.946
-33.012
-34.385
-36.01
-37.837
-39.816
-41.927
-44.133
-46.344
-48.457
-50.331
-51.794
-52.716
-52.978
-52.451
-51.071
-48.812
-45.698
-41.831
-37.313
-32.233
-26.686
-20.746
-14.513
-8.139
-1.793
4.331
10.017
15.083
19.341
22.582
24.65
25.442
24.916
23.117
20.111
15.968
10.774
4.626
-2.342
-9.959
-18.038
-26.381
-34.792
-43.086
-51.064
-58.514
-65.241
-71.086
-75.944
-79.786
-82.621
-84.478
-85.414
-85.495
-84.814
-83.5
-81.7
-79.579
-77.306
-75.049
-72.947
-71.186
-70.006
-69.494
-69.596
-70.066
-70.366
-69.995
-68.582
-65.65
-60.806
-54.169
-46.168
-37.697
-30.31
-25.213
-23.33
-25.777
-32.801
-43.402
-55.926
-67.656
-74.907
-74.651
-63.923
-39.245
0.977
56.341
125.317
204.23
287.821
371.073
448.006
511.25
555.401
576.83
572.884
543.894
492.428
421.672
336.918
245.716
154.597
69.63
-3.074
-60.134
-100.242
-122.941
-129.982
-125.066
-111.589
-93.508
-75.506
-60.401
-49.738
-44.517
-44.253
-47.682
-53.776
-60.917
-67.022
-71.061
-72.586
-71.487
-68.42
-64.055
-58.865
-53.588
-49.007
-45.518
-43.338
-42.489
-42.732
-43.893
-45.839
-48.36
-51.271
-54.403
-57.599
-60.73
-63.673
-66.319
-68.587
-70.41
-71.751
-72.595
-72.935
-72.786
-72.192
-71.189
-69.824
-68.141
-66.168
-63.956
-61.561
-59.046
-56.48
-53.915
-51.383
-48.909
-46.514
-44.203
-41.979
-39.833
-37.743
-35.692
-33.67
-31.665
-29.672
-27.679
-25.669
-23.627
-21.538
-19.389
-17.17
-14.869
-12.477
-9.985
-7.389
-4.685
-1.871
1.054
4.096
7.258
10.547
13.965
17.514
21.197
25.015
28.97
33.058
37.275
41.616
46.074
50.639
55.304
60.055
64.88
69.764
74.692
79.647
84.612
89.566
94.491
99.366
104.169
108.879
113.474
117.933
122.233
126.353
130.272
133.97
137.427
140.623
143.54
146.16
148.466
150.443
152.077
153.354
154.262
154.794
154.94
154.697
154.06
153.028
151.602
149.786
147.584
145.005
142.058
138.753
135.105
131.128
126.841
122.261
117.409
112.307
106.976
101.442
95.727
89.858
83.858
77.754
71.572
65.336
59.074
52.809
46.568
40.374
34.251
28.223
22.31
16.535
10.915
5.47
0.215
-4.834
-9.664
-14.265
-18.626
-22.739
-26.599
-30.201
-33.543
-36.625
-39.447
-42.013
-44.327
-46.395
-48.226
-49.826
-51.207
-52.38
-53.355
-54.146
-54.766
-55.227
-55.545
-55.733
-55.806
-55.779
-55.664
-55.478
-55.232
-54.94
-54.615
-54.269
-53.912
-53.555
-53.207
-52.877
-52.573
-52.302
-52.069
-51.878
-51.735
-51.641
-51.598
-51.607
-51.669
-51.78
-51.941
-52.147
-52.396
-52.683
-53.004
-53.352
-53.723
-54.11
-54.506
-54.905
-55.301
-55.688
-56.058
-56.406
-56.726
-57.013
-57.262
-57.469
-57.63
-57.74
-57.799
-57.802
-57.749
-57.638
-57.469
-57.241
-56.955
-56.612
-56.213
-55.76
-55.255
-54.701
-54.102
-53.46
-52.781
-52.069
-51.329
-50.567
-49.787
-48.996
-48.201
-47.406
-46.619
-45.843
-45.086
-44.351
-43.645
-42.971
-42.334
-41.738
-41.185
-40.679
-40.222
-39.815
-39.462
-39.161
-38.913
-38.72
-38.58
-38.492
-38.456
-38.47
-38.533
-38.642
-38.797
-38.992
-39.226
-39.494
-39.792
-40.116
-40.459
-40.817
-41.183
-41.551
-41.917
-42.274
-42.617
-42.94
-43.238
-43.505
-43.737
-43.928
-44.074
-44.17
-44.211
-44.196
-44.12
-43.981
-43.778
-43.508
-43.17
-42.763
-42.287
-41.742
-41.13
-40.449
-39.703
-38.893
-38.024
-37.1
-36.127
-35.111
-34.059
-32.981
-31.887
-30.788
-29.695
-28.618
-27.568
-26.557
-25.596
-24.692
-23.854
-23.089
-22.408
-21.821
-21.338
-20.97
-20.725
-20.612
-20.637
-20.809
-21.128
-21.593
-22.203
-22.956
-23.859
-24.924
-26.158
-27.564
-29.144
-30.894
-32.8
-34.841
-36.985
-39.184
-41.397
-43.586
-45.72
-47.785
-49.755
-51.598
-53.274
-54.737
-55.947
-56.876
-57.491
-57.763
-57.706
-57.365
-56.816
-56.173
-55.511
-54.87
-54.309
-53.886
-53.667
-53.76
-54.246
-55.158
-56.591
-58.681
-61.427
-64.728
-68.245
-71.348
-73.505
-74.318
-73.329
-70.215
-65.025
-58.06
-50.243
-43.073
-37.659
-34.818
-35.269
-38.95
-45.031
-52.215
-57.952
-58.842
-52.002
-34.565
-3.961
40.65
98.899
169.496
248.922
332.232
414.237
488.499
548.427
589.295
607.363
600.11
567.889
512.979
439.046
352.368
260.304
169.4
86.21
16.331
-37.146
-72.721
-90.514
-93.213
-84.741
-69.162
-51.187
-34.834
-22.47
-15.638
-14.818
-19.069
-26.893
-36.497
-45.614
-52.63
-56.868
-57.994
-56.226
-52.233
-46.711
-40.532
-34.724
-29.888
-26.254
-23.921
-22.761
-22.628
-23.448
-25.039
-27.167
-29.686
-32.478
-35.449
-38.54
-41.622
-44.521
-47.114
-49.311
-51.061
-52.361
-53.199
-53.57
-53.497
-53.017
-52.172
-51.008
-49.556
-47.846
-45.922
-43.836
-41.653
-39.443
-37.256
-35.127
-33.079
-31.121
-29.258
-27.489
-25.799
-24.17
-22.584
-21.028
-19.493
-17.971
-16.449
-14.91
-13.339
-11.718
-10.031
-8.265
-6.407
-4.446
-2.373
-0.179
2.139
4.586
7.166
9.884
12.746
15.757
18.919
22.236
25.709
29.34
33.126
37.064
41.151
45.378
49.738
54.223
58.82
63.517
68.299
73.151
78.056
82.994
87.947
92.892
97.809
102.675
107.465
112.158
116.729
121.154
125.409
129.471
133.316
136.923
140.27
143.335
146.101
148.549
150.663
152.427
153.829
154.856
155.499
155.75
155.602
155.053
154.1
152.744
150.988
148.837
146.299
143.382
140.1
136.466
132.496
128.206
123.618
118.75
113.625
108.267
102.7
96.949
91.039
84.998
78.852
72.629
66.354
60.055
53.757
47.487
41.267
35.123
29.078
23.152
17.368
11.744
6.299
1.051
-3.988
-8.801
-13.379
-17.712
-21.791
-25.611
-29.168
-32.461
-35.488
-38.251
-40.752
-42.997
-44.991
-46.741
-48.255
-49.544
-50.618
-51.488
-52.168
-52.67
-53.007
-53.194
-53.244
-53.172
-52.992
-52.717
-52.362
-51.941
-51.467
-50.953
-50.413
-49.857
-49.298
-48.747
-48.212
-47.703
-47.226
-46.789
-46.397
-46.054
-45.764
-45.528
-45.349
-45.228
-45.163
-45.154
-45.199
-45.295
-45.439
-45.627
-45.854
-46.115
-46.405
-46.718
-47.048
-47.389
-47.735
-48.08
-48.417
-48.74
-49.042
-49.318
-49.56
-49.763
-49.921
-50.029
-50.083
-50.077
-50.01
-49.878
-49.679
-49.412
-49.076
-48.672
-48.199
-47.66
-47.056
-46.39
-45.665
-44.885
-44.055
-43.178
-42.261
-41.309
-40.328
-39.324
-38.304
-37.275
-36.242
-35.213
-34.196
-33.196
-32.221
-31.279
-30.376
-29.519
-28.717
-27.974
-27.297
-26.692
-26.164
-25.717
-25.355
-25.082
-24.9
-24.81
-24.814
-24.911
-25.102
-25.385
-25.758
-26.217
-26.76
-27.381
-28.077
-28.84
-29.665
-30.545
-31.474
-32.443
-33.446
-34.474
-35.518
-36.57
-37.621
-38.661
-39.681
-40.671
-41.62
-42.518
-43.358
-44.128
-44.821
-45.427
-45.938
-46.348
-46.649
-46.837
-46.904
-46.847
-46.662
-46.348
-45.902
-45.325
-44.617
-43.78
-42.818
-41.735
-40.535
-39.225
-37.812
-36.301
-34.703
-33.027
-31.282
-29.48
-27.632
-25.751
-23.854
-21.955
-20.072
-18.221
-16.42
-14.684
-13.033
-11.481
-10.042
-8.728
-7.551
-6.525
-5.661
-4.973
-4.472
-4.17
-4.073
-4.19
-4.527
-5.084
-5.857
-6.842
-8.032
-9.43
-11.042
-12.869
-14.91
-17.161
-19.616
-22.259
-25.065
-27.998
-31.007
-34.044
-37.063
-40.027
-42.908
-45.669
-48.269
-50.661
-52.793
-54.625
-56.123
-57.249
-57.969
-58.289
-58.253
-57.93
-57.431
-56.834
-56.183
-55.551
-55.017
-54.667
-54.626
-54.991
-55.8
-57.153
-59.19
-61.912
-65.229
-68.808
-72.016
-74.31
-75.268
-74.409
-71.396
-66.247
-59.219
-51.205
-43.681
-37.787
-34.434
-34.388
-37.584
-43.178
-49.803
-54.83
-54.797
-46.675
-27.439
5.476
52.801
113.955
187.317
269.069
353.947
436.412
509.94
568.072
606.369
621.562
611.415
576.457
519.362
444.055
356.527
263.774
171.708
86.127
12.793
-44.888
-85.55
-109.122
-117.649
-114.512
-102.775
-86.18
-69.227
-54.827
-44.608
-39.48
-38.936
-41.833
-47.282
-53.791
-59.326
-62.823
-63.819
-62.23
-58.734
-54.023
-48.559
-43.064
-38.333
-34.779
-32.619
-31.873
-32.272
-33.62
-35.767
-38.493
-41.604
-44.923
-48.282
-51.545
-54.586
-57.289
-59.566
-61.352
-62.607
-63.317
-63.477
-63.11
-62.27
-61.003
-59.364
-57.402
-55.152
-52.666
-50.005
-47.234
-44.426
-41.634
-38.892
-36.227
-33.66
-31.2
-28.851
-26.602
-24.43
-22.318
-20.256
-18.232
-16.239
-14.268
-12.3
-10.321
-8.315
-6.27
-4.174
-2.015
0.218
2.535
4.943
7.445
10.045
12.747
15.556
18.479
21.521
24.687
27.98
31.403
34.961
38.654
42.481
46.438
50.52
54.721
59.033
63.448
67.954
72.539
77.19
81.892
86.63
91.387
96.144
100.883
105.582
110.222
114.781
119.236
123.566
127.748
131.762
135.585
139.197
142.578
145.707
148.567
151.14
153.407
155.354
156.965
158.227
159.129
159.66
159.814
159.586
158.971
157.97
156.584
154.815
152.669
150.152
147.274
144.046
140.48
136.59
132.395
127.911
123.159
118.16
112.937
107.511
101.907
96.15
90.262
84.27
78.197
72.069
65.912
59.749
53.605
47.504
41.471
35.527
29.694
23.992
18.439
13.053
7.849
2.842
-1.957
-6.536
-10.887
-15.002
-18.876
-22.504
-25.884
-29.017
-31.904
-34.548
-36.955
-39.129
-41.08
-42.813
-44.34
-45.67
-46.814
-47.783
-48.59
-49.246
-49.766
-50.163
-50.45
-50.642
-50.753
-50.796
-50.784
-50.73
-50.646
-50.543
-50.433
-50.323
-50.225
-50.146
-50.093
-50.073
-50.091
-50.151
-50.257
-50.41
-50.613
-50.865
-51.166
-51.515
-51.909
-52.347
-52.825
-53.341
-53.89
-54.469
-55.073
-55.697
-56.335
-56.984
-57.636
-58.286
-58.93
-59.561
-60.174
-60.765
-61.328
-61.861
-62.359
-62.819
-63.238
-63.614
-63.945
-64.23
-64.469
-64.661
-64.808
-64.911
-64.97
-64.99
-64.971
-64.917
-64.83
-64.716
-64.576
-64.415
-64.236
-64.044
-63.843
-63.637
-63.431
-63.229
-63.035
-62.854
-62.692
-62.551
-62.436
-62.353
-62.303
-62.292
-62.322
-62.397
-62.518
-62.688
-62.909
-63.181
-63.506
-63.883
-64.312
-64.793
-65.325
-65.907
-66.536
-67.211
-67.929
-68.688
-69.485
-70.317
-71.18
-72.072
-72.988
-73.924
-74.878
-75.844
-76.818
-77.795
-78.77
-79.737
-80.69
-81.625
-82.534
-83.411
-84.251
-85.048
-85.796
-86.49
-87.124
-87.693
-88.192
-88.617
-88.963
-89.226
-89.402
-89.486
-89.476
-89.368
-89.161
-88.852
-88.439
-87.92
-87.294
-86.561
-85.721
-84.772
-83.716
-82.552
-81.284
-79.913
-78.444
-76.879
-75.224
-73.484
-71.668
-69.783
-67.837
-65.837
-63.794
-61.717
-59.616
-57.502
-55.385
-53.275
-51.186
-49.131
-47.124
-45.182
-43.317
-41.544
-39.878
-38.334
-36.924
-35.661
-34.551
-33.601
-32.821
-32.22
-31.809
-31.595
-31.583
-31.777
-32.18
-32.792
-33.612
-34.633
-35.843
-37.23
-38.79
-40.52
-42.429
-44.518
-46.784
-49.217
-51.805
-54.526
-57.361
-60.276
-63.225
-66.164
-69.054
-71.857
-74.549
-77.089
-79.431
-81.524
-83.302
-84.709
-85.698
-86.234
-86.315
-85.957
-85.182
-84.031
-82.542
-80.772
-78.818
-76.777
-74.753
-72.875
-71.21
-69.884
-69.148
-69.06
-69.538
-70.345
-70.885
-70.624
-69.315
-66.536
-61.781
-55.158
-47.031
-38.264
-30.71
-25.772
-24.197
-26.995
-34.659
-46.344
-60.632
-74.947
-84.97
-87.069
-78.278
-55.065
-15.184
41.539
114.19
199.683
292.267
386.132
475.175
551.84
609.615
643.877
650.986
629.905
582.849
513.348
426.471
329.57
230.137
134.956
50.823
-17.166
-66.712
-97.223
-109.854
-107.783
-94.903
-75.227
-53.469
-33.85
-18.832
-9.669
-6.503
-8.388
-14.05
-22.132
-30.754
-38.066
-43.107
-45.542
-45.578
-43.861
-40.99
-37.479
-33.992
-31.199
-29.449
-28.862
-29.363
-30.696
-32.661
-35.114
-37.873
-40.748
-43.591
-46.266
-48.65
-50.679
-52.295
-53.448
-54.119
-54.298
-53.981
-53.19
-51.965
-50.351
-48.403
-46.167
-43.683
-40.998
-38.167
-35.254
-32.33
-29.449
-26.648
-23.954
-21.386
-18.957
-16.676
-14.538
-12.526
-10.623
-8.817
-7.096
-5.452
-3.873
-2.341
-0.834
0.667
2.182
3.724
5.311
6.959
8.684
10.497
12.41
14.429
16.564
18.826
21.226
23.773
26.478
29.346
32.385
35.602
39
42.581
46.343
50.284
54.398
58.68
63.122
67.713
72.441
77.292
82.251
87.299
92.419
97.59
102.788
107.99
113.172
118.309
123.376
128.345
133.192
137.89
142.414
146.739
150.841
154.697
158.283
161.578
164.562
167.216
169.522
171.464
173.029
174.205
174.983
175.355
175.317
174.866
174
172.723
171.036
168.948
166.464
163.598
160.36
156.767
152.835
148.583
144.033
139.206
134.125
128.816
123.304
117.614
111.774
105.808
99.746
93.612
87.436
81.242
75.057
68.906
62.814
56.805
50.901
45.123
39.491
34.024
28.739
23.653
18.779
14.13
9.718
5.552
1.64
-2.013
-5.401
-8.524
-11.381
-13.975
-16.308
-18.385
-20.213
-21.8
-23.155
-24.286
-25.206
-25.926
-26.457
-26.813
-27.007
-27.053
-26.964
-26.756
-26.44
-26.032
-25.545
-24.991
-24.384
-23.735
-23.057
-22.362
-21.66
-20.962
-20.278
-19.617
-18.988
-18.397
-17.851
-17.355
-16.913
-16.529
-16.203
-15.938
-15.732
-15.587
-15.5
-15.47
-15.494
-15.57
-15.693
-15.86
-16.068
-16.31
-16.584
-16.883
-17.204
-17.543
-17.894
-18.253
-18.616
-18.98
-19.34
-19.692
-20.033
-20.358
-20.665
-20.951
-21.212
-21.447
-21.655
-21.833
-21.983
-22.103
-22.195
-22.26
-22.299
-22.315
-22.308
-22.283
-22.24
-22.183
-22.115
-22.039
-21.957
-21.872
-21.788
-21.707
-21.631
-21.563
-21.505
-21.459
-21.426
-21.407
-21.406
-21.422
-21.458
-21.514
-21.592
-21.692
-21.816
-21.963
-22.134
-22.328
-22.544
-22.782
-23.041
-23.318
-23.613
-23.923
-24.247
-24.582
-24.929
-25.284
-25.646
-26.014
-26.386
-26.762
-27.139
-27.518
-27.897
-28.277
-28.657
-29.036
-29.415
-29.794
-30.173
-30.55
-30.927
-31.302
-31.674
-32.043
-32.407
-32.767
-33.119
-33.465
-33.802
-34.13
-34.449
-34.755
-35.05
-35.33
-35.595
-35.843
-36.071
-36.277
-36.458
-36.611
-36.732
-36.82
-36.869
-36.878
-36.841
-36.756
-36.619
-36.428
-36.178
-35.867
-35.493
-35.053
-34.547
-33.974
-33.335
-32.631
-31.862
-31.033
-30.147
-29.207
-28.218
-27.184
-26.11
-25.004
-23.872
-22.72
-21.558
-20.393
-19.239
-18.108
-17.015
-15.972
-14.994
-14.095
-13.289
-12.589
-12.006
-11.548
-11.222
-11.04
-11.011
-11.147
-11.455
-11.942
-12.611
-13.466
-14.51
-15.739
-17.148
-18.728
-20.473
-22.381
-24.458
-26.713
-29.152
-31.771
-34.559
-37.506
-40.592
-43.796
-47.079
-50.394
-53.69
-56.924
-60.062
-63.068
-65.894
-68.485
-70.779
-72.708
-74.219
-75.278
-75.866
-75.981
-75.641
-74.87
-73.712
-72.246
-70.582
-68.838
-67.132
-65.595
-64.336
-63.507
-63.344
-63.933
-65.204
-66.942
-68.704
-70.072
-70.822
-70.584
-68.852
-65.573
-61.041
-56.001
-51.806
-49.436
-49.265
-51.828
-57.636
-66.273
-76.562
-86.27
-92.148
-91.66
-82.958
-63.926
-32.495
12.371
70.319
139.193
215.501
295.939
376.895
453.731
521.011
573.371
606.86
619.23
609.122
575.829
520.388
445.904
357.447
261.419
163.718
69.638
-14.92
-84.377
-135.405
-166.985
-180.121
-177.539
-162.11
-136.744
-106.219
-76.154
-50.304
-30.666
-18.079
-12.17
-12.64
-19.502
-30.844
-43.35
-54.982
-64.73
-72.136
-77.556
-80.936
-81.581
-80.033
-77.873
-76.037
-75.096
-75.234
-76.019
-77.389
-79.72
-82.867
-86.298
-89.619
-92.415
-94.523
-96.109
-97.188
-97.663
-97.537
-96.83
-95.606
-93.998
-92.07
-89.824
-87.288
-84.484
-81.456
-78.282
-75.029
-71.758
-68.517
-65.33
-62.219
-59.202
-56.29
-53.498
-50.828
-48.265
-45.801
-43.432
-41.156
-38.979
-36.896
-34.886
-32.931
-31.009
-29.103
-27.201
-25.285
-23.336
-21.335
-19.268
-17.122
-14.895
-12.576
-10.149
-7.597
-4.897
-2.033
0.999
4.204
7.588
11.146
14.867
18.727
22.684
26.71
30.789
34.912
39.086
43.31
47.581
51.899
56.265
60.68
65.152
69.678
74.244
78.856
83.531
88.309
93.264
98.431
103.81
109.387
115.121
120.958
126.846
132.702
138.421
143.91
149.081
153.869
158.235
162.113
165.417
168.042
169.851
170.749
170.693
169.652
167.624
164.638
160.734
156.003
150.582
144.585
138.106
131.224
123.982
116.454
108.733
100.921
93.139
85.485
78.023
70.817
63.918
57.351
51.123
45.204
39.52
34.024
28.691
23.51
18.491
13.633
8.921
4.347
-0.1
-4.426
-8.632
-12.722
-16.706
-20.579
-24.326
-27.917
-31.305
-34.458
-37.36
-39.999
-42.376
-44.493
-46.351
-47.958
-49.331
-50.486
-51.435
-52.188
-52.752
-53.14
-53.367
-53.452
-53.416
-53.279
-53.056
-52.762
-52.411
-52.016
-51.588
-51.134
-50.658
-50.168
-49.669
-49.168
-48.674
-48.193
-47.729
-47.289
-46.877
-46.498
-46.154
-45.846
-45.577
-45.344
-45.148
-44.988
-44.863
-44.768
-44.703
-44.664
-44.649
-44.653
-44.674
-44.708
-44.752
-44.804
-44.86
-44.917
-44.974
-45.027
-45.075
-45.114
-45.144
-45.163
-45.169
-45.159
-45.134
-45.091
-45.03
-44.949
-44.848
-44.726
-44.583
-44.418
-44.231
-44.023
-43.795
-43.547
-43.281
-42.999
-42.702
-42.392
-42.07
-41.74
-41.402
-41.058
-40.709
-40.358
-40.005
-39.651
-39.299
-38.95
-38.605
-38.267
-37.937
-37.617
-37.311
-37.019
-36.743
-36.486
-36.25
-36.036
-35.847
-35.685
-35.552
-35.45
-35.382
-35.348
-35.351
-35.393
-35.472
-35.592
-35.751
-35.95
-36.189
-36.467
-36.785
-37.143
-37.54
-37.975
-38.449
-38.958
-39.503
-40.081
-40.69
-41.325
-41.985
-42.665
-43.361
-44.068
-44.782
-45.498
-46.21
-46.913
-47.6
-48.266
-48.903
-49.504
-50.064
-50.575
-51.031
-51.425
-51.752
-52.005
-52.178
-52.267
-52.267
-52.172
-51.979
-51.682
-51.277
-50.762
-50.134
-49.39
-48.529
-47.55
-46.454
-45.242
-43.916
-42.48
-40.936
-39.287
-37.54
-35.7
-33.775
-31.773
-29.703
-27.573
-25.395
-23.181
-20.943
-18.696
-16.45
-14.217
-12.014
-9.858
-7.767
-5.76
-3.853
-2.062
-0.403
1.109
2.459
3.635
4.628
5.431
6.037
6.439
6.626
6.588
6.319
5.825
5.114
4.194
3.074
1.755
0.236
-1.479
-3.394
-5.506
-7.809
-10.309
-13.005
-15.887
-18.928
-22.078
-25.287
-28.533
-31.823
-35.171
-38.56
-41.903
-45.077
-47.988
-50.567
-52.823
-54.735
-56.146
-56.999
-57.421
-57.727
-58.351
-59.52
-61.041
-62.672
-64.434
-66.223
-67.769
-68.449
-67.261
-63.787
-58.387
-51.623
-44.014
-36.263
-29.195
-24.149
-22.884
-26.2
-34.034
-45.991
-61.133
-78.076
-95.006
-109.428
-118.777
-121.607
-117.23
-105.133
-85.477
-59.089
-27.561
7.022
43.13
80.504
119.733
161.047
204.469
250.356
299.389
351.655
405.83
458.732
505.608
542.302
565.643
572.414
559.888
527.177
475.351
407.891
330.697
249.414
169.064
95.186
32.601
-15.807
-48.679
-66.757
-72.984
-70.24
-61.461
-50.47
-40.462
-33.459
-30.759
-32.364
-37.141
-44.109
-52.067
-59.28
-64.597
-67.406
-67.413
-64.994
-60.842
-55.542
-49.819
-44.5
-40.065
-36.776
-34.755
-33.877
-34.005
-35.027
-36.747
-38.951
-41.483
-44.227
-47.085
-49.979
-52.785
-55.349
-57.56
-59.348
-60.677
-61.537
-61.92
-61.831
-61.297
-60.37
-59.104
-57.547
-55.74
-53.717
-51.524
-49.219
-46.864
-44.523
-42.241
-40.049
-37.963
-35.99
-34.132
-32.38
-30.718
-29.121
-27.566
-26.037
-24.519
-23
-21.464
-19.89
-18.259
-16.551
-14.748
-12.834
-10.795
-8.618
-6.293
-3.811
-1.166
1.644
4.624
7.779
11.113
14.629
18.331
22.218
26.29
30.544
34.978
39.582
44.348
49.263
54.315
59.488
64.766
70.13
75.56
81.036
86.535
92.036
97.514
102.944
108.302
113.563
118.7
123.69
128.506
133.123
137.519
141.671
145.555
149.153
152.443
155.408
158.031
160.297
162.191
163.703
164.823
165.542
165.855
165.76
165.255
164.343
163.028
161.316
159.216
156.737
153.893
150.698
147.166
143.316
139.167
134.738
130.052
125.131
119.998
114.679
109.197
103.578
97.848
92.033
86.158
80.247
74.328
68.423
62.557
56.753
51.033
45.418
39.929
34.583
29.399
24.391
19.573
14.959
10.558
6.379
2.431
-1.281
-4.752
-7.98
-10.963
-13.7
-16.193
-18.444
-20.457
-22.238
-23.792
-25.126
-26.25
-27.171
-27.9
-28.447
-28.823
-29.041
-29.111
-29.047
-28.86
-28.563
-28.168
-27.687
-27.131
-26.512
-25.84
-25.124
-24.375
-23.6
-22.806
-22.002
-21.192
-20.382
-19.577
-18.782
-17.999
-17.231
-16.481
-15.75
-15.04
-14.351
-13.682
-13.033
-12.403
-11.79
-11.191
-10.604
-10.026
-9.453
-8.881
-8.307
-7.727
-7.137
-6.533
-5.911
-5.268
-4.6
-3.906
-3.183
-2.43
-1.645
-0.829
0.019
0.898
1.806
2.742
3.704
4.689
5.696
6.72
7.76
8.812
9.872
10.937
12.001
13.062
14.113
15.151
16.169
17.165
18.131
19.062
19.954
20.802
21.6
22.343
23.027
23.647
24.2
24.682
25.091
25.424
25.679
25.857
25.957
25.979
25.924
25.794
25.591
25.316
24.973
24.563
24.09
23.556
22.967
22.324
21.632
20.895
20.117
19.301
18.452
17.575
16.672
15.749
14.809
13.856
12.895
11.929
10.962
9.997
9.037
8.085
7.143
6.214
5.298
4.396
3.509
2.637
1.78
0.938
0.109
-0.707
-1.511
-2.305
-3.09
-3.867
-4.638
-5.404
-6.166
-6.925
-7.681
-8.435
-9.187
-9.937
-10.685
-11.43
-12.171
-12.908
-13.64
-14.365
-15.082
-15.79
-16.487
-17.17
-17.838
-18.488
-19.12
-19.731
-20.318
-20.88
-21.415
-21.922
-22.4
-22.849
-23.267
-23.655
-24.011
-24.338
-24.637
-24.909
-25.157
-25.387
-25.603
-25.814
-26.028
-26.254
-26.502
-26.78
-27.099
-27.47
-27.9
-28.397
-28.969
-29.626
-30.38
-31.241
-32.222
-33.329
-34.571
-35.956
-37.49
-39.175
-41.009
-42.991
-45.123
-47.411
-49.868
-52.508
-55.332
-58.343
-61.538
-64.904
-68.425
-72.074
-75.809
-79.591
-83.386
-87.159
-90.892
-94.551
-98.088
-101.45
-104.573
-107.402
-109.901
-112.029
-113.753
-115.088
-116.059
-116.723
-117.172
-117.451
-117.611
-117.737
-117.894
-118.198
-118.784
-119.735
-121.192
-123.329
-126.139
-129.53
-133.275
-136.855
-139.839
-141.907
-142.53
-141.338
-138.444
-134.174
-129.345
-125.21
-122.494
-121.702
-123.554
-128.135
-134.668
-141.754
-146.911
-147.246
-140.744
-125.392
-98.943
-60.224
-9.078
53.304
123.919
199.373
276.506
351.066
418.069
473.058
511.807
531.658
531.7
511.032
469.836
410.614
337.167
254.208
167.565
82.183
2.568
-65.906
-119.625
-157.3
-178.777
-185.629
-180.869
-167.252
-148.276
-128.656
-111.578
-98.804
-91.459
-89.261
-91.288
-96.815
-104.329
-111.622
-117.436
-121.166
-122.614
-122.337
-120.87
-118.53
-115.95
-113.895
-112.765
-112.724
-113.7
-115.322
-117.304
-119.457
-121.56
-123.421
-124.888
-125.841
-126.198
-125.924
-125.041
-123.579
-121.585
-119.125
-116.263
-113.087
-109.739
-106.388
-103.191
-100.281
-97.75
-95.658
-94.079
-93.06
-92.64
-92.845
-93.608
-94.841
-96.453
-98.32
-100.343
-102.428
-104.446
-106.265
-107.774
-108.868
-109.475
-109.544
-109.006
-107.817
-105.939
-103.33
-100.035
-96.115
-91.648
-86.755
-81.525
-76.021
-70.321
-64.491
-58.578
-52.638
-46.705
-40.794
-34.941
-29.179
-23.547
-18.104
-12.855
-7.783
-2.855
2.001
6.829
11.649
16.486
21.357
26.264
31.212
36.19
41.164
46.123
51.059
55.972
60.881
65.783
70.654
75.466
80.173
84.736
89.129
93.321
97.282
100.99
104.425
107.578
110.451
113.04
115.333
117.318
118.975
120.292
121.261
121.877
122.137
122.042
121.588
120.781
119.626
118.129
116.295
114.128
111.63
108.807
105.667
102.22
98.479
94.456
90.167
85.627
80.857
75.875
70.7
65.354
59.853
54.22
48.476
42.641
36.736
30.785
24.808
18.827
12.866
6.946
1.088
-4.686
-10.356
-15.902
-21.305
-26.548
-31.614
-36.486
-41.152
-45.597
-49.81
-53.781
-57.502
-60.966
-64.167
-67.103
-69.772
-72.174
-74.311
-76.187
-77.806
-79.174
-80.299
-81.188
-81.851
-82.298
-82.539
-82.587
-82.454
-82.153
-81.697
-81.1
-80.377
-79.541
-78.607
-77.591
-76.505
-75.364
-74.183
-72.972
-71.746
-70.516
-69.292
-68.084
-66.901
-65.751
-64.64
-63.574
-62.556
-61.591
-60.679
-59.823
-59.021
-58.273
-57.577
-56.93
-56.33
-55.771
-55.251
-54.764
-54.305
-53.869
-53.449
-53.04
-52.634
-52.226
-51.809
-51.376
-50.921
-50.438
-49.92
-49.362
-48.76
-48.108
-47.403
-46.642
-45.822
-44.94
-43.997
-42.991
-41.922
-40.792
-39.602
-38.355
-37.053
-35.699
-34.298
-32.853
-31.368
-29.847
-28.295
-26.716
-25.115
-23.496
-21.865
-20.226
-18.585
-16.947
-15.316
-13.698
-12.098
-10.52
-8.968
-7.447
-5.961
-4.512
-3.103
-1.738
-0.418
0.855
2.08
3.254
4.379
5.455
6.48
7.457
8.386
9.268
10.105
10.897
11.645
12.35
13.014
13.637
14.22
14.764
15.27
15.741
16.178
16.583
16.958
17.306
17.629
17.929
18.209
18.473
18.722
18.96
19.188
19.41
19.629
19.847
20.068
20.292
20.524
20.765
21.017
21.284
21.568
21.871
22.195
22.543
22.918
23.324
23.764
24.24
24.756
25.314
25.916
26.566
27.263
28.009
28.802
29.644
30.531
31.464
32.439
33.452
34.501
35.58
36.686
37.812
38.953
40.101
41.25
42.391
43.516
44.616
45.681
46.698
47.658
48.548
49.358
50.074
50.685
51.18
51.551
51.789
51.884
51.828
51.613
51.23
50.672
49.931
49.001
47.876
46.555
45.046
43.353
41.481
39.436
37.212
34.812
32.243
29.505
26.607
23.56
20.383
17.115
13.811
10.523
7.303
4.194
1.22
-1.581
-4.169
-6.505
-8.538
-10.236
-11.581
-12.534
-13.063
-13.163
-12.855
-12.233
-11.433
-10.57
-9.738
-8.995
-8.385
-7.998
-7.926
-8.268
-9.115
-10.485
-12.437
-15.139
-18.613
-22.684
-26.948
-30.605
-32.851
-33.153
-30.941
-25.768
-17.697
-7.188
4.581
15.609
24.076
28.62
28.289
23.118
14.178
3.57
-5.261
-7.917
0.392
23.836
64.97
124.919
200.797
287.762
382.561
478.172
570.785
657.481
724.589
765.277
772.065
733.69
660.571
559.513
436.684
315.432
202.827
107.586
44.225
4.323
-16.654
-22.236
-24.564
-22.334
-14.2
-4.109
7.616
16.878
19.732
16.561
8.447
-2.615
-14.273
-24.675
-32.552
-37.259
-38.483
-36.542
-32.234
-26.325
-19.754
-13.528
-8.194
-4.029
-1.172
0.498
1.106
0.715
-0.49
-2.299
-4.574
-7.186
-10.065
-13.163
-16.363
-19.508
-22.435
-25.016
-27.189
-28.929
-30.219
-31.05
-31.423
-31.361
-30.917
-30.144
-29.085
-27.783
-26.274
-24.605
-22.844
-21.057
-19.315
-17.667
-16.142
-14.754
-13.509
-12.408
-11.443
-10.598
-9.846
-9.164
-8.537
-7.948
-7.384
-6.827
-6.254
-5.643
-4.972
-4.221
-3.373
-2.411
-1.321
-0.089
1.294
2.839
4.551
6.439
8.512
10.777
13.244
15.918
18.804
21.904
25.22
28.751
32.493
36.439
40.58
44.906
49.403
54.057
58.852
63.768
68.786
73.885
79.042
84.233
89.433
94.615
99.755
104.825
109.798
114.647
119.345
123.866
128.182
132.269
136.101
139.652
142.901
145.823
148.399
150.609
152.436
153.864
154.879
155.471
155.631
155.353
154.633
153.472
151.87
149.833
147.366
144.48
141.185
137.497
133.43
129.002
124.234
119.145
113.76
108.1
102.193
96.062
89.736
83.24
76.604
69.854
63.019
56.128
49.207
42.286
35.39
28.547
21.781
15.117
8.577
2.184
-4.043
-10.086
-15.927
-21.553
-26.95
-32.107
-37.017
-41.671
-46.066
-50.197
-54.065
-57.67
-61.013
-64.099
-66.932
-69.52
-71.869
-73.988
-75.886
-77.574
-79.062
-80.362
-81.487
-82.447
-83.257
-83.927
-84.471
-84.902
-85.231
-85.47
-85.631
-85.725
-85.762
-85.751
-85.703
-85.624
-85.523
-85.405
-85.276
-85.14
-85.002
-84.863
-84.725
-84.59
-84.456
-84.325
-84.195
-84.065
-83.932
-83.795
-83.651
-83.497
-83.332
-83.153
-82.957
-82.741
-82.505
-82.244
-81.96
-81.648
-81.309
-80.942
-80.546
-80.12
-79.665
-79.18
-78.668
-78.128
-77.562
-76.971
-76.359
-75.727
-75.079
-74.418
-73.747
-73.07
-72.391
-71.715
-71.045
-70.385
-69.74
-69.114
-68.51
-67.932
-67.384
-66.869
-66.388
-65.945
-65.541
-65.177
-64.854
-64.574
-64.337
-64.143
-63.992
-63.884
-63.818
-63.795
-63.814
-63.873
-63.971
-64.109
-64.283
-64.493
-64.738
-65.016
-65.324
-65.663
-66.029
-66.422
-66.839
-67.278
-67.738
-68.217
-68.713
-69.225
-69.751
-70.29
-70.84
-71.402
-71.973
-72.553
-73.141
-73.735
-74.336
-74.94
-75.546
-76.154
-76.759
-77.362
-77.958
-78.547
-79.125
-79.69
-80.238
-80.766
-81.27
-81.746
-82.189
-82.595
-82.959
-83.276
-83.541
-83.75
-83.898
-83.981
-83.994
-83.931
-83.789
-83.563
-83.249
-82.842
-82.339
-81.735
-81.03
-80.221
-79.306
-78.286
-77.161
-75.93
-74.596
-73.162
-71.629
-70
-68.281
-66.477
-64.594
-62.639
-60.623
-58.555
-56.446
-54.31
-52.16
-50.01
-47.875
-45.768
-43.706
-41.701
-39.768
-37.92
-36.169
-34.53
-33.016
-31.641
-30.417
-29.358
-28.478
-27.788
-27.302
-27.027
-26.965
-27.116
-27.487
-28.082
-28.916
-29.997
-31.322
-32.887
-34.693
-36.728
-38.979
-41.412
-43.968
-46.588
-49.22
-51.819
-54.354
-56.791
-59.082
-61.172
-63.004
-64.536
-65.753
-66.642
-67.171
-67.336
-67.156
-66.71
-66.154
-65.636
-65.277
-65.166
-65.359
-65.931
-66.997
-68.674
-71.073
-74.271
-78.242
-82.992
-88.607
-95.009
-101.97
-109.017
-115.352
-120.217
-123.101
-123.593
-121.372
-116.471
-109.109
-99.906
-90.123
-80.997
-73.535
-68.227
-64.787
-62.16
-58.946
-53.286
-42.498
-23.737
5.902
48.417
103.965
171.211
247.878
330.601
414.626
494.276
562.813
613.829
642.996
647.552
626.066
579.196
509.64
421.848
322.621
219.67
119.704
29.021
-47.046
-105.462
-144.95
-165.897
-171.139
-164.684
-150.563
-133.399
-117.217
-104.356
-96.259
-93.322
-94.58
-98.684
-104.078
-108.683
-111.027
-110.559
-107.109
-101.122
-93.443
-84.792
-76.011
-68.063
-61.495
-56.542
-53.279
-51.498
-50.973
-51.539
-52.941
-54.918
-57.285
-59.863
-62.5
-65.062
-67.371
-69.283
-70.705
-71.567
-71.854
-71.561
-70.693
-69.295
-67.426
-65.146
-62.519
-59.597
-56.423
-53.059
-49.575
-46.045
-42.547
-39.138
-35.853
-32.72
-29.753
-26.953
-24.318
-21.828
-19.455
-17.18
-14.984
-12.854
-10.779
-8.741
-6.718
-4.692
-2.643
-0.553
1.591
3.804
6.098
8.483
10.965
13.548
16.236
19.031
21.94
24.967
28.117
31.392
34.796
38.329
41.992
45.785
49.704
53.745
57.901
62.166
66.53
70.984
75.515
80.111
84.757
89.436
94.132
98.826
103.498
108.129
112.697
117.181
121.562
125.818
129.929
133.874
137.634
141.19
144.524
147.62
150.46
153.029
155.313
157.299
158.975
160.33
161.353
162.036
162.373
162.357
161.984
161.253
160.162
158.714
156.911
154.758
152.264
149.437
146.289
142.832
139.082
135.054
130.767
126.238
121.486
116.532
111.396
106.1
100.662
95.106
89.45
83.717
77.925
72.096
66.249
60.403
54.578
48.79
43.06
37.404
31.84
26.383
21.049
15.854
10.809
5.928
1.221
-3.303
-7.634
-11.769
-15.701
-19.428
-22.95
-26.264
-29.375
-32.283
-34.992
-37.507
-39.832
-41.974
-43.938
-45.731
-47.359
-48.828
-50.146
-51.318
-52.353
-53.256
-54.034
-54.693
-55.242
-55.686
-56.033
-56.29
-56.463
-56.561
-56.589
-56.554
-56.463
-56.322
-56.135
-55.907
-55.642
-55.344
-55.014
-54.656
-54.269
-53.856
-53.416
-52.951
-52.461
-51.946
-51.406
-50.842
-50.255
-49.645
-49.013
-48.362
-47.694
-47.01
-46.314
-45.609
-44.898
-44.185
-43.472
-42.764
-42.064
-41.374
-40.697
-40.037
-39.395
-38.776
-38.18
-37.612
-37.075
-36.57
-36.102
-35.673
-35.286
-34.944
-34.65
-34.405
-34.213
-34.075
-33.994
-33.97
-34.006
-34.102
-34.257
-34.472
-34.746
-35.077
-35.462
-35.899
-36.382
-36.909
-37.474
-38.074
-38.703
-39.358
-40.035
-40.728
-41.435
-42.152
-42.873
-43.597
-44.318
-45.033
-45.739
-46.433
-47.111
-47.771
-48.412
-49.03
-49.623
-50.189
-50.726
-51.231
-51.701
-52.133
-52.525
-52.873
-53.175
-53.428
-53.631
-53.784
-53.886
-53.94
-53.946
-53.907
-53.824
-53.699
-53.532
-53.322
-53.064
-52.754
-52.389
-51.966
-51.483
-50.938
-50.327
-49.652
-48.913
-48.111
-47.243
-46.305
-45.283
-44.169
-42.967
-41.683
-40.33
-38.931
-37.503
-36.068
-34.654
-33.282
-31.962
-30.698
-29.47
-28.256
-27.052
-25.861
-24.701
-23.594
-22.536
-21.519
-20.531
-19.543
-18.531
-17.468
-16.295
-14.98
-13.524
-11.953
-10.341
-8.781
-7.334
-6.039
-4.921
-3.994
-3.299
-2.887
-2.792
-3.057
-3.727
-4.856
-6.537
-8.835
-11.748
-15.22
-19.135
-23.343
-27.741
-32.252
-36.801
-41.322
-45.73
-49.931
-53.869
-57.503
-60.789
-63.654
-65.998
-67.75
-68.923
-69.618
-69.997
-70.227
-70.43
-70.691
-71.077
-71.667
-72.553
-73.827
-75.561
-77.778
-80.456
-83.632
-87.384
-91.653
-96.211
-100.572
-103.992
-105.754
-105.307
-102.241
-96.285
-87.529
-76.315
-63.392
-50.08
-37.826
-27.97
-21.243
-17.549
-15.923
-14.842
-12.253
-5.346
9.086
34.629
73.842
127.434
194.515
272.591
357.805
445.135
528.407
599.833
652.205
680.238
680.154
650.954
594.214
513.146
413.114
302.315
189.471
82.783
-9.778
-83.099
-134.86
-164.163
-172.414
-163.53
-142.277
-114.15
-85.379
-60.144
-40.676
-28.365
-23.05
-23.517
-28.315
-35.237
-41.531
-45.6
-46.84
-45.141
-41.172
-35.68
-29.248
-22.753
-17.175
-13.047
-10.579
-9.736
-10.192
-11.681
-14.024
-16.976
-20.294
-23.788
-27.282
-30.622
-33.689
-36.382
-38.618
-40.342
-41.524
-42.147
-42.214
-41.761
-40.843
-39.512
-37.819
-35.803
-33.495
-30.944
-28.21
-25.356
-22.453
-19.548
-16.67
-13.845
-11.086
-8.4
-5.786
-3.225
-0.691
1.836
4.368
6.916
9.485
12.088
14.74
17.456
20.248
23.126
26.099
29.175
32.362
35.662
39.076
42.603
46.238
49.979
53.826
57.777
61.833
65.991
70.248
74.602
79.048
83.582
88.194
92.877
97.618
102.406
107.228
112.071
116.918
121.755
126.565
131.33
136.034
140.658
145.184
149.592
153.864
157.982
161.927
165.682
169.23
172.553
175.637
178.465
181.024
183.299
185.278
186.948
188.298
189.318
189.999
190.333
190.314
189.937
189.2
188.102
186.644
184.83
182.664
180.152
177.303
174.128
170.636
166.842
162.759
158.403
153.789
148.935
143.859
138.579
133.112
127.478
121.696
115.785
109.763
103.651
97.466
91.228
84.957
78.67
72.387
66.126
59.904
53.74
47.649
41.649
35.752
29.975
24.329
18.827
13.478
8.293
3.279
-1.556
-6.208
-10.671
-14.943
-19.019
-22.9
-26.582
-30.067
-33.353
-36.441
-39.333
-42.029
-44.531
-46.842
-48.964
-50.9
-52.654
-54.228
-55.628
-56.859
-57.924
-58.831
-59.584
-60.191
-60.657
-60.99
-61.197
-61.284
-61.26
-61.13
-60.901
-60.582
-60.177
-59.695
-59.14
-58.521
-57.843
-57.114
-56.339
-55.526
-54.68
-53.809
-52.918
-52.015
-51.105
-50.195
-49.291
-48.398
-47.523
-46.67
-45.845
-45.051
-44.293
-43.574
-42.896
-42.261
-41.67
-41.124
-40.624
-40.168
-39.756
-39.387
-39.06
-38.771
-38.52
-38.303
-38.116
-37.957
-37.821
-37.703
-37.6
-37.508
-37.422
-37.337
-37.25
-37.157
-37.053
-36.935
-36.8
-36.643
-36.462
-36.254
-36.017
-35.75
-35.452
-35.124
-34.766
-34.38
-33.968
-33.534
-33.079
-32.608
-32.124
-31.632
-31.135
-30.64
-30.151
-29.675
-29.217
-28.783
-28.379
-28.011
-27.685
-27.404
-27.173
-26.996
-26.876
-26.817
-26.819
-26.883
-27.011
-27.203
-27.461
-27.783
-28.167
-28.609
-29.106
-29.656
-30.251
-30.884
-31.544
-32.221
-32.907
-33.595
-34.275
-34.938
-35.574
-36.173
-36.729
-37.238
-37.689
-38.071
-38.369
-38.569
-38.666
-38.671
-38.587
-38.413
-38.156
-37.818
-37.41
-36.952
-36.448
-35.886
-35.257
-34.55
-33.77
-32.942
-32.088
-31.228
-30.373
-29.51
-28.642
-27.785
-26.936
-26.087
-25.224
-24.314
-23.37
-22.454
-21.615
-20.905
-20.354
-19.959
-19.73
-19.678
-19.818
-20.181
-20.783
-21.62
-22.724
-24.142
-25.92
-28.124
-30.751
-33.721
-36.965
-40.407
-43.977
-47.64
-51.349
-55.035
-58.648
-62.134
-65.442
-68.544
-71.375
-73.841
-75.855
-77.325
-78.232
-78.659
-78.681
-78.384
-77.852
-77.123
-76.266
-75.39
-74.592
-73.986
-73.675
-73.693
-74.13
-75.149
-76.792
-78.983
-81.43
-83.543
-84.74
-84.604
-82.809
-79.125
-73.688
-66.892
-59.457
-52.625
-47.626
-45.423
-46.468
-50.521
-56.401
-62.35
-66.293
-65.408
-56.717
-37.318
-4.999
40.896
99.336
168.181
244.438
323.744
400.882
469.669
523.793
558.653
571.25
559.89
524.694
467.746
392.758
305.771
214.155
124.5
42.991
-25.106
-76.674
-110.232
-125.893
-126.263
-115.354
-97.304
-76.799
-57.846
-42.81
-33.233
-29.625
-31.119
-36.33
-43.55
-50.575
-55.869
-58.799
-59.089
-57.048
-53.308
-48.451
-43.256
-38.642
-35.137
-32.962
-32.164
-32.539
-33.898
-36.109
-38.957
-42.207
-45.667
-49.169
-52.582
-55.792
-58.69
-61.184
-63.2
-64.694
-65.656
-66.083
-65.993
-65.429
-64.429
-63.035
-61.296
-59.248
-56.94
-54.435
-51.798
-49.101
-46.401
-43.736
-41.14
-38.635
-36.233
-33.941
-31.753
-29.653
-27.628
-25.672
-23.778
-21.943
-20.16
-18.415
-16.695
-14.987
-13.28
-11.563
-9.828
-8.063
-6.26
-4.412
-2.516
-0.568
1.437
3.509
5.655
7.883
10.203
12.621
15.145
17.781
20.535
23.41
26.407
29.527
32.768
36.129
39.605
43.193
46.884
50.67
54.543
58.491
62.503
66.563
70.658
74.772
78.888
82.988
87.055
91.067
95.007
98.854
102.587
106.186
109.629
112.895
115.963
118.813
121.424
123.777
125.852
127.632
129.101
130.243
131.046
131.497
131.588
131.31
130.657
129.627
128.218
126.431
124.268
121.735
118.838
115.585
111.988
108.06
103.813
99.263
94.428
89.326
83.976
78.399
72.616
66.65
60.525
54.264
47.892
41.434
34.915
28.36
21.795
15.243
8.73
2.278
-4.089
-10.351
-16.487
-22.479
-28.309
-33.962
-39.424
-44.683
-49.728
-54.551
-59.144
-63.503
-67.622
-71.501
-75.137
-78.531
-81.683
-84.597
-87.275
-89.722
-91.944
-93.946
-95.735
-97.32
-98.709
-99.91
-100.933
-101.788
-102.486
-103.035
-103.448
-103.733
-103.901
-103.962
-103.924
-103.796
-103.586
-103.301
-102.947
-102.529
-102.052
-101.52
-100.936
-100.303
-99.622
-98.896
-98.126
-97.314
-96.46
-95.566
-94.632
-93.66
-92.652
-91.607
-90.527
-89.412
-88.265
-87.086
-85.875
-84.635
-83.366
-82.07
-80.748
-79.402
-78.034
-76.646
-75.241
-73.821
-72.391
-70.954
-69.515
-68.079
-66.651
-65.237
-63.844
-62.477
-61.142
-59.846
-58.594
-57.392
-56.243
-55.154
-54.128
-53.169
-52.279
-51.462
-50.719
-50.053
-49.466
-48.958
-48.53
-48.182
-47.916
-47.731
-47.627
-47.603
-47.659
-47.793
-48.004
-48.29
-48.649
-49.077
-49.571
-50.127
-50.741
-51.406
-52.119
-52.872
-53.66
-54.477
-55.318
-56.176
-57.045
-57.92
-58.795
-59.666
-60.528
-61.375
-62.202
-63.005
-63.778
-64.518
-65.22
-65.877
-66.485
-67.039
-67.532
-67.961
-68.319
-68.6
-68.799
-68.91
-68.931
-68.855
-68.68
-68.402
-68.018
-67.528
-66.929
-66.223
-65.409
-64.488
-63.461
-62.331
-61.1
-59.772
-58.351
-56.841
-55.246
-53.571
-51.825
-50.015
-48.148
-46.235
-44.285
-42.311
-40.329
-38.356
-36.407
-34.496
-32.64
-30.854
-29.155
-27.558
-26.076
-24.722
-23.507
-22.442
-21.538
-20.805
-20.251
-19.884
-19.701
-19.704
-19.895
-20.276
-20.852
-21.632
-22.62
-23.825
-25.256
-26.912
-28.801
-30.926
-33.272
-35.83
-38.569
-41.442
-44.437
-47.521
-50.664
-53.839
-56.954
-59.913
-62.652
-65.099
-67.223
-69.03
-70.409
-71.239
-71.622
-71.643
-71.469
-71.356
-71.21
-70.896
-70.611
-70.587
-70.83
-71.338
-71.727
-71.351
-70.266
-68.728
-66.746
-64.298
-61.398
-58.246
-55.738
-55.358
-58.007
-63.875
-72.706
-84.062
-97.532
-112.315
-126.911
-138.739
-144.917
-143.635
-134.246
-116.457
-89.968
-54.56
-10.06
42.372
100.119
161.132
224.302
288.54
352.154
412.322
464.94
506.423
534.83
548.419
545.101
523.184
482.5
425.083
355.287
278.465
199.226
121.933
51.411
-7.867
-53.071
-83.266
-99.606
-104.862
-101.703
-92.838
-81.695
-71.384
-63.944
-60.531
-61.076
-64.471
-69.74
-75.804
-81.139
-84.685
-85.92
-84.629
-81.218
-76.417
-70.798
-65.018
-59.824
-55.615
-52.607
-50.888
-50.298
-50.669
-51.864
-53.662
-55.843
-58.25
-60.733
-63.177
-65.483
-67.507
-69.134
-70.29
-70.923
-71.027
-70.606
-69.664
-68.237
-66.373
-64.131
-61.574
-58.755
-55.719
-52.519
-49.218
-45.88
-42.576
-39.355
-36.252
-33.29
-30.483
-27.835
-25.349
-23.011
-20.801
-18.703
-16.704
-14.792
-12.958
-11.187
-9.462
-7.763
-6.071
-4.368
-2.638
-0.862
0.975
2.889
4.892
6.997
9.212
11.548
14.017
16.631
19.398
22.328
25.427
28.701
32.154
35.787
39.599
43.586
47.742
52.06
56.531
61.145
65.888
70.746
75.704
80.745
85.851
91.002
96.175
101.348
106.498
111.598
116.623
121.546
126.34
130.976
135.429
139.671
143.676
147.418
150.874
154.018
156.831
159.292
161.383
163.086
164.39
165.28
165.75
165.792
165.402
164.579
163.324
161.639
159.531
157.006
154.076
150.751
147.046
142.977
138.562
133.822
128.778
123.456
117.881
112.08
106.081
99.915
93.61
87.198
80.71
74.176
67.627
61.093
54.603
48.187
41.872
35.685
29.65
23.792
18.131
12.688
7.482
2.529
-2.156
-6.561
-10.675
-14.491
-18.001
-21.202
-24.09
-26.667
-28.933
-30.894
-32.554
-33.922
-35.007
-35.823
-36.382
-36.699
-36.789
-36.67
-36.361
-35.878
-35.241
-34.468
-33.578
-32.588
-31.517
-30.381
-29.197
-27.981
-26.748
-25.515
-24.297
-23.108
-21.963
-20.872
-19.85
-18.905
-18.044
-17.274
-16.592
-16.001
-15.501
-15.091
-14.772
-14.539
-14.389
-14.318
-14.324
-14.403
-14.547
-14.743
-14.966
-15.205
-15.456
-15.72
-16.006
-16.321
-16.663
-17.041
-17.472
-17.961
-18.504
-19.082
-19.653
-20.193
-20.69
-21.146
-21.578
-21.988
-22.354
-22.657
-22.87
-22.966
-22.928
-22.715
-22.262
-21.543
-20.563
-19.363
-18.035
-16.64
-15.212
-13.775
-12.333
-10.908
-9.545
-8.279
-7.137
-6.158
-5.377
-4.862
-4.72
-5.003
-5.714
-6.811
-8.19
-9.78
-11.545
-13.446
-15.457
-17.544
-19.66
-21.779
-23.894
-25.98
-28.003
-29.899
-31.568
-32.956
-34.051
-34.871
-35.478
-35.916
-36.198
-36.349
-36.393
-36.349
-36.236
-36.054
-35.781
-35.413
-34.958
-34.438
-33.896
-33.356
-32.819
-32.274
-31.698
-31.073
-30.391
-29.64
-28.801
-27.865
-26.825
-25.686
-24.468
-23.18
-21.826
-20.406
-18.915
-17.352
-15.725
-14.037
-12.294
-10.503
-8.668
-6.799
-4.906
-2.997
-1.079
0.847
2.778
4.713
6.648
8.578
10.499
12.407
14.294
16.152
17.97
19.738
21.447
23.085
24.644
26.112
27.481
28.743
29.889
30.912
31.801
32.548
33.143
33.577
33.841
33.925
33.82
33.522
33.033
32.353
31.483
30.419
29.153
27.682
26.008
24.132
22.057
19.79
17.342
14.744
12.045
9.284
6.504
3.735
0.994
-1.687
-4.268
-6.71
-8.959
-10.988
-12.786
-14.323
-15.564
-16.495
-17.133
-17.554
-17.873
-18.173
-18.509
-18.897
-19.366
-19.987
-20.844
-22.038
-23.65
-25.679
-28.17
-31.247
-34.916
-39.044
-43.267
-46.883
-49.238
-49.903
-48.422
-44.498
-38.196
-29.795
-20.226
-11.059
-3.593
1.078
2.069
-0.551
-5.903
-12.614
-17.978
-18.507
-11.098
7.516
40.016
87.085
148.081
221.166
302.212
385.89
466.606
537.616
592.529
627.029
637.967
623.771
585.71
526.738
451.033
364.927
275.286
188.027
108.94
42.699
-8.398
-43.468
-62.988
-69.492
-66.333
-56.882
-45.131
-34.446
-26.684
-23.003
-23.694
-27.914
-34.55
-42.297
-49.344
-54.421
-57.084
-57.159
-54.972
-51.219
-46.47
-41.42
-36.935
-33.502
-31.32
-30.479
-30.822
-32.165
-34.41
-37.351
-40.752
-44.459
-48.308
-52.167
-55.939
-59.465
-62.605
-65.274
-67.396
-68.947
-69.929
-70.336
-70.189
-69.54
-68.433
-66.922
-65.058
-62.875
-60.425
-57.77
-54.973
-52.105
-49.221
-46.354
-43.534
-40.777
-38.089
-35.474
-32.921
-30.412
-27.933
-25.474
-23.026
-20.585
-18.142
-15.683
-13.193
-10.662
-8.076
-5.428
-2.708
0.094
2.984
5.965
9.041
12.211
15.478
18.846
22.316
25.891
29.573
33.361
37.255
41.253
45.352
49.548
53.834
58.203
62.646
67.154
71.717
76.322
80.957
85.608
90.261
94.901
99.511
104.075
108.576
112.995
117.315
121.517
125.583
129.492
133.227
136.769
140.1
143.203
146.059
148.655
150.973
153.002
154.727
156.138
157.225
157.979
158.393
158.46
158.178
157.543
156.555
155.215
153.526
151.492
149.119
146.415
143.388
140.05
136.412
132.486
128.289
123.834
119.138
114.22
109.097
103.79
98.317
92.701
86.962
81.121
75.199
69.218
63.199
57.162
51.128
45.116
39.147
33.239
27.411
21.679
16.061
10.573
5.228
0.039
-4.98
-9.821
-14.473
-18.929
-23.182
-27.227
-31.059
-34.676
-38.077
-41.26
-44.227
-46.979
-49.521
-51.855
-53.988
-55.925
-57.673
-59.239
-60.631
-61.857
-62.926
-63.846
-64.628
-65.282
-65.817
-66.243
-66.572
-66.814
-66.979
-67.077
-67.12
-67.115
-67.073
-67.002
-66.909
-66.804
-66.692
-66.58
-66.473
-66.376
-66.294
-66.23
-66.187
-66.167
-66.172
-66.202
-66.258
-66.34
-66.448
-66.581
-66.739
-66.92
-67.124
-67.349
-67.592
-67.852
-68.126
-68.41
-68.703
-69
-69.298
-69.594
-69.883
-70.163
-70.43
-70.679
-70.91
-71.117
-71.299
-71.454
-71.579
-71.675
-71.739
-71.772
-71.774
-71.745
-71.688
-71.603
-71.492
-71.357
-71.199
-71.022
-70.827
-70.616
-70.392
-70.156
-69.912
-69.662
-69.409
-69.154
-68.902
-68.655
-68.416
-68.188
-67.975
-67.78
-67.606
-67.457
-67.335
-67.243
-67.184
-67.161
-67.174
-67.226
-67.316
-67.445
-67.612
-67.816
-68.056
-68.33
-68.634
-68.967
-69.325
-69.705
-70.104
-70.517
-70.94
-71.371
-71.805
-72.239
-72.667
-73.087
-73.493
-73.882
-74.248
-74.586
-74.892
-75.16
-75.384
-75.559
-75.68
-75.741
-75.737
-75.663
-75.514
-75.286
-74.975
-74.578
-74.091
-73.513
-72.843
-72.079
-71.222
-70.272
-69.231
-68.099
-66.88
-65.576
-64.192
-62.73
-61.195
-59.592
-57.925
-56.203
-54.431
-52.618
-50.773
-48.906
-47.029
-45.154
-43.293
-41.459
-39.666
-37.926
-36.251
-34.655
-33.148
-31.745
-30.457
-29.297
-28.277
-27.41
-26.709
-26.187
-25.854
-25.718
-25.784
-26.054
-26.531
-27.22
-28.131
-29.272
-30.643
-32.241
-34.068
-36.115
-38.373
-40.815
-43.395
-46.066
-48.783
-51.503
-54.2
-56.838
-59.378
-61.777
-63.981
-65.95
-67.663
-69.1
-70.238
-71.063
-71.577
-71.835
-71.956
-72.054
-72.236
-72.58
-73.123
-73.942
-75.135
-76.794
-79.031
-81.915
-85.441
-89.659
-94.663
-100.402
-106.713
-113.185
-119.092
-123.813
-126.873
-127.743
-126.046
-121.71
-114.871
-106.28
-97.264
-88.906
-82.157
-77.871
-76.11
-76.214
-77.069
-76.412
-71.194
-58.645
-35.803
0.046
49.868
113.299
189.001
273.562
362.09
449.285
528.589
593.059
637.652
658.535
652.796
620.295
563.198
485.051
391.847
291.161
189.632
93.834
10.463
-56.248
-104.276
-133.02
-144.379
-142.047
-129.521
-111.064
-91.808
-75.175
-63.196
-57.103
-56.47
-59.971
-66.482
-74.235
-80.9
-85.221
-86.614
-84.885
-80.712
-74.903
-68.054
-61.029
-54.771
-49.743
-46.191
-44.176
-43.438
-43.789
-45.088
-47.088
-49.57
-52.368
-55.318
-58.294
-61.18
-63.812
-66.059
-67.836
-69.078
-69.772
-69.913
-69.504
-68.586
-67.211
-65.435
-63.315
-60.893
-58.209
-55.32
-52.29
-49.191
-46.098
-43.064
-40.126
-37.313
-34.637
-32.104
-29.712
-27.442
-25.268
-23.173
-21.141
-19.158
-17.217
-15.3
-13.388
-11.465
-9.512
-7.512
-5.451
-3.314
-1.088
1.237
3.67
6.217
8.881
11.669
14.588
17.643
20.84
24.184
27.679
31.326
35.129
39.085
43.192
47.445
51.838
56.361
61.004
65.756
70.602
75.528
80.517
85.551
90.612
95.68
100.734
105.753
110.714
115.596
120.376
125.03
129.535
133.868
138.008
141.932
145.619
149.05
152.203
155.063
157.61
159.83
161.708
163.231
164.387
165.167
165.563
165.569
165.183
164.403
163.229
161.665
159.716
157.388
154.691
151.633
148.229
144.491
140.434
136.076
131.434
126.527
121.376
116.001
110.424
104.669
98.756
92.709
86.552
80.307
73.997
67.646
61.276
54.911
48.571
42.28
36.057
29.924
23.899
18.001
12.247
6.653
1.233
-4
-9.033
-13.856
-18.46
-22.837
-26.981
-30.888
-34.553
-37.974
-41.152
-44.085
-46.777
-49.229
-51.445
-53.431
-55.191
-56.731
-58.06
-59.185
-60.114
-60.856
-61.422
-61.821
-62.065
-62.166
-62.134
-61.982
-61.721
-61.365
-60.925
-60.413
-59.841
-59.221
-58.563
-57.878
-57.176
-56.467
-55.76
-55.062
-54.382
-53.726
-53.099
-52.508
-51.957
-51.449
-50.988
-50.577
-50.217
-49.91
-49.656
-49.457
-49.31
-49.216
-49.173
-49.178
-49.23
-49.324
-49.457
-49.625
-49.823
-50.046
-50.29
-50.549
-50.817
-51.091
-51.363
-51.631
-51.888
-52.13
-52.355
-52.557
-52.734
-52.883
-53.003
-53.091
-53.148
-53.172
-53.164
-53.125
-53.056
-52.957
-52.832
-52.683
-52.512
-52.322
-52.117
-51.901
-51.678
-51.452
-51.228
-51.01
-50.803
-50.613
-50.444
-50.302
-50.19
-50.114
-50.078
-50.085
-50.14
-50.244
-50.401
-50.612
-50.878
-51.2
-51.578
-52.011
-52.498
-53.037
-53.625
-54.259
-54.934
-55.646
-56.39
-57.161
-57.953
-58.759
-59.574
-60.389
-61.199
-61.996
-62.773
-63.523
-64.239
-64.914
-65.54
-66.11
-66.619
-67.059
-67.424
-67.709
-67.91
-68.021
-68.039
-67.961
-67.785
-67.508
-67.128
-66.646
-66.062
-65.375
-64.587
-63.7
-62.717
-61.643
-60.481
-59.236
-57.913
-56.52
-55.063
-53.549
-51.986
-50.382
-48.744
-47.083
-45.408
-43.728
-42.054
-40.395
-38.762
-37.167
-35.624
-34.143
-32.737
-31.417
-30.196
-29.084
-28.091
-27.225
-26.494
-25.904
-25.46
-25.171
-25.044
-25.086
-25.302
-25.697
-26.273
-27.033
-27.974
-29.09
-30.372
-31.815
-33.417
-35.185
-37.12
-39.223
-41.491
-43.919
-46.493
-49.19
-51.977
-54.805
-57.629
-60.408
-63.109
-65.713
-68.191
-70.508
-72.621
-74.478
-76.036
-77.263
-78.119
-78.568
-78.614
-78.299
-77.699
-76.932
-76.084
-75.199
-74.344
-73.579
-72.981
-72.674
-72.764
-73.307
-74.418
-76.248
-78.821
-82.063
-85.645
-88.909
-91.252
-92.17
-91.111
-87.723
-82.053
-74.433
-65.893
-58.082
-52.329
-49.763
-51.352
-57.08
-66.032
-76.653
-85.926
-89.95
-85.257
-68.279
-35.896
12.961
77.916
157.335
246.969
341.047
433.438
516.635
583.186
627.82
646.486
636.677
599.219
537.085
454.792
359.611
259.721
162.222
74.106
1.246
-53.331
-88.434
-104.64
-105.231
-94.625
-77.173
-57.838
-40.856
-28.636
-22.656
-23.234
-29.164
-38.734
-50.011
-60.605
-68.81
-73.91
-75.546
-73.951
-69.837
-63.934
-57.187
-50.681
-45.045
-40.536
-37.25
-35.057
-33.819
-33.471
-33.836
-34.692
-35.897
-37.341
-38.967
-40.747
-42.584
-44.335
-45.854
-47.023
-47.791
-48.138
-48.053
-47.532
-46.579
-45.218
-43.499
-41.47
-39.17
-36.635
-33.896
-30.993
-27.984
-24.932
-21.901
-18.937
-16.068
-13.308
-10.665
-8.14
-5.728
-3.416
-1.182
0.993
3.121
5.215
7.283
9.34
11.403
13.49
15.618
17.803
20.059
22.398
24.83
27.363
30.006
32.761
35.632
38.621
41.733
44.971
48.339
51.837
55.467
59.228
63.119
67.136
71.273
75.523
79.877
84.326
88.858
93.461
98.12
102.822
107.55
112.287
117.015
121.714
126.364
130.944
135.434
139.812
144.056
148.145
152.059
155.775
159.275
162.539
165.549
168.287
170.737
172.883
174.712
176.212
177.371
178.182
178.636
178.729
178.456
177.815
176.807
175.433
173.695
171.599
169.151
166.359
163.232
159.784
156.025
151.973
147.642
143.051
138.218
133.163
127.907
122.471
116.878
111.15
105.31
99.382
93.388
87.351
81.293
75.238
69.205
63.215
57.287
51.439
45.689
40.051
34.54
29.171
23.955
18.905
14.03
9.339
4.841
0.542
-3.554
-7.442
-11.121
-14.589
-17.845
-20.893
-23.734
-26.371
-28.811
-31.058
-33.119
-35.002
-36.715
-38.267
-39.668
-40.927
-42.055
-43.06
-43.953
-44.742
-45.436
-46.044
-46.571
-47.027
-47.417
-47.748
-48.025
-48.255
-48.441
-48.589
-48.703
-48.785
-48.84
-48.869
-48.875
-48.86
-48.825
-48.771
-48.7
-48.611
-48.506
-48.383
-48.241
-48.081
-47.899
-47.695
-47.467
-47.212
-46.928
-46.616
-46.272
-45.896
-45.488
-45.048
-44.577
-44.076
-43.546
-42.99
-42.41
-41.809
-41.191
-40.557
-39.913
-39.262
-38.607
-37.953
-37.303
-36.662
-36.033
-35.419
-34.824
-34.251
-33.702
-33.181
-32.691
-32.233
-31.812
-31.429
-31.089
-30.794
-30.547
-30.35
-30.207
-30.119
-30.089
-30.116
-30.203
-30.349
-30.552
-30.813
-31.128
-31.496
-31.914
-32.38
-32.89
-33.442
-34.032
-34.656
-35.313
-35.997
-36.707
-37.438
-38.19
-38.959
-39.744
-40.542
-41.353
-42.175
-43.005
-43.843
-44.685
-45.528
-46.369
-47.202
-48.022
-48.825
-49.604
-50.353
-51.068
-51.744
-52.379
-52.969
-53.513
-54.011
-54.462
-54.865
-55.218
-55.518
-55.76
-55.936
-56.041
-56.07
-56.016
-55.875
-55.643
-55.316
-54.894
-54.374
-53.751
-53.018
-52.159
-51.168
-50.041
-48.781
-47.396
-45.905
-44.332
-42.706
-41.058
-39.412
-37.784
-36.175
-34.572
-32.961
-31.324
-29.657
-27.968
-26.265
-24.554
-22.832
-21.095
-19.319
-17.469
-15.498
-13.351
-10.992
-8.408
-5.618
-2.674
0.352
3.368
6.303
9.108
11.741
14.166
16.348
18.246
19.811
20.976
21.657
21.754
21.184
19.894
17.875
15.158
11.816
7.957
3.672
-0.965
-5.881
-11.021
-16.318
-21.696
-27.081
-32.382
-37.476
-42.218
-46.464
-50.084
-52.998
-55.165
-56.587
-57.308
-57.365
-56.78
-55.576
-53.793
-51.508
-48.837
-45.905
-42.857
-39.837
-37.082
-34.938
-33.569
-32.927
-32.803
-32.718
-32.328
-31.616
-30.365
-28.176
-25.145
-21.637
-18.51
-17.384
-19.094
-23.396
-30.212
-39.382
-50.023
-61.202
-70.871
-75.482
-72.866
-62.448
-43.5
-15.527
21.392
67.627
122.586
183.273
247.463
314.718
381.417
443.463
500.238
547.726
586.534
620.295
640.311
639.652
610.974
546.404
456.523
353.336
247.844
152.967
69.256
-2.168
-58.105
-99.6
-124.189
-131.452
-125.431
-109.169
-87.109
-65.002
-46.067
-32.137
-24.501
-22.706
-25.525
-31.94
-40.165
-47.809
-53.563
-56.835
-57.424
-55.937
-53.021
-49.112
-44.953
-41.406
-38.915
-37.683
-37.691
-38.634
-40.284
-42.493
-45.046
-47.743
-50.427
-52.961
-55.234
-57.177
-58.725
-59.823
-60.443
-60.57
-60.204
-59.364
-58.094
-56.455
-54.503
-52.295
-49.876
-47.281
-44.557
-41.76
-38.944
-36.172
-33.484
-30.908
-28.466
-26.172
-24.033
-22.047
-20.197
-18.459
-16.811
-15.236
-13.721
-12.252
-10.812
-9.381
-7.939
-6.466
-4.945
-3.361
-1.696
0.066
1.938
3.929
6.049
8.302
10.696
13.237
15.931
18.782
21.795
24.97
28.308
31.809
35.47
39.285
43.248
47.348
51.576
55.918
60.361
64.887
69.48
74.121
78.79
83.466
88.128
92.751
97.314
101.791
106.159
110.393
114.469
118.361
122.047
125.503
128.708
131.64
134.281
136.61
138.613
140.273
141.577
142.514
143.073
143.246
143.026
142.409
141.394
139.98
138.169
135.964
133.373
130.402
127.061
123.361
119.315
114.936
110.24
105.244
99.966
94.426
88.645
82.643
76.444
70.072
63.549
56.9
50.149
43.32
36.437
29.523
22.601
15.694
8.823
2.011
-4.724
-11.36
-17.88
-24.265
-30.5
-36.57
-42.461
-48.159
-53.654
-58.934
-63.991
-68.815
-73.401
-77.74
-81.83
-85.665
-89.244
-92.565
-95.629
-98.438
-100.993
-103.299
-105.359
-107.181
-108.769
-110.131
-111.274
-112.206
-112.936
-113.472
-113.824
-114.001
-114.012
-113.868
-113.578
-113.151
-112.596
-111.923
-111.14
-110.256
-109.279
-108.218
-107.08
-105.874
-104.608
-103.289
-101.924
-100.52
-99.083
-97.619
-96.132
-94.628
-93.11
-91.581
-90.046
-88.508
-86.967
-85.428
-83.892
-82.361
-80.836
-79.319
-77.81
-76.31
-74.821
-73.342
-71.877
-70.425
-68.988
-67.568
-66.167
-64.786
-63.427
-62.093
-60.785
-59.506
-58.257
-57.041
-55.861
-54.72
-53.62
-52.566
-51.56
-50.607
-49.709
-48.871
-48.096
-47.388
-46.75
-46.185
-45.696
-45.286
-44.957
-44.712
-44.553
-44.481
-44.497
-44.602
-44.795
-45.077
-45.446
-45.901
-46.44
-47.06
-47.759
-48.533
-49.379
-50.293
-51.269
-52.302
-53.386
-54.515
-55.682
-56.879
-58.097
-59.329
-60.566
-61.8
-63.021
-64.22
-65.389
-66.52
-67.603
-68.631
-69.596
-70.491
-71.31
-72.045
-72.692
-73.244
-73.698
-74.049
-74.293
-74.426
-74.445
-74.347
-74.13
-73.792
-73.33
-72.745
-72.036
-71.202
-70.245
-69.167
-67.968
-66.653
-65.224
-63.686
-62.043
-60.301
-58.464
-56.54
-54.534
-52.453
-50.303
-48.09
-45.822
-43.503
-41.14
-38.74
-36.308
-33.851
-31.375
-28.887
-26.397
-23.914
-21.448
-19.006
-16.601
-14.243
-11.942
-9.71
-7.557
-5.493
-3.527
-1.669
0.069
1.677
3.144
4.462
5.624
6.621
7.443
8.081
8.526
8.774
8.822
8.666
8.299
7.706
6.879
5.819
4.529
3.018
1.293
-0.636
-2.749
-5.005
-7.361
-9.764
-12.168
-14.544
-16.854
-19.06
-21.115
-22.961
-24.559
-25.891
-26.958
-27.765
-28.315
-28.62
-28.732
-28.752
-28.806
-29.035
-29.553
-30.45
-31.808
-33.687
-36.156
-39.299
-43.177
-47.821
-53.216
-59.297
-66.011
-73.365
-81.199
-89.12
-96.524
-102.541
-106.363
-107.459
-105.448
-99.971
-91.015
-79.044
-65.035
-50.722
-37.959
-27.904
-20.865
-16.584
-14.057
-11.431
-6.135
5.518
27.664
63.403
113.937
178.937
256.635
343.47
434.48
523.169
601.809
663.071
701.723
714.202
698.334
654.731
586.366
498.089
396.99
291.103
187.323
92.164
11.979
-49.605
-91.338
-113.51
-118.801
-111.205
-94.37
-72.683
-51.269
-33.405
-20.851
-14.478
-13.547
-16.712
-22.892
-30.34
-36.795
-41.003
-42.429
-41.013
-37.496
-32.667
-27.065
-21.461
-16.692
-13.182
-11.132
-10.533
-11.09
-12.567
-14.797
-17.546
-20.606
-23.835
-27.091
-30.255
-33.238
-35.914
-38.182
-39.985
-41.284
-42.064
-42.329
-42.1
-41.415
-40.333
-38.911
-37.198
-35.236
-33.062
-30.726
-28.285
-25.801
-23.332
-20.921
-18.593
-16.368
-14.254
-12.249
-10.346
-8.525
-6.759
-5.027
-3.314
-1.605
0.115
1.862
3.656
5.515
7.459
9.503
11.662
13.949
16.376
18.952
21.684
24.577
27.633
30.855
34.247
37.812
41.552
45.467
49.557
53.819
58.248
62.84
67.586
72.475
77.495
82.633
87.872
93.197
98.588
104.025
109.487
114.952
120.397
125.797
131.127
136.362
141.477
146.445
151.241
155.84
160.216
164.343
168.2
171.761
175.006
177.914
180.465
182.642
184.429
185.811
186.775
187.313
187.413
187.071
186.282
185.044
183.358
181.227
178.654
175.649
172.221
168.38
164.142
159.52
154.534
149.2
143.541
137.577
131.333
124.833
118.103
111.17
104.061
96.804
89.428
81.962
74.433
66.87
59.302
51.755
44.257
36.832
29.507
22.306
15.252
8.366
1.668
-4.822
-11.087
-17.113
-22.885
-28.391
-33.622
-38.57
-43.226
-47.588
-51.65
-55.412
-58.874
-62.038
-64.906
-67.485
-69.781
-71.801
-73.556
-75.056
-76.311
-77.335
-78.141
-78.741
-79.149
-79.38
-79.449
-79.369
-79.157
-78.827
-78.394
-77.873
-77.278
-76.622
-75.919
-75.18
-74.419
-73.645
-72.869
-72.1
-71.348
-70.621
-69.927
-69.271
-68.66
-68.097
-67.588
-67.134
-66.738
-66.399
-66.119
-65.897
-65.732
-65.623
-65.567
-65.563
-65.607
-65.697
-65.829
-65.999
-66.203
-66.438
-66.697
-66.977
-67.273
-67.582
-67.897
-68.216
-68.533
-68.846
-69.151
-69.442
-69.717
-69.972
-70.203
-70.408
-70.583
-70.726
-70.835
-70.91
-70.949
-70.952
-70.918
-70.847
-70.74
-70.596
-70.417
-70.203
-69.955
-69.673
-69.361
-69.018
-68.648
-68.252
-67.832
-67.392
-66.934
-66.46
-65.974
-65.477
-64.975
-64.468
-63.963
-63.46
-62.966
-62.483
-62.015
-61.567
-61.141
-60.741
-60.37
-60.03
-59.724
-59.454
-59.222
-59.028
-58.875
-58.763
-58.694
-58.666
-58.682
-58.739
-58.838
-58.978
-59.158
-59.375
-59.627
-59.913
-60.228
-60.571
-60.936
-61.32
-61.717
-62.123
-62.532
-62.937
-63.334
-63.716
-64.075
-64.406
-64.702
-64.957
-65.164
-65.318
-65.413
-65.444
-65.405
-65.294
-65.107
-64.839
-64.489
-64.054
-63.533
-62.926
-62.232
-61.452
-60.587
-59.64
-58.613
-57.512
-56.342
-55.108
-53.819
-52.484
-51.116
-49.725
-48.325
-46.928
-45.548
-44.2
-42.897
-41.65
-40.472
-39.375
-38.37
-37.471
-36.693
-36.047
-35.546
-35.201
-35.021
-35.016
-35.189
-35.54
-36.07
-36.776
-37.666
-38.751
-40.041
-41.537
-43.239
-45.144
-47.24
-49.505
-51.908
-54.398
-56.932
-59.467
-61.97
-64.419
-66.785
-69.034
-71.121
-72.989
-74.59
-75.89
-76.854
-77.451
-77.685
-77.592
-77.245
-76.76
-76.229
-75.701
-75.238
-74.903
-74.767
-74.929
-75.488
-76.492
-78.035
-80.282
-83.247
-86.827
-90.744
-94.387
-97.18
-98.729
-98.496
-95.895
-90.866
-83.626
-74.868
-66.188
-58.792
-53.301
-50.754
-51.934
-56.416
-63.257
-70.426
-74.045
-71.072
-59.473
-35.733
3.281
58.32
129.609
213.453
301.097
387.989
471.366
549.208
624.56
691.874
739.071
752.608
715.235
624.156
488.885
329.692
178.473
55.912
-25.828
-66.98
-84.374
-89.583
-91.29
-93.564
-90.447
-80.396
-65.587
-48.807
-35.859
-29.795
-30.367
-36.388
-45.615
-55.749
-64.727
-71.235
-74.733
-75.111
-72.938
-68.96
-63.785
-58.26
-53.318
-49.46
-46.933
-45.783
-45.752
-46.638
-48.328
-50.595
-53.225
-56.064
-58.942
-61.74
-64.371
-66.693
-68.591
-69.99
-70.827
-71.086
-70.775
-69.903
-68.507
-66.641
-64.353
-61.698
-58.724
-55.472
-52.004
-48.384
-44.683
-40.98
-37.332
-33.778
-30.355
-27.079
-23.96
-20.999
-18.186
-15.499
-12.925
-10.452
-8.068
-5.767
-3.533
-1.35
0.802
2.94
5.084
7.249
9.453
11.709
14.032
16.432
18.918
21.496
24.175
26.965
29.874
32.913
36.088
39.408
42.879
46.507
50.295
54.244
58.352
62.617
67.033
71.594
76.29
81.111
86.043
91.072
96.182
101.356
106.574
111.815
117.057
122.277
127.45
132.553
137.56
142.446
147.185
151.753
156.126
160.28
164.193
167.843
171.207
174.266
177.001
179.393
181.426
183.085
184.355
185.226
185.688
185.735
185.362
184.566
183.346
181.706
179.65
177.183
174.315
171.056
167.418
163.417
159.07
154.394
149.41
144.139
138.604
132.827
126.832
120.645
114.29
107.791
101.175
94.466
87.689
80.871
74.034
67.205
60.407
53.664
46.998
40.431
33.984
27.675
21.522
15.542
9.749
4.156
-1.224
-6.382
-11.309
-15.998
-20.444
-24.644
-28.595
-32.298
-35.753
-38.963
-41.932
-44.664
-47.166
-49.443
-51.504
-53.356
-55.008
-56.469
-57.749
-58.857
-59.806
-60.605
-61.266
-61.801
-62.22
-62.535
-62.757
-62.896
-62.962
-62.965
-62.914
-62.818
-62.684
-62.52
-62.332
-62.126
-61.908
-61.682
-61.451
-61.219
-60.988
-60.759
-60.534
-60.312
-60.095
-59.881
-59.669
-59.46
-59.252
-59.043
-58.832
-58.616
-58.394
-58.162
-57.919
-57.662
-57.387
-57.094
-56.779
-56.441
-56.077
-55.687
-55.27
-54.824
-54.35
-53.848
-53.318
-52.761
-52.179
-51.573
-50.946
-50.301
-49.64
-48.967
-48.286
-47.601
-46.915
-46.234
-45.561
-44.901
-44.258
-43.637
-43.043
-42.48
-41.952
-41.465
-41.022
-40.627
-40.285
-40
-39.774
-39.612
-39.516
-39.487
-39.528
-39.641
-39.824
-40.079
-40.404
-40.799
-41.261
-41.787
-42.376
-43.022
-43.721
-44.468
-45.259
-46.085
-46.941
-47.82
-48.714
-49.616
-50.518
-51.411
-52.287
-53.138
-53.955
-54.73
-55.455
-56.119
-56.716
-57.236
-57.67
-58.011
-58.25
-58.379
-58.39
-58.279
-58.037
-57.662
-57.147
-56.488
-55.684
-54.733
-53.633
-52.383
-50.986
-49.442
-47.754
-45.928
-43.969
-41.881
-39.672
-37.352
-34.927
-32.41
-29.81
-27.138
-24.405
-21.624
-18.809
-15.974
-13.133
-10.3
-7.494
-4.732
-2.034
0.581
3.094
5.486
7.738
9.832
11.751
13.483
15.013
16.331
17.425
18.281
18.89
19.24
19.324
19.135
18.669
17.921
16.894
15.596
14.035
12.215
10.139
7.797
5.192
2.327
-0.791
-4.149
-7.728
-11.498
-15.415
-19.418
-23.45
-27.456
-31.393
-35.227
-38.914
-42.4
-45.623
-48.516
-51.028
-53.129
-54.779
-55.948
-56.647
-56.926
-56.878
-56.642
-56.321
-55.976
-55.696
-55.569
-55.701
-56.244
-57.324
-59.013
-61.416
-64.666
-68.74
-73.515
-78.656
-83.527
-87.594
-90.409
-91.395
-90.111
-86.553
-80.981
-74.149
-67.35
-61.333
-56.656
-54.284
-54.553
-56.867
-60.041
-61.718
-58.724
-48.966
-30.436
0.282
45.267
104.855
178.883
262.326
348.586
435.512
518.069
593.445
660.492
707.223
725.129
706.814
645.222
551.299
437.062
315.24
201.968
100.262
12.791
-56.487
-108.567
-140.784
-152.268
-147.515
-131.008
-108.35
-86.032
-67.724
-55.236
-49.78
-50.971
-57.274
-66.957
-77.741
-86.967
-93.188
-95.911
-95.02
-91.17
-85.233
-77.994
-70.471
-63.698
-58.206
-54.199
-51.703
-50.486
-50.363
-51.205
-52.784
-54.878
-57.331
-60.018
-62.841
-65.705
-68.467
-70.957
-73.055
-74.684
-75.809
-76.419
-76.513
-76.107
-75.235
-73.952
-72.31
-70.352
-68.12
-65.651
-62.998
-60.224
-57.397
-54.586
-51.842
-49.197
-46.671
-44.272
-42.001
-39.849
-37.799
-35.825
-33.908
-32.033
-30.187
-28.358
-26.531
-24.687
-22.808
-20.875
-18.871
-16.781
-14.591
-12.29
-9.868
-7.317
-4.632
-1.809
1.155
4.267
7.531
10.95
14.528
18.266
22.164
26.222
30.436
34.803
39.314
43.963
48.739
53.632
58.628
63.713
68.871
74.086
79.339
84.611
89.882
95.129
100.33
105.464
110.507
115.433
120.22
124.843
129.277
133.499
137.485
141.214
144.662
147.811
150.64
153.134
155.275
157.049
158.444
159.449
160.054
160.253
160.04
159.414
158.372
156.916
155.051
152.781
150.115
147.062
143.634
139.844
135.709
131.244
126.47
121.405
116.072
110.495
104.699
98.708
92.55
86.253
79.844
73.35
66.8
60.221
53.64
47.083
40.575
34.142
27.806
21.589
15.515
9.601
3.867
-1.671
-6.996
-12.097
-16.961
-21.578
-25.939
-30.038
-33.87
-37.431
-40.719
-43.734
-46.478
-48.954
-51.166
-53.121
-54.827
-56.294
-57.531
-58.552
-59.367
-59.99
-60.435
-60.714
-60.843
-60.834
-60.701
-60.459
-60.12
-59.697
-59.202
-58.647
-58.043
-57.401
-56.728
-56.035
-55.329
-54.618
-53.907
-53.203
-52.512
-51.838
-51.184
-50.555
-49.952
-49.376
-48.83
-48.313
-47.824
-47.363
-46.927
-46.514
-46.123
-45.75
-45.393
-45.048
-44.714
-44.386
-44.064
-43.744
-43.425
-43.105
-42.783
-42.459
-42.132
-41.804
-41.475
-41.146
-40.818
-40.493
-40.173
-39.858
-39.552
-39.255
-38.97
-38.7
-38.446
-38.212
-37.999
-37.811
-37.65
-37.518
-37.418
-37.352
-37.324
-37.333
-37.384
-37.478
-37.617
-37.801
-38.033
-38.312
-38.638
-39.011
-39.429
-39.891
-40.394
-40.936
-41.515
-42.126
-42.768
-43.437
-44.13
-44.843
-45.574
-46.318
-47.072
-47.832
-48.594
-49.353
-50.107
-50.851
-51.581
-52.294
-52.987
-53.654
-54.293
-54.899
-55.469
-55.997
-56.481
-56.916
-57.298
-57.625
-57.893
-58.099
-58.242
-58.321
-58.333
-58.277
-58.151
-57.955
-57.687
-57.346
-56.93
-56.439
-55.872
-55.228
-54.509
-53.715
-52.845
-51.902
-50.885
-49.797
-48.64
-47.416
-46.128
-44.78
-43.376
-41.923
-40.425
-38.89
-37.324
-35.737
-34.139
-32.54
-30.951
-29.384
-27.849
-26.36
-24.926
-23.56
-22.269
-21.062
-19.949
-18.939
-18.043
-17.274
-16.642
-16.156
-15.826
-15.658
-15.659
-15.832
-16.174
-16.68
-17.353
-18.198
-19.229
-20.459
-21.892
-23.528
-25.365
-27.391
-29.587
-31.929
-34.371
-36.871
-39.395
-41.912
-44.409
-46.866
-49.245
-51.49
-53.536
-55.323
-56.812
-57.971
-58.766
-59.199
-59.296
-59.118
-58.761
-58.296
-57.77
-57.253
-56.808
-56.519
-56.52
-56.923
-57.885
-59.64
-62.246
-65.605
-69.489
-73.388
-76.77
-79.27
-80.319
-79.253
-76.016
-70.977
-65.04
-59.811
-56.5
-55.703
-58.235
-64.866
-75.261
-88.099
-100.73
-109.272
-110.577
-102.27
-81.726
-46.339
5.303
72.848
153.71
243.574
338.127
432.793
522.088
599.646
659.209
696.343
708.685
695.237
656.314
594.017
512.129
416.579
314.826
213.416
118.337
35.62
-30.578
-78.223
-106.768
-118.043
-115.766
-103.424
-85.17
-66.102
-49.683
-37.988
-32.319
-32.318
-36.695
-44.332
-53.408
-61.485
-67.237
-70.012
-69.551
-66.472
-61.523
-55.307
-48.744
-42.841
-38.124
-34.858
-33.103
-32.607
-33.197
-34.742
-37.004
-39.757
-42.823
-46.064
-49.383
-52.698
-55.881
-58.775
-61.267
-63.28
-64.781
-65.762
-66.224
-66.187
-65.687
-64.781
-63.527
-61.97
-60.153
-58.116
-55.905
-53.58
-51.202
-48.832
-46.513
-44.276
-42.137
-40.101
-38.166
-36.321
-34.547
-32.818
-31.114
-29.416
-27.713
-25.99
-24.231
-22.42
-20.539
-18.57
-16.499
-14.311
-11.996
-9.542
-6.943
-4.192
-1.285
1.779
5.002
8.388
11.939
15.658
19.543
23.596
27.813
32.191
36.724
41.405
46.224
51.168
56.224
61.377
66.61
71.905
77.242
82.602
87.962
93.301
98.594
103.819
108.952
113.967
118.84
123.548
128.065
132.367
136.434
140.241
143.768
146.996
149.904
152.477
154.698
156.553
158.028
159.114
159.801
160.083
159.954
159.413
158.461
157.098
155.332
153.168
150.615
147.686
144.392
140.75
136.776
132.487
127.905
123.05
117.945
112.613
107.08
101.369
95.507
89.519
83.431
77.268
71.057
64.821
58.587
52.376
46.213
40.119
34.117
28.224
22.461
16.843
11.386
6.104
1.008
-3.89
-8.582
-13.062
-17.322
-21.36
-25.173
-28.76
-32.121
-35.258
-38.174
-40.876
-43.367
-45.655
-47.749
-49.655
-51.385
-52.946
-54.349
-55.605
-56.723
-57.714
-58.589
-59.358
-60.031
-60.618
-61.128
-61.57
-61.952
-62.281
-62.563
-62.805
-63.011
-63.186
-63.334
-63.457
-63.558
-63.64
-63.704
-63.751
-63.78
-63.793
-63.787
-63.762
-63.716
-63.647
-63.552
-63.43
-63.278
-63.094
-62.875
-62.62
-62.327
-61.993
-61.617
-61.198
-60.734
-60.225
-59.671
-59.073
-58.431
-57.747
-57.025
-56.266
-55.475
-54.655
-53.811
-52.946
-52.066
-51.176
-50.279
-49.383
-48.492
-47.613
-46.75
-45.911
-45.102
-44.328
-43.596
-42.911
-42.278
-41.703
-41.19
-40.744
-40.369
-40.067
-39.843
-39.7
-39.639
-39.662
-39.77
-39.963
-40.239
-40.598
-41.036
-41.551
-42.138
-42.793
-43.512
-44.288
-45.117
-45.992
-46.906
-47.854
-48.827
-49.817
-50.818
-51.819
-52.814
-53.792
-54.745
-55.665
-56.544
-57.374
-58.146
-58.854
-59.489
-60.045
-60.516
-60.894
-61.174
-61.351
-61.42
-61.377
-61.22
-60.948
-60.56
-60.055
-59.435
-58.701
-57.855
-56.899
-55.838
-54.673
-53.409
-52.05
-50.603
-49.073
-47.467
-45.792
-44.056
-42.268
-40.434
-38.565
-36.669
-34.754
-32.831
-30.907
-28.993
-27.1
-25.236
-23.413
-21.643
-19.939
-18.312
-16.773
-15.333
-14.003
-12.792
-11.707
-10.755
-9.941
-9.267
-8.74
-8.365
-8.148
-8.094
-8.208
-8.494
-8.952
-9.586
-10.393
-11.368
-12.502
-13.789
-15.23
-16.831
-18.6
-20.539
-22.646
-24.915
-27.333
-29.88
-32.527
-35.228
-37.936
-40.606
-43.201
-45.694
-48.06
-50.27
-52.278
-54.026
-55.461
-56.543
-57.249
-57.558
-57.475
-57.035
-56.311
-55.416
-54.465
-53.546
-52.746
-52.163
-51.898
-52.062
-52.797
-54.207
-56.444
-59.71
-64.026
-69.259
-75.117
-81.058
-86.562
-91.265
-94.593
-95.83
-94.802
-91.725
-87.329
-82.99
-79.632
-77.602
-77.576
-80.397
-85.969
-93.312
-100.219
-103.263
-99.717
-87.564
-64.314
-27.263
25.21
93.064
174.104
264.27
359.316
454.601
544.273
621.529
679.895
714.68
723.344
704.968
660
590.864
502.105
400.304
293.024
186.976
88.035
1.891
-67.056
-116.698
-146.987
-160.008
-159.24
-148.044
-130.002
-109.544
-90.64
-75.735
-65.976
-61.17
-60.282
-62.404
-66.45
-70.685
-73.426
-73.765
-71.484
-67.015
-61.155
-54.518
-47.623
-41.159
-35.803
-31.947
-29.714
-28.97
-29.417
-30.811
-32.97
-35.689
-38.755
-41.974
-45.169
-48.191
-50.926
-53.283
-55.19
-56.602
-57.495
-57.864
-57.727
-57.127
-56.123
-54.777
-53.143
-51.267
-49.192
-46.971
-44.666
-42.34
-40.054
-37.848
-35.746
-33.763
-31.905
-30.169
-28.544
-27.007
-25.525
-24.072
-22.629
-21.177
-19.701
-18.18
-16.592
-14.917
-13.133
-11.224
-9.173
-6.968
-4.595
-2.045
0.687
3.606
6.712
10.006
13.489
17.164
21.029
25.082
29.32
33.737
38.327
43.081
47.987
53.033
58.204
63.483
68.853
74.296
79.793
85.322
90.864
96.394
101.892
107.332
112.691
117.944
123.067
128.034
132.821
137.405
141.761
145.867
149.702
153.245
156.476
159.379
161.936
164.133
165.958
167.398
168.447
169.096
169.34
169.177
168.606
167.629
166.249
164.471
162.303
159.753
156.832
153.551
149.924
145.967
141.695
137.127
132.281
127.178
121.839
116.286
110.542
104.632
98.578
92.405
86.139
79.803
73.422
67.02
60.621
54.248
47.924
41.668
35.502
29.445
23.514
17.726
12.095
6.636
1.36
-3.72
-8.597
-13.262
-17.707
-21.927
-25.918
-29.677
-33.203
-36.495
-39.553
-42.381
-44.981
-47.358
-49.517
-51.466
-53.211
-54.762
-56.127
-57.316
-58.34
-59.21
-59.937
-60.533
-61.008
-61.375
-61.644
-61.826
-61.932
-61.97
-61.951
-61.882
-61.771
-61.626
-61.453
-61.257
-61.045
-60.821
-60.587
-60.349
-60.108
-59.867
-59.627
-59.389
-59.153
-58.919
-58.686
-58.454
-58.221
-57.985
-57.743
-57.494
-57.233
-56.959
-56.667
-56.356
-56.022
-55.662
-55.274
-54.855
-54.405
-53.922
-53.406
-52.856
-52.273
-51.659
-51.015
-50.343
-49.647
-48.93
-48.195
-47.446
-46.689
-45.927
-45.166
-44.412
-43.669
-42.944
-42.242
-41.569
-40.931
-40.333
-39.78
-39.277
-38.83
-38.444
-38.122
-37.867
-37.685
-37.576
-37.544
-37.59
-37.714
-37.916
-38.195
-38.55
-38.977
-39.473
-40.035
-40.657
-41.335
-42.061
-42.831
-43.637
-44.471
-45.327
-46.195
-47.067
-47.935
-48.79
-49.622
-50.423
-51.184
-51.896
-52.551
-53.141
-53.659
-54.097
-54.449
-54.71
-54.873
-54.935
-54.891
-54.738
-54.475
-54.101
-53.616
-53.02
-52.316
-51.506
-50.595
-49.587
-48.488
-47.302
-46.037
-44.7
-43.299
-41.842
-40.339
-38.8
-37.236
-35.661
-34.09
-32.537
-31.015
-29.54
-28.126
-26.787
-25.534
-24.378
-23.327
-22.392
-21.581
-20.906
-20.378
-20.006
-19.798
-19.761
-19.899
-20.215
-20.709
-21.374
-22.206
-23.204
-24.371
-25.722
-27.267
-29.008
-30.945
-33.076
-35.379
-37.837
-40.414
-43.06
-45.727
-48.374
-50.961
-53.469
-55.866
-58.104
-60.133
-61.889
-63.312
-64.37
-65.027
-65.26
-65.097
-64.584
-63.802
-62.874
-61.887
-60.93
-60.117
-59.537
-59.312
-59.595
-60.481
-62.117
-64.701
-68.232
-72.612
-77.608
-82.689
-87.398
-91.376
-94.027
-94.883
-93.964
-91.523
-88.331
-85.595
-83.983
-83.963
-86.251
-90.975
-97.456
-104.36
-109.205
-109.106
-102.01
-85.896
-58.491
-18.327
35.122
101.006
176.612
258.452
342.971
425.722
501.382
564.426
609.602
633.062
632.647
607.628
558.933
489.308
403.256
307.087
207.925
112.617
27.688
-41.968
-93.724
-126.567
-141.32
-140.888
-129.162
-110.722
-90.854
-73.426
-60.599
-53.706
-52.816
-56.948
-64.782
-74.319
-82.993
-89.27
-92.524
-92.527
-89.756
-84.874
-78.491
-71.539
-65.078
-59.694
-55.641
-52.974
-51.476
-50.994
-51.436
-52.596
-54.251
-56.229
-58.4
-60.674
-62.983
-65.206
-67.189
-68.816
-70.009
-70.738
-70.996
-70.784
-70.116
-69.021
-67.549
-65.749
-63.666
-61.337
-58.801
-56.104
-53.301
-50.457
-47.636
-44.884
-42.233
-39.7
-37.291
-35.004
-32.829
-30.748
-28.736
-26.77
-24.833
-22.912
-20.993
-19.058
-17.089
-15.063
-12.963
-10.769
-8.465
-6.038
-3.474
-0.763
2.101
5.124
8.308
11.656
15.172
18.858
22.717
26.748
30.949
35.317
39.848
44.533
49.362
54.324
59.405
64.588
69.857
75.194
80.579
85.991
91.407
96.807
102.165
107.458
112.661
117.75
122.699
127.483
132.079
136.461
140.608
144.497
148.105
151.414
154.405
157.059
159.362
161.298
162.856
164.026
164.8
165.171
165.137
164.695
163.848
162.599
160.953
158.918
156.502
153.719
150.579
147.099
143.294
139.181
134.778
130.106
125.186
120.037
114.682
109.143
103.443
97.604
91.65
85.603
79.486
73.322
67.133
60.94
54.765
48.628
42.549
36.545
30.634
24.832
19.152
13.607
8.209
2.968
-2.107
-7.009
-11.731
-16.269
-20.618
-24.775
-28.74
-32.51
-36.086
-39.469
-42.66
-45.661
-48.475
-51.104
-53.552
-55.822
-57.92
-59.849
-61.616
-63.226
-64.685
-65.999
-67.176
-68.221
-69.142
-69.944
-70.634
-71.217
-71.699
-72.084
-72.378
-72.584
-72.707
-72.75
-72.717
-72.61
-72.434
-72.19
-71.881
-71.51
-71.08
-70.592
-70.051
-69.458
-68.817
-68.132
-67.407
-66.643
-65.846
-65.017
-64.162
-63.281
-62.379
-61.459
-60.522
-59.571
-58.61
-57.642
-56.67
-55.697
-54.726
-53.763
-52.809
-51.869
-50.948
-50.047
-49.173
-48.328
-47.516
-46.741
-46.006
-45.315
-44.67
-44.073
-43.527
-43.033
-42.591
-42.202
-41.866
-41.582
-41.35
-41.169
-41.037
-40.955
-40.919
-40.928
-40.98
-41.071
-41.2
-41.362
-41.552
-41.768
-42.003
-42.253
-42.514
-42.779
-43.043
-43.3
-43.546
-43.773
-43.976
-44.148
-44.285
-44.38
-44.427
-44.424
-44.364
-44.245
-44.062
-43.812
-43.495
-43.106
-42.644
-42.108
-41.496
-40.808
-40.044
-39.203
-38.289
-37.302
-36.247
-35.127
-33.948
-32.714
-31.434
-30.112
-28.756
-27.374
-25.975
-24.566
-23.157
-21.759
-20.382
-19.041
-17.748
-16.517
-15.361
-14.291
-13.321
-12.462
-11.721
-11.104
-10.617
-10.267
-10.063
-10.013
-10.123
-10.396
-10.836
-11.443
-12.218
-13.16
-14.26
-15.506
-16.894
-18.418
-20.086
-21.908
-23.888
-26.026
-28.313
-30.738
-33.289
-35.949
-38.686
-41.459
-44.226
-46.948
-49.601
-52.155
-54.571
-56.802
-58.784
-60.447
-61.741
-62.626
-63.082
-63.107
-62.706
-61.894
-60.701
-59.195
-57.474
-55.647
-53.82
-52.117
-50.635
-49.523
-49.04
-49.293
-50.231
-51.663
-53.107
-54.095
-54.394
-53.625
-51.291
-47.434
-42.382
-36.918
-32.705
-31.011
-32.484
-37.956
-47.823
-61.294
-77.025
-92.535
-103.869
-107.866
-101.883
-82.946
-49.217
-0.315
63.056
138.186
220.697
306.439
390.521
467.079
530.925
577.338
602.874
606.029
586.243
544.044
482.168
404.968
317.714
226.777
137.8
55.835
-13.698
-67.156
-103.238
-122.073
-125.633
-117.397
-100.617
-79.101
-57.592
-39.296
-25.965
-18.546
-16.536
-18.73
-24.1
-31.022
-37.36
-41.916
-44.17
-44.023
-42.068
-38.932
-35.069
-31.155
-27.956
-25.869
-25.057
-25.488
-26.885
-29.029
-31.773
-34.913
-38.235
-41.572
-44.77
-47.691
-50.274
-52.464
-54.202
-55.463
-56.234
-56.506
-56.306
-55.679
-54.668
-53.318
-51.674
-49.771
-47.653
-45.374
-42.994
-40.577
-38.173
-35.814
-33.525
-31.322
-29.215
-27.21
-25.298
-23.459
-21.675
-19.935
-18.227
-16.545
-14.877
-13.208
-11.52
-9.797
-8.023
-6.187
-4.275
-2.274
-0.174
2.034
4.357
6.798
9.362
12.056
14.887
17.86
20.981
24.251
27.673
31.25
34.98
38.861
42.887
47.051
51.346
55.76
60.285
64.906
69.611
74.384
79.21
84.071
88.949
93.826
98.681
103.493
108.241
112.903
117.458
121.883
126.155
130.253
134.156
137.842
141.292
144.485
147.403
150.03
152.348
154.343
156.003
157.316
158.274
158.867
159.093
158.948
158.43
157.54
156.281
154.658
152.675
150.341
147.664
144.656
141.328
137.695
133.77
129.57
125.114
120.418
115.504
110.39
105.098
99.649
94.066
88.371
82.586
76.733
70.835
64.914
58.99
53.086
47.22
41.412
35.679
30.038
24.506
19.096
13.823
8.699
3.735
-1.059
-5.672
-10.098
-14.329
-18.359
-22.183
-25.798
-29.201
-32.391
-35.367
-38.13
-40.681
-43.024
-45.162
-47.101
-48.844
-50.4
-51.774
-52.975
-54.01
-54.888
-55.617
-56.206
-56.664
-56.998
-57.219
-57.333
-57.35
-57.279
-57.126
-56.9
-56.61
-56.262
-55.865
-55.427
-54.954
-54.454
-53.934
-53.4
-52.86
-52.318
-51.782
-51.255
-50.744
-50.251
-49.78
-49.335
-48.917
-48.529
-48.172
-47.847
-47.555
-47.297
-47.074
-46.885
-46.73
-46.61
-46.524
-46.471
-46.452
-46.464
-46.508
-46.583
-46.687
-46.819
-46.977
-47.16
-47.366
-47.593
-47.838
-48.098
-48.371
-48.654
-48.945
-49.241
-49.541
-49.842
-50.143
-50.444
-50.742
-51.037
-51.328
-51.614
-51.895
-52.17
-52.438
-52.699
-52.952
-53.197
-53.434
-53.662
-53.88
-54.088
-54.285
-54.47
-54.642
-54.798
-54.939
-55.062
-55.167
-55.251
-55.316
-55.36
-55.382
-55.381
-55.356
-55.306
-55.228
-55.122
-54.983
-54.811
-54.602
-54.355
-54.068
-53.738
-53.364
-52.944
-52.475
-51.956
-51.387
-50.764
-50.088
-49.357
-48.573
-47.737
-46.851
-45.917
-44.941
-43.927
-42.882
-41.813
-40.726
-39.63
-38.531
-37.437
-36.358
-35.301
-34.273
-33.282
-32.336
-31.447
-30.623
-29.878
-29.218
-28.655
-28.196
-27.854
-27.641
-27.568
-27.639
-27.859
-28.235
-28.775
-29.496
-30.41
-31.517
-32.812
-34.287
-35.933
-37.737
-39.676
-41.706
-43.781
-45.851
-47.875
-49.832
-51.694
-53.43
-55
-56.353
-57.45
-58.287
-58.865
-59.182
-59.249
-59.086
-58.752
-58.359
-58.03
-57.887
-58.026
-58.517
-59.415
-60.754
-62.578
-64.95
-67.919
-71.5
-75.687
-80.405
-85.579
-91.194
-97.064
-102.82
-107.949
-111.68
-113.312
-112.532
-109.124
-102.871
-93.896
-82.501
-69.353
-56.021
-44.098
-34.258
-26.614
-20.852
-16.005
-10.867
-3.729
8.611
29.837
62.139
106.37
162.287
228.071
300.815
376.721
449.858
512.678
559.064
584.297
584.619
558.921
508.357
435.446
345.536
246.679
146.306
51.597
-30.079
-94.138
-138.374
-161.839
-166.336
-156.06
-135.114
-108.384
-81.648
-58.632
-41.538
-31.787
-28.957
-31.613
-38.462
-47.45
-55.984
-62.624
-66.638
-67.75
-66.572
-63.788
-59.904
-55.727
-52.134
-49.569
-48.247
-48.164
-49.031
-50.634
-52.817
-55.356
-58.056
-60.769
-63.368
-65.752
-67.845
-69.577
-70.893
-71.756
-72.154
-72.084
-71.554
-70.599
-69.268
-67.606
-65.662
-63.475
-61.076
-58.508
-55.825
-53.082
-50.343
-47.652
-45.04
-42.534
-40.15
-37.897
-35.779
-33.785
-31.893
-30.091
-28.367
-26.71
-25.115
-23.566
-22.048
-20.543
-19.033
-17.502
-15.934
-14.315
-12.627
-10.86
-9.001
-7.041
-4.976
-2.795
-0.49
1.948
4.528
7.256
10.14
13.185
16.396
19.775
23.322
27.037
30.916
34.954
39.144
43.479
47.949
52.541
57.244
62.04
66.915
71.849
76.822
81.814
86.8
91.759
96.667
101.498
106.228
110.833
115.288
119.569
123.654
127.519
131.142
134.502
137.578
140.353
142.809
144.929
146.7
148.107
149.142
149.796
150.061
149.933
149.409
148.489
147.175
145.471
143.383
140.92
138.092
134.911
131.393
127.555
123.413
118.988
114.301
109.373
104.228
98.889
93.38
87.724
81.948
76.075
70.131
64.139
58.123
52.108
46.116
40.169
34.29
28.497
22.811
17.251
11.832
6.572
1.484
-3.419
-8.125
-12.624
-16.91
-20.974
-24.813
-28.424
-31.806
-34.957
-37.88
-40.577
-43.051
-45.307
-47.351
-49.189
-50.827
-52.274
-53.538
-54.627
-55.549
-56.315
-56.932
-57.411
-57.761
-57.991
-58.11
-58.129
-58.055
-57.899
-57.669
-57.373
-57.02
-56.617
-56.17
-55.688
-55.174
-54.634
-54.074
-53.496
-52.904
-52.302
-51.691
-51.075
-50.454
-49.832
-49.208
-48.586
-47.965
-47.346
-46.732
-46.123
-45.519
-44.922
-44.334
-43.753
-43.183
-42.623
-42.074
-41.538
-41.013
-40.502
-40.004
-39.519
-39.048
-38.592
-38.151
-37.725
-37.315
-36.922
-36.548
-36.192
-35.855
-35.54
-35.246
-34.974
-34.726
-34.501
-34.3
-34.123
-33.971
-33.842
-33.738
-33.656
-33.597
-33.56
-33.544
-33.547
-33.568
-33.607
-33.661
-33.729
-33.811
-33.904
-34.009
-34.122
-34.244
-34.373
-34.508
-34.649
-34.792
-34.938
-35.084
-35.227
-35.367
-35.501
-35.627
-35.741
-35.842
-35.927
-35.995
-36.042
-36.068
-36.069
-36.042
-35.987
-35.9
-35.779
-35.622
-35.427
-35.192
-34.914
-34.594
-34.228
-33.816
-33.354
-32.842
-32.279
-31.663
-30.992
-30.267
-29.486
-28.65
-27.76
-26.817
-25.825
-24.787
-23.708
-22.595
-21.451
-20.286
-19.106
-17.919
-16.734
-15.556
-14.393
-13.251
-12.139
-11.065
-10.04
-9.072
-8.171
-7.347
-6.611
-5.976
-5.455
-5.057
-4.785
-4.644
-4.64
-4.789
-5.11
-5.615
-6.307
-7.185
-8.251
-9.503
-10.933
-12.517
-14.206
-15.948
-17.699
-19.428
-21.119
-22.753
-24.292
-25.686
-26.881
-27.84
-28.56
-29.044
-29.281
-29.261
-29.005
-28.585
-28.141
-27.836
-27.779
-28.046
-28.668
-29.666
-31.122
-33.153
-35.869
-39.353
-43.589
-48.476
-53.997
-60.215
-67.017
-74.111
-80.88
-86.411
-90.165
-92.03
-91.944
-89.822
-85.566
-79.114
-71.135
-63.145
-56.131
-50.255
-45.022
-39.381
-32.663
-24.419
-13.155
3.784
28.849
63.596
107.959
160.407
219.682
284.275
351.175
415.977
473.336
518.063
546.827
557.799
549.328
520.975
474.116
411.752
339.05
262.056
185.865
115.166
54.292
6.037
-28.156
-48.212
-56.231
-55.349
-48.668
-39.733
-31.635
-26.259
-24.916
-28.12
-35.175
-44.916
-55.92
-66.312
-74.788
-80.809
-84.051
-84.623
-82.992
-79.656
-75.353
-71.027
-67.226
-64.154
-61.864
-60.156
-58.875
-57.971
-57.299
-56.693
-56.058
-55.322
-54.497
-53.677
-52.874
-52.042
-51.112
-49.971
-48.595
-47.036
-45.37
-43.725
-42.199
-40.851
-39.751
-38.953
-38.475
-38.315
-38.416
-38.67
-39.014
-39.415
-39.863
-40.386
-40.969
-41.554
-42.075
-42.434
-42.554
-42.388
-41.882
-40.988
-39.694
-38.01
-35.985
-33.715
-31.262
-28.662
-25.936
-23.08
-20.102
-17.026
-13.867
-10.643
-7.371
-4.059
-0.719
2.631
5.992
9.377
12.814
16.354
20.029
23.856
27.846
31.998
36.309
40.776
45.389
50.124
54.965
59.894
64.895
69.956
75.057
80.176
85.285
90.353
95.35
100.251
105.029
109.658
114.114
118.375
122.419
126.232
129.796
133.091
136.099
138.802
141.183
143.225
144.916
146.24
147.186
147.745
147.91
147.677
147.045
146.013
144.584
142.762
140.555
137.972
135.024
131.723
128.083
124.121
119.856
115.305
110.491
105.435
100.161
94.691
89.052
83.267
77.362
71.362
65.292
59.177
53.042
46.911
40.81
34.761
28.788
22.915
17.161
11.547
6.092
0.811
-4.28
-9.168
-13.841
-18.29
-22.506
-26.484
-30.217
-33.704
-36.943
-39.934
-42.68
-45.183
-47.45
-49.487
-51.301
-52.902
-54.298
-55.501
-56.52
-57.368
-58.056
-58.597
-59.003
-59.287
-59.462
-59.542
-59.539
-59.467
-59.337
-59.162
-58.954
-58.722
-58.477
-58.228
-57.983
-57.75
-57.536
-57.347
-57.187
-57.061
-56.972
-56.921
-56.91
-56.94
-57.008
-57.114
-57.256
-57.432
-57.638
-57.872
-58.13
-58.409
-58.706
-59.015
-59.333
-59.656
-59.98
-60.299
-60.61
-60.908
-61.19
-61.451
-61.689
-61.901
-62.083
-62.235
-62.352
-62.434
-62.48
-62.489
-62.46
-62.394
-62.291
-62.154
-61.984
-61.783
-61.555
-61.302
-61.029
-60.737
-60.431
-60.113
-59.788
-59.458
-59.128
-58.8
-58.477
-58.164
-57.864
-57.579
-57.313
-57.069
-56.848
-56.653
-56.486
-56.347
-56.239
-56.162
-56.117
-56.104
-56.123
-56.172
-56.251
-56.356
-56.487
-56.639
-56.808
-56.992
-57.185
-57.383
-57.581
-57.774
-57.959
-58.128
-58.277
-58.402
-58.494
-58.55
-58.562
-58.524
-58.433
-58.281
-58.063
-57.774
-57.41
-56.965
-56.436
-55.82
-55.112
-54.309
-53.41
-52.414
-51.319
-50.127
-48.839
-47.457
-45.984
-44.426
-42.789
-41.077
-39.298
-37.457
-35.564
-33.628
-31.656
-29.659
-27.647
-25.634
-23.633
-21.661
-19.733
-17.864
-16.071
-14.369
-12.775
-11.302
-9.961
-8.765
-7.723
-6.847
-6.152
-5.651
-5.352
-5.266
-5.4
-5.759
-6.348
-7.167
-8.207
-9.464
-10.935
-12.623
-14.538
-16.686
-19.067
-21.675
-24.502
-27.525
-30.72
-34.047
-37.451
-40.88
-44.283
-47.616
-50.848
-53.935
-56.82
-59.446
-61.746
-63.663
-65.166
-66.214
-66.787
-66.918
-66.647
-66.058
-65.261
-64.33
-63.354
-62.451
-61.716
-61.294
-61.338
-61.93
-63.212
-65.354
-68.336
-72.046
-76.221
-80.284
-83.748
-86.266
-87.286
-86.373
-83.587
-79.172
-73.822
-68.817
-64.951
-62.716
-62.916
-65.694
-70.188
-75.144
-78.334
-76.534
-67.344
-48.513
-17.114
28.25
87.377
159.348
241.15
327.835
414.898
497.044
566.891
618.471
647.601
650.391
627.699
585.188
525.033
449.494
361.073
256.422
142.94
37.452
-46.034
-90.739
-95.124
-75.779
-47.937
-27.684
-21.858
-23.832
-29.231
-35.048
-40.438
-48.761
-60.331
-73.026
-84.659
-92.979
-97.227
-97.747
-94.955
-89.42
-81.918
-73.488
-65.299
-58.065
-52.058
-47.33
-43.773
-41.366
-40.111
-39.87
-40.436
-41.65
-43.381
-45.546
-48.102
-50.929
-53.853
-56.697
-59.276
-61.476
-63.245
-64.544
-65.354
-65.665
-65.479
-64.829
-63.768
-62.346
-60.608
-58.599
-56.357
-53.942
-51.423
-48.87
-46.353
-43.92
-41.594
-39.388
-37.309
-35.354
-33.518
-31.781
-30.118
-28.508
-26.935
-25.386
-23.849
-22.304
-20.733
-19.115
-17.432
-15.665
-13.8
-11.825
-9.727
-7.496
-5.123
-2.602
0.072
2.903
5.899
9.065
12.407
15.928
19.63
23.515
27.581
31.826
36.245
40.83
45.572
50.459
55.479
60.617
65.855
71.177
76.562
81.989
87.436
92.879
98.295
103.658
108.942
114.122
119.172
124.066
128.776
133.279
137.547
141.558
145.287
148.712
151.811
154.563
156.952
158.959
160.57
161.771
162.552
162.904
162.82
162.297
161.334
159.931
158.092
155.824
153.136
150.039
146.546
142.675
138.442
133.868
128.976
123.789
118.331
112.631
106.715
100.612
94.352
87.963
81.476
74.921
68.327
61.725
55.143
48.609
42.151
35.795
29.567
23.489
17.586
11.877
6.381
1.116
-3.904
-8.664
-13.154
-17.366
-21.291
-24.927
-28.27
-31.321
-34.081
-36.555
-38.749
-40.671
-42.331
-43.739
-44.91
-45.856
-46.592
-47.135
-47.5
-47.705
-47.766
-47.701
-47.526
-47.26
-46.918
-46.517
-46.073
-45.602
-45.117
-44.632
-44.159
-43.711
-43.298
-42.928
-42.611
-42.354
-42.16
-42.037
-41.985
-42.007
-42.103
-42.273
-42.513
-42.82
-43.19
-43.617
-44.095
-44.615
-45.172
-45.756
-46.359
-46.973
-47.589
-48.198
-48.793
-49.365
-49.906
-50.41
-50.869
-51.278
-51.63
-51.92
-52.146
-52.303
-52.389
-52.401
-52.34
-52.204
-51.995
-51.713
-51.36
-50.94
-50.456
-49.913
-49.315
-48.669
-47.981
-47.258
-46.507
-45.737
-44.953
-44.165
-43.381
-42.607
-41.852
-41.122
-40.426
-39.768
-39.157
-38.596
-38.092
-37.648
-37.27
-36.959
-36.719
-36.551
-36.457
-36.435
-36.486
-36.609
-36.801
-37.059
-37.381
-37.763
-38.199
-38.684
-39.214
-39.781
-40.38
-41.004
-41.645
-42.295
-42.948
-43.596
-44.231
-44.845
-45.43
-45.978
-46.483
-46.935
-47.329
-47.657
-47.912
-48.087
-48.177
-48.175
-48.079
-47.882
-47.582
-47.176
-46.663
-46.041
-45.311
-44.475
-43.532
-42.486
-41.34
-40.099
-38.768
-37.351
-35.854
-34.285
-32.651
-30.959
-29.219
-27.439
-25.63
-23.803
-21.971
-20.148
-18.348
-16.586
-14.876
-13.231
-11.666
-10.195
-8.828
-7.579
-6.458
-5.477
-4.649
-3.984
-3.495
-3.192
-3.082
-3.173
-3.467
-3.964
-4.667
-5.58
-6.705
-8.056
-9.635
-11.444
-13.487
-15.759
-18.248
-20.933
-23.772
-26.712
-29.708
-32.711
-35.68
-38.579
-41.347
-43.925
-46.253
-48.261
-49.906
-51.161
-51.978
-52.333
-52.234
-51.723
-50.912
-49.943
-48.923
-47.939
-47.055
-46.36
-46.012
-46.186
-47.055
-48.739
-51.215
-54.497
-58.688
-63.747
-69.52
-75.574
-81.075
-85.427
-88.439
-89.93
-89.822
-88.06
-84.333
-79.034
-73.4
-68.108
-63.407
-59.059
-53.867
-46.995
-38.279
-26.342
-8.793
16.35
51.117
96.11
149.763
210.93
278.837
350.809
422.82
490.046
546.539
588.045
612.693
618.255
602.592
565.823
509.924
438.95
359.077
275.693
192.881
115.458
48.483
-4.758
-42.719
-65.867
-76.754
-77.968
-71.716
-61.171
-50.143
-41.377
-36.53
-36.127
-39.347
-45.25
-53.082
-61.475
-68.685
-73.621
-75.732
-74.988
-72.043
-67.555
-62.061
-56.298
-51.03
-46.708
-43.573
-41.663
-40.787
-40.791
-41.555
-42.897
-44.648
-46.676
-48.882
-51.181
-53.492
-55.691
-57.627
-59.193
-60.319
-60.969
-61.131
-60.804
-60.003
-58.769
-57.16
-55.23
-53.021
-50.573
-47.918
-45.103
-42.186
-39.228
-36.293
-33.427
-30.661
-28.013
-25.493
-23.102
-20.831
-18.661
-16.564
-14.521
-12.516
-10.537
-8.575
-6.615
-4.639
-2.634
-0.583
1.527
3.712
5.987
8.367
10.861
13.477
16.22
19.092
22.098
25.244
28.531
31.96
35.53
39.246
43.117
47.152
51.352
55.7
60.175
64.756
69.425
74.162
78.938
83.719
88.476
93.198
97.89
102.559
107.198
111.787
116.287
120.663
124.899
128.993
132.952
136.768
140.435
143.954
147.35
150.657
153.884
156.992
159.905
162.548
164.874
166.862
168.507
169.799
170.709
171.201
171.247
170.838
169.959
168.579
166.636
164.059
160.821
156.963
152.574
147.741
142.52
136.95
131.059
124.893
118.507
111.951
105.255
98.441
91.543
84.617
77.752
71.043
64.542
58.256
52.154
46.212
40.427
34.805
29.35
24.053
18.906
13.914
9.103
4.501
0.118
-4.05
-8.027
-11.838
-15.49
-18.972
-22.261
-25.339
-28.201
-30.841
-33.252
-35.424
-37.349
-39.037
-40.506
-41.777
-42.865
-43.779
-44.523
-45.105
-45.539
-45.838
-46.02
-46.097
-46.085
-45.997
-45.851
-45.664
-45.451
-45.221
-44.983
-44.743
-44.508
-44.288
-44.088
-43.913
-43.769
-43.658
-43.586
-43.556
-43.571
-43.631
-43.737
-43.886
-44.079
-44.312
-44.584
-44.889
-45.223
-45.582
-45.961
-46.355
-46.758
-47.163
-47.565
-47.959
-48.338
-48.697
-49.03
-49.332
-49.598
-49.824
-50.006
-50.14
-50.224
-50.257
-50.236
-50.163
-50.037
-49.859
-49.632
-49.357
-49.036
-48.674
-48.274
-47.84
-47.377
-46.889
-46.381
-45.861
-45.332
-44.801
-44.274
-43.755
-43.251
-42.768
-42.31
-41.882
-41.488
-41.135
-40.824
-40.562
-40.35
-40.192
-40.09
-40.047
-40.063
-40.138
-40.273
-40.465
-40.713
-41.013
-41.362
-41.756
-42.189
-42.657
-43.153
-43.67
-44.203
-44.743
-45.285
-45.821
-46.342
-46.843
-47.315
-47.753
-48.148
-48.495
-48.786
-49.016
-49.18
-49.271
-49.284
-49.215
-49.058
-48.809
-48.466
-48.024
-47.48
-46.834
-46.083
-45.228
-44.269
-43.21
-42.051
-40.796
-39.451
-38.021
-36.513
-34.935
-33.293
-31.597
-29.856
-28.08
-26.28
-24.466
-22.649
-20.842
-19.057
-17.31
-15.615
-13.985
-12.435
-10.98
-9.633
-8.408
-7.316
-6.367
-5.571
-4.939
-4.482
-4.214
-4.144
-4.28
-4.628
-5.194
-5.981
-6.991
-8.216
-9.646
-11.278
-13.112
-15.154
-17.412
-19.882
-22.559
-25.436
-28.495
-31.717
-35.075
-38.523
-42.02
-45.526
-49.007
-52.44
-55.802
-59.048
-62.124
-64.971
-67.524
-69.743
-71.592
-73.034
-74.074
-74.729
-75.044
-75.093
-74.927
-74.591
-74.168
-73.731
-73.371
-73.223
-73.375
-73.966
-75.239
-77.245
-79.893
-82.97
-85.937
-88.291
-89.754
-89.842
-87.985
-84.186
-78.735
-72.419
-66.888
-63.371
-62.477
-65.063
-71.689
-81.781
-94.134
-106.413
-114.696
-115.6
-106.462
-84.191
-46.412
7.484
76.929
159.528
250.373
344.166
435.431
517.27
582.966
627.523
647.033
639.463
605.797
548.534
471.551
381.352
285.408
190.443
103.072
28.726
-29.679
-70.685
-94.386
-103.411
-101.574
-92.775
-81.497
-71.469
-64.8
-62.873
-66.084
-73.474
-83.587
-94.681
-104.574
-111.8
-115.815
-116.398
-113.861
-108.902
-102.233
-94.809
-87.731
-81.658
-76.884
-73.532
-71.494
-70.666
-71.001
-72.332
-74.431
-77.123
-80.257
-83.717
-87.421
-91.224
-94.943
-98.394
-101.43
-103.969
-105.973
-107.425
-108.316
-108.65
-108.45
-107.767
-106.652
-105.155
-103.323
-101.198
-98.838
-96.312
-93.693
-91.054
-88.451
-85.916
-83.468
-81.118
-78.866
-76.71
-74.638
-72.63
-70.669
-68.743
-66.841
-64.956
-63.075
-61.181
-59.26
-57.297
-55.28
-53.202
-51.057
-48.841
-46.551
-44.187
-41.747
-39.233
-36.643
-33.973
-31.218
-28.373
-25.435
-22.404
-19.283
-16.076
-12.786
-9.421
-5.991
-2.504
1.026
4.593
8.193
11.817
15.456
19.092
22.702
26.267
29.772
33.205
36.553
39.812
42.979
46.067
49.106
52.122
55.139
58.168
61.194
64.209
67.196
70.137
73.019
75.811
78.468
80.96
83.259
85.326
87.119
88.564
89.547
89.967
89.726
88.747
87.005
84.492
81.223
77.26
72.679
67.595
62.16
56.497
50.722
