Name
Date of Birth,"Mar 27, 1959"
Recorded Date,2019-05-15 13:34:53 -0500
Classification,Sinus Rhythm
Symptoms,
Software Version,1.2
Device,"Watch4,2"
Sample Rate,510.227 hertz


Lead,Lead I
Unit,µV

153.984
166.181
177.346
187.302
195.901
203.01
208.494
212.23
214.124
214.133
212.236
208.421
202.697
195.124
185.828
175.015
162.963
149.963
136.264
122.081
107.622
93.104
78.759
64.811
51.445
38.807
27.042
16.307
6.742
-1.567
-8.593
-14.387
-19.051
-22.694
-25.407
-27.276
-28.406
-28.919
-28.962
-28.689
-28.215
-27.636
-27.06
-26.61
-26.402
-26.518
-27.002
-27.85
-29.042
-30.559
-32.383
-34.491
-36.839
-39.372
-42.018
-44.699
-47.362
-49.967
-52.469
-54.818
-56.974
-58.905
-60.606
-62.088
-63.363
-64.44
-65.329
-66.045
-66.611
-67.056
-67.414
-67.721
-68.002
-68.274
-68.554
-68.856
-69.186
-69.552
-69.95
-70.368
-70.799
-71.24
-71.685
-72.132
-72.574
-73.005
-73.417
-73.806
-74.168
-74.501
-74.804
-75.08
-75.332
-75.563
-75.782
-75.995
-76.212
-76.439
-76.683
-76.95
-77.247
-77.578
-77.952
-78.373
-78.847
-79.38
-79.979
-80.649
-81.397
-82.226
-83.143
-84.15
-85.251
-86.447
-87.739
-89.127
-90.61
-92.185
-93.847
-95.59
-97.409
-99.295
-101.239
-103.231
-105.258
-107.308
-109.368
-111.424
-113.46
-115.461
-117.411
-119.295
-121.094
-122.794
-124.379
-125.835
-127.146
-128.297
-129.276
-130.071
-130.668
-131.058
-131.232
-131.181
-130.898
-130.381
-129.627
-128.637
-127.412
-125.959
-124.286
-122.402
-120.319
-118.052
-115.615
-113.028
-110.307
-107.474
-104.549
-101.551
-98.505
-95.435
-92.365
-89.322
-86.331
-83.417
-80.609
-77.934
-75.416
-73.078
-70.938
-69.012
-67.318
-65.877
-64.711
-63.84
-63.274
-63.02
-63.088
-63.474
-64.173
-65.162
-66.394
-67.824
-69.409
-71.11
-72.9
-74.747
-76.608
-78.435
-80.177
-81.786
-83.232
-84.487
-85.516
-86.303
-86.852
-87.215
-87.515
-87.871
-88.391
-89.154
-90.199
-91.583
-93.4
-95.74
-98.695
-102.347
-106.682
-111.752
-117.709
-124.505
-131.949
-139.603
-146.623
-152.265
-156.035
-157.288
-155.374
-150.136
-141.656
-130.741
-119.214
-108.503
-99.599
-93.708
-91.548
-92.867
-96.861
-101.106
-101.308
-93.812
-75.602
-42.919
7.276
75.97
163.269
264.67
370.263
473.872
571.011
658.525
739.096
806.996
849.147
853.14
802.285
690.7
527.487
329.453
126.852
-48.343
-174.9
-243.3
-262.806
-256.206
-242.066
-230.369
-220.874
-203.847
-175.108
-138.337
-99.314
-65.861
-42.054
-27.058
-19.95
-20.256
-26.301
-35.991
-47.346
-57.976
-66.714
-73.7
-78.53
-80.349
-79.178
-75.569
-70.456
-65.429
-61.276
-57.968
-55.704
-54.738
-55.118
-56.821
-59.451
-62.168
-64.465
-66.187
-67.226
-67.618
-67.372
-66.408
-64.773
-62.64
-60.136
-57.349
-54.323
-51.029
-47.471
-43.709
-39.807
-35.85
-31.911
-28.025
-24.216
-20.501
-16.891
-13.394
-10.009
-6.718
-3.497
-0.328
2.8
5.89
8.945
11.982
15.022
18.089
21.206
24.386
27.641
30.982
34.42
37.962
41.613
45.374
49.245
53.226
57.318
61.522
65.837
70.261
74.787
79.408
84.117
88.902
93.753
98.653
103.589
108.543
113.496
118.431
123.326
128.161
132.915
137.564
142.086
146.458
150.658
154.662
158.449
161.995
165.279
168.282
170.983
173.364
175.409
177.102
178.431
179.384
179.951
180.127
179.905
179.283
178.26
176.837
175.017
172.806
170.211
167.244
163.915
160.24
156.234
151.914
147.299
142.411
137.271
131.9
126.324
120.565
114.65
108.602
102.448
96.213
89.924
83.606
77.283
70.982
64.726
58.538
52.44
46.454
40.598
34.893
29.354
23.999
18.84
13.892
9.166
4.672
0.418
-3.59
-7.345
-10.845
-14.088
-17.074
-19.802
-22.277
-24.5
-26.477
-28.212
-29.713
-30.987
-32.041
-32.886
-33.53
-33.983
-34.258
-34.364
-34.314
-34.119
-33.79
-33.34
-32.78
-32.122
-31.376
-30.553
-29.665
-28.72
-27.73
-26.702
-25.646
-24.569
-23.479
-22.382
-21.283
-20.187
-19.1
-18.023
-16.961
-15.915
-14.888
-13.882
-12.897
-11.934
-10.994
-10.077
-9.183
-8.31
-7.458
-6.626
-5.812
-5.016
-4.236
-3.471
-2.718
-1.977
-1.247
-0.526
0.187
0.892
1.589
2.28
2.964
3.639
4.306
4.963
5.608
6.238
6.852
7.445
8.016
8.561
9.075
9.557
10.002
10.408
10.771
11.089
11.359
11.578
11.744
11.856
11.912
11.91
11.85
11.731
11.553
11.316
11.02
10.668
10.261
9.801
9.292
8.738
8.143
7.513
6.852
6.168
5.468
4.759
4.049
3.348
2.664
2.005
1.383
0.805
0.281
-0.18
-0.57
-0.881
-1.107
-1.242
-1.278
-1.212
-1.041
-0.759
-0.366
0.142
0.765
1.503
2.353
3.315
4.384
5.554
6.818
8.164
9.583
11.061
12.586
14.143
15.715
17.287
18.847
20.38
21.873
23.31
24.673
25.944
27.108
28.149
29.052
29.803
30.391
30.806
31.046
31.111
30.995
30.689
30.174
29.431
28.451
27.224
25.746
24.022
22.063
19.892
17.552
15.089
12.545
9.96
7.36
4.772
2.247
-0.158
-2.377
-4.339
-5.997
-7.306
-8.227
-8.761
-8.939
-8.821
-8.517
-8.121
-7.719
-7.434
-7.37
-7.639
-8.405
-9.783
-11.938
-15.133
-19.431
-24.752
-30.885
-37.279
-43.359
-48.731
-52.71
-54.49
-53.912
-51.134
-46.878
-42.832
-40.276
-39.964
-43.099
-50.639
-62.239
-76.815
-91.835
-102.898
-106.303
-98.853
-76.675
-36.632
22.709
101.342
196.705
303.318
415.37
526.277
627.919
712.351
772.509
802.778
800.062
764.317
697.635
604.522
491.92
368.057
241.859
121.827
15.649
-70.709
-134.062
-173.856
-191.736
-191.205
-176.932
-153.861
-127.583
-103.349
-84.331
-72.027
-66.629
-67.092
-71.906
-79.467
-87.516
-93.755
-97.008
-96.919
-93.789
-88.494
-81.871
-74.632
-67.676
-61.89
-57.731
-55.366
-54.699
-55.412
-57.248
-60.006
-63.443
-67.31
-71.422
-75.609
-79.721
-83.644
-87.238
-90.385
-93.015
-95.078
-96.552
-97.437
-97.756
-97.547
-96.872
-95.786
-94.336
-92.566
-90.519
-88.248
-85.812
-83.272
-80.683
-78.082
-75.491
-72.923
-70.381
-67.859
-65.341
-62.803
-60.216
-57.559
-54.815
-51.971
-49.014
-45.93
-42.705
-39.325
-35.78
-32.061
-28.165
-24.088
-19.829
-15.393
-10.786
-6.017
-1.096
3.965
9.155
14.464
19.879
25.386
30.968
36.61
42.293
47.997
53.701
59.382
65.017
70.581
76.051
81.402
86.608
91.646
96.491
101.119
105.507
109.631
113.47
117.003
120.211
123.076
125.58
127.71
129.452
130.795
131.729
132.248
132.345
132.018
131.264
130.085
128.485
126.468
124.043
121.219
118.009
114.427
110.488
106.212
101.618
96.727
91.562
86.147
80.507
74.667
68.655
62.496
56.218
49.849
43.416
36.944
30.461
23.992
17.562
11.195
4.914
-1.259
-7.304
-13.201
-18.932
-24.48
-29.83
-34.968
-39.883
-44.564
-49.004
-53.195
-57.134
-60.817
-64.244
-67.414
-70.331
-72.998
-75.42
-77.605
-79.561
-81.296
-82.822
-84.15
-85.293
-86.263
-87.074
-87.739
-88.272
-88.686
-88.996
-89.215
-89.356
-89.432
-89.456
-89.441
-89.396
-89.335
-89.267
-89.201
-89.147
-89.111
-89.102
-89.124
-89.182
-89.281
-89.422
-89.608
-89.84
-90.118
-90.439
-90.802
-91.204
-91.641
-92.107
-92.598
-93.107
-93.627
-94.153
-94.678
-95.195
-95.697
-96.178
-96.633
-97.055
-97.439
-97.78
-98.073
-98.313
-98.498
-98.624
-98.69
-98.692
-98.63
-98.504
-98.314
-98.062
-97.748
-97.375
-96.945
-96.462
-95.93
-95.353
-94.737
-94.087
-93.41
-92.713
-92.002
-91.286
-90.57
-89.862
-89.168
-88.496
-87.85
-87.237
-86.661
-86.127
-85.638
-85.197
-84.806
-84.468
-84.182
-83.948
-83.765
-83.631
-83.542
-83.495
-83.484
-83.505
-83.55
-83.614
-83.69
-83.77
-83.847
-83.91
-83.952
-83.964
-83.936
-83.857
-83.717
-83.508
-83.219
-82.842
-82.37
-81.793
-81.105
-80.301
-79.375
-78.324
-77.145
-75.835
-74.394
-72.823
-71.124
-69.301
-67.36
-65.307
-63.15
-60.904
-58.579
-56.191
-53.755
-51.287
-48.804
-46.324
-43.863
-41.438
-39.064
-36.757
-34.533
-32.412
-30.411
-28.548
-26.842
-25.308
-23.961
-22.816
-21.882
-21.162
-20.66
-20.379
-20.327
-20.523
-20.978
-21.697
-22.686
-23.945
-25.463
-27.223
-29.19
-31.312
-33.54
-35.826
-38.13
-40.425
-42.674
-44.836
-46.862
-48.688
-50.262
-51.544
-52.495
-53.077
-53.291
-53.173
-52.802
-52.307
-51.791
-51.322
-50.979
-50.848
-51.024
-51.626
-52.783
-54.568
-57.088
-60.53
-64.91
-70.108
-75.817
-81.368
-86.08
-89.446
-90.797
-89.432
-85.266
-78.561
-70.071
-61.535
-54.389
-49.546
-48.348
-51.728
-59.156
-69.395
-79.995
-86.612
-85.424
-73.149
-45.568
0.447
65.659
149.52
248.997
357.89
469.626
577.012
670.828
742.649
786.235
796.633
771.985
714.409
627.866
518.427
395.202
267.831
145.145
35.822
-53.518
-119.665
-161.601
-180.561
-180.466
-166.343
-143.341
-117.346
-93.588
-75.153
-63.65
-59.322
-60.965
-66.858
-75.226
-83.741
-90.182
-93.473
-93.284
-89.924
-84.287
-77.268
-69.634
-62.305
-56.146
-51.573
-48.736
-47.55
-47.714
-48.995
-51.201
-54.093
-57.434
-61.041
-64.739
-68.376
-71.832
-74.958
-77.631
-79.779
-81.346
-82.317
-82.698
-82.511
-81.797
-80.611
-79.008
-77.037
-74.746
-72.18
-69.397
-66.462
-63.439
-60.393
-57.368
-54.39
-51.479
-48.638
-45.863
-43.142
-40.451
-37.765
-35.061
-32.323
-29.538
-26.693
-23.774
-20.765
-17.65
-14.417
-11.055
-7.555
-3.912
-0.121
3.817
7.901
12.127
16.485
20.971
25.579
30.3
35.128
40.054
45.068
50.157
55.309
60.512
65.748
71.001
76.251
81.481
86.669
91.795
96.837
101.774
106.584
111.245
115.735
120.033
124.116
127.966
131.562
134.885
137.918
140.644
143.047
145.115
146.835
148.196
149.191
149.813
150.056
149.918
149.398
148.498
147.219
145.566
143.546
141.167
138.44
135.376
131.99
128.296
124.313
120.058
115.553
110.817
105.874
100.746
95.457
90.031
84.493
78.866
73.176
67.447
61.704
55.97
50.267
44.619
39.047
33.572
28.211
22.985
17.908
12.997
8.267
3.728
-0.606
-4.726
-8.624
-12.293
-15.725
-18.919
-21.871
-24.579
-27.046
-29.273
-31.264
-33.024
-34.559
-35.877
-36.988
-37.9
-38.624
-39.172
-39.555
-39.785
-39.877
-39.842
-39.694
-39.447
-39.114
-38.707
-38.24
-37.724
-37.172
-36.594
-36.002
-35.406
-34.814
-34.237
-33.683
-33.159
-32.672
-32.229
-31.834
-31.491
-31.204
-30.974
-30.804
-30.692
-30.638
-30.64
-30.696
-30.804
-30.959
-31.157
-31.393
-31.663
-31.96
-32.279
-32.614
-32.959
-33.307
-33.653
-33.992
-34.318
-34.626
-34.912
-35.171
-35.399
-35.594
-35.751
-35.869
-35.944
-35.977
-35.964
-35.907
-35.804
-35.658
-35.47
-35.243
-34.978
-34.68
-34.352
-33.999
-33.625
-33.235
-32.834
-32.427
-32.02
-31.617
-31.225
-30.849
-30.493
-30.162
-29.86
-29.591
-29.357
-29.162
-29.008
-28.895
-28.824
-28.796
-28.809
-28.862
-28.952
-29.076
-29.231
-29.413
-29.616
-29.834
-30.06
-30.289
-30.511
-30.721
-30.909
-31.067
-31.186
-31.26
-31.278
-31.235
-31.122
-30.931
-30.656
-30.291
-29.831
-29.271
-28.608
-27.839
-26.962
-25.977
-24.885
-23.69
-22.394
-21.003
-19.524
-17.968
-16.346
-14.669
-12.953
-11.212
-9.461
-7.718
-5.997
-4.315
-2.687
-1.129
0.342
1.709
2.955
4.062
5.012
5.791
6.382
6.77
6.952
6.918
6.665
6.186
5.464
4.49
3.258
1.764
0.006
-2.013
-4.281
-6.771
-9.435
-12.223
-15.087
-17.98
-20.871
-23.723
-26.487
-29.115
-31.546
-33.725
-35.626
-37.213
-38.446
-39.304
-39.801
-40.009
-40.055
-40.068
-40.142
-40.342
-40.735
-41.424
-42.532
-44.184
-46.49
-49.496
-53.277
-58.01
-63.736
-70.32
-77.368
-84.123
-89.825
-93.913
-95.73
-94.571
-90.198
-82.77
-73.217
-63.368
-54.768
-48.588
-46.11
-48.178
-54.585
-64.155
-73.842
-79.206
-76.504
-61.744
-30.514
20.061
91.634
182.105
283.621
390.423
498.698
605.548
712.78
811.307
882.447
911.997
884.384
798.441
673.665
524.112
365.828
217.829
82.78
-30.365
-110.01
-162.471
-189.523
-195.656
-193.065
-181.214
-160.663
-136.734
-111.177
-89.282
-75.43
-69.291
-69.887
-75.302
-83.148
-91.249
-97.495
-100.551
-99.937
-96.007
-89.73
-82.033
-73.738
-65.792
-59.058
-54.024
-50.883
-49.514
-49.584
-50.822
-53.003
-55.87
-59.179
-62.744
-66.394
-69.976
-73.367
-76.413
-78.988
-81.022
-82.464
-83.293
-83.513
-83.15
-82.25
-80.88
-79.103
-76.969
-74.528
-71.825
-68.92
-65.88
-62.775
-59.667
-56.602
-53.606
-50.697
-47.881
-45.152
-42.495
-39.885
-37.292
-34.693
-32.071
-29.412
-26.702
-23.926
-21.066
-18.107
-15.035
-11.84
-8.514
-5.05
-1.444
2.303
6.188
10.206
14.35
18.614
22.992
27.476
32.06
36.735
41.491
46.317
51.201
56.128
61.081
66.044
70.998
75.922
80.797
85.601
90.313
94.911
99.372
103.676
107.801
111.724
115.425
118.883
122.079
124.995
127.613
129.917
131.891
133.524
134.803
135.718
136.26
136.424
136.203
135.595
134.598
133.213
131.442
129.289
126.761
123.867
120.615
117.02
113.095
108.855
104.318
99.504
94.432
89.123
83.6
77.885
72.003
65.977
59.832
53.592
47.282
40.926
34.548
28.173
21.823
15.521
9.289
3.147
-2.884
-8.785
-14.538
-20.127
-25.535
-30.748
-35.753
-40.539
-45.094
-49.411
-53.481
-57.3
-60.862
-64.165
-67.209
-69.993
-72.52
-74.792
-76.813
-78.589
-80.126
-81.432
-82.513
-83.38
-84.042
-84.507
-84.788
-84.894
-84.837
-84.628
-84.278
-83.799
-83.202
-82.498
-81.7
-80.817
-79.861
-78.842
-77.771
-76.658
-75.512
-74.341
-73.156
-71.962
-70.766
-69.576
-68.396
-67.231
-66.084
-64.961
-63.862
-62.791
-61.75
-60.74
-59.762
-58.817
-57.905
-57.027
-56.183
-55.373
-54.596
-53.852
-53.141
-52.463
-51.817
-51.203
-50.62
-50.069
-49.548
-49.058
-48.597
-48.166
-47.764
-47.391
-47.047
-46.733
-46.449
-46.197
-45.977
-45.792
-45.643
-45.531
-45.458
-45.427
-45.438
-45.494
-45.595
-45.744
-45.941
-46.186
-46.481
-46.825
-47.218
-47.657
-48.143
-48.672
-49.242
-49.85
-50.493
-51.167
-51.868
-52.593
-53.336
-54.094
-54.86
-55.63
-56.398
-57.156
-57.898
-58.616
-59.302
-59.948
-60.547
-61.09
-61.57
-61.977
-62.303
-62.542
-62.685
-62.725
-62.654
-62.465
-62.155
-61.717
-61.148
-60.445
-59.606
-58.63
-57.517
-56.268
-54.886
-53.372
-51.73
-49.965
-48.082
-46.087
-43.989
-41.796
-39.517
-37.166
-34.758
-32.308
-29.833
-27.349
-24.874
-22.427
-20.026
-17.687
-15.425
-13.254
-11.19
-9.25
-7.451
-5.811
-4.344
-3.065
-1.988
-1.124
-0.484
-0.067
0.126
0.095
-0.165
-0.669
-1.43
-2.456
-3.753
-5.324
-7.162
-9.25
-11.557
-14.034
-16.626
-19.28
-21.95
-24.599
-27.192
-29.684
-32.015
-34.12
-35.936
-37.412
-38.513
-39.188
-39.425
-39.267
-38.793
-38.136
-37.427
-36.743
-36.178
-35.862
-35.918
-36.506
-37.789
-39.845
-42.829
-46.982
-52.344
-58.817
-66.035
-73.222
-79.659
-84.813
-87.952
-88.33
-85.748
-80.4
-73.346
-66.591
-61.669
-59.632
-61.651
-68.465
-79.696
-93.905
-107.648
-115.945
-114.778
-100.148
-67.642
-14.341
61.346
157.157
265.076
378.958
494.705
609.441
724.679
830.675
910.46
951.204
936.8
866.611
752.157
599.82
426.333
250.219
88.755
-34.065
-106.42
-133.346
-131.389
-121.266
-115.911
-116.436
-114.932
-106.514
-92.68
-77.7
-67.827
-65.602
-69.296
-76.696
-85.541
-93.632
-99.373
-101.877
-100.736
-96.328
-89.675
-81.738
-73.284
-65.17
-58.213
-52.847
-49.294
-47.507
-47.181
-48.083
-50.023
-52.753
-56.039
-59.682
-63.486
-67.284
-70.934
-74.254
-77.096
-79.373
-81.017
-82.01
-82.352
-82.057
-81.161
-79.725
-77.809
-75.47
-72.76
-69.73
-66.444
-62.977
-59.407
-55.812
-52.247
-48.746
-45.332
-42.014
-38.788
-35.647
-32.566
-29.516
-26.474
-23.423
-20.349
-17.24
-14.08
-10.852
-7.54
-4.126
-0.6
3.048
6.825
10.737
14.783
18.962
23.269
27.696
32.237
36.886
41.636
46.481
51.412
56.419
61.492
66.618
71.785
76.976
82.174
87.36
92.514
97.616
102.644
107.577
112.393
117.069
121.584
125.914
130.039
133.937
137.587
140.97
144.066
146.859
149.331
151.467
153.254
154.68
155.736
156.413
156.705
156.608
156.118
155.237
153.963
152.301
150.256
147.833
145.042
141.894
138.401
134.578
130.441
126.008
121.299
116.332
111.13
105.716
100.111
94.34
88.427
82.396
76.272
70.079
63.842
57.585
51.332
45.106
38.929
32.822
26.806
20.9
15.122
9.49
4.019
-1.275
-6.38
-11.283
-15.973
-20.44
-24.677
-28.677
-32.435
-35.947
-39.212
-42.228
-44.995
-47.516
-49.793
-51.831
-53.633
-55.207
-56.559
-57.697
-58.63
-59.367
-59.918
-60.294
-60.506
-60.564
-60.48
-60.264
-59.929
-59.485
-58.944
-58.316
-57.613
-56.844
-56.02
-55.152
-54.247
-53.316
-52.367
-51.407
-50.444
-49.483
-48.53
-47.592
-46.672
-45.774
-44.903
-44.06
-43.25
-42.472
-41.73
-41.023
-40.351
-39.715
-39.113
-38.544
-38.007
-37.501
-37.024
-36.574
-36.149
-35.748
-35.368
-35.007
-34.663
-34.335
-34.02
-33.718
-33.425
-33.142
-32.868
-32.601
-32.344
-32.094
-31.854
-31.624
-31.405
-31.197
-31.003
-30.825
-30.662
-30.519
-30.396
-30.298
-30.225
-30.182
-30.17
-30.193
-30.254
-30.354
-30.497
-30.684
-30.916
-31.196
-31.525
-31.904
-32.332
-32.811
-33.339
-33.915
-34.537
-35.204
-35.912
-36.657
-37.434
-38.238
-39.065
-39.906
-40.756
-41.607
-42.451
-43.282
-44.089
-44.866
-45.603
-46.291
-46.919
-47.481
-47.965
-48.362
-48.664
-48.862
-48.946
-48.911
-48.748
-48.452
-48.015
-47.434
-46.705
-45.826
-44.796
-43.613
-42.279
-40.798
-39.174
-37.412
-35.52
-33.506
-31.382
-29.161
-26.857
-24.487
-22.068
-19.618
-17.157
-14.705
-12.281
-9.905
-7.596
-5.371
-3.248
-1.25
0.603
2.291
3.793
5.091
6.17
7.012
7.604
7.942
8.021
7.838
7.386
6.649
5.615
4.278
2.636
0.687
-1.56
-4.086
-6.864
-9.847
-12.987
-16.241
-19.568
-22.938
-26.319
-29.666
-32.927
-36.036
-38.931
-41.565
-43.898
-45.876
-47.481
-48.737
-49.699
-50.475
-51.156
-51.779
-52.4
-53.101
-53.976
-55.163
-56.796
-58.939
-61.718
-65.346
-69.881
-75.251
-81.145
-86.841
-91.64
-95.053
-96.463
-95.213
-91.086
-84.236
-75.507
-66.807
-59.853
-55.731
-55.625
-60.473
-70.252
-84.04
-99.369
-111.644
-116.383
-110.079
-88.592
-47.954
13.937
97.941
200.573
312.616
427.997
542.258
651.625
757.837
851.728
916.835
941.585
908.893
816.968
680.86
509.459
325.452
152.592
0.695
-111.561
-179.917
-217.443
-230.77
-232.292
-228.577
-213.049
-185.326
-148.725
-108.545
-73.564
-48.228
-32.941
-27.448
-30.669
-41.031
-55.714
-70.844
-83.83
-93.543
-99.843
-102.935
-102.473
-98.434
-92.007
-85.128
-79.21
-74.872
-72.136
-70.778
-70.962
-72.852
-76.129
-80.11
-84.161
-87.889
-91.152
-93.966
-96.241
-97.842
-98.732
-98.958
-98.612
-97.778
-96.496
-94.769
-92.613
-90.071
-87.199
-84.061
-80.728
-77.262
-73.729
-70.191
-66.69
-63.259
-59.921
-56.689
-53.564
-50.538
-47.595
-44.713
-41.882
-39.089
-36.318
-33.55
-30.762
-27.934
-25.048
-22.087
-19.038
-15.886
-12.621
-9.232
-5.714
-2.065
1.717
5.632
9.679
13.859
18.17
22.608
27.168
31.843
36.628
41.512
46.486
51.535
56.646
61.8
66.981
72.17
77.345
82.484
87.565
92.564
97.456
102.217
106.823
111.247
115.465
119.452
123.185
126.64
129.796
132.631
135.127
137.266
139.034
140.416
141.403
141.984
142.152
141.904
141.236
140.149
138.645
136.727
134.404
131.684
128.58
125.104
121.273
117.106
112.621
107.84
102.787
97.485
91.96
86.238
80.347
74.313
68.166
61.933
55.643
49.323
43.002
36.706
30.461
24.291
18.222
12.274
6.47
0.828
-4.634
-9.9
-14.954
-19.785
-24.381
-28.733
-32.834
-36.679
-40.264
-43.588
-46.651
-49.455
-52.003
-54.299
-56.35
-58.163
-59.747
-61.11
-62.264
-63.219
-63.988
-64.582
-65.015
-65.299
-65.448
-65.475
-65.392
-65.213
-64.951
-64.617
-64.223
-63.781
-63.301
-62.793
-62.267
-61.731
-61.193
-60.659
-60.135
-59.626
-59.136
-58.667
-58.223
-57.804
-57.411
-57.045
-56.705
-56.39
-56.098
-55.828
-55.577
-55.342
-55.122
-54.912
-54.711
-54.514
-54.32
-54.125
-53.926
-53.72
-53.506
-53.281
-53.042
-52.787
-52.515
-52.224
-51.914
-51.584
-51.234
-50.865
-50.478
-50.074
-49.656
-49.226
-48.788
-48.343
-47.897
-47.452
-47.014
-46.585
-46.172
-45.778
-45.409
-45.068
-44.761
-44.492
-44.265
-44.083
-43.951
-43.872
-43.849
-43.885
-43.983
-44.145
-44.372
-44.668
-45.032
-45.464
-45.965
-46.534
-47.169
-47.867
-48.625
-49.439
-50.306
-51.219
-52.174
-53.164
-54.182
-55.221
-56.273
-57.328
-58.379
-59.414
-60.425
-61.402
-62.334
-63.211
-64.025
-64.763
-65.417
-65.977
-66.433
-66.775
-66.995
-67.083
-67.03
-66.829
-66.473
-65.957
-65.274
-64.422
-63.397
-62.199
-60.828
-59.284
-57.571
-55.691
-53.651
-51.456
-49.116
-46.639
-44.036
-41.32
-38.508
-35.614
-32.658
-29.659
-26.637
-23.612
-20.607
-17.642
-14.737
-11.912
-9.185
-6.575
-4.106
-1.797
0.329
2.253
3.957
5.425
6.64
7.591
8.275
8.69
8.832
8.696
8.265
7.528
6.479
5.113
3.43
1.437
-0.848
-3.398
-6.166
-9.103
-12.166
-15.312
-18.515
-21.738
-24.94
-28.058
-31.021
-33.761
-36.223
-38.361
-40.116
-41.463
-42.425
-43.059
-43.47
-43.753
-43.951
-44.12
-44.352
-44.743
-45.431
-46.581
-48.282
-50.686
-54.048
-58.409
-63.674
-69.544
-75.277
-80.166
-83.76
-85.392
-84.327
-80.528
-74.278
-66.473
-59.186
-53.984
-51.659
-53.469
-60.383
-71.877
-86.692
-102.091
-112.964
-115.114
-105.603
-80.156
-34.839
32.042
121.089
228.073
343.025
457.807
566.997
669.609
767.898
859.68
935.35
973.691
954.085
864.66
703.274
493.454
267.806
59.044
-96.806
-188.016
-219.337
-205.729
-176.962
-150.353
-132.032
-121.76
-109.7
-93.405
-76.311
-61.832
-55.474
-58.242
-67.001
-79.126
-91.383
-100.954
-106.981
-109.095
-107.348
-102.636
-95.977
-88.288
-80.643
-74.054
-68.991
-65.626
-63.93
-63.603
-64.401
-66.13
-68.526
-71.331
-74.355
-77.455
-80.505
-83.419
-86.065
-88.284
-89.972
-91.065
-91.535
-91.391
-90.653
-89.348
-87.518
-85.228
-82.532
-79.487
-76.147
-72.56
-68.786
-64.895
-60.953
-57.028
-53.168
-49.403
-45.751
-42.214
-38.788
-35.46
-32.213
-29.023
-25.87
-22.741
-19.62
-16.497
-13.358
-10.187
-6.968
-3.686
-0.328
3.116
6.656
10.295
14.038
17.886
21.838
25.891
30.041
34.287
38.626
43.054
47.568
52.16
56.825
61.553
66.334
71.158
76.009
80.875
85.737
90.581
95.387
100.138
104.814
109.395
113.861
118.192
122.366
126.363
130.162
133.743
137.086
140.171
142.979
145.495
147.701
149.583
151.127
152.322
153.158
153.626
153.72
153.434
152.767
151.718
150.286
148.474
146.289
143.735
140.823
137.562
133.966
130.047
125.821
121.305
116.518
111.478
106.206
100.725
95.055
89.221
83.245
77.153
70.968
64.715
58.418
52.102
45.789
39.505
33.27
27.108
21.038
15.082
9.257
3.581
-1.929
-7.258
-12.393
-17.32
-22.03
-26.512
-30.759
-34.764
-38.521
-42.026
-45.278
-48.274
-51.015
-53.502
-55.739
-57.728
-59.475
-60.986
-62.268
-63.33
-64.178
-64.824
-65.277
-65.548
-65.648
-65.588
-65.379
-65.035
-64.565
-63.982
-63.298
-62.523
-61.669
-60.746
-59.764
-58.733
-57.662
-56.561
-55.438
-54.301
-53.157
-52.015
-50.88
-49.759
-48.657
-47.579
-46.529
-45.512
-44.53
-43.585
-42.682
-41.819
-41
-40.224
-39.492
-38.803
-38.157
-37.553
-36.989
-36.465
-35.978
-35.527
-35.111
-34.729
-34.379
-34.06
-33.77
-33.51
-33.277
-33.072
-32.892
-32.738
-32.608
-32.502
-32.419
-32.358
-32.319
-32.302
-32.306
-32.331
-32.378
-32.446
-32.536
-32.649
-32.784
-32.944
-33.129
-33.341
-33.58
-33.848
-34.148
-34.479
-34.844
-35.243
-35.677
-36.145
-36.648
-37.185
-37.755
-38.357
-38.988
-39.646
-40.328
-41.033
-41.757
-42.496
-43.247
-44.004
-44.764
-45.522
-46.272
-47.009
-47.726
-48.418
-49.078
-49.7
-50.276
-50.8
-51.264
-51.66
-51.98
-52.217
-52.363
-52.409
-52.349
-52.174
-51.88
-51.461
-50.912
-50.227
-49.405
-48.444
-47.342
-46.101
-44.719
-43.2
-41.547
-39.765
-37.859
-35.837
-33.706
-31.476
-29.161
-26.773
-24.329
-21.842
-19.331
-16.812
-14.304
-11.826
-9.392
-7.019
-4.725
-2.525
-0.44
1.511
3.308
4.933
6.368
7.597
8.604
9.374
9.906
10.194
10.236
10.023
9.535
8.76
7.691
6.325
4.662
2.71
0.483
-1.987
-4.65
-7.455
-10.352
-13.298
-16.267
-19.227
-22.136
-24.935
-27.557
-29.943
-32.055
-33.857
-35.308
-36.392
-37.137
-37.614
-37.946
-38.251
-38.598
-39.056
-39.718
-40.678
-42.06
-44.011
-46.609
-49.978
-54.319
-59.647
-65.863
-72.689
-79.463
-85.538
-90.455
-93.504
-93.915
-91.528
-86.459
-79.473
-72.357
-66.396
-62.3
-61.303
-64.435
-71.529
-81.751
-92.617
-99.565
-99.062
-88.496
-63.974
-21.791
39.783
121.572
219.681
324.521
431.128
536.165
636.44
734.689
822.264
882.925
906.071
874.587
785.71
653.666
486.282
306.958
140.661
-2.204
-102.56
-158.236
-184.511
-189.423
-187.3
-185.025
-175.495
-157.772
-133.297
-105.551
-82.625
-68.233
-61.962
-62.48
-67.253
-74.171
-81.41
-86.968
-89.673
-89.285
-86.349
-81.81
-76.462
-70.957
-66.038
-62.438
-60.577
-60.525
-62.053
-64.767
-68.353
-72.576
-77.198
-81.959
-86.624
-90.982
-94.86
-98.172
-100.856
-102.855
-104.151
-104.731
-104.6
-103.811
-102.431
-100.526
-98.165
-95.405
-92.293
-88.897
-85.29
-81.551
-77.763
-73.98
-70.239
-66.566
-62.979
-59.486
-56.089
-52.773
-49.512
-46.287
-43.085
-39.895
-36.711
-33.52
-30.304
-27.049
-23.741
-20.367
-16.92
-13.389
-9.768
-6.051
-2.237
1.674
5.679
9.777
13.967
18.249
22.623
27.085
31.632
36.259
40.962
45.733
50.564
55.442
60.356
65.292
70.237
75.175
80.091
84.967
89.786
94.53
99.18
103.717
108.121
112.371
116.447
120.329
123.997
127.431
130.612
133.521
136.14
138.454
140.447
142.104
143.414
144.366
144.948
145.155
144.98
144.418
143.468
142.128
140.402
138.292
135.805
132.948
129.731
126.165
122.263
118.039
113.51
108.692
103.604
98.266
92.701
86.929
80.974
74.862
68.615
62.26
55.823
49.328
42.803
36.272
29.761
23.294
16.895
10.589
4.397
-1.66
-7.56
-13.284
-18.816
-24.138
-29.237
-34.098
-38.71
-43.063
-47.148
-50.959
-54.49
-57.737
-60.699
-63.374
-65.764
-67.872
-69.7
-71.254
-72.542
-73.571
-74.35
-74.891
-75.204
-75.302
-75.199
-74.907
-74.442
-73.817
-73.048
-72.15
-71.137
-70.026
-68.83
-67.565
-66.244
-64.88
-63.488
-62.079
-60.665
-59.257
-57.865
-56.499
-55.166
-53.874
-52.631
-51.442
-50.314
-49.249
-48.253
-47.327
-46.473
-45.694
-44.988
-44.355
-43.795
-43.306
-42.885
-42.529
-42.236
-42.002
-41.823
-41.696
-41.616
-41.578
-41.58
-41.617
-41.683
-41.777
-41.893
-42.029
-42.181
-42.348
-42.525
-42.712
-42.907
-43.107
-43.313
-43.523
-43.736
-43.951
-44.17
-44.391
-44.615
-44.843
-45.076
-45.313
-45.557
-45.809
-46.07
-46.34
-46.621
-46.914
-47.221
-47.542
-47.878
-48.23
-48.599
-48.984
-49.387
-49.805
-50.24
-50.689
-51.151
-51.625
-52.107
-52.595
-53.086
-53.576
-54.062
-54.54
-55.004
-55.449
-55.872
-56.264
-56.623
-56.94
-57.212
-57.432
-57.594
-57.693
-57.722
-57.676
-57.551
-57.34
-57.038
-56.641
-56.142
-55.54
-54.829
-54.006
-53.069
-52.016
-50.846
-49.558
-48.152
-46.631
-44.996
-43.249
-41.396
-39.442
-37.393
-35.258
-33.046
-30.767
-28.436
-26.064
-23.667
-21.261
-18.861
-16.482
-14.142
-11.856
-9.637
-7.501
-5.462
-3.538
-1.743
-0.094
1.393
2.702
3.817
4.724
5.412
5.878
6.115
6.12
5.887
5.401
4.65
3.633
2.345
0.785
-1.041
-3.121
-5.426
-7.905
-10.509
-13.189
-15.903
-18.622
-21.311
-23.928
-26.427
-28.75
-30.846
-32.683
-34.226
-35.437
-36.3
-36.825
-37.086
-37.209
-37.32
-37.524
-37.887
-38.474
-39.385
-40.733
-42.63
-45.195
-48.48
-52.559
-57.62
-63.689
-70.614
-78.045
-85.247
-91.461
-96.168
-98.675
-98.175
-94.467
-87.724
-78.719
-69.257
-60.789
-54.223
-50.998
-52.297
-57.949
-66.944
-76.652
-82.654
-81.494
-69.956
-43.363
2.238
69.003
155.375
254.576
358.987
464.095
571.081
682.299
792.703
887.882
944.351
941.929
873.47
746.862
583.455
402.429
223.412
63.913
-67.365
-156.62
-202.053
-216.263
-208.059
-192.479
-177.827
-159.127
-136.916
-112.707
-88.462
-70.858
-62.555
-62.097
-67.683
-76.558
-85.766
-93.252
-97.837
-98.87
-96.584
-91.967
-85.93
-79.249
-72.893
-67.731
-64.217
-62.569
-62.674
-64.136
-66.656
-69.984
-73.844
-77.982
-82.187
-86.267
-90.051
-93.419
-96.264
-98.503
-100.087
-100.991
-101.205
-100.741
-99.649
-97.994
-95.838
-93.245
-90.263
-86.938
-83.33
-79.51
-75.552
-71.533
-67.505
-63.502
-59.55
-55.666
-51.855
-48.117
-44.431
-40.772
-37.12
-33.462
-29.787
-26.091
-22.359
-18.577
-14.73
-10.808
-6.8
-2.699
1.5
5.804
10.213
14.724
19.332
24.031
28.814
33.677
38.612
43.615
48.678
53.793
58.95
64.142
69.356
74.579
79.797
84.995
90.157
95.266
100.305
105.257
110.103
114.825
119.405
123.823
128.063
132.103
135.927
139.516
142.853
145.92
148.702
151.184
153.352
155.194
156.699
157.857
158.661
159.104
159.182
158.892
158.232
157.202
155.804
154.041
151.92
149.446
146.629
143.479
140.008
136.23
132.158
127.81
123.2
118.348
113.272
107.992
102.526
96.897
91.125
85.232
79.239
73.169
67.043
60.883
54.709
48.543
42.404
36.312
30.286
24.342
18.499
12.773
7.178
1.728
-3.562
-8.682
-13.62
-18.367
-22.915
-27.257
-31.388
-35.301
-38.995
-42.467
-45.715
-48.739
-51.541
-54.122
-56.484
-58.632
-60.57
-62.303
-63.837
-65.179
-66.336
-67.315
-68.125
-68.773
-69.267
-69.618
-69.833
-69.922
-69.893
-69.757
-69.521
-69.196
-68.789
-68.31
-67.765
-67.165
-66.515
-65.823
-65.095
-64.338
-63.558
-62.759
-61.947
-61.125
-60.298
-59.468
-58.639
-57.813
-56.992
-56.177
-55.37
-54.573
-53.785
-53.007
-52.241
-51.485
-50.74
-50.005
-49.281
-48.567
-47.863
-47.168
-46.481
-45.802
-45.131
-44.467
-43.811
-43.162
-42.52
-41.887
-41.262
-40.647
-40.043
-39.452
-38.875
-38.315
-37.775
-37.257
-36.765
-36.302
-35.871
-35.477
-35.122
-34.811
-34.546
-34.333
-34.173
-34.071
-34.029
-34.051
-34.139
-34.295
-34.522
-34.82
-35.192
-35.637
-36.155
-36.746
-37.409
-38.143
-38.943
-39.809
-40.736
-41.721
-42.757
-43.841
-44.964
-46.12
-47.301
-48.498
-49.7
-50.898
-52.082
-53.24
-54.362
-55.436
-56.451
-57.396
-58.258
-59.027
-59.691
-60.24
-60.662
-60.948
-61.089
-61.076
-60.902
-60.56
-60.046
-59.353
-58.48
-57.424
-56.183
-54.759
-53.151
-51.363
-49.4
-47.267
-44.973
-42.527
-39.941
-37.229
-34.407
-31.492
-28.503
-25.459
-22.383
-19.294
-16.217
-13.17
-10.175
-7.252
-4.423
-1.709
0.867
3.286
5.526
7.565
9.385
10.968
12.299
13.371
14.179
14.714
14.971
14.934
14.59
13.934
12.961
11.669
10.062
8.151
5.968
3.561
0.984
-1.715
-4.488
-7.305
-10.126
-12.906
-15.597
-18.138
-20.472
-22.561
-24.362
-25.831
-26.946
-27.712
-28.199
-28.53
-28.83
-29.204
-29.72
-30.444
-31.476
-32.932
-34.93
-37.597
-40.999
-45.227
-50.486
-56.81
-64.044
-71.813
-79.358
-85.891
-90.841
-93.469
-92.944
-89.073
-82.106
-72.944
-63.504
-55.334
-49.498
-47.546
-50.7
-58.739
-70.422
-82.776
-91.104
-91.742
-80.96
-53.558
-5.686
64.721
156.052
260.69
372.573
488.622
606.73
727.621
840.912
926.44
967.692
949.536
871.763
750.884
600.014
431.329
259.5
94.924
-47.801
-149.006
-204.801
-224.309
-218.311
-204.235
-190.433
-172.404
-150.539
-126.144
-101.528
-83.723
-75.508
-75.42
-81.627
-91.281
-101.256
-109.323
-114.182
-115.09
-112.249
-106.67
-99.33
-91.083
-82.998
-76.056
-70.751
-67.334
-65.72
-65.522
-66.462
-68.317
-70.808
-73.681
-76.739
-79.792
-82.692
-85.337
-87.583
-89.314
-90.461
-90.971
-90.837
-90.079
-88.733
-86.855
-84.514
-81.774
-78.695
-75.331
-71.734
-67.968
-64.106
-60.218
-56.375
-52.627
-49.005
-45.535
-42.221
-39.06
-36.038
-33.129
-30.305
-27.54
-24.817
-22.118
-19.428
-16.729
-13.999
-11.221
-8.374
-5.444
-2.415
0.725
3.986
7.373
10.892
14.542
18.323
22.234
26.275
30.443
34.738
39.154
43.687
48.329
53.073
57.908
62.821
67.798
72.821
77.874
82.938
87.991
93.014
97.985
102.88
107.676
112.351
116.88
121.24
125.406
129.356
133.065
136.513
139.676
142.535
145.071
147.266
149.105
150.574
151.66
152.352
152.644
152.528
152
151.058
149.702
147.934
145.758
143.182
140.213
136.864
133.148
129.078
124.673
119.95
114.929
109.631
104.077
98.292
92.298
86.122
79.789
73.324
66.755
60.107
53.407
46.681
39.955
33.254
26.601
20.02
13.534
7.163
0.929
-5.151
-11.058
-16.775
-22.289
-27.584
-32.651
-37.478
-42.056
-46.379
-50.441
-54.237
-57.765
-61.023
-64.012
-66.733
-69.187
-71.38
-73.315
-74.998
-76.437
-77.64
-78.614
-79.37
-79.917
-80.266
-80.427
-80.412
-80.231
-79.896
-79.418
-78.809
-78.081
-77.244
-76.309
-75.289
-74.192
-73.029
-71.81
-70.545
-69.242
-67.909
-66.555
-65.187
-63.812
-62.437
-61.068
-59.71
-58.369
-57.048
-55.753
-54.487
-53.252
-52.054
-50.892
-49.771
-48.691
-47.655
-46.664
-45.718
-44.82
-43.969
-43.167
-42.414
-41.71
-41.056
-40.452
-39.897
-39.393
-38.939
-38.534
-38.178
-37.872
-37.614
-37.405
-37.243
-37.129
-37.063
-37.043
-37.069
-37.142
-37.259
-37.421
-37.628
-37.877
-38.168
-38.501
-38.873
-39.284
-39.733
-40.218
-40.736
-41.287
-41.867
-42.475
-43.107
-43.76
-44.431
-45.116
-45.812
-46.516
-47.223
-47.93
-48.633
-49.328
-50.009
-50.674
-51.316
-51.931
-52.513
-53.056
-53.556
-54.007
-54.403
-54.74
-55.012
-55.214
-55.34
-55.387
-55.348
-55.22
-54.997
-54.675
-54.251
-53.722
-53.086
-52.34
-51.483
-50.516
-49.438
-48.25
-46.954
-45.552
-44.046
-42.441
-40.74
-38.95
-37.077
-35.129
-33.114
-31.045
-28.933
-26.791
-24.633
-22.474
-20.328
-18.211
-16.14
-14.126
-12.184
-10.328
-8.572
-6.93
-5.419
-4.053
-2.846
-1.815
-0.972
-0.33
0.104
0.327
0.34
0.14
-0.276
-0.92
-1.802
-2.923
-4.285
-5.89
-7.732
-9.797
-12.054
-14.451
-16.939
-19.474
-22.014
-24.536
-27.007
-29.387
-31.636
-33.699
-35.526
-37.086
-38.342
-39.254
-39.804
-40.01
-39.952
-39.762
-39.568
-39.466
-39.515
-39.778
-40.362
-41.388
-42.978
-45.263
-48.293
-52.163
-57.099
-63.133
-70.09
-77.557
-84.697
-90.694
-95.046
-97.065
-95.938
-91.525
-84.091
-74.581
-65.105
-57.293
-52.033
-50.734
-54.523
-63.057
-75.167
-87.974
-96.492
-96.83
-85.714
-58.365
-10.693
59.369
150.466
256.017
367.507
479.645
593.308
710.066
825.119
924.513
984.242
983.604
915.807
788.593
620.628
429.711
231.193
39.339
-128.82
-252.491
-320.581
-336.857
-318.649
-288.282
-259.522
-234.264
-206.956
-174.621
-139.651
-106.927
-82.583
-68.684
-63.704
-66.288
-73.556
-81.806
-88.744
-92.975
-93.815
-91.73
-87.21
-80.066
-71.019
-61.769
-53.582
-47.307
-43.34
-41.391
-41.261
-43.127
-46.706
-51.304
-56.362
-61.342
-65.919
-70.082
-73.75
-76.745
-79.008
-80.558
-81.412
-81.636
-81.239
-80.157
-78.397
-76.017
-73.123
-69.839
-66.268
-62.499
-58.623
-54.733
-50.9
-47.164
-43.534
-40.001
-36.567
-33.233
-30.01
-26.904
-23.907
-21
-18.145
-15.308
-12.458
-9.565
-6.6
-3.53
-0.332
3.004
6.476
10.079
13.809
17.669
21.661
25.788
30.044
34.428
38.931
43.549
48.275
53.099
58.009
62.991
68.032
73.118
78.24
83.383
88.533
93.671
98.78
103.842
108.836
113.741
118.536
123.197
127.7
132.024
136.147
140.047
143.703
147.095
150.203
153.01
155.499
157.653
159.46
160.907
161.982
162.676
162.981
162.89
162.4
161.507
160.211
158.513
156.416
153.925
151.047
147.791
144.169
140.192
135.875
131.234
126.286
121.052
115.551
109.806
103.84
97.677
91.344
84.864
78.264
71.57
64.808
58.002
51.179
44.363
37.578
30.848
24.195
17.641
11.208
4.914
-1.22
-7.178
-12.942
-18.498
-23.831
-28.93
-33.783
-38.381
-42.715
-46.779
-50.567
-54.077
-57.307
-60.255
-62.925
-65.319
-67.441
-69.298
-70.896
-72.244
-73.351
-74.227
-74.883
-75.33
-75.581
-75.646
-75.538
-75.27
-74.854
-74.303
-73.629
-72.845
-71.964
-70.996
-69.955
-68.851
-67.696
-66.501
-65.277
-64.033
-62.779
-61.524
-60.276
-59.043
-57.831
-56.646
-55.494
-54.379
-53.303
-52.27
-51.281
-50.337
-49.439
-48.588
-47.781
-47.02
-46.303
-45.629
-44.998
-44.408
-43.859
-43.349
-42.878
-42.444
-42.048
-41.687
-41.362
-41.071
-40.812
-40.587
-40.392
-40.229
-40.095
-39.991
-39.916
-39.869
-39.852
-39.863
-39.903
-39.973
-40.075
-40.21
-40.379
-40.585
-40.829
-41.113
-41.439
-41.808
-42.221
-42.679
-43.181
-43.727
-44.315
-44.944
-45.611
-46.313
-47.049
-47.814
-48.604
-49.415
-50.244
-51.084
-51.932
-52.782
-53.627
-54.463
-55.283
-56.081
-56.851
-57.586
-58.279
-58.923
-59.511
-60.035
-60.486
-60.858
-61.142
-61.33
-61.415
-61.391
-61.254
-60.997
-60.617
-60.113
-59.481
-58.723
-57.838
-56.829
-55.699
-54.45
-53.087
-51.618
-50.048
-48.385
-46.639
-44.818
-42.935
-41.004
-39.037
-37.051
-35.059
-33.078
-31.123
-29.212
-27.358
-25.576
-23.88
-22.284
-20.804
-19.458
-18.26
-17.227
-16.37
-15.701
-15.23
-14.964
-14.902
-15.043
-15.386
-15.934
-16.698
-17.686
-18.902
-20.349
-22.024
-23.918
-26.012
-28.275
-30.66
-33.122
-35.617
-38.107
-40.565
-42.956
-45.242
-47.371
-49.283
-50.922
-52.245
-53.205
-53.762
-53.907
-53.678
-53.145
-52.423
-51.612
-50.769
-49.973
-49.319
-48.915
-48.893
-49.398
-50.51
-52.36
-55.179
-59.001
-63.712
-69.008
-74.177
-78.525
-81.578
-82.682
-81.134
-76.899
-70.285
-62.13
-54.342
-48.442
-45.353
-46.425
-52.533
-63.014
-76.476
-90.244
-99.679
-100.749
-90.019
-63.114
-16.848
49.505
135.302
237.345
349.24
464.225
574.919
671.848
746.271
791.693
802.933
777.866
718.444
628.566
514.262
384.783
250.207
119.833
2.951
-93.022
-164.291
-209.445
-229.338
-227.772
-209.987
-181.46
-148.693
-117.81
-92.546
-74.979
-65.771
-63.916
-67.749
-75.472
-84.459
-91.993
-96.638
-97.824
-95.704
-91.141
-84.967
-77.894
-70.899
-64.979
-60.65
-58.111
-57.269
-57.763
-59.321
-61.735
-64.746
-68.098
-71.584
-75.027
-78.269
-81.195
-83.707
-85.717
-87.175
-88.051
-88.328
-88.014
-87.153
-85.799
-84.01
-81.843
-79.34
-76.539
-73.495
-70.269
-66.929
-63.547
-60.169
-56.824
-53.534
-50.311
-47.158
-44.07
-41.024
-37.989
-34.943
-31.867
-28.749
-25.579
-22.342
-19.018
-15.594
-12.055
-8.389
-4.59
-0.649
3.439
7.675
12.058
16.581
21.237
26.016
30.914
35.922
41.033
46.236
51.52
56.874
62.286
67.74
73.22
78.707
84.183
89.625
95.015
100.328
105.544
110.638
115.589
120.374
124.97
129.354
133.505
137.4
141.021
144.346
147.357
150.036
152.369
154.34
155.936
157.149
157.968
158.388
158.402
158.009
157.207
155.997
154.382
152.367
149.958
147.164
143.997
140.469
136.595
132.392
127.879
123.074
117.999
112.677
107.129
101.381
95.455
89.378
83.175
76.87
70.491
64.062
57.609
51.156
44.728
38.348
32.039
25.822
19.717
13.744
7.921
2.264
-3.21
-8.488
-13.556
-18.403
-23.02
-27.397
-31.528
-35.408
-39.033
-42.401
-45.512
-48.367
-50.967
-53.316
-55.42
-57.283
-58.913
-60.317
-61.504
-62.484
-63.266
-63.862
-64.283
-64.54
-64.645
-64.61
-64.447
-64.168
-63.785
-63.309
-62.752
-62.126
-61.441
-60.708
-59.938
-59.14
-58.324
-57.498
-56.671
-55.849
-55.04
-54.248
-53.48
-52.739
-52.029
-51.353
-50.714
-50.112
-49.549
-49.025
-48.541
-48.096
-47.688
-47.317
-46.981
-46.678
-46.406
-46.163
-45.946
-45.754
-45.584
-45.434
-45.301
-45.183
-45.077
-44.981
-44.893
-44.81
-44.732
-44.655
-44.579
-44.502
-44.424
-44.345
-44.265
-44.183
-44.101
-44.019
-43.939
-43.862
-43.79
-43.725
-43.669
-43.623
-43.591
-43.574
-43.574
-43.593
-43.632
-43.693
-43.777
-43.884
-44.015
-44.17
-44.35
-44.553
-44.781
-45.031
-45.303
-45.595
-45.905
-46.231
-46.57
-46.918
-47.272
-47.626
-47.975
-48.316
-48.641
-48.945
-49.222
-49.464
-49.666
-49.82
-49.919
-49.955
-49.923
-49.814
-49.624
-49.347
-48.977
-48.511
-47.943
-47.271
-46.493
-45.606
-44.611
-43.506
-42.291
-40.969
-39.543
-38.015
-36.391
-34.677
-32.879
-31.009
-29.077
-27.096
-25.08
-23.041
-20.996
-18.96
-16.949
-14.977
-13.057
-11.203
-9.43
-7.755
-6.194
-4.762
-3.477
-2.352
-1.4
-0.634
-0.064
0.311
0.487
0.462
0.23
-0.228
-0.923
-1.86
-3.044
-4.474
-6.143
-8.033
-10.114
-12.332
-14.641
-16.994
-19.352
-21.692
-23.98
-26.179
-28.237
-30.094
-31.697
-33.012
-33.999
-34.623
-34.884
-34.821
-34.519
-34.11
-33.709
-33.389
-33.232
-33.325
-33.765
-34.669
-36.161
-38.313
-41.235
-45.115
-49.982
-55.734
-62.069
-68.322
-73.828
-78.066
-80.342
-79.917
-76.605
-70.572
-62.573
-54.329
-47.19
-42.053
-40.279
-42.882
-49.626
-59.514
-70.063
-76.929
-76.66
-66.3
-41.362
1.616
63.896
145.998
243.009
347.191
455.34
561.159
660.084
749.161
814.07
845.966
839.406
786
694.033
570.476
418.37
256.464
99.778
-36.87
-131.494
-182.369
-200.536
-195.424
-183.462
-171.923
-155.673
-135.093
-111.535
-87.124
-68.533
-58.545
-55.954
-59.178
-65.726
-72.806
-78.367
-81.256
-80.804
-77.181
-71.332
-64.115
-56.262
-48.728
-42.399
-37.745
-35.013
-34.123
-34.708
-36.488
-39.234
-42.669
-46.537
-50.62
-54.718
-58.651
-62.289
-65.516
-68.24
-70.401
-71.965
-72.913
-73.25
-73.017
-72.271
-71.068
-69.465
-67.508
-65.235
-62.707
-59.987
-57.147
-54.261
-51.375
-48.518
-45.713
-42.969
-40.289
-37.667
-35.078
-32.49
-29.88
-27.23
-24.526
-21.759
-18.911
-15.963
-12.901
-9.709
-6.376
-2.896
0.738
4.532
8.486
12.596
16.856
21.256
25.79
30.45
35.229
40.119
45.109
50.189
55.346
60.569
65.842
71.149
76.472
81.792
87.088
92.341
97.528
102.629
107.62
112.479
117.183
121.71
126.036
130.14
133.998
137.59
140.896
143.896
146.574
148.911
150.894
152.51
153.746
154.593
155.043
155.091
154.731
153.962
152.783
151.197
149.206
146.817
144.037
140.876
137.346
133.46
129.235
124.686
119.832
114.695
109.295
103.656
97.8
91.754
85.542
79.19
72.726
66.175
59.564
52.919
46.267
39.632
33.039
26.512
20.075
13.75
7.557
1.516
-4.354
-10.036
-15.513
-20.772
-25.798
-30.581
-35.111
-39.378
-43.376
-47.1
-50.546
-53.711
-56.596
-59.201
-61.53
-63.586
-65.374
-66.902
-68.178
-69.21
-70.009
-70.585
-70.951
-71.117
-71.096
-70.902
-70.548
-70.046
-69.412
-68.657
-67.796
-66.843
-65.81
-64.711
-63.558
-62.364
-61.141
-59.901
-58.654
-57.411
-56.183
-54.977
-53.803
-52.667
-51.577
-50.538
-49.555
-48.632
-47.772
-46.978
-46.25
-45.589
-44.997
-44.471
-44.011
-43.615
-43.281
-43.008
-42.791
-42.628
-42.517
-42.452
-42.431
-42.45
-42.504
-42.59
-42.702
-42.838
-42.992
-43.161
-43.34
-43.524
-43.711
-43.897
-44.079
-44.254
-44.419
-44.574
-44.716
-44.846
-44.961
-45.064
-45.155
-45.234
-45.304
-45.366
-45.423
-45.476
-45.528
-45.581
-45.639
-45.702
-45.774
-45.856
-45.951
-46.06
-46.185
-46.328
-46.489
-46.671
-46.873
-47.097
-47.343
-47.611
-47.899
-48.208
-48.535
-48.878
-49.233
-49.598
-49.968
-50.338
-50.704
-51.057
-51.393
-51.703
-51.981
-52.218
-52.407
-52.539
-52.607
-52.603
-52.519
-52.349
-52.086
-51.725
-51.259
-50.686
-50.001
-49.202
-48.288
-47.256
-46.107
-44.842
-43.464
-41.975
-40.379
-38.682
-36.891
-35.015
-33.068
-31.061
-29.009
-26.926
-24.829
-22.736
-20.663
-18.628
-16.643
-14.725
-12.891
-11.159
-9.548
-8.074
-6.753
-5.6
-4.627
-3.849
-3.275
-2.906
-2.743
-2.79
-3.052
-3.549
-4.293
-5.29
-6.546
-8.058
-9.819
-11.818
-14.031
-16.414
-18.927
-21.526
-24.173
-26.844
-29.506
-32.11
-34.603
-36.913
-38.981
-40.767
-42.22
-43.301
-44.018
-44.387
-44.468
-44.356
-44.104
-43.779
-43.478
-43.282
-43.31
-43.693
-44.506
-45.885
-48.046
-51.061
-54.887
-59.307
-63.731
-67.591
-70.498
-71.89
-71.151
-68.034
-62.589
-55.506
-48.456
-42.96
-39.969
-40.521
-45.451
-54.814
-67.956
-82.817
-95.269
-101.198
-97.509
-80.504
-46.53
6.389
79.452
169.897
268.876
370.625
472.173
571.12
669.733
760.13
823.993
846.997
816.577
733.321
614.107
472.353
318.925
167.035
26.142
-90.302
-164.967
-196.534
-195.587
-174.303
-150.508
-131.459
-112.732
-94.721
-76.855
-60.05
-50.281
-48.975
-54.2
-64.276
-75.929
-85.833
-92.841
-96.427
-96.247
-93.09
-87.96
-81.575
-74.972
-69.245
-64.848
-61.983
-60.717
-60.719
-61.729
-63.589
-66.023
-68.793
-71.755
-74.761
-77.702
-80.492
-82.983
-85.053
-86.63
-87.656
-88.123
-88.038
-87.407
-86.273
-84.695
-82.725
-80.418
-77.814
-74.943
-71.857
-68.615
-65.28
-61.926
-58.601
-55.334
-52.154
-49.069
-46.079
-43.18
-40.348
-37.555
-34.78
-32.005
-29.216
-26.404
-23.552
-20.641
-17.655
-14.579
-11.399
-8.105
-4.685
-1.133
2.556
6.382
10.342
14.431
18.645
22.981
27.433
31.994
36.658
41.416
46.259
51.174
56.15
61.171
66.22
71.278
76.327
81.344
86.31
91.2
95.993
100.664
105.19
109.548
113.715
117.667
121.382
124.838
128.014
130.892
133.452
135.678
137.554
139.068
140.209
140.966
141.333
141.304
140.877
140.05
138.825
137.204
135.193
132.798
130.03
126.9
123.421
119.608
115.48
111.055
106.353
101.396
96.208
90.812
85.233
79.495
73.625
67.648
61.591
55.478
49.335
43.188
37.06
30.975
24.956
19.023
13.198
7.499
1.943
-3.453
-8.675
-13.71
-18.545
-23.17
-27.577
-31.758
-35.707
-39.42
-42.893
-46.127
-49.121
-51.876
-54.395
-56.683
-58.744
-60.586
-62.214
-63.638
-64.865
-65.906
-66.771
-67.469
-68.011
-68.408
-68.672
-68.812
-68.84
-68.767
-68.603
-68.357
-68.04
-67.661
-67.229
-66.751
-66.237
-65.693
-65.127
-64.546
-63.955
-63.36
-62.768
-62.181
-61.604
-61.041
-60.494
-59.966
-59.458
-58.972
-58.508
-58.067
-57.649
-57.254
-56.881
-56.529
-56.198
-55.885
-55.59
-55.31
-55.046
-54.794
-54.554
-54.325
-54.105
-53.893
-53.689
-53.491
-53.299
-53.112
-52.929
-52.75
-52.573
-52.399
-52.228
-52.058
-51.891
-51.725
-51.563
-51.403
-51.248
-51.099
-50.955
-50.82
-50.693
-50.577
-50.474
-50.385
-50.312
-50.257
-50.221
-50.208
-50.218
-50.253
-50.315
-50.404
-50.521
-50.666
-50.841
-51.044
-51.276
-51.535
-51.822
-52.134
-52.471
-52.831
-53.212
-53.611
-54.026
-54.452
-54.886
-55.324
-55.759
-56.188
-56.605
-57.005
-57.38
-57.726
-58.034
-58.299
-58.512
-58.669
-58.759
-58.778
-58.717
-58.569
-58.33
-57.993
-57.553
-57.004
-56.344
-55.568
-54.675
-53.663
-52.53
-51.276
-49.903
-48.413
-46.808
-45.094
-43.276
-41.36
-39.358
-37.279
-35.136
-32.942
-30.712
-28.46
-26.203
-23.956
-21.735
-19.554
-17.428
-15.373
-13.406
-11.545
-9.807
-8.21
-6.769
-5.499
-4.415
-3.528
-2.843
-2.363
-2.093
-2.041
-2.223
-2.654
-3.342
-4.291
-5.503
-6.974
-8.691
-10.629
-12.746
-14.998
-17.343
-19.746
-22.181
-24.622
-27.033
-29.362
-31.543
-33.518
-35.245
-36.687
-37.801
-38.568
-39.007
-39.177
-39.183
-39.124
-39.059
-39.044
-39.156
-39.473
-40.107
-41.196
-42.829
-45.137
-48.324
-52.423
-57.344
-62.839
-68.315
-73.157
-76.915
-78.928
-78.48
-75.467
-70.099
-63.132
-56.232
-50.685
-47.266
-47.152
-51.297
-59.41
-70.465
-82.065
-90.058
-90.954
-81.779
-58.897
-19.248
38.637
114.85
207.072
310.186
418.727
526.468
625.662
708.538
768.038
798.426
796.31
761.276
695.062
601.863
488.398
362.884
234.466
112.007
3.661
-84.137
-147.801
-186.469
-201.678
-197.063
-177.677
-148.971
-117.062
-87.663
-64.289
-48.696
-41.211
-40.743
-45.597
-53.909
-63.143
-70.796
-75.59
-77.088
-75.531
-71.779
-66.64
-60.82
-55.246
-50.784
-47.855
-46.586
-46.833
-48.247
-50.565
-53.578
-57.035
-60.703
-64.385
-67.913
-71.154
-74.01
-76.386
-78.217
-79.457
-80.089
-80.115
-79.556
-78.459
-76.882
-74.882
-72.515
-69.827
-66.86
-63.67
-60.319
-56.872
-53.393
-49.928
-46.505
-43.145
-39.858
-36.644
-33.498
-30.398
-27.317
-24.237
-21.141
-18.016
-14.853
-11.638
-8.353
-4.985
-1.518
2.058
5.752
9.572
13.524
17.609
21.827
26.175
30.646
35.236
39.94
44.754
49.671
54.683
59.783
64.961
70.206
75.505
80.842
86.202
91.567
96.916
102.232
107.493
112.677
117.764
122.731
127.556
132.216
136.69
140.954
144.988
148.769
152.278
155.494
158.4
160.978
163.213
165.092
166.601
167.73
168.471
168.817
168.763
168.304
167.441
166.173
164.504
162.438
159.982
157.145
153.938
150.375
146.47
142.239
137.7
132.873
127.779
122.439
116.875
111.112
105.174
99.085
92.871
86.557
80.17
73.733
67.273
60.814
54.38
47.994
41.678
35.454
29.341
23.36
17.528
11.861
6.375
1.083
-4.001
-8.868
-13.508
-17.914
-22.079
-25.998
-29.67
-33.092
-36.265
-39.189
-41.868
-44.304
-46.504
-48.473
-50.218
-51.747
-53.069
-54.194
-55.132
-55.893
-56.49
-56.932
-57.233
-57.403
-57.454
-57.398
-57.246
-57.008
-56.696
-56.319
-55.887
-55.409
-54.895
-54.351
-53.785
-53.204
-52.614
-52.019
-51.425
-50.835
-50.253
-49.681
-49.122
-48.576
-48.046
-47.531
-47.031
-46.548
-46.079
-45.625
-45.184
-44.754
-44.334
-43.922
-43.516
-43.115
-42.717
-42.32
-41.924
-41.526
-41.127
-40.725
-40.32
-39.913
-39.503
-39.091
-38.677
-38.264
-37.851
-37.442
-37.038
-36.642
-36.255
-35.882
-35.524
-35.184
-34.865
-34.57
-34.303
-34.065
-33.86
-33.691
-33.56
-33.47
-33.424
-33.423
-33.47
-33.567
-33.715
-33.914
-34.166
-34.47
-34.827
-35.235
-35.692
-36.198
-36.75
-37.346
-37.982
-38.655
-39.36
-40.093
-40.849
-41.624
-42.411
-43.205
-43.999
-44.788
-45.564
-46.321
-47.052
-47.749
-48.405
-49.012
-49.564
-50.053
-50.472
-50.813
-51.069
-51.233
-51.3
-51.264
-51.118
-50.857
-50.478
-49.976
-49.35
-48.598
-47.716
-46.706
-45.567
-44.302
-42.914
-41.405
-39.779
-38.043
-36.201
-34.262
-32.234
-30.126
-27.947
-25.711
-23.431
-21.124
-18.806
-16.494
-14.205
-11.96
-9.776
-7.671
-5.661
-3.76
-1.982
-0.344
1.138
2.446
3.565
4.483
5.186
5.663
5.903
5.903
5.665
5.193
4.484
3.534
2.325
0.846
-0.905
-2.932
-5.231
-7.788
-10.586
-13.59
-16.746
-20.002
-23.31
-26.629
-29.933
-33.187
-36.336
-39.318
-42.061
-44.5
-46.593
-48.289
-49.546
-50.377
-50.815
-50.936
-50.862
-50.67
-50.432
-50.258
-50.236
-50.483
-51.158
-52.347
-54.2
-56.956
-60.659
-65.235
-70.456
-75.691
-80.334
-83.998
-85.996
-85.581
-82.633
-77.29
-70.346
-63.661
-58.566
-55.752
-56.43
-61.558
-70.886
-83.552
-97.007
-106.531
-108.53
-100.498
-78.518
-38.877
20.194
99.796
195.999
298.781
403.184
506.561
606.207
704.934
793.755
855.182
877.519
845.937
759.655
631.064
468.134
289.218
113.965
-40.049
-149.99
-207.186
-218.278
-199.713
-172.82
-150.601
-134.852
-120.253
-103.097
-84.194
-67.228
-57.563
-56.843
-62.988
-73.322
-84.483
-93.607
-99.618
-102.105
-101.023
-97.141
-91.398
-84.611
-77.806
-71.988
-67.616
-64.859
-63.692
-63.798
-64.917
-66.876
-69.417
-72.293
-75.336
-78.389
-81.325
-84.061
-86.463
-88.413
-89.846
-90.712
-91.005
-90.743
-89.948
-88.665
-86.953
-84.865
-82.45
-79.752
-76.812
-73.681
-70.422
-67.098
-63.777
-60.506
-57.316
-54.23
-51.257
-48.392
-45.627
-42.938
-40.298
-37.684
-35.079
-32.468
-29.837
-27.17
-24.448
-21.653
-18.768
-15.776
-12.665
-9.424
-6.043
-2.517
1.158
4.98
8.946
13.054
17.301
21.683
26.195
30.831
35.582
40.439
45.392
50.427
55.531
60.687
65.876
71.078
76.275
81.443
86.561
91.606
96.554
101.381
106.065
110.58
114.903
119.011
122.881
126.49
129.818
132.845
135.55
137.918
139.933
141.58
142.849
143.73
144.214
144.298
143.977
143.251
142.121
140.589
138.661
136.345
133.651
130.59
127.176
123.426
119.357
114.987
110.337
105.43
100.286
94.93
89.385
83.676
77.828
71.865
65.813
59.697
53.542
47.372
41.212
35.083
29.009
23.01
17.106
11.316
5.657
0.146
-5.203
-10.376
-15.361
-20.148
-24.729
-29.095
-33.241
-37.162
-40.857
-44.324
-47.562
-50.573
-53.36
-55.926
-58.275
-60.411
-62.341
-64.071
-65.608
-66.959
-68.133
-69.138
-69.982
-70.675
-71.225
-71.64
-71.93
-72.103
-72.168
-72.132
-72.004
-71.792
-71.503
-71.145
-70.724
-70.246
-69.719
-69.147
-68.535
-67.887
-67.209
-66.502
-65.772
-65.019
-64.248
-63.461
-62.66
-61.848
-61.026
-60.198
-59.364
-58.527
-57.688
-56.85
-56.013
-55.181
-54.354
-53.536
-52.727
-51.93
-51.147
-50.38
-49.631
-48.901
-48.193
-47.508
-46.848
-46.214
-45.608
-45.032
-44.488
-43.978
-43.503
-43.065
-42.665
-42.306
-41.988
-41.712
-41.479
-41.289
-41.143
-41.041
-40.983
-40.968
-40.997
-41.068
-41.182
-41.336
-41.531
-41.763
-42.032
-42.335
-42.672
-43.04
-43.437
-43.862
-44.313
-44.789
-45.287
-45.806
-46.345
-46.9
-47.471
-48.054
-48.648
-49.251
-49.859
-50.472
-51.088
-51.703
-52.317
-52.927
-53.532
-54.128
-54.714
-55.286
-55.843
-56.381
-56.896
-57.387
-57.849
-58.28
-58.676
-59.034
-59.351
-59.622
-59.844
-60.013
-60.125
-60.175
-60.159
-60.073
-59.913
-59.675
-59.355
-58.952
-58.462
-57.883
-57.211
-56.445
-55.584
-54.627
-53.573
-52.422
-51.176
-49.837
-48.408
-46.895
-45.303
-43.639
-41.912
-40.131
-38.309
-36.455
-34.584
-32.708
-30.841
-28.999
-27.193
-25.438
-23.749
-22.14
-20.626
-19.222
-17.944
-16.808
-15.829
-15.022
-14.4
-13.975
-13.751
-13.733
-13.926
-14.338
-14.98
-15.862
-16.987
-18.358
-19.975
-21.832
-23.916
-26.198
-28.63
-31.169
-33.769
-36.394
-39.019
-41.615
-44.145
-46.573
-48.849
-50.929
-52.785
-54.384
-55.692
-56.691
-57.391
-57.855
-58.197
-58.528
-58.942
-59.49
-60.217
-61.192
-62.5
-64.235
-66.493
-69.326
-72.799
-77.07
-82.201
-88.083
-94.412
-100.512
-105.595
-109.037
-110.169
-108.284
-103.103
-94.785
-84.046
-72.595
-62.305
-54.644
-51.106
-52.858
-59.94
-71.379
-84.948
-96.525
-101.465
-95.447
-74.021
-33.497
27.944
110.262
211.266
325.713
446.467
565.477
673.629
761.955
822.928
850.862
842.108
796.372
716.797
609.065
481.214
342.696
203.1
71.455
-43.634
-135.617
-201.427
-240.767
-255.804
-250.733
-230.662
-201.083
-168.345
-138.258
-114.279
-98.062
-89.729
-88.077
-91.515
-98.251
-105.75
-111.512
-114.27
-113.669
-110.075
-104.434
-97.578
-90.218
-83.29
-77.697
-73.886
-71.979
-71.804
-72.971
-75.183
-78.214
-81.798
-85.674
-89.62
-93.433
-96.956
-100.075
-102.692
-104.731
-106.145
-106.909
-107.024
-106.519
-105.449
-103.88
-101.879
-99.507
-96.815
-93.855
-90.69
-87.39
-84.025
-80.664
-77.352
-74.117
-70.977
-67.941
-65.006
-62.159
-59.375
-56.622
-53.874
-51.113
-48.321
-45.484
-42.584
-39.6
-36.513
-33.307
-29.967
-26.481
-22.84
-19.036
-15.063
-10.923
-6.615
-2.146
2.481
7.263
12.194
17.27
22.482
27.821
33.277
38.839
44.492
50.221
56.008
61.834
67.679
73.521
79.338
85.108
90.807
96.411
101.896
107.237
112.41
117.391
122.155
126.68
130.942
134.921
138.595
141.947
144.957
147.611
149.894
151.795
153.303
154.411
155.113
155.406
155.288
154.762
153.829
152.496
150.769
148.657
146.173
143.328
140.138
136.62
132.79
128.669
124.275
119.63
114.757
109.678
104.415
98.993
93.434
87.762
82
76.168
70.286
64.373
58.446
52.522
46.618
40.747
34.923
29.161
23.474
17.876
12.378
6.987
1.711
-3.447
-8.481
-13.389
-18.168
-22.816
-27.332
-31.706
-35.932
-40.006
-43.93
-47.718
-51.383
-54.935
-58.381
-61.728
-64.976
-68.117
-71.131
-73.981
-76.627
-79.032
-81.167
-83.016
-84.559
-85.77
-86.603
-87.007
-86.935
-86.361
-85.265
-83.621
-81.433
-78.756
-75.686
-72.373
-68.961
-65.542
-62.218
-59.117
-56.371
-54.14
-52.606
-51.871
-52.087
-53.492
-56.127
-59.895
-64.49
-69.207
-73.35
-76.43
-77.726
-76.436
-72.384
-65.734
-57.288
-48.891
-41.912
-37.093
-35.688
-38.73
-45.918
-56.149
-66.68
-72.828
-70.973
-58.075
-29.703
17.993
87.044
176.105
278.891
387.478
496.851
608.587
725.058
840.879
942.637
1005.313
1006.383
942.98
824.606
673.87
514.116
352.68
196.924
55.565
-61.943
-137.952
-168.645
-165.332
-141.189
-114.928
-94.746
-76.795
-60.855
-45.748
-32.38
-26.231
-28.158
-35.977
-47.736
-59.924
-69.553
-75.806
-78.258
-76.86
-72.54
-66.356
-59.186
-52.159
-46.349
-42.189
-39.868
-39.394
-40.441
-42.754
-46.132
-50.271
-54.885
-59.77
-64.733
-69.61
-74.275
-78.554
-82.295
-85.407
-87.82
-89.513
-90.491
-90.768
-90.381
-89.388
-87.849
-85.822
-83.359
-80.513
-77.348
-73.941
-70.37
-66.717
-63.042
-59.384
-55.774
-52.225
-48.741
-45.317
-41.938
-38.578
-35.223
-31.861
-28.484
-25.087
-21.66
-18.191
-14.669
-11.084
-7.429
-3.698
0.11
3.997
7.961
11.994
16.09
20.237
24.428
28.654
32.909
37.183
41.468
45.754
50.03
54.285
58.507
62.682
66.795
70.829
74.769
78.598
82.301
85.859
89.258
92.478
95.506
98.324
100.916
103.268
105.366
107.195
108.744
110.002
110.957
111.603
111.931
111.936
111.615
110.965
109.986
108.681
107.051
105.103
102.843
100.281
97.427
94.292
90.891
87.238
83.352
79.248
74.947
70.467
65.83
61.057
56.17
51.19
46.141
41.044
35.922
30.798
25.692
20.626
15.622
10.699
5.876
1.172
-3.395
-7.81
-12.057
-16.123
-19.996
-23.666
-27.123
-30.361
-33.374
-36.158
-38.71
-41.031
-43.119
-44.978
-46.611
-48.021
-49.215
-50.198
-50.979
-51.567
-51.969
-52.196
-52.259
-52.168
-51.934
-51.569
-51.085
-50.494
-49.807
-49.037
-48.197
-47.298
-46.353
-45.373
-44.37
-43.356
-42.339
-41.331
-40.339
-39.373
-38.439
-37.544
-36.694
-35.894
-35.149
-34.461
-33.834
-33.271
-32.772
-32.339
-31.973
-31.673
-31.441
-31.274
-31.172
-31.135
-31.161
-31.248
-31.395
-31.599
-31.859
-32.172
-32.534
-32.944
-33.396
-33.889
-34.418
-34.98
-35.571
-36.187
-36.827
-37.486
-38.162
-38.852
-39.555
-40.267
-40.986
-41.712
-42.441
-43.173
-43.906
-44.638
-45.368
-46.095
-46.817
-47.533
-48.24
-48.937
-49.623
-50.296
-50.953
-51.593
-52.215
-52.817
-53.398
-53.956
-54.492
-55.005
-55.494
-55.958
-56.398
-56.813
-57.203
-57.567
-57.904
-58.216
-58.5
-58.757
-58.987
-59.189
-59.362
-59.508
-59.626
-59.715
-59.778
-59.813
-59.823
-59.808
-59.77
-59.71
-59.631
-59.534
-59.421
-59.295
-59.158
-59.01
-58.856
-58.695
-58.529
-58.361
-58.19
-58.019
-57.849
-57.68
-57.513
-57.351
-57.195
-57.044
-56.901
-56.767
-56.644
-56.531
-56.43
-56.342
-56.268
-56.208
-56.162
-56.131
-56.113
-56.109
-56.118
-56.138
-56.169
-56.21
-56.258
-56.313
-56.374
-56.439
-56.507
-56.578
-56.651
-56.725
-56.801
-56.877
-56.955
-57.034
-57.114
-57.195
-57.277
-57.36
-57.444
-57.529
-57.614
-57.701
-57.789
-57.878
-57.968
-58.061
-58.157
-58.257
-58.362
-58.473
-58.592
-58.72
-58.858
-59.009
-59.172
-59.35
-59.543
-59.753
-59.978
-60.22
-60.478
-60.752
-61.039
-61.339
-61.649
-61.968
-62.293
-62.621
-62.948
-63.272
-63.588
-63.893
-64.183
-64.453
-64.698
-64.915
-65.097
-65.239
-65.334
-65.378
-65.364
-65.284
-65.132
-64.902
-64.588
-64.183
-63.681
-63.077
-62.366
-61.543
-60.604
-59.548
-58.371
-57.072
-55.651
-54.109
-52.448
-50.671
-48.783
-46.79
-44.699
-42.52
-40.263
-37.939
-35.561
-33.142
-30.697
-28.239
-25.782
-23.341
-20.932
-18.569
-16.271
-14.054
-11.938
-9.941
-8.083
-6.38
-4.851
-3.512
-2.37
-1.436
-0.717
-0.224
0.023
0.009
-0.274
-0.834
-1.673
-2.789
-4.172
-5.796
-7.617
-9.59
-11.669
-13.813
-15.997
-18.189
-20.354
-22.45
-24.412
-26.184
-27.728
-29.009
-29.998
-30.677
-31.046
-31.171
-31.171
-31.168
-31.272
-31.55
-32.049
-32.862
-34.085
-35.828
-38.233
-41.367
-45.328
-50.296
-56.283
-63.155
-70.621
-78.012
-84.602
-89.879
-93.123
-93.564
-91.048
-85.69
-78.155
-70.056
-62.649
-56.717
-53.49
-53.972
-57.943
-64.523
-71.436
-74.587
-70.624
-56.665
-29.036
15.359
78.083
159.412
257.029
365.524
479.445
592.914
697.857
785.844
849.487
882.062
881.42
851.194
792.342
705.813
592.64
450.21
289.176
129.959
-7.776
-101.543
-147.473
-160.041
-152.68
-142.005
-134.907
-125.465
-112.822
-97.539
-81.563
-71.017
-67.931
-70.859
-78.147
-87.209
-95.491
-101.38
-103.964
-102.865
-98.543
-92.046
-84.346
-76.286
-68.783
-62.591
-58.114
-55.55
-54.803
-55.562
-57.564
-60.577
-64.34
-68.616
-73.214
-77.943
-82.621
-87.088
-91.16
-94.693
-97.603
-99.833
-101.357
-102.172
-102.298
-101.781
-100.689
-99.09
-97.038
-94.589
-91.796
-88.727
-85.462
-82.082
-78.665
-75.266
-71.919
-68.647
-65.46
-62.358
-59.332
-56.359
-53.411
-50.467
-47.515
-44.542
-41.538
-38.489
-35.379
-32.195
-28.921
-25.549
-22.07
-18.477
-14.767
-10.938
-6.992
-2.932
1.236
5.51
9.885
14.361
18.934
23.6
28.355
33.193
38.108
43.091
48.133
53.221
58.342
63.483
68.629
73.763
78.869
83.93
88.929
93.848
98.668
103.372
107.942
112.359
116.606
120.665
124.521
128.156
131.555
134.703
137.587
140.194
142.512
144.529
146.237
147.627
148.69
149.422
149.817
149.871
149.583
148.953
147.982
146.673
145.033
143.067
140.785
138.197
135.314
132.149
128.717
125.034
121.114
116.977
112.639
108.12
103.439
98.615
93.668
88.619
83.487
78.292
73.054
67.793
62.528
57.278
52.062
46.898
41.803
36.794
31.888
27.101
22.447
17.939
13.591
9.413
5.416
1.608
-2.004
-5.414
-8.617
-11.609
-14.391
-16.959
-19.317
-21.464
-23.406
-25.144
-26.685
-28.034
-29.198
-30.183
-30.998
-31.651
-32.149
-32.503
-32.72
-32.811
-32.785
-32.652
-32.423
-32.106
-31.713
-31.254
-30.739
-30.177
-29.579
-28.955
-28.312
-27.659
-27.005
-26.357
-25.721
-25.104
-24.511
-23.946
-23.414
-22.917
-22.459
-22.04
-21.663
-21.328
-21.036
-20.786
-20.578
-20.412
-20.287
-20.201
-20.153
-20.142
-20.167
-20.225
-20.315
-20.435
-20.583
-20.755
-20.95
-21.165
-21.398
-21.645
-21.903
-22.171
-22.445
-22.722
-23.001
-23.278
-23.553
-23.822
-24.084
-24.338
-24.584
-24.82
-25.047
-25.263
-25.47
-25.667
-25.855
-26.034
-26.206
-26.37
-26.527
-26.678
-26.824
-26.965
-27.101
-27.235
-27.365
-27.494
-27.621
-27.748
-27.875
-28.005
-28.138
-28.275
-28.419
-28.57
-28.731
-28.904
-29.091
-29.292
-29.511
-29.748
-30.005
-30.284
-30.585
-30.911
-31.261
-31.636
-32.037
-32.464
-32.917
-33.395
-33.899
-34.426
-34.978
-35.552
-36.147
-36.762
-37.396
-38.047
-38.712
-39.391
-40.08
-40.777
-41.478
-42.18
-42.879
-43.569
-44.247
-44.906
-45.542
-46.147
-46.718
-47.246
-47.725
-48.148
-48.509
-48.801
-49.017
-49.151
-49.196
-49.145
-48.995
-48.739
-48.374
-47.897
-47.303
-46.591
-45.76
-44.807
-43.733
-42.538
-41.224
-39.793
-38.247
-36.592
-34.834
-32.977
-31.03
-29.005
-26.912
-24.765
-22.577
-20.364
-18.143
-15.929
-13.741
-11.594
-9.503
-7.485
-5.555
-3.732
-2.033
-0.476
0.922
2.145
3.179
4.011
4.631
5.035
5.22
5.186
4.926
4.423
3.667
2.649
1.361
-0.197
-2.023
-4.102
-6.408
-8.901
-11.534
-14.263
-17.047
-19.857
-22.655
-25.406
-28.052
-30.527
-32.769
-34.722
-36.336
-37.563
-38.379
-38.8
-38.882
-38.723
-38.421
-38.047
-37.674
-37.408
-37.359
-37.648
-38.436
-39.815
-41.927
-45.017
-49.132
-54.173
-59.874
-65.6
-70.71
-74.803
-77.232
-77.235
-74.703
-69.817
-63.33
-57.04
-52.267
-49.656
-50.303
-55.089
-63.611
-74.838
-86.284
-93.481
-92.731
-81.265
-55.672
-12.628
49.43
130.523
228.724
336.674
447.103
556.182
656.177
744.016
817.798
865.901
884.2
864.961
797.37
688.538
541.634
370.721
204.723
58.557
-48.964
-111.152
-143.298
-154.648
-157.237
-158.249
-151.352
-135.361
-112.454
-86.387
-64.857
-51.669
-46.658
-48.626
-55.091
-63.917
-73.165
-80.654
-85.142
-86.296
-84.518
-80.753
-75.832
-70.446
-65.418
-61.544
-59.274
-58.738
-59.769
-62.01
-65.182
-69.065
-73.418
-78.008
-82.622
-87.074
-91.216
-94.924
-98.097
-100.66
-102.566
-103.793
-104.34
-104.228
-103.501
-102.22
-100.443
-98.229
-95.626
-92.678
-89.445
-85.997
-82.406
-78.745
-75.066
-71.401
-67.775
-64.202
-60.686
-57.222
-53.793
-50.373
-46.944
-43.494
-40.013
-36.493
-32.924
-29.291
-25.581
-21.782
-17.885
-13.883
-9.772
-5.546
-1.207
3.244
7.8
12.454
17.199
22.029
26.939
31.922
36.971
42.076
47.229
52.42
57.638
62.868
68.097
73.307
78.483
83.606
88.66
93.625
98.482
103.212
107.796
112.215
116.449
120.48
124.288
127.855
131.164
134.199
136.943
139.383
141.506
143.3
144.756
145.865
146.621
147.018
147.053
146.723
146.028
144.969
143.548
141.769
139.639
137.164
134.355
131.221
127.776
124.033
120.006
115.712
111.167
106.39
101.399
96.215
90.857
85.346
79.704
73.951
68.111
62.204
56.251
50.274
44.293
38.326
32.394
26.515
20.705
14.982
9.361
3.856
-1.517
-6.747
-11.82
-16.728
-21.459
-26.005
-30.358
-34.512
-38.461
-42.2
-45.727
-49.038
-52.133
-55.01
-57.67
-60.115
-62.348
-64.371
-66.19
-67.809
-69.235
-70.473
-71.532
-72.418
-73.139
-73.704
-74.119
-74.395
-74.538
-74.557
-74.462
-74.259
-73.959
-73.568
-73.095
-72.549
-71.937
-71.266
-70.544
-69.779
-68.977
-68.145
-67.291
-66.42
-65.539
-64.654
-63.77
-62.893
-62.027
-61.175
-60.344
-59.534
-58.749
-57.992
-57.265
-56.569
-55.906
-55.276
-54.682
-54.122
-53.598
-53.11
-52.657
-52.239
-51.857
-51.509
-51.194
-50.913
-50.663
-50.444
-50.256
-50.095
-49.962
-49.855
-49.771
-49.708
-49.664
-49.637
-49.624
-49.623
-49.631
-49.645
-49.663
-49.683
-49.702
-49.719
-49.731
-49.737
-49.734
-49.723
-49.7
-49.666
-49.62
-49.561
-49.488
-49.402
-49.303
-49.192
-49.067
-48.93
-48.783
-48.624
-48.456
-48.28
-48.098
-47.91
-47.719
-47.527
-47.337
-47.152
-46.974
-46.807
-46.653
-46.516
-46.4
-46.307
-46.242
-46.206
-46.203
-46.234
-46.304
-46.412
-46.561
-46.75
-46.981
-47.254
-47.566
-47.918
-48.307
-48.73
-49.185
-49.669
-50.178
-50.706
-51.249
-51.802
-52.358
-52.911
-53.454
-53.981
-54.482
-54.951
-55.379
-55.758
-56.078
-56.331
-56.507
-56.598
-56.595
-56.489
-56.272
-55.937
-55.476
-54.885
-54.157
-53.289
-52.278
-51.123
-49.821
-48.375
-46.786
-45.058
-43.194
-41.201
-39.087
-36.862
-34.538
-32.129
-29.65
-27.117
-24.548
-21.96
-19.371
-16.799
-14.259
-11.768
-9.344
-7.006
-4.773
-2.667
-0.707
1.087
2.7
4.112
5.313
6.294
7.05
7.577
7.865
7.894
7.649
7.116
6.284
5.148
3.71
1.982
-0.009
-2.222
-4.614
-7.137
-9.753
-12.429
-15.131
-17.823
-20.45
-22.941
-25.231
-27.254
-28.958
-30.296
-31.244
-31.824
-32.096
-32.16
-32.117
-32.039
-32.001
-32.108
-32.47
-33.212
-34.501
-36.446
-39.216
-43.093
-48.137
-54.233
-61.068
-67.937
-74.146
-79.259
-82.596
-83.359
-81.471
-77.205
-71.485
-66.329
-63.178
-62.733
-66.087
-74.015
-85.93
-100.553
-115.025
-124.424
-124.845
-113.182
-85.671
-39.398
26.917
113.296
216.956
331.879
452.171
571.645
681.995
774.712
842.345
878.113
879.943
851.61
794.055
708.092
594.667
450.887
287.388
125.094
-15.934
-112.48
-160.037
-173.369
-166.128
-155.191
-147.839
-137.826
-124.07
-107.299
-89.557
-77.263
-72.758
-74.684
-81.383
-90.276
-98.729
-104.937
-107.901
-107.172
-103.109
-96.731
-88.983
-80.659
-72.701
-65.945
-60.821
-57.551
-56.051
-55.981
-57.087
-59.155
-61.925
-65.161
-68.659
-72.22
-75.679
-78.899
-81.719
-84.008
-85.688
-86.701
-87.035
-86.7
-85.726
-84.164
-82.081
-79.544
-76.614
-73.346
-69.797
-66.035
-62.135
-58.174
-54.227
-50.345
-46.563
-42.904
-39.376
-35.978
-32.698
-29.514
-26.398
-23.329
-20.289
-17.265
-14.243
-11.207
-8.14
-5.024
-1.843
1.417
4.765
8.212
11.765
15.428
19.201
23.083
27.071
31.161
35.353
39.643
44.028
48.503
53.062
57.699
62.404
67.167
71.978
76.821
81.682
86.545
91.393
96.208
100.971
105.662
110.263
114.751
119.108
123.311
127.34
131.176
134.797
138.184
141.318
144.182
146.758
149.03
150.985
152.61
153.894
154.826
155.399
155.607
155.446
154.912
154.005
152.726
151.077
149.062
146.689
143.966
140.902
137.51
133.802
129.793
125.5
120.94
116.133
111.096
105.852
100.421
94.825
89.088
83.231
77.279
71.254
65.179
59.077
52.97
46.88
40.828
34.834
28.917
23.096
17.388
11.81
6.377
1.103
-3.999
-8.917
-13.64
-18.16
-22.468
-26.557
-30.422
-34.06
-37.466
-40.64
-43.581
-46.29
-48.769
-51.021
-53.051
-54.863
-56.464
-57.86
-59.059
-60.069
-60.899
-61.559
-62.057
-62.403
-62.608
-62.68
-62.631
-62.47
-62.208
-61.853
-61.415
-60.904
-60.329
-59.699
-59.022
-58.306
-57.56
-56.79
-56.004
-55.208
-54.409
-53.612
-52.822
-52.044
-51.283
-50.541
-49.823
-49.131
-48.466
-47.832
-47.23
-46.66
-46.123
-45.619
-45.15
-44.714
-44.312
-43.942
-43.606
-43.301
-43.027
-42.784
-42.57
-42.385
-42.227
-42.096
-41.99
-41.908
-41.849
-41.812
-41.795
-41.797
-41.816
-41.852
-41.902
-41.965
-42.041
-42.128
-42.225
-42.331
-42.446
-42.568
-42.698
-42.835
-42.978
-43.128
-43.284
-43.446
-43.614
-43.788
-43.967
-44.153
-44.344
-44.541
-44.743
-44.951
-45.165
-45.386
-45.612
-45.846
-46.086
-46.335
-46.592
-46.858
-47.135
-47.422
-47.722
-48.034
-48.36
-48.701
-49.056
-49.425
-49.809
-50.207
-50.618
-51.042
-51.476
-51.92
-52.371
-52.827
-53.288
-53.749
-54.208
-54.663
-55.11
-55.546
-55.967
-56.37
-56.75
-57.103
-57.425
-57.711
-57.956
-58.155
-58.302
-58.392
-58.419
-58.377
-58.26
-58.062
-57.777
-57.401
-56.929
-56.356
-55.679
-54.895
-54.002
-52.999
-51.886
-50.663
-49.332
-47.893
-46.351
-44.709
-42.972
-41.146
-39.237
-37.253
-35.205
-33.105
-30.963
-28.794
-26.612
-24.43
-22.265
-20.132
-18.046
-16.02
-14.068
-12.204
-10.446
-8.809
-7.309
-5.964
-4.788
-3.793
-2.992
-2.396
-2.005
-1.822
-1.848
-2.086
-2.55
-3.25
-4.194
-5.386
-6.831
-8.523
-10.448
-12.581
-14.879
-17.299
-19.797
-22.332
-24.875
-27.391
-29.843
-32.183
-34.356
-36.306
-37.986
-39.349
-40.351
-40.971
-41.235
-41.202
-40.977
-40.662
-40.329
-40.062
-39.97
-40.173
-40.806
-42.013
-43.877
-46.521
-50.166
-54.892
-60.635
-67.131
-73.729
-79.726
-84.612
-87.752
-88.416
-86.313
-81.507
-74.643
-67.451
-61.656
-58.381
-58.84
-64.012
-73.849
-87.501
-102.827
-115.51
-120.862
-115.094
-94.286
-54.577
6.114
88.193
190.562
306.004
425.686
544.983
655.587
752.885
834.686
886.845
901.505
874.957
799.805
686.023
542.635
372.956
196.221
28.829
-113.333
-207.401
-252.081
-260.52
-244.603
-222.731
-202.885
-179.946
-154.514
-127.793
-101.822
-83.286
-74.409
-73.463
-78.592
-86.823
-95.015
-101.136
-104.079
-103.321
-99.292
-93.082
-85.629
-77.77
-70.504
-64.642
-60.585
-58.492
-58.185
-59.257
-61.407
-64.382
-67.903
-71.725
-75.634
-79.426
-82.943
-86.06
-88.669
-90.689
-92.074
-92.796
-92.858
-92.286
-91.131
-89.457
-87.326
-84.797
-81.918
-78.737
-75.317
-71.729
-68.048
-64.347
-60.677
-57.07
-53.552
-50.132
-46.814
-43.585
-40.426
-37.305
-34.203
-31.102
-27.989
-24.855
-21.682
-18.455
-15.157
-11.772
-8.29
-4.699
-0.992
2.838
6.795
10.878
15.085
19.411
23.854
28.411
33.079
37.855
42.733
47.709
52.775
57.924
63.145
68.427
73.756
79.116
84.493
89.869
95.225
100.542
105.8
110.978
116.054
121.007
125.815
130.455
134.904
139.141
143.143
146.89
150.36
153.534
156.392
158.918
161.095
162.908
164.343
165.389
166.035
166.272
166.096
165.501
164.484
163.046
161.188
158.914
156.231
153.147
149.674
145.822
141.608
137.047
132.159
126.961
121.476
115.726
109.735
103.528
97.129
90.566
83.865
77.054
70.158
63.207
56.227
49.245
42.287
35.38
28.549
21.817
15.209
8.746
2.448
-3.664
-9.573
-15.263
-20.719
-25.928
-30.88
-35.565
-39.974
-44.103
-47.946
-51.502
-54.769
-57.748
-60.442
-62.853
-64.987
-66.851
-68.451
-69.797
-70.897
-71.762
-72.403
-72.832
-73.062
-73.105
-72.975
-72.686
-72.251
-71.684
-71
-70.21
-69.328
-68.368
-67.341
-66.259
-65.132
-63.972
-62.788
-61.589
-60.384
-59.181
-57.987
-56.808
-55.65
-54.518
-53.417
-52.352
-51.324
-50.339
-49.397
-48.501
-47.653
-46.854
-46.104
-45.403
-44.752
-44.149
-43.594
-43.085
-42.621
-42.201
-41.822
-41.482
-41.18
-40.915
-40.684
-40.485
-40.318
-40.181
-40.072
-39.99
-39.934
-39.903
-39.896
-39.912
-39.949
-40.007
-40.084
-40.18
-40.293
-40.421
-40.564
-40.719
-40.886
-41.063
-41.248
-41.442
-41.643
-41.85
-42.063
-42.282
-42.507
-42.738
-42.974
-43.217
-43.466
-43.722
-43.985
-44.256
-44.535
-44.823
-45.12
-45.426
-45.742
-46.067
-46.402
-46.747
-47.101
-47.465
-47.839
-48.222
-48.615
-49.017
-49.429
-49.851
-50.281
-50.719
-51.164
-51.614
-52.069
-52.524
-52.977
-53.425
-53.863
-54.289
-54.697
-55.081
-55.438
-55.759
-56.04
-56.274
-56.453
-56.572
-56.624
-56.601
-56.499
-56.31
-56.03
-55.653
-55.173
-54.588
-53.893
-53.085
-52.161
-51.119
-49.958
-48.679
-47.281
-45.768
-44.142
-42.408
-40.571
-38.639
-36.622
-34.531
-32.377
-30.174
-27.937
-25.681
-23.423
-21.177
-18.96
-16.788
-14.678
-12.647
-10.715
-8.9
-7.22
-5.692
-4.331
-3.153
-2.169
-1.385
-0.807
-0.439
-0.289
-0.372
-0.703
-1.288
-2.134
-3.243
-4.611
-6.225
-8.066
-10.093
-12.269
-14.556
-16.92
-19.335
-21.772
-24.196
-26.558
-28.798
-30.855
-32.678
-34.227
-35.454
-36.342
-36.906
-37.194
-37.299
-37.312
-37.289
-37.299
-37.422
-37.753
-38.413
-39.523
-41.183
-43.537
-46.786
-51.02
-56.177
-61.987
-67.908
-73.343
-77.789
-80.659
-81.226
-79.068
-74.292
-67.596
-60.35
-54.027
-49.619
-48.068
-50.607
-57.815
-68.952
-81.991
-93.474
-99.368
-96.254
-80.767
-48.79
2.909
75.289
167.135
274.545
391.71
512.352
628.72
731.172
810.353
858.348
871.636
849.748
791.556
700.036
576.445
424.573
261.968
103.253
-34.935
-135.418
-201.612
-238.37
-250.994
-251.074
-238.988
-215.324
-185.958
-154.248
-126.262
-106.806
-96.141
-93.424
-96.506
-102.785
-109.721
-114.679
-116.099
-113.438
-106.945
-97.634
-86.543
-74.577
-62.863
-52.48
-44.026
-37.779
-33.71
-31.547
-31.116
-32.261
-34.72
-38.222
-42.517
-47.35
-52.496
-57.728
-62.797
-67.507
-71.723
-75.355
-78.364
-80.711
-82.368
-83.316
-83.527
-82.998
-81.745
-79.785
-77.173
-73.998
-70.374
-66.458
-62.396
-58.285
-54.192
-50.158
-46.194
-42.317
-38.53
-34.819
-31.187
-27.635
-24.163
-20.778
-17.472
-14.219
-10.983
-7.711
-4.35
-0.866
2.763
6.555
10.514
14.642
18.936
23.381
27.967
32.688
37.538
42.517
47.621
52.839
58.158
63.562
69.033
74.551
80.099
85.656
91.204
96.723
102.197
107.609
112.942
118.176
123.291
128.264
133.072
137.693
142.104
146.281
150.204
153.849
157.199
160.236
162.943
165.306
167.31
168.946
170.202
171.07
171.543
171.617
171.287
170.551
169.41
167.865
165.92
163.581
160.856
157.755
154.289
150.472
146.319
141.845
137.069
132.01
126.689
121.127
115.348
109.376
103.235
96.952
90.553
84.064
77.51
70.917
64.309
57.712
51.148
44.641
38.212
31.882
25.672
19.601
13.687
7.947
2.396
-2.95
-8.079
-12.979
-17.64
-22.054
-26.212
-30.11
-33.744
-37.11
-40.208
-43.037
-45.599
-47.899
-49.941
-51.73
-53.275
-54.583
-55.664
-56.528
-57.186
-57.649
-57.929
-58.037
-57.985
-57.787
-57.454
-56.998
-56.433
-55.769
-55.02
-54.197
-53.312
-52.376
-51.4
-50.395
-49.37
-48.335
-47.3
-46.272
-45.26
-44.27
-43.309
-42.384
-41.498
-40.656
-39.861
-39.115
-38.421
-37.78
-37.192
-36.657
-36.175
-35.745
-35.366
-35.037
-34.756
-34.523
-34.334
-34.189
-34.084
-34.019
-33.99
-33.996
-34.035
-34.103
-34.199
-34.32
-34.465
-34.629
-34.812
-35.01
-35.221
-35.444
-35.675
-35.914
-36.158
-36.407
-36.66
-36.915
-37.173
-37.434
-37.697
-37.964
-38.234
-38.508
-38.788
-39.073
-39.365
-39.664
-39.972
-40.288
-40.614
-40.95
-41.297
-41.655
-42.026
-42.409
-42.805
-43.215
-43.64
-44.078
-44.532
-45.001
-45.485
-45.985
-46.5
-47.031
-47.576
-48.135
-48.706
-49.287
-49.877
-50.473
-51.071
-51.668
-52.26
-52.842
-53.41
-53.959
-54.485
-54.982
-55.444
-55.867
-56.244
-56.57
-56.84
-57.047
-57.186
-57.251
-57.236
-57.137
-56.948
-56.666
-56.285
-55.8
-55.21
-54.51
-53.697
-52.771
-51.728
-50.57
-49.297
-47.91
-46.415
-44.814
-43.114
-41.324
-39.452
-37.508
-35.506
-33.456
-31.374
-29.272
-27.167
-25.07
-22.998
-20.965
-18.984
-17.073
-15.246
-13.52
-11.912
-10.439
-9.115
-7.955
-6.972
-6.173
-5.566
-5.158
-4.958
-4.981
-5.24
-5.741
-6.492
-7.497
-8.752
-10.249
-11.962
-13.852
-15.879
-18.001
-20.181
-22.392
-24.601
-26.775
-28.873
-30.844
-32.642
-34.23
-35.574
-36.642
-37.42
-37.917
-38.199
-38.37
-38.545
-38.824
-39.271
-39.949
-40.947
-42.363
-44.305
-46.881
-50.152
-54.202
-59.198
-65.19
-72.063
-79.508
-86.863
-93.398
-98.55
-101.664
-102.012
-99.257
-93.461
-85.246
-76.191
-67.936
-61.679
-58.716
-60.162
-66.213
-76.192
-88.161
-98.261
-102.216
-96.143
-75.93
-37.939
20.015
98.581
196.218
308.06
427.517
547.439
658.938
752.492
819.969
854.143
851.752
815.933
748.579
651.37
526.179
371.177
197.489
27.123
-118.339
-214.665
-257.228
-261.638
-242.691
-218.583
-197.646
-174.239
-148.163
-120.704
-94
-74.699
-65.033
-63.333
-67.827
-75.559
-83.434
-89.487
-92.604
-92.318
-89.105
-83.964
-77.747
-71.224
-65.304
-60.748
-57.932
-56.96
-57.618
-59.49
-62.262
-65.692
-69.521
-73.495
-77.399
-81.026
-84.212
-86.884
-88.978
-90.441
-91.253
-91.401
-90.894
-89.787
-88.15
-86.045
-83.538
-80.682
-77.519
-74.11
-70.525
-66.838
-63.128
-59.447
-55.829
-52.299
-48.871
-45.553
-42.341
-39.216
-36.147
-33.111
-30.091
-27.072
-24.046
-20.995
-17.901
-14.747
-11.514
-8.189
-4.762
-1.221
2.443
6.235
10.158
14.211
18.391
22.695
27.123
31.671
36.338
41.12
46.009
50.999
56.083
61.25
66.488
71.781
77.114
82.469
87.828
93.173
98.481
103.733
108.906
113.979
118.927
123.728
128.359
132.796
137.015
140.995
144.712
148.146
151.276
154.082
156.548
158.655
160.39
161.739
162.691
163.236
163.367
163.078
162.365
161.227
159.665
157.683
155.286
152.482
149.282
145.697
141.741
137.432
132.786
127.822
122.562
117.027
111.241
105.227
99.011
92.619
86.078
79.413
72.653
65.825
58.955
52.07
45.196
38.359
31.584
24.895
18.316
11.867
5.571
-0.554
-6.489
-12.217
-17.725
-22.998
-28.025
-32.797
-37.305
-41.543
-45.506
-49.19
-52.595
-55.719
-58.565
-61.135
-63.433
-65.465
-67.237
-68.757
-70.034
-71.078
-71.898
-72.506
-72.914
-73.135
-73.179
-73.062
-72.796
-72.393
-71.869
-71.235
-70.506
-69.694
-68.811
-67.869
-66.881
-65.856
-64.804
-63.737
-62.661
-61.586
-60.519
-59.466
-58.435
-57.431
-56.457
-55.52
-54.621
-53.764
-52.951
-52.184
-51.463
-50.789
-50.162
-49.582
-49.048
-48.559
-48.113
-47.71
-47.346
-47.02
-46.729
-46.472
-46.245
-46.047
-45.875
-45.727
-45.602
-45.496
-45.409
-45.34
-45.286
-45.247
-45.222
-45.21
-45.21
-45.221
-45.245
-45.279
-45.325
-45.382
-45.45
-45.531
-45.625
-45.733
-45.854
-45.991
-46.145
-46.315
-46.504
-46.711
-46.939
-47.187
-47.457
-47.75
-48.065
-48.404
-48.767
-49.153
-49.563
-49.996
-50.45
-50.926
-51.421
-51.935
-52.465
-53.01
-53.568
-54.136
-54.714
-55.297
-55.884
-56.471
-57.056
-57.634
-58.202
-58.757
-59.293
-59.806
-60.291
-60.744
-61.16
-61.534
-61.86
-62.133
-62.349
-62.502
-62.588
-62.6
-62.535
-62.388
-62.153
-61.829
-61.411
-60.898
-60.285
-59.572
-58.757
-57.839
-56.818
-55.694
-54.468
-53.141
-51.715
-50.194
-48.581
-46.883
-45.103
-43.251
-41.337
-39.371
-37.367
-35.336
-33.294
-31.253
-29.23
-27.238
-25.291
-23.399
-21.577
-19.837
-18.194
-16.665
-15.263
-14.004
-12.901
-11.965
-11.21
-10.642
-10.263
-10.075
-10.079
-10.285
-10.711
-11.371
-12.275
-13.43
-14.836
-16.486
-18.363
-20.432
-22.641
-24.942
-27.285
-29.628
-31.942
-34.192
-36.336
-38.32
-40.076
-41.545
-42.684
-43.45
-43.807
-43.761
-43.362
-42.697
-41.91
-41.127
-40.429
-39.917
-39.703
-39.903
-40.655
-42.108
-44.347
-47.505
-51.803
-57.252
-63.713
-70.838
-77.894
-84.173
-89.169
-92.181
-92.444
-89.823
-84.538
-77.362
-70.07
-64.019
-59.948
-59.05
-62.224
-69.007
-78.234
-87.463
-92.374
-89.296
-75.229
-46.152
1.243
68.141
154.425
257.413
371.347
490.303
607.552
713.619
798.849
855.18
877.695
866.5
824.09
751.781
646.131
503.685
329.707
140.331
-34.607
-164.237
-233.652
-246.847
-225.777
-195.212
-169.733
-151.982
-135.348
-115.826
-94.591
-75.439
-64.135
-62.25
-67.396
-77.006
-87.576
-96.037
-101.314
-102.863
-100.629
-95.533
-88.598
-80.68
-72.881
-66.252
-61.262
-58.117
-56.786
-56.91
-58.206
-60.458
-63.373
-66.676
-70.176
-73.691
-77.071
-80.215
-82.983
-85.251
-86.949
-88.02
-88.457
-88.276
-87.508
-86.204
-84.424
-82.229
-79.672
-76.805
-73.675
-70.342
-66.873
-63.335
-59.795
-56.301
-52.884
-49.565
-46.35
-43.234
-40.202
-37.228
-34.282
-31.343
-28.39
-25.409
-22.384
-19.299
-16.136
-12.878
-9.509
-6.016
-2.387
1.386
5.31
9.387
13.616
17.996
22.521
27.186
31.987
36.919
41.976
47.151
52.434
57.815
63.283
68.823
74.419
80.053
85.706
91.357
96.985
102.566
108.078
113.496
118.796
123.954
128.944
133.743
138.326
142.669
146.75
150.547
154.038
157.204
160.026
162.487
164.573
166.269
167.565
168.45
168.916
168.957
168.571
167.754
166.508
164.835
162.741
160.233
157.32
154.014
150.331
146.284
141.893
137.176
132.156
126.853
121.293
115.498
109.495
103.309
96.966
90.494
83.917
77.264
70.56
63.83
57.101
50.396
43.74
37.155
30.665
24.29
18.051
11.966
6.053
0.329
-5.191
-10.495
-15.571
-20.407
-24.997
-29.332
-33.408
-37.222
-40.77
-44.053
-47.072
-49.828
-52.326
-54.57
-56.566
-58.321
-59.842
-61.138
-62.216
-63.086
-63.758
-64.242
-64.547
-64.685
-64.667
-64.503
-64.205
-63.785
-63.253
-62.622
-61.902
-61.105
-60.242
-59.322
-58.357
-57.356
-56.328
-55.282
-54.226
-53.168
-52.115
-51.073
-50.047
-49.042
-48.063
-47.113
-46.196
-45.314
-44.471
-43.667
-42.906
-42.188
-41.516
-40.89
-40.31
-39.778
-39.294
-38.856
-38.465
-38.118
-37.815
-37.555
-37.334
-37.152
-37.004
-36.89
-36.806
-36.749
-36.716
-36.706
-36.714
-36.738
-36.777
-36.829
-36.89
-36.961
-37.039
-37.125
-37.216
-37.313
-37.415
-37.522
-37.634
-37.75
-37.871
-37.997
-38.128
-38.266
-38.412
-38.566
-38.73
-38.905
-39.094
-39.297
-39.519
-39.76
-40.024
-40.312
-40.627
-40.972
-41.348
-41.757
-42.2
-42.679
-43.194
-43.745
-44.332
-44.953
-45.608
-46.293
-47.007
-47.746
-48.507
-49.286
-50.077
-50.875
-51.674
-52.468
-53.249
-54.012
-54.748
-55.451
-56.11
-56.72
-57.271
-57.754
-58.162
-58.485
-58.714
-58.842
-58.86
-58.762
-58.541
-58.191
-57.707
-57.086
-56.323
-55.419
-54.372
-53.183
-51.852
-50.384
-48.782
-47.053
-45.203
-43.242
-41.179
-39.031
-36.811
-34.535
-32.222
-29.889
-27.556
-25.242
-22.967
-20.747
-18.599
-16.539
-14.586
-12.761
-11.083
-9.57
-8.24
-7.108
-6.188
-5.496
-5.039
-4.819
-4.838
-5.096
-5.604
-6.379
-7.438
-8.784
-10.42
-12.344
-14.542
-16.997
-19.677
-22.528
-25.499
-28.538
-31.598
-34.651
-37.66
-40.577
-43.339
-45.87
-48.1
-49.985
-51.48
-52.553
-53.211
-53.478
-53.424
-53.169
-52.801
-52.411
-52.114
-52.005
-52.203
-52.85
-54.053
-55.969
-58.819
-62.689
-67.506
-73.022
-78.697
-83.931
-88.263
-91.101
-91.692
-89.609
-84.928
-78.307
-71.164
-65.058
-60.929
-59.574
-62.137
-69.115
-79.786
-92.267
-102.999
-107.557
-102.644
-85.516
-52.119
0.981
74.755
168.802
277.695
391.287
504.33
612.765
712.455
805.186
882.068
927.701
932.996
882.872
776.534
628.991
449.43
262.3
92.538
-48.558
-142.153
-187.537
-201.27
-192.68
-177.87
-165.452
-148.937
-128.448
-105.522
-81.866
-64.554
-56.638
-56.709
-62.96
-72.554
-82.41
-90.387
-95.35
-96.672
-94.551
-89.982
-83.877
-77.022
-70.437
-65.04
-61.297
-59.445
-59.382
-60.713
-63.158
-66.481
-70.405
-74.678
-79.071
-83.373
-87.409
-91.048
-94.174
-96.697
-98.556
-99.714
-100.165
-99.922
-99.036
-97.575
-95.597
-93.165
-90.331
-87.142
-83.665
-79.973
-76.147
-72.267
-68.39
-64.555
-60.79
-57.115
-53.535
-50.048
-46.633
-43.26
-39.91
-36.567
-33.219
-29.856
-26.463
-23.021
-19.516
-15.931
-12.254
-8.475
-4.585
-0.575
3.556
7.811
12.187
16.678
21.281
25.994
30.813
35.734
40.752
45.859
51.05
56.314
61.642
67.02
72.436
77.871
83.31
88.736
94.128
99.468
104.734
109.905
114.96
119.875
124.629
129.198
133.559
137.691
141.571
145.178
148.493
151.494
154.166
156.49
158.451
160.037
161.235
162.036
162.431
162.414
161.981
161.13
159.862
158.178
156.081
153.58
150.682
147.398
143.739
139.721
135.358
130.67
125.675
120.393
114.848
109.062
103.058
96.864
90.503
84.003
77.39
70.691
63.933
57.142
50.346
43.568
36.836
30.173
23.603
17.147
10.828
4.664
-1.326
-7.124
-12.716
-18.088
-23.226
-28.119
-32.76
-37.139
-41.251
-45.092
-48.658
-51.948
-54.962
-57.703
-60.174
-62.378
-64.324
-66.016
-67.465
-68.678
-69.668
-70.443
-71.018
-71.403
-71.613
-71.66
-71.558
-71.322
-70.964
-70.498
-69.939
-69.299
-68.59
-67.825
-67.015
-66.173
-65.308
-64.43
-63.548
-62.672
-61.808
-60.963
-60.144
-59.355
-58.6
-57.883
-57.207
-56.573
-55.983
-55.437
-54.935
-54.475
-54.056
-53.676
-53.332
-53.021
-52.74
-52.483
-52.248
-52.03
-51.825
-51.628
-51.435
-51.242
-51.045
-50.841
-50.625
-50.395
-50.149
-49.882
-49.595
-49.285
-48.952
-48.595
-48.214
-47.811
-47.386
-46.941
-46.479
-46.001
-45.51
-45.01
-44.505
-43.998
-43.493
-42.996
-42.51
-42.041
-41.595
-41.175
-40.787
-40.437
-40.128
-39.866
-39.655
-39.5
-39.404
-39.372
-39.405
-39.508
-39.682
-39.93
-40.252
-40.648
-41.119
-41.662
-42.277
-42.96
-43.709
-44.519
-45.386
-46.306
-47.273
-48.28
-49.322
-50.391
-51.479
-52.578
-53.68
-54.776
-55.855
-56.909
-57.928
-58.901
-59.821
-60.677
-61.459
-62.157
-62.762
-63.265
-63.657
-63.929
-64.072
-64.08
-63.946
-63.663
-63.229
-62.638
-61.888
-60.977
-59.906
-58.674
-57.284
-55.738
-54.04
-52.196
-50.212
-48.098
-45.861
-43.513
-41.066
-38.536
-35.937
-33.288
-30.605
-27.908
-25.217
-22.55
-19.929
-17.372
-14.897
-12.524
-10.271
-8.157
-6.204
-4.432
-2.857
-1.499
-0.371
0.511
1.138
1.506
1.612
1.454
1.028
0.321
-0.675
-1.965
-3.549
-5.426
-7.585
-10.006
-12.661
-15.504
-18.488
-21.567
-24.701
-27.858
-31.004
-34.099
-37.091
-39.916
-42.515
-44.837
-46.836
-48.463
-49.698
-50.557
-51.089
-51.39
-51.543
-51.603
-51.63
-51.703
-51.914
-52.374
-53.204
-54.485
-56.342
-58.977
-62.478
-66.79
-71.657
-76.498
-80.674
-83.668
-84.884
-83.624
-79.571
-72.825
-64.051
-54.824
-46.778
-41.101
-38.987
-41.489
-48.773
-59.994
-73.063
-84.08
-88.672
-82.919
-62.809
-24.729
33.508
112.279
209.819
321.451
440.647
560.086
671.33
765.595
835.07
873.668
877.385
845.29
779.49
684.539
567.506
437.237
302.983
173.54
57.056
-39.995
-113.573
-162.313
-187.564
-192.777
-182.444
-161.481
-135.198
-108.697
-86.145
-69.968
-60.749
-57.829
-59.869
-65.302
-72.362
-79.118
-83.77
-85.417
-84.11
-80.403
-75.177
-69.237
-63.23
-57.869
-53.847
-51.501
-50.853
-51.727
-53.772
-56.687
-60.262
-64.251
-68.429
-72.609
-76.598
-80.246
-83.444
-86.099
-88.154
-89.581
-90.356
-90.478
-89.982
-88.917
-87.357
-85.373
-83.02
-80.355
-77.429
-74.303
-71.048
-67.73
-64.413
-61.136
-57.925
-54.794
-51.751
-48.795
-45.911
-43.078
-40.264
-37.446
-34.606
-31.728
-28.797
-25.793
-22.699
-19.495
-16.167
-12.702
-9.088
-5.317
-1.382
2.72
6.988
11.421
16.013
20.76
25.658
30.701
35.883
41.197
46.633
52.18
57.827
63.56
69.361
75.214
81.098
86.994
92.878
98.729
104.523
110.235
115.84
121.314
126.629
131.761
136.683
141.37
145.798
149.942
153.78
157.29
160.452
163.247
165.659
167.673
169.276
170.457
171.207
171.519
171.388
170.811
169.788
168.32
166.411
164.067
161.296
158.109
154.519
150.539
146.188
141.482
136.444
131.093
125.453
119.549
113.406
107.05
100.509
93.81
86.982
80.053
73.052
66.006
58.942
51.888
44.87
37.913
31.041
24.277
17.643
11.16
4.848
-1.275
-7.192
-12.889
-18.35
-23.565
-28.522
-33.214
-37.632
-41.772
-45.631
-49.205
-52.495
-55.501
-58.227
-60.677
-62.856
-64.771
-66.431
-67.845
-69.023
-69.978
-70.719
-71.261
-71.616
-71.796
-71.815
-71.687
-71.425
-71.042
-70.552
-69.968
-69.303
-68.569
-67.78
-66.947
-66.081
-65.193
-64.292
-63.39
-62.493
-61.609
-60.747
-59.911
-59.108
-58.342
-57.617
-56.936
-56.301
-55.714
-55.174
-54.681
-54.235
-53.835
-53.478
-53.163
-52.887
-52.647
-52.442
-52.267
-52.12
-51.997
-51.895
-51.811
-51.741
-51.682
-51.63
-51.583
-51.538
-51.492
-51.442
-51.386
-51.323
-51.251
-51.169
-51.076
-50.971
-50.855
-50.727
-50.589
-50.442
-50.286
-50.125
-49.959
-49.792
-49.625
-49.462
-49.304
-49.155
-49.017
-48.892
-48.784
-48.695
-48.627
-48.583
-48.564
-48.574
-48.613
-48.685
-48.79
-48.93
-49.106
-49.32
-49.57
-49.859
-50.185
-50.548
-50.947
-51.38
-51.846
-52.342
-52.865
-53.412
-53.978
-54.562
-55.157
-55.759
-56.363
-56.964
-57.556
-58.134
-58.692
-59.223
-59.721
-60.179
-60.592
-60.953
-61.255
-61.492
-61.657
-61.745
-61.748
-61.662
-61.479
-61.194
-60.802
-60.298
-59.679
-58.939
-58.078
-57.092
-55.98
-54.743
-53.381
-51.897
-50.292
-48.57
-46.735
-44.793
-42.751
-40.616
-38.396
-36.103
-33.748
-31.345
-28.91
-26.457
-24.004
-21.567
-19.163
-16.811
-14.524
-12.32
-10.213
-8.218
-6.354
-4.638
-3.088
-1.721
-0.551
0.408
1.142
1.642
1.905
1.93
1.714
1.252
0.53
-0.464
-1.734
-3.282
-5.108
-7.202
-9.546
-12.111
-14.845
-17.699
-20.626
-23.583
-26.539
-29.458
-32.294
-34.991
-37.483
-39.711
-41.633
-43.213
-44.403
-45.19
-45.609
-45.728
-45.672
-45.552
-45.428
-45.376
-45.493
-45.893
-46.721
-48.113
-50.143
-52.926
-56.655
-61.389
-67.052
-73.345
-79.603
-85.159
-89.501
-92.011
-91.984
-89.1
-83.441
-75.715
-67.537
-60.393
-55.246
-53.209
-55.316
-61.756
-71.71
-82.82
-91.061
-92.654
-84.216
-61.619
-20.908
40.831
122.762
219.147
323.007
429.604
540.046
657.156
777.039
885.252
957.464
972.904
921.709
809.466
656.931
481.017
301.226
137.623
-0.285
-96.811
-148.723
-170.082
-170.119
-163.736
-159.124
-150.034
-135.963
-118.087
-98.397
-84.033
-78.112
-79.553
-86.718
-96.69
-106.537
-114.231
-118.542
-118.867
-115.363
-108.902
-100.45
-90.941
-81.478
-73.088
-66.33
-61.464
-58.472
-57.06
-57.005
-58.126
-60.161
-62.838
-65.939
-69.289
-72.738
-76.176
-79.446
-82.359
-84.787
-86.644
-87.89
-88.524
-88.555
-88.001
-86.904
-85.324
-83.316
-80.939
-78.246
-75.287
-72.124
-68.826
-65.464
-62.107
-58.803
-55.581
-52.453
-49.418
-46.464
-43.576
-40.729
-37.89
-35.036
-32.147
-29.204
-26.193
-23.098
-19.898
-16.575
-13.113
-9.498
-5.72
-1.772
2.35
6.646
11.113
15.747
20.539
25.482
30.569
35.792
41.144
46.613
52.189
57.859
63.607
69.419
75.274
81.154
87.036
92.898
98.717
104.469
110.129
115.672
121.074
126.31
131.354
136.183
140.771
145.096
149.134
152.865
156.268
159.325
162.019
164.335
166.26
167.783
168.895
169.587
169.854
169.693
169.102
168.081
166.634
164.763
162.477
159.783
156.693
153.221
149.381
145.189
140.663
135.824
130.693
125.292
119.643
113.772
107.704
101.464
95.078
88.573
81.975
75.31
68.603
61.879
55.163
48.477
41.845
35.288
28.827
22.482
16.27
10.209
4.316
-1.395
-6.911
-12.22
-17.31
-22.173
-26.802
-31.19
-35.332
-39.225
-42.867
-46.257
-49.396
-52.286
-54.93
-57.332
-59.498
-61.435
-63.149
-64.649
-65.943
-67.041
-67.95
-68.682
-69.246
-69.651
-69.908
-70.027
-70.018
-69.89
-69.655
-69.321
-68.899
-68.398
-67.828
-67.196
-66.512
-65.784
-65.019
-64.225
-63.409
-62.578
-61.737
-60.893
-60.049
-59.212
-58.384
-57.569
-56.77
-55.989
-55.229
-54.491
-53.777
-53.088
-52.425
-51.789
-51.18
-50.599
-50.046
-49.522
-49.026
-48.557
-48.116
-47.701
-47.312
-46.947
-46.606
-46.288
-45.99
-45.712
-45.453
-45.21
-44.982
-44.768
-44.567
-44.377
-44.198
-44.028
-43.866
-43.713
-43.566
-43.427
-43.295
-43.169
-43.051
-42.939
-42.834
-42.737
-42.648
-42.566
-42.493
-42.43
-42.377
-42.335
-42.306
-42.29
-42.29
-42.306
-42.342
-42.397
-42.476
-42.578
-42.707
-42.864
-43.05
-43.266
-43.514
-43.794
-44.107
-44.453
-44.831
-45.24
-45.68
-46.149
-46.646
-47.167
-47.71
-48.271
-48.848
-49.436
-50.029
-50.624
-51.215
-51.795
-52.359
-52.901
-53.413
-53.889
-54.32
-54.699
-55.018
-55.269
-55.444
-55.533
-55.53
-55.427
-55.216
-54.892
-54.448
-53.879
-53.181
-52.349
-51.382
-50.277
-49.033
-47.651
-46.132
-44.478
-42.695
-40.787
-38.76
-36.624
-34.389
-32.068
-29.672
-27.216
-24.717
-22.191
-19.656
-17.129
-14.628
-12.17
-9.773
-7.455
-5.236
-3.134
-1.169
0.638
2.269
3.705
4.931
5.932
6.7
7.228
7.51
7.538
7.294
6.767
5.949
4.833
3.417
1.704
-0.295
-2.553
-5.023
-7.66
-10.417
-13.251
-16.133
-19.028
-21.894
-24.688
-27.343
-29.802
-32.019
-33.951
-35.556
-36.812
-37.725
-38.356
-38.824
-39.249
-39.734
-40.345
-41.145
-42.23
-43.712
-45.714
-48.377
-51.772
-56.008
-61.293
-67.653
-74.938
-82.799
-90.474
-97.209
-102.515
-105.685
-105.929
-103.109
-97.394
-89.587
-81.602
-74.834
-70.017
-68.44
-71.111
-77.716
-87.341
-97.404
-103.111
-100.871
-88.03
-60.39
-14.195
52.196
139.655
243.88
354.663
466.914
577.072
681.315
782.174
870.451
928.971
947.312
908.785
810.748
668.349
490.577
301.271
126.452
-22.661
-127.488
-185.752
-212.648
-216.476
-211.768
-206.043
-193.101
-172.878
-146.822
-118.145
-94.963
-80.831
-75.279
-76.991
-83.019
-90.773
-98.413
-103.916
-106.105
-104.888
-100.766
-94.706
-87.667
-80.44
-73.851
-68.689
-65.376
-63.964
-64.256
-65.881
-68.531
-71.98
-75.971
-80.257
-84.615
-88.841
-92.774
-96.285
-99.267
-101.639
-103.35
-104.374
-104.711
-104.389
-103.456
-101.979
-100.019
-97.63
-94.865
-91.77
-88.41
-84.857
-81.185
-77.466
-73.749
-70.065
-66.438
-62.878
-59.385
-55.948
-52.546
-49.15
-45.739
-42.297
-38.812
-35.273
-31.667
-27.977
-24.19
-20.29
-16.269
-12.119
-7.834
-3.41
1.153
5.852
10.681
15.632
20.697
25.872
31.148
36.52
41.979
47.514
53.117
58.775
64.476
70.205
75.944
81.677
87.385
93.049
98.648
104.162
109.57
114.849
119.978
124.936
129.699
134.245
138.554
142.603
146.372
149.84
152.991
155.805
158.268
160.364
162.081
163.407
164.333
164.851
164.955
164.64
163.905
162.748
161.172
159.179
156.776
153.97
150.771
147.191
143.244
138.944
134.309
129.357
124.108
118.584
112.807
106.801
100.59
94.199
87.656
80.987
74.217
67.375
60.487
53.579
46.677
39.808
32.995
26.264
19.636
13.136
6.783
0.597
-5.402
-11.198
-16.774
-22.118
-27.215
-32.056
-36.631
-40.932
-44.952
-48.689
-52.137
-55.297
-58.169
-60.755
-63.058
-65.083
-66.837
-68.327
-69.561
-70.55
-71.305
-71.836
-72.156
-72.278
-72.216
-71.983
-71.594
-71.062
-70.403
-69.631
-68.759
-67.801
-66.772
-65.683
-64.548
-63.377
-62.183
-60.976
-59.766
-58.562
-57.373
-56.205
-55.065
-53.96
-52.894
-51.871
-50.895
-49.967
-49.089
-48.262
-47.486
-46.761
-46.085
-45.456
-44.873
-44.331
-43.828
-43.36
-42.923
-42.512
-42.124
-41.754
-41.399
-41.053
-40.715
-40.379
-40.042
-39.703
-39.357
-39.003
-38.639
-38.263
-37.874
-37.472
-37.056
-36.626
-36.184
-35.731
-35.268
-34.797
-34.32
-33.839
-33.358
-32.879
-32.405
-31.941
-31.49
-31.057
-30.644
-30.258
-29.902
-29.58
-29.297
-29.056
-28.861
-28.714
-28.62
-28.579
-28.596
-28.67
-28.804
-28.999
-29.254
-29.571
-29.947
-30.381
-30.873
-31.418
-32.014
-32.657
-33.345
-34.072
-34.835
-35.627
-36.444
-37.281
-38.132
-38.989
-39.848
-40.699
-41.538
-42.355
-43.144
-43.896
-44.603
-45.259
-45.857
-46.388
-46.846
-47.225
-47.517
-47.716
-47.818
-47.816
-47.706
-47.484
-47.145
-46.688
-46.111
-45.413
-44.594
-43.653
-42.593
-41.415
-40.122
-38.719
-37.21
-35.598
-33.892
-32.098
-30.224
-28.279
-26.272
-24.217
-22.126
-20.015
-17.899
-15.795
-13.718
-11.685
-9.715
-7.824
-6.024
-4.329
-2.751
-1.303
-0.003
1.136
2.099
2.876
3.456
3.831
3.991
3.931
3.656
3.17
2.474
1.564
0.426
-0.955
-2.581
-4.455
-6.572
-8.918
-11.475
-14.215
-17.084
-20.032
-23.008
-25.968
-28.883
-31.724
-34.443
-36.983
-39.275
-41.246
-42.855
-44.055
-44.815
-45.146
-45.078
-44.681
-44.074
-43.349
-42.601
-41.954
-41.515
-41.41
-41.778
-42.715
-44.364
-46.968
-50.619
-55.263
-60.66
-66.217
-71.328
-75.562
-78.34
-78.943
-77.008
-72.546
-66.202
-59.609
-54.347
-51.384
-51.645
-56.009
-64.663
-76.95
-90.847
-102.286
-106.969
-101.603
-82.754
-46.823
8.91
85.908
181.34
287.209
395.798
501.88
605.903
711.254
814.072
902.797
956.702
954.018
885.916
755.104
577.959
379.508
184.225
17.346
-103.629
-172.733
-195.717
-191.83
-178.902
-167.208
-159.308
-148.101
-130.041
-108.032
-86.288
-70.949
-64.756
-65.919
-72.09
-80.771
-89.355
-95.912
-99.387
-99.282
-95.954
-90.436
-83.659
-76.388
-69.519
-63.866
-59.874
-57.737
-57.331
-58.286
-60.311
-63.165
-66.593
-70.357
-74.254
-78.097
-81.716
-84.97
-87.747
-89.956
-91.546
-92.494
-92.787
-92.435
-91.486
-90.004
-88.051
-85.692
-82.976
-79.945
-76.663
-73.2
-69.633
-66.042
-62.481
-58.982
-55.571
-52.258
-49.048
-45.936
-42.896
-39.897
-36.914
-33.928
-30.924
-27.892
-24.811
-21.662
-18.425
-15.083
-11.621
-8.027
-4.291
-0.402
3.643
7.848
12.209
16.723
21.387
26.199
31.155
36.25
41.48
46.837
52.312
57.897
63.578
69.342
75.173
81.051
86.957
92.87
98.769
104.631
110.43
116.143
121.745
127.21
132.514
137.629
142.53
147.193
151.593
155.707
159.51
162.983
166.104
168.855
171.22
173.182
174.73
175.851
176.537
176.779
176.572
175.913
174.802
173.239
171.227
168.773
165.886
162.576
158.857
154.743
150.252
145.404
140.219
134.719
128.929
122.874
116.579
110.072
103.381
96.535
89.561
82.49
75.349
68.168
60.975
53.797
46.66
39.591
32.614
25.753
19.031
12.469
6.088
-0.093
-6.057
-11.789
-17.273
-22.497
-27.451
-32.125
-36.513
-40.61
-44.411
-47.916
-51.124
-54.037
-56.66
-58.996
-61.053
-62.838
-64.361
-65.633
-66.665
-67.468
-68.058
-68.446
-68.647
-68.675
-68.544
-68.27
-67.866
-67.348
-66.729
-66.024
-65.247
-64.411
-63.531
-62.618
-61.686
-60.747
-59.81
-58.886
-57.984
-57.114
-56.282
-55.495
-54.759
-54.078
-53.455
-52.894
-52.395
-51.959
-51.585
-51.272
-51.017
-50.818
-50.671
-50.572
-50.517
-50.501
-50.519
-50.566
-50.638
-50.728
-50.832
-50.944
-51.06
-51.173
-51.279
-51.373
-51.451
-51.508
-51.54
-51.544
-51.518
-51.457
-51.361
-51.227
-51.056
-50.846
-50.598
-50.314
-49.994
-49.643
-49.262
-48.857
-48.431
-47.989
-47.537
-47.081
-46.626
-46.178
-45.743
-45.328
-44.938
-44.58
-44.258
-43.979
-43.748
-43.57
-43.45
-43.392
-43.399
-43.475
-43.623
-43.845
-44.141
-44.513
-44.961
-45.484
-46.081
-46.748
-47.483
-48.282
-49.139
-50.051
-51.009
-52.006
-53.035
-54.086
-55.151
-56.22
-57.282
-58.326
-59.342
-60.319
-61.246
-62.112
-62.906
-63.617
-64.235
-64.751
-65.153
-65.434
-65.584
-65.595
-65.461
-65.175
-64.734
-64.133
-63.369
-62.44
-61.346
-60.09
-58.672
-57.097
-55.37
-53.496
-51.485
-49.345
-47.087
-44.722
-42.265
-39.73
-37.136
-34.5
-31.843
-29.184
-26.544
-23.945
-21.407
-18.949
-16.59
-14.347
-12.237
-10.28
-8.494
-6.897
-5.506
-4.336
-3.4
-2.711
-2.277
-2.099
-2.177
-2.507
-3.094
-3.949
-5.081
-6.494
-8.189
-10.165
-12.412
-14.916
-17.644
-20.551
-23.586
-26.701
-29.851
-33.004
-36.127
-39.175
-42.088
-44.799
-47.242
-49.365
-51.124
-52.468
-53.372
-53.856
-53.982
-53.857
-53.587
-53.235
-52.869
-52.596
-52.519
-52.776
-53.539
-54.909
-57.043
-60.197
-64.415
-69.601
-75.478
-81.356
-86.551
-90.602
-92.791
-92.336
-89.156
-83.493
-76.225
-69.315
-64.234
-61.824
-63.393
-69.935
-81.025
-95.498
-110.6
-121.477
-124.112
-115.133
-90.379
-46.466
18.169
103.729
207.617
323.751
445.897
567.363
679.137
771.947
837.851
869.599
864.606
826.664
757.13
657.445
529.536
371.54
194.994
21.963
-126.246
-225.725
-271.865
-279.746
-263.802
-241.856
-222.015
-199.033
-172.985
-145.344
-118.558
-99.246
-89.58
-87.918
-92.37
-99.925
-107.449
-112.843
-114.952
-113.306
-108.375
-101.269
-92.94
-84.226
-76.127
-69.466
-64.655
-61.852
-60.872
-61.305
-62.851
-65.261
-68.264
-71.624
-75.124
-78.556
-81.757
-84.596
-86.959
-88.767
-89.968
-90.534
-90.466
-89.789
-88.553
-86.826
-84.668
-82.133
-79.267
-76.112
-72.726
-69.177
-65.538
-61.877
-58.244
-54.665
-51.162
-47.743
-44.405
-41.134
-37.905
-34.683
-31.445
-28.172
-24.85
-21.467
-18.008
-14.455
-10.792
-7.007
-3.089
0.971
5.178
9.536
14.045
18.7
23.496
28.421
33.469
38.631
43.898
49.262
54.711
60.233
65.816
71.447
77.111
82.789
88.465
94.117
99.727
105.274
110.736
116.092
121.32
126.399
131.307
136.023
140.526
144.795
148.81
152.552
156.003
159.146
161.962
164.438
166.558
168.312
169.687
170.676
171.269
171.462
171.25
170.632
169.605
168.173
166.336
164.101
161.473
158.461
155.075
151.329
147.234
142.808
138.066
133.026
127.708
122.131
116.317
110.286
104.062
97.666
91.123
84.456
77.688
70.844
63.949
57.025
50.096
43.186
36.317
29.511
22.789
16.172
9.681
3.333
-2.853
-8.86
-14.672
-20.275
-25.657
-30.804
-35.707
-40.358
-44.749
-48.874
-52.73
-56.313
-59.622
-62.657
-65.419
-67.91
-70.134
-72.095
-73.8
-75.255
-76.469
-77.449
-78.205
-78.748
-79.088
-79.236
-79.204
-79.005
-78.65
-78.154
-77.528
-76.785
-75.94
-75.005
-73.993
-72.916
-71.786
-70.615
-69.414
-68.192
-66.959
-65.724
-64.494
-63.278
-62.081
-60.909
-59.768
-58.661
-57.592
-56.564
-55.579
-54.638
-53.743
-52.894
-52.091
-51.333
-50.62
-49.951
-49.325
-48.738
-48.19
-47.677
-47.198
-46.749
-46.328
-45.932
-45.559
-45.205
-44.869
-44.549
-44.242
-43.949
-43.667
-43.396
-43.135
-42.885
-42.646
-42.418
-42.203
-42.001
-41.815
-41.645
-41.494
-41.364
-41.257
-41.174
-41.119
-41.092
-41.096
-41.132
-41.203
-41.31
-41.454
-41.638
-41.863
-42.128
-42.436
-42.785
-43.175
-43.606
-44.076
-44.584
-45.127
-45.702
-46.306
-46.935
-47.587
-48.255
-48.935
-49.622
-50.31
-50.994
-51.666
-52.319
-52.948
-53.546
-54.105
-54.619
-55.081
-55.485
-55.825
-56.093
-56.283
-56.39
-56.407
-56.329
-56.15
-55.866
-55.472
-54.966
-54.346
-53.608
-52.752
-51.778
-50.687
-49.48
-48.16
-46.73
-45.193
-43.555
-41.823
-40.002
-38.101
-36.128
-34.095
-32.013
-29.896
-27.758
-25.614
-23.478
-21.366
-19.295
-17.278
-15.327
-13.456
-11.676
-10
-8.445
-7.024
-5.751
-4.638
-3.696
-2.933
-2.361
-1.982
-1.795
-1.798
-1.99
-2.376
-2.976
-3.801
-4.857
-6.146
-7.666
-9.403
-11.344
-13.461
-15.705
-18.031
-20.395
-22.758
-25.099
-27.391
-29.591
-31.646
-33.483
-35.039
-36.277
-37.156
-37.648
-37.768
-37.547
-37.056
-36.417
-35.716
-35.047
-34.522
-34.234
-34.303
-34.867
-36.036
-37.97
-40.89
-44.881
-49.869
-55.604
-61.547
-67.115
-71.855
-75.199
-76.444
-75.206
-71.608
-66.351
-60.815
-56.508
-54.343
-55.029
-59.571
-68.377
-80.623
-94.394
-106.336
-112.207
-108.77
-93.488
-62.672
-13.088
56.47
145.826
249.903
359.032
465.646
564.673
656.084
743.43
825.457
893.286
925.613
900.709
805.427
636.798
419.292
187.369
-23.707
-175.22
-255.829
-272.611
-243.652
-202.533
-168.094
-145.81
-134.334
-122.31
-106.222
-89.295
-74.862
-68.233
-70.221
-77.627
-87.761
-97.471
-104.318
-107.669
-107.353
-103.688
-97.659
-90.285
-82.44
-75.05
-68.921
-64.416
-61.642
-60.5
-60.667
-61.857
-63.838
-66.359
-69.184
-72.158
-75.135
-77.971
-80.558
-82.76
-84.463
-85.611
-86.165
-86.111
-85.458
-84.234
-82.481
-80.261
-77.634
-74.648
-71.349
-67.782
-64.005
-60.085
-56.09
-52.084
-48.113
-44.207
-40.384
-36.654
-33.014
-29.453
-25.95
-22.479
-19.022
-15.565
-12.096
-8.603
-5.073
-1.489
2.161
5.891
9.71
13.628
17.65
21.781
26.021
30.368
34.819
39.369
44.012
48.744
53.561
58.457
63.427
68.462
73.556
78.699
83.879
89.085
94.301
99.513
104.704
109.856
114.95
119.968
124.888
129.69
134.353
138.856
143.176
147.293
151.184
154.831
158.211
161.307
164.099
166.571
168.706
170.49
171.909
172.953
173.611
173.875
173.738
173.195
172.243
170.881
169.11
166.932
164.351
161.375
158.013
154.274
150.173
145.724
140.944
135.852
130.466
124.81
118.905
112.776
106.447
99.944
93.294
86.522
79.656
72.722
65.749
58.761
51.785
44.848
37.973
31.185
24.507
17.961
11.569
5.351
-0.676
-6.493
-12.084
-17.435
-22.534
-27.369
-31.93
-36.21
-40.204
-43.906
-47.315
-50.43
-53.252
-55.785
-58.032
-60
-61.695
-63.125
-64.301
-65.232
-65.929
-66.405
-66.671
-66.741
-66.628
-66.346
-65.909
-65.33
-64.623
-63.803
-62.884
-61.878
-60.8
-59.663
-58.478
-57.259
-56.017
-54.763
-53.507
-52.259
-51.027
-49.82
-48.645
-47.508
-46.413
-45.365
-44.369
-43.425
-42.538
-41.707
-40.935
-40.22
-39.565
-38.966
-38.425
-37.94
-37.509
-37.131
-36.803
-36.525
-36.293
-36.107
-35.962
-35.857
-35.79
-35.758
-35.759
-35.79
-35.849
-35.933
-36.041
-36.171
-36.32
-36.488
-36.673
-36.874
-37.091
-37.323
-37.571
-37.834
-38.113
-38.409
-38.721
-39.051
-39.399
-39.765
-40.15
-40.554
-40.977
-41.42
-41.881
-42.362
-42.86
-43.376
-43.909
-44.456
-45.018
-45.592
-46.176
-46.769
-47.367
-47.97
-48.575
-49.178
-49.776
-50.368
-50.947
-51.511
-52.056
-52.575
-53.065
-53.519
-53.932
-54.298
-54.613
-54.87
-55.065
-55.191
-55.245
-55.22
-55.113
-54.919
-54.633
-54.254
-53.776
-53.2
-52.522
-51.741
-50.857
-49.869
-48.779
-47.587
-46.296
-44.909
-43.428
-41.858
-40.205
-38.475
-36.675
-34.814
-32.901
-30.948
-28.968
-26.973
-24.979
-23.001
-21.054
-19.154
-17.316
-15.556
-13.886
-12.32
-10.87
-9.55
-8.374
-7.354
-6.504
-5.837
-5.363
-5.092
-5.033
-5.186
-5.551
-6.13
-6.923
-7.941
-9.191
-10.672
-12.385
-14.329
-16.496
-18.871
-21.422
-24.1
-26.855
-29.642
-32.417
-35.152
-37.813
-40.357
-42.738
-44.9
-46.791
-48.383
-49.64
-50.522
-51.01
-51.12
-50.93
-50.563
-50.146
-49.764
-49.469
-49.323
-49.421
-49.881
-50.826
-52.378
-54.581
-57.528
-61.421
-66.293
-72.008
-78.168
-83.967
-88.621
-91.593
-92.248
-89.926
-84.511
-76.231
-66.073
-56.047
-47.825
-42.579
-41.551
-45.446
-53.811
-65.384
-77.183
-84.453
-82.884
-68.546
-37.483
13.016
83.901
174.473
280.868
396.477
514.289
625.938
721.917
793.968
834.743
840.636
814.213
756.809
669.469
552.868
404.152
234.523
66.035
-79.404
-176.657
-221.294
-229.118
-214.688
-196.262
-181.527
-163.925
-142.663
-118.67
-94.213
-76.254
-67.332
-66.033
-70.692
-78.544
-86.724
-93.313
-97.193
-97.836
-95.572
-91.329
-85.928
-80.079
-74.664
-70.479
-67.921
-67.144
-67.99
-70.064
-73.066
-76.762
-80.879
-85.144
-89.329
-93.222
-96.652
-99.547
-101.841
-103.477
-104.436
-104.704
-104.288
-103.238
-101.619
-99.494
-96.927
-93.977
-90.694
-87.146
-83.408
-79.558
-75.679
-71.827
-68.039
-64.341
-60.751
-57.276
-53.917
-50.656
-47.465
-44.323
-41.213
-38.122
-35.039
-31.95
-28.832
-25.667
-22.436
-19.124
-15.719
-12.208
-8.58
-4.829
-0.948
3.061
7.198
11.462
15.853
20.372
25.016
29.784
34.67
39.668
44.773
49.974
55.261
60.618
66.031
71.482
76.953
82.425
87.876
93.285
98.628
103.884
109.028
114.035
118.882
123.541
127.989
132.202
136.154
139.824
143.188
146.225
148.917
151.246
153.196
154.752
155.904
156.641
156.954
156.839
156.292
155.311
153.897
152.054
149.788
147.107
144.023
140.548
136.696
132.485
127.934
123.063
117.894
112.45
106.756
100.837
94.72
88.433
82.003
75.46
68.831
62.145
55.43
48.714
42.023
35.384
28.822
22.361
16.022
9.829
3.8
-2.046
-7.692
-13.123
-18.325
-23.286
-27.997
-32.448
-36.635
-40.551
-44.194
-47.562
-50.655
-53.476
-56.026
-58.312
-60.338
-62.112
-63.643
-64.939
-66.013
-66.874
-67.535
-68.008
-68.307
-68.445
-68.435
-68.291
-68.026
-67.653
-67.187
-66.639
-66.022
-65.347
-64.627
-63.871
-63.09
-62.294
-61.491
-60.688
-59.894
-59.114
-58.355
-57.622
-56.918
-56.247
-55.612
-55.014
-54.456
-53.937
-53.457
-53.017
-52.614
-52.248
-51.916
-51.616
-51.346
-51.103
-50.883
-50.685
-50.504
-50.337
-50.183
-50.039
-49.9
-49.767
-49.636
-49.505
-49.374
-49.239
-49.102
-48.96
-48.813
-48.661
-48.505
-48.344
-48.179
-48.012
-47.845
-47.678
-47.514
-47.355
-47.203
-47.061
-46.931
-46.815
-46.718
-46.64
-46.585
-46.556
-46.555
-46.583
-46.644
-46.739
-46.868
-47.034
-47.235
-47.472
-47.746
-48.054
-48.397
-48.772
-49.178
-49.613
-50.075
-50.56
-51.066
-51.588
-52.123
-52.664
-53.209
-53.75
-54.282
-54.798
-55.293
-55.761
-56.194
-56.586
-56.931
-57.22
-57.448
-57.606
-57.69
-57.692
-57.606
-57.426
-57.147
-56.765
-56.276
-55.677
-54.964
-54.136
-53.19
-52.126
-50.943
-49.642
-48.223
-46.689
-45.043
-43.289
-41.432
-39.478
-37.436
-35.316
-33.127
-30.883
-28.595
-26.278
-23.947
-21.617
-19.303
-17.018
-14.778
-12.596
-10.486
-8.463
-6.543
-4.74
-3.071
-1.552
-0.195
0.986
1.981
2.784
3.391
3.797
3.994
3.968
3.704
3.195
2.433
1.412
0.137
-1.381
-3.113
-5.013
-7.035
-9.133
-11.263
-13.395
-15.492
-17.513
-19.418
-21.143
-22.632
-23.846
-24.742
-25.289
-25.476
-25.322
-24.911
-24.369
-23.832
-23.418
-23.206
-23.278
-23.757
-24.764
-26.433
-28.914
-32.279
-36.642
-42.212
-48.99
-56.787
-65.225
-73.506
-80.852
-86.751
-90.495
-91.317
-89.103
-84.056
-76.964
-69.666
-63.581
-59.5
-58.614
-61.741
-68.318
-77.152
-85.765
-89.735
-85.237
-69.102
-37.411
12.814
82.301
170.53
274.809
389.18
507.231
622.266
725.223
807.105
861.533
882.835
869.245
825.146
752.584
653.477
530.387
381.899
218.062
58.721
-76.358
-165.051
-204.044
-208.35
-192.72
-174.927
-161.518
-146.338
-128.731
-109.096
-89.466
-76.06
-70.432
-70.793
-75.755
-82.825
-89.41
-93.973
-95.504
-93.589
-88.834
-82.339
-74.947
-67.404
-60.557
-55.086
-51.398
-49.66
-49.697
-51.14
-53.691
-57.097
-61.104
-65.482
-70.012
-74.483
-78.718
-82.573
-85.927
-88.693
-90.816
-92.264
-93.031
-93.135
-92.623
-91.556
-90
-88.014
-85.65
-82.955
-79.991
-76.83
-73.548
-70.222
-66.903
-63.621
-60.399
-57.248
-54.168
-51.147
-48.165
-45.187
-42.192
-39.161
-36.079
-32.935
-29.714
-26.396
-22.966
-19.407
-15.709
-11.862
-7.859
-3.694
0.632
5.119
9.761
14.551
19.482
24.549
29.746
35.064
40.498
46.035
51.666
57.379
63.16
68.993
74.86
80.742
86.619
92.469
98.272
104.002
109.637
115.152
120.523
125.724
130.73
135.516
140.059
144.334
148.317
151.987
155.324
158.306
160.915
163.136
164.953
166.354
167.327
167.863
167.957
167.602
166.796
165.54
163.835
161.685
159.098
156.081
152.646
148.807
144.58
139.981
135.031
129.751
124.163
118.294
112.167
105.811
99.252
92.519
85.642
78.649
71.57
64.435
57.272
50.111
42.979
35.905
28.914
22.032
15.283
8.69
2.273
-3.947
-9.952
-15.727
-21.256
-26.528
-31.53
-36.255
-40.694
-44.844
-48.699
-52.26
-55.526
-58.5
-61.185
-63.586
-65.71
-67.565
-69.159
-70.504
-71.61
-72.488
-73.153
-73.616
-73.892
-73.994
-73.938
-73.738
-73.407
-72.961
-72.414
-71.778
-71.068
-70.297
-69.475
-68.615
-67.728
-66.822
-65.908
-64.994
-64.086
-63.192
-62.316
-61.463
-60.637
-59.841
-59.076
-58.346
-57.649
-56.987
-56.359
-55.765
-55.203
-54.673
-54.172
-53.698
-53.249
-52.823
-52.417
-52.028
-51.653
-51.289
-50.933
-50.584
-50.238
-49.893
-49.547
-49.199
-48.846
-48.489
-48.126
-47.757
-47.382
-47.002
-46.619
-46.232
-45.846
-45.461
-45.08
-44.705
-44.34
-43.986
-43.648
-43.327
-43.027
-42.751
-42.5
-42.279
-42.089
-41.932
-41.813
-41.731
-41.691
-41.694
-41.741
-41.835
-41.977
-42.168
-42.409
-42.7
-43.04
-43.43
-43.869
-44.354
-44.885
-45.457
-46.069
-46.716
-47.395
-48.101
-48.83
-49.575
-50.33
-51.091
-51.85
-52.601
-53.336
-54.049
-54.734
-55.382
-55.988
-56.545
-57.044
-57.479
-57.843
-58.129
-58.329
-58.437
-58.446
-58.35
-58.142
-57.819
-57.374
-56.805
-56.107
-55.278
-54.317
-53.222
-51.993
-50.632
-49.141
-47.523
-45.783
-43.928
-41.963
-39.899
-37.747
-35.518
-33.225
-30.883
-28.508
-26.115
-23.722
-21.344
-18.997
-16.696
-14.459
-12.299
-10.236
-8.285
-6.464
-4.793
-3.289
-1.968
-0.848
0.06
0.75
1.215
1.45
1.448
1.193
0.672
-0.12
-1.192
-2.548
-4.186
-6.096
-8.246
-10.586
-13.069
-15.644
-18.269
-20.915
-23.545
-26.12
-28.597
-30.917
-33.03
-34.895
-36.466
-37.701
-38.575
-39.098
-39.348
-39.453
-39.541
-39.72
-40.054
-40.605
-41.48
-42.787
-44.651
-47.201
-50.488
-54.626
-59.847
-66.191
-73.52
-81.416
-88.998
-95.405
-100.033
-102.11
-100.871
-96.161
-88.209
-78.148
-68.261
-60.413
-55.942
-56.302
-62.306
-73.45
-88.307
-103.405
-113.187
-112.924
-98.387
-64.711
-8.651
70.691
173.009
292.098
418.701
547.296
669.236
779.052
872.939
938.144
968.223
956.199
893.738
785.814
634.82
450.76
258.312
80.713
-56.579
-138.329
-171.117
-173.049
-163.688
-156.064
-151.64
-143.356
-127.942
-108.085
-88.458
-75.308
-71.164
-74.22
-82.051
-92.13
-101.818
-109.093
-112.884
-112.708
-108.936
-102.652
-94.871
-86.437
-78.331
-71.458
-66.286
-63.033
-61.613
-61.676
-62.962
-65.255
-68.294
-71.835
-75.675
-79.618
-83.499
-87.177
-90.477
-93.258
-95.433
-96.94
-97.763
-97.909
-97.402
-96.29
-94.638
-92.511
-89.969
-87.066
-83.857
-80.411
-76.808
-73.128
-69.452
-65.835
-62.313
-58.911
-55.637
-52.486
-49.446
-46.492
-43.592
-40.722
-37.863
-34.996
-32.108
-29.181
-26.192
-23.122
-19.952
-16.667
-13.254
-9.702
-6.003
-2.153
1.85
6.004
10.304
14.748
19.333
24.057
28.916
33.904
39.015
44.24
49.569
54.992
60.492
66.054
71.658
77.284
82.912
88.519
94.081
99.572
104.968
110.243
115.371
120.325
125.079
129.608
133.885
137.887
141.59
144.973
148.015
150.696
153
154.911
156.416
157.503
158.163
158.388
158.174
157.516
156.413
154.868
152.883
150.465
147.623
144.367
140.712
136.672
132.266
127.513
122.435
117.055
111.397
105.489
99.356
93.027
86.53
79.895
73.15
66.325
59.448
52.548
45.653
38.79
31.984
25.26
18.642
12.153
5.813
-0.357
-6.34
-12.118
-17.677
-23.003
-28.085
-32.912
-37.476
-41.772
-45.795
-49.543
-53.013
-56.208
-59.13
-61.782
-64.169
-66.3
-68.181
-69.822
-71.233
-72.425
-73.41
-74.2
-74.807
-75.245
-75.525
-75.662
-75.667
-75.553
-75.333
-75.019
-74.622
-74.153
-73.624
-73.045
-72.425
-71.773
-71.097
-70.406
-69.705
-69.002
-68.3
-67.605
-66.921
-66.251
-65.597
-64.961
-64.344
-63.748
-63.172
-62.616
-62.078
-61.559
-61.055
-60.566
-60.09
-59.625
-59.168
-58.719
-58.276
-57.836
-57.399
-56.963
-56.526
-56.089
-55.649
-55.206
-54.761
-54.313
-53.862
-53.409
-52.956
-52.503
-52.051
-51.603
-51.161
-50.726
-50.301
-49.888
-49.489
-49.107
-48.744
-48.403
-48.085
-47.795
-47.534
-47.305
-47.11
-46.951
-46.829
-46.747
-46.706
-46.707
-46.751
-46.838
-46.969
-47.145
-47.365
-47.629
-47.937
-48.286
-48.675
-49.103
-49.566
-50.062
-50.586
-51.136
-51.707
-52.296
-52.897
-53.508
-54.122
-54.735
-55.343
-55.939
-56.52
-57.079
-57.61
-58.108
-58.568
-58.982
-59.346
-59.655
-59.903
-60.084
-60.192
-60.223
-60.172
-60.032
-59.8
-59.47
-59.037
-58.499
-57.853
-57.096
-56.227
-55.245
-54.15
-52.944
-51.628
-50.203
-48.674
-47.042
-45.312
-43.49
-41.582
-39.594
-37.533
-35.41
-33.236
-31.024
-28.785
-26.535
-24.287
-22.057
-19.86
-17.712
-15.627
-13.618
-11.7
-9.886
-8.192
-6.636
-5.231
-3.995
-2.939
-2.078
-1.421
-0.978
-0.75
-0.739
-0.945
-1.373
-2.035
-2.944
-4.105
-5.522
-7.197
-9.123
-11.284
-13.653
-16.184
-18.831
-21.549
-24.297
-27.044
-29.755
-32.391
-34.903
-37.23
-39.316
-41.112
-42.574
-43.658
-44.35
-44.676
-44.699
-44.532
-44.278
-44.01
-43.813
-43.782
-44.033
-44.69
-45.877
-47.674
-50.201
-53.664
-58.155
-63.615
-69.765
-76.002
-81.69
-86.328
-89.319
-89.916
-87.71
-82.738
-75.65
-68.008
-61.329
-56.609
-54.951
-57.454
-64.483
-75.375
-87.947
-98.267
-102.418
-96.924
-77.629
-40.388
18.077
97.38
192.444
296.818
405.642
520.051
642.689
768.413
882.378
960.517
981.671
938.739
838.878
698.618
532.767
354.296
177.515
20.638
-94.626
-156.399
-168.927
-150.806
-124.673
-104.728
-93.434
-84.296
-72.663
-59.135
-47.285
-42.567
-46.578
-56.982
-70.887
-84.838
-96.061
-103.564
-106.969
-106.29
-102.366
-96.224
-88.848
-81.378
-74.839
-69.727
-66.226
-64.341
-63.807
-64.399
-65.949
-68.206
-70.927
-73.942
-77.107
-80.301
-83.421
-86.316
-88.812
-90.79
-92.17
-92.916
-93.033
-92.53
-91.432
-89.788
-87.656
-85.093
-82.157
-78.901
-75.377
-71.651
-67.796
-63.889
-60.005
-56.2
-52.51
-48.955
-45.54
-42.262
-39.109
-36.059
-33.087
-30.169
-27.288
-24.427
-21.572
-18.705
-15.804
-12.851
-9.824
-6.705
-3.481
-0.136
3.338
6.951
10.706
14.608
18.655
22.849
27.191
31.68
36.317
41.099
46.021
51.078
56.262
61.562
66.967
72.46
78.025
83.642
89.291
94.951
100.596
106.203
111.747
117.201
122.538
127.731
132.754
137.579
142.178
146.526
150.597
154.366
157.809
160.904
163.632
165.973
167.91
169.43
170.52
171.168
171.368
171.114
170.401
169.23
167.602
165.521
162.994
160.031
156.644
152.848
148.66
144.098
139.185
133.941
128.393
122.565
116.485
110.181
103.683
97.019
90.222
83.321
76.348
69.333
62.307
55.3
48.341
41.457
34.676
28.023
21.524
15.199
9.072
3.161
-2.514
-7.939
-13.099
-17.982
-22.577
-26.877
-30.875
-34.567
-37.951
-41.026
-43.794
-46.258
-48.422
-50.294
-51.88
-53.19
-54.236
-55.028
-55.58
-55.906
-56.021
-55.94
-55.679
-55.255
-54.683
-53.98
-53.163
-52.248
-51.249
-50.184
-49.067
-47.913
-46.735
-45.546
-44.36
-43.186
-42.037
-40.921
-39.847
-38.824
-37.857
-36.954
-36.119
-35.356
-34.669
-34.06
-33.531
-33.082
-32.714
-32.424
-32.212
-32.074
-32.007
-32.009
-32.074
-32.198
-32.376
-32.603
-32.875
-33.186
-33.53
-33.903
-34.299
-34.713
-35.141
-35.577
-36.017
-36.457
-36.894
-37.323
-37.741
-38.147
-38.536
-38.908
-39.259
-39.589
-39.895
-40.178
-40.436
-40.671
-40.882
-41.07
-41.237
-41.386
-41.518
-41.636
-41.742
-41.84
-41.933
-42.023
-42.115
-42.212
-42.316
-42.433
-42.564
-42.713
-42.883
-43.078
-43.299
-43.548
-43.828
-44.141
-44.486
-44.866
-45.282
-45.732
-46.218
-46.739
-47.294
-47.881
-48.5
-49.146
-49.817
-50.509
-51.217
-51.936
-52.659
-53.38
-54.094
-54.792
-55.468
-56.113
-56.72
-57.281
-57.787
-58.23
-58.601
-58.892
-59.095
-59.201
-59.204
-59.095
-58.87
-58.522
-58.047
-57.438
-56.694
-55.81
-54.784
-53.615
-52.303
-50.848
-49.254
-47.523
-45.663
-43.679
-41.581
-39.379
-37.086
-34.715
-32.281
-29.801
-27.292
-24.771
-22.256
-19.766
-17.317
-14.93
-12.622
-10.414
-8.324
-6.372
-4.577
-2.96
-1.537
-0.324
0.664
1.419
1.934
2.201
2.21
1.949
1.404
0.571
-0.554
-1.973
-3.681
-5.666
-7.899
-10.335
-12.928
-15.635
-18.414
-21.235
-24.066
-26.863
-29.584
-32.17
-34.572
-36.749
-38.663
-40.276
-41.563
-42.53
-43.238
-43.794
-44.312
-44.885
-45.573
-46.43
-47.539
-48.999
-50.925
-53.422
-56.541
-60.357
-65.036
-70.637
-77.068
-84.024
-90.816
-96.703
-101.136
-103.48
-103.033
-99.472
-92.818
-83.689
-73.762
-64.689
-57.599
-53.812
-54.407
-59.554
-68.698
-79.843
-88.753
-91.238
-84.032
-62.819
-23.467
36.222
117.711
217.654
326.079
436.964
546.989
653.321
758.604
853.558
917.664
935.476
893.093
791.888
651.505
488.178
315.783
149.093
-2.439
-126.159
-205.876
-240.467
-240.176
-217.48
-190.63
-167.875
-146.24
-126.297
-107.312
-90.237
-80.685
-79.888
-85.839
-96.386
-107.771
-116.721
-122.194
-123.793
-121.47
-116.076
-108.642
-100.072
-91.539
-84.195
-78.532
-74.724
-72.76
-72.308
-73.101
-74.95
-77.567
-80.67
-84.063
-87.561
-91.009
-94.296
-97.256
-99.748
-101.686
-103.005
-103.688
-103.748
-103.203
-102.101
-100.503
-98.464
-96.039
-93.28
-90.233
-86.962
-83.539
-80.037
-76.533
-73.08
-69.712
-66.453
-63.31
-60.275
-57.335
-54.462
-51.623
-48.792
-45.948
-43.072
-40.151
-37.165
-34.091
-30.912
-27.607
-24.16
-20.559
-16.794
-12.856
-8.742
-4.453
0.009
4.637
9.426
14.371
19.466
24.705
30.077
35.574
41.182
46.889
52.677
58.53
64.425
70.341
76.255
82.141
87.975
93.731
99.381
104.898
110.257
115.43
120.39
125.112
129.57
133.74
137.599
141.126
144.298
147.099
149.512
151.521
153.114
154.281
155.014
155.306
155.154
154.557
153.516
152.033
150.115
147.77
145.007
141.84
138.284
134.355
130.073
125.457
120.53
115.315
109.837
104.12
98.191
92.077
85.804
79.399
72.891
66.307
59.672
53.015
46.36
39.733
33.158
26.658
20.255
13.97
7.821
1.827
-3.995
-9.631
-15.067
-20.292
-25.295
-30.067
-34.601
-38.892
-42.936
-46.729
-50.271
-53.561
-56.601
-59.393
-61.94
-64.246
-66.318
-68.161
-69.782
-71.189
-72.39
-73.395
-74.212
-74.852
-75.325
-75.64
-75.808
-75.841
-75.748
-75.541
-75.229
-74.824
-74.334
-73.77
-73.141
-72.457
-71.725
-70.954
-70.151
-69.326
-68.483
-67.631
-66.775
-65.922
-65.076
-64.244
-63.429
-62.637
-61.872
-61.136
-60.434
-59.768
-59.14
-58.552
-58.006
-57.503
-57.044
-56.627
-56.255
-55.924
-55.636
-55.388
-55.178
-55.006
-54.868
-54.763
-54.688
-54.641
-54.619
-54.62
-54.642
-54.68
-54.733
-54.797
-54.871
-54.95
-55.033
-55.115
-55.196
-55.27
-55.337
-55.393
-55.437
-55.467
-55.481
-55.478
-55.456
-55.417
-55.359
-55.284
-55.191
-55.083
-54.96
-54.825
-54.68
-54.528
-54.371
-54.213
-54.057
-53.905
-53.76
-53.627
-53.506
-53.402
-53.317
-53.254
-53.213
-53.199
-53.212
-53.255
-53.329
-53.436
-53.575
-53.747
-53.952
-54.188
-54.455
-54.749
-55.068
-55.407
-55.761
-56.127
-56.498
-56.868
-57.229
-57.574
-57.895
-58.183
-58.431
-58.628
-58.766
-58.836
-58.829
-58.737
-58.554
-58.27
-57.881
-57.379
-56.76
-56.018
-55.15
-54.152
-53.021
-51.758
-50.36
-48.831
-47.172
-45.387
-43.483
-41.467
-39.35
-37.142
-34.858
-32.511
-30.117
-27.693
-25.258
-22.826
-20.415
-18.045
-15.731
-13.494
-11.354
-9.328
-7.438
-5.703
-4.14
-2.766
-1.596
-0.638
0.101
0.614
0.891
0.918
0.679
0.168
-0.624
-1.7
-3.059
-4.691
-6.573
-8.66
-10.908
-13.273
-15.711
-18.194
-20.686
-23.146
-25.526
-27.768
-29.811
-31.615
-33.138
-34.337
-35.188
-35.697
-35.924
-35.982
-35.988
-36.039
-36.202
-36.541
-37.154
-38.157
-39.666
-41.813
-44.666
-48.323
-52.983
-58.685
-65.279
-72.424
-79.413
-85.518
-90.266
-92.984
-92.879
-89.77
-83.82
-75.783
-67.418
-60.065
-54.46
-51.878
-53.41
-58.853
-67.304
-76.256
-81.344
-79.322
-67.255
-40.81
3.738
68.664
152.901
250.318
353.481
457.887
564.961
677.675
791.843
893.67
958.002
960.549
893.432
766.115
604.79
438.173
283.85
148.619
30.161
-73.082
-158.026
-220.453
-255.936
-264.559
-250.901
-220.865
-181.852
-141.35
-104.906
-75.845
-55.937
-45.407
-43.533
-49.44
-60.745
-73.598
-84.924
-93.133
-97.559
-98.468
-96.259
-90.747
-82.682
-73.92
-65.875
-59.408
-54.87
-51.95
-50.473
-50.705
-52.498
-55.261
-58.511
-61.772
-64.753
-67.471
-69.836
-71.652
-72.838
-73.378
-73.286
-72.644
-71.5
-69.852
-67.737
-65.196
-62.275
-59.046
-55.566
-51.896
-48.109
-44.272
-40.452
-36.699
-33.045
-29.512
-26.11
-22.836
-19.678
-16.614
-13.617
-10.669
-7.751
-4.843
-1.924
1.027
4.032
7.11
10.277
13.552
16.948
20.477
24.148
27.966
31.933
36.051
40.316
44.729
49.287
53.988
58.828
63.801
68.901
74.119
79.447
84.872
90.38
95.954
101.577
107.228
112.888
118.533
124.141
129.688
135.149
140.498
145.711
150.76
155.621
160.268
164.675
168.819
172.676
176.222
179.438
182.304
184.802
186.915
188.63
189.933
190.815
191.267
191.283
190.858
189.991
188.68
186.929
184.742
182.127
179.093
175.652
171.817
167.605
163.034
158.122
152.892
147.366
141.568
135.522
129.255
122.793
116.165
109.397
102.518
95.557
88.541
81.497
74.454
67.437
60.472
53.584
46.796
40.133
33.615
27.264
21.098
15.137
9.396
3.89
-1.365
-6.36
-11.084
-15.527
-19.684
-23.549
-27.118
-30.39
-33.363
-36.039
-38.421
-40.512
-42.318
-43.844
-45.1
-46.093
-46.834
-47.332
-47.599
-47.648
-47.489
-47.137
-46.603
-45.903
-45.048
-44.054
-42.934
-41.701
-40.371
-38.957
-37.473
-35.931
-34.345
-32.726
-31.088
-29.442
-27.798
-26.166
-24.557
-22.978
-21.439
-19.947
-18.508
-17.127
-15.811
-14.563
-13.387
-12.286
-11.261
-10.314
-9.446
-8.657
-7.947
-7.315
-6.76
-6.279
-5.872
-5.535
-5.266
-5.06
-4.915
-4.827
-4.791
-4.803
-4.859
-4.955
-5.086
-5.247
-5.435
-5.644
-5.87
-6.11
-6.359
-6.614
-6.87
-7.127
-7.38
-7.627
-7.867
-8.098
-8.318
-8.527
-8.724
-8.91
-9.083
-9.244
-9.393
-9.532
-9.661
-9.782
-9.895
-10.001
-10.103
-10.2
-10.295
-10.39
-10.484
-10.58
-10.679
-10.781
-10.889
-11.003
-11.124
-11.251
-11.386
-11.527
-11.675
-11.827
-11.982
-12.138
-12.292
-12.441
-12.583
-12.713
-12.827
-12.921
-12.99
-13.029
-13.033
-12.997
-12.914
-12.78
-12.589
-12.337
-12.02
-11.632
-11.169
-10.628
-10.006
-9.3
-8.508
-7.63
-6.662
-5.607
-4.465
-3.239
-1.93
-0.543
0.918
2.442
4.022
5.648
7.306
8.986
10.674
12.355
14.016
15.644
17.227
18.753
20.208
21.578
22.847
23.998
25.017
25.89
26.604
27.146
27.507
27.685
27.678
27.484
27.097
26.499
25.675
24.617
23.32
21.78
20.005
18.006
15.812
13.468
11.021
8.517
5.994
3.475
0.987
-1.432
-3.729
-5.839
-7.704
-9.281
-10.534
-11.42
-11.924
-12.079
-11.956
-11.677
-11.361
-11.074
-10.885
-10.892
-11.192
-11.915
-13.22
-15.198
-17.985
-21.806
-26.692
-32.533
-39.043
-45.538
-51.317
-55.914
-58.659
-58.808
-56.283
-51.314
-44.702
-38.283
-33.488
-31.044
-32.011
-37.252
-46.343
-58.151
-70.178
-77.986
-77.733
-66.506
-41.185
1.359
63.085
144.092
242.483
351.544
461.73
567.284
663.341
747.752
823.999
886.02
921.813
918.016
855.565
732.106
559.87
360.935
170.98
13.981
-96.446
-158.708
-189.518
-201.606
-204.783
-203.94
-193.463
-172.191
-143.096
-111.012
-83.855
-65.595
-56.38
-55.03
-58.827
-65.38
-72.498
-77.761
-79.854
-78.452
-73.922
-67.253
-59.379
-51.092
-43.337
-37.005
-32.572
-30.16
-29.582
-30.448
-32.453
-35.352
-38.872
-42.754
-46.764
-50.696
-54.388
-57.717
-60.572
-62.876
-64.579
-65.654
-66.105
-65.961
-65.273
-64.109
-62.533
-60.603
-58.37
-55.883
-53.203
-50.402
-47.552
-44.72
-41.954
-39.28
-36.717
-34.273
-31.942
-29.71
-27.549
-25.425
-23.313
-21.192
-19.045
-16.857
-14.607
-12.276
-9.844
-7.294
-4.61
-1.782
1.202
4.349
7.662
11.142
14.787
18.591
22.55
26.659
30.915
35.311
39.839
44.49
49.254
54.119
59.07
64.092
69.166
74.272
79.389
84.495
89.568
94.583
99.517
104.344
109.039
113.577
117.932
122.078
125.989
129.642
133.01
136.07
138.801
141.182
143.192
144.814
146.034
146.836
147.21
147.146
146.636
145.675
144.259
142.388
140.064
137.29
134.073
130.42
126.345
121.859
116.978
111.72
106.104
100.15
93.882
87.323
80.499
73.438
66.166
58.714
51.111
43.387
35.573
27.699
19.795
11.892
4.018
-3.798
-11.53
-19.151
-26.638
-33.966
-41.115
-48.063
-54.793
-61.287
-67.53
-73.51
-79.215
-84.634
-89.762
-94.592
-99.121
-103.348
-107.272
-110.896
-114.224
-117.263
-120.023
-122.512
-124.743
-126.73
-128.488
-130.032
-131.382
-132.554
-133.567
-134.44
-135.192
-135.843
-136.41
-136.913
-137.368
-137.794
-138.207
-138.622
-139.057
-139.525
-140.038
-140.611
-141.254
-141.976
-142.788
-143.694
-144.7
-145.81
-147.024
-148.342
-149.761
-151.273
-152.872
-154.546
-156.284
-158.072
-159.895
-161.735
-163.575
-165.399
-167.186
-168.918
-170.572
-172.124
-173.551
-174.83
-175.936
-176.845
-177.529
-177.962
-178.118
-177.977
-177.515
-176.704
-175.517
-173.92
-171.89
-169.413
-166.479
-163.085
-159.233
-154.93
-150.199
-145.075
-139.594
-133.784
-127.664
-121.249
-114.563
-107.637
-100.512
-93.227
-85.804
