Name
Date of Birth,"Mar 27, 1959"
Recorded Date,2022-07-31 19:00:37 -0500
Classification,Sinus Rhythm
Symptoms,
Software Version,1.90
Device,"Watch4,2"
Sample Rate,510.227 hertz


Lead,Lead I
Unit,µV

-121.707
-128.088
-134.017
-139.468
-144.415
-148.837
-152.711
-156.019
-158.741
-160.861
-162.366
-163.244
-163.484
-163.077
-162.019
-160.306
-157.937
-154.912
-151.238
-146.919
-141.965
-136.389
-130.205
-123.429
-116.081
-108.184
-99.763
-90.845
-81.459
-71.639
-61.419
-50.835
-39.927
-28.735
-17.3
-5.665
6.124
18.025
29.993
41.981
53.944
65.838
77.618
89.238
100.654
111.825
122.707
133.26
143.444
153.222
162.558
171.419
179.772
187.588
194.84
201.504
207.557
212.981
217.759
221.879
225.331
228.109
230.21
231.634
232.384
232.467
231.892
230.673
228.823
226.361
223.307
219.683
215.514
210.828
205.652
200.018
193.958
187.505
180.695
173.563
166.146
158.481
150.606
142.558
134.376
126.098
117.76
109.401
101.056
92.761
84.55
76.455
68.507
60.736
53.169
45.83
38.743
31.928
25.405
19.19
13.297
7.738
2.523
-2.34
-6.846
-10.991
-14.776
-18.2
-21.266
-23.98
-26.348
-28.378
-30.08
-31.465
-32.547
-33.338
-33.854
-34.112
-34.128
-33.921
-33.51
-32.913
-32.151
-31.243
-30.208
-29.067
-27.837
-26.538
-25.188
-23.805
-22.404
-21.003
-19.618
-18.262
-16.95
-15.695
-14.509
-13.402
-12.385
-11.468
-10.658
-9.963
-9.388
-8.941
-8.625
-8.445
-8.403
-8.501
-8.74
-9.121
-9.643
-10.304
-11.101
-12.031
-13.091
-14.274
-15.578
-16.995
-18.52
-20.146
-21.867
-23.676
-25.566
-27.529
-29.556
-31.64
-33.773
-35.945
-38.149
-40.375
-42.615
-44.861
-47.102
-49.33
-51.537
-53.713
-55.848
-57.934
-59.962
-61.922
-63.807
-65.607
-67.316
-68.925
-70.43
-71.823
-73.099
-74.253
-75.28
-76.177
-76.94
-77.566
-78.053
-78.397
-78.599
-78.657
-78.571
-78.343
-77.974
-77.466
-76.821
-76.043
-75.136
-74.104
-72.952
-71.685
-70.31
-68.833
-67.263
-65.608
-63.877
-62.078
-60.224
-58.324
-56.388
-54.427
-52.451
-50.47
-48.494
-46.536
-44.604
-42.711
-40.867
-39.084
-37.378
-35.761
-34.248
-32.851
-31.581
-30.452
-29.477
-28.668
-28.035
-27.585
-27.325
-27.262
-27.407
-27.767
-28.346
-29.145
-30.16
-31.39
-32.834
-34.492
-36.353
-38.408
-40.641
-43.045
-45.623
-48.379
-51.31
-54.409
-57.665
-61.063
-64.593
-68.235
-71.959
-75.723
-79.483
-83.193
-86.813
-90.314
-93.661
-96.822
-99.757
-102.412
-104.726
-106.646
-108.131
-109.178
-109.832
-110.119
-110.037
-109.662
-109.183
-108.918
-109.217
-110.251
-111.959
-114.301
-117.457
-121.531
-126.321
-131.123
-134.918
-137.063
-137.53
-136.48
-133.721
-129.027
-122.658
-115.933
-110.957
-109.324
-111.895
-119.016
-130.902
-147.94
-168.957
-189.827
-206.851
-217.358
-220.312
-217.908
-206.866
-178.793
-125.934
-41.381
70.537
196.256
323.245
441.103
549.363
652.117
747.133
827.286
875.315
872.285
809.961
687.752
518.245
323.573
125.734
-52.266
-192.557
-285.96
-332.375
-339.025
-315.478
-274.096
-223.24
-171.086
-129.75
-104.159
-96.997
-105.571
-117.709
-126.91
-130.647
-129.788
-131.867
-139.881
-152.515
-167.6
-180.375
-188.476
-192.451
-192.751
-190.266
-185.933
-180.183
-173.842
-168.183
-163.913
-161.253
-160.279
-160.773
-162.474
-165.229
-168.687
-172.318
-175.763
-178.778
-181.22
-183.114
-184.462
-185.223
-185.405
-185.039
-184.151
-182.786
-180.968
-178.698
-175.994
-172.883
-169.413
-165.65
-161.66
-157.507
-153.237
-148.879
-144.454
-139.976
-135.453
-130.886
-126.266
-121.574
-116.797
-111.926
-106.953
-101.873
-96.675
-91.346
-85.875
-80.254
-74.478
-68.548
-62.466
-56.236
-49.864
-43.361
-36.74
-30.019
-23.213
-16.337
-9.409
-2.444
4.539
11.52
18.479
25.397
32.252
39.023
45.687
52.22
58.597
64.797
70.796
76.569
82.095
87.351
92.317
96.973
101.3
105.28
108.899
112.142
114.996
117.453
119.505
121.144
122.369
123.178
123.572
123.555
123.132
122.311
121.1
119.512
117.559
115.255
112.615
109.658
106.399
102.861
99.061
95.022
90.766
86.315
81.691
76.917
72.017
67.011
61.923
56.774
51.585
46.376
41.166
35.973
30.814
25.705
20.66
15.691
10.811
6.028
1.353
-3.21
-7.652
-11.97
-16.16
-20.219
-24.145
-27.936
-31.593
-35.116
-38.504
-41.759
-44.882
-47.874
-50.737
-53.472
-56.081
-58.566
-60.927
-63.166
-65.284
-67.281
-69.157
-70.913
-72.547
-74.059
-75.445
-76.705
-77.835
-78.832
-79.691
-80.409
-80.982
-81.403
-81.669
-81.774
-81.713
-81.482
-81.075
-80.489
-79.721
-78.766
-77.624
-76.292
-74.77
-73.058
-71.158
-69.072
-66.803
-64.355
-61.734
-58.945
-55.998
-52.899
-49.66
-46.29
-42.801
-39.207
-35.521
-31.758
-27.933
-24.062
-20.163
-16.252
-12.348
-8.468
-4.631
-0.856
2.839
6.436
9.917
13.265
16.463
19.495
22.346
25.003
27.454
29.685
31.688
33.453
34.972
36.239
37.251
38.003
38.495
38.727
38.701
38.423
37.897
37.132
36.136
34.921
33.499
31.883
30.089
28.133
26.033
23.808
21.478
19.063
16.585
14.066
11.53
8.998
6.494
4.041
1.661
-0.623
-2.79
-4.817
-6.684
-8.371
-9.858
-11.128
-12.163
-12.947
-13.467
-13.711
-13.669
-13.332
-12.695
-11.754
-10.505
-8.95
-7.091
-4.932
-2.48
0.258
3.27
6.543
10.063
13.811
17.769
21.916
26.227
30.677
35.24
39.888
44.591
49.318
54.04
58.725
63.343
67.864
72.258
76.494
80.544
84.377
87.965
91.281
94.3
96.999
99.356
101.355
102.986
104.24
105.114
105.599
105.684
105.361
104.627
103.484
101.938
99.999
97.686
95.034
92.09
88.909
85.54
82.031
78.423
74.76
71.09
67.473
63.976
60.664
57.599
54.831
52.395
50.305
48.542
47.056
45.769
44.603
43.475
42.337
41.186
40.041
38.907
37.732
36.419
34.826
32.816
30.237
26.803
22.383
17.283
12.056
7.485
3.624
-0.481
-5.092
-9.006
-8.103
3.174
26.453
57.365
85.131
97.145
88.521
65.163
39.727
25.117
25.026
32.194
40.057
48.747
68.305
116.731
203.441
325.542
471.429
623.839
771.613
908.71
1026.912
1116.318
1163.287
1155.268
1090.453
973.716
816.198
636.684
452.775
285.585
156.524
72.83
31.936
21.254
21.361
23.745
29.683
40.83
59.061
79.75
91.399
90.049
78.973
63.082
50.612
44.463
41.168
39.255
37.666
36.383
37.674
41.975
48.271
55.71
63.177
69.815
75.245
79.215
81.569
82.411
82.022
80.628
78.413
75.574
72.282
68.673
64.933
61.229
57.707
54.55
51.895
49.821
48.385
47.615
47.51
48.053
49.201
50.885
53.041
55.613
58.546
61.792
65.288
68.956
72.72
76.502
80.249
83.931
87.529
91.036
94.455
97.799
101.094
104.376
107.671
111
114.382
117.832
121.37
125.02
128.801
132.732
136.828
141.101
145.561
150.214
155.062
160.103
165.332
170.74
176.321
182.065
187.963
194.006
200.18
206.472
212.865
219.341
225.881
232.46
239.054
245.635
252.175
258.644
265.011
271.245
277.312
283.18
288.818
294.193
299.273
304.028
308.427
312.444
316.051
319.224
321.941
324.182
325.929
327.167
327.886
328.076
327.731
326.847
325.425
323.467
320.979
317.97
314.45
310.435
305.94
300.987
295.597
289.795
283.61
277.07
270.207
263.054
255.644
248.013
240.197
232.231
224.151
215.993
207.793
199.585
191.403
183.278
175.241
167.321
159.547
151.941
144.528
137.328
130.36
123.639
117.178
110.989
105.08
99.458
94.127
89.088
84.34
79.881
75.706
71.807
68.175
64.8
61.669
58.768
56.082
53.595
51.291
49.152
47.161
45.3
43.552
41.9
40.328
38.819
37.36
35.936
34.535
33.144
31.754
30.356
28.942
27.507
26.045
24.556
23.035
21.485
19.905
18.298
16.667
15.018
13.356
11.688
10.022
8.367
6.731
5.125
3.558
2.042
0.586
-0.799
-2.104
-3.32
-4.437
-5.449
-6.348
-7.129
-7.787
-8.317
-8.718
-8.987
-9.126
-9.134
-9.015
-8.772
-8.41
-7.934
-7.353
-6.675
-5.907
-5.062
-4.148
-3.177
-2.162
-1.114
-0.047
1.027
2.094
3.14
4.151
5.115
6.018
6.847
7.592
8.24
8.783
9.212
9.519
9.696
9.741
9.647
9.413
9.037
8.519
7.859
7.06
6.126
5.062
3.874
2.568
1.154
-0.359
-1.961
-3.641
-5.387
-7.188
-9.031
-10.902
-12.789
-14.677
-16.552
-18.4
-20.206
-21.955
-23.635
-25.231
-26.731
-28.125
-29.401
-30.552
-31.567
-32.442
-33.17
-33.747
-34.171
-34.439
-34.55
-34.507
-34.312
-33.969
-33.484
-32.864
-32.12
-31.263
-30.309
-29.271
-28.165
-27.01
-25.822
-24.622
-23.426
-22.249
-21.107
-20.017
-18.995
-18.063
-17.237
-16.536
-15.974
-15.566
-15.324
-15.262
-15.386
-15.693
-16.182
-16.856
-17.721
-18.8
-20.11
-21.659
-23.455
-25.495
-27.771
-30.275
-32.975
-35.823
-38.769
-41.762
-44.757
-47.729
-50.644
-53.453
-56.1
-58.499
-60.566
-62.247
-63.509
-64.331
-64.727
-64.721
-64.353
-63.723
-62.974
-62.216
-61.514
-60.93
-60.526
-60.386
-60.722
-61.815
-63.76
-66.674
-70.749
-75.685
-80.935
-86.169
-90.56
-93.905
-97.467
-100.684
-102.185
-100.271
-91.16
-76.411
-62.449
-55.995
-64.705
-87.256
-114.298
-136.975
-147.339
-146.309
-139.636
-127.049
-103.942
-59.07
19.267
131.6
271.619
428.324
588.031
742.341
882.581
995.495
1067.198
1081.71
1027.436
904.431
722.107
500.994
269.502
55.703
-114.168
-223.917
-271.558
-264.09
-221.093
-165.668
-116.312
-90.084
-90.019
-108.613
-135.5
-154.877
-159.948
-153.088
-139.196
-127.045
-120.331
-117.663
-117.457
-117.035
-115.508
-113.621
-111.459
-109.293
-107.426
-105.668
-103.784
-101.656
-99.132
-96.384
-94.019
-92.415
-91.673
-91.878
-93.047
-95.151
-98.142
-101.76
-105.496
-108.956
-111.926
-114.285
-116.023
-117.137
-117.595
-117.424
-116.723
-115.588
-114.086
-112.262
-110.127
-107.703
-105.054
-102.252
-99.378
-96.504
-93.672
-90.902
-88.203
-85.57
-82.992
-80.45
-77.914
-75.347
-72.72
-70.014
-67.211
-64.296
-61.246
-58.036
-54.639
-51.03
-47.191
-43.109
-38.775
-34.18
-29.321
-24.198
-18.817
-13.183
-7.304
-1.187
5.163
11.736
18.52
25.501
32.663
39.988
47.456
55.043
62.723
70.47
78.253
86.044
93.811
101.523
109.148
116.652
124.004
131.17
138.118
144.815
151.23
157.333
163.093
168.483
173.477
178.049
182.177
185.841
189.022
191.706
193.876
195.524
196.638
197.214
197.246
196.734
195.679
194.085
191.958
189.309
186.148
182.492
178.356
173.761
168.725
163.272
157.427
151.214
144.66
137.793
130.642
123.236
115.605
107.779
99.789
91.664
83.434
75.13
66.778
58.409
50.047
41.721
33.455
25.273
17.199
9.254
1.459
-6.167
-13.607
-20.845
-27.867
-34.661
-41.215
-47.52
-53.57
-59.357
-64.877
-70.128
-75.107
-79.815
-84.252
-88.42
-92.323
-95.965
-99.352
-102.489
-105.383
-108.042
-110.472
-112.683
-114.682
-116.479
-118.082
-119.5
-120.744
-121.821
-122.741
-123.513
-124.147
-124.652
-125.035
-125.305
-125.47
-125.538
-125.516
-125.411
-125.228
-124.975
-124.656
-124.278
-123.844
-123.36
-122.83
-122.258
-121.647
-121.002
-120.327
-119.623
-118.897
-118.15
-117.386
-116.61
-115.825
-115.035
-114.244
-113.456
-112.676
-111.908
-111.155
-110.423
-109.715
-109.037
-108.393
-107.788
-107.226
-106.713
-106.252
-105.85
-105.509
-105.236
-105.034
-104.909
-104.863
-104.901
-105.026
-105.241
-105.549
-105.952
-106.451
-107.046
-107.737
-108.523
-109.403
-110.372
-111.429
-112.568
-113.785
-115.072
-116.425
-117.835
-119.295
-120.796
-122.328
-123.881
-125.446
-127.011
-128.564
-130.094
-131.588
-133.034
-134.418
-135.728
-136.951
-138.074
-139.084
-139.969
-140.717
-141.316
-141.755
-142.025
-142.115
-142.019
-141.728
-141.239
-140.546
-139.645
-138.537
-137.221
-135.698
-133.973
-132.048
-129.929
-127.625
-125.143
-122.494
-119.69
-116.745
-113.673
-110.494
-107.228
-103.896
-100.521
-97.126
-93.737
-90.377
-87.072
-83.843
-80.712
-77.702
-74.834
-72.133
-69.623
-67.324
-65.255
-63.433
-61.875
-60.596
-59.608
-58.911
-58.507
-58.4
-58.599
-59.124
-59.989
-61.201
-62.76
-64.664
-66.902
-69.463
-72.318
-75.418
-78.71
-82.141
-85.664
-89.248
-92.853
-96.42
-99.878
-103.139
-106.122
-108.776
-111.057
-112.923
-114.356
-115.369
-116.009
-116.372
-116.565
-116.684
-116.832
-117.131
-117.706
-118.68
-120.206
-122.488
-125.668
-129.797
-134.758
-140.191
-145.673
-150.835
-155.204
-158.175
-159.279
-158.248
-155.333
-151.584
-148.132
-145.796
-145.498
-148.172
-154.437
-164.657
-177.078
-187.372
-191.563
-187.007
-174.003
-154.761
-128.379
-89.098
-28.146
60.1
174.471
305.522
439.834
571.25
696.754
813.382
916.067
984.698
996.956
940.427
811.626
629.189
423.303
220.819
47.12
-85.189
-174.82
-224.541
-241.877
-234.054
-208.671
-173.823
-139.382
-115.236
-104.857
-106.486
-112.432
-114.19
-109.499
-101.231
-95.566
-96.605
-103.969
-114.484
-123.846
-130.049
-132.958
-132.571
-129.412
-123.962
-116.67
-108.73
-101.417
-95.299
-90.693
-87.852
-86.765
-87.408
-89.651
-93.005
-96.907
-100.994
-105.006
-108.745
-112.096
-114.933
-117.157
-118.763
-119.792
-120.271
-120.221
-119.653
-118.581
-117.038
-115.073
-112.742
-110.102
-107.216
-104.15
-100.968
-97.734
-94.493
-91.268
-88.075
-84.914
-81.776
-78.648
-75.511
-72.336
-69.099
-65.78
-62.356
-58.807
-55.112
-51.249
-47.199
-42.947
-38.478
-33.784
-28.857
-23.695
-18.297
-12.668
-6.813
-0.742
5.535
12.009
18.668
25.498
32.484
39.61
46.858
54.206
61.634
69.115
76.624
84.131
91.607
99.02
106.341
113.535
120.571
127.416
134.039
140.407
146.49
152.258
157.681
162.731
167.383
171.613
175.397
178.717
181.555
183.895
185.725
187.037
187.823
188.079
187.803
186.997
185.664
183.811
181.447
178.584
175.235
171.419
167.153
162.462
157.367
151.894
146.072
139.928
133.491
126.794
119.866
112.74
105.448
98.02
90.49
82.89
75.249
67.598
59.966
52.382
44.871
37.46
30.171
23.027
16.047
9.251
2.655
-3.727
-9.88
-15.792
-21.455
-26.86
-32.001
-36.873
-41.473
-45.8
-49.854
-53.636
-57.15
-60.4
-63.389
-66.125
-68.614
-70.864
-72.883
-74.679
-76.261
-77.639
-78.823
-79.822
-80.646
-81.305
-81.807
-82.163
-82.381
-82.469
-82.435
-82.286
-82.031
-81.675
-81.226
-80.688
-80.068
-79.371
-78.602
-77.766
-76.866
-75.906
-74.89
-73.82
-72.701
-71.535
-70.324
-69.072
-67.781
-66.454
-65.093
-63.702
-62.283
-60.839
-59.372
-57.885
-56.382
-54.864
-53.336
-51.801
-50.262
-48.724
-47.189
-45.661
-44.146
-42.645
-41.164
-39.706
-38.275
-36.874
-35.507
-34.177
-32.888
-31.642
-30.444
-29.295
-28.199
-27.156
-26.17
-25.241
-24.37
-23.558
-22.806
-22.113
-21.479
-20.904
-20.386
-19.925
-19.518
-19.163
-18.857
-18.598
-18.382
-18.205
-18.064
-17.954
-17.871
-17.811
-17.769
-17.739
-17.718
-17.7
-17.68
-17.651
-17.609
-17.547
-17.459
-17.34
-17.184
-16.986
-16.741
-16.443
-16.088
-15.67
-15.185
-14.629
-13.996
-13.283
-12.487
-11.604
-10.633
-9.571
-8.417
-7.17
-5.832
-4.402
-2.881
-1.273
0.423
2.201
4.058
5.99
7.99
10.053
12.169
14.328
16.519
18.728
20.944
23.15
25.334
27.479
29.57
31.595
33.542
35.398
37.15
38.784
40.284
41.636
42.827
43.844
44.676
45.312
45.743
45.968
45.988
45.8
45.399
44.77
43.895
42.764
41.368
39.702
37.773
35.588
33.17
30.56
27.805
24.951
22.044
19.115
16.196
13.329
10.566
7.975
5.625
3.568
1.855
0.527
-0.412
-0.981
-1.246
-1.321
-1.306
-1.312
-1.47
-1.899
-2.726
-4.087
-6.069
-8.8
-12.516
-17.35
-23.307
-30.26
-37.787
-45.395
-52.68
-59.073
-63.813
-66.373
-66.589
-64.757
-61.865
-59.184
-57.805
-58.785
-63.495
-72.008
-82.309
-91.974
-97.632
-97.607
-94.554
-89.608
-79.849
-58.633
-13.738
64.731
176.721
316.118
470.909
626.627
774.047
902.808
1000.725
1056.245
1055.9
993.754
872.67
703.413
506.8
305.534
122.711
-22.656
-121.903
-175.252
-190.897
-180.907
-156.727
-126.99
-99.607
-80.32
-70.604
-69.352
-70.04
-66.38
-57.234
-44.582
-34.131
-30.063
-32.236
-38.434
-45.568
-51.711
-56.281
-59.207
-60.421
-59.754
-57.381
-53.873
-49.772
-45.661
-42.221
-39.837
-38.861
-39.533
-41.726
-45.215
-49.723
-54.844
-60.112
-65.172
-69.763
-73.727
-77.052
-79.73
-81.753
-83.156
-84.001
-84.347
-84.239
-83.703
-82.742
-81.375
-79.656
-77.65
-75.434
-73.083
-70.639
-68.127
-65.561
-62.946
-60.279
-57.547
-54.726
-51.788
-48.711
-45.481
-42.087
-38.519
-34.761
-30.793
-26.595
-22.153
-17.456
-12.499
-7.283
-1.806
3.923
9.894
16.094
22.503
29.105
35.883
42.818
49.892
57.083
64.367
71.72
79.116
86.53
93.932
101.291
108.578
115.76
122.806
129.685
136.365
142.815
149.004
154.903
160.482
165.714
170.572
175.031
179.068
182.662
185.793
188.447
190.608
192.265
193.412
194.042
194.154
193.748
192.829
191.402
189.476
187.063
184.177
180.835
177.054
172.855
168.262
163.299
157.992
152.368
146.456
140.286
133.888
127.293
120.532
113.636
106.637
99.566
92.453
85.329
78.222
71.161
64.173
57.283
50.514
43.889
37.427
31.146
25.063
19.19
13.54
8.123
2.945
-1.988
-6.672
-11.106
-15.291
-19.227
-22.918
-26.37
-29.587
-32.579
-35.352
-37.917
-40.282
-42.459
-44.46
-46.295
-47.978
-49.521
-50.935
-52.235
-53.432
-54.539
-55.567
-56.528
-57.432
-58.289
-59.109
-59.899
-60.666
-61.418
-62.16
-62.896
-63.63
-64.363
-65.097
-65.832
-66.567
-67.303
-68.035
-68.763
-69.483
-70.191
-70.885
-71.561
-72.214
-72.84
-73.435
-73.995
-74.516
-74.994
-75.425
-75.807
-76.136
-76.411
-76.629
-76.789
-76.891
-76.935
-76.92
-76.849
-76.722
-76.541
-76.31
-76.032
-75.712
-75.353
-74.961
-74.543
-74.104
-73.652
-73.192
-72.732
-72.279
-71.839
-71.419
-71.026
-70.667
-70.348
-70.074
-69.851
-69.684
-69.578
-69.534
-69.556
-69.645
-69.802
-70.026
-70.317
-70.671
-71.087
-71.561
-72.088
-72.665
-73.284
-73.939
-74.624
-75.331
-76.05
-76.774
-77.492
-78.195
-78.872
-79.512
-80.107
-80.646
-81.118
-81.513
-81.822
-82.034
-82.14
-82.131
-81.999
-81.735
-81.334
-80.789
-80.098
-79.256
-78.263
-77.118
-75.822
-74.377
-72.788
-71.059
-69.197
-67.209
-65.103
-62.89
-60.582
-58.19
-55.728
-53.211
-50.658
-48.087
-45.516
-42.968
-40.461
-38.017
-35.657
-33.402
-31.27
-29.279
-27.447
-25.789
-24.326
-23.076
-22.057
-21.28
-20.761
-20.507
-20.531
-20.838
-21.425
-22.287
-23.421
-24.826
-26.511
-28.486
-30.748
-33.292
-36.112
-39.191
-42.509
-46.037
-49.721
-53.51
-57.352
-61.199
-65.018
-68.774
-72.415
-75.881
-79.102
-82.004
-84.542
-86.67
-88.338
-89.536
-90.281
-90.625
-90.669
-90.497
-90.176
-89.802
-89.481
-89.327
-89.474
-90
-91.023
-92.756
-95.319
-98.718
-102.776
-107.027
-110.986
-114.281
-116.39
-116.669
-114.689
-110.295
-104.034
-97.159
-90.765
-85.826
-83.444
-84.614
-90.099
-98.972
-107.776
-112.601
-110.749
-102.719
-90.845
-74.197
-46.721
1.908
79.618
186.513
313.85
447.513
577.389
697.658
804.967
894.746
955.235
972.41
935.682
842.452
699.715
521.869
327.542
135.449
-35.566
-169.101
-255.644
-292.237
-282.898
-240.551
-180.96
-120.174
-74.908
-51.541
-47.824
-56.703
-64.744
-65.324
-59.447
-50.542
-45.872
-48.298
-55.755
-65.743
-74.712
-80.86
-84.292
-85.19
-84.065
-81.581
-78.346
-75.07
-72.527
-71.168
-71.224
-72.812
-75.857
-80.158
-85.405
-91.184
-96.987
-102.436
-107.319
-111.501
-114.957
-117.683
-119.66
-120.916
-121.523
-121.546
-121.03
-120.008
-118.486
-116.482
-114.053
-111.265
-108.197
-104.924
-101.492
-97.927
-94.252
-90.475
-86.603
-82.631
-78.544
-74.314
-69.93
-65.38
-60.659
-55.762
-50.679
-45.393
-39.89
-34.16
-28.197
-22
-15.569
-8.908
-2.022
5.076
12.373
19.85
27.49
35.279
43.198
51.23
59.353
67.544
75.782
84.041
92.296
100.519
108.681
116.752
124.703
132.504
140.124
147.534
154.704
161.604
168.205
174.481
180.404
185.949
191.09
195.805
200.072
203.872
207.187
210.002
212.303
214.08
215.325
216.034
216.205
215.837
214.933
213.499
211.544
209.078
206.115
202.669
198.758
194.402
189.624
184.447
178.897
172.999
166.783
160.276
153.507
146.508
139.307
131.934
124.421
116.796
109.089
101.33
93.547
85.768
78.02
70.326
62.713
55.202
47.813
40.566
33.478
26.565
19.84
13.316
7.002
0.907
-4.963
-10.601
-16.005
-21.173
-26.103
-30.797
-35.257
-39.485
-43.485
-47.262
-50.821
-54.168
-57.309
-60.249
-62.996
-65.557
-67.939
-70.148
-72.192
-74.078
-75.812
-77.401
-78.851
-80.168
-81.357
-82.423
-83.369
-84.201
-84.92
-85.53
-86.034
-86.432
-86.728
-86.922
-87.014
-87.006
-86.898
-86.689
-86.381
-85.972
-85.464
-84.857
-84.152
-83.35
-82.453
-81.463
-80.382
-79.214
-77.963
-76.633
-75.227
-73.752
-72.213
-70.616
-68.969
-67.277
-65.55
-63.795
-62.02
-60.234
-58.447
-56.666
-54.901
-53.162
-51.457
-49.796
-48.188
-46.643
-45.168
-43.775
-42.469
-41.261
-40.158
-39.165
-38.291
-37.539
-36.915
-36.423
-36.065
-35.844
-35.761
-35.815
-36.005
-36.331
-36.788
-37.372
-38.078
-38.9
-39.832
-40.864
-41.99
-43.199
-44.483
-45.832
-47.235
-48.681
-50.159
-51.658
-53.166
-54.671
-56.159
-57.619
-59.036
-60.4
-61.697
-62.916
-64.044
-65.071
-65.984
-66.775
-67.432
-67.948
-68.313
-68.52
-68.564
-68.439
-68.141
-67.669
-67.022
-66.198
-65.2
-64.031
-62.695
-61.196
-59.54
-57.734
-55.786
-53.706
-51.503
-49.188
-46.775
-44.276
-41.711
-39.095
-36.449
-33.792
-31.144
-28.527
-25.963
-23.471
-21.071
-18.78
-16.616
-14.598
-12.744
-11.074
-9.604
-8.347
-7.319
-6.529
-5.989
-5.705
-5.676
-5.9
-6.377
-7.11
-8.114
-9.401
-10.975
-12.839
-14.991
-17.423
-20.124
-23.07
-26.218
-29.519
-32.923
-36.385
-39.87
-43.338
-46.737
-50.002
-53.055
-55.824
-58.246
-60.272
-61.86
-62.994
-63.679
-63.954
-63.895
-63.593
-63.159
-62.717
-62.392
-62.308
-62.581
-63.367
-64.891
-67.341
-70.791
-75.134
-80.071
-85.27
-90.392
-94.955
-98.329
-99.944
-99.476
-97.204
-93.954
-90.508
-87.902
-87.438
-90.082
-96.771
-106.982
-117.637
-126.612
-132.582
-135.154
-136.293
-131.801
-112.345
-68.723
8.028
114.404
237.242
364.437
485.46
601.461
718.688
834.023
937.082
1006.859
1020.252
969.447
857.865
698.718
514.515
323.235
141.855
-10.396
-123.681
-193.216
-220.88
-220.032
-201.617
-174.677
-148.081
-124.181
-106.537
-96.447
-88.925
-80.877
-68.721
-52.106
-36.926
-26.737
-23.06
-25.394
-30.302
-36.219
-43.107
-50.615
-58.268
-65.071
-70.199
-73.656
-75.815
-76.873
-76.869
-75.93
-74.598
-73.719
-73.799
-74.905
-76.845
-79.305
-82.061
-84.99
-87.836
-90.223
-91.922
-92.837
-92.971
-92.455
-91.376
-89.762
-87.67
-85.168
-82.306
-79.153
-75.767
-72.184
-68.465
-64.659
-60.795
-56.908
-53.012
-49.111
-45.204
-41.276
-37.303
-33.271
-29.176
-25.011
-20.778
-16.467
-12.064
-7.56
-2.943
1.795
6.662
11.665
16.81
22.096
27.519
33.07
38.739
44.518
50.398
56.369
62.423
68.546
74.725
80.945
87.192
93.447
99.691
105.901
112.054
118.128
124.099
129.943
135.635
141.152
146.468
151.561
156.407
160.983
165.267
169.236
172.871
176.152
179.06
181.58
183.695
185.392
186.659
187.489
187.873
187.807
187.289
186.318
184.897
183.03
180.725
177.99
174.837
171.279
167.33
163.01
158.341
153.343
148.041
142.457
136.613
130.539
124.267
117.812
111.195
104.435
97.549
90.574
83.554
76.501
69.425
62.386
55.436
48.62
41.991
35.543
29.24
23.13
17.283
11.569
5.829
0.177
-5.39
-10.894
-15.961
-21.583
-28.728
-36.009
-43.005
-47.172
-45.464
-41.259
-36.809
-35.467
-41.839
-51.864
-62.099
-70.188
-72.236
-71.041
-69.441
-68.072
-68.668
-70.234
-71.491
-72.693
-73.681
-74.548
-75.562
-76.559
-77.406
-78.154
-78.818
-79.384
-79.859
-80.257
-80.584
-80.867
-81.137
-81.382
-81.591
-81.768
-81.913
-82.025
-82.105
-82.149
-82.153
-82.118
-82.044
-81.931
-81.779
-81.588
-81.357
-81.087
-80.778
-80.432
-80.049
-79.631
-79.18
-78.698
-78.187
-77.65
-77.089
-76.509
-75.912
-75.304
-74.688
-74.069
-73.451
-72.841
-72.244
-71.665
-71.11
-70.585
-70.097
-69.651
-69.253
-68.909
-68.624
-68.405
-68.254
-68.177
-68.177
-68.256
-68.417
-68.661
-68.989
-69.4
-69.894
-70.47
-71.124
-71.854
-72.656
-73.525
-74.458
-75.447
-76.487
-77.57
-78.689
-79.834
-80.999
-82.171
-83.342
-84.501
-85.636
-86.736
-87.791
-88.787
-89.714
-90.559
-91.31
-91.955
-92.484
-92.885
-93.148
-93.262
-93.219
-93.012
-92.634
-92.078
-91.34
-90.417
-89.305
-88.005
-86.515
-84.836
-82.971
-80.924
-78.7
-76.305
-73.747
-71.035
-68.183
-65.204
-62.115
-58.932
-55.674
-52.361
-49.013
-45.65
-42.296
-38.967
-35.684
-32.467
-29.336
-26.316
-23.43
-20.698
-18.142
-15.781
-13.635
-11.72
-10.052
-8.637
-7.481
-6.593
-5.984
-5.678
-5.695
-6.042
-6.728
-7.751
-9.101
-10.764
-12.712
-14.893
-17.255
-19.747
-22.321
-24.945
-27.584
-30.191
-32.708
-35.06
-37.173
-39.002
-40.506
-41.654
-42.453
-42.925
-43.136
-43.21
-43.258
-43.398
-43.756
-44.437
-45.562
-47.255
-49.627
-52.824
-57.02
-62.277
-68.556
-75.663
-83.191
-90.695
-97.719
-103.683
-107.983
-110.177
-110.054
-107.928
-104.614
-100.994
-97.963
-96.228
-96.186
-98.228
-102.43
-107.677
-112.108
-112.344
-103.371
-81.617
-45.321
4.155
61.635
122.918
188.261
263.266
356.93
475.745
617.262
767.328
903.949
1004.207
1048.994
1029.039
946.442
808.258
629.165
430.744
233.309
61.456
-65.09
-143.648
-177.784
-181.845
-174.29
-159.288
-140.022
-118.562
-92.803
-70.195
-55.276
-45.127
-39.461
-34.54
-28.626
-26.02
-28.312
-35.929
-47.945
-60.914
-72.625
-81.712
-87.538
-90.457
-90.723
-88.721
-85.143
-80.54
-75.661
-71.55
-68.76
-67.507
-67.883
-69.644
-72.522
-76.321
-80.65
-84.983
-88.951
-92.32
-94.975
-96.962
-98.3
-98.965
-98.987
-98.422
-97.329
-95.765
-93.756
-91.304
-88.426
-85.173
-81.608
-77.81
-73.852
-69.782
-65.628
-61.411
-57.143
-52.827
-48.461
-44.034
-39.526
-34.92
-30.21
-25.386
-20.445
-15.378
-10.169
-4.805
0.724
6.427
12.303
18.354
24.575
30.962
37.504
44.191
51.005
57.933
64.959
72.068
79.243
86.466
93.717
100.974
108.215
115.416
122.552
129.597
136.523
143.302
149.907
156.309
162.48
168.393
174.022
179.338
184.318
188.937
193.172
197.002
200.407
203.368
205.871
207.901
209.447
210.498
211.049
211.094
210.633
209.664
208.193
206.225
203.768
200.833
197.434
193.587
189.309
184.622
179.548
174.11
168.335
162.251
155.886
149.27
142.434
135.409
128.226
120.918
113.516
106.051
98.555
91.058
83.589
76.177
68.85
61.635
54.555
47.635
40.896
34.359
28.041
21.961
16.132
10.566
5.275
0.267
-4.453
-8.879
-13.009
-16.844
-20.383
-23.63
-26.589
-29.268
-31.673
-33.812
-35.697
-37.339
-38.749
-39.941
-40.928
-41.725
-42.346
-42.806
-43.119
-43.301
-43.367
-43.332
-43.209
-43.015
-42.763
-42.466
-42.138
-41.79
-41.434
-41.08
-40.739
-40.418
-40.125
-39.866
-39.648
-39.474
-39.349
-39.275
-39.254
-39.289
-39.378
-39.521
-39.718
-39.967
-40.265
-40.609
-40.997
-41.424
-41.887
-42.381
-42.902
-43.447
-44.009
-44.586
-45.172
-45.762
-46.352
-46.938
-47.516
-48.081
-48.632
-49.164
-49.675
-50.165
-50.631
-51.072
-51.49
-51.883
-52.252
-52.599
-52.924
-53.231
-53.52
-53.795
-54.057
-54.311
-54.56
-54.805
-55.051
-55.301
-55.557
-55.823
-56.101
-56.394
-56.704
-57.032
-57.38
-57.75
-58.143
-58.558
-58.997
-59.457
-59.939
-60.44
-60.959
-61.492
-62.035
-62.584
-63.134
-63.681
-64.217
-64.736
-65.231
-65.694
-66.118
-66.495
-66.818
-67.076
-67.263
-67.37
-67.389
-67.313
-67.134
-66.844
-66.439
-65.91
-65.255
-64.467
-63.545
-62.484
-61.284
-59.943
-58.464
-56.846
-55.094
-53.21
-51.201
-49.073
-46.833
-44.492
-42.06
-39.548
-36.974
-34.353
-31.703
-29.044
-26.396
-23.779
-21.217
-18.729
-16.336
-14.056
-11.909
-9.911
-8.085
-6.449
-5.022
-3.821
-2.863
-2.16
-1.727
-1.572
-1.697
-2.101
-2.783
-3.747
-5.004
-6.566
-8.438
-10.622
-13.121
-15.924
-19.017
-22.375
-25.952
-29.698
-33.564
-37.499
-41.47
-45.437
-49.351
-53.155
-56.776
-60.14
-63.185
-65.85
-68.078
-69.851
-71.173
-72.092
-72.702
-73.081
-73.316
-73.516
-73.78
-74.217
-74.949
-76.044
-77.623
-79.92
-83.085
-87.145
-92.004
-97.279
-102.502
-107.286
-111.083
-113.126
-112.865
-110.138
-105.24
-99.145
-93.21
-88.69
-86.791
-89.164
-96.038
-105.192
-114.086
-119.36
-119.538
-118.196
-117.166
-113.085
-98.253
-58.477
18.562
133.889
281.992
451.262
625.514
792.671
938.379
1044.717
1097.454
1085.198
1006.798
872.811
699.033
504.612
308.19
126.891
-24.476
-134.756
-200.972
-227.398
-221.358
-195.216
-157.805
-117.385
-85.556
-65.718
-59.224
-63.17
-66.615
-65.534
-60.182
-52.458
-49.08
-52.451
-60.661
-71.868
-82.884
-91.406
-97.095
-99.958
-100.193
-98.329
-95.019
-90.751
-86.17
-82.227
-79.527
-78.372
-78.954
-81.098
-84.474
-88.869
-93.902
-99.058
-103.981
-108.388
-112.097
-115.109
-117.425
-119.022
-119.93
-120.192
-119.844
-118.939
-117.511
-115.567
-113.142
-110.279
-107.04
-103.502
-99.739
-95.813
-91.774
-87.648
-83.455
-79.207
-74.902
-70.54
-66.111
-61.598
-56.991
-52.284
-47.47
-42.544
-37.496
-32.312
-26.984
-21.505
-15.87
-10.083
-4.147
1.933
8.147
14.484
20.93
27.468
34.083
40.761
47.486
54.243
61.013
67.779
74.521
81.221
87.858
94.411
100.857
107.173
113.335
119.321
125.106
130.666
135.979
141.021
145.771
150.206
154.306
158.052
161.425
164.409
166.988
169.149
170.882
172.175
173.023
173.421
173.365
172.855
171.893
170.484
168.632
166.346
163.636
160.515
156.996
153.094
148.827
144.214
139.275
134.033
128.511
122.734
116.728
110.519
104.135
97.603
90.951
84.207
77.399
70.554
63.698
56.858
50.059
43.325
36.678
30.141
23.732
17.47
11.371
5.451
-0.278
-5.806
-11.122
-16.22
-21.094
-25.74
-30.154
-34.337
-38.288
-42.009
-45.503
-48.777
-51.834
-54.685
-57.336
-59.797
-62.08
-64.195
-66.154
-67.97
-69.656
-71.223
-72.684
-74.053
-75.342
-76.562
-77.727
-78.846
-79.931
-80.99
-82.033
-83.067
-84.098
-85.131
-86.172
-87.224
-88.29
-89.37
-90.467
-91.579
-92.707
-93.849
-95.002
-96.163
-97.328
-98.493
-99.652
-100.8
-101.93
-103.036
-104.112
-105.151
-106.147
-107.093
-107.983
-108.811
-109.572
-110.258
-110.866
-111.391
-111.829
-112.177
-112.433
-112.595
-112.662
-112.634
-112.513
-112.298
-111.994
-111.601
-111.124
-110.566
-109.933
-109.229
-108.46
-107.632
-106.753
-105.83
-104.871
-103.882
-102.873
-101.85
-100.822
-99.796
-98.78
-97.781
-96.806
-95.862
-94.955
-94.09
-93.272
-92.506
-91.795
-91.143
-90.551
-90.02
-89.552
-89.146
-88.802
-88.518
-88.291
-88.12
-88.001
-87.929
-87.898
-87.904
-87.939
-87.995
-88.065
-88.14
-88.212
-88.27
-88.307
-88.311
-88.273
-88.184
-88.034
-87.814
-87.514
-87.127
-86.643
-86.056
-85.359
-84.547
-83.614
-82.556
-81.371
-80.055
-78.609
-77.032
-75.324
-73.489
-71.528
-69.446
-67.249
-64.945
-62.541
-60.051
-57.487
-54.864
-52.198
-49.508
-46.811
-44.128
-41.478
-38.878
-36.348
-33.905
-31.569
-29.358
-27.293
-25.395
-23.682
-22.172
-20.88
-19.821
-19.009
-18.451
-18.151
-18.112
-18.343
-18.862
-19.684
-20.82
-22.276
-24.052
-26.143
-28.538
-31.213
-34.127
-37.232
-40.479
-43.82
-47.219
-50.641
-54.04
-57.357
-60.511
-63.433
-66.06
-68.349
-70.264
-71.785
-72.912
-73.7
-74.248
-74.655
-75.029
-75.465
-76.052
-76.926
-78.221
-80.049
-82.567
-85.954
-90.331
-95.748
-102.08
-108.926
-115.839
-122.378
-127.936
-131.849
-133.587
-132.807
-129.735
-125.384
-120.825
-116.874
-114.661
-115.345
-119.507
-127.55
-137.79
-145.707
-148.369
-143.972
-131.413
-112.255
-83.001
-35.296
36.08
134.31
254.884
384.444
513.907
640.044
761.143
876.505
977.252
1042.058
1051.367
994.753
872.871
704.023
512.67
320.592
148.238
7.959
-93.314
-153.935
-177.756
-169.827
-141.059
-101.485
-62.42
-38.96
-35.423
-50.735
-77.498
-99.986
-111.234
-111.179
-103.194
-95.317
-90.617
-87.732
-85.619
-82.812
-79.252
-76.044
-73.478
-71.714
-71.008
-71.431
-72.742
-74.321
-75.632
-76.571
-77.521
-78.878
-80.741
-83.024
-85.659
-88.718
-92.236
-96.021
-99.647
-102.726
-105.057
-106.581
-107.329
-107.303
-106.484
-104.915
-102.701
-99.951
-96.748
-93.142
-89.147
-84.804
-80.181
-75.357
-70.413
-65.409
-60.373
-55.327
-50.278
-45.228
-40.168
-35.084
-29.951
-24.754
-19.483
-14.133
-8.702
-3.187
2.421
8.13
13.95
19.888
25.944
32.12
38.409
44.805
51.299
57.878
64.529
71.238
77.992
84.777
91.581
98.39
105.187
111.957
118.679
125.337
131.907
138.37
144.703
150.883
156.887
162.694
168.28
173.623
178.703
183.497
187.986
192.151
195.972
199.433
202.518
205.212
207.503
209.379
210.831
211.852
212.436
212.58
212.284
211.548
210.376
208.773
206.747
204.308
201.467
198.239
194.639
190.685
186.396
181.793
176.899
171.737
166.331
160.708
154.894
148.913
142.795
136.564
130.249
123.874
117.467
111.054
104.659
98.306
92.02
85.823
79.737
73.781
67.974
62.335
56.878
51.617
46.566
41.734
37.132
32.765
28.64
24.76
21.129
17.745
14.609
11.718
9.067
6.653
4.468
2.505
0.756
-0.788
-2.137
-3.302
-4.292
-5.12
-5.796
-6.334
-6.744
-7.04
-7.234
-7.337
-7.363
-7.324
-7.23
-7.094
-6.926
-6.736
-6.535
-6.33
-6.131
-5.944
-5.777
-5.636
-5.526
-5.451
-5.416
-5.422
-5.473
-5.57
-5.713
-5.904
-6.141
-6.425
-6.754
-7.127
-7.544
-8.002
-8.5
-9.036
-9.606
-10.21
-10.844
-11.506
-12.193
-12.901
-13.63
-14.375
-15.134
-15.905
-16.685
-17.473
-18.267
-19.063
-19.862
-20.662
-21.461
-22.259
-23.055
-23.849
-24.642
-25.432
-26.221
-27.01
-27.799
-28.587
-29.377
-30.168
-30.961
-31.756
-32.552
-33.35
-34.148
-34.946
-35.744
-36.539
-37.331
-38.118
-38.897
-39.668
-40.426
-41.17
-41.896
-42.601
-43.282
-43.934
-44.553
-45.135
-45.674
-46.165
-46.603
-46.983
-47.299
-47.544
-47.713
-47.8
-47.798
-47.702
-47.505
-47.203
-46.79
-46.261
-45.612
-44.841
-43.944
-42.919
-41.766
-40.483
-39.071
-37.532
-35.867
-34.079
-32.173
-30.153
-28.026
-25.8
-23.483
-21.085
-18.618
-16.095
-13.533
-10.946
-8.352
-5.77
-3.219
-0.718
1.712
4.055
6.29
8.399
10.363
12.163
13.779
15.191
16.381
17.331
18.025
18.45
18.592
18.447
18.009
17.276
16.239
14.886
13.205
11.191
8.839
6.152
3.137
-0.187
-3.789
-7.621
-11.633
-15.773
-19.995
-24.26
-28.529
-32.756
-36.884
-40.848
-44.582
-48.03
-51.149
-53.891
-56.236
-58.201
-59.845
-61.279
-62.621
-63.96
-65.375
-66.963
-68.829
-71.089
-73.863
-77.216
-81.229
-86.066
-91.812
-98.448
-105.757
-113.247
-120.352
-126.583
-131.391
-134.105
-134.247
-131.639
-126.69
-120.471
-114.047
-108.441
-104.674
-103.723
-106.557
-112.176
-117.227
-118.362
-111.884
-97.832
-80.568
-59.587
-32.069
9.328
78.156
177.923
305.608
453.559
605.013
748.617
873.918
967.645
1019.72
1017.828
955.567
835.841
668.839
474.434
274.385
90.756
-57.888
-163.069
-224.572
-250.043
-249.953
-232.217
-201.601
-162.532
-122.516
-89.369
-69.695
-64.769
-68.158
-73.733
-78.105
-81.105
-86.889
-97.658
-111.856
-126.726
-138.685
-145.466
-147.048
-144.167
-137.866
-129.373
-119.979
-110.945
-103.186
-97.33
-93.598
-91.901
-92.102
-93.883
-96.753
-100.202
-103.82
-107.313
-110.505
-113.278
-115.527
-117.193
-118.265
-118.766
-118.718
-118.118
-116.969
-115.286
-113.096
-110.45
-107.399
-103.994
-100.298
-96.376
-92.3
-88.143
-83.959
-79.78
-75.627
-71.51
-67.428
-63.379
-59.345
-55.3
-51.221
-47.088
-42.883
-38.588
-34.184
-29.653
-24.976
-20.138
-15.126
-9.934
-4.554
1.017
6.775
12.718
18.837
25.121
31.558
38.136
44.842
51.661
58.577
65.573
72.63
79.728
86.844
93.954
101.032
108.05
114.98
121.792
128.456
134.942
141.219
147.256
153.025
158.496
163.639
168.428
172.836
176.839
180.413
183.538
186.194
188.365
190.038
191.202
191.848
191.97
191.567
190.639
189.188
187.22
184.745
181.771
178.314
174.388
170.012
165.206
159.994
154.399
148.448
142.169
135.591
128.744
121.661
114.372
106.909
99.306
91.595
83.807
75.975
68.13
60.303
52.522
44.816
37.212
29.733
22.405
15.247
8.28
1.521
-5.016
-11.316
-17.368
-23.162
-28.693
-33.953
-38.939
-43.649
-48.083
-52.242
-56.128
-59.745
-63.099
-66.197
-69.045
-71.652
-74.028
-76.183
-78.128
-79.873
-81.431
-82.812
-84.03
-85.095
-86.02
-86.816
-87.495
-88.067
-88.543
-88.931
-89.242
-89.483
-89.661
-89.783
-89.855
-89.88
-89.863
-89.807
-89.716
-89.592
-89.436
-89.25
-89.035
-88.792
-88.52
-88.221
-87.893
-87.537
-87.152
-86.739
-86.295
-85.822
-85.319
-84.785
-84.221
-83.627
-83.003
-82.35
-81.669
-80.96
-80.225
-79.465
-78.684
-77.883
-77.066
-76.236
-75.398
-74.557
-73.716
-72.882
-72.059
-71.252
-70.466
-69.708
-68.98
-68.289
-67.639
-67.033
-66.477
-65.973
-65.524
-65.133
-64.802
-64.531
-64.321
-64.172
-64.083
-64.053
-64.08
-64.161
-64.294
-64.476
-64.704
-64.972
-65.276
-65.611
-65.97
-66.347
-66.734
-67.123
-67.506
-67.873
-68.216
-68.527
-68.795
-69.012
-69.169
-69.258
-69.268
-69.192
-69.023
-68.752
-68.373
-67.879
-67.267
-66.533
-65.673
-64.687
-63.574
-62.333
-60.967
-59.476
-57.866
-56.137
-54.296
-52.347
-50.298
-48.155
-45.929
-43.629
-41.267
-38.858
-36.419
-33.965
-31.515
-29.086
-26.698
-24.369
-22.117
-19.958
-17.907
-15.979
-14.192
-12.562
-11.107
-9.841
-8.777
-7.927
-7.301
-6.909
-6.756
-6.838
-7.153
-7.701
-8.49
-9.536
-10.855
-12.451
-14.325
-16.476
-18.892
-21.56
-24.45
-27.511
-30.691
-33.94
-37.215
-40.489
-43.725
-46.874
-49.875
-52.65
-55.132
-57.273
-59.034
-60.387
-61.337
-61.913
-62.182
-62.253
-62.237
-62.251
-62.424
-62.873
-63.703
-65.011
-66.929
-69.662
-73.379
-78.125
-83.745
-89.89
-96.181
-102.28
-107.732
-111.89
-114.137
-114.172
-112.388
-109.699
-107.009
-105.193
-105.193
-108.068
-114.902
-125.035
-135.265
-142.178
-143.431
-139.933
-134.72
-127.043
-110.208
-72.634
-4.82
94.732
217.593
348.785
477.397
597.814
707.807
805.256
880.969
919.52
906.04
832.287
698.316
518.301
317.66
123.01
-36.95
-145.132
-204.031
-224.721
-226.305
-223.392
-215.529
-198.603
-170.114
-134.499
-104.59
-90.885
-94.791
-108.29
-121.116
-127.324
-126.979
-125.456
-126.41
-129.669
-133.715
-135.925
-134.982
-131.169
-125.017
-117.327
-109.058
-101.238
-94.55
-89.273
-85.529
-83.322
-82.618
-83.382
-85.347
-87.996
-90.938
-93.901
-96.669
-99.122
-101.143
-102.605
-103.463
-103.747
-103.48
-102.687
-101.395
-99.61
-97.362
-94.699
-91.669
-88.327
-84.739
-80.971
-77.095
-73.181
-69.279
-65.417
-61.617
-57.884
-54.216
-50.6
-47.016
-43.439
-39.847
-36.222
-32.547
-28.804
-24.974
-21.038
-16.979
-12.781
-8.433
-3.926
0.746
5.587
10.596
15.769
21.099
26.578
32.197
37.947
43.818
49.799
55.877
62.038
68.266
74.546
80.858
87.181
93.493
99.77
105.987
112.118
118.138
124.019
129.735
135.258
140.561
145.62
150.407
154.898
159.069
162.897
166.362
169.443
172.122
174.383
176.212
177.597
178.529
178.999
179.005
178.541
177.609
176.21
174.349
172.033
169.271
166.073
162.454
158.43
154.018
149.238
144.113
138.665
132.919
126.902
120.639
114.16
107.492
100.663
93.705
86.644
79.512
72.336
65.145
57.968
50.83
43.759
36.779
29.914
23.187
16.618
10.228
4.034
-1.947
-7.701
-13.215
-18.478
-23.479
-28.211
-32.667
-36.842
-40.733
-44.339
-47.659
-50.694
-53.448
-55.922
-58.122
-60.054
-61.725
-63.142
-64.313
-65.247
-65.954
-66.445
-66.729
-66.818
-66.723
-66.456
-66.029
-65.452
-64.739
-63.899
-62.944
-61.885
-60.733
-59.498
-58.19
-56.817
-55.391
-53.918
-52.408
-50.868
-49.306
-47.729
-46.144
-44.557
-42.975
-41.402
-39.846
-38.31
-36.801
-35.322
-33.879
-32.476
-31.117
-29.806
-28.547
-27.342
-26.195
-25.108
-24.084
-23.124
-22.232
-21.408
-20.654
-19.972
-19.363
-18.828
-18.368
-17.983
-17.675
-17.443
-17.288
-17.21
-17.207
-17.28
-17.428
-17.65
-17.944
-18.308
-18.741
-19.24
-19.801
-20.422
-21.098
-21.827
-22.602
-23.42
-24.275
-25.162
-26.075
-27.01
-27.961
-28.921
-29.885
-30.847
-31.799
-32.737
-33.653
-34.539
-35.39
-36.199
-36.958
-37.662
-38.304
-38.876
-39.375
-39.792
-40.122
-40.361
-40.502
-40.542
-40.474
-40.297
-40.005
-39.599
-39.075
-38.432
-37.67
-36.79
-35.792
-34.68
-33.456
-32.123
-30.685
-29.147
-27.517
-25.801
-24.007
-22.144
-20.223
-18.256
-16.258
-14.241
-12.221
-10.214
-8.234
-6.299
-4.425
-2.624
-0.911
0.702
2.201
3.57
4.796
5.863
6.76
7.475
7.997
8.316
8.425
8.326
8.018
7.502
6.774
5.823
4.636
3.214
1.555
-0.338
-2.452
-4.774
-7.276
-9.912
-12.635
-15.401
-18.17
-20.918
-23.618
-26.228
-28.703
-30.984
-33.014
-34.76
-36.18
-37.241
-37.946
-38.321
-38.429
-38.381
-38.261
-38.147
-38.136
-38.302
-38.725
-39.493
-40.638
-42.248
-44.495
-47.479
-51.209
-55.573
-60.219
-64.742
-68.796
-71.854
-73.246
-72.463
-69.293
-63.985
-57.306
-50.315
-44.066
-39.692
-38.729
-41.232
-45.256
-48.818
-49.194
-47.101
-47.353
-50.13
-51.703
-40.796
-0.232
75.689
183.597
310.608
436.836
555.787
666.311
766.862
856.204
917.226
929.207
881.136
768.482
604.704
414.963
222.981
53.419
-76.752
-161.481
-201.667
-205.437
-183.921
-148.616
-109.057
-74.362
-51.922
-43.322
-46.365
-53.637
-57.68
-56.276
-50.923
-46.577
-46.231
-49.115
-53.094
-55.335
-54.737
-51.992
-47.765
-42.687
-37.596
-33.086
-29.723
-27.958
-27.733
-28.796
-31.008
-34.275
-38.338
-42.922
-47.747
-52.508
-57.044
-61.249
-64.997
-68.196
-70.8
-72.789
-74.158
-74.929
-75.126
-74.782
-73.948
-72.671
-70.994
-68.965
-66.635
-64.068
-61.331
-58.49
-55.59
-52.655
-49.704
-46.742
-43.772
-40.788
-37.769
-34.689
-31.526
-28.265
-24.895
-21.405
-17.78
-14.004
-10.063
-5.947
-1.646
2.842
7.521
12.392
17.451
22.692
28.105
33.676
39.395
45.25
51.229
57.316
63.496
69.753
76.068
82.422
88.794
95.161
101.497
107.778
113.976
120.066
126.019
131.807
137.404
142.781
147.911
152.769
157.329
161.565
165.454
168.973
172.103
174.823
177.116
178.967
180.362
181.291
181.745
181.718
181.207
180.21
178.729
176.769
174.336
171.438
168.088
164.299
160.087
155.472
150.474
145.116
139.423
133.421
127.137
120.602
113.844
106.895
99.785
92.546
85.209
77.805
70.366
62.921
55.501
48.135
40.85
33.674
26.632
19.747
13.042
6.538
0.252
-5.798
-11.597
-17.133
-22.394
-27.371
-32.057
-36.447
-40.537
-44.325
-47.813
-51.003
-53.897
-56.502
-58.825
-60.873
-62.655
-64.182
-65.465
-66.516
-67.346
-67.969
-68.398
-68.646
-68.727
-68.655
-68.442
-68.102
-67.648
-67.092
-66.446
-65.721
-64.929
-64.078
-63.179
-62.24
-61.27
-60.276
-59.265
-58.243
-57.215
-56.186
-55.16
-54.14
-53.129
-52.129
-51.141
-50.167
-49.208
-48.264
-47.336
-46.424
-45.529
-44.651
-43.789
-42.945
-42.119
-41.311
-40.522
-39.755
-39.01
-38.289
-37.594
-36.928
-36.294
-35.694
-35.13
-34.608
-34.129
-33.697
-33.316
-32.99
-32.721
-32.514
-32.372
-32.299
-32.298
-32.371
-32.522
-32.753
-33.067
-33.464
-33.946
-34.514
-35.168
-35.906
-36.727
-37.629
-38.609
-39.663
-40.785
-41.971
-43.213
-44.507
-45.843
-47.213
-48.608
-50.02
-51.437
-52.851
-54.248
-55.619
-56.952
-58.236
-59.459
-60.61
-61.679
-62.654
-63.525
-64.282
-64.915
-65.416
-65.775
-65.985
-66.038
-65.929
-65.654
-65.208
-64.59
-63.797
-62.832
-61.695
-60.39
-58.922
-57.296
-55.518
-53.599
-51.547
-49.375
-47.093
-44.718
-42.263
-39.749
-37.194
-34.619
-32.044
-29.49
-26.978
-24.53
-22.166
-19.902
-17.756
-15.746
-13.888
-12.202
-10.706
-9.415
-8.342
-7.501
-6.901
-6.556
-6.468
-6.634
-7.055
-7.729
-8.66
-9.866
-11.35
-13.114
-15.152
-17.457
-20.013
-22.802
-25.791
-28.926
-32.157
-35.432
-38.71
-41.964
-45.152
-48.224
-51.122
-53.773
-56.124
-58.141
-59.784
-61.029
-61.88
-62.36
-62.533
-62.5
-62.346
-62.16
-62.046
-62.102
-62.442
-63.15
-64.328
-66.122
-68.622
-71.842
-75.664
-79.756
-83.739
-87.313
-90.113
-91.64
-91.5
-89.476
-85.833
-81.46
-77.266
-73.836
-71.766
-71.848
-74.776
-80.895
-88.296
-92.875
-91.347
-81.844
-66.176
-48.213
-27.145
1.808
46.647
115.836
209.388
320.419
438.912
553.167
655.013
737.873
793.94
813.792
788.427
714.224
593.289
437.707
267.1
101.19
-38.979
-140.382
-201.411
-225.909
-225.731
-212.008
-191.463
-170.515
-151.264
-135.979
-125.478
-115.973
-105.311
-91.153
-74.213
-60.046
-51.613
-50.317
-55.738
-64.403
-74.32
-84.606
-93.853
-101.324
-106.563
-109.032
-108.88
-106.781
-103.208
-98.776
-94.474
-91.015
-88.793
-88.046
-88.651
-90.295
-92.751
-95.662
-98.52
-101.009
-102.952
-104.257
-104.989
-105.204
-104.908
-104.16
-103.045
-101.61
-99.894
-97.914
-95.66
-93.159
-90.463
-87.631
-84.73
-81.802
-78.866
-75.937
-73.018
-70.112
-67.213
-64.307
-61.373
-58.398
-55.372
-52.288
-49.139
-45.911
-42.586
-39.145
-35.571
-31.848
-27.968
-23.922
-19.706
-15.319
-10.761
-6.038
-1.155
3.88
9.063
14.385
19.838
25.414
31.098
36.879
42.741
48.668
54.641
60.641
66.645
72.632
78.58
84.464
90.259
95.941
101.483
106.861
112.047
117.015
121.74
126.196
130.359
134.205
137.712
140.859
143.627
146
147.962
149.501
150.607
151.27
151.485
151.249
150.559
149.418
147.828
145.796
143.328
140.435
137.13
133.427
129.344
124.898
120.11
115.003
109.599
103.925
98.005
91.868
85.541
79.055
72.437
65.719
58.93
52.1
45.257
38.43
31.646
24.932
18.312
11.81
5.449
-0.752
-6.772
-12.596
-18.206
-23.591
-28.737
-33.635
-38.277
-42.656
-46.767
-50.607
-54.176
-57.473
-60.5
-63.261
-65.76
-68.004
-70.001
-71.759
-73.288
-74.6
-75.706
-76.62
-77.353
-77.919
-78.331
-78.604
-78.75
-78.783
-78.715
-78.559
-78.326
-78.027
-77.673
-77.273
-76.837
-76.372
-75.886
-75.385
-74.875
-74.361
-73.847
-73.337
-72.834
-72.34
-71.856
-71.385
-70.926
-70.48
-70.045
-69.622
-69.208
-68.803
-68.404
-68.009
-67.616
-67.224
-66.83
-66.434
-66.033
-65.627
-65.214
-64.795
-64.37
-63.939
-63.504
-63.066
-62.627
-62.19
-61.758
-61.334
-60.922
-60.526
-60.15
-59.798
-59.475
-59.187
-58.936
-58.728
-58.568
-58.459
-58.406
-58.413
-58.483
-58.62
-58.827
-59.106
-59.459
-59.888
-60.393
-60.974
-61.63
-62.361
-63.163
-64.034
-64.97
-65.967
-67.019
-68.12
-69.265
-70.446
-71.655
-72.882
-74.121
-75.359
-76.588
-77.796
-78.973
-80.107
-81.187
-82.202
-83.142
-83.995
-84.75
-85.396
-85.924
-86.325
-86.589
-86.707
-86.671
-86.474
-86.109
-85.572
-84.859
-83.965
-82.891
-81.635
-80.198
-78.583
-76.793
-74.831
-72.702
-70.411
-67.966
-65.375
-62.653
-59.812
-56.871
-53.846
-50.757
-47.625
-44.47
-41.312
-38.171
-35.062
-32.001
-29.006
-26.096
-23.296
-20.625
-18.1
-15.735
-13.536
-11.515
-9.68
-8.04
-6.6
-5.358
-4.315
-3.478
-2.868
-2.506
-2.414
-2.59
-3.021
-3.708
-4.648
-5.857
-7.358
-9.13
-11.126
-13.293
-15.564
-17.9
-20.303
-22.701
-24.962
-27.026
-28.874
-30.635
-32.596
-34.832
-37.218
-39.634
-41.948
-44.018
-45.722
-46.628
-45.991
-43.542
-39.515
-34.431
-29.105
-24.282
-20.569
-18.841
-20.231
-25.209
-33.44
-44.017
-55.534
-66.633
-76.167
-83.005
-86.126
-85.218
-80.851
-74.316
-67.343
-61.593
-58.802
-59.099
-60.684
-62.026
-60.743
-57.184
-55.167
-53.694
-48.177
-29.287
16.52
93.681
198.277
321.21
449.169
574.882
694.021
798.727
878.655
918.523
904.969
835.683
717.516
565.399
398.129
231.356
78.892
-46.205
-134.397
-180.056
-182.874
-152.621
-105.09
-57.156
-26.175
-19.079
-32.599
-58.26
-81.439
-93.971
-95.855
-90.534
-85.724
-85.097
-87.43
-90.609
-91.682
-89.728
-85.784
-80.848
-75.794
-71.158
-67.203
-64.275
-62.607
-62.183
-62.866
-64.459
-66.804
-69.781
-73.235
-76.984
-80.848
-84.661
-88.278
-91.559
-94.384
-96.675
-98.383
-99.488
-99.992
-99.906
-99.265
-98.12
-96.524
-94.525
-92.167
-89.49
-86.549
-83.405
-80.128
-76.782
-73.414
-70.049
-66.704
-63.383
-60.084
-56.795
-53.496
-50.154
-46.748
-43.258
-39.67
-35.972
-32.146
-28.175
-24.042
-19.73
-15.228
-10.526
-5.617
-0.497
4.835
10.377
16.121
22.06
28.183
34.483
40.948
47.569
54.332
61.222
68.223
75.316
82.482
89.699
96.941
104.183
111.398
118.556
125.631
132.591
139.408
146.051
152.491
158.698
164.644
170.298
175.635
180.627
185.249
189.478
193.291
196.669
199.594
202.051
204.027
205.511
206.494
206.972
206.94
206.399
205.349
203.797
201.747
199.211
196.201
192.731
188.819
184.485
179.751
174.64
169.178
163.391
157.309
150.959
144.373
137.581
130.615
123.506
116.287
108.991
101.647
94.288
86.944
79.645
72.418
65.291
58.29
51.44
44.764
38.283
32.019
25.988
20.208
14.693
9.456
4.508
-0.143
-4.489
-8.527
-12.253
-15.666
-18.767
-21.558
-24.044
-26.231
-28.124
-29.733
-31.069
-32.14
-32.961
-33.544
-33.902
-34.051
-34.005
-33.78
-33.391
-32.855
-32.188
-31.405
-30.524
-29.559
-28.529
-27.447
-26.329
-25.19
-24.044
-22.905
-21.784
-20.695
-19.647
-18.651
-17.716
-16.851
-16.062
-15.357
-14.74
-14.217
-13.79
-13.463
-13.237
-13.113
-13.092
-13.171
-13.352
-13.63
-14.004
-14.47
-15.026
-15.666
-16.387
-17.183
-18.048
-18.976
-19.962
-20.999
-22.08
-23.198
-24.348
-25.521
-26.712
-27.914
-29.122
-30.329
-31.53
-32.72
-33.893
-35.045
-36.172
-37.27
-38.336
-39.367
-40.36
-41.314
-42.225
-43.093
-43.916
-44.692
-45.42
-46.099
-46.727
-47.303
-47.827
-48.299
-48.716
-49.079
-49.389
-49.643
-49.843
-49.987
-50.074
-50.105
-50.078
-49.992
-49.846
-49.638
-49.365
-49.027
-48.62
-48.143
-47.592
-46.965
-46.257
-45.467
-44.59
-43.622
-42.562
-41.405
-40.149
-38.793
-37.334
-35.773
-34.107
-32.337
-30.465
-28.491
-26.42
-24.252
-21.991
-19.644
-17.215
-14.711
-12.141
-9.513
-6.836
-4.124
-1.39
1.351
4.085
6.794
9.463
12.072
14.605
17.046
19.376
21.581
23.643
25.546
27.271
28.802
30.122
31.218
32.075
32.681
33.027
33.108
32.925
32.474
31.752
30.747
29.451
27.864
25.985
23.818
21.374
18.672
15.741
12.628
9.382
6.049
2.673
-0.714
-4.077
-7.367
-10.529
-13.499
-16.217
-18.641
-20.737
-22.456
-23.781
-24.738
-25.388
-25.846
-26.225
-26.583
-26.986
-27.53
-28.307
-29.436
-31.031
-33.127
-35.8
-39.219
-43.446
-48.444
-54.026
-59.704
-64.946
-69.349
-72.391
-73.404
-72.002
-68.13
-62.106
-54.866
-47.543
-41.064
-36.457
-35.218
-37.374
-40.655
-42.587
-40.056
-32.178
-23.125
-15.259
-5.826
12.021
51.3
123.459
229.167
362.895
513.168
664.116
804.414
922.077
1003.545
1037.309
1011.853
922.909
774.454
580.403
365.381
155.708
-20.86
-146.14
-217.815
-241.888
-235.194
-213.668
-185.999
-159.748
-136.377
-116.942
-102.727
-90.533
-78.898
-66.466
-53.834
-45.571
-43.846
-49.292
-60.553
-73.568
-85.865
-96.006
-102.921
-106.857
-108.047
-106.621
-103.348
-99.094
-94.635
-90.968
-88.793
-88.333
-89.67
-92.655
-96.944
-102.219
-108.086
-114.019
-119.621
-124.677
-129.059
-132.775
-135.858
-138.291
-140.094
-141.326
-142.035
-142.263
-142.041
-141.37
-140.268
-138.786
-136.987
-134.948
-132.741
-130.407
-127.972
-125.451
-122.847
-120.163
-117.391
-114.513
-111.504
-108.346
-105.024
-101.529
-97.851
-93.976
-89.884
-85.557
-80.979
-76.141
-71.04
-65.672
-60.04
-54.147
-48.003
-41.621
-35.018
-28.208
-21.207
-14.032
-6.7
0.768
8.351
16.025
23.766
31.547
39.341
47.118
54.848
62.498
70.038
77.437
84.662
91.681
98.464
104.98
111.199
117.091
122.629
127.785
132.534
136.853
140.72
144.115
147.021
149.424
151.312
152.678
153.513
153.816
153.586
152.824
151.537
149.731
147.418
144.61
141.323
137.575
133.387
128.783
123.786
118.424
112.725
106.718
100.434
93.905
87.163
80.242
73.173
65.99
58.728
51.419
44.096
36.79
29.532
22.353
15.28
8.339
1.557
-5.044
-11.443
-17.62
-23.557
-29.239
-34.652
-39.786
-44.631
-49.18
-53.428
-57.373
-61.013
-64.349
-67.384
-70.121
-72.566
-74.725
-76.606
-78.219
-79.574
-80.681
-81.552
-82.2
-82.638
-82.879
-82.937
-82.825
-82.556
-82.146
-81.605
-80.948
-80.186
-79.332
-78.396
-77.389
-76.322
-75.203
-74.041
-72.843
-71.616
-70.365
-69.096
-67.812
-66.518
-65.216
-63.91
-62.6
-61.29
-59.979
-58.671
-57.364
-56.061
-54.762
-53.468
-52.178
-50.894
-49.617
-48.347
-47.086
-45.836
-44.598
-43.375
-42.169
-40.982
-39.819
-38.682
-37.575
-36.502
-35.468
-34.477
-33.534
-32.645
-31.816
-31.052
-30.359
-29.744
-29.213
-28.771
-28.423
-28.176
-28.034
-28.002
-28.084
-28.282
-28.601
-29.043
-29.608
-30.298
-31.112
-32.05
-33.11
-34.288
-35.58
-36.982
-38.488
-40.093
-41.788
-43.565
-45.416
-47.332
-49.302
-51.317
-53.364
-55.432
-57.508
-59.579
-61.633
-63.655
-65.632
-67.548
-69.39
-71.144
-72.796
-74.332
-75.739
-77.004
-78.115
-79.061
-79.83
-80.413
-80.801
-80.986
-80.962
-80.723
-80.266
-79.588
-78.688
-77.567
-76.227
-74.671
-72.903
-70.931
-68.76
-66.398
-63.856
-61.144
-58.275
-55.263
-52.123
-48.874
-45.536
-42.132
-38.684
-35.217
-31.754
-28.32
-24.942
-21.641
-18.438
-15.354
-12.41
-9.628
-7.032
-4.64
-2.472
-0.543
1.131
2.537
3.663
4.503
5.059
5.33
5.313
4.998
4.362
3.391
2.082
0.435
-1.546
-3.854
-6.474
-9.375
-12.5
-15.793
-19.201
-22.677
-26.189
-29.689
-33.114
-36.387
-39.421
-42.138
-44.491
-46.442
-47.947
-49
-49.611
-49.823
-49.751
-49.526
-49.264
-49.108
-49.196
-49.631
-50.572
-52.238
-54.768
-58.229
-62.556
-67.418
-72.435
-77.322
-81.689
-85.013
-86.893
-87.049
-85.594
-83.416
-81.624
-81.028
-82.298
-86.209
-93.312
-103.679
-116.738
-129.379
-136.595
-135.649
-124.776
-103.569
-74.793
-35.22
21.299
96.944
195.509
312.352
436.471
563.066
684.975
795.973
890.816
955.779
976.191
941.969
849.372
703.946
521.904
325.267
137.097
-18.031
-125.77
-184.67
-201.24
-192.025
-170.825
-145.22
-121.639
-101.252
-86.61
-79.878
-77.638
-77.511
-76.305
-73.042
-71.931
-74.926
-82.157
-92.075
-100.839
-106.708
-109.825
-110.407
-108.883
-105.61
-100.902
-95.658
-91.073
-87.749
-85.77
-85.127
-85.817
-87.819
-91.076
-95.272
-99.84
-104.395
-108.696
-112.551
-115.878
-118.591
-120.588
-121.859
-122.45
-122.399
-121.759
-120.581
-118.879
-116.69
-114.06
-111.035
-107.684
-104.084
-100.306
-96.429
-92.505
-88.564
-84.635
-80.732
-76.859
-73.014
-69.177
-65.322
-61.433
-57.498
-53.505
-49.444
-45.295
-41.038
-36.657
-32.138
-27.47
-22.646
-17.658
-12.501
-7.175
-1.684
3.967
9.768
15.714
21.796
28.007
34.335
40.769
47.295
53.899
60.565
67.275
74.008
80.741
87.452
94.115
100.704
107.194
113.556
119.764
125.789
131.603
137.18
142.492
147.512
152.214
156.574
160.568
164.175
167.373
170.145
172.473
174.344
175.745
176.667
177.102
177.046
176.496
175.453
173.92
171.902
169.408
166.447
163.033
159.183
154.913
150.245
145.202
139.807
134.086
128.069
121.783
115.258
108.526
101.618
94.565
87.4
80.156
72.863
65.555
58.261
51.012
43.837
36.764
29.819
23.028
16.413
9.997
3.798
-2.164
-7.875
-13.319
-18.485
-23.363
-27.944
-32.223
-36.195
-39.859
-43.213
-46.26
-49.002
-51.445
-53.595
-55.46
-57.049
-58.373
-59.442
-60.269
-60.867
-61.251
-61.435
-61.434
-61.262
-60.937
-60.472
-59.883
-59.185
-58.393
-57.52
-56.579
-55.584
-54.547
-53.479
-52.39
-51.291
-50.191
-49.098
-48.02
-46.964
-45.935
-44.94
-43.981
-43.064
-42.191
-41.364
-40.587
-39.859
-39.183
-38.558
-37.985
-37.462
-36.988
-36.562
-36.183
-35.848
-35.555
-35.302
-35.087
-34.909
-34.765
-34.654
-34.575
-34.527
-34.508
-34.518
-34.557
-34.623
-34.718
-34.84
-34.991
-35.169
-35.377
-35.615
-35.883
-36.182
-36.512
-36.875
-37.27
-37.698
-38.159
-38.653
-39.18
-39.741
-40.336
-40.963
-41.624
-42.318
-43.044
-43.8
-44.584
-45.396
-46.231
-47.087
-47.96
-48.846
-49.742
-50.642
-51.542
-52.437
-53.32
-54.187
-55.031
-55.845
-56.623
-57.357
-58.04
-58.665
-59.225
-59.713
-60.122
-60.446
-60.678
-60.811
-60.839
-60.756
-60.557
-60.236
-59.788
-59.208
-58.493
-57.64
-56.647
-55.514
-54.239
-52.823
-51.269
-49.578
-47.754
-45.802
-43.727
-41.534
-39.233
-36.831
-34.338
-31.766
-29.126
-26.434
-23.706
-20.959
-18.211
-15.481
-12.787
-10.149
-7.587
-5.118
-2.759
-0.527
1.561
3.487
5.232
6.779
8.113
9.22
10.086
10.698
11.048
11.133
10.955
10.512
9.802
8.809
7.522
5.938
4.055
1.875
-0.591
-3.329
-6.313
-9.494
-12.822
-16.246
-19.721
-23.218
-26.704
-30.129
-33.437
-36.557
-39.418
-41.977
-44.19
-46.013
-47.437
-48.481
-49.203
-49.717
-50.122
-50.504
-50.948
-51.524
-52.315
-53.422
-54.921
-56.948
-59.7
-63.274
-67.723
-73.002
-78.793
-84.696
-90.275
-94.839
-97.623
-98.134
-96.007
-91.261
-84.771
-77.702
-71.237
-67.088
-66.057
-67.217
-69.865
-72.748
-75.75
-82.377
-93.793
-106.513
-111.866
-94.115
-40.686
50.401
172.478
311.06
452.609
592.294
727.898
854.092
960.114
1026.481
1033.948
974.878
851.682
679.704
483.317
285.003
107.981
-30.152
-123.447
-172.303
-186.243
-179.079
-159.187
-133.37
-107.265
-83.378
-66.917
-60.242
-59.493
-61.732
-63.227
-63.203
-65.569
-71.739
-81.469
-92.73
-101.879
-107.572
-109.74
-108.431
-104.491
-98.618
-91.581
-84.796
-79.168
-74.967
-72.356
-71.328
-71.812
-73.767
-76.909
-80.669
-84.655
-88.64
-92.434
-95.943
-99.023
-101.506
-103.336
-104.529
-105.1
-105.064
-104.431
-103.198
-101.403
-99.106
-96.359
-93.223
-89.751
-86.001
-82.042
-77.941
-73.764
-69.56
-65.359
-61.178
-57.027
-52.905
-48.806
-44.714
-40.607
-36.468
-32.282
-28.031
-23.704
-19.287
-14.764
-10.124
-5.356
-0.451
4.596
9.789
15.127
20.607
26.224
31.971
37.836
43.811
49.883
56.042
62.275
68.568
74.907
81.275
87.654
94.024
100.363
106.65
112.859
118.967
124.948
130.777
136.428
141.877
147.097
152.064
156.754
161.143
165.208
168.927
172.28
175.249
177.815
179.964
181.684
182.961
183.789
184.161
184.072
183.521
182.507
181.035
179.109
176.736
173.928
170.696
167.056
163.024
158.619
153.864
148.78
143.393
137.728
131.812
125.673
119.339
112.839
106.204
99.462
92.643
85.777
78.893
72.019
65.184
58.413
51.733
45.168
38.741
32.472
26.383
20.49
14.812
9.362
4.154
-0.802
-5.495
-9.918
-14.067
-17.937
-21.527
-24.838
-27.871
-30.63
-33.12
-35.348
-37.32
-39.047
-40.537
-41.802
-42.853
-43.703
-44.364
-44.851
-45.177
-45.356
-45.403
-45.33
-45.153
-44.884
-44.537
-44.125
-43.66
-43.153
-42.616
-42.06
-41.495
-40.929
-40.372
-39.83
-39.31
-38.817
-38.356
-37.931
-37.545
-37.199
-36.895
-36.633
-36.414
-36.237
-36.1
-36.002
-35.941
-35.913
-35.916
-35.946
-36
-36.075
-36.166
-36.271
-36.386
-36.509
-36.635
-36.763
-36.89
-37.014
-37.134
-37.246
-37.351
-37.448
-37.536
-37.616
-37.688
-37.754
-37.816
-37.875
-37.935
-37.998
-38.068
-38.148
-38.243
-38.356
-38.491
-38.654
-38.849
-39.08
-39.352
-39.67
-40.038
-40.461
-40.94
-41.48
-42.083
-42.75
-43.484
-44.285
-45.152
-46.085
-47.084
-48.145
-49.266
-50.444
-51.673
-52.95
-54.266
-55.616
-56.992
-58.384
-59.784
-61.182
-62.568
-63.931
-65.26
-66.544
-67.772
-68.93
-70.007
-70.991
-71.869
-72.629
-73.26
-73.751
-74.091
-74.27
-74.28
-74.113
-73.763
-73.223
-72.49
-71.561
-70.434
-69.109
-67.588
-65.873
-63.97
-61.886
-59.628
-57.208
-54.64
-51.939
-49.122
-46.209
-43.219
-40.173
-37.094
-34.005
-30.925
-27.876
-24.88
-21.957
-19.134
-16.435
-13.884
-11.504
-9.317
-7.343
-5.601
-4.109
-2.874
-1.905
-1.209
-0.798
-0.694
-0.918
-1.482
-2.396
-3.664
-5.28
-7.233
-9.502
-12.044
-14.814
-17.767
-20.861
-24.066
-27.351
-30.673
-33.973
-37.18
-40.22
-43.036
-45.574
-47.785
-49.659
-51.207
-52.481
-53.578
-54.573
-55.545
-56.587
-57.803
-59.309
-61.22
-63.609
-66.596
-70.396
-75.156
-80.904
-87.442
-94.275
-100.912
-106.959
-111.894
-115.079
-116.005
-114.462
-111.024
-106.979
-103.48
-101.556
-102.287
-106.621
-115.39
-127.606
-139.492
-146.922
-147.113
-140.792
-131.013
-117.103
-92.162
-44.592
34.394
145.006
277.604
416.775
553.451
683.383
802.044
903.802
972.57
989.2
945.863
842.98
691.699
513.097
324.495
143.085
-10.54
-123.486
-189.991
-212.663
-207.938
-193.567
-178.872
-167.289
-155.257
-137.138
-113.874
-89.845
-69.28
-56.22
-51.776
-54.571
-62.857
-74.56
-87.263
-98.67
-107.549
-113.361
-115.743
-114.956
-111.523
-106.014
-99.599
-93.706
-89.088
-86.124
-85.082
-85.822
-88.169
-91.982
-96.789
-101.996
-107.226
-112.164
-116.569
-120.392
-123.558
-125.986
-127.701
-128.727
-129.079
-128.807
-127.94
-126.491
-124.501
-122.014
-119.077
-115.764
-112.148
-108.303
-104.305
-100.203
-96.03
-91.81
-87.556
-83.274
-78.968
-74.621
-70.214
-65.734
-61.17
-56.514
-51.757
-46.885
-41.879
-36.729
-31.425
-25.962
-20.338
-14.553
-8.607
-2.508
3.735
10.111
16.606
23.206
29.899
36.671
43.508
50.393
57.308
64.237
71.159
78.054
84.9
91.672
98.346
104.897
111.3
117.529
123.559
129.362
134.915
140.193
145.171
149.827
154.136
158.078
161.633
164.783
167.511
169.802
171.644
173.027
173.942
174.385
174.352
173.843
172.858
171.402
169.481
167.103
164.28
161.025
157.352
153.28
148.828
144.019
138.875
133.422
127.685
121.692
115.472
109.052
102.463
95.733
88.894
81.973
75.002
68.01
61.025
54.076
47.189
40.391
33.706
27.158
20.768
14.556
8.542
2.741
-2.83
-8.158
-13.231
-18.04
-22.576
-26.834
-30.809
-34.5
-37.905
-41.027
-43.868
-46.432
-48.725
-50.753
-52.524
-54.048
-55.333
-56.39
-57.23
-57.866
-58.309
-58.574
-58.671
-58.616
-58.422
-58.101
-57.668
-57.134
-56.514
-55.82
-55.065
-54.261
-53.419
-52.553
-51.671
-50.784
-49.903
-49.034
-48.185
-47.364
-46.576
-45.827
-45.119
-44.459
-43.848
-43.289
-42.785
-42.337
-41.946
-41.613
-41.338
-41.121
-40.962
-40.859
-40.813
-40.822
-40.885
-41.001
-41.169
-41.387
-41.653
-41.965
-42.321
-42.717
-43.15
-43.619
-44.119
-44.649
-45.204
-45.783
-46.385
-47.006
-47.645
-48.302
-48.973
-49.659
-50.357
-51.068
-51.79
-52.522
-53.263
-54.014
-54.773
-55.539
-56.312
-57.089
-57.869
-58.65
-59.428
-60.201
-60.966
-61.719
-62.456
-63.175
-63.872
-64.543
-65.186
-65.796
-66.369
-66.902
-67.39
-67.827
-68.209
-68.529
-68.783
-68.965
-69.069
-69.089
-69.02
-68.854
-68.586
-68.21
-67.719
-67.107
-66.368
-65.497
-64.49
-63.342
-62.053
-60.62
-59.042
-57.32
-55.454
-53.448
-51.304
-49.025
-46.618
-44.087
-41.441
-38.688
-35.839
-32.906
-29.902
-26.842
-23.741
-20.615
-17.485
-14.371
-11.295
-8.281
-5.351
-2.525
0.174
2.724
5.105
7.296
9.278
11.035
12.546
13.794
14.755
15.415
15.764
15.801
15.534
14.963
14.087
12.898
11.391
9.567
7.428
4.974
2.203
-0.874
-4.238
-7.838
-11.611
-15.507
-19.488
-23.543
-27.683
-31.886
-36.094
-40.232
-44.211
-47.971
-51.498
-54.727
-57.568
-60.023
-62.174
-64.269
-66.704
-69.679
-73.174
-77.142
-81.485
-86.054
-90.722
-95.072
-98.41
-100.464
-101.355
-101.344
-100.867
-100.223
-99.492
-99.032
-99.438
-100.782
-102.781
-105.146
-107.46
-109.529
-111.639
-114
-116.616
-120.223
-124.569
-127.12
-125.636
-117.974
-104.289
-90.117
-79.277
-69.623
-53.525
-15.881
57.012
167.252
308.974
468.752
628.992
778.048
904.281
994.558
1038.01
1022.949
945.324
810.777
632.168
430.093
226.449
42.721
-103.826
-203.919
-256.538
-268.192
-249.11
-211.394
-165.599
-122.485
-90.904
-73.209
-68.133
-68.432
-66.658
-61.63
-55.401
-52.927
-57.442
-67.508
-79.498
-89.655
-96.115
-98.52
-97.255
-93.165
-86.91
-79.541
-72.591
-66.933
-62.947
-60.932
-60.785
-62.356
-65.562
-69.943
-74.851
-79.858
-84.632
-88.923
-92.684
-95.841
-98.295
-100.062
-101.178
-101.665
-101.577
-100.946
-99.779
-98.113
-95.991
-93.455
-90.582
-87.446
-84.121
-80.685
-77.191
-73.669
-70.145
-66.631
-63.131
-59.641
-56.14
-52.604
-49.013
-45.352
-41.606
-37.762
-33.799
-29.697
-25.438
-21.006
-16.392
-11.589
-6.59
-1.392
4.002
9.588
15.359
21.301
27.407
33.665
40.065
46.593
53.236
59.977
66.8
73.686
80.616
87.567
94.515
101.434
108.298
115.081
121.754
128.288
134.656
140.828
146.776
152.473
157.891
163.003
167.784
172.21
176.258
179.908
183.138
185.933
188.276
190.156
191.56
192.483
192.916
192.858
192.307
191.265
189.736
187.725
185.241
182.294
178.898
175.068
170.821
166.178
161.159
155.789
150.092
144.094
137.824
131.309
124.579
117.664
110.593
103.396
96.105
88.749
81.357
73.959
66.584
59.258
52.007
44.857
37.831
30.952
24.24
17.714
11.392
5.29
-0.577
-6.197
-11.558
-16.651
-21.466
-25.999
-30.244
-34.199
-37.862
-41.233
-44.314
-47.109
-49.621
-51.857
-53.823
-55.528
-56.981
-58.191
-59.17
-59.929
-60.48
-60.835
-61.008
-61.013
-60.861
-60.568
-60.147
-59.61
-58.971
-58.243
-57.439
-56.571
-55.652
-54.693
-53.706
-52.701
-51.69
-50.681
-49.685
-48.71
-47.764
-46.854
-45.988
-45.172
-44.41
-43.709
-43.072
-42.503
-42.005
-41.58
-41.231
-40.958
-40.763
-40.644
-40.602
-40.636
-40.744
-40.925
-41.176
-41.495
-41.879
-42.325
-42.83
-43.391
-44.004
-44.667
-45.374
-46.123
-46.91
-47.731
-48.583
-49.461
-50.363
-51.284
-52.222
-53.171
-54.13
-55.094
-56.06
-57.023
-57.981
-58.93
-59.866
-60.786
-61.686
-62.562
-63.411
-64.231
-65.018
-65.769
-66.482
-67.153
-67.779
-68.357
-68.886
-69.359
-69.775
-70.13
-70.419
-70.64
-70.788
-70.859
-70.85
-70.756
-70.573
-70.297
-69.925
-69.453
-68.876
-68.191
-67.396
-66.488
-65.467
-64.331
-63.078
-61.711
-60.23
-58.639
-56.939
-55.132
-53.224
-51.217
-49.119
-46.934
-44.672
-42.339
-39.945
-37.504
-35.031
-32.539
-30.044
-27.564
-25.113
-22.709
-20.37
-18.112
-15.952
-13.906
-11.992
-10.227
-8.633
-7.228
-6.027
-5.045
-4.291
-3.775
-3.506
-3.485
-3.712
-4.191
-4.925
-5.924
-7.197
-8.746
-10.57
-12.668
-15.025
-17.62
-20.429
-23.406
-26.513
-29.714
-32.971
-36.258
-39.542
-42.764
-45.876
-48.829
-51.571
-54.085
-56.33
-58.232
-59.777
-60.982
-61.9
-62.652
-63.288
-63.763
-64.186
-64.777
-65.757
-67.433
-69.886
-72.972
-76.811
-81.592
-87.146
-93.014
-98.353
-102.041
-103.575
-102.968
-99.882
-94.061
-85.785
-75.95
-66.487
-59.779
-57.24
-59.383
-66.712
-79.317
-96.429
-115.967
-134.029
-145.874
-147.135
-134.124
-103.547
-52.284
20.428
111.379
215.408
325.749
438.11
554.847
676.472
798.17
908.611
983.876
1001.036
948.917
826.351
650.571
448.78
245.232
64.372
-77.958
-177.383
-233.65
-253.835
-248.659
-225.137
-190.526
-152.497
-115.64
-85.743
-65.878
-52.884
-44.569
-38.459
-33.83
-34.26
-40.887
-52.991
-68.297
-82.476
-93.165
-99.497
-101.27
-99.316
-94.473
-87.599
-80.03
-73.053
-67.436
-63.676
-61.922
-62.032
-63.832
-67.011
-71.083
-75.505
-79.876
-83.92
-87.463
-90.454
-92.844
-94.598
-95.734
-96.291
-96.305
-95.806
-94.822
-93.366
-91.463
-89.157
-86.491
-83.529
-80.338
-76.98
-73.517
-69.994
-66.439
-62.873
-59.308
-55.746
-52.183
-48.603
-44.987
-41.319
-37.585
-33.772
-29.866
-25.85
-21.707
-17.423
-12.985
-8.386
-3.62
1.317
6.426
11.704
17.146
22.744
28.487
34.366
40.369
46.484
52.698
58.995
65.359
71.773
78.219
84.676
91.124
97.54
103.899
110.177
116.349
122.389
128.269
133.964
139.446
144.689
149.667
154.353
158.724
162.754
166.422
169.706
172.585
175.043
177.062
178.629
179.733
180.365
180.517
180.187
179.373
178.076
176.301
174.054
171.343
168.18
164.578
160.554
156.124
151.31
146.133
140.617
134.788
128.673
122.3
115.698
108.898
101.931
94.828
87.62
80.34
73.019
65.688
58.378
51.119
43.939
36.867
29.928
23.148
16.55
10.154
3.98
-1.955
-7.635
-13.047
-18.18
-23.025
-27.573
-31.821
-35.765
-39.402
-42.735
-45.763
-48.493
-50.929
-53.078
-54.949
-56.551
-57.896
-58.995
-59.86
-60.506
-60.945
-61.194
-61.266
-61.176
-60.941
-60.574
-60.092
-59.508
-58.837
-58.093
-57.288
-56.435
-55.545
-54.63
-53.701
-52.765
-51.833
-50.911
-50.008
-49.13
-48.282
-47.468
-46.694
-45.96
-45.271
-44.628
-44.032
-43.484
-42.983
-42.531
-42.126
-41.768
-41.456
-41.189
-40.965
-40.783
-40.642
-40.541
-40.478
-40.453
-40.465
-40.512
-40.595
-40.713
-40.865
-41.051
-41.269
-41.52
-41.802
-42.115
-42.459
-42.831
-43.232
-43.66
-44.115
-44.595
-45.099
-45.626
-46.173
-46.74
-47.324
-47.923
-48.535
-49.155
-49.781
-50.41
-51.036
-51.655
-52.262
-52.851
-53.415
-53.947
-54.441
-54.89
-55.287
-55.624
-55.894
-56.089
-56.204
-56.232
-56.167
-56.002
-55.733
-55.355
-54.863
-54.255
-53.528
-52.679
-51.707
-50.611
-49.392
-48.052
-46.591
-45.013
-43.322
-41.524
-39.624
-37.63
-35.552
-33.4
-31.187
-28.928
-26.638
-24.336
-22.038
-19.763
-17.53
-15.358
-13.265
-11.268
-9.383
-7.627
-6.017
-4.571
-3.307
-2.24
-1.385
-0.755
-0.365
-0.224
-0.334
-0.698
-1.318
-2.198
-3.353
-4.792
-6.519
-8.535
-10.837
-13.417
-16.257
-19.329
-22.585
-25.976
-29.457
-32.983
-36.529
-40.061
-43.535
-46.903
-50.099
-53.065
-55.765
-58.166
-60.223
-61.92
-63.281
-64.367
-65.297
-66.183
-67.085
-68.063
-69.191
-70.556
-72.27
-74.438
-77.112
-80.36
-84.322
-89.076
-94.58
-100.601
-106.628
-112.076
-116.484
-119.373
-120.122
-118.344
-114.083
-107.861
-100.897
-94.425
-89.311
-86.448
-86.934
-91.555
-98.952
-105.708
-108.022
-101.766
-87.109
-68.277
-44.901
-15.514
25.136
89.504
181.117
298.612
437.655
581.649
715.988
826.811
898.002
920.876
889.612
803.724
669.252
497.878
308.936
123.519
-34.485
-146.673
-209.75
-229.315
-221.819
-206.537
-191.569
-178.925
-165.353
-144.868
-118.295
-90.208
-65.171
-47.838
-39.736
-39.697
-46.177
-57.07
-70.134
-83.308
-94.786
-103.417
-108.516
-109.969
-108.129
-103.598
-97.301
-90.43
-84.12
-79.102
-75.845
-74.493
-74.911
-76.92
-80.212
-84.329
-88.769
-93.134
-97.124
-100.591
-103.513
-105.862
-107.629
-108.827
-109.484
-109.643
-109.342
-108.599
-107.422
-105.825
-103.836
-101.505
-98.9
-96.086
-93.13
-90.07
-86.932
-83.731
-80.475
-77.165
-73.797
-70.352
-66.804
-63.136
-59.332
-55.381
-51.271
-46.982
-42.494
-37.788
-32.85
-27.671
-22.248
-16.575
-10.654
-4.487
1.917
8.547
15.388
22.426
29.648
37.037
44.575
52.243
60.017
67.876
75.795
83.747
91.703
99.634
107.507
115.29
122.951
130.457
137.774
144.867
151.705
158.253
164.481
170.356
175.849
180.932
185.577
189.761
193.46
196.655
199.328
201.463
203.049
204.076
204.538
204.431
203.754
202.51
200.706
198.348
195.449
192.024
188.088
183.662
178.768
173.431
167.678
161.538
155.042
148.222
141.111
133.745
126.159
118.389
110.471
102.44
94.335
86.188
78.036
69.911
61.846
53.874
46.022
38.321
30.795
23.47
16.369
9.511
2.916
-3.401
-9.425
-15.145
-20.552
-25.637
-30.396
-34.826
-38.925
-42.694
-46.136
-49.256
-52.059
-54.554
-56.75
-58.658
-60.288
-61.654
-62.768
-63.645
-64.299
-64.743
-64.994
-65.064
-64.97
-64.726
-64.345
-63.843
-63.233
-62.527
-61.739
-60.881
-59.964
-59
-57.997
-56.967
-55.917
-54.857
-53.793
-52.733
-51.683
-50.648
-49.634
-48.646
-47.686
-46.759
-45.867
-45.013
-44.2
-43.429
-42.702
-42.021
-41.387
-40.802
-40.266
-39.782
-39.35
-38.972
-38.649
-38.382
-38.171
-38.019
-37.926
-37.892
-37.918
-38.006
-38.154
-38.364
-38.634
-38.966
-39.357
-39.808
-40.317
-40.882
-41.501
-42.172
-42.892
-43.657
-44.463
-45.306
-46.182
-47.084
-48.006
-48.944
-49.89
-50.837
-51.778
-52.706
-53.612
-54.488
-55.327
-56.118
-56.854
-57.526
-58.125
-58.643
-59.072
-59.404
-59.631
-59.747
-59.744
-59.616
-59.357
-58.962
-58.426
-57.746
-56.919
-55.944
-54.82
-53.548
-52.128
-50.564
-48.86
-47.021
-45.053
-42.964
-40.762
-38.457
-36.061
-33.584
-31.04
-28.44
-25.8
-23.137
-20.471
-17.824
-15.216
-12.671
-10.21
-7.855
-5.627
-3.542
-1.614
0.144
1.718
3.093
4.253
5.183
5.867
6.299
6.474
6.392
6.061
5.495
4.704
3.699
2.481
1.04
-0.636
-2.555
-4.723
-7.143
-9.804
-12.682
-15.745
-18.948
-22.262
-25.676
-29.186
-32.773
-36.4
-40.003
-43.495
-46.814
-49.872
-52.55
-54.806
-56.656
-58.19
-59.669
-61.329
-63.217
-65.373
-67.806
-70.276
-72.547
-74.286
-74.844
-73.849
-71.428
-67.795
-63.334
-58.704
-54.328
-50.704
-48.693
-48.667
-50.42
-53.629
-57.845
-62.772
-68.568
-75.27
-82.72
-91.036
-100.528
-111.758
-123.74
-133.337
-137.551
-133.037
-119.874
-102.5
-81.282
-54.481
-16.036
46.605
137.883
257.038
398.957
548.361
693.276
819.882
910.926
956.345
946.359
880.527
768.63
619.554
448.34
269.193
95.704
-51.702
-159.381
-221.138
-238.481
-225.911
-197.05
-162.103
-130.263
-103.686
-84.657
-74.198
-68.062
-64.108
-59.986
-55.393
-54.428
-58.74
-68.29
-81.602
-94.941
-106.039
-114.186
-118.932
-120.599
-119.641
-116.448
-111.806
-106.665
-101.91
-98.115
-95.637
-94.646
-95.071
-96.768
-99.479
-102.805
-106.297
-109.606
-112.476
-114.761
-116.439
-117.495
-117.926
-117.762
-117.047
-115.836
-114.178
-112.105
-109.633
-106.781
-103.585
-100.1
-96.395
-92.54
-88.6
-84.618
-80.624
-76.639
-72.675
-68.736
-64.822
-60.917
-56.999
-53.056
-49.074
-45.044
-40.955
-36.79
-32.529
-28.155
-23.654
-19.015
-14.23
-9.294
-4.201
1.049
6.454
12.009
17.707
23.54
29.501
35.583
41.774
48.063
54.435
60.876
67.368
73.894
80.432
86.96
93.454
99.889
106.24
112.481
118.583
124.52
130.264
135.788
141.065
146.069
150.773
155.154
159.187
162.85
166.124
168.989
171.427
173.425
174.969
176.049
176.657
176.788
176.438
175.607
174.297
172.512
170.259
167.548
164.391
160.802
156.798
152.398
147.623
142.498
137.045
131.293
125.268
118.999
112.515
105.847
99.025
92.079
85.039
77.937
70.802
63.662
56.548
49.485
42.5
35.618
28.864
22.258
15.822
9.574
3.532
-2.289
-7.876
-13.216
-18.3
-23.119
-27.667
-31.94
-35.934
-39.65
-43.087
-46.249
-49.14
-51.764
-54.128
-56.241
-58.111
-59.748
-61.161
-62.363
-63.365
-64.179
-64.817
-65.291
-65.615
-65.799
-65.858
-65.802
-65.644
-65.394
-65.064
-64.665
-64.206
-63.698
-63.149
-62.568
-61.963
-61.343
-60.714
-60.082
-59.454
-58.835
-58.229
-57.641
-57.075
-56.534
-56.019
-55.534
-55.08
-54.658
-54.27
-53.917
-53.599
-53.316
-53.07
-52.86
-52.686
-52.55
-52.45
-52.387
-52.362
-52.373
-52.421
-52.507
-52.63
-52.789
-52.984
-53.215
-53.481
-53.78
-54.111
-54.472
-54.861
-55.276
-55.713
-56.17
-56.644
-57.131
-57.627
-58.13
-58.634
-59.136
-59.63
-60.112
-60.577
-61.019
-61.432
-61.809
-62.144
-62.432
-62.665
-62.837
-62.941
-62.97
-62.918
-62.778
-62.543
-62.208
-61.765
-61.209
-60.536
-59.742
-58.823
-57.776
-56.601
-55.297
-53.863
-52.302
-50.616
-48.808
-46.882
-44.843
-42.698
-40.454
-38.12
-35.706
-33.222
-30.681
-28.099
-25.493
-22.879
-20.276
-17.702
-15.178
-12.723
-10.357
-8.098
-5.962
-3.966
-2.129
-0.469
0.993
2.24
3.258
4.029
4.541
4.784
4.748
4.435
3.846
2.982
1.839
0.404
-1.334
-3.379
-5.731
-8.387
-11.333
-14.549
-18.005
-21.648
-25.426
-29.287
-33.186
-37.09
-40.964
-44.761
-48.424
-51.88
-55.057
-57.9
-60.356
-62.381
-63.964
-65.12
-65.902
-66.414
-66.738
-66.957
-67.167
-67.46
-67.953
-68.775
-70.031
-71.866
-74.499
-78.053
-82.544
-87.807
-93.361
-98.653
-103.169
-106.272
-107.285
-105.762
-101.563
-95.207
-88.011
-81.45
-76.862
-75.472
-78.201
-85.494
-97.051
-111.03
-124.113
-132.443
-131.813
-118.167
-88.004
-38.026
32.902
122.026
224.784
335.362
449.576
567.489
688.226
807.151
913.821
991.808
1023.915
998.027
911.192
768.123
584.181
382.795
188.174
26.292
-87.011
-151.433
-174.423
-171.325
-155.879
-133.721
-109.507
-88.378
-75.161
-74.582
-86.236
-102.415
-115.252
-120.541
-118.597
-114.616
-112.537
-112.542
-112.911
-111.123
-106.29
-99.326
-91.459
-83.713
-76.625
-70.534
-65.869
-62.893
-61.605
-61.824
-63.261
-65.698
-68.99
-72.946
-77.346
-81.955
-86.544
-90.921
-94.915
-98.391
-101.255
-103.441
-104.917
-105.68
-105.752
-105.178
-104.024
-102.351
-100.218
-97.68
-94.792
-91.624
-88.255
-84.764
-81.225
-77.688
-74.181
-70.72
-67.311
-63.944
-60.605
-57.262
-53.883
-50.438
-46.906
-43.271
-39.515
-35.622
-31.571
-27.343
-22.925
-18.303
-13.471
-8.423
-3.158
2.322
8.012
13.9
19.974
26.222
32.632
39.189
45.881
52.692
59.603
66.595
73.648
80.739
87.842
94.93
101.974
108.944
115.809
122.538
129.098
135.458
141.587
147.453
153.026
158.275
163.172
167.689
171.801
175.482
178.711
181.467
183.732
185.493
186.736
187.452
187.635
187.281
186.389
184.96
182.999
180.513
177.512
174.007
170.014
165.551
160.639
155.301
149.562
143.45
136.994
130.226
123.178
115.883
108.377
100.694
92.87
84.941
76.942
68.909
60.878
52.882
44.955
37.129
29.435
21.9
14.552
7.416
0.514
-6.133
-12.505
-18.586
-24.361
-29.818
-34.947
-39.739
-44.189
-48.293
-52.05
-55.462
-58.53
-61.26
-63.658
-65.734
-67.497
-68.959
-70.133
-71.033
-71.675
-72.074
-72.247
-72.214
-71.99
-71.595
-71.048
-70.365
-69.565
-68.666
-67.684
-66.637
-65.539
-64.405
-63.251
-62.09
-60.933
-59.794
-58.681
-57.606
-56.577
-55.602
-54.687
-53.837
-53.059
-52.355
-51.728
-51.18
-50.713
-50.326
-50.019
-49.791
-49.64
-49.564
-49.559
-49.623
-49.752
-49.941
-50.187
-50.487
-50.835
-51.229
-51.663
-52.133
-52.637
-53.169
-53.728
-54.308
-54.908
-55.523
-56.151
-56.79
-57.435
-58.086
-58.738
-59.39
-60.038
-60.679
-61.312
-61.933
-62.54
-63.13
-63.7
-64.248
-64.772
-65.268
-65.732
-66.163
-66.557
-66.909
-67.215
-67.472
-67.673
-67.815
-67.892
-67.9
-67.834
-67.687
-67.455
-67.132
-66.713
-66.192
-65.565
-64.827
-63.973
-63
-61.906
-60.69
-59.349
-57.883
-56.295
-54.584
-52.755
-50.811
-48.755
-46.593
-44.33
-41.975
-39.535
-37.021
-34.444
-31.816
-29.156
-26.48
-23.806
-21.153
-18.542
-15.993
-13.528
-11.166
-8.924
-6.821
-4.873
-3.101
-1.524
-0.162
0.972
1.86
2.492
2.854
2.936
2.735
2.256
1.498
0.463
-0.857
-2.481
-4.42
-6.678
-9.253
-12.143
-15.335
-18.817
-22.555
-26.494
-30.577
-34.748
-38.962
-43.184
-47.368
-51.452
-55.362
-59.007
-62.304
-65.199
-67.641
-69.586
-71.021
-71.952
-72.419
-72.526
-72.39
-72.132
-71.879
-71.732
-71.78
-72.149
-73.025
-74.592
-76.96
-80.068
-83.686
-87.54
-91.354
-94.787
-97.352
-98.496
-97.817
-95.43
-91.974
-88.211
-85.084
-83.615
-84.695
-89.464
-97.848
-107.308
-114.934
-117.812
-114.99
-109.881
-104.224
-94.967
-74.835
-31.006
46.634
158.131
297.38
452.545
609.909
760.786
894.647
998.31
1058.465
1060.532
998.915
877.971
710.251
517.214
319.961
139.003
-7.024
-108.205
-160.788
-168
-143.502
-103.24
-62.732
-38.146
-34.673
-49.392
-75.541
-99.256
-113.046
-116.96
-113.777
-111.02
-112.349
-116.418
-120.977
-122.852
-120.942
-116.26
-109.907
-102.981
-96.199
-90.01
-84.987
-81.477
-79.548
-79.114
-79.958
-81.918
-84.871
-88.625
-92.96
-97.67
-102.56
-107.45
-112.168
-116.513
-120.325
-123.504
-125.981
-127.733
-128.756
-129.06
-128.685
-127.691
-126.137
-124.077
-121.565
-118.653
-115.407
-111.906
-108.229
-104.454
-100.636
-96.807
-92.989
-89.188
-85.398
-81.609
-77.795
-73.925
-69.976
-65.928
-61.769
-57.487
-53.067
-48.492
-43.749
-38.825
-33.709
-28.398
-22.889
-17.182
-11.284
-5.201
1.053
7.465
14.018
20.701
27.497
34.392
41.367
48.402
55.478
62.573
69.663
76.721
83.721
90.633
97.428
104.076
110.548
116.813
122.842
128.605
134.074
139.22
144.017
148.44
152.465
156.069
159.232
161.937
164.168
165.911
167.156
167.895
168.121
167.834
167.032
165.719
163.9
161.584
158.781
155.506
151.774
147.605
143.02
138.042
132.698
127.014
121.02
114.746
108.225
101.489
94.57
87.503
80.321
73.058
65.748
58.422
51.114
43.853
36.67
29.594
22.651
15.867
9.265
2.867
-3.307
-9.24
-14.915
-20.321
-25.445
-30.278
-34.813
-39.047
-42.977
-46.601
-49.922
-52.944
-55.67
-58.11
-60.27
-62.161
-63.794
-65.181
-66.334
-67.269
-67.999
-68.538
-68.903
-69.108
-69.168
-69.099
-68.916
-68.632
-68.264
-67.823
-67.323
-66.776
-66.195
-65.589
-64.969
-64.345
-63.724
-63.113
-62.52
-61.95
-61.407
-60.895
-60.417
-59.976
-59.572
-59.207
-58.881
-58.593
-58.342
-58.127
-57.947
-57.799
-57.682
-57.594
-57.533
-57.497
-57.485
-57.493
-57.522
-57.57
-57.635
-57.716
-57.813
-57.925
-58.051
-58.193
-58.348
-58.519
-58.705
-58.906
-59.123
-59.356
-59.605
-59.87
-60.151
-60.449
-60.763
-61.092
-61.437
-61.796
-62.168
-62.553
-62.947
-63.35
-63.757
-64.166
-64.574
-64.974
-65.362
-65.734
-66.081
-66.399
-66.681
-66.918
-67.105
-67.233
-67.293
-67.279
-67.181
-66.991
-66.703
-66.307
-65.798
-65.169
-64.415
-63.53
-62.512
-61.356
-60.06
-58.624
-57.047
-55.329
-53.473
-51.48
-49.357
-47.106
-44.737
-42.256
-39.675
-37.007
-34.267
-31.47
-28.634
-25.778
-22.922
-20.085
-17.289
-14.553
-11.894
-9.334
-6.892
-4.59
-2.45
-0.492
1.265
2.802
4.103
5.151
5.935
6.45
6.692
6.656
6.334
5.707
4.761
3.488
1.883
-0.053
-2.311
-4.879
-7.731
-10.818
-14.093
-17.506
-21.01
-24.568
-28.141
-31.677
-35.114
-38.376
-41.39
-44.102
-46.459
-48.418
-49.972
-51.132
-51.954
-52.54
-52.969
-53.337
-53.754
-54.322
-55.158
-56.376
-58.051
-60.32
-63.398
-67.4
-72.324
-78.01
-84.068
-90.103
-95.79
-100.606
-103.845
-104.955
-103.74
-100.52
-96.062
-91.308
-87.041
-84.083
-83.84
-86.407
-89.952
-92.51
-91.301
-86.758
-83.263
-80.711
-75.447
-56.966
-9.473
71.363
182.46
313.154
446.644
578.525
706.524
824.709
926.51
993.406
1007.945
966.344
872.114
739.067
585.112
420.438
255.786
103.602
-25.533
-118.471
-169.379
-181.79
-163.27
-127.423
-86.649
-51.524
-30.656
-25.406
-32.539
-44.007
-51.859
-54.027
-52.435
-52.035
-55.961
-63.137
-71.045
-76.896
-79.489
-79.197
-76.498
-72.016
-66.532
-61.023
-56.42
-53.222
-51.522
-51.237
-52.36
-54.896
-58.656
-63.208
-68.11
-73.035
-77.788
-82.266
-86.317
-89.777
-92.556
-94.631
-96.025
-96.765
-96.862
-96.321
-95.173
-93.465
-91.248
-88.583
-85.521
-82.12
-78.449
-74.578
-70.576
-66.495
-62.368
-58.217
-54.053
-49.875
-45.68
-41.452
-37.172
-32.825
-28.397
-23.877
-19.257
-14.524
-9.67
-4.684
0.442
5.711
11.127
16.688
22.391
28.228
34.191
40.267
46.44
52.697
59.022
65.401
71.817
78.255
84.695
91.119
97.508
103.841
110.096
116.25
122.279
128.159
133.866
139.374
144.661
149.701
154.473
158.953
163.12
166.952
170.43
173.536
176.253
178.565
180.459
181.923
182.948
183.527
183.655
183.329
182.55
181.319
179.64
177.521
174.97
171.998
168.617
164.844
160.693
156.185
151.339
146.177
140.723
135.001
129.038
122.858
116.491
109.963
103.303
96.538
89.697
82.807
75.896
68.991
62.119
55.303
48.569
41.94
35.437
29.081
22.889
16.88
11.068
5.468
0.091
-5.053
-9.954
-14.606
-19.004
-23.144
-27.024
-30.644
-34.004
-37.108
-39.958
-42.561
-44.923
-47.05
-48.953
-50.64
-52.121
-53.408
-54.512
-55.445
-56.221
-56.851
-57.349
-57.728
-57.999
-58.177
-58.273
-58.3
-58.27
-58.193
-58.081
-57.944
-57.791
-57.633
-57.476
-57.33
-57.202
-57.097
-57.021
-56.981
-56.98
-57.023
-57.112
-57.251
-57.441
-57.683
-57.979
-58.329
-58.731
-59.184
-59.688
-60.24
-60.837
-61.478
-62.159
-62.877
-63.628
-64.409
-65.215
-66.044
-66.89
-67.749
-68.615
-69.485
-70.352
-71.213
-72.06
-72.89
-73.696
-74.472
-75.215
-75.916
-76.572
-77.174
-77.718
-78.197
-78.606
-78.937
-79.185
-79.344
-79.409
-79.373
-79.233
-78.983
-78.618
-78.134
-77.526
-76.791
-75.925
-74.925
-73.789
-72.514
-71.099
-69.544
-67.851
-66.02
-64.053
-61.955
-59.729
-57.381
-54.917
-52.345
-49.672
-46.909
-44.067
-41.157
-38.193
-35.188
-32.161
-29.129
-26.114
-23.136
-20.215
-17.375
-14.638
-12.027
-9.562
-7.262
-5.145
-3.229
-1.534
-0.079
1.115
2.034
2.663
2.988
2.999
2.684
2.041
1.072
-0.218
-1.829
-3.764
-6.04
-8.667
-11.646
-14.974
-18.641
-22.629
-26.92
-31.476
-36.24
-41.151
-46.149
-51.183
-56.216
-61.203
-66.085
-70.787
-75.215
-79.286
-82.942
-86.131
-88.819
-90.994
-92.664
-93.879
-94.734
-95.337
-95.801
-96.247
-96.786
-97.538
-98.632
-100.235
-102.569
-105.782
-109.881
-114.697
-119.849
-124.882
-129.359
-132.77
-134.495
-134.061
-131.318
-126.725
-121.362
-116.494
-113.348
-112.84
-115.544
-122.024
-132.298
-144.73
-156.764
-164.315
-161.578
-145.296
-113.731
-66.154
-6.422
63.711
145.984
240.942
353.089
483.921
626.195
769.928
897.567
989.415
1030.5
1009.479
925.668
786.887
608.105
410.871
216.016
44.211
-89.525
-180.307
-229.547
-246.545
-242.868
-225.193
-199.747
-171.835
-144.805
-125.096
-114.898
-110.036
-107.69
-103.656
-97.194
-93.3
-94.096
-100.034
-109.965
-119.996
-127.898
-133.151
-135.385
-134.933
-132.243
-127.666
-121.966
-116.123
-111.017
-107.187
-104.954
-104.458
-105.618
-108.266
-112.116
-116.705
-121.505
-126.126
-130.277
-133.784
-136.609
-138.719
-140.089
-140.747
-140.751
-140.154
-139.011
-137.361
-135.215
-132.605
-129.579
-126.203
-122.561
-118.735
-114.797
-110.796
-106.763
-102.719
-98.675
-94.631
-90.578
-86.496
-82.361
-78.155
-73.866
-69.483
-64.992
-60.378
-55.62
-50.702
-45.609
-40.332
-34.868
-29.212
-23.365
-17.331
-11.117
-4.735
1.802
8.482
15.292
22.219
29.249
36.365
43.548
50.78
58.041
65.308
72.557
79.763
86.898
93.934
100.844
107.598
114.168
120.523
126.635
132.476
138.018
143.234
148.098
152.585
156.673
160.341
163.567
166.337
168.633
170.444
171.76
172.574
172.881
172.679
171.968
170.753
169.038
166.833
164.148
160.997
157.395
153.36
148.913
144.077
138.878
133.342
127.497
121.373
115.002
108.414
101.643
94.722
87.683
80.56
73.385
66.192
59.012
51.876
44.814
37.855
31.026
24.354
17.861
11.57
5.502
-0.326
-5.896
-11.195
-16.21
-20.93
-25.348
-29.456
-33.252
-36.731
-39.895
-42.745
-45.283
-47.516
-49.449
-51.09
-52.449
-53.538
-54.367
-54.949
-55.298
-55.428
-55.353
-55.089
-54.65
-54.053
-53.312
-52.443
-51.462
-50.382
-49.22
-47.989
-46.702
-45.374
-44.016
-42.639
-41.256
-39.876
-38.509
-37.163
-35.848
-34.57
-33.337
-32.154
-31.028
-29.964
-28.965
-28.036
-27.179
-26.396
-25.689
-25.059
-24.507
-24.034
-23.639
-23.325
-23.09
-22.935
-22.859
-22.863
-22.945
-23.104
-23.34
-23.65
-24.033
-24.488
-25.012
-25.604
-26.262
-26.984
-27.769
-28.612
-29.51
-30.461
-31.458
-32.497
-33.571
-34.673
-35.796
-36.934
-38.08
-39.228
-40.371
-41.505
-42.624
-43.724
-44.797
-45.835
-46.829
-47.764
-48.63
-49.412
-50.096
-50.672
-51.129
-51.456
-51.647
-51.7
-51.608
-51.362
-50.951
-50.36
-49.578
-48.6
-47.427
-46.069
-44.543
-42.876
-41.099
-39.247
-37.346
-35.414
-33.458
-31.468
-29.435
-27.35
-25.217
-23.059
-20.895
-18.74
-16.599
-14.471
-12.336
-10.16
-7.898
-5.492
-2.902
-0.121
2.823
5.868
8.932
11.924
14.784
17.471
19.949
22.18
24.11
25.686
26.843
27.504
27.566
26.907
25.438
23.124
20.014
16.201
11.807
6.963
1.748
-3.761
-9.472
-15.282
-21.062
-26.684
-32.057
-37.07
-41.535
-45.337
-48.456
-50.998
-53.292
-55.692
-58.44
-61.751
-65.767
-70.315
-75.06
-79.598
-83.246
-85.39
-85.592
-83.452
-78.852
-72.351
-64.834
-57.122
-50.284
-45.238
-42.827
-44.22
-50.313
-61.046
-75.667
-93.417
-113.303
-134.331
-155.162
-172.239
-180.755
-177.083
-159.296
-129.251
-90.857
-45.357
9.334
80.445
175.341
296.307
440.105
593.51
741.369
870.018
964.988
1020.281
1031.091
992.499
906.904
775.371
604.776
411.898
216.078
41.601
-91.244
-173.748
-207.637
-203.211
-173.15
-129.959
-84.083
-45.799
-23.977
-20.688
-32.455
-50.074
-64.673
-73.613
-78.28
-83.239
-91.146
-100.899
-110.439
-117.13
-119.679
-118.413
-114.098
-108.012
-101.639
-96.029
-91.736
-88.993
-87.783
-88.11
-89.995
-93.23
-97.36
-101.933
-106.643
-111.295
-115.796
-120.007
-123.711
-126.769
-129.126
-130.771
-131.72
-131.971
-131.505
-130.334
-128.51
-126.093
-123.15
-119.742
-115.916
-111.736
-107.274
-102.607
-97.815
-92.959
-88.077
-83.198
-78.335
-73.495
-68.677
-63.872
-59.059
-54.224
-49.351
-44.429
-39.454
-34.416
-29.305
-24.111
-18.824
-13.438
-7.95
-2.358
3.336
9.13
15.016
20.986
27.027
33.129
39.279
45.467
51.681
57.908
64.133
70.342
76.521
82.651
88.714
94.692
100.563
106.308
111.904
117.331
122.568
127.592
132.383
136.919
141.182
145.15
148.806
152.131
155.109
157.724
159.962
161.812
163.261
164.301
164.926
165.131
164.914
164.274
163.212
161.734
159.844
157.551
154.865
151.798
148.363
144.576
140.453
136.014
131.278
126.266
121
115.504
109.802
103.917
97.874
91.699
85.417
79.054
72.634
66.183
59.724
53.283
46.883
40.546
34.293
28.145
22.121
16.24
10.517
4.967
-0.397
-5.562
-10.519
-15.259
-19.776
-24.065
-28.121
-31.942
-35.527
-38.877
-41.993
-44.878
-47.534
-49.968
-52.184
-54.19
-55.992
-57.599
-59.019
-60.263
-61.341
-62.262
-63.038
-63.681
-64.202
-64.612
-64.924
-65.149
-65.3
-65.388
-65.424
-65.419
-65.384
-65.328
-65.261
-65.191
-65.126
-65.073
-65.039
-65.031
-65.052
-65.109
-65.205
-65.345
-65.532
-65.769
-66.057
-66.4
-66.797
-67.249
-67.757
-68.321
-68.939
-69.61
-70.333
-71.107
-71.927
-72.793
-73.699
-74.642
-75.618
-76.622
-77.649
-78.695
-79.753
-80.819
-81.888
-82.955
-84.015
-85.061
-86.09
-87.096
-88.072
-89.014
-89.915
-90.771
-91.574
-92.32
-93.002
-93.615
-94.154
-94.612
-94.984
-95.265
-95.448
-95.527
-95.498
-95.353
-95.089
-94.699
-94.181
-93.529
-92.741
-91.814
-90.746
-89.534
-88.176
-86.672
-85.021
-83.221
-81.275
-79.182
-76.945
-74.568
-72.054
-69.409
-66.637
-63.746
-60.742
-57.634
-54.431
-51.142
-47.779
-44.354
-40.879
-37.371
-33.846
-30.324
-26.824
-23.363
-19.964
-16.649
-13.44
-10.362
-7.438
-4.684
-2.119
0.238
2.369
4.254
5.879
7.234
8.308
9.091
9.572
9.738
9.584
9.12
8.354
7.299
5.958
4.32
2.381
0.147
-2.377
-5.18
-8.253
-11.594
-15.176
-18.955
-22.872
-26.856
-30.858
-34.851
-38.815
-42.74
-46.577
-50.241
-53.646
-56.709
-59.371
-61.625
-63.435
-64.737
-65.579
-66.074
-66.476
-67.203
-68.486
-70.345
-72.771
-75.664
-78.92
-82.561
-86.233
-89.136
-90.74
-90.707
-88.962
-85.912
-81.771
-76.378
-70.077
-63.853
-58.789
-56.235
-57.054
-61.06
-68.29
-79.216
-93.793
-111.432
-129.211
-141.734
-144.627
-134.676
-113.195
-85.551
-53.097
-15.027
36.076
114.05
224.74
368.656
536.685
707.821
863.986
987.415
1063.365
1083.76
1040.668
932.762
767.061
559.923
338.596
131.825
-34.126
-143.069
-194.013
-194.503
-162.717
-119.397
-79.694
-57.545
-55.275
-66.664
-84.409
-96.111
-96.179
-87.033
-73.017
-61.993
-58.109
-60.294
-66.283
-73.041
-79.174
-84.713
-89.472
-93.283
-95.638
-96.221
-95.342
-93.295
-90.375
-87.079
-83.985
-81.62
-80.459
-80.689
-82.188
-84.785
-88.237
-92.182
-96.193
-99.894
-103.021
-105.441
-107.142
-108.14
-108.445
-108.103
-107.183
-105.753
-103.859
-101.532
-98.785
-95.645
-92.174
-88.445
-84.541
-80.542
-76.498
-72.444
-68.404
-64.388
-60.396
-56.426
-52.459
-48.476
-44.463
-40.412
-36.316
-32.169
-27.958
-23.665
-19.274
-14.77
-10.142
-5.384
-0.489
4.543
9.711
15.013
20.44
25.983
31.635
37.387
43.231
49.158
55.157
61.215
67.32
73.455
79.605
85.753
91.877
97.957
103.971
109.896
115.709
121.386
126.902
132.233
137.355
142.243
146.874
151.224
155.271
158.993
162.369
165.381
168.009
170.238
172.053
173.443
174.397
174.907
174.968
174.576
173.731
172.434
170.688
168.499
165.874
162.824
159.361
155.501
151.259
146.655
141.71
136.446
130.887
125.06
118.99
112.706
106.235
99.606
92.85
85.995
79.072
72.11
65.14
58.189
51.287
44.46
37.736
31.138
24.692
18.418
12.337
6.467
0.827
-4.57
-9.709
-14.58
-19.172
-23.478
-27.492
-31.21
-34.631
-37.754
-40.581
-43.116
-45.363
-47.329
-49.022
-50.451
-51.626
-52.56
-53.263
-53.751
-54.036
-54.133
-54.058
-53.826
-53.454
-52.957
-52.351
-51.653
-50.876
-50.037
-49.149
-48.227
-47.283
-46.331
-45.382
-44.446
-43.536
-42.659
-41.823
-41.038
-40.308
-39.641
-39.039
-38.508
-38.05
-37.667
-37.361
-37.134
-36.986
-36.916
-36.923
-37.007
-37.165
-37.395
-37.694
-38.059
-38.487
-38.974
-39.516
-40.108
-40.747
-41.429
-42.149
-42.903
-43.687
-44.496
-45.327
-46.176
-47.037
-47.908
-48.785
-49.663
-50.541
-51.412
-52.275
-53.126
-53.96
-54.776
-55.567
-56.331
-57.064
-57.761
-58.418
-59.03
-59.593
-60.103
-60.554
-60.943
-61.263
-61.511
-61.68
-61.766
-61.765
-61.67
-61.478
-61.184
-60.784
-60.272
-59.645
-58.9
-58.034
-57.043
-55.924
-54.675
-53.296
-51.785
-50.143
-48.37
-46.468
-44.439
-42.287
-40.017
-37.634
-35.145
-32.558
-29.881
-27.125
-24.301
-21.42
-18.496
-15.544
-12.58
-9.622
-6.69
-3.803
-0.981
1.755
4.384
6.886
9.243
11.438
13.453
15.274
16.881
18.255
19.382
20.246
20.836
21.139
21.145
20.846
20.243
19.339
18.135
16.63
14.812
12.671
10.207
7.423
4.323
0.924
-2.756
-6.688
-10.819
-15.097
-19.47
-23.885
-28.309
-32.704
-37.013
-41.175
-45.113
-48.749
-52.035
-54.924
-57.366
-59.353
-60.901
-62.066
-62.953
-63.652
-64.242
-64.829
-65.508
-66.381
-67.579
-69.179
-71.3
-74.168
-77.884
-82.425
-87.669
-93.215
-98.607
-103.497
-107.356
-109.478
-109.434
-107.12
-102.849
-97.557
-92.378
-88.285
-86.216
-87.453
-92.046
-98.039
-103.235
-104.696
-101.299
-96.147
-90.487
-81.341
-61.874
-19.736
54.469
160.263
291.814
437.587
584.32
724.444
847.315
940.035
991.985
989.791
930.215
819.672
665.602
484.753
293.784
108.168
-50.312
-166.729
-234.685
-253.813
-236.325
-198.703
-153.81
-114.825
-88.651
-74.312
-69.573
-67.506
-62.261
-54.297
-46.034
-42.344
-46.701
-58.061
-73.36
-88.772
-101.428
-110.219
-115.165
-116.706
-115.252
-111.472
-106.249
-100.508
-95.339
-91.522
-89.328
-88.874
-90.061
-92.593
-96.198
-100.492
-104.948
-109.19
-112.969
-116.12
-118.632
-120.51
-121.73
-122.311
-122.298
-121.726
-120.644
-119.085
-117.056
-114.581
-111.696
-108.455
-104.93
-101.194
-97.314
-93.34
-89.302
-85.222
-81.116
-76.989
-72.843
-68.666
-64.439
-60.15
-55.788
-51.345
-46.815
-42.185
-37.437
-32.557
-27.535
-22.363
-17.037
-11.554
-5.916
-0.124
5.814
11.89
18.09
24.403
30.82
37.326
43.908
50.552
57.239
63.953
70.675
77.384
84.059
90.675
97.21
103.637
109.932
116.069
122.024
127.769
133.281
138.533
143.501
148.163
152.494
156.474
160.081
163.297
166.103
168.486
170.429
171.923
172.956
173.521
173.614
173.23
172.369
171.034
169.226
166.955
164.227
161.055
157.452
153.432
149.015
144.221
139.07
133.588
127.797
121.725
115.4
108.849
102.102
95.189
88.139
80.982
73.75
66.471
59.176
51.893
44.652
37.48
30.404
23.45
16.642
10.003
3.556
-2.679
-8.683
-14.439
-19.932
-25.149
-30.078
-34.709
-39.035
-43.05
-46.751
-50.135
-53.203
-55.956
-58.398
-60.535
-62.373
-63.921
-65.187
-66.184
-66.923
-67.416
-67.679
-67.724
-67.568
-67.225
-66.712
-66.045
-65.241
-64.317
-63.289
-62.173
-60.987
-59.746
-58.467
-57.164
-55.853
-54.546
-53.259
-52.003
-50.79
-49.632
-48.536
-47.514
-46.571
-45.715
-44.951
-44.285
-43.718
-43.254
-42.894
-42.639
-42.489
-42.442
-42.498
-42.653
-42.905
-43.251
-43.686
-44.206
-44.805
-45.48
-46.224
-47.031
-47.896
-48.813
-49.774
-50.775
-51.807
-52.865
-53.942
-55.031
-56.125
-57.219
-58.306
-59.38
-60.437
-61.47
-62.474
-63.446
-64.38
-65.272
-66.119
-66.916
-67.661
-68.348
-68.976
-69.542
-70.042
-70.475
-70.837
-71.126
-71.34
-71.475
-71.528
-71.498
-71.38
-71.172
-70.871
-70.476
-69.984
-69.394
-68.703
-67.912
-67.018
-66.022
-64.924
-63.721
-62.416
-61.008
-59.497
-57.887
-56.178
-54.373
-52.475
-50.488
-48.418
-46.268
-44.045
-41.753
-39.398
-36.989
-34.534
-32.041
-29.521
-26.985
-24.445
-21.919
-19.423
-16.973
-14.587
-12.281
-10.07
-7.974
-6.009
-4.188
-2.525
-1.032
0.278
1.388
2.282
2.951
3.385
3.577
3.523
3.216
2.653
1.84
0.778
-0.528
-2.074
-3.874
-5.934
-8.251
-10.822
-13.635
-16.669
-19.906
-23.315
-26.844
-30.449
-34.079
-37.686
-41.241
-44.694
-48.002
-51.126
-54.008
-56.613
-58.903
-60.812
-62.305
-63.389
-64.093
-64.513
-64.733
-64.751
-64.697
-64.825
-65.371
-66.621
-68.653
-71.291
-74.597
-78.794
-83.776
-89.121
-94.106
-97.733
-99.612
-99.967
-98.598
-95.104
-89.517
-82.479
-75.542
-70.75
-69.08
-70.563
-75.641
-84.855
-98.262
-113.577
-125.848
-130.307
-124.191
-109.44
-90.009
-65.103
-29.761
24.698
106.908
216.349
345.557
483.636
618.169
740.535
842.826
915.739
947.971
927.935
851.032
719.622
546.1
351.682
157.413
-15.287
-149.013
-236.307
-275.916
-273.295
-242.142
-196.779
-150.682
-117.563
-101.624
-100.153
-106.661
-108.797
-100.572
-83.343
-61.842
-44.705
-36.095
-35.099
-39.664
-46.797
-55.11
-64.497
-74.011
-82.433
-88.955
-93.187
-95.277
-95.509
-94.033
-91.138
-87.577
-84.378
-82.197
-81.26
-81.492
-82.63
-84.447
-86.744
-89.183
-91.324
-92.896
-93.787
-93.988
-93.596
-92.69
-91.3
-89.485
-87.319
-84.847
-82.105
-79.125
-75.923
-72.544
-69.051
-65.485
-61.884
-58.269
-54.647
-51.021
-47.39
-43.736
-40.038
-36.287
-32.473
-28.593
-24.644
-20.615
-16.494
-12.271
-7.933
-3.471
1.125
5.86
10.739
15.759
20.915
26.198
31.599
37.108
42.716
48.414
54.191
60.034
65.929
71.863
77.821
83.784
89.734
95.65
101.51
107.293
112.975
118.535
123.948
129.19
134.237
139.065
143.652
147.973
152.006
155.728
159.119
162.158
164.828
167.11
168.989
170.452
171.487
172.083
172.235
171.937
171.186
169.98
168.322
166.215
163.665
160.678
157.265
153.437
149.209
144.595
139.615
134.287
128.633
122.676
116.439
109.948
103.23
96.31
89.218
81.982
74.63
67.192
59.698
52.177
44.658
37.169
29.739
22.394
15.162
8.066
1.131
-5.62
-12.166
-18.488
-24.566
-30.384
-35.927
-41.181
-46.134
-50.776
-55.1
-59.097
-62.764
-66.098
-69.096
-71.761
-74.093
-76.096
-77.776
-79.139
-80.194
-80.95
-81.417
-81.609
-81.539
-81.22
-80.669
-79.9
-78.93
-77.778
-76.459
-74.993
-73.397
-71.689
-69.89
-68.016
-66.086
-64.117
-62.128
-60.135
-58.155
-56.204
-54.295
-52.444
-50.665
-48.968
-47.367
-45.872
-44.492
-43.236
-42.111
-41.124
-40.28
-39.582
-39.033
-38.635
-38.388
-38.291
-38.343
-38.541
-38.881
-39.358
-39.967
-40.701
-41.552
-42.511
-43.57
-44.719
-45.948
-47.245
-48.601
-50.003
-51.44
-52.901
-54.375
-55.849
-57.312
-58.752
-60.159
-61.52
-62.825
-64.063
-65.225
-66.302
-67.283
-68.161
-68.93
-69.582
-70.111
-70.513
-70.782
-70.916
-70.911
-70.766
-70.479
-70.049
-69.478
-68.766
-67.916
-66.931
-65.815
-64.571
-63.205
-61.722
-60.129
-58.431
-56.635
-54.747
-52.777
-50.731
-48.619
-46.451
-44.235
-41.98
-39.698
-37.399
-35.094
-32.792
-30.503
-28.237
-26.006
-23.82
-21.688
-19.621
-17.628
-15.721
-13.913
-12.216
-10.642
-9.202
-7.906
-6.767
-5.793
-4.993
-4.371
-3.929
-3.671
-3.603
-3.731
-4.059
-4.589
-5.322
-6.257
-7.395
-8.735
-10.27
-11.984
-13.866
-15.906
-18.104
-20.472
-23.013
-25.723
-28.6
-31.632
-34.804
-38.102
-41.489
-44.914
-48.326
-51.675
-54.922
-58.048
-61.013
-63.772
-66.274
-68.446
-70.237
-71.613
-72.534
-72.985
-72.988
-72.577
-71.822
-70.832
-69.695
-68.529
-67.475
-66.644
-66.164
-66.124
-66.619
-67.86
-69.981
-72.956
-76.619
-80.558
-84.297
-87.526
-89.857
-90.669
-89.594
-86.572
-82.045
-77.185
-73.076
-70.584
-70.664
-74.223
-81.965
-92.768
-103.185
-109.585
-108.345
-99.433
-86.747
-69.87
-46.258
-9.201
53.849
146.16
264.828
402.488
541.714
670.059
778.154
854.654
894.371
889.651
831.793
720.448
559.62
363.398
158.685
-27.53
-171.762
-258.899
-292.491
-283.922
-245.173
-191.958
-132.788
-74.866
-30.361
-3.455
4.762
-2.203
-12.29
-19.364
-22.051
-21.995
-25.607
-34.776
-47.6
-61.38
-72.123
-78.269
-80.35
-78.936
-75.122
-69.949
-64.14
-58.766
-54.686
-52.206
-51.437
-52.275
-54.448
-57.678
-61.598
-65.686
-69.526
-72.907
-75.722
-77.971
-79.684
-80.844
-81.458
-81.58
-81.259
-80.526
-79.399
-77.876
-75.962
-73.698
-71.141
-68.361
-65.432
-62.401
-59.3
-56.152
-52.974
-49.777
-46.568
-43.341
-40.079
-36.77
-33.405
-29.979
-26.487
-22.917
-19.253
-15.475
-11.568
-7.523
-3.333
1.006
5.499
10.148
14.948
19.895
24.98
30.193
35.529
40.981
46.538
52.189
57.923
63.724
69.581
75.478
81.397
87.32
93.228
99.101
104.917
110.657
116.296
121.814
127.186
132.389
137.4
142.197
146.756
151.055
155.071
158.785
162.177
165.227
167.918
170.235
172.164
173.692
174.81
175.511
175.787
175.635
175.055
174.045
172.61
170.753
168.479
165.799
162.721
159.259
155.425
151.236
146.708
141.861
136.715
131.291
125.612
119.7
113.581
107.279
100.82
94.23
87.535
80.762
73.936
67.084
60.232
53.405
46.626
39.919
33.307
26.809
20.445
14.234
8.193
2.336
-3.321
-8.767
-13.989
-18.978
-23.724
-28.221
-32.463
-36.444
-40.162
-43.615
-46.802
-49.724
-52.383
-54.78
-56.921
-58.811
-60.455
-61.86
-63.035
-63.988
-64.73
-65.269
-65.619
-65.788
-65.79
-65.636
-65.337
-64.906
-64.354
-63.692
-62.934
-62.089
-61.17
-60.187
-59.152
-58.075
-56.967
-55.838
-54.698
-53.557
-52.423
-51.307
-50.216
-49.158
-48.142
-47.175
-46.263
-45.413
-44.63
-43.919
-43.284
-42.728
-42.255
-41.866
-41.563
-41.346
-41.217
-41.173
-41.215
-41.34
-41.547
-41.833
-42.195
-42.629
-43.132
-43.698
-44.322
-45
-45.725
-46.492
-47.292
-48.119
-48.965
-49.823
-50.685
-51.541
-52.383
-53.202
-53.99
-54.74
-55.442
-56.088
-56.672
-57.186
-57.624
-57.979
-58.245
-58.417
-58.489
-58.459
-58.322
-58.077
-57.722
-57.254
-56.675
-55.983
-55.18
-54.268
-53.249
-52.124
-50.899
-49.577
-48.163
-46.665
-45.089
-43.443
-41.735
-39.974
-38.17
-36.333
-34.472
-32.597
-30.72
-28.852
-27.003
-25.185
-23.412
-21.695
-20.05
-18.491
-17.029
-15.678
-14.451
-13.361
-12.422
-11.648
-11.047
-10.627
-10.396
-10.361
-10.534
-10.919
-11.519
-12.332
-13.358
-14.597
-16.053
-17.727
-19.608
-21.68
-23.93
-26.346
-28.934
-31.696
-34.621
-37.697
-40.909
-44.243
-47.69
-51.235
-54.835
-58.445
-62.008
-65.468
-68.801
-71.989
-75.017
-77.863
-80.468
-82.758
-84.677
-86.191
-87.282
-87.968
-88.246
-88.085
-87.566
-86.888
-86.361
-86.317
-86.913
-88.085
-89.722
-91.895
-94.686
-97.948
-101.17
-103.616
-104.766
-104.614
-103.498
-101.448
-98.26
-93.956
-89.015
-84.491
-81.596
-80.97
-82.564
-86.379
-92.665
-101.651
-113.243
-126.332
-137.659
-142.813
-138.428
-122.611
-97.547
-67.383
-33.032
8.139
64.754
146.084
255.376
389.669
537.212
683.345
813.246
911.562
965.743
964.879
904.84
789.738
631.715
450.86
267.904
103.453
-26.994
-117.39
-168.478
-188.164
-185.707
-167.428
-137.578
-100.473
-63.607
-35.092
-21.013
-21.49
-29.38
-38.002
-43.833
-46.831
-51.204
-59.153
-69.219
-79.382
-86.863
-89.941
-89.031
-84.971
-78.667
-71.374
-64.357
-58.359
-53.873
-51.24
-50.388
-51.198
-53.572
-57.117
-61.308
-65.801
-70.312
-74.602
-78.564
-82.073
-85.006
-87.341
-89.094
-90.26
-90.844
-90.852
-90.287
-89.182
-87.582
-85.529
-83.069
-80.261
-77.167
-73.86
-70.419
-66.896
-63.326
-59.737
-56.143
-52.55
-48.961
-45.363
-41.734
-38.057
-34.319
-30.507
-26.612
-22.62
-18.514
-14.284
-9.916
-5.405
-0.745
4.066
9.03
14.144
19.401
24.793
30.309
35.939
41.673
47.501
53.412
59.393
65.431
71.512
77.62
83.739
89.849
95.93
101.96
107.917
113.777
119.517
125.113
130.54
135.773
140.789
145.565
150.076
154.3
158.214
161.799
165.034
167.902
170.386
172.472
174.145
175.396
176.215
176.596
176.534
176.025
175.068
173.665
171.819
169.536
166.824
163.692
160.152
156.22
151.912
147.246
142.243
136.925
131.315
125.437
119.318
112.984
106.461
99.778
92.962
86.043
79.048
72.005
64.943
57.889
50.869
43.909
37.034
30.266
23.63
17.145
10.832
4.709
-1.207
-6.9
-12.355
-17.562
-22.51
-27.189
-31.593
-35.718
-39.56
-43.118
-46.391
-49.382
-52.094
-54.531
-56.697
-58.601
-60.249
-61.651
-62.816
-63.754
-64.477
-64.996
-65.323
-65.47
-65.452
-65.279
-64.965
-64.524
-63.968
-63.31
-62.564
-61.742
-60.858
-59.923
-58.95
-57.95
-56.935
-55.913
-54.896
-53.89
-52.905
-51.947
-51.023
-50.138
-49.298
-48.507
-47.769
-47.087
-46.464
-45.901
-45.401
-44.965
-44.593
-44.285
-44.042
-43.863
-43.747
-43.692
-43.698
-43.761
-43.879
-44.049
-44.267
-44.529
-44.829
-45.164
-45.527
-45.912
-46.314
-46.726
-47.142
-47.557
-47.964
-48.357
-48.731
-49.081
-49.401
-49.686
-49.932
-50.133
-50.286
-50.385
-50.428
-50.408
-50.323
-50.167
-49.938
-49.632
-49.246
-48.777
-48.222
-47.58
-46.848
-46.027
-45.116
-44.115
-43.025
-41.849
-40.589
-39.248
-37.832
-36.346
-34.793
-33.181
-31.515
-29.804
-28.052
-26.268
-24.458
-22.629
-20.789
-18.945
-17.107
-15.282
-13.482
-11.718
-10.003
-8.35
-6.772
-5.283
-3.896
-2.623
-1.477
-0.463
0.409
1.134
1.702
2.105
2.332
2.38
2.242
1.916
1.399
0.689
-0.212
-1.292
-2.543
-3.961
-5.547
-7.319
-9.289
-11.46
-13.833
-16.401
-19.148
-22.062
-25.108
-28.231
-31.375
-34.484
-37.511
-40.43
-43.208
-45.794
-48.129
-50.128
-51.721
-52.867
-53.532
-53.706
-53.405
-52.667
-51.576
-50.265
-48.874
-47.553
-46.458
-45.721
-45.47
-45.816
-46.895
-48.949
-52.138
-56.468
-61.766
-67.62
-73.584
-79.338
-84.454
-88.269
-90.264
-90.233
-88.564
-86.353
-84.636
-84.21
-85.822
-90.198
-98.067
-108.521
-118.289
-123.675
-120.814
-109.395
-93.512
-73.734
-48.281
-10.561
52.171
144.484
265.116
407.3
554.359
693.805
813.214
899.289
946.252
946.714
899.44
810.138
682.891
529.795
364.552
201.581
62.293
-39.228
-98.613
-120.027
-120.248
-116.02
-115.374
-119.971
-124.797
-123.78
-116.542
-105.856
-95.176
-87.483
-83.087
-81.071
-80.584
-80.898
-81.897
-83.394
-85.147
-87.248
-89.63
-91.984
-94.232
-96.175
-97.37
-97.76
-97.413
-96.323
-94.854
-93.557
-92.687
-92.457
-93.127
-94.665
-96.976
-99.948
-103.203
-106.278
-108.907
-110.914
-112.191
-112.766
-112.646
-111.828
-110.398
-108.464
-106.102
-103.374
-100.312
-96.922
-93.251
-89.367
-85.344
-81.266
-77.185
-73.13
-69.121
-65.169
-61.277
-57.441
-53.642
-49.858
-46.071
-42.271
-38.452
-34.61
-30.736
-26.812
-22.823
-18.752
-14.586
-10.318
-5.941
-1.451
3.152
7.866
12.686
17.604
22.612
27.706
32.88
38.125
43.435
48.797
54.201
59.633
65.078
70.52
75.939
81.316
86.63
91.859
96.981
101.974
106.815
111.48
115.947
120.192
124.195
127.932
131.383
134.53
137.352
139.834
141.959
143.715
145.089
146.072
146.656
146.835
146.606
145.968
144.92
143.467
141.613
139.365
136.733
133.726
130.359
126.646
122.606
118.257
113.62
108.716
103.569
98.204
92.644
86.917
81.048
75.063
68.988
62.849
56.673
50.484
44.308
38.167
32.084
26.081
20.177
14.393
8.745
3.249
-2.079
-7.229
-12.186
-16.943
-21.491
-25.822
-29.932
-33.818
-37.476
-40.908
-44.113
-47.094
-49.856
-52.402
-54.738
-56.873
-58.813
-60.567
-62.145
-63.557
-64.811
-65.92
-66.894
-67.742
-68.477
-69.108
-69.645
-70.099
-70.479
-70.794
-71.054
-71.265
-71.436
-71.573
-71.684
-71.774
-71.849
-71.912
-71.968
-72.021
-72.073
-72.126
-72.181
-72.24
-72.303
-72.369
-72.438
-72.509
-72.579
-72.647
-72.71
-72.765
-72.81
-72.842
-72.857
-72.852
-72.824
-72.77
-72.686
-72.569
-72.417
-72.225
-71.993
-71.716
-71.392
-71.02
-70.596
-70.119
-69.588
-69
-68.355
-67.651
-66.887
-66.062
-65.176
-64.227
-63.217
-62.145
-61.011
-59.818
-58.565
-57.256
-55.891
-54.473
-53.004
-51.488
-49.927
-48.324
-46.682
-45.005
-43.298
-41.564
-39.808
-38.035
-36.249
-34.457
-32.664
-30.874
-29.094
-27.329
-25.584
-23.867
-22.184
-20.542
-18.949
-17.412
-15.938
-14.538
-13.218
-11.986
-10.851
-9.82
-8.9
-8.1
-7.426
-6.885
-6.487
-6.238
-6.148
-6.229
-6.49
-6.937
-7.581
-8.427
-9.484
-10.757
-12.25
-13.964
-15.899
-18.057
-20.441
-23.052
-25.887
-28.943
-32.211
-35.682
-39.346
-43.194
-47.205
-51.363
-55.65
-60.049
-64.558
-69.174
-73.886
-78.683
-83.546
-88.451
-93.373
-98.279
-103.117
-107.842
-112.398
-116.735
-120.815
-124.588
-128.007
-131.026
-133.582
-135.628
-137.115
-137.973
-138.166
-137.699
-136.595
-134.949
-132.839
-130.273
-127.401
-124.492
-121.795
-119.61
-118.049
-116.987
-116.562
-117.068
-118.418
-120.193
-121.704
-121.975
-120.618
-117.825
-113.292
-106.523
-97.629
-87.424
-77.485
-69.902
-65.947
-65.832
-70.166
-79.915
-94.017
-109.027
-121.028
-125.006
-119.698
-108.758
-91.495
-64.398
-20.368
51.671
154.594
283.547
430.019
582.319
731.367
870.046
987.899
1070.477
1101.967
1069.11
967.981
807.21
605.975
391.97
194.216
36.896
-65.651
-115.297
-125.823
-116.945
-106.963
-102.636
-102.148
-100.159
-91.664
-78.103
-64.161
-53.862
-50.176
-53.301
-61.806
-74.007
-87.595
-100.16
-110.11
-116.741
-120.005
-120.132
-117.318
-111.998
-105.122
-98.052
-91.899
-87.188
-84.052
-82.448
-82.409
-83.941
-86.797
-90.479
-94.512
-98.608
-102.597
-106.398
-109.866
-112.791
-115.048
-116.606
-117.47
-117.657
-117.171
-115.993
-114.137
-111.663
-108.633
-105.123
-101.201
-96.919
-92.345
-87.553
-82.617
-77.614
-72.598
-67.603
-62.651
-57.753
-52.909
-48.12
-43.374
-38.651
-33.935
-29.209
-24.461
-19.683
-14.867
-9.999
-5.071
-0.072
5.003
10.158
15.391
20.702
26.086
31.536
37.043
42.596
48.184
53.797
59.424
65.055
70.679
76.283
81.853
87.377
92.837
98.218
103.501
108.667
113.695
118.567
123.261
127.758
132.037
136.078
139.862
143.369
146.581
149.482
152.054
154.284
156.158
157.664
158.795
159.541
159.897
159.86
159.427
158.599
157.378
155.768
153.774
151.404
148.667
145.573
142.136
138.368
134.286
129.907
125.249
120.332
115.177
109.807
104.243
98.509
92.63
86.628
80.53
74.358
68.138
61.892
55.643
49.415
43.229
37.104
31.062
25.119
19.292
13.598
8.05
2.662
-2.555
-7.591
-12.436
-17.083
-21.526
-25.758
-29.775
-33.575
-37.155
-40.513
-43.65
-46.568
-49.267
-51.751
-54.024
-56.091
-57.957
-59.628
-61.111
-62.412
-63.541
-64.503
-65.308
-65.965
-66.48
-66.864
-67.125
-67.271
-67.31
-67.251
-67.102
-66.87
-66.562
-66.187
-65.751
-65.261
-64.725
-64.149
-63.539
-62.904
-62.248
-61.58
-60.904
-60.227
-59.554
-58.891
-58.243
-57.614
-57.008
-56.431
-55.884
-55.372
-54.897
-54.462
-54.069
-53.719
-53.414
-53.155
-52.941
-52.773
-52.651
-52.574
-52.541
-52.553
-52.606
-52.701
-52.833
-53.002
-53.204
-53.436
-53.693
-53.971
-54.266
-54.571
-54.883
-55.194
-55.499
-55.792
-56.066
-56.315
-56.533
-56.714
-56.85
-56.938
-56.971
-56.944
-56.852
-56.691
-56.458
-56.149
-55.76
-55.288
-54.731
-54.086
-53.353
-52.53
-51.615
-50.61
-49.514
-48.328
-47.053
-45.693
-44.249
-42.725
-41.125
-39.454
-37.719
-35.925
-34.08
-32.192
-30.27
-28.321
-26.357
-24.385
-22.416
-20.459
-18.524
-16.622
-14.762
-12.955
-11.212
-9.546
-7.971
-6.497
-5.139
-3.908
-2.82
-1.889
-1.13
-0.553
-0.167
0.021
0.002
-0.233
-0.692
-1.378
-2.289
-3.427
-4.792
-6.388
-8.216
-10.268
-12.526
-14.972
-17.592
-20.382
-23.35
-26.495
-29.809
-33.28
-36.9
-40.664
-44.567
-48.582
-52.658
-56.73
-60.735
-64.63
-68.396
-72.025
-75.49
-78.738
-81.676
-84.213
-86.298
-87.903
-89.021
-89.624
-89.646
-89.111
-88.219
-87.305
-86.717
-86.655
-87.071
-87.85
-89.088
-90.904
-93.184
-95.476
-97.06
-97.369
-96.391
-94.48
-91.68
-87.838
-82.999
-77.616
-72.811
-69.964
-69.871
-72.617
-78.299
-87.16
-99.292
-114.373
-130.975
-145.413
-153.003
-150.414
-135.422
-109.23
-75.195
-32.702
21.102
91.156
183.554
296.93
424.736
560.167
693.14
814.5
915.838
980.717
992.89
943.539
828.621
661.049
467.224
272.466
105.016
-16.342
-90.667
-122.512
-124.532
-111.88
-91.11
-67.982
-48.831
-37.049
-36.45
-46.968
-61.458
-73.388
-79.431
-79.877
-79.599
-82.04
-86.984
-92.455
-95.658
-95.451
-92.538
-88.018
-82.947
-77.941
-73.421
-69.917
-67.755
-66.993
-67.513
-69.07
-71.465
-74.57
-78.209
-82.17
-86.28
-90.378
-94.317
-97.967
-101.17
-103.795
-105.77
-107.053
-107.626
-107.491
-106.667
-105.192
-103.13
-100.542
-97.483
-94.007
-90.162
-86.014
-81.634
-77.097
-72.472
-67.812
-63.148
-58.503
-53.888
-49.307
-44.754
-40.214
-35.665
-31.09
-26.481
-21.827
-17.124
-12.361
-7.526
-2.609
2.399
7.504
12.709
18.017
23.429
28.94
34.545
40.236
46.004
51.839
57.733
63.676
69.66
75.673
81.702
87.735
93.758
99.755
105.706
111.594
117.397
123.094
128.664
134.083
139.329
144.378
149.209
153.799
158.125
162.166
165.901
169.312
172.379
175.085
177.415
179.355
180.892
182.016
182.718
182.994
182.837
182.246
181.221
179.764
177.879
175.574
172.857
169.739
166.233
162.355
158.123
153.556
148.675
143.504
138.067
132.39
126.498
120.421
114.185
107.818
101.348
94.804
88.214
81.605
75.003
68.435
61.926
55.499
49.178
42.984
36.936
31.053
25.353
19.849
14.555
9.484
4.646
0.047
-4.304
-8.405
-12.252
-15.845
-19.185
-22.275
-25.119
-27.723
-30.093
-32.24
-34.17
-35.896
-37.427
-38.775
-39.952
-40.97
-41.842
-42.581
-43.198
-43.708
-44.121
-44.451
-44.71
-44.907
-45.055
-45.164
-45.243
-45.302
-45.349
-45.393
-45.441
-45.499
-45.572
-45.667
-45.785
-45.931
-46.106
-46.311
-46.547
-46.814
-47.109
-47.433
-47.783
-48.157
-48.553
-48.967
-49.397
-49.84
-50.291
-50.749
-51.208
-51.665
-52.118
-52.561
-52.992
-53.407
-53.803
-54.176
-54.523
-54.841
-55.125
-55.373
-55.582
-55.747
-55.866
-55.936
-55.956
-55.923
-55.836
-55.693
-55.495
-55.239
-54.926
-54.556
-54.127
-53.641
-53.096
-52.494
-51.835
-51.118
-50.345
-49.517
-48.635
-47.701
-46.715
-45.68
-44.597
-43.469
-42.297
-41.083
-39.832
-38.544
-37.224
-35.877
-34.505
-33.115
-31.709
-30.294
-28.872
-27.45
-26.032
-24.621
-23.223
-21.841
-20.479
-19.144
-17.84
-16.572
-15.344
-14.161
-13.029
-11.953
-10.938
-9.987
-9.106
-8.298
-7.57
-6.925
-6.368
-5.905
-5.54
-5.28
-5.132
-5.103
-5.199
-5.426
-5.788
-6.292
-6.942
-7.739
-8.683
-9.776
-11.018
-12.413
-13.963
-15.67
-17.533
-19.552
-21.724
-24.047
-26.518
-29.125
-31.854
-34.698
-37.65
-40.719
-43.91
-47.221
-50.646
-54.18
-57.804
-61.5
-65.24
-68.976
-72.66
-76.247
-79.695
-82.982
-86.085
-88.961
-91.564
-93.828
-95.688
-97.111
-98.066
-98.522
-98.488
-97.989
-97.09
-95.913
-94.562
-93.124
-91.706
-90.403
-89.329
-88.641
-88.444
-88.867
-90.118
-92.28
-95.332
-99.132
-103.217
-107.033
-110.155
-112.065
-112.148
-110.089
-105.81
-99.734
-93.112
-87.338
-83.424
-82.068
-84
-89.704
-98.816
-109.946
-119.359
-121.515
-113.077
-92.361
-59.282
-16.491
37.138
104.517
187.224
288.077
404.358
530.831
661.808
785.792
890.958
960.943
977.6
932.435
824.027
664.934
479.531
291.27
122.85
-10.794
-105.066
-160.529
-182.239
-177.987
-157.233
-129.093
-103.89
-89.601
-87.309
-94.226
-102.262
-103.532
-95.912
-81.451
-66.382
-55.704
-50.706
-50.379
-51.879
-53.736
-56.149
-59.213
-62.857
-66.642
-69.733
-71.788
-72.944
-73.246
-72.779
-71.856
-70.976
-70.593
-71.095
-72.626
-75.035
-78.143
-81.73
-85.453
-88.938
-91.918
-94.219
-95.774
-96.627
-96.814
-96.378
-95.403
-93.975
-92.159
-90.003
-87.534
-84.776
-81.781
-78.621
-75.367
-72.077
-68.783
-65.501
-62.239
-58.997
-55.77
-52.539
-49.28
-45.977
-42.617
-39.196
-35.712
-32.155
-28.51
-24.764
-20.901
-16.909
-12.78
-8.507
-4.086
0.48
5.189
10.035
15.008
20.1
25.307
30.619
36.031
41.532
47.111
52.757
58.456
64.192
69.947
75.7
81.432
87.12
92.742
98.275
103.695
108.979
114.104
119.045
123.779
128.282
132.532
136.505
140.182
143.54
146.561
149.226
151.519
153.425
154.931
156.027
156.702
156.949
156.762
156.139
155.076
153.576
151.64
149.273
146.484
143.281
139.678
135.688
131.33
126.62
121.581
116.234
110.602
104.711
98.587
92.255
85.743
79.081
72.295
65.416
58.473
51.493
44.506
37.539
30.619
23.772
17.024
10.4
3.921
-2.388
-8.508
-14.418
-20.099
-25.535
-30.711
-35.613
-40.229
-44.55
-48.569
-52.279
-55.678
-58.764
-61.536
-63.996
-66.148
-67.997
-69.55
-70.815
-71.8
-72.519
-72.982
-73.203
-73.195
-72.973
-72.552
-71.948
-71.174
-70.248
-69.185
-68.001
-66.712
-65.335
-63.885
-62.38
-60.835
-59.265
-57.686
-56.111
-54.555
-53.029
-51.547
-50.117
-48.752
-47.459
-46.247
-45.123
-44.093
-43.162
-42.333
-41.61
-40.992
-40.481
-40.075
-39.774
-39.575
-39.475
-39.47
-39.558
-39.735
-39.995
-40.333
-40.744
-41.22
-41.756
-42.343
-42.973
-43.638
-44.33
-45.039
-45.758
-46.477
-47.188
-47.881
-48.549
-49.181
-49.77
-50.307
-50.784
-51.193
-51.528
-51.781
-51.949
-52.026
-52.009
-51.893
-51.677
-51.356
-50.93
-50.397
-49.754
-49.002
-48.14
-47.168
-46.089
-44.905
-43.618
-42.233
-40.754
-39.187
-37.536
-35.808
-34.009
-32.147
-30.229
-28.263
-26.259
-24.227
-22.176
-20.117
-18.059
-16.013
-13.99
-11.998
-10.047
-8.146
-6.303
-4.527
-2.827
-1.212
0.31
1.732
3.045
4.243
5.317
6.262
7.073
7.745
8.274
8.656
8.889
8.968
8.891
8.657
8.262
7.704
6.979
6.085
5.018
3.779
2.366
0.781
-0.971
-2.886
-4.959
-7.183
-9.554
-12.063
-14.701
-17.465
-20.348
-23.343
-26.44
-29.621
-32.861
-36.144
-39.452
-42.78
-46.13
-49.5
-52.886
-56.284
-59.696
-63.117
-66.54
-69.934
-73.246
-76.417
-79.408
-82.198
-84.782
-87.154
-89.27
-91.048
-92.415
-93.312
-93.704
-93.594
-92.933
-91.625
-89.723
-87.412
-84.919
-82.545
-80.414
-78.396
-76.512
-74.948
-73.691
-72.668
-71.746
-70.51
-68.901
-67.314
-65.842
-64.367
-62.901
-61.284
-59.443
-57.802
-56.569
-55.635
-55.212
-55.8
-57.926
-62.268
-69.625
-79.146
-88.015
-93.784
-93.982
-88.382
-81.371
-75.158
-66.929
-49.788
-10.937
60.348
164.667
296.734
445.97
598.012
742.014
865.698
954.176
995.511
980.401
907.963
786.043
628.765
455.607
285.129
136.137
22.297
-53.099
-91.921
-102.99
-97.108
-80.652
-60.346
-43.295
-34.762
-38.654
-53.569
-71.612
-85.189
-90.236
-87.223
-81.227
-75.993
-71.849
-67.64
-61.447
-53.058
-44.451
-37.549
-33.463
-32.626
-34.731
-39.086
-45.212
-52.413
-59.501
-65.62
-70.371
-73.581
-75.608
-77.097
-78.343
-79.572
-81.081
-82.894
-84.979
-87.301
-89.569
-91.421
-92.68
-93.244
-93.089
-92.32
-91.003
-89.175
-86.927
-84.351
-81.521
-78.513
-75.375
-72.141
-68.842
-65.507
-62.16
-58.819
-55.491
-52.17
-48.834
-45.456
-42.014
-38.497
-34.894
-31.202
-27.411
-23.507
-19.485
-15.338
-11.06
-6.648
-2.094
2.607
7.454
12.443
17.565
22.808
28.16
33.613
39.154
44.772
50.453
56.181
61.942
67.719
73.494
79.244
84.947
90.578
96.114
101.531
106.803
111.904
116.812
121.5
125.945
130.124
134.014
137.592
140.838
143.733
146.258
148.397
150.136
151.463
152.367
152.84
152.876
152.473
151.629
150.345
148.625
146.476
143.907
140.928
137.553
133.797
129.678
125.215
120.43
115.346
109.987
104.378
98.545
92.515
86.316
79.975
73.521
66.981
60.384
53.756
47.124
40.514
33.952
27.461
21.066
14.786
8.643
2.656
-3.157
-8.782
-14.203
-19.408
-24.387
-29.13
-33.631
-37.883
-41.884
-45.632
-49.125
-52.366
-55.355
-58.097
-60.596
-62.858
-64.889
-66.696
-68.288
-69.672
-70.859
-71.857
-72.676
-73.326
-73.817
-74.159
-74.362
-74.437
-74.393
-74.24
-73.989
-73.649
-73.23
-72.741
-72.191
-71.589
-70.944
-70.263
-69.555
-68.826
-68.083
-67.332
-66.58
-65.832
-65.093
-64.369
-63.665
-62.985
-62.334
-61.715
-61.133
-60.592
-60.095
-59.647
-59.249
-58.907
-58.622
-58.399
-58.24
-58.147
-58.122
-58.169
-58.286
-58.476
-58.738
-59.072
-59.478
-59.953
-60.496
-61.105
-61.777
-62.509
-63.295
-64.133
-65.016
-65.939
-66.896
-67.882
-68.888
-69.909
-70.936
-71.962
-72.979
-73.98
-74.956
-75.899
-76.8
-77.651
-78.443
-79.168
-79.816
-80.379
-80.849
-81.22
-81.484
-81.636
-81.669
-81.58
-81.364
-81.019
-80.542
-79.933
-79.191
-78.316
-77.311
-76.18
-74.926
-73.556
-72.074
-70.488
-68.806
-67.039
-65.195
-63.285
-61.319
-59.309
-57.269
-55.21
-53.148
-51.096
-49.07
-47.089
-45.171
-43.335
-41.6
-39.985
-38.508
-37.188
-36.041
-35.08
-34.317
-33.764
-33.43
-33.33
-33.473
-33.869
-34.523
-35.442
-36.627
-38.082
-39.806
-41.785
-44.009
-46.469
-49.164
-52.101
-55.288
-58.72
-62.39
-66.288
-70.395
-74.692
-79.142
-83.686
-88.265
-92.819
-97.3
-101.677
-105.915
-109.958
-113.739
-117.176
-120.195
-122.752
-124.812
-126.339
-127.323
-127.785
-127.787
-127.438
-126.86
-126.162
-125.45
-124.834
-124.43
-124.369
-124.824
-126.01
-128.093
-131.118
-134.955
-139.289
-143.704
-147.755
-150.883
-152.397
-151.701
-148.54
-143.303
-136.979
-130.849
-126.184
-124.066
-125.495
-131.239
-141.303
-154.233
-167.336
-177.107
-179.431
-170.527
-146.927
-104.958
-43.241
35.992
129.813
233.9
345.404
466.039
593.405
719.222
829.899
905.268
931.137
904.925
832.488
726.957
599.228
455.151
301.46
148.484
12.463
-89.745
-149.103
-169.065
-162.9
-145.573
-129.239
-117.655
-109.801
-104.86
-99.317
-92.563
-84.993
-75.667
-67.775
-63.196
-62.1
-65.134
-70.148
-75.465
-81.129
-86.636
-91.7
-96.176
-99.334
-100.884
-101.149
-100.35
-98.689
-96.591
-94.613
-93.209
-92.809
-93.62
-95.514
-98.328
-101.859
-105.733
-109.49
-112.8
-115.435
-117.281
-118.368
-118.708
-118.309
-117.239
-115.593
-113.443
-110.842
-107.816
-104.367
-100.535
-96.388
-92.007
-87.48
-82.867
-78.201
-73.512
-68.815
-64.121
-59.432
-54.736
-50.01
-45.242
-40.43
-35.57
-30.665
-25.705
-20.679
-15.573
-10.374
-5.073
0.333
5.848
11.473
17.205
23.038
28.963
34.969
41.046
47.187
53.381
59.621
65.895
72.19
78.494
84.792
91.069
97.307
103.487
109.588
115.591
121.473
127.215
132.792
138.183
143.365
148.316
153.013
157.436
161.562
165.371
168.846
171.967
174.72
177.089
179.06
180.625
181.772
182.497
182.793
182.658
182.092
181.096
179.673
177.831
175.577
172.921
169.876
166.455
162.677
158.558
154.121
149.386
144.377
139.12
133.64
127.965
122.123
116.142
110.051
103.879
97.655
91.409
85.168
78.96
72.811
66.748
60.795
54.975
49.31
43.821
38.525
33.44
28.583
23.966
19.602
15.501
11.672
8.12
4.852
1.87
-0.825
-3.233
-5.356
-7.199
-8.765
-10.062
-11.099
-11.884
-12.429
-12.745
-12.845
-12.743
-12.452
-11.988
-11.364
-10.596
-9.699
-8.688
-7.577
-6.381
-5.115
-3.792
-2.425
-1.028
0.386
1.806
3.219
4.617
5.987
7.321
8.611
9.847
11.024
12.133
13.17
14.129
15.006
15.798
16.502
17.117
17.642
18.077
18.423
18.682
18.855
18.945
18.955
18.889
18.749
18.539
18.265
17.929
17.538
17.096
16.61
16.083
15.523
14.935
14.325
13.701
13.067
12.433
11.804
11.188
10.593
10.028
9.499
9.015
8.583
8.212
7.908
7.678
7.528
7.463
7.491
7.615
7.84
8.172
8.614
9.17
9.845
10.643
11.565
12.614
13.792
15.099
16.538
18.108
19.809
21.64
23.599
25.685
27.894
30.223
32.667
35.219
37.872
40.619
43.452
46.36
49.334
52.364
55.438
58.548
61.681
64.827
67.974
71.111
74.225
77.304
80.334
83.299
86.183
88.969
91.641
94.183
96.578
98.81
100.865
102.734
104.405
105.871
107.121
108.144
108.93
109.472
109.763
109.799
109.577
109.094
108.351
107.361
106.13
104.667
102.97
101.025
98.821
96.356
93.63
90.649
87.428
83.985
80.354
76.597
72.775
68.951
65.18
61.496
57.942
54.573
51.454
48.672
46.305
44.399
42.992
42.102
41.713
41.787
42.244
42.946
43.735
44.457
44.967
45.149
44.892
44.071
42.495
39.908
36.154
31.194
25.117
18.21
10.812
3.307
-3.652
-9.232
-12.868
-14.212
-13.275
-10.893
-8.097
-5.917
-5.987
-8.662
-12.505
-16.745
-20
-23.451
-31.898
-44.784
-57.214
-57.45
-27.482
39.996
142.316
267.952
398.414
525.828
650.182
772.203
890.109
990.318
1052.225
1058.842
1003.241
890.641
736.762
561.704
384.407
223.078
91.27
-2.288
-55.297
-74.497
-69.384
-53.361
-38.136
-28.395
-27.808
-33.674
-39.892
-44.196
-43.916
-40.485
-39.456
-43.358
-53.407
-68.463
-84.561
-99.44
-111.969
-121.6
-128.732
-133.232
-134.942
-134.401
-132.364
-129.712
-127.402
-125.901
-125.4
-126.216
-128.43
-131.943
-136.602
-142.02
-147.754
-153.544
-159.182
-164.461
-169.259
-173.46
-176.977
-179.82
-182.023
-183.602
-184.579
-184.974
-184.803
-184.112
-182.95
-181.368
-179.421
-177.168
-174.675
-172.011
-169.249
-166.441
-163.625
-160.824
-158.053
-155.32
-152.623
-149.954
-147.297
-144.637
-141.962
-139.259
-136.518
-133.726
-130.868
-127.933
-124.91
-121.788
-118.561
-115.226
-111.779
-108.22
-104.552
-100.78
-96.91
-92.951
-88.908
-84.791
-80.607
-76.366
-72.079
-67.759
-63.418
-59.071
-54.733
-50.422
-46.158
-41.959
-37.846
-33.841
-29.966
-26.241
-22.691
-19.336
-16.2
-13.303
-10.666
-8.309
-6.251
-4.51
-3.1
-2.038
-1.334
-1.001
-1.047
-1.478
-2.299
-3.511
-5.116
-7.11
-9.49
-12.249
-15.379
-18.87
-22.71
-26.884
-31.378
-36.174
-41.253
-46.595
-52.179
-57.981
-63.98
-70.149
-76.465
-82.902
-89.435
-96.037
-102.685
-109.353
-116.016
-122.65
-129.233
-135.742
-142.156
-148.456
-154.623
-160.64
-166.493
-172.167
-177.649
-182.93
-188
-192.852
-197.479
-201.877
-206.042
-209.971
-213.664
-217.121
-220.343
-223.332
-226.091
-228.624
-230.936
-233.031
-234.917
-236.599
-238.084
-239.381
-240.495
-241.436
-242.21
-242.827
-243.293
-243.616
-243.805
-243.865
-243.805
-243.63
-243.347
-242.961
-242.477
-241.9
-241.235
-240.485
-239.654
-238.745
-237.761
-236.705
-235.581
-234.39
-233.136
-231.821
-230.449
-229.022
-227.543
-226.016
-224.444
-222.83
-221.178
-219.492
-217.775
-216.031
-214.264
-212.477
-210.676
-208.863
-207.043
-205.22
-203.398
-201.58
-199.773
-197.978
-196.2
-194.443
-192.71
-191.005
-189.331
-187.689
-186.083
-184.514
-182.982
-181.489
-180.033
-178.613
-177.227
-175.872
-174.543
-173.236
-171.946
-170.665
-169.386
-168.104
-166.809
-165.492
-164.146
-162.761
-161.327
-159.835
-158.276
-156.638
-154.913
-153.089
-151.158
-149.111
-146.939
-144.634
-142.188
-139.594
-136.845
-133.936
-130.863
-127.621
-124.207
-120.621
-116.862
-112.933
-108.837
-104.578
-100.164
-95.602
-90.903
-86.079
-81.141
-76.105
-70.983
-65.794
-60.553
-55.279
-49.992
-44.712
-39.461
-34.264
-29.146
-24.133
-19.25
-14.522
-9.975
-5.633
-1.519
2.349
5.953
9.275
12.297
15
17.367
19.387
21.048
22.341
23.261
23.802
23.967
23.769
23.215
22.314
21.067
19.463
17.5
15.182
12.519
9.524
6.216
2.619
-1.225
-5.254
-9.404
-13.611
-17.822
-21.999
-26.091
-30.033
-33.752
-37.155
-40.161
-42.715
-44.768
-46.279
-47.24
-47.658
-47.575
-47.096
-46.335
-45.411
-44.465
-43.611
-42.945
-42.606
-42.777
-43.637
-45.308
-47.737
-50.642
-53.677
-56.524
-58.813
-60.043
-59.698
-57.408
-53.287
-48.193
-43.219
-39.292
-37.417
-38.683
-43.987
-53.903
-66.821
-78.671
-85.599
-84.675
-76.189
-62.512
-42.263
-10.35
41.76
122.226
231.514
363.539
507.798
653.258
791.514
913.102
1007.233
1059.901
1056.855
992.795
869.848
701.347
511.634
324.435
164.244
48.628
-20.322
-47.466
-45.293
-28.39
-4.146
21.176
41.229
51.842
49.11
33.858
14.048
-2.853
-12.864
-16.192
-18.084
-22.228
-28.485
-35.029
-39.048
-39.389
-36.876
-32.631
-27.684
-22.717
-18.161
-14.501
-12.076
-10.936
-10.958
-11.955
-13.78
-16.334
-19.485
-23.049
-26.857
-30.786
-34.713
-38.522
-42.066
-45.176
-47.735
-49.675
-50.961
-51.584
-51.553
-50.88
-49.603
-47.78
-45.459
-42.694
-39.535
-36.026
-32.226
-28.2
-24.013
-19.734
-15.41
-11.07
-6.733
-2.407
1.909
6.22
10.538
14.885
19.272
23.71
28.205
32.761
37.382
42.078
46.855
51.72
56.677
61.725
66.865
72.094
77.405
82.793
88.247
93.755
99.307
104.893
110.503
116.128
121.757
127.378
132.981
138.554
144.083
149.556
154.955
160.267
165.473
170.559
175.508
180.303
184.928
189.366
193.601
197.619
201.402
204.936
208.207
211.2
213.901
216.297
218.376
220.126
221.536
222.598
223.303
223.643
223.612
223.205
222.418
221.246
219.689
217.744
215.411
212.689
209.581
206.089
202.216
197.966
193.346
188.36
183.017
177.323
171.287
164.918
158.227
151.223
143.919
136.327
128.46
120.334
111.963
103.365
94.557
85.558
76.386
