Name
Date of Birth,"Mar 27, 1959"
Recorded Date,2021-08-20 13:45:22 -0500
Classification,Sinus Rhythm
Symptoms,
Software Version,1.90
Device,"Watch4,2"
Sample Rate,510.227 hertz


Lead,Lead I
Unit,µV

-140.422
-192.076
-216.107
-213.964
-196.155
-178.09
-168.632
-169.198
-176.64
-185.337
-192.554
-198.486
-204.268
-211.386
-220.09
-229.666
-239.227
-247.847
-255.159
-261.244
-266.228
-270.319
-273.678
-276.337
-278.445
-280.216
-281.63
-282.545
-282.884
-282.621
-281.955
-281.272
-280.66
-279.93
-278.931
-277.352
-274.694
-270.328
-263.158
-251.891
-235.692
-214.125
-186.917
-154.15
-116.142
-73.398
-27.049
21.5
71.064
120.578
169
215.405
258.95
298.901
334.993
367.222
395.645
420.477
442.182
461.45
478.984
495.428
511.19
526.516
541.531
556.182
570.122
582.681
593.257
601.428
606.985
609.914
610.399
608.775
605.537
601.479
597.266
593.281
589.66
586.16
582.089
576.57
568.679
557.248
541.244
519.868
492.547
459.355
421.099
378.953
334.271
288.676
243.805
201.362
162.95
129.496
101.268
78.086
59.44
44.592
32.599
22.164
12.019
1.363
-10.288
-23.102
-37.005
-51.899
-67.485
-83.158
-98.436
-113.097
-127.05
-140.433
-153.462
-166.212
-178.783
-191.269
-203.534
-215.346
-226.416
-236.284
-244.468
-250.638
-254.659
-256.69
-257.173
-256.548
-255.064
-252.898
-250.26
-247.157
-243.156
-237.395
-228.533
-215.066
-195.972
-170.53
-137.95
-97.865
-50.541
3.222
61.614
122.166
182.756
241.302
295.454
343.248
383
413.361
434.193
446.15
449.799
445.962
435.709
419.971
400.072
377.484
352.974
327.026
300.256
273.22
246.674
221.465
197.857
175.798
155.417
136.733
119.631
103.842
88.658
73.342
57.61
41.409
24.726
7.686
-9.573
-26.758
-43.243
-58.499
-72.307
-84.605
-95.471
-105.042
-113.402
-120.72
-127.333
-133.509
-139.409
-145.119
-150.611
-155.852
-160.873
-165.709
-170.382
-174.923
-179.333
-183.613
-187.798
-191.913
-195.977
-200.001
-203.962
-207.855
-211.715
-215.604
-219.617
-223.875
-228.473
-233.492
-239.01
-245.086
-251.775
-259.121
-267.137
-275.827
-285.195
-295.239
-305.969
-317.374
-329.401
-341.974
-354.983
-368.277
-381.699
-395.071
-408.202
-420.93
-433.122
-444.677
-455.52
-465.573
-474.754
-482.974
-490.142
-496.189
-501.038
-504.593
-506.84
-507.858
-507.815
-507.017
-505.753
-504.196
-502.563
-501.095
-499.807
-498.55
-496.954
-494.387
-490.396
-484.815
-477.379
-467.737
-455.884
-442.094
-427.032
-411.816
-397.247
-383.678
-371.655
-362.007
-355.259
-351.591
-350.732
-351.726
-353.685
-356.14
-357.709
-355.717
-347.689
-331.216
-305.318
-271.538
-230.236
-179.93
-117.378
-37.239
62.792
180.456
310.236
444.104
576.021
702.572
819.689
920.872
996.328
1034.158
1025.742
970.068
871.971
742.43
596.399
447.724
310.802
198.202
116.128
66.114
44.351
41.073
46.714
53.381
53.848
46.806
34.115
18.499
5.732
-1.657
-4.153
-2.873
-1.139
-0.103
1.41
4.738
11.867
23.504
38.961
57.491
78.199
100.249
123.041
145.883
168.077
189.25
209.199
227.773
244.828
260.112
273.343
284.336
292.986
299.228
303.108
304.672
304.178
302.291
299.756
297.341
295.106
292.057
287.302
280.83
274.299
270.782
272.134
276.19
276.704
265.179
234.456
184.93
124.799
66.555
23.922
3.262
2.121
13.28
26.485
35.679
40.401
42.485
45.396
50.476
56.795
63.105
67.959
71.036
72.84
73.875
74.764
75.825
77.054
78.397
79.653
80.538
80.814
80.224
78.511
75.517
71.178
65.49
58.508
50.321
41.037
30.79
19.75
8.084
-4.071
-16.57
-29.267
-42.042
-54.775
-67.365
-79.732
-91.783
-103.435
-114.632
-125.324
-135.488
-145.123
-154.233
-162.84
-170.985
-178.712
-186.082
-193.171
-200.028
-206.687
-213.178
-219.518
-225.733
-231.851
-237.883
-243.828
-249.685
-255.446
-261.11
-266.673
-272.119
-277.424
-282.564
-287.507
-292.237
-296.748
-301.04
-305.115
-308.979
-312.638
-316.107
-319.41
-322.564
-325.587
-328.494
-331.299
-334.022
-336.687
-339.316
-341.932
-344.555
-347.202
-349.892
-352.64
-355.461
-358.365
-361.362
-364.458
-367.661
-370.976
-374.411
-377.971
-381.658
-385.475
-389.42
-393.493
-397.691
-402.007
-406.435
-410.963
-415.581
-420.278
-425.038
-429.849
-434.695
-439.56
-444.427
-449.28
-454.099
-458.868
-463.565
-468.174
-472.674
-477.046
-481.272
-485.333
-489.209
-492.882
-496.337
-499.557
-502.525
-505.229
-507.654
-509.789
-511.625
-513.154
-514.367
-515.258
-515.821
-516.052
-515.948
-515.509
-514.734
-513.626
-512.186
-510.419
-508.332
-505.931
-503.22
-500.203
-496.878
-493.252
-489.339
-485.155
-480.718
-476.053
-471.186
-466.15
-460.987
-455.731
-450.413
-445.057
-439.677
-434.294
-428.933
-423.624
-418.401
-413.286
-408.283
-403.387
-398.58
-393.835
-389.107
-384.332
-379.423
-374.301
-368.906
-363.197
-357.152
-350.741
-343.92
-336.626
-328.79
-320.362
-311.315
-301.645
-291.346
-280.408
-268.858
-256.765
-244.233
-231.389
-218.294
-204.926
-191.311
-177.551
-163.762
-150.132
-136.762
-123.58
-110.599
-97.932
-85.542
-73.3
-61.016
-48.324
-35.12
-21.676
-8.147
5.396
18.777
31.894
44.672
56.971
69.138
81.992
96.269
112.671
131.855
154.219
179.954
209.172
241.585
276.535
313.471
351.785
391.53
433.769
479.677
530.597
586.078
643.648
702.584
763.329
829.586
909.258
1006.144
1121.329
1253.063
1391.945
1529.786
1658.592
1768.815
1858.24
1927.542
1979.787
2022.357
2058.751
2089.487
2113.894
2128.978
2133.952
2129.996
2118.369
2101.126
2079.428
2053.345
2022.985
1988.48
1950.066
1908.59
1865.396
1821.375
1777.262
1734.05
1692.56
1653.518
1617.84
1585.909
1557.15
1531.218
1507.974
1486.251
1465.106
1444.363
1422.702
1400.298
1378.221
1354.393
1327.657
1296.542
1259.442
1220.636
1184.588
1155.208
1135.982
1124.56
1119.19
1120.967
1131.512
1155.566
1196.761
1253.429
1322.279
1398.211
1473.505
1541.574
1593.909
1620.426
1613.305
1566.468
1479.67
1357.79
1208.97
1045.843
881.251
728.451
600.599
504.882
442.992
411.054
398.331
393.924
389.247
377.294
357.578
332.83
306.571
285.06
270.695
262.426
258.074
252.685
243.705
231.48
216.863
201.644
186.573
171.325
155.966
140.99
127.141
114.973
104.589
95.844
88.607
82.749
78.023
73.878
69.584
64.687
58.987
52.423
45.077
37.019
28.341
19.292
10.181
1.202
-7.544
-16.022
-24.25
-32.192
-39.774
-46.948
-53.676
-59.921
-65.636
-70.748
-75.2
-78.969
-82.066
-84.525
-86.38
-87.651
-88.361
-88.538
-88.224
-87.471
-86.343
-84.91
-83.239
-81.387
-79.415
-77.379
-75.326
-73.291
-71.294
-69.341
-67.439
-65.597
-63.823
-62.124
-60.498
-58.942
-57.444
-55.992
-54.578
-53.197
-51.847
-50.528
-49.243
-47.998
-46.806
-45.683
-44.646
-43.705
-42.874
-42.164
-41.586
-41.153
-40.878
-40.773
-40.847
-41.108
-41.565
-42.221
-43.081
-44.148
-45.423
-46.905
-48.592
-50.485
-52.582
-54.882
-57.383
-60.081
-62.974
-66.055
-69.32
-72.762
-76.373
-80.142
-84.061
-88.119
-92.306
-96.609
-101.017
-105.516
-110.096
-114.742
-119.441
-124.182
-128.952
-133.738
-138.528
-143.313
-148.08
-152.82
-157.524
-162.183
-166.789
-171.336
-175.815
-180.222
-184.552
-188.8
-192.963
-197.038
-201.024
-204.921
-208.727
-212.446
-216.077
-219.625
-223.093
-226.484
-229.805
-233.059
-236.253
-239.393
-242.486
-245.536
-248.551
-251.537
-254.499
-257.443
-260.374
-263.297
-266.216
-269.133
-272.053
-274.977
-277.906
-280.841
-283.782
-286.728
-289.677
-292.628
-295.575
-298.517
-301.448
-304.362
-307.254
-310.117
-312.944
-315.728
-318.459
-321.131
-323.734
-326.26
-328.7
-331.045
-333.288
-335.42
-337.433
-339.321
-341.076
-342.695
-344.17
-345.5
-346.68
-347.709
-348.586
-349.311
-349.885
-350.31
-350.591
-350.73
-350.734
-350.61
-350.365
-350.008
-349.547
-348.993
-348.357
-347.651
-346.885
-346.073
-345.228
-344.36
-343.485
-342.614
-341.759
-340.933
-340.148
-339.413
-338.74
-338.138
-337.614
-337.176
-336.83
-336.581
-336.433
-336.387
-336.445
-336.606
-336.868
-337.229
-337.683
-338.225
-338.846
-339.539
-340.294
-341.098
-341.941
-342.808
-343.686
-344.561
-345.416
-346.237
-347.007
-347.71
-348.33
-348.85
-349.255
-349.53
-349.659
-349.63
-349.429
-349.046
-348.47
-347.691
-346.704
-345.502
-344.08
-342.435
-340.567
-338.476
-336.165
-333.638
-330.902
-327.966
-324.842
-321.543
-318.087
-314.49
-310.771
-306.95
-303.051
-299.095
-295.105
-291.105
-287.119
-283.174
-279.293
-275.505
-271.836
-268.312
-264.955
-261.788
-258.831
-256.103
-253.618
-251.391
-249.437
-247.767
-246.4
-245.349
-244.627
-244.242
-244.199
-244.494
-245.118
-246.054
-247.273
-248.745
-250.439
-252.32
-254.359
-256.519
-258.754
-261.022
-263.271
-265.453
-267.53
-269.451
-271.158
-272.628
-273.857
-274.869
-275.745
-276.527
-277.217
-277.911
-278.763
-279.93
-281.614
-283.877
-286.645
-289.998
-294.093
-298.876
-304.088
-309.259
-313.741
-317.217
-319.676
-320.855
-320.419
-318.301
-314.824
-310.866
-307.592
-305.75
-305.634
-307.583
-311.938
-318.272
-325.027
-329.965
-330.352
-324.873
-313.984
-297.312
-273.802
-240.389
-192.462
-127.401
-44.506
53.939
163.422
278.029
390.354
492.393
574.062
626.728
643.534
619.595
556.412
457.849
331.741
191.152
49.081
-79.813
-182.489
-252.59
-288.505
-294.036
-278.902
-253.229
-226.519
-208.202
-200.999
-203.284
-211.481
-217.986
-219.466
-216.993
-212.622
-210.97
-214.098
-220.724
-229.008
-236.409
-241.215
-243.049
-241.99
-238.314
-232.365
-224.642
-215.731
-206.253
-196.944
-188.328
-180.63
-173.99
-168.38
-163.653
-159.702
-156.368
-153.396
-150.635
-148.002
-145.44
-142.992
-140.678
-138.491
-136.458
-134.6
-132.922
-131.44
-130.155
-129.037
-128.067
-127.202
-126.376
-125.561
-124.721
-123.829
-122.857
-121.752
-120.473
-118.999
-117.307
-115.39
-113.242
-110.847
-108.198
-105.312
-102.211
-98.938
-95.557
-92.1
-88.599
-85.08
-81.567
-78.092
-74.683
-71.348
-68.086
-64.896
-61.777
-58.73
-55.76
-52.852
-49.988
-47.149
-44.306
-41.444
-38.555
-35.634
-32.677
-29.685
-26.66
-23.614
-20.566
-17.533
-14.529
-11.569
-8.667
-5.84
-3.109
-0.493
1.988
4.317
6.478
8.456
10.238
11.811
13.167
14.298
15.201
15.869
16.298
16.487
16.431
16.131
15.588
14.804
13.783
12.531
11.055
9.365
7.473
5.39
3.13
0.71
-1.856
-4.548
-7.35
-10.242
-13.204
-16.217
-19.26
-22.312
-25.354
-28.366
-31.328
-34.221
-37.027
-39.729
-42.309
-44.753
-47.046
-49.176
-51.129
-52.897
-54.469
-55.838
-56.999
-57.945
-58.675
-59.185
-59.477
-59.552
-59.411
-59.061
-58.505
-57.75
-56.805
-55.678
-54.379
-52.917
-51.303
-49.55
-47.668
-45.671
-43.57
-41.378
-39.108
-36.773
-34.384
-31.954
-29.495
-27.018
-24.534
-22.053
-19.585
-17.139
-14.724
-12.345
-10.012
-7.729
-5.501
-3.334
-1.23
0.808
2.777
4.675
6.503
8.259
9.944
11.559
13.104
14.581
15.991
17.336
18.618
19.838
20.999
22.102
23.15
24.143
25.085
25.976
26.818
27.611
28.357
29.056
29.709
30.315
30.875
31.387
31.852
32.267
32.631
32.943
33.201
33.402
33.545
33.627
33.646
33.6
33.487
33.304
33.049
32.721
32.319
31.84
31.285
30.654
29.945
29.16
28.3
27.366
26.361
25.288
24.148
22.948
21.689
20.378
19.02
17.62
16.185
14.721
13.237
11.739
10.237
8.738
7.253
5.79
4.359
2.969
1.631
0.354
-0.853
-1.98
-3.017
-3.955
-4.785
-5.498
-6.087
-6.543
-6.859
-7.03
-7.05
-6.914
-6.618
-6.16
-5.538
-4.751
-3.799
-2.683
-1.403
0.036
1.63
3.375
5.263
7.286
9.435
11.697
14.058
16.506
19.024
21.597
24.209
26.842
29.479
32.101
34.69
37.226
39.69
42.061
44.319
46.443
48.416
50.22
51.843
53.272
54.495
55.503
56.284
56.83
57.134
57.185
56.977
56.508
55.774
54.776
53.527
52.038
50.328
48.424
46.348
44.127
41.789
39.36
36.88
34.384
31.906
29.482
27.134
24.889
22.793
20.881
19.184
17.713
16.423
15.273
14.267
13.352
12.437
11.36
9.821
7.645
4.834
1.383
-2.702
-7.335
-12.416
-17.518
-21.791
-24.647
-25.828
-25.199
-22.852
-18.875
-13.315
-6.849
-0.863
3.493
5.436
4.574
1.04
-5.06
-13.58
-23.505
-32.77
-39.06
-40.044
-33.567
-17.885
8.843
48.488
101.551
166.569
241.164
321.937
406.27
493.481
581.783
668.564
748.531
812.126
850.667
856.09
823.632
755.289
654.982
531.15
396.198
262.561
144.827
54.537
-3.552
-30.192
-31.435
-15.715
9.166
36.711
60.093
73.988
76.818
69.458
56.996
45.637
37.451
32.749
29.866
25.988
21.271
16.773
13.295
12.28
14.145
18.319
24.27
31.062
37.539
43.168
47.769
51.18
53.382
54.391
54.203
53.011
51.193
48.976
46.461
43.73
40.808
37.803
34.898
32.232
29.901
27.974
26.493
25.492
25.004
25.037
25.564
26.549
27.951
29.748
31.936
34.525
37.51
40.847
44.468
48.29
52.226
56.21
60.196
64.141
68.016
71.806
75.503
79.119
82.661
86.126
89.5
92.755
95.867
98.83
101.649
104.339
106.924
109.419
111.838
114.199
116.511
118.778
121.001
123.17
125.275
127.31
129.276
131.175
133.014
134.793
136.511
138.167
139.755
141.272
142.711
144.063
145.323
146.483
147.54
148.491
149.333
150.065
150.681
151.178
151.55
151.792
151.898
151.861
151.674
151.331
150.827
150.156
149.314
148.297
147.103
145.728
144.171
142.429
140.502
138.389
136.091
133.609
130.944
128.099
125.078
121.885
118.526
115.006
111.333
107.514
103.559
99.475
95.273
90.962
86.554
82.059
77.49
72.859
68.179
63.462
58.722
53.972
49.226
44.495
39.794
35.134
30.526
25.984
21.517
17.135
12.849
8.668
4.6
0.653
-3.166
-6.851
-10.397
-13.798
-17.051
-20.152
-23.101
-25.894
-28.532
-31.013
-33.34
-35.513
-37.534
-39.407
-41.134
-42.72
-44.169
-45.486
-46.677
-47.747
-48.702
-49.549
-50.294
-50.943
-51.504
-51.981
-52.382
-52.714
-52.981
-53.189
-53.345
-53.453
-53.518
-53.544
-53.536
-53.497
-53.431
-53.34
-53.228
-53.098
-52.952
-52.792
-52.62
-52.439
-52.248
-52.051
-51.847
-51.638
-51.424
-51.206
-50.984
-50.759
-50.531
-50.3
-50.066
-49.83
-49.591
-49.35
-49.105
-48.858
-48.609
-48.358
-48.106
-47.855
-47.606
-47.36
-47.12
-46.889
-46.668
-46.46
-46.266
-46.09
-45.932
-45.795
-45.681
-45.59
-45.525
-45.488
-45.48
-45.502
-45.556
-45.642
-45.762
-45.914
-46.101
-46.322
-46.576
-46.864
-47.185
-47.539
-47.927
-48.346
-48.797
-49.277
-49.784
-50.315
-50.864
-51.428
-52
-52.572
-53.138
-53.693
-54.231
-54.746
-55.231
-55.683
-56.097
-56.471
-56.8
-57.075
-57.291
-57.439
-57.513
-57.506
-57.41
-57.216
-56.919
-56.512
-55.996
-55.368
-54.624
-53.758
-52.757
-51.619
-50.346
-48.94
-47.41
-45.762
-44.014
-42.19
-40.328
-38.464
-36.623
-34.82
-33.06
-31.35
-29.699
-28.114
-26.601
-25.154
-23.758
-22.409
-21.106
-19.842
-18.6
-17.341
-16.001
-14.534
-12.914
-11.137
-9.217
-7.169
-5.015
-2.803
-0.593
1.529
3.487
5.222
6.699
7.873
8.699
9.115
9.04
8.431
7.266
5.539
3.262
0.438
-2.888
-6.619
-10.615
-14.711
-18.765
-22.697
-26.433
-29.877
-32.993
-35.782
-38.309
-40.765
-43.251
-45.731
-48.184
-50.566
-52.797
-54.882
-56.696
-57.869
-58.29
-58.036
-57.154
-55.89
-54.429
-52.695
-50.826
-49.221
-47.938
-47.004
-46.585
-46.495
-46.688
-47.49
-48.971
-51.013
-53.797
-56.48
-57.109
-54.346
-46.446
-33.115
-16.251
4.756
32.007
69.684
124.43
198.097
288.173
389.459
493.621
594.392
687.762
768.365
829.962
866.533
871.59
842.144
780.589
690.043
577.522
453.868
329.607
218.744
132.914
75.245
43.831
29.701
21.54
13.973
5.298
-2.654
-6.33
-5.937
-3.743
-2.199
-3.626
-8.193
-14.723
-22.158
-29.338
-35.354
-39.627
-41.627
-41.261
-38.908
-35.12
-30.537
-25.774
-21.311
-17.568
-14.891
-13.403
-13.072
-13.786
-15.346
-17.57
-20.298
-23.345
-26.553
-29.788
-32.912
-35.797
-38.322
-40.354
-41.801
-42.619
-42.772
-42.265
-41.116
-39.351
-37.024
-34.204
-30.953
-27.337
-23.417
-19.247
-14.896
-10.433
-5.927
-1.447
2.959
7.261
11.432
15.461
19.343
23.077
26.671
30.141
33.496
36.743
39.887
42.932
45.885
48.755
51.552
54.283
56.957
59.577
62.148
64.674
67.155
69.593
71.985
74.33
76.628
78.879
81.085
83.246
85.363
87.436
89.464
91.446
93.381
95.263
97.089
98.852
100.546
102.165
103.7
105.146
106.492
107.731
108.854
109.852
110.715
111.434
112.001
112.407
112.643
112.703
112.579
112.265
111.757
111.048
110.136
109.017
107.689
106.151
104.402
102.443
100.275
97.9
95.322
92.546
89.577
86.423
83.09
79.588
75.927
72.117
68.169
64.095
59.909
55.622
51.249
46.803
42.298
37.75
33.171
28.577
23.98
19.395
14.833
10.307
5.829
1.409
-2.941
-7.213
-11.397
-15.484
-19.467
-23.339
-27.095
-30.728
-34.235
-37.612
-40.856
-43.965
-46.939
-49.777
-52.478
-55.045
-57.478
-59.779
-61.952
-63.999
-65.926
-67.736
-69.435
-71.027
-72.519
-73.915
-75.221
-76.442
-77.585
-78.653
-79.652
-80.586
-81.462
-82.282
-83.051
-83.772
-84.451
-85.089
-85.69
-86.256
-86.79
-87.294
-87.769
-88.218
-88.641
-89.039
-89.415
-89.768
-90.101
-90.412
-90.703
-90.974
-91.224
-91.455
-91.664
-91.853
-92.022
-92.169
-92.296
-92.403
-92.49
-92.559
-92.61
-92.645
-92.665
-92.673
-92.67
-92.658
-92.641
-92.622
-92.603
-92.588
-92.581
-92.585
-92.605
-92.643
-92.703
-92.789
-92.905
-93.054
-93.239
-93.463
-93.73
-94.042
-94.403
-94.814
-95.278
-95.798
-96.374
-97.008
-97.701
-98.452
-99.261
-100.127
-101.052
-102.031
-103.065
-104.148
-105.276
-106.445
-107.655
-108.893
-110.149
-111.415
-112.676
-113.93
-115.178
-116.406
-117.595
-118.756
-119.894
-121.01
-122.111
-123.174
-124.162
-125.081
-125.95
-126.685
-127.194
-127.518
-127.644
-127.549
-127.41
-126.72
-124.989
-122.904
-120.67
-119.559
-121.094
-123.583
-125.901
-126.373
-122.698
-116.914
-110.754
-105.404
-102.826
-101.629
-100.406
-98.85
-96.11
-92.698
-89.271
-85.722
-82.148
-78.524
-74.738
-70.897
-67.088
-63.31
-59.578
-55.922
-52.363
-48.915
-45.597
-42.418
-39.382
-36.518
-33.851
-31.398
-29.177
-27.202
-25.483
-24.03
-22.854
-21.958
-21.346
-21.021
-20.983
-21.241
-21.796
-22.648
-23.793
-25.225
-26.926
-28.879
-31.055
-33.418
-35.933
-38.562
-41.268
-44.016
-46.762
-49.464
-52.076
-54.549
-56.851
-58.945
-60.784
-62.329
-63.551
-64.45
-65.085
-65.516
-65.76
-65.895
-66.019
-66.301
-67.031
-68.369
-70.32
-72.908
-76.172
-80.045
-84.419
-88.881
-92.595
-94.977
-95.759
-94.715
-91.759
-86.917
-80.262
-72.429
-64.893
-58.987
-55.596
-55.479
-58.552
-63.838
-70.359
-76.467
-81.085
-84.931
-88.143
-89.515
-84.1
-63.562
-20.939
47.686
139.408
246.852
363.283
481.285
595.961
701.503
787.444
844.861
864.804
842.203
780.456
684.167
562.058
426.743
289.316
164.078
63.041
-9.529
-53.788
-77.079
-88.71
-94.426
-98.266
-100.242
-99.838
-97.497
-92.274
-84.609
-74.649
-62.821
-51.941
-44.142
-40.616
-41.469
-45.017
-49.85
-55.485
-61.667
-68.207
-74.452
-79.475
-82.83
-84.586
-85.057
-84.508
-83.133
-81.191
-79.173
-77.72
-77.199
-77.659
-78.988
-80.98
-83.442
-86.201
-88.976
-91.41
-93.277
-94.481
-94.995
-94.881
-94.18
-92.902
-91.098
-88.837
-86.175
-83.163
-79.839
-76.223
-72.362
-68.311
-64.13
-59.879
-55.602
-51.321
-47.058
-42.824
-38.623
-34.461
-30.336
-26.242
-22.175
-18.136
-14.125
-10.143
-6.187
-2.253
1.662
5.565
9.457
13.336
17.201
21.046
24.867
28.656
32.408
36.114
39.766
43.36
46.889
50.35
53.737
57.043
60.263
63.392
66.423
69.349
72.164
74.862
77.436
79.879
82.185
84.349
86.364
88.227
89.93
91.471
92.844
94.046
95.074
95.925
96.598
97.091
97.405
97.538
97.492
97.269
96.871
96.301
95.563
94.66
93.597
92.38
91.013
89.502
87.854
86.074
84.169
82.147
80.014
77.778
75.447
73.028
70.528
67.957
65.32
62.625
59.881
57.093
54.269
51.416
48.54
45.647
42.743
39.835
36.927
34.025
31.133
28.255
25.396
22.56
19.75
16.97
14.222
11.509
8.835
6.202
3.614
1.071
-1.423
-3.866
-6.255
-8.59
-10.869
-13.088
-15.248
-17.347
-19.382
-21.354
-23.261
-25.101
-26.875
-28.581
-30.22
-31.79
-33.292
-34.726
-36.093
-37.392
-38.625
-39.791
-40.893
-41.931
-42.906
-43.819
-44.673
-45.468
-46.208
-46.893
-47.526
-48.11
-48.647
-49.14
-49.59
-50.001
-50.376
-50.716
-51.024
-51.304
-51.557
-51.786
-51.994
-52.184
-52.357
-52.516
-52.663
-52.8
-52.929
-53.051
-53.169
-53.284
-53.397
-53.51
-53.624
-53.74
-53.86
-53.984
-54.115
-54.253
-54.398
-54.553
-54.718
-54.894
-55.082
-55.283
-55.499
-55.731
-55.98
-56.249
-56.537
-56.849
-57.184
-57.545
-57.933
-58.349
-58.796
-59.275
-59.788
-60.336
-60.92
-61.542
-62.204
-62.907
-63.65
-64.436
-65.263
-66.132
-67.042
-67.993
-68.983
-70.011
-71.075
-72.174
-73.304
-74.462
-75.646
-76.851
-78.072
-79.305
-80.544
-81.783
-83.015
-84.233
-85.432
-86.604
-87.741
-88.837
-89.884
-90.875
-91.802
-92.659
-93.437
-94.129
-94.729
-95.231
-95.628
-95.917
-96.092
-96.149
-96.087
-95.902
-95.593
-95.159
-94.6
-93.918
-93.114
-92.192
-91.155
-90.01
-88.764
-87.423
-85.999
-84.504
-82.951
-81.352
-79.724
-78.082
-76.442
-74.821
-73.236
-71.703
-70.235
-68.851
-67.566
-66.396
-65.36
-64.474
-63.752
-63.208
-62.855
-62.705
-62.767
-63.046
-63.545
-64.269
-65.223
-66.421
-67.873
-69.586
-71.561
-73.795
-76.279
-78.998
-81.93
-85.037
-88.278
-91.614
-95.006
-98.424
-101.84
-105.215
-108.502
-111.643
-114.578
-117.261
-119.653
-121.723
-123.464
-124.884
-126.024
-126.959
-127.766
-128.524
-129.316
-130.221
-131.324
-132.715
-134.469
-136.682
-139.498
-142.996
-147.179
-151.934
-156.978
-162.001
-166.713
-170.717
-173.539
-174.818
-174.355
-172.333
-169.371
-166.059
-162.964
-160.754
-159.995
-161.177
-164.05
-167.011
-167.994
-164.871
-156.736
-144.324
-127.689
-105.879
-75.712
-32.377
27.506
105.262
198.586
302.746
411.438
516.919
611.629
686.095
731.167
739.253
703.933
625.047
507.377
361.069
204.001
54.585
-70.264
-158.155
-208.971
-229.144
-227.668
-215.81
-198.906
-179.558
-162.584
-150.354
-144.745
-146.372
-150.501
-152.233
-149.83
-143.447
-135.934
-130.729
-128.489
-128.321
-128.981
-128.878
-127.193
-123.827
-118.815
-112.398
-104.956
-96.92
-88.669
-80.656
-73.497
-67.662
-63.414
-60.869
-59.929
-60.396
-62.097
-64.771
-68.045
-71.615
-75.268
-78.843
-82.268
-85.468
-88.305
-90.684
-92.539
-93.795
-94.407
-94.34
-93.549
-92.026
-89.806
-86.934
-83.486
-79.542
-75.155
-70.382
-65.284
-59.924
-54.389
-48.748
-43.051
-37.345
-31.668
-26.047
-20.513
-15.08
-9.743
-4.497
0.669
5.768
10.802
15.776
20.701
25.591
30.466
35.34
40.214
45.09
49.964
54.831
59.684
64.513
69.295
74.014
78.651
83.192
87.621
91.925
96.085
100.083
103.901
107.522
110.933
114.117
117.063
119.756
122.185
124.341
126.216
127.803
129.093
130.08
130.758
131.12
131.164
130.885
130.284
129.358
128.109
126.542
124.662
122.475
119.992
117.221
114.178
110.875
107.329
103.56
99.585
95.425
91.101
86.634
82.047
77.362
72.6
67.786
62.943
58.097
53.277
48.509
43.824
39.251
34.819
30.555
26.485
22.636
19.029
15.685
12.624
9.869
7.441
5.366
3.665
2.352
1.434
0.916
0.79
1.043
1.659
2.617
3.9
5.498
7.41
9.644
12.207
15.108
18.345
21.902
25.764
29.918
34.355
39.068
44.066
49.364
54.985
60.961
67.303
74.007
81.037
88.334
95.823
103.412
111.026
118.607
126.1
133.456
140.625
147.554
154.179
160.427
166.211
171.431
176.008
179.891
183.061
185.541
187.377
188.644
189.406
189.714
189.61
189.128
188.298
187.15
185.721
184.053
182.204
180.253
178.266
176.294
174.365
172.478
170.609
168.716
166.761
164.717
162.565
160.3
157.922
155.436
152.853
150.182
147.424
144.567
141.6
138.515
135.315
132.016
128.642
125.227
121.803
118.399
115.04
111.74
108.512
105.362
102.29
99.294
96.374
93.534
90.78
88.119
85.555
83.09
80.724
78.456
76.282
74.2
72.209
70.306
68.493
66.77
65.143
63.615
62.192
60.877
59.674
58.586
57.615
56.764
56.034
55.428
54.948
54.597
54.375
54.286
54.332
54.515
54.836
55.297
55.897
56.637
57.517
58.534
59.686
60.971
62.384
63.92
65.573
67.337
69.205
71.167
73.215
75.337
77.522
79.76
82.037
84.339
86.651
88.959
91.246
93.494
95.686
97.8
99.817
101.716
103.475
105.075
106.496
107.717
108.723
109.495
110.02
110.282
110.266
109.956
109.341
108.41
107.151
105.561
103.635
101.371
98.777
95.856
92.613
89.047
85.154
80.93
76.381
71.515
66.339
60.872
55.135
49.164
43.013
36.728
30.354
23.929
17.48
11.055
4.722
-1.456
-7.406
-13.062
-18.402
-23.365
-27.877
-31.97
-35.681
-39.075
-42.296
-45.363
-48.25
-51.073
-53.927
-56.759
-59.613
-62.489
-65.302
-68.296
-71.628
-75.125
-78.686
-82.302
-85.794
-89.059
-91.998
-94.079
-95.097
-95.373
-95.114
-94.627
-94.365
-94.568
-95.66
-97.856
-100.018
-100.536
-97.923
-91.908
-84.606
-77.346
-68.768
-54.003
-24.376
26.563
99.368
189.134
286.202
381.807
472.104
555.601
630.091
690.571
726.877
727.922
688.54
609.316
498.494
370.559
239.921
120.879
24.673
-43.317
-83.325
-99.857
-98.731
-86.74
-67.949
-46.446
-28.871
-18.045
-15.69
-20.644
-26.538
-30.392
-31.789
-31.667
-33.897
-39.788
-48.157
-57.631
-66.01
-72.165
-76.154
-78.1
-78.368
-77.438
-75.756
-73.848
-72.296
-71.463
-71.545
-72.639
-74.698
-77.594
-81.143
-85.101
-89.165
-93.097
-96.727
-99.911
-102.594
-104.749
-106.353
-107.417
-107.969
-108.034
-107.643
-106.833
-105.627
-104.054
-102.155
-99.969
-97.55
-94.955
-92.238
-89.455
-86.648
-83.843
-81.065
-78.329
-75.643
-73.011
-70.431
-67.893
-65.393
-62.927
-60.491
-58.082
-55.69
-53.307
-50.926
-48.539
-46.141
-43.727
-41.293
-38.837
-36.357
-33.852
-31.324
-28.774
-26.203
-23.611
-21
-18.369
-15.72
-13.057
-10.38
-7.693
-5.001
-2.308
0.38
3.056
5.713
8.342
10.936
13.486
15.981
18.412
20.771
23.045
25.226
27.303
29.265
31.104
32.81
34.373
35.785
37.038
38.124
39.038
39.772
40.324
40.688
40.862
40.843
40.632
40.228
39.632
38.847
37.875
36.722
35.393
33.893
32.231
30.414
28.45
26.349
24.122
21.779
19.33
16.787
14.161
11.465
8.709
5.906
3.068
0.206
-2.668
-5.543
-8.409
-11.256
-14.072
-16.851
-19.582
-22.258
-24.872
-27.417
-29.888
-32.28
-34.589
-36.812
-38.946
-40.989
-42.941
-44.8
-46.567
-48.243
-49.827
-51.322
-52.729
-54.052
-55.292
-56.452
-57.535
-58.546
-59.486
-60.36
-61.172
-61.924
-62.621
-63.266
-63.862
-64.414
-64.924
-65.396
-65.833
-66.237
-66.611
-66.956
-67.276
-67.571
-67.842
-68.091
-68.318
-68.523
-68.708
-68.871
-69.014
-69.136
-69.237
-69.318
-69.377
-69.415
-69.432
-69.428
-69.404
-69.358
-69.292
-69.207
-69.102
-68.978
-68.837
-68.679
-68.505
-68.317
-68.115
-67.901
-67.675
-67.44
-67.197
-66.947
-66.693
-66.436
-66.177
-65.919
-65.663
-65.412
-65.167
-64.929
-64.701
-64.484
-64.279
-64.087
-63.909
-63.746
-63.599
-63.467
-63.35
-63.249
-63.163
-63.09
-63.03
-62.982
-62.943
-62.913
-62.889
-62.868
-62.849
-62.829
-62.805
-62.774
-62.735
-62.684
-62.618
-62.535
-62.433
-62.309
-62.159
-61.983
-61.777
-61.539
-61.267
-60.958
-60.61
-60.222
-59.792
-59.319
-58.801
-58.238
-57.629
-56.972
-56.269
-55.519
-54.721
-53.878
-52.989
-52.056
-51.082
-50.068
-49.017
-47.931
-46.814
-45.669
-44.5
-43.31
-42.104
-40.886
-39.661
-38.433
-37.208
-35.992
-34.788
-33.605
-32.451
-31.334
-30.265
-29.255
-28.313
-27.451
-26.68
-26.008
-25.441
-24.986
-24.646
-24.426
-24.334
-24.376
-24.556
-24.881
-25.352
-25.97
-26.733
-27.632
-28.652
-29.783
-31.015
-32.347
-33.789
-35.348
-37.029
-38.834
-40.765
-42.815
-44.969
-47.202
-49.479
-51.771
-54.066
-56.352
-58.627
-60.871
-63.046
-65.1
-66.975
-68.601
-69.902
-70.856
-71.477
-71.846
-72.111
-72.404
-72.838
-73.507
-74.478
-75.677
-76.892
-77.822
-78.108
-77.577
-76.209
-74.061
-71.21
-67.843
-64.349
-61.211
-58.907
-57.6
-57.233
-57.693
-58.993
-61.348
-64.869
-69.516
-75.165
-81.932
-89.975
-99.123
-108.738
-116.89
-120.73
-118.324
-108.223
-89.625
-63.202
-27.565
19.703
79.737
153.838
239.893
332.841
427.413
517.35
596.462
658.257
696.671
705.429
679.754
619.369
525.242
404.189
269.506
135.423
20.307
-62.36
-110.739
-128.513
-128.025
-122.024
-114.676
-108.554
-101.86
-91.944
-81.522
-71.635
-63.662
-59.284
-57.282
-58.118
-62.07
-68.082
-75.651
-82.984
-88.337
-91.238
-91.332
-88.787
-84.172
-77.904
-70.583
-63.063
-56.091
-50.136
-45.51
-42.284
-40.367
-39.685
-40.094
-41.386
-43.351
-45.792
-48.551
-51.516
-54.578
-57.636
-60.596
-63.341
-65.803
-67.942
-69.716
-71.12
-72.159
-72.814
-73.083
-72.953
-72.389
-71.392
-69.977
-68.159
-65.988
-63.516
-60.796
-57.915
-54.942
-51.913
-48.86
-45.787
-42.684
-39.558
-36.414
-33.251
-30.085
-26.924
-23.774
-20.644
-17.532
-14.426
-11.308
-8.147
-4.914
-1.595
1.819
5.329
8.929
12.614
16.376
20.199
24.074
27.993
31.946
35.928
39.931
43.941
47.943
51.917
55.845
59.708
63.487
67.165
70.726
74.155
77.436
80.559
83.512
86.28
88.851
91.211
93.346
95.245
96.896
98.287
99.41
100.255
100.816
101.089
101.071
100.76
100.154
99.255
98.065
96.586
94.825
92.786
90.477
87.906
85.082
82.018
78.725
75.216
71.506
67.61
63.544
59.325
54.97
50.496
45.921
41.263
36.541
31.775
26.981
22.18
17.389
12.627
7.91
3.256
-1.321
-5.804
-10.181
-14.438
-18.564
-22.547
-26.379
-30.049
-33.552
-36.879
-40.025
-42.986
-45.759
-48.341
-50.73
-52.928
-54.934
-56.751
-58.381
-59.828
-61.097
-62.194
-63.124
-63.896
-64.517
-64.995
-65.341
-65.563
-65.671
-65.677
-65.589
-65.418
-65.175
-64.87
-64.512
-64.112
-63.678
-63.221
-62.748
-62.268
-61.788
-61.317
-60.861
-60.426
-60.018
-59.642
-59.304
-59.007
-58.756
-58.553
-58.402
-58.304
-58.262
-58.275
-58.344
-58.47
-58.65
-58.884
-59.169
-59.503
-59.883
-60.306
-60.77
-61.269
-61.8
-62.359
-62.943
-63.546
-64.165
-64.796
-65.433
-66.075
-66.716
-67.352
-67.981
-68.599
-69.202
-69.788
-70.353
-70.894
-71.409
-71.895
-72.349
-72.769
-73.154
-73.501
-73.809
-74.077
-74.304
-74.49
-74.634
-74.736
-74.797
-74.818
-74.798
-74.738
-74.641
-74.506
-74.336
-74.131
-73.893
-73.623
-73.324
-72.996
-72.641
-72.26
-71.855
-71.426
-70.976
-70.504
-70.013
-69.502
-68.973
-68.427
-67.863
-67.283
-66.687
-66.074
-65.446
-64.802
-64.141
-63.464
-62.769
-62.055
-61.322
-60.568
-59.792
-58.992
-58.168
-57.317
-56.439
-55.533
-54.596
-53.629
-52.63
-51.6
-50.537
-49.441
-48.312
-47.152
-45.962
-44.742
-43.497
-42.228
-40.942
-39.644
-38.341
-37.039
-35.746
-34.469
-33.215
-31.994
-30.814
-29.683
-28.609
-27.599
-26.664
-25.815
-25.061
-24.411
-23.871
-23.445
-23.14
-22.963
-22.915
-22.999
-23.217
-23.568
-24.062
-24.706
-25.504
-26.46
-27.57
-28.825
-30.215
-31.725
-33.33
-35.004
-36.716
-38.436
-40.136
-41.788
-43.361
-44.825
-46.14
-47.276
-48.2
-48.873
-49.259
-49.346
-49.139
-48.694
-48.072
-47.289
-46.413
-45.578
-44.978
-44.843
-45.297
-46.304
-47.85
-50.054
-52.954
-56.391
-59.909
-62.816
-64.645
-65.324
-64.861
-63.047
-59.69
-54.934
-49.546
-44.802
-41.85
-41.247
-43.042
-47.517
-54.516
-62.887
-70.81
-75.598
-75.643
-71.127
-61.974
-47.44
-23.807
14.201
69.21
142.567
231.153
329.556
434.476
539.708
638.685
723.383
782.497
807.352
792.353
737.365
647.367
530.595
399.047
264.817
140.744
39.326
-32.6
-72.885
-84.265
-76.422
-60.093
-44.531
-38.21
-42.499
-53.83
-67.31
-75.682
-75.785
-68.662
-56.984
-45.515
-36.858
-31.431
-28.746
-27.24
-26.562
-27.31
-29.755
-34.052
-39.655
-45.296
-50.265
-54.347
-57.291
-59.045
-59.652
-59.118
-57.845
-56.555
-55.654
-55.273
-55.433
-55.933
-56.579
-57.274
-57.806
-57.89
-57.375
-56.185
-54.322
-51.897
-48.997
-45.674
-41.999
-38.038
-33.843
-29.476
-24.993
-20.441
-15.881
-11.362
-6.923
-2.596
1.597
5.646
9.543
13.294
16.913
20.404
23.77
27.01
30.121
33.108
35.98
38.747
41.42
44.01
46.528
48.985
51.393
53.759
56.09
58.389
60.661
62.911
65.146
67.373
69.601
71.836
74.084
76.35
78.64
80.957
83.3
85.672
88.068
90.488
92.928
95.384
97.85
100.32
102.787
105.243
107.679
110.087
112.455
114.773
117.03
119.215
121.318
123.326
125.23
127.018
128.68
130.207
131.59
132.819
133.888
134.789
135.515
136.062
136.423
136.596
136.578
136.367
135.962
135.365
134.576
133.599
132.437
131.095
129.579
127.895
126.051
124.054
121.912
119.635
117.233
114.714
112.089
109.368
106.562
103.679
100.73
97.723
94.669
91.576
88.451
85.304
82.14
78.967
75.792
72.62
69.457
66.307
63.175
60.066
56.983
53.929
50.906
47.918
44.966
42.052
39.177
36.342
33.547
30.793
28.08
25.408
22.777
20.188
17.639
15.132
12.667
10.243
7.862
5.525
3.234
0.989
-1.207
-3.352
-5.442
-7.476
-9.45
-11.361
-13.205
-14.98
-16.682
-18.308
-19.854
-21.317
-22.696
-23.987
-25.187
-26.296
-27.31
-28.229
-29.051
-29.775
-30.402
-30.931
-31.363
-31.698
-31.938
-32.084
-32.139
-32.106
-31.988
-31.789
-31.514
-31.168
-30.756
-30.285
-29.762
-29.192
-28.585
-27.947
-27.287
-26.611
-25.93
-25.249
-24.578
-23.923
-23.293
-22.695
-22.135
-21.619
-21.154
-20.746
-20.399
-20.118
-19.907
-19.77
-19.711
-19.731
-19.833
-20.019
-20.29
-20.645
-21.085
-21.608
-22.214
-22.901
-23.664
-24.502
-25.409
-26.382
-27.415
-28.501
-29.635
-30.81
-32.018
-33.253
-34.505
-35.768
-37.033
-38.293
-39.539
-40.764
-41.96
-43.119
-44.232
-45.293
-46.293
-47.225
-48.081
-48.855
-49.539
-50.128
-50.614
-50.993
-51.258
-51.404
-51.426
-51.32
-51.082
-50.709
-50.199
-49.549
-48.76
-47.832
-46.766
-45.565
-44.23
-42.767
-41.178
-39.47
-37.649
-35.72
-33.691
-31.571
-29.369
-27.096
-24.763
-22.385
-19.976
-17.551
-15.125
-12.714
-10.337
-8.011
-5.754
-3.584
-1.519
0.426
2.231
3.88
5.354
6.638
7.72
8.589
9.232
9.64
9.801
9.711
9.37
8.779
7.937
6.838
5.477
3.851
1.962
-0.183
-2.578
-5.216
-8.081
-11.147
-14.379
-17.735
-21.17
-24.649
-28.142
-31.62
-35.058
-38.409
-41.615
-44.626
-47.387
-49.85
-52.002
-53.823
-55.286
-56.445
-57.398
-58.294
-59.389
-60.889
-62.858
-65.335
-68.353
-71.852
-75.746
-79.823
-83.554
-86.383
-88.028
-88.341
-87.288
-84.983
-81.49
-77.026
-72.349
-68.474
-66.257
-66.425
-69.387
-75.321
-83.909
-93.838
-103.334
-110.061
-112.946
-113.47
-112.196
-107.595
-94.968
-64.616
-8.861
72.558
174.578
285.796
394.781
497.874
594.336
684.116
764.572
826.044
856.632
847.387
795.94
706.708
589.59
457.849
323.925
200.406
98.984
26.327
-15.158
-27.886
-20.626
-3.399
14.942
26.184
28.183
23.107
14.789
9.99
11.611
18.524
27.996
34.793
36.511
33.832
27.941
20.852
13.529
5.729
-2.322
-9.953
-16.741
-22.454
-27.099
-31.002
-34.367
-37.237
-39.918
-42.97
-46.721
-51.298
-56.675
-62.607
-68.89
-75.372
-81.779
-87.79
-93.197
-97.879
-101.8
-105.007
-107.527
-109.377
-110.612
-111.292
-111.473
-111.202
-110.51
-109.43
-108.015
-106.331
-104.449
-102.424
-100.295
-98.089
-95.828
-93.528
-91.201
-88.85
-86.472
-84.069
-81.646
-79.212
-76.774
-74.335
-71.892
-69.445
-66.99
-64.525
-62.05
-59.565
-57.071
-54.571
-52.069
-49.568
-47.072
-44.585
-42.104
-39.631
-37.164
-34.7
-32.239
-29.778
-27.317
-24.854
-22.389
-19.924
-17.458
-14.994
-12.532
-10.074
-7.624
-5.184
-2.757
-0.349
2.038
4.398
6.724
9.011
11.252
13.441
15.57
17.632
19.621
21.527
23.345
25.067
26.685
28.194
29.585
30.852
31.988
32.988
33.846
34.556
35.114
35.516
35.757
35.837
35.753
35.504
35.089
34.51
33.768
32.865
31.805
30.59
29.225
27.715
26.067
24.287
22.382
20.36
18.228
15.995
13.671
11.264
8.782
6.237
3.637
0.992
-1.689
-4.396
-7.119
-9.848
-12.574
-15.288
-17.98
-20.642
-23.264
-25.84
-28.36
-30.817
-33.206
-35.518
-37.749
-39.893
-41.945
-43.901
-45.758
-47.512
-49.161
-50.704
-52.139
-53.466
-54.684
-55.794
-56.797
-57.692
-58.482
-59.169
-59.754
-60.24
-60.63
-60.925
-61.131
-61.248
-61.283
-61.237
-61.116
-60.924
-60.664
-60.341
-59.959
-59.524
-59.039
-58.509
-57.938
-57.331
-56.692
-56.024
-55.333
-54.622
-53.893
-53.151
-52.399
-51.639
-50.874
-50.107
-49.341
-48.577
-47.818
-47.066
-46.324
-45.593
-44.875
-44.171
-43.485
-42.817
-42.169
-41.542
-40.937
-40.357
-39.802
-39.274
-38.772
-38.299
-37.855
-37.441
-37.057
-36.704
-36.383
-36.094
-35.839
-35.617
-35.429
-35.278
-35.163
-35.085
-35.044
-35.043
-35.081
-35.158
-35.276
-35.434
-35.633
-35.873
-36.152
-36.471
-36.829
-37.224
-37.654
-38.118
-38.613
-39.137
-39.687
-40.26
-40.852
-41.46
-42.08
-42.708
-43.34
-43.97
-44.594
-45.206
-45.801
-46.371
-46.911
-47.413
-47.871
-48.278
-48.626
-48.909
-49.118
-49.248
-49.29
-49.237
-49.083
-48.82
-48.443
-47.946
-47.324
-46.572
-45.688
-44.668
-43.51
-42.214
-40.778
-39.203
-37.491
-35.643
-33.662
-31.552
-29.319
-26.968
-24.507
-21.945
-19.292
-16.562
-13.769
-10.927
-8.052
-5.163
-2.275
0.591
3.419
6.192
8.894
11.506
14.012
16.391
18.624
20.694
22.585
24.281
25.767
27.029
28.058
28.849
29.398
29.698
29.741
29.506
28.98
28.153
27.021
25.586
23.853
21.834
19.55
17.043
14.354
11.526
8.599
5.598
2.556
-0.487
-3.478
-6.346
-9.027
-11.469
-13.634
-15.494
-17.039
-18.273
-19.231
-19.987
-20.631
-21.264
-21.975
-22.85
-23.983
-25.459
-27.409
-30.008
-33.37
-37.533
-42.419
-47.769
-53.282
-58.661
-63.472
-67.201
-69.472
-70.028
-68.977
-66.986
-64.809
-63.184
-62.976
-64.784
-68.774
-75.001
-82.853
-90.472
-95.778
-95.93
-87.061
-66.915
-34.312
11.172
66.934
131.084
203.749
284.116
373.247
470.74
570.904
667.073
749.809
808.562
836.688
828.615
781.393
696.646
578.726
437.831
290.366
153.755
43.473
-31.503
-73.405
-90.029
-90.023
-82.311
-70.07
-55.136
-42.351
-33.456
-30.231
-32.684
-35.6
-36.467
-34.975
-31.947
-31.01
-33.557
-38.653
-44.868
-49.996
-52.988
-53.883
-52.846
-50.289
-46.614
-42.23
-37.794
-33.993
-31.244
-29.785
-29.671
-30.823
-33.116
-36.355
-40.244
-44.406
-48.544
-52.435
-55.907
-58.892
-61.341
-63.215
-64.514
-65.266
-65.496
-65.238
-64.535
-63.411
-61.904
-60.064
-57.939
-55.593
-53.095
-50.508
-47.894
-45.298
-42.746
-40.255
-37.835
-35.487
-33.206
-30.983
-28.796
-26.632
-24.481
-22.332
-20.173
-17.992
-15.772
-13.5
-11.163
-8.752
-6.261
-3.684
-1.016
1.743
4.594
7.533
10.558
13.665
16.852
20.116
23.454
26.86
30.329
33.853
37.425
41.036
44.674
48.326
51.979
55.619
59.229
62.795
66.299
69.725
73.056
76.275
79.365
82.308
85.088
87.689
90.094
92.289
94.258
95.99
97.47
98.687
99.631
100.293
100.666
100.742
100.518
99.99
99.156
98.016
96.572
94.826
92.785
90.453
87.841
84.957
81.813
78.422
74.799
70.957
66.915
62.688
58.295
53.754
49.084
44.304
39.434
34.494
29.502
24.48
19.446
14.42
9.42
4.465
-0.428
-5.242
-9.961
-14.57
-19.054
-23.401
-27.599
-31.638
-35.507
-39.199
-42.708
-46.028
-49.155
-52.086
-54.821
-57.358
-59.699
-61.846
-63.801
-65.57
-67.157
-68.567
-69.808
-70.887
-71.811
-72.589
-73.229
-73.742
-74.138
-74.425
-74.615
-74.718
-74.744
-74.704
-74.608
-74.467
-74.289
-74.085
-73.862
-73.63
-73.395
-73.164
-72.944
-72.739
-72.554
-72.394
-72.26
-72.157
-72.084
-72.043
-72.035
-72.058
-72.113
-72.198
-72.31
-72.449
-72.61
-72.79
-72.986
-73.194
-73.41
-73.628
-73.845
-74.054
-74.251
-74.431
-74.589
-74.719
-74.817
-74.879
-74.9
-74.879
-74.81
-74.693
-74.525
-74.306
-74.035
-73.712
-73.339
-72.917
-72.447
-71.933
-71.378
-70.785
-70.159
-69.504
-68.824
-68.127
-67.416
-66.699
-65.982
-65.27
-64.57
-63.89
-63.237
-62.617
-62.037
-61.505
-61.026
-60.608
-60.256
-59.975
-59.771
-59.648
-59.609
-59.655
-59.79
-60.014
-60.326
-60.726
-61.211
-61.78
-62.429
-63.153
-63.947
-64.806
-65.724
-66.692
-67.703
-68.749
-69.82
-70.907
-72
-73.089
-74.162
-75.211
-76.223
-77.188
-78.095
-78.933
-79.691
-80.359
-80.927
-81.386
-81.727
-81.942
-82.026
-81.972
-81.777
-81.437
-80.95
-80.316
-79.536
-78.61
-77.542
-76.336
-74.998
-73.533
-71.951
-70.26
-68.473
-66.603
-64.666
-62.677
-60.653
-58.613
-56.573
-54.554
-52.573
-50.646
-48.789
-47.02
-45.355
-43.814
-42.415
-41.173
-40.104
-39.222
-38.54
-38.071
-37.821
-37.791
-37.984
-38.401
-39.048
-39.939
-41.084
-42.488
-44.148
-46.062
-48.218
-50.603
-53.189
-55.932
-58.787
-61.707
-64.652
-67.592
-70.492
-73.309
-75.987
-78.46
-80.67
-82.573
-84.131
-85.314
-86.113
-86.538
-86.634
-86.479
-86.157
-85.759
-85.379
-85.104
-85.031
-85.246
-85.852
-86.995
-88.791
-91.279
-94.385
-97.895
-101.536
-105.036
-108.048
-110.104
-110.795
-109.868
-107.437
-104.027
-100.226
-96.693
-94.142
-93.201
-94.521
-97.89
-101.581
-103.583
-101.806
-95.396
-85.818
-73.13
-54.981
-27.03
17.674
83.394
168.594
268.812
376.719
483.999
585.642
675.603
745.329
788.057
795.801
763.844
695.084
594.174
470.244
335.561
200.818
78.482
-20.439
-89.64
-126.84
-136.095
-126.755
-109.625
-94.252
-86.141
-85.343
-87.844
-88.336
-83.378
-72.756
-59.274
-47.269
-39.511
-36.567
-37.477
-40.292
-43.856
-48.138
-53.123
-58.605
-64.13
-68.958
-72.732
-75.588
-77.672
-79.039
-79.816
-80.186
-80.455
-81.126
-82.454
-84.383
-86.803
-89.505
-92.266
-94.953
-97.375
-99.262
-100.467
-100.939
-100.664
-99.728
-98.202
-96.112
-93.514
-90.468
-87.021
-83.235
-79.166
-74.859
-70.372
-65.756
-61.045
-56.274
-51.465
-46.63
-41.778
-36.906
-32.006
-27.077
-22.123
-17.148
-12.163
-7.166
-2.158
2.86
7.89
12.93
17.978
23.032
28.09
33.144
38.188
43.211
48.201
53.149
58.049
62.894
67.676
72.388
77.024
81.576
86.039
90.403
94.659
98.799
102.812
106.688
110.418
113.992
117.399
120.632
123.679
126.532
129.182
131.62
133.837
135.825
137.577
139.086
140.345
141.348
142.092
142.571
142.785
142.73
142.406
141.814
140.954
139.831
138.446
136.806
134.915
132.779
130.408
127.809
124.993
121.972
118.757
115.361
111.799
108.085
104.235
100.265
96.19
92.028
87.796
83.51
79.188
74.848
70.506
66.18
61.886
57.64
53.458
49.355
45.345
41.441
37.657
34.003
30.492
27.134
23.937
20.91
18.061
15.396
12.922
10.641
8.558
6.676
4.996
3.519
2.243
1.169
0.295
-0.384
-0.87
-1.167
-1.281
-1.217
-0.981
-0.579
-0.018
0.695
1.552
2.545
3.668
4.913
6.272
7.738
9.302
10.958
12.697
14.511
16.394
18.337
20.333
22.374
24.452
26.561
28.693
30.84
32.997
35.155
37.309
39.452
41.577
43.678
45.75
47.787
49.783
51.733
53.631
55.472
57.251
58.963
60.603
62.166
63.646
65.039
66.34
67.545
68.647
69.644
70.531
71.303
71.959
72.493
72.905
73.192
73.353
73.385
73.29
73.065
72.714
72.235
71.63
70.901
70.051
69.081
67.996
66.798
65.491
64.08
62.569
60.964
59.269
57.491
55.636
53.71
51.72
49.674
47.58
45.445
43.276
41.084
38.876
36.66
34.445
32.239
30.05
27.886
25.753
23.659
21.609
19.611
17.669
15.789
13.975
12.233
10.566
8.978
7.472
6.051
4.719
3.477
2.327
1.27
0.307
-0.56
-1.332
-2.009
-2.59
-3.078
-3.472
-3.776
-3.991
-4.12
-4.167
-4.135
-4.028
-3.85
-3.607
-3.302
-2.941
-2.528
-2.07
-1.571
-1.038
-0.475
0.11
0.711
1.32
1.929
2.529
3.11
3.663
4.178
4.645
5.053
5.392
5.655
5.833
5.918
5.902
5.776
5.53
5.157
4.649
3.999
3.202
2.253
1.149
-0.109
-1.516
-3.071
-4.774
-6.632
-8.651
-10.833
-13.18
-15.686
-18.345
-21.145
-24.065
-27.072
-30.13
-33.2
-36.249
-39.252
-42.181
-45.003
-47.678
-50.152
-52.374
-54.308
-55.915
-57.168
-58.056
-58.584
-58.79
-58.752
-58.539
-58.227
-57.902
-57.639
-57.539
-57.712
-58.237
-59.221
-60.81
-63.101
-66.127
-69.813
-73.899
-78.075
-82.054
-85.444
-87.774
-88.668
-87.906
-85.65
-82.514
-79.152
-76.207
-74.382
-74.358
-76.782
-81.313
-86.166
-89.172
-87.917
-82.049
-73.408
-61.345
-43.624
-14.387
35.015
106.404
196.746
298.064
398.286
491.774
576.687
652.015
716.718
763.86
782.447
762.846
700.489
596.605
461.192
310.642
161.126
31.712
-63.435
-120.178
-138.368
-128.926
-107.555
-85.643
-74.407
-76.307
-86.242
-98.943
-106.434
-104.684
-95.196
-81.028
-67.573
-58.339
-53.653
-52.499
-52.724
-53.39
-54.821
-57.243
-60.739
-64.661
-67.982
-70.314
-71.686
-72.11
-71.646
-70.353
-68.348
-66.129
-64.345
-63.31
-63.101
-63.675
-64.846
-66.469
-68.412
-70.396
-72.107
-73.368
-74.085
-74.26
-73.972
-73.264
-72.168
-70.744
-69.053
-67.147
-65.072
-62.855
-60.521
-58.109
-55.667
-53.243
-50.874
-48.58
-46.371
-44.248
-42.204
-40.23
-38.31
-36.427
-34.567
-32.722
-30.877
-29.023
-27.148
-25.239
-23.28
-21.258
-19.158
-16.97
-14.688
-12.305
-9.82
-7.231
-4.54
-1.749
1.139
4.121
7.194
10.354
13.595
16.908
20.287
23.72
27.197
30.703
34.224
37.744
41.248
44.718
48.136
51.486
54.747
57.903
60.934
63.823
66.551
69.101
71.457
73.602
75.52
77.199
78.625
79.787
80.675
81.28
81.596
81.618
81.343
80.769
79.896
78.727
77.264
75.514
73.484
71.182
68.619
65.808
62.762
59.496
56.027
52.372
48.548
44.576
40.475
36.264
31.964
27.596
23.179
18.734
14.282
9.841
5.43
1.069
-3.227
-7.44
-11.555
-15.558
-19.435
-23.175
-26.767
-30.202
-33.47
-36.567
-39.485
-42.222
-44.774
-47.139
-49.318
-51.311
-53.12
-54.749
-56.201
-57.482
-58.597
-59.553
-60.358
-61.019
-61.543
-61.941
-62.22
-62.39
-62.459
-62.436
-62.331
-62.152
-61.908
-61.607
-61.256
-60.863
-60.436
-59.981
-59.505
-59.012
-58.508
-57.999
-57.487
-56.978
-56.474
-55.978
-55.493
-55.021
-54.563
-54.121
-53.695
-53.285
-52.893
-52.517
-52.158
-51.816
-51.489
-51.178
-50.881
-50.599
-50.33
-50.075
-49.832
-49.602
-49.384
-49.179
-48.986
-48.805
-48.637
-48.482
-48.341
-48.214
-48.102
-48.006
-47.926
-47.865
-47.822
-47.798
-47.795
-47.814
-47.856
-47.922
-48.012
-48.129
-48.273
-48.446
-48.649
-48.882
-49.147
-49.444
-49.775
-50.139
-50.537
-50.969
-51.437
-51.94
-52.477
-53.05
-53.658
-54.301
-54.978
-55.689
-56.433
-57.209
-58.017
-58.854
-59.721
-60.614
-61.533
-62.476
-63.441
-64.426
-65.428
-66.444
-67.472
-68.508
-69.548
-70.588
-71.624
-72.651
-73.665
-74.661
-75.633
-76.577
-77.487
-78.357
-79.181
-79.954
-80.668
-81.318
-81.897
-82.398
-82.815
-83.142
-83.373
-83.504
-83.528
-83.441
-83.238
-82.917
-82.474
-81.905
-81.208
-80.383
-79.43
-78.351
-77.146
-75.821
-74.38
-72.831
-71.183
-69.446
-67.629
-65.745
-63.805
-61.822
-59.811
-57.787
-55.765
-53.762
-51.796
-49.883
-48.044
-46.297
-44.662
-43.155
-41.789
-40.579
-39.539
-38.68
-38.015
-37.553
-37.303
-37.279
-37.488
-37.936
-38.628
-39.567
-40.744
-42.149
-43.763
-45.557
-47.509
-49.59
-51.775
-54.037
-56.337
-58.646
-60.934
-63.168
-65.332
-67.399
-69.324
-71.068
-72.597
-73.913
-75.067
-76.117
-77.076
-77.996
-78.967
-80.149
-81.816
-84.123
-87.057
-90.587
-94.689
-99.335
-104.473
-109.773
-114.514
-118.112
-120.266
-120.839
-119.852
-117.215
-112.828
-107.052
-100.9
-95.577
-92.076
-90.988
-92.634
-96.715
-102.2
-108.191
-112.939
-116.207
-119.9
-123.046
-122.954
-113.117
-82.786
-27.426
50.952
145.381
243.27
337.039
425.811
509.733
590.417
665.062
724.502
759.431
761.023
723.404
647.093
536.707
402.054
258.823
123.14
9.846
-70.908
-119.523
-141.638
-145.055
-139.767
-130.25
-119.224
-111.335
-107.058
-107.001
-110.436
-112.147
-110.141
-104.759
-97.648
-92.822
-91.81
-93.969
-98.314
-103.209
-107.972
-112.456
-115.988
-118.265
-119.251
-118.945
-117.676
-115.718
-113.178
-110.416
-108.034
-106.42
-105.737
-105.98
-106.936
-108.419
-110.303
-112.347
-114.21
-115.631
-116.454
-116.621
-116.173
-115.145
-113.546
-111.41
-108.802
-105.786
-102.422
-98.758
-94.824
-90.661
-86.327
-81.888
-77.412
-72.962
-68.58
-64.291
-60.119
-56.075
-52.165
-48.392
-44.752
-41.236
-37.838
-34.554
-31.378
-28.307
-25.332
-22.441
-19.62
-16.858
-14.145
-11.474
-8.838
-6.23
-3.648
-1.084
1.462
3.995
6.517
9.034
11.55
14.071
16.601
19.143
21.698
24.27
26.859
29.463
32.083
34.714
37.354
39.997
42.639
45.273
47.892
50.49
53.056
55.582
58.058
60.473
62.818
65.08
67.25
69.316
71.266
73.091
74.779
76.321
77.707
78.927
79.974
80.838
81.512
81.989
82.263
82.329
82.182
81.818
81.234
80.428
79.4
78.148
76.674
74.98
73.068
70.944
68.611
66.077
63.349
60.434
57.341
54.08
50.661
47.095
43.393
39.566
35.627
31.588
27.461
23.26
18.996
14.683
10.334
5.962
1.58
-2.798
-7.16
-11.492
-15.779
-20.009
-24.165
-28.233
-32.196
-36.039
-39.747
-43.303
-46.694
-49.904
-52.922
-55.735
-58.331
-60.701
-62.833
-64.718
-66.343
-67.697
-68.768
-69.545
-70.018
-70.173
-70.001
-69.49
-68.635
-67.43
-65.866
-63.936
-61.628
-58.935
-55.858
-52.4
-48.569
-44.377
-39.839
-34.975
-29.822
-24.41
-18.773
-12.94
-6.925
-0.742
5.592
12.058
18.635
25.312
32.096
39.001
46.032
53.199
60.511
67.984
75.667
83.592
91.777
100.232
108.929
117.831
126.904
136.103
145.37
154.627
163.764
172.657
181.205
189.309
196.873
203.796
209.94
215.189
219.457
222.677
224.82
225.88
225.848
224.735
222.588
219.478
215.512
210.823
205.513
199.676
193.41
186.811
180.008
173.118
166.224
159.394
152.68
146.121
139.759
133.628
127.725
122.033
116.517
111.119
105.813
100.582
95.407
90.275
85.163
80.05
74.938
69.839
64.766
59.731
54.742
49.807
44.954
40.212
35.617
31.209
27.014
23.047
19.326
15.86
12.657
9.721
7.048
4.625
2.443
0.494
-1.228
-2.73
-4.024
-5.125
-6.048
-6.809
-7.42
-7.895
-8.247
-8.489
-8.63
-8.682
-8.653
-8.552
-8.388
-8.175
-7.924
-7.65
-7.369
-7.094
-6.839
-6.62
-6.451
-6.349
-6.327
-6.396
-6.569
-6.855
-7.267
-7.815
-8.509
-9.354
-10.355
-11.517
-12.843
-14.34
-16.009
-17.845
-19.841
-21.992
-24.29
-26.74
-29.342
-32.091
-34.983
-38.011
-41.167
-44.445
-47.829
-51.29
-54.791
-58.289
-61.747
-65.14
-68.453
-71.672
-74.772
-77.711
-80.442
-82.918
-85.099
-86.961
-88.474
-89.598
-90.365
-90.873
-91.284
-91.837
-92.743
-94.134
-96.104
-98.699
-101.83
-105.332
-108.927
-112.146
-114.53
-115.66
-115.234
-113.148
-109.541
-104.683
-98.972
-93.051
-87.666
-83.716
-82.113
-83.52
-88.207
-96.192
-106.739
-118.225
-129.034
-136.949
-140.927
-141.54
-138.226
-129.974
-112.939
-80.651
-28.756
45.214
138.727
245.231
358.445
470.282
575.008
667.576
739.963
787.207
803.144
782.03
724.612
631.828
509.361
369.656
225.664
93.266
-13.579
-88.555
-131.795
-149.286
-149.695
-141.136
-128.91
-116.967
-108.378
-103.524
-101.54
-99.21
-92.984
-82.25
-68.671
-56.194
-47.904
-44.21
-44.057
-45.55
-47.738
-50.663
-54.225
-57.877
-60.718
-62.105
-61.918
-60.334
-57.496
-53.497
-48.522
-43.076
-37.882
-33.395
-29.779
-27.008
-24.917
-23.375
-22.251
-21.303
-20.252
-18.972
-17.472
-15.826
-14.153
-12.526
-10.978
-9.553
-8.29
-7.181
-6.174
-5.219
-4.279
-3.354
-2.48
-1.673
-0.923
-0.192
0.585
1.457
2.459
3.625
4.986
6.555
8.329
10.269
12.301
14.376
16.463
18.549
20.639
22.731
24.812
26.872
28.898
30.88
32.811
34.683
36.482
38.206
39.864
41.479
43.089
44.722
46.39
48.103
49.862
51.665
53.514
55.4
57.309
59.229
61.15
63.06
64.956
66.826
68.655
70.427
72.122
73.723
75.214
76.58
77.807
78.881
79.791
80.527
81.083
81.452
81.627
81.599
81.361
80.908
80.235
79.338
78.212
76.858
75.273
73.461
71.424
69.167
66.696
64.017
61.139
58.071
54.824
51.408
47.835
44.118
40.27
36.305
32.236
28.079
23.848
19.558
15.225
10.864
6.488
2.113
-2.247
-6.58
-10.871
-15.108
-19.279
-23.373
-27.377
-31.283
-35.081
-38.761
-42.317
-45.742
-49.03
-52.176
-55.178
-58.031
-60.734
-63.285
-65.684
-67.931
-70.025
-71.967
-73.76
-75.405
-76.904
-78.26
-79.476
-80.556
-81.503
-82.32
-83.011
-83.581
-84.032
-84.369
-84.595
-84.715
-84.731
-84.648
-84.469
-84.196
-83.834
-83.384
-82.85
-82.234
-81.537
-80.762
-79.911
-78.985
-77.986
-76.916
-75.776
-74.568
-73.294
-71.956
-70.555
-69.096
-67.579
-66.009
-64.387
-62.718
-61.005
-59.251
-57.461
-55.64
-53.792
-51.922
-50.036
-48.138
-46.236
-44.333
-42.438
-40.555
-38.691
-36.852
-35.046
-33.278
-31.556
-29.885
-28.274
-26.727
-25.252
-23.854
-22.539
-21.313
-20.18
-19.145
-18.212
-17.385
-16.666
-16.058
-15.563
-15.182
-14.917
-14.767
-14.732
-14.81
-15.001
-15.301
-15.709
-16.221
-16.833
-17.542
-18.343
-19.231
-20.202
-21.249
-22.368
-23.55
-24.791
-26.084
-27.421
-28.795
-30.199
-31.626
-33.069
-34.52
-35.972
-37.418
-38.852
-40.265
-41.651
-43.004
-44.316
-45.582
-46.795
-47.95
-49.041
-50.064
-51.014
-51.887
-52.679
-53.385
-54.002
-54.528
-54.958
-55.29
-55.522
-55.652
-55.678
-55.601
-55.42
-55.135
-54.747
-54.258
-53.668
-52.981
-52.199
-51.325
-50.364
-49.321
-48.201
-47.013
-45.763
-44.463
-43.121
-41.749
-40.356
-38.956
-37.561
-36.185
-34.842
-33.546
-32.309
-31.146
-30.07
-29.094
-28.232
-27.495
-26.893
-26.437
-26.135
-26.002
-26.043
-26.262
-26.658
-27.228
-27.972
-28.894
-29.996
-31.277
-32.734
-34.365
-36.162
-38.122
-40.231
-42.462
-44.783
-47.153
-49.537
-51.914
-54.268
-56.59
-58.863
-61.048
-63.101
-64.984
-66.65
-68.071
-69.219
-70.044
-70.579
-70.934
-71.257
-71.773
-72.677
-74.067
-76.024
-78.617
-81.713
-85.082
-88.454
-91.385
-93.517
-94.612
-94.42
-92.818
-90.019
-86.376
-82.226
-78.083
-74.368
-71.56
-70.326
-71.099
-73.979
-78.844
-85.493
-93.75
-102.858
-110.793
-115.231
-113.932
-106.077
-93.633
-77.736
-57.099
-28.293
15.657
80.541
166.367
269.963
384.166
498.451
605.708
698.605
768.358
810.451
818.605
788.008
720.569
618.141
488.248
344.52
199.981
70.228
-31.901
-101.675
-139.177
-149.739
-143.062
-127.676
-110.66
-98.618
-93.225
-93.055
-95.165
-94.084
-87.698
-77.487
-66.53
-59.362
-57.744
-60.923
-67.468
-75.161
-82.885
-90.17
-96.038
-100.049
-102.109
-102.143
-100.531
-97.78
-94.188
-90.291
-86.883
-84.4
-83.031
-82.813
-83.505
-84.877
-86.759
-88.853
-90.776
-92.265
-93.166
-93.419
-93.081
-92.187
-90.751
-88.82
-86.454
-83.719
-80.673
-77.357
-73.802
-70.046
-66.149
-62.179
-58.203
-54.285
-50.467
-46.776
-43.232
-39.845
-36.621
-33.559
-30.653
-27.891
-25.262
-22.758
-20.369
-18.086
-15.896
-13.783
-11.726
-9.71
-7.721
-5.744
-3.77
-1.787
0.215
2.244
4.308
6.415
8.57
10.782
13.06
15.411
17.84
20.352
22.951
25.639
28.417
31.284
34.237
37.27
40.379
43.555
46.791
50.075
53.396
56.742
60.099
63.453
66.789
70.091
73.343
76.529
79.631
82.633
85.517
88.268
90.869
93.305
95.561
97.622
99.475
101.108
102.509
103.667
104.574
105.221
105.601
105.711
105.544
105.101
104.38
103.384
102.114
100.576
98.776
96.721
94.421
91.886
89.127
86.156
82.987
79.635
76.115
72.442
68.633
64.705
60.674
56.558
52.374
48.14
43.872
39.587
35.301
31.032
26.794
22.603
18.473
14.419
10.455
6.592
2.843
-0.781
-4.269
-7.614
-10.806
-13.838
-16.705
-19.401
-21.922
-24.264
-26.426
-28.406
-30.203
-31.818
-33.252
-34.507
-35.586
-36.491
-37.227
-37.797
-38.208
-38.463
-38.569
-38.532
-38.357
-38.052
-37.623
-37.078
-36.425
-35.67
-34.823
-33.891
-32.884
-31.809
-30.675
-29.492
-28.267
-27.01
-25.729
-24.433
-23.131
-21.83
-20.54
-19.267
-18.02
-16.807
-15.634
-14.509
-13.439
-12.428
-11.485
-10.614
-9.821
-9.111
-8.488
-7.958
-7.524
-7.189
-6.956
-6.829
-6.807
-6.894
-7.089
-7.392
-7.803
-8.32
-8.941
-9.665
-10.487
-11.404
-12.411
-13.505
-14.679
-15.929
-17.247
-18.629
-20.067
-21.554
-23.085
-24.651
-26.245
-27.861
-29.491
-31.128
-32.764
-34.392
-36.006
-37.597
-39.16
-40.688
-42.175
-43.614
-45
-46.327
-47.591
-48.786
-49.91
-50.957
-51.926
-52.813
-53.618
-54.337
-54.971
-55.519
-55.98
-56.354
-56.643
-56.844
-56.96
-56.991
-56.937
-56.8
-56.581
-56.28
-55.9
-55.441
-54.904
-54.291
-53.604
-52.843
-52.01
-51.106
-50.133
-49.093
-47.988
-46.819
-45.591
-44.304
-42.962
-41.569
-40.127
-38.639
-37.108
-35.538
-33.933
-32.297
-30.634
-28.95
-27.252
-25.548
-23.847
-22.158
-20.493
-18.861
-17.274
-15.744
-14.281
-12.895
-11.594
-10.389
-9.289
-8.307
-7.454
-6.74
-6.174
-5.766
-5.523
-5.453
-5.558
-5.836
-6.286
-6.906
-7.701
-8.683
-9.862
-11.243
-12.827
-14.615
-16.599
-18.771
-21.109
-23.577
-26.136
-28.748
-31.379
-34.006
-36.599
-39.122
-41.527
-43.754
-45.746
-47.459
-48.856
-49.905
-50.595
-50.934
-50.961
-50.742
-50.354
-49.883
-49.41
-49.016
-48.791
-48.807
-49.171
-50.046
-51.563
-53.767
-56.614
-59.909
-63.37
-66.74
-69.658
-71.6
-72.14
-71.072
-68.476
-64.863
-61.046
-57.832
-56.033
-56.714
-60.144
-65.339
-71.095
-75.487
-77.543
-78.69
-78.992
-76.058
-64.639
-35.678
17.399
95.027
192.465
300.168
409.223
514.348
611.883
698.03
766.014
806.614
810.906
773.319
694.733
581.087
443.348
296.925
156.817
38.028
-47.892
-98.572
-116.092
-108.118
-87.327
-62.479
-41.799
-32.548
-34.989
-48.191
-68.866
-88.343
-100.9
-103.869
-96.108
-82.717
-69.76
-60.155
-56.321
-57.304
-59.912
-62.961
-65.446
-66.9
-68.21
-69.454
-70.37
-70.947
-70.935
-70.287
-69.349
-68.556
-68.205
-68.525
-69.605
-71.354
-73.636
-76.283
-79.031
-81.558
-83.656
-85.196
-86.11
-86.431
-86.192
-85.42
-84.178
-82.541
-80.562
-78.288
-75.758
-72.991
-70.033
-66.942
-63.776
-60.595
-57.442
-54.337
-51.295
-48.321
-45.412
-42.562
-39.758
-36.983
-34.227
-31.482
-28.743
-26.004
-23.257
-20.491
-17.695
-14.856
-11.965
-9.016
-6.005
-2.93
0.209
3.412
6.675
9.995
13.368
16.792
20.265
23.785
27.348
30.949
34.582
38.241
41.919
45.607
49.293
52.968
56.619
60.234
63.8
67.303
70.73
74.067
77.299
80.411
83.391
86.223
88.894
91.391
93.7
95.811
97.711
99.39
100.839
102.05
103.016
103.729
104.186
104.382
104.314
103.981
103.382
102.518
101.392
100.006
98.365
96.477
94.347
91.984
89.4
86.604
83.609
80.428
77.075
73.565
69.913
66.135
62.247
58.267
54.212
50.097
45.941
41.761
37.572
33.392
29.235
25.118
21.055
17.062
13.15
9.334
5.625
2.036
-1.423
-4.742
-7.912
-10.925
-13.773
-16.451
-18.952
-21.274
-23.411
-25.362
-27.126
-28.703
-30.093
-31.298
-32.321
-33.165
-33.835
-34.337
-34.676
-34.858
-34.891
-34.782
-34.54
-34.173
-33.69
-33.1
-32.411
-31.634
-30.778
-29.852
-28.867
-27.832
-26.755
-25.648
-24.52
-23.379
-22.235
-21.098
-19.975
-18.875
-17.807
-16.778
-15.794
-14.864
-13.992
-13.184
-12.445
-11.779
-11.19
-10.68
-10.251
-9.906
-9.644
-9.466
-9.372
-9.361
-9.431
-9.58
-9.807
-10.107
-10.479
-10.918
-11.421
-11.983
-12.599
-13.266
-13.977
-14.726
-15.509
-16.32
-17.151
-17.996
-18.85
-19.706
-20.557
-21.397
-22.221
-23.022
-23.795
-24.535
-25.238
-25.898
-26.514
-27.081
-27.596
-28.059
-28.467
-28.82
-29.117
-29.358
-29.544
-29.675
-29.752
-29.777
-29.752
-29.678
-29.557
-29.393
-29.187
-28.943
-28.663
-28.351
-28.01
-27.643
-27.255
-26.848
-26.426
-25.993
-25.551
-25.103
-24.652
-24.2
-23.747
-23.296
-22.846
-22.397
-21.949
-21.5
-21.049
-20.593
-20.129
-19.654
-19.164
-18.656
-18.124
-17.566
-16.976
-16.351
-15.686
-14.978
-14.223
-13.417
-12.558
-11.643
-10.67
-9.637
-8.543
-7.387
-6.169
-4.889
-3.551
-2.157
-0.712
0.777
2.303
3.858
5.43
7.009
8.584
10.143
11.675
13.168
14.609
15.985
17.28
18.48
19.568
20.53
21.353
22.022
22.526
22.852
22.996
22.952
22.715
22.274
21.612
20.715
19.573
18.182
16.542
14.654
12.525
10.17
7.621
4.911
2.076
-0.856
-3.861
-6.915
-9.982
-13.012
-15.942
-18.717
-21.291
-23.633
-25.721
-27.535
-29.074
-30.37
-31.486
-32.493
-33.471
-34.487
-35.597
-36.883
-38.417
-40.304
-42.692
-45.691
-49.353
-53.626
-58.326
-63.233
-68.125
-72.676
-76.454
-79.049
-80.154
-79.828
-78.513
-76.668
-74.876
-73.781
-73.941
-76.088
-80.235
-85.038
-88.879
-89.957
-87.508
-82.871
-76.107
-65.065
-45.178
-9.022
48.006
125.424
218.708
319.772
421.725
520.668
613.112
693.811
754.785
786.041
779.397
733.323
651.863
543.203
418.589
288.925
165.168
58.441
-22.53
-74.588
-99.301
-101.889
-91.691
-75.195
-57.717
-45.988
-41.21
-43.566
-51.471
-58.466
-61.851
-61.757
-59.672
-59.628
-62.948
-68.309
-73.925
-77.782
-79.281
-78.781
-76.454
-72.671
-67.825
-62.457
-57.462
-53.379
-50.35
-48.47
-47.767
-48.233
-49.844
-52.373
-55.412
-58.678
-61.982
-65.17
-68.148
-70.786
-72.957
-74.619
-75.779
-76.452
-76.662
-76.421
-75.735
-74.643
-73.189
-71.423
-69.399
-67.164
-64.771
-62.276
-59.735
-57.203
-54.72
-52.308
-49.98
-47.741
-45.585
-43.504
-41.486
-39.509
-37.558
-35.617
-33.669
-31.703
-29.707
-27.664
-25.563
-23.391
-21.137
-18.792
-16.352
-13.811
-11.168
-8.422
-5.573
-2.625
0.419
3.555
6.781
10.091
13.481
16.944
20.471
24.056
27.686
31.351
35.037
38.729
42.412
46.07
49.686
53.243
56.724
60.111
63.386
66.531
69.53
72.366
75.021
77.481
79.729
81.751
83.534
85.064
86.332
87.327
88.04
88.464
88.595
88.427
87.958
87.188
86.116
84.746
83.081
81.125
78.888
76.377
73.603
70.578
67.314
63.827
60.132
56.245
52.183
47.964
43.607
39.129
34.551
29.892
25.17
20.406
15.618
10.826
6.048
1.302
-3.394
-8.024
-12.571
-17.02
-21.356
-25.568
-29.641
-33.564
-37.329
-40.925
-44.344
-47.581
-50.629
-53.485
-56.146
-58.61
-60.876
-62.946
-64.82
-66.501
-67.993
-69.299
-70.426
-71.378
-72.162
-72.785
-73.255
-73.58
-73.768
-73.827
-73.768
-73.598
-73.328
-72.966
-72.521
-72.003
-71.42
-70.782
-70.096
-69.372
-68.616
-67.837
-67.041
-66.234
-65.423
-64.612
-63.807
-63.011
-62.228
-61.462
-60.714
-59.987
-59.282
-58.6
-57.941
-57.305
-56.692
-56.101
-55.53
-54.978
-54.443
-53.922
-53.414
-52.916
-52.425
-51.938
-51.454
-50.968
-50.479
-49.983
-49.478
-48.962
-48.433
-47.889
-47.328
-46.749
-46.152
-45.535
-44.898
-44.243
-43.568
-42.876
-42.167
-41.443
-40.707
-39.96
-39.206
-38.448
-37.691
-36.937
-36.191
-35.459
-34.744
-34.052
-33.388
-32.757
-32.164
-31.614
-31.113
-30.666
-30.277
-29.951
-29.692
-29.504
-29.39
-29.354
-29.397
-29.522
-29.73
-30.021
-30.397
-30.857
-31.399
-32.023
-32.726
-33.506
-34.36
-35.283
-36.27
-37.317
-38.416
-39.562
-40.746
-41.96
-43.195
-44.444
-45.696
-46.942
-48.171
-49.374
-50.54
-51.658
-52.72
-53.714
-54.63
-55.461
-56.196
-56.828
-57.35
-57.754
-58.036
-58.189
-58.208
-58.091
-57.835
-57.438
-56.899
-56.218
-55.397
-54.44
-53.35
-52.134
-50.798
-49.352
-47.805
-46.17
-44.462
-42.697
-40.893
-39.066
-37.236
-35.419
-33.632
-31.892
-30.216
-28.62
-27.12
-25.733
-24.476
-23.366
-22.42
-21.652
-21.068
-20.671
-20.459
-20.434
-20.602
-20.974
-21.557
-22.359
-23.385
-24.642
-26.134
-27.858
-29.795
-31.906
-34.151
-36.497
-38.923
-41.428
-44.005
-46.618
-49.222
-51.746
-54.123
-56.323
-58.296
-59.963
-61.308
-62.366
-63.238
-64.163
-65.342
-66.815
-68.618
-70.763
-73.105
-75.497
-77.755
-79.488
-80.426
-80.623
-80.136
-79.067
-77.816
-76.658
-75.794
-75.642
-76.394
-77.854
-79.974
-82.822
-86.1
-89.668
-93.582
-97.655
-101.876
-106.599
-111.077
-113.164
-111.205
-103.522
-89.853
-72.85
-53.503
-29.893
2.09
49.703
118.19
206.496
309.879
420.257
528.322
628.036
712.795
774.89
807.412
803.021
759.415
679.856
571.375
445.661
314.743
190.805
85.267
4.791
-48.857
-79.035
-92.114
-93.977
-88.298
-77.401
-64.619
-53.451
-46.679
-44.768
-44.482
-42.436
-37.495
-31.075
-26.473
-25.753
-28.852
-34.5
-40.935
-47.29
-53.218
-58.085
-61.601
-63.68
-64.331
-63.937
-62.84
-61.183
-59.331
-57.885
-57.218
-57.504
-58.752
-60.732
-63.224
-66.073
-69.012
-71.686
-73.865
-75.411
-76.271
-76.501
-76.138
-75.196
-73.729
-71.808
-69.49
-66.829
-63.862
-60.612
-57.128
-53.471
-49.71
-45.914
-42.135
-38.404
-34.748
-31.181
-27.714
-24.351
-21.087
-17.913
-14.825
-11.819
-8.894
-6.047
-3.273
-0.561
2.099
4.718
7.306
9.87
12.415
14.947
17.469
19.985
22.494
24.998
27.498
29.997
32.498
35.003
37.515
40.035
42.563
45.099
47.642
50.19
52.739
55.285
57.822
60.344
62.845
65.318
67.754
70.145
72.481
74.754
76.953
79.068
81.091
83.009
84.815
86.497
88.046
89.454
90.711
91.81
92.743
93.504
94.087
94.487
94.7
94.724
94.556
94.194
93.64
92.893
91.956
90.832
89.524
88.038
86.379
84.556
82.575
80.445
78.175
75.775
73.254
70.624
67.895
65.077
62.183
59.222
56.207
53.148
50.056
46.942
43.816
40.689
37.57
34.467
31.391
28.348
25.346
22.392
19.493
16.654
13.88
11.177
8.549
5.999
3.53
1.145
-1.153
-3.364
-5.485
-7.516
-9.456
-11.304
-13.06
-14.723
-16.294
-17.773
-19.158
-20.451
-21.652
-22.76
-23.776
-24.7
-25.533
-26.274
-26.924
-27.483
-27.952
-28.33
-28.618
-28.816
-28.925
-28.946
-28.879
-28.725
-28.485
-28.16
-27.753
-27.263
-26.695
-26.049
-25.328
-24.535
-23.673
-22.747
-21.759
-20.716
-19.621
-18.481
-17.3
-16.086
-14.843
-13.579
-12.301
-11.015
-9.728
-8.447
-7.179
-5.931
-4.71
-3.521
-2.373
-1.27
-0.218
0.777
1.709
2.575
3.369
4.089
4.729
5.288
5.761
6.148
6.447
6.656
6.775
6.804
6.743
6.595
6.361
6.043
5.643
5.167
4.616
3.995
3.309
2.561
1.757
0.9
-0.003
-0.949
-1.933
-2.95
-3.996
-5.066
-6.158
-7.267
-8.389
-9.522
-10.663
-11.807
-12.954
-14.1
-15.242
-16.378
-17.506
-18.624
-19.731
-20.823
-21.9
-22.96
-24.003
-25.026
-26.029
-27.011
-27.971
-28.907
-29.818
-30.703
-31.56
-32.387
-33.182
-33.944
-34.669
-35.354
-35.996
-36.592
-37.138
-37.63
-38.063
-38.434
-38.737
-38.968
-39.123
-39.198
-39.188
-39.092
-38.905
-38.625
-38.25
-37.78
-37.213
-36.549
-35.787
-34.928
-33.975
-32.929
-31.794
-30.575
-29.276
-27.906
-26.474
-24.991
-23.466
-21.911
-20.339
-18.763
-17.197
-15.654
-14.151
-12.702
-11.322
-10.028
-8.838
-7.769
-6.834
-6.049
-5.422
-4.964
-4.686
-4.593
-4.692
-4.987
-5.481
-6.184
-7.099
-8.23
-9.577
-11.138
-12.905
-14.865
-17.001
-19.285
-21.693
-24.194
-26.758
-29.356
-31.949
-34.5
-36.97
-39.318
-41.52
-43.545
-45.348
-46.886
-48.123
-49.05
-49.715
-50.167
-50.41
-50.506
-50.555
-50.735
-51.349
-52.576
-54.419
-56.888
-59.999
-63.693
-67.878
-72.136
-75.643
-77.834
-78.471
-77.408
-74.68
-70.339
-64.435
-57.697
-51.55
-47.115
-45.23
-46.446
-50.782
-58.369
-68.71
-79.57
-88.022
-91.127
-87.344
-77.452
-62.013
-40.22
-8.782
37.508
102.703
188.569
293.366
412.695
539.694
664.553
775.141
857.507
899.334
893.321
839.553
744.685
619.517
477.019
329.901
190.997
72.143
-18.047
-76.758
-106.977
-114.78
-108.234
-92.797
-72.367
-52.878
-38.602
-32.431
-35.095
-41.84
-47.161
-48.79
-46.698
-43.646
-43.195
-46.084
-51.438
-57.971
-64.003
-68.641
-71.665
-73.061
-73.099
-72.143
-70.502
-68.384
-66
-63.746
-62.102
-61.358
-61.605
-62.751
-64.589
-66.969
-69.741
-72.661
-75.417
-77.757
-79.534
-80.703
-81.293
-81.324
-80.805
-79.765
-78.261
-76.36
-74.119
-71.583
-68.784
-65.759
-62.564
-59.263
-55.922
-52.601
-49.343
-46.173
-43.109
-40.16
-37.328
-34.611
-32
-29.479
-27.037
-24.664
-22.349
-20.084
-17.858
-15.656
-13.461
-11.259
-9.037
-6.784
-4.494
-2.158
0.231
2.676
5.181
7.748
10.377
13.071
15.833
18.663
21.562
24.528
27.559
30.652
33.802
37.003
40.247
43.525
46.828
50.144
53.461
56.766
60.048
63.29
66.479
69.599
72.636
75.573
78.396
81.088
83.634
86.019
88.228
90.247
92.064
93.667
95.044
96.187
97.086
97.736
98.131
98.265
98.138
97.746
97.091
96.173
94.995
93.562
91.879
89.955
87.796
85.413
82.815
80.016
77.026
73.86
70.53
67.052
63.44
59.71
55.878
51.961
47.974
43.935
39.859
35.762
31.661
27.57
23.504
19.476
15.5
11.587
7.748
3.994
0.335
-3.221
-6.666
-9.994
-13.199
-16.275
-19.219
-22.028
-24.7
-27.231
-29.622
-31.871
-33.98
-35.948
-37.777
-39.469
-41.026
-42.452
-43.749
-44.922
-45.974
-46.912
-47.739
-48.461
-49.082
-49.61
-50.048
-50.401
-50.676
-50.876
-51.008
-51.074
-51.08
-51.03
-50.928
-50.778
-50.583
-50.347
-50.072
-49.764
-49.424
-49.056
-48.663
-48.248
-47.815
-47.367
-46.907
-46.438
-45.964
-45.487
-45.011
-44.537
-44.07
-43.61
-43.161
-42.725
-42.304
-41.899
-41.513
-41.147
-40.803
-40.483
-40.188
-39.92
-39.68
-39.469
-39.29
-39.142
-39.029
-38.95
-38.908
-38.902
-38.934
-39.003
-39.112
-39.258
-39.444
-39.667
-39.928
-40.226
-40.56
-40.928
-41.331
-41.767
-42.234
-42.731
-43.258
-43.813
-44.395
-45.004
-45.638
-46.296
-46.979
-47.685
-48.414
-49.165
-49.938
-50.731
-51.546
-52.379
-53.232
-54.103
-54.991
-55.895
-56.814
-57.746
-58.692
-59.647
-60.612
-61.584
-62.562
-63.543
-64.524
-65.503
-66.479
-67.447
-68.406
-69.35
-70.278
-71.185
-72.067
-72.919
-73.735
-74.511
-75.239
-75.916
-76.533
-77.085
-77.565
-77.968
-78.286
-78.513
-78.643
-78.67
-78.589
-78.392
-78.076
-77.636
-77.069
-76.37
-75.538
-74.571
-73.469
-72.231
-70.86
-69.355
-67.721
-65.958
-64.073
-62.07
-59.956
-57.738
-55.424
-53.026
-50.557
-48.031
-45.463
-42.869
-40.266
-37.671
-35.102
-32.579
-30.12
-27.742
-25.465
-23.305
-21.283
-19.418
-17.729
-16.233
-14.943
-13.871
-13.029
-12.427
-12.072
-11.968
-12.118
-12.526
-13.198
-14.141
-15.358
-16.849
-18.611
-20.632
-22.897
-25.386
-28.065
-30.903
-33.86
-36.897
-39.978
-43.059
-46.097
-49.05
-51.873
-54.527
-56.97
-59.145
-60.999
-62.509
-63.673
-64.538
-65.159
-65.541
-65.742
-65.902
-66.221
-66.941
-68.2
-69.957
-72.187
-75.009
-78.461
-82.404
-86.419
-89.822
-92.137
-93.293
-93.29
-91.902
-88.95
-84.518
-79.232
-74.285
-70.751
-69.158
-69.698
-72.786
-78.298
-85.157
-91.686
-95.247
-94.424
-89.762
-81.368
-68.516
-47.239
-11.162
44.059
120.682
215.759
323.15
437.799
552.976
662.76
759.564
831.893
869.563
864.553
815.057
726.604
609.088
475.463
338.538
210.154
100.245
15.631
-41.913
-75.03
-88.57
-90.101
-84.558
-75.599
-68.464
-64.305
-64.014
-67.055
-68.317
-65.87
-59.979
-52.187
-46.865
-45.87
-48.525
-53.752
-59.826
-65.921
-72.002
-77.555
-81.94
-84.8
-86.07
-86.011
-84.92
-82.993
-80.458
-77.778
-75.581
-74.256
-73.901
-74.427
-75.638
-77.35
-79.401
-81.527
-83.372
-84.708
-85.429
-85.51
-85.013
-83.984
-82.441
-80.434
-78.04
-75.317
-72.322
-69.097
-65.666
-62.077
-58.391
-54.672
-50.988
-47.387
-43.894
-40.53
-37.304
-34.216
-31.265
-28.442
-25.729
-23.114
-20.585
-18.132
-15.743
-13.405
-11.1
-8.809
-6.514
-4.196
-1.843
0.557
3.014
5.537
8.132
10.805
13.558
16.394
19.317
22.33
25.436
28.636
31.927
35.307
38.774
42.319
45.937
49.616
53.346
57.114
60.905
64.705
68.496
72.263
75.986
79.647
83.226
86.704
90.062
93.279
96.336
99.215
101.897
104.366
106.605
108.6
110.336
111.802
112.986
113.88
114.475
114.767
114.75
114.422
113.783
112.833
111.575
110.013
108.155
106.008
103.582
100.89
97.943
94.756
91.345
87.726
83.917
79.937
75.803
71.535
67.154
62.679
58.13
53.527
48.889
44.234
39.582
34.95
30.354
25.81
21.334
16.939
12.637
8.442
4.363
0.411
-3.407
-7.083
-10.611
-13.986
-17.204
-20.262
-23.159
-25.893
-28.465
-30.876
-33.128
-35.222
-37.164
-38.956
-40.604
-42.112
-43.485
-44.73
-45.851
-46.856
-47.749
-48.538
-49.226
-49.821
-50.327
-50.749
-51.093
-51.362
-51.561
-51.693
-51.762
-51.772
-51.724
-51.621
-51.466
-51.26
-51.005
-50.701
-50.351
-49.956
-49.515
-49.031
-48.503
-47.931
-47.318
-46.662
-45.964
-45.225
-44.445
-43.625
-42.765
-41.866
-40.931
-39.959
-38.953
-37.914
-36.845
-35.748
-34.626
-33.482
-32.32
-31.142
-29.953
-28.757
-27.558
-26.361
-25.171
-23.992
-22.828
-21.686
-20.57
-19.485
-18.434
-17.424
-16.459
-15.543
-14.68
-13.875
-13.133
-12.457
-11.851
-11.318
-10.862
-10.486
-10.193
-9.985
-9.864
-9.831
-9.889
-10.038
-10.278
-10.611
-11.035
-11.551
-12.157
-12.851
-13.633
-14.499
-15.448
-16.475
-17.579
-18.755
-20.001
-21.312
-22.684
-24.114
-25.596
-27.127
-28.7
-30.311
-31.954
-33.623
-35.312
-37.016
-38.727
-40.44
-42.147
-43.843
-45.521
-47.174
-48.795
-50.378
-51.914
-53.398
-54.822
-56.179
-57.463
-58.668
-59.786
-60.812
-61.741
-62.566
-63.283
-63.885
-64.368
-64.726
-64.955
-65.05
-65.008
-64.825
-64.501
-64.032
-63.417
-62.655
-61.748
-60.695
-59.499
-58.161
-56.685
-55.075
-53.337
-51.476
-49.5
-47.418
-45.238
-42.971
-40.63
-38.227
-35.78
-33.302
-30.813
-28.328
-25.864
-23.437
-21.063
-18.757
-16.535
-14.412
-12.402
-10.523
-8.79
-7.224
-5.838
-4.645
-3.651
-2.857
-2.264
-1.872
-1.687
-1.718
-1.973
-2.459
-3.182
-4.15
-5.362
-6.813
-8.478
-10.313
-12.279
-14.34
-16.474
-18.682
-20.948
-23.234
-25.491
-27.644
-29.632
-31.429
-32.981
-34.207
-35.091
-35.658
-36.053
-36.553
-37.308
-38.329
-39.612
-41.105
-42.758
-44.536
-46.167
-47.217
-47.588
-47.433
-47.046
-46.837
-46.929
-47.33
-48.414
-50.511
-53.4
-56.718
-59.786
-62.318
-65.247
-68.728
-72.056
-73.915
-72.09
-66.777
-60.039
-53.976
-51.079
-51.378
-53.033
-53.803
-49.43
-34.203
-2.061
52.01
129.89
227.59
337.876
453.539
566.109
670.133
760.205
827.454
866.194
870.36
835.925
765.93
662.963
533.969
391.85
249.546
123.951
28.473
-33.831
-66.169
-78.177
-79.589
-74.636
-64.805
-51.519
-38.7
-31.128
-32.111
-40.719
-51.43
-60.36
-65.995
-68.934
-72.172
-76.374
-80.447
-83.501
-84.193
-82.168
-77.949
-71.991
-65.091
-58.263
-52.219
-47.349
-43.801
-41.545
-40.574
-40.882
-42.325
-44.578
-47.304
-50.276
-53.34
-56.401
-59.342
-61.997
-64.217
-65.931
-67.111
-67.745
-67.834
-67.373
-66.365
-64.85
-62.889
-60.542
-57.87
-54.925
-51.755
-48.417
-44.971
-41.477
-37.993
-34.56
-31.197
-27.917
-24.722
-21.607
-18.565
-15.582
-12.633
-9.7
-6.766
-3.819
-0.852
2.148
5.192
8.292
11.459
14.7
18.021
21.423
24.908
28.477
32.127
35.854
39.651
43.512
47.434
51.41
55.436
59.506
63.611
67.744
71.897
76.058
80.218
84.363
88.481
92.557
96.578
100.531
104.4
108.171
111.831
115.366
118.762
122.006
125.085
127.988
130.703
133.22
135.529
137.62
139.487
141.121
142.517
143.67
144.576
145.232
145.636
145.786
145.684
145.33
144.726
143.875
142.78
141.447
139.882
138.091
136.082
133.864
131.446
128.836
126.045
123.084
119.963
116.692
113.283
109.747
106.095
102.337
98.486
94.552
90.546
86.479
82.361
78.203
74.015
69.807
65.587
61.366
57.152
52.954
48.781
44.64
40.539
36.487
32.489
28.554
24.688
20.896
17.186
13.562
10.029
6.594
3.259
0.031
-3.087
-6.092
-8.979
-11.746
-14.389
-16.905
-19.294
-21.553
-23.68
-25.674
-27.535
-29.262
-30.854
-32.313
-33.637
-34.828
-35.887
-36.816
-37.615
-38.289
-38.839
-39.268
-39.58
-39.779
-39.867
-39.851
-39.734
-39.521
-39.217
-38.828
-38.36
-37.819
-37.21
-36.54
-35.816
-35.043
-34.229
-33.38
-32.502
-31.601
-30.685
-29.757
-28.826
-27.896
-26.973
-26.064
-25.173
-24.305
-23.465
-22.659
-21.889
-21.16
-20.476
-19.839
-19.252
-18.718
-18.238
-17.814
-17.448
-17.141
-16.892
-16.703
-16.572
-16.5
-16.484
-16.524
-16.618
-16.764
-16.96
-17.204
-17.494
-17.827
-18.201
-18.614
-19.062
-19.543
-20.055
-20.594
-21.158
-21.744
-22.349
-22.971
-23.607
-24.256
-24.914
-25.582
-26.256
-26.934
-27.617
-28.301
-28.985
-29.669
-30.352
-31.032
-31.709
-32.382
-33.051
-33.716
-34.376
-35.031
-35.681
-36.325
-36.961
-37.591
-38.211
-38.822
-39.422
-40.009
-40.581
-41.138
-41.676
-42.195
-42.692
-43.163
-43.606
-44.018
-44.396
-44.737
-45.036
-45.289
-45.495
-45.649
-45.748
-45.79
-45.77
-45.687
-45.537
-45.319
-45.031
-44.67
-44.237
-43.73
-43.151
-42.501
-41.781
-40.996
-40.148
-39.244
-38.292
-37.298
-36.272
-35.222
-34.161
-33.099
-32.048
-31.019
-30.024
-29.074
-28.183
-27.364
-26.63
-25.997
-25.478
-25.086
-24.835
-24.737
-24.802
-25.036
-25.444
-26.033
-26.808
-27.783
-28.968
-30.37
-31.995
-33.845
-35.919
-38.208
-40.694
-43.348
-46.139
-49.033
-52.001
-55.019
-58.059
-61.089
-64.071
-66.956
-69.697
-72.252
-74.579
-76.643
-78.426
-79.929
-81.186
-82.269
-83.247
-84.175
-85.119
-86.136
-87.295
-88.682
-90.373
-92.435
-94.962
-98.086
-101.886
-106.373
-111.433
-116.768
-122.019
-126.826
-130.747
-133.251
-133.972
-132.734
-129.65
-125.364
-120.706
-116.402
-113.379
-112.214
-112.553
-113.764
-114.63
-114.456
-114.166
-114.302
-114.049
-109.004
-90.952
-52.186
11.609
98.388
200.088
307.649
413.944
515.259
609.714
692.606
755.597
787.177
776.662
720.29
620.914
489.245
341.366
193.287
60.544
-45.921
-120.948
-165.187
-183.457
-180.917
-164.834
-140.509
-113.85
-93.978
-84.084
-84.593
-92.109
-97.154
-95.519
-87.44
-75.431
-65.603
-60.731
-60.126
-62.626
-66.344
-70.303
-74.467
-78.527
-81.945
-84.358
-85.676
-85.933
-85.208
-83.675
-81.583
-79.351
-77.599
-76.673
-76.61
-77.374
-78.795
-80.687
-82.893
-85.14
-87.097
-88.575
-89.497
-89.849
-89.697
-89.081
-88.017
-86.561
-84.778
-82.717
-80.427
-77.932
-75.258
-72.446
-69.551
-66.625
-63.715
-60.844
-58.026
-55.268
-52.569
-49.926
-47.332
-44.772
-42.239
-39.726
-37.228
-34.739
-32.255
-29.765
-27.259
-24.728
-22.161
-19.554
-16.902
-14.204
-11.46
-8.672
-5.843
-2.978
-0.081
2.845
5.797
8.77
11.762
14.767
17.778
20.791
23.796
26.785
29.749
32.678
35.561
38.386
41.144
43.821
46.406
48.887
51.252
53.488
55.585
57.53
59.312
60.919
62.343
63.572
64.597
65.411
66.007
66.376
66.515
66.419
66.084
65.508
64.689
63.628
62.325
60.782
59.001
56.986
54.743
52.276
49.593
46.703
43.613
40.334
36.876
33.25
29.469
25.544
21.488
17.315
13.037
8.67
4.226
-0.281
-4.836
-9.425
-14.036
-18.653
-23.264
-27.857
-32.417
-36.935
-41.397
-45.793
-50.112
-54.345
-58.482
-62.514
-66.433
-70.233
-73.905
-77.444
-80.845
-84.102
-87.212
-90.172
-92.978
-95.629
-98.123
-100.46
-102.639
-104.662
-106.528
-108.239
-109.797
-111.204
-112.462
-113.575
-114.545
-115.377
-116.074
-116.64
-117.079
-117.395
-117.593
-117.677
-117.652
-117.521
-117.29
-116.962
-116.542
-116.035
-115.444
-114.774
-114.03
-113.215
-112.334
-111.391
-110.389
-109.332
-108.225
-107.069
-105.87
-104.631
-103.355
-102.046
-100.708
-99.345
-97.961
-96.559
-95.143
-93.718
-92.286
-90.854
-89.424
-88.002
-86.591
-85.197
-83.826
-82.482
-81.172
-79.9
-78.673
-77.497
-76.377
-75.319
-74.328
-73.411
-72.571
-71.816
-71.15
-70.58
-70.109
-69.742
-69.485
-69.341
-69.315
-69.408
-69.624
-69.964
-70.43
-71.022
-71.742
-72.588
-73.561
-74.656
-75.874
-77.21
-78.659
-80.217
-81.875
-83.627
-85.464
-87.377
-89.354
-91.384
-93.454
-95.554
-97.671
-99.794
-101.909
-104.003
-106.062
-108.074
-110.024
-111.897
-113.675
-115.342
-116.881
-118.277
-119.518
-120.589
-121.477
-122.169
-122.655
-122.927
-122.977
-122.794
-122.364
-121.671
-120.707
-119.478
-117.992
-116.258
-114.283
-112.075
-109.65
-107.03
-104.232
-101.259
-98.103
-94.756
-91.22
-87.512
-83.66
-79.694
-75.631
-71.473
-67.222
-62.888
-58.485
-54.021
-49.488
-44.87
-40.174
-35.446
-30.761
-26.198
-21.81
-17.631
-13.682
-9.99
-6.593
-3.541
-0.876
1.375
3.182
4.502
5.271
5.415
4.901
3.749
2.024
-0.213
-2.926
-6.097
-9.717
-13.757
-18.178
-22.945
-28.025
-33.396
-39.014
-44.809
-50.681
-56.529
-62.278
-67.902
-73.397
-78.748
-83.923
-88.872
-93.543
-97.91
-101.935
-105.573
-108.795
-111.58
-113.951
-115.986
-117.729
-119.221
-120.581
-121.896
-123.263
-124.811
-126.524
-128.39
-130.581
-133.211
-136.184
-139.348
-142.293
-144.544
-146.028
-146.595
-145.798
-143.34
-139.186
-133.628
-127.612
-122.093
-117.464
-114.242
-113.099
-114.453
-117.828
-121.379
-122.611
-119.629
-113.003
-104.23
-92.466
-73.971
-41.213
12.425
86.837
176.407
270.834
361.264
445.548
524.245
597.985
662.668
707.567
720.996
695.105
629.377
530.359
409.531
279.797
152.98
40.605
-48.609
-110.131
-142.742
-149.577
-137.942
-115.801
-91.441
-73.646
-65.59
-66.27
-72.394
-76.731
-75.938
-71.159
-64.617
-60.612
-61.123
-65.153
-71.087
-76.818
-80.927
-82.656
-81.66
-78.028
-71.883
-63.567
-53.63
-42.468
-30.606
-18.763
-7.331
3.495
13.613
23.178
32.363
41.259
50.079
59.097
68.44
78.174
88.302
98.726
109.393
120.261
131.21
142.096
152.787
163.161
173.133
182.641
191.61
199.971
207.67
214.667
220.962
226.574
231.539
235.914
239.743
243.077
245.99
248.567
250.885
253.011
254.996
256.873
258.68
260.445
262.18
263.891
265.56
267.16
268.649
269.974
271.091
271.967
272.568
272.86
272.819
272.429
271.684
270.596
269.17
267.416
265.346
262.976
260.328
257.43
254.315
251.017
247.566
243.984
240.291
236.501
232.624
228.668
224.634
220.517
216.314
212.022
207.642
203.173
198.614
193.963
189.217
184.374
179.433
174.397
169.267
164.047
158.741
153.356
147.9
142.382
136.812
131.197
125.546
119.867
114.169
108.461
102.752
97.052
91.37
85.717
80.104
74.543
69.046
63.625
58.291
53.055
47.93
42.926
38.053
33.323
28.744
24.325
20.075
16
12.108
8.403
4.891
1.575
-1.542
-4.457
-7.169
-9.677
-11.979
-14.077
-15.97
-17.658
-19.142
-20.423
-21.503
-22.382
-23.063
-23.547
-23.836
-23.931
-23.836
-23.552
-23.081
-22.425
-21.586
-20.567
-19.369
-17.994
-16.444
-14.721
-12.826
-10.762
-8.531
-6.133
-3.571
-0.847
2.038
5.08
8.277
11.625
15.122
18.763
22.543
26.457
30.499
34.662
38.94
43.323
47.802
52.37
57.014
61.724
66.488
71.294
76.129
80.978
85.83
90.668
95.478
100.246
104.956
109.595
114.146
118.594
122.926
127.127
131.183
135.08
138.806
142.349
145.697
148.84
151.768
154.474
156.948
159.185
161.18
162.928
164.427
165.674
166.669
167.414
167.909
168.158
168.165
167.936
167.476
166.793
165.895
164.79
163.488
161.999
160.334
158.503
156.518
154.391
152.132
149.754
147.268
144.686
142.02
139.28
136.477
133.621
130.724
127.793
124.84
121.872
118.897
115.924
112.96
110.011
107.085
104.186
101.319
98.489
95.701
92.958
90.263
87.619
85.03
82.498
80.025
77.613
75.266
72.984
70.77
68.625
66.551
64.549
62.622
60.771
58.998
57.304
55.692
54.163
52.719
51.361
50.089
48.904
47.807
46.797
45.875
45.038
44.286
43.617
43.028
42.516
42.078
41.71
41.405
41.159
40.962
40.806
40.681
40.576
40.479
40.377
40.256
40.104
39.907
39.651
39.325
38.914
38.406
37.786
37.037
36.146
35.1
33.884
32.488
30.9
29.111
27.115
24.911
22.495
19.86
16.994
13.884
10.526
6.915
3.056
-1.045
-5.376
-9.919
-14.637
-19.496
-24.456
-29.481
-34.546
-39.623
-44.678
-49.664
-54.519
-59.185
-63.616
-67.777
-71.639
-75.187
-78.419
-81.365
-84.092
-86.662
-89.141
-91.595
-94.078
-96.667
-99.437
-102.455
-105.823
-109.671
-114.078
-119.041
-124.422
-129.943
-135.317
-140.271
-144.449
-147.433
-148.859
-148.587
-146.957
-144.637
-142.268
-140.466
-139.727
-140.473
-143.26
-147.727
-151.878
-153.603
-150.712
-142.18
-129.622
-113.399
-91.598
-61.047
-16.487
45.591
123.714
214.317
311.906
409.23
500.734
579.289
636.273
664.462
657.229
613.069
535.311
430.833
311.025
187.927
74.271
-18.377
-83.541
-120.198
-132.391
-127.558
-113.729
-96.608
-81.1
-70.526
-64.964
-63.694
-63.703
-61.957
-58.612
-55.219
-54.423
-58.026
-65.577
-75.484
-85.901
-95.665
-104.157
-111.055
-116.405
-120.262
-122.825
-124.583
-125.907
-127.152
-128.851
-131.353
-134.807
-139.283
-144.654
-150.694
-157.233
-164.039
-170.78
-177.204
-183.151
-188.52
-193.311
-197.537
-201.18
-204.25
-206.784
-208.819
-210.386
-211.514
-212.204
-212.472
-212.356
-211.902
-211.164
-210.196
-209.031
-207.692
-206.196
-204.554
-202.774
-200.858
-198.802
-196.597
-194.237
-191.72
-189.047
-186.219
-183.231
-180.078
-176.753
-173.252
-169.575
-165.722
-161.695
-157.498
-153.136
-148.616
-143.948
-139.142
-134.207
-129.151
-123.985
-118.718
-113.361
-107.926
-102.425
-96.872
-91.279
-85.664
-80.041
-74.426
-68.838
-63.293
-57.809
-52.403
-47.094
-41.899
-36.836
-31.923
-27.176
-22.614
-18.252
-14.105
-10.19
-6.52
-3.108
0.033
2.893
5.462
7.732
9.695
11.347
12.684
13.703
14.403
14.786
14.854
14.611
14.062
13.215
12.079
10.665
8.982
7.046
4.869
2.467
-0.143
-2.946
-5.923
-9.056
-12.327
-15.716
-19.206
-22.775
-26.406
-30.079
-33.775
-37.476
-41.164
-44.82
-48.429
-51.975
-55.442
-58.817
-62.087
-65.238
-68.262
-71.147
-73.886
-76.47
-78.894
-81.154
-83.244
-85.162
-86.908
-88.48
-89.881
-91.11
-92.172
-93.069
-93.806
-94.388
-94.821
-95.111
-95.265
-95.29
-95.196
-94.988
-94.677
-94.271
-93.779
-93.209
-92.57
-91.872
-91.123
-90.332
-89.506
-88.655
-87.786
-86.906
-86.023
-85.144
-84.275
-83.423
-82.594
-81.792
-81.023
-80.291
-79.601
-78.955
-78.358
-77.811
-77.319
-76.883
-76.505
-76.187
-75.929
-75.732
-75.597
-75.525
-75.514
-75.565
-75.676
-75.848
-76.079
-76.368
-76.713
-77.114
-77.568
-78.074
-78.63
-79.233
-79.881
-80.571
-81.302
-82.071
-82.874
-83.71
-84.575
-85.466
-86.38
-87.316
-88.268
-89.235
-90.214
-91.2
-92.192
-93.187
-94.181
-95.173
-96.159
-97.138
-98.108
-99.066
-100.01
-100.94
-101.853
-102.747
-103.621
-104.475
-105.305
-106.113
-106.896
-107.654
-108.387
-109.094
-109.773
-110.425
-111.05
-111.645
-112.212
-112.75
-113.257
-113.735
-114.182
-114.598
-114.984
-115.338
-115.66
-115.95
-116.207
-116.429
-116.615
-116.763
-116.872
-116.939
-116.963
-116.941
-116.871
-116.75
-116.576
-116.346
-116.057
-115.707
-115.292
-114.81
-114.258
-113.634
-112.935
-112.161
-111.31
-110.38
-109.371
-108.283
-107.116
-105.869
-104.544
-103.141
-101.662
-100.11
-98.487
-96.798
-95.047
-93.24
-91.383
-89.486
-87.557
-85.606
-83.645
-81.686
-79.744
-77.829
-75.954
-74.129
-72.366
-70.675
-69.066
-67.548
-66.129
-64.817
-63.624
-62.556
-61.621
-60.82
-60.148
-59.599
-59.169
-58.858
-58.67
-58.611
-58.683
-58.888
-59.232
-59.717
-60.344
-61.101
-61.953
-62.866
-63.809
-64.765
-65.736
-66.713
-67.674
-68.578
-69.372
-69.998
-70.424
-70.606
-70.47
-69.999
-69.227
-68.26
-67.315
-66.592
-66.212
-66.26
-66.801
-67.726
-68.833
-69.884
-70.467
-70.248
-69.036
-66.66
-63.095
-58.661
-53.829
-49.031
-44.868
-41.794
-40.157
-40.482
-43.131
-48.001
-54.727
-62.973
-72.219
-81.997
-91.862
-100.106
-104.199
-102.318
-92.661
-75.361
-52.935
-25.455
7.907
49.983
107.088
180.713
269.014
367.719
467.142
560.556
642.855
707.058
748.4
759.728
733.289
667.407
564.736
435.051
295.64
163.57
54.036
-23.021
-67.942
-85.953
-85.438
-76.579
-65.084
-55.031
-48.914
-45.772
-44.729
-43.485
-39.789
-33.863
-26.965
-21.914
-20.695
-22.97
-27.388
-31.697
-34.245
-34.801
-33.471
-30.359
-25.697
-19.721
-12.846
-5.842
0.55
5.989
10.3
13.35
15.165
15.795
15.346
14.127
12.481
10.651
8.822
7.137
5.684
4.545
3.782
3.397
3.361
3.644
4.215
5.045
6.109
7.368
8.777
10.285
11.843
13.397
14.893
16.279
17.507
18.54
19.364
19.967
20.352
20.53
20.517
20.331
20.003
19.557
19.017
18.409
17.759
17.093
16.439
15.825
15.279
14.825
14.488
14.288
14.247
14.383
14.715
15.259
16.029
17.039
18.304
19.837
21.65
23.753
26.151
28.852
31.858
35.171
38.787
42.702
46.908
51.398
56.161
61.185
66.456
71.957
77.669
83.575
89.652
95.875
102.217
108.65
115.144
121.671
128.204
134.713
141.168
147.538
153.797
159.917
165.874
171.636
177.169
182.439
187.419
192.094
196.455
200.491
204.189
207.539
210.541
213.198
215.509
217.463
219.037
220.204
220.956
221.294
221.236
220.8
219.99
218.799
217.219
215.251
212.901
210.168
207.036
203.481
199.504
195.144
190.472
185.561
180.46
175.204
169.81
164.305
158.732
153.139
147.57
142.055
136.63
131.343
126.269
121.493
117.058
112.961
109.154
105.593
102.261
99.152
96.267
93.594
91.114
88.809
86.678
84.726
82.944
81.308
79.765
78.256
76.756
75.274
73.849
72.514
71.282
70.157
69.146
68.261
67.518
66.914
66.432
66.052
65.765
65.574
65.495
65.544
65.722
66.012
66.389
66.829
67.319
67.841
68.381
68.914
69.424
69.902
70.35
70.769
71.155
71.5
71.791
72.018
72.177
72.262
72.271
72.199
72.043
71.8
71.471
71.055
70.553
69.96
69.272
68.485
67.598
66.607
65.514
64.317
63.015
61.61
60.104
58.5
56.802
55.012
53.134
51.17
49.127
47.008
44.818
42.563
40.247
37.877
35.459
32.998
30.501
27.974
25.423
22.855
20.275
17.691
15.107
12.53
9.964
7.417
4.892
2.396
-0.069
-2.496
-4.883
-7.224
-9.517
-11.759
-13.947
-16.079
-18.154
-20.17
-22.125
-24.02
-25.853
-27.626
-29.337
-30.988
-32.578
-34.109
-35.581
-36.995
-38.352
-39.652
-40.895
-42.083
-43.215
-44.293
-45.317
-46.286
-47.2
-48.059
-48.862
-49.609
-50.298
-50.928
-51.498
-52.007
-52.454
-52.838
-53.158
-53.413
-53.604
-53.729
-53.789
-53.784
-53.712
-53.576
-53.375
-53.112
-52.789
-52.408
-51.975
-51.494
-50.972
-50.416
-49.835
-49.238
-48.635
-48.038
-47.459
-46.912
-46.407
-45.957
-45.575
-45.273
-45.064
-44.959
-44.968
-45.101
-45.367
-45.776
-46.336
-47.053
-47.924
-48.947
-50.117
-51.435
-52.906
-54.535
-56.321
-58.264
-60.362
-62.614
-65.015
-67.553
-70.196
-72.906
-75.646
-78.388
-81.12
-83.839
-86.529
-89.155
-91.672
-94.027
-96.172
-98.08
-99.702
-100.97
-101.89
-102.528
-103.032
-103.649
-104.575
-105.918
-107.823
-110.381
-113.494
-116.994
-120.559
-123.65
-125.875
-126.919
-126.346
-123.958
-119.893
-114.404
-108.025
-101.554
-95.62
-90.952
-88.549
-89.133
-93.11
-100.633
-111.4
-124.179
-137.101
-148.246
-155.69
-159.381
-160.283
-157.261
-146.735
-121.805
-75.609
-6.698
80.693
177.476
275.28
370.876
463.599
554.19
639.496
709.832
755.455
767.36
740.809
678.99
586.968
472.339
345.492
215.841
94.554
-6.805
-80.73
-123.799
-137.743
-131.017
-114.162
-96.666
-86.891
-86.782
-93.672
-103.419
-109.35
-108.462
-101.586
-91.031
-81.559
-75.752
-73.598
-74.41
-76.515
-79.238
-82.959
-87.641
-92.9
-98.083
-102.299
-105.11
-106.52
-106.45
-104.853
-101.889
-97.871
-93.318
-88.866
-84.872
-81.436
-78.623
-76.429
-74.815
-73.736
-73.045
-72.533
-72.117
-71.81
-71.661
-71.77
-72.193
-72.941
-74.044
-75.528
-77.373
-79.537
-81.941
-84.462
-87.006
-89.501
-91.861
-94.026
-95.932
-97.509
-98.708
-99.492
-99.829
-99.704
-99.114
-98.055
-96.55
-94.636
-92.365
-89.812
-87.038
-84.089
-81.013
-77.842
-74.599
-71.314
-67.994
-64.641
-61.257
-57.838
-54.38
-50.883
-47.337
-43.727
-40.034
-36.233
-32.304
-28.241
-24.04
-19.701
-15.235
-10.65
-5.964
-1.202
3.613
8.459
13.314
18.161
22.977
27.741
32.429
37.019
41.49
45.822
49.999
54.004
57.822
61.439
64.844
68.03
70.987
73.706
76.181
78.402
80.365
82.064
83.497
84.66
85.553
86.178
86.535
86.631
86.471
86.061
85.411
84.528
83.424
82.108
80.593
78.891
77.013
74.972
72.782
70.455
68.005
65.444
62.786
60.043
57.226
54.348
51.421
48.455
45.461
42.449
39.43
36.411
33.403
30.413
27.449
24.518
21.626
18.779
15.983
13.24
10.556
7.932
5.373
2.879
0.454
-1.902
-4.186
-6.399
-8.538
-10.604
-12.596
-14.513
-16.356
-18.123
-19.815
-21.431
-22.97
-24.433
-25.817
-27.123
-28.349
-29.494
-30.557
-31.538
-32.435
-33.246
-33.971
-34.608
-35.157
-35.615
-35.982
-36.256
-36.438
-36.526
-36.521
-36.422
-36.23
-35.946
-35.57
-35.105
-34.552
-33.914
-33.192
-32.391
-31.513
-30.562
-29.543
-28.461
-27.319
-26.125
-24.883
-23.601
-22.284
-20.94
-19.575
-18.196
-16.813
-15.431
-14.059
-12.705
-11.377
-10.082
-8.829
-7.624
-6.475
-5.389
-4.372
-3.43
-2.569
-1.794
-1.109
-0.52
-0.029
0.359
0.644
0.821
0.89
0.85
0.7
0.44
0.071
-0.405
-0.988
-1.674
-2.462
-3.349
-4.33
-5.403
-6.562
-7.803
-9.121
-10.511
-11.966
-13.483
-15.054
-16.674
-18.338
-20.039
-21.773
-23.533
-25.315
-27.112
-28.92
-30.733
-32.547
-34.355
-36.153
-37.937
-39.702
-41.443
-43.157
-44.84
-46.486
-48.094
-49.658
-51.176
-52.643
-54.056
-55.411
-56.706
-57.936
-59.099
-60.191
-61.21
-62.152
-63.015
-63.794
-64.488
-65.092
-65.604
-66.02
-66.337
-66.551
-66.662
-66.665
-66.56
-66.344
-66.016
-65.575
-65.022
-64.355
-63.576
-62.685
-61.683
-60.574
-59.36
-58.044
-56.631
-55.129
-53.543
-51.884
-50.161
-48.385
-46.567
-44.72
-42.857
-40.99
-39.13
-37.291
-35.486
-33.727
-32.03
-30.41
-28.882
-27.461
-26.159
-24.991
-23.97
-23.105
-22.403
-21.868
-21.507
-21.331
-21.355
-21.594
-22.059
-22.758
-23.693
-24.866
-26.272
-27.898
-29.713
-31.684
-33.777
-35.956
-38.199
-40.473
-42.742
-44.958
-47.058
-48.987
-50.7
-52.156
-53.326
-54.193
-54.753
-55.039
-55.116
-55.059
-54.957
-54.904
-54.982
-55.294
-55.934
-57.005
-58.662
-61.024
-64.156
-68.033
-72.489
-77.311
-82.281
-87.093
-91.326
-94.561
-96.453
-96.967
-96.47
-95.364
-94.153
-93.44
-93.77
-95.893
-99.934
-104.54
-107.823
-107.78
-103.587
-97.025
-89.329
-79.108
-61.608
-28.124
28.451
109.564
210.793
322.414
434.637
540.695
636.286
718.039
780.381
816.161
818.015
780.577
703.987
592.658
456.268
310.704
172.812
58.584
-20.564
-64.635
-79.99
-75.474
-62.322
-45.975
-29.966
-19.837
-16.452
-20.468
-30.4
-39.739
-45.783
-48.246
-48.286
-50.028
-54.658
-60.942
-67.692
-72.872
-75.742
-76.783
-76.074
-73.903
-70.78
-67.092
-63.386
-60.276
-58.01
-56.661
-56.39
-57.215
-59.048
-61.767
-65.093
-68.689
-72.333
-75.856
-79.089
-81.913
-84.231
-85.968
-87.118
-87.707
-87.755
-87.283
-86.313
-84.871
-82.994
-80.731
-78.131
-75.244
-72.127
-68.839
-65.439
-61.989
-58.535
-55.103
-51.713
-48.372
-45.081
-41.838
-38.635
-35.456
-32.288
-29.122
-25.948
-22.757
-19.54
-16.285
-12.982
-9.622
-6.195
-2.698
0.873
4.52
8.244
12.041
15.911
19.845
23.84
27.891
31.993
36.141
40.327
44.546
48.788
53.044
57.305
61.559
65.793
69.992
74.142
78.229
82.236
86.148
89.948
93.621
97.15
100.52
103.715
106.721
109.522
112.105
114.457
116.566
118.42
120.011
121.33
122.368
123.122
123.585
123.757
123.635
123.219
122.512
121.516
120.236
118.678
116.851
114.761
112.422
109.843
107.038
104.022
100.809
97.416
93.858
90.153
86.318
82.372
78.331
74.214
70.04
65.824
61.587
57.343
53.111
48.906
44.744
40.639
36.605
32.654
28.799
25.05
21.417
17.908
14.532
11.293
8.198
5.25
2.453
-0.192
-2.684
-5.024
-7.212
-9.251
-11.144
-12.894
-14.507
-15.986
-17.337
-18.566
-19.68
-20.684
-21.587
-22.396
-23.117
-23.758
-24.327
-24.831
-25.277
-25.674
-26.027
-26.344
-26.631
-26.895
-27.14
-27.373
-27.598
-27.82
-28.043
-28.269
-28.501
-28.743
-28.995
-29.258
-29.534
-29.823
-30.125
-30.439
-30.765
-31.102
-31.449
-31.806
-32.17
-32.54
-32.914
-33.291
-33.667
-34.043
-34.414
-34.78
-35.138
-35.485
-35.82
-36.141
-36.444
-36.729
-36.994
-37.236
-37.454
-37.647
-37.814
-37.954
-38.067
-38.153
-38.212
-38.245
-38.253
-38.236
-38.195
-38.133
-38.051
-37.95
-37.833
-37.7
-37.555
-37.399
-37.235
-37.065
-36.891
-36.717
-36.545
-36.377
-36.216
-36.065
-35.928
-35.806
-35.704
-35.625
-35.572
-35.548
-35.556
-35.599
-35.68
-35.801
-35.965
-36.173
-36.426
-36.727
-37.077
-37.475
-37.923
-38.42
-38.967
-39.562
-40.206
-40.896
-41.63
-42.407
-43.224
-44.078
-44.966
-45.885
-46.831
-47.799
-48.785
-49.784
-50.79
-51.798
-52.802
-53.793
-54.765
-55.71
-56.621
-57.491
-58.312
-59.076
-59.775
-60.404
-60.953
-61.417
-61.788
-62.059
-62.226
-62.281
-62.22
-62.038
-61.733
-61.301
-60.742
-60.053
-59.234
-58.286
-57.21
-56.007
-54.68
-53.234
-51.672
-50.001
-48.229
-46.365
-44.42
-42.407
-40.339
-38.232
-36.1
-33.96
-31.829
-29.728
-27.674
-25.684
-23.778
-21.974
-20.291
-18.748
-17.361
-16.145
-15.113
-14.276
-13.645
-13.231
-13.042
-13.079
-13.341
-13.828
-14.538
-15.479
-16.653
-18.055
-19.682
-21.526
-23.58
-25.836
-28.277
-30.873
-33.589
-36.38
-39.209
-42.053
-44.887
-47.698
-50.454
-53.104
-55.602
-57.9
-59.956
-61.746
-63.229
-64.347
-65.127
-65.659
-66.101
-66.713
-67.695
-69.167
-71.281
-74.118
-77.607
-81.615
-85.76
-89.43
-92.11
-93.309
-92.56
-89.696
-84.777
-78.019
-70.094
-61.936
-54.519
-49.05
-46.608
-47.901
-53.342
-62.84
-75.827
-90.953
-105.685
-117.167
-122.596
-120.47
-111.757
-96.92
-74.571
-41.52
8.197
78.868
169.415
276.073
392.147
508.746
619.819
717.904
793.01
838.727
848.076
817.115
749.464
648.24
520.884
380.717
239.88
114.307
18.2
-44.957
-76.012
-82.088
-75.945
-64.598
-53.933
-49.738
-51.083
-57.758
-68.099
-75.518
-77.482
-73.59
-64.726
-55.843
-49.931
-47.177
-47.069
-47.943
-49.153
-51.181
-54.33
-58.437
-62.624
-66.168
-68.853
-70.611
-71.478
-71.481
-70.616
-69.215
-67.982
-67.343
-67.445
-68.322
-69.788
-71.679
-73.883
-76.127
-78.052
-79.447
-80.196
-80.269
-79.745
-78.67
-77.066
-75.005
-72.556
-69.779
-66.731
-63.444
-59.947
-56.291
-52.539
-48.757
-44.996
-41.289
-37.654
-34.101
-30.634
-27.25
-23.942
-20.693
-17.494
-14.34
-11.225
-8.147
-5.096
-2.06
0.972
4.015
7.082
10.182
13.323
16.512
19.752
23.043
26.387
29.782
33.228
36.724
40.27
43.868
47.514
51.208
54.943
58.718
62.523
66.351
70.193
74.037
77.871
81.683
85.459
89.185
92.846
96.427
99.911
103.283
106.526
109.622
112.555
115.308
117.866
120.211
122.33
124.208
125.831
127.188
128.268
129.06
129.557
129.751
129.637
129.211
128.471
127.416
126.046
124.364
122.374
120.082
117.497
114.627
111.482
108.076
104.422
100.533
96.428
92.12
87.63
82.974
78.173
73.245
68.211
63.092
57.908
52.68
47.428
42.173
36.934
31.73
26.579
21.5
16.509
11.622
6.854
2.218
-2.272
-6.606
-10.773
-14.764
-18.572
-22.19
-25.613
-28.837
-31.861
-34.682
-37.301
-39.717
-41.934
-43.954
-45.781
-47.419
-48.874
-50.153
-51.262
-52.209
-53.002
-53.65
-54.162
-54.546
-54.812
-54.968
-55.025
-54.99
-54.873
-54.682
-54.425
-54.111
-53.746
-53.338
-52.893
-52.418
-51.918
-51.397
-50.86
-50.311
-49.754
-49.191
-48.625
-48.058
-47.492
-46.927
-46.366
-45.808
-45.255
-44.705
-44.159
-43.617
-43.077
-42.539
-42.002
-41.465
-40.928
-40.39
-39.85
-39.308
-38.762
-38.214
-37.662
-37.107
-36.549
-35.989
-35.426
-34.863
-34.299
-33.738
-33.18
-32.628
-32.083
-31.547
-31.023
-30.514
-30.02
-29.546
-29.093
-28.664
-28.261
-27.887
-27.544
-27.235
-26.96
-26.723
-26.524
-26.366
-26.25
-26.176
-26.147
-26.162
-26.221
-26.326
-26.476
-26.671
-26.91
-27.192
-27.517
-27.881
-28.285
-28.724
-29.198
-29.703
-30.236
-30.795
-31.374
-31.971
-32.581
-33.2
-33.823
-34.446
-35.064
-35.672
-36.264
-36.838
-37.386
-37.905
-38.39
-38.835
-39.236
-39.587
-39.885
-40.123
-40.297
-40.402
-40.434
-40.389
-40.262
-40.05
-39.749
-39.355
-38.866
-38.279
-37.591
-36.801
-35.908
-34.911
-33.81
-32.607
-31.301
-29.896
-28.394
-26.798
-25.111
-23.339
-21.486
-19.558
-17.561
-15.502
-13.39
-11.233
-9.041
-6.824
-4.593
-2.361
-0.144
2.044
4.185
6.265
8.264
10.167
11.961
13.631
15.165
16.551
17.778
18.833
19.707
20.388
20.864
21.13
21.18
21.014
20.64
20.066
19.299
18.34
17.184
15.824
14.259
12.484
10.497
8.3
5.904
3.334
0.63
-2.168
-5.029
-7.939
-10.891
-13.864
-16.825
-19.719
-22.478
-25.044
-27.359
-29.343
-30.961
-32.234
-33.241
-34.151
-35.147
-36.355
-37.863
-39.749
-41.925
-44.174
-46.232
-47.772
-48.553
-48.503
-47.614
-45.872
-43.537
-41.101
-38.993
-37.629
-37.244
-37.81
-39.338
-42.068
-45.993
-50.807
-56.44
-62.821
-69.866
-77.814
-86.056
-92.593
-95.721
-93.793
-85.855
-73.181
-56.003
-32.423
0.581
48.494
115.606
201.093
301.573
410.711
519.798
623.263
714.82
785.916
830.399
839.73
807.45
734.462
623.072
482.747
329.185
177.592
45.698
-53.347
-115.751
-143.377
-143.841
-127.322
-101.97
-74.139
-50.54
-35.555
-29.927
-32.808
-39.123
-43.107
-43.627
-41.159
-38.05
-37.85
-41.043
-46.432
-52.845
-58.451
-62.07
-63.776
-63.805
-62.471
-60.291
-57.639
-54.719
-51.953
-49.958
-49.01
-49.205
-50.543
-52.779
-55.715
-59.226
-63.037
-66.796
-70.25
-73.224
-75.641
-77.531
-78.9
-79.729
-80.042
-79.878
-79.294
-78.342
-77.056
-75.458
-73.574
-71.453
-69.155
-66.745
-64.286
-61.814
-59.356
-56.924
-54.528
-52.169
-49.841
-47.532
-45.221
-42.892
-40.532
-38.133
-35.682
-33.167
-30.571
-27.879
-25.076
-22.151
-19.098
-15.909
-12.58
-9.111
-5.502
-1.754
2.126
6.135
10.268
14.521
18.889
23.364
27.939
32.603
37.347
42.159
47.025
51.929
56.856
61.787
66.705
71.591
76.426
81.188
85.859
90.418
94.844
99.118
103.219
107.129
110.828
114.298
117.522
120.483
123.167
125.56
127.649
129.424
130.873
131.99
132.766
133.198
133.282
133.016
132.399
131.432
130.12
128.466
126.478
124.164
121.533
118.598
115.37
111.865
108.098
104.084
99.84
95.386
90.738
85.916
80.94
75.828
70.601
65.279
59.881
54.428
48.939
43.432
37.928
32.444
26.998
21.607
16.288
11.057
5.928
0.917
-3.964
-8.702
-13.286
-17.706
-21.952
-26.017
-29.893
-33.575
-37.057
-40.337
-43.411
-46.277
-48.935
-51.385
-53.627
-55.662
-57.494
-59.125
-60.559
-61.801
-62.855
-63.727
-64.423
-64.952
-65.318
-65.532
-65.6
-65.532
-65.336
-65.022
-64.6
-64.078
-63.468
-62.778
-62.018
-61.198
-60.328
-59.416
-58.473
-57.505
-56.523
-55.535
-54.547
-53.568
-52.606
-51.667
-50.758
-49.886
-49.055
-48.273
-47.543
-46.871
-46.26
-45.714
-45.237
-44.831
-44.497
-44.237
-44.051
-43.94
-43.904
-43.942
-44.051
-44.231
-44.479
-44.792
-45.168
-45.604
-46.096
-46.64
-47.234
-47.873
-48.554
-49.272
-50.023
-50.803
-51.609
-52.434
-53.275
-54.129
-54.989
-55.852
-56.713
-57.569
-58.416
-59.25
-60.067
-60.865
-61.64
-62.391
-63.116
-63.812
-64.479
-65.115
-65.721
-66.297
-66.841
-67.356
-67.84
-68.296
-68.723
-69.122
-69.495
-69.843
-70.166
-70.467
-70.745
-71.004
-71.243
-71.466
-71.674
-71.868
-72.05
-72.223
-72.387
-72.544
-72.696
-72.844
-72.988
-73.13
-73.27
-73.408
-73.544
-73.677
-73.808
-73.933
-74.053
-74.165
-74.267
-74.357
-74.434
-74.495
-74.538
-74.563
-74.566
-74.548
-74.506
-74.439
-74.347
-74.227
-74.08
-73.904
-73.7
-73.467
-73.207
-72.919
-72.607
-72.275
-71.926
-71.565
-71.198
-70.829
-70.466
-70.116
-69.787
-69.487
-69.222
-69
-68.828
-68.717
-68.676
-68.713
-68.833
-69.041
-69.343
-69.745
-70.252
-70.866
-71.587
-72.413
-73.344
-74.39
-75.559
-76.857
-78.286
-79.842
-81.52
-83.315
-85.219
-87.209
-89.26
-91.339
-93.41
-95.447
-97.423
-99.316
-101.101
-102.74
-104.187
-105.391
-106.305
-106.902
-107.176
-107.148
-106.837
-106.258
-105.478
-104.645
-103.978
-103.701
-103.943
-104.672
-105.862
-107.644
-110.085
-113.097
-116.311
-119.119
-121.124
-122.323
-122.789
-122.365
-120.878
-118.263
-115.003
-112.234
-110.79
-111.081
-113.301
-117.516
-123.938
-132.333
-141.142
-147.972
-150.486
-147.671
-140.009
-127.67
-110.066
-83.668
-43.666
12.379
86.405
175.932
275.952
382.981
490.246
590.991
677.251
737.986
764.475
750.47
695.094
602.723
481.829
345.319
206.629
80.455
-20.866
-92.479
-134.843
-154.279
-159.66
-156.067
-146.857
-134.542
-120.32
-107.455
-97.877
-90.396
-84.308
-78.103
-71.878
-68.327
-68.478
-72.579
-79.769
-87.57
-94.574
-99.986
-103.153
-104.251
-103.518
-101.13
-97.66
-93.709
-89.772
-86.484
-84.298
-83.346
-83.668
-85.14
-87.503
-90.536
-93.964
-97.431
-100.669
-103.495
-105.792
-107.551
-108.778
-109.462
-109.624
-109.301
-108.525
-107.346
-105.798
-103.902
-101.693
-99.21
-96.506
-93.644
-90.681
-87.669
-84.645
-81.631
-78.641
-75.683
-72.758
-69.862
-66.985
-64.111
-61.228
-58.327
-55.398
-52.432
-49.418
-46.34
-43.185
-39.943
-36.605
-33.167
-29.623
-25.972
-22.212
-18.346
-14.376
-10.308
-6.145
-1.891
2.449
6.87
11.365
15.926
20.545
25.212
29.916
34.644
39.384
44.119
48.835
53.517
58.146
62.706
67.18
71.55
75.798
79.906
83.857
87.632
91.216
94.591
97.743
100.655
103.314
105.708
107.823
109.651
111.182
112.408
113.324
113.924
114.205
114.165
113.805
113.125
112.129
110.821
109.207
107.294
105.092
102.611
99.862
96.858
93.614
90.144
86.464
82.59
78.54
74.331
69.982
65.51
60.935
56.276
51.551
46.778
41.977
37.164
32.359
27.578
22.837
18.151
13.537
9.008
4.577
0.256
-3.943
-8.009
-11.934
-15.708
-19.325
-22.777
-26.06
-29.168
-32.098
-34.847
-37.413
-39.796
-41.995
-44.011
-45.846
-47.501
-48.981
-50.289
-51.428
-52.405
-53.224
-53.891
-54.413
-54.797
-55.05
-55.179
-55.192
-55.096
-54.899
-54.61
-54.235
-53.783
-53.26
-52.675
-52.035
-51.346
-50.616
-49.852
-49.06
-48.246
-47.416
-46.575
-45.73
-44.885
-44.045
-43.213
-42.395
-41.593
-40.811
-40.052
-39.318
-38.61
-37.931
-37.282
-36.663
-36.075
-35.517
-34.989
-34.491
-34.022
-33.579
-33.163
-32.772
-32.403
-32.056
-31.728
-31.418
-31.124
-30.845
-30.578
-30.322
-30.075
-29.836
-29.604
-29.376
-29.153
-28.933
-28.715
-28.499
-28.283
-28.069
-27.855
-27.643
-27.432
-27.224
-27.019
-26.818
-26.623
-26.436
-26.258
-26.091
-25.938
-25.8
-25.681
-25.581
-25.505
-25.452
-25.426
-25.428
-25.458
-25.519
-25.611
-25.734
-25.889
-26.075
-26.292
-26.539
-26.815
-27.119
-27.448
-27.799
-28.17
-28.557
-28.956
-29.363
-29.772
-30.178
-30.577
-30.961
-31.326
-31.663
-31.967
-32.231
-32.446
-32.606
-32.703
-32.729
-32.678
-32.543
-32.317
-31.994
-31.57
-31.04
-30.399
-29.644
-28.773
-27.783
-26.673
-25.442
-24.092
-22.623
-21.039
-19.342
-17.539
-15.636
-13.641
-11.566
-9.42
-7.217
-4.97
-2.693
-0.401
1.892
4.171
6.424
8.635
10.788
12.867
14.855
16.736
18.496
20.119
21.594
22.905
24.045
25.009
25.791
26.387
26.788
26.976
26.936
26.659
26.14
25.376
24.371
23.133
21.678
20.042
18.261
16.374
14.415
12.41
10.388
8.387
6.456
4.66
3.059
1.704
0.636
-0.119
-0.546
-0.649
-0.464
-0.055
0.495
1.091
1.646
2.084
2.317
2.274
1.846
0.871
-0.778
-3.155
-6.219
-9.786
-13.607
-17.446
-20.959
-23.661
-25.135
-25.108
-23.587
-20.997
-17.984
-15.247
-13.53
-13.651
-15.811
-19.376
-23.339
-25.952
-26.435
-25.348
-22.406
-16.505
-3.361
23.879
70.348
138.991
227.226
328.63
437.46
546.924
652.244
748.332
825.789
875.946
890.007
861.544
791.982
686.54
555.215
413.453
275.799
157.243
70.109
17.557
-1.848
3.899
21.372
40.81
53.102
52.768
42.134
24.494
5.842
-6.724
-11.625
-9.405
-2.51
4.718
10.744
15.614
19.62
23.759
27.93
31.176
32.931
32.865
31.132
28.517
25.734
23.221
21.382
20.479
20.567
21.619
23.364
25.233
26.794
27.83
28.231
28.065
27.473
26.585
25.64
24.949
24.712
25.028
25.92
27.322
29.173
31.434
34.034
36.898
39.969
43.197
46.552
50.01
53.53
57.061
60.553
63.964
67.274
70.474
73.564
76.549
79.438
82.245
84.991
87.69
90.352
92.987
95.604
98.214
100.833
103.476
106.161
108.902
111.713
114.602
117.579
120.649
123.815
127.08
130.444
133.908
137.473
141.139
144.905
148.77
152.729
156.778
160.91
165.115
169.383
173.704
178.062
182.444
186.836
191.221
195.583
199.905
204.169
208.358
212.452
216.435
220.287
223.991
227.529
230.883
234.037
236.976
239.684
242.149
244.357
246.298
247.961
249.338
250.421
251.206
251.688
251.864
251.734
251.3
250.562
249.526
248.197
246.582
244.689
242.53
240.114
237.454
234.562
231.454
228.142
224.644
220.973
217.148
213.185
209.099
204.91
200.633
196.285
191.884
187.446
182.987
178.524
174.071
169.644
165.258
160.925
156.659
152.473
148.377
144.382
140.498
136.734
133.098
129.598
126.239
123.027
119.967
117.064
114.321
111.741
109.326
107.077
104.997
103.085
101.343
99.768
98.362
97.122
96.048
95.137
94.387
93.796
93.36
93.076
92.941
92.951
93.101
93.388
93.805
94.35
95.016
95.799
96.693
97.693
98.793
99.988
101.271
102.637
104.079
105.59
107.165
108.795
110.474
112.195
113.951
115.733
117.534
119.345
121.16
122.969
124.765
126.539
128.284
129.991
131.653
133.261
134.81
136.29
137.696
139.019
140.255
141.396
142.437
143.372
144.196
144.904
145.492
145.955
146.291
146.495
146.567
146.503
146.303
145.966
145.491
144.879
144.132
143.25
142.236
141.094
139.825
138.435
136.926
135.304
133.573
131.739
129.807
127.783
125.674
123.486
121.225
118.898
116.512
114.075
111.594
109.075
106.528
103.958
101.375
98.785
96.197
93.618
91.055
88.515
86.005
83.532
81.101
78.719
76.39
74.121
71.916
69.779
67.716
65.732
63.828
62.01
60.281
58.643
57.099
55.652
54.305
53.058
51.915
50.876
49.942
49.115
48.393
47.775
47.259
46.845
46.531
46.315
46.194
46.165
46.222
46.362
46.58
46.871
47.227
47.639
48.101
48.605
49.143
49.707
50.287
50.866
51.428
51.955
52.428
52.834
53.156
53.379
53.49
53.478
53.334
53.051
52.618
52.026
51.262
50.313
49.169
47.834
46.325
44.667
42.875
40.946
38.862
36.61
34.178
31.575
28.79
25.778
22.529
19.103
15.63
12.264
9.073
5.982
2.891
-0.203
-3.34
-6.676
-10.508
-15.166
-20.741
-26.991
-33.556
-40.251
-46.878
-53.049
-58.174
-61.637
-63.137
-62.829
-61.063
-57.991
-53.834
-49.141
-44.726
-41.469
-40.05
-40.732
-43.565
-48.662
-55.852
-64.539
-73.864
-82.875
-90.685
-96.71
-100.603
-102.276
-102.198
-101.158
-100.168
-100.263
-102.264
-106.849
-113.658
-120.753
-125.799
-126.337
-121.431
-112.847
-100.953
-83.6
-56.1
-10.429
58.593
149.607
257.108
371.311
481.158
580.459
664.344
727.468
767.109
776.916
750.216
685.95
584.156
452.544
306.308
160.61
32.12
-67.464
-135.101
-172.536
-185.592
-181.815
-168.251
-151.128
-137.853
-134.506
-142.379
-159.853
-180.425
-195.911
-202.933
-201.359
-194.287
-186.737
-181.003
-177.327
-175.304
-174.07
-173.829
-175.472
-179.403
-185.499
-193
-200.917
-208.571
-215.516
-221.445
-226.155
-229.598
-232.006
-233.903
-235.911
-238.414
-241.518
-245.18
-249.263
-253.61
-258.081
-262.463
-266.479
-269.979
-272.94
-275.402
-277.482
-279.288
-280.833
-282.151
-283.294
-284.288
-285.187
-286.041
-286.867
-287.703
-288.582
-289.521
-290.543
-291.66
-292.844
-294.071
-295.304
-296.494
-297.645
-298.768
-299.858
-300.923
-301.954
-302.935
-303.867
-304.747
-305.555
-306.277
-306.894
-307.391
-307.776
-308.059
-308.253
-308.373
-308.42
-308.396
-308.305
-308.15
-307.929
-307.636
-307.265
-306.819
-306.321
-305.799
-305.286
-304.811
-304.399
-304.08
-303.882
-303.823
-303.909
-304.133
-304.488
-304.981
-305.649
-306.53
-307.653
-309.017
-310.607
-312.409
-314.402
-316.568
-318.869
-321.252
-323.7
-326.228
-328.851
-331.578
-334.411
-337.276
-340.07
-342.666
-344.845
-346.52
-347.853
-349.039
-350.313
-351.519
-351.975
-351.385
-350.228
-350.514
-354.979
-364.994
-379.434
-393.19
-399.736
-394.377
-376.117
-350.401
-325.944
-311.381
-312.629
-329.187
-355.957
-385.62
-411.882
-432.31
-447.498
-459.221
-467.333
-470.705
-468.303
-460.4
-451.108
-441.718
-428.842
-406.553
-364.893
-300.701
-222.6
-144.376
-83.455
-50.392
-39.331
-35.472
-21.409
15.829
74.925
144.673
212.64
269.222
312.239
345.519
373.469
398.518
421.441
442.363
460.349
474.889
485.676
490.626
489.788
485.4
479.074
474.795
475.03
478.205
481.974
478.6
457.232
409.385
329.324
220.738
95.096
-35.4
-161.292
-281.495
-397.836
-506.26
-592.794
-632.979
-604.833
-502.674
-343.807
-165.29
-8.507
97.159
145.451
149.349
131.002
111.815
100.498
96.968
97.852
97.073
94.815
94.168
94.125
92.69
81.892
50.981
-1.814
-70.554
