Name
Date of Birth,"Mar 27, 1959"
Recorded Date,2021-07-30 17:04:04 -0500
Classification,Sinus Rhythm
Symptoms,
Software Version,1.90
Device,"Watch4,2"
Sample Rate,510.227 hertz


Lead,Lead I
Unit,µV

88.346
167.23
258.958
350.224
430.964
491.197
523.524
522.428
481.59
399.468
279.31
131.75
-24.121
-168.303
-281.411
-351.298
-377.41
-365.392
-328.899
-283.429
-240.389
-210.11
-194.338
-188.546
-187.312
-181.798
-168.819
-151.341
-133.283
-120.514
-115.65
-117.098
-122.006
-127.873
-133.64
-139.525
-147.344
-157.15
-166.986
-174.027
-173.827
-164.685
-148.048
-128.028
-111.295
-101.884
-101.384
-108.053
-116.507
-123.033
-125.103
-122.356
-117.534
-112.419
-108.076
-104.897
-101.868
-98.525
-94.943
-91.146
-87.362
-83.649
-79.846
-75.893
-71.822
-67.668
-63.473
-59.272
-55.087
-50.936
-46.849
-42.838
-38.885
-34.97
-31.077
-27.201
-23.341
-19.495
-15.654
-11.805
-7.937
-4.036
-0.097
3.895
7.956
12.102
16.341
20.671
25.079
29.553
34.093
38.677
43.255
47.794
52.266
56.66
60.991
65.272
69.474
73.647
77.971
82.474
87.045
91.675
96.215
100.913
106.65
113.198
119.594
124.254
124.326
119.542
111.961
104.722
102.946
108.512
120.097
134.467
145.516
149.768
146.359
136.821
126.082
117.451
112.761
112.055
112.642
112.765
111.479
108.469
104.706
100.685
96.414
91.955
87.157
82.004
76.68
71.277
65.825
60.366
54.925
49.52
44.177
38.911
33.727
28.646
23.703
18.929
14.348
9.987
5.868
2.015
-1.546
-4.797
-7.723
-10.315
-12.56
-14.452
-15.984
-17.151
-17.954
-18.396
-18.477
-18.202
-17.575
-16.6
-15.292
-13.664
-11.734
-9.524
-7.042
-4.3
-1.312
1.916
5.351
8.959
12.723
16.616
20.613
24.71
28.844
32.946
37.055
41.187
45.367
49.651
53.922
58.032
62.002
65.833
69.361
72.492
75.026
76.714
77.768
78.436
78.707
78.634
78.374
77.978
77.728
77.956
78.366
78.656
78.768
78.545
77.899
76.834
75.09
72.396
68.972
65.025
60.638
55.976
51.05
45.825
40.452
35.07
29.612
24.028
18.294
12.347
6.24
0.036
-6.275
-12.684
-19.16
-25.679
-32.204
-38.694
-45.138
-51.527
-57.839
-64.063
-70.176
-76.152
-81.974
-87.619
-93.069
-98.308
-103.318
-108.069
-112.532
-116.675
-120.479
-123.939
-127.055
-129.814
-132.219
-134.303
-136.114
-137.686
-139.035
-140.136
-140.94
-141.439
-141.57
-141.129
-140
-138.199
-135.77
-132.904
-129.277
-123.957
-116.683
-108.126
-100.988
-99.09
-104.163
-115.03
-125.825
-129.167
-121.09
-101.248
-76.236
-54.568
-40.961
-38.606
-43.987
-51.333
-58.19
-60.294
-57.406
-51.54
-42.245
-32.565
-24.368
-17.653
-13.921
-11.941
-10.335
-9.004
-7.187
-5.195
-3.572
-2.194
-1.103
-0.251
0.47
0.965
1.148
1.012
0.56
-0.196
-1.243
-2.559
-4.118
-5.873
-7.755
-9.716
-11.717
-13.719
-15.696
-17.607
-19.399
-21.023
-22.428
-23.579
-24.453
-25.023
-25.274
-25.217
-24.893
-24.377
-23.757
-23.112
-22.514
-22.033
-21.751
-21.759
-22.101
-22.83
-24.026
-25.702
-27.839
-30.377
-33.1
-35.734
-38.123
-40.029
-41
-40.752
-39.205
-36.291
-32.789
-29.592
-26.452
-23.596
-20.549
-16.057
-10.843
-4.826
1.839
7.401
12.316
17.074
23.18
35.525
58.165
94.985
149.037
218.722
300.98
390.728
479.848
560.898
625.005
663.062
668.424
636.229
566.695
465.59
343.463
215.636
97.936
3.376
-60.833
-96.112
-109.125
-107.719
-98.449
-83.547
-64.072
-43.247
-24.548
-11.643
-6.04
-4.73
-4.578
-4.237
-3.818
-5.469
-10.356
-17.467
-25.082
-31.43
-35.56
-37.237
-36.589
-34.013
-29.954
-25.187
-20.609
-16.691
-13.678
-11.751
-10.893
-11.067
-12.209
-14.002
-16.055
-18.102
-19.924
-21.398
-22.511
-23.226
-23.51
-23.382
-22.865
-21.988
-20.795
-19.305
-17.521
-15.458
-13.132
-10.575
-7.839
-4.974
-2.038
0.932
3.914
6.891
9.854
12.794
15.709
18.607
21.51
24.431
27.377
30.357
33.374
36.44
39.573
42.785
46.088
49.489
52.992
56.599
60.315
64.137
68.062
72.082
76.187
80.367
84.614
88.92
93.273
97.66
102.069
106.484
110.893
115.279
119.625
123.913
128.122
132.234
136.229
140.087
143.788
147.312
150.639
153.751
156.628
159.255
161.612
163.685
165.459
166.922
168.061
168.868
169.333
169.451
169.218
168.631
167.69
166.397
164.754
162.768
160.445
157.795
154.828
151.555
147.991
144.15
140.05
135.707
131.142
126.375
121.426
116.318
111.073
105.713
100.262
94.744
89.18
83.593
78.007
72.442
66.922
61.466
56.094
50.825
45.677
40.666
35.809
31.118
26.607
22.286
18.166
14.255
10.56
7.088
3.842
0.826
-1.959
-4.51
-6.83
-8.919
-10.781
-12.42
-13.84
-15.048
-16.051
-16.856
-17.471
-17.907
-18.172
-18.277
-18.232
-18.05
-17.742
-17.319
-16.794
-16.178
-15.485
-14.726
-13.913
-13.059
-12.174
-11.27
-10.357
-9.447
-8.55
-7.675
-6.831
-6.028
-5.275
-4.578
-3.946
-3.385
-2.901
-2.5
-2.187
-1.965
-1.839
-1.812
-1.884
-2.059
-2.335
-2.714
-3.195
-3.776
-4.454
-5.226
-6.09
-7.041
-8.073
-9.182
-10.361
-11.605
-12.907
-14.259
-15.656
-17.089
-18.551
-20.033
-21.529
-23.029
-24.525
-26.009
-27.472
-28.907
-30.303
-31.654
-32.951
-34.187
-35.354
-36.446
-37.455
-38.376
-39.202
-39.93
-40.553
-41.068
-41.471
-41.76
-41.931
-41.984
-41.917
-41.73
-41.424
-40.997
-40.453
-39.791
-39.014
-38.125
-37.127
-36.021
-34.812
-33.505
-32.104
-30.615
-29.043
-27.396
-25.679
-23.9
-22.066
-20.187
-18.27
-16.322
-14.353
-12.372
-10.389
-8.412
-6.452
-4.519
-2.625
-0.782
0.998
2.704
4.323
5.845
7.258
8.553
9.719
10.751
11.64
12.377
12.954
13.36
13.587
13.629
13.48
13.134
12.587
11.837
10.888
9.745
8.41
6.883
5.155
3.217
1.074
-1.273
-3.815
-6.539
-9.429
-12.457
-15.58
-18.756
-21.946
-25.115
-28.244
-31.308
-34.27
-37.088
-39.71
-42.086
-44.193
-46.007
-47.499
-48.679
-49.569
-50.229
-50.754
-51.223
-51.696
-52.254
-52.962
-53.897
-55.154
-56.784
-58.862
-61.528
-64.825
-68.712
-73.076
-77.597
-81.925
-85.796
-88.817
-90.505
-90.615
-89.112
-86.243
-82.709
-79.244
-76.395
-74.744
-74.998
-77.075
-79.765
-81.55
-80.345
-75.118
-67.293
-57.504
-44.226
-24.266
8.519
59.462
128.458
212.609
306.115
399.669
486.318
559.236
609.997
634.886
631.296
597.939
538.59
455.479
351.679
234.537
113.121
0.612
-89.449
-149.236
-177.921
-181.07
-167.429
-145.438
-120.891
-98.213
-80.531
-68.56
-61.86
-57.932
-54.356
-51.155
-49.382
-51.167
-57.508
-67.228
-78.484
-89.032
-97.462
-103.28
-106.299
-106.721
-104.982
-101.701
-97.681
-93.774
-90.524
-88.263
-87.184
-87.276
-88.442
-90.461
-92.98
-95.577
-97.924
-99.837
-101.222
-102.074
-102.396
-102.183
-101.458
-100.277
-98.701
-96.766
-94.492
-91.883
-88.948
-85.727
-82.276
-78.664
-74.96
-71.212
-67.453
-63.711
-60.009
-56.364
-52.79
-49.289
-45.853
-42.479
-39.172
-35.936
-32.778
-29.697
-26.688
-23.744
-20.859
-18.033
-15.269
-12.568
-9.932
-7.365
-4.875
-2.47
-0.162
2.041
4.131
6.1
7.942
9.647
11.206
12.61
13.85
14.918
15.802
16.493
16.981
17.255
17.305
17.124
16.701
16.03
15.102
13.912
12.454
10.724
8.719
6.437
3.877
1.039
-2.073
-5.458
-9.11
-13.022
-17.188
-21.597
-26.239
-31.101
-36.169
-41.427
-46.86
-52.449
-58.176
-64.02
-69.96
-75.976
-82.044
-88.141
-94.243
-100.327
-106.369
-112.345
-118.231
-124.005
-129.644
-135.126
-140.432
-145.542
-150.437
-155.1
-159.516
-163.671
-167.55
-171.144
-174.442
-177.436
-180.12
-182.49
-184.542
-186.275
-187.69
-188.788
-189.574
-190.052
-190.229
-190.114
-189.714
-189.042
-188.108
-186.925
-185.508
-183.871
-182.028
-179.996
-177.792
-175.431
-172.93
-170.306
-167.576
-164.757
-161.865
-158.917
-155.928
-152.913
-149.889
-146.869
-143.866
-140.895
-137.968
-135.096
-132.29
-129.562
-126.92
-124.373
-121.93
-119.598
-117.384
-115.293
-113.33
-111.5
-109.807
-108.253
-106.841
-105.572
-104.447
-103.467
-102.63
-101.937
-101.385
-100.972
-100.696
-100.555
-100.543
-100.659
-100.897
-101.254
-101.724
-102.303
-102.985
-103.765
-104.637
-105.594
-106.632
-107.743
-108.92
-110.157
-111.446
-112.78
-114.152
-115.553
-116.977
-118.413
-119.856
-121.296
-122.725
-124.135
-125.518
-126.866
-128.17
-129.425
-130.622
-131.754
-132.815
-133.799
-134.698
-135.508
-136.221
-136.833
-137.339
-137.732
-138.009
-138.167
-138.2
-138.107
-137.884
-137.53
-137.042
-136.42
-135.662
-134.769
-133.741
-132.58
-131.287
-129.866
-128.32
-126.654
-124.871
-122.979
-120.982
-118.889
-116.705
-114.437
-112.093
-109.682
-107.212
-104.692
-102.132
-99.542
-96.935
-94.324
-91.722
-89.143
-86.599
-84.104
-81.672
-79.314
-77.042
-74.865
-72.792
-70.833
-68.999
-67.301
-65.749
-64.35
-63.111
-62.038
-61.138
-60.411
-59.854
-59.462
-59.231
-59.162
-59.264
-59.545
-60.003
-60.636
-61.44
-62.401
-63.504
-64.723
-66.012
-67.327
-68.626
-69.869
-71.032
-72.089
-73
-73.719
-74.195
-74.376
-74.235
-73.747
-72.883
-71.648
-70.072
-68.217
-66.185
-64.068
-61.945
-59.908
-58.037
-56.419
-55.155
-54.312
-53.984
-54.324
-55.381
-57.144
-59.529
-62.232
-64.905
-67.246
-68.778
-68.944
-67.468
-64.201
-59.25
-53.361
-47.362
-41.938
-38.086
-36.276
-35.784
-35.718
-34.734
-31.997
-28.69
-25.697
-22.134
-13.89
6.456
46.342
110.09
196.295
299.233
410.367
520.618
622.263
706.389
765.036
790.519
776.258
722.015
630.941
511.733
378.31
244.248
123.643
26.598
-43.02
-86.45
-108.989
-115.955
-112.823
-102.828
-89.026
-77.098
-69.52
-67.615
-70.374
-72.104
-70.265
-64.992
-57.783
-52.777
-51.831
-54.367
-59.375
-65.346
-71.431
-77.366
-82.875
-87.614
-91.306
-93.945
-95.728
-96.848
-97.625
-98.518
-99.819
-101.816
-104.669
-108.257
-112.41
-116.908
-121.414
-125.586
-129.202
-132.103
-134.217
-135.568
-136.162
-136.022
-135.217
-133.812
-131.862
-129.403
-126.452
-123.032
-119.187
-114.986
-110.504
-105.804
-100.923
-95.891
-90.727
-85.445
-80.061
-74.573
-68.973
-63.261
-57.443
-51.53
-45.538
-39.477
-33.352
-27.167
-20.925
-14.633
-8.3
-1.936
4.445
10.83
17.2
23.538
29.82
36.03
42.151
48.166
54.063
59.825
65.44
70.892
76.17
81.26
86.148
90.823
95.27
99.479
103.44
107.144
110.581
113.745
116.63
119.23
121.544
123.567
125.3
126.742
127.894
128.759
129.342
129.646
129.679
129.446
128.959
128.224
127.255
126.061
124.655
123.051
121.26
119.298
117.179
114.916
112.525
110.02
107.417
104.73
101.974
99.165
96.317
93.444
90.559
87.675
84.804
81.959
79.148
76.383
73.673
71.024
68.445
65.941
63.517
61.179
58.929
56.77
54.703
52.73
50.851
49.065
47.37
45.766
44.249
42.819
41.47
40.202
39.009
37.889
36.839
35.853
34.929
34.062
33.25
32.487
31.772
31.1
30.467
29.872
29.31
28.78
28.278
27.803
27.353
26.926
26.521
26.136
25.772
25.426
25.098
24.788
24.495
24.218
23.958
23.714
23.484
23.27
23.069
22.881
22.705
22.539
22.383
22.233
22.089
21.947
21.807
21.665
21.519
21.367
21.206
21.033
20.845
20.639
20.413
20.162
19.884
19.575
19.232
18.851
18.43
17.966
17.455
16.895
16.283
15.616
14.893
14.111
13.269
12.364
11.397
10.366
9.272
8.115
6.896
5.616
4.276
2.879
1.427
-0.078
-1.632
-3.234
-4.879
-6.563
-8.282
-10.031
-11.805
-13.598
-15.405
-17.219
-19.035
-20.846
-22.646
-24.428
-26.186
-27.911
-29.598
-31.239
-32.827
-34.354
-35.812
-37.196
-38.499
-39.714
-40.835
-41.858
-42.777
-43.588
-44.286
-44.868
-45.331
-45.672
-45.888
-45.979
-45.945
-45.786
-45.505
-45.104
-44.59
-43.968
-43.246
-42.431
-41.532
-40.559
-39.522
-38.431
-37.296
-36.128
-34.938
-33.74
-32.548
-31.375
-30.239
-29.153
-28.134
-27.195
-26.352
-25.617
-24.998
-24.505
-24.146
-23.934
-23.888
-24.025
-24.354
-24.884
-25.621
-26.563
-27.703
-29.022
-30.489
-32.071
-33.736
-35.456
-37.212
-38.982
-40.741
-42.455
-44.079
-45.574
-46.908
-48.055
-48.992
-49.715
-50.243
-50.627
-50.959
-51.332
-51.819
-52.498
-53.434
-54.7
-56.375
-58.526
-61.197
-64.454
-68.393
-73.063
-78.443
-84.387
-90.6
-96.744
-102.482
-107.417
-111.068
-113.012
-113.042
-111.292
-108.196
-104.346
-100.338
-96.694
-94.136
-92.873
-92.005
-90.142
-85.54
-77.816
-68.658
-59.25
-49.143
-33.74
-5.23
42.121
111.281
198.871
296.918
398.862
497.309
586.989
663.643
719.541
747.891
742.338
698.133
616.449
502.42
366.16
223.581
91.178
-16.502
-89.93
-130.105
-143.952
-139.71
-126.97
-110.072
-91.56
-76.435
-66.107
-61.59
-61.787
-61.04
-57.069
-50.187
-42.256
-37.309
-36.526
-38.935
-43.717
-49.472
-55.634
-62.081
-67.848
-72.384
-75.678
-77.771
-78.873
-79.145
-78.576
-77.445
-76.465
-76.117
-76.561
-77.782
-79.534
-81.587
-83.808
-85.979
-87.775
-88.979
-89.484
-89.252
-88.357
-86.868
-84.814
-82.246
-79.22
-75.775
-71.944
-67.767
-63.27
-58.505
-53.536
-48.413
-43.175
-37.854
-32.466
-27.024
-21.536
-15.998
-10.399
-4.734
0.991
6.77
12.597
18.467
24.381
30.34
36.345
42.396
48.489
54.623
60.792
66.986
73.195
79.402
85.592
91.749
97.861
103.912
109.89
115.778
121.561
127.222
132.748
138.118
143.316
148.321
153.115
157.678
161.992
166.039
169.8
173.258
176.398
179.203
181.659
183.753
185.473
186.808
187.749
188.289
188.423
188.147
187.46
186.361
184.855
182.945
180.64
177.947
174.878
171.446
167.666
163.555
159.13
154.413
149.424
144.186
138.724
133.064
127.231
121.253
115.158
108.973
102.726
96.445
90.159
83.893
77.674
71.528
65.478
59.547
53.757
48.128
42.676
37.419
32.371
27.542
22.945
18.585
14.469
10.601
6.983
3.613
0.491
-2.388
-5.031
-7.443
-9.634
-11.615
-13.396
-14.991
-16.413
-17.676
-18.797
-19.79
-20.672
-21.459
-22.168
-22.815
-23.416
-23.987
-24.542
-25.096
-25.663
-26.254
-26.882
-27.555
-28.283
-29.073
-29.932
-30.864
-31.873
-32.962
-34.13
-35.379
-36.707
-38.112
-39.589
-41.137
-42.748
-44.419
-46.143
-47.912
-49.721
-51.561
-53.426
-55.306
-57.195
-59.084
-60.964
-62.83
-64.672
-66.484
-68.259
-69.991
-71.674
-73.305
-74.877
-76.389
-77.836
-79.217
-80.53
-81.776
-82.953
-84.063
-85.107
-86.086
-87.003
-87.861
-88.663
-89.41
-90.106
-90.754
-91.358
-91.919
-92.44
-92.925
-93.374
-93.791
-94.177
-94.533
-94.861
-95.16
-95.432
-95.677
-95.892
-96.077
-96.23
-96.348
-96.429
-96.47
-96.468
-96.417
-96.315
-96.156
-95.935
-95.647
-95.286
-94.848
-94.326
-93.716
-93.012
-92.21
-91.306
-90.298
-89.181
-87.955
-86.618
-85.169
-83.61
-81.942
-80.166
-78.285
-76.304
-74.229
-72.064
-69.819
-67.501
-65.122
-62.694
-60.23
-57.744
-55.25
-52.764
-50.301
-47.877
-45.506
-43.202
-40.978
-38.85
-36.835
-34.949
-33.208
-31.625
-30.215
-28.988
-27.958
-27.133
-26.514
-26.103
-25.901
-25.916
-26.16
-26.646
-27.378
-28.355
-29.577
-31.031
-32.703
-34.571
-36.592
-38.724
-40.927
-43.165
-45.415
-47.653
-49.838
-51.923
-53.847
-55.551
-57.001
-58.164
-59.004
-59.522
-59.735
-59.694
-59.493
-59.207
-58.902
-58.65
-58.514
-58.565
-58.896
-59.574
-60.7
-62.44
-64.852
-67.929
-71.58
-75.475
-79.245
-82.571
-84.971
-85.901
-85.09
-82.412
-78.058
-72.895
-67.851
-63.688
-61.373
-61.28
-62.818
-65.326
-67.403
-68.145
-68.107
-67.015
-63.789
-54.102
-30.941
11.114
75.781
160.785
259.877
367.46
475.59
578.357
669.473
738.444
777.81
780.558
742.827
668.547
562.418
433.069
292.791
153.203
28.467
-69.582
-135.275
-168.141
-173.174
-158.559
-132.717
-102.582
-75.238
-55.796
-45.21
-42.935
-44.822
-45.761
-44.829
-42.474
-40.779
-43.009
-49.341
-58.274
-68.144
-76.516
-82.06
-84.834
-84.979
-82.892
-79.224
-74.469
-69.204
-64.279
-60.315
-57.545
-56.076
-55.81
-56.5
-57.973
-59.966
-62.067
-63.971
-65.471
-66.434
-66.861
-66.764
-66.122
-64.942
-63.262
-61.11
-58.532
-55.561
-52.203
-48.481
-44.421
-40.065
-35.47
-30.689
-25.773
-20.761
-15.675
-10.535
-5.357
-0.151
5.077
10.33
15.624
20.973
26.384
31.86
37.396
42.988
48.627
54.296
59.973
65.63
71.242
76.791
82.269
87.68
93.025
98.308
103.519
108.635
113.639
118.518
123.269
127.891
132.397
136.81
141.158
145.484
149.816
154.156
158.482
162.748
166.892
170.851
174.582
178.05
181.216
184.038
186.454
188.407
189.819
190.598
190.65
189.862
188.141
185.437
181.736
177.05
171.415
164.872
157.435
149.139
140.035
130.173
119.649
108.558
97.023
85.205
73.258
61.353
49.643
38.24
27.225
16.677
6.651
-2.793
-11.563
-19.609
-26.893
-33.381
-39.086
-44.036
-48.285
-51.936
-55.089
-57.831
-60.246
-62.382
-64.27
-65.956
-67.473
-68.859
-70.18
-71.477
-72.78
-74.127
-75.52
-76.944
-78.372
-79.733
-80.964
-82.027
-82.891
-83.543
-83.988
-84.218
-84.232
-84.039
-83.628
-82.999
-82.151
-81.08
-79.797
-78.323
-76.69
-74.944
-73.133
-71.287
-69.431
-67.584
-65.754
-63.953
-62.187
-60.451
-58.748
-57.082
-55.456
-53.878
-52.35
-50.871
-49.436
-48.037
-46.665
-45.314
-43.977
-42.649
-41.327
-40.007
-38.69
-37.376
-36.068
-34.766
-33.466
-32.169
-30.871
-29.571
-28.267
-26.959
-25.646
-24.327
-23.004
-21.68
-20.356
-19.036
-17.721
-16.414
-15.119
-13.839
-12.579
-11.34
-10.128
-8.945
-7.796
-6.685
-5.615
-4.589
-3.611
-2.683
-1.808
-0.987
-0.224
0.481
1.128
1.717
2.246
2.717
3.131
3.489
3.795
4.051
4.259
4.424
4.55
4.642
4.707
4.75
4.779
4.799
4.821
4.849
4.893
4.96
5.056
5.189
5.365
5.591
5.873
6.214
6.62
7.094
7.641
8.263
8.962
9.738
10.592
11.523
12.531
13.61
14.756
15.962
17.222
18.527
19.869
21.238
22.623
24.015
25.404
26.782
28.139
29.464
30.744
31.967
33.122
34.196
35.18
36.064
36.836
37.493
38.034
38.459
38.765
38.948
38.992
38.887
38.632
38.22
37.653
36.938
36.083
35.11
34.055
32.951
31.83
30.715
29.62
28.566
27.583
26.703
25.976
25.437
25.112
25.035
25.229
25.682
26.369
27.23
28.174
29.146
30.083
30.911
31.578
32.014
32.149
31.94
31.297
30.071
28.207
25.71
22.675
19.429
16.323
13.647
11.849
11.447
12.683
15.6
19.983
24.94
29.457
32.802
33.932
32.324
28.842
24.568
20.889
18.602
16.317
13.067
10.153
12.492
28.299
64.94
125.982
209.059
307.553
412.677
515.34
607.462
679.666
724.282
734.634
705.557
638.423
536.555
407.264
263.211
116.738
-17.576
-125.814
-200.524
-239.052
-244.637
-227.334
-197.829
-165.756
-140.314
-123.987
-115.015
-110.561
-104.504
-94.691
-83.36
-73.115
-68.077
-70.014
-77.604
-88.815
-101.243
-113.074
-123
-130.349
-135.018
-136.991
-136.636
-134.569
-131.232
-127.299
-123.729
-121.041
-119.493
-119.192
-119.888
-121.315
-123.278
-125.423
-127.364
-128.888
-129.876
-130.303
-130.247
-129.741
-128.806
-127.508
-125.902
-124.031
-121.925
-119.583
-117.028
-114.306
-111.479
-108.621
-105.77
-102.942
-100.15
-97.397
-94.697
-92.067
-89.491
-86.949
-84.443
-81.973
-79.552
-77.197
-74.859
-72.485
-70.039
-67.485
-64.826
-62.066
-59.192
-56.2
-53.086
-49.848
-46.5
-43.044
-39.431
-35.621
-31.574
-27.26
-22.731
-18.042
-13.213
-8.259
-3.165
2.073
7.435
12.912
18.525
24.298
30.241
36.319
42.423
48.451
54.323
59.974
65.412
70.634
75.603
80.283
84.628
88.608
92.206
95.385
98.058
100.133
101.56
102.352
102.595
102.372
101.731
100.709
99.312
97.56
95.498
93.158
90.558
87.711
84.634
81.37
78.008
74.641
71.324
68.063
64.822
61.573
58.311
55.042
51.774
48.501
45.216
41.929
38.67
35.473
32.355
29.32
26.347
23.412
20.515
17.671
14.909
12.249
9.705
7.284
4.999
2.866
0.895
-0.916
-2.583
-4.123
-5.546
-6.855
-8.053
-9.141
-10.128
-11.026
-11.845
-12.596
-13.287
-13.93
-14.537
-15.123
-15.696
-16.265
-16.832
-17.401
-17.976
-18.563
-19.163
-19.781
-20.417
-21.072
-21.75
-22.451
-23.176
-23.923
-24.69
-25.475
-26.276
-27.09
-27.914
-28.744
-29.575
-30.406
-31.231
-32.048
-32.851
-33.639
-34.407
-35.153
-35.873
-36.566
-37.228
-37.858
-38.455
-39.017
-39.543
-40.034
-40.488
-40.907
-41.292
-41.643
-41.963
-42.252
-42.513
-42.747
-42.956
-43.143
-43.309
-43.456
-43.586
-43.701
-43.803
-43.892
-43.971
-44.039
-44.098
-44.147
-44.188
-44.22
-44.243
-44.255
-44.257
-44.246
-44.222
-44.181
-44.122
-44.041
-43.937
-43.807
-43.647
-43.455
-43.228
-42.962
-42.655
-42.304
-41.907
-41.459
-40.96
-40.408
-39.802
-39.141
-38.425
-37.655
-36.833
-35.961
-35.042
-34.081
-33.081
-32.046
-30.983
-29.896
-28.794
-27.682
-26.568
-25.461
-24.371
-23.309
-22.29
-21.324
-20.425
-19.605
-18.879
-18.258
-17.753
-17.373
-17.126
-17.019
-17.063
-17.268
-17.639
-18.183
-18.903
-19.804
-20.887
-22.153
-23.598
-25.211
-26.986
-28.917
-31.01
-33.27
-35.703
-38.304
-41.068
-43.987
-47.052
-50.245
-53.538
-56.887
-60.247
-63.581
-66.858
-70.048
-73.114
-76.007
-78.666
-81.033
-83.058
-84.704
-85.948
-86.774
-87.188
-87.217
-86.903
-86.324
-85.575
-84.748
-83.94
-83.244
-82.736
-82.539
-82.838
-83.755
-85.323
-87.446
-89.864
-92.291
-94.486
-96.128
-96.779
-96.09
-93.975
-90.768
-87.185
-84.115
-82.374
-82.629
-85.709
-91.799
-99.834
-108.1
-114.261
-117.092
-117.278
-114.949
-108.852
-94.241
-63.969
-13.516
58.791
148.807
248.801
352.811
454.363
548.384
628.682
685.404
708.143
687.438
619.973
508.981
364.734
204.18
44.953
-95.281
-202.326
-269.76
-297.708
-291.548
-261.084
-217.616
-171.049
-131.585
-106.391
-96.371
-99.31
-108.386
-115.888
-119.391
-119.185
-118.354
-121.034
-127.569
-136.444
-145.474
-152.053
-155.472
-156.158
-154.525
-151.373
-147.414
-143.148
-139.333
-136.554
-134.994
-134.72
-135.643
-137.553
-140.235
-143.409
-146.658
-149.633
-152.146
-154.086
-155.438
-156.21
-156.375
-155.929
-154.911
-153.363
-151.321
-148.808
-145.827
-142.387
-138.524
-134.294
-129.762
-124.999
-120.051
-114.95
-109.72
-104.381
-98.947
-93.428
-87.825
-82.125
-76.324
-70.423
-64.424
-58.334
-52.156
-45.884
-39.515
-33.05
-26.493
-19.85
-13.133
-6.351
0.485
7.358
14.25
21.141
28.013
34.848
41.631
48.344
54.97
61.491
67.889
74.148
80.251
86.181
91.92
97.451
102.758
107.825
112.639
117.185
121.452
125.427
129.101
132.464
135.511
138.234
140.629
142.693
144.425
145.826
146.896
147.64
148.062
148.169
147.968
147.468
146.681
145.617
144.289
142.71
140.896
138.86
136.619
134.189
131.585
128.825
125.927
122.906
119.78
116.566
113.281
109.939
106.557
103.15
99.729
96.31
92.902
89.518
86.167
82.858
79.599
76.397
73.256
70.182
67.177
64.245
61.387
58.602
55.892
53.255
50.689
48.192
45.762
43.396
41.089
38.839
36.642
34.494
32.39
30.328
28.303
26.312
24.351
22.419
20.512
18.628
16.765
14.923
13.099
11.295
9.51
7.743
5.997
4.272
2.57
0.892
-0.759
-2.381
-3.972
-5.528
-7.047
-8.527
-9.966
-11.36
-12.708
-14.009
-15.26
-16.462
-17.612
-18.71
-19.757
-20.754
-21.701
-22.601
-23.454
-24.265
-25.037
-25.772
-26.476
-27.153
-27.808
-28.445
-29.071
-29.691
-30.311
-30.936
-31.573
-32.227
-32.905
-33.613
-34.354
-35.135
-35.959
-36.832
-37.755
-38.733
-39.766
-40.856
-42.004
-43.21
-44.474
-45.792
-47.163
-48.583
-50.048
-51.553
-53.09
-54.654
-56.237
-57.829
-59.423
-61.01
-62.579
-64.12
-65.623
-67.078
-68.474
-69.801
-71.047
-72.201
-73.255
-74.197
-75.019
-75.712
-76.269
-76.681
-76.944
-77.052
-77.002
-76.792
-76.42
-75.884
-75.187
-74.331
-73.32
-72.159
-70.856
-69.419
-67.859
-66.189
-64.424
-62.577
-60.665
-58.704
-56.71
-54.702
-52.694
-50.703
-48.744
-46.835
-44.995
-43.243
-41.596
-40.072
-38.685
-37.451
-36.388
-35.506
-34.81
-34.307
-34.002
-33.906
-34.035
-34.401
-35.005
-35.848
-36.928
-38.236
-39.762
-41.484
-43.363
-45.361
-47.444
-49.582
-51.762
-53.954
-56.121
-58.219
-60.197
-62.017
-63.667
-65.121
-66.353
-67.366
-68.178
-68.846
-69.463
-70.085
-70.759
-71.541
-72.486
-73.678
-75.205
-77.117
-79.474
-82.348
-85.76
-89.684
-93.999
-98.418
-102.635
-106.37
-109.285
-111.032
-111.347
-110.127
-107.634
-104.4
-100.924
-97.683
-95.139
-93.813
-94.352
-96.434
-98.137
-97.397
-92.206
-82.248
-70.323
-57.904
-44.024
-25.298
6.044
56.152
126.033
213.259
309.213
403.415
487.539
552.447
591.928
600.572
572.772
508.143
408.761
282.619
143.932
7.79
-109.841
-198.345
-254.335
-280.57
-284.176
-270.706
-245.349
-211.661
-173.51
-138.806
-112.751
-98.017
-93.735
-93.498
-93.335
-91.929
-89.954
-90.858
-95.5
-102.55
-110.114
-115.51
-117.621
-116.628
-112.8
-106.887
-99.696
-91.864
-84.285
-77.652
-72.197
-68.028
-65.086
-63.165
-62.07
-61.505
-61.02
-60.285
-59.143
-57.515
-55.431
-52.932
-50.002
-46.666
-42.994
-39.04
-34.852
-30.46
-25.865
-21.08
-16.148
-11.122
-6.066
-1.043
3.912
8.772
13.52
18.144
22.632
26.981
31.201
35.305
39.306
43.212
47.027
50.757
54.414
58.015
61.576
65.112
68.631
72.143
75.652
79.166
82.689
86.22
89.759
93.301
96.846
100.39
103.932
107.466
110.987
114.488
117.961
121.398
124.788
128.12
131.381
134.556
137.632
140.593
143.424
146.109
148.631
150.974
153.122
155.059
156.769
158.238
159.451
160.396
161.06
161.433
161.504
161.267
160.713
159.839
158.641
157.119
155.272
153.104
150.619
147.823
144.725
141.335
137.665
133.729
129.541
125.118
120.481
115.647
110.639
105.479
100.191
94.797
89.324
83.795
78.237
72.673
67.129
61.629
56.198
50.858
45.632
40.543
35.609
30.851
26.286
21.93
17.799
13.904
10.259
6.871
3.749
0.899
-1.675
-3.97
-5.984
-7.72
-9.178
-10.362
-11.278
-11.932
-12.332
-12.488
-12.409
-12.107
-11.594
-10.883
-9.987
-8.921
-7.699
-6.336
-4.848
-3.249
-1.556
0.216
2.053
3.939
5.859
7.8
9.748
11.69
13.613
15.505
17.356
19.156
20.893
22.561
24.149
25.651
27.06
28.368
29.572
30.664
31.642
32.501
33.238
33.85
34.336
34.693
34.921
35.019
34.987
34.827
34.538
34.124
33.586
32.926
32.149
31.258
30.256
29.149
27.941
26.637
25.245
23.768
22.214
20.589
18.9
17.153
15.357
13.52
11.648
9.75
7.836
5.914
3.995
2.088
0.202
-1.653
-3.467
-5.231
-6.933
-8.566
-10.12
-11.586
-12.955
-14.22
-15.372
-16.405
-17.313
-18.09
-18.732
-19.234
-19.593
-19.808
-19.879
-19.805
-19.586
-19.223
-18.72
-18.08
-17.308
-16.409
-15.389
-14.257
-13.021
-11.696
-10.294
-8.827
-7.31
-5.758
-4.185
-2.609
-1.042
0.504
2.018
3.486
4.895
6.229
7.476
8.625
9.664
10.582
11.37
12.018
12.524
12.89
13.115
13.196
13.126
12.893
12.489
11.912
11.164
10.249
9.178
7.964
6.634
5.229
3.783
2.326
0.888
-0.513
-1.849
-3.081
-4.175
-5.091
-5.79
-6.245
-6.439
-6.37
-6.063
-5.558
-4.899
-4.144
-3.355
-2.599
-1.956
-1.488
-1.259
-1.312
-1.723
-2.627
-4.089
-6.084
-8.476
-10.953
-13.194
-14.985
-16.016
-15.848
-14.293
-11.371
-7.34
-3.064
0.594
3.135
3.772
2.081
-1.127
-4.802
-7.609
-8.543
-8.896
-9.79
-9.895
-4.924
12.746
49.27
105.714
177.891
257.663
337.71
413.647
482.257
539.359
578.459
591.279
571.567
518.938
437.742
335.932
223.516
109.643
3.77
-84.845
-149.992
-189.826
-207.41
-208.622
-199.419
-183.613
-163.668
-143.036
-125.136
-112.702
-106.42
-103.685
-101.778
-99.712
-98.149
-99.312
-104.36
-112.575
-122.413
-131.847
-139.609
-145.239
-148.56
-149.725
-149.062
-147.041
-144.307
-141.569
-139.297
-137.772
-137.153
-137.434
-138.505
-140.175
-142.123
-143.932
-145.336
-146.202
-146.455
-146.126
-145.234
-143.769
-141.777
-139.341
-136.513
-133.335
-129.83
-125.989
-121.836
-117.424
-112.81
-108.064
-103.24
-98.364
-93.462
-88.554
-83.656
-78.784
-73.942
-69.121
-64.322
-59.549
-54.808
-50.109
-45.455
-40.844
-36.27
-31.73
-27.222
-22.748
-18.311
-13.913
-9.559
-5.254
-1.008
3.171
7.275
11.298
15.235
19.081
22.829
26.474
30.01
33.431
36.73
39.902
42.94
45.836
48.585
51.18
53.616
55.887
57.989
59.916
61.665
63.231
64.611
65.802
66.801
67.606
68.217
68.631
68.85
68.872
68.7
68.335
67.78
67.039
66.116
65.016
63.743
62.305
60.708
58.96
57.067
55.039
52.883
50.609
48.226
45.743
43.171
40.519
37.798
35.015
32.183
29.309
26.403
23.473
20.529
17.578
14.628
11.688
8.765
5.865
2.996
0.163
-2.628
-5.371
-8.062
-10.696
-13.269
-15.778
-18.22
-20.592
-22.891
-25.116
-27.263
-29.331
-31.318
-33.222
-35.043
-36.779
-38.428
-39.99
-41.462
-42.844
-44.134
-45.33
-46.43
-47.433
-48.336
-49.138
-49.837
-50.43
-50.916
-51.294
-51.56
-51.715
-51.755
-51.681
-51.489
-51.181
-50.753
-50.206
-49.539
-48.752
-47.846
-46.822
-45.68
-44.422
-43.051
-41.569
-39.98
-38.287
-36.493
-34.605
-32.627
-30.564
-28.424
-26.212
-23.937
-21.606
-19.227
-16.809
-14.361
-11.89
-9.405
-6.916
-4.431
-1.958
0.495
2.918
5.305
7.647
9.938
12.17
14.336
16.431
18.449
20.387
22.239
24.003
25.676
27.257
28.746
30.143
31.447
32.66
33.784
34.822
35.778
36.655
37.459
38.195
38.868
39.486
40.053
40.578
41.065
41.521
41.951
42.363
42.76
43.148
43.53
43.91
44.292
44.679
45.074
45.477
45.888
46.308
46.735
47.166
47.598
48.023
48.434
48.822
49.18
49.499
49.768
49.977
50.115
50.178
50.155
50.038
49.817
49.477
49.007
48.4
47.646
46.734
45.658
44.408
42.984
41.389
39.624
37.688
35.574
33.27
30.768
28.071
25.182
22.107
18.86
15.454
11.922
8.308
4.653
0.996
-2.636
-6.223
-9.735
-13.129
-16.363
-19.387
-22.165
-24.672
-26.877
-28.768
-30.355
-31.666
-32.755
-33.687
-34.519
-35.321
-36.166
-37.112
-38.224
-39.539
-41.115
-43.081
-45.486
-48.275
-51.335
-54.387
-57.142
-59.427
-60.953
-61.273
-60.167
-57.673
-54.047
-49.963
-46.125
-42.929
-40.89
-40.815
-42.474
-44.425
-45.292
-43.077
-37.641
-31.515
-24.671
-14.899
2.675
35.593
86.47
152.853
229.487
308.642
385.382
456.635
516.864
559.643
577.716
564.723
521.552
453.667
367.143
270.141
168.689
68.517
-21.01
-91.089
-134.859
-149.175
-136.099
-103.058
-60.38
-18.735
10.795
23.558
21.328
9.466
-2.987
-11.539
-16.152
-18.504
-22.399
-28.684
-36.095
-43.509
-49.018
-51.699
-51.925
-50.129
-47.198
-44.296
-41.944
-40.332
-39.65
-39.957
-41.267
-43.589
-46.718
-50.216
-53.799
-57.303
-60.571
-63.546
-66.166
-68.334
-70.032
-71.296
-72.136
-72.561
-72.584
-72.191
-71.391
-70.211
-68.667
-66.793
-64.63
-62.219
-59.616
-56.863
-53.99
-51.02
-47.974
-44.864
-41.703
-38.493
-35.226
-31.901
-28.519
-25.081
-21.593
-18.053
-14.458
-10.808
-7.101
-3.341
0.465
4.312
8.195
12.104
16.03
19.958
23.875
27.767
31.623
35.433
39.183
42.863
46.46
49.963
53.36
56.643
59.798
62.815
65.681
68.386
70.919
73.271
75.432
77.393
79.146
80.684
82
83.091
83.951
84.576
84.965
85.115
85.029
84.706
84.149
83.362
82.349
81.116
79.67
78.019
76.17
74.135
71.922
69.542
67.008
64.33
61.521
58.593
55.56
52.434
49.23
45.962
42.642
39.285
35.904
32.511
29.119
25.74
22.387
19.068
15.796
12.578
9.425
6.342
3.339
0.419
-2.41
-5.146
-7.785
-10.325
-12.763
-15.1
-17.334
-19.467
-21.499
-23.432
-25.269
-27.012
-28.664
-30.228
-31.708
-33.107
-34.429
-35.679
-36.86
-37.976
-39.032
-40.031
-40.977
-41.874
-42.724
-43.531
-44.298
-45.027
-45.719
-46.378
-47.003
-47.597
-48.159
-48.69
-49.188
-49.654
-50.087
-50.485
-50.845
-51.167
-51.448
-51.686
-51.878
-52.021
-52.114
-52.153
-52.137
-52.064
-51.931
-51.736
-51.478
-51.156
-50.768
-50.313
-49.791
-49.201
-48.543
-47.818
-47.026
-46.168
-45.244
-44.257
-43.207
-42.097
-40.929
-39.706
-38.431
-37.107
-35.737
-34.327
-32.881
-31.403
-29.9
-28.376
-26.837
-25.288
-23.736
-22.184
-20.639
-19.105
-17.586
-16.086
-14.611
-13.163
-11.746
-10.364
-9.019
-7.714
-6.452
-5.235
-4.064
-2.941
-1.867
-0.843
0.129
1.049
1.916
2.731
3.492
4.2
4.855
5.459
6.014
6.524
6.991
7.417
7.807
8.162
8.487
8.781
9.045
9.278
9.478
9.647
9.782
9.883
9.949
9.981
9.982
9.955
9.901
9.822
9.717
9.588
9.437
9.267
9.078
8.874
8.656
8.427
8.196
7.964
7.727
7.478
7.197
6.875
6.503
6.072
5.574
5.008
4.374
3.694
3
2.326
1.703
1.158
0.715
0.412
0.291
0.398
0.78
1.461
2.458
3.789
5.458
7.457
9.755
12.263
14.854
17.398
19.762
21.84
23.509
24.58
24.906
24.394
23.059
21.078
18.616
15.79
12.793
9.908
7.406
5.517
4.121
2.703
0.87
-1.834
-5.923
-11.747
-19.867
-30.123
-40.744
-49.742
-55.354
-56.978
-56.42
-54.305
-48.378
-34.146
-4.599
44.968
113.909
198.619
292.496
388.186
480.763
563.084
626.552
664.031
667.805
636.764
576.087
491.753
392.797
286.167
177.959
77.935
-4.622
-61.826
-91.434
-99.357
-94.729
-86.371
-78.461
-70.245
-59.813
-45.967
-29.879
-14.291
-1.653
6.393
9.307
7.482
1.871
-6.198
-15.381
-24.506
-32.64
-39.226
-43.823
-46.208
-46.528
-45.183
-42.802
-40.115
-37.818
-36.362
-36.038
-36.984
-39.15
-42.416
-46.568
-51.299
-56.244
-61.108
-65.708
-69.946
-73.81
-77.3
-80.397
-83.107
-85.462
-87.497
-89.239
-90.7
-91.872
-92.753
-93.366
-93.749
-93.949
-94.02
-93.991
-93.876
-93.687
-93.429
-93.106
-92.72
-92.262
-91.712
-91.059
-90.295
-89.415
-88.419
-87.296
-86.036
-84.626
-83.058
-81.329
-79.44
-77.393
-75.19
-72.838
-70.345
-67.724
-64.988
-62.151
-59.224
-56.221
-53.154
-50.038
-46.89
-43.725
-40.558
-37.407
-34.29
-31.226
-28.234
-25.332
-22.54
-19.876
-17.359
-15.007
-12.839
-10.871
-9.119
-7.598
-6.325
-5.311
-4.569
-4.109
-3.939
-4.066
-4.497
-5.235
-6.281
-7.636
-9.298
-11.263
-13.528
-16.085
-18.927
-22.045
-25.428
-29.064
-32.94
-37.042
-41.355
-45.86
-50.541
-55.379
-60.355
-65.449
-70.641
-75.909
-81.234
-86.594
-91.968
-97.336
-102.677
-107.971
-113.199
-118.341
-123.38
-128.299
-133.081
-137.711
-142.174
-146.458
-150.551
-154.441
-158.118
-161.574
-164.801
-167.792
-170.541
-173.044
-175.297
-177.297
-179.043
-180.535
-181.774
-182.759
-183.495
-183.983
-184.228
-184.235
-184.009
-183.556
-182.883
-181.998
-180.907
-179.621
-178.147
-176.496
-174.676
-172.698
-170.572
-168.308
-165.917
-163.408
-160.794
-158.085
-155.292
-152.424
-149.495
-146.513
-143.49
-140.436
-137.362
-134.278
-131.194
-128.119
-125.063
-122.035
-119.043
-116.097
-113.204
-110.372
-107.607
-104.917
-102.308
-99.785
-97.354
-95.018
-92.781
-90.646
-88.616
-86.69
-84.871
-83.159
-81.551
-80.048
-78.647
-77.345
-76.139
-75.025
-73.997
-73.051
-72.181
-71.38
-70.641
-69.955
-69.316
-68.713
-68.139
-67.584
-67.039
-66.494
-65.939
-65.365
-64.76
-64.116
-63.422
-62.669
-61.847
-60.948
-59.963
-58.885
-57.708
-56.425
-55.031
-53.523
-51.897
-50.152
-48.287
-46.301
-44.194
-41.971
-39.633
-37.185
-34.635
-31.987
-29.252
-26.443
-23.571
-20.651
-17.697
-14.725
-11.751
-8.792
-5.865
-2.983
-0.164
2.578
5.223
7.753
10.148
12.393
14.471
16.367
18.065
19.551
20.814
21.852
22.658
23.223
23.532
23.562
23.297
22.732
21.864
20.691
19.218
17.451
15.413
13.144
10.683
8.065
5.316
2.449
-0.505
-3.502
-6.489
-9.398
-12.182
-14.814
-17.266
-19.512
-21.552
-23.397
-25.092
-26.728
-28.384
-30.133
-32.052
-34.194
-36.617
-39.409
-42.69
-46.564
-51.061
-56.089
-61.438
-66.875
-72.17
-77.046
-81.122
-84.018
-85.526
-85.788
-85.337
-84.781
-84.702
-85.698
-88.295
-93.045
-99.871
-107.254
-113.019
-114.893
-111.663
-104.706
-95.388
-82.805
-63.801
-31.672
20.192
92.836
183.514
285.322
387.609
483.084
564.904
625.111
659.804
663.523
632.359
568.571
474.157
356.173
226.873
98.364
-14.203
-98.445
-149.737
-168.301
-159.663
-133.337
-97.613
-60.61
-31.078
-12.516
-4.948
-5.259
-5.796
-2.77
3.578
11.298
15.714
15.074
10.717
4.397
-1.277
-4.942
-6.504
-5.915
-3.439
0.488
5.397
10.647
15.519
19.577
22.569
24.341
24.908
24.37
22.925
20.881
18.625
16.455
14.541
12.98
11.786
10.963
10.524
10.455
10.71
11.242
12.021
13.028
14.266
15.73
17.387
19.196
21.102
23.052
25.014
26.973
28.916
30.84
32.746
34.636
36.526
38.441
40.399
42.412
44.493
46.65
48.899
51.258
53.748
56.384
59.178
62.137
65.267
68.575
72.062
75.727
79.566
83.571
87.736
92.056
96.521
101.125
105.856
110.701
115.647
120.68
125.784
130.94
136.128
141.329
146.521
151.682
156.789
161.82
166.751
171.558
176.219
180.711
185.011
189.097
192.949
196.545
199.867
202.897
205.62
208.019
210.082
211.798
213.156
214.148
214.77
215.017
214.886
214.378
213.493
212.236
210.611
208.626
206.288
203.607
200.597
197.269
193.639
189.723
185.536
181.099
176.428
171.544
166.466
161.215
155.811
150.274
144.626
138.887
133.077
127.216
121.325
115.421
109.523
103.649
97.816
92.039
86.334
80.714
75.193
69.782
64.493
59.336
54.32
49.454
44.744
40.197
35.819
31.615
27.588
23.741
20.077
16.597
13.302
10.192
7.267
4.526
1.967
-0.412
-2.613
-4.639
-6.494
-8.183
-9.708
-11.075
-12.289
-13.355
-14.278
-15.065
-15.721
-16.253
-16.666
-16.968
-17.164
-17.261
-17.267
-17.189
-17.034
-16.81
-16.525
-16.186
-15.802
-15.381
-14.931
-14.463
-13.983
-13.501
-13.026
-12.568
-12.134
-11.735
-11.379
-11.076
-10.833
-10.659
-10.563
-10.552
-10.633
-10.813
-11.1
-11.498
-12.013
-12.65
-13.414
-14.309
-15.337
-16.501
-17.802
-19.242
-20.821
-22.536
-24.387
-26.37
-28.481
-30.715
-33.066
-35.527
-38.09
-40.747
-43.488
-46.301
-49.176
-52.1
-55.059
-58.04
-61.028
-64.008
-66.966
-69.886
-72.753
-75.551
-78.267
-80.883
-83.385
-85.759
-87.991
-90.068
-91.975
-93.702
-95.237
-96.571
-97.694
-98.601
-99.286
-99.745
-99.976
-99.981
-99.762
-99.322
-98.667
-97.803
-96.74
-95.487
-94.052
-92.448
-90.686
-88.781
-86.748
-84.608
-82.376
-80.072
-77.714
-75.32
-72.912
-70.508
-68.122
-65.767
-63.462
-61.225
-59.086
-57.073
-55.202
-53.49
-51.947
-50.58
-49.389
-48.369
-47.493
-46.735
-46.071
-45.48
-44.96
-44.499
-44.073
-43.65
-43.18
-42.619
-41.951
-41.16
-40.228
-39.162
-37.989
-36.767
-35.609
-34.609
-33.836
-33.363
-33.245
-33.549
-34.357
-35.72
-37.708
-40.421
-43.907
-48.158
-53.058
-58.339
-63.689
-68.791
-73.236
-76.556
-78.332
-78.308
-76.68
-73.955
-70.629
-67.299
-64.546
-62.963
-63.47
-65.855
-67.874
-67.295
-61.957
-51.735
-40.491
-30.059
-18.652
-1.103
33.169
91.924
175.91
281.373
397.152
510.79
612.93
693.161
744.857
762.544
740.412
679.322
582.438
457.639
318.845
178.92
52.029
-49.965
-121.059
-158.135
-163.043
-141.164
-100.502
-52.261
-8.598
19.834
28.973
21.694
6.021
-8.221
-16.493
-18.716
-17.56
-17.193
-18.632
-21.01
-23.148
-23.171
-20.522
-15.806
-9.797
-3.733
1.44
5.462
8.242
9.782
10.095
9.174
7.174
4.448
1.343
-1.911
-5.174
-8.344
-11.292
-13.879
-16.019
-17.687
-18.893
-19.641
-19.923
-19.735
-19.096
-18.038
-16.604
-14.836
-12.768
-10.444
-7.915
-5.236
-2.468
0.346
3.181
6.016
8.843
11.659
14.465
17.273
20.103
22.968
25.879
28.848
31.882
34.992
38.191
41.486
44.89
48.408
52.044
55.801
59.682
63.684
67.802
72.031
76.362
80.786
85.298
89.887
94.544
99.26
104.023
108.821
113.64
118.466
123.282
128.071
132.813
137.49
142.081
146.567
150.927
155.139
159.183
163.039
166.687
170.105
173.274
176.174
178.788
181.096
183.084
184.734
186.032
186.966
187.522
187.692
187.466
186.837
185.8
184.352
182.49
180.214
177.527
174.433
170.937
167.046
162.771
158.122
153.113
147.757
142.07
136.068
129.77
123.193
116.358
109.285
101.993
94.504
86.838
79.019
71.066
63.001
54.846
46.621
38.347
30.044
21.73
13.426
5.149
-3.083
-11.256
-19.352
-27.358
-35.262
-43.051
-50.714
-58.242
-65.627
-72.862
-79.941
-86.858
-93.609
-100.191
-106.602
-112.84
-118.904
-124.793
-130.506
-136.045
-141.411
-146.603
-151.624
-156.475
-161.158
-165.673
-170.023
-174.21
-178.235
-182.1
-185.807
-189.357
-192.752
-195.994
-199.083
-202.02
-204.806
-207.44
-209.924
-212.257
-214.438
-216.465
-218.339
-220.058
-221.621
-223.027
-224.276
-225.365
-226.295
-227.066
-227.676
-228.126
-228.417
-228.549
-228.524
-228.343
-228.01
-227.526
-226.897
-226.124
-225.214
-224.169
-222.997
-221.701
-220.287
-218.762
-217.132
-215.403
-213.584
-211.681
-209.703
-207.658
-205.553
-203.397
-201.2
-198.968
-196.71
-194.433
-192.147
-189.857
-187.571
-185.296
-183.038
-180.805
-178.6
-176.43
-174.299
-172.21
-170.167
-168.171
-166.225
-164.328
-162.483
-160.689
-158.945
-157.252
-155.608
-154.011
-152.461
-150.955
-149.49
-148.063
-146.673
-145.315
-143.987
-142.688
-141.415
-140.166
-138.941
-137.741
-136.566
-135.42
-134.303
-133.218
-132.168
-131.159
-130.194
-129.276
-128.41
-127.6
-126.852
-126.172
-125.57
-125.051
-124.624
-124.298
-124.083
-123.986
-124.016
-124.178
-124.475
-124.913
-125.494
-126.225
-127.118
-128.18
-129.412
-130.815
-132.386
-134.113
-135.983
-137.969
-140.03
-142.126
-144.219
-146.272
-148.263
-150.16
-151.929
-153.535
-154.928
-156.065
-156.918
-157.455
-157.658
-157.526
-157.065
-156.322
-155.393
-154.369
-153.339
-152.378
-151.529
-150.856
-150.436
-150.34
-150.644
-151.385
-152.597
-154.357
-156.693
-159.537
-162.729
-165.937
-168.737
-170.75
-171.545
-170.623
-167.605
-162.297
-154.793
-145.507
-135.054
-124.113
-113.336
-103.544
-94.981
-86.861
-78.028
-66.929
-53.302
-38.546
-23.056
-5.909
17.516
54.388
109.055
183.543
274.529
375.064
479.884
582.856
678.817
761.364
820.893
848.316
835.669
781.001
688.499
566.404
427.804
286.483
156.144
49.476
-25.625
-68.285
-83.342
-78.396
-62.973
-42.849
-21.975
-5.986
3.697
6.441
4.107
3.525
7.59
16.285
27.554
36.282
40.527
41.068
38.598
34.43
29.041
22.205
14.666
7.479
1.163
-4.089
-8.203
-11.166
-12.916
-13.445
-13.256
-13.165
-13.621
-14.758
-16.544
-18.762
-21.248
-23.925
-26.55
-28.782
-30.424
-31.373
-31.622
-31.283
-30.431
-29.095
-27.332
-25.204
-22.754
-20.036
-17.096
-13.963
-10.688
-7.314
-3.871
-0.389
3.114
6.632
10.16
13.708
17.296
20.931
24.617
28.355
32.142
35.984
39.888
43.863
47.918
52.058
56.289
60.62
65.054
69.593
74.234
78.972
83.799
88.71
93.701
98.765
103.898
109.092
114.338
119.629
124.955
130.305
135.664
141.018
146.35
151.643
156.882
162.047
167.12
172.082
176.913
181.594
186.106
190.428
194.542
198.426
202.063
205.434
208.523
211.312
213.786
215.931
217.734
219.184
220.272
220.988
221.326
221.282
220.85
220.03
218.822
217.227
215.249
212.893
210.166
207.079
203.641
199.866
195.768
191.364
186.671
181.708
176.495
171.055
165.41
159.584
153.6
147.485
141.264
134.964
128.61
122.229
115.848
109.492
103.187
96.959
90.832
84.83
78.978
73.296
67.808
62.533
57.491
52.701
48.18
43.942
40.003
36.375
33.068
30.092
27.454
25.159
23.212
21.613
20.363
19.459
18.898
18.674
18.777
19.2
19.93
20.955
22.26
23.829
25.646
27.691
29.945
32.389
34.999
37.755
40.633
43.609
46.66
49.76
52.886
56.012
59.115
62.169
65.15
68.036
70.803
73.43
75.895
78.18
80.265
82.134
83.771
85.163
86.298
87.165
87.758
88.069
88.095
87.833
87.282
86.445
85.326
83.928
82.26
80.331
78.151
75.733
73.09
70.239
67.196
63.981
60.612
57.111
53.499
49.799
46.034
42.228
38.405
34.589
30.804
27.073
23.42
19.867
16.436
13.148
10.023
7.079
4.333
1.801
-0.502
-2.564
-4.374
-5.924
-7.205
-8.214
-8.944
-9.397
-9.571
-9.469
-9.096
-8.457
-7.562
-6.419
-5.043
-3.447
-1.648
0.338
2.49
4.788
7.208
9.729
12.325
14.972
17.644
20.315
22.958
25.547
28.054
30.453
32.715
34.811
36.714
38.397
39.836
41.004
41.88
42.441
42.672
42.556
42.081
41.232
39.997
38.366
36.333
33.895
31.052
27.807
24.162
20.13
15.729
10.976
5.889
0.481
-5.243
-11.273
-17.586
-24.163
-30.975
-37.989
-45.173
-52.48
-59.846
-67.214
-74.524
-81.728
-88.791
-95.663
-102.283
-108.584
-114.482
-119.915
-124.834
-129.192
-132.958
-136.126
-138.705
-140.743
-142.309
-143.467
-144.291
-144.861
-145.247
-145.547
-145.839
-146.237
-146.932
-148.028
-149.519
-151.299
-153.081
-154.531
-155.412
-155.377
-153.913
-150.725
-145.816
-139.566
-132.819
-126.512
-121.367
-118.007
-117.309
-119.441
-123.22
-126.882
-128.003
-124.972
-118.764
-109.995
-96.862
-75.528
-39.188
17.88
95.614
190.367
295.291
401.411
502.816
593.365
664.997
711.771
725.445
699.596
634.91
533.333
403.689
261.326
119.95
-3.987
-97.4
-158.024
-187.273
-192.542
-186.045
-174.051
-161.755
-154.184
-150.293
-150.119
-152.719
-152.737
-148.895
-141.916
-133.175
-127.106
-125.667
-128.036
-132.916
-138.367
-143.19
-147.077
-149.858
-151.215
-150.901
-148.998
-145.856
-141.893
-137.636
-133.662
-130.315
-127.92
-126.667
-126.476
-127.22
-128.7
-130.588
-132.51
-134.171
-135.365
-135.984
-136.032
-135.501
-134.391
-132.735
-130.592
-128.026
-125.085
-121.795
-118.169
-114.226
-110.015
-105.597
-101.045
-96.426
-91.784
-87.145
-82.527
-77.943
-73.397
-68.885
-64.393
-59.9
-55.392
-50.862
-46.303
-41.71
-37.072
-32.375
-27.605
-22.749
-17.802
-12.759
-7.618
-2.38
2.95
8.365
13.855
19.407
25.009
30.648
36.311
41.987
47.659
53.311
58.926
64.486
69.971
75.362
80.634
85.767
90.736
95.519
100.093
104.434
108.519
112.328
115.838
119.031
121.886
124.386
126.516
128.261
129.609
130.549
131.074
131.177
130.855
130.107
128.935
127.343
125.338
122.927
120.122
116.936
113.385
109.485
105.256
100.717
95.891
90.803
85.477
79.939
74.218
68.342
62.338
56.237
50.066
43.855
37.633
31.425
25.261
19.165
13.164
7.279
1.535
-4.05
-9.454
-14.663
-19.66
-24.432
-28.969
-33.262
-37.303
-41.089
-44.617
-47.885
-50.895
-53.649
-56.152
-58.411
-60.431
-62.223
-63.796
-65.161
-66.332
-67.32
-68.139
-68.804
-69.328
-69.728
-70.017
-70.21
-70.322
-70.367
-70.36
-70.313
-70.239
-70.152
-70.061
-69.977
-69.91
-69.868
-69.858
-69.885
-69.955
-70.071
-70.235
-70.448
-70.712
-71.024
-71.383
-71.787
-72.231
-72.712
-73.225
-73.762
-74.319
-74.888
-75.462
-76.033
-76.595
-77.139
-77.658
-78.144
-78.59
-78.988
-79.333
-79.617
-79.835
-79.98
-80.047
-80.031
-79.93
-79.739
-79.457
-79.082
-78.613
-78.051
-77.397
-76.652
-75.819
-74.901
-73.902
-72.828
-71.683
-70.473
-69.206
-67.888
-66.528
-65.135
-63.716
-62.282
-60.841
-59.403
-57.977
-56.571
-55.196
-53.859
-52.57
-51.335
-50.164
-49.064
-48.043
-47.106
-46.261
-45.513
-44.866
-44.325
-43.893
-43.573
-43.365
-43.273
-43.295
-43.434
-43.688
-44.056
-44.535
-45.124
-45.82
-46.619
-47.516
-48.506
-49.583
-50.742
-51.977
-53.281
-54.65
-56.078
-57.563
-59.101
-60.691
-62.329
-64.014
-65.744
-67.517
-69.329
-71.177
-73.055
-74.96
-76.887
-78.839
-80.815
-82.814
-84.833
-86.871
-88.928
-91.004
-93.095
-95.192
-97.286
-99.375
-101.461
-103.559
-105.683
-107.834
-110.014
-112.221
-114.45
-116.691
-118.922
-121.1
-123.182
-125.126
-126.9
-128.486
-129.863
-130.993
-131.825
-132.297
-132.36
-131.99
-131.175
-129.902
-128.182
-126.051
-123.584
-120.898
-118.121
-115.374
-112.77
-110.419
-108.427
-106.898
-105.974
-105.835
-106.596
-108.266
-110.716
-113.685
-116.881
-120.035
-122.768
-124.552
-124.927
-123.684
-121.046
-117.605
-114.062
-111.046
-109.045
-108.681
-110.153
-112.657
-114.529
-113.451
-108.178
-99.262
-87.636
-73.458
-53.027
-19.791
31.631
105.005
197.947
303.99
417.552
531.003
637.786
730.259
796.931
827.804
815.628
759.772
666.502
546.219
411.49
273.324
143.028
30.368
-57.479
-115.597
-145.175
-149.808
-135.095
-108.869
-77.551
-49.329
-31.124
-24.561
-28.473
-37.188
-44.024
-46.979
-46.467
-45.116
-46.295
-50.241
-55.664
-60.924
-64.195
-64.908
-63.368
-59.936
-55.225
-49.874
-44.402
-39.434
-35.414
-32.571
-31.021
-30.72
-31.539
-33.288
-35.701
-38.423
-41.156
-43.679
-45.806
-47.462
-48.603
-49.187
-49.214
-48.71
-47.701
-46.22
-44.308
-41.984
-39.276
-36.224
-32.865
-29.258
-25.466
-21.549
-17.569
-13.572
-9.585
-5.631
-1.722
2.136
5.944
9.713
13.458
17.188
20.909
24.626
28.345
32.073
35.819
39.588
43.386
47.215
51.074
54.962
58.875
62.806
66.748
70.691
74.622
78.532
82.41
86.247
90.032
93.754
97.403
100.967
104.437
107.8
111.044
114.157
117.127
119.942
122.589
125.058
127.338
129.418
131.29
132.946
134.379
135.581
136.549
137.28
137.77
138.019
138.028
137.797
137.33
136.632
135.709
134.567
133.216
131.666
129.926
128.01
125.93
123.7
121.334
118.848
116.256
113.576
110.823
108.016
105.17
102.305
99.436
96.58
93.755
90.975
88.257
85.615
83.063
80.613
78.277
76.067
73.992
72.061
70.282
68.661
67.204
65.914
64.795
63.849
63.075
62.475
62.047
61.787
61.695
61.764
61.992
62.372
62.897
63.563
64.36
65.281
66.317
67.461
68.703
70.034
71.443
72.923
74.463
76.055
77.687
79.352
81.04
82.741
84.448
86.151
87.842
89.513
91.156
92.764
94.329
95.845
97.305
98.702
100.031
101.286
102.461
103.552
104.552
105.459
106.267
106.972
107.572
108.063
108.443
108.708
108.857
108.888
108.799
108.59
108.259
107.807
107.233
106.537
105.721
104.786
103.732
102.562
101.278
99.882
98.376
96.764
95.049
93.235
91.326
89.326
87.24
85.074
82.833
80.522
78.149
75.72
73.241
70.719
68.161
65.575
62.968
60.347
57.72
55.095
52.48
49.882
47.31
44.772
42.274
39.825
37.43
35.098
32.834
30.645
28.538
26.518
24.591
22.763
21.04
19.425
17.923
16.538
15.273
14.13
13.11
12.214
11.444
10.8
10.279
9.881
9.603
9.441
9.391
9.447
9.603
9.851
10.181
10.584
11.047
11.559
12.107
12.678
13.257
13.83
14.383
14.9
15.368
15.771
16.094
16.321
16.435
16.421
16.261
15.941
15.442
14.753
13.858
12.749
11.417
9.856
8.06
6.02
3.724
1.163
-1.662
-4.751
-8.099
-11.694
-15.521
-19.551
-23.74
-28.049
-32.442
-36.886
-41.362
-45.845
-50.303
-54.697
-58.976
-63.097
-67.032
-70.753
-74.238
-77.472
-80.455
-83.241
-85.923
-88.588
-91.31
-94.117
-97.024
-100.085
-103.356
-106.908
-110.805
-115.048
-119.66
-124.741
-130.321
-136.336
-142.6
-148.674
-154.071
-158.451
-161.411
-162.47
-161.36
-158.021
-152.716
-146.2
-139.358
-132.932
-127.683
-124.617
-123.782
-123.746
-122.778
-118.631
-110.538
-101.091
-91.909
-81.324
-64.724
-33.016
21.942
100.747
199.22
308.772
417.73
518.521
604.454
667.097
700.002
695.718
648.712
560.628
437.314
290.075
135.932
-8.697
-129.279
-215.526
-267.384
-289.899
-290.151
-278.242
-259.377
-237.546
-218.798
-204.104
-194.374
-189.252
-183.748
-176.728
-169.273
-162.698
-160.614
-164.186
-171.948
-182.21
-192.733
-201.831
-208.86
-213.63
-216.181
-216.726
-215.752
-213.811
-211.479
-209.527
-208.482
-208.516
-209.72
-211.969
-214.99
-218.553
-222.321
-225.842
-228.84
-231.172
-232.764
-233.661
-233.894
-233.451
-232.381
-230.758
-228.633
-226.057
-223.055
-219.632
-215.824
-211.69
-207.295
-202.718
-198.008
-193.19
-188.288
-183.312
-178.271
-173.176
-168.017
-162.782
-157.464
-152.06
-146.571
-141.002
-135.348
-129.6
-123.752
-117.795
-111.728
-105.551
-99.267
-92.88
-86.4
-79.835
-73.199
-66.506
-59.772
-53.007
-46.226
-39.443
-32.673
-25.932
-19.239
-12.61
-6.066
0.373
6.685
12.847
18.836
24.631
30.208
35.544
40.619
45.409
49.894
54.055
57.872
61.326
64.401
67.082
69.355
71.209
72.632
73.618
74.159
74.253
73.897
73.093
71.841
70.148
68.021
65.468
62.501
59.134
55.382
51.264
46.799
42.01
36.921
31.557
25.947
20.118
14.101
7.926
1.626
-4.768
-11.223
-17.707
-24.188
-30.633
-37.01
-43.29
-49.441
-55.435
-61.244
-66.842
-72.203
-77.306
-82.127
-86.648
-90.851
-94.72
-98.24
-101.401
-104.192
-106.607
-108.641
-110.29
-111.555
-112.437
-112.941
-113.073
-112.841
-112.256
-111.33
-110.077
-108.513
-106.655
-104.523
-102.135
-99.513
-96.678
-93.653
-90.461
-87.126
-83.67
-80.118
-76.493
-72.82
-69.12
-65.418
-61.735
-58.093
-54.514
-51.017
-47.622
-44.345
-41.205
-38.216
-35.392
-32.746
-30.288
-28.027
-25.972
-24.127
-22.498
-21.087
-19.895
-18.923
-18.167
-17.626
-17.295
-17.168
-17.239
-17.499
-17.941
-18.554
-19.328
-20.252
-21.315
-22.504
-23.806
-25.208
-26.696
-28.255
-29.873
-31.533
-33.222
-34.926
-36.629
-38.32
-39.984
-41.609
-43.184
-44.696
-46.136
-47.494
-48.76
-49.927
-50.985
-51.928
-52.75
-53.445
-54.008
-54.436
-54.724
-54.871
-54.873
-54.729
-54.438
-54
-53.414
-52.682
-51.803
-50.781
-49.62
-48.321
-46.89
-45.333
-43.654
-41.861
-39.961
-37.959
-35.864
-33.683
-31.425
-29.097
-26.707
-24.264
-21.777
-19.257
-16.716
-14.167
-11.62
-9.087
-6.582
-4.116
-1.703
0.648
2.93
5.134
7.252
9.273
11.187
12.982
14.653
16.19
17.586
18.833
19.927
20.867
21.659
22.305
22.806
23.154
23.336
23.343
23.171
22.82
22.292
21.594
20.739
19.753
18.679
17.554
16.41
15.272
14.156
13.088
12.101
11.233
10.532
10.031
9.763
9.753
10
10.472
11.118
11.865
12.631
13.346
13.922
14.267
14.33
14.083
13.512
12.56
11.082
8.973
6.228
2.987
-0.504
-4.089
-7.549
-10.421
-12.182
-12.397
-11.325
-10.149
-9.479
-9.278
-8.615
-5.56
-0.783
3.716
6.043
3.333
-3.966
-13.653
-24.003
-30.59
-28.193
-11.471
25.931
87.251
170.746
271.51
380.213
485.896
578.433
647.055
685.08
687.836
652.632
582.334
479.586
351.694
211.714
73.431
-46.042
-133.646
-185.102
-202.431
-193.965
-169.319
-135.378
-97.752
-60.795
-28.429
-5.764
5.318
5.787
-1.819
-10.867
-17.452
-20.365
-19.269
-18.4
-20.125
-24.523
-31.477
-37.835
-41.753
-43.139
-41.67
-38.567
-34.798
-30.651
-26.989
-24.189
-22.286
-21.445
-21.524
-22.294
-23.639
-25.286
-26.87
-28.17
-29.053
-29.462
-29.45
-29.04
-28.227
-27.047
-25.545
-23.76
-21.725
-19.448
-16.93
-14.193
-11.281
-8.25
-5.146
-1.996
1.185
4.389
7.61
10.845
14.095
17.378
20.704
24.082
27.516
31.009
34.565
38.195
41.911
45.724
49.644
53.673
57.815
62.068
66.431
70.897
75.458
80.101
84.815
89.589
94.413
99.273
104.156
109.045
113.926
118.781
123.593
128.341
133.005
137.564
141.996
146.28
150.395
154.319
158.031
161.509
164.734
167.687
170.349
172.702
174.731
176.421
177.759
178.733
179.336
179.56
179.398
178.849
177.911
176.585
174.877
172.79
170.334
167.517
164.352
160.852
157.034
152.915
148.514
143.85
138.947
133.828
128.516
123.039
117.42
111.688
105.868
99.989
94.076
88.156
82.256
76.4
70.614
64.92
59.341
53.899
48.613
43.502
38.581
33.868
29.374
25.112
21.091
17.319
13.803
10.548
7.556
4.828
2.365
0.164
-1.778
-3.466
-4.905
-6.103
-7.068
-7.81
-8.339
-8.666
-8.802
-8.761
-8.555
-8.197
-7.699
-7.076
-6.34
-5.504
-4.581
-3.584
-2.523
-1.412
-0.262
0.918
2.117
3.325
4.534
5.735
6.922
8.086
9.222
10.323
11.385
12.403
13.371
14.288
15.149
15.952
16.695
17.376
17.994
18.547
19.034
19.456
19.811
20.099
20.321
20.475
20.562
20.582
20.534
20.42
20.239
19.991
19.677
19.296
18.848
18.334
17.754
17.11
16.4
15.628
14.792
13.896
12.94
11.926
10.857
9.735
8.561
7.339
6.072
4.764
3.417
2.037
0.627
-0.808
-2.262
-3.73
-5.205
-6.683
-8.158
-9.622
-11.07
-12.495
-13.889
-15.246
-16.56
-17.822
-19.027
-20.166
-21.234
-22.225
-23.134
-23.956
-24.684
-25.315
-25.846
-26.275
-26.599
-26.815
-26.924
-26.926
-26.821
-26.613
-26.304
-25.897
-25.4
-24.819
-24.163
-23.442
-22.665
-21.842
-20.983
-20.102
-19.208
-18.313
-17.425
-16.556
-15.716
-14.921
-14.185
-13.519
-12.936
-12.447
-12.063
-11.798
-11.66
-11.65
-11.773
-12.032
-12.437
-13.005
-13.748
-14.666
-15.761
-17.027
-18.457
-20.037
-21.747
-23.545
-25.396
-27.269
-29.141
-31.004
-32.842
-34.622
-36.306
-37.847
-39.212
-40.394
-41.378
-42.145
-42.707
-43.09
-43.36
-43.622
-43.938
-44.353
-44.911
-45.65
-46.642
-47.966
-49.668
-51.807
-54.448
-57.6
-61.238
-65.236
-69.275
-73.001
-76.093
-78.177
-78.924
-78.13
-75.719
-71.981
-67.609
-63.296
-59.559
-56.872
-55.66
-56.232
-58.71
-61.795
-62.833
-59.574
-50.009
-34.416
-15.489
6.532
32.546
65.517
111.983
173.699
248.771
333.033
416.655
492.164
554.117
595.941
613.686
602.424
557.383
478.864
371.057
243.799
112.754
-6.65
-101.592
-164.027
-195.306
-201.087
-187.528
-163.087
-132.588
-100.35
-73.392
-53.907
-42.767
-38.52
-35.183
-30.693
-25.297
-20.223
-19.17
-23.012
-30.257
-39.334
-47.746
-53.948
-57.864
-59.505
-59.129
-57.296
-54.454
-51.137
-48.104
-45.882
-44.651
-44.485
-45.286
-46.819
-48.88
-51.167
-53.286
-54.995
-56.182
-56.798
-56.89
-56.491
-55.6
-54.261
-52.543
-50.491
-48.143
-45.519
-42.627
-39.498
-36.19
-32.764
-29.278
-25.765
-22.246
-18.738
-15.253
-11.805
-8.4
-5.033
-1.702
1.591
4.841
8.038
11.178
14.263
17.297
20.284
23.227
26.123
28.969
31.763
34.497
37.166
39.761
42.27
44.686
47.001
49.211
51.309
53.29
55.146
56.872
58.462
59.908
61.204
62.341
63.313
64.112
64.733
65.17
65.417
65.468
65.319
64.967
64.407
63.638
62.658
61.463
60.055
58.433
56.599
54.554
52.303
49.848
47.196
44.351
41.321
38.114
34.739
31.204
27.521
23.7
19.753
15.694
11.536
7.291
2.976
-1.394
-5.805
-10.241
-14.685
-19.122
-23.536
-27.91
-32.231
-36.482
-40.649
-44.718
-48.677
-52.511
-56.21
-59.762
-63.158
-66.389
-69.446
-72.324
-75.016
-77.517
-79.825
-81.937
-83.851
-85.567
-87.086
-88.409
-89.54
-90.483
-91.24
-91.819
-92.225
-92.464
-92.544
-92.474
-92.26
-91.912
-91.44
-90.851
-90.156
-89.364
-88.484
-87.526
-86.498
-85.41
-84.269
-83.084
-81.862
-80.61
-79.334
-78.041
-76.735
-75.421
-74.103
-72.785
-71.47
-70.161
-68.858
-67.563
-66.278
-65.003
-63.737
-62.481
-61.234
-59.995
-58.765
-57.541
-56.322
-55.108
-53.897
-52.688
-51.479
-50.269
-49.057
-47.843
-46.625
-45.405
-44.181
-42.954
-41.726
-40.498
-39.271
-38.047
-36.828
-35.618
-34.419
-33.234
-32.068
-30.925
-29.808
-28.722
-27.672
-26.661
-25.694
-24.776
-23.909
-23.098
-22.347
-21.659
-21.036
-20.481
-19.998
-19.587
-19.252
-18.992
-18.809
-18.703
-18.674
-18.72
-18.839
-19.031
-19.291
-19.618
-20.007
-20.455
-20.957
-21.509
-22.104
-22.739
-23.405
-24.098
-24.811
-25.536
-26.268
-26.999
-27.723
-28.435
-29.129
-29.798
-30.439
-31.046
-31.616
-32.146
-32.631
-33.071
-33.462
-33.806
-34.101
-34.349
-34.553
-34.715
-34.84
-34.936
-35.008
-35.064
-35.112
-35.158
-35.213
-35.284
-35.379
-35.505
-35.67
-35.884
-36.156
-36.497
-36.918
-37.427
-38.033
-38.744
-39.568
-40.51
-41.568
-42.744
-44.037
-45.452
-47
-48.691
-50.523
-52.494
-54.598
-56.824
-59.158
-61.576
-64.038
-66.507
-68.949
-71.336
-73.653
-75.883
-77.996
-79.955
-81.714
-83.234
-84.497
-85.485
-86.176
-86.575
-86.704
-86.616
-86.404
-86.138
-85.87
-85.66
-85.557
-85.614
-85.901
-86.454
-87.332
-88.639
-90.42
-92.659
-95.268
-98.001
-100.57
-102.718
-104.093
-104.254
-102.883
-99.853
-95.346
-89.853
-84.021
-78.481
-73.809
-70.825
-69.766
-69.624
-69.036
-66.376
-61.265
-55.813
-51.17
-45.761
-34.536
-8.872
37.1
103.484
185.202
272.994
359.173
439.799
512.233
573.144
616.936
635.195
620.375
570.207
486.738
377.415
254.489
130.897
20.288
-66.305
-123.815
-153.666
-162.298
-156.757
-143.946
-127.623
-110.395
-97.421
-90.954
-91.744
-97.971
-103.251
-104.121
-99.903
-91.958
-84.301
-78.823
-75.654
-74.706
-75.022
-76.384
-79.046
-82.597
-86.802
-91.451
-95.988
-100.077
-103.535
-106.161
-108.086
-109.778
-111.522
-113.475
-115.827
-118.542
-121.492
-124.618
-127.703
-130.439
-132.669
-134.294
-135.241
-135.561
-135.311
-134.514
-133.249
-131.591
-129.579
-127.261
-124.674
-121.844
-118.825
-115.662
-112.385
-109.026
-105.602
-102.121
-98.592
-95.01
-91.361
-87.636
-83.832
-79.95
-75.996
-71.973
-67.883
-63.726
-59.503
-55.214
-50.862
-46.448
-41.974
-37.446
-32.872
-28.263
-23.631
-18.989
-14.344
-9.707
-5.085
-0.488
4.074
8.592
13.059
17.464
21.795
26.041
30.19
34.231
38.152
41.943
45.594
49.093
52.431
55.599
58.589
61.392
64.001
66.409
68.61
70.599
72.372
73.924
75.253
76.357
77.235
77.888
78.317
78.525
78.515
78.291
77.859
77.225
76.398
75.385
74.196
72.84
71.33
69.677
67.894
65.995
63.993
61.903
59.74
57.517
55.251
52.956
50.647
48.338
46.043
43.777
41.553
39.385
37.284
35.263
33.333
31.504
29.787
28.189
26.719
25.384
24.19
23.142
22.245
21.501
20.913
20.484
20.212
20.098
20.141
20.338
20.687
21.184
21.823
22.601
23.51
24.545
25.699
26.964
28.332
29.795
31.344
32.971
34.667
36.422
38.227
40.073
41.95
43.851
45.765
47.685
49.601
51.506
53.391
55.25
57.074
58.857
60.591
62.271
63.89
65.443
66.925
68.331
69.657
70.899
72.055
73.12
74.094
74.973
75.757
76.444
77.034
77.528
77.924
78.226
78.434
78.551
78.578
78.518
78.376
78.152
77.853
77.48
77.038
76.531
75.963
75.34
74.666
73.947
73.186
72.391
71.565
70.715
69.845
68.962
68.07
67.176
66.284
65.4
64.531
63.68
62.854
62.058
61.296
60.573
59.893
59.26
58.677
58.147
57.671
57.254
56.896
56.599
56.364
56.194
56.088
56.048
56.073
56.163
56.317
56.534
56.813
57.152
57.549
58.002
58.508
59.065
59.67
60.318
61.006
61.728
62.479
63.254
64.046
64.85
65.658
66.463
67.257
68.033
68.786
69.506
70.186
70.818
71.393
71.902
72.337
72.686
72.938
73.083
73.108
73.005
72.762
72.369
71.817
71.097
70.205
69.133
67.876
66.425
64.774
62.916
60.848
58.566
56.071
53.358
50.43
47.297
43.968
40.449
36.746
32.853
28.769
24.5
20.054
15.439
10.675
5.781
0.788
-4.256
-9.304
-14.312
-19.238
-24.056
-28.738
-33.24
-37.515
-41.509
-45.171
-48.471
-51.378
-53.862
-55.922
-57.585
-58.907
-59.982
-60.891
-61.703
-62.502
-63.365
-64.377
-65.636
-67.205
-69.169
-71.672
-74.765
-78.431
-82.582
-86.91
-91.064
-94.753
-97.539
-98.91
-98.62
-96.563
-92.878
-88.322
-83.716
-79.697
-77.156
-76.508
-77.102
-78.12
-78.231
-76.577
-74.007
-70.96
-66.569
-56.705
-34.477
5.877
67.758
148.482
241.317
339.967
437.005
527.347
606.268
665.345
697.027
694.262
652.518
574.204
465.867
337.563
202.558
73.872
-37.227
-121.807
-176.331
-202.294
-203.294
-186.636
-160.124
-130.7
-106.493
-90.942
-83.597
-81.966
-80.232
-75.947
-70.301
-65.326
-64.542
-68.869
-76.566
-85.75
-94.167
-100.596
-104.819
-106.721
-106.485
-104.55
-101.514
-98.104
-95.083
-92.934
-91.919
-92.189
-93.717
-96.364
-99.889
-103.94
-108.074
-111.959
-115.409
-118.311
-120.653
-122.434
-123.63
-124.254
-124.359
-123.992
-123.185
-121.96
-120.311
-118.245
-115.805
-113.04
-110.019
-106.811
-103.455
-99.978
-96.403
-92.742
-89.008
-85.209
-81.339
-77.385
-73.344
-69.215
-65.004
-60.719
-56.358
-51.919
-47.397
-42.792
-38.109
-33.356
-28.542
-23.679
-18.78
-13.862
-8.947
-4.055
0.792
5.578
10.282
14.888
19.376
23.728
27.925
31.951
35.789
39.421
42.83
46.001
48.919
51.571
53.945
56.029
57.815
59.296
60.466
61.321
61.86
62.082
61.988
61.583
60.87
59.858
58.556
56.973
55.124
53.023
50.685
48.129
45.373
42.438
39.343
36.109
32.76
29.317
25.802
22.238
18.646
15.05
11.469
7.927
4.442
1.034
-2.279
-5.481
-8.556
-11.491
-14.272
-16.891
-19.338
-21.606
-23.689
-25.582
-27.284
-28.793
-30.11
-31.237
-32.179
-32.939
-33.526
-33.945
-34.206
-34.318
-34.29
-34.135
-33.862
-33.483
-33.009
-32.454
-31.827
-31.141
-30.406
-29.635
-28.835
-28.018
-27.192
-26.363
-25.54
-24.727
-23.93
-23.153
-22.399
-21.669
-20.965
-20.287
-19.636
-19.009
-18.405
-17.822
-17.256
-16.704
-16.162
-15.626
-15.092
-14.555
-14.011
-13.455
-12.884
-12.292
-11.676
-11.033
-10.357
-9.648
-8.902
-8.117
-7.292
-6.427
-5.522
-4.578
-3.596
-2.58
-1.532
-0.457
0.641
1.757
2.884
4.016
5.146
6.266
7.37
8.45
9.496
10.502
11.459
12.36
13.196
13.961
14.647
15.248
15.757
16.169
16.478
16.68
16.769
16.741
16.595
16.325
15.932
15.412
14.767
13.996
13.1
12.081
10.941
9.685
8.315
6.837
5.256
3.578
1.81
-0.041
-1.966
-3.958
-6.006
-8.103
-10.238
-12.403
-14.586
-16.78
-18.974
-21.159
-23.327
-25.468
-27.573
-29.633
-31.64
-33.584
-35.458
-37.252
-38.96
-40.572
-42.082
-43.484
-44.771
-45.937
-46.977
-47.885
-48.657
-49.289
-49.777
-50.118
-50.31
-50.353
-50.246
-49.99
-49.587
-49.038
-48.346
-47.516
-46.55
-45.454
-44.231
-42.886
-41.426
-39.856
-38.183
-36.414
-34.56
-32.629
-30.634
-28.587
-26.499
-24.384
-22.255
-20.127
-18.015
-15.932
-13.887
-11.891
-9.955
-8.093
-6.318
-4.64
-3.063
-1.596
-0.246
0.978
2.064
3.016
3.841
4.547
5.137
5.604
5.932
6.111
6.142
6.026
5.763
5.351
4.791
4.101
3.325
2.508
1.699
0.924
0.186
-0.51
-1.149
-1.691
-2.063
-2.2
-2.071
-1.66
-0.968
0.01
1.319
2.931
4.671
6.271
7.46
8.086
8.218
7.969
7.261
5.975
4.187
2.277
0.85
0.379
0.86
1.985
3.749
6.384
9.897
13.854
17.284
18.937
18.067
14.584
8.106
-1.46
-13.178
-25.765
-37.071
-45.605
-51.954
-56.602
-58.968
-54.761
-36.683
1.194
62.67
145.256
242.429
348.45
455.899
558.574
649.126
716.498
751.001
745.238
697.768
613.771
502.476
376.481
248.288
130.405
34.067
-34.189
-72.793
-85.264
-79.638
-65.108
-48.88
-37.664
-35.647
-42.776
-57.895
-76.521
-92.901
-105.12
-112.93
-117.937
-123.126
-128.92
-134.281
-138.283
-139.778
-138.662
-135.742
-131.654
-127.021
-122.456
-118.364
-114.975
-112.421
-110.698
-109.7
-109.386
-109.712
-110.574
-111.87
-113.495
-115.357
-117.398
-119.534
-121.647
-123.606
-125.269
-126.537
-127.363
-127.709
-127.559
-126.916
-125.785
-124.193
-122.187
-119.8
-117.071
-114.033
-110.713
-107.151
-103.398
-99.5
-95.511
-91.467
-87.386
-83.28
-79.151
-74.994
-70.803
-66.563
-62.252
-57.857
-53.367
-48.774
-44.077
-39.272
-34.352
-29.314
-24.155
-18.875
-13.479
-7.973
-2.366
3.332
9.105
14.939
20.811
26.704
32.599
38.475
44.314
50.096
55.798
61.4
66.879
72.214
77.381
82.357
87.118
91.641
95.904
99.886
103.566
106.926
109.949
112.618
114.921
116.845
118.382
119.522
120.261
120.597
120.526
120.053
119.179
117.912
116.259
114.232
111.843
109.106
106.039
102.659
98.987
95.043
90.85
86.432
81.813
77.018
72.074
67.008
61.845
56.613
51.337
46.045
40.761
35.51
30.314
25.196
20.176
15.274
10.508
5.894
1.446
-2.822
-6.9
-10.777
-14.448
-17.904
-21.144
-24.162
-26.96
-29.537
-31.894
-34.037
-35.968
-37.693
-39.219
-40.554
-41.707
-42.685
-43.501
-44.163
-44.682
-45.07
-45.337
-45.495
-45.555
-45.526
-45.421
-45.248
-45.018
-44.74
-44.423
-44.075
-43.703
-43.315
-42.918
-42.517
-42.119
-41.727
-41.347
-40.983
-40.638
-40.315
-40.018
-39.749
-39.511
-39.305
-39.134
-38.999
-38.901
-38.842
-38.822
-38.844
-38.906
-39.011
-39.159
-39.35
-39.585
-39.866
-40.191
-40.563
-40.981
-41.445
-41.957
-42.516
-43.123
-43.778
-44.481
-45.231
-46.029
-46.874
-47.765
-48.701
-49.68
-50.7
-51.759
-52.854
-53.982
-55.139
-56.322
-57.525
-58.745
-59.977
-61.215
-62.455
-63.691
-64.916
-66.126
-67.314
-68.475
-69.602
-70.69
-71.734
-72.727
-73.666
-74.544
-75.356
-76.099
-76.768
-77.358
-77.865
-78.286
-78.619
-78.86
-79.008
-79.061
-79.02
-78.884
-78.653
-78.33
-77.916
-77.413
-76.824
-76.153
-75.403
-74.577
-73.68
-72.716
-71.691
-70.61
-69.478
-68.3
-67.081
-65.826
-64.541
-63.231
-61.899
-60.551
-59.191
-57.823
-56.452
-55.082
-53.719
-52.365
-51.024
-49.7
-48.397
-47.117
-45.863
-44.635
-43.437
-42.271
-41.137
-40.038
-38.977
-37.954
-36.976
-36.045
-35.165
-34.341
-33.576
-32.874
-32.24
-31.676
-31.183
-30.764
-30.42
-30.154
-29.97
-29.874
-29.87
-29.962
-30.154
-30.449
-30.851
-31.362
-31.978
-32.694
-33.511
-34.431
-35.469
-36.638
-37.939
-39.374
-40.941
-42.629
-44.426
-46.306
-48.225
-50.141
-52.016
-53.815
-55.524
-57.125
-58.587
-59.871
-60.928
-61.714
-62.213
-62.411
-62.294
-61.883
-61.219
-60.379
-59.493
-58.671
-58.005
-57.588
-57.493
-57.793
-58.583
-59.923
-61.898
-64.64
-68.179
-72.488
-77.474
-82.837
-88.224
-93.305
-97.58
-100.483
-101.681
-100.975
-98.428
-94.668
-90.423
-86.323
-83.232
-81.557
-80.791
-80.24
-78.686
-75.528
-71.766
-67.971
-63.641
-54.808
-34.445
3.488
63.033
142.314
235.502
336.82
438.748
535.396
619.228
679.766
709.652
702.894
659.923
587.276
490.577
378.406
259.165
140.771
35.733
-45.752
-99.119
-123.666
-125.518
-114.531
-97.221
-79.809
-68.134
-62.911
-64.726
-71.993
-78.702
-82.271
-82.141
-79.019
-76.548
-76.158
-76.977
-77.843
-77.178
-74.579
-70.762
-66.407
-62.057
-58.059
-54.66
-52.178
-50.793
-50.486
-51.113
-52.453
-54.332
-56.627
-59.182
-61.823
-64.387
-66.704
-68.63
-70.083
-71.001
-71.341
-71.089
-70.232
-68.772
-66.747
-64.211
-61.219
-57.828
-54.082
-50.025
-45.715
-41.216
-36.595
-31.923
-27.246
-22.596
-17.998
-13.465
-9.01
-4.637
-0.336
3.907
8.105
12.265
16.39
20.481
24.546
28.595
32.636
36.675
40.72
44.771
48.834
52.909
56.998
61.097
65.202
69.309
73.412
77.508
81.594
85.667
89.722
93.753
97.755
101.723
105.649
109.524
113.339
117.082
120.744
124.313
127.777
131.124
134.342
137.419
140.343
143.102
145.683
148.076
150.269
152.252
154.014
155.547
156.842
157.891
158.689
159.231
159.513
159.532
159.289
158.782
158.014
156.988
155.708
154.181
152.413
150.412
148.188
145.753
143.119
140.298
137.305
134.154
130.862
127.444
123.917
120.297
116.6
112.844
109.045
105.22
101.383
97.551
93.739
89.96
86.229
82.557
78.957
75.437
72.009
68.679
65.455
62.342
59.345
56.466
53.707
51.07
48.554
46.158
43.878
41.712
39.655
37.703
35.849
34.087
32.41
30.811
29.283
27.819
26.41
25.049
23.729
22.443
21.184
19.944
18.719
17.502
16.289
15.075
13.857
12.632
11.397
10.151
8.895
7.627
6.349
5.064
3.773
2.48
1.188
-0.097
-1.371
-2.629
-3.864
-5.07
-6.242
-7.373
-8.456
-9.486
-10.456
-11.36
-12.194
-12.952
-13.63
-14.224
-14.731
-15.15
-15.477
-15.714
-15.858
-15.913
-15.878
-15.758
-15.556
-15.275
-14.923
-14.505
-14.028
-13.5
-12.931
-12.328
-11.703
-11.065
-10.425
-9.795
-9.186
-8.608
-8.075
-7.597
-7.186
-6.853
-6.608
-6.463
-6.426
-6.506
-6.712
-7.05
-7.528
-8.15
-8.92
-9.842
-10.918
-12.149
-13.533
-15.069
-16.754
-18.583
-20.549
-22.646
-24.865
-27.196
-29.629
-32.151
-34.749
-37.411
-40.122
-42.866
-45.628
-48.391
-51.139
-53.854
-56.52
-59.118
-61.631
-64.044
-66.34
-68.503
-70.518
-72.371
-74.047
-75.533
-76.819
-77.892
-78.744
-79.365
-79.749
-79.892
-79.79
-79.442
-78.848
-78.01
-76.931
-75.618
-74.077
-72.317
-70.347
-68.18
-65.828
-63.308
-60.636
-57.83
-54.911
-51.901
-48.822
-45.698
-42.551
-39.406
-36.285
-33.216
-30.224
-27.333
-24.567
-21.949
-19.503
-17.252
-15.221
-13.428
-11.887
-10.612
-9.615
-8.91
-8.507
-8.409
-8.613
-9.118
-9.919
-11.016
-12.411
-14.092
-16.044
-18.252
-20.696
-23.356
-26.211
-29.223
-32.353
-35.563
-38.807
-42.062
-45.308
-48.519
-51.683
-54.769
-57.73
-60.538
-63.153
-65.521
-67.647
-69.527
-71.135
-72.55
-73.866
-75.204
-76.825
-78.929
-81.529
-84.639
-88.212
-92.025
-95.926
-99.619
-102.443
-103.841
-103.51
-101.236
-97.127
-91.569
-84.712
-76.899
-69.058
-62.162
-57.076
-54.601
-55.005
-58.052
-63.916
-72.231
-81.227
-88.786
-92.565
-91.376
-86.38
-78.898
-68.621
-51.998
-22.943
23.926
91.442
177.619
277.163
383.257
488.121
584.183
662.154
713.127
728.718
702.767
636.166
533.726
405.353
264.964
125.896
1.604
-97.785
-166.674
-205.321
-218.772
-212.265
-193.309
-167.429
-139.556
-118.04
-106.512
-105.767
-113.18
-120.769
-124.581
-124.156
-121.091
-119.416
-119.907
-121.162
-122.094
-121.231
-118.397
-114.298
-109.08
-103.241
-97.652
-92.862
-89.25
-86.951
-85.761
-85.523
-86.293
-87.987
-90.313
-92.993
-95.739
-98.316
-100.626
-102.59
-104.089
-105.064
-105.507
-105.41
-104.799
-103.72
-102.198
-100.269
-97.974
-95.347
-92.427
-89.269
-85.929
-82.474
-78.968
-75.455
-71.958
-68.496
-65.076
-61.696
-58.352
-55.019
-51.669
-48.28
-44.835
-41.321
-37.725
-34.029
-30.214
-26.264
-22.163
-17.901
-13.471
-8.865
-4.081
0.881
6.017
11.32
16.779
22.384
28.125
33.991
39.97
46.046
52.204
58.426
64.694
70.986
77.28
83.55
89.771
95.916
101.958
107.869
113.621
119.185
124.533
129.639
134.476
139.018
143.239
147.116
150.626
153.75
156.468
158.765
160.625
162.037
162.991
163.482
163.505
163.059
162.144
160.765
158.928
156.642
153.919
150.774
147.222
143.283
138.978
134.331
129.368
124.115
118.602
112.857
106.914
100.802
94.553
88.201
81.778
75.315
68.844
62.397
56.003
49.693
43.493
37.43
31.529
25.813
20.302
15.016
9.97
5.181
0.66
-3.583
-7.538
-11.201
-14.566
-17.634
-20.404
-22.88
-25.065
-26.968
-28.596
-29.96
-31.072
-31.945
-32.594
-33.033
-33.281
-33.353
-33.268
-33.044
-32.699
-32.252
-31.721
-31.125
-30.481
-29.806
-29.116
-28.427
-27.754
-27.109
-26.506
-25.956
-25.47
-25.055
-24.721
-24.475
-24.32
-24.262
-24.302
-24.443
-24.683
-25.023
-25.458
-25.985
-26.6
-27.297
-28.068
-28.907
-29.804
-30.751
-31.738
-32.754
-33.791
-34.836
-35.881
-36.914
-37.925
-38.905
-39.846
-40.737
-41.57
-42.339
-43.037
-43.657
-44.194
-44.643
-45.002
-45.266
-45.434
-45.506
-45.481
-45.36
-45.146
-44.84
-44.447
-43.971
-43.417
-42.792
-42.102
-41.356
-40.562
-39.729
-38.865
-37.981
-37.087
-36.192
-35.306
-34.438
-33.597
-32.793
-32.034
-31.327
-30.679
-30.097
-29.586
-29.151
-28.796
-28.522
-28.333
-28.228
-28.208
-28.271
-28.416
-28.641
-28.941
-29.313
-29.752
-30.253
-30.809
-31.414
-32.06
-32.738
-33.44
-34.155
-34.875
-35.59
-36.29
-36.965
-37.606
-38.204
-38.751
-39.24
-39.661
-40.01
-40.279
-40.465
-40.563
-40.572
-40.491
-40.319
-40.06
-39.715
-39.29
-38.79
-38.221
-37.589
-36.903
-36.169
-35.397
-34.596
-33.775
-32.948
-32.125
-31.322
-30.553
-29.834
-29.181
-28.609
-28.134
-27.77
-27.529
-27.423
-27.458
-27.644
-27.99
-28.5
-29.181
-30.035
-31.063
-32.266
-33.641
-35.182
-36.882
-38.732
-40.717
-42.832
-45.069
-47.425
-49.905
-52.509
-55.232
-58.071
-61.02
-64.068
-67.196
-70.377
-73.562
-76.709
-79.777
-82.717
-85.492
-88.056
-90.355
-92.337
-93.947
-95.138
-95.879
-96.152
-95.933
-95.211
-94.008
-92.379
-90.441
-88.343
-86.219
-84.191
-82.397
-81.02
-80.198
-80.004
-80.387
-81.106
-81.924
-82.683
-83.177
-83.151
-82.47
-81.106
-79.348
-78.01
-77.86
-79.408
-83.245
-89.854
-99.359
-111.783
-125.797
-138.302
-146.573
-148.085
-141.791
-129.507
-111.772
-87.68
-55.129
-8.416
55.992
137.601
233.93
336.485
435.304
522.032
586.242
620.239
618.462
575.538
492.033
372.828
227.581
73.353
-71.328
-189.698
-270.875
-315.188
-330.186
-325.945
-311.365
-290.01
-263.542
-234.989
-207.486
-184.764
-168.389
-155.911
-145.279
-135.811
-127.92
-124.008
-125.24
-130.57
-138.474
-146.837
-153.727
-158.167
-159.795
-158.657
-155.14
-149.837
-143.244
-135.853
-128.389
-121.557
-115.775
-111.237
-107.874
-105.426
-103.665
-102.345
-101.118
-99.643
-97.699
-95.173
-92.057
-88.4
-84.226
-79.558
-74.44
-68.926
-63.056
-56.85
-50.313
-43.451
-36.291
-28.882
-21.276
-13.511
-5.608
2.421
10.57
18.834
27.211
35.714
44.357
53.149
62.095
71.196
80.45
89.863
99.439
109.183
119.099
129.186
139.44
149.854
160.418
171.118
181.935
192.849
203.837
214.874
225.938
237.003
248.042
259.027
269.927
280.713
291.352
301.811
312.054
322.047
331.754
341.139
350.169
358.806
367.019
374.773
382.037
388.78
394.973
400.588
405.6
409.985
413.722
416.792
419.18
420.87
421.854
422.122
421.671
420.499
418.608
416.002
412.689
408.68
403.99
398.634
392.634
386.01
378.789
370.997
362.665
353.825
344.511
334.759
324.604
314.086
303.243
292.115
280.741
269.161
257.416
245.544
233.586
221.579
209.561
197.568
185.636
173.799
162.088
150.534
139.166
128.01
117.092
106.435
96.058
85.98
76.219
66.788
57.698
48.961
40.583
32.571
24.928
17.655
10.753
4.22
-1.949
-7.758
-13.213
-18.322
-23.094
-27.54
-31.669
-35.494
-39.026
-42.28
-45.267
-48.003
-50.501
-52.776
-54.841
-56.711
-58.401
-59.925
-61.297
-62.53
-63.638
-64.635
-65.533
-66.344
-67.081
-67.755
-68.376
-68.954
-69.5
-70.022
-70.528
-71.027
-71.524
-72.027
-72.54
-73.07
-73.621
-74.196
-74.799
-75.432
-76.097
-76.797
-77.531
-78.3
-79.104
-79.942
-80.814
-81.719
-82.653
-83.615
-84.601
-85.61
-86.637
-87.679
-88.73
-89.787
-90.845
-91.899
-92.943
-93.973
-94.983
-95.969
-96.924
-97.845
-98.725
-99.561
-100.348
-101.08
-101.756
-102.371
-102.921
-103.405
-103.82
-104.164
-104.437
-104.637
-104.764
-104.82
-104.803
-104.715
-104.559
-104.336
-104.049
-103.702
-103.297
-102.84
-102.335
-101.787
-101.203
-100.587
-99.945
-99.285
-98.613
-97.934
-97.255
-96.582
-95.922
-95.282
-94.666
-94.082
-93.534
-93.026
-92.565
-92.154
-91.796
-91.494
-91.251
-91.067
-90.946
-90.888
-90.893
-90.963
-91.096
-91.291
-91.549
-91.867
-92.245
-92.68
-93.169
-93.711
-94.303
-94.943
-95.628
-96.356
-97.126
-97.938
-98.791
-99.686
-100.623
-101.603
-102.627
-103.696
-104.812
-105.973
-107.179
-108.432
-109.731
-111.081
-112.486
-113.948
-115.47
-117.054
-118.701
-120.415
-122.195
-124.036
-125.933
-127.883
-129.887
-131.956
-134.098
-136.312
-138.595
-140.947
-143.355
-145.811
-148.295
-150.772
-153.21
-155.582
-157.863
-160.047
-162.117
-164.045
-165.795
-167.322
-168.581
-169.557
-170.228
-170.568
-170.583
-170.292
-169.747
-169.039
-168.233
-167.375
-166.522
-165.729
-165.069
-164.628
-164.461
-164.645
-165.3
-166.488
-168.197
-170.302
-172.5
-174.455
-175.883
-176.421
-175.653
-173.287
-169.255
-163.938
-158.082
-152.401
-147.566
-144.207
-142.957
-144.547
-148.482
-152.414
-153.888
-150.336
-141.075
-128.938
-114.898
-97.609
-73.634
-34.529
25.973
108.803
212.181
326.948
440.731
542.936
621.211
666.502
673.662
638.697
563.522
454.659
322.195
181.031
47.101
-66.235
-150.315
-202.952
-228.881
-234.644
-225.343
-205.932
-178.625
-147.01
-118.195
-96.077
-83.185
-78.547
-76.103
-73.028
-68.624
-63.632
-61.782
-64.189
-69.609
-76.647
-82.81
-86.56
-87.909
-86.978
-84.106
-79.902
-74.851
-69.497
-64.637
-60.841
-58.294
-57.078
-57.112
-58.147
-59.969
-62.273
-64.598
-66.648
-68.282
-69.411
-70.062
-70.266
-69.995
-69.278
-68.185
-66.753
-65.016
-62.994
-60.673
-58.076
-55.251
-52.252
-49.148
-45.983
-42.776
-39.542
-36.289
-33.016
-29.725
-26.402
-23.022
-19.569
-16.03
-12.396
-8.661
-4.814
-0.837
3.285
7.569
12.025
16.658
21.471
26.467
31.642
36.991
42.506
48.173
53.982
59.921
65.977
72.139
78.389
84.71
91.085
97.494
103.916
110.327
116.702
123.016
129.243
135.354
141.323
147.12
152.717
158.086
163.199
168.027
172.544
176.723
180.539
183.968
186.988
189.581
191.726
193.409
194.617
195.337
195.562
195.287
194.508
193.225
191.441
189.16
186.39
183.141
179.428
175.264
170.668
165.661
160.265
154.507
148.413
142.014
135.339
128.423
121.299
114.002
106.569
99.037
91.443
83.824
76.217
68.661
61.19
53.841
46.648
39.642
32.856
26.319
20.057
14.096
8.459
3.166
-1.764
-6.316
-10.476
-14.235
-17.584
-20.518
-23.035
-25.134
-26.819
-28.094
-28.967
-29.449
-29.553
-29.294
-28.688
-27.756
-26.518
-24.998
-23.219
-21.209
-18.994
-16.603
-14.063
-11.404
-8.655
-5.846
-3.005
-0.161
2.657
5.423
8.11
10.693
13.147
15.451
17.583
19.523
21.254
22.759
24.024
25.037
25.787
26.267
26.468
26.388
26.024
25.376
24.445
23.236
21.754
20.007
18.004
15.757
13.279
10.583
7.685
4.601
1.349
-2.052
-5.584
-9.228
-12.962
-16.767
-20.622
-24.506
-28.4
-32.282
-36.134
-39.935
-43.667
-47.313
-50.855
-54.277
-57.562
-60.697
-63.668
-66.463
-69.07
-71.48
-73.684
-75.675
-77.446
-78.994
-80.314
-81.405
-82.265
-82.893
-83.292
-83.463
-83.408
-83.132
-82.64
-81.937
-81.031
-79.927
-78.635
-77.163
-75.518
-73.712
-71.753
-69.652
-67.418
-65.061
-62.591
-60.019
-57.357
-54.614
-51.801
-48.929
-46.006
-43.045
-40.053
-37.041
-34.017
-30.989
-27.966
-24.957
-21.969
-19.011
-16.089
-13.212
-10.386
-7.619
-4.917
-2.287
0.266
2.737
5.119
7.407
9.594
11.676
13.648
15.504
17.236
18.837
20.302
21.625
22.801
23.826
24.693
25.399
25.944
26.328
26.549
26.606
26.496
26.217
25.77
25.153
24.368
23.416
22.299
21.023
19.6
18.039
16.351
14.539
12.599
10.531
8.346
6.051
3.659
1.19
-1.335
-3.884
-6.407
-8.862
-11.21
-13.422
-15.484
-17.373
-19.059
-20.509
-21.678
-22.534
-23.066
-23.247
-23.063
-22.536
-21.699
-20.624
-19.419
-18.152
-16.882
-15.688
-14.615
-13.73
-13.108
-12.771
-12.777
-13.236
-14.182
-15.593
-17.363
-19.174
-20.68
-21.594
-21.512
-19.994
-16.781
-11.805
-5.314
2.03
9.416
16.123
21.444
24.523
25.364
25.169
25.289
27.609
32.894
39.466
46.912
57.169
74.255
105.35
155.808
224.96
308.57
399.009
487.084
567.66
636.37
687.351
716.709
718.121
685.855
620.159
522.439
399.795
265.431
132.773
17.195
-69.113
-121.592
-141.302
-133.716
-106.926
-69.222
-27.657
9.831
36.744
51.313
54.442
51.25
48.292
47.914
50.126
52.55
51.619
46.901
39.632
31.668
25.4
21.601
20.008
20.349
21.962
24.248
26.79
28.901
30.026
30.001
28.763
26.381
23.079
19.043
14.54
9.993
5.684
1.748
-1.735
-4.794
-7.457
-9.696
-11.535
-13.038
-14.24
-15.176
-15.862
-16.283
-16.453
-16.41
-16.197
-15.872
-15.471
-15.005
-14.484
-13.91
-13.281
-12.596
-11.845
-11.005
-10.061
-9.004
-7.826
-6.522
-5.087
-3.506
-1.768
0.138
2.222
4.487
6.931
9.551
12.339
15.289
18.394
21.645
25.028
28.534
32.147
35.853
39.64
43.493
47.391
51.315
55.237
59.128
62.968
66.736
70.417
73.984
77.398
80.617
83.598
86.32
88.786
90.988
92.906
94.521
95.79
96.707
97.342
97.677
97.611
97.065
95.906
94.123
91.93
89.412
86.506
83.361
80.188
77.174
74.772
73.104
71.784
70.699
69.791
68.633
66.939
64.451
60.444
54.683
47.533
38.962
29.208
19.028
8.793
-1.145
-9.988
-17.429
-23.515
-27.877
-30.681
-32.644
-34.049
-35.179
-36.525
-38.199
-40.297
-43.234
-46.937
-50.943
-55.054
-59.056
-62.75
-66.183
-69.282
-71.808
-73.761
-75.303
-76.521
-77.534
-78.385
-79.005
-79.4
-79.628
-79.702
-79.621
-79.378
-78.95
-78.344
-77.598
-76.739
-75.791
-74.766
-73.668
-72.504
-71.288
-70.031
-68.744
-67.433
-66.102
-64.755
-63.397
-62.034
-60.669
-59.305
-57.942
-56.582
-55.224
-53.867
-52.517
-51.175
-49.843
-48.52
-47.207
-45.904
-44.612
-43.33
-42.06
-40.8
-39.551
-38.312
-37.085
-35.871
-34.67
-33.484
-32.314
-31.161
-30.027
-28.914
-27.825
-26.762
-25.728
-24.725
-23.757
-22.827
-21.937
-21.092
-20.293
-19.544
-18.847
-18.206
-17.623
-17.1
-16.638
-16.238
-15.901
-15.628
-15.418
-15.271
-15.185
-15.16
-15.192
-15.281
-15.423
-15.616
-15.855
-16.137
-16.457
-16.812
-17.196
-17.604
-18.031
-18.471
-18.92
-19.372
-19.823
-20.268
-20.702
-21.12
-21.519
-21.894
-22.243
-22.561
-22.847
-23.098
-23.315
-23.495
-23.642
-23.754
-23.834
-23.886
-23.913
-23.92
-23.911
-23.891
-23.866
-23.844
-23.832
-23.838
-23.869
-23.936
-24.047
-24.215
-24.452
-24.767
-25.173
-25.678
-26.295
-27.032
-27.898
-28.899
-30.038
-31.321
-32.755
-34.345
-36.096
-38.01
-40.09
-42.334
-44.742
-47.315
-50.043
-52.916
-55.921
-59.05
-62.298
-65.671
-69.164
-72.766
-76.465
-80.241
-84.074
-87.942
-91.808
-95.619
-99.328
-102.89
-106.271
-109.452
-112.401
-115.08
-117.442
-119.43
-121.006
-122.152
-122.845
-123.074
-122.852
-122.205
-121.195
-119.916
-118.449
-116.878
-115.284
-113.737
-112.329
-111.132
-110.237
-109.771
-109.783
-110.256
-111.095
-112.053
-112.834
-113.203
-112.852
-111.41
-108.659
-104.489
-99.096
-93.109
-87.197
-81.873
-77.482
-74.283
-72.479
-72.083
-72.498
-71.866
-67.525
-57.279
-39.979
-16.426
11.581
43.866
81.82
128.461
186.522
254.953
329.856
405.491
476.488
539.597
591.204
626.407
637.408
615.392
555.972
459.739
335.198
197.489
62.35
-54.549
-142.157
-196.76
-219.692
-216.531
-195.022
-162.892
-126.918
-94.014
-69.292
-54.108
-47.674
-45.911
-44.316
-41.84
-38.788
-37.298
-40.192
-47.344
-57.559
-69.144
-79.458
-87.367
-92.88
-95.996
-97.257
-97.313
-96.433
-95.139
-94.252
-94.169
-95.064
-97.007
-99.751
-103.019
-106.611
-110.216
-113.472
-116.19
-118.267
-119.661
-120.441
-120.645
-120.293
-119.448
-118.167
-116.494
-114.461
-112.094
-109.415
-106.47
-103.325
-100.03
-96.624
-93.134
-89.576
-85.965
-82.309
-78.615
-74.876
-71.089
-67.257
-63.385
-59.481
-55.55
-51.59
-47.599
-43.572
-39.508
-35.407
-31.272
-27.106
-22.913
-18.702
-14.481
-10.263
-6.056
-1.868
2.294
6.423
10.513
14.554
18.538
22.458
26.305
30.068
33.736
37.298
40.743
44.061
47.24
50.272
53.143
55.846
58.368
60.701
62.835
64.762
66.472
67.958
69.211
70.225
70.995
71.514
71.779
71.785
71.529
71.011
70.228
69.181
67.87
66.297
64.464
62.376
60.036
57.449
54.622
51.562
48.276
44.774
41.065
37.16
33.069
28.803
24.376
19.799
15.085
10.247
5.299
0.254
-4.874
-10.071
-15.323
-20.617
-25.938
-31.272
-36.606
-41.927
-47.221
-52.476
-57.678
-62.817
-67.881
-72.857
-77.736
-82.506
-87.158
-91.682
-96.068
-100.307
-104.391
-108.312
-112.061
-115.632
-119.018
-122.212
-125.209
-128.002
-130.588
-132.961
-135.117
-137.053
-138.765
-140.252
-141.51
-142.539
-143.337
-143.904
-144.24
-144.344
-144.218
-143.863
-143.279
-142.469
-141.435
-140.179
-138.705
-137.015
-135.113
-133.004
-130.693
-128.184
-125.484
-122.598
-119.535
-116.3
-112.901
-109.346
-105.645
-101.805
-97.836
-93.748
-89.551
-85.254
-80.868
-76.405
-71.874
-67.286
-62.653
-57.985
-53.294
-48.591
-43.887
-39.193
-34.522
-29.884
-25.292
-20.757
-16.291
-11.905
-7.609
-3.415
0.667
4.627
8.456
12.143
15.682
19.063
22.279
25.324
28.192
30.877
33.376
35.684
37.799
39.719
41.441
42.967
44.296
45.429
46.368
47.114
47.671
48.043
48.235
48.252
48.102
47.792
47.331
46.728
45.993
45.137
44.17
43.104
41.952
40.726
39.438
38.101
36.729
35.333
33.928
32.525
31.137
29.776
28.452
27.176
25.96
24.812
23.741
22.755
21.861
21.065
20.373
19.79
19.319
18.962
18.719
18.591
18.575
18.669
18.866
19.158
19.536
19.993
20.516
21.095
21.716
22.365
23.033
23.708
24.378
25.029
25.646
26.214
26.72
27.15
27.49
27.727
27.846
27.84
27.703
27.432
27.021
26.46
25.732
24.828
23.743
22.472
21.013
19.369
17.548
15.569
13.468
11.276
9.019
6.717
4.382
2.038
-0.286
-2.557
-4.742
-6.816
-8.755
-10.533
-12.14
-13.591
-14.928
-16.216
-17.519
-18.882
-20.366
-22.003
-23.797
-25.77
-27.937
-30.318
-33.005
-36.101
-39.608
-43.576
-48.092
-52.915
-57.668
-62.053
-65.452
-67.711
-69.58
-70.723
-70.309
-67.485
-60.239
-49.542
-39.486
-33.608
-35.208
-43.544
-53.568
-61.951
-67.906
-72.54
-76.946
-77.382
-64.84
-30.618
28.465
109.167
202.113
295.845
383.591
460.041
519.356
557.927
568.824
546.191
490.912
404.999
295.574
174.368
52.302
-58.105
-146.202
-206.248
-237.94
-245.18
-232.983
-208.331
-176.088
-141.722
-113.841
-96.076
-89.533
-91.502
-93.679
-92.198
-87.084
-80.12
-75.699
-75.126
-76.714
-78.942
-80.153
-79.588
-77.408
-73.8
-69.056
-63.767
-58.777
-54.6
-51.386
-49.207
-48.035
-47.843
-48.642
-50.219
-52.141
-54.079
-55.814
-57.22
-58.29
-58.998
-59.295
-59.172
-58.662
-57.811
-56.666
-55.259
-53.589
-51.667
-49.513
-47.164
-44.671
-42.086
-39.458
-36.816
-34.176
-31.545
-28.926
-26.319
-23.72
-21.111
-18.468
-15.775
-13.02
-10.193
-7.289
-4.291
-1.181
2.057
5.436
8.964
12.648
16.491
20.498
24.669
29
33.486
38.119
42.89
47.794
52.823
57.967
63.216
68.557
73.975
79.459
84.991
90.555
96.132
101.702
107.247
112.745
118.177
123.522
128.759
133.869
138.83
143.622
148.228
152.627
156.802
160.735
164.411
167.814
170.932
173.751
176.261
178.453
180.32
181.856
183.058
183.922
184.449
184.641
184.502
184.037
183.252
182.158
180.765
179.084
177.131
174.919
172.465
169.787
166.903
163.83
160.589
157.2
153.681
150.053
146.335
142.548
138.71
134.84
130.956
127.076
123.216
119.392
115.619
111.91
108.278
104.733
101.285
97.943
94.712
91.599
88.605
85.734
82.986
80.359
77.852
75.46
73.179
71.002
68.922
66.932
65.023
63.185
61.408
59.683
57.998
56.344
54.71
53.085
51.459
49.823
48.166
46.479
44.753
42.981
41.154
39.266
37.311
35.283
33.179
30.995
28.73
26.382
23.953
21.443
18.857
16.197
13.468
10.678
7.832
4.94
2.01
-0.948
-3.925
-6.91
-9.892
-12.859
-15.801
-18.707
-21.565
-24.365
-27.095
-29.744
-32.304
-34.763
-37.112
-39.341
-41.443
-43.407
-45.227
-46.895
-48.404
-49.75
-50.926
-51.93
-52.759
-53.41
-53.882
-54.178
-54.297
-54.242
-54.016
-53.625
-53.072
-52.365
-51.509
-50.512
-49.381
-48.125
-46.752
-45.269
-43.687
-42.012
-40.255
-38.422
-36.524
-34.569
-32.565
-30.521
-28.446
-26.35
-24.241
-22.129
-20.022
-17.929
-15.858
-13.817
-11.814
-9.855
-7.945
-6.09
-4.295
-2.565
-0.901
0.693
2.216
3.665
5.041
6.343
7.571
8.725
9.806
10.815
11.751
12.616
13.409
14.132
14.784
15.366
15.877
16.317
16.688
16.99
17.225
17.395
17.499
17.541
17.521
17.441
17.3
17.096
16.826
16.489
16.081
15.6
15.042
14.403
13.682
12.877
11.99
11.018
9.958
8.805
7.558
6.217
4.782
3.252
1.627
-0.093
-1.902
-3.788
-5.746
-7.773
-9.872
-12.054
-14.323
-16.677
-19.112
-21.623
-24.204
-26.843
-29.516
-32.181
-34.798
-37.333
-39.761
-42.059
-44.193
-46.115
-47.773
-49.119
-50.118
-50.749
-50.996
-50.846
-50.313
-49.429
-48.241
-46.843
-45.328
-43.783
-42.307
-40.995
-39.916
-39.195
-39
-39.417
-40.442
-41.971
-43.771
-45.628
-47.392
-48.799
-49.429
-48.986
-47.428
-45.023
-42.311
-39.874
-38.122
-37.441
-38.59
-41.642
-45.321
-47.995
-47.698
-43.772
-38.577
-33.816
-28.101
-17.114
7.464
52.903
119.896
204.673
299.333
393.918
482.522
560.158
620.614
659.46
669.93
646.752
590.965
505.711
399.178
282.647
166.746
62.733
-20.924
-78.632
-109.539
-116.616
-103.239
-76.464
-42.699
-8.502
17.006
30.318
31.24
22.665
11.987
2.748
-4.153
-9.238
-15.539
-23.302
-31.234
-38.22
-42.221
-42.63
-40.153
-35.401
-29.486
-23.616
-18.303
-13.899
-10.767
-8.922
-8.321
-8.909
-10.37
-12.312
-14.508
-16.792
-19.019
-21.109
-22.967
-24.505
-25.713
-26.615
-27.214
-27.502
-27.469
-27.115
-26.462
-25.546
-24.398
-23.043
-21.512
-19.845
-18.09
-16.304
-14.53
-12.79
-11.103
-9.479
-7.922
-6.434
-5.007
-3.618
-2.249
-0.885
0.491
1.888
3.321
4.807
6.363
8
9.73
11.561
13.5
15.551
17.719
20.001
22.395
24.893
27.489
30.177
32.949
35.795
38.706
41.67
44.674
47.705
50.749
53.787
56.803
59.777
62.689
65.519
68.248
70.854
73.316
75.614
77.729
79.641
81.332
82.784
83.98
84.906
85.547
85.891
85.929
85.65
85.047
84.116
82.854
81.259
79.332
77.075
74.495
71.596
68.388
64.882
61.088
57.021
52.695
48.128
43.338
38.343
33.164
27.821
22.337
16.732
11.03
5.252
-0.579
-6.442
-12.316
-18.18
-24.012
-29.795
-35.509
-41.136
-46.659
-52.063
-57.334
-62.458
-67.423
-72.219
-76.837
-81.269
-85.508
-89.55
-93.39
-97.027
-100.46
-103.688
-106.713
-109.536
-112.162
-114.595
-116.838
-118.898
-120.78
-122.491
-124.037
-125.425
-126.662
-127.755
-128.711
-129.537
-130.239
-130.824
-131.299
-131.67
-131.944
-132.125
-132.221
-132.235
-132.172
-132.038
-131.837
-131.571
-131.244
-130.859
-130.417
-129.922
-129.374
-128.774
-128.122
-127.419
-126.665
-125.858
-125
-124.088
-123.123
-122.103
-121.029
-119.9
-118.715
-117.476
-116.181
-114.832
-113.43
-111.976
-110.47
-108.915
-107.312
-105.663
-103.97
-102.237
-100.464
-98.655
-96.812
-94.938
-93.037
-91.112
-89.166
-87.203
-85.228
-83.245
-81.258
-79.272
-77.293
-75.325
-73.373
-71.442
-69.538
-67.666
-65.829
-64.032
-62.281
-60.578
-58.928
-57.333
-55.795
-54.318
-52.901
-51.548
-50.257
-49.03
-47.865
-46.764
-45.725
-44.747
-43.831
-42.973
-42.173
-41.428
-40.736
-40.095
-39.499
-38.946
-38.43
-37.948
-37.493
-37.063
-36.649
-36.248
-35.853
-35.458
-35.058
-34.647
-34.217
-33.765
-33.284
-32.769
-32.218
-31.626
-30.989
-30.307
-29.577
-28.799
-27.972
-27.097
-26.173
-25.201
-24.181
-23.117
-22.011
-20.864
-19.683
-18.472
-17.24
-15.997
-14.75
-13.51
-12.286
-11.089
-9.928
-8.813
-7.751
-6.748
-5.814
-4.957
-4.189
-3.517
-2.948
-2.489
-2.146
-1.926
-1.833
-1.868
-2.024
-2.302
-2.705
-3.24
-3.925
-4.767
-5.765
-6.92
-8.233
-9.697
-11.304
-13.027
-14.821
-16.644
-18.462
-20.245
-21.971
-23.6
-25.078
-26.353
-27.37
-28.094
-28.509
-28.59
-28.315
-27.693
-26.74
-25.518
-24.136
-22.689
-21.273
-19.991
-18.913
-18.148
-17.866
-18.191
-19.176
-20.762
-22.743
-24.929
-27.191
-29.312
-30.949
-31.78
-31.596
-30.542
-29.17
-27.983
-27.441
-28.052
-30.333
-34.88
-41.377
-48.083
-52.998
-54.074
-51.365
-47.34
-42.108
-33.546
-15.915
19.689
76.643
152.716
241.301
331.926
417.704
495.932
564.066
618.903
655.412
665.469
642.832
586.535
498.052
385.489
262.409
142.606
41.888
-29.512
-71.097
-87.894
-89.767
-84.664
-75.289
-62.493
-47.478
-34.537
-28.629
-32.437
-44.453
-58.81
-70.959
-78.775
-82.634
-85.465
-88.374
-91.081
-93.188
-93.673
-92.581
-90.725
-88.617
-86.835
-85.841
-85.725
-86.522
-88.208
-90.588
-93.491
-96.792
-100.355
-104.056
-107.79
-111.449
-114.908
-118.037
-120.731
-122.911
-124.523
-125.542
-125.949
-125.73
-124.898
-123.493
-121.557
-119.133
-116.257
-112.953
-109.26
-105.23
-100.92
-96.396
-91.706
-86.881
-81.949
-76.929
-71.834
-66.677
-61.457
-56.162
-50.787
-45.332
-39.801
-34.202
-28.538
-22.81
-17.018
-11.167
-5.26
0.692
6.682
12.701
18.737
24.774
30.797
36.787
42.728
48.604
54.4
60.101
65.692
71.157
76.482
81.653
86.655
91.471
96.088
100.489
104.66
108.588
112.258
115.66
118.78
121.607
124.133
126.349
128.248
129.821
131.065
131.976
132.552
132.792
132.696
132.268
131.511
130.432
129.036
127.333
125.334
123.05
120.493
117.677
114.619
111.335
107.841
104.156
100.299
96.291
92.15
87.9
83.56
79.152
74.699
70.22
65.738
61.273
56.846
52.475
48.181
43.981
39.893
35.933
32.116
28.456
24.966
21.656
18.537
15.617
12.902
10.398
8.108
6.035
4.179
2.539
1.114
-0.102
-1.111
-1.921
-2.54
-2.975
-3.237
-3.336
-3.283
-3.092
-2.774
-2.342
-1.812
-1.196
-0.51
0.233
1.017
1.827
2.65
3.471
4.276
5.052
5.786
6.465
7.079
7.616
8.066
8.421
8.673
8.815
8.84
8.743
8.521
8.17
7.69
7.078
6.336
5.465
4.466
3.344
2.102
0.745
-0.722
-2.292
-3.959
-5.714
-7.551
-9.46
-11.433
-13.461
-15.535
-17.644
-19.78
-21.933
-24.093
-26.253
-28.401
-30.531
-32.633
-34.7
-36.725
-38.699
-40.617
-42.472
-44.259
-45.975
-47.613
-49.173
-50.65
-52.043
-53.35
-54.572
-55.708
-56.759
-57.726
-58.612
-59.418
-60.148
-60.806
-61.394
-61.919
-62.384
-62.794
-63.154
-63.47
-63.747
-63.991
-64.205
-64.396
-64.569
-64.729
-64.881
-65.029
-65.179
-65.334
-65.498
-65.676
-65.869
-66.081
-66.314
-66.569
-66.847
-67.149
-67.476
-67.827
-68.201
-68.598
-69.015
-69.45
-69.9
-70.361
-70.83
-71.302
-71.773
-72.239
-72.695
-73.136
-73.557
-73.954
-74.322
-74.656
-74.953
-75.208
-75.417
-75.576
-75.683
-75.733
-75.726
-75.66
-75.534
-75.349
-75.107
-74.811
-74.464
-74.07
-73.633
-73.157
-72.648
-72.109
-71.543
-70.955
-70.35
-69.734
-69.117
-68.506
-67.908
-67.329
-66.778
-66.262
-65.787
-65.354
-64.961
-64.613
-64.316
-64.083
-63.931
-63.866
-63.892
-64.011
-64.218
-64.507
-64.861
-65.245
-65.623
-65.965
-66.241
-66.439
-66.542
-66.519
-66.333
-65.936
-65.281
-64.348
-63.119
-61.569
-59.711
-57.584
-55.259
-52.852
-50.459
-48.143
-45.987
-44.075
-42.47
-41.232
-40.4
-40.042
-40.304
-41.289
-43.008
-45.344
-48.057
-50.969
-53.803
-56.04
-57.147
-56.628
-54.584
-52.082
-49.603
-47.034
-43.622
-37.529
-29.349
-21.384
-15.663
-14.754
-18.264
-23.57
-28.61
-29.961
-22.835
-2.075
37.981
101.205
185.325
284.356
391.285
497.111
595.931
682.077
746.683
783.532
786.088
750.628
680.531
579.833
456.816
323.409
190.912
73.468
-17.443
-77.108
-105.37
-107.849
-93.881
-71.288
-46.829
-26.888
-13.135
-4.865
-0.386
5.016
12.884
21.422
28.615
31.21
27.962
20.098
9.34
-2.403
-13.733
-23.563
-31.322
-36.92
-40.326
-41.85
-42.009
-41.131
-39.752
-38.701
-38.41
-39.078
-40.79
-43.305
-46.385
-49.871
-53.439
-56.711
-59.474
-61.596
-63.035
-63.868
-64.12
-63.798
-62.961
-61.666
-59.962
-57.893
-55.477
-52.728
-49.685
-46.404
-42.951
-39.382
-35.727
-32.011
-28.25
-24.456
-20.639
-16.801
-12.933
-9.03
-5.094
-1.123
2.877
6.908
10.979
15.098
19.272
23.508
27.811
32.182
36.623
41.13
45.701
50.329
55.006
59.726
64.484
69.272
74.084
78.913
83.748
88.581
93.399
98.19
102.941
107.634
112.253
116.781
121.2
125.489
129.63
133.601
137.38
140.947
144.278
147.352
150.147
152.64
154.811
156.637
158.101
159.184
159.867
160.135
159.975
159.373
158.319
156.804
154.823
152.369
149.442
146.041
142.168
137.829
133.03
127.78
122.092
115.98
109.46
102.552
95.278
87.66
79.724
71.498
63.012
54.297
45.384
36.309
27.106
17.811
8.46
-0.909
-10.26
-19.556
-28.76
-37.837
-46.75
-55.467
-63.953
-72.177
-80.108
-87.718
-94.979
-101.868
-108.36
-114.434
-120.072
-125.256
-129.973
-134.211
-137.959
-141.212
-143.963
-146.213
-147.96
-149.209
-149.965
-150.236
-150.033
-149.369
-148.258
-146.717
-144.764
-142.421
-139.707
-136.647
-133.263
-129.581
-125.627
-121.425
-117.003
-112.386
-107.601
-102.675
-97.633
-92.501
-87.303
-82.066
-76.81
-71.561
-66.339
-61.165
-56.059
-51.039
-46.121
-41.322
-36.654
-32.131
-27.762
-23.557
-19.523
-15.667
-11.991
-8.501
-5.196
-2.078
0.854
3.603
6.17
8.559
10.775
12.822
14.706
16.432
18.007
19.437
20.729
21.889
22.923
23.84
24.644
25.343
25.942
26.447
26.864
27.197
27.452
27.631
27.739
27.779
27.752
27.661
27.506
27.288
27.008
26.665
26.258
25.788
25.253
24.654
23.988
23.257
22.461
21.598
20.67
19.679
18.624
17.508
16.333
15.101
13.815
12.479
11.098
9.676
8.218
6.731
5.222
3.698
2.167
0.636
-0.885
-2.387
-3.861
-5.295
-6.681
-8.008
-9.265
-10.441
-11.526
-12.512
-13.388
-14.147
-14.781
-15.285
-15.653
-15.88
-15.965
-15.905
-15.7
-15.35
-14.856
-14.223
-13.454
-12.556
-11.535
-10.401
-9.164
-7.838
-6.439
-4.982
-3.484
-1.963
-0.437
1.074
2.551
3.977
5.336
6.608
7.774
8.812
9.704
10.432
10.98
11.333
11.477
11.398
11.09
10.552
9.781
8.774
7.52
6
4.205
2.134
-0.214
-2.834
-5.717
-8.854
-12.214
-15.752
-19.427
-23.197
-27.03
-30.906
-34.787
-38.623
-42.36
-45.928
-49.272
-52.36
-55.153
-57.619
-59.755
-61.568
-63.092
-64.415
-65.613
-66.758
-67.933
-69.196
-70.606
-72.26
-74.288
-76.798
-79.824
-83.299
-87.039
-90.833
-94.459
-97.622
-99.909
-100.929
-100.5
-98.732
-96.067
-93.17
-90.732
-89.457
-90.208
-93.269
-97.925
-102.956
-106.482
-107.63
-107.271
-105.85
-102.78
-93.995
-72.382
-31.954
31.157
114.778
212.227
316.869
420.704
518.068
603.715
668.789
705.151
704.603
661.249
576.464
456.579
313.456
164.682
27.964
-81.759
-155.183
-193.43
-203.94
-195.188
-175.682
-149.479
-118.86
-88.972
-64.38
-48.842
-43.905
-45.792
-49.66
-53.064
-55.236
-57.808
-63.167
-71.002
-79.773
-87.962
-93.722
-96.503
-96.754
-94.898
-91.676
-88.047
-84.783
-82.406
-81.301
-81.565
-83.091
-85.783
-89.438
-93.707
-98.204
-102.608
-106.667
-110.261
-113.366
-115.953
-118.009
-119.534
-120.545
-121.074
-121.147
-120.783
-119.986
-118.768
-117.149
-115.168
-112.879
-110.336
-107.598
-104.701
-101.669
-98.52
-95.266
-91.915
-88.475
-84.936
-81.287
-77.521
-73.633
-69.623
-65.491
-61.233
-56.837
-52.3
-47.615
-42.785
-37.814
-32.706
-27.467
-22.106
-16.636
-11.072
-5.431
0.271
6.019
11.796
17.586
23.371
29.13
34.846
40.5
46.072
51.541
56.885
62.082
67.112
71.953
76.585
80.986
85.139
89.022
92.62
95.914
98.888
101.529
103.822
105.756
107.321
108.508
109.311
109.725
109.746
109.375
108.612
107.461
105.927
104.017
101.741
99.109
96.135
92.833
89.219
85.311
81.127
76.689
72.019
67.139
62.073
56.846
51.482
46.008
40.448
34.827
29.172
23.507
17.855
12.241
6.686
1.213
-4.157
-9.406
-14.516
-19.469
-24.251
-28.849
-33.25
-37.444
-41.424
-45.182
-48.714
-52.017
-55.088
-57.929
-60.542
-62.929
-65.097
-67.051
-68.8
-70.353
-71.721
-72.916
-73.949
-74.835
-75.588
-76.22
-76.749
-77.187
-77.55
-77.853
-78.109
-78.334
-78.539
-78.739
-78.945
-79.168
-79.419
-79.708
-80.042
-80.429
-80.875
-81.386
-81.966
-82.617
-83.34
-84.136
-85.004
-85.942
-86.945
-88.009
-89.128
-90.294
-91.499
-92.733
-93.985
-95.245
-96.5
-97.737
-98.943
-100.106
-101.21
-102.244
-103.193
-104.044
-104.784
-105.402
-105.885
-106.223
-106.404
-106.419
-106.26
-105.918
-105.386
-104.658
-103.729
-102.594
-101.25
-99.695
-97.928
-95.95
-93.762
-91.367
-88.768
-85.972
-82.985
-79.816
-76.473
-72.968
-69.311
-65.515
-61.593
-57.56
-53.43
-49.217
-44.937
-40.606
-36.238
-31.848
-27.452
-23.063
-18.696
-14.364
-10.081
-5.859
-1.709
2.355
6.324
10.187
13.935
17.558
21.048
24.4
27.607
30.663
33.565
36.311
38.9
41.332
43.606
45.727
47.696
49.519
51.201
52.749
54.168
55.467
56.654
57.736
58.722
59.62
60.438
61.182
61.86
62.479
63.046
63.565
64.041
64.48
64.885
65.26
65.607
65.929
66.226
66.499
66.747
66.967
67.155
67.305
67.409
67.459
67.447
67.363
67.194
66.932
66.566
66.087
65.486
64.752
63.87
62.829
61.62
60.232
58.658
56.89
54.921
52.748
50.375
47.806
45.042
42.077
38.898
35.499
31.88
28.043
23.998
19.757
15.331
10.751
6.06
1.302
-3.481
-8.256
-13
-17.678
-22.243
-26.635
-30.78
-34.623
-38.127
-41.253
-43.976
-46.294
-48.22
-49.807
-51.137
-52.278
-53.306
-54.296
-55.312
-56.44
-57.753
-59.355
-61.418
-64.029
-67.178
-70.76
-74.506
-78.104
-81.297
-83.716
-84.854
-84.376
-82.209
-78.649
-74.401
-70.268
-66.954
-65.092
-65.485
-68.353
-72.747
-76.975
-78.679
-76.435
-70.821
-62.657
-51.687
-34.779
-6.063
40.521
109.085
199.044
305.956
421.735
536.034
639.021
719.937
770.795
785.412
758.977
692.631
589.352
457.304
310.677
163.795
32.941
-68.9
-136.454
-169.843
-174.744
-160.079
-134.27
-104.075
-76.205
-55.226
-41.896
-35.873
-33.383
-29.778
-24.759
-19.259
-15.504
-16.775
-23.289
-33.412
-45.506
-57.251
-66.849
-73.863
-78.204
-79.976
-79.669
-77.812
-74.798
-71.296
-68.222
-66.051
-64.996
-65.147
-66.271
-68.13
-70.57
-73.26
-75.775
-77.874
-79.414
-80.339
-80.725
-80.598
-79.945
-78.811
-77.252
-75.308
-73.025
-70.416
-67.478
-64.237
-60.739
-57.036
-53.194
-49.253
-45.234
-41.156
-37.025
-32.849
-28.633
-24.367
-20.036
-15.632
-11.147
-6.575
-1.915
2.843
7.711
12.7
17.823
23.087
28.495
34.049
39.747
45.587
51.56
57.659
63.869
70.179
76.576
83.047
89.576
96.146
102.739
109.335
115.913
122.45
128.922
135.303
141.567
147.685
153.632
159.378
164.894
170.154
175.128
179.79
184.112
188.07
191.637
194.791
197.511
199.777
201.572
202.879
203.687
203.986
203.769
203.031
201.772
199.993
197.7
194.9
191.604
187.825
183.58
178.888
173.769
168.249
162.352
156.107
149.545
142.698
135.599
128.284
120.789
113.149
105.404
97.59
89.746
81.908
74.115
66.404
58.809
51.367
44.11
37.07
30.277
23.758
17.54
11.645
6.094
0.905
-3.906
-8.327
-12.347
-15.959
-19.158
-21.941
-24.307
-26.259
-27.802
-28.941
-29.686
-30.047
-30.037
-29.67
-28.961
-27.929
-26.591
-24.968
-23.08
-20.949
-18.598
-16.051
-13.332
-10.465
-7.474
-4.384
-1.22
1.994
5.236
8.482
11.71
14.899
18.029
21.081
24.035
26.876
29.586
32.151
34.555
36.787
38.834
40.685
42.33
43.76
44.967
45.943
46.682
47.179
47.43
47.431
47.18
46.676
45.919
44.909
43.649
42.142
40.393
38.405
36.186
33.74
31.077
28.203
25.128
21.86
18.409
14.785
10.998
7.06
2.982
-1.224
-5.547
-9.974
-14.493
-19.09
-23.753
-28.469
-33.223
-38.001
-42.79
-47.576
-52.344
-57.081
-61.772
-66.406
-70.969
-75.449
-79.834
-84.114
-88.279
-92.319
-96.224
-99.987
-103.601
-107.059
-110.354
-113.482
-116.439
-119.222
-121.826
-124.252
-126.496
-128.557
-130.436
-132.132
-133.646
-134.978
-136.129
-137.101
-137.899
-138.524
-138.981
-139.273
-139.404
-139.38
-139.206
-138.885
-138.422
-137.821
-137.087
-136.224
-135.238
-134.132
-132.91
-131.576
-130.135
-128.591
-126.947
-125.207
-123.373
-121.448
-119.435
-117.338
-115.16
-112.904
-110.575
-108.178
-105.722
-103.213
-100.66
-98.07
-95.452
-92.813
-90.16
-87.502
-84.84
-82.181
-79.53
-76.893
-74.28
-71.698
-69.153
-66.651
-64.198
-61.801
-59.466
-57.193
-54.979
-52.822
-50.728
-48.707
-46.78
-44.962
-43.261
-41.682
-40.23
-38.902
-37.695
-36.588
-35.545
-34.528
-33.507
-32.459
-31.376
-30.237
-29.003
-27.632
-26.068
-24.27
-22.222
-19.907
-17.31
-14.448
-11.349
-8.069
-4.719
-1.407
1.771
4.71
7.335
9.576
11.31
12.371
12.622
12.013
10.628
8.674
6.39
4.002
1.811
0.263
-0.198
0.618
2.522
4.975
7.157
8.289
7.762
4.727
-1.018
-8.452
-16.209
-22.361
-25.929
-28.199
-29.373
-27.356
-17.078
9.887
58.907
129.66
217.057
311.935
406.804
497.935
582.257
655.053
709.034
734.089
721.31
668.46
578.497
459.57
324.746
187.822
62.918
-37.599
-106.458
-143.604
-154.529
-146.05
-126.481
-102.051
-77.86
-62.09
-60.063
-73.293
-99.322
-129.456
-155.36
-172.836
-181.325
-184.287
-185.684
-186.804
-187.468
-186.608
-183.114
-177.573
-171.116
-164.599
-158.809
-153.952
-149.952
-146.891
-144.815
-143.579
-143.042
-143.077
-143.524
-144.325
-145.452
-146.809
-148.265
-149.693
-150.942
-151.857
-152.347
-152.337
-151.769
-150.621
-148.884
-146.567
-143.705
-140.35
-136.544
-132.333
-127.759
-122.861
-117.697
-112.332
-106.835
-101.276
-95.704
-90.149
-84.633
-79.171
-73.765
-68.415
-63.111
-57.833
-52.57
-47.319
-42.073
-36.835
-31.599
-26.36
-21.114
-15.857
-10.587
-5.308
-0.022
5.264
10.542
15.802
21.033
26.217
31.344
36.4
41.374
46.255
51.031
55.691
60.22
64.608
68.84
72.902
76.78
80.458
83.921
87.153
90.141
92.87
95.327
97.499
99.374
100.943
102.195
103.123
103.72
103.981
103.903
103.483
102.722
101.621
100.184
98.415
96.323
93.915
91.201
88.194
84.905
81.349
77.541
73.498
69.238
64.78
60.143
55.349
50.42
45.378
40.246
35.049
29.809
24.552
19.301
14.078
8.908
3.812
-1.188
-6.071
-10.817
-15.408
-19.827
-24.057
-28.085
-31.898
-35.483
-38.833
-41.937
-44.79
-47.388
-49.725
-51.801
-53.614
-55.167
-56.46
-57.498
-58.286
-58.831
-59.139
-59.22
-59.084
-58.74
-58.2
-57.478
-56.585
-55.534
-54.341
-53.018
-51.579
-50.04
-48.414
-46.714
-44.955
-43.149
-41.309
-39.447
-37.575
-35.703
-33.841
-31.999
-30.185
-28.407
-26.672
-24.986
-23.355
-21.782
-20.273
-18.829
-17.452
-16.145
-14.909
-13.742
-12.644
-11.615
-10.652
-9.753
-8.916
-8.137
-7.413
-6.741
-6.118
-5.538
-5
-4.5
-4.034
-3.598
-3.191
-2.808
-2.448
-2.108
-1.785
-1.478
-1.185
-0.904
-0.635
-0.375
-0.125
0.116
0.349
0.573
0.79
0.999
1.201
1.394
1.579
1.755
1.923
2.081
2.231
2.372
2.505
2.632
2.753
2.87
2.987
3.105
3.228
3.36
3.505
3.668
3.854
4.068
4.316
4.604
4.939
5.328
5.777
6.296
6.89
7.567
8.336
9.202
10.174
11.259
12.463
13.793
15.257
16.86
18.61
20.51
22.567
24.784
27.166
29.713
32.429
35.312
38.363
41.579
44.959
48.498
52.191
56.032
60.015
64.129
68.366
72.713
77.16
81.691
86.292
90.944
95.631
100.334
105.034
109.709
114.338
118.901
123.376
127.742
131.979
136.064
139.977
143.693
147.192
150.449
153.444
156.155
158.563
160.65
162.4
163.802
164.848
165.526
165.826
165.729
165.222
164.298
162.952
161.185
159.006
156.428
153.475
150.186
146.602
142.758
138.686
134.409
129.949
125.338
120.618
115.843
111.065
106.325
101.653
97.074
92.603
88.229
83.906
79.546
75.061
70.393
65.502
60.355
54.915
49.132
42.945
36.319
29.199
21.485
13.136
4.199
-5.182
-14.693
-23.932
-32.524
-40.024
-45.877
-49.717
-51.484
-51.407
-50.051
-48.209
-46.603
-45.925
-47.237
-50.712
-54.967
-58.467
-59.377
-57.223
-54.504
-52.266
-48.055
-36.399
-8.187
43.39
118.118
211.377
314.792
418.48
516.101
601.332
666.294
705.571
712.603
683.44
620.689
527.599
411.974
285.435
158.708
45.108
-43.767
-102.438
-129.769
-130.141
-113.109
-87.969
-62.989
-46.152
-39.878
-43.231
-53.475
-63.976
-71.134
-74.676
-75.418
-76.759
-80.171
-84.672
-89.094
-91.861
-92.476
-91.64
-90.04
-88.273
-86.779
-85.813
-85.617
-86.324
-87.878
-90.119
-92.845
-95.867
-99.003
-102.047
-104.78
-107.033
-108.681
-109.62
-109.786
-109.16
-107.741
-105.585
-102.799
-99.48
-95.731
-91.658
-87.365
-82.978
-78.657
-74.58
-70.905
-67.756
-65.224
-63.378
-62.266
-61.896
-62.233
-63.189
-64.632
-66.448
-68.547
-70.851
-73.29
-75.777
-78.198
-80.43
-82.376
-83.962
-85.135
-85.856
-86.087
-85.818
-85.074
-83.92
-82.447
-80.724
-78.791
-76.674
-74.393
-71.978
-69.468
-66.903
-64.299
-61.673
-59.037
-56.408
-53.806
-51.238
-48.696
-46.152
-43.575
-40.948
-38.267
-35.541
-32.778
-29.987
-27.182
-24.379
-21.606
-18.889
-16.246
-13.695
-11.248
-8.924
-6.742
-4.728
-2.903
-1.286
0.11
1.272
2.189
2.853
3.26
3.41
3.306
2.951
2.349
1.501
0.412
-0.911
-2.46
-4.228
-6.206
-8.381
-10.742
-13.274
-15.961
-18.788
-21.736
-24.791
-27.933
-31.146
-34.412
-37.714
-41.035
-44.358
-47.667
-50.947
-54.183
-57.362
-60.471
-63.497
-66.432
-69.265
-71.989
-74.597
-77.084
-79.445
-81.677
-83.778
-85.745
-87.579
-89.278
-90.844
-92.279
-93.585
-94.765
-95.824
-96.766
-97.597
-98.322
-98.948
-99.48
-99.925
-100.29
-100.581
-100.805
-100.967
-101.074
-101.133
-101.147
-101.123
-101.065
-100.976
-100.859
-100.719
-100.556
-100.371
-100.166
-99.941
-99.695
-99.427
-99.137
-98.822
-98.481
-98.111
-97.709
-97.272
-96.798
-96.283
-95.723
-95.116
-94.459
-93.749
-92.982
-92.158
-91.272
-90.324
-89.312
-88.235
-87.092
-85.884
-84.611
-83.275
-81.876
-80.418
-78.903
-77.336
-75.721
-74.063
-72.368
-70.642
-68.892
-67.126
-65.35
-63.573
-61.803
-60.048
-58.317
-56.617
-54.958
-53.345
-51.789
-50.294
-48.867
-47.515
-46.241
-45.05
-43.946
-42.93
-42.005
-41.169
-40.424
-39.766
-39.194
-38.704
-38.29
-37.947
-37.667
-37.441
-37.261
-37.116
-36.994
-36.884
-36.771
-36.642
-36.484
-36.282
-36.022
-35.687
-35.264
-34.737
-34.093
-33.317
-32.397
-31.319
-30.073
-28.648
-27.037
-25.23
-23.223
-21.011
-18.591
-15.962
-13.125
-10.082
-6.839
-3.4
0.226
4.027
7.991
12.105
16.353
20.715
25.172
29.699
34.273
38.869
43.461
48.022
52.525
56.942
61.248
65.418
69.427
73.251
76.861
80.233
83.344
86.171
88.696
90.898
92.761
94.271
95.425
96.218
96.646
96.703
96.372
95.647
94.53
93.024
91.138
88.891
86.3
83.401
80.245
76.88
73.352
69.699
65.944
62.121
58.276
54.458
50.732
47.151
43.743
40.554
37.618
34.934
32.488
30.224
28.046
25.9
23.742
21.511
19.176
16.679
13.948
10.961
7.655
3.911
-0.314
-5.007
-10.065
-15.149
-19.877
-23.926
-26.846
-28.138
-27.507
-24.874
-20.518
-15.207
-9.889
-5.428
-2.676
-2.656
-5.457
-9.775
-13.986
-15.676
-13.589
-9.561
-4.43
3.085
16.528
44.559
94.722
169.05
266.095
376.913
489.234
592.759
675.624
729.629
750.038
732.61
679.039
592.956
479.851
350.054
214.469
85.92
-22.528
-102.493
-151.294
-171.749
-171.424
-160.101
-145.129
-132.398
-125.348
-122.8
-122.774
-121.763
-116.08
-105.183
-90.591
-75.503
-62.892
-54.193
-49.12
-46.177
-44.907
-45.686
-48.734
-54.265
-61.579
-69.109
-76.025
-82.058
-86.841
-90.253
-92.23
-92.671
-92.035
-91.192
-90.619
-90.474
-90.769
-91.315
-92.003
-92.818
-93.573
-93.947
-93.746
-92.886
-91.395
-89.409
-87.018
-84.256
-81.174
-77.844
-74.334
-70.715
-67.045
-63.345
-59.626
-55.909
-52.208
-48.537
-44.906
-41.31
-37.729
-34.15
-30.567
-26.977
-23.385
-19.792
-16.193
-12.583
-8.958
-5.313
-1.65
2.033
5.738
9.465
13.213
16.974
20.739
24.498
28.246
31.977
35.683
39.357
42.992
46.579
50.11
53.576
56.966
60.266
63.465
66.548
69.502
72.316
74.975
77.467
79.78
81.9
83.817
85.52
86.996
88.237
89.231
89.972
90.45
90.661
90.598
90.257
89.637
88.737
87.558
86.101
84.371
82.371
80.109
77.593
74.832
71.835
68.615
65.184
61.556
57.746
53.771
49.646
45.388
41.017
36.549
32.003
27.398
22.752
18.085
13.413
8.756
4.131
-0.444
-4.952
-9.378
-13.705
-17.921
-22.012
-25.964
-29.769
-33.415
-36.894
-40.199
-43.324
-46.263
-49.012
-51.57
-53.933
-56.101
-58.076
-59.856
-61.446
-62.846
-64.062
-65.097
-65.955
-66.642
-67.163
-67.526
-67.736
-67.801
-67.728
-67.524
-67.198
-66.758
-66.211
-65.566
-64.83
-64.012
-63.12
-62.16
-61.141
-60.07
-58.953
-57.797
-56.608
-55.393
-54.156
-52.904
-51.641
-50.373
-49.104
-47.839
-46.583
-45.34
-44.114
-42.91
-41.732
-40.583
-39.469
-38.392
-37.357
-36.368
-35.426
-34.537
-33.703
-32.926
-32.209
-31.556
-30.967
-30.446
-29.994
-29.612
-29.303
-29.067
-28.907
-28.822
-28.813
-28.882
-29.027
-29.25
-29.55
-29.927
-30.38
-30.907
-31.507
-32.179
-32.92
-33.727
-34.597
-35.527
-36.512
-37.549
-38.633
-39.76
-40.924
-42.12
-43.343
-44.588
-45.849
-47.122
-48.4
-49.678
-50.951
-52.214
-53.462
-54.689
-55.891
-57.061
-58.196
-59.291
-60.341
-61.342
-62.29
-63.181
-64.012
-64.78
-65.482
-66.116
-66.678
-67.168
-67.584
-67.928
-68.197
-68.394
-68.518
-68.573
-68.56
-68.483
-68.346
-68.151
-67.903
-67.607
-67.268
-66.892
-66.484
-66.05
-65.598
-65.137
-64.678
-64.23
-63.803
-63.407
-63.053
-62.751
-62.512
-62.342
-62.248
-62.237
-62.319
-62.503
-62.799
-63.214
-63.754
-64.424
-65.233
-66.185
-67.283
-68.52
-69.896
-71.409
-73.065
-74.876
-76.852
-78.991
-81.294
-83.756
-86.37
-89.129
-92.011
-94.977
-97.994
-101.027
-104.05
-107.051
-110.001
-112.867
-115.607
-118.165
-120.504
-122.607
-124.446
-126.013
-127.321
-128.393
-129.284
-130.085
-130.867
-131.715
-132.723
-133.971
-135.546
-137.526
-139.999
-143.101
-146.913
-151.419
-156.486
-161.845
-167.188
-172.276
-176.816
-180.394
-182.698
-183.599
-183.367
-182.669
-182.117
-182.23
-183.449
-186.162
-190.872
-197.334
-203.653
-207.51
-206.693
-200.11
-189.543
-176.559
-160.138
-137.536
-103.117
-51.071
19.056
104.434
199.201
293.627
380.351
452.486
501.739
522.677
509.467
457.779
369.414
249.035
106.412
-42.212
-180.403
-292.532
-367.086
-403.812
-409.129
-391.885
-362.944
-328.183
-291.029
-257.323
-230.826
-214.31
-208.372
-208.052
-208.247
-206.608
-202.432
-197.846
-195.367
-194.681
-194.858
-194.762
-192.684
-188.354
-182.304
-174.976
-167.355
-160.529
-154.976
-150.937
-148.592
-147.767
-148.208
-149.713
-151.869
-154.164
-156.247
-157.87
-158.863
-159.202
-158.877
-157.836
-156.066
-153.555
-150.26
-146.179
-141.337
-135.773
-129.583
-122.87
-115.722
-108.245
-100.545
-92.699
-84.765
-76.77
-68.712
-60.598
-52.45
-44.293
-36.159
-28.068
-20.023
-12.018
-4.03
3.957
11.961
20.003
28.107
36.285
44.54
52.862
61.23
69.625
78.036
86.451
94.863
103.262
111.635
119.969
128.251
136.468
144.603
152.641
160.562
168.35
175.988
183.463
190.764
197.876
204.787
211.483
217.949
224.17
230.134
235.825
241.229
246.331
251.118
255.578
259.702
263.479
266.9
269.96
272.651
274.969
276.91
278.474
279.659
280.467
280.9
280.96
280.654
279.987
278.968
277.606
275.91
273.895
271.572
268.957
266.066
262.916
259.527
255.917
252.107
248.117
243.969
239.686
235.29
230.804
226.251
221.653
217.033
212.413
207.814
203.256
198.758
194.339
190.016
185.805
181.721
177.777
173.986
170.359
166.905
163.632
160.547
157.655
154.961
152.467
150.174
148.081
146.188
144.49
142.983
141.663
140.522
139.553
138.747
138.095
137.586
137.21
136.956
136.812
136.767
136.808
136.924
137.104
137.335
137.609
137.913
138.24
138.579
138.924
139.265
139.597
139.914
140.21
140.481
140.723
140.934
141.111
141.254
141.361
141.434
141.473
141.479
141.456
141.405
141.33
141.234
141.122
140.996
140.863
140.725
140.588
140.455
140.332
140.22
140.125
140.049
139.994
139.961
139.953
139.97
140.012
140.078
140.166
140.276
140.404
140.548
140.704
140.868
141.035
141.201
141.362
141.51
141.641
141.749
141.829
141.875
141.881
141.842
141.753
141.608
141.403
141.132
140.793
140.382
139.894
139.329
138.685
137.96
137.156
136.273
135.312
134.276
133.168
131.991
130.749
129.447
128.091
126.686
125.239
123.757
122.247
120.716
119.171
117.621
116.071
114.529
113.001
111.494
110.012
108.561
107.145
105.771
104.441
103.158
101.924
100.744
99.616
98.541
97.516
96.538
95.601
94.701
93.831
92.985
92.154
91.332
90.513
89.692
88.863
88.02
87.154
86.256
85.319
84.336
83.3
82.202
81.036
79.796
78.482
77.095
75.635
74.098
72.476
70.758
68.935
67.004
64.964
62.812
60.554
58.198
55.766
53.291
50.803
48.327
45.886
43.5
41.194
38.999
36.944
35.061
33.38
31.924
30.699
29.708
28.929
28.327
27.865
27.468
27.057
26.545
25.837
24.858
23.554
21.852
19.656
16.898
13.565
9.749
5.662
1.516
-2.504
-6.176
-9.211
-11.316
-12.362
-12.572
-12.402
-12.316
-12.794
-14.281
-17.308
-22.584
-29.784
-37.016
-42.411
-44.029
-41.615
-38.061
-34.494
-29.617
-19.849
2.932
44.829
106.549
185.737
274.104
361.496
440.356
501.964
539.151
545.768
514.854
444.664
338.538
205.703
62.703
-72.787
-185.409
-264.514
-308.101
-320.809
-309.241
-281.674
-245.813
-207.369
-173.693
-150.712
-140.158
-141.427
-149.451
-158.029
-164.841
-169.232
-172.81
-178.397
-185.82
-194.028
-201.863
-207.284
-209.738
-209.792
-207.921
-205.15
-202.562
-200.516
-199.233
-198.995
-199.76
-201.447
-203.974
-206.975
-210.001
-212.78
-215.123
-216.916
-218.167
-218.859
-218.959
-218.496
-217.515
-216.054
-214.153
-211.822
-209.054
-205.861
-202.271
-198.331
-194.099
-189.637
-184.988
-180.179
-175.232
-170.166
-164.993
-159.726
-154.367
-148.91
-143.351
-137.694
-131.945
-126.111
-120.195
-114.194
-108.103
-101.921
-95.649
-89.294
-82.864
-76.367
-69.812
-63.214
-56.587
-49.95
-43.32
-36.713
-30.143
-23.625
-17.177
-10.816
-4.56
1.575
7.57
13.408
19.071
24.538
29.793
34.817
39.594
44.107
48.34
52.279
55.908
59.214
62.186
64.811
67.08
68.983
70.513
71.665
72.434
72.818
72.815
72.427
71.656
70.507
68.986
67.102
64.863
62.281
59.369
56.141
52.612
48.799
44.719
40.393
35.839
31.078
26.133
21.024
15.775
10.408
4.945
-0.59
-6.175
-11.788
-17.406
-23.009
-28.575
-34.083
-39.515
-44.852
-50.077
-55.172
-60.124
-64.918
-69.542
-73.985
-78.238
-82.293
-86.142
-89.782
-93.207
-96.417
-99.41
-102.186
-104.748
-107.096
-109.236
-111.172
-112.909
-114.454
-115.814
-116.997
-118.012
-118.866
-119.57
-120.133
-120.564
-120.874
-121.073
-121.171
-121.178
-121.103
-120.958
-120.75
-120.49
-120.186
-119.847
-119.479
-119.09
-118.686
-118.273
-117.856
-117.439
-117.025
-116.618
-116.22
-115.832
-115.455
-115.089
-114.735
-114.39
-114.054
-113.725
-113.402
-113.081
-112.76
-112.436
-112.106
-111.767
-111.415
-111.047
-110.66
-110.249
-109.812
-109.344
-108.843
-108.305
-107.727
-107.106
-106.44
-105.727
-104.966
-104.155
-103.294
-102.382
-101.419
-100.406
-99.345
-98.238
-97.086
-95.892
-94.66
-93.393
-92.095
-90.771
-89.424
-88.059
-86.681
-85.294
-83.903
-82.513
-81.129
-79.754
-78.395
-77.056
-75.741
-74.454
-73.2
-71.982
-70.804
-69.668
-68.577
-67.533
-66.536
-65.588
-64.69
-63.842
-63.043
-62.291
-61.585
-60.921
-60.298
-59.711
-59.156
-58.628
-58.122
-57.633
-57.155
-56.685
-56.215
-55.74
-55.256
-54.758
-54.24
-53.7
-53.131
-52.531
-51.895
-51.222
-50.509
-49.756
-48.961
-48.126
-47.254
-46.348
-45.413
-44.452
-43.472
-42.479
-41.479
-40.48
-39.487
-38.508
-37.55
-36.62
-35.73
-34.893
-34.116
-33.411
-32.787
-32.252
-31.818
-31.491
-31.271
-31.159
-31.158
-31.275
-31.525
-31.917
-32.454
-33.135
-33.959
-34.918
-36.001
-37.189
-38.443
-39.731
-41.024
-42.301
-43.553
-44.765
-45.906
-46.94
-47.825
-48.528
-49.036
-49.329
-49.38
-49.194
-48.796
-48.245
-47.632
-47.01
-46.418
-45.899
-45.487
-45.237
-45.209
-45.435
-45.98
-46.942
-48.346
-50.194
-52.427
-54.78
-56.95
-58.651
-59.438
-58.874
-56.756
-52.958
-47.61
-41.375
-35.011
-29.228
-25.081
-23.053
-22.467
-22.647
-22.497
-21.636
-22.024
-24.462
-27.157
-25.112
-9.282
27.466
86.47
163.619
249.818
336.244
417.91
492.13
556.808
607.61
637.396
638.194
604.031
534.468
434.183
312.931
185.365
66.225
-32.105
-100.823
-138.642
-150.188
-140.581
-116.748
-86.149
-53.963
-27.989
-15.874
-19.477
-37.775
-65.537
-92.936
-113.146
-123.13
-121.759
-113.299
-103.261
-94.433
-89.377
-87.649
-86.57
-85.215
-83.016
-80.194
-78.077
-77.092
-77.126
-78.082
-79.65
-81.672
-84.173
-87.093
-90.338
-93.827
-97.464
-101.099
-104.559
-107.701
-110.419
-112.649
-114.371
-115.562
-116.204
-116.314
-115.93
-115.089
-113.83
-112.177
-110.148
-107.778
-105.118
-102.224
-99.158
-95.963
-92.664
-89.279
-85.819
-82.288
-78.687
-75.002
-71.213
-67.307
-63.277
-59.122
-54.841
-50.431
-45.886
-41.205
-36.383
-31.424
-26.331
-21.11
-15.768
-10.317
-4.772
0.852
6.536
12.26
18.01
23.767
29.513
35.231
40.903
46.511
52.037
57.461
62.764
67.926
72.927
77.749
82.372
86.778
90.949
94.868
98.519
101.889
104.963
107.729
110.176
112.295
114.079
115.521
116.619
117.368
117.77
117.825
117.537
116.911
115.955
114.677
113.089
111.203
109.031
106.591
103.897
100.968
97.821
94.476
90.955
87.277
83.464
79.539
75.524
71.441
67.314
63.164
59.014
54.884
50.797
46.771
42.827
38.983
35.256
31.662
28.216
24.932
21.821
18.894
16.16
13.625
11.295
9.174
7.264
5.567
4.08
2.803
1.731
0.86
0.185
-0.302
-0.608
-0.742
-0.713
-0.531
-0.207
0.248
0.823
1.505
2.284
3.146
4.081
5.075
6.118
7.197
8.301
9.421
10.544
11.662
12.766
13.848
14.9
15.916
16.891
17.82
18.699
19.526
20.299
21.017
21.68
22.288
22.843
23.345
23.798
24.205
24.567
24.89
25.177
25.431
25.657
25.859
26.041
26.209
26.365
26.516
26.664
26.815
26.972
27.139
27.321
27.519
27.738
27.979
28.245
28.538
28.857
29.205
29.579
29.981
30.409
30.861
31.334
31.827
32.337
32.86
33.392
33.931
34.471
35.01
35.543
36.066
36.577
37.07
37.542
37.99
38.411
38.801
39.156
39.475
39.753
39.987
40.175
40.315
40.405
40.441
40.424
40.352
40.226
40.044
39.808
39.518
39.175
38.782
38.34
37.853
37.324
36.755
36.15
35.514
34.85
34.163
33.457
32.735
32.001
31.258
30.512
29.764
29.019
28.277
27.544
26.821
26.112
25.418
24.743
24.088
23.453
22.841
22.25
21.679
21.124
20.581
20.047
19.518
18.988
18.453
17.907
17.348
16.773
16.178
15.558
14.906
14.215
13.481
12.699
11.865
10.974
10.021
9.007
7.937
6.813
5.636
4.401
3.092
1.699
0.217
-1.354
-3.01
-4.746
-6.551
-8.403
-10.263
-12.093
-13.857
-15.529
-17.099
-18.542
-19.825
-20.905
-21.722
-22.234
-22.422
-22.262
-21.745
-20.888
-19.72
-18.308
-16.754
-15.145
-13.568
-12.104
-10.815
-9.779
-9.063
-8.775
-9.085
-10.073
-11.741
-14.014
-16.646
-19.351
-21.884
-23.82
-24.604
-23.928
-21.642
-17.875
-13.364
-8.895
-5.112
-2.988
-2.998
-4.465
-6.582
-8.036
-7.996
-8.094
-9.381
-10.396
-6.532
11.291
51.084
114.782
198.417
292.713
388.145
479.707
564.85
640.394
700.957
737.269
739.781
704.58
632.999
532.592
415.958
295.704
184.624
93.107
26.619
-14.451
-34.068
-37.685
-31.733
-20.197
-6.995
1.72
3.306
-3.951
-18.532
-33.44
-44.834
-51.196
-52.803
-53.58
-55.199
-56.99
-58.322
-57.774
-54.928
-50.678
-45.762
-40.791
-36.306
-32.629
-29.937
-28.359
-27.893
-28.384
-29.7
-31.745
-34.372
-37.442
-40.851
-44.464
-48.151
-51.773
-55.156
-58.166
-60.72
-62.76
-64.254
-65.179
-65.52
-65.3
-64.567
-63.364
-61.734
-59.711
-57.324
-54.617
-51.649
-48.482
-45.184
-41.8
-38.357
-34.875
-31.366
-27.837
-24.289
-20.707
-17.07
-13.367
-9.59
-5.736
-1.806
2.205
6.303
10.492
14.774
19.149
23.611
28.157
32.78
37.47
42.213
46.994
51.795
56.601
61.396
66.163
70.887
75.552
80.141
84.635
89.019
93.274
97.38
101.318
105.069
108.614
111.933
115.01
117.826
120.366
122.616
124.561
126.189
127.49
128.454
129.074
129.343
129.257
128.815
128.014
126.857
125.347
123.488
121.287
118.753
115.895
112.726
109.259
105.509
101.493
97.227
92.732
88.026
83.131
78.068
72.861
67.532
62.104
56.601
51.046
45.462
39.871
34.295
28.755
23.271
17.862
12.544
7.336
2.252
-2.694
-7.489
-12.122
-16.584
-20.865
-24.959
-28.86
-32.564
-36.069
-39.373
-42.476
-45.38
-48.086
-50.598
-52.922
-55.063
-57.027
-58.822
-60.456
-61.937
-63.275
-64.479
-65.558
-66.523
-67.382
-68.146
-68.823
-69.423
-69.955
-70.425
-70.843
-71.216
-71.55
-71.852
-72.129
-72.386
-72.629
-72.862
-73.09
-73.317
-73.547
-73.782
-74.027
-74.283
-74.553
-74.838
-75.14
-75.46
-75.8
-76.159
-76.539
-76.939
-77.361
-77.803
-78.266
-78.751
-79.256
-79.783
-80.331
-80.9
-81.491
-82.103
-82.737
-83.393
-84.072
-84.772
-85.495
-86.239
-87.005
-87.791
-88.596
-89.42
-90.259
-91.113
-91.98
-92.855
-93.738
-94.624
-95.51
-96.392
-97.267
-98.13
-98.977
-99.803
-100.602
-101.369
-102.099
-102.786
-103.425
-104.01
-104.534
-104.992
-105.379
-105.687
-105.912
-106.047
-106.086
-106.023
-105.853
-105.57
-105.17
-104.648
-104.001
-103.224
-102.317
-101.276
-100.099
-98.786
-97.336
-95.748
-94.023
-92.162
-90.166
-88.036
-85.777
-83.393
-80.887
-78.266
-75.534
-72.698
-69.766
-66.743
-63.638
-60.459
-57.213
-53.911
-50.561
-47.174
-43.763
-40.34
-36.918
-33.51
-30.13
-26.79
-23.503
-20.28
-17.131
-14.064
-11.087
-8.21
-5.44
-2.787
-0.261
2.13
4.376
6.47
8.408
10.185
11.801
13.258
14.561
15.711
16.707
17.54
18.202
18.692
19.009
19.161
19.158
19.016
18.753
18.402
17.997
17.569
17.146
16.743
16.364
16.019
15.722
15.507
15.404
15.429
15.575
15.825
16.161
16.557
16.982
17.376
17.654
17.729
17.529
17.011
16.167
15.01
13.517
11.582
9.162
6.323
3.218
0.123
-2.724
-5.195
