Name
Date of Birth,"Mar 27, 1959"
Recorded Date,2022-09-12 19:04:49 -0500
Classification,Sinus Rhythm
Symptoms,
Software Version,1.90
Device,"Watch4,2"
Sample Rate,510.227 hertz


Lead,Lead I
Unit,µV

30.649
34.355
37.703
40.671
43.251
45.441
47.251
48.699
49.794
50.539
50.939
50.999
50.731
50.155
49.292
48.165
46.796
45.206
43.412
41.429
39.271
36.95
34.478
31.863
29.122
26.269
23.323
20.302
17.225
14.109
10.972
7.832
4.704
1.605
-1.454
-4.458
-7.396
-10.255
-13.024
-15.692
-18.25
-20.689
-22.999
-25.172
-27.201
-29.081
-30.804
-32.368
-33.769
-35.002
-36.065
-36.957
-37.676
-38.222
-38.594
-38.792
-38.816
-38.669
-38.354
-37.874
-37.234
-36.438
-35.494
-34.408
-33.189
-31.845
-30.384
-28.816
-27.15
-25.396
-23.567
-21.674
-19.731
-17.752
-15.756
-13.761
-11.787
-9.853
-7.979
-6.187
-4.497
-2.928
-1.497
-0.219
0.89
1.815
2.539
3.043
3.318
3.35
3.13
2.65
1.901
0.881
-0.405
-1.951
-3.754
-5.815
-8.146
-10.759
-13.653
-16.827
-20.274
-23.982
-27.936
-32.107
-36.445
-40.892
-45.39
-49.881
-54.327
-58.678
-62.867
-66.816
-70.433
-73.63
-76.347
-78.541
-80.167
-81.201
-81.654
-81.571
-81.042
-80.189
-79.125
-77.984
-76.921
-76.093
-75.648
-75.779
-76.714
-78.618
-81.544
-85.356
-89.677
-94.102
-98.281
-101.762
-103.969
-104.443
-102.943
-99.775
-96.014
-92.74
-90.69
-90.705
-93.563
-99.758
-109.765
-121.629
-130.572
-132.573
-123.846
-104.443
-79.245
-48.594
-10.169
42.712
123.032
234.713
375.497
538.173
704.922
862.032
995.112
1087.18
1129.231
1112.44
1036.873
912.656
749.095
561.874
365.671
174.081
7.371
-120.879
-203.886
-241.383
-245.949
-229.968
-202.848
-173.975
-146.389
-122.698
-104.659
-89.253
-75.147
-61.269
-48.409
-40.929
-40.652
-47.817
-60.828
-75.616
-89.66
-101.274
-109.076
-113.148
-113.706
-110.966
-105.866
-99.38
-92.394
-86.11
-81.414
-78.633
-77.912
-79.086
-81.749
-85.568
-90.108
-94.779
-99.153
-102.951
-106.003
-108.321
-109.936
-110.835
-111.059
-110.669
-109.709
-108.243
-106.307
-103.915
-101.105
-97.929
-94.456
-90.773
-86.959
-83.082
-79.193
-75.323
-71.49
-67.709
-63.98
-60.297
-56.649
-53.016
-49.382
-45.737
-42.066
-38.358
-34.596
-30.758
-26.829
-22.793
-18.641
-14.366
-9.964
-5.433
-0.774
4.01
8.913
13.927
19.046
24.261
29.566
34.952
40.408
45.923
51.483
57.073
62.68
68.284
73.868
79.409
84.886
90.277
95.558
100.705
105.693
110.499
115.096
119.46
123.567
127.392
130.914
134.108
136.956
139.435
141.529
143.22
144.494
145.337
145.74
145.692
145.188
144.222
142.794
140.901
138.548
135.738
132.479
128.779
124.65
120.107
115.166
109.845
104.166
98.151
91.824
85.212
78.342
71.242
63.942
56.471
48.86
41.141
33.345
25.504
17.647
9.807
2.014
-5.704
-13.318
-20.8
-28.124
-35.265
-42.199
-48.906
-55.363
-61.553
-67.458
-73.063
-78.354
-83.322
-87.956
-92.249
-96.196
-99.794
-103.042
-105.942
-108.494
-110.704
-112.578
-114.123
-115.347
-116.261
-116.876
-117.204
-117.258
-117.054
-116.604
-115.926
-115.033
-113.943
-112.672
-111.236
-109.651
-107.935
-106.102
-104.17
-102.155
-100.071
-97.935
-95.759
-93.559
-91.347
-89.135
-86.935
-84.756
-82.61
-80.503
-78.445
-76.442
-74.502
-72.629
-70.828
-69.104
-67.461
-65.9
-64.425
-63.037
-61.737
-60.526
-59.405
-58.374
-57.432
-56.58
-55.816
-55.139
-54.547
-54.038
-53.61
-53.259
-52.982
-52.777
-52.64
-52.568
-52.556
-52.602
-52.701
-52.85
-53.045
-53.281
-53.554
-53.859
-54.191
-54.545
-54.917
-55.3
-55.69
-56.082
-56.469
-56.847
-57.209
-57.548
-57.858
-58.132
-58.362
-58.542
-58.664
-58.721
-58.707
-58.615
-58.439
-58.173
-57.811
-57.347
-56.777
-56.095
-55.297
-54.377
-53.332
-52.16
-50.859
-49.427
-47.866
-46.175
-44.355
-42.408
-40.336
-38.144
-35.835
-33.416
-30.892
-28.272
-25.566
-22.783
-19.937
-17.042
-14.112
-11.164
-8.213
-5.281
-2.387
0.445
3.193
5.836
8.355
10.731
12.943
14.975
16.809
18.43
19.823
20.974
21.867
22.484
22.812
22.847
22.594
22.062
21.259
20.183
18.827
17.187
15.261
13.05
10.552
7.767
4.705
1.39
-2.121
-5.76
-9.472
-13.214
-16.975
-20.763
-24.55
-28.272
-31.846
-35.168
-38.171
-40.834
-43.087
-44.84
-46.112
-47.007
-47.803
-48.932
-50.616
-52.85
-55.618
-58.854
-62.426
-66.225
-69.858
-72.654
-74.391
-75.214
-75.343
-75.133
-74.801
-74.348
-74.052
-74.408
-75.396
-76.787
-78.477
-80.311
-82.385
-85.197
-89.11
-94.347
-101.696
-110.369
-117.066
-118.943
-112.974
-99.059
-82.623
-65.618
-45.221
-13.96
43.916
139.619
274.53
444.284
632.819
820.949
992.406
1127.646
1212.082
1235.229
1190.129
1081.29
918.771
718.781
501.579
286.254
92.832
-63.494
-172.738
-232.147
-247.395
-227.483
-186.191
-137.07
-92.966
-64.544
-53.196
-54.711
-59.478
-58.223
-49.77
-37.842
-29.133
-28.412
-35.356
-47.05
-59.851
-71.579
-81.283
-88.36
-92.806
-94.698
-94.302
-92.294
-89.22
-85.494
-81.871
-79.201
-77.97
-78.378
-80.309
-83.404
-87.362
-91.927
-96.696
-101.169
-105.008
-108.026
-110.169
-111.509
-112.083
-111.898
-111.003
-109.482
-107.408
-104.848
-101.846
-98.425
-94.642
-90.575
-86.311
-81.943
-77.535
-73.123
-68.737
-64.392
-60.095
-55.847
-51.639
-47.454
-43.278
-39.103
-34.921
-30.726
-26.506
-22.245
-17.927
-13.534
-9.054
-4.479
0.198
4.981
9.872
14.869
19.971
25.172
30.469
35.859
41.341
46.91
52.562
58.29
64.088
69.946
75.854
81.801
87.771
93.75
99.721
105.666
111.567
117.403
123.156
128.802
134.32
139.689
144.886
149.889
154.676
159.225
163.517
167.531
171.249
174.653
177.725
180.451
182.817
184.811
186.421
187.64
188.46
188.875
188.883
188.483
187.674
186.46
184.843
182.831
180.431
177.655
174.514
171.022
167.195
163.05
158.605
153.881
148.899
143.679
138.246
132.62
126.825
120.882
114.81
108.628
102.357
96.012
89.611
83.171
76.707
70.237
63.778
57.348
50.963
44.638
38.384
32.211
26.13
20.152
14.287
8.544
2.93
-2.547
-7.872
-13.033
-18.026
-22.85
-27.524
-32.065
-36.478
-40.772
-44.945
-48.992
-52.908
-56.673
-60.243
-63.572
-66.616
-69.333
-71.706
-73.71
-75.301
-76.427
-77.014
-76.999
-76.35
-75.049
-73.096
-70.513
-67.35
-63.695
-59.692
-55.505
-51.303
-47.258
-43.529
-40.283
-37.683
-35.929
-35.289
-35.93
-37.873
-40.966
-44.8
-48.913
-52.898
-56.19
-58.053
-57.958
-55.615
-51.255
-45.901
-40.649
-36.387
-34.084
-34.565
-38.247
-45.175
-54.243
-62.748
-67.531
-65.366
-52.617
-25.823
18.081
82.21
166.562
266.504
376.825
491.595
607.9
730.282
859.981
990.801
1109.199
1188.417
1203.701
1144.689
1011.859
823.113
605.877
384.725
184.508
24.129
-86.763
-146.913
-163.142
-146.106
-109.727
-63.447
-16.284
19.567
40.614
45.142
36.242
26.236
20.146
18.566
19.919
17.117
7.918
-5.173
-19.471
-31.229
-38.521
-41.823
-41.762
-39.127
-34.89
-30.057
-25.739
-22.732
-21.512
-22.207
-24.69
-28.833
-34.371
-40.851
-47.734
-54.573
-61.045
-66.937
-72.171
-76.676
-80.395
-83.332
-85.515
-86.975
-87.744
-87.856
-87.324
-86.18
-84.474
-82.255
-79.601
-76.591
-73.307
-69.828
-66.216
-62.509
-58.738
-54.925
-51.078
-47.202
-43.29
-39.325
-35.3
-31.208
-27.044
-22.805
-18.481
-14.061
-9.538
-4.907
-0.166
4.683
9.637
14.69
19.833
25.054
30.338
35.668
41.029
46.407
51.787
57.153
62.489
67.777
73.002
78.146
83.19
88.115
92.901
97.526
101.97
106.212
110.232
114.01
117.527
120.762
123.699
126.321
128.611
130.556
132.141
133.356
134.191
134.638
134.69
134.345
133.6
132.457
130.918
128.988
126.676
123.989
120.94
117.542
113.812
109.765
105.421
100.802
95.928
90.824
85.516
80.029
74.391
68.628
62.769
56.842
50.876
44.898
38.935
33.016
27.165
21.409
15.771
10.275
4.943
-0.204
-5.15
-9.876
-14.367
-18.609
-22.593
-26.307
-29.745
-32.9
-35.771
-38.353
-40.649
-42.661
-44.391
-45.848
-47.036
-47.966
-48.648
-49.093
-49.314
-49.323
-49.136
-48.766
-48.229
-47.541
-46.717
-45.773
-44.725
-43.588
-42.379
-41.113
-39.804
-38.466
-37.114
-35.76
-34.417
-33.097
-31.811
-30.57
-29.383
-28.258
-27.203
-26.224
-25.328
-24.519
-23.8
-23.174
-22.642
-22.207
-21.867
-21.623
-21.473
-21.415
-21.448
-21.569
-21.775
-22.064
-22.431
-22.874
-23.389
-23.973
-24.621
-25.33
-26.098
-26.919
-27.79
-28.708
-29.669
-30.669
-31.704
-32.771
-33.865
-34.984
-36.124
-37.281
-38.453
-39.636
-40.829
-42.028
-43.231
-44.437
-45.643
-46.848
-48.051
-49.248
-50.44
-51.624
-52.798
-53.962
-55.112
-56.249
-57.369
-58.47
-59.552
-60.61
-61.644
-62.651
-63.63
-64.577
-65.492
-66.373
-67.217
-68.025
-68.794
-69.524
-70.213
-70.861
-71.466
-72.029
-72.549
-73.024
-73.454
-73.838
-74.177
-74.469
-74.715
-74.914
-75.067
-75.173
-75.232
-75.246
-75.215
-75.139
-75.021
-74.861
-74.662
-74.425
-74.153
-73.847
-73.51
-73.145
-72.753
-72.339
-71.904
-71.45
-70.982
-70.501
-70.01
-69.513
-69.012
-68.51
-68.011
-67.517
-67.031
-66.558
-66.1
-65.661
-65.244
-64.852
-64.49
-64.159
-63.864
-63.607
-63.39
-63.217
-63.09
-63.01
-62.978
-62.997
-63.067
-63.189
-63.363
-63.589
-63.866
-64.193
-64.57
-64.995
-65.464
-65.977
-66.53
-67.119
-67.741
-68.392
-69.067
-69.762
-70.47
-71.187
-71.906
-72.62
-73.322
-74.006
-74.662
-75.282
-75.86
-76.386
-76.853
-77.252
-77.576
-77.816
-77.966
-78.018
-77.965
-77.799
-77.516
-77.108
-76.572
-75.902
-75.095
-74.149
-73.06
-71.829
-70.456
-68.941
-67.287
-65.495
-63.569
-61.514
-59.336
-57.042
-54.641
-52.142
-49.557
-46.902
-44.191
-41.444
-38.676
-35.908
-33.16
-30.451
-27.803
-25.234
-22.762
-20.406
-18.184
-16.115
-14.222
-12.523
-11.035
-9.773
-8.75
-7.977
-7.466
-7.218
-7.236
-7.523
-8.082
-8.924
-10.064
-11.507
-13.26
-15.321
-17.68
-20.317
-23.209
-26.308
-29.566
-32.936
-36.362
-39.804
-43.213
-46.529
-49.702
-52.657
-55.32
-57.644
-59.55
-60.969
-61.897
-62.336
-62.345
-62.057
-61.518
-60.778
-60.057
-59.538
-59.441
-60.033
-61.306
-63.243
-66.144
-70.208
-75.289
-81.137
-87.045
-92.18
-96.425
-99.587
-100.953
-100.04
-96.783
-91.661
-86.212
-82.05
-79.799
-80.048
-83.768
-91.85
-103.506
-115.311
-122.814
-121.378
-110.778
-95.559
-76.555
-50.887
-9.509
62.255
170.456
311.893
476.268
646.914
812.181
964.527
1094.41
1190.761
1237.941
1221.562
1138.106
994.235
806.873
598.127
388.517
196.866
37.238
-80.788
-155.027
-189.758
-190.947
-170.171
-136.648
-99.73
-73.111
-61.358
-65.361
-80.578
-93.897
-99.779
-98.022
-91.374
-87.61
-89.561
-95.577
-103.952
-111.566
-116.654
-119.493
-120.063
-118.552
-115.517
-111.421
-106.7
-101.946
-97.847
-94.808
-93.191
-93.236
-94.807
-97.666
-101.573
-106.146
-110.921
-115.56
-119.759
-123.268
-126.025
-127.987
-129.122
-129.471
-129.088
-128.015
-126.311
-124.032
-121.213
-117.912
-114.197
-110.134
-105.812
-101.319
-96.73
-92.125
-87.556
-83.054
-78.637
-74.313
-70.076
-65.921
-61.833
-57.79
-53.777
-49.779
-45.78
-41.768
-37.724
-33.629
-29.466
-25.219
-20.877
-16.432
-11.879
-7.213
-2.435
2.456
7.456
12.559
17.761
23.061
28.453
33.934
39.496
45.133
50.836
56.596
62.401
68.237
74.091
79.944
85.781
91.583
97.332
103.009
108.593
114.065
119.404
124.589
129.601
134.418
139.02
143.388
147.503
151.346
154.9
158.15
161.08
163.678
165.931
167.828
169.361
170.521
171.302
171.699
171.709
171.331
170.565
169.412
167.877
165.966
163.685
161.045
158.054
154.725
151.071
147.107
142.847
138.309
133.509
128.467
123.201
117.731
112.079
106.265
100.31
94.236
88.065
81.817
75.514
69.177
62.826
56.481
50.162
43.889
37.679
31.551
25.521
19.605
13.818
8.176
2.691
-2.625
-7.759
-12.702
-17.443
-21.975
-26.288
-30.378
-34.237
-37.861
-41.247
-44.392
-47.294
-49.953
-52.369
-54.542
-56.476
-58.173
-59.637
-60.871
-61.88
-62.67
-63.247
-63.617
-63.787
-63.763
-63.552
-63.163
-62.602
-61.878
-60.999
-59.973
-58.809
-57.516
-56.103
-54.579
-52.953
-51.235
-49.436
-47.564
-45.631
-43.645
-41.618
-39.559
-37.479
-35.387
-33.295
-31.211
-29.146
-27.108
-25.108
-23.153
-21.254
-19.419
-17.655
-15.973
-14.378
-12.881
-11.487
-10.206
-9.042
-8.004
-7.096
-6.323
-5.691
-5.203
-4.862
-4.67
-4.629
-4.738
-4.998
-5.408
-5.963
-6.662
-7.498
-8.466
-9.559
-10.769
-12.087
-13.502
-15.005
-16.584
-18.228
-19.924
-21.658
-23.417
-25.187
-26.953
-28.699
-30.41
-32.07
-33.663
-35.172
-36.583
-37.881
-39.052
-40.081
-40.956
-41.663
-42.192
-42.531
-42.671
-42.604
-42.322
-41.819
-41.093
-40.142
-38.965
-37.565
-35.946
-34.113
-32.074
-29.838
-27.416
-24.819
-22.061
-19.158
-16.128
-12.988
-9.759
-6.464
-3.128
0.223
3.562
6.86
10.091
13.225
16.233
19.089
21.768
24.248
26.505
28.518
30.261
31.712
32.854
33.669
34.142
34.262
34.017
33.403
32.426
31.091
29.403
27.363
24.963
22.198
19.068
15.579
11.741
7.57
3.086
-1.677
-6.661
-11.81
-17.062
-22.361
-27.665
-32.927
-38.085
-43.068
-47.786
-52.157
-56.111
-59.588
-62.536
-64.922
-66.741
-68.026
-68.856
-69.323
-69.539
-69.617
-69.68
-69.875
-70.349
-71.275
-72.878
-75.326
-78.685
-82.888
-87.653
-92.566
-97.172
-100.917
-103.153
-103.377
-101.319
-97.184
-91.858
-86.556
-82.649
-81.461
-83.93
-90.84
-102.606
-118.204
-135.373
-150.041
-155.905
-148.663
-125.797
-86.1
-32.886
33.558
116.496
217.325
341.189
488.561
650.001
815.478
967.208
1083.82
1151.926
1157.949
1096.441
974.147
798.725
587.106
361.497
141.863
-48.809
-193.633
-285.405
-323.072
-313.188
-268.664
-204.282
-136.628
-83.628
-53.782
-46.929
-55.835
-65.606
-68.554
-64.614
-57.334
-55.167
-61.281
-73.227
-87.877
-100.531
-108.585
-112.347
-112.28
-109.111
-103.895
-97.458
-90.707
-84.842
-80.657
-78.392
-78.148
-79.803
-83.011
-87.448
-92.677
-98.082
-103.229
-107.854
-111.781
-114.988
-117.482
-119.233
-120.263
-120.635
-120.394
-119.599
-118.295
-116.497
-114.243
-111.589
-108.609
-105.394
-102.032
-98.602
-95.162
-91.747
-88.385
-85.092
-81.875
-78.73
-75.646
-72.601
-69.578
-66.568
-63.559
-60.54
-57.493
-54.398
-51.237
-47.994
-44.657
-41.219
-37.673
-34.016
-30.245
-26.362
-22.372
-18.281
-14.094
-9.814
-5.447
-0.996
3.53
8.124
12.776
17.479
22.219
26.983
31.757
36.525
41.269
45.973
50.617
55.184
59.654
64.008
68.225
72.288
76.176
79.871
83.353
86.604
89.608
92.347
94.807
96.972
98.832
100.373
101.587
102.465
103
103.186
103.02
102.5
101.624
100.394
98.813
96.885
94.616
92.014
89.089
85.854
82.319
78.499
74.41
70.067
65.488
60.691
55.694
50.517
45.18
39.703
34.107
28.411
22.638
16.805
10.935
5.045
-0.844
-6.715
-12.549
-18.33
-24.04
-29.665
-35.188
-40.596
-45.876
-51.017
-56.006
-60.833
-65.491
-69.97
-74.264
-78.366
-82.271
-85.976
-89.476
-92.769
-95.854
-98.729
-101.395
-103.852
-106.102
-108.146
-109.986
-111.627
-113.071
-114.321
-115.383
-116.259
-116.956
-117.477
-117.828
-118.015
-118.043
-117.917
-117.644
-117.23
-116.679
-115.997
-115.191
-114.266
-113.227
-112.081
-110.833
-109.49
-108.056
-106.539
-104.944
-103.278
-101.547
-99.757
-97.915
-96.027
-94.1
-92.14
-90.154
-88.149
-86.133
-84.111
-82.091
-80.08
-78.085
-76.113
-74.17
-72.264
-70.4
-68.586
-66.828
-65.131
-63.502
-61.948
-60.472
-59.081
-57.78
-56.572
-55.463
-54.454
-53.548
-52.747
-52.052
-51.463
-50.979
-50.599
-50.32
-50.14
-50.055
-50.061
-50.151
-50.32
-50.56
-50.865
-51.225
-51.632
-52.075
-52.544
-53.029
-53.518
-54.001
-54.467
-54.903
-55.299
-55.641
-55.92
-56.124
-56.242
-56.263
-56.177
-55.974
-55.647
-55.188
-54.592
-53.853
-52.969
-51.937
-50.757
-49.43
-47.958
-46.344
-44.594
-42.713
-40.711
-38.597
-36.381
-34.078
-31.702
-29.272
-26.808
-24.332
-21.863
-19.426
-17.042
-14.737
-12.532
-10.446
-8.498
-6.708
-5.096
-3.683
-2.49
-1.534
-0.83
-0.394
-0.236
-0.369
-0.797
-1.517
-2.525
-3.821
-5.408
-7.305
-9.522
-12.058
-14.914
-18.079
-21.536
-25.268
-29.234
-33.375
-37.628
-41.931
-46.23
-50.486
-54.65
-58.657
-62.431
-65.881
-68.925
-71.505
-73.566
-75.072
-76.019
-76.43
-76.373
-75.951
-75.277
-74.474
-73.683
-73.036
-72.661
-72.664
-73.183
-74.439
-76.61
-79.733
-83.635
-87.93
-92.196
-96.075
-99.143
-100.743
-100.251
-97.417
-92.717
-87.16
-81.757
-77.475
-75.128
-75.691
-80.509
-88.691
-96.387
-100.08
-96.225
-85.315
-72.843
-58.613
-37.43
0.864
70.226
174.496
307.758
458.497
613.011
762.578
899.011
1012.318
1088.177
1108.643
1065.641
960.249
802.631
615.025
417.049
227.311
66.458
-55.459
-133.727
-169.697
-176.647
-165.729
-145.491
-124.543
-104.642
-88.504
-78.104
-69.502
-60.735
-49.355
-34.943
-23.014
-16.644
-16.727
-22.702
-31.027
-39.666
-48.401
-56.625
-63.605
-68.868
-72.071
-73.359
-73.419
-72.708
-71.347
-69.799
-68.896
-69.144
-70.778
-73.789
-77.791
-82.477
-87.656
-92.958
-97.932
-102.285
-105.834
-108.525
-110.437
-111.61
-112.065
-111.869
-111.098
-109.817
-108.08
-105.918
-103.359
-100.458
-97.293
-93.949
-90.489
-86.953
-83.367
-79.742
-76.089
-72.41
-68.691
-64.91
-61.057
-57.122
-53.104
-49
-44.802
-40.495
-36.067
-31.507
-26.801
-21.946
-16.936
-11.769
-6.448
-0.98
4.627
10.362
16.216
22.179
28.244
34.399
40.635
46.938
53.296
59.695
66.118
72.546
78.96
85.34
91.664
97.911
104.058
110.081
115.958
121.665
127.178
132.475
137.53
142.321
146.825
151.02
154.885
158.398
161.542
164.297
166.648
168.58
170.081
171.141
171.749
171.9
171.589
170.813
169.571
167.865
165.699
163.078
160.01
156.505
152.576
148.236
143.502
138.392
132.924
127.121
121.004
114.597
107.925
101.013
93.887
86.576
79.106
71.506
63.804
56.028
48.207
40.369
32.541
24.75
17.022
9.382
1.853
-5.54
-12.777
-19.836
-26.699
-33.348
-39.765
-45.937
-51.848
-57.487
-62.843
-67.907
-72.671
-77.127
-81.271
-85.1
-88.611
-91.804
-94.678
-97.236
-99.48
-101.415
-103.045
-104.377
-105.419
-106.178
-106.663
-106.885
-106.852
-106.576
-106.069
-105.34
-104.404
-103.27
-101.952
-100.462
-98.811
-97.013
-95.079
-93.021
-90.853
-88.586
-86.232
-83.804
-81.314
-78.773
-76.194
-73.587
-70.963
-68.334
-65.709
-63.097
-60.509
-57.954
-55.438
-52.972
-50.561
-48.214
-45.936
-43.733
-41.611
-39.575
-37.629
-35.777
-34.022
-32.368
-30.819
-29.375
-28.039
-26.812
-25.697
-24.691
-23.796
-23.01
-22.331
-21.756
-21.282
-20.906
-20.623
-20.428
-20.316
-20.282
-20.32
-20.424
-20.586
-20.8
-21.06
-21.357
-21.685
-22.034
-22.398
-22.768
-23.138
-23.498
-23.843
-24.163
-24.451
-24.7
-24.901
-25.049
-25.134
-25.152
-25.094
-24.956
-24.733
-24.422
-24.02
-23.525
-22.936
-22.251
-21.472
-20.601
-19.639
-18.59
-17.457
-16.246
-14.963
-13.616
-12.212
-10.763
-9.281
-7.776
-6.263
-4.758
-3.277
-1.84
-0.466
0.83
2.033
3.128
4.101
4.936
5.62
6.144
6.499
6.675
6.661
6.443
6.011
5.367
4.521
3.483
2.262
0.854
-0.754
-2.569
-4.593
-6.826
-9.274
-11.946
-14.843
-17.947
-21.208
-24.558
-27.947
-31.338
-34.725
-38.116
-41.476
-44.733
-47.792
-50.542
-52.922
-54.923
-56.483
-57.508
-58.008
-58.053
-57.908
-58.039
-58.703
-59.927
-61.696
-63.901
-66.425
-69.296
-72.207
-74.403
-75.432
-75.111
-73.509
-71.151
-68.376
-65.089
-61.564
-58.615
-57.042
-57.75
-61.18
-67.187
-75.968
-87.952
-103.457
-121.334
-138.241
-150.639
-155.561
-152.82
-146.296
-137.707
-124.117
-98.288
-47.445
37.975
157.691
306.012
470.997
637.745
796.318
933.517
1034.146
1087.973
1084.434
1023.343
914.11
764.776
589.138
400.544
212.801
47.667
-77.49
-153.248
-181.408
-177.371
-158.937
-140.179
-126.228
-115.502
-105.246
-91.294
-74.144
-56.006
-37.76
-23.812
-16.51
-15.595
-21.304
-31.238
-42.774
-55.082
-67.11
-77.735
-86.231
-92.036
-94.924
-95.313
-93.961
-91.394
-88.238
-85.471
-83.778
-83.506
-84.841
-87.583
-91.362
-95.917
-100.838
-105.556
-109.716
-113.107
-115.61
-117.287
-118.186
-118.306
-117.716
-116.513
-114.755
-112.501
-109.785
-106.607
-103.018
-99.093
-94.914
-90.578
-86.149
-81.663
-77.154
-72.641
-68.136
-63.65
-59.173
-54.69
-50.197
-45.691
-41.173
-36.644
-32.098
-27.523
-22.906
-18.235
-13.5
-8.698
-3.825
1.121
6.139
11.224
16.37
21.57
26.817
32.107
37.434
42.793
48.179
53.581
58.992
64.402
69.8
75.173
80.507
85.786
90.994
96.117
101.135
106.031
110.787
115.386
119.807
124.033
128.047
131.829
135.363
138.631
141.618
144.309
146.688
148.743
150.46
151.831
152.844
153.494
153.773
153.677
153.204
152.353
151.125
149.523
147.551
145.216
142.525
139.49
136.123
132.436
128.446
124.169
119.623
114.827
109.803
104.57
99.149
93.564
87.835
81.985
76.037
70.013
63.934
57.824
51.704
45.595
39.518
33.493
27.539
21.675
15.919
10.286
4.793
-0.547
-5.721
-10.716
-15.523
-20.131
-24.534
-28.724
-32.695
-36.445
-39.97
-43.269
-46.341
-49.188
-51.81
-54.209
-56.39
-58.354
-60.107
-61.653
-62.997
-64.145
-65.102
-65.877
-66.475
-66.904
-67.173
-67.289
-67.262
-67.101
-66.815
-66.413
-65.905
-65.3
-64.609
-63.841
-63.006
-62.114
-61.174
-60.195
-59.186
-58.156
-57.113
-56.065
-55.02
-53.985
-52.967
-51.974
-51.012
-50.09
-49.213
-48.389
-47.624
-46.923
-46.293
-45.739
-45.265
-44.876
-44.575
-44.364
-44.247
-44.223
-44.293
-44.457
-44.712
-45.056
-45.486
-45.997
-46.584
-47.242
-47.964
-48.743
-49.573
-50.445
-51.351
-52.283
-53.231
-54.187
-55.14
-56.08
-56.995
-57.873
-58.704
-59.476
-60.177
-60.795
-61.317
-61.733
-62.032
-62.201
-62.232
-62.114
-61.839
-61.399
-60.787
-59.999
-59.031
-57.882
-56.55
-55.037
-53.345
-51.478
-49.442
-47.242
-44.886
-42.382
-39.741
-36.974
-34.093
-31.115
-28.054
-24.933
-21.771
-18.592
-15.418
-12.275
-9.187
-6.179
-3.276
-0.498
2.133
4.594
6.864
8.918
10.735
12.297
13.585
14.585
15.283
15.667
15.73
15.475
14.901
14.007
12.784
11.213
9.28
6.98
4.317
1.294
-2.077
-5.781
-9.783
-14.024
-18.442
-22.977
-27.573
-32.191
-36.782
-41.274
-45.585
-49.615
-53.275
-56.508
-59.271
-61.519
-63.238
-64.437
-65.166
-65.555
-65.752
-65.893
-66.137
-66.616
-67.444
-68.8
-70.9
-73.904
-77.931
-82.922
-88.585
-94.629
-100.772
-106.589
-111.568
-115.199
-117.012
-117.007
-115.875
-114.372
-113.147
-113.053
-114.917
-119.367
-127.218
-137.556
-146.736
-151.312
-148.05
-135.802
-118.084
-96.879
-69.661
-30.394
32.306
128.265
257.188
411.948
579.471
742.958
891.935
1018.447
1112.574
1166.091
1167.211
1104.784
977.247
790.1
560.362
316.087
86.122
-101.147
-227.024
-289.074
-293.846
-259.615
-207.904
-154.634
-115.703
-95.914
-90.846
-94.185
-93.14
-81.838
-63.174
-42.275
-28.049
-24.564
-30.157
-41.969
-55.877
-69.477
-81.706
-91.307
-97.792
-101.038
-101.167
-98.871
-94.791
-89.479
-83.917
-79.222
-76.093
-74.863
-75.488
-77.632
-80.98
-85.24
-89.928
-94.456
-98.431
-101.641
-104.027
-105.669
-106.605
-106.84
-106.428
-105.46
-104.007
-102.12
-99.83
-97.139
-94.092
-90.766
-87.247
-83.625
-79.966
-76.301
-72.658
-69.05
-65.483
-61.954
-58.453
-54.958
-51.454
-47.934
-44.387
-40.81
-37.19
-33.509
-29.75
-25.894
-21.927
-17.842
-13.631
-9.293
-4.827
-0.237
4.473
9.293
14.217
19.238
24.351
29.549
34.823
40.163
45.557
50.994
56.458
61.934
67.403
72.846
78.243
83.574
88.816
93.948
98.949
103.795
108.466
112.938
117.192
121.205
124.958
128.43
131.605
134.463
136.99
139.169
140.989
142.438
143.507
144.188
144.475
144.363
143.852
142.939
141.628
139.921
137.824
135.345
132.494
129.283
125.726
121.84
117.642
113.152
108.391
103.38
98.141
92.7
87.078
81.3
75.39
69.374
63.276
57.12
50.931
44.732
38.546
32.397
26.306
20.294
14.38
8.584
2.924
-2.584
-7.924
-13.082
-18.045
-22.8
-27.338
-31.651
-35.731
-39.574
-43.177
-46.537
-49.656
-52.533
-55.173
-57.578
-59.753
-61.704
-63.439
-64.963
-66.286
-67.416
-68.363
-69.137
-69.749
-70.208
-70.527
-70.716
-70.788
-70.754
-70.625
-70.412
-70.128
-69.788
-69.404
-68.99
-68.556
-68.111
-67.67
-67.25
-66.851
-66.473
-66.119
-65.786
-65.49
-65.256
-65.076
-64.938
-64.884
-64.944
-65.145
-65.522
-66.05
-66.674
-67.427
-68.366
-69.343
-70.184
-70.992
-71.757
-72.444
-73.426
-73.689
-72.247
-70.499
-68.868
-69.927
-76.758
-85.936
-95.176
-101.076
-98.968
-92.967
-86.557
-82.127
-83.623
-88.21
-93.011
-97.38
-99.563
-100.564
-101.682
-102.658
-103.651
-104.566
-105.131
-105.512
-105.841
-106.064
-106.165
-106.153
-106.018
-105.746
-105.324
-104.724
-103.911
-102.895
-101.686
-100.279
-98.677
-96.88
-94.89
-92.716
-90.367
-87.849
-85.169
-82.334
-79.355
-76.245
-73.014
-69.678
-66.253
-62.754
-59.203
-55.621
-52.03
-48.454
-44.917
-41.442
-38.054
-34.776
-31.629
-28.635
-25.815
-23.19
-20.786
-18.623
-16.721
-15.097
-13.768
-12.746
-12.046
-11.675
-11.631
-11.914
-12.526
-13.476
-14.782
-16.458
-18.506
-20.922
-23.701
-26.832
-30.299
-34.072
-38.091
-42.296
-46.627
-51.033
-55.473
-59.901
-64.243
-68.411
-72.311
-75.852
-78.982
-81.664
-83.842
-85.492
-86.616
-87.254
-87.518
-87.545
-87.45
-87.366
-87.425
-87.737
-88.48
-89.879
-92.094
-95.237
-99.258
-103.872
-108.803
-113.795
-118.46
-122.308
-124.852
-125.651
-124.707
-122.706
-120.398
-118.398
-117.509
-118.506
-122.037
-128.928
-138.107
-146.028
-149.587
-145.65
-134.488
-120.27
-102.607
-77.887
-36.389
35.854
141.359
275.143
424.45
571.439
711.832
844.614
966.318
1071.566
1138.583
1145.262
1082.481
950.725
769.174
564.2
357.147
167.829
9.564
-109.103
-183.306
-214.183
-208.921
-181.352
-145.228
-114.062
-97.27
-94.49
-101.544
-109.5
-109.523
-99.835
-82.92
-65.176
-52.379
-45.995
-44.62
-45.298
-46.731
-49.444
-54.117
-61.074
-69.314
-77.276
-84.311
-90.298
-95.071
-98.5
-100.424
-100.863
-100.519
-100.36
-100.87
-102.153
-104.112
-106.5
-109.153
-111.963
-114.629
-116.734
-118.039
-118.449
-117.99
-116.811
-115.01
-112.63
-109.741
-106.428
-102.767
-98.835
-94.7
-90.406
-86.015
-81.581
-77.145
-72.743
-68.397
-64.113
-59.888
-55.708
-51.551
-47.407
-43.274
-39.15
-35.035
-30.922
-26.798
-22.654
-18.48
-14.265
-10.002
-5.679
-1.289
3.171
7.7
12.293
16.946
21.655
26.419
31.234
36.098
41.007
45.953
50.932
55.937
60.957
65.982
70.996
75.987
80.938
85.835
90.66
95.397
100.028
104.534
108.898
113.101
117.125
120.951
124.56
127.935
131.057
133.911
136.479
138.747
140.702
142.33
143.621
144.566
145.156
145.387
145.254
144.754
143.887
142.654
141.059
139.107
136.804
134.159
131.183
127.889
124.29
120.402
116.241
111.826
107.176
102.309
97.247
92.012
86.624
81.106
75.481
69.77
63.998
58.185
52.356
46.53
40.73
34.976
29.289
23.686
18.186
12.807
7.563
2.469
-2.462
-7.217
-11.786
-16.16
-20.329
-24.288
-28.031
-31.554
-34.853
-37.928
-40.777
-43.401
-45.802
-47.982
-49.944
-51.694
-53.237
-54.577
-55.722
-56.679
-57.455
-58.06
-58.5
-58.786
-58.927
-58.933
-58.813
-58.577
-58.235
-57.797
-57.272
-56.67
-56.001
-55.274
-54.498
-53.681
-52.832
-51.96
-51.073
-50.177
-49.28
-48.389
-47.51
-46.649
-45.811
-45.003
-44.227
-43.49
-42.796
-42.148
-41.551
-41.007
-40.519
-40.09
-39.722
-39.415
-39.172
-38.994
-38.879
-38.829
-38.844
-38.922
-39.062
-39.262
-39.52
-39.833
-40.197
-40.609
-41.065
-41.559
-42.086
-42.641
-43.219
-43.813
-44.418
-45.027
-45.632
-46.228
-46.805
-47.357
-47.874
-48.348
-48.771
-49.134
-49.429
-49.648
-49.781
-49.822
-49.762
-49.594
-49.311
-48.905
-48.371
-47.703
-46.896
-45.946
-44.853
-43.613
-42.228
-40.698
-39.026
-37.216
-35.273
-33.201
-31.008
-28.703
-26.293
-23.79
-21.205
-18.553
-15.849
-13.112
-10.363
-7.622
-4.913
-2.258
0.318
2.792
5.141
7.345
9.385
11.24
12.888
14.308
15.48
16.385
17.007
17.333
17.349
17.045
16.415
15.466
14.199
12.614
10.704
8.452
5.844
2.88
-0.442
-4.118
-8.138
-12.486
-17.13
-22.014
-27.078
-32.263
-37.518
-42.804
-48.071
-53.251
-58.259
-62.995
-67.367
-71.308
-74.761
-77.676
-80.029
-81.82
-83.082
-83.914
-84.437
-84.774
-85.058
-85.402
-85.904
-86.709
-88.033
-90.093
-93.027
-96.791
-101.137
-105.764
-110.367
-114.564
-117.822
-119.546
-119.278
-117.118
-113.785
-110.145
-107.291
-106.414
-108.468
-114.634
-124.898
-136.74
-147.224
-153.295
-153.679
-151.233
-146.876
-136.829
-113.293
-63.25
22.539
143.103
292.171
457.997
627.733
793.882
944.155
1062.203
1133.058
1140.088
1079.842
961.309
796.399
604.591
401.363
200.193
19.512
-125.716
-222.865
-266.007
-260.126
-218.839
-159.922
-101.595
-61.327
-45.449
-51.483
-71.432
-89.94
-99.455
-100.811
-97.613
-97.9
-104.765
-115.534
-127.086
-135.828
-140.19
-140.563
-137.531
-131.938
-124.663
-116.796
-109.519
-103.468
-98.948
-96.182
-95.171
-95.888
-98.212
-101.685
-105.755
-110.072
-114.367
-118.448
-122.199
-125.443
-128.029
-129.925
-131.143
-131.703
-131.631
-130.928
-129.595
-127.682
-125.247
-122.354
-119.077
-115.475
-111.618
-107.58
-103.435
-99.256
-95.097
-90.989
-86.95
-82.986
-79.093
-75.265
-71.486
-67.732
-63.983
-60.221
-56.426
-52.587
-48.689
-44.717
-40.657
-36.498
-32.23
-27.847
-23.347
-18.729
-13.995
-9.15
-4.2
0.845
5.976
11.185
16.461
21.796
27.177
32.592
38.029
43.471
48.904
54.308
59.665
64.955
70.156
75.248
80.207
85.013
89.644
94.078
98.294
102.273
105.994
109.439
112.59
115.432
117.949
120.127
121.956
123.425
124.526
125.254
125.604
125.572
125.16
124.367
123.198
121.657
119.753
117.493
114.89
111.955
108.705
105.156
101.327
97.237
92.906
88.357
83.613
78.696
73.63
68.438
63.143
57.768
52.337
46.871
41.391
35.917
30.47
25.066
19.723
14.454
9.269
4.18
-0.805
-5.679
-10.436
-15.071
-19.581
-23.961
-28.207
-32.316
-36.288
-40.125
-43.834
-47.418
-50.883
-54.235
-57.477
-60.62
-63.668
-66.618
-69.47
-72.224
-74.886
-77.475
-80.01
-82.5
-84.952
-87.372
-89.756
-92.101
-94.39
-96.585
-98.647
-100.542
-102.238
-103.724
-104.986
-105.991
-106.697
-107.044
-106.973
-106.46
-105.478
-103.994
-102.015
-99.573
-96.741
-93.654
-90.425
-87.142
-83.913
-80.837
-78.026
-75.622
-73.718
-72.431
-71.961
-72.416
-73.805
-75.985
-78.532
-80.956
-82.828
-83.605
-82.663
-79.553
-74.088
-66.744
-58.668
-51.021
-44.961
-41.577
-41.778
-46.639
-55.693
-65.639
-72.489
-71.789
-61.381
-44.864
-24.79
-0.534
31.552
83.908
168.34
288.808
445.173
625.088
808.102
975.4
1104.667
1177.78
1184.66
1118.233
981.7
787.111
553.557
309.936
85.915
-92.283
-207.596
-259.901
-257.93
-217.621
-159.241
-96.706
-44.468
-13.779
-4.652
-14.476
-33.37
-48.015
-54.902
-54.554
-51.521
-53.899
-63.409
-77.913
-94.551
-108.674
-117.98
-122.747
-123.344
-120.626
-115.617
-108.92
-101.278
-93.806
-87.337
-82.266
-78.85
-77.064
-76.654
-77.404
-78.995
-80.95
-82.924
-84.719
-86.168
-87.198
-87.799
-87.954
-87.723
-87.228
-86.521
-85.587
-84.372
-82.815
-80.904
-78.671
-76.157
-73.39
-70.401
-67.225
-63.921
-60.561
-57.183
-53.779
-50.301
-46.682
-42.891
-38.946
-34.894
-30.767
-26.575
-22.321
-18.005
-13.648
-9.265
-4.853
-0.389
4.152
8.779
13.48
18.218
22.959
27.685
32.4
37.12
41.853
46.595
51.345
56.102
60.875
65.663
70.451
75.212
79.917
84.545
89.081
93.511
97.82
101.986
105.987
109.797
113.395
116.757
119.862
122.684
125.199
127.387
129.233
130.725
131.854
132.609
132.984
132.97
132.564
131.766
130.574
128.99
127.016
124.657
121.923
118.824
115.373
111.585
107.476
103.064
98.369
93.413
88.22
82.813
77.219
71.463
65.574
59.579
53.506
47.384
41.24
35.103
28.999
22.956
16.998
11.15
5.434
-0.127
-5.514
-10.709
-15.694
-20.456
-24.98
-29.256
-33.272
-37.021
-40.498
-43.697
-46.616
-49.254
-51.612
-53.693
-55.501
-57.04
-58.318
-59.344
-60.125
-60.674
-61
-61.116
-61.035
-60.771
-60.337
-59.748
-59.017
-58.16
-57.191
-56.123
-54.972
-53.75
-52.47
-51.146
-49.789
-48.412
-47.025
-45.639
-44.263
-42.907
-41.579
-40.286
-39.036
-37.835
-36.687
-35.599
-34.574
-33.616
-32.727
-31.911
-31.169
-30.502
-29.91
-29.395
-28.956
-28.592
-28.303
-28.088
-27.945
-27.872
-27.869
-27.934
-28.063
-28.256
-28.509
-28.821
-29.189
-29.611
-30.082
-30.602
-31.167
-31.775
-32.423
-33.107
-33.826
-34.576
-35.355
-36.16
-36.988
-37.836
-38.702
-39.583
-40.476
-41.38
-42.291
-43.207
-44.125
-45.043
-45.959
-46.869
-47.771
-48.663
-49.541
-50.404
-51.248
-52.072
-52.873
-53.65
-54.4
-55.121
-55.813
-56.474
-57.103
-57.699
-58.26
-58.787
-59.279
-59.734
-60.155
-60.539
-60.887
-61.2
-61.476
-61.717
-61.923
-62.093
-62.229
-62.33
-62.397
-62.432
-62.435
-62.409
-62.353
-62.271
-62.164
-62.035
-61.885
-61.718
-61.535
-61.338
-61.131
-60.916
-60.695
-60.47
-60.245
-60.02
-59.8
-59.585
-59.378
-59.182
-58.999
-58.831
-58.68
-58.548
-58.439
-58.355
-58.297
-58.27
-58.275
-58.314
-58.391
-58.506
-58.662
-58.859
-59.099
-59.38
-59.702
-60.065
-60.467
-60.906
-61.379
-61.883
-62.415
-62.972
-63.549
-64.141
-64.744
-65.351
-65.957
-66.557
-67.142
-67.707
-68.244
-68.745
-69.202
-69.609
-69.956
-70.235
-70.437
-70.553
-70.573
-70.489
-70.292
-69.973
-69.524
-68.938
-68.209
-67.332
-66.302
-65.115
-63.771
-62.268
-60.606
-58.787
-56.814
-54.69
-52.421
-50.014
-47.478
-44.822
-42.057
-39.196
-36.256
-33.252
-30.203
-27.129
-24.048
-20.984
-17.958
-14.993
-12.11
-9.33
-6.675
-4.166
-1.825
0.325
2.262
3.966
5.418
6.601
7.499
8.1
8.397
8.389
8.073
7.442
6.485
5.189
3.549
1.566
-0.761
-3.421
-6.398
-9.664
-13.171
-16.864
-20.69
-24.597
-28.543
-32.491
-36.388
-40.166
-43.749
-47.062
-50.042
-52.641
-54.809
-56.511
-57.759
-58.626
-59.227
-59.685
-60.113
-60.582
-61.185
-62.062
-63.292
-64.905
-66.979
-69.635
-72.985
-77.194
-82.257
-87.823
-93.636
-99.621
-105.203
-109.488
-111.9
-111.552
-109.018
-107.151
-106.414
-105.863
-103.617
-94.075
-77.258
-59.235
-45.482
-45.648
-63.218
-90.502
-118.928
-133.15
-117.316
-65.234
26.036
150.821
295.744
450.111
605.024
755.228
897.861
1024.152
1119.754
1166.815
1149.54
1063.674
915.143
719.422
498.88
275.684
72.168
-93.104
-209.217
-275.258
-298.192
-287.458
-255.87
-211.761
-163.512
-124.136
-98.155
-86.943
-86.321
-82.97
-71.583
-53.178
-31.681
-16.061
-9.944
-11.739
-19.75
-31.149
-44.068
-57.809
-71.08
-82.462
-91.267
-97.436
-100.971
-101.972
-100.807
-98.042
-94.65
-91.839
-90.228
-89.875
-90.697
-92.411
-94.716
-97.383
-100.018
-102.142
-103.52
-104.077
-103.843
-102.965
-101.542
-99.611
-97.25
-94.539
-91.531
-88.286
-84.851
-81.261
-77.578
-73.856
-70.135
-66.451
-62.823
-59.259
-55.761
-52.312
-48.894
-45.499
-42.122
-38.761
-35.417
-32.078
-28.73
-25.358
-21.946
-18.477
-14.937
-11.307
-7.576
-3.736
0.22
4.291
8.476
12.778
17.2
21.744
26.411
31.201
36.113
41.144
46.292
51.55
56.91
62.36
67.889
73.484
79.13
84.814
90.519
96.226
101.917
107.574
113.175
118.701
124.128
129.434
134.596
139.591
144.397
148.991
153.349
157.451
161.275
164.802
168.013
170.891
173.421
175.586
177.375
178.776
179.781
180.381
180.571
180.347
179.708
178.654
177.188
175.314
173.039
170.371
167.32
163.899
160.119
155.997
151.548
146.79
141.743
136.427
130.862
125.072
119.079
112.907
106.58
100.124
93.562
86.921
80.224
73.497
66.764
60.049
53.374
46.763
40.237
33.816
27.519
21.367
15.375
9.56
3.937
-1.481
-6.683
-11.657
-16.394
-20.888
-25.131
-29.119
-32.849
-36.317
-39.524
-42.47
-45.155
-47.584
-49.759
-51.687
-53.374
-54.826
-56.052
-57.062
-57.865
-58.471
-58.891
-59.138
-59.222
-59.157
-58.953
-58.623
-58.181
-57.638
-57.006
-56.298
-55.525
-54.7
-53.832
-52.933
-52.012
-51.08
-50.144
-49.214
-48.298
-47.404
-46.537
-45.706
-44.916
-44.173
-43.482
-42.846
-42.269
-41.755
-41.306
-40.923
-40.609
-40.363
-40.188
-40.082
-40.045
-40.077
-40.176
-40.342
-40.572
-40.864
-41.215
-41.624
-42.088
-42.603
-43.167
-43.777
-44.43
-45.122
-45.85
-46.611
-47.4
-48.213
-49.047
-49.896
-50.755
-51.62
-52.486
-53.348
-54.2
-55.037
-55.855
-56.647
-57.408
-58.132
-58.812
-59.444
-60.019
-60.533
-60.978
-61.351
-61.644
-61.851
-61.968
-61.989
-61.91
-61.724
-61.428
-61.017
-60.487
-59.834
-59.056
-58.152
-57.12
-55.959
-54.672
-53.26
-51.726
-50.074
-48.308
-46.433
-44.456
-42.385
-40.227
-37.994
-35.695
-33.343
-30.956
-28.551
-26.144
-23.755
-21.404
-19.112
-16.898
-14.783
-12.783
-10.914
-9.195
-7.641
-6.273
-5.108
-4.163
-3.453
-2.99
-2.786
-2.853
-3.196
-3.812
-4.698
-5.854
-7.284
-9.003
-11.024
-13.351
-15.985
-18.922
-22.151
-25.659
-29.416
-33.369
-37.463
-41.64
-45.846
-50.043
-54.186
-58.213
-62.054
-65.618
-68.826
-71.614
-73.93
-75.73
-76.992
-77.724
-77.976
-77.84
-77.427
-76.858
-76.264
-75.797
-75.615
-75.85
-76.669
-78.302
-80.906
-84.561
-89.176
-94.368
-99.698
-104.808
-109.211
-112.279
-113.528
-112.609
-109.709
-105.923
-102.412
-100.011
-99.717
-102.525
-109.093
-119.882
-133.071
-143.96
-148.296
-143.297
-129.473
-109.543
-82.701
-42.692
20.735
114.978
239.517
384.494
534.382
678.531
811.279
929.215
1027.86
1094.916
1113.913
1072.134
965.829
800.747
593.872
369.885
152.727
-31.447
-162.881
-237.098
-256.59
-235.578
-195.516
-151.098
-116.47
-99.618
-97.736
-106.681
-117.336
-121.007
-116.972
-107.735
-99.222
-96.671
-99.975
-106.365
-112.309
-115.525
-115.94
-114.457
-111.747
-107.742
-102.553
-96.726
-90.915
-86.009
-82.449
-80.16
-79.199
-79.688
-81.554
-84.657
-88.67
-93.007
-97.273
-101.25
-104.702
-107.517
-109.621
-110.916
-111.406
-111.171
-110.263
-108.741
-106.666
-104.053
-100.945
-97.405
-93.492
-89.293
-84.898
-80.385
-75.834
-71.304
-66.826
-62.426
-58.114
-53.886
-49.732
-45.633
-41.563
-37.509
-33.459
-29.399
-25.32
-21.202
-17.026
-12.777
-8.441
-4.008
0.528
5.171
9.924
14.782
19.741
24.791
29.923
35.127
40.396
45.72
51.09
56.496
61.924
67.363
72.8
78.219
83.604
88.936
94.196
99.364
104.42
109.342
114.111
118.704
123.1
127.28
131.222
134.906
138.312
141.422
144.218
146.683
148.802
150.562
151.951
152.959
153.579
153.805
153.634
153.064
152.095
150.729
148.969
146.823
144.296
141.399
138.143
134.54
130.605
126.354
121.807
116.981
111.898
106.578
101.044
95.319
89.426
83.39
77.234
70.983
64.662
58.295
51.908
45.522
39.163
32.851
26.608
20.455
14.41
8.49
2.713
-2.908
-8.358
-13.626
-18.699
-23.569
-28.228
-32.668
-36.884
-40.872
-44.629
-48.153
-51.443
-54.502
-57.328
-59.926
-62.299
-64.45
-66.384
-68.107
-69.626
-70.947
-72.077
-73.026
-73.8
-74.41
-74.864
-75.171
-75.34
-75.38
-75.3
-75.107
-74.812
-74.42
-73.94
-73.38
-72.746
-72.045
-71.284
-70.468
-69.603
-68.695
-67.748
-66.768
-65.76
-64.728
-63.677
-62.612
-61.537
-60.456
-59.375
-58.297
-57.227
-56.17
-55.129
-54.108
-53.112
-52.143
-51.207
-50.306
-49.444
-48.626
-47.855
-47.135
-46.469
-45.862
-45.316
-44.837
-44.426
-44.088
-43.825
-43.641
-43.538
-43.519
-43.585
-43.738
-43.979
-44.308
-44.725
-45.227
-45.815
-46.484
-47.232
-48.053
-48.944
-49.899
-50.913
-51.978
-53.088
-54.235
-55.41
-56.606
-57.812
-59.018
-60.214
-61.388
-62.53
-63.628
-64.671
-65.647
-66.544
-67.351
-68.057
-68.65
-69.12
-69.456
-69.648
-69.687
-69.565
-69.274
-68.809
-68.164
-67.336
-66.322
-65.122
-63.735
-62.165
-60.413
-58.483
-56.382
-54.116
-51.694
-49.126
-46.423
-43.6
-40.675
-37.667
-34.596
-31.484
-28.354
-25.23
-22.138
-19.102
-16.142
-13.281
-10.539
-7.938
-5.502
-3.254
-1.217
0.59
2.145
3.432
4.433
5.136
5.537
5.633
5.422
4.895
4.035
2.822
1.248
-0.694
-3.008
-5.682
-8.7
-12.034
-15.627
-19.418
-23.345
-27.347
-31.379
-35.396
-39.338
-43.136
-46.704
-49.955
-52.825
-55.253
-57.189
-58.621
-59.569
-60.103
-60.352
-60.438
-60.487
-60.644
-61.053
-61.866
-63.239
-65.285
-68.144
-72.039
-77.119
-83.396
-90.686
-98.506
-106.309
-113.605
-119.788
-124.112
-125.959
-125.042
-121.778
-117.308
-112.809
-109.426
-108.262
-110.252
-116.437
-126.049
-135.388
-140.358
-136.564
-122.395
-101.768
-76.174
-43.719
0.626
69.548
172.316
310.524
481.807
672.763
864.266
1036.422
1166.019
1234.378
1231.202
1155.701
1017.094
831.686
619.676
401.41
197.587
26.915
-97.606
-171.528
-199.237
-192.333
-166.94
-135.904
-109.738
-95.137
-90.851
-93.364
-95.853
-91.904
-81.329
-67.452
-56.374
-52.305
-55.134
-62.715
-71.583
-79.788
-87.021
-92.683
-96.431
-98.185
-97.832
-95.775
-92.723
-89.049
-85.191
-81.968
-79.974
-79.493
-80.639
-83.186
-86.787
-91.221
-96.14
-101.025
-105.478
-109.243
-112.177
-114.308
-115.676
-116.273
-116.142
-115.366
-114.017
-112.167
-109.865
-107.133
-104.01
-100.566
-96.883
-93.054
-89.163
-85.262
-81.386
-77.557
-73.785
-70.072
-66.409
-62.778
-59.156
-55.523
-51.867
-48.176
-44.439
-40.638
-36.754
-32.767
-28.659
-24.417
-20.034
-15.503
-10.821
-5.988
-1.006
4.117
9.373
14.756
20.258
25.871
31.587
37.395
43.282
49.234
55.237
61.275
67.328
73.376
79.398
85.371
91.272
97.077
102.76
108.297
113.663
118.831
123.777
128.476
132.903
137.036
140.852
144.33
147.452
150.199
152.556
154.509
156.046
157.159
157.84
158.085
157.891
157.257
156.186
154.682
152.751
150.401
147.644
144.49
140.955
137.056
132.809
128.236
123.357
118.195
112.774
107.119
101.256
95.211
89.012
82.684
76.257
69.757
63.211
56.645
50.085
43.556
37.081
30.682
24.382
18.198
12.149
6.252
0.521
-5.03
-10.39
-15.548
-20.496
-25.227
-29.735
-34.014
-38.063
-41.878
-45.46
-48.808
-51.925
-54.813
-57.476
-59.919
-62.148
-64.17
-65.992
-67.622
-69.07
-70.344
-71.454
-72.41
-73.221
-73.897
-74.449
-74.886
-75.216
-75.45
-75.595
-75.659
-75.649
-75.573
-75.436
-75.244
-75.003
-74.718
-74.394
-74.034
-73.644
-73.228
-72.789
-72.332
-71.859
-71.375
-70.881
-70.382
-69.879
-69.375
-68.871
-68.371
-67.875
-67.385
-66.902
-66.428
-65.964
-65.51
-65.067
-64.637
-64.219
-63.816
-63.427
-63.055
-62.7
-62.363
-62.048
-61.754
-61.484
-61.239
-61.021
-60.831
-60.668
-60.535
-60.429
-60.352
-60.302
-60.278
-60.279
-60.302
-60.347
-60.41
-60.489
-60.581
-60.683
-60.792
-60.904
-61.016
-61.123
-61.222
-61.309
-61.38
-61.43
-61.457
-61.455
-61.42
-61.349
-61.235
-61.075
-60.863
-60.595
-60.266
-59.871
-59.405
-58.865
-58.248
-57.552
-56.773
-55.91
-54.963
-53.932
-52.816
-51.618
-50.339
-48.982
-47.551
-46.051
-44.487
-42.866
-41.194
-39.482
-37.738
-35.976
-34.206
-32.442
-30.698
-28.988
-27.326
-25.727
-24.206
-22.774
-21.447
-20.237
-19.16
-18.231
-17.467
-16.882
-16.49
-16.305
-16.337
-16.596
-17.084
-17.802
-18.752
-19.936
-21.365
-23.05
-24.996
-27.207
-29.682
-32.416
-35.392
-38.582
-41.943
-45.428
-48.989
-52.584
-56.179
-59.738
-63.221
-66.58
-69.748
-72.666
-75.277
-77.53
-79.379
-80.799
-81.796
-82.423
-82.786
-82.99
-83.118
-83.258
-83.495
-83.946
-84.759
-86.071
-87.978
-90.598
-94.122
-98.672
-104.272
-110.713
-117.432
-123.799
-129.275
-133.287
-135.196
-134.535
-131.094
-125.346
-118.702
-112.641
-108.252
-106.544
-108.433
-114.532
-124.927
-137.124
-146.037
-146.947
-136.355
-114.389
-83.398
-42.3
12.671
87.606
188.376
313.803
457.999
612.618
766.356
908.253
1024.877
1100.312
1120.83
1078.017
973.294
816.031
621.889
410.691
202.102
17.035
-126.441
-218.921
-258.765
-252.883
-216.509
-164.961
-112.946
-75.676
-58.476
-60.33
-75.659
-91.026
-99.579
-101.516
-99.371
-100.365
-107.356
-117.933
-129.27
-137.888
-142.222
-142.588
-139.507
-133.826
-126.425
-118.394
-110.947
-104.745
-100.099
-97.23
-96.128
-96.75
-98.982
-102.372
-106.365
-110.598
-114.792
-118.746
-122.346
-125.411
-127.79
-129.447
-130.394
-130.65
-130.246
-129.186
-127.476
-125.166
-122.313
-118.984
-115.255
-111.188
-106.854
-102.33
-97.693
-93.02
-88.368
-83.772
-79.252
-74.819
-70.469
-66.2
-61.998
-57.841
-53.711
-49.592
-45.467
-41.325
-37.153
-32.937
-28.665
-24.325
-19.908
-15.409
-10.824
-6.153
-1.396
3.443
8.358
13.342
18.387
23.487
28.635
33.822
39.041
44.282
49.534
54.788
60.029
65.244
70.416
75.531
80.569
85.514
90.345
95.045
99.593
103.971
108.159
112.137
115.889
119.396
122.641
125.609
128.286
130.659
132.714
134.442
135.834
136.882
137.581
137.927
137.917
137.552
136.832
135.761
134.343
132.585
130.495
128.081
125.353
122.325
119.01
115.421
111.575
107.489
103.179
98.666
93.968
89.104
84.094
78.958
73.715
68.381
62.973
57.506
51.992
46.446
40.879
35.302
29.726
24.16
18.618
13.11
7.646
2.234
-3.122
-8.417
-13.647
-18.806
-23.89
-28.895
-33.821
-38.662
-43.406
-48.044
-52.573
-56.992
-61.318
-65.564
-69.73
-73.819
-77.829
-81.754
-85.588
-89.31
-92.877
-96.244
-99.369
-102.214
-104.761
-106.981
-108.83
-110.251
-111.176
-111.546
-111.337
-110.533
-109.118
-107.097
-104.506
-101.417
-97.962
-94.286
-90.527
-86.814
-83.293
-80.127
-77.471
-75.511
-74.46
-74.416
-75.393
-77.298
-79.821
-82.606
-85.327
-87.502
-88.569
-88.164
-85.987
-82.093
-77.227
-72.138
-67.447
-63.792
-61.652
-61.401
-63.521
-67.983
-72.106
-71.583
-62.826
-42.27
-11.077
24.809
64.337
108.138
161.428
238.239
343.802
477.343
633.738
794.267
942.509
1063.136
1138.958
1160.485
1120.476
1018.003
859.141
656.164
431.078
207.748
14.119
-127.216
-212.157
-245.961
-245.765
-230.869
-206.083
-173.042
-132.053
-84.751
-42.262
-13.597
-0.207
1.896
0.535
0.784
2.09
0.247
-7.606
-20.984
-37.339
-52.555
-63.923
-71.123
-74.472
-74.661
-72.517
-68.665
-63.812
-59.057
-55.459
-53.492
-53.305
-54.8
-57.651
-61.55
-66.186
-71.066
-75.644
-79.604
-82.791
-85.168
-86.817
-87.77
-88.03
-87.652
-86.721
-85.3
-83.441
-81.172
-78.502
-75.474
-72.157
-68.628
-64.97
-61.236
-57.458
-53.658
-49.85
-46.043
-42.239
-38.429
-34.598
-30.735
-26.833
-22.888
-18.895
-14.845
-10.726
-6.525
-2.229
2.169
6.671
11.278
15.986
20.79
25.683
30.652
35.685
40.769
45.892
51.041
56.202
61.36
66.499
71.601
76.649
81.624
86.505
91.272
95.903
100.379
104.677
108.776
112.656
116.296
119.675
122.774
125.574
128.058
130.208
132.01
133.451
134.517
135.2
135.49
135.381
134.869
133.952
132.63
130.907
128.787
126.277
123.388
120.131
116.521
112.574
108.308
103.742
98.897
93.796
88.464
82.924
77.204
71.33
65.33
59.231
53.062
46.851
40.626
34.415
28.245
22.143
16.134
10.243
4.493
-1.093
-6.494
-11.691
-16.666
-21.404
-25.889
-30.109
-34.056
-37.719
-41.094
-44.176
-46.963
-49.456
-51.655
-53.565
-55.19
-56.536
-57.612
-58.426
-58.988
-59.311
-59.407
-59.291
-58.975
-58.477
-57.811
-56.995
-56.044
-54.975
-53.805
-52.551
-51.23
-49.858
-48.452
-47.028
-45.6
-44.185
-42.797
-41.448
-40.152
-38.92
-37.763
-36.69
-35.709
-34.827
-34.052
-33.388
-32.84
-32.412
-32.106
-31.925
-31.869
-31.938
-32.131
-32.447
-32.883
-33.435
-34.1
-34.872
-35.747
-36.72
-37.785
-38.934
-40.162
-41.461
-42.823
-44.242
-45.707
-47.213
-48.749
-50.308
-51.883
-53.465
-55.047
-56.621
-58.182
-59.721
-61.233
-62.712
-64.15
-65.544
-66.887
-68.174
-69.401
-70.565
-71.66
-72.686
-73.639
-74.517
-75.319
-76.044
-76.691
-77.26
-77.751
-78.165
-78.504
-78.769
-78.962
-79.087
-79.147
-79.145
-79.086
-78.973
-78.81
-78.603
-78.356
-78.073
-77.758
-77.418
-77.056
-76.678
-76.289
-75.893
-75.496
-75.102
-74.717
-74.344
-73.987
-73.651
-73.339
-73.054
-72.799
-72.576
-72.388
-72.236
-72.122
-72.046
-72.009
-72.01
-72.05
-72.126
-72.237
-72.381
-72.557
-72.762
-72.993
-73.248
-73.523
-73.817
-74.126
-74.446
-74.775
-75.11
-75.448
-75.784
-76.117
-76.443
-76.76
-77.065
-77.356
-77.632
-77.889
-78.128
-78.347
-78.546
-78.724
-78.882
-79.019
-79.136
-79.235
-79.317
-79.384
-79.437
-79.477
-79.508
-79.53
-79.545
-79.556
-79.562
-79.566
-79.569
-79.571
-79.573
-79.575
-79.577
-79.577
-79.576
-79.571
-79.561
-79.541
-79.51
-79.462
-79.395
-79.303
-79.182
-79.025
-78.827
-78.581
-78.28
-77.918
-77.487
-76.98
-76.389
-75.708
-74.93
-74.049
-73.06
-71.956
-70.735
-69.394
-67.93
-66.342
-64.629
-62.792
-60.832
-58.754
-56.56
-54.257
-51.852
-49.355
-46.776
-44.132
-41.436
-38.706
-35.96
-33.216
-30.494
-27.815
-25.196
-22.654
-20.21
-17.881
-15.69
-13.657
-11.803
-10.144
-8.699
-7.483
-6.512
-5.795
-5.335
-5.134
-5.197
-5.53
-6.153
-7.081
-8.323
-9.884
-11.763
-13.955
-16.448
-19.217
-22.213
-25.387
-28.684
-32.054
-35.463
-38.868
-42.213
-45.428
-48.428
-51.131
-53.474
-55.401
-56.867
-57.845
-58.338
-58.391
-58.093
-57.551
-56.88
-56.196
-55.625
-55.318
-55.41
-56.065
-57.497
-59.856
-63.215
-67.526
-72.504
-77.728
-82.788
-87.155
-90.19
-91.404
-90.462
-87.443
-83.16
-78.761
-75.342
-73.932
-75.494
-80.738
-90.031
-102.803
-115.985
-124.816
-124.828
-112.504
-87.933
-53.018
-7.415
51.04
128.343
230.224
357.709
507.746
670.026
831.365
975.709
1084.551
1143.747
1141.881
1078.248
961.857
804.461
623.817
433.23
245.359
76.701
-61.914
-158.643
-208.746
-219.603
-199.587
-163.942
-127.116
-95.815
-76.484
-67.332
-62.215
-58.574
-52.804
-46.529
-45.294
-50.286
-61.564
-76.841
-90.936
-101.625
-108.423
-110.686
-109.081
-104.414
-97.162
-88.682
-80.657
-73.896
-68.847
-65.917
-65.029
-66.039
-68.821
-72.823
-77.386
-82.114
-86.692
-90.866
-94.531
-97.556
-99.831
-101.367
-102.198
-102.34
-101.825
-100.669
-98.895
-96.556
-93.715
-90.437
-86.795
-82.866
-78.735
-74.49
-70.214
-65.971
-61.803
-57.736
-53.79
-49.973
-46.282
-42.704
-39.218
-35.803
-32.444
-29.126
-25.831
-22.539
-19.23
-15.885
-12.487
-9.022
-5.478
-1.843
1.891
5.728
9.673
13.727
17.887
22.154
26.529
31.011
35.599
40.291
45.084
49.973
54.954
60.017
65.153
70.35
75.594
80.87
86.16
91.448
96.714
101.939
107.101
112.181
117.156
122.005
126.705
131.234
135.57
139.692
143.579
147.211
150.567
153.631
156.386
158.815
160.906
162.646
164.024
165.031
165.66
165.905
165.763
165.23
164.309
163.001
161.311
159.246
156.816
154.03
150.903
147.449
143.685
139.627
135.294
130.707
125.887
120.855
115.634
110.248
104.72
99.074
93.336
87.528
81.675
75.799
69.925
64.073
58.264
52.521
46.861
41.303
35.866
30.566
25.417
20.434
15.63
11.015
6.599
2.39
-1.606
-5.385
-8.942
-12.276
-15.386
-18.272
-20.935
-23.379
-25.608
-27.625
-29.437
-31.05
-32.472
-33.711
-34.776
-35.676
-36.419
-37.017
-37.478
-37.812
-38.028
-38.137
-38.149
-38.073
-37.918
-37.695
-37.412
-37.079
-36.703
-36.292
-35.854
-35.395
-34.921
-34.437
-33.948
-33.46
-32.976
-32.5
-32.035
-31.586
-31.154
-30.741
-30.35
-29.982
-29.639
-29.321
-29.029
-28.765
-28.529
-28.323
-28.146
-28
-27.886
-27.804
-27.754
-27.738
-27.754
-27.804
-27.887
-28.004
-28.156
-28.344
-28.567
-28.827
-29.124
-29.46
-29.836
-30.251
-30.707
-31.204
-31.742
-32.321
-32.942
-33.604
-34.307
-35.049
-35.83
-36.648
-37.501
-38.386
-39.3
-40.239
-41.201
-42.181
-43.174
-44.177
-45.184
-46.19
-47.189
-48.177
-49.146
-50.091
-51.003
-51.877
-52.706
-53.482
-54.197
-54.846
-55.42
-55.913
-56.317
-56.626
-56.832
-56.93
-56.913
-56.775
-56.513
-56.122
-55.599
-54.942
-54.149
-53.221
-52.158
-50.962
-49.635
-48.18
-46.603
-44.908
-43.104
-41.197
-39.197
-37.116
-34.968
-32.768
-30.533
-28.279
-26.026
-23.793
-21.599
-19.465
-17.406
-15.441
-13.587
-11.862
-10.286
-8.881
-7.664
-6.653
-5.867
-5.32
-5.027
-4.997
-5.234
-5.738
-6.513
-7.565
-8.912
-10.57
-12.547
-14.849
-17.476
-20.417
-23.656
-27.163
-30.884
-34.765
-38.749
-42.785
-46.84
-50.874
-54.838
-58.67
-62.287
-65.609
-68.574
-71.125
-73.213
-74.829
-75.989
-76.758
-77.264
-77.619
-77.932
-78.323
-78.903
-79.803
-81.157
-83.068
-85.677
-89.198
-93.796
-99.517
-106.191
-113.384
-120.576
-127.262
-132.844
-136.584
-137.78
-136.097
-131.977
-126.454
-120.712
-115.994
-113.333
-113.83
-118.918
-127.932
-137.332
-143.635
-142.752
-134.029
-121.568
-104.395
-77.761
-32.598
44.128
155.724
296.794
457.115
622.631
784.224
934.565
1062.217
1153.542
1191.378
1162.195
1064.758
905.854
702.463
479.279
259.064
67.654
-73.906
-160.197
-194.738
-194.407
-181.95
-168.413
-157.625
-146.495
-127.447
-100.752
-71.59
-45.362
-27.819
-20.893
-23.139
-32.782
-47.415
-64.392
-81.23
-95.762
-106.616
-113.073
-115.155
-113.338
-108.327
-101.226
-93.441
-86.307
-80.693
-77.106
-75.676
-76.245
-78.6
-82.393
-87.104
-92.15
-97.092
-101.611
-105.502
-108.7
-111.151
-112.813
-113.706
-113.874
-113.356
-112.194
-110.43
-108.089
-105.215
-101.871
-98.119
-94.044
-89.734
-85.272
-80.742
-76.204
-71.699
-67.256
-62.894
-58.62
-54.433
-50.323
-46.269
-42.254
-38.267
-34.292
-30.317
-26.323
-22.288
-18.197
-14.032
-9.782
-5.438
-0.993
3.558
8.216
12.981
17.848
22.811
27.865
33.006
38.228
43.524
48.888
54.308
59.776
65.28
70.807
76.34
81.864
87.357
92.802
98.176
103.458
108.626
113.656
118.524
123.208
127.683
131.926
135.913
139.622
143.031
146.12
148.87
151.263
153.283
154.917
156.154
156.982
157.395
157.387
156.954
156.094
154.807
153.096
150.966
148.424
145.477
142.137
138.418
134.335
129.905
125.147
120.081
114.73
109.117
103.268
97.207
90.961
84.557
78.023
71.388
64.679
57.924
51.15
44.383
37.651
30.977
24.384
17.897
11.534
5.317
-0.736
-6.608
-12.284
-17.749
-22.991
-27.998
-32.761
-37.273
-41.526
-45.516
-49.239
-52.694
-55.881
-58.8
-61.453
-63.846
-65.981
-67.867
-69.51
-70.918
-72.102
-73.071
-73.836
-74.409
-74.8
-75.023
-75.089
-75.009
-74.797
-74.463
-74.02
-73.478
-72.849
-72.144
-71.372
-70.544
-69.67
-68.757
-67.816
-66.853
-65.877
-64.895
-63.914
-62.94
-61.978
-61.034
-60.113
-59.219
-58.355
-57.526
-56.733
-55.979
-55.266
-54.595
-53.968
-53.384
-52.845
-52.351
-51.902
-51.497
-51.137
-50.82
-50.548
-50.319
-50.133
-49.99
-49.89
-49.831
-49.814
-49.838
-49.903
-50.007
-50.149
-50.329
-50.546
-50.798
-51.085
-51.404
-51.753
-52.131
-52.535
-52.962
-53.409
-53.872
-54.349
-54.834
-55.325
-55.817
-56.306
-56.788
-57.257
-57.709
-58.139
-58.542
-58.911
-59.241
-59.524
-59.756
-59.93
-60.039
-60.078
-60.04
-59.921
-59.713
-59.412
-59.011
-58.506
-57.891
-57.161
-56.314
-55.345
-54.253
-53.037
-51.697
-50.234
-48.649
-46.945
-45.126
-43.196
-41.158
-39.021
-36.791
-34.476
-32.088
-29.636
-27.135
-24.598
-22.04
-19.48
-16.933
-14.42
-11.961
-9.578
-7.295
-5.135
-3.119
-1.267
0.402
1.869
3.116
4.126
4.885
5.378
5.592
5.514
5.131
4.438
3.442
2.152
0.582
-1.261
-3.374
-5.76
-8.414
-11.335
-14.52
-17.962
-21.649
-25.559
-29.639
-33.827
-38.067
-42.31
-46.537
-50.746
-54.918
-59.011
-62.961
-66.687
-70.113
-73.183
-75.811
-77.907
-79.489
-80.679
-81.713
-82.908
-84.52
-86.684
-89.487
-93.016
-97.083
-101.273
-105.145
-108.182
-110.007
-110.517
-109.632
-107.128
-103.236
-98.594
-93.636
-88.829
-84.563
-80.893
-78.135
-77.357
-79.257
-83.954
-92.144
-103.451
-115.767
-127.518
-136.405
-141.023
-144.814
-150.194
-154.601
-151.126
-124.6
-59.051
50.111
199.2
375.718
559.152
735.522
894.08
1021.58
1111.76
1157.726
1151.111
1094.642
991.398
844.582
667.305
472.278
276.235
103.659
-29.284
-116.077
-159.777
-176.916
-184.395
-190.488
-197.128
-199.17
-190.607
-172.035
-147.293
-121.27
-98.626
-80.73
-67.677
-59.882
-56.832
-57.827
-62.14
-68.462
-75.89
-83.792
-90.986
-96.384
-99.498
-100.14
-98.581
-95.53
-91.493
-87.059
-83.207
-80.632
-79.668
-80.462
-82.805
-86.308
-90.649
-95.371
-99.87
-103.764
-106.837
-108.98
-110.253
-110.711
-110.374
-109.329
-107.688
-105.53
-102.922
-99.908
-96.506
-92.775
-88.805
-84.684
-80.509
-76.339
-72.207
-68.135
-64.134
-60.206
-56.344
-52.53
-48.74
-44.957
-41.172
-37.377
-33.564
-29.716
-25.815
-21.843
-17.777
-13.606
-9.32
-4.912
-0.378
4.28
9.061
13.96
18.969
24.081
29.293
34.597
39.989
45.459
50.998
56.594
62.234
67.904
73.586
79.263
84.914
90.519
96.057
101.505
106.839
112.037
117.074
121.926
126.569
130.979
135.132
139.005
142.575
145.822
148.725
151.266
153.426
155.192
156.548
157.485
157.993
158.066
157.698
156.888
155.635
153.941
151.812
149.252
146.272
142.882
139.095
134.927
130.396
125.522
120.324
114.827
109.054
103.031
96.783
90.337
83.722
76.965
70.095
63.14
56.129
49.091
42.053
35.042
28.086
21.208
14.434
7.784
1.281
-5.058
-11.213
-17.169
-22.912
-28.429
-33.708
-38.742
-43.521
-48.041
-52.297
-56.287
-60.01
-63.467
-66.66
-69.592
-72.268
-74.694
-76.875
-78.82
-80.537
-82.034
-83.322
-84.411
-85.312
-86.036
-86.595
-86.999
-87.262
-87.394
-87.405
-87.307
-87.11
-86.824
-86.457
-86.018
-85.516
-84.959
-84.353
-83.705
-83.021
-82.307
-81.566
-80.804
-80.023
-79.227
-78.419
-77.603
-76.779
-75.952
-75.123
-74.295
-73.47
-72.65
-71.838
-71.035
-70.244
-69.465
-68.701
-67.955
-67.227
-66.52
-65.837
-65.181
-64.555
-63.961
-63.402
-62.882
-62.402
-61.968
-61.58
-61.243
-60.96
-60.733
-60.566
-60.462
-60.422
-60.45
-60.547
-60.714
-60.951
-61.259
-61.635
-62.079
-62.587
-63.158
-63.787
-64.471
-65.206
-65.986
-66.804
-67.656
-68.533
-69.428
-70.331
-71.234
-72.127
-73.001
-73.845
-74.65
-75.405
-76.101
-76.727
-77.273
-77.729
-78.084
-78.329
-78.454
-78.45
-78.308
-78.023
-77.587
-76.996
-76.246
-75.334
-74.259
-73.021
-71.622
-70.063
-68.348
-66.483
-64.474
-62.329
-60.058
-57.673
-55.188
-52.619
-49.986
-47.306
-44.602
-41.895
-39.207
-36.562
-33.982
-31.488
-29.1
-26.838
-24.724
-22.779
-21.027
-19.488
-18.182
-17.128
-16.342
-15.841
-15.635
-15.728
-16.121
-16.816
-17.819
-19.148
-20.817
-22.834
-25.2
-27.916
-30.969
-34.342
-38.005
-41.903
-45.977
-50.168
-54.418
-58.688
-62.934
-67.101
-71.123
-74.918
-78.404
-81.521
-84.213
-86.427
-88.153
-89.407
-90.255
-90.819
-91.21
-91.544
-91.958
-92.576
-93.529
-94.952
-96.929
-99.588
-103.149
-107.742
-113.377
-119.919
-126.957
-134.027
-140.726
-146.478
-150.522
-152.244
-151.362
-148.119
-143.372
-138.233
-133.785
-131.093
-131.538
-135.513
-141.294
-146.107
-146.378
-140.637
-131.628
-122.312
-112.519
-95.714
-59.27
9.695
118.569
265.243
440.578
631.041
820.112
990.451
1122.461
1195.965
1196.401
1119.664
972.951
775.296
551.809
326.706
122.894
-43.421
-162.324
-231.219
-257.378
-251.462
-229.514
-205.589
-185.632
-174.137
-167.297
-157.979
-144.524
-124.765
-101.418
-81.838
-69.228
-64.952
-68.245
-75.249
-83.484
-92.096
-100.26
-107.275
-112.397
-115.045
-115.143
-113.174
-109.885
-105.767
-101.407
-97.724
-95.364
-94.648
-95.676
-98.176
-101.749
-106.095
-110.786
-115.252
-119.123
-122.182
-124.322
-125.606
-126.085
-125.768
-124.728
-123.061
-120.838
-118.121
-114.954
-111.352
-107.374
-103.106
-98.638
-94.071
-89.47
-84.87
-80.297
-75.765
-71.28
-66.84
-62.43
-58.029
-53.623
-49.205
-44.768
-40.311
-35.82
-31.276
-26.664
-21.964
-17.164
-12.257
-7.238
-2.103
3.146
8.506
13.97
19.528
25.173
30.899
36.699
42.567
48.492
54.463
60.468
66.496
72.53
78.553
84.548
90.494
96.372
102.162
107.842
113.39
118.785
124.004
129.025
133.828
138.389
142.688
146.704
150.418
153.812
156.869
159.572
161.905
163.857
165.416
166.573
167.321
167.654
167.569
167.066
166.146
164.812
163.072
160.932
158.402
155.493
152.219
148.596
144.642
140.374
135.811
130.976
125.89
120.575
115.056
109.355
103.496
97.501
91.395
85.198
78.931
72.612
66.259
59.89
53.522
47.169
40.847
34.567
28.345
22.194
16.125
10.149
4.274
-1.496
-7.158
-12.705
-18.135
-23.442
-28.624
-33.678
-38.595
-43.369
-47.996
-52.472
-56.808
-61.016
-65.099
-69.065
-72.915
-76.642
-80.237
-83.683
-86.942
-89.979
-92.761
-95.252
-97.436
-99.287
-100.77
-101.857
-102.5
-102.657
-102.313
-101.424
-99.949
-97.903
-95.317
-92.272
-88.927
-85.349
-81.594
-77.874
-74.365
-71.277
-68.857
-67.096
-65.968
-65.727
-66.55
-68.294
-70.698
-73.118
-74.779
-75.508
-75.101
-72.942
-68.534
-61.824
-53.376
-44.569
-36.946
-31.362
-28.458
-29.069
-34.224
-43.333
-53.092
-59.778
-59.353
-50.458
-36.401
-17.855
8.73
49.583
114.902
211.412
336.47
483.631
642.907
801.631
950.614
1077.614
1167.382
1205.674
1178.571
1081.955
921.39
711.422
476.602
242.38
33.991
-126.967
-229.507
-272.42
-262.571
-215.096
-148.529
-79.042
-22.98
9.279
17.716
6.451
-13.414
-29.983
-40.113
-44.211
-46.47
-52.904
-63.54
-75.785
-87.035
-93.903
-95.556
-93.109
-87.484
-80.014
-72.151
-64.872
-58.888
-54.772
-52.681
-52.489
-54.053
-57.068
-61.054
-65.541
-70.156
-74.588
-78.64
-82.193
-85.133
-87.396
-88.975
-89.885
-90.143
-89.767
-88.777
-87.201
-85.089
-82.497
-79.485
-76.118
-72.467
-68.611
-64.63
-60.603
-56.589
-52.625
-48.737
-44.941
-41.24
-37.633
-34.104
-30.628
-27.187
-23.763
-20.342
-16.907
-13.442
-9.929
-6.354
-2.702
1.035
4.867
8.797
12.828
16.96
21.187
25.504
29.9
34.367
38.897
43.478
48.1
52.751
57.419
62.089
66.747
71.375
75.956
80.47
84.895
89.211
93.394
97.423
101.274
104.925
108.355
111.541
114.464
117.102
119.436
121.451
123.129
124.456
125.419
126.008
126.215
126.033
125.459
124.491
123.13
121.38
119.246
116.736
113.861
110.632
107.064
103.173
98.975
94.492
89.744
84.754
79.547
74.149
68.584
62.882
57.068
51.172
45.22
39.24
33.26
27.305
21.403
15.577
9.852
4.251
-1.204
-6.495
-11.602
-16.509
-21.202
-25.667
-29.895
-33.877
-37.604
-41.073
-44.28
-47.223
-49.902
-52.32
-54.478
-56.382
-58.037
-59.452
-60.633
-61.592
-62.337
-62.88
-63.233
-63.408
-63.418
-63.275
-62.993
-62.584
-62.063
-61.442
-60.735
-59.953
-59.111
-58.219
-57.288
-56.331
-55.356
-54.374
-53.393
-52.421
-51.466
-50.533
-49.629
-48.759
-47.927
-47.137
-46.392
-45.695
-45.048
-44.451
-43.907
-43.417
-42.98
-42.596
-42.267
-41.99
-41.766
-41.595
-41.474
-41.404
-41.383
-41.41
-41.484
-41.603
-41.767
-41.974
-42.222
-42.511
-42.838
-43.203
-43.604
-44.039
-44.508
-45.009
-45.54
-46.102
-46.692
-47.309
-47.953
-48.623
-49.317
-50.035
-50.775
-51.536
-52.318
-53.117
-53.934
-54.767
-55.613
-56.471
-57.34
-58.217
-59.099
-59.985
-60.872
-61.758
-62.639
-63.514
-64.379
-65.233
-66.073
-66.897
-67.702
-68.487
-69.249
-69.987
-70.699
-71.383
-72.037
-72.66
-73.249
-73.802
-74.319
-74.798
-75.236
-75.632
-75.985
-76.294
-76.557
-76.773
-76.941
-77.059
-77.129
-77.149
-77.12
-77.041
-76.915
-76.741
-76.522
-76.259
-75.953
-75.606
-75.22
-74.798
-74.341
-73.852
-73.333
-72.786
-72.214
-71.62
-71.006
-70.377
-69.734
-69.083
-68.426
-67.767
-67.112
-66.464
-65.827
-65.208
-64.61
-64.039
-63.499
-62.997
-62.537
-62.123
-61.759
-61.45
-61.199
-61.008
-60.882
-60.821
-60.828
-60.904
-61.051
-61.269
-61.559
-61.92
-62.352
-62.854
-63.423
-64.059
-64.757
-65.516
-66.33
-67.195
-68.108
-69.061
-70.048
-71.063
-72.097
-73.143
-74.19
-75.23
-76.252
-77.246
-78.2
-79.105
-79.949
-80.721
-81.411
-82.008
-82.502
-82.884
-83.143
-83.271
-83.26
-83.102
-82.789
-82.315
-81.675
-80.863
-79.875
-78.709
-77.364
-75.839
-74.136
-72.259
-70.21
-67.996
-65.623
-63.097
-60.429
-57.629
-54.712
-51.699
-48.61
-45.468
-42.298
-39.126
-35.979
-32.881
-29.856
-26.92
-24.092
-21.391
-18.838
-16.46
-14.282
-12.323
-10.598
-9.118
-7.888
-6.914
-6.194
-5.719
-5.484
-5.487
-5.74
-6.272
-7.11
-8.27
-9.755
-11.553
-13.648
-16.029
-18.687
-21.607
-24.773
-28.15
-31.701
-35.393
-39.175
-42.991
-46.74
-50.243
-53.407
-56.238
-58.836
-61.432
-64.22
-67.258
-70.579
-74.226
-77.98
-81.421
-83.999
-84.924
-83.642
-80.019
-74.245
-66.888
-58.979
-51.749
-46.328
-43.818
-44.88
-49.636
-57.661
-67.816
-78.452
-87.87
-95.06
-99.629
-101.549
-101.302
-99.788
-98.379
-99.073
-102.073
-104.526
-103.503
-95.982
-83.011
-70.566
-59.13
-43.81
-12.588
52.327
157.784
299.205
463.391
630.639
788.636
931.238
1051.808
1143.093
1191.18
1180.886
1106.66
970.507
786.556
579.378
371.665
187.697
46.188
-49.56
-103.232
-128.181
-142
-151.951
-159.397
-161.083
-151.135
-130.341
-103.295
-74.985
-50.605
-32.264
-20.379
-15.271
-16.044
-21.507
-30.491
-41.517
-53.602
-66.007
-77.47
-86.75
-93.27
-96.958
-98.176
-97.549
-95.509
-92.472
-89.262
-86.833
-85.756
-86.235
-88.164
-91.239
-95.193
-99.786
-104.595
-109.083
-112.9
-115.873
-117.963
-119.253
-119.792
-119.588
-118.699
-117.223
-115.234
-112.797
-109.955
-106.722
-103.146
-99.305
-95.277
-91.147
-86.973
-82.786
-78.608
-74.452
-70.322
-66.218
-62.132
-58.045
-53.948
-49.834
-45.693
-41.522
-37.309
-33.039
-28.696
-24.265
-19.734
-15.095
-10.345
-5.481
-0.505
4.581
9.773
15.064
20.448
25.922
31.48
37.117
42.827
48.601
54.429
60.301
66.205
72.125
78.047
83.953
89.827
95.651
101.404
107.068
112.623
118.047
123.321
128.424
133.334
138.032
142.498
146.712
150.656
154.314
157.668
160.705
163.411
165.774
167.784
169.432
170.71
171.612
172.134
172.273
172.029
171.403
170.397
169.016
167.266
165.156
162.697
159.899
156.776
153.343
149.615
145.612
141.35
136.849
132.129
127.211
122.117
116.867
111.484
105.989
100.404
94.748
89.044
83.312
77.57
71.839
66.137
60.481
54.888
49.375
43.957
38.648
33.461
28.408
23.501
18.748
14.159
9.741
5.501
1.442
-2.431
-6.115
-9.609
-12.913
-16.027
-18.953
-21.693
-24.251
-26.629
-28.833
-30.868
-32.737
-34.448
-36.005
-37.415
-38.683
-39.816
-40.821
-41.703
-42.471
-43.13
-43.688
-44.15
-44.525
-44.818
-45.035
-45.183
-45.268
-45.296
-45.271
-45.198
-45.084
-44.93
-44.743
-44.524
-44.277
-44.006
-43.712
-43.398
-43.066
-42.72
-42.36
-41.99
-41.611
-41.227
-40.839
-40.45
-40.063
-39.679
-39.302
-38.935
-38.579
-38.238
-37.913
-37.607
-37.322
-37.061
-36.826
-36.618
-36.441
-36.297
-36.187
-36.115
-36.082
-36.091
-36.144
-36.245
-36.394
-36.594
-36.848
-37.156
-37.52
-37.942
-38.421
-38.958
-39.552
-40.203
-40.908
-41.666
-42.474
-43.328
-44.225
-45.161
-46.131
-47.13
-48.154
-49.198
-50.254
-51.318
-52.382
-53.442
-54.488
-55.514
-56.512
-57.473
-58.389
-59.252
-60.053
-60.784
-61.437
-62.002
-62.471
-62.837
-63.092
-63.228
-63.238
-63.116
-62.858
-62.458
-61.914
-61.223
-60.384
-59.396
-58.262
-56.981
-55.558
-53.995
-52.298
-50.471
-48.522
-46.458
-44.29
-42.026
-39.68
-37.268
-34.807
-32.315
-29.812
-27.318
-24.855
-22.445
-20.109
-17.866
-15.734
-13.732
-11.878
-10.193
-8.699
-7.415
-6.359
-5.547
-4.996
-4.718
-4.722
-5.01
-5.578
-6.428
-7.565
-9.005
-10.766
-12.855
-15.279
-18.038
-21.122
-24.512
-28.177
-32.058
-36.093
-40.223
-44.391
-48.556
-52.678
-56.704
-60.567
-64.185
-67.47
-70.356
-72.781
-74.694
-76.089
-76.988
-77.467
-77.654
-77.667
-77.632
-77.68
-77.922
-78.487
-79.502
-81.067
-83.365
-86.661
-91.106
-96.75
-103.468
-110.784
-118.16
-125.075
-130.731
-134.224
-134.973
-132.649
-127.478
-120.773
-114.095
-108.822
-106.83
-108.973
-114.13
-121.199
-128.125
-133.632
-140.144
-148.048
-153.434
-147.431
-114.331
-41.709
72.296
220.347
386.902
556.918
723.374
882.166
1026.495
1145.155
1219.193
1229.252
1167.713
1036.587
849.943
632.775
408.675
201.931
34.752
-81.043
-141.072
-151.578
-130.6
-98.905
-74.534
-68.095
-78.73
-97.689
-114.633
-123.014
-122.359
-117.242
-114.043
-115.939
-122.412
-130.863
-137.509
-140.238
-139.022
-134.491
-127.721
-119.732
-111.233
-102.937
-95.61
-89.822
-85.801
-83.565
-82.996
-83.862
-85.945
-89.031
-92.84
-97.124
-101.699
-106.361
-110.917
-115.182
-118.946
-122.058
-124.437
-126.023
-126.8
-126.781
-125.989
-124.478
-122.329
-119.615
-116.408
-112.78
-108.794
-104.531
-100.079
-95.523
-90.951
-86.422
-81.968
-77.613
-73.362
-69.208
-65.139
-61.131
-57.149
-53.168
-49.169
-45.135
-41.054
-36.91
-32.684
-28.36
-23.923
-19.36
-14.666
-9.835
-4.866
0.24
5.478
10.84
16.313
21.888
27.556
33.308
39.132
45.017
50.95
56.915
62.898
68.881
74.843
80.763
86.618
92.383
98.033
103.545
108.892
114.048
118.989
123.69
128.126
132.273
136.11
139.615
142.768
145.551
147.947
149.942
151.522
152.677
153.399
153.681
153.52
152.914
151.863
150.37
148.438
146.076
143.291
140.095
136.501
132.523
128.178
123.486
118.468
113.147
107.546
101.69
95.607
89.322
82.864
76.261
69.54
62.729
55.857
48.95
42.036
35.14
28.287
21.502
14.806
8.222
1.77
-4.532
-10.666
-16.616
-22.369
-27.91
-33.229
-38.315
-43.159
-47.753
-52.093
-56.173
-59.99
-63.543
-66.832
-69.859
-72.626
-75.137
-77.397
-79.412
-81.19
-82.738
-84.065
-85.18
-86.093
-86.813
-87.352
-87.719
-87.925
-87.98
-87.896
-87.682
-87.348
-86.904
-86.359
-85.723
-85.006
-84.214
-83.358
-82.446
-81.486
-80.486
-79.453
-78.394
-77.317
-76.227
-75.13
-74.031
-72.935
-71.847
-70.769
-69.706
-68.66
-67.634
-66.63
-65.651
-64.696
-63.77
-62.871
-62.002
-61.164
-60.357
-59.584
-58.845
-58.14
-57.473
-56.843
-56.252
-55.701
-55.191
-54.722
-54.295
-53.911
-53.569
-53.27
-53.014
-52.801
-52.631
-52.504
-52.42
-52.378
-52.38
-52.424
-52.51
-52.637
-52.804
-53.011
-53.257
-53.54
-53.857
-54.208
-54.59
-55
-55.434
-55.888
-56.358
-56.839
-57.325
-57.81
-58.288
-58.752
-59.194
-59.609
-59.989
-60.326
-60.613
-60.843
-61.008
-61.1
-61.112
-61.035
-60.863
-60.588
-60.203
-59.701
-59.077
-58.325
-57.441
-56.419
-55.258
-53.954
-52.507
-50.916
-49.182
-47.306
-45.292
-43.146
-40.874
-38.485
-35.988
-33.396
-30.723
-27.986
-25.204
-22.394
-19.576
-16.771
-14.001
-11.29
-8.659
-6.129
-3.721
-1.457
0.64
2.546
4.239
5.7
6.912
7.861
8.532
8.91
8.988
8.758
8.217
7.365
6.189
4.674
2.815
0.608
-1.943
-4.823
-8.015
-11.496
-15.225
-19.163
-23.258
-27.458
-31.718
-35.987
-40.218
-44.364
-48.362
-52.154
-55.672
-58.829
-61.566
-63.865
-65.728
-67.227
-68.431
-69.323
-70.023
-70.774
-71.802
-73.414
-75.743
-78.619
-82.082
-86.436
-91.658
-97.485
-103.415
-108.413
-111.926
-114.132
-114.822
-113.461
-109.902
-104.263
-97.458
-91.618
-88.196
-87.436
-89.877
-96.12
-106.398
-120.902
-137.006
-148.887
-151.813
-141.819
-118.843
-87.853
-49.596
-2.795
57.695
144.393
261.672
408.472
579.497
756.791
924.253
1065.583
1161.181
1198.977
1170.489
1074.964
922.342
728.395
513.409
298.439
103.793
-54.454
-166.361
-230.101
-251.383
-239.429
-206.879
-165.087
-125.607
-98.566
-86.046
-85.275
-87.696
-84.652
-74.872
-61.865
-52.178
-50.29
-55.882
-65.984
-76.872
-86.462
-93.848
-98.55
-100.746
-100.546
-98.249
-94.693
-90.476
-86.103
-82.425
-80.024
-79.158
-79.972
-82.253
-85.61
-89.754
-94.3
-98.724
-102.648
-105.83
-108.125
-109.56
-110.178
-109.982
-109.025
-107.397
-105.171
-102.421
-99.199
-95.53
-91.46
-87.064
-82.428
-77.646
-72.805
-67.959
-63.146
-58.391
-53.71
-49.108
-44.582
-40.115
-35.69
-31.292
-26.911
-22.539
-18.167
-13.777
-9.353
-4.874
-0.324
4.311
9.038
13.866
18.799
23.839
28.986
34.237
39.586
45.029
50.563
56.184
61.886
67.662
73.501
79.395
85.331
91.297
97.276
103.251
109.204
115.115
120.965
126.73
132.389
137.919
143.297
148.498
153.498
158.274
162.801
167.055
171.014
174.655
177.955
180.895
183.455
185.618
187.367
188.689
189.572
190.007
189.986
189.505
188.56
187.152
185.283
182.956
180.179
176.959
173.308
169.24
164.771
159.917
154.698
149.135
143.251
137.07
130.616
123.917
116.998
109.888
102.616
95.211
87.701
80.118
72.49
64.848
57.219
49.632
42.114
34.69
27.386
20.225
13.227
6.415
-0.195
-6.585
-12.739
-18.644
-24.289
-29.663
-34.757
-39.566
-44.085
-48.309
-52.239
-55.872
-59.212
-62.26
-65.02
-67.497
-69.697
-71.629
-73.3
-74.72
-75.901
-76.853
-77.588
-78.119
-78.46
-78.622
-78.62
-78.467
-78.175
-77.758
-77.227
-76.596
-75.877
-75.08
-74.217
-73.297
-72.332
-71.33
-70.3
-69.249
-68.185
-67.115
-66.046
-64.982
-63.93
-62.895
-61.882
-60.894
-59.936
-59.011
-58.122
-57.271
-56.46
-55.69
-54.963
-54.28
-53.642
-53.05
-52.503
-52.004
-51.552
-51.147
-50.79
-50.481
-50.22
-50.007
-49.842
-49.725
-49.656
-49.635
-49.663
-49.74
-49.866
-50.039
-50.261
-50.528
-50.841
-51.198
-51.595
-52.031
-52.503
-53.008
-53.542
-54.102
-54.683
-55.282
-55.892
-56.51
-57.129
-57.742
-58.343
-58.925
-59.481
-60.003
-60.484
-60.917
-61.295
-61.61
-61.854
-62.02
-62.1
-62.088
-61.975
-61.753
-61.418
-60.961
-60.38
-59.668
-58.824
-57.843
-56.725
-55.469
-54.078
-52.551
-50.891
-49.101
-47.188
-45.156
-43.016
-40.775
-38.445
-36.038
-33.571
-31.062
-28.528
-25.988
-23.462
-20.968
-18.527
-16.163
-13.895
-11.743
-9.726
-7.865
-6.18
-4.695
-3.43
-2.402
-1.623
-1.106
-0.861
-0.899
-1.224
-1.838
-2.743
-3.938
-5.429
-7.225
-9.328
-11.736
-14.446
-17.438
-20.695
-24.189
-27.88
-31.726
-35.683
-39.704
-43.745
-47.758
-51.69
-55.496
-59.131
-62.548
-65.703
-68.525
-70.937
-72.91
-74.461
-75.664
-76.602
-77.281
-77.763
-78.242
-79.044
-80.531
-82.893
-86.041
-89.867
-94.517
-100.05
-106.247
-112.393
-117.353
-120.337
-121.232
-120.161
-116.925
-111.301
-103.459
-94.663
-87.149
-82.712
-82.327
-86.294
-94.84
-108.639
-126.726
-144.743
-157.46
-159.999
-150.679
-133.834
-112.144
-82.78
-39.118
30.525
135.108
272.252
434.236
609.93
783.984
945.91
1083.38
1177.042
1209.996
1165.866
1037.587
836.794
587.406
325.218
86.505
-103.12
-229.355
-296.352
-315.969
-299.896
-263.919
-216.357
-165.786
-126.116
-100.863
-90.404
-90.377
-87.482
-76.949
-60.856
-43.448
-32.93
-32.387
-39.68
-51.739
-64.914
-76.959
-86.667
-93.511
-97.573
-98.956
-98.181
-95.981
-92.766
-89.251
-86.544
-85.219
-85.54
-87.56
-90.855
-95.026
-99.802
-104.719
-109.259
-113.115
-116.098
-118.147
-119.37
-119.815
-119.509
-118.535
-116.967
-114.871
-112.307
-109.306
-105.9
-102.151
-98.144
-93.971
-89.706
-85.393
-81.062
-76.731
-72.408
-68.101
-63.799
-59.481
-55.142
-50.775
-46.375
-41.944
-37.472
-32.943
-28.343
-23.657
-18.87
-13.973
-8.96
-3.826
1.428
6.799
12.282
17.868
23.55
29.325
35.184
41.122
47.131
53.2
59.319
65.475
71.655
77.842
84.02
90.168
96.268
102.301
108.246
114.081
119.785
125.335
130.708
135.882
140.834
145.54
149.976
154.121
157.952
161.448
164.589
167.355
169.729
171.697
173.243
174.356
175.028
175.249
175.016
174.325
173.176
171.57
169.513
167.01
164.069
160.703
156.924
152.748
148.192
143.274
138.015
132.437
126.563
120.419
114.029
107.42
100.62
93.658
86.561
79.359
72.081
64.756
57.411
50.076
42.777
35.54
28.391
21.353
14.449
7.699
1.122
-5.264
-11.443
-17.402
-23.128
-28.611
-33.842
-38.814
-43.52
-47.958
-52.124
-56.018
-59.639
-62.989
-66.072
-68.891
-71.452
-73.761
-75.826
-77.654
-79.256
-80.64
-81.817
-82.797
-83.592
-84.212
-84.669
-84.974
-85.137
-85.171
-85.084
-84.887
-84.59
-84.201
-83.729
-83.181
-82.566
-81.89
-81.159
-80.381
-79.56
-78.703
-77.815
-76.9
-75.962
-75.007
-74.037
-73.057
-72.069
-71.076
-70.082
-69.09
-68.101
-67.12
-66.147
-65.186
-64.239
-63.308
-62.397
-61.506
-60.64
-59.8
-58.991
-58.214
-57.474
-56.774
-56.117
-55.508
-54.948
-54.441
-53.99
-53.597
-53.265
-52.995
-52.79
-52.651
-52.578
-52.573
-52.635
-52.764
-52.96
-53.222
-53.546
-53.932
-54.376
-54.874
-55.423
-56.02
-56.658
-57.335
-58.043
-58.776
-59.529
-60.293
-61.061
-61.825
-62.575
-63.302
-63.997
-64.652
-65.256
-65.802
-66.28
-66.682
-67
-67.226
-67.354
-67.376
-67.285
-67.076
-66.742
-66.281
-65.689
-64.963
-64.101
-63.102
-61.968
-60.699
-59.298
-57.766
-56.108
-54.328
-52.434
-50.432
-48.332
-46.143
-43.879
-41.555
-39.189
-36.798
-34.401
-32.018
-29.67
-27.377
-25.16
-23.035
-21.02
-19.131
-17.386
-15.802
-14.401
-13.198
-12.21
-11.453
-10.941
-10.687
-10.7
-10.98
-11.526
-12.34
-13.426
-14.803
-16.484
-18.475
-20.781
-23.401
-26.325
-29.537
-33.003
-36.666
-40.467
-44.349
-48.258
-52.159
-56.011
-59.761
-63.35
-66.699
-69.734
-72.403
-74.654
-76.441
-77.762
-78.639
-79.152
-79.436
-79.607
-79.782
-80.091
-80.638
-81.549
-82.951
-84.936
-87.643
-91.274
-95.956
-101.699
-108.376
-115.604
-122.892
-129.737
-135.481
-139.332
-140.636
-139.151
-135.153
-129.396
-123.11
-117.597
-114.015
-113.948
-117.833
-123.946
-130.065
-133.226
-132.016
-128.398
-123.145
-114.159
-94.752
-53.938
17.784
125.539
267.516
436.387
620.079
802.813
967.513
1094.527
1168.721
1179.855
1123.835
1007.08
838.598
634.116
414.215
198.899
10.45
-136.158
-233.888
-283.213
-292.448
-270.545
-228.913
-178.628
-130.092
-93.182
-71.115
-62.353
-60.863
-60.134
-58.6
-57.945
-62.358
-74.254
-91.94
-111.756
-129.189
-141.395
-147.936
-149.331
-146.54
-140.657
-132.713
-123.992
-115.965
-109.635
-105.44
-103.47
-103.529
-105.285
-108.402
-112.413
-116.716
-120.87
-124.591
-127.682
-130.1
-131.829
-132.825
-133.1
-132.697
-131.639
-129.967
-127.726
-124.935
-121.637
-117.887
-113.744
-109.286
-104.598
-99.76
-94.854
-89.94
-85.059
-80.244
-75.514
-70.879
-66.343
-61.894
-57.511
-53.178
-48.881
-44.606
-40.34
-36.065
-31.759
-27.408
-22.994
-18.508
-13.939
-9.28
-4.525
0.329
5.282
10.331
15.471
20.696
26.003
31.386
36.838
42.353
47.92
53.529
59.172
64.833
70.501
76.156
81.783
87.363
92.875
98.299
103.613
108.793
113.819
118.665
123.31
127.73
131.903
135.806
139.419
142.724
145.7
148.331
150.601
152.496
154.006
155.119
155.829
156.131
156.022
155.501
154.57
153.233
151.496
149.366
146.853
143.969
140.727
137.142
133.232
129.014
124.509
119.738
114.723
109.49
104.061
98.461
92.717
86.852
80.892
74.858
68.773
62.654
56.523
50.395
44.288
38.216
32.194
26.234
20.351
14.558
8.866
3.283
-2.188
-7.543
-12.777
-17.89
-22.878
-27.741
-32.48
-37.091
-41.566
-45.898
-50.087
-54.138
-58.073
-61.911
-65.661
-69.334
-72.935
-76.464
-79.92
-83.285
-86.52
-89.584
-92.437
-95.046
-97.397
-99.466
-101.215
-102.592
-103.528
-103.963
-103.859
-103.187
-101.925
-100.075
-97.669
-94.782
-91.541
-88.083
-84.55
-81.084
-77.842
-74.984
-72.649
-71.009
-70.274
-70.59
-72.028
-74.49
-77.62
-81.01
-84.293
-86.96
-88.423
-88.205
-85.922
-81.713
-76.538
-71.393
-67.093
-64.655
-64.88
-68.294
-75.631
-85.3
-92.907
-94.833
-87.385
-70.128
-47.116
-17.87
21.562
78.477
163.181
277.361
414.877
566.145
720.935
872.843
1015.095
1136.356
1216.023
1231.671
1171.248
1033.831
837.575
612.405
385.987
186.425
31.892
-73.339
-131.908
-155.653
-157.395
-143.737
-118.019
-83.28
-46.376
-16.512
-0.95
-0.053
-5.853
-10.546
-10.643
-7.313
-6.59
-12.42
-24.26
-39.846
-55.497
-68.348
-77.562
-83.154
-85.46
-85.034
-82.616
-78.84
-74.491
-70.657
-68.071
-67.094
-67.931
-70.41
-74.179
-78.981
-84.401
-89.886
-95.055
-99.613
-103.378
-106.359
-108.572
-110.003
-110.694
-110.696
-110.047
-108.81
-107.021
-104.697
-101.878
-98.613
-94.974
-91.049
-86.921
-82.668
-78.352
-74.009
-69.667
-65.347
-61.055
-56.799
-52.573
-48.364
-44.165
-39.971
-35.776
-31.577
-27.362
-23.118
-18.833
-14.496
-10.101
-5.646
-1.131
3.444
8.074
12.752
17.471
22.218
26.984
31.76
36.537
41.305
46.052
50.767
55.438
60.05
64.591
69.044
73.392
77.618
81.704
85.632
89.382
92.938
96.28
99.391
102.252
104.847
107.16
109.173
110.873
112.247
113.281
113.966
114.293
114.255
113.848
113.068
111.915
110.391
108.498
106.242
103.63
100.672
97.377
93.76
89.835
85.618
81.127
76.383
71.407
66.222
60.85
55.317
49.649
43.87
38.008
32.088
26.137
20.182
14.249
8.362
2.548
-3.169
-8.767
-14.223
-19.518
-24.632
-29.548
-34.249
-38.723
-42.955
-46.936
-50.656
-54.109
-57.288
-60.19
-62.814
-65.159
-67.227
-69.021
-70.546
-71.809
-72.816
-73.576
-74.1
-74.399
-74.483
-74.366
-74.06
-73.581
-72.941
-72.156
-71.24
-70.209
-69.077
-67.859
-66.569
-65.221
-63.829
-62.405
-60.962
-59.512
-58.066
-56.634
-55.227
-53.852
-52.519
-51.235
-50.004
-48.834
-47.728
-46.689
-45.722
-44.827
-44.006
-43.26
-42.59
-41.994
-41.472
-41.022
-40.642
-40.329
-40.082
-39.898
-39.772
-39.703
-39.687
-39.721
-39.801
-39.925
-40.089
-40.29
-40.526
-40.792
-41.085
-41.404
-41.745
-42.105
-42.482
-42.874
-43.28
-43.697
-44.123
-44.559
-45.002
-45.451
-45.907
-46.367
-46.832
-47.301
-47.775
-48.253
-48.735
-49.22
-49.71
-50.203
-50.699
-51.197
-51.698
-52.199
-52.701
-53.203
-53.704
-54.203
-54.7
-55.194
-55.684
-56.17
-56.651
-57.125
-57.594
-58.055
-58.508
-58.953
-59.388
-59.814
-60.229
-60.632
-61.024
-61.402
-61.767
-62.116
-62.45
-62.766
-63.065
-63.345
-63.606
-63.848
-64.071
-64.275
-64.459
-64.625
-64.772
-64.901
-65.012
-65.105
-65.181
-65.239
-65.281
-65.307
-65.316
-65.31
-65.289
-65.253
-65.202
-65.137
-65.057
-64.965
-64.86
-64.744
-64.617
-64.481
-64.338
-64.19
-64.038
-63.885
-63.732
-63.581
-63.435
-63.294
-63.161
-63.037
-62.924
-62.823
-62.738
-62.669
-62.618
-62.588
-62.579
-62.595
-62.636
-62.704
-62.802
-62.93
-63.091
-63.286
-63.515
-63.781
-64.083
-64.422
-64.797
-65.207
-65.65
-66.123
-66.624
-67.15
-67.695
-68.258
-68.831
-69.411
-69.993
-70.571
-71.137
-71.687
-72.212
-72.706
-73.161
-73.569
-73.922
-74.214
-74.435
-74.577
-74.633
-74.595
-74.454
-74.202
-73.831
-73.333
-72.702
-71.932
-71.017
-69.953
-68.737
-67.368
-65.845
-64.17
-62.343
-60.367
-58.247
-55.988
-53.598
-51.084
-48.456
-45.725
-42.905
-40.015
-37.072
-34.094
-31.101
-28.113
-25.153
-22.243
-19.409
-16.671
-14.051
-11.57
-9.251
-7.119
-5.197
-3.507
-2.064
-0.883
0.021
0.635
0.943
0.942
0.63
0.011
-0.915
-2.16
-3.735
-5.64
-7.873
-10.424
-13.277
-16.419
-19.827
-23.458
-27.263
-31.184
-35.161
-39.145
-43.087
-46.945
-50.676
-54.22
-57.506
-60.455
-62.987
-65.046
-66.611
-67.708
-68.359
-68.577
-68.447
-68.173
-68.08
-68.521
-69.687
-71.512
-73.928
-77.086
-81.058
-85.699
-90.422
-94.248
-96.546
-97.297
-96.641
-94.407
-90.352
-84.37
-77.249
-70.878
-66.716
-65.399
-67.247
-72.463
-81.473
-95.021
-111.096
-124.604
-131.585
-127.986
-113.711
-93.717
-67.391
-31.699
20.072
100.974
215.063
360.588
531.232
710.277
884.443
1038.747
1155.628
1225.082
1235.87
1185.786
1083.09
935.102
756.701
562.813
366.355
187.316
41.773
-62.438
-124.983
-157.844
-176.357
-188.671
-196.728
-196.717
-183.786
-158.985
-126.942
-93.623
-64.569
-42.345
-28.306
-22.817
-24.728
-32.804
-45.427
-60.394
-76.228
-91.405
-103.847
-112.512
-117.159
-117.831
-115.32
-110.669
-104.592
-98.123
-92.614
-88.775
-86.927
-87.153
-89.072
-92.29
-96.498
-101.174
-105.698
-109.663
-112.825
-115.094
-116.548
-117.232
-117.157
-116.386
-115
-113.079
-110.687
-107.862
-104.626
-101.018
-97.111
-92.992
-88.751
-84.47
-80.202
-75.982
-71.832
-67.767
-63.791
-59.899
-56.084
-52.322
-48.6
-44.907
-41.229
-37.557
-33.871
-30.152
-26.376
-22.524
-18.581
-14.537
-10.385
-6.115
-1.725
2.788
7.423
12.178
17.051
22.041
27.148
32.368
37.699
43.133
48.664
54.284
59.983
65.748
71.567
77.422
83.299
89.178
95.042
100.869
106.64
112.332
117.925
123.395
128.72
133.878
138.847
143.604
148.127
152.396
156.392
160.094
163.485
166.548
169.268
171.631
173.625
175.239
176.463
177.29
177.715
177.732
177.34
176.539
175.33
173.718
171.707
169.307
166.526
163.377
159.874
156.03
151.863
147.391
142.632
137.608
132.338
126.846
121.153
115.284
109.262
103.111
96.855
90.518
84.124
77.695
71.256
64.829
58.436
52.099
45.838
39.674
33.625
27.71
21.946
16.349
10.933
5.712
0.697
-4.101
-8.672
-13.009
-17.107
-20.959
-24.564
-27.92
-31.026
-33.882
-36.493
-38.86
-40.989
-42.885
-44.554
-46.005
-47.244
-48.28
-49.123
-49.782
-50.268
-50.59
-50.759
-50.786
-50.683
-50.461
-50.131
-49.705
-49.193
-48.606
-47.956
-47.252
-46.504
-45.723
-44.918
-44.096
-43.267
-42.438
-41.615
-40.804
-40.012
-39.242
-38.498
-37.784
-37.104
-36.458
-35.851
-35.282
-34.754
-34.268
-33.824
-33.423
-33.066
-32.752
-32.482
-32.255
-32.072
-31.931
-31.833
-31.776
-31.76
-31.784
-31.847
-31.949
-32.087
-32.262
-32.472
-32.715
-32.992
-33.3
-33.639
-34.009
-34.408
-34.836
-35.293
-35.778
-36.29
-36.83
-37.397
-37.989
-38.606
-39.246
-39.907
-40.587
-41.285
-41.996
-42.719
-43.449
-44.184
-44.919
-45.652
-46.376
-47.089
-47.785
-48.459
-49.106
-49.723
-50.302
-50.839
-51.329
-51.766
-52.144
-52.46
-52.707
-52.88
-52.974
-52.984
-52.906
-52.733
-52.463
-52.089
-51.609
-51.02
-50.319
-49.504
-48.576
-47.533
-46.376
-45.108
-43.731
-42.248
-40.664
-38.983
-37.211
-35.357
-33.426
-31.429
-29.376
-27.278
-25.15
-23.009
-20.869
-18.748
-16.665
-14.637
-12.682
-10.818
-9.059
-7.419
-5.913
-4.555
-3.365
-2.358
-1.549
-0.952
-0.581
-0.446
-0.558
-0.923
-1.538
-2.4
-3.508
-4.868
-6.5
-8.418
-10.63
-13.139
-15.943
-19.031
-22.391
-25.991
-29.776
-33.688
-37.668
-41.667
-45.652
-49.581
-53.4
-57.039
-60.413
-63.443
-66.071
-68.247
-69.933
-71.117
-71.821
-72.117
-72.119
-71.952
-71.751
-71.659
-71.819
-72.385
-73.483
-75.265
-77.959
-81.753
-86.72
-92.753
-99.506
-106.523
-113.397
-119.615
-124.455
-127.271
-127.681
-125.904
-122.863
-119.642
-117.331
-117.043
-119.948
-127.311
-138.725
-151.229
-161.206
-164.55
-160.555
-152.926
-141.694
-123.39
-88.56
-22.141
81.903
220.389
382.675
551.406
715.8
869.955
1005.537
1112.542
1173.864
1171.26
1097.978
957.43
765.472
546.905
324.955
122.876
-41.031
-158.066
-227.209
-256.551
-257.393
-239.132
-208.12
-169.233
-130.021
-98.214
-79.352
-73.923
-75.206
-76.513
-75.047
-71.539
-70.633
-75.098
-83.84
-94.464
-103.586
-109.259
-111.402
-110.34
-106.762
-101.481
-95.293
-89.095
-83.825
-80.039
-77.998
-77.81
-79.357
-82.402
-86.613
-91.528
-96.591
-101.391
-105.641
-109.154
-111.886
-113.808
-114.898
-115.189
-114.742
-113.622
-111.89
-109.598
-106.771
-103.453
-99.705
-95.605
-91.249
-86.731
-82.134
-77.518
-72.922
-68.376
-63.896
-59.487
-55.147
-50.86
-46.603
-42.362
-38.126
-33.886
-29.631
-25.344
-21.004
-16.595
-12.101
-7.511
-2.819
1.981
6.894
11.919
17.052
22.289
27.622
33.044
38.551
44.135
49.791
55.509
61.279
67.089
72.928
78.781
84.633
90.464
96.256
101.988
107.641
113.191
118.616
123.894
129.001
133.913
138.608
143.063
147.255
151.161
154.761
158.035
160.964
163.529
165.714
167.505
168.889
169.855
170.393
170.496
170.159
169.379
168.153
166.484
164.374
161.828
158.853
155.459
151.657
147.46
142.886
137.951
132.675
127.08
121.187
115.022
108.61
101.976
95.148
88.153
81.02
73.775
66.449
59.069
51.663
44.258
36.882
29.56
22.317
15.179
8.167
1.304
-5.389
-11.894
-18.193
-24.268
-30.106
-35.691
-41.014
-46.062
-50.828
-55.304
-59.485
-63.368
-66.949
-70.231
-73.212
-75.898
-78.292
-80.399
-82.228
-83.786
-85.083
-86.129
-86.935
-87.514
-87.878
-88.041
-88.015
-87.814
-87.453
-86.944
-86.303
-85.541
-84.673
-83.711
-82.668
-81.556
-80.387
-79.173
-77.925
-76.653
-75.366
-74.075
-72.788
-71.512
-70.255
-69.022
-67.82
-66.653
-65.524
-64.438
-63.397
-62.403
-61.457
-60.56
-59.712
-58.912
-58.16
-57.455
-56.795
-56.179
-55.606
-55.073
-54.581
-54.127
-53.71
-53.33
-52.986
-52.678
-52.404
-52.165
-51.959
-51.788
-51.65
-51.546
-51.475
-51.439
-51.438
-51.471
-51.539
-51.642
-51.781
-51.955
-52.165
-52.409
-52.688
-53.002
-53.349
-53.729
-54.14
-54.581
-55.051
-55.547
-56.066
-56.606
-57.161
-57.727
-58.299
-58.872
-59.438
-59.99
-60.521
-61.023
-61.49
-61.911
-62.28
-62.587
-62.823
-62.981
-63.052
-63.027
-62.9
-62.662
-62.307
-61.83
-61.225
-60.489
-59.617
-58.607
-57.458
-56.169
-54.74
-53.172
-51.468
-49.632
-47.669
-45.586
-43.391
-41.093
-38.704
-36.238
-33.712
-31.141
-28.546
-25.947
-23.363
-20.818
-18.332
-15.926
-13.618
-11.428
-9.375
-7.478
-5.759
-4.238
-2.93
-1.853
-1.022
-0.448
-0.144
-0.11
-0.347
-0.855
-1.64
-2.713
-4.089
-5.776
-7.777
-10.095
-12.718
-15.633
-18.814
-22.213
-25.778
-29.458
-33.2
-36.969
-40.724
-44.416
-47.984
-51.347
-54.428
-57.16
-59.484
-61.345
-62.725
-63.631
-64.12
-64.3
-64.269
-64.127
-63.985
-63.959
-64.186
-64.805
-65.924
-67.689
-70.316
-73.987
-78.771
-84.517
-90.802
-97.106
-102.911
-107.629
-110.544
-110.981
-108.636
-103.985
-98.117
-92.318
-87.968
-86.218
-88.246
-95.458
-107.105
-119.598
-129.357
-132.183
-127.176
-117.895
-102.896
-77.152
-31.656
45.995
158.37
299.304
457.922
619.94
776.512
921.526
1045.158
1134.803
1173.28
1145.5
1047.68
886.302
679.851
453.584
232.161
38.15
-114.359
-218.82
-276.879
-295.483
-280.1
-240.411
-185.325
-126.363
-80.973
-56.455
-53.527
-65.036
-74.64
-75.229
-67.155
-54.655
-46.93
-47.441
-54.314
-65.092
-76.106
-85.075
-91.589
-95.567
-97.258
-97.106
-95.563
-93.003
-89.799
-86.649
-84.342
-83.331
-83.812
-85.671
-88.566
-92.229
-96.392
-100.64
-104.53
-107.763
-110.178
-111.754
-112.561
-112.629
-111.987
-110.697
-108.841
-106.498
-103.724
-100.558
-97.033
-93.208
-89.167
-85.001
-80.777
-76.54
-72.316
-68.118
-63.959
-59.842
-55.755
-51.676
-47.595
-43.499
-39.383
-35.243
-31.065
-26.834
-22.533
-18.145
-13.657
-9.059
-4.343
0.496
5.456
10.538
15.734
21.038
26.443
31.944
37.537
43.213
48.966
54.786
60.663
66.585
72.538
78.507
84.474
90.421
96.327
102.174
107.941
113.606
119.146
124.54
129.765
134.798
139.615
144.194
148.511
152.545
156.275
159.68
162.74
165.439
167.759
169.686
171.206
172.309
172.984
173.224
173.023
172.378
171.286
169.748
167.766
165.345
162.492
159.216
155.528
151.441
146.97
142.132
136.946
131.431
125.608
119.502
113.135
106.533
99.722
92.729
85.58
78.304
70.928
63.481
55.99
48.482
40.984
33.524
26.125
18.814
11.615
4.55
-2.359
-9.09
-15.626
-21.947
-28.037
-33.881
-39.466
-44.779
-49.811
-54.552
-58.995
-63.135
-66.969
-70.492
-73.706
-76.611
-79.209
-81.503
-83.5
-85.206
-86.627
-87.773
-88.654
-89.279
-89.66
-89.808
-89.736
-89.457
-88.984
-88.329
-87.508
-86.533
-85.418
-84.178
-82.825
-81.373
-79.835
-78.223
-76.551
-74.83
-73.072
-71.287
-69.486
-67.679
-65.875
-64.083
-62.311
-60.565
-58.853
-57.181
-55.554
-53.976
-52.453
-50.987
-49.583
-48.242
-46.969
-45.765
-44.631
-43.571
-42.585
-41.674
-40.841
-40.085
-39.409
-38.813
-38.298
-37.865
-37.514
-37.246
-37.061
-36.96
-36.943
-37.01
-37.161
-37.396
-37.715
-38.118
-38.604
-39.172
-39.821
-40.549
-41.355
-42.235
-43.188
-44.211
-45.3
-46.451
-47.659
-48.92
-50.228
-51.577
-52.96
-54.37
-55.797
-57.235
-58.672
-60.1
-61.509
-62.888
-64.226
-65.513
-66.737
-67.888
-68.955
-69.925
-70.788
-71.534
-72.151
-72.63
-72.96
-73.135
-73.145
-72.986
-72.649
-72.132
-71.43
-70.541
-69.463
-68.197
-66.744
-65.107
-63.291
-61.302
-59.149
-56.84
-54.388
-51.807
-49.112
-46.323
-43.459
-40.54
-37.589
-34.63
-31.688
-28.787
-25.951
-23.201
-20.562
-18.058
-15.712
-13.55
-11.595
-9.868
-8.391
-7.181
-6.256
-5.631
-5.312
-5.305
-5.615
-6.25
-7.226
-8.556
-10.25
-12.311
-14.738
-17.521
-20.644
-24.081
-27.783
-31.699
-35.776
-39.96
-44.212
-48.488
-52.738
-56.899
-60.889
-64.627
-68.044
-71.083
-73.694
-75.855
-77.566
-78.873
-79.875
-80.671
-81.366
-82.068
-82.883
-83.926
-85.315
-87.159
-89.583
-92.771
-96.869
-101.917
-107.794
-114.161
-120.592
-126.645
-131.768
-135.287
-136.585
-135.308
-131.685
-126.534
-120.803
-115.581
-112.047
-111.264
-114.467
-121.508
-129.603
-135.492
-135.704
-128.624
-117.09
-102.554
-82.159
-49.608
6.666
96.577
220.436
372.883
542.913
715.274
878.469
1018.782
1119.797
1167.934
1150.972
1067.012
924.829
738.461
527.984
312.755
111.276
-56.548
-175.828
-239.736
-248.973
-215.819
-160.381
-100.726
-55.587
-37.286
-44.727
-72.313
-106.971
-133.752
-148.195
-150.893
-146.925
-144.032
-143.991
-145.211
-145.808
-143.349
-137.681
-130.272
-122.195
-114.448
-107.75
-102.415
-98.62
-96.389
-95.582
-95.977
-97.405
-99.741
-102.798
-106.363
-110.252
-114.284
-118.291
-122.13
-125.624
-128.586
-130.9
-132.5
-133.352
-133.464
-132.857
-131.554
-129.614
-127.105
-124.095
-120.654
-116.849
-112.744
-108.416
-103.941
-99.398
-94.859
-90.372
-85.962
-81.645
-77.419
-73.276
-69.205
-65.184
-61.185
-57.189
-53.177
-49.136
-45.055
-40.919
-36.712
-32.419
-28.028
-23.53
-18.92
-14.196
-9.359
-4.41
0.643
5.791
11.026
16.335
21.712
27.146
32.627
38.144
43.685
49.236
54.783
60.311
65.801
71.235
76.593
81.855
86.999
92.006
96.854
101.52
105.985
110.227
114.227
117.963
121.418
124.574
127.414
129.923
132.089
133.899
135.344
136.415
137.108
137.418
137.344
136.887
136.048
134.833
133.247
131.299
128.999
126.358
123.389
120.106
116.525
112.665
108.543
104.179
99.594
94.808
89.845
84.726
79.473
74.109
68.657
63.136
57.569
51.971
46.362
40.757
35.172
29.621
24.118
18.669
13.286
7.977
2.751
-2.384
-7.423
-12.365
-17.208
-21.95
-26.589
-31.122
-35.548
-39.872
-44.095
-48.218
-52.233
-56.133
-59.916
-63.593
-67.177
-70.675
-74.091
-77.422
-80.667
-83.825
-86.888
-89.834
-92.632
-95.241
-97.625
-99.753
-101.609
-103.188
-104.464
-105.405
-105.958
-106.055
-105.662
-104.763
-103.357
-101.486
-99.19
-96.474
-93.478
-90.465
-87.668
-85.368
-83.699
-82.515
-81.836
-81.916
-82.774
-84.237
-86.006
-87.393
-88.015
-88.113
-87.633
-86.147
-83.406
-79.243
-73.83
-68.257
-63.567
-59.991
-57.84
-57.771
-60.313
-66.048
-75.432
-85.937
-92.785
-92.661
-81.964
-61.333
-36.796
-8.689
25.299
72.218
147.392
256.35
397.504
564.366
738.618
905.617
1050.878
1156.064
1208.074
1194.763
1112.261
968.618
779.033
565.43
350.678
155.851
-2.212
-112.825
-174.765
-193.62
-176.821
-137.368
-85.314
-31.791
6.946
25.28
21.796
1.819
-18.827
-33.215
-40.314
-41.928
-46.189
-55.678
-67.702
-80.006
-89.047
-92.934
-92.542
-88.878
-82.953
-76.148
-69.708
-64.298
-60.376
-58.325
-58.085
-59.537
-62.603
-66.827
-71.643
-76.728
-81.79
-86.599
-91.064
-95.005
-98.259
-100.803
-102.637
-103.764
-104.202
-103.938
-102.966
-101.336
-99.102
-96.329
-93.085
-89.426
-85.419
-81.146
-76.686
-72.126
-67.529
-62.936
-58.374
-53.862
-49.406
-45.012
-40.672
-36.366
-32.08
-27.804
-23.525
-19.24
-14.939
-10.613
-6.253
-1.851
2.599
7.096
11.642
16.232
20.862
25.523
30.205
34.896
39.583
44.256
48.902
53.511
58.073
62.574
67.002
71.344
75.588
79.717
83.715
87.567
91.255
94.763
98.074
101.172
104.042
106.668
109.036
111.131
112.942
114.455
115.661
116.551
117.117
117.352
117.254
116.818
116.045
114.935
113.492
111.721
109.627
107.218
104.504
101.496
98.207
94.649
90.839
86.791
82.524
78.056
73.407
68.597
63.647
58.578
53.412
48.171
42.877
37.551
32.215
26.89
21.598
16.358
11.189
6.11
1.138
-3.71
-8.42
-12.977
-17.37
-21.586
-25.615
-29.45
-33.083
-36.507
-39.717
-42.711
-45.487
-48.042
-50.377
-52.493
-54.394
-56.081
-57.559
-58.832
-59.908
-60.791
-61.489
-62.01
-62.363
-62.555
-62.598
-62.5
-62.272
-61.924
-61.467
-60.911
-60.267
-59.546
-58.759
-57.915
-57.024
-56.098
-55.146
-54.176
-53.199
-52.223
-51.256
-50.305
-49.378
-48.481
-47.62
-46.801
-46.029
-45.308
-44.643
-44.037
-43.495
-43.017
-42.608
-42.267
-41.997
-41.798
-41.669
-41.61
-41.621
-41.699
-41.843
-42.051
-42.32
-42.647
-43.028
-43.461
-43.941
-44.464
-45.026
-45.622
-46.249
-46.901
-47.576
-48.268
-48.976
-49.694
-50.421
-51.151
-51.883
-52.614
-53.341
-54.062
-54.774
-55.476
-56.167
-56.845
-57.509
-58.158
-58.793
-59.413
-60.018
-60.609
-61.185
-61.748
-62.299
-62.838
-63.367
-63.887
-64.4
-64.908
-65.411
-65.911
-66.409
-66.907
-67.405
-67.903
-68.402
-68.901
-69.4
-69.899
-70.397
-70.893
-71.386
-71.873
-72.354
-72.825
-73.286
-73.732
-74.163
-74.574
-74.964
-75.33
-75.669
-75.979
-76.257
-76.502
-76.71
-76.881
-77.012
-77.101
-77.147
-77.149
-77.106
-77.017
-76.884
-76.706
-76.483
-76.219
-75.913
-75.57
-75.191
-74.779
-74.337
-73.87
-73.382
-72.878
-72.361
-71.838
-71.314
-70.793
-70.282
-69.787
-69.312
-68.863
-68.445
-68.062
-67.719
-67.42
-67.168
-66.968
-66.821
-66.731
-66.699
-66.727
-66.817
-66.967
-67.177
-67.447
-67.775
-68.159
-68.595
-69.08
-69.61
-70.181
-70.787
-71.424
-72.084
-72.761
-73.447
-74.135
-74.817
-75.483
-76.124
-76.732
-77.297
-77.81
-78.263
-78.646
-78.95
-79.169
-79.293
-79.315
-79.227
-79.023
-78.695
-78.237
-77.645
-76.914
-76.04
-75.02
-73.853
-72.536
-71.07
-69.454
-67.691
-65.781
-63.728
-61.536
-59.211
-56.759
-54.19
-51.511
-48.736
-45.877
-42.95
-39.971
-36.957
-33.927
-30.9
-27.895
-24.933
-22.032
-19.208
-16.482
-13.871
-11.394
-9.072
-6.923
-4.966
-3.22
-1.701
-0.424
0.599
1.36
1.854
2.077
2.02
1.67
1.012
0.038
-1.261
-2.886
-4.832
-7.085
-9.617
-12.385
-15.339
-18.429
-21.607
-24.832
-28.062
-31.251
-34.346
-37.278
-39.975
-42.377
-44.425
-46.068
-47.284
-48.083
-48.515
-48.688
-48.71
-48.677
-48.7
-48.891
-49.367
-50.261
-51.69
-53.748
-56.579
-60.389
-65.305
-71.313
-78.211
-85.554
-92.823
-99.515
-105.026
-108.587
-109.581
-107.824
-103.647
-97.908
-91.824
-86.529
-82.991
-82.538
-85.38
-89.858
-93.92
-94.603
-90.491
-82.889
-71.531
-54.298
-25.203
24.568
100.947
207.398
342.582
501.417
676.812
856.103
1021.079
1150.345
1224.854
1232.329
1173.659
1060.142
904.961
725.151
535.127
347.707
181.12
49.192
-41.386
-91.71
-115.74
-129.637
-142.238
-156.039
-165.736
-164.526
-152.282
-132.744
-110.954
-91.258
-74.561
-60.273
-48.715
-40.645
-36.373
-35.481
-37.106
-40.838
-46.647
-54.532
-63.731
-72.482
-79.62
-84.872
-88.318
-90.224
-90.764
-89.956
-88.276
-86.853
-86.413
-87.199
-89.206
-92.062
-95.432
-99.129
-102.814
-105.998
-108.38
-109.812
-110.252
-109.847
-108.711
-106.905
-104.527
-101.674
-98.417
-94.828
-90.966
-86.878
-82.633
-78.316
-73.986
-69.691
-65.461
-61.307
-57.237
-53.246
-49.316
-45.423
-41.552
-37.696
-33.851
-30.012
-26.169
-22.304
-18.402
-14.445
-10.419
-6.309
-2.104
2.204
6.621
11.145
15.775
20.508
25.341
30.275
35.308
40.439
45.666
50.984
56.386
61.868
67.419
73.027
78.678
84.357
90.048
95.735
101.4
107.024
112.587
118.069
123.45
128.708
133.823
138.771
143.533
148.086
152.411
156.486
160.293
163.814
167.032
169.931
172.498
174.719
176.583
178.08
179.202
179.943
180.298
180.263
179.837
179.021
177.817
176.229
174.265
171.932
169.24
166.2
162.826
159.132
155.135
150.851
146.298
141.496
136.465
131.224
125.797
120.202
114.464
108.602
102.638
96.594
90.491
84.349
78.188
72.028
65.889
59.787
53.742
47.77
41.887
36.108
30.449
24.922
19.54
14.314
9.256
4.374
-0.323
-4.828
-9.136
-13.242
-17.141
-20.833
-24.315
-27.587
-30.649
-33.504
-36.152
-38.596
-40.84
-42.887
-44.741
-46.407
-47.889
-49.194
-50.326
-51.292
-52.097
-52.748
-53.251
-53.614
-53.842
-53.944
-53.927
-53.798
-53.565
-53.237
-52.82
-52.323
-51.754
-51.12
-50.429
-49.687
-48.9
-48.076
-47.221
-46.339
-45.437
-44.521
-43.596
-42.667
-41.739
-40.818
-39.909
-39.016
-38.145
-37.299
-36.485
-35.706
-34.967
-34.273
-33.627
-33.034
-32.498
-32.022
-31.609
-31.262
-30.981
-30.77
-30.629
-30.559
-30.56
-30.632
-30.777
-30.992
-31.279
-31.636
-32.063
-32.559
-33.122
-33.749
-34.439
-35.188
-35.993
-36.851
-37.756
-38.705
-39.693
-40.714
-41.761
-42.829
-43.91
-44.997
-46.082
-47.155
-48.21
-49.236
-50.224
-51.168
-52.057
-52.884
-53.642
-54.322
-54.918
-55.421
-55.825
-56.123
-56.308
-56.375
-56.318
-56.131
-55.81
-55.353
-54.756
-54.018
-53.137
-52.115
-50.952
-49.65
-48.213
-46.643
-44.948
-43.134
-41.211
-39.187
-37.075
-34.889
-32.644
-30.357
-28.048
-25.734
-23.435
-21.173
-18.968
-16.839
-14.806
-12.886
-11.099
-9.462
-7.995
-6.719
-5.65
-4.808
-4.206
-3.86
-3.782
-3.984
-4.468
-5.235
-6.29
-7.636
-9.286
-11.253
-13.541
-16.15
-19.077
-22.308
-25.826
-29.603
-33.59
-37.734
-41.984
-46.288
-50.61
-54.91
-59.139
-63.237
-67.131
-70.75
-74.036
-76.941
-79.422
-81.462
-83.07
-84.295
-85.237
-85.994
-86.663
-87.347
-88.152
-89.188
-90.572
-92.404
-94.793
-97.905
-101.857
-106.682
-112.269
-118.29
-124.346
-130.035
-134.833
-138.121
-139.361
-138.193
-134.761
-129.792
-124.059
-118.496
-114.208
-112.106
-113.272
-117.605
-122.705
-125.866
-124.286
-117.1
-107.111
-94.914
-77.302
-46.781
8.67
95.782
212.739
350.859
496.549
640.691
778.978
907.318
1017.912
1093.358
1112.76
1059.901
930.111
736.337
503.665
264.128
48.622
-121.218
-233.686
-291.073
-303.442
-283.431
-246.651
-203.596
-164.097
-136.634
-121.485
-115.99
-112.922
-104.696
-90.85
-75.209
-63.847
-60.64
-64.985
-74.042
-84.311
-94.105
-102.845
-109.512
-113.806
-115.763
-115.513
-113.839
-111.361
-108.229
-104.94
-102.379
-101.065
-101.243
-102.897
-105.591
-108.963
-112.8
-116.728
-120.3
-123.227
-125.324
-126.535
-126.957
-126.649
-125.646
-124.027
-121.868
-119.235
-116.19
-112.767
-109.002
-104.957
-100.712
-96.355
-91.954
-87.548
-83.166
-78.823
-74.525
-70.271
-66.045
-61.822
-57.589
-53.335
-49.053
-44.738
-40.376
-35.95
-31.445
-26.843
-22.13
-17.296
-12.333
-7.235
-2.003
3.36
8.851
14.459
20.18
26.006
31.931
37.947
44.045
50.212
56.435
62.701
68.993
75.29
81.572
87.816
94
100.1
106.091
111.949
117.647
123.16
128.464
133.533
138.343
142.87
147.09
150.983
154.526
157.701
160.49
162.877
164.847
166.389
167.492
168.148
168.352
168.099
167.39
166.225
164.607
162.544
160.042
157.112
153.768
150.024
145.898
141.409
136.578
131.428
125.983
120.267
114.307
108.129
101.761
95.23
88.562
81.787
74.93
68.019
61.079
54.137
47.216
40.34
33.532
26.812
20.202
13.719
7.381
1.203
-4.799
-10.613
-16.227
-21.631
-26.817
-31.778
-36.507
-41.001
-45.257
-49.273
-53.048
-56.584
-59.882
-62.945
-65.777
-68.381
-70.763
-72.927
-74.881
-76.629
-78.178
-79.535
-80.705
-81.697
-82.515
-83.168
-83.661
-84
-84.193
-84.245
-84.163
-83.952
-83.618
-83.167
-82.605
-81.937
-81.169
-80.306
-79.355
-78.319
-77.206
-76.021
-74.768
-73.454
-72.085
-70.665
-69.201
-67.7
-66.166
-64.607
-63.029
-61.439
-59.844
-58.251
-56.667
-55.1
-53.557
-52.044
-50.571
-49.144
-47.77
-46.456
-45.21
-44.038
-42.947
-41.943
-41.03
-40.215
-39.502
-38.894
-38.395
-38.008
-37.734
-37.574
-37.529
-37.599
-37.782
-38.076
-38.479
-38.986
-39.593
-40.295
-41.084
-41.955
-42.898
-43.905
-44.967
-46.074
-47.217
-48.383
-49.562
-50.742
-51.911
-53.058
-54.168
-55.23
-56.231
-57.158
-57.999
-58.742
-59.376
-59.89
-60.273
-60.515
-60.608
-60.543
-60.312
-59.909
-59.327
-58.562
-57.611
-56.473
-55.146
-53.631
-51.93
-50.048
-47.989
-45.76
-43.369
-40.824
-38.135
-35.315
-32.377
-29.335
-26.206
-23.007
-19.759
-16.484
-13.206
-9.947
-6.732
-3.586
-0.534
2.399
5.193
7.826
10.277
12.525
14.549
16.325
17.833
19.056
19.977
20.583
20.858
20.793
20.389
19.649
18.572
17.157
15.389
13.256
10.76
7.903
4.691
1.141
-2.725
-6.872
-11.239
-15.767
-20.397
-25.073
-29.759
-34.417
-38.985
-43.398
-47.574
-51.43
-54.913
-57.974
-60.559
-62.661
-64.297
-65.532
-66.481
-67.245
-67.912
-68.58
-69.331
-70.26
-71.477
-73.059
-75.148
-77.977
-81.646
-86.172
-91.455
-97.087
-102.616
-107.634
-111.437
-113.192
-112.428
-108.878
-102.717
-95.056
-87.15
-80.105
-75.645
-74.692
-76.151
-78.692
-80.307
-80.029
-81.368
-86.89
-94.383
-95.723
-74.66
-16.282
83.947
220.24
377.438
539.126
695.329
839.663
964.784
1060.369
1111.746
1105.392
1037.528
912.997
745.221
554.314
359.761
181.339
36.182
-66.373
-125.355
-148.944
-150.997
-144.906
-137.713
-130.548
-121.629
-108.45
-92.524
-77.701
-66.975
-62.52
-63.97
-69.233
-76.279
-83.136
-88.179
-90.429
-89.651
-86.202
-80.866
-74.601
-68.243
-62.483
-57.952
-55.14
-54.209
-55.083
-57.523
-61.171
-65.726
-70.936
-76.534
-82.267
-87.903
-93.22
-98.02
-102.178
-105.605
-108.241
-110.062
-111.055
-111.229
-110.633
-109.335
-107.408
-104.92
-101.933
-98.506
-94.715
-90.648
-86.394
-82.046
-77.665
-73.291
-68.951
-64.661
-60.427
-56.245
-52.097
-47.954
-43.795
-39.607
-35.38
-31.105
-26.77
-22.36
-17.86
-13.257
-8.542
-3.711
1.24
6.312
11.504
16.809
22.218
27.721
33.306
38.967
44.693
50.476
56.306
62.171
68.058
73.955
79.848
85.718
91.549
97.32
103.013
108.606
114.078
119.408
124.574
129.555
134.328
138.872
143.166
147.188
150.92
154.341
157.433
160.181
162.569
164.583
166.212
167.445
168.275
168.696
168.702
168.293
167.465
166.222
164.566
162.501
160.034
157.174
153.929
150.314
146.34
142.024
137.383
132.435
127.199
121.698
115.952
109.984
103.819
97.481
90.994
84.383
77.674
70.892
64.061
57.207
50.351
43.518
36.729
30.005
23.367
16.832
10.419
4.144
-1.977
-7.931
-13.703
-19.281
-24.656
-29.817
-34.755
-39.463
-43.935
-48.166
-52.152
-55.892
-59.383
-62.625
-65.619
-68.369
-70.876
-73.146
-75.184
-76.997
-78.591
-79.974
-81.155
-82.143
-82.946
-83.575
-84.038
-84.344
-84.504
-84.526
-84.42
-84.195
-83.86
-83.425
-82.899
-82.29
-81.608
-80.862
-80.059
-79.21
-78.321
-77.402
-76.46
-75.502
-74.538
-73.573
-72.614
-71.668
-70.739
-69.834
-68.957
-68.111
-67.301
-66.528
-65.796
-65.107
-64.462
-63.865
-63.316
-62.818
-62.371
-61.977
-61.638
-61.353
-61.125
-60.954
-60.84
-60.783
-60.784
-60.841
-60.955
-61.125
-61.348
-61.623
-61.949
-62.321
-62.736
-63.192
-63.684
-64.209
-64.761
-65.337
-65.932
-66.541
-67.161
-67.787
-68.414
-69.037
-69.65
-70.249
-70.827
-71.379
-71.897
-72.375
-72.807
-73.185
-73.502
-73.752
-73.927
-74.021
-74.025
-73.935
-73.742
-73.442
-73.027
-72.494
-71.839
-71.057
-70.146
-69.107
-67.937
-66.638
-65.211
-63.657
-61.979
-60.179
-58.262
-56.232
-54.097
-51.862
-49.536
-47.13
-44.655
-42.128
-39.564
-36.979
-34.39
-31.815
-29.275
-26.792
-24.389
-22.086
-19.903
-17.864
-15.988
-14.299
-12.818
-11.562
-10.544
-9.775
-9.267
-9.033
-9.084
-9.424
-10.053
-10.968
-12.168
-13.66
-15.451
-17.542
-19.93
-22.605
-25.556
-28.775
-32.247
-35.941
-39.817
-43.825
-47.905
-52.016
-56.121
-60.193
-64.205
-68.107
-71.823
-75.288
-78.435
-81.205
-83.593
-85.581
-87.121
-88.285
-89.222
-90.166
-91.522
-93.636
-96.607
-100.476
-105.297
-110.933
-117.193
-123.7
-129.498
-133.59
-135.498
-134.974
-132.006
-126.975
-120.154
-111.995
-103.995
-98.084
-95.666
-97.844
-105.086
-116.997
-133.296
-153.499
-175.626
-196.375
-212.264
-219.575
-214.753
-195.047
-157.488
-98.87
-18.625
79.913
192.207
312.516
437.183
567.641
704.189
842.565
971.197
1070.546
1119.326
1102.507
1017.495
872.923
686.806
481.403
277.278
93.645
-54.614
-158.414
-216.218
-233.71
-220.529
-190.23
-154.316
-122.908
-104.317
-99.134
-104.002
-111.446
-113.965
-110.392
-103.642
-99.422
-101.653
-109.757
-120.986
-131.71
-139.683
-144.551
-146.381
-145.514
-142.344
-137.31
-131.2
-124.927
-119.337
-114.98
-112.183
-111.099
-111.677
-113.732
-116.961
-120.963
-125.252
-129.461
-133.32
-136.597
-139.203
-141.087
-142.206
-142.582
-142.264
-141.285
-139.687
-137.525
-134.826
-131.639
-128.026
-124.046
-119.782
-115.319
-110.736
-106.114
-101.512
-96.963
-92.492
-88.113
-83.825
-79.625
-75.499
-71.424
-67.382
-63.36
-59.342
-55.315
-51.262
-47.161
-42.995
-38.748
-34.407
-29.965
-25.415
-20.751
-15.974
-11.084
-6.087
-0.989
4.204
9.487
14.853
20.294
25.802
31.367
36.976
42.618
48.279
53.941
59.587
65.198
70.752
76.229
81.606
86.86
91.967
96.905
101.65
106.177
110.463
114.485
118.22
121.648
124.748
127.501
129.89
131.9
133.519
134.735
135.539
135.923
135.885
135.42
134.53
133.215
131.481
129.335
126.783
123.839
120.514
116.825
112.788
108.422
103.748
98.788
93.565
88.104
82.431
76.571
70.553
64.403
58.149
51.819
45.44
39.04
32.644
26.275
19.957
13.709
7.548
1.493
-4.443
-10.247
-15.907
-21.414
-26.756
-31.924
-36.91
-41.71
-46.319
-50.739
-54.97
-59.013
-62.87
-66.544
-70.039
-73.357
-76.497
-79.459
-82.245
-84.863
-87.332
-89.673
-91.902
-94.032
-96.076
-98.036
-99.912
-101.697
-103.361
-104.875
-106.207
-107.33
-108.229
-108.886
-109.274
-109.349
-109.057
-108.341
-107.163
-105.491
-103.301
-100.603
-97.428
-93.856
-90.012
-86.014
-81.98
-78.04
-74.329
-70.998
-68.197
-66.048
-64.69
-64.323
-65.089
-67.025
-69.971
-73.523
-77.228
-80.662
-83.31
-84.549
-83.832
-80.88
-76.031
-70.197
-64.275
-59.168
-55.848
-55.232
-58.443
-65.105
-71.972
-75.382
-71.97
-60.941
-46.452
-30.72
-10.549
21.574
78.644
170.771
297.061
450.419
618.441
786.531
945.339
1083.643
1186.702
1238.215
1220.639
1126.167
958.726
736.3
489.03
247.141
39.781
-113.045
-206.453
-243.226
-234.094
-196.114
-143.261
-89.132
-48.601
-26.517
-21.934
-29.315
-34.539
-30.667
-18.584
-2.199
9.248
11.343
5.363
-6.304
-19.647
-32.379
-43.771
-52.887
-59.478
-63.557
-65.228
-65.033
-63.463
-60.931
-58.253
-56.35
-55.769
-56.725
-59.107
-62.579
-66.855
-71.657
-76.546
-81.043
-84.831
-87.754
-89.797
-91.036
-91.505
-91.23
-90.272
-88.714
-86.63
-84.072
-81.073
-77.663
-73.902
-69.875
-65.673
-61.37
-57.011
-52.627
-48.237
-43.855
-39.49
-35.135
-30.778
-26.41
-22.029
-17.633
-13.223
-8.794
-4.332
0.171
4.728
9.35
14.04
18.802
23.636
28.538
33.502
38.519
43.578
48.671
53.79
58.927
64.073
69.219
74.353
79.465
84.543
89.572
94.537
99.421
104.205
108.873
113.405
117.781
121.982
125.988
129.776
133.328
136.622
139.639
142.357
144.76
146.828
148.546
149.899
150.872
151.454
151.635
151.407
150.764
149.703
148.223
146.322
144.006
141.28
138.15
134.628
130.724
126.454
121.832
116.878
111.612
106.055
100.232
94.168
87.89
81.426
74.807
68.063
61.223
54.321
47.387
40.454
33.552
26.712
19.965
13.339
6.864
0.564
-5.533
-11.405
-17.03
-22.389
-27.463
-32.237
-36.697
-40.834
-44.638
-48.103
-51.225
-54
-56.43
-58.516
-60.262
-61.675
-62.762
-63.533
-64
-64.177
-64.079
-63.721
-63.122
-62.301
-61.276
-60.068
-58.698
-57.188
-55.557
-53.829
-52.024
-50.164
-48.269
-46.359
-44.453
-42.571
-40.728
-38.943
-37.228
-35.598
-34.065
-32.641
-31.333
-30.152
-29.104
-28.194
-27.426
-26.805
-26.33
-26.003
-25.823
-25.786
-25.891
-26.131
-26.503
-26.999
-27.613
-28.336
-29.162
-30.08
-31.081
-32.157
-33.296
-34.488
-35.724
-36.993
-38.285
-39.59
-40.9
-42.204
-43.495
-44.765
-46.008
-47.215
-48.382
-49.504
-50.575
-51.592
-52.552
-53.452
-54.291
-55.067
-55.781
-56.432
-57.022
-57.552
-58.024
-58.44
-58.803
-59.117
-59.383
-59.606
-59.79
-59.938
-60.055
-60.145
-60.213
-60.263
-60.299
-60.326
-60.348
-60.368
-60.389
-60.415
-60.449
-60.492
-60.546
-60.613
-60.695
-60.792
-60.904
-61.031
-61.172
-61.326
-61.492
-61.667
-61.849
-62.036
-62.226
-62.415
-62.601
-62.781
-62.954
-63.116
-63.265
-63.399
-63.515
-63.61
-63.683
-63.733
-63.756
-63.752
-63.72
-63.659
-63.569
-63.45
-63.303
-63.127
-62.924
-62.695
-62.442
-62.167
-61.873
-61.562
-61.239
-60.908
-60.573
-60.239
-59.91
-59.592
-59.29
-59.007
-58.749
-58.52
-58.324
-58.164
-58.044
-57.969
-57.939
-57.958
-58.027
-58.147
-58.318
-58.541
-58.814
-59.136
-59.506
-59.92
-60.377
-60.872
-61.403
-61.965
-62.553
-63.161
-63.783
-64.412
-65.039
-65.656
-66.254
-66.822
-67.352
-67.835
-68.259
-68.616
-68.894
-69.086
-69.18
-69.169
-69.043
-68.793
-68.412
-67.894
-67.232
-66.424
-65.464
-64.35
-63.082
-61.658
-60.08
-58.35
-56.468
-54.44
-52.269
-49.962
-47.527
-44.973
-42.31
-39.551
-36.714
-33.814
-30.872
-27.906
-24.939
-21.99
-19.084
-16.243
-13.485
-10.831
-8.301
-5.915
-3.696
-1.666
0.154
1.746
3.091
4.175
4.982
5.502
5.735
5.679
5.332
4.688
3.729
2.44
0.815
-1.15
-3.453
-6.084
-9.023
-12.24
-15.677
-19.274
-22.976
-26.728
-30.494
-34.232
-37.889
-41.398
-44.676
-47.645
-50.244
-52.417
-54.113
-55.322
-56.062
-56.406
-56.487
-56.413
-56.3
-56.28
-56.468
-57.001
-58.015
-59.607
-61.922
-65.187
-69.541
-75.003
-81.429
-88.401
-95.421
-102.021
-107.574
-111.271
-112.442
-110.807
-106.664
-100.863
-94.624
-89.133
-85.41
-84.983
-88.334
-93.748
-98.917
-100.841
-98.275
-94.122
-89.492
-80.802
-59.136
-9.907
76.37
198.83
348.292
509.367
670.15
825.276
970.079
1096.214
1189.17
1229.02
1199.705
1097.881
930.797
716.462
479.329
241.887
26.534
-146.571
-265.029
-324.47
-328.735
-291.771
-232.401
-167.219
-113.341
-81.302
-70.142
-75.361
-85.622
-88.866
-83.324
-71.365
-58.71
-52.844
-55.125
-63.457
-75.359
-87.362
-97.332
-104.657
-109.055
-110.745
-110.218
-107.907
-104.18
-99.541
-94.862
-91.08
-88.765
-88.111
-88.97
-91.026
-94.011
-97.668
-101.583
-105.236
-108.281
-110.552
-112.02
-112.773
-112.86
-112.287
-111.101
-109.395
-107.243
-104.711
-101.847
-98.664
-95.215
-91.574
-87.823
-84.049
-80.31
-76.636
-73.046
-69.55
-66.147
-62.831
-59.591
-56.4
-53.239
-50.094
-46.947
-43.785
-40.588
-37.334
-33.998
-30.556
-26.986
-23.275
-19.41
-15.383
-11.188
-6.822
-2.282
2.426
7.302
12.343
17.546
22.908
28.423
34.083
39.879
45.799
51.832
57.961
64.171
70.442
76.753
83.085
89.413
95.714
101.963
108.134
114.201
120.138
125.917
131.512
136.896
142.042
146.926
151.523
155.809
159.763
163.364
166.593
169.435
171.876
173.902
175.504
176.675
177.408
177.7
177.549
176.957
175.925
174.459
172.565
170.254
167.536
164.425
160.935
157.084
152.891
148.375
143.558
138.463
133.111
127.529
121.74
115.77
109.645
103.39
97.032
90.597
84.109
77.594
71.074
64.574
58.115
51.716
45.398
39.179
33.076
27.103
21.277
15.609
10.112
4.797
-0.327
-5.253
-9.972
-14.481
-18.775
-22.851
-26.707
-30.344
-33.761
-36.96
-39.944
-42.716
-45.279
-47.639
-49.802
-51.773
-53.559
-55.168
-56.607
-57.883
-59.005
-59.979
-60.813
-61.514
-62.089
-62.545
-62.887
-63.123
-63.259
-63.299
-63.251
-63.12
-62.91
-62.629
-62.279
-61.867
-61.396
-60.871
-60.297
-59.676
-59.015
-58.315
-57.583
-56.82
-56.033
-55.223
-54.395
-53.552
-52.699
-51.838
-50.972
-50.107
-49.244
-48.389
-47.546
-46.719
-45.912
-45.13
-44.38
-43.664
-42.988
-42.357
-41.775
-41.246
-40.774
-40.364
-40.018
-39.741
-39.534
-39.401
-39.344
-39.364
-39.463
-39.64
-39.896
-40.229
-40.638
-41.121
-41.676
-42.298
-42.986
-43.734
-44.538
-45.393
-46.293
-47.232
-48.203
-49.197
-50.206
-51.221
-52.232
-53.23
-54.204
-55.146
-56.045
-56.89
-57.673
-58.382
-59.01
-59.545
-59.979
-60.302
-60.507
-60.586
-60.533
-60.341
-60.006
-59.524
-58.893
-58.111
-57.178
-56.094
-54.861
-53.482
-51.96
-50.3
-48.51
-46.597
-44.571
-42.444
-40.23
-37.945
-35.607
-33.234
-30.845
-28.461
-26.101
-23.788
-21.54
-19.377
-17.318
-15.384
-13.596
-11.977
-10.547
-9.326
-8.332
-7.582
-7.091
-6.871
-6.927
-7.263
-7.883
-8.793
-10.01
-11.545
-13.406
-15.597
-18.116
-20.954
-24.098
-27.523
-31.185
-35.039
-39.038
-43.133
-47.291
-51.473
-55.63
-59.704
-63.614
-67.288
-70.667
-73.694
-76.324
-78.537
-80.322
-81.712
-82.794
-83.642
-84.344
-85.003
-85.702
-86.566
-87.749
-89.364
-91.561
-94.529
-98.357
-103.069
-108.572
-114.507
-120.431
-125.949
-130.527
-133.596
-134.79
-133.86
-130.971
-126.979
-122.928
-119.715
-118.148
-118.936
-122.582
-129.379
-138.759
-147.656
-151.374
-145.74
-127.921
-99.255
-63.166
-20.147
32.423
102.233
197.14
319.493
465.898
624.82
782.435
922.674
1028.132
1086.411
1086.274
1026.277
914.518
759.944
578.473
385.267
195.06
28.795
-98.36
-178.758
-213.431
-214.691
-194.777
-162.639
-125.102
-88.103
-61.062
-51.348
-60.817
-83.84
-107.736
-124.043
-130.045
-127.951
-124.391
-121.929
-119.89
-117.267
-112.082
-104.377
-95.718
-87.08
-79.384
-73.344
-69.061
-66.542
-65.733
-66.323
-68.017
-70.633
-73.975
-77.833
-82.046
-86.426
-90.755
-94.858
-98.545
-101.662
-104.116
-105.847
-106.824
-107.049
-106.551
-105.38
-103.611
-101.314
-98.55
-95.377
-91.854
-88.054
-84.06
-79.957
-75.829
-71.73
-67.696
-63.747
-59.892
-56.127
-52.436
-48.791
-45.16
-41.517
-37.841
-34.117
-30.332
-26.467
-22.503
-18.423
-14.211
-9.856
-5.35
-0.686
4.139
9.122
14.261
19.545
24.967
30.515
36.181
41.957
47.83
53.79
59.823
65.915
72.05
78.211
84.376
90.524
96.632
102.675
108.628
114.464
120.157
125.68
131.007
136.112
140.967
145.548
149.83
153.79
157.406
160.658
163.525
165.992
168.043
169.665
170.847
171.581
171.86
171.681
171.041
169.942
168.385
166.376
163.922
161.033
157.718
153.993
149.874
145.379
140.527
135.342
129.846
124.064
118.024
111.751
105.275
98.624
91.826
84.911
77.908
70.845
63.753
56.658
49.587
42.568
35.624
28.779
22.057
15.477
9.059
2.821
-3.221
-9.051
-14.658
-20.029
-25.155
-30.027
-34.639
-38.986
-43.065
-46.874
-50.415
-53.687
-56.695
-59.442
-61.934
-64.178
-66.18
-67.951
-69.498
-70.832
-71.964
-72.905
-73.667
-74.261
-74.699
-74.992
-75.153
-75.192
-75.12
-74.949
-74.687
-74.346
-73.934
-73.46
-72.933
-72.36
-71.748
-71.104
-70.434
-69.742
-69.035
-68.316
-67.588
-66.855
-66.12
-65.386
-64.653
-63.925
-63.202
-62.486
-61.777
-61.077
-60.385
-59.703
-59.03
-58.367
-57.715
-57.073
-56.444
-55.828
-55.227
-54.641
-54.072
-53.523
-52.995
-52.489
-52.009
-51.555
-51.132
-50.74
-50.383
-50.063
-49.783
-49.544
-49.35
-49.201
-49.099
-49.045
-49.039
-49.082
-49.174
-49.313
-49.498
-49.728
-50.001
-50.314
-50.663
-51.046
-51.457
-51.892
-52.345
-52.809
-53.277
-53.742
-54.195
-54.628
-55.032
-55.399
-55.72
-55.986
-56.186
-56.313
-56.357
-56.309
-56.16
-55.901
-55.525
-55.025
-54.394
-53.628
-52.723
-51.675
-50.482
-49.144
-47.661
-46.035
-44.268
-42.363
-40.327
-38.166
-35.888
-33.502
-31.021
-28.458
-25.831
-23.157
-20.454
-17.745
-15.051
-12.393
-9.795
-7.279
-4.865
-2.573
-0.424
1.563
3.366
4.962
6.331
7.456
8.318
8.901
9.19
9.175
8.857
8.235
7.307
6.07
4.509
2.612
0.376
-2.199
-5.112
-8.35
-11.892
-15.706
-19.731
-23.908
-28.176
-32.479
-36.779
-41.031
-45.178
-49.156
-52.885
-56.289
-59.309
-61.89
-63.98
-65.57
-66.675
-67.363
-67.759
-67.973
-68.12
-68.316
-68.654
-69.244
-70.197
-71.601
-73.607
-76.42
-80.162
-84.893
-90.553
-96.83
-103.314
-109.539
-114.809
-118.3
-119.363
-117.579
-112.945
-106.174
-98.431
-90.945
-85.279
-82.41
-81.787
-82.429
-82.663
-82.56
-85.004
-91.755
-102.122
-107.677
-93.267
-45.414
45.003
175.173
332.75
505.047
678.247
843.442
993.226
1114.279
1193.446
1215.647
1168.704
1052.669
875.91
657.491
426.083
209.255
30.368
-96.847
-174.074
-210.632
-217.768
-206.067
-180.396
-145.47
-110.372
-83.371
-70.057
-70.062
-74.668
-75.703
-70.628
-61.632
-55.088
-55.548
-62.902
-74.39
-86.377
-96.439
-103.386
-107.107
-108.056
-106.446
-102.765
-97.768
-91.983
-86.16
-81.343
-78.064
-76.541
-76.858
-78.71
-81.773
-85.806
-90.38
-94.943
-99.103
-102.603
-105.318
-107.285
-108.524
-109.015
-108.791
-107.918
-106.465
-104.499
-102.061
-99.169
-95.861
-92.205
-88.285
-84.199
-80.035
-75.852
-71.688
-67.566
-63.502
-59.499
-55.551
-51.645
-47.752
-43.854
-39.937
-35.987
-31.993
-27.939
-23.803
-19.563
-15.201
-10.702
-6.057
-1.261
3.691
8.801
14.064
19.476
25.027
30.708
36.511
42.429
48.451
54.567
60.761
67.018
73.324
79.658
86
92.328
98.618
104.845
110.983
117.007
122.888
128.602
134.119
139.413
144.458
149.227
153.694
157.835
161.626
165.045
168.071
170.685
172.869
174.61
175.895
176.712
177.055
176.918
176.298
175.194
173.61
171.55
169.022
166.035
162.602
158.738
154.461
149.789
144.746
139.353
133.637
127.624
121.341
114.816
108.079
101.159
94.086
86.891
79.603
72.253
64.872
57.487
50.128
42.823
35.597
28.477
21.487
14.648
7.981
1.506
-4.76
-10.801
-16.605
-22.159
-27.453
-32.48
-37.235
-41.714
-45.915
-49.837
-53.484
-56.858
-59.963
-62.805
-65.392
-67.73
-69.828
-71.697
-73.344
-74.783
-76.023
-77.076
-77.954
-78.669
-79.233
-79.659
-79.958
-80.141
-80.221
-80.207
-80.111
-79.943
-79.712
-79.427
-79.097
-78.728
-78.327
-77.901
-77.453
-76.989
-76.511
-76.022
-75.523
-75.018
-74.505
-73.988
-73.465
-72.937
-72.406
-71.871
-71.333
-70.792
-70.249
-69.703
-69.155
-68.607
-68.059
-67.513
-66.969
-66.43
-65.899
-65.376
-64.866
-64.369
-63.889
-63.429
-62.993
-62.582
-62.201
-61.855
-61.545
-61.278
-61.058
-60.888
-60.773
-60.716
-60.72
-60.789
-60.924
-61.127
-61.399
-61.739
-62.147
-62.621
-63.16
-63.76
-64.417
-65.126
-65.881
-66.675
-67.501
-68.35
-69.212
-70.078
-70.936
-71.776
-72.587
-73.357
-74.075
-74.727
-75.303
-75.79
-76.174
-76.445
-76.589
-76.595
-76.452
-76.15
-75.681
-75.037
-74.212
-73.199
-71.997
-70.603
-69.017
-67.239
-65.272
-63.123
-60.796
-58.301
-55.649
-52.852
-49.926
-46.889
-43.763
-40.568
-37.329
-34.071
-30.821
-27.605
-24.452
-21.386
-18.433
-15.618
-12.968
-10.51
-8.271
-6.278
-4.553
-3.12
-1.999
-1.209
-0.765
-0.671
-0.934
-1.555
-2.542
-3.911
-5.676
-7.845
-10.42
-13.402
-16.778
-20.533
-24.638
-29.04
-33.685
-38.517
-43.48
-48.532
-53.628
-58.713
-63.718
-68.553
-73.13
-77.375
-81.216
-84.59
-87.468
-89.844
-91.755
-93.298
-94.555
-95.618
-96.589
-97.57
-98.681
-100.043
-101.757
-103.967
-106.89
-110.699
-115.44
-120.952
-126.83
-132.598
-137.797
-141.863
-144.095
-143.837
-140.839
-135.633
-129.319
-123.125
-118.353
-116.136
-117.612
-124.212
-135.242
-146.93
-155.458
-156.396
-148.129
-134.777
-117.095
-92.229
-54.337
9.949
110.091
247.836
420.625
614.451
809.768
985.065
1116.265
1187.239
1189.393
1125.039
1006.259
844.391
654.4
450.594
246.37
62.992
-80.675
-173.795
-212.128
-206.736
-178.017
-142.739
-116.711
-107.516
-111.191
-122.711
-133.485
-135.731
-129.074
-116.151
-102.647
-93.829
-90.911
-92.329
-95.063
-97.68
-100.414
-103.822
-108.367
-113.276
-117.363
-120.337
-122.24
-123.051
-122.886
-121.748
-119.856
-118.064
-117.114
-117.268
-118.579
-120.887
-123.924
-127.527
-131.406
-135.034
-138.037
-140.224
-141.501
-141.941
-141.626
-140.573
-138.847
-136.555
-133.765
-130.548
-126.955
-123.007
-118.757
-114.283
-109.662
-104.982
-100.299
-95.644
-91.038
-86.49
-81.996
-77.549
-73.134
-68.732
-64.331
-59.923
-55.498
-51.05
-46.568
-42.036
-37.439
-32.759
-27.986
-23.113
-18.135
-13.053
-7.87
-2.59
2.779
8.227
13.745
19.327
24.963
30.644
36.361
42.102
47.852
53.6
59.329
65.024
70.666
76.237
81.718
87.089
92.33
97.419
102.336
107.057
111.561
115.826
119.83
123.553
126.974
130.075
132.839
135.249
137.293
138.959
140.238
141.123
141.608
141.691
141.371
140.651
139.535
138.03
136.143
133.884
131.266
128.303
125.009
121.402
117.498
113.317
108.879
104.205
99.318
94.239
88.994
83.605
78.098
72.498
66.829
61.117
55.385
49.656
43.952
38.292
32.691
27.165
21.725
16.382
11.143
6.017
1.008
-3.881
-8.643
-13.276
-17.776
-22.144
-26.385
-30.504
-34.503
-38.388
-42.163
-45.832
-49.403
-52.879
-56.256
-59.533
-62.712
-65.804
-68.836
-71.828
-74.794
-77.743
-80.683
-83.614
-86.533
-89.424
-92.243
-94.947
-97.493
-99.843
-101.98
-103.878
-105.49
-106.759
-107.609
-107.974
-107.821
-107.127
-105.87
-104.056
-101.718
-98.933
-95.834
-92.569
-89.276
-86.096
-83.171
-80.654
-78.715
-77.545
-77.37
-78.334
-80.444
-83.551
-87.321
-91.32
-95.089
-98.069
-99.583
-99.123
-96.489
-91.957
-86.403
-80.909
-76.555
-74.332
-74.935
-78.894
-86.372
-96.185
-106.091
-112.376
-109.551
-94.073
-63.983
-18.514
39.155
108.329
191.229
288.62
404.557
539.377
686.541
838.373
979.086
1089.892
1153.691
1153.651
1084.777
951.844
768.054
556.919
340.913
142.392
-17.3
-126.73
-181.439
-184.586
-151.731
-101.132
-49.635
-14.8
-2.307
-8.702
-27.048
-43.211
-49.761
-47.811
-41.548
-39.316
-44.693
-55.564
-68.429
-79.108
-86.054
-89.645
-90.092
-88.04
-84.074
-78.934
-74.017
-70.196
-67.693
-66.683
-67.214
-69.274
-72.859
-77.64
-82.994
-88.503
-93.915
-99.041
-103.78
-107.97
-111.436
-114.126
-116.062
-117.274
-117.787
-117.606
-116.726
-115.188
-113.051
-110.375
-107.233
-103.682
-99.787
-95.623
-91.264
-86.785
-82.242
-77.671
-73.094
-68.525
-63.967
-59.421
-54.881
-50.33
-45.756
-41.152
-36.507
-31.817
-27.076
-22.276
-17.413
-12.482
-7.481
-2.411
2.723
7.917
13.163
18.449
23.766
29.099
34.434
39.759
45.06
50.324
55.537
60.685
65.753
70.724
75.583
80.31
84.888
89.297
93.517
97.531
101.318
104.861
108.141
111.143
113.851
116.25
118.326
120.067
121.464
122.506
123.185
123.496
123.433
122.994
122.177
120.984
119.416
117.479
115.178
112.521
109.519
106.184
102.527
98.566
94.316
89.796
85.025
80.026
74.822
69.435
63.891
58.215
52.433
46.57
40.652
34.705
28.754
22.823
16.936
11.116
5.384
-0.237
-5.728
-11.07
-16.246
-21.24
-26.035
-30.619
-34.979
-39.104
-42.987
-46.618
-49.992
-53.106
-55.956
-58.542
-60.864
-62.926
-64.731
-66.284
-67.594
-68.668
-69.515
-70.147
-70.574
-70.809
-70.864
-70.752
-70.487
-70.082
-69.55
-68.905
-68.161
-67.329
-66.424
-65.458
-64.443
-63.392
-62.316
-61.227
-60.135
-59.051
-57.984
-56.942
-55.935
-54.968
-54.049
-53.182
-52.373
-51.625
-50.94
-50.32
-49.766
-49.278
-48.856
-48.498
-48.203
-47.968
-47.79
-47.668
-47.597
-47.575
-47.6
-47.667
-47.775
-47.919
-48.099
-48.31
-48.55
-48.817
-49.108
-49.42
-49.751
-50.098
-50.461
-50.836
-51.223
-51.621
-52.028
-52.444
-52.868
-53.302
-53.745
-54.197
-54.661
-55.136
-55.626
-56.13
-56.651
-57.19
-57.749
-58.328
-58.929
-59.551
-60.196
-60.862
-61.55
-62.257
-62.984
-63.728
-64.488
-65.262
-66.048
-66.842
-67.644
-68.45
-69.257
-70.062
-70.863
-71.655
-72.435
-73.2
-73.945
-74.668
-75.363
-76.028
-76.657
-77.247
-77.794
-78.293
-78.741
-79.135
-79.471
-79.748
-79.962
-80.112
-80.199
-80.22
-80.176
-80.069
-79.899
-79.667
-79.376
-79.029
-78.627
-78.175
-77.675
-77.131
-76.547
-75.927
-75.276
-74.597
-73.895
-73.176
-72.443
-71.702
-70.957
-70.215
-69.479
-68.757
-68.052
-67.372
-66.719
-66.101
-65.52
-64.981
-64.489
-64.046
-63.654
-63.317
-63.036
-62.813
-62.647
-62.54
-62.49
-62.498
-62.562
-62.68
-62.851
-63.07
-63.336
-63.645
-63.994
-64.379
-64.796
-65.241
-65.709
-66.196
-66.694
-67.2
-67.706
-68.205
-68.69
-69.153
-69.587
-69.984
-70.336
-70.635
-70.874
-71.045
-71.139
-71.15
-71.071
-70.894
-70.612
-70.219
-69.709
-69.078
-68.32
-67.433
-66.412
-65.256
-63.963
-62.531
-60.96
-59.25
-57.402
-55.418
-53.302
-51.056
-48.687
-46.2
-43.606
-40.916
-38.142
-35.3
-32.404
-29.471
-26.519
-23.567
-20.633
-17.735
-14.889
-12.114
-9.427
-6.849
-4.4
-2.099
0.035
1.986
3.736
5.27
6.578
7.653
8.492
9.089
9.436
9.513
9.303
8.796
7.981
6.854
5.421
3.689
1.683
-0.556
-2.981
-5.546
-8.201
-10.915
-13.647
-16.348
-18.962
-21.411
-23.618
-25.523
-27.063
-28.186
-28.878
-29.148
-29.044
-28.673
-28.132
-27.526
-26.986
-26.64
-26.627
-27.091
-28.141
-29.914
-32.621
-36.415
-41.347
-47.284
-53.84
-60.569
-67.053
-72.749
-76.978
-79.134
-78.837
-76.35
-72.554
-68.347
-64.748
-62.882
-63.743
-68.564
-76.952
-85.593
-90.988
-89.712
-80.859
-68.562
-54.406
-34.749
-1.737
58.315
155.427
288.519
450.329
627.702
805.431
973.501
1119.873
1229.505
1287.155
1277.149
1193.913
1043.202
841.284
613.774
385.263
179.273
14.939
-98.133
-156.773
-167.786
-147.858
-116.516
-92.146
-85.695
-96.373
-114.866
-128.739
-129.22
-114.774
-90.584
-65.334
-45.216
-32.593
-26.571
