Name
Date of Birth,"Mar 27, 1959"
Recorded Date,2022-08-11 10:00:10 -0500
Classification,Sinus Rhythm
Symptoms,
Software Version,1.90
Device,"Watch4,2"
Sample Rate,510.227 hertz


Lead,Lead I
Unit,µV

-110.196
-118.689
-125.844
-131.362
-135.161
-137.382
-138.267
-137.923
-136.163
-132.833
-128.122
-122.225
-115.164
-106.579
-95.855
-82.911
-68.538
-53.852
-39.575
-26.134
-13.795
-3.218
4.476
8.928
11.049
12.321
13.679
15.294
16.724
17.601
18.248
18.537
16.884
12.645
7.691
4.42
6.04
11.685
14.725
12.81
9.076
15.66
51.382
123.766
229.753
355.276
479.063
592.712
693.143
777.383
844.609
881.68
873.192
815.27
707.685
559.253
389.791
214.697
52.419
-74.104
-156.368
-193.085
-192.734
-177.244
-159.371
-143.608
-129.516
-109.274
-81.253
-49.52
-18.451
6.252
22.111
29.579
29.344
22.994
12.5
-0.385
-13.817
-26.109
-36.25
-43.489
-47.397
-48.086
-46.076
-42.183
-37.419
-32.874
-29.26
-27.036
-26.465
-27.499
-29.975
-33.623
-37.995
-42.549
-46.9
-50.826
-54.218
-57.113
-59.536
-61.488
-63.027
-64.238
-65.186
-65.912
-66.434
-66.734
-66.821
-66.736
-66.532
-66.274
-66.022
-65.807
-65.648
-65.554
-65.529
-65.573
-65.676
-65.817
-65.971
-66.12
-66.25
-66.347
-66.398
-66.38
-66.267
-66.032
-65.652
-65.106
-64.378
-63.454
-62.321
-60.97
-59.394
-57.588
-55.553
-53.285
-50.781
-48.041
-45.064
-41.851
-38.408
-34.739
-30.851
-26.753
-22.457
-17.974
-13.321
-8.513
-3.567
1.496
6.658
11.896
17.187
22.509
27.836
33.144
38.407
43.6
48.695
53.668
58.492
63.142
67.593
71.823
75.808
79.527
82.96
86.09
88.898
91.37
93.492
95.252
96.64
97.649
98.27
98.502
98.343
97.793
96.855
95.535
93.838
91.774
89.354
86.59
83.497
80.089
76.386
72.404
68.164
63.688
58.998
54.117
49.068
43.876
38.566
33.161
27.688
22.171
16.634
11.101
5.597
0.143
-5.237
-10.522
-15.692
-20.728
-25.611
-30.326
-34.855
-39.186
-43.306
-47.204
-50.869
-54.294
-57.472
-60.398
-63.067
-65.477
-67.626
-69.516
-71.146
-72.521
-73.643
-74.519
-75.153
-75.552
-75.726
-75.682
-75.43
-74.979
-74.341
-73.527
-72.547
-71.413
-70.137
-68.731
-67.207
-65.576
-63.85
-62.04
-60.158
-58.215
-56.22
-54.185
-52.118
-50.029
-47.928
-45.822
-43.719
-41.627
-39.553
-37.504
-35.488
-33.508
-31.567
-29.67
-27.818
-26.017
-24.274
-22.586
-20.949
-19.376
-17.879
-16.464
-15.146
-13.914
-12.748
-11.665
-10.683
-9.762
-8.87
-7.986
-7.07
-6.153
-5.295
-4.462
-3.591
-2.841
-2.401
-2.155
-2.113
-2.308
-2.331
-3.28
-6.221
-9.626
-13.027
-13.615
-8.028
0.018
8.048
12.372
7.925
-0.806
-10.013
-17.088
-17.722
-14.986
-11.997
-9.442
-9.218
-10.216
-11.012
-11.87
-12.605
-13.305
-14.255
-15.26
-16.166
-17.019
-17.825
-18.563
-19.234
-19.847
-20.404
-20.932
-21.461
-21.977
-22.466
-22.933
-23.376
-23.796
-24.196
-24.575
-24.93
-25.266
-25.586
-25.895
-26.197
-26.494
-26.791
-27.091
-27.399
-27.719
-28.055
-28.412
-28.794
-29.205
-29.648
-30.127
-30.644
-31.202
-31.803
-32.448
-33.136
-33.867
-34.642
-35.459
-36.316
-37.212
-38.145
-39.112
-40.109
-41.133
-42.178
-43.24
-44.312
-45.387
-46.459
-47.519
-48.56
-49.575
-50.555
-51.492
-52.379
-53.206
-53.967
-54.653
-55.256
-55.769
-56.187
-56.503
-56.714
-56.815
-56.806
-56.685
-56.454
-56.115
-55.672
-55.13
-54.495
-53.773
-52.973
-52.104
-51.172
-50.188
-49.162
-48.105
-47.03
-45.952
-44.883
-43.841
-42.842
-41.902
-41.038
-40.263
-39.585
-39.017
-38.568
-38.252
-38.089
-38.099
-38.293
-38.686
-39.291
-40.112
-41.151
-42.392
-43.802
-45.35
-47.007
-48.745
-50.55
-52.401
-54.272
-56.134
-57.939
-59.646
-61.227
-62.645
-63.87
-64.885
-65.694
-66.354
-66.97
-67.643
-68.461
-69.479
-70.739
-72.322
-74.315
-76.807
-79.918
-83.701
-88.238
-93.724
-100.176
-107.462
-115.306
-123.079
-130.114
-135.969
-140.014
-141.53
-140.446
-137.002
-131.867
-126.637
-122.559
-120.359
-121.257
-126.19
-134.695
-145.513
-156.354
-163.392
-163.273
-153.176
-129.224
-87.752
-28.761
44.77
129.407
219.659
314.706
418.753
527.647
632.132
717.497
762.133
756.083
701.883
607.726
488.312
356.728
221.816
95.5
-6.926
-75.273
-105.722
-104.808
-89.844
-73.88
-63.506
-59.202
-55.027
-49.14
-43.296
-39.617
-41.321
-48.619
-59.254
-71.316
-82.611
-91.37
-97.049
-99.461
-98.758
-95.646
-90.963
-85.489
-80.041
-75.329
-71.684
-69.226
-67.958
-67.72
-68.356
-69.737
-71.679
-74.002
-76.596
-79.363
-82.218
-85.084
-87.824
-90.274
-92.328
-93.911
-94.985
-95.548
-95.592
-95.119
-94.163
-92.775
-91.004
-88.901
-86.506
-83.853
-80.993
-77.983
-74.888
-71.774
-68.687
-65.658
-62.704
-59.833
-57.045
-54.337
-51.693
-49.087
-46.502
-43.919
-41.326
-38.712
-36.059
-33.349
-30.561
-27.676
-24.677
-21.547
-18.271
-14.834
-11.226
-7.435
-3.455
0.722
5.101
9.69
14.492
19.515
24.759
30.227
35.915
41.823
47.944
54.268
60.785
67.482
74.341
81.346
88.476
95.71
103.024
110.393
117.791
125.189
132.559
139.871
147.094
154.197
161.147
167.912
174.461
180.762
186.782
192.492
197.861
202.861
207.463
211.643
215.376
218.641
221.417
223.689
225.442
226.664
227.348
227.488
227.082
226.132
224.643
222.623
220.081
217.032
213.492
209.481
205.02
200.132
194.844
189.184
183.182
176.869
170.279
163.446
156.404
149.19
141.841
134.392
126.883
119.348
111.826
104.351
96.96
89.685
82.559
75.613
68.876
62.375
56.133
50.173
44.514
39.172
34.162
29.495
25.178
21.218
17.617
14.375
11.49
8.956
6.768
4.915
3.386
2.17
1.249
0.609
0.233
0.099
0.19
0.484
0.959
1.592
2.362
3.245
4.218
5.259
6.346
7.457
8.571
9.669
10.732
11.743
12.685
13.545
14.31
14.968
15.512
15.933
16.227
16.389
16.417
16.312
16.073
15.703
15.206
14.586
13.848
12.999
12.046
10.997
9.861
8.648
7.367
6.029
4.643
3.22
1.77
0.304
-1.168
-2.636
-4.091
-5.524
-6.925
-8.286
-9.601
-10.863
-12.066
-13.206
-14.279
-15.283
-16.216
-17.079
-17.87
-18.591
-19.244
-19.83
-20.353
-20.816
-21.221
-21.573
-21.876
-22.134
-22.352
-22.534
-22.684
-22.808
-22.909
-22.992
-23.059
-23.116
-23.166
-23.213
-23.259
-23.308
-23.364
-23.429
-23.505
-23.595
-23.699
-23.819
-23.955
-24.108
-24.278
-24.462
-24.662
-24.876
-25.104
-25.343
-25.593
-25.853
-26.121
-26.396
-26.678
-26.964
-27.255
-27.55
-27.847
-28.149
-28.454
-28.763
-29.077
-29.396
-29.722
-30.054
-30.394
-30.743
-31.101
-31.468
-31.846
-32.235
-32.635
-33.049
-33.475
-33.915
-34.369
-34.837
-35.319
-35.815
-36.324
-36.845
-37.377
-37.918
-38.466
-39.02
-39.576
-40.13
-40.681
-41.224
-41.755
-42.27
-42.764
-43.232
-43.669
-44.07
-44.431
-44.747
-45.013
-45.225
-45.38
-45.473
-45.501
-45.463
-45.354
-45.174
-44.922
-44.599
-44.203
-43.737
-43.201
-42.6
-41.937
-41.216
-40.442
-39.621
-38.76
-37.871
-36.963
-36.048
-35.137
-34.244
-33.381
-32.562
-31.798
-31.1
-30.477
-29.938
-29.494
-29.159
-28.942
-28.853
-28.9
-29.088
-29.425
-29.917
-30.563
-31.358
-32.298
-33.381
-34.612
-36.006
-37.57
-39.304
-41.205
-43.265
-45.471
-47.813
-50.26
-52.771
-55.304
-57.818
-60.283
-62.682
-64.981
-67.133
-69.08
-70.752
-72.098
-73.085
-73.682
-73.869
-73.652
-73.05
-72.116
-70.925
-69.547
-68.059
-66.55
-65.105
-63.831
-62.839
-62.271
-62.338
-63.154
-64.677
-66.721
-68.894
-70.751
-71.971
-72.164
-70.764
-67.473
-62.427
-56.234
-50.155
-45.485
-42.99
-43.267
-47.049
-54.579
-65.121
-76.873
-86.748
-91.267
-87.81
-74.019
-47.03
-4.541
54.147
126.872
208.517
293.505
377.848
461.276
544.257
622.885
689.952
733.423
740.34
706.517
633.76
528.38
402.616
267.782
136.3
25.37
-51.829
-90.212
-93.787
-78.262
-61.395
-52.295
-53.449
-60.747
-66.219
-67.982
-66.282
-61.362
-57.473
-55.968
-56.444
-59.66
-63.233
-64.954
-64.579
-61.747
-57.078
-51.705
-46.022
-40.306
-35.102
-30.882
-27.938
-26.428
-26.262
-27.194
-29.035
-31.637
-34.816
-38.386
-42.185
-46.049
-49.817
-53.354
-56.552
-59.331
-61.648
-63.483
-64.82
-65.663
-66.049
-66.03
-65.664
-65.01
-64.11
-63.003
-61.746
-60.397
-59.022
-57.687
-56.433
-55.282
-54.251
-53.345
-52.563
-51.896
-51.321
-50.806
-50.325
-49.857
-49.381
-48.882
-48.337
-47.72
-47.008
-46.178
-45.208
-44.081
-42.779
-41.284
-39.584
-37.668
-35.528
-33.16
-30.556
-27.711
-24.621
-21.281
-17.69
-13.85
-9.763
-5.432
-0.864
3.929
8.935
14.14
19.526
25.075
30.766
36.575
42.48
48.454
54.47
60.501
66.517
72.487
78.381
84.166
89.811
95.284
100.552
105.583
110.348
114.815
118.957
122.747
126.158
129.168
131.755
133.899
135.584
136.795
137.52
137.749
137.477
136.701
135.42
133.637
131.359
128.593
125.352
121.648
117.499
112.921
107.937
102.567
96.839
90.776
84.408
77.765
70.876
63.775
56.493
49.064
41.521
33.899
26.229
18.544
10.878
3.261
-4.277
-11.707
-19
-26.131
-33.076
-39.812
-46.318
-52.578
-58.575
-64.295
-69.726
-74.861
-79.692
-84.213
-88.421
-92.316
-95.897
-99.167
-102.129
-104.791
-107.158
-109.24
-111.046
-112.589
-113.879
-114.931
-115.759
-116.375
-116.797
-117.038
-117.113
-117.039
-116.831
-116.504
-116.073
-115.553
-114.957
-114.299
-113.591
-112.844
-112.07
-111.277
-110.474
-109.67
-108.87
-108.08
-107.308
-106.556
-105.829
-105.13
-104.463
-103.828
-103.229
-102.664
-102.136
-101.644
-101.188
-100.767
-100.38
-100.028
-99.707
-99.419
-99.159
-98.928
-98.724
-98.543
-98.384
-98.244
-98.122
-98.016
-97.923
-97.841
-97.77
-97.708
-97.654
-97.605
-97.563
-97.524
-97.488
-97.453
-97.418
-97.382
-97.342
-97.298
-97.248
-97.19
-97.122
-97.043
-96.951
-96.843
-96.716
-96.568
-96.397
-96.199
-95.972
-95.713
-95.421
-95.093
-94.728
-94.323
-93.878
-93.392
-92.863
-92.291
-91.674
-91.014
-90.309
-89.561
-88.771
-87.94
-87.07
-86.164
-85.224
-84.253
-83.255
-82.233
-81.191
-80.132
-79.06
-77.981
-76.898
-75.818
-74.743
-73.681
-72.637
-71.615
-70.621
-69.661
-68.739
-67.859
-67.026
-66.245
-65.519
-64.852
-64.247
-63.706
-63.233
-62.827
-62.491
-62.224
-62.025
-61.892
-61.824
-61.816
-61.865
-61.966
-62.115
-62.306
-62.534
-62.794
-63.079
-63.382
-63.696
-64.016
-64.332
-64.638
-64.927
-65.189
-65.416
-65.602
-65.739
-65.818
-65.832
-65.774
-65.634
-65.407
-65.086
-64.663
-64.134
-63.492
-62.733
-61.855
-60.856
-59.734
-58.49
-57.125
-55.643
-54.047
-52.342
-50.535
-48.63
-46.635
-44.558
-42.409
-40.196
-37.93
-35.622
-33.283
-30.929
-28.575
-26.237
-23.931
-21.673
-19.48
-17.371
-15.361
-13.465
-11.695
-10.067
-8.595
-7.296
-6.185
-5.274
-4.573
-4.09
-3.834
-3.812
-4.022
-4.46
-5.12
-5.999
-7.102
-8.441
-10.022
-11.844
-13.903
-16.191
-18.696
-21.406
-24.293
-27.314
-30.427
-33.593
-36.778
-39.961
-43.104
-46.152
-49.042
-51.698
-54.06
-56.084
-57.727
-58.959
-59.774
-60.185
-60.23
-59.972
-59.466
-58.781
-58.005
-57.226
-56.557
-56.113
-56.041
-56.563
-57.803
-59.73
-62.161
-64.687
-66.852
-68.326
-68.715
-67.462
-64.264
-59.264
-53.105
-47.079
-42.528
-40.261
-40.896
-45.196
-53.484
-65.079
-78.171
-89.604
-95.75
-93.857
-81.413
-55.326
-12.906
47.391
123.804
210.6
301.751
391.708
479.93
570.431
660.658
744.73
809.55
832.613
803.643
720.997
589.587
430.878
263.705
104.266
-26.479
-118.072
-166.252
-171.673
-147.206
-105.794
-58.705
-17.06
14.696
33.105
38.589
37.682
34.511
33.005
33.359
30.633
23.294
11.707
-2.343
-14.971
-24.643
-31.222
-34.242
-34.155
-31.66
-27.562
-23.235
-19.605
-16.894
-15.226
-14.797
-15.688
-17.902
-21.169
-24.862
-28.543
-32.021
-35.153
-37.903
-40.216
-41.989
-43.215
-43.979
-44.332
-44.313
-43.956
-43.237
-42.169
-40.789
-39.125
-37.233
-35.169
-32.983
-30.734
-28.467
-26.209
-23.985
-21.813
-19.698
-17.641
-15.631
-13.649
-11.683
-9.724
-7.759
-5.773
-3.747
-1.656
0.521
2.8
5.199
7.732
10.415
13.262
16.285
19.49
22.885
26.475
30.264
34.259
38.464
42.881
47.511
52.351
57.401
62.657
68.113
73.76
79.587
85.582
91.729
98.015
104.419
110.923
117.503
124.137
130.8
137.467
144.111
150.704
157.219
163.625
169.896
176.003
181.918
187.612
193.06
198.233
203.108
207.661
211.868
215.71
219.167
222.222
224.86
227.069
228.837
230.156
231.02
231.425
231.371
230.858
229.89
228.474
226.617
224.33
221.627
218.523
215.035
211.182
206.984
202.463
197.643
192.548
187.204
181.636
175.872
169.938
163.862
157.672
151.394
145.056
138.684
132.303
125.938
119.614
113.352
107.173
101.098
95.145
89.33
83.67
78.179
72.868
67.749
62.831
58.121
53.625
49.346
45.288
41.451
37.835
34.437
31.256
28.286
25.522
22.96
20.591
18.408
16.404
14.57
12.896
11.373
9.992
8.744
7.619
6.609
5.706
4.901
4.187
3.558
3.007
2.528
2.115
1.765
1.471
1.232
1.044
0.904
0.812
0.767
0.767
0.814
0.909
1.05
1.241
1.481
1.773
2.117
2.516
2.97
3.481
4.051
4.679
5.368
6.118
6.927
7.797
8.724
9.708
10.746
11.835
12.971
14.153
15.374
16.632
17.92
19.235
20.571
21.922
23.281
24.643
26
27.346
28.674
29.978
31.251
32.487
33.68
34.824
35.915
36.947
37.916
38.817
39.648
40.405
41.086
41.69
42.217
42.665
43.037
43.334
43.558
43.712
43.799
43.822
43.785
43.693
43.549
43.359
43.129
42.862
42.566
42.246
41.907
41.558
41.202
40.846
40.495
40.156
39.832
39.528
39.251
39.003
38.788
38.611
38.474
38.381
38.331
38.328
38.369
38.457
38.589
38.764
38.981
39.237
39.529
39.857
40.216
40.603
41.017
41.452
41.906
42.374
42.854
43.34
43.83
44.32
44.805
45.283
45.75
46.202
46.637
47.051
47.44
47.801
48.131
48.429
48.69
48.914
49.099
49.244
49.35
49.418
49.447
49.44
49.396
49.318
49.206
49.064
48.891
48.69
48.462
48.209
47.933
47.636
47.319
46.982
46.626
46.253
45.862
45.455
45.03
44.588
44.128
43.65
43.154
42.639
42.105
41.55
40.971
40.366
39.731
39.06
38.345
37.578
36.752
35.856
34.882
33.821
32.664
31.403
30.035
28.554
26.955
25.228
23.367
21.367
19.222
16.928
14.483
11.88
9.121
6.211
3.157
-0.038
-3.375
-6.867
-10.521
-14.34
-18.325
-22.473
-26.773
-31.209
-35.755
-40.363
-44.987
-49.579
-54.1
-58.526
-62.823
-66.947
-70.847
-74.461
-77.737
-80.649
-83.16
-85.242
-86.912
-88.206
-89.202
-90.023
-90.751
-91.467
-92.277
-93.27
-94.549
-96.223
-98.358
-101.057
-104.495
-108.741
-113.757
-119.338
-125.031
-130.391
-135.011
-138.306
-139.632
-138.632
-135.316
-130.278
-124.665
-119.385
-115.423
-114.198
-116.678
-123.213
-132.185
-139.498
-142.412
-139.43
-130.84
-119.367
-101.931
-72.647
-26.02
46.176
143.812
261.274
392.29
522.084
635.93
719.397
756.156
739.563
670.252
557.788
422.537
284.172
161.637
66.959
-0.472
-45.635
-78.913
-109.862
-139.963
-167.361
-186.738
-193.366
-187.897
-173.834
-156.084
-138.856
-123.728
-110.839
-100.414
-92.927
-88.911
-88.959
-92.844
-99.364
-107.668
-116.999
-126.229
-134.822
-142.266
-147.569
-150.406
-151.043
-149.695
-147.014
-143.924
-140.781
-137.895
-135.79
-134.637
-134.473
-135.29
-136.691
-138.133
-139.342
-140.16
-140.498
-140.419
-139.949
-139.087
-137.979
-136.828
-135.766
-134.858
-134.07
-133.272
-132.398
-131.444
-130.423
-129.373
-128.316
-127.235
-126.124
-124.995
-123.836
-122.623
-121.291
-119.728
-117.862
-115.672
-113.179
-110.449
-107.526
-104.418
-101.139
-97.697
-94.103
-90.368
-86.487
-82.43
-78.19
-73.77
-69.194
-64.509
-59.741
-54.893
-49.958
-44.911
-39.735
-34.428
-28.983
-23.389
-17.644
-11.752
-5.733
0.382
6.565
12.797
19.061
25.343
31.625
37.881
44.087
50.217
56.242
62.136
67.87
73.413
78.736
83.816
88.629
93.158
97.386
101.293
104.861
108.074
110.918
113.379
115.443
117.098
118.333
119.141
119.518
119.459
118.966
118.037
116.678
114.894
112.692
110.083
107.077
103.687
99.929
95.818
91.374
86.614
81.559
76.23
70.651
64.843
58.831
52.639
46.291
39.812
33.226
26.559
19.834
13.077
6.312
-0.438
-7.149
-13.798
-20.362
-26.822
-33.156
-39.346
-45.375
-51.225
-56.882
-62.332
-67.563
-72.564
-77.325
-81.84
-86.102
-90.105
-93.846
-97.324
-100.538
-103.488
-106.175
-108.603
-110.775
-112.696
-114.372
-115.809
-117.014
-117.997
-118.766
-119.331
-119.702
-119.889
-119.905
-119.759
-119.464
-119.032
-118.473
-117.799
-117.023
-116.156
-115.208
-114.191
-113.115
-111.991
-110.827
-109.633
-108.417
-107.186
-105.947
-104.707
-103.471
-102.246
-101.035
-99.843
-98.674
-97.532
-96.418
-95.336
-94.286
-93.271
-92.29
-91.344
-90.434
-89.558
-88.716
-87.907
-87.131
-86.385
-85.668
-84.977
-84.311
-83.666
-83.041
-82.432
-81.836
-81.252
-80.677
-80.108
-79.543
-78.981
-78.42
-77.857
-77.292
-76.722
-76.146
-75.563
-74.971
-74.368
-73.754
-73.128
-72.489
-71.836
-71.169
-70.486
-69.788
-69.075
-68.345
-67.6
-66.839
-66.064
-65.274
-64.472
-63.659
-62.837
-62.009
-61.175
-60.34
-59.505
-58.673
-57.847
-57.029
-56.221
-55.428
-54.65
-53.892
-53.157
-52.447
-51.766
-51.117
-50.503
-49.929
-49.397
-48.912
-48.475
-48.091
-47.764
-47.495
-47.289
-47.148
-47.075
-47.072
-47.141
-47.282
-47.498
-47.787
-48.15
-48.584
-49.09
-49.663
-50.303
-51.007
-51.77
-52.59
-53.463
-54.385
-55.35
-56.355
-57.394
-58.459
-59.546
-60.646
-61.753
-62.859
-63.955
-65.032
-66.084
-67.1
-68.073
-68.993
-69.85
-70.637
-71.344
-71.962
-72.484
-72.901
-73.206
-73.394
-73.458
-73.395
-73.199
-72.868
-72.399
-71.79
-71.041
-70.152
-69.123
-67.955
-66.651
-65.216
-63.653
-61.969
-60.172
-58.271
-56.276
-54.2
-52.057
-49.861
-47.626
-45.368
-43.104
-40.85
-38.619
-36.428
-34.291
-32.223
-30.243
-28.367
-26.612
-24.994
-23.528
-22.226
-21.105
-20.174
-19.436
-18.894
-18.553
-18.421
-18.514
-18.845
-19.417
-20.232
-21.288
-22.578
-24.085
-25.781
-27.619
-29.552
-31.54
-33.544
-35.546
-37.517
-39.421
-41.213
-42.839
-44.25
-45.42
-46.323
-46.925
-47.22
-47.239
-47.049
-46.776
-46.524
-46.354
-46.328
-46.509
-46.981
-47.855
-49.211
-51.093
-53.569
-56.75
-60.692
-65.357
-70.485
-75.545
-80.003
-83.4
-85.226
-84.909
-82.062
-76.638
-69.155
-60.876
-52.939
-46.072
-41.337
-39.722
-41.588
-46.864
-52.855
-55.488
-53.113
-43.271
-25.514
0.099
40.379
97.725
171.577
261.87
358.345
456.447
559.75
664.333
767.18
857.122
906.775
897.198
820.926
679.765
497.431
303.422
120.536
-27.937
-128.221
-179.629
-185.192
-156.08
-112.204
-68.924
-36.495
-21.767
-19.499
-20.975
-22.003
-17.746
-9.681
-4.199
-2.974
-6.623
-13.882
-20.259
-23.958
-25.16
-24.025
-21.658
-18.941
-16.082
-13.628
-12.264
-12.196
-13.377
-15.663
-18.745
-22.384
-26.456
-30.733
-34.94
-38.879
-42.374
-45.324
-47.709
-49.492
-50.647
-51.17
-51.066
-50.37
-49.151
-47.465
-45.372
-42.926
-40.173
-37.174
-34.003
-30.733
-27.443
-24.189
-21.011
-17.939
-14.997
-12.198
-9.551
-7.051
-4.678
-2.417
-0.254
1.826
3.837
5.797
7.729
9.655
11.598
13.578
15.617
17.731
19.936
22.249
24.686
27.267
30.02
32.96
36.098
39.435
42.966
46.688
50.6
54.694
58.951
63.364
67.93
72.663
77.598
82.75
88.119
93.691
99.43
105.318
111.358
117.553
123.91
130.436
137.126
143.999
151.099
158.429
165.96
173.621
181.288
188.869
196.303
203.537
210.543
217.274
223.654
229.626
235.136
240.123
244.528
248.26
251.187
253.239
254.398
254.694
254.229
253.071
251.253
248.812
245.777
242.184
238.086
233.519
228.496
223.054
217.241
211.138
204.867
198.502
192.074
185.586
178.992
172.27
165.428
158.465
151.383
144.187
136.883
129.499
122.087
114.68
107.296
99.942
92.598
85.268
77.977
70.76
63.666
56.738
50.004
43.498
37.256
31.304
25.664
20.343
15.331
10.628
6.239
2.168
-1.575
-4.987
-8.071
-10.833
-13.28
-15.422
-17.269
-18.835
-20.136
-21.187
-22.003
-22.596
-22.974
-23.151
-23.139
-22.955
-22.612
-22.126
-21.513
-20.788
-19.971
-19.077
-18.123
-17.121
-16.088
-15.035
-13.977
-12.925
-11.892
-10.887
-9.921
-9.004
-8.144
-7.35
-6.627
-5.982
-5.419
-4.942
-4.554
-4.257
-4.052
-3.94
-3.918
-3.986
-4.142
-4.383
-4.704
-5.1
-5.567
-6.099
-6.689
-7.329
-8.014
-8.734
-9.483
-10.254
-11.039
-11.831
-12.622
-13.405
-14.174
-14.921
-15.64
-16.325
-16.971
-17.572
-18.125
-18.625
-19.069
-19.455
-19.781
-20.046
-20.249
-20.39
-20.469
-20.489
-20.45
-20.358
-20.214
-20.024
-19.793
-19.526
-19.229
-18.908
-18.57
-18.222
-17.87
-17.52
-17.179
-16.854
-16.552
-16.28
-16.043
-15.847
-15.699
-15.604
-15.567
-15.591
-15.68
-15.838
-16.066
-16.367
-16.744
-17.196
-17.724
-18.33
-19.012
-19.769
-20.6
-21.501
-22.471
-23.505
-24.599
-25.749
-26.95
-28.196
-29.483
-30.805
-32.156
-33.529
-34.92
-36.322
-37.728
-39.132
-40.529
-41.911
-43.275
-44.614
-45.923
-47.198
-48.434
-49.626
-50.772
-51.867
-52.907
-53.887
-54.805
-55.656
-56.438
-57.149
-57.784
-58.341
-58.819
-59.215
-59.528
-59.757
-59.899
-59.954
-59.921
-59.8
-59.591
-59.294
-58.91
-58.441
-57.887
-57.251
-56.535
-55.743
-54.876
-53.939
-52.935
-51.868
-50.742
-49.563
-48.336
-47.071
-45.777
-44.462
-43.138
-41.815
-40.505
-39.22
-37.972
-36.769
-35.62
-34.536
-33.527
-32.606
-31.785
-31.075
-30.487
-30.03
-29.713
-29.545
-29.532
-29.672
-29.964
-30.409
-31.013
-31.792
-32.761
-33.925
-35.287
-36.847
-38.596
-40.527
-42.619
-44.833
-47.133
-49.482
-51.85
-54.22
-56.573
-58.869
-61.06
-63.079
-64.866
-66.386
-67.606
-68.494
-69.05
-69.29
-69.268
-69.078
-68.793
-68.48
-68.215
-68.075
-68.158
-68.58
-69.446
-70.899
-73.139
-76.252
-80.188
-84.74
-89.462
-93.883
-97.634
-100.262
-101.177
-100.032
-96.92
-92.446
-87.838
-84.338
-82.626
-83.204
-86.772
-93.68
-103.364
-114.18
-123.093
-126.667
-122.501
-108.374
-81.491
-39.339
19.927
94.869
179.969
269.69
358.888
447.319
539.445
632.466
719.882
788.154
814.332
788.296
708.293
578.409
418.991
248.023
81.986
-55.977
-151.676
-199.898
-202.896
-177.677
-144.848
-116.59
-98.556
-88.404
-79.349
-69.656
-60.807
-55.162
-55.665
-61.958
-71.463
-81.575
-89.69
-94.581
-96.249
-94.982
-91.419
-86.398
-80.707
-75.236
-70.848
-67.948
-66.628
-66.812
-68.246
-70.715
-74.041
-77.989
-82.326
-86.878
-91.493
-96.042
-100.421
-104.489
-108.125
-111.254
-113.821
-115.812
-117.233
-118.097
-118.437
-118.302
-117.737
-116.787
-115.493
-113.894
-112.044
-110.002
-107.833
-105.6
-103.349
-101.11
-98.905
-96.742
-94.618
-92.526
-90.445
-88.351
-86.227
-84.057
-81.828
-79.529
-77.144
-74.656
-72.049
-69.305
-66.412
-63.357
-60.13
-56.721
-53.126
-49.342
-45.367
-41.203
-36.85
-32.308
-27.576
-22.656
-17.549
-12.261
-6.794
-1.156
4.646
10.6
16.694
22.914
29.244
35.666
42.162
48.711
55.292
61.881
68.453
74.985
81.449
87.819
94.067
100.166
106.088
111.807
117.296
122.529
127.481
132.127
136.446
140.416
144.016
147.229
150.037
152.426
154.382
155.894
156.953
157.552
157.686
157.353
156.552
155.287
153.56
151.38
148.756
145.7
142.224
138.346
134.084
129.456
124.485
119.195
113.609
107.753
101.654
95.339
88.837
82.174
75.38
68.482
61.509
54.489
47.447
40.41
33.405
26.456
19.586
12.819
6.177
-0.321
-6.654
-12.805
-18.756
-24.493
-30.002
-35.271
-40.289
-45.048
-49.541
-53.763
-57.709
-61.379
-64.771
-67.887
-70.728
-73.299
-75.605
-77.651
-79.444
-80.993
-82.304
-83.387
-84.25
-84.905
-85.359
-85.624
-85.709
-85.625
-85.381
-84.99
-84.461
-83.805
-83.034
-82.157
-81.186
-80.131
-79.002
-77.809
-76.561
-75.268
-73.936
-72.576
-71.194
-69.797
-68.392
-66.984
-65.579
-64.181
-62.795
-61.424
-60.072
-58.741
-57.434
-56.153
-54.901
-53.68
-52.493
-51.34
-50.223
-49.144
-48.103
-47.1
-46.136
-45.21
-44.321
-43.468
-42.65
-41.865
-41.112
-40.389
-39.694
-39.024
-38.377
-37.752
-37.145
-36.555
-35.979
-35.416
-34.863
-34.32
-33.785
-33.257
-32.734
-32.217
-31.703
-31.192
-30.683
-30.173
-29.664
-29.152
-28.638
-28.121
-27.601
-27.078
-26.554
-26.028
-25.502
-24.977
-24.455
-23.938
-23.427
-22.924
-22.432
-21.953
-21.489
-21.043
-20.618
-20.216
-19.839
-19.489
-19.169
-18.879
-18.622
-18.398
-18.21
-18.058
-17.944
-17.869
-17.836
-17.844
-17.896
-17.993
-18.135
-18.324
-18.559
-18.84
-19.167
-19.539
-19.953
-20.409
-20.904
-21.438
-22.006
-22.606
-23.235
-23.89
-24.568
-25.263
-25.972
-26.691
-27.415
-28.14
-28.861
-29.573
-30.271
-30.951
-31.606
-32.231
-32.822
-33.37
-33.87
-34.315
-34.699
-35.014
-35.255
-35.416
-35.489
-35.47
-35.353
-35.134
-34.811
-34.378
-33.832
-33.173
-32.397
-31.505
-30.497
-29.373
-28.135
-26.787
-25.333
-23.777
-22.126
-20.386
-18.566
-16.676
-14.728
-12.733
-10.706
-8.662
-6.616
-4.585
-2.587
-0.637
1.247
3.049
4.753
6.342
7.796
9.098
10.23
11.177
11.925
12.459
12.767
12.844
12.687
12.293
11.655
10.759
9.595
8.157
6.441
4.447
2.181
-0.347
-3.112
-6.078
-9.204
-12.455
-15.799
-19.214
-22.676
-26.15
-29.591
-32.943
-36.146
-39.16
-41.945
-44.449
-46.649
-48.558
-50.217
-51.716
-53.134
-54.497
-55.843
-57.228
-58.702
-60.352
-62.277
-64.534
-67.238
-70.59
-74.656
-79.378
-84.559
-89.662
-94.072
-97.309
-98.774
-97.79
-94.127
-87.999
-79.964
-71.422
-64.172
-59.414
-58.23
-62.003
-69.712
-79.365
-90.409
-99.508
-105.481
-108.137
-99.878
-74.757
-26.375
50.22
146.56
253.414
361.641
464.205
565.635
665.005
755.642
825.203
852.31
828.559
756.534
647.397
520.931
384.937
242.453
98.118
-43.785
-166.855
-253.035
-294.27
-287.711
-242.406
-176.045
-103.567
-41.481
-1.616
15.436
14.28
5.843
0.608
1.019
4.535
5.252
-0.974
-13.18
-27.916
-41.174
-50.574
-55.865
-57.563
-56.486
-53.382
-49.13
-44.88
-41.44
-39.315
-38.707
-39.515
-41.611
-44.773
-48.572
-52.449
-55.976
-58.908
-61.16
-62.775
-63.777
-64.171
-63.998
-63.342
-62.283
-60.871
-59.135
-57.078
-54.713
-52.097
-49.294
-46.38
-43.431
-40.492
-37.593
-34.76
-32.011
-29.358
-26.809
-24.361
-21.999
-19.717
-17.511
-15.373
-13.3
-11.276
-9.277
-7.282
-5.267
-3.213
-1.102
1.08
3.352
5.728
8.22
10.841
13.598
16.503
19.57
22.809
26.233
29.85
33.667
37.691
41.927
46.379
51.045
55.926
61.017
66.312
71.805
77.485
83.341
89.359
95.522
101.811
108.206
114.684
121.22
127.786
134.354
140.894
147.375
153.765
160.033
166.144
172.067
177.77
183.22
188.387
193.241
197.75
201.889
205.629
208.945
211.815
214.216
216.13
217.539
218.431
218.794
218.618
217.898
216.631
214.817
212.457
209.558
206.129
202.18
197.727
192.787
187.381
181.53
175.262
168.601
161.579
154.224
146.57
138.649
130.495
122.143
113.628
104.984
96.248
87.455
78.64
69.837
61.08
52.401
43.833
35.406
27.147
19.086
11.246
3.653
-3.673
-10.712
-17.446
-23.861
-29.942
-35.681
-41.068
-46.099
-50.772
-55.084
-59.038
-62.638
-65.889
-68.799
-71.375
-73.63
-75.573
-77.218
-78.579
-79.67
-80.506
-81.104
-81.479
-81.649
-81.63
-81.44
-81.094
-80.611
-80.007
-79.297
-78.498
-77.624
-76.692
-75.714
-74.704
-73.675
-72.637
-71.602
-70.578
-69.574
-68.596
-67.651
-66.742
-65.874
-65.048
-64.267
-63.532
-62.843
-62.2
-61.601
-61.046
-60.533
-60.059
-59.623
-59.221
-58.85
-58.508
-58.192
-57.897
-57.622
-57.362
-57.114
-56.876
-56.642
-56.411
-56.178
-55.941
-55.695
-55.439
-55.17
-54.886
-54.584
-54.263
-53.923
-53.563
-53.183
-52.783
-52.364
-51.927
-51.473
-51.004
-50.52
-50.023
-49.516
-49
-48.478
-47.951
-47.422
-46.892
-46.363
-45.839
-45.32
-44.809
-44.309
-43.821
-43.349
-42.895
-42.461
-42.052
-41.67
-41.318
-40.999
-40.716
-40.471
-40.268
-40.109
-39.996
-39.931
-39.915
-39.952
-40.04
-40.183
-40.38
-40.632
-40.939
-41.301
-41.719
-42.192
-42.719
-43.301
-43.935
-44.621
-45.357
-46.141
-46.973
-47.849
-48.767
-49.723
-50.715
-51.738
-52.788
-53.861
-54.952
-56.056
-57.166
-58.278
-59.385
-60.48
-61.557
-62.61
-63.63
-64.613
-65.551
-66.439
-67.268
-68.034
-68.73
-69.35
-69.889
-70.341
-70.701
-70.963
-71.123
-71.177
-71.122
-70.955
-70.673
-70.274
-69.757
-69.122
-68.37
-67.502
-66.518
-65.422
-64.219
-62.913
-61.51
-60.018
-58.445
-56.801
-55.1
-53.353
-51.574
-49.777
-47.976
-46.187
-44.424
-42.701
-41.03
-39.424
-37.898
-36.466
-35.144
-33.948
-32.891
-31.988
-31.252
-30.694
-30.324
-30.147
-30.167
-30.386
-30.814
-31.465
-32.351
-33.482
-34.859
-36.484
-38.346
-40.432
-42.712
-45.144
-47.684
-50.286
-52.912
-55.533
-58.118
-60.631
-63.023
-65.237
-67.22
-68.931
-70.336
-71.404
-72.13
-72.545
-72.713
-72.746
-72.745
-72.788
-72.952
-73.325
-74.008
-75.11
-76.738
-78.962
-81.874
-85.63
-90.282
-95.76
-101.812
-107.931
-113.574
-118.313
-121.673
-123.065
-122.153
-118.921
-113.802
-107.909
-102.326
-97.699
-94.63
-93.742
-95.194
-98.487
-102.158
-103.495
-99.716
-88.427
-67.212
-33.662
14.492
77.192
151.384
232.996
317.112
402.796
493.423
587.151
678.052
752.241
788.68
777.742
718.867
622.251
506.633
379.797
247.515
114.664
-12.951
-116.532
-183.061
-209.791
-202.514
-180.39
-156.921
-136.1
-118.097
-97.785
-74.235
-51.055
-31.314
-18.043
-12.264
-13.427
-20.343
-31.003
-43.095
-54.529
-64.191
-71.85
-77.316
-80.164
-80.353
-78.28
-74.912
-71.608
-69.084
-67.482
-66.879
-67.36
-68.971
-71.652
-75.054
-78.53
-81.631
-84.182
-86.11
-87.437
-88.165
-88.246
-87.696
-86.625
-85.139
-83.307
-81.172
-78.73
-75.989
-73.003
-69.834
-66.563
-63.268
-59.998
-56.78
-53.64
-50.594
-47.653
-44.827
-42.11
-39.481
-36.925
-34.431
-31.993
-29.608
-27.26
-24.927
-22.581
-20.196
-17.752
-15.233
-12.62
-9.896
-7.045
-4.052
-0.907
2.397
5.87
9.525
13.371
17.418
21.675
26.146
30.835
35.745
40.876
46.225
51.787
57.555
63.518
69.666
75.984
82.457
89.066
95.791
102.61
109.497
116.428
123.374
130.306
137.193
144.005
150.709
157.274
163.666
169.853
175.804
181.488
186.872
191.929
196.629
200.944
204.85
208.321
211.336
213.873
215.916
217.448
218.457
218.933
218.868
218.258
217.101
215.4
213.158
210.383
207.084
203.276
198.974
194.195
188.961
183.295
177.221
170.767
163.962
156.834
149.416
141.74
133.838
125.745
117.494
109.12
100.657
92.141
83.606
75.085
66.611
58.218
49.936
41.796
33.825
26.051
18.499
11.191
4.148
-2.61
-9.067
-15.21
-21.026
-26.507
-31.643
-36.432
-40.87
-44.957
-48.694
-52.084
-55.133
-57.846
-60.233
-62.301
-64.061
-65.526
-66.707
-67.619
-68.277
-68.696
-68.892
-68.882
-68.684
-68.314
-67.79
-67.129
-66.349
-65.465
-64.494
-63.452
-62.352
-61.209
-60.036
-58.844
-57.644
-56.446
-55.257
-54.087
-52.941
-51.824
-50.741
-49.697
-48.695
-47.738
-46.828
-45.967
-45.157
-44.399
-43.692
-43.038
-42.435
-41.883
-41.379
-40.923
-40.511
-40.143
-39.815
-39.525
-39.27
-39.048
-38.856
-38.691
-38.552
-38.435
-38.339
-38.263
-38.205
-38.164
-38.14
-38.133
-38.143
-38.169
-38.212
-38.271
-38.347
-38.437
-38.543
-38.661
-38.792
-38.933
-39.084
-39.244
-39.41
-39.581
-39.756
-39.934
-40.113
-40.291
-40.468
-40.643
-40.815
-40.982
-41.145
-41.304
-41.459
-41.609
-41.756
-41.897
-42.035
-42.168
-42.297
-42.421
-42.541
-42.657
-42.771
-42.883
-42.996
-43.112
-43.233
-43.361
-43.5
-43.653
-43.823
-44.013
-44.227
-44.469
-44.741
-45.048
-45.392
-45.776
-46.202
-46.672
-47.188
-47.748
-48.354
-49.003
-49.695
-50.428
-51.198
-52.003
-52.84
-53.704
-54.592
-55.498
-56.417
-57.344
-58.27
-59.189
-60.093
-60.974
-61.823
-62.631
-63.39
-64.09
-64.721
-65.275
-65.743
-66.114
-66.381
-66.533
-66.562
-66.462
-66.226
-65.848
-65.324
-64.651
-63.827
-62.852
-61.725
-60.451
-59.03
-57.468
-55.769
-53.941
-51.992
-49.93
-47.767
-45.515
-43.189
-40.807
-38.385
-35.942
-33.498
-31.072
-28.684
-26.354
-24.099
-21.936
-19.882
-17.956
-16.179
-14.569
-13.143
-11.917
-10.905
-10.119
-9.571
-9.27
-9.212
-9.398
-9.829
-10.51
-11.459
-12.688
-14.2
-15.995
-18.068
-20.407
-23.001
-25.823
-28.827
-31.968
-35.199
-38.483
-41.796
-45.105
-48.362
-51.508
-54.464
-57.164
-59.557
-61.599
-63.261
-64.532
-65.428
-65.99
-66.295
-66.423
-66.46
-66.51
-66.666
-67.007
-67.602
-68.568
-70.105
-72.381
-75.45
-79.15
-83.123
-87.017
-90.558
-93.369
-94.888
-94.574
-92.174
-88.169
-83.596
-79.385
-76.415
-75.619
-77.978
-84.547
-94.546
-104.404
-110.449
-110.552
-106.37
-102.098
-97.875
-86.603
-55.238
7.227
103.545
225.434
357.061
487.441
609.749
719.115
810.895
871.861
888.692
856.184
777.071
664.696
532.691
389.237
241.595
96.764
-31.929
-127.612
-181.556
-194.714
-179.576
-154.412
-130.384
-111.648
-96.867
-81.674
-66.009
-52.11
-41.961
-37.57
-38.463
-42.688
-48.421
-53.616
-56.665
-57.034
-54.868
-50.701
-45.361
-39.599
-34.003
-29.195
-25.761
-23.962
-23.773
-25.017
-27.355
-30.489
-34.212
-38.295
-42.509
-46.672
-50.595
-54.119
-57.168
-59.677
-61.601
-62.93
-63.646
-63.752
-63.296
-62.337
-60.94
-59.17
-57.076
-54.706
-52.122
-49.39
-46.584
-43.776
-41.015
-38.329
-35.74
-33.258
-30.888
-28.629
-26.46
-24.353
-22.286
-20.239
-18.2
-16.155
-14.085
-11.967
-9.782
-7.509
-5.131
-2.635
-0.005
2.771
5.704
8.801
12.067
15.504
19.116
22.908
26.884
31.047
35.398
39.937
44.663
49.574
54.664
59.925
65.348
70.92
76.629
82.461
88.397
94.42
100.509
106.644
112.802
118.958
125.088
131.163
137.158
143.045
148.794
154.379
159.771
164.942
169.864
174.513
178.862
182.887
186.565
189.876
192.798
195.314
197.408
199.064
200.27
201.017
201.295
201.099
200.427
199.278
197.652
195.555
192.992
189.973
186.508
182.61
178.296
173.583
168.49
163.04
157.254
151.158
144.778
138.14
131.273
124.203
116.961
109.575
102.073
94.484
86.837
79.159
71.479
63.822
56.214
48.681
41.246
33.932
26.762
19.754
12.928
6.301
-0.111
-6.295
-12.237
-17.927
-23.356
-28.517
-33.405
-38.016
-42.348
-46.4
-50.176
-53.676
-56.905
-59.869
-62.573
-65.026
-67.234
-69.207
-70.954
-72.484
-73.807
-74.934
-75.875
-76.64
-77.241
-77.688
-77.992
-78.163
-78.213
-78.151
-77.988
-77.734
-77.397
-76.988
-76.514
-75.983
-75.403
-74.782
-74.124
-73.437
-72.724
-71.99
-71.24
-70.477
-69.704
-68.922
-68.135
-67.345
-66.553
-65.761
-64.97
-64.183
-63.4
-62.623
-61.854
-61.094
-60.344
-59.606
-58.88
-58.168
-57.47
-56.789
-56.123
-55.475
-54.844
-54.232
-53.64
-53.067
-52.514
-51.982
-51.471
-50.982
-50.514
-50.068
-49.644
-49.243
-48.865
-48.509
-48.175
-47.864
-47.576
-47.308
-47.062
-46.836
-46.628
-46.438
-46.265
-46.107
-45.963
-45.831
-45.71
-45.599
-45.498
-45.405
-45.319
-45.239
-45.166
-45.098
-45.036
-44.98
-44.93
-44.888
-44.853
-44.828
-44.814
-44.812
-44.826
-44.857
-44.906
-44.977
-45.072
-45.192
-45.341
-45.521
-45.733
-45.98
-46.265
-46.589
-46.953
-47.358
-47.807
-48.297
-48.831
-49.407
-50.024
-50.681
-51.376
-52.107
-52.87
-53.662
-54.479
-55.317
-56.17
-57.03
-57.893
-58.751
-59.595
-60.417
-61.207
-61.958
-62.659
-63.301
-63.876
-64.373
-64.784
-65.099
-65.311
-65.412
-65.392
-65.246
-64.968
-64.552
-63.994
-63.292
-62.442
-61.444
-60.297
-59.002
-57.562
-55.98
-54.26
-52.409
-50.433
-48.341
-46.144
-43.852
-41.478
-39.036
-36.545
-34.023
-31.489
-28.965
-26.47
-24.028
-21.66
-19.386
-17.227
-15.198
-13.317
-11.6
-10.066
-8.733
-7.616
-6.729
-6.084
-5.69
-5.559
-5.691
-6.084
-6.733
-7.632
-8.784
-10.2
-11.887
-13.845
-16.074
-18.568
-21.31
-24.28
-27.444
-30.751
-34.152
-37.599
-41.053
-44.489
-47.873
-51.159
-54.296
-57.21
-59.84
-62.137
-64.044
-65.519
-66.573
-67.229
-67.552
-67.636
-67.533
-67.301
-67.027
-66.764
-66.587
-66.595
-66.858
-67.53
-68.864
-70.948
-73.748
-77.105
-80.519
-83.415
-85.323
-85.555
-83.349
-78.507
-71.214
-62
-52.447
-44.428
-39.427
-39.193
-44.173
-52.444
-61.888
-71.07
-80.805
-93.414
-107.797
-116.447
-104.132
-56.84
29.079
146.839
278.265
407.103
529.034
643.44
750.879
844.81
906.63
919.973
877.967
784.514
654.598
502.692
338.493
171.972
13.314
-122.354
-218.184
-266.136
-265.617
-226.524
-167.03
-103.365
-51.772
-22.493
-14.838
-23.75
-38.648
-49.903
-55.64
-57.16
-58.442
-62.68
-69.127
-75.647
-79.762
-80.125
-76.804
-70.861
-64.066
-57.613
-52.238
-48.379
-45.98
-45.024
-45.674
-47.761
-50.844
-54.555
-58.5
-62.424
-66.278
-69.943
-73.229
-76.026
-78.282
-79.976
-81.144
-81.799
-81.919
-81.519
-80.638
-79.323
-77.641
-75.648
-73.387
-70.917
-68.3
-65.602
-62.89
-60.213
-57.601
-55.074
-52.64
-50.299
-48.044
-45.858
-43.717
-41.599
-39.482
-37.346
-35.175
-32.947
-30.642
-28.237
-25.711
-23.045
-20.221
-17.224
-14.041
-10.659
-7.071
-3.27
0.75
4.992
9.462
14.162
19.096
24.264
29.664
35.294
41.148
47.218
53.492
59.958
66.599
73.397
80.334
87.388
94.535
101.751
109.009
116.283
123.542
130.758
137.898
144.931
151.824
158.544
165.059
171.335
177.34
183.043
188.413
193.419
198.033
202.228
205.979
209.262
212.055
214.34
216.102
217.327
218.004
218.126
217.69
216.693
215.14
213.033
210.38
207.193
203.484
199.268
194.564
189.393
183.776
177.739
171.309
164.515
157.385
149.953
142.25
134.311
126.17
117.863
109.424
100.889
92.294
83.675
75.065
66.499
58.009
49.626
41.38
33.298
25.406
17.727
10.283
3.093
-3.827
-10.46
-16.794
-22.82
-28.528
-33.912
-38.968
-43.694
-48.09
-52.159
-55.902
-59.327
-62.439
-65.248
-67.762
-69.994
-71.956
-73.662
-75.125
-76.361
-77.387
-78.218
-78.872
-79.366
-79.715
-79.937
-80.047
-80.06
-79.99
-79.85
-79.653
-79.411
-79.133
-78.83
-78.509
-78.178
-77.844
-77.512
-77.187
-76.872
-76.57
-76.282
-76.011
-75.757
-75.52
-75.298
-75.091
-74.896
-74.712
-74.534
-74.36
-74.185
-74.005
-73.815
-73.611
-73.388
-73.14
-72.865
-72.557
-72.213
-71.831
-71.407
-70.94
-70.428
-69.87
-69.267
-68.618
-67.925
-67.189
-66.412
-65.596
-64.744
-63.86
-62.945
-62.004
-61.04
-60.057
-59.059
-58.05
-57.034
-56.016
-55.001
-53.992
-52.995
-52.016
-51.058
-50.128
-49.229
-48.368
-47.549
-46.777
-46.058
-45.393
-44.784
-44.233
-43.742
-43.313
-42.952
-42.653
-42.412
-42.24
-42.145
-42.132
-42.213
-42.376
-42.598
-42.894
-43.281
-43.715
-44.165
-44.607
-44.999
-45.372
-45.782
-46.193
-46.542
-46.984
-47.705
-48.588
-49.641
-50.893
-51.936
-53.858
-57.721
-61.999
-66.224
-67.597
-62.768
-55.434
-48.061
-44.317
-49.248
-58.383
-67.932
-75.297
-76.186
-73.658
-70.815
-68.341
-68.124
-69.058
-69.725
-70.387
-70.858
-71.226
-71.77
-72.297
-72.651
-72.875
-72.975
-72.926
-72.73
-72.391
-71.912
-71.319
-70.641
-69.862
-68.97
-67.969
-66.86
-65.643
-64.324
-62.9
-61.371
-59.744
-58.024
-56.217
-54.331
-52.375
-50.358
-48.292
-46.191
-44.069
-41.94
-39.819
-37.722
-35.665
-33.66
-31.722
-29.862
-28.097
-26.442
-24.914
-23.529
-22.299
-21.24
-20.363
-19.68
-19.201
-18.926
-18.854
-18.99
-19.341
-19.926
-20.762
-21.854
-23.206
-24.818
-26.68
-28.781
-31.095
-33.574
-36.172
-38.843
-41.547
-44.265
-46.968
-49.614
-52.144
-54.486
-56.577
-58.381
-59.866
-60.995
-61.769
-62.208
-62.377
-62.393
-62.35
-62.331
-62.421
-62.701
-63.274
-64.271
-65.805
-68.022
-71.117
-75.165
-80.111
-85.75
-91.624
-97.218
-102.071
-105.617
-107.171
-106.32
-103.128
-98.181
-92.72
-88.068
-85.059
-84.41
-87.015
-93.301
-102.653
-113.304
-122.006
-125.023
-119.653
-103.266
-72.688
-25.387
40.265
122.601
215.665
313.501
411.065
507.253
604.75
700.265
785.546
846.384
864.149
831.398
750.605
631.975
492.004
341.591
189.554
45.973
-77.684
-165.597
-208.056
-205.449
-166.392
-111.527
-61.053
-27.027
-17.703
-27.776
-44.63
-60.639
-68.082
-66.964
-64.581
-63.728
-65.913
-70.287
-72.681
-71.802
-68.239
-62.666
-56.494
-50.581
-45.174
-40.772
-37.733
-36.075
-35.669
-36.285
-37.711
-39.805
-42.436
-45.426
-48.602
-51.82
-54.956
-57.899
-60.519
-62.711
-64.409
-65.576
-66.204
-66.304
-65.901
-65.038
-63.776
-62.166
-60.258
-58.096
-55.721
-53.188
-50.557
-47.892
-45.25
-42.673
-40.185
-37.801
-35.525
-33.352
-31.265
-29.242
-27.25
-25.266
-23.269
-21.24
-19.163
-17.016
-14.776
-12.422
-9.934
-7.292
-4.48
-1.482
1.713
5.117
8.735
12.573
16.632
20.914
25.423
30.159
35.123
40.314
45.73
51.364
57.212
63.264
69.509
75.932
82.517
89.245
96.095
103.045
110.07
117.144
124.24
131.33
138.384
145.371
152.26
159.019
165.616
172.018
178.193
184.109
189.735
195.042
200.001
204.585
208.768
212.526
215.836
218.678
221.034
222.885
224.219
225.023
225.288
225.006
224.175
222.794
220.866
218.396
215.393
211.867
207.832
203.305
198.305
192.852
186.97
180.684
174.022
167.014
159.69
152.083
144.225
136.15
127.894
119.49
110.974
102.379
93.741
85.092
76.467
67.899
59.419
51.059
42.847
34.812
26.979
19.374
12.018
4.931
-1.868
-8.364
-14.543
-20.395
-25.91
-31.082
-35.906
-40.38
-44.503
-48.279
-51.71
-54.804
-57.568
-60.012
-62.145
-63.981
-65.533
-66.814
-67.839
-68.624
-69.185
-69.539
-69.702
-69.692
-69.526
-69.222
-68.796
-68.265
-67.645
-66.952
-66.198
-65.399
-64.567
-63.714
-62.85
-61.987
-61.131
-60.293
-59.478
-58.692
-57.94
-57.226
-56.551
-55.919
-55.329
-54.782
-54.277
-53.814
-53.39
-53.005
-52.655
-52.339
-52.052
-51.792
-51.554
-51.336
-51.133
-50.941
-50.757
-50.578
-50.4
-50.22
-50.037
-49.848
-49.65
-49.442
-49.222
-48.99
-48.745
-48.485
-48.212
-47.926
-47.627
-47.317
-46.996
-46.668
-46.333
-45.994
-45.651
-45.309
-44.968
-44.631
-44.301
-43.98
-43.67
-43.375
-43.097
-42.838
-42.601
-42.389
-42.202
-42.044
-41.915
-41.817
-41.752
-41.719
-41.722
-41.759
-41.832
-41.942
-42.087
-42.269
-42.486
-42.739
-43.025
-43.344
-43.695
-44.077
-44.489
-44.928
-45.394
-45.886
-46.4
-46.936
-47.491
-48.063
-48.649
-49.246
-49.851
-50.463
-51.078
-51.693
-52.307
-52.915
-53.515
-54.105
-54.682
-55.243
-55.784
-56.303
-56.798
-57.266
-57.706
-58.115
-58.491
-58.832
-59.137
-59.404
-59.631
-59.815
-59.955
-60.047
-60.09
-60.082
-60.022
-59.908
-59.739
-59.513
-59.231
-58.891
-58.493
-58.037
-57.52
-56.944
-56.309
-55.614
-54.862
-54.053
-53.188
-52.269
-51.298
-50.278
-49.211
-48.099
-46.943
-45.748
-44.517
-43.253
-41.961
-40.646
-39.314
-37.975
-36.635
-35.307
-33.998
-32.72
-31.483
-30.297
-29.173
-28.118
-27.141
-26.249
-25.45
-24.752
-24.167
-23.702
-23.366
-23.168
-23.114
-23.212
-23.467
-23.874
-24.432
-25.138
-25.995
-27.015
-28.207
-29.571
-31.111
-32.827
-34.71
-36.748
-38.91
-41.145
-43.406
-45.644
-47.819
-49.904
-51.868
-53.668
-55.259
-56.589
-57.612
-58.305
-58.641
-58.583
-58.129
-57.317
-56.227
-54.998
-53.756
-52.584
-51.569
-50.814
-50.428
-50.547
-51.298
-52.752
-55
-58.189
-62.372
-67.489
-73.303
-79.251
-84.665
-88.959
-91.458
-91.427
-88.512
-82.742
-74.588
-65.388
-56.623
-49.444
-45.203
-45.136
-49.445
-57.304
-66.891
-74.81
-77.087
-70.057
-49.495
-11.04
46.397
120.537
208.618
305.543
410.12
526.084
648.988
769.154
868.266
920.529
915.428
854.49
750.639
624.763
483.897
331.966
174.015
18.75
-109.492
-192.805
-226.058
-216.223
-186.619
-154.412
-126.984
-105.927
-84.858
-61.858
-39.732
-21.327
-11.03
-10.375
-17.399
-29.343
-42.596
-54.261
-63.206
-69.025
-71.494
-70.518
-66.375
-60.014
-53.025
-46.819
-42.071
-38.961
-37.467
-37.625
-39.45
-42.681
-46.736
-51.035
-55.22
-59.094
-62.581
-65.601
-68.03
-69.813
-70.98
-71.582
-71.664
-71.265
-70.397
-69.081
-67.366
-65.302
-62.945
-60.365
-57.625
-54.798
-51.955
-49.147
-46.407
-43.761
-41.224
-38.802
-36.491
-34.274
-32.126
-30.03
-27.968
-25.924
-23.879
-21.808
-19.684
-17.485
-15.188
-12.773
-10.22
-7.51
-4.627
-1.558
1.71
5.184
8.871
12.778
16.913
21.284
25.893
30.744
35.837
41.171
46.746
52.554
58.588
64.836
71.285
77.92
84.724
91.677
98.757
105.942
113.205
120.521
127.86
135.192
142.486
149.71
156.83
163.813
170.623
177.227
183.591
189.68
195.462
200.904
205.975
210.647
214.89
218.679
221.991
224.802
227.094
228.851
230.057
230.702
230.778
230.28
229.206
227.556
225.334
222.548
219.208
215.325
210.915
205.996
200.59
194.718
188.408
181.687
174.584
167.132
159.363
151.313
143.018
134.513
125.836
117.024
108.115
99.147
90.155
81.177
72.248
63.401
54.67
46.085
37.678
29.475
21.501
13.782
6.338
-0.811
-7.649
-14.16
-20.332
-26.156
-31.623
-36.728
-41.469
-45.844
-49.856
-53.508
-56.807
-59.761
-62.38
-64.675
-66.659
-68.348
-69.758
-70.904
-71.804
-72.477
-72.94
-73.214
-73.317
-73.268
-73.085
-72.788
-72.392
-71.916
-71.376
-70.786
-70.161
-69.514
-68.858
-68.202
-67.558
-66.934
-66.339
-65.778
-65.257
-64.781
-64.353
-63.975
-63.647
-63.371
-63.144
-62.965
-62.831
-62.74
-62.688
-62.67
-62.683
-62.72
-62.778
-62.851
-62.934
-63.021
-63.108
-63.189
-63.261
-63.32
-63.362
-63.385
-63.386
-63.364
-63.319
-63.249
-63.153
-63.034
-62.89
-62.724
-62.537
-62.331
-62.108
-61.871
-61.624
-61.369
-61.11
-60.85
-60.592
-60.339
-60.095
-59.862
-59.643
-59.441
-59.26
-59.1
-58.966
-58.859
-58.782
-58.735
-58.722
-58.741
-58.794
-58.881
-59
-59.152
-59.334
-59.547
-59.788
-60.055
-60.346
-60.66
-60.993
-61.342
-61.706
-62.082
-62.466
-62.856
-63.252
-63.65
-64.051
-64.453
-64.856
-65.259
-65.663
-66.068
-66.473
-66.878
-67.285
-67.692
-68.1
-68.51
-68.922
-69.335
-69.75
-70.168
-70.588
-71.011
-71.435
-71.861
-72.287
-72.714
-73.141
-73.568
-73.994
-74.419
-74.841
-75.259
-75.671
-76.074
-76.465
-76.84
-77.193
-77.521
-77.817
-78.075
-78.291
-78.457
-78.568
-78.618
-78.602
-78.513
-78.348
-78.1
-77.765
-77.342
-76.826
-76.217
-75.513
-74.716
-73.825
-72.844
-71.774
-70.619
-69.381
-68.064
-66.673
-65.213
-63.69
-62.112
-60.489
-58.834
-57.16
-55.483
-53.818
-52.18
-50.589
-49.059
-47.605
-46.24
-44.976
-43.826
-42.805
-41.929
-41.208
-40.655
-40.278
-40.084
-40.081
-40.272
-40.656
-41.228
-41.983
-42.922
-44.054
-45.398
-46.964
-48.755
-50.77
-53.004
-55.449
-58.094
-60.908
-63.842
-66.845
-69.868
-72.869
-75.814
-78.655
-81.327
-83.758
-85.863
-87.574
-88.849
-89.663
-89.995
-89.849
-89.241
-88.207
-86.855
-85.311
-83.708
-82.205
-80.933
-80.01
-79.624
-80.028
-81.37
-83.674
-86.744
-90.122
-93.392
-96.238
-98.257
-98.948
-97.96
-95.259
-91.431
-87.727
-85.379
-85.262
-88.06
-94.375
-104.439
-117.762
-132.581
-145.771
-153.812
-153.603
-142.177
-116.417
-73.576
-11.493
68.218
159.753
257.432
355.251
452.746
555.306
660.491
761.383
842.784
878.328
855.373
771.76
633.065
463.159
282.471
108.84
-34.112
-133.897
-186.112
-193.477
-173.928
-146.866
-122.438
-104.79
-90.205
-71.938
-50.076
-28.164
-9.946
0.419
1.729
-4.544
-16.499
-31.796
-47.796
-62.41
-74.583
-83.675
-89.149
-91.031
-89.671
-85.674
-80.326
-75.025
-70.484
-67.122
-65.272
-64.934
-66.061
-68.557
-71.945
-75.641
-79.299
-82.664
-85.561
-87.975
-89.853
-91.13
-91.853
-92.081
-91.846
-91.195
-90.147
-88.693
-86.86
-84.685
-82.209
-79.497
-76.609
-73.607
-70.554
-67.493
-64.455
-61.467
-58.541
-55.685
-52.901
-50.179
-47.503
-44.863
-42.247
-39.643
-37.038
-34.409
-31.734
-28.994
-26.169
-23.244
-20.205
-17.035
-13.723
-10.256
-6.627
-2.829
1.143
5.296
9.636
14.169
18.899
23.827
28.955
34.281
39.805
45.52
51.42
57.494
63.729
70.111
76.623
83.246
89.96
96.742
103.568
110.411
117.245
124.042
130.771
137.404
143.908
150.254
156.41
162.347
168.032
173.438
178.535
183.296
187.693
191.701
195.297
198.456
201.159
203.386
205.122
206.351
207.063
207.248
206.9
206.018
204.601
202.653
200.179
197.189
193.695
189.712
185.257
180.35
175.014
169.272
163.151
156.68
149.888
142.806
135.465
127.899
120.141
112.223
104.181
96.047
87.857
79.643
71.44
63.281
55.198
47.221
39.381
31.706
24.223
16.956
9.929
3.162
-3.327
-9.52
-15.404
-20.969
-26.204
-31.104
-35.664
-39.884
-43.765
-47.309
-50.521
-53.41
-55.982
-58.247
-60.218
-61.905
-63.322
-64.483
-65.403
-66.097
-66.583
-66.875
-66.993
-66.952
-66.772
-66.468
-66.059
-65.561
-64.99
-64.361
-63.691
-62.992
-62.278
-61.56
-60.85
-60.156
-59.487
-58.848
-58.244
-57.678
-57.152
-56.666
-56.221
-55.814
-55.444
-55.107
-54.801
-54.523
-54.268
-54.032
-53.811
-53.599
-53.393
-53.186
-52.974
-52.752
-52.514
-52.256
-51.972
-51.659
-51.31
-50.923
-50.493
-50.016
-49.489
-48.909
-48.275
-47.584
-46.837
-46.035
-45.179
-44.271
-43.315
-42.315
-41.275
-40.199
-39.092
-37.96
-36.807
-35.637
-34.456
-33.267
-32.076
-30.886
-29.702
-28.526
-27.363
-26.216
-25.087
-23.98
-22.897
-21.841
-20.815
-19.821
-18.862
-17.94
-17.059
-16.22
-15.426
-14.678
-13.978
-13.326
-12.722
-12.166
-11.658
-11.198
-10.783
-10.415
-10.091
-9.811
-9.576
-9.384
-9.236
-9.131
-9.071
-9.056
-9.087
-9.166
-9.293
-9.47
-9.699
-9.98
-10.316
-10.707
-11.154
-11.656
-12.213
-12.825
-13.49
-14.208
-14.976
-15.792
-16.656
-17.563
-18.514
-19.503
-20.529
-21.586
-22.672
-23.782
-24.911
-26.053
-27.204
-28.356
-29.504
-30.639
-31.756
-32.847
-33.903
-34.917
-35.879
-36.783
-37.621
-38.386
-39.07
-39.667
-40.173
-40.584
-40.895
-41.105
-41.211
-41.212
-41.108
-40.9
-40.589
-40.178
-39.67
-39.07
-38.387
-37.63
-36.809
-35.935
-35.021
-34.081
-33.127
-32.173
-31.231
-30.309
-29.42
-28.576
-27.792
-27.083
-26.462
-25.943
-25.539
-25.262
-25.124
-25.13
-25.282
-25.578
-26.02
-26.618
-27.388
-28.346
-29.499
-30.855
-32.414
-34.17
-36.108
-38.201
-40.4
-42.659
-44.931
-47.177
-49.371
-51.482
-53.468
-55.279
-56.855
-58.136
-59.081
-59.648
-59.812
-59.597
-59.047
-58.241
-57.298
-56.303
-55.365
-54.6
-54.084
-53.896
-54.118
-54.797
-56.084
-58.209
-61.212
-65.041
-69.516
-74.167
-78.58
-82.413
-84.977
-85.522
-83.858
-79.999
-74.359
-68.275
-62.876
-59.04
-58.419
-61.031
-64.229
-66.01
-64.074
-59.539
-58.847
-63.437
-68.988
-62.513
-24.883
51.078
161.301
290.081
414.958
527.081
624.131
704.713
769.109
805.417
798.889
745.241
645.075
507.414
349.763
186.752
34.151
-88.977
-170.838
-206.346
-200.282
-167.845
-124.809
-85.303
-55.557
-36.388
-27.642
-23.887
-22.725
-23.354
-23.185
-24.534
-28.333
-32.96
-38.09
-41.59
-41.999
-40.004
-36.151
-31.277
-26.325
-21.818
-18.28
-16.082
-15.284
-15.715
-17.09
-19.171
-21.771
-24.721
-27.841
-30.953
-33.899
-36.541
-38.805
-40.639
-41.989
-42.836
-43.166
-42.977
-42.302
-41.199
-39.718
-37.91
-35.822
-33.484
-30.943
-28.258
-25.491
-22.714
-19.981
-17.322
-14.763
-12.322
-10.008
-7.823
-5.756
-3.781
-1.877
-0.026
1.786
3.569
5.338
7.117
8.926
10.788
12.72
14.74
16.865
19.11
21.491
24.018
26.701
29.545
32.558
35.747
39.122
42.69
46.456
50.426
54.602
58.988
63.583
68.386
73.39
78.59
83.977
89.541
95.269
101.146
107.157
113.282
119.5
125.79
132.126
138.484
144.836
151.154
157.409
163.571
169.61
175.497
181.201
186.692
191.94
196.917
201.594
205.944
209.94
213.557
216.771
219.561
221.907
223.791
225.196
226.109
226.518
226.416
225.795
224.653
222.987
220.801
218.098
214.887
211.178
206.985
202.322
197.209
191.666
185.716
179.384
172.695
165.679
158.364
150.78
142.961
134.938
126.744
118.413
109.978
101.475
92.935
84.393
75.879
67.427
59.065
50.825
42.734
34.819
27.106
19.619
12.38
5.408
-1.278
-7.663
-13.733
-19.478
-24.888
-29.958
-34.684
-39.063
-43.096
-46.786
-50.135
-53.15
-55.84
-58.212
-60.279
-62.053
-63.547
-64.776
-65.756
-66.501
-67.028
-67.354
-67.496
-67.471
-67.295
-66.986
-66.56
-66.035
-65.426
-64.75
-64.021
-63.255
-62.464
-61.661
-60.858
-60.065
-59.291
-58.544
-57.832
-57.161
-56.535
-55.958
-55.434
-54.963
-54.547
-54.184
-53.874
-53.615
-53.403
-53.235
-53.108
-53.019
-52.962
-52.935
-52.933
-52.952
-52.987
-53.034
-53.088
-53.146
-53.202
-53.252
-53.292
-53.318
-53.326
-53.315
-53.28
-53.219
-53.131
-53.015
-52.868
-52.691
-52.482
-52.243
-51.974
-51.678
-51.355
-51.009
-50.643
-50.26
-49.864
-49.46
-49.05
-48.639
-48.23
-47.827
-47.434
-47.055
-46.692
-46.35
-46.031
-45.741
-45.482
-45.258
-45.072
-44.928
-44.829
-44.777
-44.776
-44.828
-44.935
-45.099
-45.323
-45.609
-45.957
-46.368
-46.844
-47.383
-47.984
-48.645
-49.365
-50.141
-50.968
-51.845
-52.767
-53.729
-54.728
-55.76
-56.819
-57.901
-59.001
-60.113
-61.231
-62.349
-63.461
-64.559
-65.637
-66.687
-67.704
-68.679
-69.606
-70.476
-71.282
-72.016
-72.673
-73.243
-73.721
-74.099
-74.373
-74.536
-74.586
-74.519
-74.332
-74.024
-73.594
-73.043
-72.373
-71.585
-70.682
-69.667
-68.547
-67.325
-66.008
-64.604
-63.121
-61.57
-59.962
-58.313
-56.636
-54.946
-53.259
-51.591
-49.958
-48.376
-46.858
-45.417
-44.067
-42.823
-41.702
-40.72
-39.891
-39.225
-38.734
-38.428
-38.317
-38.404
-38.686
-39.162
-39.834
-40.71
-41.81
-43.143
-44.712
-46.516
-48.548
-50.798
-53.25
-55.878
-58.633
-61.47
-64.348
-67.234
-70.11
-72.941
-75.675
-78.248
-80.583
-82.622
-84.33
-85.669
-86.62
-87.183
-87.381
-87.269
-86.935
-86.456
-85.913
-85.397
-84.99
-84.802
-84.947
-85.576
-86.909
-89.048
-91.945
-95.409
-99.044
-102.4
-105.142
-106.851
-106.933
-105.105
-101.523
-96.763
-92.035
-88.576
-87.056
-88.003
-92.023
-99.151
-108.57
-118.608
-126.32
-128.342
-122.246
-105.966
-77.219
-34.368
23.245
95.351
178.493
266.398
353.995
436.362
511.805
583.312
649.55
705.138
739.756
738.087
692.831
606.733
488.847
353.508
213.242
76.426
-46.368
-142.846
-204.375
-225.885
-211.003
-172.108
-123.046
-77.791
-45.77
-30.775
-30.354
-36.816
-44.66
-49.404
-50.831
-53.38
-57.788
-63.946
-71.256
-76.597
-78.955
-78.699
-75.602
-70.67
-65.489
-60.834
-57.288
-55.243
-54.474
-54.843
-56.567
-59.517
-63.257
-67.464
-71.78
-75.954
-79.965
-83.715
-87.029
-89.826
-92.076
-93.774
-94.967
-95.674
-95.892
-95.65
-94.981
-93.929
-92.547
-90.875
-88.962
-86.866
-84.647
-82.37
-80.082
-77.812
-75.586
-73.415
-71.302
-69.246
-67.23
-65.23
-63.232
-61.22
-59.177
-57.091
-54.941
-52.709
-50.378
-47.929
-45.348
-42.621
-39.734
-36.675
-33.436
-30.011
-26.394
-22.585
-18.58
-14.375
-9.968
-5.359
-0.548
4.463
9.673
15.077
20.668
26.439
32.377
38.471
44.706
51.065
57.531
64.084
70.702
77.363
84.042
90.716
97.358
103.941
110.438
116.82
123.061
129.132
135.004
140.649
146.041
151.153
155.96
160.437
164.562
168.314
171.672
174.618
177.137
179.213
180.835
181.991
182.674
182.877
182.599
181.837
180.594
178.874
176.684
174.033
170.932
167.395
163.437
159.076
154.33
149.222
143.774
138.01
131.955
125.635
119.078
112.312
105.365
98.265
91.043
83.726
76.342
68.921
61.489
54.074
46.702
39.399
32.188
25.094
18.139
11.345
4.73
-1.688
-7.891
-13.865
-19.597
-25.076
-30.293
-35.238
-39.907
-44.295
-48.398
-52.215
-55.747
-58.994
-61.96
-64.649
-67.065
-69.216
-71.108
-72.749
-74.149
-75.317
-76.263
-76.997
-77.532
-77.877
-78.045
-78.047
-77.897
-77.606
-77.186
-76.651
-76.012
-75.281
-74.47
-73.59
-72.653
-71.668
-70.646
-69.595
-68.525
-67.444
-66.36
-65.28
-64.211
-63.159
-62.131
-61.131
-60.166
-59.238
-58.352
-57.512
-56.721
-55.982
-55.297
-54.668
-54.098
-53.586
-53.136
-52.746
-52.418
-52.151
-51.944
-51.796
-51.705
-51.671
-51.69
-51.76
-51.88
-52.046
-52.257
-52.509
-52.8
-53.126
-53.486
-53.875
-54.291
-54.73
-55.189
-55.666
-56.156
-56.656
-57.164
-57.676
-58.19
-58.701
-59.207
-59.705
-60.192
-60.666
-61.124
-61.563
-61.982
-62.379
-62.754
-63.104
-63.43
-63.732
-64.009
-64.262
-64.491
-64.696
-64.88
-65.041
-65.181
-65.301
-65.403
-65.487
-65.554
-65.606
-65.642
-65.665
-65.675
-65.673
-65.659
-65.634
-65.598
-65.552
-65.496
-65.431
-65.355
-65.27
-65.174
-65.067
-64.948
-64.814
-64.663
-64.493
-64.301
-64.084
-63.84
-63.564
-63.253
-62.904
-62.513
-62.077
-61.594
-61.059
-60.469
-59.822
-59.115
-58.348
-57.519
-56.626
-55.669
-54.649
-53.565
-52.42
-51.214
-49.951
-48.631
-47.258
-45.838
-44.374
-42.872
-41.339
-39.781
-38.211
-36.639
-35.078
-33.54
-32.038
-30.585
-29.197
-27.884
-26.659
-25.529
-24.505
-23.597
-22.817
-22.176
-21.685
-21.351
-21.184
-21.189
-21.377
-21.75
-22.305
-23.039
-23.95
-25.044
-26.336
-27.836
-29.546
-31.464
-33.587
-35.9
-38.386
-41.012
-43.725
-46.472
-49.198
-51.861
-54.431
-56.868
-59.123
-61.14
-62.85
-64.201
-65.167
-65.711
-65.811
-65.491
-64.791
-63.807
-62.677
-61.499
-60.373
-59.421
-58.751
-58.486
-58.747
-59.586
-61.095
-63.437
-66.674
-70.759
-75.486
-80.379
-84.982
-88.968
-91.855
-92.986
-91.923
-88.565
-83.311
-77.188
-71.06
-65.424
-61.124
-59.306
-60.649
-63.853
-65.704
-62.633
-52.257
-36.637
-19.406
0.504
27.659
70.492
138.219
231.557
344.605
470.219
598.717
719.15
821.595
891.164
910.423
873.116
779.926
637.782
466.75
284.227
106.862
-39.756
-138.782
-180.488
-161.98
-103.554
-31.821
30.033
60.316
57.456
32.256
-2.699
-29.902
-42.704
-44.14
-38.593
-34.354
-34.668
-37.25
-40.134
-40.686
-38.062
-33.6
-28.351
-23.073
-18.408
-14.701
-12.114
-10.771
-10.635
-11.497
-13.229
-15.742
-18.874
-22.453
-26.323
-30.318
-34.307
-38.17
-41.743
-44.898
-47.552
-49.651
-51.189
-52.165
-52.583
-52.476
-51.892
-50.882
-49.503
-47.801
-45.819
-43.616
-41.257
-38.814
-36.359
-33.939
-31.585
-29.321
-27.153
-25.081
-23.1
-21.189
-19.322
-17.481
-15.65
-13.813
-11.961
-10.073
-8.13
-6.113
-4.003
-1.777
0.582
3.093
5.77
8.624
11.663
14.895
18.324
21.958
25.801
29.852
34.118
38.606
43.323
48.28
53.473
58.883
64.494
70.293
76.261
82.379
88.621
94.949
101.341
107.792
114.294
120.844
127.421
133.983
140.494
146.915
153.222
159.413
165.472
171.366
177.079
182.602
187.937
193.103
198.076
202.782
207.158
211.141
214.69
217.8
220.453
222.622
224.28
225.387
225.921
225.886
225.258
224
222.071
219.409
216.021
211.982
207.354
202.196
196.555
190.444
183.902
176.985
169.739
162.208
154.427
146.415
138.221
129.919
121.584
113.304
105.118
97.01
88.983
81.043
73.204
65.497
57.938
50.522
43.266
36.2
29.352
22.758
16.431
10.364
4.553
-1.012
-6.324
-11.354
-16.083
-20.502
-24.602
-28.38
-31.832
-34.944
-37.72
-40.175
-42.327
-44.194
-45.789
-47.119
-48.194
-49.028
-49.637
-50.039
-50.253
-50.295
-50.184
-49.938
-49.579
-49.128
-48.604
-48.018
-47.387
-46.724
-46.043
-45.36
-44.686
-44.033
-43.412
-42.835
-42.31
-41.847
-41.452
-41.132
-40.889
-40.727
-40.649
-40.653
-40.741
-40.91
-41.158
-41.481
-41.878
-42.342
-42.869
-43.454
-44.089
-44.77
-45.488
-46.237
-47.008
-47.794
-48.586
-49.376
-50.156
-50.919
-51.655
-52.358
-53.021
-53.636
-54.198
-54.7
-55.137
-55.504
-55.798
-56.015
-56.153
-56.212
-56.19
-56.088
-55.909
-55.653
-55.324
-54.925
-54.46
-53.934
-53.352
-52.718
-52.039
-51.322
-50.573
-49.8
-49.009
-48.209
-47.407
-46.613
-45.833
-45.076
-44.349
-43.662
-43.021
-42.433
-41.906
-41.445
-41.057
-40.746
-40.518
-40.375
-40.32
-40.355
-40.479
-40.694
-40.997
-41.387
-41.86
-42.414
-43.043
-43.743
-44.509
-45.334
-46.211
-47.133
-48.092
-49.079
-50.085
-51.101
-52.117
-53.123
-54.109
-55.065
-55.981
-56.847
-57.652
-58.387
-59.042
-59.607
-60.075
-60.435
-60.682
-60.808
-60.808
-60.678
-60.414
-60.015
-59.478
-58.804
-57.995
-57.052
-55.98
-54.781
-53.462
-52.029
-50.49
-48.853
-47.13
-45.331
-43.47
-41.564
-39.626
-37.674
-35.725
-33.796
-31.905
-30.071
-28.308
-26.633
-25.061
-23.61
-22.297
-21.141
-20.159
-19.365
-18.773
-18.396
-18.244
-18.325
-18.641
-19.189
-19.974
-20.998
-22.277
-23.821
-25.634
-27.715
-30.063
-32.662
-35.497
-38.543
-41.754
-45.086
-48.495
-51.941
-55.397
-58.834
-62.209
-65.471
-68.55
-71.383
-73.926
-76.138
-77.982
-79.454
-80.566
-81.368
-81.951
-82.388
-82.757
-83.141
-83.63
-84.337
-85.365
-86.793
-88.752
-91.414
-94.868
-99.12
-103.971
-108.964
-113.697
-117.81
-120.815
-122.183
-121.515
-118.641
-114.068
-108.979
-104.339
-100.872
-99.518
-100.969
-105.593
-113.604
-122.388
-128.048
-128.995
-122.684
-109.103
-88.903
-55.565
-4.363
67.209
159.41
262.505
366.948
468.817
567.44
663.258
751.659
819.293
847.041
823.5
749.135
632.906
490.687
337.238
183.44
43.224
-66.512
-135.758
-162.317
-155.544
-135.706
-116.452
-103.522
-96.404
-88.422
-78.046
-67.721
-59.863
-57.693
-61.336
-68.57
-77.581
-86.158
-92.424
-95.734
-95.916
-93.285
-88.709
-83.044
-76.984
-71.275
-66.6
-63.295
-61.481
-61.086
-61.845
-63.52
-65.926
-68.852
-72.1
-75.538
-79.038
-82.473
-85.736
-88.69
-91.222
-93.274
-94.807
-95.809
-96.283
-96.251
-95.753
-94.851
-93.604
-92.062
-90.269
-88.264
-86.1
-83.838
-81.542
-79.277
-77.086
-74.995
-73.019
-71.163
-69.421
-67.78
-66.213
-64.688
-63.175
-61.652
-60.098
-58.492
-56.812
-55.03
-53.122
-51.062
-48.827
-46.398
-43.754
-40.88
-37.762
-34.39
-30.755
-26.852
-22.678
-18.227
-13.495
-8.482
-3.186
2.388
8.235
14.348
20.717
27.327
34.16
41.199
48.419
55.797
63.306
70.918
78.602
86.325
94.056
101.76
109.4
116.941
124.347
131.582
138.608
145.391
151.894
158.083
163.924
169.386
174.438
179.052
183.201
186.86
190.009
192.629
194.703
196.218
197.165
197.536
197.33
196.545
195.185
193.257
190.773
187.744
184.188
180.123
175.572
170.559
165.109
159.252
153.018
146.437
139.543
132.371
124.955
117.331
109.536
101.608
93.582
85.496
77.387
69.29
61.24
53.272
45.417
37.706
30.169
22.833
15.721
8.858
2.263
-4.046
-10.054
-15.748
-21.119
-26.159
-30.863
-35.229
-39.257
-42.947
-46.304
-49.332
-52.039
-54.432
-56.523
-58.321
-59.841
-61.096
-62.101
-62.872
-63.426
-63.782
-63.959
-63.973
-63.846
-63.596
-63.242
-62.803
-62.297
-61.742
-61.154
-60.548
-59.94
-59.343
-58.768
-58.225
-57.724
-57.272
-56.875
-56.538
-56.265
-56.058
-55.92
-55.851
-55.851
-55.92
-56.057
-56.259
-56.524
-56.849
-57.228
-57.658
-58.132
-58.644
-59.187
-59.755
-60.339
-60.931
-61.524
-62.108
-62.675
-63.218
-63.728
-64.199
-64.623
-64.995
-65.311
-65.565
-65.755
-65.879
-65.936
-65.925
-65.847
-65.701
-65.491
-65.217
-64.881
-64.487
-64.036
-63.532
-62.977
-62.376
-61.733
-61.051
-60.335
-59.59
-58.82
-58.032
-57.232
-56.424
-55.616
-54.813
-54.022
-53.249
-52.5
-51.781
-51.097
-50.452
-49.851
-49.296
-48.791
-48.336
-47.933
-47.582
-47.283
-47.035
-46.836
-46.686
-46.582
-46.523
-46.506
-46.528
-46.589
-46.684
-46.811
-46.968
-47.153
-47.361
-47.59
-47.838
-48.1
-48.374
-48.656
-48.943
-49.231
-49.516
-49.796
-50.067
-50.325
-50.569
-50.796
-51.005
-51.192
-51.358
-51.502
-51.622
-51.719
-51.792
-51.84
-51.863
-51.862
-51.834
-51.781
-51.702
-51.595
-51.46
-51.296
-51.101
-50.873
-50.611
-50.312
-49.974
-49.595
-49.172
-48.703
-48.185
-47.616
-46.992
-46.312
-45.573
-44.772
-43.907
-42.977
-41.978
-40.911
-39.774
-38.567
-37.29
-35.947
-34.54
-33.074
-31.552
-29.981
-28.369
-26.723
-25.052
-23.364
-21.667
-19.971
-18.287
-16.626
-15
-13.422
-11.905
-10.462
-9.111
-7.867
-6.745
-5.758
-4.914
-4.224
-3.698
-3.347
-3.19
-3.237
-3.497
-3.976
-4.68
-5.61
-6.761
-8.117
-9.638
-11.291
-13.039
-14.854
-16.717
-18.604
-20.487
-22.336
-24.109
-25.769
-27.297
-28.667
-29.858
-30.865
-31.683
-32.351
-32.973
-33.649
-34.472
-35.519
-36.801
-38.347
-40.234
-42.535
-45.344
-48.742
-52.725
-57.341
-62.73
-68.886
-75.655
-82.661
-89.146
-94.385
-97.892
-99.116
-97.485
-92.827
-85.312
-75.725
-65.757
-56.989
-50.479
-47.294
-48.216
-53.116
-60.998
-69.569
-74.985
-73.544
-62.006
-36.824
4.964
64.996
142.039
231.387
327.075
424.314
522.288
621.468
717.636
800.437
853.917
863.922
825.924
745.74
635.622
506.497
367.744
229.262
103.559
6.334
-53.013
-76.939
-78.443
-73.202
-70.792
-72.359
-72.165
-66.516
-56.449
-44.427
-34.075
-26.7
-20.986
-15.754
-10.424
-4.681
1.395
6.908
10.897
12.389
10.472
4.962
-3.421
-13.592
-24.57
-35.109
-44.192
-51.172
-55.59
-57.479
-57.462
-56.473
-55.255
-54.439
-54.402
-55.165
-56.677
-58.772
-61.087
-63.185
-64.778
-65.7
-65.907
-65.513
-64.611
-63.276
-61.614
-59.717
-57.639
-55.426
-53.104
-50.683
-48.204
-45.707
-43.22
-40.776
-38.394
-36.077
-33.823
-31.619
-29.444
-27.287
-25.142
-23.008
-20.882
-18.759
-16.629
-14.479
-12.294
-10.054
-7.74
-5.329
-2.803
-0.151
2.631
5.549
8.607
11.817
15.196
18.754
22.492
26.414
30.519
34.799
39.242
43.816
48.476
53.187
57.928
62.688
67.471
72.277
77.101
81.943
86.805
91.687
96.599
101.539
106.491
111.465
116.479
121.58
126.845
132.318
138.002
143.885
149.925
156.071
162.266
168.425
174.437
180.205
185.641
190.676
195.27
199.354
202.837
205.608
207.52
208.47
208.408
207.3
205.139
201.955
197.79
192.738
186.946
180.534
173.598
166.219
158.443
150.344
142.02
133.576
125.14
116.813
108.665
100.761
93.156
85.873
78.918
72.255
65.801
59.505
53.339
47.288
41.361
35.559
29.866
24.275
18.776
13.364
8.039
2.798
-2.365
-7.442
-12.413
-17.242
-21.873
-26.268
-30.403
-34.264
-37.845
-41.146
-44.163
-46.902
-49.38
-51.609
-53.598
-55.358
-56.892
-58.21
-59.328
-60.264
-61.038
-61.67
-62.176
-62.572
-62.871
-63.086
-63.231
-63.311
-63.334
-63.304
-63.231
-63.122
-62.987
-62.834
-62.67
-62.502
-62.339
-62.185
-62.045
-61.922
-61.817
-61.732
-61.666
-61.619
-61.588
-61.572
-61.569
-61.576
-61.591
-61.609
-61.628
-61.646
-61.657
-61.66
-61.65
-61.626
-61.585
-61.523
-61.44
-61.334
-61.204
-61.05
-60.87
-60.664
-60.432
-60.174
-59.89
-59.58
-59.245
-58.885
-58.502
-58.098
-57.676
-57.239
-56.789
-56.331
-55.868
-55.403
-54.94
-54.483
-54.035
-53.598
-53.176
-52.771
-52.385
-52.019
-51.676
-51.357
-51.062
-50.792
-50.546
-50.324
-50.127
-49.952
-49.8
-49.669
-49.558
-49.466
-49.393
-49.336
-49.294
-49.266
-49.251
-49.246
-49.251
-49.262
-49.278
-49.298
-49.319
-49.341
-49.36
-49.378
-49.393
-49.404
-49.413
-49.419
-49.423
-49.428
-49.434
-49.444
-49.46
-49.484
-49.52
-49.57
-49.637
-49.725
-49.835
-49.97
-50.132
-50.324
-50.547
-50.801
-51.089
-51.409
-51.763
-52.15
-52.569
-53.02
-53.502
-54.014
-54.553
-55.118
-55.706
-56.314
-56.938
-57.574
-58.217
-58.862
-59.503
-60.133
-60.744
-61.331
-61.886
-62.401
-62.868
-63.279
-63.628
-63.905
-64.104
-64.219
-64.242
-64.167
-63.991
-63.708
-63.316
-62.812
-62.193
-61.46
-60.613
-59.652
-58.58
-57.398
-56.11
-54.72
-53.233
-51.656
-49.996
-48.261
-46.462
-44.611
-42.722
-40.81
-38.891
-36.98
-35.095
-33.253
-31.471
-29.764
-28.144
-26.628
-25.228
-23.962
-22.846
-21.894
-21.12
-20.535
-20.15
-19.975
-20.016
-20.269
-20.731
-21.401
-22.281
-23.385
-24.724
-26.3
-28.113
-30.162
-32.434
-34.914
-37.575
-40.366
-43.241
-46.155
-49.069
-51.959
-54.8
-57.547
-60.148
-62.541
-64.66
-66.468
-67.922
-68.978
-69.633
-69.91
-69.871
-69.615
-69.219
-68.745
-68.282
-67.914
-67.716
-67.777
-68.168
-68.998
-70.501
-72.8
-75.839
-79.455
-83.255
-86.789
-89.706
-91.476
-91.321
-88.798
-84.03
-77.528
-70.378
-63.867
-59.038
-57.076
-59.51
-66.02
-73.853
-80.24
-82.871
-82.73
-83.515
-84.834
-79.154
-53.221
4.276
96.366
214.635
343.208
472.063
596.155
711.394
812.601
884.571
910.192
881.639
801.519
682.996
541.03
387.782
232.594
86.362
-33.942
-116.274
-156.006
-159.176
-143.945
-123.107
-102.981
-84.845
-63.385
-38.4
-13.767
7.19
19.833
22.153
15.475
1.64
-16.517
-35.607
-53.144
-67.718
-78.43
-84.667
-86.463
-84.295
-79.044
-72.295
-65.578
-59.696
-55.133
-52.251
-51.098
-51.635
-53.707
-56.781
-60.26
-63.805
-67.183
-70.236
-72.898
-75.071
-76.67
-77.718
-78.277
-78.38
-78.049
-77.286
-76.087
-74.483
-72.519
-70.245
-67.715
-64.987
-62.122
-59.184
-56.242
-53.349
-50.541
-47.846
-45.279
-42.844
-40.543
-38.366
-36.297
-34.32
-32.417
-30.571
-28.76
-26.963
-25.158
-23.321
-21.43
-19.462
-17.398
-15.219
-12.908
-10.448
-7.828
-5.033
-2.056
1.114
4.488
8.074
11.881
15.914
20.178
24.678
29.416
34.39
39.596
45.028
50.678
56.533
62.579
68.8
75.178
81.69
88.315
95.026
101.798
108.601
115.407
122.183
128.899
135.521
142.017
148.354
154.499
160.418
166.082
171.457
176.516
181.228
185.567
189.507
193.023
196.093
198.697
200.817
202.438
203.546
204.131
204.187
203.709
202.696
201.15
199.074
196.478
193.372
189.768
185.683
181.135
176.146
170.738
164.937
158.771
152.268
145.459
138.376
131.051
123.518
115.811
107.964
100.012
91.989
83.929
75.866
67.833
59.861
51.981
44.224
36.618
29.189
21.963
14.962
8.209
1.721
-4.483
-10.389
-15.984
-21.259
-26.204
-30.815
-35.088
-39.021
-42.616
-45.875
-48.804
-51.409
-53.699
-55.684
-57.376
-58.787
-59.932
-60.826
-61.485
-61.925
-62.164
-62.219
-62.108
-61.849
-61.46
-60.957
-60.359
-59.682
-58.943
-58.156
-57.338
-56.501
-55.66
-54.827
-54.012
-53.226
-52.477
-51.774
-51.123
-50.53
-49.998
-49.532
-49.133
-48.803
-48.542
-48.348
-48.22
-48.156
-48.152
-48.203
-48.307
-48.456
-48.647
-48.873
-49.129
-49.408
-49.705
-50.015
-50.33
-50.646
-50.957
-51.258
-51.544
-51.811
-52.054
-52.271
-52.458
-52.612
-52.731
-52.815
-52.86
-52.868
-52.838
-52.769
-52.664
-52.524
-52.35
-52.144
-51.909
-51.649
-51.367
-51.066
-50.75
-50.424
-50.091
-49.755
-49.421
-49.093
-48.774
-48.469
-48.18
-47.911
-47.665
-47.445
-47.253
-47.091
-46.96
-46.863
-46.799
-46.77
-46.776
-46.817
-46.892
-47.001
-47.143
-47.316
-47.52
-47.752
-48.011
-48.295
-48.6
-48.925
-49.267
-49.623
-49.99
-50.365
-50.746
-51.129
-51.512
-51.892
-52.265
-52.631
-52.986
-53.33
-53.66
-53.976
-54.278
-54.565
-54.836
-55.094
-55.338
-55.569
-55.789
-56
-56.203
-56.401
-56.595
-56.788
-56.983
-57.181
-57.385
-57.597
-57.819
-58.052
-58.3
-58.562
-58.841
-59.139
-59.455
-59.793
-60.152
-60.532
-60.935
-61.359
-61.804
-62.267
-62.747
-63.241
-63.743
-64.251
-64.759
-65.263
-65.757
-66.234
-66.688
-67.111
-67.497
-67.838
-68.127
-68.355
-68.514
-68.599
-68.602
-68.517
-68.338
-68.06
-67.68
-67.192
-66.594
-65.884
-65.058
-64.115
-63.055
-61.879
-60.588
-59.184
-57.673
-56.06
-54.354
-52.567
-50.708
-48.792
-46.833
-44.845
-42.844
-40.847
-38.866
-36.917
-35.015
-33.175
-31.416
-29.756
-28.212
-26.801
-25.539
-24.439
-23.517
-22.782
-22.239
-21.889
-21.736
-21.792
-22.075
-22.603
-23.384
-24.426
-25.73
-27.288
-29.089
-31.108
-33.298
-35.61
-37.998
-40.421
-42.854
-45.268
-47.621
-49.864
-51.929
-53.752
-55.294
-56.515
-57.38
-57.894
-58.077
-57.993
-57.758
-57.468
-57.212
-57.091
-57.192
-57.61
-58.46
-59.832
-61.85
-64.7
-68.472
-73.131
-78.489
-84.095
-89.424
-94.008
-97.275
-98.532
-97.313
-93.558
-87.737
-81.062
-74.897
-70.24
-67.982
-69.022
-73.8
-81.858
-91.583
-99.859
-103.027
-97.798
-81
-49.64
-1.021
65.367
146.847
239.138
336.693
436.509
539.597
643.957
743.105
825.065
871.898
871.52
821.945
729.411
606.408
462.937
307.583
149.821
3.293
-111.988
-184.723
-213.497
-206.064
-182.327
-152.845
-120.339
-89.539
-57.353
-26.959
-6.802
5.037
8.282
3.838
-2.128
-10.421
-21.154
-31.686
-42.32
-51.453
-57.113
-59.196
-57.71
-53.286
-47.392
-41.618
-36.826
-33.349
-31.433
-31.14
-32.448
-35.33
-39.402
-43.958
-48.557
-52.928
-56.853
-60.307
-63.23
-65.515
-67.172
-68.268
-68.847
-68.968
-68.669
-67.94
-66.803
-65.299
-63.468
-61.38
-59.105
-56.709
-54.264
-51.819
-49.406
-47.056
-44.785
-42.601
-40.507
-38.488
-36.523
-34.601
-32.712
-30.844
-28.986
-27.115
-25.208
-23.246
-21.208
-19.078
-16.841
-14.48
-11.981
-9.332
-6.524
-3.548
-0.4
2.928
6.446
10.16
14.076
18.198
22.53
27.073
31.829
36.795
41.967
47.338
52.9
58.641
64.551
70.615
76.816
83.137
89.559
96.06
102.617
109.207
115.803
122.379
128.908
135.36
141.707
147.918
153.964
159.813
165.436
170.803
175.885
180.654
185.081
189.142
192.812
196.067
198.887
201.254
203.15
204.561
205.475
205.885
205.783
205.167
204.034
202.388
200.233
197.575
194.426
190.797
186.703
182.161
177.191
171.814
166.054
159.936
153.486
146.735
139.711
132.447
124.974
117.325
109.536
101.639
93.668
85.658
77.641
69.652
61.721
53.879
46.157
38.582
31.182
23.98
17
10.263
3.787
-2.41
-8.314
-13.912
-19.195
-24.155
-28.785
-33.082
-37.044
-40.671
-43.965
-46.931
-49.574
-51.902
-53.924
-55.651
-57.095
-58.271
-59.193
-59.877
-60.339
-60.596
-60.668
-60.57
-60.323
-59.943
-59.45
-58.859
-58.189
-57.457
-56.677
-55.864
-55.032
-54.193
-53.36
-52.542
-51.749
-50.988
-50.268
-49.594
-48.97
-48.402
-47.892
-47.442
-47.053
-46.724
-46.455
-46.244
-46.088
-45.984
-45.927
-45.912
-45.934
-45.986
-46.063
-46.156
-46.261
-46.368
-46.472
-46.564
-46.64
-46.692
-46.714
-46.703
-46.652
-46.56
-46.421
-46.235
-45.999
-45.713
-45.375
-44.985
-44.545
-44.055
-43.518
-42.934
-42.308
-41.641
-40.938
-40.203
-39.438
-38.651
-37.844
-37.024
-36.196
-35.366
-34.54
-33.724
-32.925
-32.148
-31.4
-30.686
-30.012
-29.383
-28.802
-28.274
-27.802
-27.388
-27.034
-26.742
-26.511
-26.343
-26.235
-26.189
-26.202
-26.272
-26.398
-26.576
-26.805
-27.081
-27.402
-27.764
-28.163
-28.597
-29.061
-29.553
-30.067
-30.601
-31.15
-31.71
-32.277
-32.846
-33.415
-33.98
-34.537
-35.085
-35.62
-36.141
-36.647
-37.138
-37.613
-38.072
-38.517
-38.949
-39.37
-39.781
-40.185
-40.583
-40.979
-41.375
-41.773
-42.177
-42.586
-43.004
-43.433
-43.873
-44.325
-44.79
-45.269
-45.762
-46.269
-46.789
-47.322
-47.868
-48.425
-48.991
-49.565
-50.144
-50.726
-51.307
-51.882
-52.448
-52.999
-53.53
-54.035
-54.507
-54.939
-55.325
-55.657
-55.929
-56.134
-56.264
-56.313
-56.276
-56.146
-55.92
-55.592
-55.159
-54.619
-53.97
-53.21
-52.34
-51.36
-50.27
-49.073
-47.772
-46.371
-44.874
-43.285
-41.611
-39.858
-38.036
-36.152
-34.216
-32.239
-30.233
-28.213
-26.195
-24.196
-22.234
-20.325
-18.488
-16.741
-15.101
-13.583
-12.198
-10.959
-9.877
-8.968
-8.244
-7.716
-7.394
-7.285
-7.397
-7.736
-8.305
-9.096
-10.105
-11.327
-12.766
-14.434
-16.341
-18.485
-20.867
-23.48
-26.305
-29.323
-32.497
-35.77
-39.086
-42.392
-45.641
-48.8
-51.828
-54.671
-57.269
-59.549
-61.451
-62.94
-63.97
-64.513
-64.591
-64.247
-63.573
-62.703
-61.725
-60.73
-59.839
-59.163
-58.847
-59.032
-59.798
-61.273
-63.655
-67.012
-71.295
-76.255
-81.295
-85.847
-89.484
-91.614
-91.586
-89.108
-84.221
-77.54
-70.56
-64.505
-60.067
-58.383
-60.379
-65.98
-74.622
-83.222
-87.211
-84.385
-71.951
-49.271
-16.073
32.681
97.396
179.032
278.099
387.252
505.376
628.663
745.113
845.116
910.968
925.42
885.806
794.699
662.144
505.467
337.462
171.846
27.15
-82.58
-149.493
-173.973
-169.549
-153.103
-134.17
-116.929
-99.44
-76.938
-50.565
-24.376
-2.147
11.855
15.968
11.324
-0.245
-16.092
-33.036
-48.609
-61.524
-70.922
-76.092
-76.967
-73.955
-67.897
-60.388
-53.024
-46.618
-41.653
-38.52
-37.262
-37.829
-40.054
-43.36
-47.089
-50.867
-54.417
-57.538
-60.19
-62.299
-63.792
-64.717
-65.136
-65.075
-64.576
-63.656
-62.307
-60.56
-58.457
-56.04
-53.379
-50.544
-47.603
-44.63
-41.676
-38.779
-35.969
-33.264
-30.675
-28.206
-25.845
-23.575
-21.384
-19.26
-17.19
-15.16
-13.146
-11.125
-9.075
-6.976
-4.811
-2.565
-0.22
2.238
4.82
7.538
10.397
13.404
16.568
19.896
23.395
27.071
30.929
34.972
39.202
43.621
48.227
53.016
57.983
63.119
68.414
73.857
79.433
85.127
90.92
96.793
102.726
108.695
114.677
120.647
126.579
132.445
138.22
143.875
149.381
154.712
159.839
164.734
169.372
173.726
177.771
181.484
184.842
187.823
190.409
192.582
194.326
195.627
196.473
196.856
196.77
196.209
195.173
193.663
191.682
189.237
186.336
182.99
179.214
175.022
170.433
165.466
160.143
154.488
148.525
142.28
135.781
129.057
122.136
115.049
107.825
100.495
93.089
85.636
78.168
70.713
63.299
55.955
48.706
41.578
34.596
27.781
21.156
14.74
8.55
2.602
-3.089
-8.512
-13.657
-18.515
-23.082
-27.352
-31.325
-34.999
-38.377
-41.463
-44.261
-46.779
-49.024
-51.006
-52.736
-54.225
-55.486
-56.533
-57.379
-58.039
-58.528
-58.862
-59.054
-59.121
-59.078
-58.94
-58.722
-58.438
-58.102
-57.728
-57.328
-56.914
-56.498
-56.09
-55.699
-55.334
-55.001
-54.707
-54.457
-54.255
-54.104
-54.005
-53.96
-53.968
-54.03
-54.142
-54.303
-54.51
-54.759
-55.046
-55.366
-55.714
-56.085
-56.473
-56.873
-57.279
-57.686
-58.086
-58.475
-58.847
-59.195
-59.513
-59.798
-60.042
-60.242
-60.392
-60.491
-60.533
-60.517
-60.44
-60.302
-60.102
-59.839
-59.514
-59.129
-58.685
-58.185
-57.632
-57.029
-56.38
-55.69
-54.964
-54.206
-53.422
-52.617
-51.797
-50.968
-50.137
-49.308
-48.489
-47.687
-46.907
-46.157
-45.443
-44.771
-44.148
-43.58
-43.072
-42.63
-42.259
-41.962
-41.744
-41.608
-41.557
-41.593
-41.718
-41.933
-42.237
-42.631
-43.114
-43.684
-44.339
-45.077
-45.895
-46.789
-47.755
-48.79
-49.889
-51.047
-52.258
-53.517
-54.818
-56.153
-57.518
-58.903
-60.303
-61.71
-63.117
-64.516
-65.902
-67.267
-68.604
-69.907
-71.17
-72.389
-73.557
-74.67
-75.723
-76.714
-77.639
-78.496
-79.282
-79.997
-80.638
-81.207
-81.702
-82.124
-82.473
-82.751
-82.958
-83.096
-83.167
-83.175
-83.121
-83.009
-82.843
-82.625
-82.361
-82.054
-81.707
-81.326
-80.913
-80.472
-80.007
-79.521
-79.017
-78.497
-77.962
-77.415
-76.857
-76.287
-75.708
-75.116
-74.514
-73.898
-73.268
-72.622
-71.959
-71.276
-70.572
-69.844
-69.09
-68.309
-67.499
-66.657
-65.781
-64.871
-63.925
-62.942
-61.92
-60.861
-59.763
-58.628
-57.456
-56.248
-55.009
-53.741
-52.452
-51.151
-49.844
-48.541
-47.254
-45.992
-44.769
-43.594
-42.474
-41.418
-40.435
-39.535
-38.731
-38.033
-37.45
-36.992
-36.666
-36.479
-36.439
-36.547
-36.8
-37.193
-37.73
-38.418
-39.276
-40.32
-41.557
-42.994
-44.628
-46.453
-48.461
-50.629
-52.916
-55.279
-57.676
-60.07
-62.441
-64.757
-66.968
-69.015
-70.819
-72.31
-73.438
-74.163
-74.461
-74.329
-73.787
-72.88
-71.686
-70.3
-68.825
-67.384
-66.092
-65.074
-64.449
-64.382
-65.131
-66.842
-69.5
-72.9
-76.562
-79.987
-82.823
-84.639
-84.823
-83.056
-79.43
-74.577
-70.007
-67.204
-67.034
-70.21
-77.282
-88.168
-102.041
-116.914
-128.999
-134.254
-129.587
-112.011
-79.012
-28.899
39.562
124.472
219.76
319.278
417.086
510.742
602.667
690.493
767.724
823.023
839.887
810.46
735.573
621.134
479.428
323.191
164.891
22.305
-84.935
-146.357
-161.572
-143.198
-114.002
-88.482
-72.04
-63.166
-53.927
-42.079
-30.122
-20.651
-17.013
-19.431
-25.459
-33.016
-40.075
-45.029
-47.447
-47.414
-45.277
-41.787
-37.724
-33.702
-30.342
-28.222
-27.582
-28.421
-30.599
-33.812
-37.785
-42.316
-47.171
-52.108
-56.937
-61.48
-65.587
-69.185
-72.215
-74.627
-76.405
-77.544
-78.052
-77.976
-77.373
-76.299
-74.814
-72.972
-70.824
-68.437
-65.881
-63.229
-60.552
-57.902
-55.311
-52.806
-50.402
-48.103
-45.911
-43.811
-41.781
-39.801
-37.858
-35.937
-34.027
-32.111
-30.167
-28.174
-26.113
-23.963
-21.71
-19.335
-16.823
-14.16
-11.334
-8.335
-5.157
-1.79
1.776
5.551
9.542
13.756
18.199
22.875
27.787
32.933
38.311
43.916
49.739
55.771
61.998
68.407
74.98
81.7
88.545
95.492
102.517
109.594
116.694
123.787
130.844
137.83
144.715
151.464
158.044
164.422
170.565
176.439
182.015
187.262
192.149
196.65
200.736
204.384
207.57
210.273
212.475
214.16
215.314
215.929
215.997
215.513
214.476
212.889
210.756
208.085
204.886
201.172
196.959
192.267
187.116
181.53
175.537
169.163
162.439
155.395
148.065
140.482
132.679
124.691
116.553
108.3
99.966
91.587
83.195
74.826
66.512
58.285
50.174
42.209
34.416
26.821
19.446
12.312
5.44
-1.156
-7.458
-13.457
-19.14
-24.501
-29.534
-34.237
-38.608
-42.649
-46.365
-49.759
-52.841
-55.617
-58.098
-60.294
-62.219
-63.883
-65.303
-66.491
-67.462
-68.234
-68.821
-69.239
-69.506
-69.637
-69.647
-69.552
-69.366
-69.104
-68.779
-68.404
-67.991
-67.55
-67.093
-66.629
-66.165
-65.709
-65.267
-64.844
-64.442
-64.066
-63.716
-63.393
-63.098
-62.832
-62.593
-62.38
-62.194
-62.032
-61.892
-61.773
-61.671
-61.584
-61.51
-61.444
-61.384
-61.327
-61.27
-61.21
-61.146
-61.073
-60.991
-60.895
-60.784
-60.656
-60.508
-60.338
-60.146
-59.93
-59.689
-59.424
-59.136
-58.823
-58.488
-58.13
-57.751
-57.35
-56.927
-56.484
-56.019
-55.534
-55.028
-54.501
-53.954
-53.387
-52.801
-52.194
-51.568
-50.923
-50.258
-49.574
-48.871
-48.149
-47.41
-46.654
-45.884
-45.1
-44.304
-43.498
-42.684
-41.864
-41.038
-40.209
-39.379
-38.548
-37.719
-36.893
-36.073
-35.262
-34.462
-33.676
-32.908
-32.159
-31.433
-30.733
-30.062
-29.422
-28.816
-28.248
-27.72
-27.235
-26.796
-26.405
-26.065
-25.778
-25.544
-25.366
-25.243
-25.175
-25.162
-25.203
-25.299
-25.447
-25.646
-25.896
-26.195
-26.54
-26.93
-27.361
-27.832
-28.338
-28.875
-29.441
-30.03
-30.64
-31.265
-31.901
-32.544
-33.19
-33.833
-34.47
-35.094
-35.7
-36.283
-36.838
-37.358
-37.838
-38.272
-38.656
-38.983
-39.25
-39.451
-39.583
-39.641
-39.62
-39.518
-39.33
-39.054
-38.685
-38.222
-37.663
-37.005
-36.249
-35.394
-34.44
-33.387
-32.237
-30.99
-29.649
-28.216
-26.695
-25.087
-23.4
-21.637
-19.806
-17.914
-15.969
-13.981
-11.962
-9.925
-7.884
-5.853
-3.846
-1.877
0.036
1.88
3.643
5.312
6.877
8.325
9.643
10.817
11.834
12.682
13.351
13.829
14.105
14.174
14.036
13.689
13.135
12.366
11.367
10.129
8.649
6.922
4.952
2.747
0.326
-2.276
-5.007
-7.816
-10.653
-13.477
-16.262
-18.969
-21.557
-23.978
-26.171
-28.095
-29.72
-31.009
-31.93
-32.49
-32.735
-32.753
-32.682
-32.626
-32.654
-32.85
-33.301
-34.108
-35.391
-37.252
-39.739
-42.935
-46.997
-51.945
-57.673
-63.854
-69.837
-74.975
-78.775
-80.651
-79.987
-76.612
-70.681
-62.927
-54.917
-47.973
-42.966
-40.913
-42.47
-47.248
-54.131
-60.801
-63.601
-59.097
-44.232
-15.702
29.341
90.647
165.131
248.982
336.654
426.728
522.374
620.173
712.23
784.712
817.023
799.561
734.425
629.982
501.396
360.968
216.382
78.953
-36.357
-118.505
-161.635
-170.709
-162.097
-147.733
-133.672
-120.696
-103.375
-81.113
-57.27
-35.083
-18.937
-10.66
-9.652
-14.953
-24.259
-34.635
-44.011
-51.198
-55.728
-57.539
-56.474
-52.602
-46.704
-40.211
-34.386
-29.884
-26.898
-25.379
-25.374
-26.931
-29.821
-33.5
-37.44
-41.308
-44.914
-48.196
-51.079
-53.445
-55.247
-56.519
-57.303
-57.639
-57.561
-57.075
-56.2
-54.982
-53.464
-51.699
-49.747
-47.665
-45.517
-43.364
-41.248
-39.195
-37.226
-35.349
-33.57
-31.883
-30.272
-28.712
-27.188
-25.683
-24.182
-22.666
-21.114
-19.5
-17.805
-16.01
-14.097
-12.052
-9.858
-7.501
-4.972
-2.263
0.634
3.722
7.007
10.495
14.19
18.095
22.209
26.533
31.065
35.803
40.74
45.867
51.175
56.649
62.277
68.042
73.925
79.908
85.969
92.086
98.236
104.394
110.535
116.632
122.658
128.586
134.387
140.033
145.497
150.75
155.764
160.514
164.973
169.116
172.921
176.365
179.428
182.091
184.337
186.152
187.521
188.435
188.886
188.868
188.378
187.416
185.985
184.089
181.735
178.933
175.695
172.035
167.967
163.51
158.683
153.506
148.002
142.195
136.11
129.773
123.211
116.452
109.523
102.454
95.273
88.008
80.687
73.339
65.991
58.67
51.402
44.213
37.127
30.166
23.353
16.708
10.248
3.99
-2.051
-7.863
-13.434
-18.755
-23.818
-28.618
-33.15
-37.412
-41.401
-45.118
-48.565
-51.744
-54.66
-57.318
-59.724
-61.885
-63.81
-65.506
-66.984
-68.252
-69.323
-70.205
-70.912
-71.454
-71.843
-72.092
-72.213
-72.216
-72.115
-71.92
-71.642
-71.29
-70.875
-70.404
-69.886
-69.329
-68.737
-68.119
-67.478
-66.82
-66.15
-65.471
-64.787
-64.1
-63.413
-62.729
-62.05
-61.377
-60.712
-60.056
-59.412
-58.78
-58.161
-57.557
-56.967
-56.392
-55.833
-55.288
-54.757
-54.241
-53.739
-53.25
-52.775
-52.314
-51.867
-51.435
-51.02
-50.621
-50.241
-49.881
-49.543
-49.229
-48.94
-48.678
-48.445
-48.243
-48.072
-47.934
-47.83
-47.761
-47.726
-47.725
-47.758
-47.824
-47.923
-48.052
-48.212
-48.399
-48.614
-48.855
-49.12
-49.409
-49.72
-50.051
-50.402
-50.769
-51.153
-51.549
-51.956
-52.373
-52.795
-53.221
-53.648
-54.073
-54.495
-54.911
-55.319
-55.718
-56.104
-56.478
-56.839
-57.185
-57.518
-57.838
-58.147
-58.445
-58.735
-59.019
-59.3
-59.581
-59.863
-60.149
-60.442
-60.745
-61.059
-61.387
-61.73
-62.092
-62.473
-62.876
-63.302
-63.752
-64.227
-64.729
-65.257
-65.811
-66.392
-66.999
-67.631
-68.287
-68.964
-69.662
-70.376
-71.103
-71.84
-72.581
-73.319
-74.05
-74.765
-75.456
-76.118
-76.741
-77.317
-77.839
-78.299
-78.689
-79.002
-79.231
-79.369
-79.409
-79.346
-79.176
-78.893
-78.493
-77.975
-77.334
-76.572
-75.687
-74.68
-73.553
-72.307
-70.944
-69.471
-67.891
-66.209
-64.433
-62.571
-60.632
-58.631
-56.582
-54.5
-52.4
-50.3
-48.216
-46.168
-44.17
-42.235
-40.376
-38.607
-36.94
-35.392
-33.977
-32.705
-31.586
-30.631
-29.847
-29.242
-28.819
-28.571
-28.498
-28.598
-28.878
-29.353
-30.032
-30.921
-32.02
-33.327
-34.833
-36.527
-38.385
-40.367
-42.433
-44.544
-46.67
-48.786
-50.858
-52.844
-54.69
-56.336
-57.732
-58.832
-59.602
-60.03
-60.125
-59.911
-59.439
-58.758
-57.933
-57.049
-56.195
-55.464
-54.965
-54.779
-55.03
-55.936
-57.595
-59.972
-62.887
-65.866
-68.4
-70.132
-70.583
-69.152
-65.618
-60.166
-53.431
-46.905
-42.107
-40.064
-41.915
-48.673
-60.316
-75.802
-93.157
-108.847
-118.802
-119.52
-107.023
-77.221
-29.389
34.027
110.426
194.948
286.033
387.27
494.782
599.557
687.099
735.764
734.427
683.891
591.756
472.625
339.369
201.579
71.916
-34.157
-105.462
-137.473
-137.088
-121.578
-103.884
-90.83
-82.487
-72.613
-59.858
-46.395
-34.711
-28.608
-28.641
-32.713
-39.251
-46.157
-51.382
-54.252
-54.452
-51.981
-47.594
-42.048
-35.913
-29.941
-24.877
-21.082
-18.74
-17.857
-18.178
-19.516
-21.719
-24.577
-27.908
-31.542
-35.329
-39.141
-42.852
-46.349
-49.542
-52.362
-54.764
-56.733
-58.255
-59.34
-60.026
-60.345
-60.334
-60.027
-59.447
-58.631
-57.629
-56.494
-55.289
-54.058
-52.825
-51.608
-50.417
-49.252
-48.106
-46.964
-45.793
-44.571
-43.281
-41.905
-40.435
-38.854
-37.143
-35.283
-33.258
-31.053
-28.657
-26.061
-23.255
-20.232
-16.991
-13.532
-9.859
-5.972
-1.874
2.436
6.953
11.674
16.594
21.707
27.007
32.483
38.126
43.922
49.856
55.914
62.079
68.333
74.658
81.032
87.436
93.848
100.244
106.604
112.902
119.114
125.217
131.186
136.998
142.628
148.054
153.25
158.196
162.87
167.249
171.316
175.049
178.432
181.448
184.083
186.323
188.155
189.57
190.56
191.117
191.239
190.922
190.166
188.974
187.348
185.295
182.823
179.94
176.659
172.993
168.955
164.562
159.832
154.784
149.438
143.816
137.939
131.831
125.516
119.019
112.366
105.582
98.693
91.724
84.703
77.655
70.605
63.578
56.598
49.689
42.873
36.172
29.607
23.196
16.958
10.908
5.062
-0.567
-5.968
-11.13
-16.044
-20.703
-25.102
-29.236
-33.102
-36.699
-40.026
-43.085
-45.879
-48.412
-50.688
-52.714
-54.497
-56.047
-57.371
-58.481
-59.386
-60.099
-60.631
-60.995
-61.202
-61.267
-61.2
-61.016
-60.726
-60.343
-59.878
-59.343
-58.749
-58.106
-57.424
-56.712
-55.978
-55.23
-54.477
-53.725
-52.98
-52.249
-51.537
-50.848
-50.186
-49.555
-48.957
-48.394
-47.868
-47.379
-46.928
-46.514
-46.137
-45.796
-45.488
-45.212
-44.966
-44.747
-44.552
-44.378
-44.223
-44.083
-43.956
-43.84
-43.732
-43.63
-43.532
-43.436
-43.339
-43.241
-43.14
-43.034
-42.922
-42.801
-42.672
-42.533
-42.383
-42.221
-42.047
-41.862
-41.664
-41.454
-41.233
-41
-40.758
-40.507
-40.248
-39.983
-39.714
-39.443
-39.171
-38.9
-38.633
-38.371
-38.116
-37.868
-37.631
-37.404
-37.189
-36.987
-36.799
-36.625
-36.467
-36.325
-36.199
-36.091
-36.001
-35.929
-35.875
-35.841
-35.826
-35.83
-35.853
-35.895
-35.956
-36.035
-36.132
-36.245
-36.374
-36.518
-36.675
-36.843
-37.023
-37.21
-37.405
-37.606
-37.81
-38.016
-38.222
-38.428
-38.632
-38.831
-39.026
-39.214
-39.395
-39.566
-39.728
-39.877
-40.014
-40.135
-40.24
-40.327
-40.392
-40.436
-40.455
-40.447
-40.412
-40.346
-40.247
-40.115
-39.946
-39.74
-39.493
-39.205
-38.873
-38.496
-38.073
-37.602
-37.084
-36.517
-35.901
-35.235
-34.521
-33.759
-32.947
-32.088
-31.182
-30.232
-29.237
-28.201
-27.128
-26.021
-24.888
-23.736
-22.573
-21.407
-20.247
-19.103
-17.984
-16.897
-15.849
-14.847
-13.895
-13.003
-12.181
-11.439
-10.783
-10.221
-9.76
-9.404
-9.16
-9.031
-9.011
-9.098
-9.293
-9.606
-10.056
-10.66
-11.426
-12.362
-13.468
-14.739
-16.171
-17.746
-19.427
-21.177
-22.961
-24.747
-26.523
-28.264
-29.93
-31.47
-32.816
-33.907
-34.702
-35.172
-35.299
-35.088
-34.561
-33.763
-32.769
-31.672
-30.574
-29.594
-28.835
-28.407
-28.418
-29.015
-30.444
-32.849
-36.199
-40.293
-44.683
-48.904
-52.649
-55.518
-56.903
-56.47
-54.309
-51.046
-48.101
-46.866
-48.152
-52.654
-61.053
-73.438
-88.999
-105.686
-119.972
-128.149
-127.008
-113.511
-84.759
-38.18
25.832
103.476
190.329
281.066
374.5
473.915
575.841
671.96
748.398
785.224
773.537
715.556
619.365
499.516
367.978
233.145
106.603
2.506
-69.122
-104.196
-108.918
-99.102
-86.357
-76.67
-70.392
-62.371
-51.855
-41.168
-32.659
-29.584
-32.272
-38.704
-47.246
-55.789
-62.297
-66.02
-66.65
-64.245
-59.569
-53.457
-46.573
-39.736
-33.741
-28.971
-25.623
-23.721
-23.042
-23.412
-24.69
-26.663
-29.141
-31.979
-35.038
-38.205
-41.363
-44.349
-47.03
-49.317
-51.145
-52.496
-53.356
-53.719
-53.613
-53.08
-52.169
-50.926
-49.39
-47.593
-45.584
-43.423
-41.176
-38.918
-36.699
-34.552
-32.501
-30.558
-28.723
-26.993
-25.35
-23.763
-22.214
-20.682
-19.153
-17.616
-16.053
-14.442
-12.762
-10.992
-9.113
-7.109
-4.964
-2.664
-0.198
2.443
5.264
8.269
11.463
14.85
18.435
22.223
26.216
30.415
34.82
39.43
44.241
49.246
54.437
59.803
65.332
71.01
76.819
82.744
88.763
94.856
100.999
107.17
113.341
119.487
125.578
131.588
137.487
143.245
148.833
154.223
159.386
164.293
168.918
173.234
177.219
180.846
184.096
186.948
189.383
191.386
192.942
194.039
194.668
194.821
194.493
193.683
192.391
190.62
188.374
185.663
182.498
178.89
174.856
170.413
165.582
160.385
154.845
148.989
142.844
136.439
129.803
122.967
115.961
108.818
101.569
94.244
86.876
79.494
72.128
64.807
57.56
50.411
43.388
36.513
29.81
23.299
17
10.93
5.105
-0.461
-5.758
-10.774
-15.504
-19.94
-24.08
-27.922
-31.468
-34.72
-37.682
-40.362
-42.767
-44.907
-46.793
-48.439
-49.856
-51.06
-52.065
-52.886
-53.54
-54.041
-54.406
-54.651
-54.791
-54.84
-54.815
-54.729
-54.597
-54.431
-54.244
-54.047
-53.853
-53.67
-53.509
-53.378
-53.284
-53.232
-53.229
-53.278
-53.382
-53.543
-53.761
-54.036
-54.367
-54.75
-55.183
-55.662
-56.182
-56.738
-57.323
-57.934
-58.562
-59.202
-59.848
-60.493
-61.132
-61.758
-62.366
-62.949
-63.503
-64.022
-64.502
-64.938
-65.325
-65.661
-65.941
-66.162
-66.322
-66.419
-66.451
-66.417
-66.316
-66.149
-65.916
-65.618
-65.258
-64.836
-64.357
-63.823
-63.237
-62.603
-61.926
-61.209
-60.456
-59.672
-58.861
-58.028
-57.177
-56.312
-55.437
-54.557
-53.675
-52.796
-51.923
-51.061
-50.213
-49.384
-48.575
-47.792
-47.038
-46.316
-45.628
-44.979
-44.371
-43.807
-43.288
-42.817
-42.396
-42.025
-41.708
-41.444
-41.235
-41.082
-40.985
-40.946
-40.964
-41.04
-41.174
-41.367
-41.618
-41.926
-42.293
-42.717
-43.198
-43.734
-44.326
-44.971
-45.669
-46.417
-47.214
-48.056
-48.942
-49.868
-50.83
-51.827
-52.852
-53.904
-54.976
-56.067
-57.169
-58.279
-59.392
-60.502
-61.603
-62.689
-63.754
-64.791
-65.793
-66.754
-67.667
-68.525
-69.321
-70.049
-70.701
-71.272
-71.754
-72.143
-72.431
-72.612
-72.683
-72.639
-72.475
-72.188
-71.776
-71.237
-70.569
-69.772
-68.846
-67.791
-66.61
-65.304
-63.878
-62.335
-60.682
-58.923
-57.069
-55.131
-53.119
-51.047
-48.928
-46.778
-44.612
-42.446
-40.294
-38.172
-36.092
-34.069
-32.119
-30.256
-28.498
-26.862
-25.363
-24.016
-22.835
-21.832
-21.019
-20.402
-19.984
-19.771
-19.773
-20.006
-20.486
-21.224
-22.224
-23.49
-25.013
-26.78
-28.763
-30.922
-33.211
-35.583
-37.998
-40.425
-42.831
-45.179
-47.422
-49.496
-51.342
-52.915
-54.184
-55.121
-55.727
-56.035
-56.107
-56.058
-56.001
-56.028
-56.236
-56.72
-57.582
-58.945
-60.925
-63.612
-67.131
-71.64
-77.174
-83.64
-90.759
-98.021
-104.92
-111.038
-115.879
-118.829
-119.513
-117.939
-114.583
-110.483
-106.591
-103.348
-101.126
-100.522
-101.79
-104.434
-107.067
-107.068
-101.666
-89.103
-67.541
-34.593
11.696
72.8
147.349
230.246
316.755
402.874
488.218
575.897
662.877
741.386
797.798
813.997
783.166
707.804
596.988
465.779
323.517
177.235
37.446
-82.787
-169.502
-213.714
-216.808
-190.95
-150.131
-107.574
-73.983
-52.734
-46.544
-53.821
-66.891
-80.673
-89.674
-91.855
-91.238
-89.753
-88.384
-87.266
-84.138
-78.388
-70.897
-62.523
-54.468
-47.555
-42.031
-38.028
-35.6
-34.623
-34.853
-36.082
-38.13
-40.805
-43.956
-47.444
-51.085
-54.727
-58.242
-61.473
-64.305
-66.669
-68.512
-69.822
-70.614
-70.908
-70.743
-70.176
-69.254
-68.027
-66.542
-64.845
-62.993
-61.051
-59.082
-57.149
-55.295
-53.545
-51.912
-50.397
-48.992
-47.682
-46.443
-45.245
-44.064
-42.881
-41.676
-40.432
-39.13
-37.744
-36.254
-34.637
-32.874
-30.949
-28.845
-26.551
-24.056
-21.352
-18.434
-15.298
-11.941
-8.357
-4.545
-0.503
3.771
8.272
12.997
17.938
23.089
28.438
33.975
39.687
45.56
51.582
57.736
64.006
70.373
76.816
83.309
89.824
96.331
102.8
109.198
115.494
121.657
127.657
133.466
139.059
144.406
149.481
154.25
158.678
162.735
166.397
169.648
172.477
174.884
176.877
178.471
179.681
180.519
180.987
181.077
180.767
180.036
178.86
177.233
175.163
172.656
169.719
166.351
162.55
158.296
153.559
148.301
142.474
136.053
129.042
121.476
113.427
104.985
96.259
87.339
78.293
69.188
60.082
51.037
42.118
33.403
24.985
16.973
9.497
2.654
-3.487
-8.906
-13.626
-17.706
-21.235
-24.287
-26.923
-29.19
-31.125
-32.759
-34.125
-35.263
-36.219
-37.062
-37.887
-38.768
-39.766
-40.905
-42.174
-43.539
-44.937
-46.314
-47.628
-48.847
-49.956
-50.951
-51.83
-52.598
-53.261
-53.811
-54.223
-54.479
-54.561
-54.468
-54.212
-53.821
-53.332
-52.779
-52.197
-51.609
-51.032
-50.475
-49.941
-49.426
-48.922
-48.426
-47.938
-47.461
-46.999
-46.555
-46.125
-45.706
-45.29
-44.872
-44.442
-43.993
-43.521
-43.022
-42.495
-41.941
-41.365
-40.769
-40.158
-39.533
-38.895
-38.247
-37.589
-36.923
-36.249
-35.569
-34.884
-34.198
-33.514
-32.835
-32.167
-31.512
-30.874
-30.257
-29.664
-29.1
-28.565
-28.065
-27.6
-27.174
-26.788
-26.446
-26.149
-25.899
-25.698
-25.546
-25.443
-25.39
-25.385
-25.428
-25.517
-25.649
-25.822
-26.034
-26.283
-26.566
-26.88
-27.222
-27.59
-27.979
-28.385
-28.806
-29.236
-29.673
-30.111
-30.549
-30.982
-31.409
-31.826
-32.231
-32.623
-32.999
-33.358
-33.699
-34.022
-34.325
-34.607
-34.871
-35.115
-35.34
-35.549
-35.742
-35.921
-36.088
-36.246
-36.397
-36.543
-36.687
-36.832
-36.981
-37.137
-37.302
-37.479
-37.672
-37.881
-38.11
-38.36
-38.632
-38.929
-39.25
-39.595
-39.965
-40.359
-40.776
-41.213
-41.67
-42.142
-42.626
-43.118
-43.614
-44.109
-44.599
-45.078
-45.539
-45.977
-46.385
-46.757
-47.086
-47.365
-47.588
-47.747
-47.836
-47.849
-47.781
-47.625
-47.377
-47.033
-46.588
-46.04
-45.386
-44.625
-43.755
-42.776
-41.689
-40.497
-39.203
-37.811
-36.327
-34.761
-33.123
-31.424
-29.677
-27.895
-26.092
-24.283
-22.481
-20.7
-18.951
-17.25
-15.61
-14.048
-12.582
-11.228
-10.002
-8.917
-7.988
-7.229
-6.651
-6.258
-6.052
-6.042
-6.239
-6.667
-7.344
-8.28
-9.479
-10.942
-12.66
-14.621
-16.798
-19.145
-21.616
-24.165
-26.754
-29.362
-31.961
-34.507
-36.943
-39.197
-41.208
-42.943
-44.374
-45.473
-46.249
-46.731
-46.99
-47.147
-47.298
-47.531
-47.936
-48.598
-49.624
-51.139
-53.247
-56.076
-59.802
-64.466
-69.981
-76.133
-82.466
-88.487
-93.795
-97.88
-100.134
-100.25
-98.316
-94.831
-90.857
-87.451
-85.169
-84.467
-85.933
-89.677
-94.993
-100.333
-103.013
-99.946
-88.945
-68.263
-35.67
10.695
71.639
146.798
232.372
321.77
409.78
492.534
569.334
641.799
706.967
757.444
781.427
766.137
707.274
607.368
475.248
327.188
178.291
45.372
-52.967
-109.512
-125.347
-110.706
-85.702
-63.323
-48.616
-41.527
-35.806
-28.91
-22.52
-18.679
-20.041
-26.572
-35.946
-45.771
-53.735
-58.777
-60.871
-60.236
-57.505
-53.43
-48.71
-44.191
-40.654
-38.468
-37.757
-38.464
-40.34
-43.182
-46.81
-50.983
-55.486
-60.124
-64.727
-69.153
-73.264
-76.934
-80.068
-82.601
-84.496
-85.749
-86.364
-86.368
-85.819
-84.77
-83.278
-81.397
-79.17
-76.658
-73.935
-71.076
-68.165
-65.265
-62.417
-59.656
-57.005
-54.475
-52.069
-49.778
-47.578
-45.451
-43.385
-41.367
-39.391
-37.441
-35.498
-33.541
-31.551
-29.509
-27.401
-25.209
-22.916
-20.51
-17.977
-15.31
-12.5
-9.537
-6.41
-3.108
0.381
4.066
7.954
12.054
16.371
20.909
25.667
30.643
35.833
41.229
46.823
52.602
58.553
64.659
70.902
77.263
83.72
90.25
96.826
103.423
110.013
116.568
123.059
129.455
135.726
141.843
147.774
153.49
158.962
164.159
169.054
173.619
177.828
181.654
185.076
188.071
190.619
192.703
194.309
195.426
196.043
196.155
195.76
194.856
193.447
191.538
189.137
186.256
182.907
179.107
174.873
170.226
165.187
159.782
154.036
147.976
141.629
135.026
128.197
121.172
113.984
106.663
99.243
91.756
84.234
76.71
69.215
61.779
54.434
47.207
40.125
33.214
26.497
19.996
13.731
7.718
1.974
-3.488
-8.657
-13.524
-18.083
-22.328
-26.257
-29.869
-33.165
-36.148
-38.823
-41.197
-43.275
-45.069
-46.587
-47.841
-48.844
-49.61
-50.152
-50.487
-50.631
-50.6
-50.413
-50.086
-49.637
-49.085
-48.445
-47.735
-46.97
-46.167
-45.34
-44.501
-43.665
-42.843
-42.046
-41.283
-40.562
-39.893
-39.279
-38.728
-38.243
-37.827
-37.482
-37.21
-37.012
-36.887
-36.835
-36.854
-36.941
-37.094
-37.308
-37.578
-37.9
-38.267
-38.673
-39.111
-39.574
-40.055
-40.547
-41.043
-41.535
-42.019
-42.486
-42.932
-43.35
-43.736
-44.086
-44.396
-44.662
-44.882
-45.055
-45.179
-45.253
-45.278
-45.254
-45.182
-45.062
-44.896
-44.686
-44.434
-44.143
-43.815
-43.455
-43.065
-42.65
-42.215
-41.764
-41.302
-40.835
-40.368
-39.905
-39.451
-39.013
-38.594
-38.199
-37.833
-37.5
-37.203
-36.944
-36.728
-36.555
-36.427
-36.345
-36.309
-36.32
-36.377
-36.479
-36.626
-36.817
-37.049
-37.323
-37.635
-37.984
-38.368
-38.784
-39.229
-39.701
-40.197
-40.713
-41.246
-41.794
-42.352
-42.919
-43.49
-44.063
-44.634
-45.202
-45.763
-46.315
-46.855
-47.384
-47.898
-48.398
-48.884
-49.355
-49.811
-50.254
-50.683
-51.101
-51.506
-51.9
-52.284
-52.659
-53.025
-53.384
-53.736
-54.082
-54.422
-54.759
-55.092
-55.421
-55.748
-56.071
-56.391
-56.707
-57.019
-57.325
-57.623
-57.912
-58.189
-58.454
-58.702
-58.931
-59.137
-59.316
-59.463
-59.575
-59.648
-59.675
-59.654
-59.578
-59.446
-59.252
-58.995
-58.67
-58.275
-57.807
-57.264
-56.646
-55.95
-55.177
-54.324
-53.395
-52.389
-51.31
-50.161
-48.946
-47.671
-46.344
-44.974
-43.571
-42.146
-40.71
-39.275
-37.855
-36.462
-35.107
-33.8
-32.553
-31.377
-30.287
-29.294
-28.414
-27.657
-27.038
-26.567
-26.255
-26.111
-26.136
-26.333
-26.703
-27.256
-28.007
-28.972
-30.156
-31.567
-33.203
-35.056
-37.109
-39.329
-41.664
-44.063
-46.472
-48.85
-51.167
-53.392
-55.485
-57.399
-59.074
-60.459
-61.521
-62.229
-62.556
-62.509
-62.134
-61.519
-60.81
-60.14
-59.604
-59.303
-59.332
-59.781
-60.762
-62.38
-64.69
-67.788
-71.819
-76.792
-82.613
-89.001
-95.375
-101.134
-105.777
-108.66
-109.112
-106.891
-102.065
-95.244
-87.791
-80.859
-75.226
-71.874
-71.545
-74.002
-78.305
-82.39
-82.903
-76.684
-60.933
-32.45
11.772
71.608
144.02
225.455
310.634
398.933
495.093
596.497
695.101
776.217
817.137
806.536
746.487
645.441
518.26
377.833
231.505
90.275
-26.617
-103.942
-133.004
-115.73
-75.153
-34.944
-9.864
-9.166
-24.431
-42.271
-56.531
-61.526
-59.614
-58.433
-60.091
-65.705
-74.19
-81.065
-84.656
-85.017
-82.281
-77.712
-72.289
-66.352
-60.536
-55.535
-51.634
-48.95
-47.493
-47.098
-47.641
-49.038
-51.128
-53.713
-56.649
-59.833
-63.16
-66.514
-69.746
-72.69
-75.229
-77.296
-78.856
-79.894
-80.402
-80.391
-79.892
-78.96
-77.644
-75.988
-74.037
-71.832
-69.426
-66.883
-64.269
-61.646
-59.06
-56.536
-54.09
-51.724
-49.435
-47.212
-45.033
-42.871
-40.703
-38.511
-36.28
-33.994
-31.636
-29.184
-26.622
-23.928
-21.088
-18.089
-14.918
-11.566
-8.027
-4.295
-0.367
3.755
8.075
12.592
17.309
22.225
27.34
32.651
38.152
43.838
49.701
55.728
61.905
68.218
74.648
81.175
87.78
94.438
101.126
107.819
114.492
121.116
127.665
134.11
140.424
146.578
152.545
158.296
163.807
169.049
173.999
178.632
182.926
186.858
190.409
193.558
196.29
198.588
200.44
201.833
202.758
203.209
203.182
202.674
201.687
200.224
198.292
195.899
193.055
189.775
186.073
181.968
177.479
172.627
167.435
161.927
156.13
150.069
143.772
137.268
130.583
123.748
116.792
109.742
102.629
95.481
88.326
81.192
74.106
67.093
60.179
53.386
46.737
40.253
33.951
27.85
21.964
16.307
10.891
5.726
0.819
-3.825
-8.2
-12.305
-16.141
-19.707
-23.008
-26.048
-28.833
-31.37
-33.668
-35.735
-37.582
-39.22
-40.662
-41.919
-43.005
-43.933
-44.716
-45.37
-45.906
-46.339
-46.683
-46.949
-47.15
-47.297
-47.403
-47.476
-47.527
-47.565
-47.596
-47.628
-47.666
-47.716
-47.781
-47.864
-47.967
-48.091
-48.235
-48.401
-48.586
-48.789
-49.007
-49.239
-49.48
-49.727
-49.976
-50.223
-50.464
-50.694
-50.908
-51.101
-51.27
-51.41
-51.516
-51.586
-51.615
-51.6
-51.539
-51.429
-51.268
-51.055
-50.79
-50.472
-50.101
-49.679
-49.207
-48.688
-48.124
-47.518
-46.875
-46.197
-45.49
-44.757
-44.003
-43.233
-42.452
-41.664
-40.874
-40.087
-39.308
-38.541
-37.79
-37.06
-36.355
-35.679
-35.035
-34.426
-33.856
-33.328
-32.844
-32.406
-32.016
-31.676
-31.388
-31.151
-30.966
-30.833
-30.752
-30.721
-30.739
-30.804
-30.913
-31.065
-31.257
-31.485
-31.748
-32.041
-32.363
-32.709
-33.078
-33.466
-33.872
-34.292
-34.724
-35.166
-35.616
-36.073
-36.534
-36.999
-37.466
-37.933
-38.4
-38.866
-39.329
-39.789
-40.244
-40.695
-41.139
-41.578
-42.012
-42.439
-42.861
-43.279
-43.693
-44.104
-44.513
-44.922
-45.331
-45.741
-46.153
-46.568
-46.986
-47.408
-47.834
-48.263
-48.695
-49.13
-49.566
-50.002
-50.435
-50.864
-51.286
-51.697
-52.096
-52.477
-52.839
-53.176
-53.487
-53.768
-54.014
-54.223
-54.389
-54.509
-54.578
-54.593
-54.548
-54.44
-54.263
-54.013
-53.688
-53.283
-52.795
-52.221
-51.558
-50.803
-49.954
-49.012
-47.976
-46.844
-45.62
-44.305
-42.905
-41.423
-39.865
-38.239
-36.554
-34.82
-33.048
-31.251
-29.442
-27.634
-25.841
-24.077
-22.355
-20.688
-19.088
-17.567
-16.14
-14.82
-13.622
-12.561
-11.649
-10.898
-10.32
-9.925
-9.715
-9.693
-9.863
-10.229
-10.807
-11.608
-12.638
-13.905
-15.409
-17.148
-19.106
-21.261
-23.569
-25.989
-28.482
-31.013
-33.561
-36.101
-38.597
-41.006
-43.274
-45.348
-47.189
-48.761
-50.022
-50.958
-51.595
-51.993
-52.259
-52.486
-52.729
-53.035
-53.445
-54.007
-54.801
-55.933
-57.494
-59.604
-62.427
-66.036
-70.435
-75.47
-80.628
-85.252
-88.7
-90.267
-89.332
-85.637
-79.13
-70.355
-60.944
-52.713
-47.366
-45.54
-46.347
-48.951
-53.158
-61.59
-77.38
-98.811
-118.454
-121.286
-91.331
-23.167
77
193.791
310.965
422.708
531.161
637.765
737.047
812.445
846.725
833.285
776.408
691.272
589.91
473.658
344.215
204.329
66.307
-46.679
-119.534
-147.411
-137.515
-107.162
-71.198
-40.677
-20.952
-13.776
-17.885
-27.225
-37.218
-43.336
-44.227
-44.085
-45.067
-48.042
-52.376
-55.003
-54.798
-52.269
-48.142
-43.595
-39.334
-35.608
-32.852
-31.397
-31.29
-32.411
-34.515
-37.378
-40.844
-44.775
-48.999
-53.326
-57.599
-61.675
-65.423
-68.745
-71.564
-73.828
-75.519
-76.631
-77.172
-77.18
-76.711
-75.82
-74.564
-72.988
-71.135
-69.061
-66.831
-64.513
-62.176
-59.868
-57.617
-55.444
-53.362
-51.372
-49.473
-47.646
-45.865
-44.11
-42.365
-40.616
-38.851
-37.054
-35.202
-33.276
-31.256
-29.125
-26.867
-24.466
-21.909
-19.183
-16.279
-13.19
-9.913
-6.439
-2.763
1.121
5.218
9.53
14.059
18.803
23.76
28.927
34.295
39.854
45.594
51.5
57.559
63.753
70.064
76.473
82.957
89.495
96.062
102.633
109.181
115.679
122.099
128.411
134.586
140.595
146.409
151.996
157.329
162.378
167.117
171.517
175.553
179.202
182.441
185.249
187.609
189.505
190.923
191.851
192.283
192.212
191.635
190.551
188.961
186.872
184.288
181.22
177.68
173.68
169.238
164.371
159.099
153.446
147.434
141.089
134.438
127.51
120.334
112.94
105.361
97.628
89.774
81.832
73.835
65.814
57.802
49.83
41.928
34.123
26.445
18.918
11.567
4.416
-2.516
-9.209
-15.646
-21.812
-27.694
-33.28
-38.562
-43.533
-48.186
-52.52
-56.533
-60.225
-63.598
-66.657
-69.406
-71.854
-74.01
-75.883
-77.485
-78.829
-79.929
-80.8
-81.458
-81.917
-82.196
-82.309
-82.275
-82.109
-81.828
-81.448
-80.984
-80.451
-79.864
-79.237
-78.582
-77.911
-77.234
-76.563
-75.905
-75.269
-74.662
-74.09
-73.559
-73.073
-72.634
-72.247
-71.912
-71.631
-71.402
-71.226
-71.101
-71.024
-70.992
-71.002
-71.051
-71.133
-71.245
-71.381
-71.537
-71.708
-71.888
-72.072
-72.255
-72.433
-72.601
-72.755
-72.891
-73.006
-73.096
-73.159
-73.193
-73.196
-73.167
-73.104
-73.006
-72.875
-72.709
-72.51
-72.277
-72.014
-71.721
-71.401
-71.056
-70.688
-70.301
-69.897
-69.479
-69.051
-68.616
-68.178
-67.74
-67.307
-66.881
-66.466
-66.067
-65.685
-65.326
-64.991
-64.684
-64.407
-64.162
-63.952
-63.779
-63.643
-63.546
-63.489
-63.473
-63.497
-63.562
-63.667
-63.811
-63.994
-64.213
-64.467
-64.754
-65.073
-65.42
-65.795
-66.193
-66.614
-67.053
-67.508
-67.976
-68.454
-68.938
-69.426
-69.914
-70.399
-70.879
-71.349
-71.809
-72.254
-72.684
-73.096
-73.488
-73.859
-74.206
-74.53
-74.829
-75.103
-75.352
-75.577
-75.778
-75.956
-76.112
-76.247
-76.362
-76.459
-76.537
-76.599
-76.646
-76.678
-76.696
-76.701
-76.695
-76.678
-76.65
-76.613
-76.566
-76.509
-76.442
-76.365
-76.274
-76.17
-76.049
-75.909
-75.749
-75.564
-75.352
-75.108
-74.829
-74.508
-74.142
-73.725
-73.251
-72.715
-72.112
-71.434
-70.679
-69.842
-68.918
-67.904
-66.797
-65.593
-64.293
-62.894
-61.395
-59.797
-58.101
-56.309
-54.424
-52.451
-50.394
-48.261
-46.061
-43.805
-41.504
-39.171
-36.819
-34.464
-32.12
-29.802
-27.524
-25.298
-23.138
-21.059
-19.076
-17.208
-15.469
-13.874
-12.437
-11.171
-10.089
-9.199
-8.504
-8.005
-7.705
-7.61
-7.738
-8.103
-8.712
-9.569
-10.676
-12.021
-13.591
-15.361
-17.284
-19.315
-21.406
-23.518
-25.621
-27.688
-29.675
-31.533
-33.197
-34.603
-35.711
-36.478
-36.871
-36.894
-36.574
-35.971
-35.192
-34.325
-33.45
-32.668
-32.074
-31.756
-31.808
-32.307
-33.367
-35.191
-37.89
-41.429
-45.604
-49.984
-54.128
-57.643
-59.959
-60.36
-58.399
-54.05
-47.907
-41.157
-34.785
-29.766
-27.426
-28.788
-34.415
-42.897
-50.282
-53.681
-51.313
-43.072
-31.258
-12.654
19.08
69.479
145.925
248.158
370.527
506.347
641.481
760.553
848.175
890.57
884.276
833.455
747.578
638.833
516.022
388.465
267.987
163.864
83.706
28.648
-9.775
-39.277
-64.516
-86.585
-100.583
-103.187
-95.538
-80.677
-63.427
-47.849
-35.604
-26.758
-20.665
-17.005
-15.463
-15.786
-17.932
-20.86
-23.307
-24.981
-25.906
-26.203
-26.201
-25.813
-24.627
-23.044
-21.901
-21.587
-22.305
-23.991
-26.327
-29.289
-33.062
-37.469
-42.04
-46.381
-50.169
-53.279
-55.791
-57.708
-58.947
-59.489
-59.391
-58.743
-57.66
-56.22
-54.437
-52.336
-49.971
-47.412
-44.752
-42.078
-39.446
-36.884
-34.416
-32.052
-29.798
-27.658
-25.618
-23.653
-21.744
-19.873
-18.029
-16.206
-14.392
-12.563
-10.697
-8.77
-6.76
-4.653
-2.434
-0.087
2.399
5.036
7.832
10.792
13.924
17.237
20.74
24.441
28.347
32.462
36.791
41.334
46.091
51.058
56.228
61.594
67.144
72.866
78.745
84.766
90.909
97.155
103.481
109.865
116.281
122.703
129.103
135.451
141.719
147.876
153.892
159.734
165.372
170.776
175.915
180.759
185.281
189.452
193.245
196.637
199.604
202.123
204.177
205.749
206.823
207.388
207.437
206.962
205.961
204.433
202.382
199.811
196.73
193.148
189.08
184.54
179.547
174.121
168.286
162.065
155.486
148.578
141.369
133.892
126.177
118.259
110.172
101.948
93.623
85.231
76.806
68.382
59.991
51.666
43.438
35.336
27.389
19.622
12.061
4.727
-2.357
-9.173
-15.705
-21.938
-27.859
-33.458
-38.727
-43.66
-48.253
-52.504
-56.415
-59.987
-63.224
-66.133
-68.721
-70.997
-72.973
-74.661
-76.073
-77.225
-78.13
-78.806
-79.267
-79.532
-79.617
-79.538
-79.312
-78.956
-78.485
-77.914
-77.259
-76.532
-75.749
-74.921
-74.059
-73.175
-72.279
-71.379
-70.483
-69.598
-68.731
-67.886
-67.067
-66.279
-65.523
-64.802
-64.115
-63.464
-62.847
-62.263
-61.71
-61.186
-60.688
-60.212
-59.756
-59.317
-58.89
-58.472
-58.061
-57.653
-57.246
-56.838
-56.426
-56.009
-55.585
-55.154
-54.715
-54.268
-53.812
-53.349
-52.878
-52.402
-51.92
-51.434
-50.946
-50.458
-49.969
-49.483
-49.002
-48.526
-48.057
-47.599
-47.152
-46.72
-46.302
-45.903
-45.522
-45.162
-44.823
-44.505
-44.21
-43.938
-43.687
-43.458
-43.249
-43.059
-42.887
-42.731
-42.588
-42.457
-42.335
-42.219
-42.106
-41.995
-41.882
-41.766
-41.643
-41.514
-41.375
-41.226
-41.066
-40.894
-40.709
-40.512
-40.302
-40.079
-39.843
-39.597
-39.34
-39.075
-38.803
-38.525
-38.246
-37.966
-37.688
-37.415
-37.151
-36.897
-36.657
-36.435
-36.233
-36.054
-35.904
-35.784
-35.698
-35.648
-35.638
-35.668
-35.74
-35.856
-36.015
-36.218
-36.464
-36.753
-37.082
-37.451
-37.856
-38.296
-38.766
-39.263
-39.782
-40.32
-40.87
-41.428
-41.988
-42.545
-43.094
-43.63
-44.148
-44.641
-45.106
-45.535
-45.924
-46.268
-46.56
-46.795
-46.968
-47.073
-47.108
-47.067
-46.948
-46.747
-46.462
-46.09
-45.631
-45.082
-44.443
-43.714
-42.895
-41.987
-40.992
-39.913
-38.754
-37.517
-36.208
-34.83
-33.39
-31.892
-30.341
-28.744
-27.105
-25.432
-23.732
-22.011
-20.278
-18.542
-16.814
-15.106
-13.429
-11.795
-10.218
-8.708
-7.278
-5.94
-4.702
-3.572
-2.559
-1.67
-0.916
-0.308
0.145
0.438
0.561
0.511
0.28
-0.134
-0.726
-1.489
-2.422
-3.526
-4.815
-6.301
-7.986
-9.871
-11.954
-14.225
-16.669
-19.26
-21.95
-24.689
-27.43
-30.133
-32.775
-35.329
-37.754
-39.998
-41.999
-43.697
-45.062
-46.065
-46.675
-46.892
-46.746
-46.313
-45.717
-45.066
-44.447
-43.956
-43.69
-43.762
-44.298
-45.384
-47.129
-49.712
-53.221
-57.638
-62.808
-68.274
-73.54
-78.228
-81.801
-83.58
-83.144
-80.395
-75.738
-70.451
-65.744
-62.198
-60.728
-62.524
-67.986
-76.906
-86.9
-92.699
-91.035
-80.561
-61.462
-36.344
-2.84
43.968
108.514
196.354
305.803
431.089
564.463
690.966
795.401
863.193
882.692
852.772
780.372
676.231
550.224
410.826
265.947
127.187
12.42
-66.058
-104.792
-111.413
-104.159
-95.418
-89.307
-83.914
-72.563
-54.491
-34.062
-15.382
-2.52
3.364
3.275
-2.305
-12.229
-24.313
-36.138
-46.061
-53.423
-58.276
-60.835
-60.876
-58.384
-54.206
-49.725
-45.966
-43.384
-42.012
-41.698
-42.557
-44.706
-47.917
-51.685
-55.549
-59.224
-62.575
-65.577
-68.144
-70.159
-71.584
-72.454
-72.824
-72.741
-72.239
-71.328
-70.03
-68.386
-66.441
-64.246
-61.855
-59.324
-56.711
-54.076
-51.459
-48.89
-46.392
-43.976
-41.646
-39.402
-37.226
-35.101
-33.01
-30.942
-28.882
-26.814
-24.717
-22.569
-20.352
-18.049
-15.643
-13.119
-10.462
-7.659
-4.699
-1.575
1.719
5.187
8.837
12.671
16.695
20.91
25.318
29.917
34.707
39.684
44.842
50.174
55.669
61.315
67.098
73.002
79.011
85.104
91.263
97.466
103.689
109.908
116.1
122.237
128.293
134.241
140.054
145.705
151.165
156.408
161.408
166.139
170.577
174.697
178.478
181.898
184.938
187.579
189.805
191.601
192.956
193.859
194.302
194.28
193.789
192.83
191.403
189.513
187.166
184.37
181.137
177.478
173.407
168.942
164.101
158.903
153.37
147.524
141.392
134.996
128.365
121.526
114.505
107.332
100.034
92.642
85.183
77.686
70.18
62.693
55.251
47.881
40.609
33.458
26.451
19.609
12.952
6.499
0.264
-5.736
-11.489
-16.984
-22.21
-27.16
-31.827
-36.207
-40.297
-44.096
-47.603
-50.822
-53.754
-56.406
-58.783
-60.893
-62.745
-64.347
-65.712
-66.85
-67.775
-68.499
-69.037
-69.402
-69.609
-69.672
-69.606
-69.425
-69.143
-68.772
-68.325
-67.814
-67.251
-66.645
-66.007
-65.345
-64.668
-63.983
-63.297
-62.616
-61.945
-61.289
-60.651
-60.034
-59.441
-58.872
-58.33
-57.815
-57.326
-56.862
-56.422
-56.004
-55.606
-55.225
-54.858
-54.501
-54.15
-53.803
-53.455
-53.103
-52.745
-52.378
-52
-51.609
-51.204
-50.786
-50.353
-49.906
-49.447
-48.976
-48.495
-48.006
-47.511
-47.013
-46.515
-46.019
-45.528
-45.045
-44.574
-44.118
-43.678
-43.26
-42.865
-42.498
-42.16
-41.855
-41.586
-41.357
-41.17
-41.028
-40.934
-40.889
-40.895
-40.953
-41.064
-41.228
-41.444
-41.71
-42.026
-42.389
-42.797
-43.245
-43.732
-44.253
-44.805
-45.384
-45.984
-46.603
-47.235
-47.878
-48.526
-49.177
-49.827
-50.472
-51.111
-51.739
-52.356
-52.958
-53.542
-54.108
-54.653
-55.175
-55.673
-56.145
-56.591
-57.009
-57.401
-57.766
-58.104
-58.417
-58.705
-58.972
-59.217
-59.445
-59.657
-59.856
-60.046
-60.228
-60.407
-60.586
-60.766
-60.953
-61.147
-61.351
-61.567
-61.797
-62.041
-62.3
-62.574
-62.863
-63.166
-63.484
-63.814
-64.157
-64.509
-64.87
-65.238
-65.612
-65.988
-66.365
-66.739
-67.107
-67.467
-67.815
-68.147
-68.458
-68.744
-69
-69.223
-69.406
-69.545
-69.635
-69.671
-69.647
-69.56
-69.405
-69.178
-68.875
-68.494
-68.032
-67.488
-66.862
-66.152
-65.358
-64.483
-63.526
-62.491
-61.38
-60.195
-58.939
-57.617
-56.232
-54.791
-53.299
-51.761
-50.187
-48.585
-46.968
-45.347
-43.732
-42.138
-40.576
-39.061
-37.604
-36.217
-34.909
-33.69
-32.571
-31.564
-30.681
-29.933
-29.33
-28.88
-28.59
-28.467
-28.514
-28.728
-29.105
-29.644
-30.35
-31.237
-32.318
-33.596
-35.077
-36.756
-38.623
-40.662
-42.845
-45.125
-47.455
-49.79
-52.088
-54.322
-56.463
-58.466
-60.281
-61.842
-63.09
-63.986
-64.492
-64.581
-64.269
-63.59
-62.623
-61.485
-60.272
-59.081
-58.034
-57.233
-56.803
-56.887
-57.559
-58.938
-61.231
-64.497
-68.674
-73.573
-78.665
-83.386
-87.38
-90.12
-90.926
-89.531
-85.979
-80.718
-75.105
-70.49
-67.487
-66.829
-69.565
-75.745
-84.477
-94.419
-101.229
-100.227
-89.892
-67.34
-31.729
14.79
73.918
145.442
228.729
326.661
438.299
559.825
681.651
786.914
857.588
877.406
841.186
753.348
623.407
468.405
303.497
144.301
10.923
-83.567
-133.806
-143.558
-129.814
-110.139
-93.706
-83.718
-75.973
-64.613
-50.535
-36.84
-26.394
-22.137
-23.88
-29.482
-37.568
-46.58
-54.28
-59.591
-62.351
-62.586
-60.954
-58.244
-54.627
-50.349
-46.401
-43.404
-41.556
-41.017
-41.507
-42.715
-44.685
-47.418
-50.586
-53.941
-57.28
-60.345
-63.081
-65.467
-67.387
-68.779
-69.648
-69.99
-69.84
-69.266
-68.3
-66.976
-65.343
-63.43
-61.28
-58.95
-56.496
-53.984
-51.481
-49.031
-46.665
-44.404
-42.26
-40.237
-38.331
-36.523
-34.784
-33.093
-31.433
-29.79
-28.149
-26.488
-24.784
-23.012
-21.15
-19.179
-17.08
-14.834
-12.424
-9.837
-7.061
-4.087
-0.911
2.477
6.082
9.913
13.973
18.268
22.799
27.565
32.567
37.8
43.258
48.93
54.806
60.871
67.11
73.504
80.033
86.676
93.409
100.207
107.044
113.893
120.723
127.507
134.212
140.809
147.267
153.553
159.639
165.492
171.084
176.386
181.37
186.01
190.28
194.157
197.619
200.645
203.218
205.322
206.943
208.069
208.693
208.81
208.416
207.511
206.099
204.185
201.777
198.885
195.522
191.704
187.448
182.773
177.702
172.257
166.463
160.347
153.936
147.259
140.346
133.225
125.928
118.485
110.928
103.287
95.593
87.876
80.166
72.493
64.883
57.365
49.965
42.706
35.611
28.702
21.998
15.517
9.274
3.284
-2.442
-7.893
-13.062
-17.941
-22.527
-26.817
-30.811
-34.508
-37.911
-41.024
-43.853
-46.402
-48.68
-50.695
-52.457
-53.976
-55.263
-56.33
-57.189
-57.854
-58.337
-58.652
-58.813
-58.833
-58.726
-58.506
-58.185
-57.777
-57.294
-56.748
-56.15
-55.51
-54.84
-54.148
-53.443
-52.733
-52.024
-51.324
-50.637
-49.969
-49.324
-48.706
-48.119
-47.563
-47.043
-46.559
-46.114
-45.706
-45.337
-45.007
-44.714
-44.457
-44.236
-44.047
-43.89
-43.762
-43.66
-43.582
-43.525
-43.484
-43.459
-43.445
-43.438
-43.437
-43.437
-43.437
-43.433
-43.423
-43.405
-43.378
-43.339
-43.287
-43.222
-43.141
-43.043
-42.929
-42.796
-42.646
-42.477
-42.289
-42.083
-41.859
-41.618
-41.36
-41.087
-40.8
-40.5
-40.19
-39.87
-39.545
-39.215
-38.884
-38.554
-38.23
-37.914
-37.61
-37.32
-37.049
-36.799
-36.573
-36.373
-36.202
-36.062
-35.955
-35.883
-35.848
-35.85
-35.891
-35.973
-36.095
-36.259
-36.466
-36.714
-37.004
-37.336
-37.709
-38.122
-38.575
-39.067
-39.597
-40.162
-40.761
-41.392
-42.052
-42.738
-43.447
-44.177
-44.923
-45.682
-46.451
-47.227
-48.007
-48.787
-49.566
-50.341
-51.109
-51.869
-52.618
-53.354
-54.077
-54.783
-55.474
-56.146
-56.8
-57.433
-58.047
-58.638
-59.208
-59.754
-60.275
-60.771
-61.24
-61.682
-62.095
-62.48
-62.834
-63.158
-63.45
-63.711
-63.938
-64.132
-64.291
-64.413
-64.497
-64.54
-64.542
-64.5
-64.412
-64.274
-64.085
-63.842
-63.541
-63.181
-62.757
-62.267
-61.707
-61.075
-60.37
-59.589
-58.729
-57.791
-56.774
-55.678
-54.504
-53.252
-51.926
-50.527
-49.058
-47.525
-45.931
-44.282
-42.587
-40.852
-39.09
-37.31
-35.524
-33.745
-31.984
-30.255
-28.572
-26.945
-25.386
-23.907
-22.52
-21.24
-20.081
-19.058
-18.182
-17.464
-16.915
-16.543
-16.359
-16.363
-16.556
-16.94
-17.521
-18.313
-19.329
-20.573
-22.043
-23.737
-25.641
-27.742
-30.019
-32.433
-34.948
-37.527
-40.135
-42.755
-45.367
-47.934
-50.411
-52.733
-54.837
-56.688
-58.257
-59.516
-60.465
-61.117
-61.514
-61.738
-61.857
-61.924
-62.007
-62.163
-62.467
-63.02
-63.894
-65.213
-67.159
-69.796
-73.113
-76.955
-80.915
-84.588
-87.653
-89.652
-90.099
-88.716
-85.362
-80.433
-74.96
-69.895
-66.021
-64.022
-64.346
-67.305
-72.982
-80.298
-86.962
-90.47
-88.29
-77.96
-57.27
-23.887
24.729
88.32
162.954
244.481
328.411
413.059
502.659
598.321
694.13
779.072
833.763
839.81
791.749
692.17
551.462
388.288
218.398
56.864
-77.531
-172.098
-221.122
-224.764
-194.963
-149.211
-101.8
-66.29
-50.062
-50.832
-63.462
-78.321
-86.379
-85.958
-79.32
-71.936
-68.187
-68.001
-69.11
-68.728
-65.765
-60.931
-55.308
-49.844
-44.957
-40.852
-37.939
-36.482
-36.452
-37.691
-39.909
-42.863
-46.426
-50.43
-54.656
-58.899
-62.959
-66.67
-69.948
-72.728
-74.957
-76.62
-77.699
-78.2
-78.168
-77.661
-76.74
-75.468
-73.893
-72.064
-70.044
-67.9
-65.708
-63.54
-61.443
-59.444
-57.563
-55.807
-54.181
-52.679
-51.278
-49.949
-48.669
-47.417
-46.174
-44.927
-43.652
-42.325
-40.922
-39.421
-37.802
-36.047
-34.141
-32.066
-29.81
-27.364
-24.718
-21.869
-18.808
-15.527
-12.02
-8.28
-4.302
-0.085
4.376
9.078
14.021
19.199
24.605
30.229
36.059
42.081
48.28
54.636
61.129
67.737
74.435
81.197
87.995
94.8
101.58
108.306
114.944
121.463
127.829
134.01
139.974
145.688
151.123
156.247
161.032
165.45
169.474
173.079
176.243
178.945
181.164
182.884
184.089
184.77
184.915
184.518
183.576
182.089
180.059
177.491
174.394
170.781
166.664
162.063
156.997
151.489
145.564
139.25
132.575
125.57
118.267
110.7
102.902
94.908
86.754
78.475
70.106
61.682
53.238
44.808
36.426
28.124
19.934
11.887
4.01
-3.667
-11.121
-18.326
-25.261
-31.906
-38.245
-44.262
-49.946
-55.287
-60.277
-64.913
-69.193
-73.117
-76.688
-79.911
-82.795
-85.347
-87.58
-89.504
-91.135
-92.486
-93.575
-94.416
-95.028
-95.429
-95.635
-95.665
-95.538
-95.271
-94.883
-94.391
-93.812
-93.164
-92.463
-91.724
-90.961
-90.19
-89.422
-88.669
-87.941
-87.247
-86.596
-85.992
-85.442
-84.947
-84.512
-84.135
-83.816
-83.555
-83.349
-83.194
-83.087
-83.022
-82.996
-83.002
-83.035
-83.089
-83.16
-83.24
-83.324
-83.408
-83.485
-83.551
-83.601
-83.63
-83.635
-83.611
-83.555
-83.464
-83.335
-83.165
-82.953
-82.698
-82.399
-82.056
-81.67
-81.242
-80.773
-80.267
-79.726
-79.153
-78.552
-77.928
-77.283
-76.624
-75.953
-75.275
-74.595
-73.916
-73.242
-72.578
-71.925
-71.288
-70.669
-70.069
-69.491
-68.936
-68.405
-67.9
-67.422
-66.971
-66.548
-66.153
-65.787
-65.449
-65.14
-64.857
-64.602
-64.373
-64.169
-63.988
-63.829
-63.691
-63.571
-63.468
-63.381
-63.307
-63.244
-63.191
-63.146
-63.107
-63.074
-63.044
-63.018
-62.994
-62.971
-62.95
-62.931
-62.914
-62.9
-62.888
-62.879
-62.873
-62.872
-62.875
-62.883
-62.895
-62.913
-62.935
-62.964
-62.997
-63.035
-63.079
-63.127
-63.178
-63.233
-63.29
-63.347
-63.404
-63.459
-63.509
-63.555
-63.592
-63.619
-63.634
-63.634
-63.617
-63.577
-63.514
-63.421
-63.297
-63.136
-62.933
-62.686
-62.388
-62.035
-61.623
-61.148
-60.606
-59.991
-59.299
-58.528
-57.673
-56.73
-55.697
-54.57
-53.347
-52.025
-50.604
-49.083
-47.46
-45.737
-43.913
-41.991
-39.972
-37.859
-35.654
-33.361
-30.985
-28.531
-26.004
-23.411
-20.76
-18.06
-15.323
-12.56
-9.784
-7.009
-4.248
-1.515
1.174
3.806
6.369
8.851
11.242
13.529
15.698
17.734
19.626
21.363
22.933
24.329
25.539
26.557
27.385
28.024
28.474
28.73
28.775
28.595
28.188
27.551
26.684
25.599
24.305
22.827
21.208
19.495
17.729
15.951
14.185
12.456
10.808
9.295
7.981
6.93
6.176
5.75
5.686
5.987
6.628
7.547
8.637
9.804
10.969
12.039
12.917
13.486
13.623
13.246
12.243
10.432
7.724
4.134
-0.161
-4.687
-8.984
-12.746
-15.536
-16.769
-16.045
-13.24
-8.789
-3.978
0.078
2.99
4.116
2.5
-2.234
-10.076
-18.619
-22.347
-18.42
-6.143
13.607
36.677
66.549
110.822
173.45
260.351
366.596
480.338
598.193
711.942
814.595
902.274
956.344
960.097
906.884
793.388
634.15
454.477
275.803
121.529
8.586
-59.169
-84.337
-78.21
-57.731
-36.472
-20.789
-11.654
-5.755
2.814
14.603
28.508
43.926
56.287
63.981
67.074
64.205
57.601
49.724
41.438
34.26
28.538
23.711
20.152
18.52
18.773
20.622
23.471
26.237
28.369
29.855
30.524
30.165
28.752
26.315
23.138
19.856
16.878
14.36
12.413
11.029
10.203
9.99
10.361
11.189
12.38
13.865
15.603
17.611
19.883
22.365
24.995
27.691
30.375
33.003
35.544
37.975
40.283
42.457
44.496
46.416
48.238
49.981
51.657
53.27
54.829
56.35
57.858
59.38
60.943
62.569
64.276
66.084
68.012
70.077
72.293
74.672
77.22
79.95
82.872
85.998
89.336
92.895
96.68
100.694
104.94
109.419
114.129
119.063
124.217
129.579
135.139
140.885
146.8
152.866
159.064
165.373
171.767
178.222
184.711
191.204
197.672
204.084
210.408
216.611
222.663
228.529
234.179
239.581
244.705
249.521
254.003
258.124
261.858
265.183
268.077
270.522
272.501
273.998
275.002
275.503
275.494
274.971
273.932
272.377
270.311
267.74
264.671
261.118
257.094
252.616
247.702
242.374
236.656
230.571
224.149
217.416
210.403
203.14
195.659
187.991
180.17
172.227
164.195
156.105
147.989
139.877
131.799
123.784
115.86
108.052
100.387
92.886
85.574
78.469
71.591
64.956
58.58
52.475
46.654
41.124
35.893
30.967
26.347
22.036
18.032
14.333
10.935
7.832
5.016
2.479
0.211
-1.799
-3.563
-5.094
-6.403
-7.505
-8.413
-9.141
-9.701
-10.109
-10.377
-10.518
-10.545
-10.47
-10.307
-10.065
-9.757
-9.392
-8.979
-8.529
-8.049
-7.547
-7.028
-6.499
-5.965
-5.429
-4.894
-4.365
-3.841
-3.324
-2.815
-2.314
-1.819
-1.329
-0.845
-0.363
0.117
0.598
1.079
1.564
2.052
2.544
3.042
3.545
4.054
4.57
5.09
5.616
6.147
6.681
7.217
7.754
8.289
8.821
9.346
9.864
10.369
10.86
11.334
11.786
12.213
12.613
12.98
13.312
13.605
13.856
14.061
14.219
14.327
14.383
14.387
14.337
14.233
14.076
13.867
13.606
13.295
12.936
12.53
12.081
11.592
11.064
10.501
9.907
9.284
8.637
7.97
7.285
6.587
5.88
5.167
4.452
3.739
3.032
2.334
1.648
0.977
0.324
-0.309
-0.921
-1.51
-2.077
-2.62
-3.141
-3.641
-4.12
-4.581
-5.025
-5.455
-5.874
-6.284
-6.687
-7.088
-7.489
-7.892
-8.3
-8.716
-9.142
-9.581
-10.034
-10.503
-10.991
-11.499
-12.028
-12.579
-13.154
-13.752
-14.372
-15.016
-15.681
-16.365
-17.067
-17.783
-18.511
-19.247
-19.989
-20.731
-21.469
-22.199
-22.915
-23.614
-24.29
-24.936
-25.548
-26.121
-26.65
-27.13
-27.558
-27.931
-28.243
-28.493
-28.678
-28.796
-28.844
-28.821
-28.724
-28.555
-28.312
-27.997
-27.612
-27.158
-26.638
-26.058
-25.422
-24.735
-24.003
-23.23
-22.425
-21.593
-20.742
-19.88
-19.014
-18.155
-17.313
-16.499
-15.727
-15.008
-14.355
-13.779
-13.294
-12.909
-12.634
-12.476
-12.44
-12.531
-12.758
-13.13
-13.652
-14.329
-15.165
-16.162
-17.322
-18.648
-20.133
-21.768
-23.542
-25.451
-27.495
-29.69
-32.041
-34.548
-37.211
-40.024
-42.976
-46.053
-49.224
-52.441
-55.654
-58.819
-61.894
-64.86
-67.679
-70.304
-72.683
-74.745
-76.438
-77.73
-78.581
-78.979
-78.941
-78.504
-77.736
-76.745
-75.627
-74.506
-73.529
-72.807
-72.458
-72.574
-73.268
-74.777
-77.246
-80.642
-84.785
-89.28
-93.729
-97.923
-101.501
-103.765
-104.277
-103.028
-100.504
-97.893
-96.127
-95.692
-97.42
-102.441
-111.472
-122.992
-133.223
-138.281
-135.604
-127.432
-118.038
-106.079
-86.096
-48.517
17.284
112.069
229.6
361.674
496.238
621.026
724.159
790.049
804.88
765.41
675.882
546.491
393.371
229.959
69.592
-68.871
-169.446
-223.863
-233.169
-212.786
-183.612
-159.025
-145.044
-139.371
-135.002
-129.842
-125.091
-123.03
-126.717
-135.813
-147.746
-159.979
-169.852
-176.102
-178.739
-177.999
-174.514
-169.152
-162.773
-156.356
-150.84
-146.7
-144.067
-142.916
-143.057
-144.326
-146.594
-149.656
-153.294
-157.347
-161.69
-166.218
-170.834
-175.394
-179.73
-183.717
-187.276
-190.367
-192.986
-195.132
-196.819
-198.075
-198.946
-199.475
-199.702
-199.664
-199.398
-198.953
-198.384
-197.758
-197.136
-196.566
-196.079
-195.688
-195.397
-195.197
-195.073
-194.998
-194.94
-194.873
-194.771
-194.613
-194.379
-194.049
-193.601
-193.015
-192.272
-191.348
-190.218
-188.863
-187.274
-185.445
-183.375
-181.071
-178.544
-175.816
-172.923
-169.898
-166.773
-163.574
-160.319
-157.026
-153.708
-150.378
-147.053
-143.73
-140.392
-137.021
-133.596
-130.097
-126.498
-122.749
-118.777
-114.518
-109.919
-104.932
-99.521
-93.653
-87.315
-80.525
-73.333
-65.83
-58.132
-50.374
-42.701
