Name
Date of Birth,"Mar 27, 1959"
Recorded Date,2022-08-08 21:00:47 -0500
Classification,Sinus Rhythm
Symptoms,
Software Version,1.90
Device,"Watch4,2"
Sample Rate,510.227 hertz


Lead,Lead I
Unit,µV

6.899
10.317
13.667
16.944
20.14
23.248
26.259
29.168
31.966
34.645
37.199
39.618
41.895
44.023
45.993
47.799
49.435
50.892
52.166
53.251
54.141
54.834
55.323
55.607
55.682
55.546
55.2
54.641
53.872
52.893
51.707
50.318
48.73
46.948
44.979
42.83
40.508
38.022
35.381
32.596
29.678
26.637
23.485
20.237
16.903
13.498
10.035
6.528
2.988
-0.569
-4.133
-7.689
-11.226
-14.733
-18.197
-21.608
-24.957
-28.232
-31.425
-34.529
-37.536
-40.439
-43.232
-45.911
-48.473
-50.913
-53.23
-55.422
-57.488
-59.428
-61.242
-62.931
-64.498
-65.943
-67.271
-68.484
-69.586
-70.58
-71.471
-72.261
-72.955
-73.556
-74.068
-74.493
-74.836
-75.098
-75.283
-75.394
-75.433
-75.402
-75.304
-75.14
-74.912
-74.622
-74.269
-73.854
-73.379
-72.843
-72.247
-71.59
-70.872
-70.093
-69.253
-68.351
-67.388
-66.362
-65.273
-64.122
-62.908
-61.633
-60.296
-58.9
-57.446
-55.937
-54.374
-52.761
-51.102
-49.398
-47.655
-45.876
-44.064
-42.224
-40.359
-38.474
-36.573
-34.66
-32.74
-30.818
-28.896
-26.981
-25.076
-23.185
-21.314
-19.465
-17.643
-15.854
-14.099
-12.384
-10.713
-9.088
-7.513
-5.99
-4.523
-3.112
-1.759
-0.466
0.767
1.94
3.051
4.101
5.089
6.016
6.881
7.683
8.424
9.103
9.72
10.274
10.767
11.196
11.564
11.868
12.111
12.291
12.41
12.468
12.468
12.41
12.298
12.133
11.919
11.658
11.353
11.007
10.624
10.207
9.758
9.283
8.785
8.269
7.739
7.2
6.658
6.12
5.591
5.078
4.586
4.122
3.694
3.311
2.983
2.716
2.518
2.395
2.357
2.417
2.571
2.819
3.159
3.586
4.112
4.754
5.5
6.339
7.299
8.4
9.66
11.1
12.694
14.39
16.206
18.178
20.177
22.052
23.871
25.612
27.229
29.006
30.105
29.712
28.944
28.129
29.337
35.052
42.49
49.793
54.2
51.926
46.291
40.108
35.302
35.068
37.121
39.15
40.647
40.197
38.618
36.955
34.997
32.876
30.518
27.697
24.555
21.209
17.654
13.946
10.151
6.302
2.411
-1.544
-5.567
-9.62
-13.616
-17.436
-20.998
-24.28
-27.224
-29.715
-31.733
-33.31
-34.62
-36.068
-37.886
-40.07
-42.618
-45.442
-48.38
-51.419
-54.311
-56.401
-57.404
-57.28
-56.03
-54.048
-51.69
-48.95
-46.097
-43.827
-42.522
-42.729
-45.132
-49.875
-57.204
-67.519
-80.801
-96.593
-114.167
-131.72
-146.683
-156.53
-158.18
-148.587
-125.098
-85.063
-27.552
45.417
130.729
224.405
323.976
430.041
541.088
652.217
752.469
826.532
862.553
852.979
799.856
710.42
590.685
452.15
305.261
163.137
45.419
-38.717
-87.507
-107.254
-115.523
-122.89
-132.699
-144.263
-150.722
-149.588
-143.249
-134.521
-126.885
-121.439
-117.104
-112.896
-108.269
-103.322
-98.376
-93.823
-90.305
-88.542
-89.135
-92.403
-97.937
-104.772
-112.093
-119.108
-125.116
-129.687
-132.539
-133.599
-133.272
-132.315
-131.295
-130.639
-130.588
-131.075
-131.981
-133.172
-134.362
-135.182
-135.404
-134.89
-133.608
-131.673
-129.191
-126.241
-122.933
-119.368
-115.616
-111.746
-107.812
-103.851
-99.923
-96.083
-92.366
-88.813
-85.441
-82.259
-79.268
-76.452
-73.788
-71.261
-68.856
-66.564
-64.377
-62.283
-60.265
-58.305
-56.38
-54.466
-52.54
-50.575
-48.544
-46.427
-44.204
-41.857
-39.371
-36.73
-33.915
-30.909
-27.697
-24.263
-20.594
-16.68
-12.51
-8.08
-3.388
1.565
6.775
12.237
17.942
23.88
30.037
36.399
42.948
49.664
56.526
63.508
70.583
77.724
84.899
92.077
99.223
106.304
113.282
120.122
126.789
133.245
139.456
145.387
151.004
156.275
161.167
165.653
169.705
173.298
176.41
179.02
181.113
182.674
183.693
184.161
184.073
183.427
182.223
180.465
178.159
175.313
171.939
168.052
163.671
158.814
153.506
147.771
141.637
135.133
128.291
121.144
113.726
106.072
98.218
90.2
82.056
73.823
65.537
57.236
48.954
40.726
32.587
24.568
16.699
9.011
1.531
-5.716
-12.705
-19.414
-25.822
-31.911
-37.665
-43.069
-48.111
-52.783
-57.076
-60.986
-64.509
-67.645
-70.396
-72.763
-74.754
-76.374
-77.633
-78.539
-79.106
-79.345
-79.271
-78.899
-78.244
-77.322
-76.151
-74.747
-73.127
-71.308
-69.306
-67.14
-64.824
-62.377
-59.814
-57.152
-54.404
-51.587
-48.714
-45.799
-42.854
-39.891
-36.921
-33.954
-30.999
-28.065
-25.16
-22.29
-19.462
-16.682
-13.954
-11.282
-8.669
-6.119
-3.634
-1.216
1.135
3.416
5.626
7.766
9.834
11.83
13.753
15.605
17.386
19.096
20.735
22.306
23.808
25.242
26.61
27.912
29.147
30.318
31.424
32.466
33.444
34.358
35.21
35.999
36.726
37.392
37.996
38.541
39.027
39.453
39.822
40.135
40.392
40.596
40.747
40.848
40.899
40.903
40.86
40.771
40.638
40.462
40.243
39.982
39.68
39.337
38.955
38.534
38.076
37.581
37.052
36.49
35.895
35.27
34.616
33.935
33.228
32.497
31.744
30.971
30.182
29.378
28.558
27.721
26.865
25.991
25.103
24.205
23.289
22.361
21.436
20.541
19.701
18.928
18.209
17.536
16.932
16.391
15.866
15.281
14.559
13.686
12.725
11.723
10.643
9.56
8.738
8.41
8.668
9.436
10.399
12.088
16.009
22.717
31.221
37.828
37.105
26.59
9.059
-8.332
-17.287
-12.546
3.472
23.946
42.807
53.559
55.88
52.678
44.588
36.488
30.793
27.557
29.056
33.01
37.138
41.071
43.268
44.322
45.254
45.884
46.343
46.548
46.279
45.694
44.941
44.011
42.888
41.565
40.033
38.296
36.371
34.278
32.03
29.678
27.275
24.847
22.431
20.07
17.822
15.765
13.976
12.511
11.414
10.713
10.422
10.529
10.986
11.707
12.585
13.498
14.334
14.973
15.281
15.149
14.42
12.874
10.356
6.798
2.277
-2.879
-8.259
-13.516
-18.155
-21.543
-23.199
-22.811
-20.522
-17.215
-13.99
-11.733
-11.342
-13.815
-19.629
-28.727
-40.362
-51.325
-57.816
-57.542
-47.108
-25.191
8.725
59.014
126.718
212.223
315.535
430.482
553.359
679.644
801.492
911.302
995.686
1041.671
1042.39
997.075
914.004
804.573
677.053
537.749
393.013
250.936
124.615
28.194
-31.892
-55.393
-48.762
-25.382
4.621
31.97
47.351
48.487
34.559
8.424
-22.22
-51.345
-72.963
-83.802
-83.5
-74.087
-60.948
-48.125
-39.076
-34.509
-31.02
-26.655
-20.238
-11.771
-3.525
3.346
8.736
12.566
15.224
16.869
17.26
16.341
14.241
11.047
6.869
1.881
-3.748
-9.818
-16.085
-22.358
-28.512
-34.397
-39.87
-44.844
-49.248
-53.042
-56.208
-58.688
-60.441
-61.461
-61.761
-61.389
-60.412
-58.887
-56.879
-54.472
-51.74
-48.77
-45.658
-42.458
-39.205
-35.93
-32.649
-29.395
-26.201
-23.074
-20.008
-16.995
-14.019
-11.073
-8.146
-5.209
-2.229
0.829
4.009
7.338
10.829
14.5
18.357
22.408
26.66
31.111
35.749
40.565
45.554
50.709
56.023
61.484
67.073
72.77
78.555
84.406
90.303
96.223
102.145
108.047
113.908
119.706
125.421
131.033
136.515
141.844
146.995
151.941
156.658
161.119
165.3
169.177
172.727
175.928
178.761
181.208
183.252
184.877
186.07
186.819
187.115
186.95
186.32
185.221
183.653
181.619
179.124
176.175
172.781
168.955
164.709
160.06
155.025
149.622
143.874
137.801
131.428
124.78
117.883
110.765
103.453
95.977
88.366
80.649
72.858
65.02
57.166
49.324
41.523
33.79
26.152
18.634
11.261
4.054
-2.964
-9.774
-16.358
-22.7
-28.787
-34.606
-40.147
-45.402
-50.365
-55.031
-59.397
-63.464
-67.23
-70.699
-73.873
-76.758
-79.361
-81.687
-83.748
-85.552
-87.109
-88.433
-89.535
-90.429
-91.128
-91.647
-91.999
-92.199
-92.262
-92.202
-92.033
-91.769
-91.422
-91.006
-90.532
-90.011
-89.454
-88.871
-88.268
-87.654
-87.036
-86.418
-85.805
-85.202
-84.612
-84.036
-83.476
-82.934
-82.411
-81.905
-81.416
-80.943
-80.484
-80.038
-79.601
-79.17
-78.742
-78.315
-77.883
-77.444
-76.994
-76.528
-76.044
-75.538
-75.007
-74.447
-73.856
-73.232
-72.574
-71.879
-71.148
-70.381
-69.577
-68.74
-67.869
-66.969
-66.041
-65.089
-64.116
-63.127
-62.127
-61.12
-60.11
-59.104
-58.108
-57.126
-56.165
-55.232
-54.332
-53.471
-52.656
-51.893
-51.187
-50.545
-49.972
-49.473
-49.054
-48.72
-48.475
-48.323
-48.269
-48.314
-48.462
-48.714
-49.072
-49.535
-50.104
-50.776
-51.55
-52.425
-53.395
-54.458
-55.608
-56.84
-58.149
-59.526
-60.965
-62.459
-63.998
-65.574
-67.179
-68.803
-70.437
-72.073
-73.7
-75.309
-76.891
-78.436
-79.935
-81.377
-82.754
-84.055
-85.272
-86.397
-87.42
-88.334
-89.132
-89.806
-90.352
-90.762
-91.034
-91.162
-91.143
-90.976
-90.659
-90.192
-89.576
-88.814
-87.908
-86.862
-85.682
-84.372
-82.94
-81.393
-79.738
-77.983
-76.138
-74.211
-72.214
-70.159
-68.06
-65.932
-63.789
-61.65
-59.532
-57.451
-55.425
-53.471
-51.603
-49.835
-48.181
-46.654
-45.272
-44.048
-42.995
-42.125
-41.448
-40.974
-40.711
-40.661
-40.824
-41.197
-41.778
-42.572
-43.592
-44.85
-46.353
-48.102
-50.096
-52.326
-54.782
-57.439
-60.257
-63.19
-66.189
-69.207
-72.212
-75.164
-78.017
-80.708
-83.154
-85.281
-87.025
-88.344
-89.206
-89.597
-89.523
-89.023
-88.173
-87.076
-85.853
-84.623
-83.507
-82.634
-82.125
-82.154
-82.954
-84.691
-87.429
-91.063
-95.272
-99.681
-103.946
-107.597
-110.027
-110.763
-109.553
-106.653
-102.966
-99.533
-97.294
-97.175
-99.992
-106.191
-115.697
-127.36
-138.736
-146.87
-148.463
-139.991
-118.179
-79.954
-23.6
49.773
137.105
234.269
338.247
448.894
566.359
687.909
804.573
901.704
962.058
971.263
924.868
825.461
684.256
521.111
355.08
208.132
98.752
30.694
-0.085
-7.678
-11.093
-19.016
-32.926
-48.56
-57.928
-58.895
-53.879
-46.728
-41.634
-39.868
-40.948
-44.115
-48.547
-54.307
-61.316
-68.843
-76.451
-83.633
-89.675
-94.454
-97.841
-99.343
-98.969
-97.057
-93.878
-90.065
-86.414
-83.275
-80.929
-79.74
-79.758
-80.927
-83.184
-86.191
-89.515
-92.899
-96.133
-99.03
-101.51
-103.497
-104.919
-105.796
-106.189
-106.132
-105.657
-104.787
-103.532
-101.929
-100.029
-97.881
-95.536
-93.046
-90.463
-87.837
-85.225
-82.664
-80.175
-77.769
-75.446
-73.197
-71.016
-68.886
-66.783
-64.685
-62.57
-60.416
-58.202
-55.907
-53.508
-50.985
-48.317
-45.485
-42.475
-39.274
-35.871
-32.258
-28.43
-24.384
-20.119
-15.637
-10.939
-6.028
-0.908
4.417
9.941
15.653
21.544
27.6
33.807
40.148
46.601
53.141
59.743
66.378
73.018
79.636
86.201
92.682
99.049
105.27
111.315
117.158
122.769
128.111
133.152
137.856
142.197
146.167
149.751
152.931
155.697
158.037
159.947
161.434
162.49
163.094
163.227
162.866
162.009
160.671
158.867
156.615
153.921
150.771
147.169
143.134
138.673
133.787
128.474
122.712
116.526
109.99
103.168
96.129
88.92
81.559
74.076
66.511
58.908
51.323
43.798
36.351
29.029
21.894
15.013
8.472
2.295
-3.56
-9.122
-14.414
-19.448
-24.207
-28.692
-32.927
-36.923
-40.688
-44.223
-47.511
-50.571
-53.445
-56.178
-58.826
-61.399
-63.854
-66.169
-68.329
-70.327
-72.172
-73.855
-75.353
-76.666
-77.813
-78.817
-79.704
-80.479
-81.128
-81.636
-81.987
-82.2
-82.308
-82.34
-82.318
-82.241
-82.108
-81.939
-81.76
-81.587
-81.426
-81.22
-80.9
-80.533
-80.194
-79.96
-79.923
-79.982
-79.981
-79.954
-79.99
-79.951
-79.645
-78.803
-77.077
-74.617
-71.848
-68.915
-65.818
-62.757
-60.039
-58.093
-57.527
-58.402
-60.192
-62.403
-64.851
-67.363
-69.423
-71.456
-73.553
-74.397
-74.259
-71.492
-63.825
-54.265
-44.743
-38.216
-39.008
-43.98
-49.902
-54.497
-54.316
-51.528
-48.546
-45.92
-44.894
-44.489
-43.743
-42.964
-42.096
-41.299
-40.732
-40.196
-39.606
-39.026
-38.457
-37.886
-37.3
-36.683
-36.061
-35.473
-34.952
-34.5
-34.109
-33.777
-33.509
-33.309
-33.183
-33.136
-33.169
-33.283
-33.48
-33.762
-34.127
-34.578
-35.113
-35.731
-36.427
-37.198
-38.043
-38.96
-39.946
-40.997
-42.108
-43.271
-44.479
-45.725
-47
-48.293
-49.595
-50.893
-52.176
-53.433
-54.651
-55.818
-56.923
-57.953
-58.896
-59.74
-60.475
-61.088
-61.57
-61.91
-62.098
-62.126
-61.987
-61.674
-61.181
-60.506
-59.644
-58.595
-57.359
-55.936
-54.33
-52.544
-50.583
-48.456
-46.17
-43.737
-41.168
-38.477
-35.681
-32.799
-29.852
-26.86
-23.847
-20.836
-17.849
-14.911
-12.044
-9.268
-6.604
-4.07
-1.687
0.523
2.538
4.342
5.916
7.245
8.315
9.112
9.628
9.864
9.82
9.494
8.881
7.963
6.731
5.179
3.308
1.124
-1.361
-4.129
-7.148
-10.363
-13.719
-17.16
-20.635
-24.109
-27.541
-30.876
-34.05
-36.985
-39.608
-41.868
-43.718
-45.122
-46.067
-46.568
-46.679
-46.493
-46.114
-45.644
-45.195
-44.885
-44.836
-45.156
-45.971
-47.455
-49.749
-52.919
-56.877
-61.323
-65.865
-70.14
-73.713
-76.003
-76.511
-74.921
-71.388
-66.759
-62.061
-58.139
-55.917
-56.402
-60.362
-68.187
-78.232
-86.71
-90.137
-85.753
-73.514
-55.071
-28.677
9.834
66.643
147.651
252.229
375.348
509.818
646.748
777.66
891.619
974.816
1013.234
997.069
926.091
807.687
656.208
490.302
326.586
182.455
71.584
-2.028
-39.436
-49.038
-42.628
-27.022
-8.636
6.033
13.14
8.705
-6.985
-26.613
-43.625
-54.102
-57.747
-59.511
-62.843
-67.796
-72.982
-75.796
-75.147
-71.847
-66.941
-61.426
-55.978
-51.003
-46.976
-44.248
-42.89
-42.795
-43.772
-45.667
-48.364
-51.717
-55.53
-59.612
-63.81
-67.979
-71.985
-75.674
-78.884
-81.503
-83.467
-84.747
-85.342
-85.272
-84.562
-83.267
-81.453
-79.183
-76.522
-73.535
-70.281
-66.833
-63.265
-59.647
-56.049
-52.518
-49.083
-45.76
-42.555
-39.462
-36.471
-33.565
-30.719
-27.913
-25.133
-22.361
-19.586
-16.792
-13.959
-11.07
-8.108
-5.057
-1.903
1.363
4.754
8.277
11.938
15.743
19.695
23.798
28.057
32.475
37.055
41.8
46.71
51.781
57.011
62.393
67.919
73.578
79.355
85.235
91.202
97.236
103.318
109.426
115.536
121.626
127.67
133.643
139.519
145.273
150.878
156.306
161.533
166.532
171.277
175.744
179.908
183.747
187.239
190.364
193.101
195.433
197.345
198.821
199.85
200.422
200.529
200.165
199.328
198.019
196.239
193.995
191.293
188.144
184.559
180.554
176.145
171.35
166.188
160.682
154.853
148.726
142.325
135.676
128.806
121.741
114.509
107.137
99.652
92.083
84.457
76.8
69.14
61.503
53.915
46.401
38.984
31.689
24.537
17.548
10.742
4.136
-2.254
-8.414
-14.332
-19.996
-25.398
-30.531
-35.389
-39.967
-44.265
-48.28
-52.013
-55.466
-58.64
-61.541
-64.171
-66.538
-68.648
-70.507
-72.123
-73.504
-74.66
-75.6
-76.333
-76.871
-77.223
-77.402
-77.419
-77.285
-77.012
-76.613
-76.098
-75.48
-74.77
-73.978
-73.115
-72.191
-71.217
-70.2
-69.149
-68.073
-66.979
-65.874
-64.764
-63.656
-62.556
-61.468
-60.399
-59.352
-58.334
-57.347
-56.396
-55.485
-54.618
-53.798
-53.028
-52.31
-51.647
-51.04
-50.491
-49.999
-49.565
-49.19
-48.872
-48.612
-48.407
-48.258
-48.162
-48.118
-48.124
-48.18
-48.282
-48.43
-48.621
-48.854
-49.127
-49.438
-49.786
-50.168
-50.582
-51.025
-51.497
-51.993
-52.512
-53.05
-53.604
-54.172
-54.751
-55.338
-55.93
-56.527
-57.124
-57.722
-58.318
-58.91
-59.498
-60.081
-60.658
-61.227
-61.79
-62.345
-62.892
-63.431
-63.962
-64.485
-65
-65.505
-66
-66.485
-66.958
-67.418
-67.866
-68.3
-68.719
-69.122
-69.51
-69.882
-70.235
-70.571
-70.886
-71.18
-71.45
-71.695
-71.911
-72.096
-72.247
-72.361
-72.434
-72.463
-72.444
-72.372
-72.245
-72.056
-71.803
-71.481
-71.084
-70.611
-70.057
-69.419
-68.695
-67.884
-66.982
-65.99
-64.906
-63.73
-62.463
-61.105
-59.657
-58.122
-56.502
-54.802
-53.025
-51.179
-49.271
-47.312
-45.312
-43.284
-41.24
-39.194
-37.162
-35.158
-33.198
-31.296
-29.463
-27.717
-26.07
-24.542
-23.148
-21.904
-20.826
-19.927
-19.22
-18.716
-18.426
-18.352
-18.496
-18.862
-19.459
-20.304
-21.414
-22.796
-24.454
-26.389
-28.59
-31.046
-33.732
-36.606
-39.623
-42.739
-45.914
-49.121
-52.328
-55.494
-58.568
-61.477
-64.153
-66.547
-68.613
-70.319
-71.66
-72.648
-73.336
-73.819
-74.184
-74.519
-74.922
-75.479
-76.303
-77.509
-79.178
-81.436
-84.461
-88.343
-93.09
-98.532
-104.235
-109.764
-114.768
-118.794
-121.312
-121.916
-120.403
-117.143
-113.191
-109.554
-106.866
-105.699
-106.661
-110.229
-116.545
-123.65
-127.571
-124.82
-113.137
-93.445
-68.441
-37.579
2.883
59.329
137.774
237.844
353.58
475.73
594.978
704.912
799.067
870.14
907.581
899.35
839.837
730.148
581.116
411.925
242.238
91.103
-28.11
-108.883
-151.175
-162.627
-152.325
-132.242
-113.085
-99.195
-94.329
-96.004
-98.037
-97.745
-91.719
-81.116
-71.418
-65.103
-64.096
-68.196
-73.958
-79.773
-85.151
-89.278
-92.474
-94.817
-95.553
-94.648
-92.572
-89.564
-86.169
-83.15
-80.757
-79.186
-78.793
-79.556
-81.322
-83.996
-87.199
-90.46
-93.518
-96.138
-98.152
-99.559
-100.339
-100.469
-100.018
-99.062
-97.665
-95.901
-93.805
-91.393
-88.707
-85.793
-82.718
-79.557
-76.378
-73.242
-70.192
-67.253
-64.444
-61.774
-59.237
-56.828
-54.529
-52.319
-50.185
-48.115
-46.094
-44.11
-42.141
-40.163
-38.153
-36.091
-33.956
-31.733
-29.406
-26.959
-24.382
-21.664
-18.796
-15.772
-12.584
-9.223
-5.682
-1.955
1.963
6.074
10.378
14.875
19.561
24.431
29.478
34.69
40.055
45.562
51.193
56.933
62.762
68.661
74.607
80.579
86.552
92.501
98.399
104.22
109.936
115.519
120.941
126.175
131.193
135.967
140.472
144.682
148.573
152.121
155.304
158.102
160.497
162.471
164.01
165.102
165.738
165.909
165.61
164.841
163.6
161.891
159.718
157.09
154.015
150.506
146.576
142.243
137.525
132.441
127.016
121.271
115.234
108.93
102.387
95.635
88.702
81.619
74.417
67.126
59.777
52.401
45.029
37.691
30.416
23.232
16.166
9.245
2.493
-4.068
-10.416
-16.532
-22.398
-28
-33.322
-38.354
-43.086
-47.51
-51.62
-55.412
-58.885
-62.039
-64.876
-67.4
-69.615
-71.529
-73.15
-74.487
-75.55
-76.351
-76.903
-77.219
-77.313
-77.2
-76.895
-76.414
-75.773
-74.987
-74.072
-73.043
-71.916
-70.705
-69.424
-68.086
-66.705
-65.293
-63.859
-62.416
-60.973
-59.538
-58.118
-56.721
-55.352
-54.016
-52.716
-51.457
-50.242
-49.071
-47.947
-46.87
-45.842
-44.863
-43.932
-43.049
-42.213
-41.423
-40.676
-39.972
-39.308
-38.684
-38.096
-37.543
-37.023
-36.535
-36.076
-35.645
-35.24
-34.86
-34.504
-34.169
-33.857
-33.565
-33.295
-33.046
-32.819
-32.613
-32.431
-32.272
-32.137
-32.026
-31.941
-31.881
-31.846
-31.839
-31.857
-31.903
-31.975
-32.074
-32.2
-32.352
-32.531
-32.735
-32.963
-33.217
-33.494
-33.794
-34.117
-34.463
-34.83
-35.218
-35.627
-36.056
-36.504
-36.969
-37.45
-37.946
-38.455
-38.974
-39.503
-40.039
-40.581
-41.127
-41.673
-42.219
-42.761
-43.298
-43.826
-44.342
-44.843
-45.326
-45.787
-46.223
-46.63
-47.007
-47.347
-47.649
-47.907
-48.117
-48.276
-48.377
-48.415
-48.387
-48.286
-48.11
-47.853
-47.511
-47.08
-46.558
-45.942
-45.228
-44.416
-43.502
-42.485
-41.367
-40.147
-38.827
-37.409
-35.898
-34.298
-32.619
-30.869
-29.057
-27.196
-25.296
-23.371
-21.433
-19.497
-17.573
-15.674
-13.813
-12.005
-10.265
-8.612
-7.061
-5.627
-4.328
-3.175
-2.185
-1.368
-0.728
-0.272
-0.005
0.061
-0.095
-0.49
-1.135
-2.04
-3.207
-4.629
-6.296
-8.186
-10.258
-12.47
-14.782
-17.154
-19.565
-21.988
-24.385
-26.711
-28.897
-30.881
-32.616
-34.063
-35.187
-35.987
-36.48
-36.722
-36.815
-36.845
-36.895
-37.055
-37.41
-38.057
-39.088
-40.572
-42.622
-45.415
-49.065
-53.579
-58.776
-64.257
-69.611
-74.481
-78.38
-80.712
-80.98
-78.983
-75.176
-70.526
-65.932
-62.218
-60.225
-60.8
-64.739
-71.338
-77.711
-80.808
-78.429
-71
-60.711
-46.575
-23.099
18.716
85.948
178.898
290.353
408.43
524.56
634.536
736.014
825.557
894.105
928.361
916.673
854.91
745.982
601.204
439.348
278.105
136.672
31.246
-35.409
-67.02
-74.232
-72.981
-69.036
-62.698
-55.103
-43.284
-30.502
-23.904
-22.985
-27.865
-36.727
-44.392
-51.58
-58.776
-64.779
-69.99
-72.993
-72.732
-70
-65.485
-60.054
-54.644
-49.79
-45.915
-43.331
-42.092
-42.056
-42.994
-44.692
-46.974
-49.674
-52.639
-55.74
-58.847
-61.838
-64.593
-66.972
-68.868
-70.222
-71
-71.194
-70.814
-69.89
-68.471
-66.627
-64.423
-61.914
-59.153
-56.188
-53.079
-49.895
-46.706
-43.58
-40.568
-37.7
-34.996
-32.464
-30.104
-27.906
-25.848
-23.902
-22.043
-20.253
-18.512
-16.803
-15.106
-13.396
-11.649
-9.842
-7.954
-5.964
-3.855
-1.61
0.785
3.342
6.068
8.971
12.056
15.332
18.803
22.475
26.351
30.431
34.715
39.2
43.88
48.747
53.792
59
64.357
69.847
75.45
81.146
86.912
92.724
98.557
104.384
110.177
115.905
121.541
127.054
132.413
137.59
142.554
147.276
151.729
155.886
159.72
163.208
166.328
169.058
171.38
173.277
174.734
175.741
176.286
176.363
175.966
175.092
173.743
171.92
169.629
166.876
163.671
160.027
155.958
151.479
146.611
141.373
135.788
129.88
123.675
117.199
110.481
103.549
96.433
89.162
81.766
74.275
66.718
59.125
51.525
43.944
36.411
28.95
21.586
14.342
7.24
0.3
-6.459
-13.02
-19.367
-25.485
-31.362
-36.986
-42.347
-47.439
-52.253
-56.786
-61.036
-65
-68.68
-72.078
-75.196
-78.041
-80.617
-82.932
-84.995
-86.815
-88.401
-89.764
-90.915
-91.867
-92.629
-93.215
-93.636
-93.903
-94.027
-94.019
-93.888
-93.646
-93.301
-92.864
-92.342
-91.745
-91.081
-90.358
-89.583
-88.764
-87.907
-87.018
-86.104
-85.168
-84.215
-83.249
-82.275
-81.295
-80.311
-79.327
-78.344
-77.363
-76.386
-75.413
-74.446
-73.485
-72.531
-71.584
-70.645
-69.717
-68.799
-67.895
-67.005
-66.132
-65.279
-64.447
-63.64
-62.859
-62.107
-61.386
-60.698
-60.046
-59.432
-58.858
-58.327
-57.839
-57.398
-57.005
-56.661
-56.369
-56.13
-55.945
-55.816
-55.743
-55.728
-55.771
-55.875
-56.038
-56.263
-56.548
-56.895
-57.302
-57.768
-58.293
-58.875
-59.511
-60.201
-60.942
-61.731
-62.567
-63.447
-64.369
-65.33
-66.328
-67.36
-68.423
-69.515
-70.633
-71.773
-72.932
-74.108
-75.297
-76.497
-77.703
-78.912
-80.122
-81.328
-82.527
-83.715
-84.888
-86.042
-87.171
-88.272
-89.34
-90.37
-91.357
-92.297
-93.184
-94.013
-94.781
-95.48
-96.105
-96.651
-97.112
-97.482
-97.756
-97.927
-97.99
-97.941
-97.775
-97.489
-97.078
-96.541
-95.873
-95.074
-94.142
-93.076
-91.877
-90.545
-89.082
-87.492
-85.779
-83.948
-82.005
-79.959
-77.82
-75.6
-73.311
-70.968
-68.585
-66.179
-63.766
-61.363
-58.986
-56.649
-54.371
-52.168
-50.058
-48.061
-46.195
-44.479
-42.928
-41.559
-40.386
-39.422
-38.67
-38.135
-37.822
-37.742
-37.911
-38.348
-39.06
-40.055
-41.335
-42.892
-44.714
-46.775
-49.028
-51.428
-53.928
-56.486
-59.075
-61.662
-64.207
-66.657
-68.941
-70.991
-72.755
-74.183
-75.236
-75.906
-76.208
-76.203
-75.999
-75.685
-75.356
-75.109
-75.022
-75.191
-75.714
-76.659
-78.154
-80.393
-83.502
-87.502
-92.26
-97.416
-102.544
-107.234
-110.914
-112.876
-112.545
-109.719
-104.733
-98.405
-91.876
-86.208
-82.399
-81.85
-84.783
-89.667
-94.646
-96.899
-95.935
-94.33
-91.086
-82.575
-59.706
-9.364
71.595
180.07
306.44
435.825
564.159
689.265
805.383
906.047
974.365
993.808
960.288
876.762
755.328
612.212
457.217
300.181
152.749
27.08
-62.603
-108.059
-109.893
-78.866
-32.557
11.464
37.095
38.904
20.535
-9.678
-37.741
-56.317
-65.175
-66.738
-67.788
-71.295
-75.771
-79.735
-80.817
-78.21
-73.137
-66.628
-59.588
-52.886
-47.028
-42.286
-38.849
-36.693
-35.642
-35.611
-36.534
-38.266
-40.653
-43.536
-46.765
-50.248
-53.876
-57.496
-60.938
-64.024
-66.631
-68.707
-70.216
-71.148
-71.514
-71.33
-70.64
-69.512
-68.001
-66.166
-64.061
-61.734
-59.247
-56.671
-54.072
-51.519
-49.059
-46.714
-44.494
-42.401
-40.422
-38.545
-36.743
-34.982
-33.235
-31.479
-29.692
-27.854
-25.944
-23.937
-21.809
-19.538
-17.103
-14.488
-11.679
-8.664
-5.434
-1.982
1.694
5.597
9.726
14.082
18.666
23.477
28.511
33.763
39.226
44.891
50.747
56.78
62.971
69.304
75.755
82.302
88.921
95.585
102.268
108.941
115.573
122.137
128.6
134.934
141.106
147.089
152.851
158.364
163.6
168.532
173.135
177.385
181.26
184.74
187.806
190.441
192.632
194.365
195.631
196.421
196.731
196.555
195.895
194.751
193.127
191.032
188.474
185.465
182.018
178.151
173.88
169.227
164.212
158.858
153.191
147.234
141.014
134.56
127.898
121.056
114.063
106.947
99.737
92.459
85.142
77.812
70.495
63.216
56
48.869
41.847
34.954
28.21
21.634
15.244
9.055
3.081
-2.664
-8.171
-13.429
-18.431
-23.171
-27.644
-31.847
-35.778
-39.437
-42.825
-45.946
-48.801
-51.398
-53.74
-55.835
-57.691
-59.316
-60.719
-61.908
-62.894
-63.687
-64.297
-64.735
-65.012
-65.138
-65.125
-64.984
-64.725
-64.36
-63.898
-63.351
-62.729
-62.04
-61.294
-60.499
-59.663
-58.795
-57.9
-56.987
-56.059
-55.123
-54.183
-53.243
-52.308
-51.379
-50.459
-49.55
-48.655
-47.773
-46.907
-46.056
-45.222
-44.405
-43.604
-42.819
-42.05
-41.295
-40.555
-39.827
-39.112
-38.407
-37.712
-37.026
-36.347
-35.675
-35.008
-34.348
-33.692
-33.04
-32.394
-31.751
-31.114
-30.482
-29.857
-29.24
-28.631
-28.033
-27.448
-26.877
-26.322
-25.785
-25.268
-24.774
-24.304
-23.861
-23.446
-23.061
-22.71
-22.393
-22.112
-21.87
-21.668
-21.508
-21.391
-21.317
-21.289
-21.305
-21.368
-21.475
-21.628
-21.826
-22.067
-22.351
-22.675
-23.038
-23.436
-23.868
-24.329
-24.818
-25.328
-25.857
-26.4
-26.953
-27.511
-28.069
-28.622
-29.166
-29.695
-30.205
-30.69
-31.145
-31.566
-31.948
-32.285
-32.574
-32.81
-32.987
-33.103
-33.152
-33.131
-33.036
-32.865
-32.614
-32.281
-31.864
-31.361
-30.77
-30.09
-29.322
-28.464
-27.517
-26.482
-25.36
-24.154
-22.867
-21.5
-20.059
-18.547
-16.968
-15.327
-13.629
-11.878
-10.083
-8.249
-6.384
-4.494
-2.59
-0.682
1.218
3.098
4.945
6.749
8.496
10.171
11.76
13.247
14.62
15.868
16.977
17.935
18.727
19.342
19.77
20.007
20.047
19.885
19.512
18.922
18.117
17.105
15.892
14.484
12.874
11.057
9.038
6.825
4.43
1.868
-0.852
-3.715
-6.683
-9.716
-12.763
-15.77
-18.708
-21.55
-24.276
-26.876
-29.297
-31.475
-33.355
-34.878
-36.012
-36.776
-37.163
-37.142
-36.795
-36.245
-35.74
-35.682
-36.287
-37.556
-39.44
-41.876
-44.808
-48.177
-51.58
-54.117
-55.095
-54.264
-51.714
-47.766
-42.546
-36.017
-28.549
-21.397
-16.057
-13.454
-13.817
-16.996
-23
-31.906
-43.659
-56.159
-65.089
-68.057
-63.954
-52.886
-37.295
-14.265
23.699
81.624
162.796
263.595
373.277
484.782
595.958
706.532
815.16
912.843
981.988
1004.879
973.624
891.265
770.578
629.849
482.82
340.396
213.986
111.108
38.088
-2.448
-17.05
-13.702
-1.417
9.995
16.679
15.486
6.13
-6.296
-18.522
-27.09
-31.056
-34.326
-38.997
-45.825
-54.053
-60.541
-63.817
-64.042
-61.749
-58.076
-53.821
-49.36
-45.251
-42.091
-40.189
-39.598
-40.224
-41.877
-44.384
-47.628
-51.445
-55.611
-59.969
-64.399
-68.761
-72.936
-76.783
-80.138
-82.903
-85.028
-86.474
-87.241
-87.354
-86.84
-85.757
-84.18
-82.171
-79.796
-77.116
-74.188
-71.082
-67.87
-64.623
-61.411
-58.283
-55.269
-52.393
-49.661
-47.073
-44.62
-42.287
-40.049
-37.889
-35.792
-33.743
-31.729
-29.735
-27.741
-25.73
-23.684
-21.585
-19.42
-17.175
-14.838
-12.399
-9.85
-7.182
-4.393
-1.475
1.578
4.772
8.112
11.602
15.245
19.042
22.992
27.091
31.335
35.715
40.222
44.842
49.562
54.366
59.236
64.152
69.095
74.041
78.967
83.849
88.662
93.38
97.977
102.425
106.699
110.771
114.615
118.205
121.516
124.525
127.208
129.544
131.513
133.096
134.277
135.04
135.374
135.267
134.71
133.7
132.231
130.305
127.923
125.091
121.817
118.111
113.986
109.459
104.545
99.265
93.642
87.697
81.456
74.947
68.196
61.234
54.09
46.795
39.381
31.878
24.32
16.736
9.159
1.617
-5.859
-13.241
-20.501
-27.613
-34.553
-41.296
-47.823
-54.112
-60.147
-65.913
-71.396
-76.585
-81.473
-86.052
-90.319
-94.271
-97.909
-101.235
-104.253
-106.968
-109.388
-111.522
-113.38
-114.975
-116.32
-117.429
-118.317
-119
-119.493
-119.813
-119.977
-120.001
-119.901
-119.694
-119.396
-119.022
-118.586
-118.102
-117.583
-117.041
-116.487
-115.93
-115.379
-114.84
-114.32
-113.824
-113.355
-112.915
-112.505
-112.128
-111.781
-111.464
-111.174
-110.909
-110.666
-110.441
-110.229
-110.026
-109.827
-109.628
-109.423
-109.207
-108.976
-108.726
-108.452
-108.151
-107.819
-107.453
-107.052
-106.613
-106.135
-105.618
-105.063
-104.47
-103.842
-103.18
-102.49
-101.773
-101.036
-100.281
-99.516
-98.745
-97.975
-97.21
-96.456
-95.721
-95.008
-94.325
-93.675
-93.064
-92.497
-91.976
-91.507
-91.093
-90.735
-90.437
-90.2
-90.025
-89.914
-89.867
-89.883
-89.962
-90.103
-90.304
-90.562
-90.874
-91.238
-91.648
-92.102
-92.592
-93.116
-93.668
-94.242
-94.833
-95.435
-96.044
-96.654
-97.26
-97.858
-98.444
-99.016
-99.569
-100.101
-100.612
-101.099
-101.561
-101.997
-102.408
-102.792
-103.15
-103.481
-103.787
-104.067
-104.322
-104.553
-104.761
-104.946
-105.108
-105.25
-105.371
-105.472
-105.554
-105.618
-105.662
-105.687
-105.694
-105.681
-105.649
-105.596
-105.521
-105.421
-105.294
-105.136
-104.943
-104.709
-104.431
-104.101
-103.715
-103.267
-102.751
-102.162
-101.494
-100.742
-99.902
-98.969
-97.941
-96.813
-95.585
-94.254
-92.822
-91.288
-89.655
-87.926
-86.106
-84.201
-82.219
-80.169
-78.059
-75.902
-73.708
-71.491
-69.263
-67.038
-64.827
-62.646
-60.51
-58.435
-56.44
-54.541
-52.76
-51.111
-49.614
-48.284
-47.135
-46.175
-45.412
-44.853
-44.508
-44.393
-44.522
-44.904
-45.549
-46.46
-47.635
-49.064
-50.726
-52.582
-54.597
-56.732
-58.953
-61.234
-63.544
-65.85
-68.111
-70.269
-72.272
-74.068
-75.603
-76.832
-77.733
-78.311
-78.61
-78.714
-78.695
-78.609
-78.526
-78.511
-78.638
-78.991
-79.64
-80.652
-82.158
-84.358
-87.354
-91.151
-95.587
-100.258
-104.732
-108.579
-111.192
-111.881
-110.276
-106.264
-100.124
-92.948
-85.923
-80.148
-77.218
-77.537
-79.724
-82.643
-84.39
-85.28
-89.145
-95.749
-101.357
-95.737
-62.725
4.764
105.553
229.368
358.403
483.723
602.087
712.092
812.798
894.583
943.162
946.469
898.814
801.997
666.251
509.21
348.84
205.848
97.517
27.92
-6.24
-17.594
-22.999
-30.026
-40.302
-50.648
-54.887
-52.521
-46.763
-41.345
-40.005
-43.472
-50.411
-59.438
-69.013
-77.93
-85.291
-90.205
-92.348
-91.997
-89.696
-86.162
-82.085
-78.01
-74.474
-71.956
-70.667
-70.606
-71.654
-73.586
-76.201
-79.34
-82.809
-86.42
-90.032
-93.5
-96.697
-99.51
-101.808
-103.494
-104.521
-104.86
-104.514
-103.507
-101.871
-99.663
-96.957
-93.822
-90.329
-86.545
-82.531
-78.358
-74.103
-69.838
-65.637
-61.553
-57.62
-53.86
-50.288
-46.904
-43.706
-40.678
-37.799
-35.049
-32.412
-29.874
-27.419
-25.028
-22.679
-20.349
-18.015
-15.655
-13.25
-10.779
-8.225
-5.571
-2.802
0.094
3.128
6.312
9.659
13.179
16.883
20.78
24.876
29.176
33.684
38.399
43.319
48.438
53.749
59.24
64.9
70.713
76.661
82.724
88.882
95.11
101.381
107.67
113.947
120.182
126.345
132.404
138.328
144.084
149.642
154.969
160.036
164.814
169.274
173.389
177.134
180.486
183.423
185.925
187.977
189.562
190.668
191.287
191.41
191.034
190.158
188.784
186.916
184.561
181.73
178.436
174.694
170.523
165.942
160.976
155.647
149.983
144.012
137.763
131.266
124.553
117.655
110.606
103.438
96.182
88.872
81.539
74.214
66.926
59.705
52.578
45.571
38.711
32.019
25.519
19.229
13.169
7.354
1.799
-3.483
-8.484
-13.195
-17.609
-21.724
-25.538
-29.05
-32.264
-35.182
-37.81
-40.155
-42.226
-44.032
-45.585
-46.897
-47.981
-48.85
-49.519
-50.001
-50.312
-50.466
-50.477
-50.359
-50.128
-49.796
-49.376
-48.883
-48.328
-47.722
-47.078
-46.405
-45.713
-45.01
-44.304
-43.603
-42.911
-42.233
-41.575
-40.94
-40.329
-39.746
-39.191
-38.663
-38.164
-37.691
-37.242
-36.816
-36.41
-36.021
-35.646
-35.282
-34.925
-34.573
-34.222
-33.869
-33.512
-33.147
-32.773
-32.386
-31.985
-31.568
-31.133
-30.68
-30.207
-29.714
-29.202
-28.67
-28.119
-27.55
-26.962
-26.359
-25.74
-25.107
-24.463
-23.809
-23.147
-22.48
-21.81
-21.14
-20.472
-19.809
-19.154
-18.508
-17.874
-17.254
-16.649
-16.063
-15.495
-14.948
-14.423
-13.921
-13.442
-12.988
-12.558
-12.152
-11.769
-11.41
-11.074
-10.76
-10.466
-10.192
-9.938
-9.702
-9.484
-9.282
-9.095
-8.922
-8.761
-8.613
-8.475
-8.348
-8.228
-8.117
-8.013
-7.915
-7.823
-7.736
-7.653
-7.574
-7.496
-7.421
-7.346
-7.27
-7.194
-7.116
-7.035
-6.952
-6.864
-6.772
-6.674
-6.569
-6.455
-6.331
-6.194
-6.042
-5.871
-5.68
-5.465
-5.223
-4.949
-4.642
-4.295
-3.906
-3.469
-2.98
-2.433
-1.824
-1.148
-0.399
0.425
1.329
2.317
3.392
4.557
5.813
7.164
8.61
10.154
11.796
13.535
15.372
17.303
19.326
21.436
23.627
25.889
28.212
30.584
32.996
35.434
37.885
40.333
42.762
45.158
47.506
49.792
51.998
54.105
56.094
57.95
59.659
61.209
62.589
63.783
64.779
65.569
66.147
66.511
66.654
66.558
66.207
65.59
64.701
63.544
62.124
60.446
58.522
56.381
54.057
51.591
49.027
46.402
43.747
41.092
38.463
35.901
33.461
31.207
29.2
27.475
26.036
24.85
23.892
23.161
22.58
21.958
20.99
19.351
16.863
13.593
9.615
4.782
-0.95
-7.373
-13.875
-19.497
-23.57
-26.052
-27.105
-26.562
-24.315
-20.535
-16.122
-12.901
-12.449
-15.476
-22.054
-32.192
-45.921
-62.847
-81.371
-98.469
-109.749
-111.314
-101.354
-77.521
-39.656
11.989
80.117
162.572
257.757
364.681
476.635
591.96
707.358
812.913
900.652
956.802
967.348
929.314
843.968
719.062
570.228
410.941
255.023
119.021
13.786
-55.092
-86.26
-88.292
-73.709
-52.912
-37.397
-33.27
-39.559
-53.476
-67.32
-74.034
-72.243
-63.37
-52.425
-43.978
-38.968
-36.559
-35.016
-33.643
-32.938
-33.574
-35.915
-39.362
-43.306
-47.43
-51.166
-54.118
-56.098
-56.917
-56.869
-56.677
-56.737
-57.277
-58.572
-60.623
-63.351
-66.678
-70.237
-73.561
-76.401
-78.601
-80.083
-80.902
-81.091
-80.673
-79.756
-78.453
-76.84
-74.98
-72.9
-70.618
-68.188
-65.679
-63.166
-60.71
-58.345
-56.089
-53.952
-51.93
-50.018
-48.196
-46.435
-44.715
-43.019
-41.334
-39.652
-37.957
-36.23
-34.449
-32.588
-30.623
-28.535
-26.305
-23.918
-21.363
-18.628
-15.708
-12.599
-9.295
-5.79
-2.08
1.841
5.976
10.324
14.886
19.659
24.636
29.809
35.168
40.698
46.386
52.214
58.164
64.213
70.342
76.524
82.735
88.947
95.133
101.264
107.309
113.237
119.018
124.622
130.016
135.173
140.062
144.655
148.926
152.849
156.402
159.56
162.304
164.615
166.477
167.873
168.793
169.224
169.16
168.596
167.528
165.956
163.883
161.314
158.255
154.718
150.714
146.259
141.367
136.06
130.358
124.284
117.863
111.122
104.087
96.789
89.255
81.516
73.603
65.545
57.372
49.116
40.804
32.468
24.135
15.834
7.591
-0.566
-8.613
-16.526
-24.282
-31.86
-39.239
-46.402
-53.331
-60.012
-66.43
-72.573
-78.432
-83.999
-89.266
-94.231
-98.89
-103.244
-107.293
-111.04
-114.49
-117.649
-120.522
-123.118
-125.445
-127.514
-129.333
-130.915
-132.269
-133.408
-134.344
-135.088
-135.653
-136.051
-136.294
-136.394
-136.362
-136.212
-135.953
-135.598
-135.159
-134.645
-134.068
-133.438
-132.764
-132.055
-131.319
-130.563
-129.793
-129.015
-128.234
-127.452
-126.675
-125.903
-125.14
-124.386
-123.643
-122.911
-122.192
-121.484
-120.789
-120.105
-119.434
-118.774
-118.126
-117.489
-116.864
-116.251
-115.65
-115.061
-114.483
-113.916
-113.359
-112.811
-112.271
-111.739
-111.213
-110.692
-110.175
-109.663
-109.154
-108.649
-108.147
-107.65
-107.158
-106.671
-106.191
-105.717
-105.252
-104.796
-104.351
-103.918
-103.496
-103.088
-102.692
-102.31
-101.941
-101.584
-101.239
-100.904
-100.578
-100.261
-99.951
-99.648
-99.351
-99.06
-98.775
-98.497
-98.224
-97.958
-97.699
-97.447
-97.203
-96.966
-96.737
-96.516
-96.304
-96.1
-95.905
-95.718
-95.54
-95.37
-95.208
-95.054
-94.907
-94.769
-94.639
-94.519
-94.409
-94.31
-94.224
-94.152
-94.095
-94.054
-94.029
-94.02
-94.026
-94.047
-94.081
-94.127
-94.183
-94.246
-94.313
-94.382
-94.449
-94.51
-94.56
-94.597
-94.613
-94.605
-94.567
-94.494
-94.38
-94.222
-94.012
-93.746
-93.418
-93.022
-92.551
-91.999
-91.36
-90.627
-89.793
-88.852
-87.798
-86.628
-85.338
-83.924
-82.383
-80.715
-78.917
-76.992
-74.938
-72.76
-70.459
-68.041
-65.509
-62.872
-60.138
-57.317
-54.422
-51.465
-48.46
-45.421
-42.368
-39.317
-36.29
-33.302
-30.369
-27.507
-24.735
-22.07
-19.532
-17.137
-14.899
-12.833
-10.955
-9.282
-7.832
-6.613
-5.623
-4.856
-4.313
-4
-3.937
-4.138
-4.608
-5.349
-6.363
-7.652
-9.216
-11.036
-13.07
-15.259
-17.543
-19.876
-22.241
-24.632
-27.035
-29.396
-31.62
-33.609
-35.289
-36.618
-37.592
-38.176
-38.296
-37.981
-37.389
-36.823
-36.634
-36.999
-37.857
-39.115
-40.812
-43.033
-45.801
-48.794
-51.428
-53.293
-54.349
-54.812
-54.756
-54.014
-52.319
-49.798
-47.148
-45.337
-45.093
-46.724
-50.75
-57.595
-67.569
-80.9
-95.751
-109.161
-119.431
-123.911
-121.415
-111.411
-88.208
-47.003
15.939
102.192
204.787
316.233
431.369
548.249
668.816
789.923
900.712
983.482
1020.569
1004.753
940.259
840.826
721.452
591.146
455.84
320.683
194.402
89.334
13.9
-29.238
-44.166
-39.824
-23.655
-2.899
14.561
23.32
19.601
4.445
-14.718
-31.337
-41.817
-45.938
-47.881
-50.352
-53.042
-54.967
-54.286
-50.341
-44.144
-36.751
-29.122
-22.055
-16.082
-11.517
-8.525
-7.073
-6.952
-7.993
-10.07
-13.02
-16.647
-20.757
-25.172
-29.72
-34.258
-38.608
-42.567
-45.992
-48.789
-50.911
-52.351
-53.118
-53.232
-52.737
-51.701
-50.191
-48.272
-46.012
-43.468
-40.713
-37.83
-34.9
-32.004
-29.201
-26.524
-23.995
-21.618
-19.39
-17.301
-15.328
-13.443
-11.621
-9.843
-8.091
-6.351
-4.603
-2.824
-0.992
0.916
2.919
5.034
7.276
9.659
12.192
14.885
17.744
20.773
23.977
27.362
30.934
34.698
38.656
42.811
47.161
51.704
56.435
61.345
66.425
71.66
77.036
82.536
88.142
93.833
99.587
105.383
111.194
116.996
122.762
128.465
134.077
139.57
144.916
150.086
155.052
159.787
164.264
168.456
172.34
175.889
179.083
181.899
184.318
186.321
187.893
189.021
189.693
189.9
189.635
188.896
187.68
185.991
183.833
181.212
178.137
174.621
170.678
166.323
161.575
156.453
150.981
145.18
139.075
132.693
126.059
119.202
112.15
104.931
97.574
90.108
82.562
74.965
67.346
59.732
52.151
44.63
37.193
29.866
22.671
15.629
8.762
2.088
-4.376
-10.615
-16.616
-22.367
-27.857
-33.08
-38.028
-42.697
-47.085
-51.19
-55.013
-58.555
-61.819
-64.81
-67.533
-69.994
-72.2
-74.16
-75.882
-77.376
-78.651
-79.718
-80.586
-81.268
-81.774
-82.116
-82.304
-82.35
-82.264
-82.058
-81.742
-81.326
-80.821
-80.236
-79.58
-78.862
-78.089
-77.268
-76.408
-75.513
-74.59
-73.643
-72.677
-71.698
-70.707
-69.71
-68.708
-67.706
-66.705
-65.709
-64.72
-63.74
-62.771
-61.816
-60.876
-59.953
-59.05
-58.167
-57.307
-56.472
-55.661
-54.878
-54.122
-53.395
-52.697
-52.031
-51.395
-50.791
-50.22
-49.683
-49.179
-48.709
-48.275
-47.877
-47.514
-47.188
-46.899
-46.648
-46.432
-46.254
-46.112
-46.006
-45.934
-45.897
-45.892
-45.919
-45.976
-46.061
-46.172
-46.309
-46.469
-46.65
-46.851
-47.071
-47.308
-47.562
-47.83
-48.114
-48.412
-48.723
-49.049
-49.388
-49.74
-50.107
-50.487
-50.882
-51.291
-51.715
-52.155
-52.611
-53.085
-53.577
-54.088
-54.62
-55.175
-55.753
-56.355
-56.984
-57.641
-58.327
-59.044
-59.793
-60.575
-61.391
-62.241
-63.127
-64.048
-65.004
-65.993
-67.014
-68.065
-69.143
-70.246
-71.37
-72.512
-73.669
-74.835
-76.008
-77.181
-78.35
-79.51
-80.654
-81.777
-82.87
-83.928
-84.943
-85.909
-86.817
-87.661
-88.433
-89.125
-89.731
-90.242
-90.652
-90.952
-91.135
-91.194
-91.123
-90.915
-90.567
-90.073
-89.431
-88.639
-87.695
-86.599
-85.352
-83.952
-82.402
-80.705
-78.865
-76.886
-74.774
-72.538
-70.188
-67.737
-65.199
-62.59
-59.925
-57.219
-54.489
-51.754
-49.034
-46.347
-43.711
-41.144
-38.669
-36.308
-34.083
-32.015
-30.12
-28.412
-26.904
-25.612
-24.547
-23.721
-23.139
-22.804
-22.72
-22.902
-23.359
-24.098
-25.118
-26.411
-27.966
-29.773
-31.814
-34.059
-36.475
-39.019
-41.648
-44.321
-46.999
-49.647
-52.232
-54.721
-57.071
-59.23
-61.142
-62.754
-64.041
-65.03
-65.735
-66.149
-66.349
-66.474
-66.798
-67.751
-69.591
-72.309
-75.901
-80.39
-85.65
-91.508
-97.333
-101.867
-104.296
-104.388
-102.096
-97.649
-91.362
-83.432
-74.916
-68.047
-64.527
-65.374
-71.048
-81.006
-94.657
-111.529
-129.91
-146.479
-157.729
-160.208
-151.045
-128.477
-90.595
-35.538
37.569
126.69
226.789
332.591
438.983
544.252
650.874
757.496
857.564
939.936
987.156
986.096
935.099
838.497
707.905
560.167
406.998
261.495
139.449
47.239
-12.137
-42.446
-58.422
-68.891
-77.521
-84.764
-84.86
-76.545
-63.57
-50.082
-40.48
-36.416
-37.033
-41.493
-49.063
-58.7
-68.803
-77.391
-83.309
-86.351
-86.794
-84.985
-80.961
-74.991
-67.971
-61.144
-55.372
-50.979
-47.963
-46.213
-45.815
-46.838
-49.04
-51.949
-55.149
-58.377
-61.496
-64.455
-67.111
-69.273
-70.843
-71.806
-72.187
-72.032
-71.363
-70.175
-68.5
-66.397
-63.934
-61.188
-58.228
-55.105
-51.882
-48.626
-45.399
-42.27
-39.282
-36.459
-33.813
-31.343
-29.038
-26.889
-24.874
-22.966
-21.135
-19.355
-17.598
-15.845
-14.073
-12.256
-10.369
-8.387
-6.287
-4.05
-1.659
0.902
3.647
6.589
9.738
13.099
16.679
20.485
24.523
28.796
33.306
38.053
43.034
48.245
53.679
59.324
65.168
71.194
77.384
83.717
90.17
96.719
103.336
109.994
116.663
123.311
129.909
136.423
142.821
149.07
155.138
160.992
166.6
171.933
176.958
181.648
185.975
189.913
193.438
196.527
199.162
201.323
202.996
204.167
204.827
204.967
204.584
203.675
202.241
200.289
197.823
194.855
191.398
187.468
183.082
178.262
173.029
167.409
161.429
155.115
148.498
141.608
134.475
127.133
119.613
111.948
104.172
96.316
88.413
80.495
72.592
64.736
56.955
49.275
41.725
34.328
27.108
20.086
13.282
6.713
0.395
-5.659
-11.438
-16.932
-22.134
-27.04
-31.648
-35.956
-39.966
-43.681
-47.105
-50.245
-53.108
-55.704
-58.041
-60.132
-61.988
-63.621
-65.046
-66.276
-67.324
-68.205
-68.933
-69.522
-69.985
-70.337
-70.589
-70.755
-70.847
-70.876
-70.852
-70.786
-70.687
-70.562
-70.419
-70.265
-70.105
-69.943
-69.782
-69.626
-69.477
-69.335
-69.2
-69.074
-68.955
-68.841
-68.732
-68.625
-68.518
-68.408
-68.293
-68.169
-68.034
-67.885
-67.721
-67.537
-67.333
-67.105
-66.854
-66.577
-66.273
-65.941
-65.582
-65.195
-64.78
-64.339
-63.872
-63.381
-62.868
-62.335
-61.785
-61.219
-60.642
-60.055
-59.462
-58.866
-58.271
-57.679
-57.095
-56.52
-55.958
-55.413
-54.887
-54.383
-53.903
-53.45
-53.026
-52.631
-52.269
-51.939
-51.644
-51.383
-51.157
-50.968
-50.813
-50.695
-50.611
-50.561
-50.545
-50.561
-50.608
-50.685
-50.791
-50.924
-51.084
-51.268
-51.475
-51.705
-51.956
-52.226
-52.516
-52.823
-53.147
-53.487
-53.843
-54.213
-54.598
-54.996
-55.408
-55.833
-56.271
-56.722
-57.184
-57.658
-58.144
-58.639
-59.145
-59.659
-60.181
-60.71
-61.245
-61.784
-62.325
-62.867
-63.407
-63.944
-64.474
-64.993
-65.5
-65.991
-66.46
-66.906
-67.321
-67.704
-68.047
-68.348
-68.6
-68.798
-68.936
-69.011
-69.015
-68.944
-68.792
-68.556
-68.229
-67.809
-67.292
-66.674
-65.953
-65.127
-64.195
-63.157
-62.012
-60.762
-59.409
-57.956
-56.407
-54.766
-53.04
-51.234
-49.358
-47.419
-45.43
-43.404
-41.352
-39.291
-37.235
-35.2
-33.204
-31.262
-29.39
-27.602
-25.913
-24.338
-22.894
-21.597
-20.463
-19.506
-18.739
-18.174
-17.821
-17.688
-17.776
-18.085
-18.616
-19.374
-20.368
-21.611
-23.106
-24.855
-26.855
-29.097
-31.566
-34.239
-37.075
-40.031
-43.065
-46.135
-49.214
-52.266
-55.252
-58.118
-60.797
-63.218
-65.33
-67.081
-68.43
-69.364
-69.887
-70.041
-69.909
-69.562
-69.075
-68.535
-68.025
-67.646
-67.504
-67.681
-68.297
-69.537
-71.542
-74.342
-77.786
-81.513
-85.121
-88.248
-90.464
-91.21
-89.965
-86.544
-81.41
-75.496
-69.815
-65.345
-62.846
-63.155
-67.387
-74.885
-82.689
-87.954
-87.284
-80.036
-69.358
-54.215
-30.78
7.542
69.995
158.563
269.196
394.888
526.882
658.419
780.798
882.338
948.67
965.459
928.286
841.193
714.029
562.75
401.08
242.129
102.518
-3.784
-68.49
-91.045
-81.981
-59.465
-38.641
-27.948
-30.217
-39.373
-48.216
-54.352
-55.494
-53.683
-53.731
-56.629
-62.726
-71.057
-78.306
-82.789
-84.286
-82.9
-79.552
-75.18
-70.277
-65.378
-61.122
-57.977
-56.148
-55.677
-56.457
-58.279
-60.978
-64.396
-68.306
-72.51
-76.863
-81.212
-85.419
-89.355
-92.863
-95.83
-98.195
-99.918
-100.991
-101.424
-101.236
-100.468
-99.186
-97.449
-95.314
-92.841
-90.08
-87.094
-83.955
-80.732
-77.494
-74.29
-71.149
-68.091
-65.124
-62.246
-59.451
-56.721
-54.031
-51.363
-48.701
-46.032
-43.344
-40.621
-37.847
-35.003
-32.074
-29.043
-25.9
-22.634
-19.235
-15.696
-12.012
-8.181
-4.202
-0.074
4.206
8.641
13.231
17.977
22.876
27.927
33.127
38.468
43.943
49.542
55.251
61.059
66.949
72.904
78.908
84.939
90.978
97.002
102.99
108.918
114.762
120.498
126.101
131.546
136.809
141.864
146.689
151.258
155.551
159.545
163.219
166.554
169.532
172.136
174.351
176.164
177.561
178.534
179.073
179.172
178.827
178.036
176.8
175.119
173.001
170.45
167.476
164.09
160.304
156.134
151.595
146.706
141.485
135.953
130.133
124.048
117.721
111.178
104.443
97.544
90.505
83.354
76.117
68.819
61.487
54.145
46.819
39.533
32.311
25.176
18.149
11.252
4.503
-2.077
-8.472
-14.667
-20.646
-26.398
-31.911
-37.175
-42.183
-46.928
-51.404
-55.609
-59.54
-63.197
-66.579
-69.691
-72.533
-75.112
-77.433
-79.502
-81.326
-82.914
-84.274
-85.416
-86.348
-87.082
-87.628
-87.997
-88.199
-88.247
-88.151
-87.923
-87.575
-87.117
-86.562
-85.919
-85.2
-84.413
-83.57
-82.678
-81.747
-80.786
-79.8
-78.799
-77.788
-76.773
-75.761
-74.755
-73.761
-72.781
-71.82
-70.88
-69.964
-69.074
-68.212
-67.38
-66.578
-65.81
-65.074
-64.373
-63.706
-63.074
-62.476
-61.912
-61.383
-60.886
-60.423
-59.991
-59.591
-59.221
-58.881
-58.57
-58.286
-58.029
-57.798
-57.59
-57.407
-57.245
-57.105
-56.986
-56.888
-56.808
-56.748
-56.706
-56.682
-56.675
-56.684
-56.709
-56.748
-56.801
-56.867
-56.944
-57.033
-57.132
-57.241
-57.359
-57.484
-57.617
-57.757
-57.903
-58.054
-58.212
-58.375
-58.543
-58.718
-58.9
-59.089
-59.287
-59.495
-59.712
-59.941
-60.182
-60.437
-60.706
-60.99
-61.29
-61.607
-61.944
-62.299
-62.676
-63.074
-63.494
-63.937
-64.403
-64.893
-65.406
-65.943
-66.504
-67.088
-67.694
-68.322
-68.97
-69.637
-70.32
-71.015
-71.719
-72.428
-73.135
-73.837
-74.526
-75.197
-75.842
-76.456
-77.031
-77.559
-78.033
-78.445
-78.786
-79.05
-79.228
-79.312
-79.295
-79.17
-78.931
-78.573
-78.088
-77.474
-76.725
-75.839
-74.812
-73.642
-72.328
-70.87
-69.269
-67.527
-65.65
-63.642
-61.511
-59.268
-56.926
-54.497
-51.996
-49.438
-46.842
-44.225
-41.605
-38.999
-36.423
-33.898
-31.44
-29.071
-26.812
-24.682
-22.7
-20.885
-19.254
-17.823
-16.606
-15.61
-14.841
-14.307
-14.018
-13.995
-14.252
-14.801
-15.646
-16.789
-18.224
-19.939
-21.912
-24.101
-26.46
-28.947
-31.52
-34.152
-36.811
-39.456
-42.038
-44.489
-46.744
-48.759
-50.487
-51.89
-52.957
-53.695
-54.152
-54.423
-54.59
-54.735
-54.944
-55.299
-55.89
-56.808
-58.117
-59.908
-62.328
-65.485
-69.403
-73.947
-78.795
-83.58
-87.951
-91.473
-93.592
-93.77
-91.708
-87.693
-82.457
-76.777
-71.514
-67.446
-65.387
-66.482
-70.274
-73.959
-74.965
-70.597
-61.073
-50.511
-38.743
-21.731
8.94
65.17
150.443
260.072
383.96
508.361
625.864
733.248
825.906
898.515
938.958
932.657
872.809
758.186
599.406
419.32
240.843
88.165
-21.653
-87.326
-114.49
-115.77
-105.045
-88.286
-69.676
-53.316
-41.714
-38.381
-43.581
-51.42
-56.271
-55.179
-48.264
-39.871
-33.538
-29.586
-27.06
-24.807
-22.724
-21.674
-22.537
-25.463
-29.754
-34.961
-40.814
-46.584
-51.679
-55.685
-58.213
-59.5
-60.237
-60.735
-61.138
-61.663
-62.272
-62.927
-63.694
-64.371
-64.616
-64.27
-63.22
-61.424
-59.012
-56.096
-52.745
-49.08
-45.22
-41.266
-37.361
-33.633
-30.15
-26.948
-24.004
-21.284
-18.79
-16.52
-14.471
-12.617
-10.91
-9.299
-7.758
-6.274
-4.825
-3.37
-1.832
-0.129
1.787
3.917
6.229
8.699
11.325
14.114
17.069
20.177
23.424
26.81
30.357
34.089
38.019
42.141
46.431
50.867
55.442
60.166
65.06
70.137
75.397
80.84
86.464
92.273
98.263
104.416
110.702
117.09
123.552
130.066
136.612
143.169
149.705
156.192
162.594
168.881
175.02
180.978
186.719
192.209
197.414
202.306
206.861
211.056
214.866
218.268
221.243
223.771
225.837
227.427
228.526
229.125
229.217
228.799
227.87
226.432
224.491
222.054
219.131
215.734
211.88
207.585
202.869
197.751
192.256
186.409
180.235
173.762
167.018
160.034
152.838
145.462
137.936
130.291
122.558
114.766
106.946
99.126
91.336
83.603
75.953
68.411
61.002
53.749
46.671
39.789
33.119
26.677
20.476
14.529
8.844
3.43
-1.707
-6.563
-11.134
-15.42
-19.422
-23.141
-26.58
-29.744
-32.639
-35.271
-37.648
-39.779
-41.671
-43.336
-44.782
-46.022
-47.065
-47.924
-48.609
-49.134
-49.509
-49.747
-49.858
-49.854
-49.746
-49.544
-49.258
-48.898
-48.473
-47.991
-47.462
-46.892
-46.288
-45.656
-45.004
-44.335
-43.655
-42.968
-42.278
-41.59
-40.907
-40.232
-39.568
-38.919
-38.287
-37.675
-37.086
-36.52
-35.982
-35.471
-34.99
-34.54
-34.122
-33.739
-33.39
-33.078
-32.803
-32.566
-32.368
-32.209
-32.089
-32.01
-31.971
-31.972
-32.014
-32.096
-32.218
-32.381
-32.584
-32.825
-33.105
-33.423
-33.777
-34.165
-34.586
-35.039
-35.52
-36.028
-36.562
-37.118
-37.694
-38.29
-38.902
-39.528
-40.167
-40.816
-41.473
-42.138
-42.807
-43.48
-44.156
-44.833
-45.51
-46.189
-46.867
-47.546
-48.225
-48.905
-49.587
-50.271
-50.959
-51.652
-52.35
-53.057
-53.774
-54.502
-55.243
-56
-56.773
-57.565
-58.376
-59.208
-60.06
-60.933
-61.826
-62.74
-63.672
-64.622
-65.588
-66.566
-67.556
-68.553
-69.555
-70.557
-71.555
-72.544
-73.518
-74.472
-75.4
-76.293
-77.145
-77.948
-78.694
-79.376
-79.984
-80.511
-80.948
-81.287
-81.52
-81.639
-81.637
-81.508
-81.244
-80.841
-80.296
-79.605
-78.766
-77.778
-76.642
-75.358
-73.931
-72.362
-70.656
-68.818
-66.855
-64.775
-62.585
-60.295
-57.917
-55.463
-52.95
-50.394
-47.814
-45.228
-42.658
-40.123
-37.646
-35.248
-32.946
-30.759
-28.706
-26.805
-25.075
-23.537
-22.206
-21.098
-20.225
-19.599
-19.231
-19.126
-19.282
-19.697
-20.371
-21.307
-22.517
-24.013
-25.798
-27.876
-30.242
-32.889
-35.805
-38.966
-42.329
-45.847
-49.47
-53.152
-56.854
-60.534
-64.138
-67.599
-70.836
-73.771
-76.337
-78.481
-80.163
-81.361
-82.074
-82.335
-82.201
-81.757
-81.111
-80.369
-79.643
-79.049
-78.679
-78.69
-79.325
-80.756
-83.041
-86.095
-89.625
-93.308
-96.894
-99.949
-101.833
-102.064
-100.449
-97.23
-93.178
-89.266
-86.356
-85.434
-87.852
-93.613
-101.072
-108.436
-112.994
-114.801
-117.269
-119.833
-118.781
-104.597
-62.664
12.505
118.311
244.448
374.433
500.627
621.068
734.787
839.722
923.948
970.689
966.818
907.53
798.933
655.843
495.956
335.378
189.275
69.612
-16.33
-67.144
-89.125
-92.777
-88.633
-82.324
-74.505
-64.018
-49.576
-33.156
-18.216
-7.292
-2.337
-3.609
-10.358
-21.332
-34.47
-47.517
-58.756
-67.384
-73.356
-76.793
-77.645
-76.133
-72.875
-68.893
-65.35
-62.862
-61.55
-61.435
-62.566
-64.941
-68.468
-72.823
-77.478
-82.076
-86.425
-90.38
-93.848
-96.729
-98.924
-100.41
-101.247
-101.482
-101.154
-100.302
-98.941
-97.11
-94.863
-92.256
-89.349
-86.206
-82.892
-79.471
-76.009
-72.554
-69.142
-65.797
-62.532
-59.349
-56.245
-53.209
-50.223
-47.277
-44.356
-41.447
-38.533
-35.599
-32.625
-29.597
-26.495
-23.306
-20.015
-16.608
-13.074
-9.403
-5.588
-1.623
2.498
6.78
11.227
15.842
20.628
25.585
30.711
36.005
41.462
47.074
52.832
58.724
64.737
70.854
77.058
83.331
89.65
95.994
102.339
108.659
114.929
121.122
127.21
133.165
138.958
144.559
149.94
155.072
159.926
164.474
168.689
172.545
176.017
179.082
181.718
183.907
185.63
186.874
187.624
187.871
187.609
186.831
185.538
183.73
181.411
178.588
175.271
171.473
167.208
162.492
157.346
151.79
145.849
139.546
132.909
125.967
118.748
111.284
103.607
95.749
87.744
79.626
71.429
63.186
54.931
46.698
38.518
30.424
22.445
14.611
6.949
-0.515
-7.758
-14.757
-21.493
-27.949
-34.11
-39.964
-45.498
-50.707
-55.583
-60.122
-64.323
-68.186
-71.712
-74.907
-77.776
-80.327
-82.568
-84.512
-86.169
-87.554
-88.681
-89.565
-90.224
-90.673
-90.931
-91.016
-90.946
-90.74
-90.416
-89.992
-89.485
-88.913
-88.291
-87.635
-86.957
-86.272
-85.591
-84.923
-84.279
-83.667
-83.094
-82.565
-82.085
-81.658
-81.287
-80.973
-80.716
-80.516
-80.371
-80.279
-80.238
-80.243
-80.29
-80.376
-80.495
-80.641
-80.808
-80.991
-81.182
-81.376
-81.566
-81.745
-81.908
-82.049
-82.163
-82.246
-82.294
-82.305
-82.275
-82.203
-82.089
-81.93
-81.728
-81.482
-81.193
-80.864
-80.495
-80.09
-79.651
-79.181
-78.684
-78.163
-77.623
-77.065
-76.496
-75.917
-75.333
-74.747
-74.165
-73.59
-73.025
-72.475
-71.944
-71.434
-70.949
-70.492
-70.063
-69.666
-69.3
-68.966
-68.664
-68.395
-68.158
-67.952
-67.777
-67.631
-67.513
-67.422
-67.356
-67.314
-67.294
-67.295
-67.316
-67.354
-67.411
-67.484
-67.573
-67.679
-67.8
-67.937
-68.089
-68.256
-68.438
-68.634
-68.845
-69.071
-69.311
-69.567
-69.84
-70.129
-70.436
-70.763
-71.109
-71.475
-71.863
-72.272
-72.701
-73.152
-73.621
-74.109
-74.612
-75.128
-75.653
-76.184
-76.716
-77.243
-77.759
-78.259
-78.734
-79.178
-79.582
-79.938
-80.239
-80.475
-80.639
-80.722
-80.716
-80.613
-80.405
-80.085
-79.644
-79.077
-78.376
-77.537
-76.552
-75.419
-74.135
-72.696
-71.104
-69.359
-67.464
-65.422
-63.242
-60.932
-58.504
-55.969
-53.341
-50.637
-47.873
-45.069
-42.24
-39.407
-36.587
-33.801
-31.071
-28.418
-25.865
-23.434
-21.146
-19.024
-17.087
-15.353
-13.836
-12.547
-11.498
-10.704
-10.184
-9.954
-10.028
-10.416
-11.125
-12.155
-13.499
-15.137
-17.032
-19.146
-21.439
-23.873
-26.418
-29.041
-31.703
-34.361
-36.955
-39.429
-41.733
-43.818
-45.641
-47.175
-48.418
-49.406
-50.225
-50.96
-51.682
-52.459
-53.353
-54.444
-55.825
-57.579
-59.767
-62.466
-65.804
-69.892
-74.741
-80.185
-85.859
-91.301
-96.048
-99.617
-101.398
-100.829
-97.684
-92.287
-85.451
-78.169
-71.474
-66.298
-63.667
-64.768
-68.966
-73.445
-75.478
-71.641
-61.489
-48.628
-32.289
-9.796
24.979
83.988
171.294
286.04
423.891
570.549
713.691
839.722
931.086
978.545
977.071
928.618
846.004
739.679
615.7
480.497
338.487
199.836
83.435
1.14
-44.489
-59.338
-59.532
-55.12
-46.332
-33.404
-15.905
2.353
11.244
7.407
-5.392
-22.207
-35.405
-42.246
-46.066
-48.438
-50.504
-52.421
-52.204
-49.506
-45.256
-40.186
-35.287
-31.28
-28.418
-26.873
-26.72
-27.818
-29.902
-32.746
-36.174
-40
-44.067
-48.238
-52.335
-56.212
-59.745
-62.785
-65.222
-66.998
-68.07
-68.431
-68.105
-67.119
-65.524
-63.396
-60.801
-57.807
-54.479
-50.876
-47.071
-43.144
-39.172
-35.232
-31.379
-27.65
-24.07
-20.654
-17.402
-14.312
-11.374
-8.566
-5.875
-3.289
-0.798
1.608
3.941
6.219
8.461
10.69
12.926
15.187
17.487
19.842
22.265
24.768
27.362
30.054
32.851
35.761
38.799
41.985
45.338
48.868
52.573
56.444
60.473
64.653
68.974
73.42
77.963
82.587
87.287
92.074
96.96
101.944
107.007
112.114
117.232
122.34
127.438
132.525
137.591
142.623
147.613
152.577
157.541
162.5
167.408
172.177
176.723
180.989
184.939
188.557
191.819
194.683
197.102
199.033
200.455
201.341
201.647
201.302
200.224
198.379
195.794
192.55
188.723
184.36
179.491
174.143
168.354
162.178
155.659
148.83
141.711
134.337
126.768
119.093
111.409
103.774
96.2
88.664
81.151
73.666
66.226
58.843
51.52
44.257
37.072
30.001
23.08
16.332
9.764
3.362
-2.885
-8.975
-14.885
-20.584
-26.044
-31.25
-36.187
-40.842
-45.194
-49.23
-52.952
-56.373
-59.505
-62.359
-64.938
-67.242
-69.275
-71.047
-72.569
-73.855
-74.917
-75.768
-76.422
-76.896
-77.208
-77.373
-77.404
-77.309
-77.098
-76.782
-76.373
-75.882
-75.317
-74.689
-74.007
-73.281
-72.521
-71.737
-70.934
-70.12
-69.301
-68.481
-67.667
-66.862
-66.069
-65.292
-64.533
-63.794
-63.077
-62.384
-61.716
-61.072
-60.452
-59.858
-59.287
-58.74
-58.214
-57.709
-57.223
-56.755
-56.305
-55.87
-55.449
-55.042
-54.648
-54.265
-53.893
-53.53
-53.174
-52.826
-52.484
-52.147
-51.815
-51.486
-51.162
-50.841
-50.522
-50.207
-49.894
-49.584
-49.275
-48.969
-48.665
-48.363
-48.065
-47.77
-47.48
-47.195
-46.917
-46.647
-46.386
-46.135
-45.896
-45.67
-45.458
-45.263
-45.084
-44.924
-44.785
-44.666
-44.571
-44.5
-44.454
-44.435
-44.444
-44.482
-44.551
-44.651
-44.784
-44.951
-45.153
-45.392
-45.667
-45.98
-46.331
-46.722
-47.152
-47.622
-48.131
-48.679
-49.266
-49.89
-50.551
-51.246
-51.976
-52.737
-53.527
-54.344
-55.186
-56.048
-56.928
-57.823
-58.728
-59.639
-60.552
-61.462
-62.364
-63.253
-64.123
-64.968
-65.782
-66.559
-67.292
-67.976
-68.603
-69.167
-69.661
-70.079
-70.413
-70.658
-70.806
-70.852
-70.789
-70.612
-70.314
-69.893
-69.343
-68.66
-67.842
-66.886
-65.79
-64.556
-63.181
-61.668
-60.02
-58.24
-56.332
-54.304
-52.163
-49.918
-47.581
-45.163
-42.678
-40.141
-37.567
-34.975
-32.38
-29.802
-27.255
-24.76
-22.334
-19.995
-17.764
-15.66
-13.701
-11.909
-10.304
-8.905
-7.728
-6.79
-6.098
-5.664
-5.497
-5.604
-6.003
-6.703
-7.707
-9.022
-10.648
-12.58
-14.807
-17.303
-20.022
-22.924
-25.965
-29.104
-32.311
-35.545
-38.764
-41.925
-44.966
-47.834
-50.488
-52.876
-54.959
-56.714
-58.131
-59.256
-60.191
-61.035
-61.879
-62.793
-63.823
-65.036
-66.527
-68.39
-70.681
-73.408
-76.63
-80.483
-85.034
-90.274
-95.994
-101.649
-106.802
-111.162
-114.037
-114.752
-113.04
-108.434
-101.958
-95.549
-89.261
-83.735
-78.229
-70.602
-62.536
-54.982
-49.24
-48.859
-52.39
-56.687
-57.472
-44.23
-8.734
52.781
143.098
256.515
384.817
522.984
661.891
792.835
905.52
984.672
1017.644
995.962
918.693
792.454
630.397
452.011
276.396
124.078
11.463
-57.381
-84.303
-80.527
-62.977
-42.677
-29.369
-27.838
-35.252
-48.693
-62.579
-71.509
-75.238
-75.479
-75.896
-79.492
-85.863
-92.902
-97.854
-99.255
-97.371
-93.053
-87.346
-80.976
-74.447
-68.381
-63.381
-59.771
-57.615
-56.814
-57.194
-58.594
-60.871
-63.838
-67.27
-71.005
-74.916
-78.854
-82.682
-86.247
-89.377
-91.967
-93.962
-95.318
-96.03
-96.115
-95.6
-94.54
-93.007
-91.06
-88.761
-86.171
-83.343
-80.346
-77.252
-74.127
-71.037
-68.027
-65.118
-62.327
-59.654
-57.09
-54.619
-52.218
-49.855
-47.509
-45.157
-42.779
-40.359
-37.877
-35.31
-32.638
-29.842
-26.904
-23.809
-20.548
-17.109
-13.486
-9.675
-5.673
-1.48
2.904
7.481
12.25
17.211
22.361
27.696
33.209
38.892
44.736
50.725
56.846
63.08
69.407
75.807
82.258
88.735
95.213
101.666
108.067
114.388
120.602
126.679
132.591
138.31
143.808
149.058
154.035
158.713
163.067
167.077
170.721
173.979
176.834
179.27
181.274
182.832
183.935
184.576
184.749
184.452
183.683
182.445
180.742
178.583
175.976
172.935
169.472
165.605
161.352
156.732
151.769
146.486
140.906
135.057
128.965
122.657
116.163
109.51
102.728
95.845
88.889
81.889
74.871
67.863
60.891
53.98
47.153
40.433
33.843
27.401
21.128
15.039
9.151
3.478
-1.97
-7.182
-12.149
-16.866
-21.327
-25.531
-29.476
-33.163
-36.594
-39.773
-42.704
-45.395
-47.852
-50.085
-52.103
-53.917
-55.537
-56.976
-58.245
-59.357
-60.324
-61.157
-61.87
-62.473
-62.979
-63.398
-63.742
-64.021
-64.245
-64.422
-64.561
-64.671
-64.756
-64.823
-64.878
-64.923
-64.962
-64.998
-65.031
-65.063
-65.094
-65.123
-65.148
-65.169
-65.182
-65.185
-65.175
-65.147
-65.098
-65.025
-64.923
-64.789
-64.619
-64.411
-64.162
-63.869
-63.53
-63.143
-62.708
-62.224
-61.689
-61.105
-60.472
-59.791
-59.065
-58.296
-57.488
-56.644
-55.769
-54.867
-53.944
-53.005
-52.055
-51.101
-50.149
-49.204
-48.275
-47.366
-46.487
-45.642
-44.838
-44.082
-43.379
-42.735
-42.154
-41.641
-41.199
-40.831
-40.541
-40.331
-40.202
-40.155
-40.192
-40.311
-40.514
-40.797
-41.16
-41.6
-42.114
-42.699
-43.35
-44.064
-44.836
-45.661
-46.534
-47.451
-48.406
-49.393
-50.406
-51.44
-52.488
-53.544
-54.603
-55.66
-56.708
-57.745
-58.764
-59.763
-60.738
-61.685
-62.602
-63.485
-64.333
-65.142
-65.91
-66.636
-67.317
-67.953
-68.543
-69.086
-69.582
-70.029
-70.428
-70.776
-71.075
-71.322
-71.516
-71.657
-71.743
-71.774
-71.748
-71.664
-71.523
-71.322
-71.061
-70.737
-70.349
-69.895
-69.372
-68.777
-68.108
-67.361
-66.534
-65.626
-64.636
-63.56
-62.4
-61.153
-59.821
-58.402
-56.896
-55.306
-53.633
-51.881
-50.052
-48.153
-46.189
-44.17
-42.107
-40.012
-37.895
-35.77
-33.648
-31.547
-29.483
-27.472
-25.526
-23.661
-21.89
-20.229
-18.699
-17.314
-16.087
-15.029
-14.151
-13.467
-12.992
-12.74
-12.709
-12.899
-13.305
-13.931
-14.793
-15.903
-17.265
-18.876
-20.732
-22.828
-25.16
-27.716
-30.456
-33.333
-36.29
-39.272
-42.25
-45.203
-48.112
-50.954
-53.669
-56.179
-58.417
-60.331
-61.893
-63.116
-63.993
-64.49
-64.674
-64.731
-64.976
-65.762
-67.253
-69.37
-71.966
-75.087
-78.803
-82.989
-87.134
-90.441
-92.361
-92.922
-92.514
-91.209
-88.777
-85.13
-80.712
-76.739
-74.462
-74.275
-76.087
-80.091
-86.719
-96.697
-109.154
-120.32
-126.529
-125.091
-116.357
-105.117
-93.61
-78.785
-53.121
-4.176
77.087
189.872
327.126
476.384
623.82
760.327
876.459
961.675
1004.961
994.098
924.327
798.408
628.289
436.869
246.864
82.22
-37.569
-107.947
-130.588
-117.29
-87.554
-54.761
-31.404
-24.352
-30.541
-45.79
-62.341
-72.902
-76.796
-76.186
-75.831
-79.525
-86.925
-95.623
-102.349
-105.356
-104.898
-101.855
-97.319
-92.023
-86.426
-81.141
-76.754
-73.563
-71.616
-70.809
-70.976
-71.978
-73.689
-75.938
-78.516
-81.289
-84.168
-87.039
-89.799
-92.314
-94.434
-96.069
-97.178
-97.73
-97.726
-97.185
-96.132
-94.621
-92.722
-90.492
-87.991
-85.276
-82.392
-79.402
-76.373
-73.369
-70.453
-67.672
-65.046
-62.592
-60.313
-58.198
-56.234
-54.397
-52.655
-50.981
-49.351
-47.741
-46.13
-44.494
-42.806
-41.039
-39.166
-37.163
-35.009
-32.683
-30.169
-27.452
-24.519
-21.361
-17.97
-14.34
-10.465
-6.339
-1.957
2.683
7.581
12.734
18.138
23.785
29.666
35.766
42.07
48.559
55.213
62.008
68.921
75.924
82.989
90.086
97.184
104.249
111.249
118.15
124.918
131.519
137.919
144.085
149.985
155.589
160.865
165.787
170.328
174.463
178.169
181.426
184.215
186.52
188.329
189.629
190.413
190.674
190.411
189.624
188.315
186.49
184.158
181.33
178.018
174.241
170.014
165.36
160.301
154.86
149.066
142.944
136.525
129.837
122.912
115.781
108.475
101.025
93.464
85.822
78.13
70.418
62.716
55.051
47.451
39.942
32.549
25.295
18.201
11.289
4.575
-1.922
-8.188
-14.208
-19.973
-25.47
-30.693
-35.635
-40.291
-44.659
-48.737
-52.527
-56.029
-59.249
-62.191
-64.861
-67.268
-69.418
-71.323
-72.991
-74.434
-75.662
-76.688
-77.524
-78.182
-78.673
-79.011
-79.207
-79.272
-79.219
-79.059
-78.802
-78.46
-78.042
-77.559
-77.02
-76.434
-75.811
-75.158
-74.483
-73.793
-73.095
-72.396
-71.7
-71.013
-70.338
-69.679
-69.04
-68.422
-67.829
-67.262
-66.721
-66.209
-65.725
-65.269
-64.842
-64.444
-64.074
-63.731
-63.416
-63.128
-62.867
-62.631
-62.422
-62.237
-62.077
-61.94
-61.826
-61.733
-61.659
-61.604
-61.565
-61.541
-61.53
-61.53
-61.54
-61.558
-61.582
-61.611
-61.642
-61.675
-61.709
-61.741
-61.773
-61.802
-61.828
-61.852
-61.871
-61.888
-61.901
-61.91
-61.916
-61.918
-61.917
-61.913
-61.906
-61.896
-61.885
-61.873
-61.862
-61.852
-61.846
-61.844
-61.849
-61.863
-61.887
-61.924
-61.976
-62.046
-62.134
-62.243
-62.374
-62.528
-62.707
-62.91
-63.137
-63.389
-63.664
-63.961
-64.278
-64.613
-64.964
-65.328
-65.701
-66.08
-66.461
-66.838
-67.206
-67.559
-67.892
-68.197
-68.47
-68.701
-68.885
-69.014
-69.08
-69.077
-68.996
-68.83
-68.571
-68.212
-67.748
-67.172
-66.479
-65.665
-64.727
-63.662
-62.469
-61.149
-59.701
-58.126
-56.429
-54.612
-52.681
-50.642
-48.503
-46.273
-43.963
-41.587
-39.161
-36.7
-34.221
-31.743
-29.282
-26.86
-24.493
-22.197
-19.989
-17.887
-15.908
-14.073
-12.401
-10.906
-9.605
-8.514
-7.643
-7.008
-6.613
-6.46
-6.55
-6.885
-7.473
-8.331
-9.471
-10.892
-12.594
-14.57
-16.807
-19.287
-21.981
-24.837
-27.806
-30.838
-33.89
-36.933
-39.929
-42.829
-45.571
-48.08
-50.295
-52.173
-53.676
-54.779
-55.475
-55.779
-55.739
-55.445
-54.987
-54.46
-53.96
-53.575
-53.409
-53.55
-54.103
-55.226
-57.007
-59.447
-62.437
-65.676
-68.791
-71.495
-73.447
-74.164
-73.271
-70.578
-66.271
-61.094
-55.995
-51.653
-48.432
-46.893
-47.652
-50.701
-55.299
-58.891
-57.207
-47.907
-30.176
-4.396
26.956
65.458
114.618
176.974
256.462
351.127
456.184
567.431
674.485
767.151
833.849
859.005
836.304
765.964
654.13
518.314
374.559
237.014
121.343
34.04
-23.763
-53.337
-65.292
-68.306
-65.217
-61.008
-54.95
-46.448
-40.594
-36.928
-35.376
-36.413
-36.661
-37.044
-38.84
-41.231
-44.371
-46.475
-45.973
-43.171
-38.475
-32.712
-26.725
-20.884
-15.629
-11.488
-8.731
-7.382
-7.307
-8.26
-10.019
-12.433
-15.332
-18.512
-21.787
-24.986
-27.954
-30.565
-32.72
-34.347
-35.402
-35.869
-35.748
-35.062
-33.857
-32.195
-30.136
-27.737
-25.052
-22.132
-19.039
-15.844
-12.618
-9.428
-6.321
-3.326
-0.463
2.258
4.837
7.284
9.618
11.866
14.05
16.188
18.295
20.386
22.48
24.598
26.762
28.99
31.301
33.711
36.235
38.887
41.676
44.613
47.702
50.947
54.355
57.929
61.675
65.596
69.694
73.968
78.417
83.038
87.825
92.77
97.863
103.091
108.439
113.892
119.433
125.041
130.696
136.376
142.058
147.717
153.327
158.863
164.298
169.604
174.754
179.722
184.479
189.001
193.26
197.233
200.896
204.226
207.202
209.806
212.02
213.828
215.216
216.173
216.69
216.759
216.376
215.539
214.246
212.502
210.311
207.68
204.618
201.139
197.256
192.985
188.344
183.353
178.033
172.408
166.501
160.337
153.944
147.349
140.577
133.659
126.62
119.491
112.297
105.067
97.827
90.602
83.419
76.302
69.272
62.353
55.565
48.927
42.458
36.173
30.088
24.216
18.569
13.156
7.986
3.065
-1.602
-6.013
-10.166
-14.061
-17.701
-21.088
-24.227
-27.125
-29.788
-32.223
-34.441
-36.45
-38.26
-39.883
-41.33
-42.611
-43.738
-44.723
-45.577
-46.312
-46.937
-47.466
-47.907
-48.273
-48.572
-48.815
-49.012
-49.17
-49.299
-49.405
-49.495
-49.576
-49.652
-49.729
-49.81
-49.898
-49.997
-50.106
-50.229
-50.366
-50.516
-50.68
-50.857
-51.045
-51.244
-51.452
-51.668
-51.889
-52.115
-52.343
-52.573
-52.803
-53.032
-53.257
-53.48
-53.697
-53.908
-54.112
-54.31
-54.499
-54.68
-54.853
-55.019
-55.178
-55.33
-55.479
-55.624
-55.767
-55.911
-56.058
-56.209
-56.368
-56.537
-56.719
-56.917
-57.133
-57.371
-57.634
-57.924
-58.243
-58.595
-58.981
-59.403
-59.862
-60.361
-60.9
-61.481
-62.103
-62.768
-63.475
-64.224
-65.016
-65.848
-66.72
-67.629
-68.574
-69.552
-70.56
-71.595
-72.653
-73.73
-74.822
-75.924
-77.032
-78.141
-79.244
-80.336
-81.412
-82.463
-83.486
-84.471
-85.413
-86.304
-87.138
-87.906
-88.603
-89.222
-89.756
-90.199
-90.543
-90.783
-90.912
-90.926
-90.82
-90.587
-90.224
-89.728
-89.095
-88.324
-87.414
-86.362
-85.169
-83.836
-82.364
-80.757
-79.017
-77.147
-75.154
-73.042
-70.82
-68.495
-66.076
-63.574
-61.002
-58.375
-55.708
-53.015
-50.314
-47.621
-44.953
-42.328
-39.759
-37.261
-34.848
-32.536
-30.341
-28.282
-26.374
-24.63
-23.065
-21.69
-20.518
-19.558
-18.81
-18.274
-17.953
-17.856
-17.998
-18.394
-19.048
-19.964
-21.138
-22.56
-24.215
-26.077
-28.101
-30.24
-32.451
-34.695
-36.95
-39.189
-41.369
-43.438
-45.33
-46.983
-48.362
-49.434
-50.164
-50.554
-50.628
-50.442
-50.097
-49.675
-49.244
-48.888
-48.689
-48.738
-49.15
-50.016
-51.451
-53.642
-56.66
-60.446
-64.813
-69.314
-73.467
-76.894
-79.108
-79.527
-77.857
-74.153
-68.94
-63.424
-58.789
-55.805
-55.165
-57.494
-62.949
-70.911
-79.658
-86.249
-87.543
-80.741
-63.214
-32.526
13.616
75.33
149.535
232.048
317.935
404.484
493.73
585.442
674.044
749.992
797.142
800.822
757.35
669.743
546.964
404.065
254.097
109.582
-13.424
-102.749
-153.448
-165.905
-147.863
-111.541
-66.282
-20.173
16.72
36.51
34.537
9.072
-33.527
-80.807
-121.57
-146.369
-150.974
-138.669
-116.488
-91.786
-69.745
-54.637
-46.578
-44.483
-49.362
-57.163
-64.984
-71.879
-75.006
-76.261
-77.69
-79.221
-81.654
-84.179
-86.184
-88.146
-90.124
-92.249
-94.518
-96.706
-98.854
-100.95
-102.776
-104.178
-105.007
-105.223
-104.958
-104.302
-103.277
-101.911
-100.25
-98.351
-96.306
-94.182
-92.011
-89.831
-87.669
-85.546
-83.488
-81.502
-79.585
-77.723
-75.895
-74.074
-72.239
-70.374
-68.465
-66.5
-64.46
-62.329
-60.09
-57.728
-55.232
-52.588
-49.783
-46.805
-43.647
-40.302
-36.771
-33.055
-29.152
-25.064
-20.791
-16.335
-11.701
-6.894
-1.92
3.215
8.499
13.921
19.465
25.116
30.855
36.662
42.519
48.401
54.288
60.155
65.978
71.732
77.392
82.932
88.326
93.549
98.576
103.38
107.939
112.229
116.228
119.916
123.273
126.281
128.925
131.191
133.065
134.537
135.599
136.244
136.468
136.268
135.644
134.598
133.135
131.262
128.986
126.319
123.273
119.862
116.102
112.011
107.608
102.913
97.947
92.733
87.293
81.653
75.837
69.87
63.776
57.582
51.311
44.989
38.641
32.289
25.957
19.668
13.442
7.301
1.263
-4.654
-10.432
-16.056
-21.511
-26.786
-31.869
-36.75
-41.42
-45.873
-50.104
-54.107
-57.881
-61.425
-64.737
-67.819
-70.674
-73.305
-75.717
-77.914
-79.902
-81.689
-83.282
-84.688
-85.917
-86.978
-87.879
-88.631
-89.243
-89.725
-90.087
-90.339
-90.49
-90.549
-90.527
-90.432
-90.272
-90.056
-89.791
-89.485
-89.146
-88.779
-88.39
-87.984
-87.567
-87.143
-86.714
-86.285
-85.859
-85.436
-85.021
-84.613
-84.216
-83.828
-83.452
-83.086
-82.732
-82.389
-82.055
-81.731
-81.414
-81.103
-80.797
-80.494
-80.192
-79.888
-79.582
-79.269
-78.949
-78.617
-78.273
-77.912
-77.533
-77.133
-76.711
-76.263
-75.789
-75.286
-74.754
-74.191
-73.596
-72.969
-72.308
-71.614
-70.886
-70.124
-69.328
-68.5
-67.64
-66.749
-65.829
-64.882
-63.91
-62.915
-61.901
-60.869
-59.824
-58.769
-57.709
-56.648
-55.592
-54.544
-53.512
-52.499
-51.513
-50.558
-49.642
-48.768
-47.943
-47.172
-46.459
-45.81
-45.229
-44.72
-44.286
-43.93
-43.655
-43.462
-43.352
-43.327
-43.385
-43.526
-43.748
-44.051
-44.43
-44.883
-45.405
-45.991
-46.636
-47.334
-48.077
-48.856
-49.663
-50.488
-51.322
-52.155
-52.974
-53.769
-54.528
-55.24
-55.892
-56.474
-56.973
-57.378
-57.679
-57.865
-57.928
-57.86
-57.654
-57.303
-56.802
-56.146
-55.331
-54.357
-53.223
-51.927
-50.473
-48.862
-47.1
-45.194
-43.152
-40.984
-38.702
-36.318
-33.848
-31.308
-28.717
-26.096
-23.469
-20.854
-18.273
-15.747
-13.296
-10.943
-8.706
-6.604
-4.65
-2.859
-1.248
0.166
1.367
2.348
3.11
3.657
3.992
4.109
3.996
3.646
3.058
2.236
1.176
-0.128
-1.679
-3.467
-5.456
-7.595
-9.84
-12.168
-14.573
-17.068
-19.637
-22.219
-24.744
-27.127
-29.303
-31.264
-32.951
-34.259
-35.179
-35.777
-36.235
-36.93
-38.158
-39.956
-42.349
-45.298
-48.555
-51.977
-55.236
-57.524
-58.125
-56.672
-52.986
-47.338
-40.402
-32.527
-24.242
-16.73
-11.241
-9.036
-11.114
-17.64
-28.13
-42.265
-59.473
-78.478
-97.46
-113.684
-124.171
-126.489
-118.705
-98.836
-64.975
-15.777
49.363
128.242
216.208
308.922
401.742
492.307
582.109
669.456
749.742
815.578
852.07
847.418
797.54
702.499
573.96
429.716
285.367
159.34
65.11
5.149
-22.988
-30.462
-32.105
-34.871
-40.728
-46.851
-47.456
-41.732
-32.191
-21.574
-12.823
-6.594
-2.143
0.692
2.103
2.197
1.12
-0.946
-3.99
-8.137
-13.277
-18.791
-24.007
-28.332
-31.467
-33.363
-34.017
-33.498
-32.112
-30.457
-29.044
-28.277
-28.363
-29.252
-30.839
-32.942
-35.238
-37.349
-39.008
-40.053
-40.425
-40.17
-39.327
-37.943
-36.112
-33.929
-31.467
-28.769
-25.857
-22.752
-19.5
-16.168
-12.831
-9.546
-6.351
-3.267
-0.311
2.51
5.195
7.756
10.216
12.589
14.886
17.113
19.275
21.385
23.462
25.526
27.598
29.7
31.851
34.069
36.37
38.768
41.274
43.898
46.646
49.527
52.552
55.729
59.067
62.573
66.252
70.107
74.141
78.352
82.735
87.285
91.993
96.848
101.838
106.947
112.159
117.455
122.815
128.217
133.637
139.051
144.432
149.754
154.99
160.111
165.09
169.898
174.507
178.89
183.02
186.871
190.418
193.637
196.505
199.001
201.105
202.799
204.068
204.897
205.275
205.192
204.642
203.62
202.127
200.161
197.729
194.835
191.49
187.704
183.491
178.867
173.848
168.455
162.708
156.631
150.248
143.583
136.664
129.516
122.168
114.647
106.982
99.201
91.332
83.403
75.442
67.476
59.531
51.634
43.808
36.079
28.469
20.999
13.688
6.555
-0.385
-7.115
-13.623
-19.897
-25.929
-31.709
-37.232
-42.493
-47.489
-52.217
-56.679
-60.874
-64.806
-68.478
-71.894
-75.06
-77.982
-80.667
-83.123
-85.357
-87.379
-89.197
-90.821
-92.26
-93.523
-94.622
-95.566
-96.364
-97.025
-97.56
-97.978
-98.285
-98.491
-98.604
-98.63
-98.577
-98.45
-98.255
-97.998
-97.683
-97.316
-96.899
-96.437
-95.932
-95.389
-94.809
-94.194
-93.549
-92.873
-92.171
-91.443
-90.692
-89.92
-89.129
-88.321
-87.496
-86.659
-85.809
-84.949
-84.081
-83.206
-82.326
-81.448
-80.572
-79.703
-78.842
-77.99
-77.154
-76.34
-75.544
-74.762
-73.993
-73.23
-72.484
-71.774
-71.091
-70.424
-69.806
-69.262
-68.809
-68.478
-68.248
-68.074
-67.982
-68.018
-68.065
-67.982
-67.854
-67.672
-67.411
-67.372
-66.738
-64.717
-62.44
-60.25
-60.23
-64.87
-71.411
-78.012
-81.932
-79.409
-73.768
-67.828
-63.522
-64.04
-67.099
-70.381
-73.37
-74.656
-75.055
-75.62
-76.151
-76.78
-77.437
-77.908
-78.332
-78.821
-79.336
-79.869
-80.431
-81.019
-81.622
-82.236
-82.839
-83.403
-83.938
-84.449
-84.93
-85.379
-85.792
-86.165
-86.494
-86.78
-87.018
-87.202
-87.328
-87.391
-87.389
-87.317
-87.171
-86.946
-86.638
-86.243
-85.755
-85.171
-84.487
-83.7
-82.806
-81.803
-80.689
-79.464
-78.127
-76.679
-75.121
-73.454
-71.681
-69.807
-67.835
-65.772
-63.623
-61.397
-59.103
-56.754
-54.36
-51.937
-49.497
-47.057
-44.631
-42.236
-39.888
-37.6
-35.386
-33.261
-31.24
-29.341
-27.579
-25.971
-24.532
-23.275
-22.215
-21.363
-20.73
-20.316
-20.125
-20.159
-20.424
-20.935
-21.704
-22.736
-24.032
-25.592
-27.406
-29.46
-31.728
-34.163
-36.72
-39.349
-42.006
-44.66
-47.273
-49.799
-52.181
-54.352
-56.247
-57.821
-59.032
-59.84
-60.239
-60.24
-59.898
-59.317
-58.589
-57.805
-57.065
-56.467
-56.123
-56.147
-56.622
-57.653
-59.398
-61.96
-65.345
-69.418
-73.853
-78.282
-82.364
-85.656
-87.573
-87.586
-85.469
-81.517
-76.416
-70.892
-65.662
-61.402
-59.012
-59.643
-62.608
-65.069
-64.462
-57.747
-45.265
-31.516
-16.141
3.68
34.866
90.086
173.504
283.569
414.402
551.657
684.827
802.721
892.027
944.797
951.23
908.699
822.772
699.123
551.658
394.648
241.875
112.729
19.404
-34.378
-52.708
-50.982
-44.105
-39.02
-37.185
-34.581
-27.064
-16.066
-4.959
3.044
5.336
1.819
-6.49
-18.37
-31.883
-44.911
-55.852
-63.875
-68.84
-70.859
-69.906
-66.214
-60.469
-53.744
-47.251
-41.689
-37.254
-34.039
-32.172
-31.714
-32.62
-34.601
-37.145
-39.923
-42.787
-45.62
-48.344
-50.828
-52.885
-54.431
-55.479
-56.038
-56.12
-55.726
-54.827
-53.44
-51.62
-49.424
-46.915
-44.148
-41.164
-38.014
-34.76
-31.464
-28.194
-24.997
-21.895
-18.904
-16.029
-13.266
-10.615
-8.06
-5.575
-3.137
-0.722
1.688
4.109
6.557
9.053
11.619
14.275
17.04
19.927
22.951
26.123
29.453
32.951
36.621
40.465
44.488
48.69
53.074
57.642
62.394
67.326
72.433
77.711
83.151
88.742
94.469
100.318
106.27
112.305
118.403
124.542
130.696
136.84
142.949
148.993
154.947
160.78
166.465
171.972
177.272
182.339
187.143
191.658
195.858
199.719
203.217
206.331
209.039
211.324
213.168
214.558
215.48
215.925
215.886
215.356
214.334
212.82
210.817
208.33
205.368
201.941
198.062
193.747
189.013
183.879
178.367
172.5
166.302
159.8
153.021
145.993
138.745
131.305
123.705
115.973
108.14
100.237
92.293
84.337
76.399
68.505
60.684
52.961
45.361
37.907
30.62
23.52
16.625
9.953
3.517
-2.67
-8.596
-14.254
-19.635
-24.736
-29.553
-34.084
-38.33
-42.294
-45.979
-49.39
-52.532
-55.414
-58.044
-60.43
-62.584
-64.516
-66.238
-67.761
-69.098
-70.263
-71.267
-72.124
-72.846
-73.446
-73.937
-74.329
-74.634
-74.864
-75.027
-75.134
-75.194
-75.214
-75.203
-75.165
-75.107
-75.033
-74.947
-74.851
-74.748
-74.639
-74.525
-74.405
-74.28
-74.15
-74.013
-73.867
-73.712
-73.546
-73.367
-73.172
-72.961
-72.731
-72.48
-72.208
-71.913
-71.595
-71.252
-70.886
-70.495
-70.08
-69.643
-69.183
-68.703
-68.204
-67.689
-67.16
-66.62
-66.074
-65.524
-64.976
-64.433
-63.902
-63.386
-62.89
-62.42
-61.98
-61.574
-61.208
-60.885
-60.611
-60.388
-60.22
-60.11
-60.06
-60.073
-60.149
-60.29
-60.494
-60.763
-61.095
-61.488
-61.941
-62.451
-63.018
-63.638
-64.308
-65.025
-65.785
-66.585
-67.421
-68.288
-69.182
-70.096
-71.027
-71.969
-72.918
-73.87
-74.82
-75.763
-76.696
-77.615
-78.517
-79.397
-80.254
-81.084
-81.885
-82.656
-83.396
-84.106
-84.785
-85.434
-86.053
-86.645
-87.211
-87.751
-88.266
-88.758
-89.227
-89.673
-90.098
-90.499
-90.877
-91.232
-91.567
-91.881
-92.175
-92.449
-92.703
-92.938
-93.154
-93.346
-93.51
-93.64
-93.732
-93.781
-93.786
-93.741
-93.643
-93.487
-93.269
-92.99
-92.648
-92.236
-91.741
-91.147
-90.449
-89.653
-88.77
-87.811
-86.779
-85.685
-84.543
-83.38
-82.21
-81.035
-79.841
-78.608
-77.333
-76.03
-74.727
-73.449
-72.207
-70.992
-69.793
-68.613
-67.456
-66.316
-65.164
-63.954
-62.676
-61.359
-60.078
-58.902
-57.87
-56.995
-56.279
-55.738
-55.405
-55.322
-55.514
-55.988
-56.752
-57.837
-59.298
-61.192
-63.524
-66.236
-69.213
-72.347
-75.568
-78.827
-82.082
-85.275
-88.33
-91.164
-93.723
-95.964
-97.85
-99.373
-100.483
-101.096
-101.263
-101.141
-101.027
-101.365
-102.404
-104.128
-106.56
-109.767
-113.657
-118.094
-122.467
-125.574
-126.698
-125.672
-122.456
-117.255
-110.302
-101.691
-92.405
-84.55
-79.667
-78.709
-82.18
-89.718
-101.019
-115.917
-132.921
-148.853
-160.493
-164.662
-158.264
-139.112
-104.898
-52.918
17.072
101.879
197.865
300.555
407.212
518.908
634.332
748.371
851.119
928.167
965.788
954.488
892.648
784.353
640.027
477.103
313.458
168.926
59.337
-11.703
-47.172
-56.822
-52.751
-41.147
-27.054
-16.06
-12.054
-18.789
-35.919
-56.44
-73.649
-83.883
-87.326
-88.89
-92.117
-97.095
-102.237
-104.985
-104.302
-100.907
-95.822
-89.984
-83.986
-78.28
-73.408
-69.757
-67.442
-66.372
-66.359
-67.274
-69.027
-71.483
-74.456
-77.752
-81.218
-84.739
-88.198
-91.461
-94.381
-96.813
-98.665
-99.895
-100.487
-100.456
-99.831
-98.649
-96.966
-94.851
-92.37
-89.59
-86.574
-83.377
-80.064
-76.698
-73.34
-70.051
-66.872
-63.823
-60.913
-58.139
-55.492
-52.959
-50.519
-48.144
-45.811
-43.499
-41.187
-38.861
-36.502
-34.087
-31.595
-29.006
-26.3
-23.463
-20.48
-17.338
-14.027
-10.538
-6.864
-3.002
1.053
5.305
9.756
14.41
19.266
24.321
29.572
35.012
40.632
46.422
52.367
58.451
64.656
70.961
77.346
83.787
90.259
96.736
103.192
109.598
115.926
122.148
128.232
134.15
139.871
145.367
150.609
155.567
160.216
164.528
168.48
172.048
175.211
177.949
180.244
182.082
183.45
184.336
184.732
184.634
184.039
182.946
181.36
179.286
176.733
173.711
170.235
166.321
161.987
157.254
152.143
146.679
140.887
134.795
128.431
121.824
115.005
108.005
100.855
93.587
86.234
78.827
71.398
63.978
56.597
49.285
42.07
34.978
28.037
21.27
14.7
8.347
2.23
-3.635
-9.232
-14.55
-19.579
-24.31
-28.738
-32.86
-36.673
-40.177
-43.376
-46.273
-48.872
-51.182
-53.211
-54.969
-56.466
-57.716
-58.731
-59.526
-60.116
-60.516
-60.743
-60.812
-60.74
-60.543
-60.238
-59.84
-59.367
-58.832
-58.251
-57.638
-57.006
-56.368
-55.734
-55.115
-54.519
-53.956
-53.43
-52.949
-52.516
-52.135
-51.809
-51.539
-51.326
-51.171
-51.072
-51.029
-51.039
-51.099
-51.205
-51.355
-51.544
-51.767
-52.019
-52.296
-52.593
-52.904
-53.223
-53.546
-53.867
-54.181
-54.482
-54.766
-55.028
-55.263
-55.469
-55.642
-55.779
-55.878
-55.939
-55.959
-55.939
-55.879
-55.778
-55.638
-55.459
-55.243
-54.992
-54.707
-54.392
-54.048
-53.677
-53.283
-52.869
-52.436
-51.987
-51.525
-51.053
-50.572
-50.087
-49.6
-49.113
-48.63
-48.153
-47.686
-47.23
-46.79
-46.365
-45.96
-45.575
-45.212
-44.872
-44.557
-44.267
-44.004
-43.768
-43.56
-43.379
-43.226
-43.101
-43.003
-42.932
-42.889
-42.873
-42.883
-42.921
-42.987
-43.081
-43.203
-43.353
-43.533
-43.74
-43.976
-44.24
-44.531
-44.848
-45.19
-45.557
-45.947
-46.358
-46.791
-47.241
-47.708
-48.188
-48.679
-49.178
-49.681
-50.182
-50.679
-51.167
-51.644
-52.104
-52.543
-52.957
-53.34
-53.687
-53.994
-54.252
-54.454
-54.591
-54.655
-54.64
-54.541
-54.35
-54.06
-53.667
-53.165
-52.552
-51.827
-50.982
-50.012
-48.912
-47.676
-46.31
-44.821
-43.214
-41.494
-39.673
-37.76
-35.773
-33.732
-31.639
-29.5
-27.32
-25.103
-22.87
-20.644
-18.441
-16.286
-14.184
-12.143
-10.183
-8.324
-6.565
-4.913
-3.364
-1.904
-0.571
0.604
1.598
2.381
2.945
3.281
3.371
3.202
2.759
2.03
1.026
-0.237
-1.758
-3.529
-5.55
-7.819
-10.274
-12.844
-15.477
-18.115
-20.72
-23.264
-25.685
-27.9
-29.842
-31.475
-32.798
-33.875
-34.733
-35.333
-35.708
-36.01
-36.542
-37.668
-39.577
-42.189
-45.429
-49.435
-54.259
-59.706
-65.119
-69.443
-71.95
-72.591
-71.559
-68.739
-64.009
-57.576
-50.533
-44.899
-42.493
-44.057
-49.366
-58.471
-71.629
-88.296
-106.646
-122.486
-130.045
-125.945
-108.95
-79.068
-38.195
15.045
83.087
167.206
269.997
389.38
521.176
659.774
792.15
904.335
981.606
1009.852
986.068
914.176
802.852
666.957
518.909
371.102
238.681
132.258
59.067
20.328
6.862
8.253
14.719
17.872
16.138
8.635
-4.019
-17.831
-30.837
-40.642
-46.742
-52.309
-58.894
-67.146
-76.219
-83.18
-86.712
-86.89
-84.172
-79.682
-74.199
-68.114
-62.112
-56.915
-52.912
-50.266
-48.949
-48.794
-49.689
-51.549
-54.207
-57.448
-61.082
-64.962
-68.973
-73
-76.898
-80.5
-83.639
-86.208
-88.15
-89.436
-90.066
-90.054
-89.427
-88.239
-86.562
-84.462
-82.01
-79.269
-76.292
-73.147
-69.906
-66.638
-63.414
-60.282
-57.268
-54.388
-51.647
-49.038
-46.555
-44.178
-41.879
-39.636
-37.43
-35.244
-33.063
-30.87
-28.641
-26.356
-23.994
-21.536
-18.967
-16.272
-13.439
-10.457
-7.317
-4.012
-0.539
3.107
6.931
10.938
15.131
19.512
24.08
28.833
33.769
38.879
44.156
49.588
55.161
60.859
66.666
72.562
78.527
84.538
90.572
96.604
102.609
108.558
114.425
120.181
125.799
131.249
136.503
141.533
146.313
150.814
155.012
158.882
162.399
165.544
168.294
170.632
172.541
174.006
175.014
175.556
175.624
175.212
174.318
172.943
171.088
168.758
165.963
162.711
159.015
154.889
150.351
145.419
140.114
134.458
128.474
122.189
115.628
108.82
101.792
94.573
87.193
79.682
72.069
64.384
56.658
48.919
41.197
33.52
25.914
18.407
11.024
3.788
-3.278
-10.153
-16.818
-23.255
-29.449
-35.385
-41.052
-46.438
-51.536
-56.338
-60.841
-65.04
-68.935
-72.526
-75.815
-78.806
-81.503
-83.913
-86.043
-87.901
-89.496
-90.84
-91.942
-92.816
-93.474
-93.928
-94.193
-94.282
-94.209
-93.989
-93.635
-93.16
-92.579
-91.904
-91.149
-90.326
-89.445
-88.52
-87.559
-86.574
-85.573
-84.564
-83.555
-82.552
-81.561
-80.586
-79.633
-78.705
-77.803
-76.931
-76.091
-75.282
-74.507
-73.764
-73.053
-72.372
-71.721
-71.097
-70.498
-69.921
-69.363
-68.821
-68.293
-67.776
-67.265
-66.758
-66.252
-65.744
-65.23
-64.708
-64.174
-63.627
-63.065
-62.484
-61.885
-61.265
-60.625
-59.963
-59.28
-58.576
-57.852
-57.107
-56.343
-55.56
-54.762
-53.948
-53.121
-52.284
-51.438
-50.587
-49.733
-48.879
-48.027
-47.182
-46.345
-45.52
-44.71
-43.918
-43.146
-42.399
-41.679
-40.989
-40.333
-39.712
-39.13
-38.588
-38.088
-37.633
-37.222
-36.858
-36.542
-36.273
-36.054
-35.885
-35.764
-35.694
-35.672
-35.699
-35.773
-35.894
-36.059
-36.268
-36.518
-36.807
-37.135
-37.497
-37.892
-38.317
-38.768
-39.243
-39.737
-40.246
-40.767
-41.295
-41.826
-42.356
-42.881
-43.395
-43.896
-44.377
-44.836
-45.266
-45.662
-46.02
-46.334
-46.598
-46.807
-46.955
-47.038
-47.05
-46.987
-46.842
-46.611
-46.289
-45.871
-45.353
-44.731
-44
-43.157
-42.201
-41.128
-39.938
-38.631
-37.205
-35.663
-34.006
-32.236
-30.355
-28.367
-26.276
-24.087
-21.807
-19.442
-17.002
-14.496
-11.938
-9.342
-6.722
-4.095
-1.477
1.113
3.659
6.141
8.545
10.854
13.053
15.124
17.049
18.808
20.384
21.76
22.92
23.85
24.535
24.965
25.137
25.047
24.693
24.065
23.144
21.916
20.371
18.504
16.316
13.815
11.019
7.956
4.676
1.234
-2.319
-5.93
-9.566
-13.187
-16.745
-20.181
-23.421
-26.39
-29.036
-31.313
-33.182
-34.642
-35.711
-36.452
-36.984
-37.409
-37.828
-38.359
-39.107
-40.185
-41.711
-43.767
-46.457
-49.973
-54.42
-59.778
-65.88
-72.309
-78.599
-84.376
-89.136
-92.204
-93.09
-91.615
-88.142
-83.663
-79.138
-75.364
-73.164
-73.382
-76.778
-82.36
-87.012
-87.548
-80.498
-65.729
-46.867
-23.152
7.671
50.885
117.267
209.365
325.287
461.486
604.495
741.255
857.929
936.282
966.892
948.179
885.431
791.504
676.432
547.908
413.383
282.576
171.064
90.059
43.276
24.622
17.649
10.811
-0.246
-14.292
-24.368
-28.036
-27.673
-26.503
-28.312
-34.074
-42.415
-51.978
-61.425
-69.739
-76.169
-79.957
-80.822
-79.044
-75.234
-70.147
-64.454
-58.747
-53.592
-49.486
-46.713
-45.32
-45.214
-46.216
-48.145
-50.84
-54.126
-57.804
-61.721
-65.745
-69.728
-73.536
-77.025
-80.039
-82.481
-84.296
-85.444
-85.924
-85.758
-84.979
-83.645
-81.832
-79.606
-77.034
-74.181
-71.104
-67.875
-64.564
-61.24
-57.968
-54.794
-51.743
-48.834
-46.072
-43.451
-40.959
-38.578
-36.281
-34.045
-31.854
-29.688
-27.532
-25.369
-23.175
-20.932
-18.62
-16.219
-13.715
-11.093
-8.339
-5.443
-2.394
0.815
4.189
7.736
11.461
15.372
19.472
23.767
28.255
32.937
37.81
42.868
48.102
53.503
59.055
64.743
70.55
76.457
82.442
88.482
94.553
100.63
106.687
112.695
118.628
124.456
130.151
135.683
141.025
146.147
151.022
155.623
159.922
163.893
167.514
170.759
173.609
176.042
178.04
179.588
180.672
181.281
181.405
181.039
180.18
178.827
176.984
174.655
171.85
168.578
164.854
160.692
156.111
151.13
145.772
140.06
134.019
127.676
121.057
114.192
107.109
99.84
92.414
84.861
77.214
69.502
61.756
54.008
46.286
38.62
31.038
23.568
16.236
9.066
2.081
-4.697
-11.25
-17.558
-23.609
-29.387
-34.882
-40.085
-44.988
-49.587
-53.879
-57.862
-61.538
-64.908
-67.977
-70.75
-73.235
-75.439
-77.371
-79.042
-80.463
-81.645
-82.602
-83.346
-83.892
-84.253
-84.445
-84.482
-84.379
-84.15
-83.811
-83.375
-82.856
-82.267
-81.621
-80.93
-80.205
-79.456
-78.692
-77.921
-77.152
-76.391
-75.643
-74.912
-74.204
-73.52
-72.863
-72.235
-71.635
-71.066
-70.526
-70.016
-69.534
-69.079
-68.651
-68.246
-67.863
-67.5
-67.155
-66.824
-66.507
-66.199
-65.9
-65.606
-65.317
-65.029
-64.742
-64.454
-64.165
-63.873
-63.578
-63.28
-62.979
-62.676
-62.372
-62.068
-61.765
-61.466
-61.172
-60.886
-60.608
-60.343
-60.091
-59.854
-59.635
-59.435
-59.256
-59.1
-58.968
-58.861
-58.781
-58.728
-58.704
-58.708
-58.741
-58.802
-58.892
-59.011
-59.156
-59.329
-59.527
-59.751
-59.998
-60.266
-60.556
-60.864
-61.189
-61.529
-61.883
-62.247
-62.62
-63
-63.386
-63.775
-64.167
-64.558
-64.95
-65.339
-65.727
-66.111
-66.491
-66.869
-67.242
-67.613
-67.981
-68.347
-68.712
-69.076
-69.441
-69.807
-70.175
-70.546
-70.919
-71.297
-71.678
-72.063
-72.452
-72.844
-73.239
-73.636
-74.034
-74.43
-74.824
-75.213
-75.593
-75.963
-76.317
-76.652
-76.965
-77.251
-77.505
-77.722
-77.895
-78.02
-78.089
-78.097
-78.036
-77.899
-77.68
-77.374
-76.972
-76.472
-75.866
-75.15
-74.321
-73.375
-72.308
-71.119
-69.806
-68.37
-66.811
-65.132
-63.337
-61.431
-59.422
-57.318
-55.132
-52.872
-50.551
-48.184
-45.787
-43.378
-40.976
-38.599
-36.265
-33.995
-31.809
-29.727
-27.769
-25.951
-24.289
-22.8
-21.499
-20.405
-19.534
-18.891
-18.48
-18.3
-18.352
-18.643
-19.181
-19.963
-20.991
-22.265
-23.779
-25.535
-27.52
-29.711
-32.071
-34.552
-37.116
-39.739
-42.41
-45.129
-47.879
-50.615
-53.284
-55.834
-58.203
-60.355
-62.243
-63.785
-65.01
-66.055
-67.119
-68.516
-70.51
-73.218
-76.736
-81.134
-86.182
-91.505
-96.639
-100.854
-103.576
-104.435
-103.053
-99.285
-93.546
-86.489
-78.801
-71.479
-65.33
-61.181
-60.196
-63.135
-69.919
-80.133
-93.298
-108.606
-125.441
-141.464
-152.221
-154.24
-144.548
-123.641
-95.825
-61.431
-18.936
36.477
114.821
218.523
345.257
489.353
636.266
774.388
892.314
976.385
1018.182
1009.922
949.16
841.033
695.043
526.824
354.059
194.957
65.484
-25.101
-75.333
-90.794
-81.406
-58.881
-32.904
-12.632
-4.778
-10.177
-26.375
-45.871
-61.093
-69.734
-72.85
-74.839
-79.04
-85.12
-91.101
-94.463
-94.199
-90.974
-85.839
-79.865
-73.775
-68.078
-63.363
-59.995
-58.037
-57.405
-57.902
-59.374
-61.714
-64.765
-68.322
-72.195
-76.237
-80.31
-84.281
-87.992
-91.261
-93.963
-96.025
-97.414
-98.128
-98.182
-97.601
-96.433
-94.748
-92.607
-90.077
-87.22
-84.093
-80.768
-77.32
-73.827
-70.365
-66.991
-63.736
-60.621
-57.654
-54.831
-52.143
-49.572
-47.09
-44.675
-42.309
-39.975
-37.659
-35.342
-33.003
-30.619
-28.169
-25.634
-22.996
-20.241
-17.355
-14.326
-11.145
-7.805
-4.302
-0.63
3.217
7.245
11.458
15.859
20.451
25.232
30.202
35.357
40.688
46.189
51.846
57.646
63.575
69.614
75.745
81.947
88.199
94.476
100.754
107.007
113.209
119.333
125.349
131.231
136.949
142.476
147.783
152.845
157.634
162.126
166.297
170.124
173.587
176.666
179.344
181.605
183.435
184.822
185.755
186.227
186.233
185.77
184.838
183.438
181.576
179.257
176.49
173.288
169.662
165.628
161.204
156.407
151.258
145.78
139.996
133.93
127.61
121.061
114.31
107.385
100.314
93.124
85.843
78.498
71.116
63.723
56.345
49.007
41.733
34.547
27.471
20.527
13.734
7.113
0.679
-5.551
-11.562
-17.341
-22.878
-28.161
-33.183
-37.937
-42.417
-46.62
-50.544
-54.189
-57.555
-60.646
-63.465
-66.016
-68.307
-70.344
-72.134
-73.686
-75.01
-76.113
-77.007
-77.701
-78.207
-78.535
-78.697
-78.704
-78.569
-78.303
-77.918
-77.426
-76.838
-76.165
-75.419
-74.609
-73.748
-72.844
-71.906
-70.945
-69.967
-68.981
-67.994
-67.011
-66.039
-65.081
-64.142
-63.225
-62.333
-61.468
-60.633
-59.829
-59.058
-58.32
-57.616
-56.946
-56.311
-55.708
-55.139
-54.601
-54.092
-53.611
-53.157
-52.726
-52.316
-51.926
-51.552
-51.192
-50.843
-50.504
-50.171
-49.842
-49.516
-49.189
-48.862
-48.532
-48.199
-47.862
-47.522
-47.177
-46.83
-46.478
-46.125
-45.769
-45.411
-45.053
-44.695
-44.339
-43.986
-43.637
-43.294
-42.959
-42.634
-42.322
-42.024
-41.743
-41.481
-41.241
-41.026
-40.837
-40.677
-40.55
-40.456
-40.398
-40.378
-40.398
-40.458
-40.559
-40.702
-40.887
-41.114
-41.383
-41.693
-42.043
-42.433
-42.862
-43.328
-43.83
-44.367
-44.937
-45.538
-46.169
-46.826
-47.509
-48.213
-48.937
-49.676
-50.428
-51.188
-51.953
-52.719
-53.481
-54.234
-54.975
-55.698
-56.398
-57.072
-57.715
-58.322
-58.89
-59.413
-59.889
-60.312
-60.679
-60.986
-61.228
-61.401
-61.503
-61.528
-61.474
-61.336
-61.111
-60.796
-60.386
-59.878
-59.27
-58.558
-57.74
-56.815
-55.782
-54.641
-53.391
-52.035
-50.575
-49.014
-47.354
-45.599
-43.754
-41.822
-39.812
-37.728
-35.578
-33.37
-31.115
-28.826
-26.516
-24.2
-21.891
-19.603
-17.351
-15.152
-13.024
-10.981
-9.04
-7.216
-5.526
-3.988
-2.62
-1.439
-0.455
0.324
0.889
1.231
1.344
1.223
0.87
0.287
-0.527
-1.576
-2.868
-4.405
-6.183
-8.194
-10.425
-12.863
-15.488
-18.271
-21.177
-24.166
-27.196
-30.224
-33.214
-36.127
-38.93
-41.599
-44.089
-46.345
-48.31
-49.92
-51.151
-52.043
-52.617
-52.864
-52.854
-52.71
-52.698
-53.261
-54.644
-56.834
-59.819
-63.582
-68.042
-73.067
-78.008
-81.625
-83.088
-82.109
-78.633
-72.867
-64.998
-55.245
-44.871
-36.16
-30.903
-30.329
-35.173
-45.434
-61.121
-81.001
-101.326
-117.657
-126.668
-128.101
-123.778
-113.016
-90.346
-45.989
27.935
131.991
258.364
394.026
528.961
656.993
774.758
877.089
952.533
989.484
978.454
918.57
817.876
685.274
533.556
374.448
219.817
86.985
-12.689
-73.938
-97.885
-96.168
-78.878
-53.828
-29.426
-9.023
3.492
6.192
3.318
-1.898
-6.346
-9.563
-15.213
-24.644
-37.46
-51.558
-63.476
-71.9
-76.633
-77.537
-75.296
-70.604
-64.31
-57.923
-52.411
-48.074
-45.134
-43.679
-43.727
-45.29
-48.106
-51.595
-55.354
-59.19
-62.948
-66.559
-69.895
-72.751
-75.033
-76.743
-77.885
-78.474
-78.512
-77.971
-76.871
-75.271
-73.231
-70.821
-68.102
-65.122
-61.942
-58.631
-55.261
-51.906
-48.622
-45.441
-42.387
-39.47
-36.692
-34.054
-31.544
-29.139
-26.818
-24.56
-22.348
-20.169
-18.005
-15.839
-13.65
-11.418
-9.123
-6.751
-4.288
-1.718
0.969
3.785
6.738
9.833
13.077
16.477
20.04
23.772
27.678
31.762
36.025
40.469
45.092
49.89
54.855
59.978
65.248
70.651
76.172
81.795
87.498
93.263
99.068
104.887
110.698
116.475
122.19
127.818
133.33
138.699
143.897
148.898
153.674
158.199
162.447
166.396
170.02
173.298
176.209
178.734
180.854
182.555
183.821
184.64
185.004
184.904
184.337
183.301
181.795
179.823
177.39
174.505
171.179
167.424
163.255
158.691
153.749
148.452
142.822
136.884
130.664
124.188
117.485
110.582
103.509
96.294
88.967
81.558
74.096
66.609
59.127
51.677
44.286
36.982
29.788
22.731
15.832
9.113
2.594
-3.706
-9.772
-15.589
-21.143
-26.424
-31.423
-36.134
-40.551
-44.672
-48.497
-52.025
-55.26
-58.206
-60.869
-63.256
-65.375
-67.236
-68.848
-70.224
-71.374
-72.311
-73.047
-73.597
-73.971
-74.186
-74.253
-74.186
-73.998
-73.703
-73.314
-72.842
-72.301
-71.702
-71.056
-70.373
-69.663
-68.935
-68.196
-67.454
-66.713
-65.98
-65.259
-64.552
-63.862
-63.191
-62.539
-61.907
-61.295
-60.702
-60.127
-59.569
-59.026
-58.497
-57.98
-57.474
-56.978
-56.489
-56.006
-55.529
-55.056
-54.586
-54.119
-53.652
-53.186
-52.72
-52.253
-51.786
-51.318
-50.849
-50.381
-49.913
-49.448
-48.987
-48.53
-48.081
-47.641
-47.213
-46.799
-46.402
-46.023
-45.666
-45.334
-45.027
-44.749
-44.501
-44.284
-44.1
-43.949
-43.832
-43.748
-43.698
-43.681
-43.697
-43.745
-43.824
-43.934
-44.072
-44.239
-44.432
-44.651
-44.895
-45.162
-45.451
-45.76
-46.089
-46.436
-46.801
-47.182
-47.579
-47.991
-48.417
-48.856
-49.308
-49.772
-50.248
-50.736
-51.237
-51.749
-52.275
-52.816
-53.371
-53.942
-54.53
-55.136
-55.761
-56.404
-57.067
-57.75
-58.452
-59.173
-59.912
-60.669
-61.441
-62.228
-63.025
-63.831
-64.642
-65.452
-66.257
-67.052
-67.83
-68.585
-69.311
-70.001
-70.648
-71.244
-71.782
-72.254
-72.651
-72.965
-73.187
-73.31
-73.324
-73.222
-72.997
-72.642
-72.153
-71.522
-70.747
-69.824
-68.749
-67.519
-66.135
-64.596
-62.903
-61.061
-59.072
-56.943
-54.683
-52.304
-49.818
-47.24
-44.583
-41.865
-39.103
-36.319
-33.533
-30.768
-28.044
-25.382
-22.804
-20.334
-17.994
-15.808
-13.792
-11.963
-10.337
-8.933
-7.772
-6.868
-6.224
-5.844
-5.726
-5.875
-6.306
-7.029
-8.042
-9.344
-10.929
-12.79
-14.926
-17.321
-19.939
-22.734
-25.649
-28.638
-31.681
-34.762
-37.879
-41.006
-44.075
-47.022
-49.785
-52.305
-54.572
-56.556
-58.181
-59.482
-60.587
-61.694
-63.176
-65.334
-68.204
-71.812
-76.136
-80.933
-86.035
-91.087
-95.269
-97.872
-98.547
-97.097
-93.702
-88.916
-83.001
-76.411
-70.18
-65.374
-63.023
-63.912
-68.209
-75.464
-85.162
-96.872
-109.865
-122.647
-133.062
-138.027
-133.494
-117.648
-90.127
-51.621
-5.189
49.49
114.472
191.831
285.673
394.925
515.338
640.91
758.702
855.801
919.176
935.72
902.732
823.989
707.748
568.881
419.831
272.411
141.052
35.588
-37.368
-76.363
-89.702
-86.745
-76.708
-68.182
-63.478
-64.5
-70.617
-76.785
-80.417
-78.612
-71.073
-62.611
-55.991
-52.757
-53.408
-55.605
-58.039
-60.807
-63.685
-66.492
-69.137
-71.169
-72.066
-71.842
-70.588
-68.275
-65.35
-62.525
-60.173
-58.629
-58.216
-58.893
-60.607
-63.319
-66.677
-70.224
-73.651
-76.69
-79.181
-81.126
-82.505
-83.297
-83.566
-83.383
-82.814
-81.927
-80.753
-79.3
-77.599
-75.689
-73.628
-71.483
-69.314
-67.175
-65.103
-63.114
-61.217
-59.412
-57.686
-56.027
-54.411
-52.81
-51.206
-49.579
-47.911
-46.184
-44.374
-42.451
-40.391
-38.17
-35.767
-33.168
-30.358
-27.324
-24.058
-20.553
-16.806
-12.816
-8.581
-4.101
0.625
5.595
10.804
16.245
21.91
27.789
33.869
40.135
46.569
53.152
59.861
66.674
73.566
80.511
87.481
94.446
101.376
108.241
115.008
121.646
128.123
134.406
140.464
146.266
151.783
156.985
161.845
166.338
170.439
174.127
177.381
180.184
182.519
184.373
185.735
186.596
186.951
186.795
186.127
184.948
183.264
181.079
178.403
175.247
171.625
167.553
163.049
158.133
152.826
147.153
141.139
134.811
128.197
121.326
114.228
106.934
99.474
91.879
84.181
76.411
68.598
60.773
52.965
45.201
37.509
29.915
22.442
15.114
7.953
0.978
-5.791
-12.338
-18.646
-24.703
-30.496
-36.015
-41.25
-46.196
-50.846
-55.196
-59.246
-62.995
-66.444
-69.597
-72.457
-75.03
-77.323
-79.345
-81.105
-82.613
-83.88
-84.919
-85.74
-86.358
-86.784
-87.033
-87.116
-87.048
-86.841
-86.508
-86.06
-85.511
-84.872
-84.154
-83.368
-82.525
-81.636
-80.709
-79.754
-78.78
-77.796
-76.807
-75.821
-74.846
-73.885
-72.944
-72.028
-71.14
-70.283
-69.46
-68.672
-67.921
-67.206
-66.529
-65.889
-65.284
-64.715
-64.18
-63.677
-63.204
-62.761
-62.345
-61.954
-61.587
-61.241
-60.915
-60.606
-60.311
-60.029
-59.757
-59.492
-59.232
-58.974
-58.715
-58.454
-58.187
-57.912
-57.626
-57.328
-57.014
-56.683
-56.333
-55.963
-55.57
-55.155
-54.716
-54.252
-53.764
-53.25
-52.712
-52.149
-51.562
-50.951
-50.317
-49.661
-48.984
-48.288
-47.575
-46.846
-46.105
-45.352
-44.592
-43.827
-43.059
-42.293
-41.532
-40.778
-40.037
-39.312
-38.606
-37.924
-37.27
-36.646
-36.058
-35.508
-35
-34.537
-34.121
-33.755
-33.442
-33.183
-32.981
-32.836
-32.75
-32.722
-32.753
-32.842
-32.987
-33.187
-33.438
-33.739
-34.085
-34.473
-34.898
-35.355
-35.84
-36.346
-36.868
-37.398
-37.931
-38.459
-38.974
-39.469
-39.936
-40.366
-40.754
-41.092
-41.37
-41.584
-41.723
-41.783
-41.756
-41.635
-41.414
-41.087
-40.65
-40.098
-39.43
-38.643
-37.735
-36.706
-35.558
-34.292
-32.911
-31.418
-29.818
-28.116
-26.319
-24.435
-22.473
-20.445
-18.362
-16.239
-14.088
-11.926
-9.769
-7.637
-5.55
-3.527
-1.585
0.258
1.987
3.585
5.034
6.318
7.427
8.35
9.073
9.584
9.866
9.911
9.716
9.291
8.646
7.785
6.702
5.389
3.84
2.055
0.04
-2.208
-4.697
-7.421
-10.36
-13.462
-16.661
-19.907
-23.167
-26.436
-29.721
-32.989
-36.166
-39.164
-41.889
-44.285
-46.353
-48.03
-49.213
-49.901
-50.16
-50.245
-50.597
-51.447
-52.796
-54.632
-56.864
-59.396
-62.272
-65.132
-67.183
-67.979
-67.317
-65.276
-62.389
-58.959
-54.904
-50.662
-47.154
-45.137
-45.575
-48.903
-54.778
-63.195
-74.285
-87.619
-102.404
-117.316
-129.907
-137.891
-139.363
-131.747
-112.601
-79.75
-30.872
34.545
113.968
204.084
300.954
402.042
508.468
620.539
735.095
841.973
924.595
966.91
957.369
896.277
793.15
658.573
505.884
346.192
189.204
50.557
-55.535
-121.812
-145.636
-133.862
-101.66
-60.969
-24.47
-4.598
-2.746
-17.372
-42.166
-64.202
-78.256
-84.029
-83.657
-83.589
-86.057
-89.475
-92.382
-92.779
-90.29
-86.212
-81.571
-77.105
-73.389
-70.769
-69.42
-69.396
-70.591
-72.76
-75.7
-79.291
-83.376
-87.771
-92.333
-96.896
-101.299
-105.41
-109.073
-112.162
-114.61
-116.377
-117.449
-117.838
-117.572
-116.701
-115.296
-113.423
-111.141
-108.508
-105.58
-102.425
-99.122
-95.748
-92.38
-89.071
-85.858
-82.765
-79.807
-76.985
-74.294
-71.717
-69.228
-66.81
-64.448
-62.129
-59.838
-57.56
-55.274
-52.96
-50.6
-48.175
-45.669
-43.067
-40.356
-37.525
-34.564
-31.466
-28.227
-24.839
-21.296
-17.591
-13.717
-9.67
-5.448
-1.047
3.533
8.29
13.22
18.316
23.569
28.969
34.504
40.16
45.919
51.764
57.676
63.634
69.614
75.592
81.544
87.443
93.262
98.975
104.554
109.971
115.198
120.209
124.978
129.479
133.687
137.579
141.133
144.328
147.146
149.569
151.581
153.169
154.322
155.029
155.286
155.087
154.429
153.315
151.746
149.728
147.269
144.378
141.07
137.357
133.256
128.788
123.971
118.829
113.386
107.666
101.696
95.504
89.117
82.564
75.875
69.077
62.201
55.276
48.329
41.389
34.482
27.637
20.877
14.228
7.713
1.353
-4.831
-10.82
-16.596
-22.144
-27.45
-32.501
-37.287
-41.799
-46.031
-49.977
-53.634
-57
-60.075
-62.861
-65.361
-67.58
-69.524
-71.199
-72.615
-73.78
-74.705
-75.401
-75.879
-76.151
-76.23
-76.129
-75.86
-75.437
-74.872
-74.179
-73.37
-72.457
-71.453
-70.369
-69.217
-68.008
-66.751
-65.456
-64.132
-62.789
-61.434
-60.074
-58.716
-57.366
-56.03
-54.713
-53.419
-52.152
-50.914
-49.71
-48.54
-47.407
-46.311
-45.255
-44.237
-43.258
-42.318
-41.417
-40.554
-39.728
-38.939
-38.185
-37.465
-36.779
-36.125
-35.503
-34.911
-34.349
-33.815
-33.309
-32.829
-32.375
-31.945
-31.537
-31.152
-30.787
-30.44
-30.111
-29.799
-29.5
-29.215
-28.941
-28.677
-28.422
-28.175
-27.934
-27.698
-27.467
-27.241
-27.017
-26.797
-26.58
-26.365
-26.153
-25.944
-25.737
-25.534
-25.334
-25.138
-24.947
-24.761
-24.58
-24.407
-24.242
-24.087
-23.943
-23.813
-23.699
-23.603
-23.527
-23.476
-23.45
-23.454
-23.489
-23.56
-23.668
-23.817
-24.007
-24.243
-24.524
-24.854
-25.231
-25.657
-26.131
-26.654
-27.223
-27.837
-28.494
-29.191
-29.926
-30.695
-31.494
-32.32
-33.167
-34.03
-34.903
-35.779
-36.652
-37.513
-38.355
-39.169
-39.947
-40.679
-41.358
-41.972
-42.514
-42.974
-43.342
-43.61
-43.768
-43.809
-43.725
-43.509
-43.155
-42.658
-42.014
-41.22
-40.273
-39.175
-37.924
-36.522
-34.972
-33.276
-31.441
-29.471
-27.376
-25.162
-22.842
-20.426
-17.931
-15.374
-12.77
-10.14
-7.504
-4.881
-2.292
0.24
2.698
5.064
7.317
9.439
11.407
13.199
14.797
16.18
17.333
18.238
18.883
19.255
19.354
19.177
18.721
17.98
16.937
15.578
13.897
11.89
9.56
6.918
3.983
0.784
-2.631
-6.209
-9.903
-13.665
-17.465
-21.266
-25.023
-28.676
-32.155
-35.384
-38.307
-40.872
-43.032
-44.783
-46.138
-47.148
-47.908
-48.49
-48.973
-49.459
-50.034
-50.793
-51.838
-53.24
-55.13
-57.739
-61.18
-65.418
-70.277
-75.314
-80.08
-84.205
-87.128
-88.146
-86.856
-83.253
-77.83
-71.691
-66.023
-61.858
-60.326
-62.549
-68.226
-75.443
-81.848
-84.959
-84.631
-82.157
-75.949
-60.391
-25.983
35.415
125.15
236.666
358.249
480.949
600.443
714.731
820.264
907.136
960.806
967.623
921.506
824.208
686.24
526.096
362.017
214.371
100.005
24.348
-13.028
-22.113
-16.999
-7.138
-0.311
1.147
-2.402
-10.495
-19.827
-28.434
-34.266
-36.281
-37.152
-38.294
-40.331
-43.053
-44.03
-42.203
-38.362
-33.953
-30.581
-29.123
-29.54
-31.405
-34.624
-39.119
-44.328
-49.368
-53.571
-56.597
-58.619
-60.283
-61.917
-63.577
-65.431
-67.619
-70.213
-73.224
-76.398
-79.274
-81.585
-83.236
-84.19
-84.506
-84.219
-83.337
-81.94
-80.15
-78.062
-75.746
-73.242
-70.568
-67.767
-64.902
-62.039
-59.238
-56.531
-53.933
-51.448
-49.074
-46.802
-44.621
-42.509
-40.449
-38.428
-36.435
-34.461
-32.497
-30.527
-28.534
-26.496
-24.392
-22.202
-19.912
-17.507
-14.976
-12.308
-9.495
-6.528
-3.401
-0.104
3.372
7.037
10.897
14.96
19.227
23.7
28.378
33.256
38.326
43.578
49
54.579
60.299
66.145
72.098
78.141
84.254
90.416
96.605
102.798
108.967
115.083
121.116
127.034
132.804
138.393
143.771
148.907
153.773
158.34
162.586
166.485
170.01
173.131
175.819
178.044
179.79
181.041
181.794
182.053
181.83
181.144
180.017
178.465
176.498
174.116
171.308
168.06
164.362
160.214
155.635
150.64
145.244
139.457
133.285
126.718
119.736
112.311
104.404
96.001
87.108
77.767
68.05
58.047
47.866
37.599
27.314
17.079
6.952
-3.004
-12.726
-22.136
-31.144
-39.647
-47.522
-54.674
-61.038
-66.592
-71.361
-75.4
-78.795
-81.621
-83.937
-85.792
-87.223
-88.268
-88.959
-89.34
-89.46
-89.387
-89.215
-89.022
-88.87
-88.789
-88.776
-88.806
-88.825
-88.791
-88.67
-88.438
-88.09
-87.626
-87.053
-86.381
-85.624
-84.782
-83.839
-82.783
-81.604
-80.306
-78.907
-77.437
-75.935
-74.437
-72.978
-71.584
-70.273
-69.055
-67.935
-66.912
-65.977
-65.128
-64.366
-63.693
-63.11
-62.62
-62.217
-61.894
-61.645
-61.459
-61.325
-61.235
-61.179
-61.15
-61.144
-61.158
-61.19
-61.24
-61.304
-61.379
-61.462
-61.548
-61.634
-61.715
-61.787
-61.847
-61.891
-61.917
-61.925
-61.915
-61.884
-61.834
-61.765
-61.677
-61.572
-61.451
-61.315
-61.165
-61.005
-60.835
-60.659
-60.479
-60.298
-60.118
-59.941
-59.771
-59.609
-59.458
-59.319
-59.195
-59.087
-58.997
-58.926
-58.877
-58.852
-58.852
-58.88
-58.938
-59.027
-59.15
-59.306
-59.499
-59.728
-59.995
-60.3
-60.644
-61.029
-61.454
-61.919
-62.425
-62.971
-63.555
-64.178
-64.837
-65.531
-66.258
-67.015
-67.8
-68.611
-69.444
-70.297
-71.166
-72.047
-72.938
-73.832
-74.727
-75.616
-76.495
-77.357
-78.197
-79.009
-79.786
-80.522
-81.209
-81.841
-82.409
-82.907
-83.326
-83.659
-83.899
-84.037
-84.067
-83.983
-83.779
-83.451
-82.994
-82.405
-81.681
-80.82
-79.823
-78.688
-77.417
-76.012
-74.477
-72.815
-71.032
-69.133
-67.128
-65.025
-62.837
-60.575
-58.254
-55.89
-53.499
-51.1
-48.71
-46.35
-44.036
-41.787
-39.621
-37.557
-35.614
-33.814
-32.175
-30.715
-29.45
-28.396
-27.565
-26.968
-26.61
-26.492
-26.618
-26.993
-27.63
-28.543
-29.737
-31.217
-32.983
-35.024
-37.331
-39.881
-42.636
-45.557
-48.601
-51.726
-54.903
-58.097
-61.265
-64.351
-67.28
-69.975
-72.373
-74.417
-76.058
-77.276
-78.067
-78.461
-78.534
-78.348
-77.975
-77.496
-76.99
-76.555
-76.298
-76.301
-76.692
-77.677
-79.404
-81.906
-85.042
-88.438
-91.686
-94.445
-96.285
-96.625
-94.969
-91.161
-85.681
-79.54
-73.805
-69.411
-67.127
-67.847
-72.638
-80.764
-89.143
-94.545
-93.126
-84.328
-71.989
-55.793
-33.248
2.06
62.196
151.269
268.146
407.581
555.923
702.585
835.053
937.873
1000.826
1012.646
970.62
881.733
753.793
602
441.032
283.268
145.561
40.414
-26.15
-54.314
-54.45
-42.534
-31.008
-26.5
-30.664
-37.72
-41.427
-40.144
-32.288
-20.569
-10.664
-4.75
-4.565
-10.2
-18.771
-28.417
-38.322
-47.496
-55.457
-61.875
-65.983
-67.453
-66.609
-63.943
-60
-55.507
-51.254
-47.768
-45.514
-44.76
-45.425
-47.345
-50.316
-53.998
-57.957
-61.875
-65.489
-68.595
-71.148
-73.119
-74.472
-75.237
-75.465
-75.187
-74.445
-73.281
-71.71
-69.766
-67.502
-64.965
-62.224
-59.347
-56.395
-53.431
-50.503
-47.636
-44.853
-42.162
-39.563
-37.052
-34.618
-32.242
-29.909
-27.604
-25.31
-23.012
-20.691
-18.324
-15.893
-13.379
-10.766
-8.04
-5.19
-2.204
0.926
4.206
7.642
11.235
14.991
18.911
23
27.258
31.686
36.282
41.043
45.964
51.04
56.26
61.615
67.09
72.671
78.343
84.086
89.882
95.709
101.546
107.369
113.154
118.874
124.505
130.02
135.393
140.597
145.606
150.395
154.938
159.212
163.193
166.86
170.19
173.165
175.766
177.976
179.78
181.166
182.122
182.639
182.712
182.334
181.504
180.221
178.489
176.312
173.697
170.652
167.189
163.321
159.064
154.434
149.452
144.137
138.512
132.601
126.427
120.016
113.394
106.588
99.625
92.531
85.335
78.064
70.744
63.404
56.07
48.767
41.522
34.357
27.297
20.363
13.576
6.956
0.522
-5.711
-11.725
-17.508
-23.047
-28.331
-33.352
-38.103
-42.577
-46.773
-50.687
-54.319
-57.67
-60.742
-63.54
-66.066
-68.328
-70.332
-72.086
-73.597
-74.876
-75.933
-76.778
-77.422
-77.876
-78.153
-78.265
-78.222
-78.038
-77.725
-77.295
-76.759
-76.131
-75.42
-74.64
-73.8
-72.912
-71.984
-71.027
-70.048
-69.055
-68.056
-67.056
-66.061
-65.076
-64.107
-63.157
-62.23
-61.329
-60.456
-59.615
-58.807
-58.033
-57.295
-56.595
-55.931
-55.306
-54.718
-54.169
-53.658
-53.185
-52.748
-52.347
-51.98
-51.645
-51.342
-51.067
-50.82
-50.597
-50.398
-50.22
-50.063
-49.924
-49.803
-49.698
-49.608
-49.533
-49.471
-49.421
-49.384
-49.357
-49.341
-49.334
-49.337
-49.347
-49.364
-49.386
-49.414
-49.446
-49.48
-49.515
-49.551
-49.587
-49.622
-49.656
-49.688
-49.719
-49.749
-49.778
-49.809
-49.84
-49.874
-49.91
-49.951
-49.998
-50.05
-50.11
-50.177
-50.254
-50.342
-50.44
-50.549
-50.672
-50.807
-50.956
-51.121
-51.3
-51.495
-51.708
-51.937
-52.184
-52.45
-52.734
-53.037
-53.358
-53.697
-54.052
-54.423
-54.807
-55.202
-55.604
-56.01
-56.416
-56.818
-57.209
-57.586
-57.943
-58.274
-58.573
-58.834
-59.051
-59.217
-59.327
-59.376
-59.355
-59.261
-59.086
-58.827
-58.477
-58.032
-57.489
-56.843
-56.09
-55.229
-54.257
-53.173
-51.976
-50.667
-49.247
-47.72
-46.087
-44.355
-42.53
-40.619
-38.635
-36.588
-34.492
-32.362
-30.213
-28.062
-25.926
-23.821
-21.763
-19.767
-17.85
-16.027
-14.316
-12.735
-11.3
-10.028
-8.932
-8.026
-7.325
-6.838
-6.569
-6.522
-6.701
-7.113
-7.773
-8.696
-9.889
-11.355
-13.095
-15.1
-17.358
-19.847
-22.525
-25.348
-28.273
-31.256
-34.267
-37.271
-40.229
-43.086
-45.776
-48.231
-50.4
-52.241
-53.716
-54.816
-55.545
-55.948
-56.112
-56.122
-56.068
-56.042
-56.128
-56.431
-57.055
-58.087
-59.646
-61.879
-64.879
-68.664
-73.105
-77.854
-82.528
-86.759
-90.096
-92.044
-92.166
-90.212
-86.455
-81.734
-76.998
-73.025
-70.497
-70.047
-72.309
-77.716
-84.624
-89.387
-88.326
-77.622
-57.44
-31.842
-2.185
30.974
72.389
133.653
221.545
339.233
482.167
633.618
774.043
883.301
945.537
953.523
909.146
820.63
697.427
552.609
398.344
247.17
116.544
18.495
-42.305
-68.83
-75.466
-76.819
-80.151
-87.267
-93.526
-93.535
-87.413
-77.854
-68.21
-61.713
-58.917
-58.671
-60.015
-61.916
-63.718
-65.283
-66.502
-67.147
-66.949
-66.04
-64.724
-63.245
-61.758
-60.152
-58.31
-56.465
-55.13
-54.586
-54.888
-55.997
-57.804
-60.358
-63.711
-67.645
-71.753
-75.664
-79.113
-81.983
-84.271
-85.931
-86.909
-87.217
-86.917
-86.101
-84.866
-83.264
-81.317
-79.057
-76.532
-73.808
-70.969
-68.086
-65.223
-62.423
-59.71
-57.1
-54.602
-52.211
-49.917
-47.701
-45.536
-43.405
-41.296
-39.196
-37.094
-34.97
-32.8
-30.561
-28.234
-25.799
-23.244
-20.555
-17.718
-14.726
-11.569
-8.244
-4.747
-1.073
2.783
6.826
11.061
15.487
20.106
24.913
29.907
35.08
40.424
45.929
51.58
57.364
63.264
69.262
75.34
81.476
87.648
93.831
100.001
106.131
112.195
118.164
124.011
129.707
135.223
140.532
145.606
150.417
154.94
159.149
163.021
166.533
169.664
172.395
174.708
176.588
178.023
179
179.513
179.555
179.123
178.217
176.838
174.99
172.68
169.918
166.714
163.083
159.04
154.603
149.792
144.63
139.139
133.344
127.272
120.951
114.408
107.673
100.775
93.744
86.61
79.402
72.151
64.886
57.635
50.425
43.284
36.235
29.304
22.512
15.881
9.428
3.173
-2.869
-8.685
-14.261
-19.588
-24.657
-29.461
-33.996
-38.258
-42.246
-45.961
-49.404
-52.581
-55.494
-58.152
-60.562
-62.732
-64.673
-66.395
-67.91
-69.231
-70.368
-71.336
-72.147
-72.815
-73.352
-73.771
-74.083
-74.301
-74.435
-74.496
-74.495
-74.439
-74.339
-74.201
-74.033
-73.841
-73.631
-73.408
-73.175
-72.937
-72.695
-72.451
-72.206
-71.962
-71.717
-71.47
-71.222
-70.97
-70.713
-70.447
-70.17
-69.881
-69.575
-69.249
-68.902
-68.53
-68.132
-67.704
-67.246
-66.756
-66.234
-65.677
-65.087
-64.464
-63.807
-63.118
-62.397
-61.647
-60.869
-60.066
-59.239
-58.391
-57.527
-56.648
-55.759
-54.863
-53.964
-53.066
-52.173
-51.29
-50.42
-49.568
-48.739
-47.935
-47.162
-46.424
-45.724
-45.066
-44.453
-43.888
-43.374
-42.913
-42.507
-42.157
-41.866
-41.634
-41.462
-41.351
-41.301
-41.312
-41.385
-41.52
-41.714
-41.969
-42.282
-42.652
-43.078
-43.558
-44.09
-44.671
-45.301
-45.975
-46.691
-47.447
-48.239
-49.063
-49.916
-50.793
-51.691
-52.605
-53.53
-54.463
-55.398
-56.331
-57.258
-58.173
-59.072
-59.949
-60.799
-61.617
-62.397
-63.132
-63.817
-64.445
-65.01
-65.507
-65.929
-66.27
-66.525
-66.688
-66.753
-66.715
-66.569
-66.309
-65.931
-65.43
-64.803
-64.048
-63.162
-62.144
-60.992
-59.708
-58.291
-56.743
-55.067
-53.264
-51.339
-49.295
-47.14
-44.879
-42.519
-40.069
-37.542
-34.948
-32.304
-29.624
-26.924
-24.221
-21.534
-18.88
-16.277
-13.742
-11.288
-8.934
-6.693
-4.584
-2.626
-0.835
0.773
2.183
3.382
4.355
5.094
5.597
5.861
5.884
5.66
5.172
4.406
3.352
2.004
0.36
-1.573
-3.782
-6.241
-8.903
-11.717
-14.632
-17.598
-20.581
-23.542
-26.435
-29.204
-31.779
-34.088
-36.076
-37.694
-38.901
-39.693
-40.091
-40.158
-39.999
-39.719
-39.431
-39.252
-39.279
-39.618
-40.369
-41.612
-43.497
-46.241
-49.955
-54.676
-60.32
-66.534
-72.937
-79.153
-84.526
-88.283
-89.935
-89.154
-85.99
-81.348
-76.294
-71.763
-69.301
-69.617
-71.467
-73.708
-74.76
-74.031
-75.091
-80.198
-86.699
-87.184
-67.278
-13.458
77.702
202.15
348.209
500.693
650.265
786.557
897.629
973.593
1001.906
978.483
908.878
800.648
667.646
522.168
373.839
236.959
123.242
39.384
-12.556
-40.664
-57.154
-69.211
-80.01
-87.529
-86.753
-77.469
-62.932
-47.173
-34.463
-26.55
-22.983
-23.22
-26.884
-33.338
-41.541
-50.256
-58.289
-64.673
-69.167
-71.76
-72.128
-70.297
-66.716
-61.942
-56.805
-52.201
-48.517
-45.947
-44.777
-45.04
-46.63
-49.403
-52.966
-56.82
-60.666
-64.278
-67.439
-70.084
-72.155
-73.587
-74.42
-74.717
-74.511
-73.852
-72.777
-71.299
-69.459
-67.31
-64.903
-62.311
-59.605
-56.853
-54.122
-51.462
-48.901
-46.46
-44.146
-41.955
-39.879
-37.9
-35.995
-34.146
-32.334
-30.54
-28.745
-26.926
-25.055
-23.111
-21.07
-18.912
-16.62
-14.18
-11.576
-8.798
-5.839
-2.691
0.649
4.185
7.923
11.866
16.015
20.37
24.931
29.693
34.651
39.798
45.123
50.613
56.253
62.027
67.915
73.897
79.95
86.052
92.177
98.299
104.391
110.425
116.373
122.206
127.896
133.414
138.731
143.821
148.656
153.211
157.461
161.382
164.954
168.155
170.968
173.375
175.363
176.917
178.028
178.687
178.889
178.63
177.908
176.725
175.085
172.994
170.46
167.493
164.106
160.314
156.131
151.576
146.669
141.43
135.882
130.046
123.948
117.612
111.064
104.328
97.43
90.396
83.251
76.021
68.731
61.405
54.067
46.739
39.445
32.205
25.04
17.969
11.009
4.178
-2.509
-9.038
-15.395
-21.57
-27.55
-33.328
-38.895
-44.243
-49.369
-54.266
-58.932
-63.364
-67.561
-71.524
-75.251
-78.745
-82.008
-85.041
-87.849
-90.433
-92.799
-94.95
-96.891
-98.626
-100.162
-101.503
-102.655
-103.622
-104.412
-105.029
-105.479
-105.768
-105.902
-105.887
-105.728
-105.432
-105.005
-104.454
-103.784
-103.002
-102.114
-101.127
-100.047
-98.881
-97.634
-96.315
-94.928
-93.481
-91.981
-90.434
-88.849
-87.23
-85.587
-83.926
-82.254
-80.579
-78.907
-77.246
-75.602
-73.982
-72.393
-70.841
-69.331
-67.87
-66.463
-65.115
-63.829
-62.609
-61.46
-60.383
-59.382
-58.457
-57.61
-56.842
-56.154
-55.544
-55.013
-54.559
-54.182
-53.879
-53.647
-53.484
-53.386
-53.35
-53.371
-53.447
-53.571
-53.739
-53.947
-54.188
-54.46
-54.755
-55.07
-55.4
-55.74
-56.086
-56.433
-56.779
-57.119
-57.451
-57.773
-58.083
-58.38
-58.661
-58.927
-59.176
-59.409
-59.627
-59.828
-60.015
-60.188
-60.348
-60.497
-60.636
-60.767
-60.892
-61.012
-61.129
-61.245
-61.362
-61.48
-61.602
-61.728
-61.86
-61.997
-62.142
-62.294
-62.452
-62.617
-62.786
-62.958
-63.131
-63.301
-63.464
-63.617
-63.755
-63.873
-63.965
-64.028
-64.053
-64.037
-63.972
-63.852
-63.672
-63.425
-63.104
-62.703
-62.218
-61.643
-60.975
-60.209
-59.342
-58.372
-57.296
-56.112
-54.819
-53.418
-51.909
-50.292
-48.571
-46.748
-44.829
-42.82
-40.732
-38.574
-36.359
-34.099
-31.807
-29.502
-27.203
-24.927
-22.692
-20.512
-18.404
-16.385
-14.473
-12.687
-11.04
-9.543
-8.21
-7.055
-6.094
-5.342
-4.808
-4.486
-4.374
-4.471
-4.788
-5.342
-6.149
-7.212
-8.532
-10.112
-11.959
-14.075
-16.441
-19.014
-21.734
-24.536
-27.377
-30.236
-33.101
-35.953
-38.728
-41.331
-43.663
-45.659
-47.29
-48.543
-49.378
-49.712
-49.561
-49.117
-48.726
-48.756
-49.396
-50.598
-52.254
-54.46
-57.362
-60.867
-64.53
-67.648
-69.686
-70.695
-71.059
-70.84
-69.879
-68.179
-66.1
-64.628
-64.976
-67.63
-72.582
-79.976
-89.728
-101.79
-115.999
-130.855
-143.988
-152.443
-152.158
-140.529
-116.515
-80.125
-33.601
23.493
93.413
178.146
280.949
400.399
531.03
665.761
793.419
900.984
976.453
1010.125
996.465
938.616
843.742
718.102
572.089
415.601
261.044
128.465
32.15
-22.681
-40.335
-37.809
-31.61
-29.619
-33.631
-39.103
-41.159
-40.444
-39.444
-40.671
-46.15
-55.2
-65.841
-76.458
-85.334
-91.079
-93.33
-92.226
-88.238
-82.25
-75.139
-67.651
-60.575
-54.634
-50.192
-47.365
-46.106
-46.201
-47.458
-49.714
-52.756
-56.353
-60.312
-64.472
-68.677
-72.784
-76.625
-80.013
-82.819
-84.964
-86.41
-87.152
-87.205
-86.596
-85.376
-83.617
-81.391
-78.767
-75.816
-72.596
-69.184
-65.658
-62.097
-58.582
-55.167
-51.884
-48.754
-45.781
-42.961
-40.284
-37.728
-35.264
-32.867
-30.518
-28.198
-25.89
-23.577
-21.233
-18.836
-16.364
-13.797
-11.117
-8.309
-5.36
-2.257
1.007
4.44
8.045
11.827
15.792
19.943
24.285
28.818
33.541
38.453
43.548
48.818
54.255
59.843
65.568
71.413
77.357
83.381
89.461
95.574
101.693
107.792
113.844
119.821
125.692
131.43
137.004
142.384
147.542
152.45
157.078
161.402
165.393
169.03
172.288
175.147
177.588
179.594
181.149
182.241
182.86
182.999
182.653
181.818
180.497
178.693
176.411
173.662
170.456
166.809
162.735
158.253
153.385
148.152
142.579
136.691
130.516
124.081
117.415
110.549
103.513
96.337
89.052
81.688
74.277
66.846
59.427
52.046
44.731
37.509
30.405
23.442
16.642
10.026
3.612
-2.581
-8.541
-14.253
-19.706
-24.891
-29.801
-34.43
-38.775
-42.834
-46.608
-50.098
-53.308
-56.243
-58.91
-61.315
-63.469
-65.38
-67.06
-68.519
-69.77
-70.826
-71.699
-72.403
-72.95
-73.355
-73.63
-73.788
-73.844
-73.809
-73.696
-73.516
-73.281
-73.001
-72.687
-72.348
-71.991
-71.626
-71.259
-70.897
-70.544
-70.206
-69.886
-69.587
-69.312
-69.063
-68.84
-68.643
-68.474
-68.331
-68.213
-68.12
-68.049
-68
-67.969
-67.955
-67.956
-67.969
-67.991
-68.02
-68.053
-68.087
-68.121
-68.15
-68.173
-68.187
-68.191
-68.181
-68.155
-68.113
-68.052
-67.971
-67.869
-67.745
-67.598
-67.429
-67.237
-67.022
-66.784
-66.525
-66.245
-65.945
-65.626
-65.29
-64.936
-64.568
-64.186
-63.793
-63.391
-62.981
-62.568
-62.152
-61.737
-61.327
-60.924
-60.532
-60.154
-59.794
-59.456
-59.143
-58.859
-58.608
-58.394
-58.219
-58.089
-58.006
-57.973
-57.993
-58.068
-58.202
-58.396
-58.652
-58.972
-59.357
-59.808
-60.325
-60.91
-61.562
-62.28
-63.062
-63.907
-64.812
-65.773
-66.787
-67.849
-68.954
-70.096
-71.269
-72.466
-73.681
-74.904
-76.129
-77.347
-78.549
-79.725
-80.867
-81.965
-83.009
-83.99
-84.899
-85.727
-86.465
-87.105
-87.637
-88.055
-88.35
-88.516
-88.544
-88.429
-88.166
-87.749
-87.177
-86.445
-85.553
-84.501
-83.291
-81.925
-80.407
-78.741
-76.934
-74.992
-72.922
-70.735
-68.44
-66.048
-63.573
-61.03
-58.435
-55.81
-53.171
-50.539
-47.933
-45.372
-42.879
-40.473
-38.173
-35.995
-33.957
-32.076
-30.372
-28.865
-27.572
-26.505
-25.675
-25.092
-24.764
-24.699
-24.895
-25.351
-26.066
-27.038
-28.279
-29.799
-31.602
-33.687
-36.048
-38.669
-41.536
-44.623
-47.885
-51.28
-54.756
-58.266
-61.77
-65.217
-68.561
-71.752
-74.731
-77.447
-79.843
-81.843
-83.405
-84.515
-85.188
-85.503
-85.512
-85.21
-84.739
-84.342
-84.256
-84.775
-85.983
-87.755
-90.224
-93.656
-97.939
-102.672
-107.189
-110.528
-112.331
-112.773
-111.517
-108.125
-102.795
-96.223
-89.798
-85.676
-85.09
-88.194
-95.904
-108.14
-122.731
-137.437
-148.87
-154.297
-155.169
-152.009
-141.591
-118.231
-72.192
4.197
110.518
242.377
391.272
545.356
694.982
826.723
925.008
979.779
982.669
935.092
846.78
725.398
583.081
431.102
279.553
145.719
42.448
-24.955
-56.108
-63.225
-59.856
-52.271
-46.84
-43.021
-38.58
-37.349
-38.701
-42.511
-49.466
-56.222
-63.132
-70.851
-78.261
-85.347
-90.387
-91.985
-90.473
-86.339
-80.546
-74.109
-67.606
-61.624
-56.763
-53.323
-51.364
-50.79
-51.395
-52.997
-55.442
-58.563
-62.153
-66.036
-70.076
-74.125
-78.049
-81.699
-84.91
-87.57
-89.616
-91.011
-91.752
-91.858
-91.356
-90.295
-88.743
-86.759
-84.405
-81.743
-78.828
-75.728
-72.512
-69.249
-66.005
-62.825
-59.737
-56.754
-53.879
-51.104
-48.417
-45.798
-43.219
-40.659
-38.1
-35.524
-32.917
-30.261
-27.536
-24.725
-21.808
-18.77
-15.597
-12.279
-8.805
-5.168
-1.362
2.617
6.769
11.098
15.605
20.294
25.166
30.219
35.451
40.859
46.435
52.171
58.055
64.076
70.215
76.457
82.782
89.169
95.596
102.041
108.478
114.882
121.227
127.487
133.633
139.64
145.48
151.125
156.551
161.73
166.638
171.252
175.547
179.503
183.098
186.315
189.135
191.544
193.528
195.076
196.178
196.829
197.024
196.761
196.042
194.87
193.251
191.193
188.707
185.805
182.502
178.815
174.763
170.364
165.642
160.618
155.315
149.76
143.976
137.989
131.825
125.511
119.072
112.535
105.925
99.268
92.589
85.913
79.262
72.66
66.128
59.685
53.351
47.143
41.076
35.166
29.425
23.864
18.494
13.321
8.353
3.594
-0.951
-5.28
-9.393
-13.29
-16.971
-20.439
-23.698
-26.751
-29.602
-32.256
-34.72
-36.998
-39.099
-41.028
-42.792
-44.399
-45.856
-47.17
-48.348
-49.397
-50.324
-51.134
-51.834
-52.43
-52.926
-53.327
-53.638
-53.862
-54.003
-54.063
-54.047
-53.955
-53.79
-53.554
-53.248
-52.875
-52.436
-51.932
-51.367
-50.741
-50.056
-49.315
-48.521
-47.675
-46.78
-45.839
-44.855
-43.83
-42.77
-41.677
-40.555
-39.408
-38.242
-37.061
-35.869
-34.673
-33.477
-32.287
-31.109
-29.949
-28.812
-27.706
-26.636
-25.607
-24.627
-23.698
-22.828
-22.02
-21.279
-20.607
-20.008
-19.485
-19.04
-18.673
-18.387
-18.182
-18.058
-18.015
-18.05
-18.164
-18.354
-18.617
-18.951
-19.352
-19.816
-20.341
-20.92
-21.55
-22.225
-22.94
-23.689
-24.467
-25.266
-26.081
-26.906
-27.734
-28.561
-29.38
-30.186
-30.974
-31.74
-32.48
-33.189
-33.865
-34.504
-35.104
-35.662
-36.176
-36.645
-37.067
-37.441
-37.767
-38.044
-38.271
-38.449
-38.577
-38.656
-38.686
-38.668
-38.602
-38.491
-38.335
-38.136
-37.895
-37.614
-37.294
-36.935
-36.539
-36.105
-35.634
-35.127
-34.582
-34
-33.378
-32.717
-32.014
-31.269
-30.48
-29.645
-28.761
-27.828
-26.844
-25.807
-24.718
-23.574
-22.375
-21.122
-19.816
-18.458
-17.048
-15.588
-14.08
-12.526
-10.928
-9.291
-7.618
-5.914
-4.19
-2.453
-0.714
1.016
2.724
4.398
6.024
7.592
9.09
10.509
11.839
13.069
14.184
15.172
16.022
16.722
17.264
17.639
17.837
17.852
17.69
17.351
16.835
16.134
15.229
14.103
12.748
11.159
9.335
7.284
5.011
2.54
-0.085
-2.816
-5.603
-8.403
-11.19
-13.928
-16.567
-19.039
-21.263
-23.163
-24.691
-25.813
-26.501
-26.747
-26.575
-26.038
-25.227
-24.256
-23.25
-22.327
-21.606
-21.202
-21.21
-21.802
-23.241
-25.69
-29.156
-33.488
-38.316
-43.276
-48.112
-52.364
-55.326
-56.52
-55.84
-53.676
-51.015
-48.933
-48.227
-49.777
-54.796
-63.044
-72.482
-80.827
-84.816
-84.103
-82.235
-79.093
-71.274
-50.179
-2.198
78.045
187.377
316.854
452.163
584.383
709.203
819.201
905.604
957.15
961.553
916.638
828.403
705.526
562.416
411.665
263.993
134.456
34.533
-29.818
-56.748
-54.279
-35.589
-11.709
5.91
10.763
3.979
-11.555
-29.012
-41.848
-49.101
-52.217
-54.716
-59.423
-65.827
-71.79
-75.099
-74.846
-71.483
-66.026
-59.547
-52.746
-46.202
-40.574
-36.233
-33.301
-31.772
-31.476
-32.277
-34.075
-36.69
-39.912
-43.554
-47.469
-51.529
-55.594
-59.489
-63.023
-66.06
-68.52
-70.366
-71.584
-72.168
-72.137
-71.533
-70.422
-68.871
-66.938
-64.681
-62.153
-59.421
-56.56
-53.647
-50.755
-47.934
-45.217
-42.62
-40.149
-37.801
-35.564
-33.416
-31.327
-29.273
-27.234
-25.191
-23.13
-21.028
-18.864
-16.616
-14.263
-11.785
-9.167
-6.394
-3.453
-0.336
2.966
6.457
10.141
14.02
18.098
22.379
26.864
31.554
36.446
41.537
46.822
52.291
57.934
63.737
69.682
75.754
81.93
88.191
94.511
100.868
107.235
113.585
119.891
126.123
132.254
138.254
144.094
149.745
155.178
160.365
165.278
169.891
174.179
178.119
181.687
184.863
187.627
189.962
191.853
193.285
194.249
194.735
194.737
194.252
193.28
191.821
189.883
187.471
184.596
181.27
177.508
173.327
168.745
163.784
158.464
152.811
146.849
140.605
134.105
127.378
120.453
113.357
106.121
98.772
91.341
83.856
76.345
68.836
61.356
53.932
46.59
39.354
32.247
25.292
18.509
11.916
5.532
-0.63
-6.555
-12.231
-17.649
-22.8
-27.679
-32.28
-36.601
-40.641
-44.4
-47.88
-51.084
-54.017
-56.686
-59.096
-61.256
-63.176
-64.864
-66.33
-67.587
-68.645
-69.516
-70.213
-70.749
-71.137
-71.391
-71.522
-71.546
-71.474
-71.319
-71.093
-70.808
-70.476
-70.106
-69.709
-69.294
-68.869
-68.441
-68.019
-67.607
-67.212
-66.838
-66.489
-66.168
-65.878
-65.62
-65.395
-65.204
-65.048
-64.925
-64.836
-64.778
-64.75
-64.75
-64.774
-64.821
-64.887
-64.967
-65.06
-65.16
-65.264
-65.368
-65.47
-65.564
-65.649
-65.721
-65.778
-65.818
-65.838
-65.838
-65.817
-65.774
-65.709
-65.622
-65.515
-65.388
-65.243
-65.083
-64.91
-64.726
-64.536
-64.342
-64.148
-63.96
-63.78
-63.614
-63.467
-63.344
-63.25
-63.19
-63.171
-63.197
-63.274
-63.407
-63.601
-63.861
-64.191
-64.594
-65.074
-65.633
-66.274
-66.997
-67.803
-68.693
-69.666
-70.721
-71.855
-73.067
-74.353
-75.709
-77.13
-78.612
-80.148
-81.732
-83.357
-85.016
-86.7
-88.401
-90.112
-91.821
-93.521
-95.201
-96.852
-98.463
-100.023
-101.524
-102.954
-104.304
-105.564
-106.725
-107.779
-108.717
-109.533
-110.218
-110.768
-111.174
-111.434
-111.541
-111.493
-111.286
-110.918
-110.387
-109.693
-108.834
-107.813
-106.63
-105.286
-103.784
-102.127
-100.318
-98.36
-96.259
-94.017
-91.642
-89.138
-86.511
-83.767
-80.914
-77.957
-74.904
-71.761
