Name
Date of Birth,"Mar 27, 1959"
Recorded Date,2022-08-04 11:00:58 -0500
Classification,Sinus Rhythm
Symptoms,
Software Version,1.90
Device,"Watch4,2"
Sample Rate,510.227 hertz


Lead,Lead I
Unit,µV

-56.252
-59.4
-62.284
-64.883
-67.18
-69.16
-70.807
-72.109
-73.057
-73.639
-73.85
-73.684
-73.138
-72.209
-70.9
-69.214
-67.154
-64.728
-61.944
-58.813
-55.346
-51.556
-47.459
-43.069
-38.404
-33.482
-28.322
-22.944
-17.369
-11.619
-5.714
0.324
6.473
12.713
19.021
25.379
31.764
38.158
44.54
50.89
57.188
63.416
69.553
75.582
81.484
87.242
92.838
98.257
103.483
108.501
113.298
117.86
122.175
126.23
130.014
133.517
136.73
139.644
142.251
144.543
146.515
148.161
149.475
150.452
151.089
151.38
151.324
150.916
150.156
149.042
147.573
145.751
143.579
141.058
138.195
134.995
131.464
127.611
123.446
118.979
114.22
109.185
103.885
98.336
92.554
86.556
80.36
73.984
67.447
60.77
53.972
47.076
40.102
33.073
26.012
18.943
11.89
4.876
-2.072
-8.931
-15.676
-22.283
-28.728
-34.988
-41.04
-46.864
-52.44
-57.749
-62.773
-67.498
-71.908
-75.992
-79.737
-83.136
-86.181
-88.866
-91.187
-93.143
-94.731
-95.955
-96.816
-97.318
-97.467
-97.271
-96.739
-95.881
-94.71
-93.238
-91.481
-89.456
-87.18
-84.673
-81.954
-79.044
-75.965
-72.739
-69.388
-65.934
-62.4
-58.808
-55.181
-51.538
-47.903
-44.294
-40.731
-37.233
-33.817
-30.501
-27.3
-24.23
-21.305
-18.538
-15.941
-13.525
-11.303
-9.282
-7.472
-5.881
-4.516
-3.381
-2.482
-1.823
-1.404
-1.229
-1.298
-1.609
-2.163
-2.955
-3.985
-5.247
-6.739
-8.455
-10.39
-12.538
-14.894
-17.451
-20.202
-23.141
-26.26
-29.551
-33.006
-36.618
-40.377
-44.274
-48.298
-52.439
-56.685
-61.024
-65.441
-69.923
-74.454
-79.016
-83.595
-88.171
-92.728
-97.247
-101.707
-106.09
-110.374
-114.539
-118.564
-122.428
-126.107
-129.582
-132.829
-135.827
-138.556
-140.995
-143.121
-144.915
-146.357
-147.429
-148.113
-148.391
-148.247
-147.667
-146.64
-145.154
-143.203
-140.783
-137.891
-134.533
-130.714
-126.443
-121.734
-116.601
-111.06
-105.133
-98.839
-92.198
-85.234
-77.973
-70.441
-62.675
-54.709
-46.577
-38.316
-29.962
-21.553
-13.131
-4.732
3.616
11.878
20.017
27.985
35.721
43.168
50.287
57.04
63.397
69.338
74.844
79.919
84.596
88.909
92.891
96.568
99.939
103.02
105.848
108.484
111.004
113.471
115.906
118.321
120.727
123.114
125.439
127.607
129.464
130.843
131.61
131.644
130.83
129.059
126.225
122.182
116.761
109.883
101.597
92.13
81.887
71.289
60.704
50.632
41.745
34.605
29.473
26.045
23.397
20.634
17.249
12.743
6.476
-2.088
-13.246
-24.985
-32.888
-33
-21.785
-0.21
26.452
56.464
89.785
132.703
198.687
294.737
422.79
576.167
735.638
881.697
996.519
1064.686
1077.964
1034.186
934.018
786.198
609.616
425.842
262.33
142.18
70.928
43.614
41.884
42.625
36.097
21.113
3.664
-6.263
-7.48
-4.277
-1.09
-2.605
-9.771
-20.688
-33.795
-47.654
-60.638
-71.399
-79.254
-83.991
-85.986
-86.12
-85.128
-83.569
-82.171
-81.639
-82.35
-84.499
-88.043
-92.718
-98.321
-104.673
-111.55
-118.738
-126.04
-133.268
-140.258
-146.836
-152.832
-158.114
-162.59
-166.207
-168.941
-170.775
-171.711
-171.793
-171.078
-169.631
-167.513
-164.773
-161.474
-157.696
-153.535
-149.097
-144.468
-139.708
-134.867
-129.982
-125.082
-120.192
-115.321
-110.461
-105.611
-100.774
-95.959
-91.18
-86.446
-81.761
-77.123
-72.536
-68.002
-63.533
-59.135
-54.817
-50.589
-46.464
-42.456
-38.586
-34.867
-31.309
-27.924
-24.719
-21.702
-18.883
-16.269
-13.865
-11.677
-9.713
-7.982
-6.491
-5.248
-4.26
-3.533
-3.072
-2.884
-2.973
-3.343
-3.996
-4.934
-6.16
-7.673
-9.475
-11.562
-13.932
-16.581
-19.504
-22.694
-26.144
-29.845
-33.788
-37.96
-42.351
-46.948
-51.739
-56.708
-61.841
-67.124
-72.54
-78.073
-83.707
-89.424
-95.205
-101.034
-106.892
-112.762
-118.626
-124.466
-130.266
-136.011
-141.684
-147.271
-152.76
-158.137
-163.391
-168.512
-173.492
-178.323
-182.999
-187.517
-191.873
-196.067
-200.099
-203.971
-207.685
-211.247
-214.66
-217.933
-221.071
-224.084
-226.98
-229.769
-232.461
-235.066
-237.595
-240.058
-242.466
-244.83
-247.159
-249.464
-251.753
-254.035
-256.318
-258.608
-260.911
-263.232
-265.575
-267.941
-270.332
-272.746
-275.182
-277.635
-280.101
-282.572
-285.04
-287.494
-289.923
-292.315
-294.655
-296.93
-299.122
-301.216
-303.195
-305.042
-306.739
-308.269
-309.615
-310.761
-311.689
-312.386
-312.837
-313.029
-312.951
-312.59
-311.939
-310.99
-309.737
-308.175
-306.304
-304.122
-301.632
-298.839
-295.749
-292.371
-288.718
-284.802
-280.639
-276.249
-271.65
-266.865
-261.918
-256.834
-251.64
-246.365
-241.036
-235.685
-230.34
-225.031
-219.79
-214.643
-209.622
-204.752
-200.06
-195.573
-191.313
-187.302
-183.563
-180.113
-176.97
-174.146
-171.655
-169.506
-167.705
-166.255
-165.157
-164.408
-164.001
-163.929
-164.179
-164.739
-165.59
-166.713
-168.086
-169.685
-171.483
-173.452
-175.56
-177.777
-180.069
-182.405
-184.751
-187.074
-189.34
-191.519
-193.579
-195.49
-197.223
-198.749
-200.042
-201.074
-201.824
-202.269
-202.391
-202.172
-201.601
-200.67
-199.377
-197.721
-195.704
-193.332
-190.613
-187.558
-184.179
-180.488
-176.496
-172.219
-167.676
-162.891
-157.889
-152.694
-147.331
-141.826
-136.206
-130.497
-124.725
-118.91
-113.068
-107.224
-101.409
-95.663
-90.035
-84.566
-79.283
-74.213
-69.383
-64.808
-60.499
-56.44
-52.593
-48.921
-45.397
-41.998
-38.705
-35.478
-32.262
-28.994
-25.6
-22.037
-18.284
-14.319
-10.133
-5.737
-1.141
3.57
8.238
12.71
16.808
20.371
23.293
25.378
26.356
26.069
24.476
21.76
18.393
14.801
11.289
8.293
6.319
5.677
6.44
8.004
9.05
8.32
4.854
-2.14
-13.245
-28.569
-47.536
-68.199
-87.194
-100.898
-105.93
-99.008
-77.052
-37.514
21.555
98.717
188.696
286.237
385.484
483.677
583.98
685.274
781.592
862.827
908.068
899.809
832.381
705.599
533.335
339.118
142.925
-31.565
-162.049
-240.709
-267.52
-253.366
-221.981
-191.136
-170.575
-164.669
-165.576
-164.485
-158.324
-144.191
-125.909
-111.161
-102.924
-103.52
-112.412
-125.344
-140.375
-156.771
-173.351
-189.571
-204.63
-217.13
-226.624
-233.5
-238.011
-240.529
-241.705
-242.277
-242.931
-244.301
-246.639
-249.763
-253.459
-257.505
-261.576
-265.274
-268.312
-270.488
-271.722
-272.11
-271.74
-270.668
-268.985
-266.792
-264.153
-261.138
-257.799
-254.166
-250.303
-246.278
-242.139
-237.946
-233.736
-229.53
-225.348
-221.202
-217.086
-213.005
-208.964
-204.965
-201.018
-197.129
-193.298
-189.522
-185.794
-182.103
-178.441
-174.8
-171.171
-167.552
-163.938
-160.331
-156.733
-153.144
-149.56
-145.979
-142.393
-138.798
-135.19
-131.563
-127.914
-124.238
-120.536
-116.808
-113.054
-109.278
-105.48
-101.662
-97.83
-93.986
-90.139
-86.293
-82.458
-78.643
-74.858
-71.115
-67.424
-63.799
-60.249
-56.786
-53.421
-50.166
-47.034
-44.037
-41.184
-38.49
-35.967
-33.628
-31.486
-29.554
-27.841
-26.359
-25.119
-24.133
-23.413
-22.97
-22.812
-22.946
-23.377
-24.111
-25.153
-26.502
-28.157
-30.112
-32.362
-34.902
-37.731
-40.843
-44.233
-47.889
-51.795
-55.938
-60.312
-64.913
-69.741
-74.785
-80.029
-85.456
-91.052
-96.803
-102.688
-108.666
-114.68
-120.678
-126.604
-132.423
-138.122
-143.659
-148.983
-154.025
-158.663
-162.814
-166.449
-169.545
-172.115
-174.165
-175.627
-176.522
-177.066
-177.449
-177.773
-177.891
-177.322
-175.768
-173.338
-170.32
-166.801
-162.576
-157.726
-153.096
-150.06
-149.943
-152.174
-154.011
-154.925
-155.823
-158.677
-168.141
-181.423
-190.946
-191.745
-175.097
-140.021
-93.602
-38.267
16.329
59.975
89.896
99.223
89.961
72.498
52.543
38.14
32.148
29.634
28.956
28.789
28.39
29.979
33.834
38.553
43.44
47.628
50.426
51.953
52.36
51.754
50.654
49.732
49.311
49.519
50.425
51.897
53.865
56.304
59.027
61.85
64.691
67.508
70.327
73.197
76.105
79.004
81.879
84.706
87.479
90.202
92.868
95.484
98.083
100.715
103.446
106.318
109.353
112.555
115.921
119.447
123.132
126.967
130.935
135.023
139.224
143.528
147.931
152.419
156.973
161.568
166.179
170.784
175.365
179.906
184.393
188.812
193.154
197.412
201.581
205.655
209.624
213.475
217.194
220.768
224.184
227.427
230.483
233.339
235.983
238.402
240.592
242.544
244.25
245.703
246.892
247.805
248.436
248.776
248.819
248.559
247.989
247.109
245.927
244.45
242.681
240.619
238.252
235.569
232.574
229.271
225.667
221.78
217.629
213.246
208.691
204.015
199.266
194.485
189.692
184.914
180.197
175.596
171.179
167.012
163.123
159.547
156.324
153.451
150.899
148.601
146.429
144.289
142.115
139.825
137.334
134.548
131.359
127.691
123.43
118.394
112.482
105.712
98.298
90.681
83.333
76.715
71.421
68.15
67.464
69.553
73.854
79.313
84.951
89.624
92.111
91.369
86.256
77.421
68.382
61.521
58.445
59.905
63.821
74.346
101.247
152.246
233.82
342.446
464.224
588.524
709.099
825.554
942.805
1057.127
1152.877
1206.854
1192.842
1096.057
921.362
692.725
448.873
229.062
61.209
-45.102
-98.224
-114.871
-112.484
-101.02
-84.494
-66.105
-47.094
-31.799
-22.504
-15.657
-9.118
0.713
14.921
28.74
39.57
45.62
46.392
45.068
43.675
42.958
43.271
43.859
44.277
44.892
46.08
47.774
49.548
50.639
50.546
49.267
46.903
43.507
39.014
33.456
27.183
20.81
14.832
9.486
4.856
0.903
-2.338
-4.794
-6.495
-7.555
-8.097
-8.223
-7.973
-7.344
-6.368
-5.115
-3.677
-2.159
-0.627
0.89
2.373
3.815
5.218
6.587
7.943
9.326
10.761
12.268
13.86
15.54
17.317
19.207
21.226
23.393
25.72
28.211
30.867
33.687
36.662
39.783
43.036
46.401
49.86
53.398
56.998
60.645
64.321
68.006
71.681
75.326
78.918
82.435
85.852
89.145
92.291
95.266
98.047
100.612
102.939
105.008
106.798
108.293
109.473
110.325
110.833
110.986
110.773
110.186
109.219
107.869
106.135
104.017
101.521
98.651
95.418
91.83
87.902
83.648
79.085
74.23
69.104
63.726
58.12
52.308
46.316
40.166
33.886
27.499
21.032
14.509
7.955
1.395
-5.148
-11.65
-18.09
-24.444
-30.694
-36.819
-42.801
-48.624
-54.273
-59.735
-64.996
-70.049
-74.884
-79.495
-83.877
-88.026
-91.942
-95.624
-99.073
-102.292
-105.283
-108.053
-110.606
-112.948
-115.087
-117.03
-118.784
-120.357
-121.757
-122.992
-124.069
-124.997
-125.783
-126.436
-126.962
-127.37
-127.666
-127.859
-127.954
-127.959
-127.879
-127.721
-127.49
-127.19
-126.827
-126.404
-125.926
-125.396
-124.817
-124.193
-123.525
-122.816
-122.068
-121.283
-120.463
-119.611
-118.729
-117.818
-116.882
-115.924
-114.947
-113.956
-112.953
-111.945
-110.934
-109.927
-108.928
-107.942
-106.975
-106.032
-105.119
-104.241
-103.403
-102.611
-101.871
-101.186
-100.562
-100.004
-99.514
-99.098
-98.758
-98.497
-98.317
-98.222
-98.211
-98.285
-98.445
-98.689
-99.017
-99.425
-99.91
-100.468
-101.095
-101.785
-102.532
-103.328
-104.166
-105.037
-105.932
-106.842
-107.757
-108.664
-109.553
-110.413
-111.23
-111.995
-112.695
-113.319
-113.854
-114.291
-114.619
-114.828
-114.908
-114.851
-114.648
-114.291
-113.777
-113.099
-112.253
-111.238
-110.053
-108.698
-107.176
-105.491
-103.646
-101.647
-99.502
-97.219
-94.808
-92.28
-89.647
-86.924
-84.129
-81.282
-78.405
-75.52
-72.648
-69.814
-67.042
-64.356
-61.775
-59.317
-56.999
-54.84
-52.862
-51.086
-49.528
-48.204
-47.126
-46.308
-45.763
-45.497
-45.511
-45.799
-46.357
-47.189
-48.309
-49.738
-51.488
-53.562
-55.955
-58.662
-61.673
-64.967
-68.507
-72.23
-76.077
-79.993
-83.939
-87.878
-91.76
-95.522
-99.083
-102.355
-105.269
-107.772
-109.833
-111.441
-112.603
-113.343
-113.714
-113.825
-113.812
-113.835
-114.039
-114.543
-115.442
-116.885
-119.138
-122.38
-126.614
-131.605
-136.855
-141.903
-146.425
-149.997
-152.001
-151.999
-149.937
-146.511
-143.158
-141.072
-141.302
-145.006
-152.922
-165.496
-181.541
-196.938
-208.243
-213.382
-211.38
-204.109
-188.178
-154.74
-97.137
-9.994
102.359
225.16
347.57
463.564
572.206
678.048
777.149
852.68
883.29
847.682
734.583
553.588
331.496
103.762
-91.77
-230.018
-308.445
-338.368
-340.622
-334.203
-322.46
-303.442
-275.772
-241.908
-213.468
-199.814
-201.443
-211.797
-220.936
-222.946
-218.4
-211.943
-207.044
-203.796
-200.605
-195.331
-187.437
-177.991
-168.07
-158.568
-150.134
-143.203
-138.034
-134.694
-132.994
-132.561
-133.109
-134.457
-136.408
-138.744
-141.245
-143.651
-145.746
-147.418
-148.576
-149.151
-149.118
-148.436
-147.095
-145.141
-142.635
-139.641
-136.227
-132.438
-128.318
-123.931
-119.353
-114.667
-109.966
-105.305
-100.72
-96.234
-91.857
-87.595
-83.444
-79.382
-75.372
-71.388
-67.409
-63.423
-59.422
-55.39
-51.308
-47.158
-42.926
-38.603
-34.184
-29.666
-25.045
-20.325
-15.515
-10.625
-5.673
-0.671
4.368
9.43
14.5
19.564
24.604
29.604
34.546
39.411
44.179
48.828
53.334
57.676
61.832
65.778
69.494
72.958
76.15
79.05
81.64
83.904
85.826
87.391
88.589
89.408
89.84
89.881
89.525
88.773
87.625
86.087
84.164
81.865
79.202
76.189
72.84
69.173
65.206
60.961
56.459
51.722
46.777
41.647
36.361
30.945
25.427
19.835
14.196
8.538
2.887
-2.729
-8.285
-13.757
-19.122
-24.356
-29.439
-34.352
-39.076
-43.595
-47.895
-51.964
-55.791
-59.367
-62.687
-65.746
-68.539
-71.067
-73.328
-75.325
-77.06
-78.536
-79.758
-80.732
-81.463
-81.958
-82.225
-82.271
-82.104
-81.732
-81.164
-80.406
-79.466
-78.353
-77.073
-75.633
-74.04
-72.3
-70.419
-68.402
-66.255
-63.982
-61.587
-59.074
-56.445
-53.704
-50.853
-47.894
-44.829
-41.661
-38.391
-35.021
-31.555
-27.995
-24.344
-20.606
-16.787
-12.891
-8.925
-4.895
-0.81
3.322
7.49
11.684
15.892
20.102
24.3
28.473
32.606
36.684
40.69
44.61
48.427
52.125
55.686
59.094
62.334
65.389
68.244
70.885
73.297
75.468
77.385
79.037
80.416
81.513
82.32
82.834
83.051
82.971
82.595
81.925
80.968
79.731
78.225
76.461
74.454
72.218
69.772
67.134
64.327
61.373
58.297
55.123
51.88
48.595
45.297
42.015
38.78
35.62
32.564
29.641
26.881
24.312
21.96
19.85
18.008
16.457
15.217
14.308
13.744
13.54
13.706
14.249
15.174
16.48
18.164
20.219
22.638
25.406
28.512
31.936
35.662
39.668
43.933
48.433
53.139
58.022
63.048
68.184
73.393
78.642
83.895
89.119
94.279
99.349
104.303
109.114
113.748
118.164
122.325
126.201
129.77
133.014
135.922
138.494
140.742
142.699
144.397
145.865
147.123
148.179
149.046
149.747
150.324
150.833
151.325
151.833
152.383
153
153.694
154.444
155.18
155.774
156.115
156.133
155.774
154.996
153.713
151.804
149.151
145.692
141.35
135.996
129.586
122.157
113.974
105.623
97.733
90.821
85.411
82.09
81.244
82.994
86.823
91.419
95.522
98.351
99.162
97.044
91.318
81.824
71.076
64.126
65.085
76.349
96.168
120.639
150.774
191.537
251.421
339.092
454.01
588.833
732.336
870.984
994.963
1094.649
1159.602
1179.201
1143.143
1048.882
899.075
704.371
486.289
267.231
74.829
-66.402
-150.783
-181.712
-175.401
-154.724
-127.707
-99.922
-74.761
-49.783
-32.492
-26.789
-28.165
-34.928
-40.879
-42.098
-42.108
-41.784
-41.238
-40.59
-37.515
-31.331
-23.124
-13.815
-4.54
3.702
10.336
15.061
17.757
18.576
17.93
16.16
13.498
10.227
6.628
2.958
-0.485
-3.456
-5.844
-7.553
-8.507
-8.68
-8.043
-6.601
-4.42
-1.588
1.815
5.705
10.011
14.668
19.586
24.663
29.793
34.865
39.805
44.564
49.104
53.404
57.452
61.249
64.816
68.19
71.398
74.458
77.386
80.195
82.902
85.533
88.109
90.653
93.182
95.711
98.253
100.821
103.423
106.064
108.745
111.463
114.219
117.015
119.851
122.728
125.645
128.599
131.585
134.6
137.636
140.681
143.722
146.746
149.736
152.676
155.546
158.328
161.001
163.545
165.938
168.159
170.186
171.997
173.57
174.884
175.917
176.65
177.062
177.136
176.853
176.198
175.157
173.717
171.868
169.6
166.906
163.782
160.225
156.234
151.81
146.958
141.682
135.993
129.901
123.419
116.564
109.353
101.805
93.942
85.788
77.366
68.702
59.824
50.76
41.538
32.188
22.741
13.226
3.676
-5.88
-15.41
-24.884
-34.273
-43.547
-52.678
-61.638
-70.401
-78.942
-87.236
-95.261
-102.994
-110.417
-117.511
-124.259
-130.647
-136.661
-142.29
-147.525
-152.36
-156.787
-160.804
-164.41
-167.603
-170.387
-172.764
-174.741
-176.324
-177.523
-178.347
-178.81
-178.923
-178.702
-178.161
-177.319
-176.191
-174.797
-173.156
-171.287
-169.211
-166.949
-164.522
-161.95
-159.256
-156.461
-153.586
-150.651
-147.678
-144.685
-141.692
-138.719
-135.782
-132.899
-130.086
-127.359
-124.732
-122.218
-119.828
-117.575
-115.466
-113.51
-111.713
-110.082
-108.621
-107.332
-106.216
-105.275
-104.508
-103.913
-103.485
-103.222
-103.116
-103.162
-103.352
-103.678
-104.13
-104.699
-105.374
-106.145
-107.002
-107.932
-108.925
-109.968
-111.051
-112.162
-113.288
-114.419
-115.541
-116.644
-117.716
-118.749
-119.731
-120.653
-121.507
-122.285
-122.981
-123.587
-124.099
-124.512
-124.822
-125.026
-125.123
-125.113
-124.996
-124.773
-124.447
-124.022
-123.502
-122.894
-122.203
-121.436
-120.599
-119.701
-118.751
-117.758
-116.731
-115.68
-114.616
-113.553
-112.508
-111.496
-110.532
-109.632
-108.811
-108.086
-107.473
-106.982
-106.621
-106.397
-106.318
-106.394
-106.635
-107.048
-107.639
-108.411
-109.371
-110.521
-111.862
-113.388
-115.085
-116.943
-118.956
-121.125
-123.463
-125.975
-128.657
-131.501
-134.496
-137.622
-140.85
-144.136
-147.411
-150.617
-153.701
-156.615
-159.327
-161.789
-163.945
-165.748
-167.136
-168.056
-168.464
-168.334
-167.677
-166.538
-164.996
-163.138
-161.07
-158.905
-156.777
-154.83
-153.177
-151.934
-151.153
-150.908
-151.407
-152.742
-154.862
-157.573
-160.385
-162.767
-164.394
-164.825
-163.341
-159.628
-153.766
-146.107
-137.82
-130.204
-124.095
-120.609
-121.261
-125.544
-130.725
-134.228
-132.245
-123.667
-113.196
-102.47
-89.5
-69.419
-28.856
43.426
149.912
288.751
448.03
609
753.299
861.252
915.57
906.066
831.666
699.77
525.904
331.438
136.735
-38.667
-177.04
-268.01
-307.841
-300.085
-259.03
-202.821
-149.135
-114.754
-104.835
-115.649
-138.892
-160.072
-172.018
-174.784
-170.832
-167.451
-167.538
-169.208
-170.814
-169.63
-164.776
-157.672
-149.395
-140.849
-132.872
-125.896
-120.163
-115.857
-112.912
-111.071
-110.156
-110.022
-110.483
-111.369
-112.515
-113.748
-114.905
-115.813
-116.315
-116.3
-115.692
-114.461
-112.59
-110.069
-106.918
-103.195
-98.961
-94.28
-89.208
-83.78
-78.059
-72.118
-66.045
-59.939
-53.872
-47.887
-42.019
-36.289
-30.709
-25.288
-20.012
-14.852
-9.788
-4.807
0.102
4.94
9.717
14.451
19.157
23.847
28.531
33.213
37.897
42.586
47.28
51.97
56.647
61.298
65.911
70.477
74.985
79.424
83.782
88.046
92.203
96.24
100.142
103.89
107.466
110.852
114.028
116.976
119.675
122.107
124.253
126.093
127.613
128.794
129.621
130.08
130.158
129.843
129.127
128.002
126.464
124.509
122.136
119.349
116.15
112.548
108.552
104.172
99.422
94.319
88.88
83.125
77.075
70.753
64.184
57.394
50.411
43.264
35.981
28.593
21.13
13.623
6.103
-1.398
-8.852
-16.229
-23.499
-30.635
-37.609
-44.397
-50.974
-57.318
-63.409
-69.228
-74.758
-79.985
-84.897
-89.483
-93.737
-97.652
-101.226
-104.456
-107.344
-109.892
-112.104
-113.988
-115.549
-116.799
-117.746
-118.403
-118.783
-118.899
-118.766
-118.4
-117.817
-117.034
-116.067
-114.934
-113.654
-112.243
-110.719
-109.1
-107.403
-105.644
-103.839
-102.005
-100.156
-98.305
-96.467
-94.653
-92.874
-91.141
-89.462
-87.846
-86.299
-84.828
-83.437
-82.131
-80.915
-79.791
-78.761
-77.828
-76.994
-76.259
-75.624
-75.089
-74.652
-74.314
-74.073
-73.927
-73.873
-73.91
-74.035
-74.245
-74.537
-74.908
-75.354
-75.871
-76.456
-77.105
-77.815
-78.581
-79.4
-80.269
-81.184
-82.142
-83.142
-84.179
-85.25
-86.352
-87.482
-88.636
-89.808
-90.995
-92.189
-93.386
-94.58
-95.765
-96.934
-98.082
-99.2
-100.283
-101.324
-102.316
-103.252
-104.124
-104.925
-105.649
-106.289
-106.839
-107.294
-107.646
-107.891
-108.025
-108.044
-107.945
-107.722
-107.372
-106.892
-106.281
-105.538
-104.662
-103.653
-102.514
-101.25
-99.869
-98.381
-96.796
-95.124
-93.377
-91.569
-89.714
-87.824
-85.906
-83.97
-82.026
-80.087
-78.169
-76.285
-74.447
-72.664
-70.949
-69.314
-67.771
-66.322
-64.962
-63.692
-62.515
-61.447
-60.511
-59.723
-59.093
-58.627
-58.325
-58.184
-58.191
-58.317
-58.505
-58.707
-58.876
-58.979
-58.993
-58.878
-58.577
-58.032
-57.174
-55.954
-54.337
-52.282
-49.77
-46.826
-43.503
-39.893
-36.107
-32.243
-28.411
-24.748
-21.393
-18.496
-16.171
-14.532
-13.788
-14.039
-15.248
-17.235
-19.484
-21.409
-22.621
-22.654
-20.834
-16.847
-10.775
-3.132
4.548
10.747
14.757
15.685
12.421
4.673
-7.011
-19.887
-28.28
-27.091
-13.628
11.157
44.486
85.222
134.753
200.594
289.73
404.608
544.554
697.599
846.342
972.53
1056.348
1084.232
1049.529
953.202
802.286
611.243
402.751
199.788
28.183
-91.746
-156.995
-171.529
-147.967
-106.381
-57.552
-12.427
16.246
26.91
18.325
-5.075
-28.392
-44.675
-51.485
-49.539
-47.019
-47.421
-49.623
-52.524
-53.259
-50.923
-46.953
-42.389
-38.12
-34.842
-32.852
-32.32
-33.325
-35.739
-39.273
-43.706
-48.911
-54.732
-60.964
-67.419
-73.882
-80.145
-86.087
-91.595
-96.554
-100.895
-104.563
-107.521
-109.763
-111.304
-112.168
-112.396
-112.051
-111.21
-109.951
-108.35
-106.473
-104.375
-102.112
-99.743
-97.322
-94.899
-92.517
-90.201
-87.992
-85.954
-84.1
-82.409
-80.804
-79.14
-77.314
-75.259
-72.925
-70.294
-67.33
-63.96
-60.135
-55.816
-50.95
-45.499
-39.374
-32.435
-24.624
-15.954
-6.509
3.529
14.027
24.904
36.073
47.468
59.009
70.592
82.144
93.624
104.957
116.062
126.808
137.01
146.554
155.39
163.517
171.004
177.891
184.173
189.866
194.984
199.538
203.542
206.981
209.808
212.009
213.587
214.575
215.04
215.017
214.514
213.527
212.029
210.009
207.473
204.423
200.856
196.781
192.221
187.214
181.822
176.097
170.077
163.801
157.3
150.611
143.779
136.849
129.867
122.878
115.926
109.056
102.316
95.747
89.386
83.262
77.398
71.817
66.54
61.587
56.974
52.715
48.82
45.3
42.162
39.412
37.051
35.075
33.481
32.259
31.401
30.895
30.727
30.881
31.34
32.086
33.1
34.361
35.848
37.54
39.413
41.445
43.614
45.897
48.271
50.715
53.206
55.726
58.254
60.773
63.264
65.712
68.101
70.419
72.652
74.788
76.817
78.729
80.517
82.172
83.689
85.062
86.287
87.36
88.278
89.04
89.643
90.088
90.373
90.498
90.465
90.273
89.925
89.423
88.767
87.96
87.004
85.901
84.655
83.267
81.74
80.078
78.284
76.361
74.312
72.141
69.851
67.444
64.926
62.3
59.572
56.746
53.829
50.826
47.748
44.602
41.398
38.146
34.856
31.54
28.209
24.877
21.555
18.258
14.998
11.791
8.652
5.596
2.637
-0.21
-2.931
-5.512
-7.938
-10.198
-12.279
-14.17
-15.861
-17.34
-18.6
-19.63
-20.427
-20.983
-21.296
-21.364
-21.187
-20.77
-20.122
-19.254
-18.177
-16.904
-15.453
-13.841
-12.088
-10.211
-8.225
-6.148
-3.998
-1.8
0.421
2.641
4.838
6.988
9.068
11.054
12.926
14.669
16.275
17.734
19.03
20.139
21.021
21.648
22.001
22.064
21.83
21.297
20.471
19.376
18.064
16.581
14.967
13.253
11.453
9.602
7.748
5.956
4.302
2.846
1.64
0.723
0.105
-0.233
-0.343
-0.311
-0.235
-0.214
-0.372
-0.819
-1.648
-2.962
-4.814
-7.313
-10.713
-15.137
-20.519
-26.647
-33.003
-39.027
-44.387
-48.593
-50.821
-50.65
-48.219
-44.081
-39.624
-36.419
-35.44
-37.744
-45.008
-56.959
-70.526
-82.529
-88.77
-87.786
-84.429
-80.974
-73.828
-55.228
-10.921
70.619
187.859
333.042
494.273
655.31
805.8
934.01
1021.235
1051.375
1009.501
889.997
705.856
480.342
244.137
28.064
-148.581
-274.982
-349.355
-377.464
-364.06
-318.92
-255.251
-187.089
-133.126
-102.736
-95.606
-105.283
-116.889
-122.753
-123.193
-121.405
-125.069
-136.814
-153.581
-171.689
-186.641
-195.961
-199.763
-198.617
-193.456
-185.458
-175.895
-166.136
-157.183
-149.691
-143.949
-139.909
-137.473
-136.375
-136.097
-136.064
-135.828
-135.053
-133.59
-131.441
-128.579
-125.008
-120.78
-115.947
-110.569
-104.712
-98.407
-91.671
-84.542
-77.065
-69.312
-61.381
-53.368
-45.375
-37.482
-29.743
-22.206
-14.907
-7.869
-1.114
5.357
11.557
17.495
23.176
28.607
33.792
38.747
43.496
48.061
52.464
56.722
60.848
64.856
68.762
72.576
76.306
79.957
83.53
87.029
90.461
93.829
97.137
100.388
103.58
106.715
109.792
112.808
115.759
118.638
121.436
124.142
126.748
129.24
131.605
133.83
135.899
137.797
139.51
141.023
142.319
143.384
144.203
144.764
145.054
145.061
144.776
144.19
143.295
142.087
140.563
138.72
136.559
134.082
131.291
128.193
124.794
121.101
117.125
112.877
108.37
103.617
98.635
93.441
88.051
82.485
76.761
70.901
64.922
58.846
52.692
46.479
40.227
33.954
27.677
21.414
15.179
8.989
2.857
-3.206
-9.189
-15.08
-20.873
-26.56
-32.135
-37.592
-42.927
-48.138
-53.221
-58.175
-62.998
-67.689
-72.249
-76.675
-80.971
-85.134
-89.168
-93.071
-96.846
-100.492
-104.011
-107.403
-110.668
-113.806
-116.816
-119.698
-122.45
-125.07
-127.557
-129.908
-132.119
-134.187
-136.109
-137.881
-139.499
-140.959
-142.257
-143.39
-144.354
-145.148
-145.768
-146.215
-146.487
-146.586
-146.514
-146.272
-145.865
-145.298
-144.575
-143.705
-142.693
-141.55
-140.283
-138.903
-137.421
-135.847
-134.194
-132.473
-130.697
-128.878
-127.03
-125.165
-123.296
-121.435
-119.596
-117.789
-116.026
-114.319
-112.677
-111.11
-109.626
-108.233
-106.935
-105.738
-104.644
-103.655
-102.768
-101.982
-101.292
-100.694
-100.179
-99.74
-99.366
-99.048
-98.773
-98.531
-98.308
-98.09
-97.864
-97.617
-97.334
-97.004
-96.611
-96.144
-95.592
-94.944
-94.192
-93.327
-92.343
-91.232
-89.989
-88.611
-87.096
-85.443
-83.65
-81.722
-79.663
-77.483
-75.196
-72.816
-70.36
-67.846
-65.296
-62.73
-60.171
-57.636
-55.14
-52.7
-50.336
-48.068
-45.919
-43.908
-42.051
-40.365
-38.87
-37.58
-36.504
-35.646
-35.003
-34.578
-34.378
-34.421
-34.733
-35.334
-36.234
-37.439
-38.952
-40.764
-42.861
-45.207
-47.742
-50.411
-53.165
-55.952
-58.732
-61.447
-64.033
-66.417
-68.517
-70.25
-71.556
-72.412
-72.809
-72.779
-72.355
-71.566
-70.513
-69.332
-68.169
-67.188
-66.527
-66.268
-66.57
-67.737
-69.925
-73.125
-77.15
-81.431
-85.398
-88.71
-90.832
-90.999
-88.907
-84.752
-79.156
-73.721
-70.161
-69.557
-73.301
-83.092
-98.06
-115.044
-131.082
-141.277
-144.52
-145.01
-141.015
-128.494
-99.515
-39.183
57.19
187.059
343.777
510.678
674.351
819.642
927.6
986.005
983.193
918.508
802.382
644.581
461.833
269.373
81.437
-79.979
-199.459
-269.147
-289.034
-273.538
-237.568
-192.679
-149.662
-112.05
-82.774
-63.391
-49.88
-39.801
-30.609
-22.49
-20.101
-25.039
-37.093
-53.834
-70.235
-83.97
-94.347
-100.563
-102.968
-102.042
-98.173
-92.793
-87.54
-83.15
-80.039
-78.545
-78.653
-80.325
-83.438
-87.419
-91.55
-95.385
-98.661
-101.249
-103.169
-104.401
-104.901
-104.713
-103.919
-102.59
-100.781
-98.51
-95.765
-92.557
-88.933
-84.956
-80.71
-76.28
-71.723
-67.075
-62.364
-57.609
-52.825
-48.029
-43.222
-38.392
-33.531
-28.64
-23.723
-18.785
-13.826
-8.833
-3.791
1.312
6.479
11.711
17.005
22.358
27.766
33.221
38.71
44.217
49.728
55.232
60.717
66.171
71.58
76.929
82.199
87.378
92.447
97.389
102.185
106.816
111.263
115.507
119.532
123.319
126.852
130.114
133.09
135.765
138.128
140.166
141.866
143.22
144.219
144.856
145.127
145.029
144.559
143.72
142.514
140.948
139.028
136.763
134.165
131.247
128.023
124.511
120.729
116.695
112.432
107.961
103.306
98.492
93.545
88.489
83.351
78.157
72.932
67.702
62.492
57.325
52.226
47.216
42.318
37.553
32.94
28.498
24.243
20.191
16.355
12.748
9.38
6.258
3.388
0.776
-1.576
-3.667
-5.498
-7.071
-8.391
-9.463
-10.294
-10.893
-11.271
-11.437
-11.403
-11.182
-10.788
-10.232
-9.529
-8.693
-7.737
-6.676
-5.523
-4.293
-2.999
-1.656
-0.275
1.128
2.543
3.957
5.359
6.739
8.087
9.394
10.653
11.857
13
14.078
15.085
16.02
16.881
17.666
18.376
19.012
19.575
20.067
20.491
20.849
21.145
21.382
21.563
21.692
21.772
21.806
21.799
21.755
21.676
21.566
21.429
21.27
21.091
20.896
20.689
20.471
20.245
20.015
19.781
19.545
19.308
19.069
18.829
18.586
18.338
18.084
17.821
17.546
17.256
16.95
16.624
16.276
15.903
15.501
15.07
14.606
14.11
13.578
13.01
12.405
11.762
11.082
10.363
9.607
8.813
7.98
7.11
6.203
5.26
4.282
3.269
2.222
1.147
0.044
-1.084
-2.235
-3.404
-4.589
-5.786
-6.993
-8.21
-9.44
-10.681
-11.935
-13.203
-14.487
-15.79
-17.113
-18.454
-19.812
-21.184
-22.573
-23.982
-25.415
-26.875
-28.364
-29.885
-31.444
-33.047
-34.692
-36.373
-38.085
-39.825
-41.602
-43.437
-45.344
-47.329
-49.398
-51.55
-53.779
-56.075
-58.404
-60.709
-62.937
-65.036
-66.972
-68.731
-70.28
-71.578
-72.579
-73.219
-73.462
-73.298
-72.698
-71.652
-70.205
-68.428
-66.46
-64.496
-62.67
-61.116
-59.989
-59.4
-59.475
-60.341
-62.045
-64.67
-68.406
-73.306
-79.297
-86.217
-93.595
-100.898
-107.723
-113.44
-117.161
-118.349
-116.919
-113.061
-107.598
-101.631
-95.918
-91.483
-90.17
-91.856
-93.621
-93.006
-86.987
-75.603
-65.247
-58.547
-51.205
-34.345
7.313
85.543
198.699
338.924
496.067
655.537
806.19
936.417
1023.657
1047.627
996.514
864.959
670.485
446.27
223.477
36.656
-93.676
-170.747
-202.768
-207.776
-204.397
-193.501
-175.519
-151.431
-119.388
-89.181
-67.73
-52.44
-42.872
-34.158
-23.639
-16.864
-16.419
-22.717
-34.817
-48.457
-60.709
-71.019
-79.095
-84.655
-87.648
-88.265
-87.086
-85.205
-83.799
-83.321
-83.927
-85.966
-89.483
-94.363
-100.452
-107.205
-113.939
-120.307
-126.113
-131.211
-135.629
-139.357
-142.33
-144.612
-146.304
-147.469
-148.165
-148.406
-148.164
-147.457
-146.339
-144.872
-143.146
-141.218
-139.11
-136.839
-134.412
-131.831
-129.101
-126.211
-123.137
-119.857
-116.358
-112.634
-108.689
-104.514
-100.094
-95.411
-90.445
-85.186
-79.631
-73.778
-67.629
-61.189
-54.464
-47.471
-40.227
-32.751
-25.06
-17.17
-9.1
-0.871
7.492
15.962
24.514
33.118
41.742
50.353
58.915
67.392
75.751
83.954
91.967
99.753
107.277
114.505
121.402
127.935
134.073
139.783
145.037
149.808
154.07
157.801
160.981
163.593
165.622
167.059
167.895
168.126
167.751
166.772
165.194
163.026
160.28
156.971
153.117
148.738
143.859
138.507
132.71
126.501
119.91
112.973
105.724
98.199
90.437
82.472
74.344
66.09
57.748
49.354
40.945
32.557
24.224
15.979
7.853
-0.125
-7.928
-15.531
-22.911
-30.048
-36.922
-43.519
-49.825
-55.829
-61.521
-66.896
-71.95
-76.681
-81.089
-85.176
-88.945
-92.402
-95.554
-98.407
-100.97
-103.253
-105.266
-107.021
-108.529
-109.802
-110.853
-111.695
-112.341
-112.804
-113.097
-113.231
-113.219
-113.072
-112.8
-112.414
-111.923
-111.336
-110.661
-109.905
-109.076
-108.178
-107.219
-106.201
-105.129
-104.008
-102.84
-101.63
-100.381
-99.097
-97.782
-96.44
-95.075
-93.691
-92.294
-90.888
-89.479
-88.07
-86.668
-85.279
-83.908
-82.561
-81.244
-79.964
-78.726
-77.537
-76.403
-75.33
-74.324
-73.392
-72.537
-71.768
-71.088
-70.502
-70.016
-69.632
-69.353
-69.183
-69.121
-69.167
-69.318
-69.572
-69.924
-70.37
-70.901
-71.51
-72.188
-72.924
-73.706
-74.523
-75.362
-76.208
-77.046
-77.861
-78.639
-79.364
-80.022
-80.597
-81.074
-81.44
-81.681
-81.786
-81.742
-81.537
-81.161
-80.605
-79.861
-78.923
-77.786
-76.449
-74.91
-73.177
-71.255
-69.152
-66.88
-64.451
-61.878
-59.18
-56.371
-53.467
-50.484
-47.438
-44.353
-41.252
-38.16
-35.097
-32.087
-29.149
-26.305
-23.577
-20.98
-18.521
-16.212
-14.065
-12.105
-10.367
-8.876
-7.649
-6.7
-6.032
-5.647
-5.545
-5.704
-6.084
-6.646
-7.353
-8.18
-9.121
-10.142
-11.199
-12.23
-13.15
-13.902
-14.45
-14.753
-14.79
-14.565
-14.099
-13.462
-12.753
-12.056
-11.461
-11.06
-10.94
-11.234
-12.047
-13.519
-15.863
-19.164
-23.38
-28.32
-33.525
-38.463
-42.721
-45.81
-47.145
-46.435
-43.701
-39.553
-35.306
-32.373
-31.814
-34.288
-40.421
-50.666
-64.742
-81.065
-95.788
-103.457
-99.493
-81.477
-50.661
-10.157
38.337
95.314
166.736
258.635
372.952
508.06
652.742
791.778
909.404
988.79
1016.652
983.545
887.141
731.695
532.087
314.098
103.462
-72.461
-194.512
-262.198
-280.52
-261.564
-223.141
-173.613
-123.504
-86.572
-66.168
-64.707
-77.941
-91.294
-98.593
-99.375
-95.928
-96.357
-103.278
-113.734
-125.038
-133.772
-138.194
-138.626
-135.542
-129.592
-121.926
-114.075
-107.025
-101.215
-96.933
-94.26
-93.238
-93.933
-96.038
-98.88
-101.987
-105.069
-107.886
-110.33
-112.269
-113.539
-114.09
-113.97
-113.201
-111.796
-109.77
-107.111
-103.837
-99.996
-95.628
-90.784
-85.525
-79.919
-74.043
-67.983
-61.8
-55.536
-49.225
-42.883
-36.524
-30.152
-23.757
-17.32
-10.832
-4.283
2.333
9.02
15.788
22.648
29.605
36.665
43.83
51.096
58.46
65.916
73.452
81.052
88.698
96.37
104.048
111.711
119.34
126.915
134.412
141.81
149.087
156.22
163.185
169.955
176.506
182.81
188.841
194.573
199.981
205.039
209.724
214.011
217.881
221.312
224.286
226.785
228.795
230.303
231.297
231.771
231.717
231.134
230.021
228.381
226.218
223.542
220.362
216.691
212.546
207.943
202.902
197.445
191.598
185.384
178.832
171.971
164.832
157.446
149.848
142.069
134.144
126.106
117.99
109.83
101.658
93.506
85.407
77.391
69.487
61.723
54.125
46.717
39.521
32.558
25.845
19.397
13.229
7.351
1.773
-3.499
-8.459
-13.106
-17.437
-21.455
-25.164
-28.567
-31.671
-34.487
-37.022
-39.288
-41.298
-43.065
-44.602
-45.925
-47.05
-47.992
-48.768
-49.396
-49.891
-50.272
-50.556
-50.759
-50.897
-50.987
-51.044
-51.081
-51.114
-51.155
-51.215
-51.308
-51.444
-51.632
-51.883
-52.204
-52.602
-53.085
-53.658
-54.326
-55.092
-55.961
-56.935
-58.016
-59.207
-60.508
-61.92
-63.442
-65.074
-66.815
-68.661
-70.609
-72.656
-74.797
-77.027
-79.341
-81.731
-84.192
-86.715
-89.293
-91.916
-94.577
-97.263
-99.966
-102.672
-105.372
-108.052
-110.701
-113.306
-115.853
-118.331
-120.724
-123.02
-125.204
-127.261
-129.176
-130.932
-132.513
-133.906
-135.094
-136.063
-136.799
-137.289
-137.52
-137.483
-137.166
-136.561
-135.66
-134.456
-132.945
-131.124
-128.993
-126.551
-123.803
-120.755
-117.414
-113.79
-109.896
-105.743
-101.347
-96.722
-91.888
-86.865
-81.674
-76.338
-70.884
-65.342
-59.748
-54.135
-48.54
-42.998
-37.546
-32.222
-27.06
-22.092
-17.346
-12.852
-8.64
-4.741
-1.182
2.01
4.816
7.212
9.181
10.707
11.781
12.399
12.563
12.268
11.505
10.261
8.515
6.258
3.494
0.226
-3.538
-7.778
-12.465
-17.543
-22.936
-28.573
-34.389
-40.316
-46.288
-52.218
-58.009
-63.575
-68.823
-73.679
-78.098
-82.032
-85.459
-88.385
-90.821
-92.832
-94.56
-96.145
-97.758
-99.578
-101.746
-104.476
-108.061
-112.641
-118.199
-124.519
-131.12
-137.551
-143.525
-148.623
-152.256
-154.123
-154.352
-153.661
-153.475
-155.102
-159.178
-166.187
-176.775
-191.029
-208.066
-225.794
-240.493
-248.257
-246.414
-232.4
-203.249
-156.732
-91.33
-8.313
86.603
187.303
288.572
387.146
484.228
579.204
666.167
735.852
773.028
762.663
699.651
585.481
429.118
249.181
63.77
-109.29
-250.033
-346.542
-395.676
-398.43
-364.061
-308.064
-243.314
-186.115
-153.744
-150.366
-173.582
-212.339
-247.048
-268.399
-275.167
-271.263
-266.294
-264.111
-263.706
-263.453
-260.676
-255.065
-248.18
-241.087
-234.632
-229.274
-224.962
-221.661
-219.307
-217.656
-216.499
-215.692
-215.126
-214.721
-214.383
-213.995
-213.411
-212.456
-211
-208.955
-206.256
-202.884
-198.832
-194.092
-188.699
-182.723
-176.228
-169.279
-161.928
-154.205
-146.164
-137.874
-129.417
-120.889
-112.36
-103.873
-95.465
-87.161
-78.976
-70.92
-62.984
-55.141
-47.371
-39.662
-32.005
-24.399
-16.834
-9.294
-1.764
5.769
13.315
20.881
28.472
36.095
43.751
51.438
59.148
66.872
74.602
82.33
90.049
97.749
105.422
113.056
120.639
128.16
135.605
142.958
150.201
157.315
164.28
171.078
177.688
184.087
190.255
196.169
201.809
207.152
212.179
216.867
221.197
225.151
228.712
231.863
234.591
236.882
238.725
240.113
241.038
241.497
241.486
241.004
240.055
238.641
236.77
234.449
231.689
228.502
224.903
220.909
216.537
211.809
206.746
201.371
195.709
189.786
183.628
177.263
170.719
164.024
157.206
150.295
143.319
136.305
129.282
122.276
115.314
108.419
101.617
94.93
88.379
81.985
75.767
69.743
63.928
58.336
52.981
47.874
43.022
38.435
34.118
30.076
26.311
22.824
19.615
16.683
14.025
11.636
9.511
7.644
6.027
4.653
3.511
2.593
1.888
1.387
1.079
0.953
0.999
1.207
1.565
2.062
2.688
3.432
4.283
5.231
6.266
7.377
8.554
9.79
11.074
12.4
13.758
15.142
16.545
17.96
19.38
20.801
22.216
23.62
25.008
26.376
27.721
29.037
30.322
31.57
32.779
33.943
35.059
36.121
37.126
38.068
38.942
39.744
40.471
41.117
41.679
42.152
42.535
42.822
43.013
43.103
43.089
42.971
42.745
42.411
41.968
41.416
40.755
39.987
39.113
38.137
37.062
35.891
34.63
33.282
31.855
30.355
28.792
27.174
25.511
23.815
22.098
20.372
18.653
16.953
15.286
13.665
12.106
10.623
9.23
7.941
6.769
5.727
4.83
4.088
3.513
3.116
2.905
2.885
3.063
3.441
4.017
4.792
5.761
6.919
8.259
9.768
11.436
13.249
15.201
17.278
19.466
21.749
24.106
26.522
28.985
31.478
33.982
36.473
38.924
41.318
43.654
45.929
48.131
50.233
52.196
53.99
55.603
57.02
58.223
59.188
59.892
60.339
60.566
60.623
60.56
60.397
60.117
59.706
59.175
58.575
58.005
57.548
57.237
57.081
57.083
57.267
57.717
58.399
59.061
59.305
58.727
57.125
54.639
51.475
47.528
42.667
37.044
31.271
26.396
23.209
21.64
21.152
21.645
23.32
26.246
29.816
32.251
31.549
26.812
18.217
5.699
-11.172
-32.556
-58.022
-84.127
-104.97
-117.223
-119.168
-110.582
-93.978
-65.305
-17.109
53.951
152.07
272.491
403.84
540.802
676.373
804.657
920.104
1009.166
1055.989
1047.475
978.47
852.382
682.169
489.892
296.93
127.117
1.776
-72.308
-95.243
-78.434
-43.194
-5.004
21.961
29.896
22.388
4.35
-15.154
-27.78
-32.959
-32.999
-32.868
-36.612
-43.512
-50.741
-55.247
-55.513
-51.947
-45.68
-37.948
-29.573
-21.239
-13.759
-7.608
-2.97
0.13
1.857
2.338
1.663
0.014
-2.375
-5.318
-8.69
-12.386
-16.291
-20.204
-23.875
-27.13
-29.859
-32.004
-33.534
-34.414
-34.624
-34.191
-33.18
-31.648
-29.649
-27.221
-24.394
-21.221
-17.773
-14.128
-10.373
-6.563
-2.735
1.087
4.89
8.666
12.417
16.16
19.924
23.725
27.574
31.476
35.43
39.442
43.52
47.669
51.892
56.188
60.553
64.981
69.465
73.992
78.546
83.11
87.663
92.185
96.661
101.071
105.4
109.63
113.743
117.723
121.553
125.216
128.692
131.965
135.017
137.829
140.387
142.675
144.677
146.38
147.773
148.845
149.585
149.986
150.041
149.744
149.094
148.088
146.726
145.009
142.942
140.529
137.776
134.693
131.287
127.57
123.554
119.251
114.677
109.846
104.774
99.477
93.973
88.277
82.409
76.386
70.226
63.949
57.571
51.112
44.587
38.016
31.414
24.798
18.182
11.581
5.01
-1.518
-7.991
-14.397
-20.725
-26.965
-33.108
-39.144
-45.066
-50.867
-56.54
-62.08
-67.483
-72.743
-77.857
-82.821
-87.634
-92.292
-96.793
-101.135
-105.317
-109.338
-113.197
-116.892
-120.424
-123.793
-126.997
-130.037
-132.912
-135.623
-138.171
-140.555
-142.777
-144.837
-146.737
-148.479
-150.064
-151.496
-152.777
-153.909
-154.898
-155.747
-156.46
-157.042
-157.498
-157.833
-158.055
-158.169
-158.181
-158.1
-157.933
-157.686
-157.368
-156.986
-156.55
-156.067
-155.545
-154.993
-154.419
-153.832
-153.242
-152.655
-152.081
-151.527
-151.002
-150.512
-150.066
-149.668
-149.326
-149.043
-148.826
-148.678
-148.603
-148.602
-148.676
-148.828
-149.055
-149.358
-149.733
-150.177
-150.687
-151.257
-151.882
-152.558
-153.276
-154.03
-154.813
-155.615
-156.428
-157.242
-158.048
-158.835
-159.591
-160.305
-160.967
-161.566
-162.089
-162.524
-162.861
-163.087
-163.192
-163.165
-162.994
-162.67
-162.181
-161.521
-160.682
-159.658
-158.442
-157.029
-155.418
-153.607
-151.596
-149.386
-146.979
-144.377
-141.586
-138.613
-135.465
-132.151
-128.682
-125.071
-121.334
-117.489
-113.555
-109.552
-105.501
-101.422
-97.34
-93.277
-89.253
-85.288
-81.401
-77.615
-73.957
-70.451
-67.121
-63.99
-61.077
-58.405
-55.995
-53.863
-52.011
-50.444
-49.17
-48.202
-47.568
-47.286
-47.363
-47.804
-48.61
-49.771
-51.275
-53.089
-55.156
-57.422
-59.838
-62.369
-64.997
-67.692
-70.405
-73.071
-75.618
-77.985
-80.141
-82.043
-83.646
-84.955
-86.004
-86.879
-87.709
-88.573
-89.533
-90.662
-92.017
-93.678
-95.754
-98.33
-101.545
-105.608
-110.571
-116.371
-122.855
-129.543
-135.846
-141.221
-144.909
-146.091
-144.486
-140.179
-133.54
-125.928
-119.014
-114.123
-112.91
-115.796
-121.037
-126.992
-132.573
-138.858
-148.428
-159.769
-165.379
-150.809
-102.164
-16.259
99.838
229.327
356.664
477.554
593.476
707.186
813.916
897.85
939.126
922.122
843.528
711.132
541.282
354.538
169.946
5.926
-123.459
-211.689
-259.978
-276.297
-268.587
-242.589
-201.985
-151.461
-102.037
-65.403
-48.534
-50.619
-61.503
-71.35
-75.925
-76.127
-77.316
-82.496
-90.855
-100.375
-108.214
-112.877
-114.217
-112.531
-108.732
-104.037
-99.698
-96.491
-94.624
-94.152
-95.153
-97.664
-101.662
-106.779
-112.336
-117.837
-122.965
-127.553
-131.573
-134.949
-137.587
-139.48
-140.689
-141.278
-141.325
-140.859
-139.868
-138.367
-136.381
-133.961
-131.187
-128.134
-124.881
-121.484
-117.973
-114.375
-110.71
-106.988
-103.215
-99.379
-95.453
-91.423
-87.284
-83.032
-78.666
-74.178
-69.548
-64.761
-59.806
-54.68
-49.381
-43.911
-38.271
-32.466
-26.507
-20.409
-14.191
-7.868
-1.455
5.033
11.58
18.166
24.769
31.369
37.947
44.478
50.94
57.306
63.551
69.65
75.578
81.311
86.822
92.088
97.084
101.787
106.176
110.229
113.926
117.247
120.176
122.697
124.796
126.461
127.684
128.456
128.773
128.632
128.033
126.977
125.47
123.519
121.131
118.32
115.098
111.481
107.487
103.134
98.443
93.438
88.14
82.577
76.772
70.752
64.545
58.177
51.678
45.075
38.396
31.67
24.926
18.19
11.491
4.854
-1.693
-8.127
-14.423
-20.559
-26.512
-32.265
-37.797
-43.092
-48.134
-52.911
-57.409
-61.62
-65.535
-69.147
-72.452
-75.445
-78.125
-80.49
-82.542
-84.282
-85.714
-86.84
-87.668
-88.203
-88.454
-88.43
-88.14
-87.597
-86.813
-85.801
-84.575
-83.151
-81.544
-79.772
-77.851
-75.8
-73.637
-71.379
-69.048
-66.66
-64.235
-61.792
-59.348
-56.922
-54.53
-52.191
-49.919
-47.731
-45.643
-43.669
-41.823
-40.12
-38.57
-37.187
-35.98
-34.96
-34.134
-33.509
-33.093
-32.887
-32.897
-33.123
-33.567
-34.225
-35.096
-36.174
-37.455
-38.929
-40.588
-42.421
-44.417
-46.562
-48.843
-51.245
-53.752
-56.348
-59.016
-61.738
-64.495
-67.27
-70.043
-72.795
-75.505
-78.155
-80.724
-83.194
-85.546
-87.762
-89.824
-91.716
-93.422
-94.926
-96.216
-97.277
-98.097
-98.665
-98.972
-99.011
-98.775
-98.26
-97.463
-96.381
-95.016
-93.37
-91.445
-89.245
-86.777
-84.047
-81.064
-77.839
-74.383
-70.708
-66.829
-62.762
-58.525
-54.135
-49.611
-44.974
-40.242
-35.437
-30.581
-25.696
-20.804
-15.927
-11.089
-6.316
-1.636
2.923
7.338
11.581
15.627
19.451
23.029
26.343
29.377
32.117
34.544
36.644
38.4
39.8
40.837
41.501
41.784
41.683
41.196
40.331
39.102
37.517
35.579
33.287
30.634
27.618
24.249
20.542
16.51
12.175
7.565
2.726
-2.274
-7.378
-12.538
-17.706
-22.845
-27.898
-32.796
-37.472
-41.857
-45.883
-49.503
-52.692
-55.426
-57.72
-59.605
-61.117
-62.347
-63.393
-64.354
-65.356
-66.511
-67.921
-69.728
-72.106
-75.15
-78.843
-82.988
-87.17
-90.938
-93.863
-95.508
-95.399
-93.181
-88.881
-83.111
-76.976
-71.79
-68.743
-68.628
-72.071
-79.658
-91.199
-104.932
-118.359
-127.281
-125.826
-111.088
-81.411
-36.374
18.369
79.914
150.57
231.529
330.24
453.044
592.663
736.704
865.26
949.473
969.233
915.982
788.668
604.548
392.789
180.007
-3.588
-134.658
-209.317
-231.267
-214.877
-184.968
-157.306
-139.638
-135.389
-136.166
-133.551
-126.125
-112.115
-95.071
-81.745
-73.735
-71.466
-73.697
-76.302
-76.836
-74.759
-70.07
-63.595
-56.248
-48.461
-40.683
-33.643
-28.02
-24.098
-21.908
-21.294
-21.903
-23.493
-25.879
-28.745
-31.8
-34.805
-37.489
-39.699
-41.372
-42.427
-42.827
-42.558
-41.587
-39.926
-37.633
-34.754
-31.35
-27.477
-23.17
-18.491
-13.516
-8.326
-3.018
2.343
7.723
13.093
18.439
23.757
29.04
34.3
39.57
44.869
50.215
55.617
61.077
66.603
72.21
77.911
83.715
89.63
95.655
101.787
108.025
114.36
120.783
127.277
133.822
140.4
146.995
153.592
160.174
166.722
173.219
179.644
185.98
192.204
198.295
204.229
209.98
215.525
220.841
225.902
230.687
235.172
239.336
243.158
246.62
249.703
252.391
254.667
256.519
257.935
258.904
259.419
259.473
259.063
258.187
256.845
255.041
252.779
250.066
246.909
243.319
239.307
234.886
230.072
224.88
219.328
213.437
207.225
200.717
193.935
186.903
179.644
172.185
164.55
156.765
148.854
140.843
132.757
124.619
116.454
108.286
100.136
92.028
83.981
76.016
68.151
60.404
52.793
45.332
38.037
30.922
23.999
17.282
10.782
4.509
-1.526
-7.314
-12.847
-18.118
-23.121
-27.849
-32.299
-36.465
-40.344
-43.934
-47.232
-50.238
-52.951
-55.371
-57.499
-59.337
-60.888
-62.154
-63.139
-63.848
-64.285
-64.455
-64.364
-64.02
-63.428
-62.598
-61.538
-60.259
-58.771
-57.085
-55.216
-53.176
-50.979
-48.641
-46.178
-43.605
-40.941
-38.202
-35.408
-32.575
-29.724
-26.873
-24.04
-21.245
-18.505
-15.838
-13.261
-10.791
-8.443
-6.233
-4.175
-2.282
-0.567
0.958
2.283
3.397
4.293
4.964
5.406
5.615
5.589
5.33
4.838
4.119
3.177
2.019
0.655
-0.904
-2.646
-4.557
-6.62
-8.819
-11.135
-13.548
-16.038
-18.583
-21.163
-23.756
-26.342
-28.898
-31.403
-33.836
-36.177
-38.405
-40.5
-42.442
-44.21
-45.787
-47.155
-48.298
-49.202
-49.853
-50.239
-50.35
-50.179
-49.718
-48.962
-47.909
-46.558
-44.909
-42.965
-40.734
-38.222
-35.44
-32.4
-29.116
-25.605
-21.885
-17.973
-13.89
-9.654
-5.287
-0.811
3.751
8.376
13.04
17.718
22.379
26.993
31.529
35.958
40.25
44.375
48.305
52.012
55.475
58.675
61.594
64.211
66.507
68.465
70.072
71.319
72.196
72.694
72.811
72.548
71.911
70.913
69.56
67.851
65.784
63.345
60.529
57.344
53.796
49.891
45.648
41.092
36.269
31.249
26.094
20.859
15.605
10.382
5.263
0.329
-4.348
-8.683
-12.607
-16.082
-19.066
-21.537
-23.499
-24.956
-25.957
-26.635
-27.12
-27.577
-28.183
-29.059
-30.405
-32.496
-35.483
-39.392
-44.043
-48.984
-53.766
-58.059
-61.406
-63.252
-63.255
-61.404
-58.384
-55.529
-54.198
-55.472
-60.233
-69.361
-83.333
-101.616
-122.16
-141.606
-156.091
-161.761
-155.014
-132.027
-88.949
-24.708
57.589
153.227
256.133
363.046
477.593
600.645
727.046
845.104
930.105
957.818
916.243
803.67
636.84
443.513
248.958
76.79
-58.624
-152.435
-205.686
-224.244
-214.205
-184.814
-143.94
-101.165
-70.33
-56.85
-61.989
-80.585
-98.61
-109.033
-110.391
-104.682
-99.392
-97.575
-97.88
-98.834
-97.979
-94.601
-89.942
-84.937
-80.293
-76.609
-74.221
-73.291
-73.839
-75.7
-78.545
-82.134
-86.334
-90.93
-95.671
-100.319
-104.618
-108.399
-111.589
-114.106
-115.888
-116.899
-117.113
-116.538
-115.223
-113.219
-110.576
-107.347
-103.578
-99.325
-94.663
-89.675
-84.45
-79.058
-73.539
-67.928
-62.244
-56.502
-50.711
-44.866
-38.947
-32.94
-26.837
-20.633
-14.332
-7.932
-1.426
5.19
11.924
18.773
25.732
32.792
39.947
47.182
54.483
61.83
69.2
76.569
83.917
91.225
98.472
105.635
112.691
119.615
126.383
132.972
139.354
145.502
151.387
156.982
162.26
167.195
171.763
175.936
179.694
183.012
185.872
188.255
190.143
191.521
192.377
192.7
192.481
191.714
190.396
188.525
186.103
183.134
179.625
175.586
171.028
165.968
160.421
154.408
147.951
141.075
133.805
126.17
118.201
109.93
101.39
92.616
83.644
74.511
65.253
55.907
46.511
37.1
27.711
18.378
9.135
0.014
-8.951
-17.733
-26.301
-34.63
-42.694
-50.47
-57.937
-65.076
-71.87
-78.305
-84.368
-90.05
-95.342
-100.241
-104.741
-108.844
-112.549
-115.86
-118.782
-121.323
-123.491
-125.297
-126.754
-127.875
-128.676
-129.172
-129.381
-129.32
-129.007
-128.46
-127.697
-126.739
-125.603
-124.308
-122.873
-121.317
-119.657
-117.913
-116.101
-114.238
-112.341
-110.425
-108.506
-106.596
-104.71
-102.86
-101.057
-99.312
-97.634
-96.034
-94.517
-93.091
-91.762
-90.534
-89.412
-88.397
-87.491
-86.697
-86.015
-85.445
-84.986
-84.637
-84.398
-84.268
-84.243
-84.322
-84.503
-84.782
-85.158
-85.625
-86.182
-86.825
-87.55
-88.352
-89.229
-90.177
-91.19
-92.266
-93.399
-94.586
-95.822
-97.102
-98.424
-99.781
-101.169
-102.585
-104.024
-105.481
-106.953
-108.433
-109.918
-111.403
-112.883
-114.352
-115.806
-117.237
-118.64
-120.008
-121.335
-122.613
-123.835
-124.992
-126.077
-127.081
-127.996
-128.813
-129.525
-130.122
-130.595
-130.937
-131.14
-131.195
-131.095
-130.83
-130.396
-129.784
-128.99
-128.009
-126.835
-125.465
-123.897
-122.131
-120.165
-118.002
-115.641
-113.086
-110.341
-107.413
-104.31
-101.038
-97.61
-94.039
-90.342
-86.538
-82.645
-78.685
-74.678
-70.648
-66.618
-62.611
-58.646
-54.742
-50.92
-47.203
-43.62
-40.193
-36.945
-33.896
-31.066
-28.473
-26.139
-24.074
-22.28
-20.763
-19.53
-18.598
-18.001
-17.759
-17.879
-18.367
-19.219
-20.428
-21.986
-23.861
-25.996
-28.341
-30.846
-33.474
-36.212
-39.017
-41.832
-44.593
-47.206
-49.608
-51.758
-53.607
-55.128
-56.33
-57.237
-57.919
-58.484
-59.017
-59.619
-60.409
-61.494
-63.004
-65.023
-67.657
-71.125
-75.53
-80.845
-86.862
-93.03
-98.783
-103.779
-107.584
-109.602
-109.513
-107.226
-103.298
-99.315
-96.699
-96.235
-98.696
-104.789
-114.865
-128.886
-144.099
-154.901
-156.749
-146.873
-126.645
-100.151
-66.735
-21.874
41.774
131.62
246.359
378.429
519.703
660.062
790.261
900.806
973.302
988.198
934.285
808.227
624.717
411.449
195.523
4.281
-143.731
-241.675
-289.728
-295.62
-271.075
-229.682
-183.74
-145.253
-123.089
-117.986
-126.314
-138.682
-145.695
-144.98
-138.45
-131.632
-128.741
-129.368
-130.888
-130.158
-125.954
-119.072
-110.751
-102.161
-93.942
-86.48
-80.355
-75.918
-73.184
-71.984
-71.993
-72.943
-74.683
-77.038
-79.785
-82.712
-85.609
-88.256
-90.524
-92.315
-93.551
-94.202
-94.234
-93.623
-92.394
-90.607
-88.327
-85.615
-82.52
-79.067
-75.308
-71.309
-67.148
-62.915
-58.667
-54.435
-50.24
-46.09
-41.989
-37.935
-33.905
-29.856
-25.756
-21.581
-17.313
-12.943
-8.455
-3.824
0.967
5.935
11.091
16.439
21.981
27.721
33.652
39.767
46.048
52.477
59.035
65.704
72.466
79.3
86.184
93.094
100.006
106.895
113.734
120.492
127.14
133.644
139.973
146.095
151.978
157.589
162.896
167.869
172.478
176.694
180.49
183.841
186.72
189.108
190.986
192.338
193.149
193.41
193.114
192.258
190.84
188.864
186.337
183.267
179.666
175.549
170.935
165.844
160.3
154.327
147.954
141.21
134.129
126.743
119.088
111.199
103.113
94.867
86.501
78.051
69.555
61.051
52.575
44.164
35.854
27.676
19.663
11.846
4.25
-3.097
-10.173
-16.957
-23.433
-29.584
-35.399
-40.867
-45.981
-50.738
-55.134
-59.173
-62.855
-66.188
-69.179
-71.837
-74.174
-76.203
-77.939
-79.398
-80.596
-81.55
-82.281
-82.807
-83.149
-83.327
-83.361
-83.274
-83.085
-82.814
-82.483
-82.11
-81.713
-81.31
-80.917
-80.55
-80.222
-79.947
-79.735
-79.596
-79.539
-79.57
-79.693
-79.914
-80.232
-80.649
-81.165
-81.776
-82.481
-83.275
-84.154
-85.113
-86.145
-87.245
-88.406
-89.619
-90.878
-92.174
-93.499
-94.844
-96.201
-97.561
-98.916
-100.258
-101.578
-102.869
-104.125
-105.339
-106.505
-107.616
-108.668
-109.657
-110.58
-111.433
-112.215
-112.926
-113.565
-114.132
-114.63
-115.059
-115.422
-115.721
-115.958
-116.135
-116.254
-116.318
-116.329
-116.288
-116.198
-116.06
-115.877
-115.65
-115.381
-115.07
-114.718
-114.326
-113.894
-113.42
-112.904
-112.343
-111.736
-111.081
-110.375
-109.616
-108.8
-107.922
-106.978
-105.964
-104.874
-103.703
-102.444
-101.092
-99.641
-98.087
-96.426
-94.653
-92.766
-90.763
-88.642
-86.405
-84.051
-81.582
-78.998
-76.304
-73.504
-70.604
-67.609
-64.528
-61.371
-58.149
-54.879
-51.579
-48.264
-44.953
-41.665
-38.42
-35.238
-32.136
-29.128
-26.23
-23.458
-20.834
-18.378
-16.109
-14.041
-12.191
-10.574
-9.204
-8.094
-7.249
-6.665
-6.345
-6.295
-6.534
-7.09
-7.98
-9.211
-10.782
-12.693
-14.934
-17.49
-20.32
-23.361
-26.55
-29.832
-33.167
-36.52
-39.844
-43.073
-46.124
-48.91
-51.364
-53.439
-55.108
-56.356
-57.198
-57.668
-57.833
-57.824
-57.791
-57.871
-58.195
-58.869
-59.962
-61.624
-64.126
-67.614
-72.09
-77.392
-83.089
-88.776
-94.195
-98.871
-102.085
-103.347
-102.523
-100.004
-96.878
-94.331
-93.273
-94.733
-100.069
-109.071
-119.538
-129.059
-134.172
-134.633
-134.547
-133.822
-128.693
-109.612
-61.323
22.17
137.453
274.804
418.392
558.882
692.152
810.07
903.051
957.784
958.85
902.912
795.4
645.093
469.749
285.66
108.425
-40.514
-147.292
-206.487
-218.882
-197.768
-159.455
-116.343
-81.652
-62.406
-58.343
-67.122
-79.861
-88.191
-89.858
-85.696
-80.791
-79.114
-80.357
-82.389
-82.206
-78.527
-72.081
-64.056
-55.65
-47.564
-40.234
-34.229
-29.917
-27.366
-26.454
-26.913
-28.523
-31.143
-34.606
-38.705
-43.23
-47.992
-52.799
-57.465
-61.837
-65.793
-69.248
-72.155
-74.479
-76.199
-77.333
-77.922
-78.004
-77.615
-76.779
-75.511
-73.851
-71.85
-69.57
-67.076
-64.407
-61.581
-58.606
-55.479
-52.188
-48.715
-45.024
-41.071
-36.822
-32.252
-27.342
-22.083
-16.458
-10.449
-4.047
2.759
9.969
17.58
25.585
33.971
42.72
51.807
61.204
70.873
80.783
90.897
101.18
111.595
122.102
132.662
143.233
153.774
164.241
174.59
184.774
194.748
204.466
213.884
222.958
231.646
239.906
247.702
254.996
261.756
267.952
273.555
278.542
282.893
286.59
289.621
291.977
293.653
294.649
294.968
294.618
293.61
291.958
289.68
286.795
283.328
279.305
274.753
269.703
264.186
258.237
251.892
245.188
238.162
230.853
223.301
215.544
207.621
199.571
191.431
183.237
175.024
166.826
158.676
150.603
142.636
134.8
127.119
119.613
112.303
105.202
98.325
91.683
85.285
79.136
73.242
67.606
62.228
57.108
52.243
47.632
43.267
39.144
35.255
31.593
28.148
24.911
21.872
19.021
16.347
13.839
11.486
9.277
7.201
5.249
3.408
1.67
0.023
-1.54
-3.028
-4.449
-5.811
-7.121
-8.383
-9.605
-10.79
-11.945
-13.072
-14.177
-15.264
-16.336
-17.397
-18.451
-19.502
-20.553
-21.607
-22.668
-23.74
-24.826
-25.929
-27.054
-28.203
-29.379
-30.587
-31.828
-33.107
-34.426
-35.787
-37.194
-38.647
-40.149
-41.703
-43.308
-44.967
-46.681
-48.449
-50.273
-52.152
-54.087
-56.075
-58.116
-60.207
-62.345
-64.528
-66.751
-69.01
-71.3
-73.614
-75.948
-78.295
-80.648
-83
-85.342
-87.666
-89.965
-92.23
-94.452
-96.622
-98.732
-100.77
-102.73
-104.607
-106.392
-108.082
-109.668
-111.138
-112.488
-113.718
-114.81
-115.749
-116.528
-117.124
-117.536
-117.793
-117.881
-117.789
-117.562
-117.215
-116.751
-116.218
-115.604
-114.811
-113.842
-112.733
-111.3
-109.396
-107.191
-104.643
-101.666
-98.804
-95.211
-89.771
-83.946
-78.214
-74.839
-78.071
-85.444
-93.141
-97.237
-90.226
-73.097
-53.067
-35.022
-26.627
-29.913
-37.597
-45.353
-48.873
-45.04
-38.193
-31.117
-24.67
-20.625
-17.656
-14.579
-11.811
-9.141
-6.664
-4.69
-3.045
-1.575
-0.322
0.731
1.625
2.331
2.801
3.02
2.956
2.576
1.898
0.94
-0.295
-1.766
-3.416
-5.189
-7.032
-8.902
-10.776
-12.609
-14.338
-15.896
-17.209
-18.231
-18.931
-19.275
-19.253
-18.889
-18.238
-17.399
-16.49
-15.615
-14.894
-14.452
-14.417
-14.944
-16.149
-18.149
-21.137
-25.177
-30.194
-35.997
-42.098
-47.929
-53.107
-57.176
-59.51
-59.806
-58.09
-54.771
-51.069
-48.277
-47.012
-47.66
-50.867
-56.895
-65.036
-73.796
-79.376
-76.544
-62.838
-37.163
0.403
46.928
102.528
168.894
246.76
338.675
443.764
559.349
679.894
793.209
885.805
938.938
936.197
873.1
751.586
587.346
405.434
227.589
77.018
-30.161
-92.295
-113.958
-109.537
-96.857
-84.055
-74.415
-65.71
-52.516
-35.805
-18.827
-4.621
3.154
4.334
1.015
-5.129
-11.707
-16.453
-18.531
-17.634
-13.917
-8.23
-1.402
5.916
12.883
18.646
22.776
25.098
25.666
24.8
22.774
19.792
16.108
11.981
7.616
3.21
-1.049
-5.039
-8.654
-11.803
-14.44
-16.532
-18.056
-19.018
-19.46
-19.432
-18.993
-18.194
-17.07
-15.668
-14.048
-12.281
-10.45
-8.615
-6.809
-5.054
-3.362
-1.738
-0.18
1.33
2.827
4.345
5.909
7.54
9.251
11.06
12.991
15.069
17.316
19.748
22.375
25.207
28.253
31.516
34.998
38.691
42.584
46.669
50.936
55.376
59.979
64.729
69.611
74.608
79.701
84.869
90.087
95.33
100.567
105.77
110.907
115.948
120.861
125.611
130.167
134.495
138.563
142.341
145.797
148.901
151.624
153.941
155.827
157.259
158.218
158.686
158.647
158.092
157.011
155.398
153.251
150.57
147.359
143.625
139.377
134.628
129.394
123.694
117.549
110.984
104.028
96.71
89.061
81.117
72.913
64.486
55.874
47.116
38.249
29.315
20.351
11.395
2.487
-6.337
-15.04
-23.589
-31.949
-40.091
-47.984
-55.601
-62.919
-69.914
-76.567
-82.861
-88.78
-94.312
-99.447
-104.178
-108.501
-112.412
-115.913
-119.006
-121.698
-123.997
-125.913
-127.458
-128.648
-129.497
-130.024
-130.247
-130.185
-129.859
-129.291
-128.502
-127.514
-126.35
-125.032
-123.583
-122.025
-120.379
-118.666
-116.907
-115.121
-113.326
-111.54
-109.779
-108.059
-106.396
-104.801
-103.287
-101.865
-100.544
-99.332
-98.235
-97.257
-96.401
-95.669
-95.06
-94.573
-94.204
-93.95
-93.806
-93.766
-93.823
-93.969
-94.195
-94.493
-94.852
-95.263
-95.715
-96.197
-96.697
-97.206
-97.711
-98.202
-98.668
-99.098
-99.482
-99.81
-100.07
-100.255
-100.354
-100.36
-100.264
-100.06
-99.742
-99.306
-98.748
-98.067
-97.262
-96.332
-95.28
-94.108
-92.818
-91.415
-89.904
-88.291
-86.582
-84.786
-82.909
-80.96
-78.949
-76.883
-74.774
-72.63
-70.459
-68.273
-66.079
-63.886
-61.703
-59.538
-57.398
-55.291
-53.224
-51.204
-49.236
-47.325
-45.474
-43.686
-41.962
-40.303
-38.706
-37.17
-35.69
-34.263
-32.884
-31.546
-30.243
-28.966
-27.708
-26.46
-25.213
-23.96
-22.69
-21.394
-20.067
-18.699
-17.287
-15.824
-14.307
-12.734
-11.106
-9.425
-7.694
-5.916
-4.098
-2.243
-0.36
1.543
3.459
5.38
7.297
9.196
11.061
12.874
14.617
16.273
17.824
19.249
20.525
21.635
22.567
23.309
23.844
24.15
24.193
23.947
23.403
22.555
21.399
19.939
18.188
16.171
13.939
11.538
9.007
6.371
3.636
0.825
-2.023
-4.859
-7.612
-10.243
-12.744
-15.105
-17.302
-19.348
-21.286
-23.208
-25.272
-27.59
-30.207
-33.167
-36.494
-40.254
-44.55
-49.461
-55.014
-61.228
-68.133
-75.72
-83.898
-92.37
-100.604
-108.038
-114.217
-118.759
-121.168
-121.07
-118.458
-113.703
-107.748
-101.53
-95.279
-89.267
-84.503
-81.766
-81.053
-80.453
-75.843
-63.705
-43.171
-17.57
9.113
36.11
65.796
107.557
171.219
260.553
376.168
508.419
640.007
753.215
828.165
851.549
820.692
741.351
627.031
491.352
346.366
201.324
64.624
-50.668
-136.097
-188.348
-209.392
-212.01
-203.939
-187.167
-165.405
-136.441
-103.865
-76.614
-54.988
-40.15
-31.107
-23.223
-19.247
-20.935
-27.063
-37.281
-48.26
-57.428
-64.837
-70.119
-72.852
-73.177
-71.3
-68.073
-64.961
-62.735
-61.495
-61.295
-62.225
-64.316
-67.526
-71.492
-75.482
-79.024
-81.954
-84.203
-85.815
-86.797
-87.089
-86.714
-85.8
-84.455
-82.752
-80.73
-78.369
-75.686
-72.744
-69.613
-66.384
-63.119
-59.846
-56.583
-53.34
-50.121
-46.933
-43.768
-40.603
-37.42
-34.203
-30.942
-27.639
-24.284
-20.862
-17.351
-13.727
-9.974
-6.081
-2.039
2.159
6.517
11.038
15.72
20.555
25.539
30.666
35.932
41.331
46.857
52.496
58.237
64.067
69.97
75.926
81.916
87.918
93.908
99.864
105.762
111.576
117.281
122.851
128.261
133.484
138.495
143.269
147.78
152.003
155.915
159.494
162.719
165.57
168.03
170.082
171.715
172.916
173.678
173.993
173.858
173.271
172.234
170.75
168.825
166.468
163.69
160.503
156.923
152.969
148.659
144.014
139.056
133.81
128.3
122.552
116.592
110.447
104.147
97.718
91.19
84.592
77.952
71.3
64.662
58.067
51.542
45.112
38.802
32.636
26.634
20.819
15.208
9.82
4.67
-0.228
-4.862
-9.22
-13.295
-17.078
-20.564
-23.749
-26.631
-29.207
-31.477
-33.444
-35.109
-36.477
-37.551
-38.339
-38.847
-39.084
-39.058
-38.782
-38.266
-37.523
-36.565
-35.408
-34.065
-32.552
-30.884
-29.078
-27.151
-25.118
-22.996
-20.802
-18.552
-16.262
-13.95
-11.629
-9.316
-7.025
-4.771
-2.569
-0.432
1.627
3.595
5.46
7.209
8.833
10.32
11.662
12.849
13.874
14.729
15.41
15.911
16.229
16.36
16.305
16.061
15.63
15.013
14.214
13.236
12.084
10.763
9.28
7.642
5.856
3.931
1.875
-0.303
-2.594
-4.989
-7.476
-10.046
-12.687
-15.391
-18.146
-20.941
-23.767
-26.612
-29.467
-32.322
-35.167
-37.994
-40.794
-43.558
-46.279
-48.949
-51.563
-54.114
-56.597
-59.008
-61.343
-63.599
-65.774
-67.865
-69.871
-71.79
-73.622
-75.366
-77.02
-78.586
-80.061
-81.445
-82.74
-83.944
-85.061
-86.088
-87.027
-87.877
-88.639
-89.314
-89.901
-90.4
-90.811
-91.132
-91.366
-91.511
-91.569
-91.538
-91.419
-91.21
-90.913
-90.529
-90.058
-89.499
-88.854
-88.125
-87.315
-86.427
-85.466
-84.436
-83.344
-82.2
-81.014
-79.797
-78.56
-77.315
-76.074
-74.851
-73.658
-72.507
-71.407
-70.369
-69.407
-68.536
-67.772
-67.13
-66.627
-66.275
-66.09
-66.09
-66.285
-66.677
-67.27
-68.069
-69.089
-70.357
-71.888
-73.687
-75.758
-78.1
-80.703
-83.552
-86.607
-89.802
-93.08
-96.387
-99.688
-102.969
-106.197
-109.327
-112.298
-115.039
-117.509
-119.696
-121.575
-123.11
-124.305
-125.217
-125.968
-126.745
-127.68
-128.846
-130.303
-132.121
-134.408
-137.296
-140.917
-145.33
-150.589
-156.827
-164.051
-172.149
-180.79
-189.263
-196.782
-202.728
-206.427
-207.151
-204.761
-199.444
-191.869
-183.682
-176.236
-170.357
-167.26
-167.905
-171.946
-178.282
-184.527
-186.619
-181.402
-166.181
-137.236
-91.444
-26.88
55.441
150.213
250.923
351.503
450.69
551.458
650.595
741.414
809.574
832.005
798.661
707.935
566.799
398.492
220.477
48.285
-101.254
-221.326
-303.307
-342.691
-342.311
-306.359
-248.96
-186.833
-136.912
-113.997
-118.96
-143.678
-174.022
-196.131
-205.625
-205.107
-201.138
-198.652
-198.326
-198.556
-196.747
-192.249
-186.139
-179.574
-173.858
-169.779
-167.393
-166.732
-167.732
-170.055
-173.444
-177.704
-182.593
-187.939
-193.59
-199.363
-205.052
-210.464
-215.43
-219.824
-223.561
-226.586
-228.859
-230.357
-231.095
-231.128
-230.511
-229.297
-227.528
-225.231
-222.453
-219.26
-215.728
-211.942
-207.963
-203.823
-199.547
-195.15
-190.637
-186.007
-181.241
-176.305
-171.174
-165.833
-160.271
-154.487
-148.47
-142.207
-135.686
-128.899
-121.843
-114.519
-106.931
-99.083
-90.985
-82.653
-74.107
-65.37
-56.465
-47.41
-38.228
-28.942
-19.576
-10.155
-0.705
8.748
18.175
27.546
36.829
45.992
55.002
63.827
72.435
80.792
88.869
96.632
104.054
111.105
117.757
123.985
129.763
135.068
139.882
144.185
147.962
151.199
153.887
156.017
157.583
158.585
159.021
158.894
158.208
156.971
155.192
152.884
150.06
146.735
142.929
138.663
133.957
128.837
123.328
117.456
111.251
104.742
97.958
90.93
83.69
76.27
68.701
61.014
53.243
45.417
37.568
29.726
21.919
14.176
6.523
-1.014
-8.41
-15.641
-22.687
-29.524
-36.134
-42.498
-48.597
-54.416
-59.938
-65.151
-70.04
-74.594
-78.803
-82.658
-86.15
-89.272
-92.019
-94.387
-96.373
-97.974
-99.191
-100.024
-100.475
-100.548
-100.247
-99.577
-98.544
-97.156
-95.419
-93.344
-90.939
-88.215
-85.182
-81.854
-78.242
-74.36
-70.224
-65.848
-61.25
-56.446
-51.454
-46.292
-40.981
-35.54
-29.988
-24.348
-18.639
-12.883
-7.101
-1.313
4.46
10.198
15.881
21.492
27.012
32.424
37.711
42.859
47.851
52.675
57.316
61.764
66.006
70.033
73.836
77.408
80.741
83.833
86.678
89.275
91.623
93.722
95.575
97.185
98.556
99.694
100.606
101.3
101.785
102.069
102.164
102.08
101.826
101.415
100.855
100.159
99.335
98.396
97.349
96.205
94.973
93.664
92.286
90.848
89.359
87.826
86.259
84.664
83.049
81.42
79.784
78.145
76.509
74.882
73.268
71.67
70.092
68.538
67.011
65.514
64.05
62.621
61.231
59.882
58.578
57.324
56.124
54.981
53.903
52.894
51.961
51.11
50.349
49.682
49.117
48.66
48.318
48.097
48.002
48.037
48.207
48.514
48.964
49.556
50.292
51.172
52.193
53.356
54.657
56.089
57.644
59.311
61.08
62.94
64.877
66.877
68.922
70.999
73.094
75.194
77.283
79.341
81.344
83.271
85.103
86.821
88.404
89.829
91.074
92.127
92.982
93.628
94.051
94.229
94.129
93.731
93.026
92.007
90.673
89.026
87.073
84.843
82.387
79.745
76.956
74.038
71.005
67.892
64.747
61.633
58.618
55.743
53.037
50.535
48.253
46.176
44.267
42.443
40.606
38.685
36.602
34.28
31.637
28.562
24.958
20.705
15.646
9.728
3.019
-4.269
-11.706
-18.779
-25.015
-29.884
-32.808
-33.442
-31.798
-28.449
-24.493
-21.16
-19.571
-20.519
-24.584
-32.3
-43.511
-56.48
-68.756
-76.36
-73.778
-58.367
-28.677
15.466
68.995
129.853
200.22
281.361
379.669
497.617
626.687
755.56
865.638
937.59
959.277
921.974
825.895
677.308
489.427
284.972
87.532
-77.272
-190.822
-250.482
-260.975
-237.071
-197.974
-155.879
-122.854
-105.539
-101.839
-108.306
-115.651
-114.982
-104.959
-87.609
-68.681
-53.62
-43.139
-35.805
-30.366
-26.678
-25.448
-27.574
-33.077
-40.696
-49.626
-59.395
-68.814
-76.996
-83.448
-87.705
-90.227
-92.067
-93.676
-95.318
-97.363
-99.849
-102.817
-106.344
-110.078
-113.504
-116.36
-118.494
-119.859
-120.585
-120.734
-120.324
-119.459
-118.26
-116.823
-115.235
-113.548
-111.759
-109.874
-107.909
-105.871
-103.776
-101.624
-99.395
-97.055
-94.575
-91.934
-89.117
-86.115
-82.915
-79.503
-75.863
-71.985
-67.864
-63.495
-58.874
-53.995
-48.851
-43.445
-37.785
-31.884
-25.757
-19.415
-12.872
-6.142
0.759
7.811
14.993
22.287
29.669
37.113
44.59
52.071
59.522
66.912
74.21
81.384
88.401
95.229
101.836
108.193
114.269
120.035
125.462
130.524
135.194
139.449
143.267
146.629
149.517
151.917
153.817
155.207
156.081
156.436
156.27
155.584
154.385
152.679
150.475
147.787
144.629
141.019
136.977
132.525
127.685
122.485
116.949
111.106
104.985
98.614
92.024
85.245
78.306
71.239
64.074
56.84
49.566
42.282
35.015
27.791
20.637
13.575
6.628
-0.183
-6.837
-13.318
-19.609
-25.694
-31.562
-37.2
-42.597
-47.746
-52.638
-57.266
-61.627
-65.716
-69.529
-73.066
-76.324
-79.303
-82.003
-84.426
-86.571
-88.442
-90.039
-91.366
-92.426
-93.221
-93.756
-94.032
-94.056
-93.828
-93.355
-92.639
-91.684
-90.494
-89.072
-87.423
-85.55
-83.458
-81.151
-78.634
-75.911
-72.989
-69.872
-66.568
-63.083
-59.425
-55.601
-51.62
-47.492
-43.226
-38.833
-34.324
-29.711
-25.007
-20.224
-15.377
-10.48
-5.548
-0.595
4.362
9.307
14.223
19.094
23.902
28.63
33.26
37.774
42.155
46.386
50.45
54.329
58.008
61.47
64.7
67.685
70.41
72.863
75.03
76.9
78.464
79.712
80.635
81.227
81.481
81.393
80.959
80.177
79.047
77.569
75.744
73.577
71.072
68.237
65.079
61.608
57.835
53.775
49.44
44.846
40.011
34.953
29.689
24.24
18.628
12.875
7.003
1.035
-5.002
-11.083
-17.182
-23.27
-29.321
-35.307
-41.2
-46.97
-52.588
-58.028
-63.261
-68.259
-72.997
-77.447
-81.585
-85.387
-88.831
-91.899
-94.571
-96.833
-98.67
-100.071
-101.029
-101.538
-101.593
-101.191
-100.333
-99.024
-97.267
-95.072
-92.449
-89.412
-85.978
-82.172
-78.02
-73.549
-68.79
-63.775
-58.54
-53.122
-47.558
-41.879
-36.122
-30.322
-24.519
-18.757
-13.076
-7.515
-2.113
3.096
8.073
12.783
17.199
21.307
25.087
28.518
31.569
34.194
36.359
38.046
39.236
39.925
40.112
39.804
39.035
37.87
36.368
34.591
32.59
30.386
28.036
25.61
23.186
20.871
18.739
16.839
15.229
13.939
12.957
12.243
11.707
11.203
10.615
9.804
8.606
6.909
4.574
1.494
-2.436
-7.463
-13.722
-21.132
-29.457
-38.193
-46.765
-54.817
-61.873
-67.085
-69.921
-70.341
-68.843
-66.778
-65.341
-65.195
-67.11
-72.112
-80.999
-92.088
-101.118
-103.757
-95.747
-78.139
-56.956
-31.862
-0.098
45.347
119.389
225.755
361.233
521.078
688.142
845.572
978.032
1064.287
1089.727
1050.58
950.171
802.322
627.382
441.988
261.894
104.369
-18.394
-99.257
-138.114
-147.317
-142.789
-134.578
-127.767
-120.417
-107.761
-90.876
-73.615
-59.81
-53.196
-53.903
-59.796
-69.054
-79.458
-88.88
-95.876
-99.633
-100.149
-98.154
-94.627
-90.401
-86.201
-82.748
-80.674
-80.317
-81.703
-84.616
-88.69
-93.599
-99.092
-104.932
-110.887
-116.768
-122.378
-127.515
-132.054
-135.904
-139
-141.32
-142.839
-143.536
-143.438
-142.609
-141.118
-139.039
-136.429
-133.326
-129.788
-125.887
-121.705
-117.332
-112.833
-108.244
-103.594
-98.899
-94.173
-89.424
-84.64
-79.791
-74.857
-69.822
-64.68
-59.429
-54.061
-48.559
-42.913
-37.113
-31.154
-25.036
-18.757
-12.319
-5.725
1.013
7.884
14.869
21.953
29.121
36.359
43.65
50.974
58.313
65.646
72.952
80.208
87.387
94.463
101.408
108.192
114.789
121.168
127.3
133.157
138.711
143.933
148.798
153.28
157.354
160.996
164.184
166.898
169.122
170.839
172.034
172.699
172.825
172.406
171.442
169.934
167.884
165.3
162.191
158.571
154.454
149.859
144.808
139.323
133.432
127.165
120.552
113.628
106.427
98.985
91.34
83.531
75.595
67.572
59.5
51.418
43.365
35.378
27.496
19.756
12.19
4.831
-2.292
-9.151
-15.717
-21.963
-27.873
-33.431
-38.612
-43.393
-47.755
-51.68
-55.171
-58.243
-60.882
-63.074
-64.862
-66.281
-67.362
-68.154
-68.641
-68.785
-68.634
-68.264
-67.549
-66.333
-64.747
-62.803
-60.493
-58.22
-54.993
-49.849
-44.227
-38.58
-35.529
-38.205
-43.193
-48.224
-49.906
-43.573
-33.391
-22.895
-14.511
-12.235
-13.238
-14.647
-15.833
-15.048
-13.322
-11.972
-10.756
-9.845
-9.154
-8.418
-7.813
-7.477
-7.363
-7.458
-7.775
-8.305
-9.033
-9.946
-11.012
-12.193
-13.493
-14.915
-16.446
-18.077
-19.8
-21.604
-23.482
-25.43
-27.436
-29.491
-31.585
-33.709
-35.856
-38.019
-40.192
-42.368
-44.542
-46.71
-48.867
-51.01
-53.135
-55.24
-57.321
-59.377
-61.405
-63.405
-65.375
-67.314
-69.224
-71.104
-72.954
-74.775
-76.565
-78.325
-80.054
-81.75
-83.411
-85.037
-86.623
-88.169
-89.671
-91.126
-92.531
-93.883
-95.178
-96.41
-97.575
-98.666
-99.678
-100.602
-101.433
-102.162
-102.782
-103.285
-103.663
-103.909
-104.014
-103.97
-103.768
-103.401
-102.859
-102.135
-101.222
-100.115
-98.808
-97.299
-95.587
-93.67
-91.551
-89.235
-86.728
-84.037
-81.172
-78.143
-74.963
-71.646
-68.209
-64.669
-61.041
-57.344
-53.597
-49.822
-46.044
-42.285
-38.57
-34.925
-31.377
-27.954
-24.684
-21.596
-18.714
-16.059
-13.653
-11.518
-9.68
-8.17
-7.011
-6.216
-5.792
-5.745
-6.07
-6.761
-7.794
-9.118
-10.692
-12.473
-14.433
-16.558
-18.827
-21.211
-23.669
-26.141
-28.582
-30.971
-33.294
-35.543
-37.717
-39.814
-41.892
-44.085
-46.52
-49.308
-52.499
-56.064
-60.006
-64.38
-69.26
-74.722
-80.803
-87.436
-94.605
-102.425
-110.885
-119.805
-128.778
-137.024
-143.807
-148.688
-151.166
-150.577
-146.644
-139.527
-129.786
-118.825
-108.163
-98.771
-91.898
-89.272
-90.49
-92.975
-94.354
-90.753
-81.711
-71.752
-60.345
-43.496
-13.011
44.479
133.802
250.577
385.934
527.353
665.737
795.039
905.771
983.006
1009.051
968.599
856.634
683.488
471.691
251.848
54.507
-98.834
-198.682
-249.605
-264.517
-255.923
-233.116
-200.283
-161.518
-125.9
-103.016
-99.417
-113.961
-136.087
-155.208
-165.756
-168.048
-168.144
-170.301
-174.618
-179.543
-182.414
-182.329
-180.398
-177.764
-175.431
-174.049
-173.925
-175.255
-178.082
-182.209
-187.294
-193.051
-199.301
-205.89
-212.618
-219.287
-225.675
-231.56
-236.823
-241.376
-245.14
-248.077
-250.164
-251.385
-251.774
-251.401
-250.328
-248.618
-246.327
-243.489
-240.168
-236.441
-232.393
-228.117
-223.683
-219.133
-214.502
-209.814
-205.083
-200.316
-195.504
-190.621
-185.647
-180.574
-175.394
-170.107
-164.707
-159.182
-153.519
-147.709
-141.747
-135.63
-129.357
-122.927
-116.341
-109.607
-102.735
-95.739
-88.631
-81.42
-74.118
-66.735
-59.286
-51.784
-44.244
-36.681
-29.112
-21.558
-14.041
-6.582
0.794
8.064
15.202
22.183
28.982
35.572
41.928
48.025
53.838
59.342
64.513
69.328
73.766
77.805
81.428
84.616
87.354
89.629
91.43
92.75
93.581
93.921
93.769
93.126
91.997
90.388
88.31
85.774
82.794
79.39
75.581
71.389
66.841
61.961
56.78
51.327
45.634
39.735
33.663
27.452
21.138
14.756
8.342
1.932
-4.438
-10.733
-16.92
-22.964
-28.835
-34.501
-39.935
-45.109
-49.999
-54.584
-58.842
-62.755
-66.31
-69.492
-72.292
-74.702
-76.717
-78.334
-79.555
-80.381
-80.819
-80.875
-80.559
-79.883
-78.861
-77.508
-75.841
-73.879
-71.642
-69.15
-66.427
-63.496
-60.381
-57.106
-53.696
-50.177
-46.573
-42.908
-39.206
-35.491
-31.784
-28.107
-24.48
-20.922
-17.451
-14.083
-10.832
-7.713
-4.736
-1.913
0.749
3.243
5.562
7.703
9.664
11.444
13.042
14.46
15.7
16.767
17.666
18.402
18.983
19.416
19.711
19.876
19.921
19.856
19.692
19.437
19.102
18.696
18.23
17.711
17.15
16.553
15.929
15.284
14.626
13.959
13.289
12.621
11.957
11.302
10.658
10.028
9.413
8.814
8.232
7.668
7.12
6.588
6.071
5.567
5.073
4.587
4.108
3.632
3.156
2.68
2.2
1.717
1.23
0.737
0.239
-0.265
-0.773
-1.285
-1.798
-2.31
-2.819
-3.322
-3.814
-4.292
-4.75
-5.185
-5.594
-5.971
-6.311
-6.611
-6.865
-7.069
-7.219
-7.312
-7.34
-7.301
-7.19
-7.005
-6.742
-6.401
-5.979
-5.479
-4.904
-4.26
-3.553
-2.789
-1.974
-1.118
-0.229
0.684
1.618
2.565
3.521
4.477
5.418
6.334
7.213
8.044
8.818
9.521
10.137
10.66
11.09
11.423
11.654
11.768
11.733
11.528
11.144
10.575
9.822
8.896
7.811
6.605
5.346
4.099
2.925
1.872
0.958
0.221
-0.29
-0.517
-0.381
0.167
1.137
2.547
4.406
6.667
9.258
12.037
14.783
17.326
19.508
21.166
22.183
22.409
21.692
19.943
17.057
12.913
7.509
0.928
-6.609
-14.566
-22.38
-29.544
-35.398
-39.229
-40.524
-39.032
-35
-29.399
-23.179
-16.803
-10.891
-6.271
-3.457
-2.607
-1.721
3.741
17.539
42.539
77.429
117.121
160.306
206.848
262.518
339.025
440.866
569.402
719.239
872.946
1012.744
1119.781
1173.38
1161.132
1079.982
934.459
741.484
525.925
311.83
122.441
-23.976
-118.749
-161.135
-156.224
-115.753
-56.174
7.274
57.987
83.18
81.931
59.424
28.471
3.998
-8.724
-10.067
-5.217
-1.56
-0.798
-1.825
-3.061
-2.333
0.286
3.476
6.418
8.216
8.265
6.559
3.158
-1.763
-7.848
-14.802
-22.425
-30.517
-38.831
-47.151
-55.25
-62.878
-69.889
-76.177
-81.638
-86.218
-89.885
-92.612
-94.421
-95.373
-95.522
-94.925
-93.64
-91.706
-89.187
-86.162
-82.715
-78.939
-74.903
-70.65
-66.213
-61.616
-56.873
-51.992
-46.967
-41.774
-36.4
-30.841
-25.094
-19.167
-13.059
-6.766
-0.284
6.384
13.236
20.262
27.451
34.792
42.27
49.865
57.554
65.31
73.111
80.934
88.759
96.563
104.324
112.018
119.623
127.115
134.47
141.663
148.668
155.457
162.005
168.286
174.277
179.953
185.29
190.265
194.857
199.047
202.816
206.146
209.021
211.428
213.354
214.789
215.726
216.16
216.085
215.503
214.414
212.822
210.733
208.156
205.1
201.579
197.607
193.201
188.38
183.165
177.577
171.642
165.386
158.836
152.019
144.966
137.706
130.271
122.69
114.995
107.217
99.387
91.536
83.693
75.889
68.151
60.509
52.987
45.612
38.406
31.393
24.593
18.025
11.706
5.652
-0.124
-5.61
-10.797
-15.676
-20.242
-24.491
-28.422
-32.033
-35.328
-38.309
-40.982
-43.352
-45.428
-47.219
-48.735
-49.988
-50.991
-51.757
-52.3
-52.636
-52.781
-52.752
-52.565
-52.237
-51.786
-51.23
-50.586
-49.872
-49.105
-48.303
-47.483
-46.662
-45.855
-45.078
-44.346
-43.672
-43.069
-42.55
-42.124
-41.803
-41.594
-41.506
-41.547
-41.722
-42.037
-42.497
-43.104
-43.86
-44.769
-45.829
-47.041
-48.402
-49.911
-51.565
-53.359
-55.288
-57.346
-59.528
-61.825
-64.23
-66.733
-69.326
-71.999
-74.741
-77.542
-80.39
-83.276
-86.187
-89.113
-92.043
-94.967
-97.872
-100.749
-103.587
-106.375
-109.102
-111.758
-114.333
-116.815
-119.196
-121.465
-123.613
-125.631
-127.51
-129.243
-130.823
-132.243
-133.495
-134.575
-135.479
-136.2
-136.736
-137.084
-137.24
-137.203
-136.972
-136.546
-135.924
-135.108
-134.098
-132.895
-131.502
-129.92
-128.152
-126.202
-124.073
-121.773
-119.306
-116.68
-113.904
-110.986
-107.936
-104.767
-101.489
-98.115
-94.66
-91.135
-87.557
-83.939
-80.298
-76.65
-73.011
-69.398
-65.829
-62.326
-58.91
-55.6
-52.417
-49.383
-46.517
-43.841
-41.373
-39.125
-37.112
-35.348
-33.848
-32.628
-31.7
-31.075
-30.759
-30.761
-31.087
-31.738
-32.71
-33.989
-35.564
-37.425
-39.575
-42.021
-44.764
-47.795
-51.102
-54.666
-58.465
-62.47
-66.632
-70.882
-75.155
-79.392
-83.548
-87.591
-91.473
-95.133
-98.495
-101.48
-104.023
-106.072
-107.582
-108.53
-108.922
-108.797
-108.24
-107.352
-106.233
-104.99
-103.725
-102.542
-101.554
-100.843
-100.516
-100.766
-101.703
-103.315
-105.439
-107.609
-109.307
-110.182
-109.801
-107.53
-102.958
-96.037
-87.242
-77.984
-69.733
-63.227
-59.217
-58.78
-62.497
-70.146
-79.3
-84.688
-81.371
-66.852
-42.823
-12.67
22.854
66.146
125.679
209.271
318.458
450.738
595.72
739.459
867.722
964.313
1012.78
999.089
917.407
771.247
577.386
363.142
156.827
-15.678
-139.794
-212.89
-242.153
-239.799
-213.761
-173.297
-125.568
-78.774
-48.287
-40.646
-55.305
-84.984
-113.077
-130.765
-136.774
-133.962
-130.2
-128.637
-128.336
-128.121
-125.902
-121.507
-116.343
-111.316
-107.257
-104.724
-103.742
-104.264
-106.135
-109.044
-112.715
-116.956
-121.625
-126.528
-131.479
-136.273
-140.66
-144.489
-147.659
-150.073
-151.683
-152.461
-152.385
-151.482
-149.819
-147.455
-144.452
-140.871
-136.751
-132.156
-127.166
-121.867
-116.36
-110.723
-105.01
-99.27
-93.532
-87.81
-82.107
-76.407
-70.672
-64.884
-59.023
-53.076
-47.04
-40.907
-34.674
-28.348
-21.932
-15.428
-8.828
-2.108
4.735
11.684
18.695
25.684
32.599
39.422
46.148
52.796
59.363
65.789
72.086
78.352
84.575
90.68
96.413
101.291
105.119
108.04
110.248
112.009
113.666
115.504
118.245
123.101
130.609
140.596
152.467
165.121
177.613
189.34
199.159
205.404
207.218
204.534
198.047
189.313
179.491
169.186
159.368
151.269
145.601
142.612
141.839
142.05
142.429
142.638
142.255
140.889
138.276
134.235
128.956
123.004
116.723
110.244
103.646
96.901
90.032
83.129
76.197
69.176
62.05
54.833
47.577
40.38
33.308
26.389
19.645
13.082
6.714
0.566
-5.345
-10.999
-16.384
-21.489
-26.307
-30.829
-35.05
-38.967
-42.583
-45.904
-48.936
-51.682
-54.14
-56.31
-58.194
-59.798
-61.132
-62.208
-63.038
-63.636
-64.017
-64.198
-64.195
-64.026
-63.706
-63.252
-62.678
-62.001
-61.237
-60.401
-59.509
-58.573
-57.608
-56.626
-55.639
-54.658
-53.693
-52.754
-51.851
-50.99
-50.181
-49.43
-48.742
-48.124
-47.579
-47.11
-46.717
-46.401
-46.161
-45.993
-45.893
-45.855
-45.872
-45.936
-46.039
-46.171
-46.324
-46.487
-46.651
-46.808
-46.949
-47.065
-47.15
-47.196
-47.196
-47.146
-47.039
-46.873
-46.643
-46.346
-45.978
-45.539
-45.026
-44.438
-43.774
-43.032
-42.213
-41.318
-40.347
-39.304
-38.19
-37.011
-35.771
-34.477
-33.136
-31.757
-30.348
-28.917
-27.475
-26.029
-24.59
-23.166
-21.765
-20.393
-19.057
-17.764
-16.518
-15.323
-14.181
-13.095
-12.066
-11.094
-10.179
-9.319
-8.514
-7.76
-7.057
-6.403
-5.796
-5.233
-4.712
-4.231
-3.788
-3.379
-3.001
-2.651
-2.323
-2.012
-1.715
-1.426
-1.141
-0.855
-0.565
-0.269
0.031
0.333
0.636
0.934
1.225
1.501
1.756
1.985
2.185
2.354
2.483
2.564
2.587
2.545
2.433
2.246
1.978
1.624
1.182
0.656
0.053
-0.621
-1.368
-2.201
-3.14
-4.198
-5.38
-6.688
-8.121
-9.678
-11.35
-13.11
-14.913
-16.716
-18.485
-20.193
-21.823
-23.339
-24.687
-25.803
-26.618
-27.078
-27.145
-26.799
-26.023
-24.828
-23.247
-21.334
-19.196
-16.95
-14.715
-12.625
-10.807
-9.366
-8.479
-8.386
-9.232
-11.055
-13.697
-16.728
-19.704
-22.248
-23.877
-24.019
-22.26
-18.47
-13.168
-7.609
-3.155
-0.963
-2.03
-7.214
-17.045
-31.348
-48.537
-65.504
-78.518
-83.985
-78.376
-58.003
-19.494
39.968
119.445
213.148
314.531
416.951
518.911
626.177
740.57
857.209
960.28
1019.695
1008.947
915.349
744.25
524.23
293.833
86.618
-74.132
-179.829
-236.259
-252.884
-240.184
-211.178
-175.295
-143.391
-125.222
-122.031
-131.019
-143.463
-150.165
-148.952
-142.078
-135.269
-132.88
-134.564
-137.422
-138.067
-135.07
-128.992
-121.038
-112.395
-103.702
-95.471
-88.433
-83.041
-79.41
-77.429
-76.78
-77.217
-78.59
-80.697
-83.29
-86.13
-89.003
-91.706
-94.066
-95.941
-97.217
-97.816
-97.698
-96.842
-95.249
-92.964
-90.053
-86.581
-82.61
-78.188
-73.357
-68.182
-62.74
-57.116
-51.398
-45.645
-39.895
-34.178
-28.515
-22.914
-17.377
-11.886
-6.412
-0.94
4.541
10.034
15.538
21.058
26.604
32.178
37.784
43.422
49.086
54.771
60.471
66.172
71.86
77.516
83.118
88.648
94.087
99.418
104.623
109.684
114.581
119.296
123.812
128.109
132.168
135.969
139.494
142.723
145.64
148.228
150.473
152.36
153.878
155.016
155.765
156.116
156.064
155.603
154.731
153.448
151.753
149.648
147.138
144.229
140.928
137.245
133.191
128.78
124.026
118.945
113.557
107.879
101.933
95.741
89.325
82.709
75.918
68.977
61.912
54.748
47.51
40.224
32.914
25.605
18.32
11.081
3.909
-3.176
-10.153
-17.006
-23.716
-30.269
-36.649
-42.845
-48.842
-54.632
-60.205
-65.552
-70.668
-75.548
-80.187
-84.583
-88.736
-92.645
-96.313
-99.741
-102.934
-105.896
-108.634
-111.154
-113.464
-115.57
-117.483
-119.21
-120.759
-122.141
-123.362
-124.433
-125.36
-126.153
-126.819
-127.365
-127.799
-128.127
-128.357
-128.494
-128.544
-128.512
-128.405
-128.225
-127.978
-127.668
-127.298
-126.87
-126.389
-125.855
-125.271
-124.638
-123.957
-123.228
-122.452
-121.629
-120.758
-119.838
-118.869
-117.85
-116.781
-115.662
-114.492
-113.273
-112.004
-110.686
-109.32
-107.908
-106.451
-104.952
-103.413
-101.836
-100.226
-98.584
-96.917
-95.227
-93.519
-91.797
-90.068
-88.335
-86.603
-84.88
-83.169
-81.477
-79.81
-78.175
-76.576
-75.021
-73.515
-72.065
-70.675
-69.35
-68.095
-66.913
-65.808
-64.782
-63.837
-62.974
-62.195
-61.498
-60.884
-60.351
-59.895
-59.514
-59.204
-58.959
-58.772
-58.637
-58.545
-58.489
-58.46
-58.449
-58.445
-58.437
-58.415
-58.366
-58.28
-58.144
-57.945
-57.671
-57.31
-56.851
-56.285
-55.6
-54.787
-53.84
-52.751
-51.515
-50.13
-48.59
-46.895
-45.044
-43.039
-40.884
-38.583
-36.142
-33.57
-30.879
-28.085
-25.203
-22.253
-19.251
-16.219
-13.179
-10.155
-7.168
-4.237
-1.382
1.375
4.009
6.493
8.801
10.912
12.803
14.453
15.841
16.947
17.76
18.279
18.497
18.408
17.997
17.233
16.102
14.596
12.713
10.458
7.842
4.879
1.605
-1.919
-5.639
-9.502
-13.466
-17.514
-21.601
-25.67
-29.657
-33.468
-37.037
-40.316
-43.252
-45.809
-47.992
-49.818
-51.349
-52.689
-53.921
-55.14
-56.456
-57.953
-59.747
-61.93
-64.621
-68.041
-72.308
-77.388
-83.093
-88.951
-94.401
-99.002
-102.196
-103.257
-101.765
-97.63
-91.371
-84.396
-78.204
-74.04
-73.084
-76.284
-84.065
-96.111
-110.586
-124.057
-132.686
-132.377
-119.073
-89.254
-39.432
31.356
119.566
220.092
326.739
436.102
552.067
676.154
803.304
920.955
1002.745
1023.501
971.236
845.154
664.094
457.192
250.486
69.108
-71.145
-164.715
-211.841
-219.486
-197.84
-159.144
-114.817
-76.761
-54.555
-49.557
-58.149
-70.111
-74.924
-69.764
-57.073
-43.499
-34.095
-29.05
-26.345
-23.781
-21.285
-20.024
-20.575
-22.798
-26.277
-30.806
-36.472
-42.91
-49.094
-54.226
-58.184
-61.555
-64.9
-68.342
-71.754
-74.988
-78.208
-81.626
-85.146
-88.383
-90.964
-92.704
-93.591
-93.749
-93.228
-92.014
-90.158
-87.752
-84.916
-81.764
-78.367
-74.765
-70.986
-67.059
-63.015
-58.884
-54.682
-50.408
-46.054
-41.595
-37.011
-32.29
-27.428
-22.422
-17.268
-11.956
-6.478
-0.828
4.991
10.975
17.124
23.436
29.91
36.535
43.295
50.168
57.135
64.18
71.285
78.432
85.6
92.768
99.912
107.014
114.049
120.992
127.815
134.49
140.987
147.278
153.336
159.133
164.642
169.836
174.69
179.179
183.281
186.975
190.237
193.05
195.396
197.259
198.627
199.487
199.832
199.655
198.953
197.727
195.977
193.708
190.928
187.645
183.872
179.623
174.914
169.763
164.193
158.224
151.884
145.198
138.195
130.904
123.356
115.581
107.613
99.482
91.222
82.865
74.442
65.987
57.53
49.103
40.735
32.455
24.29
16.266
8.408
0.736
-6.728
-13.966
-20.963
-27.703
-34.175
-40.367
-46.273
-51.885
-57.2
-62.214
-66.928
-71.343
-75.462
-79.29
-82.833
-86.1
-89.099
-91.841
-94.338
-96.601
-98.644
-100.481
-102.128
-103.598
-104.907
-106.071
-107.105
-108.025
-108.844
-109.578
-110.24
-110.843
-111.399
-111.919
-112.414
-112.893
-113.365
-113.837
-114.315
-114.807
-115.315
-115.844
-116.397
-116.975
-117.578
-118.208
-118.862
-119.54
-120.24
-120.957
-121.69
-122.433
-123.182
-123.932
-124.678
-125.414
-126.135
-126.835
-127.509
-128.153
-128.76
-129.329
-129.854
-130.332
-130.761
-131.139
-131.464
-131.734
-131.95
-132.111
-132.218
-132.27
-132.271
-132.221
-132.123
-131.978
-131.791
-131.562
-131.296
-130.995
-130.663
-130.303
-129.918
-129.513
-129.09
-128.653
-128.206
-127.752
-127.294
-126.832
-126.37
-125.909
-125.448
-124.987
-124.524
-124.057
-123.585
-123.105
-122.614
-122.107
-121.58
-121.03
-120.451
-119.839
-119.188
-118.494
-117.751
-116.955
-116.102
-115.187
-114.208
-113.16
-112.04
-110.847
-109.578
-108.233
-106.81
-105.307
-103.726
-102.066
-100.332
-98.524
-96.648
-94.708
-92.713
-90.675
-88.605
-86.516
-84.42
-82.333
-80.269
-78.243
-76.27
-74.356
-72.513
-70.75
-69.081
-67.519
-66.077
-64.764
-63.589
-62.56
-61.688
-60.979
-60.433
-60.045
-59.81
-59.728
-59.81
-60.077
-60.542
-61.205
-62.066
-63.114
-64.334
-65.706
-67.186
-68.707
-70.203
-71.616
-72.902
-74.032
-74.96
-75.628
-75.966
-75.897
-75.368
-74.341
-72.788
-70.708
-68.132
-65.125
-61.806
-58.317
-54.797
-51.393
-48.245
-45.49
-43.265
-41.674
-40.838
-40.941
-42.08
-44.228
-47.185
-50.465
-53.537
-56.018
-57.451
-57.193
-54.778
-50.048
-43.383
-36.011
-29.168
-23.421
-19.314
-17.691
-19.104
-23.487
-28.546
-29.418
-21.874
-3.801
22.999
54.923
92.23
138.305
200.225
284.954
391.41
513.89
644.349
772.089
888.962
985.863
1047.785
1059.252
1007.219
886.672
706.541
487.728
260.793
55.91
-103.21
-202.12
-244.76
-242.409
-207.013
-156.148
-99.501
-45.945
-10.382
3.628
-3.083
-24.86
-46.255
-60.057
-65.718
-65.13
-64.948
-67.393
-71.096
-74.597
-75.335
-72.576
-66.871
-59.028
-50.759
-43.266
-37.002
-32.246
-28.818
-26.555
-25.651
-25.992
-27.157
-28.798
-30.549
-32.175
-33.617
-34.735
-35.336
-35.317
-34.641
-33.316
-31.39
-28.882
-25.799
-22.184
-18.086
-13.565
-8.685
-3.495
1.945
7.559
13.267
18.978
24.627
30.174
35.586
40.846
45.949
50.895
55.704
60.408
65.026
69.579
74.087
78.563
83.026
87.501
92.008
96.564
101.189
105.892
110.688
115.584
120.585
125.692
130.901
136.206
141.602
147.082
152.64
158.267
163.953
169.687
175.455
181.245
187.038
192.815
198.556
204.236
209.831
215.318
220.669
225.856
230.854
235.634
240.17
244.435
248.405
252.052
255.356
258.292
260.842
262.986
264.708
265.994
266.831
267.21
267.124
266.57
265.545
264.05
262.09
259.67
256.8
253.49
249.754
245.609
241.071
236.164
230.908
225.331
219.457
213.316
206.937
200.351
193.588
186.682
179.662
172.561
165.409
158.238
151.076
143.952
136.894
129.928
123.077
116.365
109.813
103.439
97.261
91.293
85.548
80.037
74.769
69.751
64.988
60.483
56.237
52.25
48.519
45.041
41.809
38.817
36.056
33.516
31.185
29.053
27.107
25.334
23.721
22.254
20.921
19.709
18.603
17.593
16.667
15.812
15.019
14.278
13.58
12.918
12.283
11.671
11.077
10.494
9.92
9.352
8.788
8.224
7.662
7.098
6.535
5.972
5.411
4.852
4.299
3.752
3.215
2.689
2.177
1.681
1.202
0.741
0.301
-0.119
-0.518
-0.896
-1.254
-1.593
-1.916
-2.225
-2.523
-2.816
-3.106
-3.401
-3.704
-4.023
-4.363
-4.73
-5.131
-5.571
-6.056
-6.593
-7.187
-7.844
-8.57
-9.37
-10.247
-11.208
-12.255
-13.391
-14.619
-15.939
-17.354
-18.863
-20.465
-22.16
-23.947
-25.823
-27.786
-29.831
-31.953
-34.149
-36.41
-38.73
-41.099
-43.509
-45.949
-48.41
-50.882
-53.353
-55.813
-58.252
-60.659
-63.025
-65.339
-67.59
-69.768
-71.864
-73.87
-75.777
-77.579
-79.268
-80.84
-82.29
-83.615
-84.814
-85.884
-86.823
-87.629
-88.301
-88.842
-89.25
-89.528
-89.678
-89.705
-89.619
-89.431
-89.152
-88.794
-88.369
-87.893
-87.38
-86.84
-86.286
-85.721
-85.154
-84.597
-84.06
-83.551
-83.08
-82.65
-82.269
-81.947
-81.687
-81.491
-81.358
-81.281
-81.262
-81.309
-81.434
-81.661
-82.006
-82.475
-83.08
-83.832
-84.726
-85.755
-86.889
-88.073
-89.262
-90.411
-91.469
-92.395
-93.131
-93.614
-93.793
-93.606
-93.005
-91.967
-90.478
-88.538
-86.18
-83.435
-80.383
-77.185
-74.01
-71.068
-68.576
-66.696
-65.653
-65.73
-67.082
-69.739
-73.533
-78.041
-82.838
-87.61
-91.907
-95.176
-97.081
-97.576
-97.237
-97.212
-98.614
-102.274
-108.912
-119.293
-133.764
-151.784
-171.403
-189.484
-202.618
-207.438
-200.65
-178.7
-138.143
-77.958
-0.832
88.93
186.046
287.652
395.049
507.467
620.138
722.103
796.272
825.2
796.247
706.328
559.7
370.639
162.569
-40.888
-212.904
-332.937
-396.971
-408.631
-382.941
-341.058
-296.545
-262.066
-244.474
-241.327
-249.278
-259.931
-265.254
-263.857
-257.176
-250.11
-246.483
-245.856
-245.922
-243.701
-237.975
-229.486
-219.392
-208.879
-198.63
-189.059
-180.794
-174.235
-169.436
-166.271
-164.429
-163.646
-163.772
-164.619
-165.948
-167.533
-169.144
-170.552
-171.621
-172.245
-172.335
-171.855
-170.766
-169.038
-166.693
-163.788
-160.382
-156.538
-152.306
-147.716
-142.821
-137.692
-132.41
-127.07
-121.733
-116.431
-111.186
-106.008
-100.902
-95.868
-90.882
-85.904
-80.902
-75.853
-70.739
-65.552
-60.277
-54.889
-49.368
-43.699
-37.871
-31.88
-25.722
-19.396
-12.906
-6.26
0.526
7.433
14.445
21.547
28.723
35.954
43.221
50.505
57.782
65.033
72.233
79.356
86.375
93.262
99.988
106.525
112.845
118.92
124.72
130.22
135.392
140.212
144.655
148.699
152.322
155.505
158.233
160.49
162.266
163.55
164.336
164.619
164.4
163.679
162.461
160.751
158.558
155.895
152.773
149.211
145.225
140.835
136.064
130.936
125.476
119.715
113.679
107.4
100.91
94.24
87.425
80.499
73.493
66.443
59.381
52.34
45.352
38.448
31.656
25.006
18.524
12.234
6.159
0.32
-5.263
-10.574
-15.599
-20.323
-24.737
-28.831
-32.599
-36.036
-39.14
-41.909
-44.346
-46.453
-48.237
-49.704
-50.863
-51.727
-52.307
-52.619
-52.678
-52.502
-52.109
-51.519
-50.752
-49.829
-48.772
-47.603
-46.342
-45.012
-43.633
-42.226
-40.812
-39.41
-38.039
-36.717
-35.461
-34.287
-33.211
-32.246
-31.405
-30.701
-30.143
-29.742
-29.504
-29.437
-29.545
-29.833
-30.302
-30.953
-31.785
-32.794
-33.978
-35.329
-36.842
-38.508
-40.318
-42.261
-44.328
-46.505
-48.782
-51.147
-53.586
-56.086
-58.637
-61.225
-63.838
-66.464
-69.092
-71.71
-74.309
-76.876
-79.404
-81.883
-84.304
-86.658
-88.94
-91.141
-93.257
-95.282
-97.212
-99.042
-100.771
-102.396
-103.917
-105.334
-106.646
-107.855
-108.962
-109.97
-110.88
-111.695
-112.417
-113.048
-113.589
-114.042
-114.406
-114.683
-114.871
-114.97
-114.978
-114.893
-114.714
-114.436
-114.057
-113.572
-112.977
-112.269
-111.441
-110.489
-109.408
-108.193
-106.839
-105.342
-103.696
-101.895
-99.936
-97.814
-95.527
-93.07
-90.441
-87.638
-84.662
-81.514
-78.198
-74.717
-71.078
-67.291
-63.366
-59.317
-55.16
-50.912
-46.59
-42.215
-37.807
-33.389
-28.98
-24.604
-20.283
-16.039
-11.9
-7.892
-4.038
-0.366
3.098
6.33
9.302
11.991
14.386
16.471
18.229
19.642
20.679
21.322
21.566
21.405
20.836
19.866
18.505
16.788
14.777
12.522
10.073
7.467
4.713
1.846
-1.087
-4.034
-6.922
-9.711
-12.393
-14.942
-17.316
-19.508
-21.537
-23.504
-25.581
-27.887
-30.486
-33.397
-36.621
-40.215
-44.245
-48.761
-53.799
-59.301
-65.269
-71.843
-79.026
-86.687
-94.512
-101.798
-107.839
-112.204
-114.252
-113.309
-109.328
-102.321
-92.747
-82.181
-71.957
-63.112
-57.563
-55.757
-55.252
-54.133
-49.981
-41.735
-34.232
-30.313
-26.54
-15.364
16.874
82.683
183.041
311.84
458.152
605.874
742.304
854.724
928.754
953.877
922.378
833.587
693.683
516.517
323.892
140.208
-8.248
-104.15
-145.182
-141.612
-114.001
-81.485
-56.095
-40.902
-33.115
-30.16
-28.349
-27.312
-27.732
-28.398
-31.263
-36.574
-42.938
-50.034
-55.328
-57.135
-55.768
-51.51
-45.428
-38.718
-31.924
-25.632
-20.48
-16.749
-14.527
-13.758
-14.209
-15.664
-17.96
-20.921
-24.373
-28.169
-32.18
-36.253
-40.199
-43.867
-47.148
-49.965
-52.284
-54.079
-55.318
-56.008
-56.194
-55.921
-55.231
-54.159
-52.718
-50.943
-48.89
-46.622
-44.216
-41.725
-39.174
-36.579
-33.949
-31.281
-28.569
-25.792
-22.91
-19.894
-16.723
-13.382
-9.864
-6.154
-2.235
1.91
6.295
10.927
15.809
20.944
26.331
31.963
37.828
43.91
50.187
56.639
63.245
69.984
76.833
83.766
90.756
97.777
104.799
111.793
118.726
125.564
132.274
138.821
145.172
151.293
157.153
162.718
167.959
172.847
177.354
181.456
185.127
188.347
191.097
193.359
195.121
196.371
197.102
197.308
196.988
196.145
194.783
192.911
190.538
187.68
184.353
180.577
176.375
171.772
166.795
161.472
155.835
149.917
143.753
137.378
130.827
124.136
117.342
110.482
103.591
96.704
89.856
83.079
76.405
69.865
63.489
57.301
51.328
45.592
40.113
34.909
29.997
25.39
21.098
17.129
13.491
10.186
7.215
4.577
2.269
0.284
-1.385
-2.749
-3.82
-4.61
-5.136
-5.413
-5.459
-5.292
-4.93
-4.395
-3.705
-2.88
-1.941
-0.908
0.199
1.363
2.563
3.783
5.006
6.216
7.398
8.538
9.623
10.641
11.582
12.436
13.194
13.849
14.395
14.827
15.141
15.335
15.406
15.354
15.18
14.885
14.471
13.941
13.298
12.546
11.691
10.738
9.691
8.557
7.342
6.05
4.688
3.261
1.774
0.231
-1.364
-3.005
-4.691
-6.418
-8.183
-9.984
-11.819
-13.686
-15.585
-17.514
-19.472
-21.46
-23.476
-25.521
-27.595
-29.698
-31.829
-33.989
-36.178
-38.396
-40.643
-42.919
-45.223
-47.555
-49.914
-52.298
-54.705
-57.133
-59.578
-62.036
-64.503
-66.974
-69.442
-71.901
-74.345
-76.764
-79.151
-81.497
-83.792
-86.025
-88.185
-90.261
-92.24
-94.113
-95.866
-97.489
-98.969
-100.297
-101.461
-102.452
-103.26
-103.874
-104.285
-104.486
-104.47
-104.23
-103.761
-103.059
-102.124
-100.954
-99.55
-97.914
-96.05
-93.961
-91.653
-89.135
-86.415
-83.506
-80.418
-77.168
-73.774
-70.255
-66.635
-62.935
-59.176
-55.387
-51.595
-47.829
-44.116
-40.48
-36.943
-33.53
-30.266
-27.175
-24.274
-21.576
-19.093
-16.841
-14.837
-13.1
-11.638
-10.45
-9.528
-8.867
-8.471
-8.346
-8.505
-8.944
-9.662
-10.662
-11.954
-13.547
-15.438
-17.602
-19.98
-22.509
-25.145
-27.854
-30.623
-33.45
-36.298
-39.092
-41.753
-44.194
-46.353
-48.225
-49.738
-50.744
-51.237
-51.32
-51.314
-51.78
-53.002
-54.918
-57.481
-60.669
-64.302
-68.165
-71.43
-72.547
-70.638
-65.609
-57.688
-47.526
-35.808
-23.105
-11.112
-2.76
-0.216
-4.679
-16.416
-34.535
-58.171
-86.432
-116.684
-144.549
-165.653
-176.078
-172.87
-154.284
-118.464
-63.455
9.648
95.977
189.981
285.735
380.135
475.837
573.206
666.831
747.649
799.089
804.639
759.374
664.217
528.082
371.053
209.459
61.372
-53.347
-129.496
-165.802
-170.231
-160.682
-145.388
-131.967
-122.53
-112.868
-105.774
-100.449
-96.339
-94.983
-93.376
-92.358
-93.187
-94.876
-97.592
-99.258
-97.957
-93.902
-87.503
-79.719
-71.57
-63.473
-55.882
-49.424
-44.462
-41.092
-39.225
-38.604
-38.981
-40.193
-42.072
-44.394
-46.968
-49.594
-52.052
-54.203
-55.944
-57.186
-57.89
-58.016
-57.521
-56.41
-54.722
-52.498
-49.79
-46.639
-43.066
-39.116
-34.85
-30.34
-25.676
-20.917
-16.093
-11.228
-6.333
-1.417
3.517
8.481
13.509
18.623
23.838
29.163
34.598
40.15
45.834
51.659
57.633
63.76
70.036
76.456
83.015
89.702
96.502
103.394
110.354
117.359
124.389
131.423
138.438
145.411
152.317
159.133
165.834
172.395
178.789
184.987
190.963
196.687
202.136
207.282
212.1
216.566
220.657
224.351
227.63
230.474
232.866
234.791
236.236
237.19
237.646
237.597
237.038
235.969
234.389
232.303
229.717
226.638
223.077
219.047
214.562
209.64
204.299
198.561
192.447
185.981
179.189
172.098
164.735
157.13
149.311
141.307
133.15
124.869
116.494
108.054
99.579
91.098
82.638
74.227
65.892
57.657
49.549
41.589
33.8
26.202
18.814
11.655
4.739
-1.919
-8.306
-14.413
-20.231
-25.751
-30.97
-35.882
-40.487
-44.782
-48.77
-52.452
-55.831
-58.911
-61.699
-64.199
-66.42
-68.368
-70.053
-71.482
-72.666
-73.615
-74.338
-74.846
-75.151
-75.263
-75.195
-74.958
-74.564
-74.026
-73.354
-72.561
-71.659
-70.659
-69.572
-68.408
-67.177
-65.89
-64.556
-63.183
-61.781
-60.357
-58.918
-57.473
-56.028
-54.59
-53.164
-51.759
-50.378
-49.03
-47.719
-46.451
-45.232
-44.068
-42.964
-41.925
-40.956
-40.06
-39.243
-38.507
-37.856
-37.292
-36.819
-36.437
-36.15
-35.958
-35.862
-35.864
-35.963
-36.16
-36.453
-36.841
-37.324
-37.9
-38.566
-39.32
-40.159
-41.08
-42.079
-43.15
-44.29
-45.493
-46.751
-48.058
-49.407
-50.789
-52.197
-53.621
-55.052
-56.482
-57.901
-59.3
-60.67
-62
-63.282
-64.506
-65.663
-66.742
-67.735
-68.633
-69.426
-70.108
-70.672
-71.109
-71.414
-71.58
-71.602
-71.476
-71.198
-70.763
-70.167
-69.409
-68.487
-67.401
-66.152
-64.738
-63.164
-61.43
-59.543
-57.508
-55.329
-53.013
-50.566
-47.997
-45.315
-42.531
-39.654
-36.698
-33.673
-30.599
-27.491
-24.368
-21.247
-18.145
-15.081
-12.074
-9.139
-6.293
-3.546
-0.913
1.593
3.953
6.15
8.168
9.994
11.614
13.016
14.184
15.111
15.797
16.242
16.443
16.388
16.056
15.43
14.506
13.28
11.752
9.933
7.835
5.489
2.948
0.262
-2.524
-5.376
-8.276
-11.192
-14.077
-16.872
-19.511
-21.944
-24.151
-26.095
-27.743
-29.116
-30.255
-31.25
-32.232
-33.266
-34.418
-35.781
-37.439
-39.494
-42.075
-45.248
-49.121
-53.913
-59.658
-66.227
-73.408
-80.671
-87.433
-93.287
-97.62
-99.673
-99.249
-96.639
-92.405
-87.772
-84.117
-82.443
-83.805
-89.469
-98.66
-108.243
-116.441
-121.4
-122.271
-121.601
-115.493
-94.306
-51.011
20.687
118.104
227.53
339.095
448.843
555.796
661.804
761.886
837.304
866.379
834.334
734.743
580.673
399.689
218.06
63.132
-48.594
-116.965
-146.387
-149.586
-139.675
-123.635
-108.431
-96.595
-89.683
-88.608
-89.882
-91.261
-90.154
-86.114
-83.283
-83.645
-87.923
-95.289
-102.028
-106.347
-108.247
-107.931
-106.47
-104.64
-102.616
-100.939
-100.293
-100.961
-102.995
-106.293
-110.543
-115.519
-121.091
-127.014
-133.013
-138.867
-144.367
-149.382
-153.837
-157.646
-160.747
-163.102
-164.686
-165.502
-165.576
-164.939
-163.638
-161.724
-159.239
-156.241
-152.791
-148.959
-144.832
-140.471
-135.92
-131.216
-126.38
-121.429
-116.378
-111.231
-105.975
-100.606
-95.117
-89.507
-83.783
-77.947
-71.996
-65.927
-59.738
-53.428
-47.007
-40.48
-33.857
-27.149
-20.37
-13.535
-6.666
0.216
7.096
13.957
20.783
27.556
34.257
40.868
47.371
53.747
59.975
66.033
71.899
77.55
82.967
88.127
93.011
97.597
101.867
105.803
109.386
112.602
115.435
117.87
119.895
121.497
122.666
123.396
123.68
123.512
122.891
121.816
120.289
118.315
115.899
113.049
109.775
106.09
102.007
97.542
92.714
87.542
82.048
76.256
70.191
63.878
57.345
50.619
43.728
36.702
29.568
22.353
15.086
7.794
0.502
-6.764
-13.978
-21.118
-28.16
-35.085
-41.873
-48.506
-54.969
-61.246
-67.327
-73.202
-78.862
-84.302
-89.518
-94.508
-99.271
-103.811
-108.132
-112.238
-116.138
-119.841
-123.357
-126.699
-129.878
-132.908
-135.804
-138.578
-141.244
-143.817
-146.308
-148.732
-151.099
-153.42
-155.706
-157.965
-160.206
-162.436
-164.658
-166.879
-169.1
-171.322
-173.544
-175.765
-177.98
-180.185
-182.373
-184.536
-186.664
-188.748
-190.775
-192.734
-194.609
-196.388
-198.055
-199.595
-200.994
-202.236
-203.307
-204.194
-204.883
-205.365
-205.629
-205.667
-205.472
-205.04
-204.368
-203.453
-202.298
-200.904
-199.277
-197.423
-195.351
-193.071
-190.597
-187.943
-185.127
-182.165
-179.078
-175.886
-172.613
-169.281
-165.914
-162.538
-159.177
-155.859
-152.608
-149.451
-146.413
-143.519
-140.793
-138.257
-135.931
-133.834
-131.983
-130.392
-129.075
-128.04
-127.296
-126.848
-126.699
-126.85
-127.298
-128.038
-129.064
-130.364
-131.927
-133.738
-135.779
-138.03
-140.469
-143.074
-145.821
-148.684
-151.636
-154.648
-157.691
-160.738
-163.759
-166.723
-169.601
-172.363
-174.981
-177.43
-179.683
-181.717
-183.509
-185.04
-186.292
-187.25
-187.9
-188.232
-188.236
-187.904
-187.235
-186.227
-184.881
-183.202
-181.196
-178.875
-176.256
-173.355
-170.194
-166.792
-163.172
-159.361
-155.384
-151.266
-147.029
-142.696
-138.292
-133.842
-129.378
-124.926
-120.51
-116.154
-111.882
-107.719
-103.686
-99.796
-96.053
-92.467
-89.044
-85.805
-82.777
-79.978
-77.415
-75.097
-73.022
-71.186
-69.578
-68.165
-66.89
-65.705
-64.559
-63.417
-62.258
-61.039
-59.708
-58.21
-56.475
-54.46
-52.134
-49.451
-46.396
-42.987
-39.268
-35.329
-31.279
-27.205
-23.216
-19.44
-15.989
-12.994
-10.539
-8.707
-7.676
-7.554
-8.325
-9.84
-11.688
-13.387
-14.583
-14.835
-13.513
-10.175
-4.654
2.668
10.734
18.49
24.98
29.228
30.198
26.78
19.867
12.88
9.332
13.17
24.444
38.219
54.378
75.178
107.768
167.021
258.508
381.481
529.87
686.204
836.604
967.133
1061.415
1108.115
1095.434
1018.724
883.949
704.531
502.438
300.872
120.74
-22.28
-120.448
-173.722
-188.546
-174.514
-143.41
-105.657
-71.049
-47.249
-35.663
-33.802
-33.727
-27.544
-13.553
5.672
23.509
34.609
38.326
36.534
32.241
27.039
21.285
15.589
10.604
7.397
6.733
8.512
12.501
18.526
26.092
34.426
42.798
50.408
56.768
61.875
65.825
68.802
71.119
73.061
74.717
76.121
77.242
77.938
78.098
77.55
76.074
73.556
70.045
65.721
60.8
55.46
49.811
43.969
38.109
32.453
27.265
22.74
19.001
16.193
14.48
14.082
15.242
18.067
22.51
28.454
35.77
44.342
54.065
64.765
76.182
88.084
100.267
112.597
124.995
137.338
149.466
161.196
172.34
182.78
192.482
201.433
209.615
217.038
223.724
229.756
235.284
240.408
245.178
249.608
253.679
257.397
260.791
263.886
266.699
269.236
271.487
273.446
275.119
276.486
277.515
278.148
278.3
277.916
276.97
275.448
273.353
270.688
267.453
263.664
259.35
254.534
249.239
243.485
237.286
230.671
223.674
216.339
208.714
200.844
192.773
184.543
176.196
167.773
159.312
150.846
142.405
134.021
125.727
117.557
109.546
101.727
94.128
86.78
79.71
72.944
66.503
60.404
54.663
49.292
44.303
39.702
35.495
31.684
28.271
25.253
22.625
20.381
18.512
17.003
15.843
15.015
14.502
14.284
14.342
14.654
15.2
15.956
16.9
18.009
19.261
20.631
22.097
23.635
25.223
26.839
28.462
30.07
31.645
33.169
34.625
35.999
37.277
38.446
39.496
40.417
41.203
41.848
42.346
42.695
42.894
42.943
42.844
42.6
42.214
41.692
41.04
40.265
39.375
38.379
37.285
36.104
34.845
33.518
32.133
30.7
29.23
27.732
26.215
24.69
23.166
21.651
20.154
18.683
17.244
15.844
14.488
13.181
11.927
10.729
9.587
8.505
7.481
6.515
5.606
4.751
3.949
3.194
2.485
1.815
1.181
0.577
-0.002
-0.561
-1.105
-1.638
-2.164
-2.689
-3.216
-3.747
-4.286
-4.835
-5.396
-5.972
-6.562
-7.167
-7.785
-8.416
-9.055
-9.701
-10.346
-10.985
-11.609
-12.211
-12.781
-13.31
-13.787
-14.199
-14.534
-14.78
-14.924
-14.952
-14.851
-14.608
-14.209
-13.643
-12.899
-11.966
-10.835
-9.498
-7.947
-6.179
-4.189
-1.974
0.467
3.135
6.026
9.138
12.464
15.995
19.722
23.628
27.697
31.905
36.23
40.646
45.126
49.641
54.16
58.652
63.09
67.445
71.687
75.785
79.7
83.4
86.853
90.028
92.897
95.433
97.605
99.396
100.794
101.786
102.358
102.486
102.133
101.269
99.882
97.961
95.506
92.526
89.031
85.055
80.66
75.904
70.852
65.552
60.031
54.343
48.556
42.753
37.048
31.522
26.228
21.227
16.557
12.214
8.182
4.39
0.722
-2.913
-6.62
-10.521
-14.721
-19.347
-24.49
-30.275
-36.935
-44.579
-53.177
-62.51
-72.013
-81.095
-89.362
-96.248
-101.038
-103.35
-103.041
-100.664
-97.82
-95.917
-95.814
-98.605
-105.257
-115.98
-130.616
-146.36
-157.417
-160.335
-152.821
-134.032
-106.533
-66.374
-6.862
74.18
180.162
304.926
436.224
571.143
703.581
826.874
935.533
1007.871
1021.851
966.856
838.91
654.29
442.223
229.99
45.127
-93.744
-180.513
-218.799
-219.795
-195.336
-158.081
-115.57
-74.256
-45.695
-34.136
-40.552
-61.622
-85.002
-104.301
-118.032
-126.647
-135.18
-145.194
-155.48
-164.898
-171.076
-173.218
-171.856
-167.842
-162.967
-158.57
-155.134
-152.954
-151.949
-152.033
-153.458
-156.146
-159.65
-163.609
-167.708
-171.761
-175.791
-179.711
-183.252
-186.245
-188.614
-190.316
-191.401
-191.874
-191.677
-190.809
-189.313
-187.248
-184.692
-181.701
-178.308
-174.563
-170.534
-166.299
-161.956
-157.574
-153.199
-148.867
-144.596
-140.398
-136.284
-132.243
-128.253
-124.293
-120.343
-116.39
-112.427
-108.441
-104.415
-100.333
-96.176
-91.932
-87.592
-83.147
-78.588
-73.912
-69.119
-64.211
-59.196
-54.078
-48.865
-43.562
-38.177
-32.72
-27.201
-21.633
-16.029
-10.405
-4.78
0.824
6.386
11.88
17.282
22.565
27.702
32.665
37.425
41.956
46.229
50.218
53.894
57.233
60.211
62.805
64.993
66.756
68.076
68.938
69.327
69.234
68.65
67.569
65.987
63.903
61.321
58.244
54.68
50.639
46.133
41.179
35.793
29.998
23.816
17.273
10.396
3.213
-4.243
-11.943
-19.852
-27.939
-36.17
-44.511
-52.929
-61.39
-69.863
-78.316
-86.716
-95.035
-103.243
-111.312
-119.217
-126.932
-134.434
-141.702
-148.716
-155.457
-161.909
-168.057
-173.887
-179.389
-184.553
-189.371
-193.836
-197.946
-201.697
-205.088
-208.121
-210.796
-213.117
-215.089
-216.715
-218.004
-218.96
-219.592
-219.906
-219.912
-219.617
-219.031
-218.162
-217.019
-215.613
-213.951
-212.044
-209.902
-207.533
-204.949
-202.159
-199.173
-196.003
-192.658
-189.152
-185.494
-181.698
-177.774
-173.737
-169.597
-165.368
-161.063
-156.695
-152.278
-147.826
-143.352
-138.872
-134.401
-129.952
-125.543
-121.188
-116.903
-112.703
-108.604
-104.621
-100.771
-97.066
-93.523
-90.156
-86.977
-84
-81.237
-78.698
-76.393
-74.331
-72.517
-70.958
-69.657
-68.617
-67.838
-67.32
-67.06
-67.054
-67.297
-67.782
-68.499
-69.437
-70.584
-71.925
-73.446
-75.128
-76.953
-78.901
-80.952
-83.084
-85.274
-87.5
-89.738
-91.962
-94.149
-96.274
-98.312
-100.239
-102.03
-103.662
-105.112
-106.36
-107.386
-108.17
-108.696
-108.947
-108.908
-108.566
-107.911
-106.933
-105.623
-103.975
-101.986
-99.655
-96.984
-93.975
-90.633
-86.966
-82.984
-78.696
-74.118
-69.262
-64.146
-58.788
-53.21
-47.433
-41.482
-35.383
-29.163
-22.851
-16.479
-10.078
-3.677
2.69
8.989
15.186
21.243
27.127
32.81
38.264
43.46
48.371
52.966
57.226
61.134
64.67
67.817
70.551
72.853
74.718
76.155
77.174
77.786
77.989
77.767
77.12
76.057
74.583
72.711
70.444
67.788
64.773
61.467
57.943
54.267
50.471
46.548
42.485
38.293
34.028
29.782
25.636
21.657
17.875
14.333
11.125
8.227
5.489
2.65
-0.736
-5.056
-10.352
-16.603
-23.771
-31.412
-39.132
-46.553
-52.667
-56.635
-58.215
-57.087
-53.357
-48.006
-41.597
-34.524
-28.141
-23.555
-21.639
-23.818
-30.491
-40.983
-55.153
-72.837
-93.238
-114.268
-131.754
-141.214
-138.955
-125.684
-106.294
-81.548
-50.071
-5.659
64.56
164.565
292.581
442.41
597.767
745.616
873.079
964.867
1009.635
996.107
920.574
787.985
610.729
411.489
212.826
38.609
-90.602
-169.81
-202.717
-204.05
-194.426
-183.653
-174.29
-162.987
-142.989
-114.902
-83.816
-55.236
-34.57
-23.547
-21.848
-28.788
-42.291
-59.97
-79.187
-97.193
-112.635
-124.856
-133.039
-136.966
-136.961
-133.713
-128.73
-123.657
-119.286
-116.04
-114.282
-114.007
-115.144
-117.509
-120.491
-123.378
-125.73
-127.274
-127.878
-127.562
-126.31
-124.094
-120.972
-117.031
-112.349
-106.988
-100.974
-94.311
-87.03
-79.193
-70.887
-62.217
-53.29
-44.184
-34.959
-25.662
-16.336
-7.016
2.262
11.475
20.617
29.677
38.635
47.471
56.164
64.698
73.075
81.296
89.362
97.268
105.006
112.564
119.938
127.119
134.098
140.862
147.396
153.691
159.741
165.541
171.089
176.378
181.405
186.166
190.66
194.884
198.835
202.511
205.908
209.023
211.854
214.401
216.66
218.63
220.31
221.698
222.796
223.603
224.118
224.344
224.279
223.927
223.289
222.369
221.169
219.693
217.947
215.936
213.667
211.148
208.387
205.392
202.173
198.742
195.108
191.283
187.28
183.112
178.792
174.335
169.757
165.074
160.302
155.458
150.56
145.623
140.667
135.707
130.761
125.844
120.972
116.163
111.43
106.79
102.255
97.84
93.558
89.42
85.438
81.621
77.978
74.517
71.246
68.169
65.291
62.617
60.148
57.885
55.829
53.979
52.332
50.885
49.634
48.571
47.692
46.987
46.448
46.066
45.83
45.73
45.755
45.893
46.133
46.461
46.866
47.335
47.855
48.413
48.997
49.595
50.194
50.783
51.35
51.885
52.377
52.816
53.192
53.499
53.727
53.869
53.92
53.873
53.725
53.471
53.109
52.636
52.053
51.359
50.554
49.64
48.618
47.493
46.266
44.942
43.524
42.018
40.429
38.761
37.02
35.212
33.343
31.418
29.442
27.423
25.364
23.271
21.149
19.004
16.838
14.658
12.466
10.266
8.061
5.855
3.65
1.448
-0.748
-2.937
-5.119
-7.291
-9.453
-11.605
-13.744
-15.872
-17.988
-20.09
-22.179
-24.254
-26.314
-28.358
-30.385
-32.395
-34.384
-36.352
-38.295
-40.212
-42.098
-43.951
-45.764
-47.534
-49.254
-50.919
-52.524
-54.062
-55.527
-56.913
-58.213
-59.421
-60.531
-61.538
-62.434
-63.213
-63.872
-64.404
-64.808
-65.078
-65.212
-65.209
-65.066
-64.786
-64.369
-63.816
-63.13
-62.314
-61.374
-60.316
-59.147
-57.876
-56.513
-55.07
-53.564
-52.012
-50.433
-48.843
-47.262
-45.71
-44.207
-42.773
-41.421
-40.168
-39.027
-38.019
-37.162
-36.474
-35.97
-35.664
-35.569
-35.697
-36.061
-36.665
-37.504
-38.576
-39.883
-41.434
-43.25
-45.342
-47.709
-50.347
-53.247
-56.391
-59.763
-63.319
-66.996
-70.733
-74.473
-78.173
-81.809
-85.333
-88.688
-91.805
-94.602
-97.021
-99.03
-100.587
-101.671
-102.296
-102.497
-102.364
-102.026
-101.592
-101.174
-100.892
-100.855
-101.2
-102.037
-103.486
-105.718
-108.801
-112.701
-117.263
-122.097
-126.715
-130.708
-133.595
-134.801
-133.969
-130.967
-126.125
-120.392
-114.888
-110.481
-107.732
-107.232
-109.496
-114.545
-121.369
-126.774
-125.965
-115.016
-91.927
-58.409
-18.065
27.881
80.939
147.843
235.572
345.947
476.181
615.398
749.769
865.109
946.421
980.605
956.346
869.405
723.668
533.467
322.587
116.01
-62.345
-196.464
-280.681
-317.539
-315.388
-283.916
-234.516
-177.963
-126.076
-89.803
-72.271
-70.067
-73.411
-72.505
-64.574
-52.701
-44.067
-43.173
-49.48
-60.139
-70.692
-78.85
-84.518
-87.281
-87.232
-84.831
-80.473
-75.159
-70.221
-66.21
-63.326
-61.976
-62.242
-64.039
-67.247
-71.314
-75.479
-79.34
-82.688
-85.369
-87.423
-88.845
-89.564
-89.656
-89.246
-88.419
-87.251
-85.762
-83.927
-81.771
-79.357
-76.765
-74.103
-71.442
-68.811
-66.238
-63.732
-61.301
-58.954
-56.679
-54.445
-52.226
-50.002
-47.763
-45.506
-43.217
-40.872
-38.44
-35.89
-33.201
-30.356
-27.341
-24.144
-20.755
-17.165
-13.375
-9.389
-5.209
-0.834
3.736
8.499
13.451
18.585
23.892
29.363
34.985
40.744
46.62
52.595
58.648
64.756
70.897
77.046
83.177
89.262
95.275
101.187
106.969
112.591
118.022
123.233
128.194
132.877
137.253
141.294
144.974
148.268
151.153
153.609
155.616
157.156
158.215
158.781
158.844
158.397
157.435
155.958
153.966
151.464
148.459
144.962
140.985
136.545
131.658
126.346
120.631
114.539
108.096
101.331
94.275
86.959
79.418
71.686
63.799
55.794
47.708
39.577
31.441
23.334
15.296
7.36
-0.438
-8.063
-15.485
-22.671
-29.593
-36.225
-42.541
-48.52
-54.142
-59.389
-64.248
-68.706
-72.754
-76.386
-79.598
-82.389
-84.762
-86.72
-88.27
-89.423
-90.189
-90.584
-90.624
-90.327
-89.714
-88.807
-87.63
-86.207
-84.564
-82.729
-80.728
-78.59
-76.342
-74.014
-71.634
-69.229
-66.826
-64.451
-62.129
-59.884
-57.736
-55.707
-53.813
-52.072
-50.497
-49.099
-47.889
-46.875
-46.06
-45.447
-45.037
-44.828
-44.816
-44.993
-45.35
-45.878
-46.564
-47.396
-48.358
-49.435
-50.61
-51.868
-53.189
-54.556
-55.95
-57.351
-58.739
-60.095
-61.4
-62.635
-63.782
-64.826
-65.751
-66.544
-67.194
-67.692
-68.03
-68.2
-68.2
-68.026
-67.679
-67.162
-66.479
-65.637
-64.645
-63.516
-62.262
-60.898
-59.438
-57.898
-56.295
-54.642
-52.955
-51.248
-49.533
-47.825
-46.14
-44.494
-42.901
-41.379
-39.945
-38.618
-37.415
-36.348
-35.426
-34.654
-34.036
-33.57
-33.255
-33.085
-33.051
-33.141
-33.349
-33.67
-34.096
-34.612
-35.194
-35.81
-36.435
-37.055
-37.658
-38.235
-38.78
-39.294
-39.8
-40.341
-40.961
-41.68
-42.497
-43.385
-44.325
-45.299
-46.29
-47.283
-48.233
-49.08
-49.782
-50.307
-50.623
-50.679
-50.377
-49.575
-48.156
-46.06
-43.286
-39.877
-35.875
-31.329
-26.323
-20.982
-15.492
-10.047
-4.785
0.196
4.796
8.884
12.278
14.747
16.128
16.355
15.411
13.318
10.092
5.763
0.44
-5.678
-12.324
-19.252
-26.298
-33.374
-40.377
-47.164
-53.598
-59.539
-64.961
-69.943
-74.523
-78.728
-82.596
-86.195
-89.688
-93.315
-97.292
-101.81
-107.052
-113.099
-119.939
-127.425
-135.167
-142.711
-149.608
-155.294
-159.137
-160.651
-159.718
-156.826
-152.848
-148.631
-145.007
-142.831
-143.259
-147.633
-154.891
-161.267
-163.565
-158.493
-147.27
-136.152
-124.849
-109.303
-80.042
-20.602
74.102
200.489
349.215
500.314
640.403
760.043
848.04
900.638
909.14
864.515
767.189
617.103
426.416
219.238
18.307
-148.123
-259.761
-314.397
-316.114
-280.165
-227.395
-171.18
-125.185
-97.942
-88.225
-92.648
-101.73
-106.134
-103.633
-95.677
-87.699
-83.84
-83.793
-85.247
-85.086
-82.112
-77.051
-70.989
-65.078
-59.927
-55.875
-53.453
-52.921
-54.202
-57.092
-61.228
-66.333
-72.249
-78.729
-85.499
-92.301
-98.873
-105.064
-110.803
-116.008
-120.63
-124.638
-127.994
-130.706
-132.826
-134.393
-135.452
-136.048
-136.204
-135.966
-135.397
-134.561
-133.537
-132.375
-131.096
-129.716
-128.238
-126.655
-124.962
-123.138
-121.141
-118.943
-116.522
-113.86
-110.951
-107.781
-104.333
-100.591
-96.545
-92.187
-87.52
-82.546
-77.27
-71.702
-65.858
-59.759
-53.43
-46.895
-40.178
-33.302
-26.293
-19.18
-11.993
-4.761
2.484
9.709
16.878
23.955
30.902
37.683
44.261
50.601
56.666
62.423
67.839
72.883
77.525
81.739
85.498
88.779
91.563
93.831
95.569
96.766
97.413
97.504
97.039
96.019
94.448
92.335
89.691
86.528
82.866
78.723
74.122
69.09
63.654
57.844
51.694
45.238
38.512
31.555
24.403
17.098
9.677
2.182
-5.349
-12.876
-20.362
-27.768
-35.058
-42.198
-49.153
-55.893
-62.387
-68.607
-74.529
-80.128
-85.385
-90.279
-94.796
-98.922
-102.644
-105.955
-108.849
-111.321
-113.371
-115
-116.212
-117.013
-117.41
-117.415
-117.038
-116.294
-115.197
-113.765
-112.015
-109.967
-107.64
-105.056
-102.236
-99.202
-95.976
-92.582
-89.042
-85.379
-81.615
-77.772
-73.874
-69.941
-65.996
-62.058
-58.149
-54.288
-50.493
-46.782
-43.173
-39.681
-36.321
-33.105
-30.048
-27.159
-24.45
-21.927
-19.6
-17.474
-15.553
-13.842
-12.341
-11.051
-9.973
-9.102
-8.437
-7.972
-7.701
-7.618
-7.714
-7.979
-8.405
-8.978
-9.687
-10.519
-11.458
-12.489
-13.598
-14.768
-15.983
-17.224
-18.477
-19.722
-20.944
-22.124
-23.246
-24.293
-25.249
-26.098
-26.826
-27.419
-27.863
-28.148
-28.262
-28.197
-27.945
-27.499
-26.855
-26.008
-24.957
-23.701
-22.24
-20.579
-18.72
-16.67
-14.436
-12.026
-9.451
-6.72
-3.846
-0.842
2.28
5.506
8.823
12.214
15.665
19.16
22.684
26.221
29.756
33.274
36.761
40.201
43.584
46.898
50.131
53.274
56.317
59.251
62.072
64.773
67.349
69.796
72.111
74.292
76.34
78.255
80.038
81.692
83.217
84.617
85.895
87.051
88.084
88.993
89.775
90.43
90.955
91.349
91.609
91.733
91.723
91.581
91.306
90.898
90.348
89.65
88.801
87.798
86.635
85.308
83.809
82.136
80.298
78.296
76.13
73.786
71.237
68.462
65.455
62.208
58.72
54.992
51.029
46.854
42.517
38.06
33.525
28.938
24.306
19.659
15.046
10.533
6.198
2.096
-1.746
-5.3
-8.538
-11.462
-14.107
-16.552
-18.909
-21.274
-23.735
-26.381
-29.319
-32.688
-36.617
-41.287
-46.927
-53.647
-61.405
-69.972
-78.876
-87.567
-95.548
-102.191
-106.753
-108.791
-108.32
-106.064
-103.413
-101.852
-102.615
-106.755
-115.305
-128.814
-146.764
-167.024
-186.094
-199.914
-204.376
-195.696
-169.971
-123.403
-54.756
33.363
136.372
247.95
363.681
483.683
606.875
728.886
839.941
923.816
961.748
938.938
849.985
696.857
495.503
274.18
60.941
-113.307
-227.312
-281.671
-283.921
-249.387
-199.257
-143.794
-93.468
-61.646
-50.561
-60.635
-86.158
-111.101
-127.544
-133.008
-128.684
-122.65
-118.172
-114.525
-110.866
-104.527
-94.988
-83.827
-72.138
-61.102
-51.624
-43.816
-37.717
-33.332
-30.411
-28.745
-28.198
-28.59
-29.737
-31.49
-33.678
-36.122
-38.648
-41.041
-43.119
-44.755
-45.86
-46.4
-46.358
-45.724
-44.526
-42.814
-40.637
-38.047
-35.083
-31.777
-28.185
-24.376
-20.428
-16.428
-12.431
-8.471
-4.571
-0.736
3.039
6.762
10.462
14.178
17.936
21.758
25.659
29.648
33.742
37.959
42.315
46.824
51.495
56.332
61.336
66.506
71.836
77.313
82.923
88.646
94.464
100.361
106.319
112.317
118.337
124.356
130.352
136.304
142.186
147.972
153.636
159.15
164.488
169.622
174.526
179.173
183.538
187.595
191.322
194.697
197.697
200.305
202.503
204.276
205.612
206.501
206.936
206.91
206.421
205.469
204.057
202.19
199.874
197.12
193.938
190.344
186.353
181.982
177.252
172.182
166.795
161.114
155.165
148.973
142.565
135.967
129.207
122.312
115.312
108.233
101.103
93.948
86.796
79.672
72.599
65.602
58.701
51.917
45.269
38.773
32.446
26.302
20.353
14.611
9.084
3.781
-1.292
-6.13
-10.728
-15.085
-19.199
-23.07
-26.697
-30.083
-33.229
-36.139
-38.816
-41.265
-43.49
-45.497
-47.293
-48.885
-50.279
-51.483
-52.505
-53.352
-54.033
-54.554
-54.924
-55.149
-55.237
-55.194
-55.028
-54.745
-54.351
-53.852
-53.255
-52.566
-51.789
-50.93
-49.994
-48.987
-47.914
-46.779
-45.589
-44.348
-43.062
-41.736
-40.376
-38.987
-37.573
-36.141
-34.694
-33.237
-31.774
-30.31
-28.849
-27.394
-25.951
-24.522
-23.112
-21.724
-20.362
-19.03
-17.73
-16.466
-15.241
-14.059
-12.921
-11.832
-10.794
-9.811
-8.884
-8.017
-7.211
-6.47
-5.793
-5.183
-4.642
-4.169
-3.766
-3.434
-3.173
-2.984
-2.867
-2.821
-2.848
-2.946
-3.116
-3.357
-3.667
-4.047
-4.496
-5.012
-5.596
-6.246
-6.961
-7.74
-8.58
-9.481
-10.438
-11.449
-12.51
-13.616
-14.762
-15.944
-17.157
-18.394
-19.649
-20.915
-22.187
-23.457
-24.717
-25.961
-27.179
-28.364
-29.509
-30.606
-31.649
-32.629
-33.54
-34.376
-35.132
-35.801
-36.378
-36.856
-37.231
-37.499
-37.654
-37.695
-37.618
-37.422
-37.109
-36.683
-36.15
-35.517
-34.792
-33.984
-33.105
-32.165
-31.176
-30.145
-29.082
-27.995
-26.899
-25.81
-24.743
-23.709
-22.723
-21.796
-20.943
-20.178
-19.51
-18.937
-18.464
-18.1
-17.863
-17.785
-17.89
-18.193
-18.705
-19.434
-20.382
-21.547
-22.909
-24.421
-26.039
-27.718
-29.424
-31.144
-32.838
-34.451
-35.921
-37.165
-38.123
-38.762
-39.042
-38.947
-38.496
-37.732
-36.74
-35.648
-34.571
-33.644
-33.023
-32.827
-33.195
-34.243
-36.091
-38.981
-43.04
-48.198
-54.236
-60.703
-67.114
-73.173
-78.493
-82.373
-84.397
-84.611
-83.54
-82.451
-82.415
-83.955
-87.693
-94.399
-104.66
-117.199
-128.252
-133.442
-128.613
-113.339
-92.229
-67.44
-38.499
-2.141
53.074
135.7
247.942
390.025
550.376
710.199
850.834
950.78
992.198
966.747
873.918
719.685
521.713
305.967
98.206
-72.759
-186.861
-243.206
-247.863
-216.109
-169.651
-119.521
-76.211
-50.946
-43.369
-53.176
-75.437
-96.145
-109.701
-114.946
-113.036
-111.489
-113.081
-116.151
-119.377
-120.151
-117.69
-113.4
-108.302
-103.18
-98.694
-95.175
-92.791
-91.631
-91.598
-92.416
-93.877
-95.868
-98.235
-100.796
-103.4
-105.87
-108.036
-109.798
-111.069
-111.772
-111.882
-111.39
-110.292
-108.615
-106.409
-103.728
-100.635
-97.188
-93.429
-89.415
-85.215
-80.906
-76.58
-72.307
-68.132
-64.087
-60.191
-56.455
-52.882
-49.464
-46.172
-42.98
-39.868
-36.818
-33.819
-30.854
-27.899
-24.928
-21.915
-18.837
-15.679
-12.423
-9.053
-5.556
-1.922
1.851
5.763
9.815
14.008
18.342
22.815
27.423
32.159
37.013
41.976
47.035
52.172
57.368
62.599
67.843
73.074
78.265
83.387
88.411
93.306
98.041
102.585
106.907
110.974
114.756
118.222
121.344
124.093
126.443
128.372
129.856
130.877
131.418
131.465
131.009
130.042
128.56
126.563
124.053
121.037
117.525
113.531
109.07
104.165
98.837
93.114
87.025
80.603
73.88
66.894
59.681
52.28
44.731
37.074
29.349
21.598
13.86
6.174
-1.419
-8.884
-16.183
-23.283
-30.152
-36.758
-43.075
-49.077
-54.742
-60.05
-64.986
-69.535
-73.686
-77.434
-80.773
-83.703
-86.225
-88.346
-90.072
-91.414
-92.385
-93.001
-93.279
-93.238
-92.899
-92.283
-91.414
-90.315
-89.011
-87.525
-85.882
-84.107
-82.224
-80.254
-78.222
-76.149
-74.055
-71.959
-69.879
-67.831
-65.831
-63.892
-62.025
-60.24
-58.546
-56.949
-55.454
-54.065
-52.783
-51.609
-50.541
-49.578
-48.715
-47.948
-47.273
-46.683
-46.171
-45.732
-45.359
-45.045
-44.784
-44.57
-44.398
-44.262
-44.159
-44.084
-44.036
-44.013
-44.014
-44.039
-44.089
-44.167
-44.276
-44.419
-44.601
-44.827
-45.104
-45.437
-45.833
-46.299
-46.842
-47.47
-48.189
-49.006
-49.929
-50.963
-52.114
-53.386
-54.784
-56.309
-57.962
-59.745
-61.656
-63.693
-65.851
-68.124
-70.506
-72.989
-75.562
-78.214
-80.931
-83.699
-86.502
-89.322
-92.141
-94.937
-97.692
-100.382
-102.987
-105.485
-107.853
-110.069
-112.112
-113.959
-115.59
-116.986
-118.126
-118.994
-119.571
-119.843
-119.797
-119.422
-118.708
-117.646
-116.232
-114.461
-112.333
-109.848
-107.011
-103.824
-100.297
-96.439
-92.263
-87.786
-83.023
-77.996
-72.727
-67.244
-61.575
-55.752
-49.807
-43.774
-37.686
-31.579
-25.488
-19.443
-13.476
-7.617
-1.895
3.654
8.997
14.106
18.95
23.503
27.737
31.627
35.152
38.302
41.069
43.442
45.402
46.923
47.98
48.56
48.657
48.266
47.396
46.062
44.298
42.166
39.728
37.044
34.165
31.126
27.96
24.724
21.486
18.32
15.299
12.467
9.865
7.541
5.489
3.669
1.992
0.313
-1.485
-3.499
-5.848
-8.642
-11.976
-15.96
-20.672
-26.214
-32.803
-40.537
-49.324
-58.946
-68.917
-78.656
-87.663
-95.268
-100.574
-103.041
-102.713
-100.072
-96.245
-92.621
-90.354
-90.7
-95.14
-103.236
-112.2
-119.192
-121.553
-120.07
-118.066
-114.241
-101.355
-65.826
4.4
109.826
240.525
377.732
506.438
624.989
734.793
837.198
926.147
979.576
977.35
909.877
778.042
601.74
407.189
217.435
53.651
-72.417
-155.702
-196.327
-199.503
-171.806
-124.072
-68.494
-18.738
12.566
21.54
12.094
-4.478
-17.042
-21.29
-18.438
-14.761
-14.441
-17.129
-21.083
-23.395
-22.915
-20.625
-17.531
-14.605
-12.629
-12.034
-13.056
-15.781
-20.004
-25.349
-31.542
-38.39
-45.664
-53.105
-60.458
-67.454
-73.92
-79.79
-84.984
-89.435
-93.095
-95.926
-97.924
-99.132
-99.59
-99.335
-98.407
-96.839
-94.678
-91.991
-88.853
-85.352
-81.553
-77.501
-73.23
-68.765
-64.124
-59.321
-54.357
-49.216
-43.888
-38.368
-32.661
-26.774
-20.712
-14.475
-8.063
-1.476
5.281
12.197
19.26
26.458
33.773
41.188
48.678
56.215
63.773
71.328
78.858
86.34
93.751
101.066
108.263
115.32
122.214
128.921
135.417
141.679
147.681
153.403
158.822
163.919
168.672
173.063
177.075
180.691
183.897
186.68
189.027
190.928
192.376
193.363
193.886
193.942
193.532
192.659
191.327
189.544
187.32
184.666
181.596
178.126
174.272
170.053
165.49
160.605
155.419
149.959
144.249
138.317
132.19
125.895
119.461
112.917
106.29
99.61
92.904
86.199
79.522
72.899
66.355
59.914
53.599
47.43
41.428
35.608
29.988
24.58
19.396
14.446
9.738
5.276
1.064
-2.894
-6.6
-10.054
-13.261
-16.224
-18.949
-21.445
-23.72
-25.782
-27.644
-29.315
-30.809
-32.136
-33.31
-34.344
-35.251
-36.043
-36.734
-37.337
-37.865
-38.329
-38.741
-39.112
-39.451
-39.767
-40.067
-40.359
-40.648
-40.938
-41.231
-41.531
-41.837
-42.15
-42.469
-42.791
-43.113
-43.432
-43.742
-44.039
-44.317
-44.57
-44.792
-44.977
-45.118
-45.21
-45.248
-45.225
-45.136
-44.977
-44.742
-44.429
-44.032
-43.551
-42.981
-42.323
-41.577
-40.742
-39.821
-38.818
-37.734
-36.577
-35.351
-34.063
-32.723
-31.337
-29.917
-28.472
-27.014
-25.555
-24.106
-22.682
-21.294
-19.956
-18.679
-17.477
-16.361
-15.342
-14.43
-13.637
-12.97
-12.439
-12.051
-11.814
-11.733
-11.812
-12.057
-12.469
-13.049
-13.797
-14.711
-15.787
-17.021
-18.405
-19.933
-21.593
-23.375
-25.267
-27.255
-29.324
-31.457
-33.637
-35.845
-38.063
-40.269
-42.445
-44.57
-46.624
-48.586
-50.436
-52.157
-53.729
-55.136
-56.358
-57.381
-58.188
-58.765
-59.099
-59.179
-58.995
-58.541
-57.81
-56.799
-55.51
-53.944
-52.108
-50.012
-47.665
-45.082
-42.278
-39.273
-36.088
-32.744
-29.267
-25.679
-22.009
-18.287
-14.546
-10.817
-7.135
-3.533
-0.045
3.293
6.447
9.381
12.062
14.462
16.553
18.307
19.692
20.668
21.21
21.301
20.933
20.104
18.816
17.077
14.91
12.365
9.49
6.334
2.935
-0.683
-4.488
-8.444
-12.495
-16.573
-20.626
-24.63
-28.572
-32.451
-36.267
-40.021
-43.761
-47.61
-51.703
-56.161
-61.063
-66.424
-72.243
-78.554
-85.433
-92.942
-101.108
-109.904
-119.214
-128.999
-139.337
-150.13
-161.076
-171.633
-180.961
-188.325
-193.314
-195.348
-193.7
-188.16
-178.84
-166.416
-152.463
-138.423
-125.326
-114.599
-107.757
-103.929
-100.631
-95.435
-84.174
-66.615
-46.89
-23.532
6.028
47.244
112.651
205.446
323.177
461.68
606.93
746.653
867.68
952.906
989.218
965.783
880.632
740.474
558.866
357.937
160.018
-11.553
-138.148
-213.893
-241.573
-234.929
-209.571
-176.463
-145.406
-119.134
-99.967
-89.99
-84.628
-80.786
-75.876
-69.082
-64.989
-66.697
-74.182
-84.817
-94.591
-101.712
-106.1
-108.391
-109.309
-108.616
-106.676
-104.942
-104.319
-105.276
-107.895
-111.682
-116.468
-122.498
-129.588
-137.171
-144.756
-151.851
-158.192
-163.834
-168.728
-172.736
-175.811
-177.943
-179.169
-179.601
-179.308
-178.302
-176.613
-174.267
-171.315
-167.85
-163.967
-159.764
-155.318
-150.674
-145.874
-140.948
-135.921
-130.817
-125.64
-120.377
-115.024
-109.583
-104.067
-98.494
-92.875
-87.21
-81.5
-75.746
-69.958
-64.151
-58.337
-52.531
-46.749
-41.008
-35.332
-29.749
-24.282
-18.948
-13.767
-8.755
-3.931
0.687
5.081
9.236
13.138
16.77
20.116
23.161
25.891
28.296
30.364
32.088
33.459
34.473
35.128
35.422
35.357
34.937
34.164
33.046
31.592
29.811
27.714
