Name
Date of Birth,"Mar 27, 1959"
Recorded Date,2022-07-26 08:34:48 -0500
Classification,Sinus Rhythm
Symptoms,
Software Version,1.90
Device,"Watch4,2"
Sample Rate,510.227 hertz


Lead,Lead I
Unit,µV

-38.281
-41.706
-44.976
-48.076
-50.996
-53.724
-56.252
-58.57
-60.673
-62.555
-64.212
-65.641
-66.839
-67.807
-68.544
-69.052
-69.332
-69.387
-69.222
-68.84
-68.246
-67.446
-66.447
-65.256
-63.88
-62.328
-60.607
-58.728
-56.698
-54.529
-52.229
-49.808
-47.278
-44.647
-41.926
-39.125
-36.253
-33.321
-30.336
-27.307
-24.243
-21.151
-18.038
-14.912
-11.778
-8.642
-5.511
-2.388
0.721
3.813
6.883
9.927
12.945
15.932
18.887
21.809
24.696
27.547
30.363
33.142
35.885
38.591
41.263
43.899
46.502
49.073
51.612
54.121
56.601
59.053
61.478
63.875
66.246
68.588
70.902
73.185
75.437
77.655
79.837
81.979
84.078
86.13
88.131
90.075
91.957
93.771
95.511
97.17
98.741
100.218
101.592
102.858
104.007
105.032
105.925
106.68
107.288
107.742
108.036
108.164
108.118
107.895
107.489
106.897
106.115
105.141
103.975
102.615
101.063
99.319
97.386
95.268
92.968
90.493
87.849
85.043
82.083
78.979
75.739
72.375
68.899
65.321
61.654
57.911
54.105
50.25
46.359
42.448
38.529
34.618
30.729
26.874
23.069
19.325
15.656
12.073
8.587
5.209
1.948
-1.187
-4.19
-7.052
-9.768
-12.334
-14.745
-16.999
-19.094
-21.03
-22.805
-24.422
-25.882
-27.187
-28.341
-29.348
-30.213
-30.941
-31.538
-32.011
-32.368
-32.616
-32.763
-32.818
-32.789
-32.686
-32.516
-32.289
-32.014
-31.697
-31.349
-30.976
-30.585
-30.184
-29.779
-29.375
-28.978
-28.593
-28.223
-27.873
-27.545
-27.243
-26.968
-26.723
-26.509
-26.326
-26.176
-26.059
-25.974
-25.921
-25.899
-25.907
-25.941
-26.001
-26.085
-26.188
-26.309
-26.445
-26.592
-26.746
-26.906
-27.068
-27.228
-27.384
-27.533
-27.673
-27.802
-27.917
-28.018
-28.102
-28.169
-28.217
-28.245
-28.254
-28.241
-28.206
-28.15
-28.071
-27.969
-27.844
-27.696
-27.525
-27.331
-27.114
-26.875
-26.616
-26.335
-26.035
-25.717
-25.383
-25.033
-24.669
-24.294
-23.909
-23.516
-23.117
-22.713
-22.308
-21.902
-21.498
-21.098
-20.703
-20.316
-19.939
-19.574
-19.223
-18.89
-18.577
-18.287
-18.024
-17.789
-17.588
-17.423
-17.298
-17.217
-17.184
-17.202
-17.275
-17.406
-17.599
-17.857
-18.183
-18.578
-19.046
-19.588
-20.207
-20.902
-21.676
-22.528
-23.459
-24.468
-25.554
-26.715
-27.949
-29.254
-30.626
-32.061
-33.555
-35.103
-36.698
-38.334
-40.004
-41.699
-43.413
-45.134
-46.853
-48.56
-50.244
-51.893
-53.497
-55.044
-56.521
-57.919
-59.223
-60.424
-61.51
-62.469
-63.291
-63.966
-64.483
-64.835
-65.012
-65.009
-64.819
-64.437
-63.859
-63.083
-62.106
-60.928
-59.551
-57.975
-56.205
-54.245
-52.103
-49.786
-47.304
-44.668
-41.893
-38.994
-35.988
-32.892
-29.727
-26.512
-23.27
-20.021
-16.786
-13.586
-10.443
-7.378
-4.413
-1.573
1.122
3.65
5.991
8.127
10.039
11.712
13.138
14.305
15.205
15.827
16.155
16.174
15.873
15.245
14.286
13.003
11.403
9.505
7.341
4.944
2.354
-0.393
-3.264
-6.227
-9.241
-12.259
-15.217
-18.052
-20.71
-23.138
-25.297
-27.174
-28.758
-30.074
-31.18
-32.132
-32.998
-33.864
-34.794
-35.879
-37.22
-38.894
-41.014
-43.727
-47.112
-51.19
-55.879
-60.893
-65.905
-70.622
-74.65
-77.561
-79.05
-78.921
-77.329
-74.922
-72.46
-70.575
-69.797
-70.593
-73.264
-77.851
-83.737
-88.703
-89.542
-83.464
-68.477
-45.005
-14.744
22.142
66.784
122.971
194.525
282.028
383.35
491.859
599.074
695.614
770.832
815.413
821.379
785.783
711.603
607.213
485.952
361.494
246.952
152.565
83.882
42.017
23.757
23.05
31.973
43.665
51.675
51.312
42.274
26.385
8.784
-5.267
-14.224
-18.978
-22.838
-28.293
-34.999
-41.516
-46.24
-48.722
-49.896
-50.521
-50.727
-50.586
-50.286
-50.097
-50.261
-50.683
-50.847
-50.554
-50.123
-49.758
-49.579
-49.639
-49.811
-50.115
-50.768
-51.759
-52.853
-53.869
-54.614
-54.984
-55.013
-54.665
-53.871
-52.652
-51.078
-49.245
-47.252
-45.126
-42.846
-40.414
-37.853
-35.203
-32.518
-29.827
-27.154
-24.53
-21.988
-19.573
-17.304
-15.178
-13.162
-11.218
-9.325
-7.492
-5.746
-4.101
-2.563
-1.129
0.205
1.432
2.552
3.575
4.523
5.421
6.286
7.124
7.931
8.701
9.442
10.175
10.928
11.723
12.581
13.52
14.562
15.73
17.046
18.519
20.153
21.952
23.92
26.064
28.393
30.912
33.621
36.518
39.598
42.858
46.289
49.883
53.629
57.513
61.522
65.642
69.862
74.168
78.546
82.978
87.447
91.935
96.425
100.897
105.33
109.703
113.996
118.188
122.26
126.192
129.964
133.557
136.954
140.136
143.089
145.796
148.245
150.422
152.317
153.921
155.225
156.224
156.912
157.288
157.349
157.097
156.532
155.659
154.483
153.008
151.244
149.2
146.885
144.311
141.491
138.439
135.171
131.703
128.052
124.237
120.276
116.189
111.996
107.717
103.372
98.982
94.567
90.146
85.74
81.368
77.047
72.794
68.627
64.561
60.609
56.786
53.102
49.569
46.195
42.989
39.957
37.105
34.438
31.957
29.665
27.562
25.647
23.918
22.372
21.004
19.808
18.78
17.909
17.19
16.612
16.166
15.841
15.627
15.511
15.484
15.533
15.646
15.814
16.024
16.266
16.531
16.808
17.089
17.366
17.63
17.875
18.095
18.284
18.439
18.554
18.628
18.658
18.643
18.582
18.474
18.322
18.126
17.889
17.612
17.3
16.956
16.584
16.19
15.778
15.354
14.925
14.494
14.069
13.655
13.258
12.882
12.532
12.214
11.931
11.687
11.485
11.329
11.219
11.158
11.147
11.185
11.274
11.412
11.598
11.831
12.107
12.426
12.783
13.176
13.6
14.053
14.528
15.023
15.531
16.047
16.567
17.084
17.594
18.092
18.572
19.029
19.46
19.86
20.224
20.55
20.835
21.075
21.269
21.415
21.512
21.559
21.556
21.504
21.403
21.255
21.06
20.822
20.541
20.221
19.864
19.473
19.052
18.603
18.131
17.638
17.129
16.608
16.078
15.542
15.003
14.465
13.93
13.399
12.876
12.361
11.857
11.362
10.878
10.405
9.943
9.49
9.045
8.607
8.172
7.74
7.308
6.872
6.43
5.978
5.513
5.032
4.532
4.009
3.46
2.882
2.271
1.624
0.94
0.216
-0.549
-1.358
-2.208
-3.099
-4.029
-4.996
-5.998
-7.031
-8.09
-9.171
-10.271
-11.384
-12.506
-13.63
-14.75
-15.856
-16.941
-17.997
-19.012
-19.977
-20.881
-21.712
-22.461
-23.118
-23.673
-24.115
-24.431
-24.606
-24.63
-24.498
-24.205
-23.75
-23.136
-22.366
-21.454
-20.42
-19.276
-18.039
-16.72
-15.325
-13.871
-12.371
-10.836
-9.283
-7.721
-6.144
-4.551
-2.933
-1.265
0.474
2.316
4.304
6.461
8.801
11.334
14.049
16.941
19.999
23.191
26.491
29.861
33.241
36.569
39.772
42.74
45.375
47.58
49.241
50.276
50.628
50.244
49.113
47.241
44.641
41.357
37.44
32.941
27.943
22.54
16.843
11.007
5.17
-0.537
-5.971
-11.02
-15.599
-19.641
-23.131
-26.108
-28.613
-30.705
-32.445
-33.881
-35.094
-36.194
-37.304
-38.567
-40.101
-42.024
-44.499
-47.636
-51.435
-55.749
-60.223
-64.402
-67.867
-70.155
-70.747
-69.249
-65.497
-59.756
-52.773
-45.464
-38.704
-33.298
-29.994
-29.301
-31.154
-34.446
-37.21
-37.055
-31.253
-17.132
7.884
46.393
99.274
164.65
239.823
321.281
406.717
496.612
589.64
681.289
763.075
822.805
849.114
835.052
780.407
690.107
574.081
445.988
318.756
206.176
118.795
58.888
23.997
5.528
-7.091
-18.473
-29.45
-37.249
-37.753
-31.076
-19.8
-7.147
3.83
12.108
17.68
20.388
20.237
17.344
12.116
5.428
-2.087
-9.904
-17.334
-23.897
-29.109
-32.643
-34.614
-35.378
-35.264
-34.747
-34.434
-34.691
-35.837
-38.061
-41.264
-45.304
-49.998
-55.027
-60.024
-64.723
-68.91
-72.474
-75.422
-77.748
-79.462
-80.612
-81.254
-81.447
-81.241
-80.67
-79.754
-78.527
-77.034
-75.332
-73.486
-71.553
-69.583
-67.614
-65.671
-63.774
-61.936
-60.163
-58.458
-56.819
-55.24
-53.721
-52.261
-50.858
-49.509
-48.206
-46.938
-45.696
-44.471
-43.256
-42.044
-40.832
-39.611
-38.38
-37.131
-35.863
-34.569
-33.246
-31.884
-30.478
-29.019
-27.499
-25.912
-24.252
-22.51
-20.681
-18.759
-16.74
-14.62
-12.394
-10.061
-7.618
-5.063
-2.396
0.382
3.27
6.265
9.364
12.561
15.852
19.229
22.685
26.21
29.796
33.432
37.107
40.809
44.525
48.241
51.948
55.632
59.282
62.882
66.416
69.869
73.235
76.496
79.625
82.599
85.395
87.999
90.418
92.643
94.643
96.424
98.023
99.464
100.778
101.961
102.954
103.742
104.376
104.786
104.752
104.223
103.272
101.888
100.299
98.067
93.879
88.053
81.85
77.342
78.359
84.635
92.357
97.74
95.25
84.443
70.555
57.576
49.798
48.24
48.377
47.192
44.044
38.748
34.649
34.577
36.162
37.922
37.319
31.131
22.389
13.547
6.208
3.081
2.254
1.773
1.198
-0.678
-3.197
-5.479
-7.677
-9.672
-11.526
-13.421
-15.243
-16.9
-18.421
-19.817
-21.083
-22.228
-23.265
-24.201
-25.061
-25.87
-26.626
-27.326
-27.981
-28.594
-29.173
-29.723
-30.248
-30.748
-31.23
-31.699
-32.157
-32.607
-33.051
-33.492
-33.929
-34.365
-34.799
-35.232
-35.662
-36.091
-36.516
-36.936
-37.35
-37.755
-38.151
-38.534
-38.903
-39.256
-39.59
-39.904
-40.196
-40.463
-40.705
-40.92
-41.107
-41.266
-41.395
-41.494
-41.565
-41.606
-41.62
-41.606
-41.568
-41.505
-41.421
-41.317
-41.196
-41.061
-40.915
-40.76
-40.6
-40.438
-40.278
-40.124
-39.977
-39.843
-39.725
-39.625
-39.547
-39.495
-39.47
-39.476
-39.515
-39.589
-39.699
-39.849
-40.038
-40.267
-40.538
-40.85
-41.203
-41.597
-42.03
-42.502
-43.01
-43.554
-44.131
-44.738
-45.374
-46.034
-46.716
-47.417
-48.133
-48.859
-49.593
-50.329
-51.064
-51.794
-52.514
-53.221
-53.909
-54.576
-55.217
-55.829
-56.409
-56.954
-57.46
-57.926
-58.35
-58.73
-59.066
-59.356
-59.601
-59.799
-59.952
-60.059
-60.122
-60.141
-60.119
-60.058
-59.959
-59.825
-59.66
-59.467
-59.25
-59.012
-58.759
-58.495
-58.227
-57.958
-57.694
-57.442
-57.207
-56.994
-56.809
-56.657
-56.541
-56.467
-56.436
-56.452
-56.516
-56.628
-56.789
-57.001
-57.261
-57.57
-57.926
-58.329
-58.779
-59.274
-59.812
-60.388
-60.997
-61.636
-62.297
-62.975
-63.66
-64.343
-65.015
-65.664
-66.283
-66.861
-67.383
-67.837
-68.203
-68.47
-68.63
-68.674
-68.598
-68.403
-68.089
-67.667
-67.153
-66.556
-65.887
-65.152
-64.351
-63.493
-62.583
-61.624
-60.625
-59.586
-58.498
-57.349
-56.126
-54.795
-53.329
-51.69
-49.828
-47.715
-45.331
-42.663
-39.717
-36.497
-33.019
-29.315
-25.418
-21.368
-17.23
-13.068
-8.965
-5.029
-1.36
1.939
4.752
6.993
8.586
9.464
9.586
8.926
7.471
5.238
2.256
-1.437
-5.768
-10.652
-15.981
-21.61
-27.403
-33.232
-38.96
-44.482
-49.707
-54.533
-58.872
-62.65
-65.795
-68.281
-70.138
-71.374
-71.994
-72.086
-71.79
-71.373
-71.231
-71.607
-72.55
-74.111
-76.338
-79.179
-82.531
-85.941
-88.462
-89.425
-88.578
-85.82
-81.262
-75.133
-67.676
-59.682
-52.835
-48.769
-48.525
-52.652
-61.223
-73.176
-87.286
-102.782
-116.94
-128.006
-134.686
-132.06
-116.627
-84.721
-32.362
38.015
121.9
213.387
305.425
394.554
478.974
558.838
633.145
697.603
746.619
770.383
760.635
714.877
633.045
522.647
397.16
269.635
156.304
70.739
16.622
-7.839
-12.395
-10.745
-9.854
-12.214
-16.207
-17.387
-15.461
-12.647
-11.133
-13.279
-19.264
-27.678
-37.288
-46.686
-54.634
-60.396
-63.614
-64.383
-63.197
-60.705
-57.52
-54.222
-51.362
-49.387
-48.534
-48.842
-50.21
-52.462
-55.432
-58.977
-62.944
-67.176
-71.543
-75.937
-80.245
-84.366
-88.186
-91.586
-94.484
-96.837
-98.622
-99.842
-100.521
-100.689
-100.391
-99.686
-98.625
-97.263
-95.651
-93.838
-91.881
-89.838
-87.766
-85.721
-83.745
-81.862
-80.09
-78.436
-76.9
-75.477
-74.159
-72.928
-71.773
-70.686
-69.657
-68.68
-67.744
-66.838
-65.951
-65.07
-64.184
-63.284
-62.36
-61.403
-60.405
-59.358
-58.257
-57.095
-55.864
-54.556
-53.164
-51.676
-50.086
-48.386
-46.568
-44.625
-42.551
-40.342
-37.995
-35.508
-32.878
-30.106
-27.193
-24.14
-20.949
-17.623
-14.166
-10.584
-6.882
-3.066
0.856
4.877
8.988
13.178
17.439
21.758
26.124
30.526
34.951
39.386
43.818
48.233
52.617
56.955
61.233
65.436
69.548
73.555
77.442
81.194
84.799
88.241
91.509
94.589
97.469
100.139
102.586
104.802
106.777
108.502
109.97
111.173
112.107
112.769
113.152
113.255
113.075
112.611
111.866
110.842
109.54
107.962
106.118
104.021
101.683
99.119
96.335
93.328
90.121
86.738
83.168
79.408
75.46
71.318
67.017
62.611
58.096
53.454
48.798
44.26
39.789
35.409
31.159
26.811
23.039
20.497
18.286
16.143
12.404
5.074
-3.614
-12.17
-18.381
-19.209
-17.327
-15.001
-13.782
-16.239
-20.531
-24.794
-28.615
-30.859
-32.188
-33.454
-34.5
-35.44
-36.224
-36.688
-36.953
-37.118
-37.162
-37.091
-36.924
-36.67
-36.333
-35.922
-35.43
-34.848
-34.195
-33.488
-32.733
-31.941
-31.119
-30.274
-29.417
-28.556
-27.697
-26.844
-26.005
-25.182
-24.382
-23.607
-22.861
-22.148
-21.47
-20.827
-20.223
-19.657
-19.13
-18.64
-18.188
-17.772
-17.39
-17.04
-16.718
-16.423
-16.152
-15.901
-15.668
-15.449
-15.242
-15.044
-14.853
-14.666
-14.482
-14.299
-14.116
-13.931
-13.745
-13.556
-13.363
-13.168
-12.968
-12.766
-12.56
-12.35
-12.138
-11.924
-11.707
-11.49
-11.272
-11.055
-10.841
-10.63
-10.425
-10.226
-10.037
-9.859
-9.694
-9.545
-9.412
-9.299
-9.207
-9.137
-9.09
-9.068
-9.069
-9.095
-9.146
-9.22
-9.317
-9.436
-9.577
-9.738
-9.919
-10.117
-10.333
-10.565
-10.813
-11.076
-11.352
-11.642
-11.946
-12.262
-12.592
-12.934
-13.289
-13.657
-14.037
-14.43
-14.835
-15.254
-15.685
-16.129
-16.588
-17.061
-17.551
-18.057
-18.584
-19.131
-19.702
-20.298
-20.923
-21.579
-22.268
-22.994
-23.758
-24.562
-25.409
-26.301
-27.238
-28.221
-29.251
-30.327
-31.449
-32.615
-33.823
-35.071
-36.355
-37.672
-39.018
-40.389
-41.779
-43.184
-44.597
-46.014
-47.427
-48.829
-50.213
-51.572
-52.897
-54.179
-55.409
-56.579
-57.678
-58.698
-59.628
-60.46
-61.184
-61.792
-62.273
-62.621
-62.827
-62.884
-62.787
-62.529
-62.106
-61.516
-60.756
-59.826
-58.725
-57.456
-56.021
-54.423
-52.668
-50.76
-48.708
-46.519
-44.201
-41.766
-39.224
-36.587
-33.871
-31.091
-28.263
-25.405
-22.535
-19.673
-16.841
-14.061
-11.353
-8.737
-6.231
-3.856
-1.63
0.427
2.298
3.969
5.428
6.661
7.656
8.4
8.884
9.108
9.077
8.792
8.253
7.453
6.387
5.054
3.457
1.601
-0.512
-2.879
-5.489
-8.312
-11.312
-14.445
-17.664
-20.941
-24.253
-27.57
-30.859
-34.056
-37.076
-39.86
-42.356
-44.525
-46.363
-47.836
-48.874
-49.537
-49.979
-50.37
-50.93
-51.736
-52.664
-53.712
-55.06
-56.759
-58.718
-60.75
-62.384
-63.404
-64.093
-64.548
-64.574
-64.047
-62.877
-61.157
-59.681
-59.135
-59.431
-60.772
-63.609
-68.124
-74.888
-83.57
-91.688
-96.848
-97.471
-93.437
-87.398
-80.563
-70.459
-50.844
-12.418
50.016
135.468
237.569
346.163
454.907
560.362
657.572
739.974
795.677
811.718
783.602
713.884
612.435
493.666
367.042
241.647
126.502
28.271
-43.477
-85.135
-98.933
-87.915
-61.842
-29.115
2.696
22.746
27.634
18.111
-1.368
-20.576
-34.756
-43.467
-48.203
-53.472
-60.283
-67.413
-73.895
-77.934
-78.946
-77.326
-73.399
-68.076
-62.513
-57.315
-52.787
-49.053
-46.074
-44.01
-43.032
-43.05
-43.77
-44.897
-46.251
-47.775
-49.513
-51.451
-53.502
-55.577
-57.611
-59.583
-61.473
-63.245
-64.822
-66.11
-67.056
-67.646
-67.899
-67.852
-67.52
-66.905
-65.996
-64.784
-63.278
-61.507
-59.501
-57.277
-54.856
-52.268
-49.56
-46.806
-44.058
-41.34
-38.664
-36.027
-33.437
-30.911
-28.465
-26.107
-23.843
-21.671
-19.592
-17.611
-15.722
-13.913
-12.159
-10.425
-8.683
-6.919
-5.122
-3.286
-1.403
0.539
2.546
4.623
6.775
9.009
11.336
13.767
16.31
18.966
21.734
24.607
27.583
30.66
33.84
37.126
40.517
44.011
47.605
51.292
55.061
58.895
62.766
66.642
70.503
74.331
78.116
81.858
85.553
89.201
92.803
96.35
99.836
103.261
106.613
109.889
113.098
116.255
119.392
122.552
125.754
129.002
132.29
135.583
138.847
142.038
145.092
147.962
150.61
152.993
155.09
156.877
158.312
159.35
159.927
159.966
159.42
158.261
156.476
154.085
151.121
147.636
143.713
139.424
134.827
129.974
124.902
119.64
114.24
108.753
103.236
97.768
92.405
87.192
82.17
77.354
72.744
68.327
64.06
59.906
55.846
51.867
47.967
44.151
40.415
36.757
33.177
29.665
26.211
22.813
19.461
16.159
12.918
9.753
6.694
3.767
0.988
-1.631
-4.085
-6.373
-8.494
-10.452
-12.254
-13.905
-15.408
-16.766
-17.981
-19.053
-19.99
-20.799
-21.487
-22.066
-22.541
-22.921
-23.212
-23.418
-23.545
-23.596
-23.573
-23.477
-23.314
-23.088
-22.804
-22.467
-22.085
-21.662
-21.205
-20.721
-20.215
-19.692
-19.156
-18.613
-18.068
-17.523
-16.984
-16.453
-15.936
-15.435
-14.953
-14.495
-14.064
-13.662
-13.292
-12.958
-12.662
-12.406
-12.194
-12.028
-11.909
-11.84
-11.823
-11.859
-11.948
-12.091
-12.287
-12.535
-12.834
-13.182
-13.575
-14.012
-14.488
-15.002
-15.548
-16.125
-16.728
-17.354
-17.999
-18.66
-19.332
-20.012
-20.698
-21.384
-22.068
-22.746
-23.415
-24.072
-24.713
-25.335
-25.935
-26.51
-27.057
-27.573
-28.056
-28.505
-28.917
-29.291
-29.628
-29.928
-30.19
-30.416
-30.608
-30.768
-30.897
-31
-31.078
-31.135
-31.174
-31.199
-31.214
-31.222
-31.228
-31.233
-31.243
-31.26
-31.288
-31.33
-31.389
-31.469
-31.572
-31.701
-31.86
-32.052
-32.279
-32.543
-32.848
-33.195
-33.586
-34.021
-34.502
-35.029
-35.601
-36.218
-36.878
-37.579
-38.319
-39.094
-39.903
-40.74
-41.601
-42.483
-43.379
-44.286
-45.198
-46.11
-47.017
-47.913
-48.794
-49.654
-50.489
-51.294
-52.062
-52.79
-53.472
-54.101
-54.674
-55.183
-55.625
-55.993
-56.285
-56.494
-56.619
-56.654
-56.598
-56.448
-56.202
-55.858
-55.417
-54.877
-54.24
-53.507
-52.681
-51.765
-50.762
-49.676
-48.513
-47.278
-45.977
-44.614
-43.197
-41.731
-40.224
-38.683
-37.116
-35.532
-33.94
-32.352
-30.779
-29.235
-27.732
-26.282
-24.899
-23.595
-22.382
-21.27
-20.267
-19.385
-18.63
-18.014
-17.547
-17.234
-17.083
-17.099
-17.286
-17.648
-18.185
-18.891
-19.762
-20.794
-21.988
-23.35
-24.887
-26.601
-28.489
-30.548
-32.771
-35.146
-37.653
-40.255
-42.915
-45.593
-48.253
-50.871
-53.415
-55.848
-58.124
-60.189
-61.994
-63.501
-64.679
-65.502
-65.962
-66.071
-65.869
-65.424
-64.814
-64.13
-63.468
-62.924
-62.597
-62.568
-62.932
-63.828
-65.368
-67.593
-70.433
-73.676
-77.074
-80.415
-83.414
-85.661
-86.778
-86.521
-85.011
-82.786
-80.394
-78.39
-77.392
-78.03
-81.027
-86.059
-91.15
-94.134
-92.875
-87.74
-81.817
-75.207
-65.257
-44.555
-2.453
63.822
150.852
249.171
345.332
434.824
516.886
590.491
654.667
697.999
706.513
672.869
593.177
475.716
338.322
197.388
72.973
-19.594
-77.695
-102.626
-105.455
-100.956
-94.7
-90.925
-88.394
-82.499
-74.98
-66.062
-56.314
-47.386
-37.844
-28.64
-21.301
-16.441
-14.913
-15.546
-17.364
-20.55
-25.031
-31.016
-38.16
-45.084
-51.035
-55.898
-59.474
-61.741
-62.711
-62.279
-60.811
-59.16
-57.83
-57.033
-56.89
-57.257
-58.003
-59.08
-60.252
-61.19
-61.717
-61.755
-61.306
-60.496
-59.419
-58.147
-56.811
-55.501
-54.266
-53.12
-52.027
-50.963
-49.944
-48.994
-48.137
-47.39
-46.746
-46.205
-45.772
-45.434
-45.167
-44.924
-44.637
-44.277
-43.837
-43.332
-42.802
-42.267
-41.732
-41.203
-40.686
-40.181
-39.69
-39.204
-38.698
-38.163
-37.595
-36.999
-36.395
-35.784
-35.153
-34.484
-33.747
-32.918
-31.977
-30.904
-29.675
-28.275
-26.69
-24.915
-22.954
-20.808
-18.472
-15.942
-13.213
-10.281
-7.15
-3.822
-0.304
3.398
7.275
11.316
15.507
19.836
24.29
28.855
33.521
38.275
43.1
47.982
52.902
57.844
62.79
67.719
72.61
77.445
82.202
86.862
91.405
95.812
100.065
104.145
108.035
111.718
115.179
118.402
121.374
124.08
126.51
128.652
130.498
132.039
133.268
134.182
134.775
135.046
134.994
134.619
133.925
132.914
131.592
129.965
128.04
125.828
123.339
120.584
117.577
114.332
110.865
107.189
103.324
99.284
95.088
90.754
86.3
81.744
77.105
72.401
67.651
62.872
58.082
53.3
48.541
43.823
39.16
34.567
30.06
25.65
21.35
17.171
13.124
9.217
5.459
1.856
-1.586
-4.864
-7.972
-10.91
-13.676
-16.269
-18.691
-20.943
-23.027
-24.947
-26.706
-28.309
-29.761
-31.068
-32.236
-33.271
-34.18
-34.971
-35.651
-36.228
-36.709
-37.103
-37.417
-37.658
-37.836
-37.958
-38.03
-38.06
-38.055
-38.021
-37.965
-37.891
-37.806
-37.713
-37.617
-37.522
-37.431
-37.347
-37.272
-37.209
-37.158
-37.123
-37.103
-37.099
-37.112
-37.143
-37.19
-37.255
-37.335
-37.432
-37.544
-37.669
-37.808
-37.958
-38.118
-38.286
-38.463
-38.644
-38.83
-39.018
-39.208
-39.396
-39.583
-39.766
-39.945
-40.117
-40.282
-40.44
-40.588
-40.726
-40.854
-40.971
-41.076
-41.169
-41.25
-41.317
-41.37
-41.41
-41.435
-41.446
-41.442
-41.422
-41.388
-41.339
-41.274
-41.193
-41.098
-40.986
-40.859
-40.716
-40.557
-40.383
-40.193
-39.988
-39.769
-39.534
-39.286
-39.024
-38.75
-38.463
-38.165
-37.858
-37.541
-37.217
-36.886
-36.551
-36.214
-35.876
-35.539
-35.205
-34.877
-34.557
-34.247
-33.949
-33.666
-33.401
-33.155
-32.932
-32.733
-32.563
-32.422
-32.315
-32.243
-32.209
-32.214
-32.262
-32.353
-32.49
-32.673
-32.903
-33.182
-33.509
-33.884
-34.307
-34.776
-35.29
-35.847
-36.443
-37.075
-37.74
-38.433
-39.15
-39.888
-40.64
-41.403
-42.17
-42.935
-43.694
-44.438
-45.161
-45.856
-46.515
-47.13
-47.697
-48.209
-48.659
-49.04
-49.343
-49.561
-49.686
-49.713
-49.636
-49.447
-49.141
-48.716
-48.169
-47.504
-46.719
-45.815
-44.789
-43.64
-42.371
-40.989
-39.504
-37.925
-36.26
-34.52
-32.714
-30.857
-28.96
-27.034
-25.085
-23.119
-21.145
-19.178
-17.24
-15.357
-13.545
-11.809
-10.137
-8.512
-6.934
-5.424
-4.011
-2.715
-1.541
-0.479
0.448
1.168
1.659
1.989
2.325
2.854
3.62
4.473
5.218
5.793
6.115
5.974
4.955
2.548
-1.439
-6.7
-12.682
-19.009
-25.399
-31.509
-36.778
-40.449
-42.125
-42.042
-40.824
-38.952
-36.705
-34.307
-32.097
-30.64
-30.295
-30.943
-32.134
-33.502
-34.892
-36.286
-37.691
-38.97
-40.011
-40.961
-42.174
-43.961
-46.444
-49.519
-52.899
-56.341
-59.672
-62.612
-64.732
-65.63
-65.147
-63.613
-61.709
-60.099
-59.394
-60.105
-62.786
-68.162
-75.777
-83.345
-88.43
-88.375
-82.298
-72.965
-61.533
-46.793
-25.513
10.569
68.114
148.627
250.841
366.9
484.959
593.078
677.791
727.475
734.94
698.41
621.802
514.618
390.236
262.278
145.227
50.788
-15.416
-52.794
-67.359
-67.134
-57.247
-41.039
-19.903
3.03
20.541
26.966
20.017
2.722
-16.446
-31.549
-40.284
-43.586
-45.626
-48.196
-51.044
-53.574
-54.384
-53.344
-51.328
-48.944
-46.848
-45.515
-44.994
-45.286
-46.358
-48.042
-50.213
-52.791
-55.68
-58.776
-61.991
-65.245
-68.469
-71.606
-74.588
-77.326
-79.732
-81.746
-83.345
-84.522
-85.286
-85.653
-85.641
-85.28
-84.615
-83.683
-82.527
-81.184
-79.687
-78.078
-76.398
-74.691
-73
-71.356
-69.776
-68.272
-66.847
-65.502
-64.234
-63.037
-61.897
-60.803
-59.749
-58.725
-57.726
-56.743
-55.764
-54.78
-53.778
-52.748
-51.682
-50.571
-49.407
-48.182
-46.889
-45.523
-44.079
-42.551
-40.933
-39.218
-37.4
-35.473
-33.43
-31.267
-28.979
-26.562
-24.014
-21.332
-18.517
-15.568
-12.487
-9.277
-5.94
-2.481
1.095
4.78
8.569
12.452
16.42
20.465
24.574
28.736
32.94
37.172
41.42
45.668
49.904
54.113
58.28
62.39
66.429
70.381
74.232
77.966
81.569
85.025
88.32
91.441
94.373
97.104
99.622
101.915
103.974
105.789
107.352
108.655
109.692
110.458
110.949
111.163
111.096
110.75
110.125
109.223
108.048
106.604
104.898
102.935
100.725
98.277
95.6
92.707
89.608
86.317
82.849
79.217
75.437
71.524
67.497
63.371
59.163
54.891
50.571
46.222
41.859
37.5
33.159
28.854
24.599
20.408
16.296
12.274
8.356
4.552
0.872
-2.674
-6.078
-9.335
-12.437
-15.38
-18.16
-20.774
-23.222
-25.501
-27.612
-29.556
-31.336
-32.954
-34.414
-35.722
-36.883
-37.903
-38.788
-39.546
-40.183
-40.709
-41.129
-41.453
-41.689
-41.844
-41.926
-41.944
-41.905
-41.816
-41.684
-41.517
-41.319
-41.097
-40.856
-40.602
-40.337
-40.066
-39.793
-39.521
-39.252
-38.988
-38.73
-38.482
-38.242
-38.011
-37.79
-37.578
-37.373
-37.176
-36.984
-36.797
-36.612
-36.427
-36.242
-36.054
-35.861
-35.662
-35.453
-35.234
-35.003
-34.758
-34.499
-34.223
-33.931
-33.622
-33.295
-32.951
-32.59
-32.212
-31.818
-31.409
-30.985
-30.548
-30.1
-29.64
-29.172
-28.696
-28.214
-27.729
-27.242
-26.756
-26.271
-25.792
-25.319
-24.855
-24.402
-23.963
-23.539
-23.132
-22.745
-22.38
-22.038
-21.721
-21.43
-21.167
-20.932
-20.727
-20.551
-20.405
-20.289
-20.202
-20.146
-20.118
-20.119
-20.148
-20.204
-20.286
-20.394
-20.528
-20.684
-20.864
-21.066
-21.289
-21.531
-21.793
-22.073
-22.37
-22.683
-23.01
-23.352
-23.706
-24.071
-24.446
-24.831
-25.224
-25.625
-26.032
-26.446
-26.866
-27.291
-27.721
-28.156
-28.596
-29.041
-29.491
-29.945
-30.404
-30.867
-31.334
-31.805
-32.278
-32.752
-33.227
-33.7
-34.171
-34.636
-35.095
-35.546
-35.985
-36.41
-36.819
-37.21
-37.579
-37.923
-38.239
-38.524
-38.774
-38.986
-39.155
-39.278
-39.35
-39.367
-39.327
-39.223
-39.052
-38.81
-38.493
-38.098
-37.62
-37.057
-36.406
-35.665
-34.832
-33.907
-32.889
-31.779
-30.577
-29.287
-27.91
-26.449
-24.909
-23.293
-21.606
-19.855
-18.045
-16.185
-14.281
-12.345
-10.386
-8.418
-6.451
-4.5
-2.578
-0.699
1.124
2.877
4.55
6.129
7.603
8.958
10.181
11.261
12.186
12.946
13.531
13.935
14.15
14.177
14.016
13.665
13.124
12.383
11.435
10.276
8.9
7.309
5.509
3.509
1.325
-1.013
-3.473
-6.019
-8.615
-11.233
-13.841
-16.401
-18.873
-21.2
-23.326
-25.202
-26.783
-28.033
-28.943
-29.514
-29.771
-29.77
-29.558
-29.202
-28.796
-28.424
-28.177
-28.144
-28.39
-29.041
-30.287
-32.237
-34.892
-38.129
-41.664
-45.224
-48.586
-51.382
-53.107
-53.399
-52.191
-49.811
-46.904
-44.187
-42.336
-42.031
-44.09
-48.332
-53.168
-56.782
-57.729
-56.84
-56.308
-55.586
-50.053
-30.402
12.199
79.173
164.924
257.99
348.343
433.949
515.937
594.971
666.334
717.227
735.281
714.688
658.016
575.907
479.077
374.692
268.473
165.237
73.49
3.731
-38.326
-51.544
-41.668
-19.708
5.132
24.329
32.492
29.905
18.913
5.151
-5.865
-12.539
-15.537
-17.876
-21.82
-27.088
-32.366
-35.895
-36.984
-36.163
-34.164
-31.715
-29.311
-27.245
-25.849
-25.345
-25.734
-26.921
-28.76
-31.111
-33.88
-36.963
-40.219
-43.535
-46.834
-50.031
-53.052
-55.812
-58.208
-60.18
-61.7
-62.752
-63.344
-63.499
-63.24
-62.613
-61.671
-60.46
-59.029
-57.422
-55.68
-53.852
-51.99
-50.142
-48.356
-46.669
-45.101
-43.668
-42.378
-41.23
-40.221
-39.341
-38.576
-37.914
-37.345
-36.859
-36.448
-36.101
-35.803
-35.542
-35.304
-35.075
-34.842
-34.594
-34.318
-34.003
-33.638
-33.213
-32.72
-32.146
-31.482
-30.715
-29.835
-28.83
-27.693
-26.412
-24.981
-23.391
-21.639
-19.72
-17.631
-15.372
-12.941
-10.341
-7.572
-4.64
-1.548
1.697
5.089
8.619
12.279
16.059
19.947
23.933
28.003
32.144
36.342
40.582
44.849
49.126
53.398
57.648
61.858
66.013
70.093
74.084
77.968
81.728
85.349
88.814
92.11
95.223
98.139
100.847
103.334
105.592
107.611
109.383
110.901
112.159
113.153
113.879
114.335
114.519
114.43
114.07
113.442
112.547
111.391
109.98
108.32
106.419
104.288
101.935
99.372
96.611
93.665
90.548
87.274
83.858
80.315
76.662
72.914
69.087
65.199
61.264
57.3
53.32
49.342
45.378
41.443
37.551
33.715
29.946
26.257
22.658
19.159
15.77
12.498
9.35
6.333
3.452
0.711
-1.887
-4.339
-6.645
-8.804
-10.817
-12.684
-14.409
-15.994
-17.443
-18.762
-19.955
-21.029
-21.989
-22.843
-23.598
-24.26
-24.837
-25.335
-25.763
-26.126
-26.431
-26.685
-26.894
-27.065
-27.201
-27.31
-27.395
-27.461
-27.512
-27.551
-27.582
-27.606
-27.627
-27.646
-27.665
-27.685
-27.708
-27.733
-27.762
-27.794
-27.829
-27.866
-27.903
-27.941
-27.977
-28.01
-28.038
-28.059
-28.073
-28.077
-28.07
-28.052
-28.021
-27.976
-27.916
-27.842
-27.754
-27.651
-27.534
-27.404
-27.261
-27.108
-26.945
-26.774
-26.596
-26.412
-26.223
-26.031
-25.836
-25.64
-25.443
-25.247
-25.053
-24.861
-24.672
-24.488
-24.308
-24.135
-23.969
-23.811
-23.661
-23.52
-23.389
-23.268
-23.157
-23.056
-22.966
-22.885
-22.814
-22.751
-22.695
-22.646
-22.601
-22.559
-22.519
-22.48
-22.44
-22.399
-22.355
-22.308
-22.257
-22.203
-22.146
-22.084
-22.02
-21.953
-21.884
-21.814
-21.744
-21.675
-21.607
-21.542
-21.48
-21.422
-21.37
-21.324
-21.286
-21.256
-21.235
-21.225
-21.229
-21.247
-21.282
-21.336
-21.411
-21.509
-21.633
-21.785
-21.966
-22.178
-22.423
-22.701
-23.014
-23.363
-23.748
-24.168
-24.625
-25.117
-25.643
-26.203
-26.795
-27.417
-28.068
-28.744
-29.446
-30.169
-30.913
-31.674
-32.451
-33.238
-34.035
-34.836
-35.637
-36.432
-37.218
-37.988
-38.735
-39.455
-40.138
-40.78
-41.374
-41.914
-42.394
-42.807
-43.148
-43.41
-43.59
-43.681
-43.676
-43.57
-43.356
-43.03
-42.589
-42.03
-41.351
-40.547
-39.618
-38.564
-37.388
-36.09
-34.668
-33.121
-31.445
-29.647
-27.741
-25.739
-23.65
-21.488
-19.266
-17.002
-14.721
-12.437
-10.156
-7.883
-5.622
-3.386
-1.199
0.916
2.938
4.854
6.664
8.361
9.928
11.357
12.646
13.797
14.827
15.724
16.453
16.98
17.275
17.32
17.113
16.648
15.917
14.907
13.598
11.988
10.088
7.904
5.441
2.702
-0.322
-3.603
-7.077
-10.681
-14.355
-18.045
-21.71
-25.3
-28.76
-32.038
-35.086
-37.872
-40.388
-42.639
-44.653
-46.456
-48.058
-49.487
-50.8
-52.073
-53.388
-54.821
-56.434
-58.269
-60.405
-62.985
-66.083
-69.648
-73.519
-77.354
-80.779
-83.495
-85.115
-85.13
-83.229
-79.399
-73.939
-67.574
-61.165
-55.532
-51.589
-50.267
-51.344
-53.273
-54.349
-53.003
-49.648
-45.898
-40.777
-29.715
-4.838
40.909
109.132
194.694
288.266
382.225
471.738
554.638
627.785
683.935
715.494
715.006
680.595
615.597
524.132
416.314
302.41
194.204
107.21
47.537
15.085
3.61
-0.649
-4.94
-10.898
-17.633
-20.417
-18.502
-14.858
-11.951
-12.272
-16.528
-23.542
-32.113
-41.136
-49.422
-55.934
-60.179
-62.082
-61.883
-60.15
-57.428
-54.172
-50.969
-48.392
-46.743
-46.146
-46.564
-47.825
-49.804
-52.399
-55.464
-58.84
-62.391
-66.002
-69.592
-73.084
-76.384
-79.385
-81.981
-84.101
-85.713
-86.803
-87.383
-87.472
-87.097
-86.3
-85.135
-83.654
-81.91
-79.951
-77.823
-75.578
-73.268
-70.948
-68.67
-66.473
-64.379
-62.405
-60.559
-58.842
-57.255
-55.791
-54.438
-53.186
-52.029
-50.96
-49.972
-49.06
-48.211
-47.415
-46.664
-45.946
-45.254
-44.579
-43.912
-43.247
-42.573
-41.883
-41.17
-40.422
-39.63
-38.784
-37.872
-36.886
-35.817
-34.658
-33.402
-32.043
-30.576
-28.994
-27.292
-25.463
-23.503
-21.407
-19.172
-16.795
-14.277
-11.618
-8.827
-5.908
-2.868
0.292
3.571
6.964
10.46
14.051
17.724
21.465
25.254
29.062
32.851
36.588
40.251
43.822
47.295
50.661
53.909
57.031
60.02
62.877
65.604
68.198
70.649
72.955
75.128
77.203
79.237
81.266
83.307
85.364
87.433
89.512
91.593
93.65
95.631
97.482
99.154
100.612
101.839
102.802
103.442
103.671
103.386
102.514
101.012
98.848
95.991
92.405
88.078
83.04
77.37
71.158
64.479
57.394
49.958
42.253
34.392
26.522
18.782
11.281
4.109
-2.652
-8.903
-14.538
-19.484
-23.715
-27.256
-30.142
-32.398
-34.037
-35.088
-35.609
-35.689
-35.44
-34.952
-34.288
-33.51
-32.677
-31.867
-31.17
-30.646
-30.322
-30.202
-30.282
-30.568
-31.07
-31.779
-32.663
-33.674
-34.752
-35.862
-36.987
-38.107
-39.203
-40.249
-41.211
-42.074
-42.84
-43.51
-44.085
-44.566
-44.946
-45.233
-45.448
-45.613
-45.751
-45.878
-45.997
-46.114
-46.232
-46.356
-46.488
-46.625
-46.758
-46.883
-46.998
-47.101
-47.192
-47.267
-47.32
-47.344
-47.334
-47.285
-47.195
-47.061
-46.882
-46.658
-46.39
-46.08
-45.733
-45.351
-44.935
-44.488
-44.012
-43.507
-42.978
-42.426
-41.855
-41.267
-40.666
-40.058
-39.446
-38.835
-38.23
-37.633
-37.049
-36.48
-35.931
-35.403
-34.9
-34.423
-33.975
-33.558
-33.173
-32.823
-32.507
-32.227
-31.984
-31.777
-31.606
-31.471
-31.372
-31.308
-31.279
-31.285
-31.323
-31.394
-31.496
-31.627
-31.785
-31.968
-32.172
-32.396
-32.634
-32.885
-33.146
-33.412
-33.682
-33.952
-34.219
-34.482
-34.739
-34.986
-35.222
-35.446
-35.657
-35.852
-36.031
-36.194
-36.339
-36.466
-36.574
-36.664
-36.734
-36.784
-36.815
-36.826
-36.817
-36.788
-36.742
-36.678
-36.599
-36.507
-36.404
-36.292
-36.175
-36.054
-35.934
-35.816
-35.703
-35.598
-35.504
-35.422
-35.355
-35.303
-35.269
-35.253
-35.256
-35.277
-35.316
-35.373
-35.447
-35.537
-35.641
-35.758
-35.887
-36.025
-36.17
-36.32
-36.471
-36.62
-36.762
-36.893
-37.007
-37.1
-37.164
-37.194
-37.183
-37.125
-37.011
-36.837
-36.594
-36.277
-35.878
-35.394
-34.817
-34.145
-33.372
-32.497
-31.516
-30.428
-29.234
-27.934
-26.529
-25.022
-23.414
-21.711
-19.916
-18.036
-16.076
-14.044
-11.949
-9.804
-7.621
-5.415
-3.202
-0.999
1.179
3.314
5.389
7.39
9.301
11.108
12.796
14.347
15.745
16.973
18.015
18.859
19.498
19.927
20.145
20.15
19.941
19.513
18.858
17.967
16.829
15.436
13.783
11.873
9.713
7.328
4.755
2.026
-0.835
-3.807
-6.881
-10.023
-13.17
-16.264
-19.24
-22.038
-24.623
-26.932
-28.85
-30.381
-31.623
-32.687
-33.747
-34.849
-35.852
-36.765
-37.747
-38.772
-39.696
-40.367
-40.54
-40.345
-40.328
-40.676
-41.226
-41.964
-42.946
-44.283
-46.207
-48.411
-50.122
-51.194
-52.051
-53.035
-54.577
-56.914
-60.029
-64.504
-70.229
-75.328
-77.844
-75.662
-68.754
-59.908
-49.08
-33.616
-7.575
37.578
104.491
190.547
289.543
392.864
494.807
589.993
671.867
732.29
761.62
755.372
714.118
642.797
551.628
449.744
346.286
252.566
176.442
122.11
89.282
70.519
57.167
44.452
30.977
19.279
12.804
11.486
13.087
14.669
13.655
9.597
3.261
-4.494
-12.7
-20.577
-27.4
-32.393
-35.225
-36.022
-35.154
-33.145
-30.495
-27.653
-25.086
-23.234
-22.329
-22.419
-23.434
-25.225
-27.655
-30.61
-33.953
-37.532
-41.22
-44.918
-48.521
-51.939
-55.072
-57.805
-60.063
-61.804
-63.007
-63.676
-63.835
-63.513
-62.753
-61.616
-60.154
-58.423
-56.476
-54.359
-52.128
-49.842
-47.556
-45.327
-43.197
-41.193
-39.336
-37.635
-36.093
-34.709
-33.474
-32.374
-31.398
-30.536
-29.78
-29.122
-28.551
-28.056
-27.622
-27.235
-26.883
-26.552
-26.232
-25.91
-25.575
-25.215
-24.822
-24.384
-23.893
-23.335
-22.699
-21.972
-21.144
-20.204
-19.141
-17.945
-16.61
-15.127
-13.491
-11.699
-9.748
-7.637
-5.365
-2.935
-0.348
2.391
5.278
8.305
11.466
14.752
18.153
21.661
25.263
28.948
32.702
36.513
40.367
44.249
48.144
52.036
55.91
59.75
63.54
67.264
70.905
74.447
77.874
81.172
84.324
87.316
90.136
92.769
95.203
97.429
99.435
101.214
102.756
104.057
105.109
105.91
106.454
106.741
106.768
106.536
106.046
105.299
104.299
103.05
101.557
99.827
97.865
95.681
93.283
90.681
87.886
84.909
81.763
78.461
75.015
71.441
67.752
63.963
60.091
56.148
52.151
48.115
44.054
39.982
35.914
31.862
27.839
23.858
19.931
16.067
12.277
8.571
4.957
1.443
-1.964
-5.257
-8.432
-11.484
-14.408
-17.204
-19.868
-22.399
-24.797
-27.063
-29.197
-31.202
-33.08
-34.834
-36.469
-37.989
-39.398
-40.702
-41.907
-43.019
-44.042
-44.984
-45.85
-46.645
-47.376
-48.047
-48.664
-49.231
-49.754
-50.235
-50.681
-51.093
-51.475
-51.83
-52.16
-52.467
-52.753
-53.019
-53.265
-53.493
-53.703
-53.894
-54.067
-54.221
-54.356
-54.47
-54.562
-54.632
-54.678
-54.698
-54.692
-54.657
-54.594
-54.501
-54.377
-54.221
-54.035
-53.817
-53.567
-53.287
-52.977
-52.637
-52.269
-51.874
-51.454
-51.01
-50.546
-50.063
-49.564
-49.052
-48.529
-47.998
-47.463
-46.925
-46.388
-45.855
-45.328
-44.811
-44.306
-43.816
-43.344
-42.891
-42.46
-42.052
-41.669
-41.311
-40.98
-40.676
-40.399
-40.149
-39.925
-39.728
-39.557
-39.41
-39.288
-39.189
-39.111
-39.053
-39.015
-38.993
-38.987
-38.995
-39.015
-39.046
-39.086
-39.134
-39.188
-39.247
-39.309
-39.373
-39.436
-39.499
-39.56
-39.617
-39.672
-39.723
-39.771
-39.817
-39.862
-39.907
-39.953
-40.003
-40.057
-40.118
-40.186
-40.263
-40.351
-40.45
-40.564
-40.691
-40.835
-40.996
-41.175
-41.372
-41.588
-41.824
-42.08
-42.355
-42.65
-42.965
-43.301
-43.657
-44.034
-44.43
-44.845
-45.279
-45.729
-46.193
-46.667
-47.148
-47.63
-48.109
-48.58
-49.038
-49.477
-49.894
-50.284
-50.644
-50.97
-51.256
-51.5
-51.697
-51.84
-51.926
-51.948
-51.902
-51.781
-51.579
-51.292
-50.916
-50.447
-49.88
-49.209
-48.425
-47.523
-46.502
-45.363
-44.11
-42.751
-41.296
-39.761
-38.17
-36.542
-34.899
-33.257
-31.629
-30.026
-28.458
-26.937
-25.476
-24.08
-22.743
-21.454
-20.194
-18.943
-17.679
-16.37
-14.975
-13.456
-11.79
-9.962
-7.973
-5.83
-3.552
-1.161
1.32
3.848
6.363
8.793
11.05
13.052
14.724
15.978
16.719
16.869
16.368
15.185
13.319
10.785
7.61
3.837
-0.487
-5.286
-10.462
-15.899
-21.459
-27.011
-32.442
-37.626
-42.439
-46.782
-50.578
-53.799
-56.472
-58.636
-60.336
-61.617
-62.53
-63.165
-63.646
-64.11
-64.7
-65.516
-66.661
-68.301
-70.553
-73.414
-76.731
-80.155
-83.292
-85.851
-87.507
-87.798
-86.371
-83.123
-78.376
-72.852
-67.238
-62.096
-57.955
-55.479
-55.404
-57.011
-57.848
-55.566
-47.595
-34.12
-18.617
-0.992
20.537
50.904
99.868
170.865
263.208
372.795
487.62
598.015
693.852
763.61
801.821
802.976
766.846
699.77
607.046
497.916
381.554
265.218
160.207
75.219
13.561
-24.008
-43.506
-52.555
-52.982
-47.13
-36.912
-23.091
-11.597
-5.307
-1.94
-0.313
2.811
8.149
11.889
12.397
9.08
2.25
-5.93
-14.439
-23.031
-30.959
-37.726
-43.092
-46.89
-49.338
-50.799
-51.435
-51.515
-51.617
-52.236
-53.649
-55.959
-59.027
-62.639
-66.645
-70.825
-74.837
-78.412
-81.39
-83.693
-85.358
-86.436
-86.948
-86.94
-86.48
-85.628
-84.434
-82.939
-81.163
-79.14
-76.923
-74.574
-72.154
-69.724
-67.321
-64.978
-62.717
-60.554
-58.498
-56.554
-54.723
-53.001
-51.39
-49.89
-48.498
-47.213
-46.028
-44.932
-43.913
-42.959
-42.06
-41.205
-40.384
-39.59
-38.812
-38.043
-37.272
-36.492
-35.693
-34.861
-33.987
-33.056
-32.057
-30.979
-29.809
-28.537
-27.151
-25.643
-24.003
-22.224
-20.299
-18.222
-15.989
-13.597
-11.045
-8.331
-5.456
-2.425
0.76
4.093
7.567
11.174
14.905
18.748
22.693
26.727
30.837
35.009
39.228
43.48
47.748
52.018
56.271
60.492
64.663
68.767
72.785
76.702
80.498
84.158
87.665
91.003
94.156
97.11
99.852
102.367
104.645
106.675
108.447
109.954
111.188
112.143
112.817
113.207
113.31
113.128
112.662
111.914
110.889
109.59
108.024
106.199
104.122
101.802
99.251
96.479
93.499
90.324
86.967
83.445
79.771
75.962
72.034
68.004
63.889
59.705
55.47
51.2
46.913
42.624
38.349
34.104
29.903
25.759
21.687
17.696
13.8
10.008
6.33
2.775
-0.65
-3.938
-7.083
-10.08
-12.924
-15.614
-18.146
-20.52
-22.735
-24.792
-26.693
-28.439
-30.034
-31.482
-32.787
-33.955
-34.991
-35.902
-36.693
-37.373
-37.948
-38.425
-38.813
-39.117
-39.346
-39.506
-39.605
-39.649
-39.644
-39.598
-39.515
-39.402
-39.264
-39.107
-38.936
-38.754
-38.567
-38.377
-38.19
-38.007
-37.831
-37.665
-37.51
-37.369
-37.242
-37.13
-37.035
-36.955
-36.891
-36.842
-36.809
-36.79
-36.784
-36.79
-36.809
-36.838
-36.877
-36.925
-36.981
-37.044
-37.115
-37.191
-37.272
-37.357
-37.446
-37.537
-37.629
-37.722
-37.815
-37.907
-37.997
-38.084
-38.167
-38.245
-38.318
-38.385
-38.444
-38.495
-38.538
-38.572
-38.596
-38.61
-38.613
-38.606
-38.587
-38.556
-38.514
-38.458
-38.39
-38.308
-38.213
-38.104
-37.98
-37.842
-37.69
-37.524
-37.345
-37.153
-36.949
-36.734
-36.509
-36.276
-36.037
-35.794
-35.548
-35.303
-35.06
-34.824
-34.597
-34.381
-34.181
-34
-33.841
-33.707
-33.601
-33.528
-33.489
-33.488
-33.529
-33.614
-33.745
-33.926
-34.158
-34.444
-34.785
-35.182
-35.636
-36.147
-36.716
-37.34
-38.02
-38.752
-39.536
-40.367
-41.243
-42.159
-43.11
-44.091
-45.096
-46.118
-47.15
-48.184
-49.212
-50.225
-51.216
-52.174
-53.091
-53.957
-54.763
-55.5
-56.158
-56.729
-57.202
-57.57
-57.824
-57.956
-57.96
-57.828
-57.555
-57.137
-56.569
-55.848
-54.973
-53.941
-52.755
-51.414
-49.922
-48.283
-46.501
-44.584
-42.538
-40.376
-38.108
-35.748
-33.31
-30.809
-28.263
-25.69
-23.108
-20.533
-17.985
-15.482
-13.042
-10.684
-8.43
-6.298
-4.309
-2.482
-0.834
0.618
1.859
2.879
3.668
4.219
4.523
4.569
4.343
3.838
3.045
1.96
0.587
-1.069
-2.992
-5.156
-7.532
-10.089
-12.793
-15.616
-18.528
-21.494
-24.475
-27.421
-30.275
-32.988
-35.511
-37.798
-39.825
-41.58
-43.072
-44.345
-45.447
-46.411
-47.292
-48.148
-49.04
-50.066
-51.318
-52.868
-54.839
-57.384
-60.587
-64.462
-68.857
-73.416
-77.765
-81.566
-84.412
-85.865
-85.611
-83.528
-79.985
-75.859
-72.073
-69.397
-68.453
-69.724
-73.455
-79.473
-86.631
-92.715
-95.142
-91.372
-79.077
-56.099
-20.531
29.184
92.557
166.415
246.885
329.597
412.183
495.299
578.049
656.896
724.475
769.27
780.631
752.441
684.381
581.385
454.499
318.45
188.35
80.469
4.511
-39.257
-55.233
-52.822
-40.406
-21.67
-0.973
16.037
24.254
19.671
3.489
-16.979
-34.82
-46.286
-51.43
-54.345
-57.931
-62.288
-66.5
-68.851
-68.707
-66.826
-64.022
-61.006
-58.293
-56.183
-54.844
-54.346
-54.598
-55.365
-56.474
-57.814
-59.268
-60.721
-62.064
-63.178
-63.985
-64.45
-64.529
-64.194
-63.434
-62.222
-60.572
-58.534
-56.179
-53.624
-50.98
-48.337
-45.787
-43.402
-41.243
-39.369
-37.826
-36.623
-35.76
-35.21
-34.925
-34.883
-35.051
-35.382
-35.824
-36.294
-36.717
-37.041
-37.222
-37.223
-37.022
-36.592
-35.919
-35.019
-33.913
-32.638
-31.245
-29.763
-28.214
-26.619
-24.998
-23.376
-21.774
-20.198
-18.644
-17.109
-15.586
-14.072
-12.56
-11.03
-9.456
-7.81
-6.058
-4.177
-2.152
0.032
2.385
4.913
7.62
10.503
13.551
16.755
20.109
23.604
27.234
30.988
34.854
38.817
42.866
46.988
51.17
55.401
59.664
63.947
68.234
72.509
76.758
80.964
85.112
89.185
93.165
97.036
100.786
104.396
107.852
111.133
114.218
117.091
119.738
122.15
124.323
126.258
127.962
129.443
130.713
131.779
132.641
133.294
133.722
133.909
133.84
133.505
132.907
132.047
130.924
129.535
127.87
125.914
123.64
121.02
118.016
114.608
110.789
106.577
102.013
97.147
92.046
86.762
81.335
75.802
70.196
64.554
58.914
53.324
47.84
42.53
37.476
32.741
28.369
24.377
20.751
17.454
14.433
11.643
9.049
6.625
4.352
2.216
0.2
-1.714
-3.55
-5.344
-7.149
-9.007
-10.951
-12.988
-15.108
-17.278
-19.454
-21.594
-23.664
-25.638
-27.502
-29.246
-30.865
-32.358
-33.725
-34.958
-36.042
-36.96
-37.702
-38.264
-38.656
-38.895
-39.007
-39.016
-38.944
-38.81
-38.629
-38.409
-38.158
-37.876
-37.563
-37.22
-36.855
-36.472
-36.08
-35.686
-35.291
-34.9
-34.512
-34.129
-33.75
-33.374
-33.004
-32.64
-32.285
-31.942
-31.618
-31.314
-31.035
-30.782
-30.556
-30.358
-30.187
-30.042
-29.921
-29.823
-29.746
-29.688
-29.649
-29.626
-29.619
-29.625
-29.644
-29.674
-29.714
-29.763
-29.819
-29.881
-29.947
-30.017
-30.09
-30.164
-30.24
-30.316
-30.392
-30.468
-30.542
-30.616
-30.689
-30.761
-30.832
-30.903
-30.975
-31.048
-31.125
-31.206
-31.295
-31.392
-31.5
-31.622
-31.759
-31.913
-32.086
-32.281
-32.498
-32.741
-33.009
-33.304
-33.628
-33.98
-34.361
-34.771
-35.211
-35.68
-36.177
-36.701
-37.253
-37.83
-38.432
-39.058
-39.707
-40.376
-41.065
-41.771
-42.493
-43.229
-43.976
-44.733
-45.498
-46.266
-47.037
-47.806
-48.572
-49.33
-50.076
-50.806
-51.516
-52.2
-52.857
-53.48
-54.066
-54.613
-55.118
-55.579
-55.995
-56.363
-56.682
-56.947
-57.157
-57.307
-57.394
-57.413
-57.358
-57.225
-57.009
-56.707
-56.315
-55.829
-55.242
-54.547
-53.738
-52.815
-51.779
-50.635
-49.389
-48.051
-46.637
-45.168
-43.665
-42.147
-40.629
-39.124
-37.641
-36.19
-34.778
-33.418
-32.111
-30.848
-29.616
-28.396
-27.166
-25.903
-24.574
-23.137
-21.553
-19.798
-17.854
-15.718
-13.394
-10.897
-8.251
-5.485
-2.645
0.211
3.011
5.674
8.115
10.256
12.01
13.279
13.98
14.045
13.427
12.102
10.067
7.341
3.961
-0.017
-4.517
-9.451
-14.722
-20.225
-25.852
-31.485
-36.994
-42.238
-47.076
-51.429
-55.232
-58.411
-60.996
-63.068
-64.743
-66.292
-67.97
-69.844
-71.994
-74.478
-77.094
-79.698
-82.147
-83.929
-84.634
-84.149
-82.279
-79.075
-75.055
-70.467
-65.451
-60.638
-56.594
-53.766
-52.817
-54.056
-57.227
-62.292
-69.592
-78.36
-86.531
-92
-92.43
-87.469
-80.379
-73.003
-63.495
-46.596
-12.582
46.205
129.942
234.17
349.748
465.738
575.219
670.352
742.722
786.654
794.879
765.744
703.77
613.692
505.37
388.865
272.71
168.656
85.495
26.438
-9.209
-27.911
-38.556
-44.558
-45.961
-43.19
-34.793
-23.85
-16.343
-12.641
-12.943
-16.019
-18.446
-21.464
-26.319
-32.434
-39.614
-45.998
-50.216
-52.507
-53.143
-52.403
-50.44
-47.407
-43.916
-40.797
-38.567
-37.369
-37.118
-37.74
-39.33
-41.915
-45.303
-49.133
-53.075
-56.924
-60.586
-63.996
-67.03
-69.567
-71.552
-72.99
-73.931
-74.412
-74.451
-74.062
-73.274
-72.134
-70.698
-69.026
-67.171
-65.187
-63.133
-61.065
-59.041
-57.104
-55.283
-53.596
-52.052
-50.65
-49.391
-48.269
-47.272
-46.39
-45.614
-44.933
-44.336
-43.812
-43.349
-42.933
-42.551
-42.189
-41.837
-41.484
-41.118
-40.732
-40.316
-39.86
-39.357
-38.797
-38.169
-37.462
-36.666
-35.77
-34.763
-33.635
-32.376
-30.978
-29.435
-27.741
-25.89
-23.879
-21.707
-19.37
-16.87
-14.206
-11.383
-8.402
-5.269
-1.989
1.43
4.981
8.652
12.435
16.318
20.289
24.334
28.439
32.591
36.773
40.97
45.166
49.343
53.484
57.573
61.59
65.52
69.344
73.046
76.607
80.013
83.248
86.297
89.145
91.78
94.188
96.36
98.283
99.95
101.353
102.484
103.338
103.912
104.204
104.21
103.933
103.372
102.532
101.416
100.029
98.378
96.47
94.316
91.924
89.306
86.475
83.443
80.224
76.832
73.284
69.593
65.777
61.852
57.833
53.738
49.584
45.387
41.163
36.928
32.699
28.491
24.318
20.195
16.135
12.15
8.253
4.455
0.766
-2.805
-6.248
-9.558
-12.727
-15.749
-18.62
-21.337
-23.896
-26.297
-28.538
-30.62
-32.542
-34.307
-35.917
-37.373
-38.68
-39.841
-40.86
-41.743
-42.494
-43.12
-43.626
-44.019
-44.304
-44.488
-44.577
-44.579
-44.499
-44.344
-44.121
-43.838
-43.503
-43.121
-42.699
-42.241
-41.753
-41.241
-40.711
-40.166
-39.61
-39.049
-38.488
-37.932
-37.388
-36.859
-36.348
-35.856
-35.382
-34.932
-34.511
-34.124
-33.777
-33.471
-33.211
-32.998
-32.839
-32.736
-32.684
-32.681
-32.719
-32.796
-32.913
-33.076
-33.291
-33.554
-33.846
-34.149
-34.44
-34.712
-34.981
-35.249
-35.51
-35.759
-35.969
-36.156
-36.396
-36.662
-36.841
-36.833
-36.498
-35.843
-35.089
-34.32
-33.463
-32.639
-32.074
-32.031
-32.941
-34.81
-37.126
-39.616
-42.214
-44.677
-46.773
-48.142
-48.134
-46.702
-44.461
-41.786
-38.902
-36.07
-33.387
-31.126
-29.859
-29.657
-30.096
-30.899
-31.833
-32.745
-33.69
-34.583
-35.156
-35.372
-35.392
-35.334
-35.331
-35.438
-35.578
-35.739
-35.969
-36.272
-36.638
-37.048
-37.468
-37.892
-38.345
-38.844
-39.398
-40.009
-40.665
-41.36
-42.091
-42.852
-43.641
-44.453
-45.278
-46.11
-46.94
-47.762
-48.568
-49.351
-50.104
-50.817
-51.483
-52.097
-52.656
-53.156
-53.592
-53.958
-54.247
-54.452
-54.567
-54.585
-54.498
-54.3
-53.988
-53.56
-53.011
-52.335
-51.523
-50.571
-49.479
-48.249
-46.888
-45.404
-43.804
-42.109
-40.344
-38.534
-36.705
-34.869
-33.028
-31.185
-29.348
-27.525
-25.726
-23.952
-22.187
-20.422
-18.654
-16.873
-15.074
-13.225
-11.278
-9.193
-6.946
-4.534
-1.983
0.684
3.444
6.26
9.089
11.868
14.508
16.947
19.14
21.036
22.584
23.701
24.277
24.229
23.498
22.051
19.894
17.037
13.499
9.345
4.661
-0.443
-5.831
-11.4
-17.073
-22.758
-28.364
-33.766
-38.817
-43.405
-47.437
-50.845
-53.603
-55.702
-57.162
-58.064
-58.501
-58.592
-58.494
-58.333
-58.226
-58.288
-58.601
-59.31
-60.635
-62.709
-65.562
-69.086
-72.976
-76.916
-80.653
-83.767
-85.697
-86.001
-84.5
-81.475
-77.641
-73.849
-70.844
-69.364
-70.444
-74.123
-79.018
-83.406
-84.868
-83.209
-80.93
-77.654
-70.641
-52.36
-11.608
55.067
145.325
250.737
358.074
461.667
559.177
648.458
727.108
785.864
813.155
800.713
745.881
652.847
531.52
395.286
258.393
135.51
38.559
-26.048
-59.21
-67.594
-58.921
-41.738
-21.087
-0.821
12.424
16.097
9.283
-5.907
-21.671
-33.78
-40.976
-43.806
-46.139
-49.385
-52.663
-55.244
-55.838
-54.245
-51.397
-47.982
-44.625
-41.859
-39.966
-39.098
-39.274
-40.383
-42.242
-44.706
-47.679
-51.032
-54.621
-58.32
-62.007
-65.577
-68.945
-72.005
-74.64
-76.776
-78.368
-79.4
-79.888
-79.853
-79.323
-78.341
-76.961
-75.236
-73.222
-70.97
-68.53
-65.958
-63.312
-60.649
-58.027
-55.487
-53.055
-50.747
-48.571
-46.53
-44.62
-42.834
-41.159
-39.584
-38.1
-36.701
-35.38
-34.127
-32.932
-31.783
-30.667
-29.573
-28.493
-27.416
-26.333
-25.238
-24.121
-22.976
-21.796
-20.576
-19.304
-17.973
-16.572
-15.094
-13.53
-11.872
-10.114
-8.248
-6.271
-4.178
-1.968
0.361
2.811
5.379
8.065
10.866
13.779
16.799
19.921
23.139
26.445
29.831
33.288
36.806
40.375
43.985
47.622
51.275
54.931
58.577
62.2
65.785
69.318
72.787
76.176
79.471
82.66
85.728
88.662
91.45
94.079
96.539
98.819
100.909
102.8
104.483
105.952
107.199
108.218
109.005
109.555
109.866
109.934
109.76
109.341
108.681
107.779
106.64
105.267
103.666
101.842
99.801
97.553
95.106
92.468
89.651
86.665
83.521
80.232
76.81
73.268
69.618
65.874
62.05
58.158
54.211
50.224
46.21
42.182
38.153
34.135
30.143
26.187
22.281
18.436
14.662
10.97
7.37
3.871
0.48
-2.794
-5.945
-8.968
-11.856
-14.607
-17.216
-19.681
-22.001
-24.173
-26.198
-28.075
-29.806
-31.391
-32.833
-34.133
-35.294
-36.319
-37.212
-37.976
-38.616
-39.136
-39.541
-39.837
-40.029
-40.124
-40.128
-40.048
-39.889
-39.659
-39.363
-39.009
-38.602
-38.149
-37.655
-37.127
-36.57
-35.989
-35.39
-34.777
-34.155
-33.528
-32.901
-32.277
-31.66
-31.054
-30.462
-29.888
-29.334
-28.805
-28.302
-27.829
-27.387
-26.978
-26.605
-26.267
-25.967
-25.704
-25.479
-25.292
-25.141
-25.027
-24.949
-24.906
-24.897
-24.92
-24.975
-25.059
-25.171
-25.309
-25.472
-25.658
-25.864
-26.09
-26.333
-26.59
-26.861
-27.142
-27.432
-27.727
-28.027
-28.328
-28.628
-28.924
-29.214
-29.496
-29.768
-30.028
-30.275
-30.508
-30.726
-30.928
-31.113
-31.282
-31.433
-31.569
-31.687
-31.79
-31.878
-31.952
-32.012
-32.062
-32.102
-32.135
-32.162
-32.186
-32.21
-32.234
-32.262
-32.297
-32.339
-32.393
-32.46
-32.544
-32.647
-32.772
-32.923
-33.103
-33.313
-33.557
-33.835
-34.152
-34.506
-34.901
-35.337
-35.814
-36.334
-36.896
-37.5
-38.145
-38.831
-39.554
-40.313
-41.105
-41.924
-42.767
-43.628
-44.501
-45.381
-46.263
-47.141
-48.01
-48.864
-49.698
-50.508
-51.287
-52.029
-52.725
-53.367
-53.946
-54.452
-54.876
-55.208
-55.44
-55.562
-55.571
-55.462
-55.231
-54.87
-54.374
-53.731
-52.938
-51.993
-50.895
-49.649
-48.265
-46.754
-45.14
-43.449
-41.697
-39.899
-38.06
-36.177
-34.253
-32.289
-30.284
-28.246
-26.183
-24.099
-22.008
-19.918
-17.823
-15.713
-13.557
-11.317
-8.98
-6.546
-4.027
-1.459
1.119
3.661
6.1
8.387
10.479
12.341
13.953
15.294
16.322
16.985
17.212
16.923
16.066
14.614
12.552
9.904
6.714
3.054
-0.968
-5.253
-9.721
-14.303
-18.945
-23.592
-28.167
-32.574
-36.711
-40.47
-43.758
-46.506
-48.669
-50.241
-51.255
-51.792
-51.953
-51.843
-51.567
-51.219
-50.899
-50.71
-50.743
-51.132
-52.054
-53.638
-55.934
-58.839
-62.054
-65.218
-67.984
-69.913
-70.499
-69.356
-66.347
-61.842
-56.725
-52.03
-48.7
-47.533
-49.235
-54.246
-62.352
-72.218
-81.545
-87.557
-87.221
-77.715
-56.364
-20.501
30.797
95.605
170.894
252.66
338.154
427.969
521.72
615.808
702.133
767.789
799.159
787.202
730.589
634.344
510.595
375.658
245.112
134.905
55.138
7.354
-12.018
-13.192
-5.658
4.567
12.161
16.004
14.631
7.158
-3.251
-14.477
-24.145
-31.091
-37.53
-44.55
-52.127
-59.371
-64.311
-66.19
-65.334
-62.374
-58.217
-53.494
-48.698
-44.442
-41.116
-38.886
-37.752
-37.562
-38.209
-39.62
-41.684
-44.263
-47.211
-50.394
-53.718
-57.1
-60.425
-63.568
-66.403
-68.814
-70.735
-72.136
-73
-73.341
-73.178
-72.541
-71.476
-70.038
-68.281
-66.264
-64.04
-61.661
-59.185
-56.672
-54.178
-51.757
-49.446
-47.265
-45.228
-43.338
-41.596
-39.999
-38.537
-37.198
-35.97
-34.844
-33.813
-32.871
-32.006
-31.208
-30.464
-29.763
-29.093
-28.447
-27.816
-27.19
-26.561
-25.921
-25.264
-24.581
-23.866
-23.109
-22.3
-21.43
-20.489
-19.471
-18.365
-17.166
-15.868
-14.464
-12.952
-11.328
-9.59
-7.737
-5.768
-3.684
-1.486
0.823
3.24
5.762
8.382
11.097
13.899
16.781
19.734
22.751
25.823
28.938
32.087
35.258
38.44
41.622
44.79
47.934
51.039
54.095
57.088
60.007
62.838
65.57
68.191
70.69
73.055
75.276
77.344
79.249
80.981
82.533
83.898
85.068
86.038
86.802
87.355
87.694
87.815
87.717
87.398
86.858
86.097
85.118
83.922
82.513
80.895
79.073
77.054
74.843
72.449
69.879
67.143
64.25
61.21
58.035
54.736
51.325
47.814
44.217
40.548
36.819
33.043
29.236
25.411
21.581
17.76
13.961
10.199
6.485
2.833
-0.746
-4.239
-7.637
-10.93
-14.107
-17.16
-20.08
-22.862
-25.498
-27.983
-30.312
-32.48
-34.485
-36.325
-37.998
-39.504
-40.843
-42.018
-43.03
-43.883
-44.581
-45.128
-45.53
-45.792
-45.922
-45.927
-45.815
-45.592
-45.269
-44.852
-44.352
-43.776
-43.135
-42.435
-41.686
-40.896
-40.073
-39.225
-38.359
-37.483
-36.604
-35.729
-34.863
-34.014
-33.185
-32.382
-31.61
-30.872
-30.172
-29.511
-28.892
-28.317
-27.786
-27.3
-26.86
-26.463
-26.11
-25.799
-25.528
-25.296
-25.1
-24.938
-24.806
-24.704
-24.628
-24.576
-24.545
-24.533
-24.538
-24.559
-24.592
-24.636
-24.688
-24.748
-24.813
-24.881
-24.951
-25.022
-25.092
-25.16
-25.227
-25.291
-25.353
-25.411
-25.467
-25.522
-25.574
-25.626
-25.678
-25.732
-25.788
-25.847
-25.912
-25.982
-26.06
-26.145
-26.239
-26.341
-26.454
-26.575
-26.705
-26.845
-26.994
-27.152
-27.319
-27.495
-27.68
-27.876
-28.081
-28.297
-28.524
-28.761
-29.01
-29.269
-29.54
-29.821
-30.113
-30.416
-30.728
-31.051
-31.384
-31.727
-32.079
-32.441
-32.811
-33.191
-33.581
-33.98
-34.39
-34.811
-35.244
-35.689
-36.149
-36.623
-37.113
-37.617
-38.137
-38.671
-39.217
-39.772
-40.335
-40.9
-41.467
-42.031
-42.589
-43.139
-43.676
-44.2
-44.706
-45.193
-45.655
-46.087
-46.483
-46.837
-47.142
-47.391
-47.576
-47.688
-47.719
-47.666
-47.522
-47.281
-46.933
-46.465
-45.869
-45.142
-44.283
-43.293
-42.176
-40.935
-39.581
-38.139
-36.626
-35.063
-33.461
-31.816
-30.132
-28.415
-26.672
-24.913
-23.139
-21.331
-19.48
-17.58
-15.625
-13.611
-11.513
-9.287
-6.904
-4.342
-1.605
1.278
4.283
7.387
10.557
13.752
16.911
19.946
22.786
25.381
27.676
29.621
31.143
32.146
32.553
32.314
31.405
29.837
27.624
24.785
21.362
17.421
13.052
8.377
3.504
-1.486
-6.51
-11.495
-16.364
-21.013
-25.341
-29.267
-32.721
-35.671
-38.136
-40.135
-41.662
-42.779
-43.622
-44.417
-45.51
-47.186
-49.507
-52.474
-56.121
-60.347
-64.988
-69.682
-73.584
-75.839
-76.063
-74.107
-70.004
-64.06
-56.542
-48.029
-39.972
-33.968
-31.183
-32.386
-37.734
-47.112
-59.715
-73.447
-85.58
-92.922
-94.622
-92.767
-87.447
-76.733
-54.309
-9.427
61.863
156.153
264.412
371.788
469.733
557.899
637.274
708.907
768.385
803.754
803.798
764.156
686.383
578.684
454.215
323.999
199.166
92.197
10.147
-43.89
-70.564
-76.462
-67.773
-48.474
-24.097
-0.726
16.299
22.66
18.868
10.581
2.61
-3.069
-6.987
-12.312
-20.591
-30.474
-40.187
-47.87
-52.45
-53.939
-52.764
-49.548
-45.178
-40.812
-37.179
-34.561
-33.14
-32.964
-34.037
-36.367
-39.728
-43.643
-47.785
-51.973
-56.062
-59.996
-63.67
-66.922
-69.674
-71.93
-73.69
-74.97
-75.777
-76.093
-75.935
-75.355
-74.402
-73.136
-71.61
-69.867
-67.96
-65.946
-63.885
-61.837
-59.848
-57.947
-56.154
-54.481
-52.93
-51.506
-50.202
-49.003
-47.897
-46.871
-45.914
-45.018
-44.174
-43.369
-42.592
-41.829
-41.068
-40.299
-39.513
-38.7
-37.851
-36.958
-36.014
-35.011
-33.943
-32.8
-31.574
-30.254
-28.831
-27.297
-25.643
-23.861
-21.945
-19.889
-17.689
-15.344
-12.851
-10.21
-7.421
-4.488
-1.412
1.801
5.147
8.618
12.208
15.908
19.708
23.6
27.571
31.61
35.706
39.844
44.011
48.193
52.375
56.541
60.676
64.763
68.786
72.728
76.571
80.3
83.898
87.348
90.634
93.742
96.657
99.364
101.853
104.109
106.124
107.886
109.387
110.621
111.579
112.257
112.652
112.759
112.577
112.105
111.344
110.296
108.963
107.349
105.46
103.302
100.884
98.213
95.302
92.161
88.803
85.242
81.492
77.569
73.488
69.268
64.924
60.476
55.94
51.336
46.68
41.993
37.29
32.591
27.912
23.27
18.682
14.162
9.726
5.388
1.162
-2.939
-6.903
-10.719
-14.377
-17.867
-21.182
-24.314
-27.259
-30.011
-32.569
-34.929
-37.091
-39.057
-40.826
-42.404
-43.792
-44.997
-46.024
-46.879
-47.57
-48.106
-48.495
-48.745
-48.867
-48.871
-48.765
-48.561
-48.268
-47.897
-47.458
-46.96
-46.415
-45.833
-45.222
-44.593
-43.955
-43.317
-42.686
-42.071
-41.479
-40.915
-40.386
-39.896
-39.449
-39.049
-38.699
-38.4
-38.153
-37.96
-37.819
-37.731
-37.693
-37.705
-37.762
-37.864
-38.006
-38.186
-38.399
-38.643
-38.913
-39.205
-39.516
-39.841
-40.175
-40.514
-40.854
-41.189
-41.516
-41.831
-42.129
-42.407
-42.662
-42.89
-43.089
-43.257
-43.391
-43.491
-43.555
-43.583
-43.575
-43.53
-43.45
-43.335
-43.187
-43.009
-42.801
-42.567
-42.309
-42.03
-41.734
-41.422
-41.098
-40.766
-40.428
-40.089
-39.752
-39.421
-39.099
-38.791
-38.501
-38.233
-37.989
-37.774
-37.59
-37.441
-37.33
-37.259
-37.23
-37.247
-37.311
-37.425
-37.589
-37.806
-38.077
-38.402
-38.783
-39.217
-39.707
-40.249
-40.845
-41.493
-42.191
-42.939
-43.734
-44.575
-45.461
-46.389
-47.356
-48.36
-49.398
-50.466
-51.56
-52.678
-53.816
-54.969
-56.135
-57.308
-58.486
-59.664
-60.836
-61.998
-63.144
-64.27
-65.367
-66.43
-67.451
-68.426
-69.348
-70.212
-71.012
-71.743
-72.402
-72.985
-73.489
-73.908
-74.238
-74.472
-74.603
-74.626
-74.535
-74.322
-73.982
-73.509
-72.901
-72.158
-71.278
-70.258
-69.096
-67.784
-66.319
-64.706
-62.948
-61.05
-59.022
-56.877
-54.639
-52.341
-50.006
-47.652
-45.287
-42.914
-40.535
-38.159
-35.789
-33.428
-31.079
-28.741
-26.418
-24.123
-21.854
-19.597
-17.325
-14.986
-12.553
-10.024
-7.406
-4.725
-2.012
0.7
3.358
5.895
8.254
10.387
12.26
13.858
15.139
16.045
16.501
16.414
15.721
14.392
12.413
9.792
6.565
2.792
-1.432
-5.979
-10.741
-15.637
-20.592
-25.551
-30.432
-35.128
-39.525
-43.509
-46.985
-49.887
-52.177
-53.841
-54.918
-55.496
-55.676
-55.599
-55.401
-55.186
-55.064
-55.126
-55.441
-56.138
-57.415
-59.395
-62.109
-65.473
-69.198
-72.963
-76.483
-79.297
-80.807
-80.574
-78.441
-74.629
-69.846
-65.009
-60.946
-58.572
-59.047
-62.267
-66.611
-70.445
-71.381
-69.333
-67.292
-64.816
-58.661
-41.388
-1.329
66.254
158.691
267.801
380.544
488.22
587.057
674.034
745.423
794.115
810.082
784.951
716.372
608.491
473.186
329.073
194.976
87.272
15.118
-24.497
-39.955
-41.959
-39.801
-33.902
-24.375
-13.205
-1.819
3.086
-1.298
-11.416
-24.687
-36.23
-43.586
-49.279
-54.126
-58.448
-62.339
-64.188
-63.532
-61.074
-57.422
-53.419
-49.827
-47.05
-45.32
-44.772
-45.347
-46.851
-49.145
-52.108
-55.583
-59.427
-63.499
-67.657
-71.801
-75.842
-79.671
-83.17
-86.227
-88.759
-90.733
-92.137
-92.979
-93.28
-93.062
-92.37
-91.256
-89.774
-87.979
-85.923
-83.654
-81.229
-78.705
-76.137
-73.578
-71.067
-68.623
-66.263
-63.99
-61.806
-59.709
-57.691
-55.739
-53.846
-52.003
-50.206
-48.448
-46.724
-45.024
-43.338
-41.659
-39.977
-38.288
-36.585
-34.863
-33.118
-31.345
-29.541
-27.701
-25.821
-23.893
-21.913
-19.871
-17.762
-15.578
-13.315
-10.966
-8.526
-5.993
-3.364
-0.636
2.19
5.114
8.138
11.257
14.472
17.778
21.171
24.648
28.202
31.828
35.519
39.267
43.064
46.902
50.771
54.661
58.563
62.465
66.356
70.225
74.059
77.845
81.57
85.222
88.785
92.248
95.597
98.819
101.901
104.831
107.597
110.188
112.595
114.805
116.812
118.605
120.178
121.522
122.633
123.505
124.133
124.515
124.647
124.527
124.155
123.532
122.657
121.532
120.161
118.548
116.697
114.614
112.306
109.783
107.051
104.123
101.008
97.719
94.266
90.665
86.926
83.066
79.097
75.034
70.892
66.686
62.431
58.141
53.832
49.517
45.211
40.928
36.681
32.484
28.349
24.288
20.314
16.438
12.67
9.02
5.499
2.114
-1.126
-4.215
-7.148
-9.919
-12.524
-14.961
-17.227
-19.322
-21.244
-22.994
-24.574
-25.985
-27.231
-28.315
-29.241
-30.014
-30.639
-31.122
-31.469
-31.686
-31.779
-31.757
-31.624
-31.389
-31.06
-30.643
-30.147
-29.58
-28.95
-28.264
-27.532
-26.759
-25.955
-25.126
-24.278
-23.42
-22.556
-21.693
-20.836
-19.99
-19.16
-18.35
-17.563
-16.803
-16.072
-15.373
-14.707
-14.076
-13.481
-12.924
-12.404
-11.924
-11.483
-11.082
-10.72
-10.398
-10.116
-9.872
-9.666
-9.497
-9.363
-9.263
-9.195
-9.158
-9.149
-9.168
-9.212
-9.28
-9.371
-9.482
-9.612
-9.76
-9.925
-10.105
-10.301
-10.512
-10.737
-10.976
-11.229
-11.496
-11.777
-12.073
-12.381
-12.703
-13.038
-13.385
-13.744
-14.114
-14.495
-14.886
-15.286
-15.696
-16.114
-16.541
-16.976
-17.419
-17.869
-18.326
-18.79
-19.261
-19.739
-20.223
-20.713
-21.208
-21.709
-22.214
-22.724
-23.236
-23.75
-24.264
-24.779
-25.292
-25.803
-26.312
-26.817
-27.32
-27.818
-28.314
-28.807
-29.297
-29.785
-30.272
-30.759
-31.246
-31.735
-32.226
-32.72
-33.218
-33.719
-34.226
-34.736
-35.251
-35.77
-36.291
-36.815
-37.34
-37.866
-38.39
-38.912
-39.43
-39.943
-40.45
-40.947
-41.432
-41.903
-42.357
-42.791
-43.199
-43.58
-43.928
-44.239
-44.508
-44.729
-44.898
-45.008
-45.054
-45.031
-44.932
-44.752
-44.486
-44.131
-43.681
-43.135
-42.489
-41.742
-40.891
-39.936
-38.878
-37.716
-36.453
-35.091
-33.634
-32.087
-30.455
-28.745
-26.964
-25.121
-23.226
-21.291
-19.327
-17.351
-15.379
-13.427
-11.515
-9.657
-7.871
-6.173
-4.578
-3.101
-1.756
-0.555
0.488
1.358
2.041
2.528
2.812
2.897
2.786
2.486
2
1.326
0.461
-0.594
-1.842
-3.288
-4.934
-6.781
-8.816
-11.008
-13.325
-15.733
-18.218
-20.785
-23.432
-26.144
-28.889
-31.608
-34.241
-36.739
-39.039
-41.05
-42.74
-44.141
-45.364
-46.631
-48.151
-50.053
-52.407
-55.251
-58.432
-61.612
-64.391
-66.273
-66.821
-65.815
-63.205
-58.991
-53.546
-47.624
-41.913
-37.117
-33.86
-32.41
-32.934
-35.767
-40.849
-47.606
-55.554
-64.244
-73.241
-82.393
-91.503
-98.74
-101.382
-97.687
-85.63
-65.898
-42.299
-14.885
17.659
59.334
119.116
199.496
298.41
411.222
526.935
637.466
734.996
808.745
848.751
844.408
790.503
689.659
552.624
397.289
242.134
105.754
1.009
-68.672
-105.834
-120.009
-120.477
-110.594
-91.758
-64.075
-30.987
-1.78
15.994
19.059
9.921
-3.365
-15.298
-23.821
-29.663
-36.254
-44.252
-52.555
-59.961
-64.314
-65.016
-62.854
-58.534
-53.243
-48.253
-44.078
-41.016
-39.392
-39.175
-40.259
-42.573
-45.766
-49.378
-53.154
-56.9
-60.456
-63.784
-66.797
-69.37
-71.481
-73.136
-74.334
-75.094
-75.417
-75.29
-74.741
-73.819
-72.571
-71.058
-69.331
-67.43
-65.408
-63.317
-61.207
-59.131
-57.124
-55.209
-53.402
-51.71
-50.137
-48.683
-47.338
-46.09
-44.923
-43.824
-42.782
-41.787
-40.83
-39.897
-38.976
-38.055
-37.121
-36.166
-35.179
-34.153
-33.079
-31.949
-30.757
-29.498
-28.165
-26.752
-25.251
-23.655
-21.957
-20.15
-18.23
-16.189
-14.025
-11.734
-9.314
-6.764
-4.084
-1.277
1.658
4.716
7.893
11.184
14.584
18.084
21.678
25.355
29.107
32.923
36.791
40.7
44.637
48.59
52.545
56.49
60.409
64.29
68.119
71.88
75.56
79.144
82.619
85.97
89.184
92.246
95.145
97.867
100.402
102.737
104.864
106.771
108.451
109.894
111.096
112.048
112.747
113.188
113.368
113.286
112.94
112.331
111.461
110.332
108.947
107.311
105.431
103.311
100.96
98.386
95.598
92.607
89.423
86.059
82.526
78.837
75.007
71.049
66.977
62.807
58.553
54.231
49.855
45.442
41.006
36.562
32.127
27.713
23.336
19.009
14.745
10.557
6.457
2.455
-1.437
-5.211
-8.857
-12.367
-15.735
-18.953
-22.018
-24.924
-27.668
-30.247
-32.66
-34.906
-36.985
-38.898
-40.647
-42.233
-43.66
-44.932
-46.052
-47.026
-47.859
-48.556
-49.125
-49.572
-49.904
-50.127
-50.25
-50.279
-50.222
-50.086
-49.878
-49.607
-49.278
-48.899
-48.477
-48.019
-47.53
-47.017
-46.485
-45.941
-45.388
-44.831
-44.275
-43.723
-43.178
-42.645
-42.124
-41.619
-41.132
-40.664
-40.217
-39.791
-39.387
-39.005
-38.647
-38.311
-37.998
-37.707
-37.437
-37.19
-36.963
-36.757
-36.57
-36.403
-36.253
-36.12
-36.004
-35.902
-35.815
-35.74
-35.677
-35.624
-35.581
-35.547
-35.521
-35.502
-35.488
-35.48
-35.476
-35.476
-35.478
-35.483
-35.49
-35.497
-35.505
-35.514
-35.521
-35.528
-35.532
-35.533
-35.531
-35.523
-35.509
-35.489
-35.459
-35.421
-35.372
-35.313
-35.241
-35.157
-35.06
-34.949
-34.825
-34.687
-34.535
-34.371
-34.193
-34.002
-33.801
-33.589
-33.367
-33.138
-32.902
-32.66
-32.416
-32.17
-31.924
-31.681
-31.444
-31.214
-30.995
-30.79
-30.601
-30.433
-30.288
-30.171
-30.083
-30.029
-30.012
-30.034
-30.099
-30.209
-30.365
-30.571
-30.826
-31.132
-31.49
-31.898
-32.358
-32.866
-33.423
-34.026
-34.671
-35.357
-36.079
-36.833
-37.614
-38.418
-39.238
-40.069
-40.903
-41.734
-42.554
-43.356
-44.131
-44.871
-45.568
-46.212
-46.796
-47.31
-47.747
-48.096
-48.352
-48.506
-48.552
-48.482
-48.293
-47.978
-47.533
-46.956
-46.244
-45.396
-44.412
-43.292
-42.04
-40.657
-39.149
-37.52
-35.778
-33.931
-31.989
-29.962
-27.864
-25.708
-23.508
-21.28
-19.041
-16.807
-14.594
-12.419
-10.3
-8.252
-6.293
-4.441
-2.714
-1.128
0.3
1.555
2.624
3.496
4.163
4.618
4.856
4.873
4.657
4.201
3.499
2.547
1.344
-0.106
-1.795
-3.704
-5.808
-8.079
-10.485
-12.999
-15.598
-18.253
-20.938
-23.617
-26.245
-28.774
-31.161
-33.362
-35.34
-37.072
-38.549
-39.789
-40.843
-41.762
-42.588
-43.366
-44.137
-44.962
-45.924
-47.098
-48.541
-50.339
-52.609
-55.443
-58.872
-62.769
-66.799
-70.592
-73.814
-76.118
-77.101
-76.425
-73.927
-69.915
-65.255
-60.886
-57.521
-55.787
-56.334
-59.715
-66.143
-74.016
-80.046
-81.236
-75.401
-63.076
-46.285
-24.165
6.465
50.892
114.494
197.063
294.032
398.294
501.262
596.047
675.36
731.319
755.928
741.879
687.543
596.027
475.3
338.65
200.255
74.782
-25.168
-92.686
-128.171
-137.581
-128.203
-108.619
-84.081
-58.654
-39.288
-28.757
-27.909
-34.413
-40.562
-42.499
-39.801
-34.516
-31.664
-32.965
-37.371
-43.402
-48.664
-52.261
-54.539
-55.35
-54.782
-53.155
-50.691
-47.927
-45.552
-43.841
-42.898
-42.927
-43.97
-45.954
-48.79
-52.184
-55.731
-59.194
-62.408
-65.221
-67.596
-69.499
-70.883
-71.781
-72.251
-72.33
-72.06
-71.475
-70.583
-69.413
-68.009
-66.411
-64.677
-62.863
-61.015
-59.181
-57.393
-55.674
-54.04
-52.498
-51.046
-49.682
-48.397
-47.181
-46.026
-44.926
-43.873
-42.857
-41.866
-40.887
-39.909
-38.919
-37.909
-36.869
-35.792
-34.669
-33.494
-32.263
-30.971
-29.612
-28.182
-26.674
-25.082
-23.399
-21.621
-19.743
-17.758
-15.662
-13.451
-11.122
-8.674
-6.105
-3.413
-0.6
2.333
5.387
8.557
11.841
15.235
18.734
22.333
26.024
29.802
33.656
37.579
41.56
45.588
49.652
53.741
57.842
61.942
66.028
70.087
74.105
78.067
81.96
85.768
89.478
93.074
96.541
99.866
103.035
106.034
108.851
111.471
113.885
116.08
118.045
119.771
121.248
122.468
123.423
124.107
124.516
124.644
124.489
124.05
123.326
122.319
121.03
119.464
117.625
115.519
113.155
110.54
107.685
104.6
101.298
97.791
94.095
90.224
86.193
82.019
77.719
73.311
68.811
64.239
59.612
54.948
50.266
45.583
40.918
36.289
31.711
27.203
22.779
18.456
14.247
10.165
6.223
2.432
-1.197
-4.657
-7.94
-11.038
-13.948
-16.665
-19.186
-21.512
-23.642
-25.577
-27.32
-28.874
-30.245
-31.438
-32.458
-33.315
-34.014
-34.565
-34.977
-35.26
-35.422
-35.476
-35.43
-35.296
-35.085
-34.807
-34.472
-34.092
-33.676
-33.234
-32.776
-32.309
-31.844
-31.387
-30.946
-30.526
-30.134
-29.775
-29.451
-29.167
-28.925
-28.725
-28.57
-28.458
-28.39
-28.365
-28.38
-28.435
-28.525
-28.649
-28.804
-28.984
-29.188
-29.411
-29.649
-29.898
-30.154
-30.414
-30.672
-30.926
-31.172
-31.405
-31.623
-31.823
-32.002
-32.156
-32.285
-32.386
-32.457
-32.499
-32.511
-32.493
-32.445
-32.369
-32.266
-32.137
-31.984
-31.81
-31.618
-31.408
-31.186
-30.953
-30.713
-30.469
-30.224
-29.98
-29.741
-29.509
-29.287
-29.076
-28.879
-28.698
-28.534
-28.39
-28.266
-28.165
-28.087
-28.033
-28.004
-28
-28.022
-28.069
-28.142
-28.239
-28.361
-28.507
-28.676
-28.868
-29.081
-29.314
-29.566
-29.837
-30.125
-30.428
-30.746
-31.076
-31.419
-31.774
-32.14
-32.517
-32.906
-33.305
-33.717
-34.141
-34.578
-35.029
-35.493
-35.972
-36.466
-36.976
-37.501
-38.044
-38.603
-39.179
-39.772
-40.381
-41.005
-41.642
-42.291
-42.949
-43.616
-44.287
-44.959
-45.63
-46.297
-46.957
-47.608
-48.244
-48.862
-49.458
-50.028
-50.568
-51.069
-51.525
-51.929
-52.274
-52.553
-52.762
-52.893
-52.939
-52.896
-52.758
-52.525
-52.193
-51.754
-51.202
-50.529
-49.735
-48.829
-47.817
-46.701
-45.489
-44.187
-42.807
-41.366
-39.872
-38.323
-36.72
-35.058
-33.344
-31.601
-29.847
-28.104
-26.385
-24.688
-23.02
-21.396
-19.824
-18.305
-16.837
-15.402
-14.01
-12.702
-11.515
-10.488
-9.646
-8.985
-8.505
-8.208
-8.097
-8.191
-8.505
-9.036
-9.795
-10.807
-12.098
-13.712
-15.652
-17.869
-20.307
-22.898
-25.589
-28.363
-31.206
-34.109
-37.058
-40.008
-42.899
-45.679
-48.272
-50.633
-52.694
-54.336
-55.548
-56.423
-57.112
-57.914
-59.084
-60.642
-62.609
-64.988
-67.517
-69.981
-72.133
-73.34
-73.142
-71.454
-68.145
-63.386
-57.837
-51.879
-45.878
-40.705
-36.95
-35.011
-35.622
-38.943
-44.435
-51.942
-61.235
-71.568
-82.601
-92.857
-99.161
-99.359
-91.846
-77.044
-58.427
-36.968
-11.397
22.55
72.947
142.828
231.04
332.482
435.829
532.763
615.209
674.443
706.464
706.217
672.829
611.015
524.673
421.248
308.778
194.747
91.391
9.31
-46.809
-76.254
-86.115
-85.972
-79.259
-69.085
-57.505
-44.679
-35.965
-34.021
-36.34
-41.44
-45.404
-46.294
-46.705
-47.568
-49.182
-51.2
-51.721
-50.183
-47.122
-43.112
-38.91
-35.025
-31.728
-29.372
-28.199
-28.205
-29.244
-31.092
-33.56
-36.517
-39.832
-43.353
-46.92
-50.381
-53.616
-56.524
-59.028
-61.074
-62.626
-63.669
-64.208
-64.272
-63.9
-63.15
-62.074
-60.72
-59.133
-57.359
-55.45
-53.468
-51.47
-49.511
-47.633
-45.859
-44.209
-42.694
-41.315
-40.068
-38.94
-37.91
-36.966
-36.096
-35.291
-34.541
-33.835
-33.156
-32.493
-31.83
-31.156
-30.458
-29.727
-28.95
-28.119
-27.227
-26.265
-25.229
-24.111
-22.903
-21.596
-20.182
-18.653
-17.003
-15.224
-13.311
-11.258
-9.063
-6.723
-4.237
-1.605
1.172
4.092
7.153
10.35
13.679
17.134
20.707
24.391
28.178
32.056
36.017
40.048
44.137
48.271
52.438
56.622
60.81
64.987
69.139
73.25
77.306
81.291
85.191
88.99
92.674
96.228
99.639
102.892
105.975
108.874
111.579
114.079
116.362
118.42
120.243
121.825
123.157
124.234
125.05
125.603
125.889
125.905
125.653
125.132
124.344
123.292
121.98
120.412
118.596
116.536
114.242
111.721
108.984
106.039
102.9
99.576
96.081
92.427
88.628
84.698
80.651
76.501
72.263
67.953
63.586
59.177
54.742
50.295
45.852
41.427
37.035
32.689
28.403
24.191
20.062
16.03
12.103
8.292
4.606
1.051
-2.365
-5.636
-8.758
-11.726
-14.538
-17.19
-19.681
-22.01
-24.178
-26.185
-28.033
-29.724
-31.261
-32.648
-33.889
-34.988
-35.951
-36.783
-37.491
-38.082
-38.562
-38.939
-39.221
-39.413
-39.525
-39.564
-39.538
-39.452
-39.316
-39.134
-38.914
-38.662
-38.383
-38.082
-37.765
-37.436
-37.098
-36.757
-36.413
-36.072
-35.735
-35.405
-35.084
-34.773
-34.474
-34.187
-33.915
-33.658
-33.415
-33.189
-32.977
-32.781
-32.6
-32.433
-32.279
-32.138
-32.008
-31.888
-31.776
-31.673
-31.576
-31.484
-31.397
-31.312
-31.23
-31.15
-31.07
-30.99
-30.91
-30.829
-30.747
-30.663
-30.578
-30.492
-30.404
-30.314
-30.223
-30.129
-30.034
-29.936
-29.835
-29.732
-29.625
-29.514
-29.4
-29.282
-29.16
-29.034
-28.904
-28.771
-28.634
-28.494
-28.352
-28.208
-28.063
-27.918
-27.774
-27.632
-27.493
-27.358
-27.228
-27.105
-26.99
-26.884
-26.788
-26.704
-26.633
-26.576
-26.534
-26.509
-26.502
-26.515
-26.548
-26.604
-26.685
-26.791
-26.924
-27.085
-27.276
-27.498
-27.751
-28.037
-28.356
-28.708
-29.092
-29.507
-29.954
-30.43
-30.935
-31.465
-32.019
-32.594
-33.188
-33.798
-34.421
-35.052
-35.688
-36.327
-36.964
-37.595
-38.216
-38.823
-39.411
-39.977
-40.516
-41.024
-41.496
-41.926
-42.31
-42.644
-42.922
-43.138
-43.288
-43.367
-43.373
-43.303
-43.154
-42.924
-42.611
-42.215
-41.736
-41.171
-40.519
-39.777
-38.945
-38.023
-37.014
-35.919
-34.74
-33.48
-32.145
-30.742
-29.278
-27.759
-26.186
-24.56
-22.886
-21.179
-19.459
-17.742
-16.042
-14.374
-12.756
-11.211
-9.76
-8.409
-7.155
-5.992
-4.921
-3.955
-3.116
-2.425
-1.888
-1.498
-1.244
-1.124
-1.138
-1.284
-1.54
-1.872
-2.265
-2.732
-3.309
-4.03
-4.901
-5.903
-7.004
-8.179
-9.418
-10.723
-12.09
-13.497
-14.928
-16.372
-17.847
-19.387
-20.996
-22.635
-24.249
-25.791
-27.253
-28.68
-30.132
-31.655
-33.293
-35.071
-37.006
-39.144
-41.532
-44.193
-47.136
-50.35
-53.819
-57.596
-61.805
-66.446
-71.384
-76.359
-80.904
-84.555
-86.986
-87.781
-86.435
-82.764
-76.902
-69.22
-60.693
-52.494
-45.372
-40.078
-37.535
-37.152
-37.7
-38.769
-38.267
-35.096
-28.817
-14.866
10.643
50.545
106.18
172.819
244.852
318.501
392.735
469.038
544.889
612.964
661.003
675.399
650.902
589.517
499.146
393.289
282.769
176.57
85.084
14.269
-33.395
-57.767
-66.378
-66.918
-62.794
-58.46
-53.866
-48.424
-45.556
-44.583
-44.9
-46.178
-45.582
-43.875
-42.235
-40.472
-39.125
-37.14
-33.951
-30.726
-28.244
-27.158
-27.766
-29.53
-32.15
-35.691
-39.806
-43.816
-47.235
-49.73
-51.36
-52.665
-53.956
-55.265
-56.695
-58.34
-60.225
-62.365
-64.603
-66.6
-68.159
-69.215
-69.743
-69.795
-69.417
-68.63
-67.496
-66.11
-64.538
-62.83
-61.023
-59.136
-57.206
-55.285
-53.414
-51.626
-49.946
-48.385
-46.948
-45.633
-44.43
-43.327
-42.315
-41.387
-40.538
-39.763
-39.056
-38.409
-37.813
-37.257
-36.729
-36.213
-35.698
-35.171
-34.623
-34.046
-33.432
-32.772
-32.058
-31.28
-30.428
-29.489
-28.455
-27.313
-26.055
-24.669
-23.148
-21.485
-19.674
-17.71
-15.589
-13.306
-10.861
-8.252
-5.479
-2.544
0.55
3.798
7.195
10.733
14.404
18.198
22.105
26.113
30.208
34.379
38.61
42.886
47.192
51.511
55.828
60.125
64.385
68.59
72.723
76.767
80.703
84.515
88.184
91.695
95.031
98.177
101.117
103.837
106.324
108.565
110.552
112.272
113.719
114.886
115.766
116.357
116.656
116.661
116.373
115.795
114.928
113.778
112.351
110.653
108.693
106.479
104.024
101.338
98.433
95.324
92.023
88.547
84.911
81.132
77.226
73.211
69.104
64.925
60.69
56.417
52.126
47.831
43.552
39.302
35.098
30.954
26.884
22.9
19.013
15.235
11.575
8.04
4.64
1.378
-1.738
-4.706
-7.522
-10.185
-12.693
-15.046
-17.246
-19.293
-21.191
-22.942
-24.552
-26.024
-27.366
-28.582
-29.681
-30.668
-31.553
-32.343
-33.045
-33.668
-34.219
-34.705
-35.134
-35.513
-35.848
-36.145
-36.409
-36.647
-36.862
-37.058
-37.24
-37.409
-37.569
-37.721
-37.866
-38.007
-38.144
-38.276
-38.405
-38.53
-38.65
-38.765
-38.872
-38.971
-39.061
-39.138
-39.202
-39.249
-39.278
-39.288
-39.276
-39.24
-39.18
-39.095
-38.983
-38.844
-38.678
-38.486
-38.267
-38.022
-37.753
-37.461
-37.149
-36.817
-36.469
-36.106
-35.732
-35.349
-34.96
-34.567
-34.174
-33.783
-33.396
-33.018
-32.649
-32.293
-31.953
-31.629
-31.325
-31.043
-30.783
-30.547
-30.335
-30.149
-29.989
-29.853
-29.743
-29.657
-29.594
-29.554
-29.534
-29.533
-29.549
-29.58
-29.624
-29.679
-29.741
-29.81
-29.881
-29.954
-30.027
-30.096
-30.16
-30.217
-30.267
-30.306
-30.335
-30.353
-30.358
-30.35
-30.33
-30.298
-30.254
-30.199
-30.134
-30.062
-29.984
-29.902
-29.818
-29.736
-29.657
-29.584
-29.52
-29.468
-29.43
-29.408
-29.406
-29.426
-29.47
-29.539
-29.637
-29.764
-29.922
-30.111
-30.332
-30.584
-30.868
-31.183
-31.528
-31.901
-32.3
-32.724
-33.168
-33.631
-34.109
-34.596
-35.089
-35.583
-36.072
-36.549
-37.01
-37.448
-37.856
-38.229
-38.56
-38.843
-39.073
-39.242
-39.346
-39.379
-39.335
-39.21
-38.998
-38.696
-38.301
-37.81
-37.22
-36.53
-35.74
-34.85
-33.861
-32.773
-31.589
-30.312
-28.946
-27.495
-25.966
-24.364
-22.697
-20.976
-19.211
-17.414
-15.598
-13.776
-11.962
-10.171
-8.416
-6.713
-5.073
-3.508
-2.031
-0.656
0.605
1.735
2.726
3.564
4.239
4.744
5.068
5.206
5.159
4.926
4.506
3.894
3.077
2.047
0.8
-0.665
-2.345
-4.232
-6.318
-8.583
-10.992
-13.511
-16.103
-18.735
-21.384
-24.019
-26.602
-29.087
-31.414
-33.53
-35.393
-36.967
-38.227
-39.159
-39.766
-40.079
-40.151
-40.048
-39.845
-39.621
-39.455
-39.43
-39.613
-40.095
-41.024
-42.51
-44.593
-47.204
-50.123
-53.11
-55.983
-58.479
-60.204
-60.831
-60.145
-58.288
-55.844
-53.355
-51.32
-50.309
-50.866
-53.596
-58.187
-62.818
-65.398
-63.86
-58.503
-52.119
-44.781
-34.304
-13.923
26.479
89.563
172.696
267.828
362.389
451.707
534.469
608.213
670.781
712.676
722.361
695.525
632.444
539.498
428.478
309.197
191.925
89.449
11.211
-37.74
-58.336
-60.187
-54.595
-48.003
-43.113
-38.266
-30.436
-20.636
-11.056
-3.72
-1.007
-3.283
-9.667
-19.198
-29.97
-39.839
-47.779
-53.385
-56.573
-57.579
-56.472
-53.442
-49.266
-45.055
-41.539
-39.042
-37.633
-37.211
-37.84
-39.584
-42.248
-45.456
-48.879
-52.316
-55.667
-58.907
-61.932
-64.593
-66.809
-68.562
-69.868
-70.754
-71.229
-71.284
-70.932
-70.215
-69.181
-67.884
-66.375
-64.692
-62.883
-61.002
-59.103
-57.241
-55.458
-53.783
-52.232
-50.815
-49.533
-48.388
-47.374
-46.477
-45.687
-44.989
-44.373
-43.829
-43.348
-42.915
-42.516
-42.136
-41.762
-41.38
-40.978
-40.546
-40.072
-39.546
-38.958
-38.301
-37.564
-36.738
-35.812
-34.775
-33.617
-32.329
-30.901
-29.325
-27.593
-25.701
-23.644
-21.419
-19.024
-16.458
-13.721
-10.816
-7.745
-4.512
-1.122
2.417
6.097
9.91
13.844
17.888
22.03
26.256
30.553
34.904
39.294
43.709
48.13
52.54
56.923
61.261
65.534
69.727
73.82
77.797
81.639
85.331
88.855
92.197
95.341
98.273
100.981
103.452
105.675
107.64
109.338
110.761
111.903
112.758
113.324
113.598
113.579
113.268
112.667
111.779
110.609
109.163
107.447
105.471
103.243
100.776
98.081
95.17
92.058
88.759
85.289
81.663
77.898
74.01
70.017
65.935
61.783
57.577
53.335
49.075
44.812
40.565
36.348
32.178
28.069
24.035
20.09
16.245
12.512
8.9
5.42
2.08
-1.115
-4.158
-7.044
-9.771
-12.336
-14.737
-16.975
-19.051
-20.966
-22.723
-24.325
-25.778
-27.084
-28.251
-29.283
-30.187
-30.971
-31.641
-32.204
-32.67
-33.046
-33.339
-33.559
-33.713
-33.81
-33.857
-33.863
-33.833
-33.777
-33.699
-33.607
-33.505
-33.399
-33.293
-33.191
-33.096
-33.011
-32.938
-32.879
-32.834
-32.805
-32.791
-32.793
-32.81
-32.843
-32.889
-32.949
-33.02
-33.103
-33.196
-33.297
-33.404
-33.516
-33.631
-33.748
-33.863
-33.976
-34.084
-34.185
-34.277
-34.358
-34.427
-34.482
-34.521
-34.544
-34.551
-34.54
-34.511
-34.464
-34.4
-34.32
-34.223
-34.111
-33.986
-33.848
-33.698
-33.538
-33.368
-33.19
-33.005
-32.813
-32.616
-32.413
-32.207
-31.998
-31.787
-31.574
-31.362
-31.15
-30.94
-30.733
-30.531
-30.334
-30.145
-29.964
-29.793
-29.633
-29.484
-29.349
-29.226
-29.117
-29.023
-28.942
-28.876
-28.823
-28.784
-28.758
-28.745
-28.744
-28.755
-28.777
-28.81
-28.855
-28.91
-28.976
-29.053
-29.141
-29.24
-29.35
-29.472
-29.605
-29.749
-29.904
-30.071
-30.248
-30.435
-30.632
-30.837
-31.05
-31.271
-31.499
-31.734
-31.974
-32.221
-32.475
-32.735
-33.001
-33.276
-33.557
-33.847
-34.145
-34.453
-34.769
-35.096
-35.432
-35.778
-36.134
-36.498
-36.871
-37.25
-37.633
-38.019
-38.406
-38.792
-39.172
-39.545
-39.906
-40.253
-40.585
-40.899
-41.191
-41.459
-41.701
-41.913
-42.093
-42.236
-42.337
-42.387
-42.383
-42.319
-42.192
-41.994
-41.723
-41.372
-40.938
-40.421
-39.818
-39.125
-38.334
-37.436
-36.428
-35.317
-34.112
-32.821
-31.451
-30.009
-28.507
-26.964
-25.391
-23.791
-22.159
-20.486
-18.773
-17.032
-15.283
-13.548
-11.838
-10.155
-8.494
-6.859
-5.254
-3.678
-2.121
-0.562
1.002
2.545
4.019
5.375
6.58
7.616
8.481
9.17
9.669
9.96
10.02
9.834
9.39
8.662
7.612
6.194
4.394
2.237
-0.21
-2.877
-5.71
-8.658
-11.684
-14.743
-17.794
-20.805
-23.745
-26.576
-29.239
-31.651
-33.727
-35.411
-36.69
-37.577
-38.086
-38.26
-38.225
-38.216
-38.476
-39.158
-40.23
-41.574
-43.245
-45.317
-47.682
-49.958
-51.535
-51.901
-50.993
-49.063
-46.094
-41.92
-36.588
-30.581
-25.044
-21.287
-20.078
-21.496
-25.584
-32.68
-42.835
-55.352
-68.5
-78.978
-83.632
-81.015
-69.261
-47.85
-16.418
27.846
84.187
151.8
230.139
314.321
403.179
494.32
580.175
654.309
705.934
724.178
706.489
654.005
572.781
473.521
364.806
255.621
156.698
76.755
22.288
-5.847
-13.924
-11.206
-6.873
-5.391
-7.104
-10.756
-13.396
-14.838
-15.834
-16.296
-18.226
-22.182
-27.562
-34.328
-40.77
-45.318
-47.718
-47.883
-46.281
-43.699
-40.583
-37.301
-34.358
-32.197
-31.045
-30.979
-31.935
-33.732
-36.221
-39.29
-42.779
-46.526
-50.41
-54.302
-58.083
-61.649
-64.879
-67.678
-69.992
-71.784
-73.042
-73.774
-73.996
-73.747
-73.079
-72.045
-70.691
-69.067
-67.217
-65.196
-63.066
-60.887
-58.72
-56.61
-54.587
-52.676
-50.89
-49.235
-47.713
-46.314
-45.025
-43.837
-42.743
-41.737
-40.813
-39.964
-39.178
-38.445
-37.752
-37.09
-36.449
-35.819
-35.19
-34.556
-33.907
-33.238
-32.542
-31.812
-31.038
-30.21
-29.318
-28.351
-27.3
-26.154
-24.903
-23.54
-22.056
-20.444
-18.7
-16.82
-14.798
-12.633
-10.323
-7.866
-5.264
-2.516
0.374
3.403
6.567
9.86
13.276
16.807
20.445
24.179
28
31.896
35.855
39.864
43.911
47.981
52.058
56.129
60.176
64.183
68.133
72.01
75.796
79.475
83.029
86.444
89.702
92.789
95.691
98.393
100.882
103.146
105.173
106.952
108.474
109.731
110.715
111.42
111.841
111.974
111.819
111.372
110.636
109.612
108.302
106.712
104.847
102.714
100.323
97.683
94.805
91.704
88.392
84.884
81.197
77.346
73.35
69.225
64.991
60.665
56.267
51.815
47.328
42.824
38.323
33.842
29.399
25.01
20.692
16.46
12.33
8.314
4.425
0.676
-2.923
-6.363
-9.635
-12.731
-15.647
-18.378
-20.92
-23.273
-25.437
-27.411
-29.199
-30.805
-32.232
-33.486
-34.574
-35.504
-36.284
-36.921
-37.427
-37.81
-38.08
-38.248
-38.325
-38.319
-38.243
-38.105
-37.917
-37.687
-37.425
-37.141
-36.844
-36.541
-36.242
-35.952
-35.679
-35.429
-35.207
-35.017
-34.862
-34.746
-34.671
-34.637
-34.644
-34.694
-34.784
-34.912
-35.077
-35.275
-35.503
-35.757
-36.033
-36.327
-36.633
-36.948
-37.267
-37.586
-37.9
-38.205
-38.497
-38.771
-39.024
-39.252
-39.451
-39.617
-39.748
-39.841
-39.893
-39.903
-39.868
-39.789
-39.664
-39.494
-39.278
-39.018
-38.714
-38.369
-37.984
-37.563
-37.109
-36.625
-36.114
-35.582
-35.032
-34.468
-33.896
-33.318
-32.739
-32.163
-31.595
-31.037
-30.495
-29.971
-29.469
-28.994
-28.547
-28.133
-27.754
-27.413
-27.112
-26.854
-26.639
-26.47
-26.347
-26.271
-26.243
-26.262
-26.329
-26.443
-26.603
-26.807
-27.055
-27.343
-27.669
-28.032
-28.428
-28.855
-29.311
-29.794
-30.3
-30.828
-31.375
-31.939
-32.518
-33.11
-33.712
-34.323
-34.94
-35.561
-36.186
-36.813
-37.44
-38.066
-38.691
-39.314
-39.934
-40.551
-41.165
-41.776
-42.383
-42.988
-43.591
-44.192
-44.792
-45.392
-45.993
-46.596
-47.2
-47.807
-48.417
-49.03
-49.644
-50.261
-50.878
-51.495
-52.11
-52.722
-53.33
-53.931
-54.523
-55.103
-55.67
-56.22
-56.749
-57.256
-57.735
-58.183
-58.596
-58.97
-59.3
-59.581
-59.808
-59.976
-60.081
-60.117
-60.079
-59.963
-59.764
-59.477
-59.099
-58.627
-58.056
-57.384
-56.61
-55.732
-54.749
-53.662
-52.47
-51.175
-49.778
-48.283
-46.692
-45.009
-43.238
-41.384
-39.453
-37.451
-35.385
-33.264
-31.097
-28.894
-26.669
-24.433
-22.201
-19.987
-17.806
-15.673
-13.602
-11.608
-9.701
-7.895
-6.203
-4.638
-3.213
-1.941
-0.834
0.097
0.842
1.392
1.739
1.882
1.82
1.553
1.077
0.379
-0.549
-1.713
-3.117
-4.759
-6.633
-8.728
-11.022
-13.478
-16.054
-18.707
-21.395
-24.087
-26.746
-29.332
-31.798
-34.083
-36.132
-37.899
-39.342
-40.434
-41.168
-41.552
-41.634
-41.499
-41.222
-40.892
-40.614
-40.472
-40.574
-41.019
-41.874
-43.267
-45.359
-48.251
-51.962
-56.382
-61.24
-66.244
-71.12
-75.444
-78.671
-80.349
-80.279
-78.655
-75.977
-72.918
-70.101
-68.16
-68.079
-69.845
-72.002
-72.966
-70.686
-65.454
-60.391
-55.557
-48.294
-31
7.853
72.21
159.94
262.627
366.749
465.678
556.239
636.343
704.759
755.119
779.302
770.937
727.598
651.082
547.595
428.698
306.922
197.338
113.723
60.263
34.813
27.71
25.649
22.103
15.308
7.391
2.756
1.552
1.408
0.044
-4.786
-13.196
-23.803
-35.424
-46.762
-56.613
-64.167
-69.007
-71.154
-71.005
-69.139
-66.078
-62.297
-58.306
-54.592
-51.477
-49.1
-47.452
-46.431
-45.945
-45.94
-46.357
-47.111
-48.125
-49.329
-50.651
-52.051
-53.5
-54.965
-56.44
-57.898
-59.288
-60.584
-61.772
-62.837
-63.776
-64.563
-65.147
-65.508
-65.651
-65.59
-65.363
-64.983
-64.447
-63.75
-62.874
-61.819
-60.6
-59.221
-57.681
-55.992
-54.171
-52.255
-50.308
-48.37
-46.459
-44.587
-42.754
-40.965
-39.237
-37.578
-35.995
-34.493
-33.07
-31.727
-30.468
-29.288
-28.172
-27.096
-26.022
-24.922
-23.781
-22.583
-21.316
-19.971
-18.536
-17.004
-15.374
-13.642
-11.803
-9.85
-7.777
-5.581
-3.26
-0.819
1.738
4.405
7.178
10.053
13.025
16.088
19.237
22.469
25.779
29.162
32.612
36.119
39.673
43.266
46.885
50.519
54.156
57.782
61.386
64.954
68.473
71.931
75.313
78.606
81.797
84.871
87.815
90.615
93.259
95.733
98.025
100.125
102.021
103.703
105.163
106.393
107.386
108.134
108.634
108.882
108.872
108.605
108.079
107.294
106.252
104.956
103.41
101.62
99.591
97.332
94.851
92.159
89.265
86.181
82.921
79.498
75.926
72.222
68.401
64.479
60.474
56.405
52.287
48.139
43.979
39.824
35.691
31.596
27.555
23.584
19.696
15.905
12.225
8.665
5.238
1.952
-1.184
-4.162
-6.978
-9.624
-12.099
-14.399
-16.524
-18.471
-20.244
-21.843
-23.272
-24.536
-25.638
-26.587
-27.389
-28.052
-28.585
-28.998
-29.301
-29.504
-29.618
-29.653
-29.62
-29.531
-29.395
-29.222
-29.023
-28.805
-28.578
-28.35
-28.128
-27.918
-27.728
-27.561
-27.424
-27.319
-27.249
-27.218
-27.226
-27.274
-27.364
-27.494
-27.663
-27.869
-28.111
-28.385
-28.688
-29.015
-29.363
-29.727
-30.101
-30.479
-30.857
-31.229
-31.59
-31.934
-32.256
-32.552
-32.816
-33.047
-33.239
-33.389
-33.496
-33.557
-33.57
-33.534
-33.448
-33.313
-33.129
-32.896
-32.615
-32.289
-31.918
-31.506
-31.055
-30.567
-30.046
-29.495
-28.917
-28.318
-27.701
-27.071
-26.431
-25.788
-25.145
-24.507
-23.879
-23.265
-22.669
-22.096
-21.549
-21.032
-20.547
-20.097
-19.686
-19.314
-18.985
-18.698
-18.455
-18.257
-18.104
-17.996
-17.932
-17.914
-17.94
-18.009
-18.12
-18.273
-18.465
-18.696
-18.963
-19.264
-19.596
-19.958
-20.346
-20.758
-21.19
-21.64
-22.104
-22.579
-23.062
-23.549
-24.037
-24.524
-25.007
-25.482
-25.948
-26.403
-26.843
-27.269
-27.678
-28.069
-28.442
-28.795
-29.128
-29.439
-29.728
-29.995
-30.239
-30.459
-30.657
-30.832
-30.986
-31.119
-31.233
-31.328
-31.408
-31.473
-31.526
-31.568
-31.603
-31.633
-31.661
-31.689
-31.722
-31.761
-31.809
-31.869
-31.942
-32.03
-32.134
-32.254
-32.39
-32.543
-32.711
-32.893
-33.09
-33.299
-33.521
-33.756
-34.003
-34.26
-34.528
-34.802
-35.081
-35.36
-35.633
-35.893
-36.133
-36.348
-36.531
-36.676
-36.777
-36.827
-36.824
-36.76
-36.631
-36.427
-36.135
-35.745
-35.255
-34.664
-33.978
-33.208
-32.361
-31.448
-30.484
-29.48
-28.44
-27.361
-26.231
-25.032
-23.761
-22.423
-21.031
-19.602
-18.137
-16.638
-15.102
-13.516
-11.872
-10.154
-8.33
-6.383
-4.321
-2.168
0.02
2.176
4.254
6.215
8.034
9.692
11.156
12.398
13.399
14.122
14.529
14.565
14.151
13.228
11.776
9.799
7.345
4.489
1.292
-2.178
-5.852
-9.673
-13.576
-17.509
-21.43
-25.285
-29.006
-32.5
-35.652
-38.368
-40.583
-42.261
-43.418
-44.106
-44.394
-44.384
-44.168
-43.839
-43.508
-43.267
-43.204
-43.414
-43.963
-44.965
-46.622
-49.056
-52.286
-56.22
-60.539
-64.866
-68.899
-72.207
-74.236
-74.598
-73.152
-70.117
-66.217
-62.39
-59.441
-58.079
-59.2
-62.804
-67.539
-71.827
-73.357
-70.785
-65.431
-57.408
-44.417
-22.179
16.851
78.213
161.215
262.223
374.113
487.965
597.828
694.946
768.766
811.669
815.575
779.658
709.81
611.183
493.704
367.634
242.435
132.642
49.987
-0.833
-19.391
-12.564
7.593
33.491
57.593
70.965
71.439
55.915
24.489
-12.813
-48.622
-75.645
-86.939
-84.739
-72.544
-53.547
-35.039
-22.118
-16.832
-21.328
-32.588
-44.286
-53.162
-56.671
-55.064
-52.123
-49.745
-48.697
-49.308
-50.625
-52.221
-54.229
-56.64
-59.492
-62.801
-66.51
-70.431
-74.287
-77.839
-80.849
-83.221
-85.011
-86.235
-86.899
-87.033
-86.667
-85.86
-84.705
-83.259
-81.558
-79.641
-77.545
-75.322
-73.041
-70.759
-68.53
-66.386
-64.346
-62.422
-60.62
-58.941
-57.384
-55.94
-54.595
-53.341
-52.171
-51.076
-50.055
-49.097
-48.189
-47.317
-46.467
-45.628
-44.791
-43.947
-43.086
-42.198
-41.276
-40.31
-39.294
-38.219
-37.074
-35.848
-34.529
-33.109
-31.577
-29.925
-28.144
-26.227
-24.168
-21.963
-19.608
-17.101
-14.44
-11.626
-8.66
-5.545
-2.284
1.118
4.654
8.317
12.098
15.988
19.976
24.05
28.198
32.406
36.66
40.946
45.247
49.549
53.835
58.089
62.292
66.428
70.479
74.427
78.256
81.947
85.483
88.849
92.027
95.004
97.765
100.297
102.588
104.626
106.401
107.906
109.133
110.075
110.729
111.091
111.159
110.934
110.416
109.609
108.515
107.141
105.493
103.578
101.406
98.986
96.329
93.449
90.359
87.072
83.605
79.972
76.192
72.282
68.259
64.141
59.948
55.698
51.408
47.098
42.785
38.487
34.219
29.999
25.842
21.762
17.772
13.886
10.113
6.465
2.951
-0.423
-3.648
-6.719
-9.633
-12.385
-14.973
-17.396
-19.653
-21.747
-23.677
-25.448
-27.064
-28.529
-29.849
-31.031
-32.082
-33.009
-33.821
-34.527
-35.136
-35.656
-36.097
-36.469
-36.78
-37.039
-37.256
-37.437
-37.591
-37.725
-37.846
-37.959
-38.07
-38.183
-38.302
-38.432
-38.574
-38.731
-38.905
-39.097
-39.308
-39.538
-39.786
-40.051
-40.332
-40.626
-40.932
-41.245
-41.564
-41.884
-42.202
-42.513
-42.814
-43.1
-43.367
-43.61
-43.826
-44.011
-44.16
-44.272
-44.342
-44.368
-44.348
-44.282
-44.167
-44.003
-43.791
-43.53
-43.221
-42.866
-42.466
-42.023
-41.538
-41.016
-40.458
-39.868
-39.25
-38.606
-37.942
-37.261
-36.567
-35.865
-35.161
-34.457
-33.76
-33.073
-32.402
-31.751
-31.126
-30.53
-29.968
-29.444
-28.961
-28.523
-28.131
-27.79
-27.499
-27.261
-27.077
-26.947
-26.87
-26.847
-26.877
-26.958
-27.089
-27.267
-27.491
-27.758
-28.065
-28.409
-28.786
-29.194
-29.629
-30.086
-30.563
-31.056
-31.559
-32.071
-32.585
-33.098
-33.606
-34.105
-34.591
-35.06
-35.508
-35.933
-36.332
-36.702
-37.041
-37.348
-37.621
-37.86
-38.064
-38.234
-38.37
-38.474
-38.547
-38.59
-38.607
-38.6
-38.57
-38.522
-38.458
-38.381
-38.295
-38.202
-38.106
-38.01
-37.918
-37.832
-37.757
-37.696
-37.651
-37.627
-37.626
-37.651
-37.704
-37.788
-37.905
-38.056
-38.242
-38.464
-38.723
-39.017
-39.345
-39.706
-40.098
-40.518
-40.963
-41.427
-41.909
-42.402
-42.902
-43.403
-43.902
-44.391
-44.867
-45.322
-45.75
-46.147
-46.505
-46.819
-47.083
-47.289
-47.433
-47.509
-47.51
-47.431
-47.268
-47.015
-46.666
-46.219
-45.669
-45.012
-44.246
-43.37
-42.381
-41.281
-40.069
-38.747
-37.318
-35.785
-34.153
-32.424
-30.606
-28.705
-26.727
-24.681
-22.574
-20.416
-18.217
-15.99
-13.746
-11.5
-9.264
-7.053
-4.884
-2.77
-0.728
1.229
3.086
4.829
6.444
7.917
9.234
10.38
11.34
12.105
12.661
12.999
13.113
13
12.657
12.084
11.28
10.237
8.952
7.419
5.637
3.608
1.337
-1.163
-3.871
-6.753
-9.775
-12.899
-16.091
-19.319
-22.549
-25.746
-28.871
-31.869
-34.691
-37.286
-39.606
-41.607
-43.268
-44.587
-45.594
-46.352
-46.922
-47.355
-47.719
-48.079
-48.505
-49.082
-49.884
-50.97
-52.451
-54.491
-57.175
-60.516
-64.394
-68.477
-72.413
-75.88
-78.414
-79.475
-78.749
-76.096
-71.694
-66.407
-61.175
-56.727
-54.123
-53.746
-54.666
-56.112
-56.825
-56.181
-56.041
-56.762
-55.824
-47.485
-22.065
27.42
101.501
195.105
298.93
404.866
508.27
605.557
690.711
754.911
789.075
785.819
745.651
674.01
576.536
463.645
344.554
229.957
135.227
67.697
28.344
11.673
4.903
0.261
-3.474
-4.491
-0.52
7.704
15.052
16.067
10.736
0.543
-11.629
-21.786
-30.428
-38.057
-44.003
-48.918
-52.051
-52.793
-51.905
-49.875
-47.293
-44.983
-43.424
-42.804
-43.25
-44.696
-46.916
-49.752
-53.059
-56.626
-60.266
-63.843
-67.239
-70.403
-73.313
-75.902
-78.084
-79.771
-80.897
-81.458
-81.47
-80.964
-79.994
-78.622
-76.935
-75.06
-73.104
-71.138
-69.21
-67.324
-65.467
-63.657
-61.915
-60.265
-58.729
-57.305
-55.988
-54.778
-53.663
-52.622
-51.616
-50.579
-49.456
-48.227
-46.888
-45.461
-43.988
-42.49
-40.982
-39.482
-37.998
-36.537
-35.104
-33.687
-32.274
-30.862
-29.456
-28.073
-26.726
-25.414
-24.126
-22.84
-21.528
-20.166
-18.733
-17.204
-15.561
-13.789
-11.879
-9.829
-7.643
-5.319
-2.853
-0.242
2.521
5.435
8.498
11.705
15.049
18.522
22.113
25.809
29.598
33.468
37.41
41.413
45.467
49.561
53.683
57.82
61.957
66.075
70.155
74.178
78.124
81.975
85.713
89.321
92.779
96.073
99.189
102.112
104.826
107.312
109.549
111.52
113.217
114.636
115.779
116.648
117.242
117.567
117.634
117.45
117.015
116.322
115.35
114.089
112.54
110.71
108.622
106.287
103.702
100.868
97.778
94.429
90.823
86.95
82.78
78.312
73.563
68.575
63.422
58.161
52.827
47.452
42.055
36.662
31.32
26.065
20.927
15.947
11.159
6.62
2.411
-1.423
-4.869
-7.943
-10.703
-13.189
-15.416
-17.403
-19.162
-20.711
-22.076
-23.273
-24.303
-25.182
-25.931
-26.592
-27.232
-27.885
-28.565
-29.262
-29.939
-30.574
-31.161
-31.691
-32.152
-32.541
-32.848
-33.081
-33.262
-33.399
-33.495
-33.543
-33.522
-33.423
-33.254
-33.025
-32.76
-32.475
-32.182
-31.892
-31.624
-31.386
-31.186
-31.026
-30.894
-30.788
-30.707
-30.653
-30.63
-30.64
-30.681
-30.749
-30.842
-30.955
-31.086
-31.229
-31.377
-31.524
-31.669
-31.808
-31.943
-32.072
-32.193
-32.307
-32.411
-32.504
-32.586
-32.654
-32.707
-32.744
-32.762
-32.762
-32.744
-32.708
-32.653
-32.581
-32.491
-32.384
-32.261
-32.123
-31.97
-31.804
-31.625
-31.436
-31.238
-31.033
-30.821
-30.607
-30.39
-30.174
-29.96
-29.749
-29.544
-29.345
-29.155
-28.973
-28.8
-28.638
-28.487
-28.347
-28.22
-28.105
-28.002
-27.912
-27.835
-27.769
-27.716
-27.675
-27.646
-27.627
-27.619
-27.621
-27.632
-27.652
-27.68
-27.715
-27.756
-27.803
-27.852
-27.904
-27.957
-28.01
-28.061
-28.11
-28.154
-28.193
-28.225
-28.25
-28.267
-28.276
-28.277
-28.269
-28.252
-28.227
-28.195
-28.156
-28.11
-28.059
-28.003
-27.943
-27.882
-27.819
-27.757
-27.697
-27.641
-27.591
-27.55
-27.519
-27.5
-27.495
-27.506
-27.536
-27.587
-27.66
-27.759
-27.885
-28.041
-28.231
-28.455
-28.717
-29.018
-29.359
-29.742
-30.168
-30.637
-31.15
-31.707
-32.308
-32.953
-33.64
-34.37
-35.139
-35.946
-36.788
-37.661
-38.561
-39.482
-40.419
-41.367
-42.32
-43.274
-44.222
-45.16
-46.083
-46.986
-47.866
-48.716
-49.528
-50.294
-51.006
-51.654
-52.23
-52.724
-53.125
-53.423
-53.612
-53.687
-53.643
-53.472
-53.166
-52.712
-52.106
-51.344
-50.428
-49.359
-48.141
-46.784
-45.303
-43.726
-42.078
-40.378
-38.634
-36.843
-35.009
-33.134
-31.223
-29.282
-27.303
-25.278
-23.203
-21.082
-18.916
-16.698
-14.401
-11.978
-9.393
-6.629
-3.696
-0.618
2.579
5.864
9.193
12.509
15.73
18.782
21.611
24.178
26.449
28.373
29.875
30.853
31.223
30.934
29.961
28.297
25.943
22.919
19.279
15.116
10.558
5.717
0.685
-4.471
-9.683
-14.864
-19.905
-24.668
-29.04
-32.933
-36.272
-39
-41.082
-42.506
-43.313
-43.604
-43.491
-43.087
-42.508
-41.848
-41.219
-40.744
-40.535
-40.752
-41.588
-43.176
-45.55
-48.602
-52.066
-55.636
-59.012
-61.782
-63.439
-63.562
-61.991
-59.089
-55.552
-52.148
-49.737
-48.968
-50.394
-54.628
-60.893
-67.391
-72.917
-75.211
-73.16
-66.236
-49.898
-20.337
25.613
89.702
166.874
251.379
339.279
428.056
518.327
608.634
691.375
755.407
789.349
784.838
742.453
668.504
570.581
458.921
340.89
224.282
119.672
34.139
-25.811
-58.198
-66.628
-54.913
-30.155
-0.382
26.44
42.751
45.902
38
25.206
13.257
4.14
-2.792
-10.68
-21.207
-33.136
-44.788
-54.053
-59.556
-61.478
-60.418
-57.131
-52.701
-48.211
-44.286
-41.335
-39.651
-39.236
-40.066
-42.102
-45.044
-48.487
-52.168
-55.894
-59.544
-63.081
-66.413
-69.414
-72.01
-74.166
-75.867
-77.107
-77.876
-78.157
-77.957
-77.316
-76.286
-74.924
-73.285
-71.416
-69.361
-67.171
-64.904
-62.616
-60.364
-58.192
-56.123
-54.179
-52.37
-50.704
-49.182
-47.796
-46.53
-45.37
-44.306
-43.328
-42.43
-41.601
-40.829
-40.1
-39.4
-38.715
-38.034
-37.345
-36.635
-35.891
-35.104
-34.262
-33.357
-32.377
-31.312
-30.148
-28.873
-27.476
-25.946
-24.274
-22.448
-20.462
-18.309
-15.984
-13.485
-10.809
-7.956
-4.927
-1.724
1.649
5.188
8.884
12.732
16.721
20.842
25.082
29.429
33.87
38.389
42.971
47.599
52.257
56.926
61.587
66.222
70.812
75.337
79.777
84.112
88.324
92.393
96.301
100.029
103.56
106.878
109.968
112.815
115.406
117.73
119.776
121.535
123
124.163
125.021
125.57
125.808
125.735
125.352
124.662
123.669
122.378
120.797
118.933
116.796
114.396
111.745
108.855
105.741
102.417
98.897
95.199
91.339
87.334
83.201
78.958
74.623
70.214
65.75
61.246
56.722
52.195
47.68
43.194
38.752
34.369
30.057
25.831
21.7
17.677
13.77
9.988
6.338
2.826
-0.541
-3.761
-6.829
-9.744
-12.504
-15.108
-17.557
-19.851
-21.992
-23.983
-25.827
-27.528
-29.089
-30.516
-31.813
-32.988
-34.045
-34.991
-35.834
-36.579
-37.235
-37.807
-38.303
-38.73
-39.095
-39.404
-39.662
-39.875
-40.048
-40.187
-40.294
-40.375
-40.431
-40.466
-40.482
-40.483
-40.469
-40.442
-40.405
-40.359
-40.304
-40.244
-40.177
-40.106
-40.031
-39.953
-39.872
-39.789
-39.704
-39.617
-39.527
-39.435
-39.341
-39.243
-39.142
-39.037
-38.928
-38.814
-38.696
-38.573
-38.447
-38.319
-38.189
-38.059
-37.93
-37.805
-37.685
-37.573
-37.469
-37.377
-37.297
-37.232
-37.182
-37.149
-37.134
-37.138
-37.162
-37.207
-37.272
-37.359
-37.468
-37.599
-37.752
-37.928
-38.127
-38.348
-38.593
-38.861
-39.153
-39.468
-39.806
-40.167
-40.548
-40.949
-41.369
-41.805
-42.254
-42.715
-43.184
-43.659
-44.137
-44.615
-45.09
-45.559
-46.021
-46.472
-46.909
-47.331
-47.736
-48.12
-48.483
-48.821
-49.135
-49.422
-49.68
-49.908
-50.104
-50.266
-50.394
-50.484
-50.536
-50.549
-50.52
-50.45
-50.339
-50.185
-49.989
-49.753
-49.478
-49.164
-48.815
-48.431
-48.017
-47.573
-47.103
-46.61
-46.096
-45.566
-45.022
-44.467
-43.906
-43.341
-42.776
-42.214
-41.658
-41.112
-40.58
-40.065
-39.571
-39.102
-38.662
-38.255
-37.885
-37.555
-37.271
-37.034
-36.848
-36.714
-36.636
-36.615
-36.651
-36.746
-36.9
-37.111
-37.38
-37.705
-38.084
-38.515
-38.994
-39.52
-40.089
-40.696
-41.338
-42.011
-42.71
-43.43
-44.166
-44.912
-45.663
-46.413
-47.154
-47.878
-48.58
-49.251
-49.883
-50.469
-51
-51.47
-51.871
-52.195
-52.436
-52.587
-52.642
-52.595
-52.441
-52.176
-51.797
-51.299
-50.681
-49.942
-49.08
-48.097
-46.992
-45.767
-44.423
-42.962
-41.389
-39.707
-37.922
-36.04
-34.069
-32.018
-29.901
-27.727
-25.512
-23.266
-21.006
-18.744
-16.499
-14.284
-12.116
-10.01
-7.981
-6.047
-4.224
-2.53
-0.978
0.419
1.653
2.713
3.59
4.276
4.764
5.052
5.135
5.006
4.656
4.081
3.275
2.241
0.988
-0.473
-2.127
-3.949
-5.917
-8.003
-10.172
-12.396
-14.636
-16.857
-19.03
-21.123
-23.106
-24.944
-26.581
-27.968
-29.09
-29.948
-30.59
-31.061
-31.345
-31.496
-31.663
-32.076
-33.006
-34.596
-36.777
-39.498
-42.881
-46.945
-51.51
-56.057
-59.75
-62.046
-62.92
-62.449
-60.483
-56.946
-51.998
-46.453
-41.879
-39.528
-39.882
-43.041
-49.101
-57.986
-69.289
-81.647
-92.308
-98.385
-97.494
-87.415
-66.075
-31.718
17.227
80.519
155.096
237.298
323.065
409.559
496.395
582.106
663.145
732.803
781.289
799.027
779.208
720.425
626.008
505.256
372.517
242.82
132.353
51.621
2.268
-19.098
-22.408
-17.067
-8.729
-2.237
1.203
0.532
-4.827
-12.518
-20.911
-27.967
-32.948
-37.867
-43.574
-50.284
-57.323
-62.611
-65.296
-65.551
-63.755
-60.756
-57.178
-53.355
-49.766
-46.833
-44.72
-43.439
-42.89
-42.925
-43.438
-44.338
-45.49
-46.744
-48.004
-49.226
-50.393
-51.476
-52.425
-53.179
-53.697
-54.004
-54.143
-54.155
-54.088
-53.975
-53.844
-53.745
-53.725
-53.807
-53.997
-54.271
-54.583
-54.917
-55.264
-55.614
-55.956
-56.242
-56.422
-56.465
-56.346
-56.051
-55.57
-54.883
-53.973
-52.849
-51.532
-50.059
-48.487
-46.848
-45.171
-43.481
-41.795
-40.141
-38.538
-36.986
-35.47
-33.966
-32.45
-30.907
-29.332
-27.708
-26.028
-24.276
-22.433
-20.494
-18.449
-16.291
-14.019
-11.629
-9.124
-6.527
-3.874
-1.216
1.386
3.899
6.302
8.585
10.764
12.857
14.893
16.921
18.974
21.077
23.257
25.525
27.892
30.392
33.063
35.959
39.152
42.681
46.565
50.811
55.388
60.253
65.344
70.568
75.845
81.113
86.313
91.406
96.359
101.121
105.64
109.858
113.698
117.105
120.036
122.454
124.351
125.734
126.627
127.081
127.145
126.848
126.214
125.258
123.984
122.409
120.548
118.414
116.032
113.427
110.619
107.632
104.481
101.17
97.7
94.059
90.238
86.238
82.063
77.726
73.243
68.632
63.91
59.105
54.235
49.321
44.38
39.426
34.476
29.548
24.663
19.841
15.101
10.462
5.94
1.55
-2.696
-6.788
-10.716
-14.477
-18.064
-21.472
-24.698
-27.736
-30.584
-33.238
-35.698
-37.963
-40.033
-41.909
-43.596
-45.096
-46.415
-47.559
-48.533
-49.345
-50.003
-50.513
-50.883
-51.122
-51.238
-51.239
-51.134
-50.93
-50.636
-50.26
-49.81
-49.294
-48.719
-48.092
-47.421
-46.711
-45.969
-45.199
-44.409
-43.604
-42.788
-41.966
-41.144
-40.325
-39.514
-38.715
-37.929
-37.161
-36.412
-35.685
-34.981
-34.301
-33.647
-33.019
-32.42
-31.85
-31.309
-30.798
-30.318
-29.869
-29.452
-29.067
-28.715
-28.395
-28.107
-27.853
-27.632
-27.444
-27.289
-27.166
-27.076
-27.018
-26.991
-26.995
-27.027
-27.089
-27.177
-27.292
-27.431
-27.595
-27.781
-27.988
-28.216
-28.462
-28.726
-29.005
-29.299
-29.604
-29.92
-30.245
-30.577
-30.913
-31.252
-31.592
-31.931
-32.267
-32.598
-32.922
-33.237
-33.541
-33.834
-34.114
-34.379
-34.629
-34.862
-35.08
-35.28
-35.463
-35.63
-35.779
-35.912
-36.029
-36.129
-36.214
-36.284
-36.34
-36.382
-36.412
-36.43
-36.437
-36.435
-36.425
-36.408
-36.386
-36.36
-36.332
-36.302
-36.274
-36.248
-36.226
-36.209
-36.2
-36.2
-36.209
-36.229
-36.262
-36.308
-36.367
-36.441
-36.529
-36.632
-36.751
-36.885
-37.035
-37.202
-37.385
-37.586
-37.804
-38.04
-38.294
-38.566
-38.857
-39.167
-39.496
-39.844
-40.211
-40.597
-41.002
-41.426
-41.867
-42.326
-42.801
-43.291
-43.795
-44.31
-44.837
-45.372
-45.914
-46.462
-47.012
-47.564
-48.114
-48.661
-49.2
-49.73
-50.246
-50.744
-51.22
-51.67
-52.087
-52.468
-52.807
-53.098
-53.337
-53.516
-53.631
-53.675
-53.643
-53.528
-53.324
-53.026
-52.629
-52.129
-51.521
-50.802
-49.97
-49.023
-47.958
-46.774
-45.47
-44.046
-42.504
-40.844
-39.07
-37.184
-35.193
-33.103
-30.921
-28.66
-26.328
-23.937
-21.499
-19.03
-16.545
-14.062
-11.6
-9.175
-6.804
-4.505
-2.297
-0.2
1.77
3.6
5.275
6.782
8.105
9.227
10.136
10.828
11.301
11.553
11.585
11.384
10.945
10.267
9.347
8.189
6.794
5.159
3.292
1.217
-1.034
-3.413
-5.883
-8.424
-11.022
-13.673
-16.359
-19.023
-21.611
-24.065
-26.324
-28.376
-30.186
-31.676
-32.863
-33.844
-34.773
-35.963
-37.664
-39.895
-42.685
-46.033
-49.73
-53.643
-57.488
-60.594
-62.442
-62.834
-61.644
-59.061
-55.581
-51.4
-46.885
-42.903
-40.178
-39.358
-41.023
-45.205
-51.483
-59.679
-69.595
-80.463
-91.276
-100.69
-106.127
-105.25
-97.295
-80.516
-54.517
-19.599
27.764
88.292
160.912
245.268
334.934
425.57
517.509
607.615
693.484
769.098
819.069
830.549
796.81
716.304
600.712
468.313
335.086
218.376
129.157
67.939
32.044
12.667
-0.982
-12.712
-23.081
-29.945
-29.662
-23.178
-14.07
-5.73
-1.185
-1.295
-5.538
-13.399
-23.872
-35.494
-46.599
-55.832
-62.553
-66.673
-68.268
-67.381
-64.257
-59.606
-54.512
-49.883
-46.18
-43.539
-41.948
-41.47
-42.155
-43.85
-46.2
-48.854
-51.595
-54.32
-57.002
-59.563
-61.875
-63.834
-65.372
-66.466
-67.111
-67.296
-67.009
-66.252
-65.051
-63.458
-61.54
-59.359
-56.973
-54.432
-51.782
-49.076
-46.371
-43.721
-41.181
-38.787
-36.562
-34.521
-32.673
-31.022
-29.567
-28.297
-27.193
-26.238
-25.421
-24.728
-24.151
-23.676
-23.286
-22.965
-22.696
-22.464
-22.254
-22.051
-21.841
-21.61
-21.345
-21.033
-20.664
-20.226
-19.705
-19.088
-18.361
-17.512
-16.529
-15.402
-14.119
-12.672
-11.054
-9.258
-7.281
-5.119
-2.77
-0.235
2.485
5.388
8.469
11.723
15.141
18.715
22.436
26.291
30.268
34.353
38.533
42.79
47.11
51.475
55.867
60.268
64.661
69.025
73.342
77.593
81.759
85.821
89.759
93.557
97.195
100.657
103.926
106.986
109.823
112.423
114.773
116.862
118.679
120.215
121.464
122.418
123.073
123.426
123.476
123.222
122.665
121.808
120.655
119.213
117.486
115.484
113.216
110.692
107.924
104.923
101.703
98.279
94.665
90.875
86.927
82.835
78.618
74.291
69.871
65.375
60.821
56.225
51.603
46.971
42.346
37.742
33.174
28.655
24.2
19.819
15.525
11.328
7.237
3.262
-0.59
-4.312
-7.898
-11.344
-14.645
-17.799
-20.803
-23.656
-26.356
-28.906
-31.304
-33.553
-35.654
-37.611
-39.425
-41.101
-42.641
-44.051
-45.333
-46.494
-47.537
-48.469
-49.292
-50.014
-50.639
-51.171
-51.618
-51.982
-52.27
-52.487
-52.637
-52.724
-52.754
-52.73
-52.657
-52.538
-52.378
-52.179
-51.944
-51.677
-51.381
-51.057
-50.708
-50.337
-49.945
-49.534
-49.106
-48.664
-48.208
-47.74
-47.262
-46.776
-46.282
-45.782
-45.278
-44.77
-44.26
-43.748
-43.237
-42.726
-42.218
-41.712
-41.209
-40.711
-40.217
-39.728
-39.245
-38.768
-38.297
-37.834
-37.378
-36.931
-36.492
-36.063
-35.645
-35.238
-34.842
-34.459
-34.09
-33.735
-33.395
-33.071
-32.763
-32.473
-32.201
-31.949
-31.717
-31.506
-31.316
-31.149
-31.004
-30.883
-30.786
-30.714
-30.667
-30.646
-30.65
-30.682
-30.74
-30.825
-30.938
-31.078
-31.246
-31.44
-31.66
-31.905
-32.175
-32.468
-32.784
-33.12
-33.475
-33.848
-34.236
-34.638
-35.05
-35.471
-35.897
-36.327
-36.757
-37.184
-37.606
-38.019
-38.422
-38.812
-39.186
-39.542
-39.878
-40.192
-40.482
-40.746
-40.983
-41.191
-41.368
-41.516
-41.632
-41.718
-41.773
-41.798
-41.794
-41.762
-41.704
-41.62
-41.512
-41.381
-41.231
-41.064
-40.882
-40.688
-40.487
-40.281
-40.074
-39.87
-39.672
-39.484
-39.308
-39.147
-39.004
-38.882
-38.783
-38.709
-38.661
-38.642
-38.651
-38.69
-38.759
-38.856
-38.979
-39.127
-39.296
-39.483
-39.685
-39.897
-40.115
-40.334
-40.551
-40.763
-40.964
-41.149
-41.312
-41.451
-41.557
-41.624
-41.644
-41.607
-41.507
-41.338
-41.092
-40.766
-40.354
-39.849
-39.249
-38.553
-37.76
-36.865
-35.863
-34.746
-33.514
-32.176
-30.744
-29.232
-27.651
-26.013
-24.335
-22.64
-20.942
-19.252
-17.565
-15.877
-14.191
-12.52
-10.889
-9.321
-7.829
-6.412
-5.071
-3.81
-2.634
-1.545
-0.529
0.439
1.362
2.221
2.97
3.558
3.956
4.15
4.136
3.909
3.458
2.765
1.828
0.66
-0.727
-2.328
-4.159
-6.245
-8.574
-11.109
-13.778
-16.505
-19.239
-21.923
-24.498
-26.916
-29.132
-31.118
-32.908
-34.514
-35.938
-37.279
-38.58
-39.892
-41.339
-42.914
-44.603
-46.551
-48.84
-51.394
-54.27
-57.38
-60.489
-63.666
-66.82
-69.566
-71.689
-73.049
-73.307
-72.418
-70.554
-67.712
-64.305
-60.964
-58.133
-56.219
-55.743
-57.132
-59.736
-61.632
-60.664
-54.447
-42.978
-29.271
-13.902
4.906
32.677
78.584
146.385
233.933
334.359
436.802
534.146
622.608
697.785
755.005
785.832
780.508
735.146
650.95
535.742
403.165
266.856
140.304
34.981
-41.926
-88.771
-108.46
-106.513
-91.687
-70.17
-47.751
-31.906
-24.374
-25.682
-33.193
-38.557
-38.323
-32.193
-21.874
-13.258
-8.91
-8.12
-10.37
-14.228
-19.006
-25.204
-32.447
-39.605
-46.062
-51.547
-55.81
-58.861
-60.717
-61.282
-60.958
-60.607
-60.72
-61.486
-62.961
-64.931
-67.224
-69.767
-72.322
-74.548
-76.243
-77.308
-77.73
-77.621
-77.057
-76.078
-74.747
-73.131
-71.278
-69.24
-67.057
-64.759
-62.396
-60.025
-57.692
-55.438
-53.288
-51.259
-49.358
-47.586
-45.936
-44.398
-42.965
-41.636
-40.412
-39.289
-38.26
-37.315
-36.441
-35.625
-34.852
-34.105
-33.371
-32.635
-31.888
-31.117
-30.316
-29.473
-28.579
-27.62
-26.584
-25.458
-24.23
-22.888
-21.42
-19.817
-18.068
-16.168
-14.11
-11.889
-9.501
-6.944
-4.216
-1.317
1.751
4.987
8.386
11.942
15.651
19.502
23.488
27.597
31.818
36.138
40.544
45.02
49.553
54.126
58.722
63.325
67.917
72.481
76.998
81.452
85.823
90.095
94.248
98.266
102.132
105.83
109.343
112.657
115.759
118.634
121.27
123.656
125.782
127.639
129.218
130.512
131.515
132.225
132.636
132.748
132.559
132.072
131.288
130.211
128.846
127.197
125.274
123.083
120.634
117.939
115.008
111.853
108.488
104.928
101.186
97.279
93.221
89.029
84.72
80.311
75.818
71.258
66.649
62.007
57.349
52.692
48.05
43.441
38.879
34.378
29.952
25.614
21.375
17.247
13.239
9.362
5.622
2.028
-1.416
-4.704
-7.833
-10.799
-13.602
-16.241
-18.715
-21.026
-23.175
-25.166
-27.002
-28.687
-30.226
-31.624
-32.886
-34.018
-35.028
-35.922
-36.706
-37.389
-37.977
-38.478
-38.899
-39.247
-39.53
-39.754
-39.926
-40.053
-40.14
-40.193
-40.218
-40.219
-40.2
-40.165
-40.117
-40.059
-39.992
-39.919
-39.84
-39.756
-39.668
-39.576
-39.48
-39.38
-39.274
-39.163
-39.046
-38.921
-38.788
-38.645
-38.493
-38.329
-38.154
-37.966
-37.766
-37.551
-37.322
-37.077
-36.818
-36.543
-36.253
-35.947
-35.626
-35.291
-34.943
-34.583
-34.212
-33.833
-33.447
-33.057
-32.665
-32.273
-31.885
-31.502
-31.127
-30.763
-30.412
-30.078
-29.761
-29.465
-29.191
-28.941
-28.715
-28.516
-28.344
-28.199
-28.083
-27.996
-27.938
-27.909
-27.909
-27.939
-27.998
-28.086
-28.201
-28.344
-28.513
-28.706
-28.923
-29.162
-29.42
-29.697
-29.99
-30.297
-30.615
-30.943
-31.278
-31.617
-31.959
-32.302
-32.643
-32.981
-33.314
-33.642
-33.963
-34.277
-34.583
-34.881
-35.169
-35.45
-35.721
-35.983
-36.237
-36.482
-36.718
-36.947
-37.168
-37.382
-37.59
-37.792
-37.99
-38.183
-38.374
-38.562
-38.751
-38.94
-39.133
-39.329
-39.532
-39.742
-39.962
-40.193
-40.435
-40.692
-40.963
-41.249
-41.552
-41.871
-42.207
-42.56
-42.93
-43.316
-43.719
-44.138
-44.571
-45.019
-45.479
-45.95
-46.431
-46.921
-47.417
-47.919
-48.423
-48.929
-49.432
-49.93
-50.421
-50.901
-51.365
-51.809
-52.23
-52.621
-52.979
-53.298
-53.574
-53.801
-53.974
-54.088
-54.138
-54.118
-54.025
-53.852
-53.597
-53.253
-52.82
-52.292
-51.667
-50.943
-50.118
-49.191
-48.161
-47.028
-45.791
-44.452
-43.011
-41.472
-39.836
-38.108
-36.293
-34.397
-32.429
-30.398
-28.315
-26.191
-24.041
-21.877
-19.713
-17.565
-15.445
-13.366
-11.341
-9.384
-7.511
-5.738
-4.078
-2.547
-1.157
0.078
1.146
2.037
2.747
3.272
3.605
3.741
3.662
3.354
2.805
2.009
0.959
-0.341
-1.885
-3.657
-5.624
-7.753
-10.005
-12.343
-14.739
-17.163
-19.575
-21.93
-24.169
-26.23
-28.067
-29.633
-30.892
-31.84
-32.484
-32.866
-33.061
-33.136
-33.171
-33.272
-33.527
-34.035
-34.901
-36.189
-38.013
-40.558
-43.917
-48.086
-52.953
-58.182
-63.424
-68.412
-72.739
-75.864
-77.432
-77.317
-75.746
-73.442
-71.241
-69.8
-69.724
-71.814
-75.983
-80.866
-84.902
-85.802
-82.345
-76.012
-67.055
-53.371
-31.048
7.264
67.314
148.609
247.668
357.316
467.418
571.475
662.667
732.715
777.544
791.023
768.049
709.515
615.55
493.28
357.761
224.482
112.872
36.154
-5.386
-18.107
-16.002
-12.562
-12.351
-15.396
-18.187
-16.901
-12.557
-8.148
-6.25
-8.745
-15.325
-24.44
-34.716
-44.828
-53.605
-60.22
-64.336
-66.049
-65.762
-64.057
-61.457
-58.406
-55.384
-52.839
-50.992
-49.89
-49.464
-49.557
-50.051
-50.883
-51.97
-53.218
-54.558
-55.918
-57.241
-58.516
-59.721
-60.845
-61.902
-62.878
-63.764
-64.572
-65.31
-65.978
-66.58
-67.089
-67.463
-67.69
-67.767
-67.704
-67.53
-67.248
-66.851
-66.332
-65.665
-64.843
-63.865
-62.722
-61.41
-59.937
-58.32
-56.599
-54.834
-53.064
-51.31
-49.59
-47.904
-46.261
-44.673
-43.149
-41.695
-40.316
-39.012
-37.784
-36.634
-35.553
-34.525
-33.523
-32.507
-31.448
-30.327
-29.124
-27.828
-26.427
-24.908
-23.265
-21.493
-19.588
-17.544
-15.355
-13.011
-10.51
-7.851
-5.037
-2.072
1.036
4.285
7.668
11.18
14.814
18.562
22.418
26.376
30.427
34.561
38.764
43.024
47.324
51.65
55.986
60.315
64.619
68.88
73.083
77.209
81.242
85.163
88.956
92.603
96.088
99.393
102.504
105.404
108.079
110.514
112.698
114.617
116.262
117.622
118.69
119.459
119.923
120.079
119.925
119.459
118.682
117.597
116.208
114.521
112.541
110.279
107.743
104.945
101.897
98.613
95.106
91.392
87.487
83.407
79.169
74.791
70.291
65.687
60.998
56.244
51.442
46.612
41.771
36.939
32.133
27.369
22.664
18.033
13.491
9.052
4.726
0.527
-3.536
-7.455
-11.221
-14.827
-18.269
-21.541
-24.641
-27.567
-30.317
-32.891
-35.289
-37.514
-39.568
-41.453
-43.172
-44.731
-46.135
-47.387
-48.494
-49.462
-50.298
-51.008
-51.6
-52.08
-52.456
-52.734
-52.923
-53.028
-53.057
-53.015
-52.91
-52.748
-52.533
-52.271
-51.968
-51.627
-51.253
-50.85
-50.422
-49.973
-49.504
-49.019
-48.52
-48.01
-47.49
-46.964
-46.432
-45.898
-45.361
-44.825
-44.29
-43.758
-43.23
-42.707
-42.19
-41.68
-41.178
-40.684
-40.199
-39.724
-39.26
-38.807
-38.365
-37.935
-37.518
-37.114
-36.723
-36.346
-35.982
-35.631
-35.295
-34.973
-34.665
-34.371
-34.092
-33.826
-33.575
-33.336
-33.111
-32.899
-32.698
-32.509
-32.33
-32.161
-32.002
-31.851
-31.708
-31.573
-31.444
-31.322
-31.205
-31.093
-30.985
-30.882
-30.782
-30.686
-30.593
-30.505
-30.419
-30.338
-30.261
-30.188
-30.121
-30.059
-30.002
-29.951
-29.907
-29.87
-29.84
-29.818
-29.804
-29.798
-29.8
-29.812
-29.833
-29.862
-29.901
-29.949
-30.006
-30.072
-30.147
-30.232
-30.326
-30.429
-30.542
-30.663
-30.793
-30.931
-31.078
-31.232
-31.393
-31.562
-31.736
-31.916
-32.102
-32.292
-32.487
-32.685
-32.887
-33.092
-33.301
-33.513
-33.728
-33.948
-34.173
-34.404
-34.643
-34.889
-35.146
-35.412
-35.69
-35.98
-36.283
-36.598
-36.928
-37.27
-37.627
-37.997
-38.382
-38.78
-39.191
-39.616
-40.052
-40.499
-40.957
-41.423
-41.897
-42.378
-42.863
-43.351
-43.84
-44.329
-44.814
-45.292
-45.759
-46.211
-46.641
-47.045
-47.416
-47.747
-48.033
-48.267
-48.444
-48.559
-48.606
-48.583
-48.487
-48.315
-48.062
-47.725
-47.298
-46.778
-46.16
-45.439
-44.611
-43.672
-42.619
-41.451
-40.172
-38.782
-37.282
-35.669
-33.941
-32.097
-30.146
-28.094
-25.952
-23.734
-21.461
-19.159
-16.869
-14.621
-12.437
-10.332
-8.311
-6.381
-4.55
-2.824
-1.207
0.299
1.698
2.986
4.152
5.202
6.151
7.03
7.899
8.792
9.719
10.68
11.656
12.619
13.543
14.383
15.077
15.577
15.841
15.853
15.626
15.152
14.413
13.374
11.973
10.18
8.001
5.448
2.561
-0.602
-3.981
-7.476
-10.958
-14.332
-17.533
-20.543
-23.406
-26.154
-28.8
-31.344
-33.772
-36.098
-38.364
-40.617
-42.901
-45.264
-47.807
-50.72
-54.162
-58.192
-62.719
-67.409
-71.851
-75.685
-78.418
-79.482
-78.555
-75.463
-70.361
-64.141
-57.856
-52.432
-49.187
-48.68
-49.921
-51.998
-53.49
-53.532
-54.282
-56.792
-58.688
-54.548
-33.836
13.635
90.478
193.657
314.176
438.773
558.835
667.237
755.843
820.281
853.469
848.694
806.377
727.134
617.088
489.819
358.055
238.417
145.75
83.218
47.775
29.619
15.854
3.316
-4.27
-2.827
11.128
31.91
46.499
46.977
30.804
2.957
-24.778
-45.189
-56.183
-59.104
-58.857
-58.127
-57.064
-55.336
-51.993
-47.069
-41.5
-36.098
-31.544
-28.108
-25.75
-24.408
-23.961
-24.301
-25.343
-26.974
-29.104
-31.655
-34.527
-37.63
-40.86
-44.086
-47.181
-50.016
-52.464
-54.449
-55.931
-56.891
-57.345
-57.316
-56.83
-55.937
-54.693
-53.153
-51.378
-49.421
-47.334
-45.175
-43.005
-40.881
-38.86
-36.976
-35.25
-33.693
-32.306
-31.085
-30.024
-29.109
-28.32
-27.641
-27.058
-26.557
-26.13
-25.76
-25.432
-25.129
-24.833
-24.531
-24.207
-23.851
-23.448
-22.987
-22.456
-21.846
-21.148
-20.352
-19.447
-18.422
-17.265
-15.968
-14.521
-12.916
-11.147
-9.206
-7.091
-4.799
-2.328
0.322
3.15
6.153
9.329
12.672
16.177
19.838
23.646
27.592
31.667
35.858
40.154
44.541
49.005
53.531
58.102
62.704
67.318
71.926
76.513
81.058
85.544
89.952
94.264
98.462
102.527
106.442
110.189
113.752
117.115
120.262
123.179
125.854
128.272
130.423
132.296
133.882
135.172
136.159
136.837
137.203
137.253
136.987
136.404
135.505
134.294
132.776
130.957
128.843
126.444
123.77
120.831
117.64
114.212
110.559
106.698
102.645
98.417
94.032
89.507
84.862
80.116
75.287
70.394
65.458
60.497
55.53
50.576
45.652
40.778
35.969
31.241
26.611
22.092
17.697
13.439
9.328
5.375
1.587
-2.028
-5.464
-8.715
-11.78
-14.654
-17.337
-19.828
-22.129
-24.241
-26.168
-27.912
-29.478
-30.873
-32.101
-33.171
-34.088
-34.862
-35.5
-36.012
-36.406
-36.691
-36.877
-36.973
-36.989
-36.934
-36.816
-36.645
-36.429
-36.176
-35.893
-35.588
-35.268
-34.937
-34.603
-34.27
-33.943
-33.627
-33.325
-33.04
-32.776
-32.535
-32.32
-32.131
-31.97
-31.838
-31.736
-31.663
-31.621
-31.608
-31.624
-31.667
-31.738
-31.834
-31.955
-32.097
-32.26
-32.442
-32.641
-32.855
-33.083
-33.322
-33.571
-33.828
-34.091
-34.36
-34.632
-34.906
-35.18
-35.452
-35.721
-35.986
-36.244
-36.494
-36.736
-36.966
-37.184
-37.388
-37.577
-37.75
-37.905
-38.042
-38.16
-38.258
-38.335
-38.392
-38.428
-38.443
-38.438
-38.412
-38.366
-38.3
-38.214
-38.111
-37.99
-37.851
-37.698
-37.529
-37.348
-37.155
-36.952
-36.741
-36.524
-36.303
-36.08
-35.857
-35.637
-35.422
-35.214
-35.016
-34.83
-34.659
-34.504
-34.368
-34.253
-34.159
-34.089
-34.043
-34.023
-34.029
-34.061
-34.12
-34.206
-34.318
-34.456
-34.619
-34.807
-35.018
-35.251
-35.504
-35.775
-36.063
-36.365
-36.679
-37.003
-37.335
-37.672
-38.012
-38.354
-38.695
-39.033
-39.365
-39.691
-40.007
-40.313
-40.606
-40.886
-41.151
-41.4
-41.634
-41.851
-42.052
-42.238
-42.41
-42.567
-42.712
-42.846
-42.971
-43.089
-43.203
-43.316
-43.429
-43.548
-43.673
-43.81
-43.959
-44.124
-44.306
-44.508
-44.73
-44.972
-45.234
-45.517
-45.818
-46.139
-46.479
-46.836
-47.21
-47.602
-48.009
-48.431
-48.865
-49.307
-49.751
-50.193
-50.625
-51.042
-51.434
-51.794
-52.111
-52.38
-52.593
-52.741
-52.814
-52.795
-52.676
-52.449
-52.111
-51.66
-51.099
-50.43
-49.662
-48.814
-47.903
-46.942
-45.945
-44.91
-43.837
-42.728
-41.584
-40.414
-39.215
-37.972
-36.664
-35.279
-33.797
-32.202
-30.469
-28.548
-26.403
-24.011
-21.357
-18.458
-15.337
-12.02
-8.539
-4.939
-1.276
2.367
5.899
9.249
12.344
15.112
17.474
19.321
20.559
21.126
20.968
20.068
18.426
16.046
12.956
9.221
4.919
0.156
-4.946
-10.293
-15.789
-21.332
-26.811
-32.096
-37.074
-41.667
-45.813
-49.447
-52.512
-54.974
-56.84
-58.185
-59.113
-59.694
-59.958
-60.019
-60.077
-60.34
-61.054
-62.307
-64.01
-66.242
-69.194
-72.789
-76.719
-80.458
-83.244
-84.723
-84.952
-83.652
-80.456
-75.455
-69.103
-62.408
-56.955
-53.701
-52.998
-55.727
-61.811
-69.796
-78.288
-84.768
-88.259
-90.585
-90.741
-85.66
-68.367
-28.534
36.767
125.125
228.821
336.001
442.043
544.607
640.756
726.74
791.561
823.083
813.67
761.604
672.717
557.901
429.554
299.84
181.261
84.287
15.354
-24.719
-41.94
-45.446
-43.69
-40.851
-37.167
-31.66
-23.58
-14.724
-7.57
-3.758
-4.624
-10.158
-19.502
-31.491
-44.185
-55.558
-64.626
-71.105
-75.061
-76.759
-76.271
-73.858
-70.36
-66.875
-64.12
-62.395
-61.716
-61.98
-63.26
-65.604
-68.814
-72.52
-76.392
-80.229
-83.949
-87.523
-90.854
-93.804
-96.272
-98.223
-99.669
-100.628
-101.111
-101.117
-100.656
-99.769
-98.514
-96.952
-95.144
-93.141
-90.991
-88.745
-86.461
-84.193
-81.998
-79.916
-77.97
-76.175
-74.539
-73.064
-71.753
-70.599
-69.586
-68.699
-67.926
-67.255
-66.677
-66.182
-65.755
-65.379
-65.04
-64.722
-64.414
-64.1
-63.769
-63.407
-63
-62.536
-62.006
-61.397
-60.696
-59.891
-58.967
-57.914
-56.719
-55.373
-53.864
-52.185
-50.328
-48.288
-46.061
-43.645
-41.039
-38.244
-35.262
-32.096
-28.752
-25.237
-21.557
-17.723
-13.744
-9.633
-5.401
-1.064
3.365
7.87
12.435
17.041
21.672
26.309
30.933
35.525
40.067
44.538
48.919
53.192
57.337
61.336
65.172
68.825
72.281
75.524
78.538
81.311
83.83
86.083
88.061
89.755
91.158
92.264
93.068
93.567
93.758
93.642
93.218
92.489
91.458
90.131
88.512
86.61
84.433
81.992
79.295
76.357
73.188
69.803
66.217
62.444
58.5
54.402
50.165
45.808
41.348
36.801
32.186
27.521
22.821
18.105
13.388
8.687
4.018
-0.605
-5.168
-9.656
-14.057
-18.359
-22.55
-26.621
-30.562
-34.365
-38.023
-41.529
-44.879
-48.067
-51.092
-53.95
-56.64
-59.161
-61.514
-63.7
-65.72
-67.577
-69.274
-70.815
-72.205
-73.449
-74.553
-75.522
-76.363
-77.082
-77.687
-78.184
-78.58
-78.883
-79.099
-79.237
-79.302
-79.301
-79.241
-79.128
-78.968
-78.767
-78.529
-78.259
-77.963
-77.643
-77.303
-76.947
-76.578
-76.2
-75.813
-75.422
-75.027
-74.631
-74.236
-73.841
-73.449
-73.061
-72.675
-72.294
-71.916
-71.543
-71.172
-70.805
-70.441
-70.08
-69.72
-69.362
-69.005
-68.648
-68.293
-67.938
-67.583
-67.23
-66.878
-66.528
-66.181
-65.838
-65.5
-65.167
-64.84
-64.52
-64.208
-63.905
-63.611
-63.327
-63.054
-62.792
-62.541
-62.302
-62.077
-61.864
-61.665
-61.481
-61.311
-61.157
-61.019
-60.897
-60.792
-60.704
-60.633
-60.58
-60.543
-60.524
-60.521
-60.534
-60.562
-60.604
-60.659
-60.725
-60.803
-60.889
-60.984
-61.085
-61.192
-61.303
-61.418
-61.535
-61.654
-61.773
-61.891
-62.009
-62.124
-62.236
-62.343
-62.446
-62.541
-62.629
-62.708
-62.776
-62.832
-62.875
-62.903
-62.915
-62.91
-62.886
-62.842
-62.777
-62.691
-62.581
-62.449
-62.292
-62.11
-61.904
-61.672
-61.416
-61.133
-60.826
-60.493
-60.135
-59.753
-59.347
-58.917
-58.465
-57.991
-57.497
-56.985
-56.455
-55.911
-55.355
-54.789
-54.217
-53.641
-53.064
-52.491
-51.924
-51.368
-50.827
-50.303
-49.802
-49.326
-48.881
-48.469
-48.095
-47.76
-47.47
-47.225
-47.03
-46.885
-46.793
-46.754
-46.77
-46.841
-46.966
-47.146
-47.378
-47.66
-47.992
-48.369
-48.787
-49.244
-49.734
-50.251
-50.79
-51.344
-51.906
-52.468
-53.022
-53.561
-54.075
-54.555
-54.992
-55.376
-55.699
-55.95
-56.12
-56.2
-56.181
-56.055
-55.813
-55.448
-54.954
-54.325
-53.555
-52.641
-51.579
-50.367
-49.004
-47.49
-45.826
-44.013
-42.055
-39.958
-37.726
-35.366
-32.888
-30.3
-27.615
-24.845
-22.006
-19.112
-16.181
-13.23
-10.279
-7.346
-4.45
-1.609
1.159
3.834
6.4
8.836
11.125
13.247
15.186
16.927
18.454
19.757
20.828
21.662
22.254
22.6
22.69
22.517
22.074
21.354
20.355
19.08
17.538
15.748
13.74
11.549
9.209
6.758
4.224
1.643
-0.947
-3.507
-5.981
-8.318
-10.464
-12.359
-13.951
-15.218
-16.158
-16.797
-17.201
-17.42
-17.493
-17.494
-17.492
-17.532
-17.678
-17.989
-18.509
-19.376
-20.806
-22.883
-25.602
-28.95
-32.691
-36.365
-39.602
-41.901
-42.434
-41.512
-39.623
-36.087
-31.622
-25.743
-17.463
-10.277
-6.074
-5.921
-11.891
-19.942
-27.271
-34.413
-38.785
-38.9
-29.638
-0.235
55.602
138.645
243.43
358.388
474.148
585.609
689.283
780.77
852.25
893.278
894.912
854.664
776.01
667.519
541.682
410.98
288.054
184.335
107.267
59.322
38.282
37.924
49.495
65.409
78.437
83.467
80.069
69.941
57.846
48.548
43.383
41.519
39.881
36.248
30.8
24.932
20.846
19.587
20.864
24.096
28.479
33.425
38.585
43.458
47.574
50.728
52.878
54.096
54.512
54.215
53.29
51.879
50.141
48.195
46.134
44.031
41.962
40.02
38.308
36.922
35.916
35.314
35.118
35.31
35.863
36.737
37.881
39.23
40.72
42.29
43.883
45.447
46.927
48.263
49.4
50.283
50.875
51.152
51.102
50.718
50.002
48.959
47.601
45.946
44.011
41.812
