Name
Date of Birth,"Mar 27, 1959"
Recorded Date,2020-03-12 20:23:46 -0500
Classification,Sinus Rhythm
Symptoms,
Software Version,1.52
Device,"Watch4,2"
Sample Rate,510.227 hertz


Lead,Lead I
Unit,µV

441.888
518.352
451.075
436.635
492.577
534.398
555.049
573.44
582.322
575.732
552.935
515.597
469.009
416.277
359.59
301.809
245.707
195.187
154.005
124.3
107.03
102.424
109.748
127.326
152.337
180.736
208.56
232.526
249.502
256.574
252.217
236.318
209.878
175.116
134.479
90.236
45.252
2.772
-35.447
-69.06
-98.288
-124.275
-147.858
-169.208
-189.7
-211.307
-233.934
-256.557
-276.237
-287.163
-287.67
-278.84
-262.918
-246.007
-227.678
-200.65
-156.191
-84.545
14.178
126.712
232.414
310.87
349.226
346.84
314.907
262.783
196.165
114.41
6.622
-128.422
-282.047
-436.232
-560.622
-637.868
-666.215
-656.569
-633.603
-613.44
-601.399
-596.74
-591.805
-584.168
-576.352
-570.811
-570.841
-576.768
-586.228
-597.161
-607.458
-615.42
-620.572
-622.942
-622.826
-620.964
-618.106
-614.852
-611.835
-609.627
-608.476
-608.412
-609.329
-610.965
-613.092
-615.545
-618.134
-620.679
-623.042
-625.095
-626.736
-627.893
-628.506
-628.531
-627.944
-626.738
-624.92
-622.518
-619.577
-616.151
-612.296
-608.057
-603.472
-598.576
-593.419
-588.051
-582.527
-576.894
-571.184
-565.419
-559.623
-553.811
-547.997
-542.179
-536.34
-530.457
-524.502
-518.474
-512.393
-506.276
-500.151
-494.008
-487.805
-481.522
-475.152
-468.689
-462.158
-455.522
-448.645
-441.568
-434.467
-427.495
-420.869
-414.561
-408.207
-401.675
-395.088
-388.249
-380.804
-372.341
-362.189
-350.383
-337.778
-324.831
-311.664
-298.678
-286.258
-275.007
-265.991
-259.274
-253.852
-249.117
-244.698
-240.166
-235.36
-229.804
-222.533
-213.404
-203.081
-191.993
-180.536
-168.985
-157.277
-145.594
-134.425
-123.892
-113.833
-104.167
-94.758
-85.605
-76.918
-68.808
-61.331
-54.593
-48.692
-43.709
-39.726
-36.753
-34.741
-33.639
-33.352
-33.769
-34.78
-36.244
-38.052
-40.096
-42.258
-44.411
-46.42
-48.162
-49.567
-50.6
-51.224
-51.428
-51.195
-50.513
-49.46
-48.151
-46.725
-45.354
-44.162
-43.204
-42.583
-42.451
-42.839
-43.706
-44.831
-45.76
-46.261
-46.344
-45.991
-45.229
-44.163
-42.863
-41.751
-41.628
-42.728
-44.791
-47.388
-49.688
-50.83
-50.034
-46.01
-37.249
-23.052
-3.3
21.739
51.103
83.691
118.154
152.411
184.442
212.883
236.705
255.185
268.035
275.192
277.243
275.576
271.402
265.566
258.813
251.802
245.25
239.74
235.255
231.238
227.299
223.316
219.317
215.409
211.546
207.713
204.155
201.308
199.494
198.807
199.152
200.292
202.006
204.075
206.239
208.214
209.747
210.67
210.859
210.245
208.748
206.242
202.619
197.798
191.734
184.435
175.965
166.417
155.955
144.801
133.152
121.186
109.041
96.79
84.501
72.238
60.042
47.955
36.011
24.22
12.605
1.196
-9.995
-20.961
-31.731
-42.376
-52.951
-63.494
-74.01
-84.463
-94.811
-105.015
-115.008
-124.698
-133.964
-142.655
-150.646
-157.86
-164.229
-169.714
-174.27
-177.834
-180.36
-181.827
-182.226
-181.565
-179.85
-177.068
-173.222
-168.354
-162.549
-155.94
-148.652
-140.774
-132.38
-123.539
-114.315
-104.783
-95.014
-85.047
-74.928
-64.729
-54.545
-44.511
-34.788
-25.504
-16.762
-8.642
-1.206
5.469
11.299
16.223
20.183
23.126
24.999
25.72
25.211
23.454
20.465
16.31
11.098
4.931
-2.086
-9.818
-18.143
-26.924
-36.007
-45.26
-54.544
-63.692
-72.541
-80.889
-88.53
-95.302
-101.067
-105.704
-109.125
-111.236
-111.956
-111.264
-109.155
-105.652
-100.826
-94.761
-87.581
-79.453
-70.53
-61.003
-51.091
-41.014
-31.027
-21.401
-12.378
-4.243
2.644
8.031
11.807
14.026
15.054
15.336
15.223
15.118
15.496
16.551
18.112
19.572
19.53
16.487
9.437
-2.5
-19.986
-42.878
-70.195
-99.908
-128.27
-151.197
-165.482
-167.78
-154.886
-124.782
-76.631
-12.878
59.871
134.805
207.437
277.638
347.425
415.806
475.919
511.361
505.961
449.857
341.044
196.242
38.506
-108.292
-219.244
-287.38
-316.052
-315.386
-304.689
-293.23
-283.534
-275.044
-260.689
-239.22
-214.237
-189.456
-171.063
-163.089
-165.894
-179.505
-203.399
-235.936
-275.729
-321.122
-368.911
-415.385
-457.289
-491.13
-513.711
-523.48
-519.469
-501.206
-470.127
-428.806
-380.359
-329.037
-279.19
-233.796
-195.296
-165.844
-146.122
-135.755
-133.552
-136.95
-143.068
-150.025
-156.291
-160.382
-161.585
-159.67
-154.828
-148.172
-141.032
-134.073
-127.701
-122.258
-117.729
-114.061
-111.137
-108.466
-105.485
-101.932
-97.674
-92.682
-87.071
-80.895
-74.188
-67.086
-59.74
-52.27
-44.785
-37.362
-30.063
-22.973
-16.176
-9.73
-3.674
1.988
7.262
12.153
16.669
20.816
24.585
27.969
30.953
33.514
35.644
37.359
38.698
39.725
40.515
41.122
41.583
41.92
42.139
42.256
42.294
42.282
42.273
42.33
42.534
42.998
43.83
45.109
46.879
49.128
51.818
54.942
58.504
62.51
66.952
71.779
76.945
82.426
88.205
94.265
100.504
106.717
112.742
118.521
123.984
129.043
133.439
136.634
138.297
138.437
137.102
134.333
130.226
124.935
119.174
114.377
111.546
110.884
112.273
115.366
119.552
123.898
126.857
125.764
119.69
110.47
98.005
81.421
58.223
22.714
-21.898
-64.876
-95.667
-101.232
-79.918
-42.249
3.453
47.304
85.249
122.455
160.701
200.243
239.969
274.816
301.596
319.952
330.126
332.985
329.756
321.414
309.32
295.761
282.782
271.413
262.241
255.636
251.589
250.056
250.613
252.068
253.398
254.085
253.831
252.641
250.599
247.634
243.814
239.413
234.541
229.172
223.174
216.223
208.004
198.281
186.838
173.536
158.367
141.404
122.818
102.861
81.816
59.954
37.558
14.969
-7.565
-29.886
-51.892
-73.691
-95.344
-116.589
-137.199
-156.992
-175.428
-192.058
-206.425
-217.429
-224.271
-226.946
-225.453
-220.363
-213.29
-205.496
-198.351
-194.3
-195.117
-201.708
-215.062
-234.756
-258.723
-285.252
-312.201
-336.316
-355.301
-367.356
-370.372
-363.871
-348.913
-326.466
-298.26
-266.831
-233.799
-200.687
-169.444
-140.969
-115.402
-92.865
-72.785
-54.23
-36.926
-20.634
-4.905
10.278
24.832
38.705
51.485
62.719
72.31
80.27
86.683
91.812
95.868
99.044
101.668
104.05
106.418
108.943
111.705
114.721
118.031
121.663
125.621
129.881
134.38
139.03
143.741
148.407
152.917
157.148
160.962
164.242
166.907
168.898
170.19
170.768
170.621
169.75
168.173
165.916
163.02
159.528
155.483
150.935
145.942
140.571
134.896
128.984
122.886
116.648
110.31
103.916
97.521
91.179
84.937
78.836
72.914
67.209
61.763
56.621
51.823
47.398
43.366
39.738
36.527
33.747
31.393
29.435
27.802
26.391
25.108
23.871
22.614
21.294
19.852
18.194
16.24
13.913
11.15
7.958
4.283
-0.01
-4.9
-10.209
-15.547
-20.221
-23.618
-25.366
-24.998
-22.034
-16.393
-8.251
1.544
11.34
19.77
25.858
28.661
27.71
23.318
16.383
9.239
5.455
8.107
20.18
44.681
83.523
137.52
204.721
279.396
355.44
428.285
497.542
565.316
628.404
677.32
695.592
667.024
588.231
468.934
329.404
191.275
67.262
-39.121
-130.225
-208.145
-272.29
-320.744
-351.72
-366.662
-369.599
-364.814
-357.007
-349.984
-345.612
-344.815
-347.561
-352.677
-358.633
-363.848
-366.405
-364.613
-357.68
-345.426
-328.209
-306.868
-282.31
-255.459
-227.383
-199.108
-171.35
-144.56
-119.008
-94.833
-72.189
-51.259
-32.176
-15.022
0.104
13.115
23.958
32.584
39.011
43.345
45.714
46.275
45.22
42.691
38.824
33.776
27.675
20.662
12.904
4.539
-4.295
-13.447
-22.781
-32.167
-41.468
-50.604
-59.519
-68.172
-76.55
-84.603
-92.26
-99.451
-106.082
-112.067
-117.344
-121.838
-125.478
-128.233
-130.091
-131.065
-131.199
-130.515
-129.017
-126.715
-123.611
-119.735
-115.148
-109.921
-104.146
-97.928
-91.37
-84.591
-77.723
-70.858
-64.063
-57.384
-50.831
-44.428
-38.21
-32.199
-26.419
-20.882
-15.584
-10.521
-5.683
-1.046
3.422
7.761
12.026
16.243
20.416
24.538
28.579
32.511
36.312
39.946
43.376
46.567
49.484
52.094
54.367
56.259
57.729
58.736
59.235
59.198
58.611
57.469
55.785
53.589
50.908
47.779
44.239
40.316
36.041
31.451
26.579
21.47
16.159
10.676
5.051
-0.683
-6.505
-12.405
-18.396
-24.519
-30.805
-37.278
-43.955
-50.838
-57.932
-65.238
-72.739
-80.405
-88.182
-96
-103.79
-111.486
-119.004
-126.236
-133.042
-139.247
-144.697
-149.251
-152.776
-155.147
-156.23
-155.913
-154.128
-150.847
-146.079
-139.855
-132.208
-123.172
-112.814
-101.23
-88.546
-74.915
-60.463
-45.3
-29.547
-13.335
3.189
19.893
36.697
53.564
70.48
87.44
104.437
121.451
138.487
155.564
172.689
189.862
207.037
224.123
241.035
257.683
273.971
289.788
304.97
319.303
332.558
344.499
354.883
363.481
370.055
374.356
376.185
375.379
371.836
365.53
356.471
344.707
330.343
313.525
294.457
273.42
250.735
226.757
201.9
176.585
151.268
126.447
102.586
80.131
59.502
41.048
25.071
11.826
1.496
-5.783
-9.917
-10.89
-8.748
-3.591
4.396
14.982
27.88
42.732
59.157
76.759
95.122
113.857
132.6
151.007
168.772
185.615
201.255
215.455
228.023
238.803
247.698
254.663
259.705
262.896
264.353
264.224
262.686
259.922
256.108
251.424
246.046
240.147
233.917
227.541
221.186
215.013
209.165
203.743
198.819
194.427
190.564
187.209
184.324
181.855
179.748
177.945
176.379
174.982
173.673
172.363
170.969
169.407
167.601
165.502
163.085
160.342
157.284
153.936
150.338
146.547
142.63
138.654
134.69
130.823
127.159
123.815
120.903
118.525
116.771
115.701
115.356
115.763
116.935
118.863
121.514
124.825
128.716
133.106
137.906
142.995
148.188
153.273
158.042
162.311
165.943
168.819
170.809
171.794
171.687
170.454
168.134
164.744
160.24
154.667
148.207
141.266
134.486
128.432
123.547
120.438
119.758
121.821
126.688
133.677
141.55
149.648
157.116
162.561
165.294
165.129
163.644
165.542
173.669
188.548
209.064
231.239
257.286
293.475
346.343
424.221
525.52
643.566
770.228
889.172
987.805
1053.79
1071.557
1037.799
952.819
821.491
665.527
504.824
361.43
259.831
202.237
184.614
196.624
217.956
244.489
272.459
294.875
312.143
315.26
301.573
280.636
258.179
243.852
241.911
245.821
252.486
259.378
265.273
273.467
284.789
297.804
311.355
323.787
333.882
341.418
346.309
348.273
347.598
345.254
342.103
338.528
334.457
329.384
322.583
313.286
300.092
281.032
253.928
218.659
177.773
131.666
80.052
20.675
-51.863
-133.024
-211.434
-275.872
-312.516
-320.809
-312.56
-297.358
-286.357
-283.229
-281.892
-279.602
-274.592
-266.635
-259.119
-253.221
-248.122
-243.021
-236.947
-229.416
-220.692
-211.147
-201.02
-190.74
-180.98
-172.354
-165.207
-159.71
-155.812
-153.346
-152.236
-152.34
-153.406
-155.147
-157.247
-159.421
-161.474
-163.281
-164.727
-165.701
-166.07
-165.723
-164.614
-162.727
-160.077
-156.683
-152.556
-147.742
-142.347
-136.517
-130.443
-124.33
-118.354
-112.653
-107.338
-102.508
-98.263
-94.691
-91.851
-89.791
-88.561
-88.219
-88.837
-90.468
-93.115
-96.747
-101.295
-106.661
-112.743
-119.462
-126.75
-134.557
-142.85
-151.602
-160.797
-170.42
-180.44
-190.808
-201.449
-212.288
-223.263
-234.324
-245.448
-256.642
-267.927
-279.313
-290.791
-302.322
-313.829
-325.229
-336.425
-347.312
-357.803
-367.819
-377.313
-386.266
-394.683
-402.604
-410.051
-417.017
-423.459
-429.321
-434.604
-439.383
-443.802
-448.036
-452.233
-456.491
-460.94
-465.784
-471.115
-476.92
-482.975
-488.747
-493.916
-498.497
-502.572
-506.292
-509.873
-513.348
-517.015
-521.812
-528.179
-535.865
-544.286
-552.107
-557.853
-560.681
-559.549
-552.684
-538.982
-518.06
-490.049
-456.669
-420.105
-381.683
-342.831
-305.505
-271.141
-240.95
-215.891
-195.21
-177.526
-162.251
-148.853
-136.705
-125.5
-114.661
-103.5
-92.431
-82.354
-73.673
-66.623
-61.185
-57.064
-54.259
-52.925
-52.765
-53.217
-53.833
-54.243
-54.311
-54.087
-53.517
-52.47
-50.893
-48.821
-46.331
-43.541
-40.538
-37.353
-34.045
-30.712
-27.476
-24.47
-21.813
-19.566
-17.756
-16.398
-15.494
-15.041
-15.027
-15.419
-16.171
-17.24
-18.57
-20.098
-21.749
-23.416
-24.996
-26.394
-27.532
-28.365
-28.883
-29.101
-29.057
-28.806
-28.401
-27.893
-27.343
-26.807
-26.348
-26.038
-25.964
-26.235
-26.963
-28.259
-30.215
-32.89
-36.302
-40.428
-45.214
-50.582
-56.446
-62.719
-69.297
-76.066
-82.922
-89.77
-96.5
-103
-109.132
-114.735
-119.669
-123.823
-127.113
-129.5
-130.967
-131.511
-131.174
-130.022
-128.143
-125.655
-122.644
-119.178
-115.336
-111.191
-106.843
-102.419
-98.032
-93.778
-89.766
-86.079
-82.793
-79.987
-77.681
-75.849
-74.457
-73.441
-72.776
-72.459
-72.479
-72.836
-73.534
-74.58
-75.996
-77.815
-80.034
-82.645
-85.638
-88.981
-92.683
-96.755
-101.184
-105.98
-111.129
-116.606
-122.394
-128.422
-134.563
-140.689
-146.633
-152.065
-156.509
-159.356
-159.97
-158.025
-153.431
-146.03
-135.677
-122.875
-108.92
-95.359
-84.03
-74.612
-64.33
-53.304
-42.951
-35.839
-36.994
-41.959
-39.372
-20.897
22.107
87.777
164.224
245.909
327.837
405.549
475.438
524.018
537.565
507.796
434.829
331.455
209.388
82.357
-36.072
-140.573
-220.787
-273.228
-305.381
-321.541
-329.74
-334.256
-330.53
-317.49
-296.628
-271.34
-247.5
-228.131
-213.755
-203.877
-197.408
-193.646
-190.837
-186.808
-180.512
-171.466
-159.85
-146.456
-131.578
-115.381
-99.055
-83.88
-70.627
-59.92
-51.83
-46.092
-42.787
-41.993
-43.377
-46.604
-51.344
-57.193
-63.96
-71.497
-79.535
-87.828
-96.142
-104.194
-111.75
-118.607
-124.576
-129.559
-133.498
-136.365
-138.195
-139.044
-139.007
-138.23
-136.847
-134.989
-132.776
-130.305
-127.698
-125.095
-122.617
-120.374
-118.426
-116.756
-115.318
-114.043
-112.81
-111.495
-109.957
-108.01
-105.494
-102.273
-98.23
-93.278
-87.333
-80.301
-72.099
-62.673
-52.008
-40.157
-27.225
-13.336
1.339
16.622
32.33
48.235
64.12
79.801
95.12
109.941
124.146
137.596
150.143
161.677
172.116
181.428
189.627
196.744
202.835
207.976
212.255
215.786
218.696
221.077
222.992
224.492
225.616
226.423
226.994
227.381
227.618
227.721
227.679
227.481
227.111
226.53
225.689
224.526
222.971
220.981
218.54
215.637
212.276
208.45
204.142
199.356
194.109
188.419
182.312
175.816
168.955
161.77
154.315
146.646
138.826
130.906
122.925
114.921
106.929
98.984
91.12
83.366
75.743
68.275
60.989
53.909
47.063
40.473
34.152
28.115
22.374
16.942
11.831
7.053
2.616
-1.47
-5.197
-8.557
-11.544
-14.153
-16.384
-18.239
-19.723
-20.841
-21.601
-22.013
-22.089
-21.842
-21.286
-20.437
-19.311
-17.926
-16.301
-14.457
-12.412
-10.19
-7.813
-5.304
-2.685
0.018
2.782
5.583
8.398
11.205
13.979
16.7
19.346
21.897
24.332
26.634
28.783
30.764
32.561
34.16
35.549
36.717
37.654
38.354
38.81
39.019
38.978
38.685
38.14
37.343
36.299
35.009
33.481
31.718
29.73
27.524
25.113
22.508
19.723
16.771
13.668
10.428
7.068
3.604
0.05
-3.581
-7.273
-11.013
-14.785
-18.572
-22.359
-26.13
-29.869
-33.56
-37.184
-40.728
-44.178
-47.53
-50.779
-53.916
-56.926
-59.789
-62.489
-65.012
-67.344
-69.468
-71.365
-73.023
-74.439
-75.624
-76.593
-77.355
-77.908
-78.237
-78.329
-78.177
-77.796
-77.206
-76.426
-75.47
-74.365
-73.151
-71.886
-70.612
-69.34
-68.049
-66.711
-65.312
-63.86
-62.376
-60.881
-59.38
-57.852
-56.266
-54.6
-52.823
-50.885
-48.7
-46.154
-43.15
-39.649
-35.663
-31.213
-26.301
-20.897
-14.965
-8.483
-1.456
6.08
14.082
22.507
31.291
40.337
49.498
58.578
67.407
75.869
83.9
91.433
98.355
104.514
109.756
113.963
117.076
119.056
119.841
119.38
117.639
114.618
110.427
105.171
98.857
91.575
83.493
74.951
66.626
59.196
53.136
48.995
47.306
48.17
51.444
56.375
61.324
64.861
65.997
63.72
57.452
47.553
34.971
21.967
12.433
9.834
16.891
36.524
70.991
121.134
186.861
264.441
346.25
425.741
498.222
562.884
621.712
673.824
713.616
727.855
703.287
631.614
510.696
356.189
190.646
37.833
-75.907
-141.776
-162.178
-144.331
-105.45
-57.924
-11.222
22.806
38.538
34.67
15.318
-7.602
-24.141
-29.97
-26.257
-19.686
-14.883
-12.675
-11.984
-10.073
-5.979
-0.62
5.088
10.134
13.893
16.385
17.611
17.567
16.5
14.633
12.133
9.176
5.883
2.368
-1.225
-4.733
-8.031
-11.011
-13.585
-15.695
-17.31
-18.418
-19.031
-19.209
-19.03
-18.576
-17.949
-17.207
-16.384
-15.552
-14.783
-14.147
-13.72
-13.528
-13.573
-13.857
-14.358
-15.04
-15.85
-16.68
-17.423
-17.988
-18.275
-18.222
-17.779
-16.854
-15.373
-13.281
-10.536
-7.14
-3.113
1.537
6.776
12.543
18.755
25.287
32.029
38.9
45.812
52.693
59.466
66.025
72.292
78.211
83.734
88.843
93.528
97.774
101.6
105.049
108.174
111.052
113.737
116.259
118.65
120.927
123.113
125.231
127.28
129.237
131.082
132.773
134.265
135.507
136.418
136.915
136.916
136.337
135.107
133.179
130.514
127.105
122.966
118.123
112.643
106.619
100.146
93.362
86.414
79.451
72.651
66.188
60.221
54.915
50.436
46.918
44.478
43.196
43.11
44.239
46.544
49.935
54.308
59.497
65.317
71.584
78.056
84.474
90.612
96.223
101.066
104.972
107.698
109.016
108.905
107.327
104.316
100.022
94.37
87.287
79.016
69.784
59.566
48.501
36.546
23.581
10.247
-2.801
-15.365
-27.129
-37.634
-46.624
-53.503
-57.66
-59.565
-59.74
-58.351
-55.758
-52.24
-47.975
-43.582
-39.7
-36.17
-32.824
-29.68
-26.633
-23.828
-21.46
-19.402
-17.514
-15.963
-14.867
-14.282
-14.292
-14.765
-15.529
-16.534
-17.711
-18.955
-20.198
-21.364
-22.375
-23.213
-23.874
-24.343
-24.623
-24.704
-24.587
-24.296
-23.88
-23.418
-22.978
-22.604
-22.331
-22.174
-22.13
-22.185
-22.301
-22.418
-22.482
-22.438
-22.245
-21.878
-21.296
-20.445
-19.257
-17.639
-15.524
-12.877
-9.676
-5.919
-1.628
3.164
8.386
13.934
19.722
25.676
31.737
37.866
44.008
50.093
56.049
61.791
67.246
72.368
77.111
81.439
85.34
88.813
91.884
94.61
97.028
99.16
101.017
102.598
103.904
104.949
105.741
106.289
106.603
106.686
106.547
106.194
105.629
104.843
103.819
102.527
100.949
99.077
96.907
94.443
91.69
88.655
85.35
81.797
78.014
74.021
69.835
65.47
60.94
56.26
51.453
46.539
41.541
36.482
31.39
26.302
21.262
16.312
11.492
6.838
2.38
-1.848
-5.811
-9.474
-12.793
-15.724
-18.232
-20.277
-21.828
-22.874
-23.418
-23.507
-23.216
-22.623
-21.807
-20.828
-19.75
-18.665
-17.675
-16.884
-16.405
-16.312
-16.711
-17.785
-19.603
-22.107
-25.085
-28.062
-30.563
-32.276
-32.791
-31.598
-28.472
-23.434
-16.972
-10.288
-4.431
-0.017
2.287
1.91
-1.213
-6.574
-12.617
-16.406
-15.1
-6.532
11.823
42.44
86.757
145.383
215.919
292.307
370.8
448.767
524.143
598.539
665.747
714.776
738.049
723.368
668.761
583.396
472.361
351.292
235.909
132.216
51.762
-4.602
-45.59
-74.813
-100.247
-124.9
-143.211
-153.721
-155.724
-150.125
-142.481
-136.107
-131.924
-130.744
-132.141
-135.627
-141.665
-150.614
-161.785
-174.479
-187.969
-201.018
-213.052
-223.953
-233.141
-240.026
-244.587
-246.902
-247.466
-247.353
-247.109
-246.905
-247.056
-247.783
-249.203
-251.411
-254.179
-256.983
-259.522
-261.688
-263.431
-264.792
-265.781
-266.365
-266.587
-266.559
-266.362
-266.033
-265.581
-264.98
-264.201
-263.255
-262.18
-260.992
-259.711
-258.328
-256.799
-255.079
-253.108
-250.799
-248.066
-244.839
-241.045
-236.629
-231.533
-225.687
-219.059
-211.611
-203.299
-194.089
-183.933
-172.807
-160.729
-147.761
-134
-119.58
-104.652
-89.356
-73.836
-58.247
-42.755
-27.529
-12.7
1.612
15.294
28.223
40.251
51.253
61.145
69.894
77.512
84.04
89.537
94.072
97.731
100.623
102.876
104.598
105.867
106.747
107.291
107.573
107.694
107.733
107.744
107.753
107.76
107.758
107.736
107.661
107.483
107.141
106.56
105.692
104.515
103.017
101.195
99.037
96.52
93.636
90.395
86.808
82.896
78.676
74.165
69.396
64.416
59.273
54.022
48.704
43.345
37.972
32.608
27.275
21.993
16.779
11.641
6.59
1.641
-3.194
-7.899
-12.465
-16.89
-21.169
-25.302
-29.286
-33.117
-36.792
-40.309
-43.667
-46.862
-49.89
-52.749
-55.436
-57.953
-60.303
-62.487
-64.51
-66.377
-68.09
-69.658
-71.084
-72.375
-73.535
-74.571
-75.489
-76.296
-76.998
-77.602
-78.115
-78.545
-78.899
-79.185
-79.408
-79.577
-79.697
-79.775
-79.818
-79.832
-79.822
-79.795
-79.756
-79.71
-79.664
-79.622
-79.587
-79.566
-79.56
-79.573
-79.608
-79.667
-79.753
-79.865
-80.006
-80.175
-80.373
-80.6
-80.855
-81.136
-81.441
-81.77
-82.118
-82.484
-82.863
-83.252
-83.646
-84.042
-84.433
-84.815
-85.182
-85.528
-85.846
-86.131
-86.375
-86.572
-86.714
-86.794
-86.806
-86.741
-86.592
-86.353
-86.016
-85.575
-85.024
-84.357
-83.569
-82.655
-81.61
-80.431
-79.114
-77.657
-76.057
-74.314
-72.426
-70.394
-68.219
-65.903
-63.449
-60.861
-58.144
-55.303
-52.345
-49.279
-46.114
-42.858
-39.524
-36.123
-32.669
-29.176
-25.66
-22.137
-18.624
-15.139
-11.7
-8.326
-5.034
-1.844
1.228
4.164
6.947
9.559
11.984
14.206
16.209
17.977
19.496
20.751
21.73
22.425
22.83
22.94
22.753
22.265
21.47
20.366
18.956
17.242
15.229
12.927
10.348
7.515
4.465
1.235
-2.139
-5.626
-9.2
-12.832
-16.486
-20.125
-23.703
-27.181
-30.525
-33.703
-36.679
-39.426
-41.929
-44.205
-46.32
-48.333
-50.298
-52.254
-54.206
-56.189
-58.27
-60.518
-63.004
-65.799
-68.915
-72.412
-76.435
-80.985
-85.927
-90.976
-95.581
-99.262
-101.765
-102.716
-101.653
-98.497
-93.407
-86.942
-80.346
-74.558
-70.043
-67.532
-67.653
-70.212
-74.515
-78.948
-80.746
-77.671
-67.783
-48.418
-17.164
27.533
84.825
150.639
220.42
289.816
358.53
430.161
502.761
570.404
620.976
634.519
599.933
518.057
397.794
260.503
128.807
14.53
-74.33
-135.989
-177.797
-202.616
-212.313
-210.76
-196.207
-169.888
-136.747
-100.521
-67.209
-41.227
-23.993
-16.728
-18.997
-29.085
-44.85
-63.21
-81.181
-97.038
-109.753
-118.483
-122.978
-123.487
-120.703
-116.086
-111.224
-106.968
-103.759
-101.931
-101.529
-102.528
-104.832
-107.959
-111.299
-114.51
-117.367
-119.735
-121.627
-123.003
-123.801
-124.061
-123.847
-123.194
-122.148
-120.719
-118.885
-116.662
-114.076
-111.156
-107.954
-104.515
-100.884
-97.11
-93.23
-89.272
-85.266
-81.231
-77.185
-73.137
-69.089
-65.04
-60.994
-56.953
-52.92
-48.895
-44.873
-40.849
-36.82
-32.787
-28.749
-24.709
-20.668
-16.626
-12.588
-8.561
-4.549
-0.56
3.4
7.327
11.214
15.056
18.848
22.583
26.256
29.863
33.398
36.855
40.227
43.508
46.688
49.762
52.721
55.557
58.26
60.823
63.237
65.495
67.588
69.507
71.245
72.795
74.149
75.299
76.241
76.967
77.474
77.757
77.815
77.646
77.249
76.626
75.78
74.711
73.425
71.923
70.211
68.291
66.168
63.848
61.336
58.641
55.772
52.739
49.556
46.238
42.799
39.254
35.618
31.906
28.131
24.307
20.447
16.563
12.67
8.786
4.932
1.124
-2.624
-6.303
-9.907
-13.438
-16.902
-20.307
-23.663
-26.975
-30.243
-33.458
-36.6
-39.65
-42.588
-45.403
-48.093
-50.658
-53.092
-55.385
-57.526
-59.491
-61.249
-62.761
-63.983
-64.883
-65.449
-65.69
-65.641
-65.345
-64.86
-64.229
-63.48
-62.641
-61.735
-60.787
-59.823
-58.881
-58.005
-57.253
-56.695
-56.384
-56.35
-56.593
-57.08
-57.759
-58.557
-59.413
-60.277
-61.106
-61.866
-62.528
-63.062
-63.438
-63.619
-63.557
-63.186
-62.455
-61.326
-59.786
-57.848
-55.542
-52.917
-50.017
-46.879
-43.536
-40.01
-36.317
-32.472
-28.486
-24.37
-20.148
-15.852
-11.515
-7.167
-2.827
1.493
5.793
10.076
14.345
18.601
22.841
27.055
31.228
35.344
39.379
43.311
47.121
50.792
54.313
57.673
60.863
63.87
66.684
69.294
71.689
73.861
75.802
77.508
78.976
80.209
81.209
81.984
82.542
82.892
83.043
83.005
82.788
82.404
81.864
81.182
80.369
79.441
78.412
77.3
76.119
74.888
73.623
72.34
71.055
69.781
68.532
67.32
66.153
65.04
63.988
63
62.081
61.233
60.457
59.751
59.117
58.552
58.054
57.62
57.244
56.92
56.641
56.398
56.18
55.98
55.787
55.591
55.389
55.175
54.942
54.683
54.382
54.024
53.601
53.098
52.502
51.807
51.007
50.112
49.149
48.143
47.12
46.105
45.113
44.164
43.278
42.479
41.8
41.267
40.898
40.716
40.748
41.012
41.499
42.15
42.865
43.545
44.103
44.484
44.632
44.457
43.881
42.843
41.296
39.239
36.601
33.204
28.99
24.053
18.634
13.216
8.269
4.169
1.526
1.038
2.946
7.108
12.895
19.219
25.06
29.242
30.213
26.604
19.573
12.485
8.492
9.914
14.096
16.027
16.985
23.017
45.391
97.523
181.688
293.25
424.716
560.27
687.182
791.193
850.035
853.113
795.737
681.31
534.427
376.459
228.269
113.054
33.991
-10.092
-25.494
-30.78
-33.738
-36.581
-39.983
-36.847
-25.997
-11.87
2.136
11.401
13.911
11.078
4.478
-4.172
-12.92
-20.107
-24.788
-26.573
-25.576
-22.46
-17.926
-12.579
-7.195
-2.566
0.883
2.971
3.713
3.338
2.02
-0.121
-2.898
-6.119
-9.632
-13.306
-17.033
-20.724
-24.257
-27.49
-30.325
-32.689
-34.541
-35.87
-36.671
-36.955
-36.747
-36.082
-34.998
-33.528
-31.707
-29.57
-27.164
-24.54
-21.749
-18.846
-15.868
-12.839
-9.777
-6.685
-3.563
-0.407
2.796
6.059
9.39
12.795
16.276
19.833
23.468
27.184
30.982
34.861
38.82
42.854
46.955
51.114
55.32
59.558
63.813
68.068
72.307
76.515
80.677
84.779
88.804
92.739
96.567
100.274
103.844
107.261
110.507
113.568
116.426
119.065
121.472
123.632
125.53
127.156
128.498
129.545
130.289
130.722
130.838
130.633
130.102
129.245
128.062
126.554
124.728
122.587
120.14
117.396
114.366
111.062
107.496
103.684
99.64
95.382
90.926
86.29
81.493
76.556
71.498
66.34
61.102
55.805
50.471
45.118
39.768
34.438
29.149
23.919
18.763
13.7
8.745
3.911
-0.788
-5.341
-9.737
-13.967
-18.025
-21.906
-25.604
-29.118
-32.446
-35.589
-38.547
-41.323
-43.921
-46.345
-48.6
-50.694
-52.632
-54.423
-56.075
-57.597
-58.998
-60.286
-61.472
-62.564
-63.572
-64.505
-65.372
-66.183
-66.946
-67.671
-68.365
-69.038
-69.696
-70.347
-70.997
-71.652
-72.317
-72.997
-73.695
-74.415
-75.159
-75.928
-76.725
-77.549
-78.401
-79.28
-80.185
-81.114
-82.066
-83.038
-84.03
-85.037
-86.058
-87.091
-88.133
-89.182
-90.235
-91.289
-92.342
-93.391
-94.433
-95.466
-96.485
-97.49
-98.475
-99.439
-100.379
-101.291
-102.172
-103.02
-103.832
-104.605
-105.336
-106.023
-106.663
-107.255
-107.797
-108.288
-108.724
-109.106
-109.432
-109.7
-109.908
-110.056
-110.142
-110.165
-110.123
-110.015
-109.841
-109.599
-109.289
-108.912
-108.465
-107.951
-107.368
-106.717
-106
-105.216
-104.368
-103.458
-102.488
-101.461
-100.381
-99.249
-98.07
-96.848
-95.587
-94.291
-92.963
-91.608
-90.23
-88.835
-87.428
-86.015
-84.599
-83.187
-81.786
-80.399
-79.034
-77.696
-76.389
-75.119
-73.893
-72.716
-71.593
-70.53
-69.533
-68.608
-67.762
-67
-66.327
-65.749
-65.272
-64.9
-64.638
-64.487
-64.449
-64.527
-64.721
-65.032
-65.458
-65.999
-66.653
-67.421
-68.302
-69.294
-70.395
-71.594
-72.886
-74.262
-75.717
-77.25
-78.857
-80.527
-82.255
-84.035
-85.86
-87.719
-89.588
-91.425
-93.188
-94.84
-96.342
-97.671
-98.798
-99.684
-100.295
-100.595
-100.557
-100.171
-99.42
-98.275
-96.731
-94.804
-92.549
-90.089
-87.535
-84.979
-82.513
-80.196
-78.097
-76.291
-74.83
-73.771
-73.178
-73.087
-73.576
-74.749
-76.611
-79.084
-81.908
-84.493
-86.193
-86.407
-84.558
-80.356
-73.656
-64.352
-53.069
-41.282
-30.708
-23.208
-18.675
-14.62
-9.595
-3.576
0.095
-3.615
-13.48
-20.677
-11.186
27.313
98.353
193.95
300.801
410.794
516.364
611.616
688.865
730.126
723.608
666.723
564.32
434.427
294.876
160.8
48.213
-33.611
-81.086
-97.562
-96.003
-88.575
-82.055
-77.935
-71.46
-59.985
-45.694
-31.959
-22.902
-20.321
-22.911
-28.79
-36.206
-43.436
-49.144
-52.64
-53.602
-52.256
-49.315
-45.446
-41.206
-37.233
-34.099
-32.101
-31.359
-31.782
-33.112
-35.154
-37.739
-40.682
-43.815
-46.985
-50.062
-52.933
-55.509
-57.715
-59.492
-60.8
-61.621
-61.958
-61.823
-61.252
-60.296
-58.997
-57.404
-55.561
-53.505
-51.288
-48.964
-46.59
-44.222
-41.901
-39.652
-37.493
-35.435
-33.479
-31.623
-29.852
-28.145
-26.488
-24.869
-23.28
-21.713
-20.154
-18.586
-16.993
-15.358
-13.667
-11.903
-10.053
-8.102
-6.041
-3.863
-1.568
0.847
3.385
6.053
8.858
11.806
14.892
18.115
21.47
24.947
28.533
32.203
35.922
39.659
43.396
47.115
50.806
54.46
58.059
61.59
65.04
68.399
71.658
74.807
77.826
80.707
83.453
86.076
88.614
91.089
93.496
95.827
98.059
100.164
102.117
103.887
105.421
106.673
107.602
108.164
108.336
108.074
107.325
106.023
104.072
101.392
97.931
93.654
88.542
82.594
75.814
68.212
59.844
50.762
41.017
30.675
19.793
8.444
-3.273
-15.24
-27.311
-39.329
-51.144
-62.631
-73.67
-84.158
-93.997
-103.084
-111.359
-118.775
-125.283
-130.857
-135.47
-139.101
-141.758
-143.486
-144.346
-144.43
-143.847
-142.682
-141.026
-138.973
-136.608
-134.028
-131.302
-128.474
-125.591
-122.693
-119.819
-117.008
-114.272
-111.586
-108.913
-106.192
-103.338
-100.277
-96.924
-93.177
-88.954
-84.184
-78.823
-72.852
-66.26
-59.035
-51.165
-42.662
-33.567
-23.964
-13.952
-3.655
6.767
17.141
27.259
36.898
45.858
53.965
61.074
67.062
71.819
75.234
77.206
77.677
76.626
74.069
70.056
64.669
58.039
50.34
41.793
32.639
23.104
13.4
3.724
-5.744
-14.835
-23.385
-31.24
-38.279
-44.411
-49.573
-53.726
-56.873
-59.051
-60.344
-60.871
-60.77
-60.174
-59.22
-58.042
-56.758
-55.469
-54.272
-53.25
-52.472
-51.997
-51.862
-52.088
-52.677
-53.609
-54.844
-56.322
-57.974
-59.725
-61.495
-63.2
-64.772
-66.16
-67.32
-68.216
-68.82
-69.107
-69.061
-68.681
-67.968
-66.927
-65.572
-63.918
-61.991
-59.82
-57.441
-54.892
-52.205
-49.401
-46.503
-43.526
-40.488
-37.402
-34.281
-31.131
-27.963
-24.791
-21.629
-18.493
-15.395
-12.348
-9.362
-6.448
-3.619
-0.885
1.741
4.248
6.623
8.853
10.925
12.826
14.541
16.062
17.381
18.49
19.386
20.07
20.546
20.816
20.884
20.747
20.405
19.863
19.122
18.188
17.068
15.774
14.331
12.776
11.143
9.463
7.765
6.067
4.391
2.768
1.228
-0.193
-1.459
-2.548
-3.427
-4.06
-4.421
-4.513
-4.378
-4.091
-3.72
-3.306
-2.865
-2.419
-2.026
-1.752
-1.671
-1.857
-2.331
-3.167
-4.536
-6.488
-8.933
-11.598
-13.899
-15.282
-15.418
-13.859
-10.116
-4.162
3.766
12.851
21.456
28.252
32.349
32.685
28.576
20.369
9.086
-2.991
-12.261
-15.409
-9.348
9.379
43.9
94.217
157.426
229.906
305.818
384.192
469.405
558.359
645.276
717.846
753.064
739.933
675.265
560.838
415.301
256.093
100.825
-26.711
-114.04
-155.746
-153.515
-122.639
-77.31
-29.913
7.633
32.039
40.789
35.271
24.096
12.527
5.833
5.96
7.901
9.297
9.199
7.51
7.133
9.153
12.871
17.675
22.425
26.291
29.069
30.62
30.863
29.945
28.148
25.707
22.852
19.798
16.712
13.759
11.107
8.904
7.266
6.299
6.095
6.697
8.1
10.262
13.103
16.499
20.302
24.335
28.387
32.276
35.836
38.911
41.369
43.067
43.851
43.587
42.148
39.449
35.467
30.211
23.735
16.142
7.563
-1.836
-11.851
-22.291
-32.977
-43.74
-54.444
-64.935
-75.042
-84.58
-93.34
-101.145
-107.866
-113.41
-117.723
-120.79
-122.607
-123.201
-122.638
-120.989
-118.324
-114.71
-110.186
-104.803
-98.646
-91.84
-84.553
-76.949
-69.164
-61.312
-53.49
-45.789
-38.306
-31.13
-24.33
-17.956
-12.058
-6.69
-1.922
2.164
5.524
8.16
10.11
11.425
12.149
12.316
11.962
11.146
9.942
8.428
6.687
4.775
2.744
0.657
-1.419
-3.398
-5.218
-6.847
-8.278
-9.508
-10.536
-11.359
-11.976
-12.415
-12.712
-12.911
-13.06
-13.187
-13.314
-13.466
-13.668
-13.951
-14.337
-14.834
-15.435
-16.138
-16.94
-17.837
-18.828
-19.893
-21.012
-22.16
-23.313
-24.454
-25.574
-26.662
-27.711
-28.717
-29.674
-30.586
-31.462
-32.305
-33.119
-33.907
-34.672
-35.42
-36.159
-36.895
-37.637
-38.388
-39.153
-39.934
-40.734
-41.552
-42.387
-43.236
-44.094
-44.956
-45.82
-46.681
-47.535
-48.378
-49.206
-50.012
-50.791
-51.538
-52.247
-52.911
-53.522
-54.074
-54.561
-54.975
-55.312
-55.565
-55.728
-55.795
-55.761
-55.622
-55.371
-55.006
-54.521
-53.915
-53.184
-52.327
-51.343
-50.232
-48.995
-47.632
-46.148
-44.545
-42.826
-40.998
-39.065
-37.035
-34.914
-32.709
-30.43
-28.085
-25.684
-23.236
-20.751
-18.239
-15.713
-13.181
-10.654
-8.144
-5.659
-3.211
-0.81
1.536
3.816
6.022
8.145
10.175
12.106
13.928
15.634
17.218
18.672
19.991
21.17
22.204
23.09
23.825
24.407
24.835
25.108
25.227
25.193
25.008
24.674
24.196
23.578
22.828
21.95
20.953
19.843
18.628
17.315
15.913
14.427
12.864
11.23
9.534
7.782
5.985
4.152
2.295
0.422
-1.452
-3.318
-5.163
-6.975
-8.748
-10.473
-12.142
-13.745
-15.27
-16.709
-18.058
-19.317
-20.489
-21.578
-22.591
-23.538
-24.442
-25.319
-26.187
-27.06
-27.94
-28.826
-29.722
-30.629
-31.553
-32.49
-33.416
-34.302
-35.126
-35.857
-36.471
-36.939
-37.208
-37.229
-36.973
-36.413
-35.55
-34.39
-32.928
-31.154
-29.075
-26.712
-24.117
-21.366
-18.507
-15.59
-12.665
-9.776
-7.004
-4.428
-2.093
-0.035
1.727
3.176
4.25
4.866
4.979
4.566
3.653
2.298
0.489
-1.797
-4.579
-7.887
-11.681
-15.942
-20.763
-26.152
-32
-38.072
-43.847
-48.758
-52.445
-54.515
-54.507
-52.298
-48.001
-42.1
-35.831
-30.478
-26.904
-25.941
-28.26
-33.826
-41.99
-51.295
-58.903
-61.56
-56.518
-41.265
-13.324
28.966
85.754
156.147
235.894
317.609
396.531
468.98
532.625
589.432
634.426
656.749
647.692
597.443
508.414
396.223
275.616
162.453
65.156
-17.63
-85.363
-137.733
-174.272
-192.572
-193.759
-181.538
-159.831
-133.518
-107.053
-83.639
-65.364
-53.012
-46.25
-44.097
-45.338
-48.561
-52.171
-54.716
-55.46
-54.334
-51.676
-48.104
-44.178
-40.364
-37.236
-35.346
-34.937
-36.022
-38.412
-41.747
-45.744
-50.188
-54.83
-59.45
-63.849
-67.844
-71.342
-74.311
-76.721
-78.566
-79.827
-80.472
-80.504
-79.938
-78.814
-77.212
-75.195
-72.814
-70.132
-67.202
-64.087
-60.86
-57.565
-54.218
-50.83
-47.401
-43.937
-40.457
-36.964
-33.457
-29.928
-26.357
-22.731
-19.048
-15.298
-11.474
-7.568
-3.565
0.534
4.721
8.987
13.321
17.714
22.161
26.652
31.173
35.712
40.255
44.788
49.3
53.776
58.201
62.56
66.836
71.013
75.08
79.02
82.82
86.465
89.939
93.229
96.321
99.202
101.859
104.278
106.449
108.359
109.999
111.36
112.433
113.212
113.69
113.862
113.725
113.277
112.518
111.448
110.071
108.39
106.411
104.142
101.592
98.772
95.691
92.365
88.807
85.033
81.059
76.904
72.587
68.126
63.542
58.856
54.089
49.261
44.395
39.51
34.629
29.773
24.963
20.219
15.561
11.009
6.582
2.297
-1.829
-5.779
-9.54
-13.099
-16.443
-19.563
-22.449
-25.095
-27.494
-29.641
-31.535
-33.173
-34.557
-35.686
-36.565
-37.197
-37.588
-37.746
-37.676
-37.388
-36.892
-36.196
-35.312
-34.251
-33.024
-31.644
-30.122
-28.471
-26.705
-24.835
-22.876
-20.839
-18.738
-16.583
-14.387
-12.159
-9.912
-7.654
-5.395
-3.142
-0.905
1.312
3.501
5.657
7.776
9.855
11.892
13.883
15.829
17.728
19.581
21.387
23.148
24.864
26.537
28.167
29.756
31.307
32.82
34.297
35.741
37.152
38.532
39.883
41.204
42.497
43.762
44.997
46.204
47.381
48.528
49.642
50.721
51.764
52.768
53.729
54.643
55.508
56.317
57.067
57.752
58.369
58.911
59.373
59.752
60.042
60.239
60.339
60.337
60.231
60.015
59.688
59.246
58.688
58.013
57.219
56.307
55.277
54.13
52.867
51.491
50.004
48.409
46.708
44.907
43.009
41.02
38.943
36.786
34.555
32.257
29.897
27.484
25.023
22.522
19.988
17.427
14.847
12.253
9.651
7.048
4.449
1.861
-0.714
-3.27
-5.804
-8.314
-10.797
-13.251
-15.679
-18.082
-20.46
-22.817
-25.156
-27.479
-29.792
-32.097
-34.398
-36.696
-38.996
-41.3
-43.616
-45.947
-48.3
-50.681
-53.094
-55.542
-58.031
-60.563
-63.136
-65.747
-68.395
-71.083
-73.822
-76.618
-79.475
-82.394
-85.376
-88.414
-91.498
-94.608
-97.712
-100.781
-103.782
-106.693
-109.497
-112.176
-114.71
-117.067
-119.202
-121.08
-122.675
-123.966
-124.932
-125.574
-125.918
-126.017
-125.962
-125.834
-125.69
-125.593
-125.611
-125.814
-126.285
-127.121
-128.384
-130.164
-132.611
-135.743
-139.482
-143.633
-147.756
-151.437
-154.4
-156.218
-156.387
-154.79
-151.521
-147.072
-142.607
-138.945
-136.431
-135.691
-137.303
-141.13
-146.671
-152.45
-155.615
-153.921
-145.849
-129.314
-102.183
-63.076
-11.127
51.497
119.142
187.301
253.044
316.909
381.424
443.797
496.189
525.337
517.357
468.222
380.904
264.183
133.668
1.96
-117.321
-206.998
-259.868
-275.39
-261.106
-235.526
-211.293
-193.937
-184.191
-176.257
-167.527
-159.24
-153.111
-151.823
-155.456
-161.889
-168.947
-174.174
-176.263
-175.003
-170.35
-162.729
-152.782
-141.111
-128.498
-115.761
-103.342
-91.425
-80.052
-69.088
-58.435
-48.06
-37.904
-27.932
-18.203
-8.835
0.036
8.256
15.734
22.436
28.33
33.401
37.652
41.062
43.609
45.275
46.025
45.849
44.777
42.865
40.229
37.04
33.469
29.696
25.884
22.165
18.673
15.535
12.84
10.675
9.12
8.248
8.161
8.937
10.613
13.203
16.663
20.909
25.846
31.36
37.328
43.643
50.182
56.818
63.467
70.055
76.518
82.798
88.811
94.48
99.76
104.617
109.048
113.068
116.692
119.95
122.891
125.564
128.024
130.339
132.541
134.652
136.687
138.649
140.556
142.421
144.244
146.013
147.715
149.334
150.856
152.268
153.54
154.638
155.524
156.152
156.49
156.523
156.238
155.633
154.714
153.481
151.948
150.135
148.058
145.723
143.128
140.258
137.103
133.666
129.954
125.991
121.799
117.384
112.751
107.903
102.832
97.53
91.99
86.181
80.093
73.743
67.161
60.416
53.586
46.73
39.897
33.127
26.451
19.916
13.569
7.452
1.617
-3.881
-8.981
-13.593
-17.649
-21.118
-23.991
-26.303
-28.11
-29.449
-30.345
-30.826
-30.906
-30.611
-29.965
-28.982
-27.679
-26.089
-24.252
-22.237
-20.103
-17.88
-15.581
-13.191
-10.677
-8.025
-5.227
-2.272
0.839
4.101
7.508
11.036
14.659
18.362
22.135
25.983
29.91
33.901
37.936
41.986
46.012
49.98
53.861
57.623
61.239
64.689
67.955
71.03
73.913
76.598
79.076
81.34
83.38
85.19
86.768
88.115
89.231
90.119
90.784
91.232
91.47
91.503
91.337
90.976
90.425
89.689
88.774
87.689
86.441
85.041
83.499
81.825
80.032
78.131
76.133
74.05
71.893
69.672
67.397
65.078
62.723
60.34
57.939
55.525
53.105
50.687
48.276
45.88
43.503
41.152
38.832
36.551
34.313
32.125
29.99
27.914
25.899
23.951
22.069
20.257
18.513
16.839
15.237
13.706
12.25
10.869
9.564
8.337
7.19
6.126
5.144
4.243
3.42
2.675
2.01
1.431
0.939
0.529
0.195
-0.072
-0.284
-0.451
-0.596
-0.75
-0.941
-1.196
-1.53
-1.944
-2.44
-3.023
-3.697
-4.469
-5.333
-6.267
-7.254
-8.284
-9.34
-10.407
-11.444
-12.384
-13.176
-13.779
-14.177
-14.387
-14.425
-14.3
-14.042
-13.685
-13.285
-12.92
-12.641
-12.468
-12.43
-12.554
-12.896
-13.553
-14.593
-16.053
-17.948
-20.251
-22.934
-25.972
-29.311
-32.87
-36.559
-40.268
-43.944
-47.603
-51.25
-54.891
-58.502
-62.001
-65.347
-68.56
-71.659
-74.698
-77.745
-80.816
-84
-87.484
-91.317
-95.444
-99.669
-103.507
-106.522
-108.475
-108.991
-107.647
-104.44
-99.548
-93.51
-87.54
-82.553
-79.012
-77.64
-79.006
-82.828
-88.418
-94.27
-97.635
-96.123
-87.851
-70.664
-42.498
-2.126
50.762
115.33
187.27
260.086
328.643
388.902
441.389
491.538
539.954
579.234
593.574
561.635
472.338
333.25
169.504
16.14
-99.772
-168.703
-198.957
-209.388
-214.816
-220.316
-222.074
-212.262
-188.263
-153.662
-115.162
-80.334
-53.207
-35.047
-26.827
-28.189
-37.802
-53.603
-72.374
-91.062
-108.026
-122.206
-132.431
-138.163
-139.509
-137.141
-132.673
-127.841
-123.504
-120.135
-118.179
-117.743
-118.847
-121.394
-124.805
-128.388
-131.767
-134.711
-137.122
-139.05
-140.475
-141.359
-141.77
-141.796
-141.501
-140.937
-140.1
-138.962
-137.527
-135.819
-133.876
-131.756
-129.505
-127.163
-124.76
-122.314
-119.845
-117.37
-114.9
-112.442
-109.993
-107.548
-105.106
-102.673
-100.247
-97.828
-95.407
-92.968
-90.504
-88.008
-85.473
-82.898
-80.278
-77.61
-74.893
-72.125
-69.309
-66.445
-63.535
-60.576
-57.57
-54.518
-51.421
-48.285
-45.111
-41.905
-38.671
-35.415
-32.146
-28.871
-25.599
-22.339
-19.102
-15.898
-12.739
-9.636
-6.603
-3.65
-0.793
1.957
4.584
7.077
9.421
11.604
13.611
15.431
17.05
18.457
19.641
20.591
21.297
21.751
21.943
21.869
21.521
20.896
19.991
18.804
17.336
15.589
13.566
11.273
8.715
5.902
2.842
-0.453
-3.97
-7.695
-11.615
-15.711
-19.969
-24.368
-28.89
-33.515
-38.223
-42.992
-47.802
-52.629
-57.452
-62.249
-66.996
-71.673
-76.255
-80.723
-85.054
-89.229
-93.227
-97.029
-100.62
-103.981
-107.1
-109.961
-112.555
-114.871
-116.901
-118.639
-120.08
-121.221
-122.062
-122.603
-122.847
-122.799
-122.463
-121.847
-120.961
-119.813
-118.417
-116.785
-114.93
-112.868
-110.615
-108.188
-105.604
-102.882
-100.042
-97.102
-94.081
-91.001
-87.879
-84.736
-81.59
-78.46
-75.362
-72.313
-69.328
-66.422
-63.608
-60.897
-58.3
-55.825
-53.481
-51.273
-49.206
-47.284
-45.507
-43.877
-42.393
-41.052
-39.852
-38.788
-37.854
-37.044
-36.351
-35.766
-35.281
-34.886
-34.569
-34.322
-34.131
-33.986
-33.875
-33.787
-33.709
-33.63
-33.54
-33.428
-33.285
-33.102
-32.869
-32.579
-32.225
-31.803
-31.305
-30.729
-30.07
-29.328
-28.501
-27.589
-26.594
-25.516
-24.359
-23.126
-21.821
-20.447
-19.011
-17.517
-15.97
-14.377
-12.744
-11.079
-9.387
-7.677
-5.955
-4.229
-2.506
-0.793
0.904
2.579
4.224
5.834
7.403
8.926
10.398
11.812
13.166
14.454
15.674
16.821
17.894
18.891
19.812
20.654
21.417
22.101
22.706
23.23
23.67
24.025
24.291
24.467
24.551
24.54
24.431
24.225
23.921
23.522
23.029
22.441
21.757
20.978
20.102
19.132
18.068
16.911
15.663
14.327
12.912
11.425
9.87
8.247
6.548
4.767
2.903
0.954
-1.075
-3.177
-5.34
-7.543
-9.75
-11.927
-14.039
-16.053
-17.95
-19.701
-21.269
-22.616
-23.694
-24.464
-24.907
-24.995
-24.718
-24.098
-23.17
-21.997
-20.673
-19.269
-17.865
-16.575
-15.494
-14.731
-14.41
-14.599
-15.405
-16.99
-19.368
-22.465
-26.105
-29.879
-33.431
-36.549
-38.839
-39.811
-39.331
-37.431
-34.486
-31.448
-28.931
-27.147
-26.627
-27.921
-30.918
-35.078
-39.03
-40.371
-37.304
-28.37
-11.333
16.108
55.689
106.796
165.594
227.638
288.873
350.282
417.466
490.228
564.843
628.714
658.294
639.902
567.544
446.345
301.133
156.05
33.258
-50.509
-95.748
-110.61
-108.77
-103.01
-97.386
-91.101
-79.368
-60.308
-37.325
-14.51
3.357
13.62
16.412
12.322
2.71
-9.982
-23.087
-34.855
-44.298
-51.04
-55.035
-55.98
-53.853
-49.548
-44.513
-39.739
-35.696
-32.485
-30.005
-28.472
-28.104
-28.713
-29.834
-31.053
-32.115
-32.952
-33.623
-34.058
-34.141
-33.853
-33.226
-32.362
-31.375
-30.301
-29.117
-27.794
-26.284
-24.572
-22.675
-20.599
-18.359
-15.971
-13.446
-10.816
-8.116
-5.36
-2.552
0.335
3.358
6.544
9.897
13.405
17.022
20.719
24.487
28.309
32.167
36.047
39.934
43.828
47.741
51.675
55.62
59.558
63.451
67.278
71.03
74.705
78.311
81.851
85.321
88.724
92.062
95.335
98.54
101.666
104.693
107.606
110.395
113.052
115.572
117.948
120.168
122.221
124.096
125.782
127.268
128.542
129.591
130.406
130.977
131.299
131.369
131.184
130.741
130.039
129.078
127.857
126.38
124.647
122.663
120.431
117.958
115.249
112.315
109.163
105.803
102.246
98.503
94.587
90.51
86.286
81.93
77.456
72.879
68.215
63.481
58.694
53.871
49.03
44.187
39.361
34.568
29.826
25.15
20.556
16.06
11.675
7.414
3.29
-0.686
-4.503
-8.153
-11.627
-14.917
-18.017
-20.922
-23.628
-26.132
-28.431
-30.523
-32.41
-34.092
-35.569
-36.846
-37.925
-38.812
-39.512
-40.033
-40.383
-40.569
-40.603
-40.495
-40.255
-39.897
-39.432
-38.873
-38.23
-37.518
-36.748
-35.931
-35.079
-34.204
-33.314
-32.422
-31.537
-30.668
-29.823
-29.012
-28.241
-27.518
-26.849
-26.24
-25.695
-25.218
-24.813
-24.482
-24.226
-24.046
-23.941
-23.91
-23.949
-24.056
-24.225
-24.452
-24.728
-25.048
-25.404
-25.789
-26.195
-26.616
-27.044
-27.473
-27.898
-28.315
-28.717
-29.1
-29.459
-29.789
-30.085
-30.344
-30.559
-30.725
-30.837
-30.895
-30.896
-30.843
-30.736
-30.579
-30.374
-30.127
-29.845
-29.535
-29.2
-28.844
-28.473
-28.097
-27.727
-27.378
-27.062
-26.783
-26.548
-26.36
-26.218
-26.115
-26.039
-25.965
-25.877
-25.773
-25.652
-25.53
-25.417
-25.322
-25.256
-25.229
-25.251
-25.339
-25.5
-25.735
-26.061
-26.499
-27.087
-27.888
-28.939
-30.25
-31.818
-33.614
-35.601
-37.74
-39.981
-42.257
-44.513
-46.702
-48.788
-50.76
-52.593
-54.249
-55.668
-56.765
-57.471
-57.752
-57.586
-56.974
-55.939
-54.506
-52.715
-50.632
-48.312
-45.788
-43.083
-40.19
-37.095
-33.813
-30.371
-26.825
-23.237
-19.658
-16.135
-12.71
-9.412
-6.271
-3.317
-0.562
1.983
4.296
6.355
8.114
9.509
10.498
11.054
11.17
10.866
10.17
9.119
7.753
6.123
4.285
2.307
0.248
-1.852
-3.964
-6.085
-8.202
-10.291
-12.359
-14.418
-16.485
-18.59
-20.747
-22.978
-25.325
-27.849
-30.62
-33.709
-37.141
-40.931
-45.106
-49.554
-54.062
-58.28
-61.666
-63.686
-63.919
-62.038
-57.773
-51.193
-42.666
-32.814
-22.706
-13.479
-6.051
-0.929
1.846
3.03
4.017
6.386
12.586
25.465
47.716
81.772
127.406
181.539
241.28
303.145
367.076
437.361
512.125
586.545
649.373
679.537
665.138
600.871
490.452
354.787
214.579
90.448
-1.016
-58.032
-85.918
-96.904
-103.329
-109.33
-113.631
-110.229
-95.534
-72.139
-45.287
-21.164
-3.332
7.888
12.708
11.267
4.195
-7.118
-20.483
-33.615
-45.256
-55.129
-62.962
-68.174
-70.563
-70.453
-68.789
-66.934
-65.637
-65.037
-65.23
-66.351
-68.49
-71.669
-75.583
-79.629
-83.411
-86.752
-89.571
-91.891
-93.695
-94.924
-95.593
-95.789
-95.589
-95.055
-94.212
-93.042
-91.549
-89.759
-87.712
-85.467
-83.075
-80.582
-78.021
-75.414
-72.78
-70.135
-67.492
-64.855
-62.22
-59.578
-56.925
-54.264
-51.597
-48.925
-46.241
-43.532
-40.789
-38.006
-35.179
-32.306
-29.384
-26.41
-23.385
-20.312
-17.194
-14.036
-10.843
-7.617
-4.362
-1.082
2.218
5.531
8.85
12.17
15.481
18.775
22.043
25.272
28.453
31.574
34.623
37.587
40.454
43.21
45.842
48.337
50.682
52.863
54.868
56.684
58.3
59.705
60.888
61.842
62.558
63.031
63.255
63.226
62.943
62.404
61.609
60.56
59.26
57.712
55.923
53.899
51.647
49.177
46.499
43.625
40.568
37.34
33.956
30.431
26.78
23.02
19.167
15.239
11.253
7.227
3.179
-0.875
-4.917
-8.93
-12.9
-16.81
-20.646
-24.396
-28.046
-31.586
-35.005
-38.293
-41.443
-44.446
-47.298
-49.992
-52.525
-54.894
-57.097
-59.133
-61.002
-62.705
-64.243
-65.618
-66.833
-67.892
-68.799
-69.559
-70.178
-70.661
-71.017
-71.251
-71.372
-71.386
-71.301
-71.124
-70.862
-70.521
-70.108
-69.629
-69.09
-68.494
-67.849
-67.156
-66.421
-65.646
-64.834
-63.985
-63.103
-62.186
-61.236
-60.253
-59.235
-58.184
-57.099
-55.978
-54.821
-53.627
-52.394
-51.12
-49.805
-48.445
-47.038
-45.582
-44.076
-42.518
-40.905
-39.238
-37.514
-35.735
-33.899
-32.008
-30.063
-28.064
-26.015
-23.917
-21.774
-19.59
-17.371
-15.12
-12.845
-10.551
-8.246
-5.936
-3.627
-1.328
0.955
3.214
5.443
7.634
9.78
11.873
13.906
15.871
17.763
19.573
21.296
22.926
24.458
25.886
27.207
28.417
29.513
30.493
31.355
32.099
32.725
33.234
33.628
33.912
34.088
34.161
34.138
34.025
33.828
33.555
33.214
32.813
32.36
31.863
31.333
30.777
30.206
29.628
29.051
28.486
27.941
27.424
26.941
26.502
26.111
25.774
25.497
25.284
25.137
25.059
25.051
25.113
25.242
25.436
25.689
25.995
26.348
26.738
27.155
27.59
28.032
28.47
28.893
29.289
29.647
29.954
30.196
30.361
30.435
30.403
30.253
29.973
29.555
28.99
28.275
27.402
26.367
25.159
23.769
22.193
20.427
18.467
16.315
13.976
11.469
8.823
6.064
3.221
0.318
-2.626
-5.585
-8.531
-11.433
-14.249
-16.944
-19.488
-21.844
-23.983
-25.88
-27.529
-28.97
-30.269
-31.491
-32.685
-33.881
-35.112
-36.451
-37.978
-39.776
-41.93
-44.476
-47.483
-51.114
-55.421
-60.318
-65.581
-70.716
-75.216
-78.759
-80.919
-81.141
-79.209
-75.226
-69.665
-63.74
-58.612
-54.985
-53.786
-55.943
-61.562
-69.941
-79.606
-87.786
-91.34
-87.599
-73.241
-44.486
-0.584
56.175
123.566
197.413
277.408
369.006
469.823
571.68
659.854
711.027
712.613
664.424
572.99
452.847
317.669
177.769
47.138
-56.973
-124.733
-153.782
-150.827
-134.819
-116.339
-97.908
-83.22
-67.584
-53.068
-47.709
-48.686
-55.368
-65.182
-70.748
-74.023
-76.699
-77.868
-79.327
-79.586
-77.061
-72.796
-67.349
-61.451
-56.127
-51.781
-48.51
-46.486
-45.701
-45.911
-46.937
-48.634
-50.807
-53.302
-56.014
-58.8
-61.539
-64.148
-66.51
-68.525
-70.131
-71.271
-71.923
-72.083
-71.751
-70.945
-69.702
-68.071
-66.109
-63.875
-61.419
-58.79
-56.034
-53.198
-50.345
-47.524
-44.772
-42.135
-39.638
-37.308
-35.185
-33.283
-31.587
-30.073
-28.686
-27.359
-26.05
-24.723
-23.349
-21.91
-20.368
-18.691
-16.853
-14.816
-12.542
-9.99
-7.09
-3.796
-0.1
3.985
8.408
13.095
17.994
23.063
28.26
33.555
38.91
44.287
49.662
55.004
60.27
65.409
70.344
75.01
79.372
83.412
87.14
90.585
93.761
96.674
99.337
101.751
103.916
105.83
107.476
108.838
109.912
110.699
111.218
111.487
111.509
111.281
110.793
110.028
108.974
107.627
105.977
104.021
101.765
99.217
96.395
93.323
90.018
86.499
82.781
78.878
74.81
70.598
66.263
61.829
57.321
52.762
48.177
43.59
39.024
34.498
30.031
25.637
21.333
17.134
13.054
9.106
5.303
1.656
-1.824
-5.128
-8.249
-11.181
-13.921
-16.467
-18.817
-20.974
-22.939
-24.715
-26.307
-27.72
-28.961
-30.038
-30.958
-31.731
-32.367
-32.875
-33.266
-33.549
-33.736
-33.838
-33.863
-33.823
-33.727
-33.585
-33.407
-33.2
-32.975
-32.738
-32.498
-32.262
-32.035
-31.824
-31.633
-31.465
-31.322
-31.208
-31.122
-31.065
-31.036
-31.033
-31.056
-31.1
-31.163
-31.242
-31.332
-31.429
-31.527
-31.624
-31.715
-31.795
-31.861
-31.91
-31.938
-31.942
-31.921
-31.871
-31.791
-31.679
-31.532
-31.351
-31.132
-30.878
-30.587
-30.26
-29.899
-29.505
-29.082
-28.633
-28.159
-27.667
-27.159
-26.641
-26.117
-25.594
-25.077
-24.572
-24.085
-23.623
-23.191
-22.796
-22.442
-22.134
-21.876
-21.671
-21.523
-21.434
-21.406
-21.441
-21.539
-21.701
-21.93
-22.224
-22.583
-23.006
-23.493
-24.041
-24.648
-25.31
-26.024
-26.786
-27.591
-28.434
-29.31
-30.213
-31.136
-32.074
-33.018
-33.961
-34.895
-35.812
-36.703
-37.562
-38.38
-39.151
-39.866
-40.521
-41.11
-41.627
-42.069
-42.432
-42.71
-42.902
-43.004
-43.015
-42.931
-42.751
-42.473
-42.097
-41.623
-41.055
-40.395
-39.648
-38.818
-37.911
-36.936
-35.901
-34.813
-33.678
-32.503
-31.292
-30.06
-28.82
-27.585
-26.366
-25.177
-24.03
-22.943
-21.935
-21.012
-20.18
-19.437
-18.782
-18.227
-17.783
-17.466
-17.294
-17.265
-17.374
-17.63
-18.033
-18.572
-19.228
-19.95
-20.687
-21.422
-22.138
-22.826
-23.479
-24.065
-24.549
-24.896
-25.071
-25.066
-24.873
-24.468
-23.843
-23.023
-22.067
-21.111
-20.29
-19.693
-19.394
-19.428
-19.855
-20.776
-22.283
-24.477
-27.431
-31.151
-35.702
-41.197
-47.594
-54.719
-62.183
-69.298
-75.498
-80.355
-83.328
-84.023
-82.33
-78.382
-72.958
-67.228
-62.009
-58.064
-56.141
-56.371
-58.38
-61.074
-62.015
-58.567
-48.661
-29.701
0.906
44.459
101.65
170.427
244.863
321.34
397.542
471.277
543.784
609.239
655.178
672.5
651.206
589.999
501.68
395.896
283.501
177.607
80.445
-1.89
-61.472
-101.941
-124.133
-130.935
-130.422
-122.612
-108.293
-91.317
-73.245
-57.86
-48.189
-44.082
-44.877
-49.218
-55.446
-62.015
-67.373
-70.59
-71.358
-69.931
-67.008
-63.214
-59.084
-55.268
-52.366
-50.71
-50.414
-51.366
-53.296
-55.987
-59.262
-62.917
-66.757
-70.609
-74.316
-77.755
-80.825
-83.443
-85.544
-87.09
-88.061
-88.454
-88.284
-87.584
-86.401
-84.781
-82.772
-80.417
-77.754
-74.834
-71.716
-68.457
-65.118
-61.743
-58.359
-54.99
-51.65
-48.347
-45.082
-41.848
-38.631
-35.422
-32.217
-29.013
-25.812
-22.607
-19.393
-16.165
-12.916
-9.643
-6.346
-3.022
0.328
3.702
7.097
10.506
13.923
17.343
20.76
24.171
27.57
30.954
34.316
37.65
40.952
44.213
47.427
50.583
53.673
56.687
59.616
62.45
65.18
67.794
70.282
72.636
74.844
76.897
78.785
80.496
82.022
83.353
84.48
85.394
86.089
86.558
86.794
86.793
86.551
86.066
85.335
84.36
83.139
81.675
79.972
78.033
75.864
73.472
70.864
68.05
65.04
61.846
58.478
54.951
51.277
47.47
43.546
39.52
35.407
31.225
26.988
22.716
18.424
14.129
9.849
5.601
1.4
-2.737
-6.795
-10.759
-14.615
-18.351
-21.954
-25.414
-28.72
-31.863
-34.837
-37.633
-40.247
-42.675
-44.914
-46.961
-48.816
-50.479
-51.951
-53.234
-54.331
-55.247
-55.986
-56.553
-56.955
-57.2
-57.294
-57.248
-57.069
-56.767
-56.353
-55.836
-55.228
-54.538
-53.777
-52.957
-52.086
-51.176
-50.236
-49.275
-48.301
-47.324
-46.351
-45.388
-44.442
-43.518
-42.623
-41.76
-40.934
-40.147
-39.404
-38.707
-38.058
-37.458
-36.909
-36.412
-35.967
-35.574
-35.233
-34.943
-34.704
-34.513
-34.37
-34.272
-34.216
-34.201
-34.224
-34.282
-34.372
-34.493
-34.64
-34.812
-35.007
-35.222
-35.457
-35.708
-35.975
-36.256
-36.551
-36.859
-37.178
-37.508
-37.848
-38.197
-38.556
-38.921
-39.294
-39.673
-40.056
-40.443
-40.832
-41.223
-41.614
-42.004
-42.393
-42.78
-43.163
-43.542
-43.917
-44.287
-44.651
-45.01
-45.362
-45.707
-46.045
-46.374
-46.693
-47.002
-47.3
-47.584
-47.853
-48.105
-48.339
-48.552
-48.743
-48.91
-49.05
-49.163
-49.246
-49.298
-49.318
-49.304
-49.255
-49.17
-49.047
-48.884
-48.682
-48.437
-48.148
-47.814
-47.432
-47.001
-46.519
-45.983
-45.391
-44.742
-44.033
-43.263
-42.432
-41.538
-40.582
-39.564
-38.487
-37.354
-36.169
-34.935
-33.657
-32.341
-30.991
-29.614
-28.217
-26.804
-25.383
-23.96
-22.546
-21.147
-19.775
-18.439
-17.145
-15.906
-14.729
-13.628
-12.613
-11.693
-10.878
-10.178
-9.605
-9.174
-8.898
-8.782
-8.829
-9.043
-9.418
-9.953
-10.638
-11.452
-12.376
-13.384
-14.446
-15.541
-16.644
-17.726
-18.761
-19.717
-20.563
-21.288
-21.879
-22.33
-22.652
-22.858
-22.968
-23.041
-23.134
-23.321
-23.7
-24.349
-25.339
-26.735
-28.563
-30.864
-33.685
-37.044
-40.966
-45.461
-50.469
-55.984
-62.028
-68.452
-75.002
-81.238
-86.458
-90.061
-91.579
-90.475
-86.387
-79.305
-69.541
-58.048
-46.315
-35.688
-27.372
-22.349
-20.83
-22.23
-25.205
-27.418
-25.643
-16.426
3.759
38.308
87.264
147.315
215.327
286.846
362.154
446.888
538.282
629.437
705.706
741.294
724.339
652.088
529.056
379.885
225.064
83.751
-20.784
-84.038
-108.139
-101.69
-85.719
-71.295
-62.43
-59.592
-55.507
-48.163
-40.106
-33.529
-32.22
-37.087
-46.013
-57.04
-67.895
-76.636
-82.595
-85.524
-85.417
-82.807
-78.354
-72.708
-66.664
-60.954
-55.952
-51.814
-48.549
-46.017
-44.135
-42.857
-42.092
-41.756
-41.793
-42.19
-42.98
-44.175
-45.742
-47.609
-49.678
-51.878
-54.168
-56.511
-58.872
-61.211
-63.468
-65.586
-67.503
-69.161
-70.516
-71.516
-72.101
-72.234
-71.898
-71.092
-69.838
-68.153
-66.043
-63.518
-60.591
-57.285
-53.638
-49.694
-45.503
-41.111
-36.556
-31.878
-27.117
-22.305
-17.468
-12.619
-7.76
-2.895
1.971
6.831
11.682
16.527
21.373
26.231
31.111
36.022
40.966
45.942
50.948
55.977
61.02
66.064
71.087
76.073
81.004
85.864
90.637
95.305
99.847
104.245
108.478
112.529
116.382
120.02
123.429
126.596
129.51
132.161
134.542
136.644
138.46
139.981
141.2
142.112
142.712
142.995
142.961
142.606
141.933
140.943
139.641
138.032
136.123
133.922
131.438
128.681
125.663
122.397
118.898
115.181
111.261
107.156
102.883
98.461
93.909
89.245
84.489
79.659
74.775
69.857
64.923
59.994
55.089
50.226
45.424
40.701
36.076
31.564
27.182
22.945
18.866
14.958
11.232
7.699
4.366
1.242
-1.667
-4.357
-6.824
-9.066
-11.082
-12.873
-14.441
-15.788
-16.919
-17.839
-18.554
-19.072
-19.4
-19.547
-19.524
-19.34
-19.006
-18.535
-17.938
-17.228
-16.418
-15.521
-14.551
-13.522
-12.445
-11.335
-10.203
-9.062
-7.924
-6.798
-5.696
-4.626
-3.598
-2.618
-1.694
-0.832
-0.036
0.688
1.339
1.913
2.409
2.826
3.165
3.426
3.611
3.722
3.762
3.734
3.642
3.492
3.288
3.035
2.739
2.408
2.046
1.661
1.258
0.845
0.428
0.012
-0.398
-0.795
-1.175
-1.534
-1.869
-2.176
-2.452
-2.697
-2.907
-3.084
-3.226
-3.335
-3.411
-3.456
-3.473
-3.463
-3.429
-3.375
-3.305
-3.221
-3.128
-3.032
-2.935
-2.844
-2.764
-2.699
-2.654
-2.634
-2.645
-2.689
-2.773
-2.898
-3.07
-3.29
-3.563
-3.888
-4.27
-4.707
-5.202
-5.753
-6.36
-7.021
-7.734
-8.495
-9.302
-10.151
-11.038
-11.958
-12.906
-13.878
-14.866
-15.866
-16.871
-17.875
-18.869
-19.848
-20.804
-21.73
-22.619
-23.464
-24.26
-24.999
-25.675
-26.284
-26.819
-27.276
-27.65
-27.938
-28.136
-28.243
-28.256
-28.176
-28.003
-27.741
-27.391
-26.959
-26.448
-25.865
-25.217
-24.511
-23.755
-22.956
-22.121
-21.261
-20.384
-19.499
-18.618
-17.751
-16.908
-16.102
-15.346
-14.651
-14.028
-13.483
-13.024
-12.658
-12.393
-12.24
-12.211
-12.312
-12.551
-12.934
-13.466
-14.146
-14.965
-15.898
-16.916
-17.99
-19.095
-20.211
-21.316
-22.388
-23.4
-24.323
-25.126
-25.787
-26.284
-26.596
-26.713
-26.63
-26.378
-26.038
-25.699
-25.458
-25.395
-25.555
-25.991
-26.782
-28
-29.728
-32.053
-35.003
-38.637
-43.085
-48.347
-54.296
-60.644
-66.806
-72.181
-76.341
-78.75
-78.827
-76.454
-71.808
-65.479
-58.835
-53.057
-48.899
-47.417
-49.435
-54.665
-62.166
-69.995
-74.782
-73.721
-64.369
-43.376
-7.964
43.31
109.274
185.233
265.541
344.846
422.389
500.964
577.623
647.835
700.549
715.497
684.232
603.194
474.291
320.416
162.216
20.569
-78.814
-131.499
-142.561
-123.338
-96.955
-75.916
-63.488
-59.178
-55.963
-51.083
-46.453
-44.294
-47.559
-56.338
-68.304
-81.039
-91.918
-99.639
-104.048
-105.098
-103.218
-99.024
-93.1
-86.288
-79.492
-73.218
-67.689
-62.976
-58.94
-55.494
-52.627
-50.253
-48.295
-46.716
-45.488
-44.633
-44.214
-44.252
-44.722
-45.581
-46.752
-48.165
-49.773
-51.536
-53.417
-55.37
-57.333
-59.236
-61.002
-62.576
-63.914
-64.964
-65.669
-65.98
-65.867
-65.321
-64.358
-62.996
-61.247
-59.122
-56.636
-53.819
-50.713
-47.369
-43.844
-40.182
-36.417
-32.587
-28.729
-24.878
-21.058
-17.281
-13.547
-9.856
-6.213
-2.617
0.93
4.436
7.914
11.378
14.846
18.325
21.82
25.333
28.861
32.402
35.947
39.483
42.993
46.461
49.871
53.209
56.462
59.611
62.638
65.525
68.254
70.807
73.168
75.322
77.256
78.956
80.413
81.616
82.558
83.232
83.629
83.744
83.569
83.099
82.333
81.266
79.9
78.234
76.273
74.021
71.484
68.672
65.591
62.255
58.673
54.858
50.825
46.588
42.162
37.566
32.815
27.929
22.927
17.828
12.651
7.417
2.145
-3.144
-8.431
-13.695
-18.916
-24.075
-29.153
-34.132
-38.992
-43.718
-48.294
-52.704
-56.934
-60.974
-64.812
-68.438
-71.846
-75.029
-77.981
-80.699
-83.182
-85.427
-87.435
-89.207
-90.746
-92.055
-93.14
-94.006
-94.66
-95.109
-95.361
-95.427
-95.316
-95.039
-94.605
-94.028
-93.32
-92.491
-91.557
-90.528
-89.42
-88.243
-87.012
-85.738
-84.432
-83.107
-81.773
-80.439
-79.114
-77.807
-76.524
-75.273
-74.059
-72.887
-71.761
-70.684
-69.661
-68.691
-67.777
-66.918
-66.115
-65.366
-64.672
-64.029
-63.437
-62.892
-62.393
-61.936
-61.517
-61.133
-60.78
-60.453
-60.148
-59.86
-59.586
-59.319
-59.057
-58.796
-58.531
-58.261
-57.982
-57.691
-57.388
-57.07
-56.737
-56.387
-56.022
-55.641
-55.245
-54.837
-54.419
-53.993
-53.562
-53.13
-52.699
-52.273
-51.853
-51.444
-51.047
-50.665
-50.302
-49.958
-49.638
-49.344
-49.079
-48.845
-48.645
-48.48
-48.353
-48.264
-48.216
-48.208
-48.241
-48.316
-48.432
-48.59
-48.788
-49.026
-49.301
-49.611
-49.951
-50.317
-50.703
-51.101
-51.506
-51.911
-52.309
-52.695
-53.064
-53.411
-53.733
-54.026
-54.287
-54.512
-54.695
-54.831
-54.914
-54.938
-54.897
-54.785
-54.595
-54.322
-53.963
-53.515
-52.976
-52.34
-51.598
-50.745
-49.782
-48.711
-47.539
-46.277
-44.937
-43.538
-42.11
-40.683
-39.284
-37.937
-36.653
-35.437
-34.299
-33.245
-32.284
-31.416
-30.624
-29.883
-29.179
-28.488
-27.786
-27.043
-26.199
-25.202
-24.017
-22.612
-20.985
-19.15
-17.116
-14.905
-12.559
-10.128
-7.689
-5.333
-3.127
-1.136
0.573
1.939
2.874
3.303
3.181
2.475
1.176
-0.697
-3.126
-6.073
-9.455
-13.188
-17.161
-21.243
-25.336
-29.352
-33.203
-36.826
-40.171
-43.209
-45.939
-48.371
-50.507
-52.349
-53.925
-55.291
-56.516
-57.674
-58.856
-60.119
-61.578
-63.413
-65.639
-68.146
-70.719
-72.896
-74.218
-74.385
-72.893
-69.162
-63.121
-54.979
-45.22
-35.032
-25.766
-18.366
-13.938
-13.771
-16.45
-19.941
-24.091
-26.249
-26.669
-26.212
-16.946
7.195
50.774
117.092
197.171
280.829
364.105
446.052
527.638
607.709
675.072
708.48
694.93
627.45
507.043
355.492
193.475
43.43
-67.207
-131.173
-150.107
-134.521
-108.468
-84.855
-68.11
-57.973
-46.003
-29.902
-12.524
3.428
13.532
16.547
14.427
8.972
2.463
-3.025
-6.711
-8.328
-7.925
-6.036
-3.249
-0.052
2.937
5.037
5.904
5.457
3.777
1.149
-2.169
-6.012
-10.175
-14.431
-18.612
-22.572
-26.185
-29.407
-32.199
-34.514
-36.333
-37.645
-38.443
-38.751
-38.612
-38.061
-37.14
-35.884
-34.322
-32.494
-30.449
-28.233
-25.898
-23.479
-20.997
-18.47
-15.908
-13.32
-10.707
-8.063
-5.373
-2.625
0.185
3.063
6.007
9.023
12.117
15.294
18.558
21.911
25.352
28.88
32.494
36.189
39.962
43.803
47.702
51.65
55.639
59.658
63.698
67.75
71.803
75.845
79.866
83.855
87.801
91.691
95.511
99.248
102.888
106.415
109.815
113.072
116.17
119.092
121.821
124.344
126.645
128.711
130.524
132.07
133.329
134.288
134.937
135.272
135.289
134.991
134.382
133.477
132.296
130.857
129.178
127.274
125.153
122.832
120.324
117.642
114.802
111.812
108.664
105.354
101.87
98.183
94.272
90.1
85.619
80.802
75.627
70.085
64.181
57.922
51.323
44.417
37.244
29.853
22.322
14.734
7.182
-0.21
-7.327
-14.051
-20.248
-25.816
-30.669
-34.733
-37.961
-40.318
-41.779
-42.352
-42.059
-40.932
-39.035
-36.447
-33.261
-29.61
-25.613
-21.386
-17.056
-12.725
-8.48
-4.405
-0.558
3.013
6.267
9.182
11.749
13.957
15.817
17.352
18.595
19.604
20.425
21.092
21.646
22.11
22.499
22.832
23.108
23.321
23.466
23.533
23.51
23.39
23.162
22.806
22.303
21.629
20.763
19.699
18.428
16.952
15.275
13.403
11.35
9.136
6.778
4.294
1.7
-0.988
-3.753
-6.578
-9.442
-12.329
-15.219
-18.099
-20.954
-23.77
-26.535
-29.238
-31.87
-34.423
-36.891
-39.266
-41.54
-43.706
-45.759
-47.694
-49.506
-51.194
-52.754
-54.186
-55.491
-56.671
-57.729
-58.667
-59.492
-60.207
-60.819
-61.334
-61.76
-62.102
-62.37
-62.571
-62.712
-62.801
-62.845
-62.851
-62.826
-62.777
-62.709
-62.627
-62.538
-62.445
-62.353
-62.265
-62.184
-62.112
-62.052
-62.003
-61.966
-61.94
-61.924
-61.916
-61.915
-61.917
-61.92
-61.92
-61.913
-61.894
-61.86
-61.806
-61.724
-61.607
-61.448
-61.241
-60.982
-60.665
-60.286
-59.841
-59.326
-58.739
-58.084
-57.359
-56.562
-55.691
-54.741
-53.717
-52.633
-51.498
-50.322
-49.115
-47.886
-46.649
-45.426
-44.227
-43.051
-41.9
-40.768
-39.666
-38.612
-37.626
-36.727
-35.921
-35.197
-34.555
-34.005
-33.546
-33.179
-32.891
-32.656
-32.478
-32.39
-32.419
-32.591
-32.908
-33.339
-33.864
-34.462
-35.125
-35.858
-36.655
-37.488
-38.348
-39.231
-40.144
-41.113
-42.124
-43.116
-44.049
-44.888
-45.633
-46.342
-47.077
-47.883
-48.811
-49.891
-51.141
-52.619
-54.379
-56.459
-58.892
-61.694
-64.869
-68.496
-72.711
-77.499
-82.706
-88.012
-92.878
-96.842
-99.625
-100.824
-99.933
-96.837
-91.694
-85.06
-78.185
-72.027
-67.057
-64.04
-63.681
-65.821
-69.793
-74.04
-75.747
-72.669
-62.953
-43.921
-13.096
31.127
87.864
153.039
222.008
290.062
357.432
428.524
501.183
571.514
628.357
649.439
624.385
548.266
422.256
269.558
111.346
-31.512
-133.899
-191.391
-208.449
-195.739
-175.052
-157.417
-145.572
-138.531
-129.154
-115.965
-101.98
-89.956
-83.523
-83.236
-86.996
-93.059
-99.373
-104.144
-106.746
-106.928
-104.766
-100.88
-95.954
-90.537
-85.263
-80.748
-77.277
-74.968
-73.813
-73.608
-74.162
-75.323
-76.881
-78.64
-80.478
-82.285
-83.976
-85.488
-86.736
-87.665
-88.282
-88.61
-88.665
-88.445
-87.914
-87.055
-85.885
-84.43
-82.722
-80.78
-78.615
-76.251
-73.727
-71.091
-68.378
-65.596
-62.718
-59.709
-56.551
-53.25
-49.836
-46.324
-42.713
-38.999
-35.182
-31.273
-27.283
-23.209
-19.034
-14.742
-10.325
-5.791
-1.16
3.545
8.312
13.14
18.034
22.998
28.024
33.108
38.246
43.44
48.689
53.981
59.295
64.609
69.903
75.161
80.367
85.505
90.551
95.481
100.269
104.895
109.339
113.579
117.591
121.348
124.82
127.986
130.833
133.349
135.523
137.346
138.813
139.931
140.717
141.187
141.347
141.197
140.728
139.935
138.816
137.375
135.611
133.516
131.076
128.286
125.149
121.666
117.83
113.618
108.986
103.905
98.371
92.403
86.037
79.31
72.264
64.954
57.451
49.849
42.237
34.686
27.254
19.999
12.991
6.326
0.116
-5.548
-10.604
-15.02
-18.778
-21.865
-24.283
-26.061
-27.256
-27.955
-28.23
-28.133
-27.7
-26.967
-25.986
-24.83
-23.58
-22.3
-21.034
-19.815
-18.669
-17.625
-16.694
-15.869
-15.114
-14.377
-13.627
-12.848
-12.037
-11.195
-10.313
-9.378
-8.376
-7.307
-6.177
-4.989
-3.747
-2.451
-1.111
0.253
1.61
2.923
4.167
5.327
6.393
7.358
8.215
8.958
9.587
10.108
10.528
10.848
11.072
11.199
11.233
11.183
11.059
10.871
10.626
10.332
9.994
9.619
9.211
8.772
8.306
7.81
7.286
6.736
6.161
5.565
4.948
4.312
3.659
2.989
2.305
1.605
0.89
0.159
-0.59
-1.356
-2.141
-2.946
-3.772
-4.62
-5.492
-6.388
-7.31
-8.259
-9.235
-10.238
-11.269
-12.326
-13.408
-14.514
-15.641
-16.786
-17.944
-19.112
-20.285
-21.457
-22.623
-23.777
-24.914
-26.025
-27.106
-28.149
-29.147
-30.093
-30.98
-31.801
-32.548
-33.216
-33.797
-34.286
-34.678
-34.966
-35.146
-35.213
-35.165
-34.997
-34.709
-34.299
-33.765
-33.109
-32.334
-31.441
-30.435
-29.32
-28.103
-26.793
-25.399
-23.932
-22.404
-20.826
-19.213
-17.579
-15.937
-14.301
-12.683
-11.095
-9.552
-8.067
-6.654
-5.327
-4.101
-2.987
-1.997
-1.143
-0.432
0.131
0.543
0.801
0.9
0.826
0.57
0.126
-0.511
-1.343
-2.368
-3.576
-4.947
-6.449
-8.051
-9.723
-11.441
-13.187
-14.94
-16.674
-18.355
-19.938
-21.385
-22.666
-23.747
-24.598
-25.208
-25.597
-25.812
-25.932
-26.025
-26.126
-26.277
-26.527
-26.934
-27.578
-28.555
-29.922
-31.767
-34.246
-37.389
-41.12
-45.225
-49.202
-52.532
-54.828
-55.586
-54.282
-50.887
-45.663
-39.287
-33.206
-28.634
-26.382
-27.542
-32.864
-41.941
-53.706
-66.044
-75.389
-78.613
-73.01
-55.221
-22.736
25.167
88.018
163.215
245.916
331.315
413.841
486.228
542.068
576.167
585.752
572.197
536.621
479.764
402.215
303.386
191.278
80.003
-16.431
-82.459
-115.422
-124.652
-118.829
-109.372
-101.323
-91.09
-78.602
-64.617
-50.593
-40.812
-36.808
-37.599
-41.988
-48.154
-54.206
-58.856
-61.402
-61.511
-59.413
-55.786
-51.232
-46.271
-41.538
-37.587
-34.706
-33.036
-32.503
-32.866
-33.949
-35.599
-37.641
-39.915
-42.268
-44.559
-46.667
-48.493
-49.953
-50.984
-51.542
-51.602
-51.158
-50.219
-48.816
-46.992
-44.788
-42.25
-39.415
-36.32
-33.015
-29.557
-26.007
-22.426
-18.859
-15.34
-11.893
-8.539
-5.286
-2.139
0.908
3.868
6.748
9.554
12.287
14.949
17.546
20.085
22.576
25.026
27.442
29.829
32.193
34.541
36.874
39.195
41.506
43.805
46.095
48.378
50.658
52.937
55.218
57.504
59.797
62.098
64.409
66.729
69.056
71.387
73.72
76.051
78.375
80.687
82.98
85.248
87.483
89.677
91.82
93.903
95.916
97.846
99.684
101.416
103.032
104.519
105.865
107.058
108.087
108.94
109.607
110.077
110.341
110.39
110.215
109.81
109.168
108.283
107.152
105.772
104.141
102.259
100.126
97.745
95.118
92.251
89.149
85.818
82.268
78.507
74.546
70.396
66.07
61.583
56.948
52.181
47.298
42.317
37.255
32.129
26.957
21.757
16.548
11.347
6.173
1.042
-4.028
-9.02
-13.918
-18.706
-23.37
-27.896
-32.268
-36.476
-40.507
-44.35
-47.995
-51.433
-54.655
-57.656
-60.428
-62.968
-65.271
-67.337
-69.162
-70.749
-72.097
-73.211
-74.092
-74.746
-75.177
-75.393
-75.401
-75.207
-74.821
-74.25
-73.506
-72.596
-71.533
-70.324
-68.982
-67.518
-65.941
-64.263
-62.497
-60.652
-58.74
-56.774
-54.764
-52.722
-50.658
-48.584
-46.51
-44.446
-42.401
-40.384
-38.403
-36.465
-34.578
-32.748
-30.981
-29.281
-27.653
-26.101
-24.628
-23.238
-21.932
-20.713
-19.582
-18.54
-17.588
-16.728
-15.957
-15.278
-14.688
-14.187
-13.772
-13.442
-13.193
-13.022
-12.926
-12.9
-12.939
-13.04
-13.197
-13.407
-13.663
-13.963
-14.3
-14.672
-15.073
-15.5
-15.949
-16.414
-16.892
-17.379
-17.871
-18.365
-18.855
-19.34
-19.813
-20.272
-20.713
-21.132
-21.525
-21.888
-22.219
-22.514
-22.772
-22.99
-23.169
-23.305
-23.401
-23.456
-23.472
-23.45
-23.392
-23.3
-23.175
-23.021
-22.84
-22.635
-22.409
-22.165
-21.908
-21.644
-21.38
-21.121
-20.876
-20.651
-20.454
-20.295
-20.181
-20.118
-20.111
-20.166
-20.29
-20.49
-20.772
-21.144
-21.61
-22.174
-22.841
-23.614
-24.493
-25.473
-26.548
-27.717
-28.98
-30.347
-31.822
-33.41
-35.113
-36.932
-38.862
-40.895
-43.012
-45.183
-47.376
-49.561
-51.712
-53.811
-55.831
-57.737
-59.49
-61.046
-62.363
-63.417
-64.168
-64.588
-64.69
-64.5
-64.073
-63.492
-62.808
-62.075
-61.39
-60.84
-60.51
-60.515
-60.919
-61.817
-63.404
-65.747
-68.782
-72.333
-76.009
-79.408
-82.26
-84.109
-84.355
-82.816
-79.649
-75.482
-71.426
-68.257
-66.747
-67.949
-72.671
-81.234
-91.531
-100.296
-106.02
-106.628
-103.1
-95.902
-77.425
-43.066
10.719
85.427
169.62
255.062
339.879
420.797
499.71
572.824
622.37
631.797
588.997
489.918
351.537
197.879
53.455
-56.945
-126.07
-156.692
-158.535
-150.525
-142.006
-135.871
-131.782
-122.749
-107.754
-90.636
-74.559
-63.913
-60.214
-61.718
-66.756
-73.622
-80.427
-85.845
-89.171
-90.072
-88.813
-86.087
-82.51
-78.603
-74.986
-72.206
-70.538
-70.086
-70.746
-72.268
-74.457
-77.153
-80.188
-83.403
-86.672
-89.88
-92.919
-95.704
-98.158
-100.217
-101.844
-103.021
-103.735
-103.986
-103.799
-103.205
-102.24
-100.939
-99.327
-97.424
-95.267
-92.894
-90.353
-87.694
-84.95
-82.143
-79.291
-76.404
-73.488
-70.543
-67.56
-64.524
-61.423
-58.254
-55.013
-51.7
-48.311
-44.84
-41.283
-37.636
-33.897
-30.068
-26.148
-22.14
-18.049
-13.881
-9.645
-5.351
-1.009
3.374
7.788
12.223
16.672
21.122
25.564
29.988
34.381
38.733
43.03
47.26
51.41
55.467
59.418
63.251
66.952
70.511
73.914
77.152
80.212
83.084
85.759
88.227
90.479
92.509
94.309
95.874
97.198
98.277
99.11
99.695
100.031
100.12
99.963
99.565
98.93
98.063
96.971
95.662
94.144
92.427
90.522
88.439
86.192
83.791
81.251
78.584
75.805
72.926
69.962
66.926
63.831
60.691
57.519
54.327
51.128
47.933
44.755
41.604
38.491
35.426
32.418
29.474
26.604
23.813
21.108
18.494
15.976
13.557
11.241
9.03
6.927
4.932
3.047
1.271
-0.395
-1.952
-3.402
-4.744
-5.982
-7.116
-8.147
-9.079
-9.912
-10.648
-11.289
-11.836
-12.292
-12.657
-12.935
-13.126
-13.233
-13.257
-13.2
-13.063
-12.85
-12.561
-12.197
-11.761
-11.254
-10.679
-10.037
-9.33
-8.562
-7.734
-6.85
-5.913
-4.926
-3.894
-2.82
-1.708
-0.563
0.61
1.806
3.018
4.242
5.47
6.697
7.915
9.117
10.296
11.445
12.557
13.625
14.641
15.599
16.492
17.313
18.054
18.711
19.275
19.741
20.105
20.36
20.503
20.531
20.439
20.227
19.892
19.434
18.852
18.147
17.321
16.373
15.308
14.128
12.838
11.441
9.943
8.349
6.667
4.902
3.063
1.156
-0.81
-2.827
-4.887
-6.981
-9.1
-11.234
-13.374
-15.51
-17.633
-19.733
-21.8
-23.825
-25.801
-27.718
-29.57
-31.349
-33.049
-34.664
-36.189
-37.62
-38.952
-40.182
-41.307
-42.326
-43.238
-44.043
-44.742
-45.336
-45.828
-46.221
-46.52
-46.731
-46.859
-46.913
-46.899
-46.826
-46.701
-46.533
-46.33
-46.099
-45.848
-45.586
-45.322
-45.065
-44.825
-44.612
-44.435
-44.303
-44.221
-44.194
-44.224
-44.313
-44.465
-44.69
-44.997
-45.39
-45.877
-46.461
-47.143
-47.918
-48.767
-49.658
-50.56
-51.441
-52.271
-53.027
-53.683
-54.213
-54.587
-54.769
-54.729
-54.445
-53.888
-53.036
-51.878
-50.431
-48.759
-46.959
-45.133
-43.373
-41.747
-40.332
-39.228
-38.536
-38.363
-38.802
-39.887
-41.698
-44.38
-47.953
-52.317
-57.185
-61.963
-66.093
-69.173
-70.692
-70.144
-67.375
-62.449
-56.018
-49.46
-43.878
-40.063
-38.845
-40.61
-44.999
-51.145
-56.918
-58.926
-54.287
-40.451
-14.558
25.132
78.92
146.453
223.697
304.737
386.056
462.269
530.182
587.397
625.896
642.063
631.422
589.775
521.114
424.118
303.067
170.9
39.648
-68.451
-136.397
-163.282
-154.619
-127.428
-100.905
-82.293
-74.468
-75.825
-78.048
-77.916
-74.015
-64.472
-54.024
-45.539
-39.097
-35.593
-32.689
-29.18
-26.474
-25.161
-25.555
-27.433
-30.079
-33.294
-37.249
-41.612
-45.487
-48.203
-49.724
-50.656
-51.594
-52.768
-54.125
-55.608
-57.416
-59.712
-62.385
-65.046
-67.315
-69.004
-70.09
-70.654
-70.725
-70.289
-69.385
-68.103
-66.547
-64.788
-62.862
-60.774
-58.538
-56.198
-53.792
-51.357
-48.915
-46.472
-44.031
-41.588
-39.13
-36.64
-34.107
-31.522
-28.879
-26.175
-23.406
-20.566
-17.653
-14.664
-11.593
-8.432
-5.174
-1.817
1.638
5.187
8.825
12.545
16.341
20.206
24.135
28.119
32.15
36.22
40.321
44.441
48.571
52.695
56.799
60.868
64.886
68.838
72.708
76.478
80.133
83.655
87.029
90.237
93.264
96.093
98.709
101.096
103.238
105.123
106.737
108.068
109.104
109.836
110.256
110.358
110.137
109.59
108.715
107.514
105.987
104.14
101.978
99.508
96.74
93.684
90.353
86.761
82.924
78.858
74.581
70.113
65.472
60.68
55.757
50.725
45.606
40.423
35.198
29.955
24.717
19.507
14.347
9.259
4.265
-0.616
-5.364
-9.963
-14.394
-18.643
-22.695
-26.537
-30.159
-33.551
-36.707
-39.618
-42.283
-44.698
-46.863
-48.78
-50.451
-51.877
-53.061
-54.009
-54.729
-55.231
-55.526
-55.627
-55.543
-55.289
-54.88
-54.331
-53.656
-52.866
-51.971
-50.983
-49.919
-48.799
-47.641
-46.462
-45.269
-44.066
-42.858
-41.653
-40.457
-39.274
-38.107
-36.956
-35.831
-34.747
-33.722
-32.768
-31.89
-31.077
-30.313
-29.596
-28.946
-28.404
-28.017
-27.806
-27.758
-27.844
-28.05
-28.382
-28.871
-29.49
-30.129
-30.754
-31.479
-32.581
-34.363
-36.903
-39.955
-43.197
-46.523
-49.801
-52.677
-54.434
-54.199
-51.612
-47.131
-41.646
-35.738
-29.813
-24.4
-20.405
-19.052
-20.97
-25.7
-32.072
-39.172
-46.451
-53.466
-59.598
-63.88
-65.697
-65.294
-63.545
-61.205
-58.684
-56.168
-53.798
-51.955
-50.958
-50.753
-50.988
-51.317
-51.566
-51.721
-51.864
-51.987
-52.026
-51.971
-51.868
-51.776
-51.728
-51.709
-51.66
-51.537
-51.325
-51.023
-50.641
-50.184
-49.65
-49.035
-48.335
-47.55
-46.682
-45.737
-44.717
-43.627
-42.474
-41.264
-40.01
-38.727
-37.424
-36.106
-34.777
-33.437
-32.093
-30.751
-29.421
-28.11
-26.827
-25.581
-24.383
-23.246
-22.181
-21.196
-20.298
-19.49
-18.778
-18.169
-17.675
-17.303
-17.059
-16.948
-16.977
-17.149
-17.464
-17.912
-18.467
-19.102
-19.79
-20.506
-21.233
-21.948
-22.628
-23.246
-23.774
-24.184
-24.461
-24.586
-24.535
-24.297
-23.868
-23.28
-22.616
-21.955
-21.381
-20.963
-20.734
-20.748
-21.085
-21.818
-23.03
-24.798
-27.13
-30.089
-33.814
-38.299
-43.428
-48.89
-54.048
-58.327
-61.346
-62.608
-61.643
-58.36
-52.882
-45.938
-39.055
-33.484
-30.083
-29.762
-32.976
-39.337
-47.965
-56.667
-61.779
-60.116
-49.059
-25.646
12.299
65.275
133.044
211.903
294.274
375.233
450.896
518.411
579.112
628.573
657.73
658.621
620.938
542.143
429.935
296.304
161.169
45.081
-39.016
-85.334
-99.416
-95.601
-85.671
-76.559
-69.682
-60.541
-47.451
-32.78
-19.47
-11.395
-10.128
-14.338
-22.296
-32.171
-42.037
-50.433
-56.563
-60.044
-61.067
-60.254
-58.199
-55.425
-52.515
-49.996
-48.118
-46.967
-46.463
-46.39
-46.597
-46.979
-47.426
-47.858
-48.254
-48.606
-48.894
-49.125
-49.272
-49.316
-49.304
-49.281
-49.292
-49.384
-49.573
-49.874
-50.312
-50.89
-51.579
-52.326
-53.049
-53.687
-54.22
-54.626
-54.894
-54.994
-54.861
-54.441
-53.698
-52.601
-51.131
-49.273
-47.004
-44.331
-41.288
-37.929
-34.328
-30.539
-26.589
-22.507
-18.316
-14.046
-9.738
-5.421
-1.108
3.184
7.441
11.647
15.779
19.832
23.814
27.739
31.626
35.483
39.308
43.096
46.842
50.539
54.18
57.749
61.225
64.591
67.832
70.935
73.889
76.679
79.288
81.698
83.893
85.858
87.584
89.059
90.275
91.224
91.903
92.311
92.447
92.313
91.909
91.238
90.301
89.103
87.65
85.946
84
81.817
79.409
76.785
73.957
70.935
67.733
64.363
60.839
57.175
53.386
49.485
45.489
41.411
37.267
33.071
28.837
24.58
20.314
16.051
11.806
7.59
3.414
-0.709
-4.77
-8.758
-12.666
-16.483
-20.204
-23.822
-27.329
-30.721
-33.992
-37.137
-40.153
-43.036
-45.782
-48.39
-50.856
-53.179
-55.357
-57.39
-59.277
-61.017
-62.61
-64.057
-65.358
-66.513
-67.524
-68.39
-69.114
-69.697
-70.14
-70.445
-70.614
-70.65
-70.555
-70.33
-69.979
-69.503
-68.907
-68.191
-67.36
-66.416
-65.364
-64.208
-62.952
-61.602
-60.162
-58.64
-57.04
-55.37
-53.636
-51.845
-50.004
-48.122
-46.205
-44.262
-42.3
-40.329
-38.356
-36.391
-34.441
-32.515
-30.621
-28.767
-26.961
-25.21
-23.523
-21.905
-20.365
-18.91
-17.544
-16.274
-15.106
-14.044
-13.092
-12.253
-11.529
-10.922
-10.433
-10.061
-9.807
-9.667
-9.641
-9.725
-9.916
-10.21
-10.602
-11.086
-11.656
-12.307
-13.03
-13.82
-14.667
-15.565
-16.504
-17.477
-18.475
-19.49
-20.511
-21.532
-22.542
-23.534
-24.498
-25.426
-26.311
-27.145
-27.92
-28.631
-29.27
-29.833
-30.314
-30.709
-31.015
-31.228
-31.345
-31.367
-31.29
-31.114
-30.841
-30.469
-30.002
-29.44
-28.787
-28.047
-27.224
-26.322
-25.347
-24.307
-23.21
-22.062
-20.873
-19.652
-18.408
-17.151
-15.891
-14.637
-13.4
-12.188
-11.012
-9.882
-8.808
-7.801
-6.869
-6.023
-5.27
-4.621
-4.085
-3.67
-3.382
-3.227
-3.209
-3.333
-3.61
-4.045
-4.64
-5.396
-6.307
-7.366
-8.567
-9.895
-11.324
-12.828
-14.372
-15.922
-17.459
-18.955
-20.382
-21.714
-22.909
-23.933
-24.768
-25.391
-25.798
-25.996
-25.981
-25.777
-25.447
-25.06
-24.715
-24.505
-24.495
-24.743
-25.301
-26.225
-27.599
-29.487
-31.941
-34.998
-38.632
-42.854
-47.714
-53.098
-58.779
-64.388
-69.339
-73.143
-75.443
-75.717
-73.573
-68.982
-62.013
-53.288
-43.888
-34.564
-26.177
-19.783
-15.688
-13.528
-12.667
-11.372
-7.25
1.783
18.614
46.693
86.892
137.066
194.657
255.982
320.249
393.46
478.24
569.41
655.934
716.21
728.404
685.995
590.704
452.799
295.259
136.085
-7.495
-113.297
-172.928
-187.108
-162.992
-121.506
-81.819
-52.472
-37.806
-34.771
-34.36
-33.827
-32.11
-27.917
-25.795
-27.241
-31.155
-37.627
-43.57
-46.844
-47.71
-46.197
-43.148
-39.625
-35.988
-32.668
-30.238
-28.917
-28.719
-29.543
-31.154
-33.343
-35.968
-38.884
-41.912
-44.908
-47.759
-50.36
-52.631
-54.503
-55.92
-56.853
-57.294
-57.246
-56.728
-55.773
-54.421
-52.713
-50.688
-48.381
-45.824
-43.06
-40.138
-37.111
-34.032
-30.939
-27.856
-24.803
-21.791
-18.822
-15.894
-12.998
-10.117
-7.241
-4.364
-1.482
1.408
4.311
7.234
10.184
13.165
16.183
19.238
22.333
25.469
28.642
31.851
35.089
38.349
41.626
44.914
48.209
51.504
54.794
58.071
61.329
64.559
67.753
70.9
73.989
77.006
79.94
82.777
85.503
88.105
90.569
92.88
95.028
96.998
98.779
100.359
101.727
102.872
103.787
104.46
104.886
105.056
104.966
104.61
103.986
103.092
101.927
100.492
98.788
96.818
94.587
92.1
89.365
86.39
83.185
79.761
76.132
72.312
68.317
64.162
59.867
55.449
50.926
46.318
41.643
36.921
32.17
27.408
22.655
17.928
13.244
8.62
4.073
-0.382
-4.73
-8.958
-13.053
-17.002
-20.796
-24.423
-27.875
-31.144
-34.223
-37.108
-39.793
-42.277
-44.556
-46.631
-48.503
-50.175
-51.651
-52.934
-54.033
-54.952
-55.701
-56.286
-56.719
-57.006
-57.159
-57.186
-57.098
-56.905
-56.617
-56.243
-55.794
-55.278
-54.707
-54.088
-53.431
-52.745
-52.037
-51.317
-50.59
-49.865
-49.147
-48.444
-47.76
-47.1
-46.469
-45.869
-45.304
-44.775
-44.282
-43.826
-43.407
-43.022
-42.67
-42.349
-42.055
-41.787
-41.541
-41.314
-41.102
-40.902
-40.71
-40.523
-40.338
-40.15
-39.957
-39.755
-39.541
-39.313
-39.067
-38.802
-38.514
-38.202
-37.863
-37.495
-37.096
-36.665
-36.202
-35.704
-35.173
-34.608
-34.01
-33.381
-32.722
-32.035
-31.323
-30.588
-29.832
-29.058
-28.27
-27.47
-26.66
-25.845
-25.026
-24.206
-23.388
-22.575
-21.767
-20.967
-20.177
-19.398
-18.631
-17.876
-17.135
-16.408
-15.695
-14.998
-14.316
-13.65
-12.998
-12.361
-11.737
-11.126
-10.525
-9.933
-9.348
-8.768
-8.191
-7.616
-7.039
-6.46
-5.876
-5.286
-4.69
-4.085
-3.472
-2.849
-2.219
-1.58
-0.936
-0.288
0.36
1.005
1.639
2.259
2.856
3.426
3.96
4.452
4.894
5.282
5.607
5.867
6.053
6.159
6.177
6.1
5.919
5.63
5.227
4.704
4.056
3.284
2.387
1.365
0.215
-1.074
-2.508
-4.092
-5.829
-7.715
-9.744
-11.903
-14.172
-16.517
-18.905
-21.304
-23.678
-26.005
-28.258
-30.402
-32.398
-34.197
-35.75
-37.026
-37.999
-38.644
-38.962
-38.983
-38.755
-38.372
-37.922
-37.462
-37.073
-36.837
-36.838
-37.189
-37.996
-39.311
-41.22
-43.867
-47.266
-51.355
-55.954
-60.611
-64.885
-68.513
-71.106
-72.146
-71.395
-68.839
-64.726
-60.019
-55.668
-51.92
-49.196
-48.472
-49.949
-53.084
-57.331
-59.108
-54.447
-43.158
-23.184
5.277
39.104
81.209
132.703
194.861
272.629
365.052
468.781
574.707
667.05
729.885
746.56
710.968
625.265
496.055
342.905
184.11
39.074
-68.619
-131.684
-151.622
-139.25
-117.515
-99.117
-88.555
-84.83
-79.369
-69.947
-59.226
-49.863
-46.056
-48.589
-55.145
-63.912
-72.71
-79.593
-83.964
-85.542
-84.324
-80.916
-75.989
-70.131
-64.06
-58.487
-53.759
-50.021
-47.272
-45.322
-44.037
-43.336
-43.088
-43.142
-43.387
-43.748
-44.177
-44.682
-45.26
-45.864
-46.455
-47.003
-47.486
-47.906
-48.261
-48.526
-48.66
-48.617
-48.36
-47.876
-47.171
-46.242
-45.084
-43.68
-42.001
-40.044
-37.812
-35.308
-32.535
-29.49
-26.182
-22.64
-18.915
-15.067
-11.142
-7.167
-3.159
0.865
4.887
8.882
12.827
16.711
20.526
24.259
27.9
31.439
34.875
38.225
41.512
44.76
47.984
51.186
54.359
57.49
60.557
63.535
66.406
69.149
71.754
74.229
76.575
78.801
80.913
82.906
84.773
86.513
88.118
89.59
90.943
92.2
93.403
94.607
95.842
97.124
98.454
99.804
101.141
102.422
103.583
104.577
105.366
105.911
106.189
106.181
105.844
105.135
103.989
102.326
100.099
97.282
93.859
89.858
85.317
80.295
74.886
69.171
63.214
57.076
50.795
44.408
37.97
31.537
25.171
18.957
12.956
7.216
1.783
-3.327
-8.115
-12.597
-16.818
-20.818
-24.619
-28.237
-31.673
-34.925
-37.999
-40.897
-43.623
-46.191
-48.614
-50.9
-53.062
-55.103
-57.013
-58.781
-60.382
-61.793
-63.003
-64.005
-64.799
-65.393
-65.791
-66.003
-66.047
-65.932
-65.671
-65.274
-64.748
-64.104
-63.357
-62.521
-61.614
-60.655
-59.658
-58.639
-57.611
-56.586
-55.576
-54.589
-53.633
-52.714
-51.842
-51.023
-50.265
-49.578
-48.968
-48.441
-48.003
-47.659
-47.412
-47.264
-47.218
-47.274
-47.433
-47.694
-48.056
-48.518
-49.077
-49.73
-50.473
-51.302
-52.212
-53.197
-54.252
-55.372
-56.549
-57.778
-59.053
-60.367
-61.715
-63.088
-64.48
-65.883
-67.29
-68.693
-70.083
-71.452
-72.792
-74.095
-75.355
-76.565
-77.72
-78.812
-79.838
-80.792
-81.669
-82.463
-83.167
-83.773
-84.275
-84.668
-84.948
-85.111
-85.155
-85.076
-84.874
-84.549
-84.1
-83.527
-82.825
-81.983
-80.998
-79.876
-78.625
-77.257
-75.786
-74.22
-72.574
-70.867
-69.111
-67.314
-65.471
-63.561
-61.579
-59.526
-57.411
-55.257
-53.075
-50.859
-48.605
-46.305
-43.949
-41.532
-39.037
-36.426
-33.689
-30.836
-27.903
-24.962
-22.062
-19.235
-16.505
-13.883
-11.392
-9.072
-6.954
-5.064
-3.436
-2.099
-1.108
-0.543
-0.444
-0.82
-1.649
-2.864
-4.424
-6.308
-8.493
-10.963
-13.691
-16.643
-19.797
-23.149
-26.681
-30.37
-34.168
-37.999
-41.823
-45.621
-49.394
-53.161
-56.91
-60.613
-64.248
-67.796
-71.243
-74.571
-77.746
-80.713
-83.428
-85.859
-87.995
-89.846
-91.399
-92.639
-93.562
-94.187
-94.595
-94.879
-95.118
-95.372
-95.673
-96.071
-96.664
-97.554
-98.818
-100.521
-102.667
-105.3
-108.565
-112.473
-116.879
-121.439
-125.577
-128.757
-130.594
-130.602
-128.231
-123.316
-115.998
-107.022
-97.629
-88.774
-81.597
-77.218
-76.156
-78.505
-82.11
-83.72
-81.749
-73.619
-59.354
-39.047
-7.147
37.383
97.226
174.822
264.118
365.008
471.735
571.356
652.085
694.333
688.142
635.815
546.522
437.528
318.679
196.803
79.614
-24.488
-101.209
-142.561
-151.808
-140.126
-122.649
-109.03
-100.242
-92.456
-83.155
-72.822
-63.996
-60.05
-61.605
-66.957
-74.404
-81.821
-87.398
-90.547
-90.963
-88.655
-84.287
-78.585
-72.18
-65.841
-60.278
-55.829
-52.655
-50.757
-49.935
-50.025
-50.894
-52.351
-54.202
-56.302
-58.534
-60.799
-63.023
-65.104
-66.917
-68.376
-69.427
-70.047
-70.235
-70.001
-69.361
-68.342
-66.989
-65.345
-63.451
-61.347
-59.069
-56.659
-54.166
-51.638
-49.122
-46.65
-44.239
-41.895
-39.617
-37.395
-35.214
-33.056
-30.897
-28.715
-26.494
-24.219
-21.875
-19.448
-16.92
-14.274
-11.496
-8.571
-5.49
-2.244
1.175
4.77
8.544
12.496
16.624
20.925
25.397
30.036
34.836
39.793
44.895
50.134
55.499
60.975
66.547
72.196
77.906
83.654
89.419
95.18
100.913
106.595
112.2
117.706
123.087
128.318
133.377
138.238
142.879
147.277
151.41
155.258
158.8
162.02
164.901
167.427
169.587
171.369
172.765
173.768
174.373
174.578
174.384
173.792
172.807
171.434
169.684
167.567
165.096
162.288
159.158
155.726
152.013
148.04
143.831
139.408
134.797
130.023
125.112
120.09
114.984
109.821
104.627
99.429
94.252
89.121
84.061
79.095
74.246
69.533
64.977
60.595
56.403
52.417
48.65
45.113
41.817
38.768
35.974
33.439
31.165
29.152
27.399
25.903
24.659
23.661
22.901
22.371
22.059
21.955
22.046
22.318
22.758
23.349
24.075
24.921
25.87
26.905
28.008
29.164
30.355
31.566
32.78
33.983
35.159
36.295
37.376
38.39
39.324
40.168
40.911
41.543
42.056
42.444
42.701
42.821
42.801
42.638
42.331
41.878
41.281
40.541
39.659
38.639
37.486
36.203
34.798
33.275
31.642
29.907
28.075
26.155
24.155
22.082
19.944
17.749
15.505
13.22
10.902
8.56
6.2
3.831
1.46
-0.905
-3.258
-5.593
-7.904
-10.185
-12.431
-14.638
-16.8
-18.915
-20.979
-22.988
-24.942
-26.836
-28.671
-30.445
-32.156
-33.805
-35.391
-36.912
-38.369
-39.761
-41.086
-42.343
-43.532
-44.652
-45.701
-46.679
-47.584
-48.416
-49.173
-49.856
-50.461
-50.99
-51.439
-51.807
-52.094
-52.297
-52.416
-52.448
-52.392
-52.247
-52.012
-51.685
-51.266
-50.752
-50.144
-49.441
-48.643
-47.751
-46.766
-45.691
-44.529
-43.284
-41.963
-40.571
-39.115
-37.605
-36.048
-34.454
-32.833
-31.195
-29.549
-27.906
-26.277
-24.674
-23.109
-21.593
-20.14
-18.761
-17.47
-16.28
-15.204
-14.249
-13.425
-12.738
-12.198
-11.814
-11.598
-11.56
-11.704
-12.034
-12.556
-13.266
-14.161
-15.226
-16.433
-17.756
-19.172
-20.659
-22.203
-23.781
-25.367
-26.932
-28.44
-29.86
-31.169
-32.339
-33.346
-34.178
-34.832
-35.337
-35.763
-36.174
-36.639
-37.208
-37.898
-38.751
-39.832
-41.211
-42.98
-45.194
-47.845
-50.971
-54.673
-58.961
-63.756
-68.784
-73.487
-77.426
-80.381
-82.053
-82.041
-80.092
-76.143
-70.595
-64.619
-59.123
-54.289
-50.702
-49.261
-50.17
-53.453
-57.037
-55.874
-47.913
-33.315
-13.328
7.41
31.591
66.164
115.005
184.872
271.645
365.476
463.351
553.648
629.256
685.24
702.871
675.364
600.837
478.601
329.953
174.672
31.684
-74.001
-136.265
-157.593
-147.4
-127.518
-110.089
-99.393
-95.005
-89.039
-79.281
-68.145
-58.086
-53.136
-54.099
-58.815
-65.621
-72.468
-77.544
-80.344
-80.656
-78.537
-74.65
-69.72
-64.328
-59.164
-54.893
-51.814
-50.05
-49.573
-50.149
-51.581
-53.711
-56.333
-59.253
-62.318
-65.391
-68.354
-71.116
-73.567
-75.612
-77.193
-78.267
-78.826
-78.877
-78.436
-77.537
-76.222
-74.535
-72.518
-70.21
-67.651
-64.889
-61.975
-58.964
-55.908
-52.846
-49.803
-46.798
-43.84
-40.929
-38.061
-35.225
-32.406
-29.593
-26.779
-23.959
-21.128
-18.279
-15.406
-12.5
-9.556
-6.569
-3.537
-0.459
2.663
5.828
9.031
12.264
15.522
18.797
22.083
25.375
28.667
31.951
35.219
38.464
41.677
44.849
47.969
51.027
54.012
56.911
59.713
62.407
64.98
67.421
69.715
71.852
73.819
75.604
77.195
78.58
79.751
80.696
81.409
81.88
82.104
82.075
81.789
81.243
80.434
79.363
78.028
76.433
74.58
72.475
70.122
67.528
64.702
61.653
58.392
54.929
51.276
47.448
43.457
39.319
35.049
30.664
26.182
21.618
16.993
12.323
7.627
2.924
-1.77
-6.436
-11.057
-15.617
-20.1
-24.49
-28.773
-32.935
-36.962
-40.844
-44.569
-48.127
-51.51
-54.71
-57.721
-60.536
-63.153
-65.567
-67.775
-69.778
-71.573
-73.161
-74.545
-75.726
-76.709
-77.497
-78.097
-78.514
-78.757
-78.833
-78.75
-78.517
-78.145
-77.641
-77.017
-76.282
-75.447
-74.521
-73.515
-72.439
-71.303
-70.115
-68.886
-67.624
-66.337
-65.033
-63.719
-62.401
-61.086
-59.781
-58.489
-57.218
-55.97
-54.751
-53.564
-52.412
-51.299
-50.225
-49.194
-48.206
-47.262
-46.363
-45.508
-44.697
-43.93
-43.206
-42.523
-41.881
-41.278
-40.712
-40.183
-39.689
-39.227
-38.799
-38.401
-38.035
-37.699
-37.393
-37.118
-36.874
-36.661
-36.481
-36.334
-36.22
-36.141
-36.097
-36.088
-36.115
-36.179
-36.279
-36.415
-36.588
-36.797
-37.042
-37.321
-37.634
-37.98
-38.358
-38.766
-39.203
-39.666
-40.154
-40.663
-41.191
-41.733
-42.286
-42.845
-43.404
-43.959
-44.503
-45.03
-45.533
-46.005
-46.439
-46.827
-47.162
-47.438
-47.647
-47.782
-47.839
-47.811
-47.693
-47.482
-47.174
-46.767
-46.26
-45.651
-44.939
-44.126
-43.212
-42.2
-41.092
-39.892
-38.603
-37.233
-35.79
-34.284
-32.724
-31.122
-29.489
-27.84
-26.188
-24.544
-22.921
-21.329
-19.781
-18.289
-16.87
-15.536
-14.299
-13.169
-12.158
-11.274
-10.528
-9.922
-9.455
-9.128
-8.944
-8.91
-9.041
-9.348
-9.833
-10.501
-11.35
-12.377
-13.577
-14.931
-16.411
-17.984
-19.621
-21.296
-22.993
-24.683
-26.323
-27.866
-29.253
-30.438
-31.39
-32.075
-32.472
-32.581
-32.409
-31.99
-31.372
-30.61
-29.771
-28.938
-28.195
-27.637
-27.363
-27.501
-28.24
-29.682
-31.789
-34.391
-37.137
-39.659
-41.705
-42.96
-42.937
-41.357
-38.324
-34.376
-30.6
-28.094
-27.477
-29.228
-34.042
-42.272
-53.424
-66.02
-77.389
-84.47
-84.975
-76.735
-56.967
-23.196
26.12
89.53
162.145
239.01
315.314
390.714
468.56
545.752
617.352
672.112
689.701
661.67
585.034
462.228
314.922
161.967
22.15
-80.711
-140.952
-160.612
-148.389
-125.164
-102.714
-85.494
-73.946
-61.511
-46.67
-31.993
-19.85
-13.865
-14.588
-19.835
-27.728
-35.946
-42.495
-46.681
-48.202
-47.118
-44.03
-39.582
-34.34
-28.984
-24.175
-20.235
-17.287
-15.308
-14.103
-13.514
-13.423
-13.681
-14.131
-14.671
-15.233
-15.768
-16.278
-16.752
-17.162
-17.495
-17.741
-17.879
-17.894
-17.76
-17.428
-16.873
-16.085
-15.055
-13.788
-12.297
-10.583
-8.651
-6.504
-4.123
-1.499
1.374
4.508
7.892
11.507
15.325
19.292
23.362
27.507
31.701
35.932
40.194
44.475
48.77
53.074
57.372
61.655
65.91
70.118
74.274
78.378
82.442
86.49
90.542
94.606
98.682
102.767
106.849
110.919
114.954
118.919
122.782
126.517
130.103
133.541
136.822
139.936
142.87
145.608
148.146
150.499
152.68
154.697
156.561
158.281
159.886
161.429
162.953
164.492
166.059
167.639
169.224
170.811
172.389
173.942
175.418
176.735
177.821
178.618
179.061
179.096
178.632
177.565
175.809
173.299
170
165.907
161.003
155.264
148.685
141.271
133.084
124.23
114.802
104.895
94.61
84.056
73.38
62.739
52.258
42.038
32.155
22.664
13.645
5.181
-2.654
-9.797
-16.233
-21.985
-27.068
-31.511
-35.358
-38.668
-41.54
-44.071
-46.323
-48.343
-50.157
-51.787
-53.274
-54.667
-56.007
-57.339
-58.688
-60.057
-61.459
-62.89
-64.334
-65.759
-67.111
-68.338
-69.419
-70.342
-71.11
-71.727
-72.188
-72.492
-72.641
-72.631
-72.461
-72.137
-71.655
-71.025
-70.265
-69.399
-68.462
-67.487
-66.495
-65.5
-64.514
-63.543
-62.593
-61.67
-60.772
-59.9
-59.058
-58.252
-57.488
-56.77
-56.096
-55.466
-54.876
-54.32
-53.795
-53.299
-52.829
-52.385
-51.966
-51.574
-51.213
-50.885
-50.591
-50.333
-50.111
-49.925
-49.777
-49.666
-49.594
-49.56
-49.566
-49.615
-49.707
-49.844
-50.028
-50.262
-50.545
-50.881
-51.268
-51.709
-52.204
-52.753
-53.357
-54.016
-54.729
-55.497
-56.317
-57.189
-58.111
-59.079
-60.091
-61.141
-62.227
-63.342
-64.48
-65.636
-66.804
-67.975
-69.143
-70.301
-71.441
-72.555
-73.635
-74.672
-75.658
-76.584
-77.443
-78.225
-78.922
-79.528
-80.034
-80.435
-80.723
-80.892
-80.938
-80.856
-80.641
-80.293
-79.808
-79.185
-78.428
-77.537
-76.518
-75.374
-74.113
-72.742
-71.269
-69.702
-68.05
-66.322
-64.527
-62.677
-60.784
-58.862
-56.924
-54.986
-53.061
-51.163
-49.305
-47.5
-45.757
-44.085
-42.493
-40.995
-39.61
-38.359
-37.257
-36.317
-35.547
-34.95
-34.525
-34.261
-34.139
-34.136
-34.233
-34.413
-34.666
-34.98
-35.336
-35.707
-36.051
-36.329
-36.511
-36.574
-36.5
-36.291
-35.976
-35.606
-35.264
-35.027
-34.946
-35.079
-35.495
-36.27
-37.493
-39.259
-41.632
-44.711
-48.637
-53.443
-59.037
-65.18
-71.43
-77.354
-82.65
-86.963
-89.843
-91.084
-90.798
-89.462
-88.008
-87.286
-87.652
-89.358
-92.833
-98.124
-104.614
-111.006
-115.139
-114.62
-107.789
-93.37
-69.472
-34.318
12.801
71.627
139.065
209.398
277.79
341.279
400.394
457.6
513
561.108
587.077
575.806
517.247
408.911
267.342
115.246
-24.391
-127.347
-187.114
-207.786
-199.751
-182.519
-166.501
-154.944
-147.423
-137.606
-124.297
-110.089
-97.369
-89.772
-87.986
-90.055
-94.355
-98.798
-101.513
-101.905
-99.746
-95.148
-88.794
-81.382
-73.498
-65.851
-59.12
-53.669
-49.681
-47.182
-46.022
-46.058
-47.158
-49.143
-51.819
-55.009
-58.544
-62.234
-65.89
-69.356
-72.504
-75.248
-77.543
-79.339
-80.588
-81.262
-81.332
-80.782
-79.625
-77.867
-75.524
-72.645
-69.298
-65.581
-61.624
-57.52
-53.331
-49.105
-44.865
-40.632
-36.431
-32.271
-28.155
-24.09
-20.08
-16.136
-12.271
-8.48
-4.75
-1.058
2.631
6.343
10.09
13.879
17.713
21.586
25.497
29.434
33.381
37.326
41.26
45.175
49.068
52.931
56.752
60.518
64.216
67.83
71.347
74.755
78.04
81.191
84.196
87.045
89.732
92.248
94.584
96.73
98.676
100.412
101.93
103.219
104.272
105.081
105.64
105.943
105.987
105.77
105.29
104.546
103.539
102.272
100.746
98.966
96.937
94.665
92.157
89.421
86.467
83.305
79.947
76.404
72.691
68.82
64.807
60.665
56.411
52.06
47.626
43.128
38.58
34
29.404
24.809
20.23
15.685
11.188
6.754
2.399
-1.865
-6.024
-10.067
-13.98
-17.754
-21.379
-24.845
-28.145
-31.272
-34.221
-36.986
-39.565
-41.954
-44.153
-46.159
-47.975
-49.601
-51.039
-52.293
-53.366
-54.264
-54.99
-55.553
-55.957
-56.211
-56.321
-56.295
-56.141
-55.868
-55.484
-54.998
-54.42
-53.759
-53.024
-52.225
-51.372
-50.474
-49.54
-48.579
-47.598
-46.606
-45.609
-44.615
-43.629
-42.657
-41.704
-40.774
-39.871
-38.998
-38.157
-37.349
-36.574
-35.832
-35.122
-34.443
-33.793
-33.17
-32.573
-31.999
-31.446
-30.911
-30.393
-29.886
-29.388
-28.893
-28.399
-27.9
-27.392
-26.871
-26.331
-25.771
-25.186
-24.574
-23.93
-23.253
-22.542
-21.794
-21.008
-20.183
-19.318
-18.413
-17.469
-16.488
-15.472
-14.424
-13.348
-12.25
-11.139
-10.02
-8.898
-7.78
-6.669
-5.569
-4.484
-3.418
-2.372
-1.35
-0.355
0.602
1.508
2.352
3.134
3.855
4.525
5.15
5.734
6.285
6.817
7.34
7.856
8.357
8.821
9.235
9.596
9.916
10.219
10.52
10.815
11.092
11.336
11.527
11.646
11.656
11.495
11.118
10.507
9.677
8.678
7.55
6.308
4.955
3.484
1.9
0.236
-1.471
-3.184
-4.852
-6.412
-7.766
-8.777
-9.333
-9.37
-8.876
-7.894
-6.463
-4.598
-2.318
0.352
3.371
6.675
10.197
13.878
17.638
21.368
24.921
28.12
30.805
32.873
34.269
34.984
35.019
34.368
33.042
31.078
28.523
25.439
21.885
17.907
13.567
8.959
4.193
-0.619
-5.389
-10.065
-14.624
-19.038
-23.275
-27.326
-31.216
-34.999
-38.732
-42.472
-46.229
-50.031
-53.991
-58.112
-62.279
-66.239
-69.509
-71.644
-72.39
-71.403
-68.245
-62.879
-55.529
-46.81
-38.057
-30.306
-24.113
-20.36
-19.76
-22.093
-26.629
-31.637
-34.104
-31.717
-22.563
-3.744
27.198
71.401
127.723
191.93
258.988
325.711
393.225
463.434
533.094
594.654
634.306
637.219
598.867
521.089
411.219
284.079
152.491
30.578
-63.917
-122.314
-143.67
-136.045
-117.62
-100.793
-90.563
-85.999
-80.172
-70.862
-59.937
-49.83
-44.155
-43.527
-46.158
-50.658
-55.261
-58.427
-59.727
-59.004
-56.372
-52.466
-47.9
-43.126
-38.705
-35.186
-32.831
-31.737
-31.854
-32.942
-34.796
-37.259
-40.135
-43.235
-46.403
-49.488
-52.368
-54.953
-57.168
-58.954
-60.277
-61.119
-61.476
-61.362
-60.806
-59.851
-58.539
-56.912
-55.009
-52.868
-50.537
-48.069
-45.516
-42.93
-40.347
-37.789
-35.27
-32.799
-30.378
-28.001
-25.655
-23.322
-20.988
-18.645
-16.284
-13.899
-11.481
-9.019
-6.502
-3.923
-1.274
1.45
4.251
7.134
10.096
13.137
16.251
19.433
22.678
25.983
29.342
32.75
36.202
39.691
43.209
46.749
50.3
53.851
57.39
60.905
64.381
67.804
71.161
74.437
77.616
80.685
83.628
86.431
89.079
91.559
93.856
95.957
97.85
99.522
100.965
102.167
103.121
103.82
104.259
104.433
104.34
103.977
103.345
102.445
101.278
99.848
98.16
96.221
94.037
91.618
88.975
86.119
83.063
79.82
76.403
72.828
69.111
65.267
61.312
57.263
53.137
48.95
44.721
40.466
36.201
31.943
27.706
23.506
19.356
15.269
11.257
7.331
3.503
-0.219
-3.825
-7.308
-10.66
-13.876
-16.95
-19.877
-22.655
-25.28
-27.751
-30.066
-32.225
-34.226
-36.071
-37.761
-39.295
-40.677
-41.908
-42.992
-43.931
-44.73
-45.392
-45.922
-46.324
-46.602
-46.761
-46.804
-46.737
-46.563
-46.288
-45.913
-45.445
-44.888
-44.244
-43.519
-42.717
-41.84
-40.894
-39.882
-38.808
-37.676
-36.491
-35.258
-33.982
-32.668
-31.322
-29.95
-28.558
-27.153
-25.74
-24.327
-22.919
-21.523
-20.144
-18.79
-17.466
-16.179
-14.935
-13.74
-12.6
-11.521
-10.509
-9.568
-8.704
-7.922
-7.225
-6.62
-6.109
-5.698
-5.389
-5.185
-5.09
-5.106
-5.233
-5.472
-5.823
-6.284
-6.854
-7.531
-8.311
-9.191
-10.166
-11.233
-12.385
-13.618
-14.926
-16.302
-17.739
-19.23
-20.767
-22.344
-23.953
-25.586
-27.235
-28.895
-30.556
-32.212
-33.855
-35.477
-37.07
-38.626
-40.138
-41.597
-42.998
-44.332
-45.593
-46.776
-47.876
-48.887
-49.805
-50.628
-51.352
-51.973
-52.492
-52.905
-53.214
-53.419
-53.52
-53.52
-53.423
-53.234
-52.957
-52.598
-52.163
-51.661
-51.097
-50.479
-49.815
-49.111
-48.375
-47.614
-46.838
-46.055
-45.275
-44.509
-43.768
-43.062
-42.402
-41.796
-41.25
-40.769
-40.36
-40.028
-39.784
-39.639
-39.6
-39.678
-39.88
-40.209
-40.665
-41.236
-41.9
-42.635
-43.415
-44.218
-45.03
-45.83
-46.598
-47.315
-47.95
-48.476
-48.874
-49.116
-49.182
-49.065
-48.769
-48.337
-47.846
-47.372
-46.99
-46.753
-46.708
-46.926
-47.485
-48.469
-49.969
-52.042
-54.757
-58.255
-62.587
-67.677
-73.305
-78.981
-84.148
-88.371
-91.166
-91.988
-90.626
-87.168
-82.118
-76.709
-72.234
-69.657
-69.952
-73.843
-81.27
-91.435
-102.605
-111.675
-115.238
-110.214
-93.492
-62.591
-16.365
44.96
119.542
203.406
291.394
377.874
456.526
521.277
567.219
590.763
589.905
564.838
517.608
451.81
372.668
286.14
198.025
113.775
38.284
-24.677
-72.661
-104.95
-122.594
-127.691
-122.833
-110.901
-94.994
-78.187
-63.198
-51.595
-43.751
-39.41
-37.939
-38.573
-40.439
-42.414
-43.32
-42.577
-40.22
-36.587
-32.219
-27.591
-23.076
-19.151
-16.349
-14.97
-15.099
-16.643
-19.35
-22.967
-27.279
-32.054
-37.053
-42.072
-46.924
-51.454
-55.57
-59.207
-62.316
-64.861
-66.802
-68.096
-68.711
-68.657
-67.971
-66.718
-64.984
-62.841
-60.357
-57.606
-54.666
-51.606
-48.478
-45.306
-42.094
-38.852
-35.591
-32.33
-29.089
-25.871
-22.666
-19.464
-16.245
-12.995
-9.705
-6.359
-2.943
0.554
4.137
7.799
11.526
15.307
19.136
23.005
26.911
30.844
34.794
38.752
42.709
46.655
50.58
54.473
58.319
62.109
65.829
69.47
73.022
76.474
79.814
83.031
86.113
89.047
91.823
94.427
96.848
99.074
101.094
102.897
104.475
105.819
106.922
107.776
108.375
108.714
108.79
108.6
108.141
107.412
106.412
105.144
103.607
101.804
99.74
97.419
94.847
92.032
88.982
85.708
82.22
78.532
74.656
70.606
66.398
62.047
57.569
52.981
48.301
43.547
38.736
33.886
29.016
24.144
19.286
14.46
9.682
4.969
0.336
-4.203
-8.632
-12.938
-17.108
-21.13
-24.991
-28.68
-32.188
-35.506
-38.626
-41.541
-44.246
-46.736
-49.01
-51.066
-52.902
-54.52
-55.922
-57.11
-58.089
-58.865
-59.444
-59.832
-60.039
-60.072
-59.941
-59.656
-59.227
-58.665
-57.979
-57.182
-56.283
-55.295
-54.23
-53.097
-51.911
-50.682
-49.422
-48.143
-46.856
-45.573
-44.303
-43.057
-41.844
-40.673
-39.553
-38.489
-37.49
-36.56
-35.704
-34.926
-34.229
-33.614
-33.082
-32.633
-32.268
-31.985
-31.783
-31.659
-31.613
-31.643
-31.744
-31.915
-32.151
-32.448
-32.802
-33.208
-33.66
-34.152
-34.679
-35.235
-35.812
-36.406
-37.011
-37.619
-38.225
-38.824
-39.409
-39.975
-40.518
-41.033
-41.517
-41.967
-42.38
-42.755
-43.091
-43.387
-43.642
-43.855
-44.024
-44.148
-44.224
-44.252
-44.228
-44.153
-44.024
-43.844
-43.611
-43.328
-42.998
-42.624
-42.209
-41.754
-41.259
-40.726
-40.154
-39.545
-38.896
-38.209
-37.481
-36.713
-35.91
-35.071
-34.2
-33.293
-32.344
-31.352
-30.318
-29.248
-28.148
-27.029
-25.899
-24.779
-23.698
-22.684
-21.764
-20.953
-20.25
-19.659
-19.184
-18.827
-18.593
-18.475
-18.444
-18.482
-18.574
-18.7
-18.844
-18.966
-19
-18.892
-18.602
-18.109
-17.427
-16.564
-15.523
-14.328
-13.014
-11.642
-10.307
-9.082
-8.011
-7.147
-6.536
-6.244
-6.373
-6.993
-8.137
-9.821
-12.028
-14.739
-17.946
-21.602
-25.622
-29.886
-34.238
-38.547
-42.733
-46.707
-50.388
-53.696
-56.533
-58.85
-60.642
-61.893
-62.604
-62.794
-62.486
-61.749
-60.698
-59.456
-58.199
-57.146
-56.401
-55.953
-55.682
-55.278
-54.435
-52.963
-50.596
-46.943
-41.853
-35.504
-28.448
-21.777
-16.56
-13.352
-12.573
-14.786
-20.172
-28.208
-37.552
-45.728
-49.868
-47.851
-38.015
-18.142
13.852
58.607
115.749
182.052
251.331
320.306
386.926
449.359
509.372
562.001
597.483
609.184
586.271
527.361
441.807
335.109
222.9
120.592
34.142
-24.494
-54.641
-66.511
-65.103
-59.907
-55.977
-48.672
-37.588
-24.055
-9.611
1.1
5.779
5.157
0.419
-6.918
-15.18
-22.844
-29.044
-33.258
-35.371
-35.953
-35.579
-34.628
-33.668
-33.292
-33.783
-35.294
-37.791
-40.997
-44.702
-48.748
-52.934
-57.075
-61
-64.537
-67.531
-69.867
-71.459
-72.246
-72.204
-71.333
-69.664
-67.251
-64.184
-60.567
-56.495
-52.062
-47.344
-42.404
-37.334
-32.244
-27.262
-22.532
-18.155
-14.194
-10.692
-7.67
-5.121
-3.02
-1.299
0.139
1.372
2.46
3.446
4.356
5.234
6.143
7.149
8.331
9.745
11.425
13.4
15.693
18.306
21.227
24.407
27.77
31.258
34.831
38.459
42.121
45.776
49.378
52.884
56.262
59.496
62.572
65.472
68.177
70.68
72.995
75.165
77.241
79.253
81.226
83.171
85.123
87.138
89.269
91.547
93.983
96.562
99.283
102.153
105.164
108.286
111.453
114.56
117.523
120.279
122.763
124.914
126.636
127.797
128.297
128.064
127.05
125.228
122.553
118.961
114.434
109.001
102.741
95.781
88.223
80.149
71.658
62.863
53.917
44.993
36.223
27.702
19.517
11.754
4.52
-2.052
-7.885
-12.955
-17.279
-20.913
-23.892
-26.25
-28.044
-29.36
-30.311
-31.008
-31.519
-31.885
-32.144
-32.349
-32.573
-32.902
-33.387
-34.044
-34.874
-35.863
-37.005
-38.289
-39.679
-41.118
-42.534
-43.873
-45.11
-46.237
-47.247
-48.124
-48.843
-49.381
-49.732
-49.897
-49.879
-49.682
-49.307
-48.761
-48.069
-47.263
-46.383
-45.454
-44.492
-43.506
-42.505
-41.499
-40.496
-39.502
-38.517
-37.541
-36.579
-35.638
-34.724
-33.843
-32.993
-32.173
-31.378
-30.609
-29.865
-29.148
-28.458
-27.796
-27.165
-26.57
-26.016
-25.507
-25.046
-24.633
-24.271
-23.959
-23.698
-23.488
-23.329
-23.22
-23.161
-23.151
-23.19
-23.28
-23.417
-23.603
-23.836
-24.114
-24.435
-24.798
-25.2
-25.638
-26.111
-26.616
-27.15
-27.712
-28.299
-28.908
-29.537
-30.181
-30.838
-31.504
-32.174
-32.844
-33.509
-34.165
-34.808
-35.433
-36.036
-36.613
-37.161
-37.677
-38.159
-38.603
-39.007
-39.367
-39.682
-39.95
-40.168
-40.33
-40.434
-40.475
-40.452
-40.364
-40.209
-39.986
-39.693
-39.332
-38.905
-38.415
-37.862
-37.242
-36.551
-35.792
-34.976
-34.119
-33.232
-32.328
-31.418
-30.52
-29.653
-28.832
-28.061
-27.33
-26.632
-25.966
-25.34
-24.774
-24.286
-23.883
-23.56
-23.308
-23.124
-23.003
-22.935
-22.895
-22.852
-22.798
-22.753
-22.76
-22.862
-23.083
-23.43
-23.893
-24.463
-25.129
-25.885
-26.724
-27.63
-28.601
-29.641
-30.777
-32.039
-33.421
-34.876
-36.33
-37.714
-38.98
-40.103
-41.069
-41.885
-42.595
-43.25
-43.915
-44.649
-45.463
-46.368
-47.376
-48.489
-49.751
-51.25
-53.048
-55.247
-58.011
-61.349
-65.159
-69.221
-73.027
-76.059
-77.951
-78.149
-76.055
-71.598
-65.01
-56.907
-48.669
-41.415
-35.868
-33.265
-34.667
-39.878
-47.993
-57.163
-64.123
-65.979
-60.196
-43.015
-10.741
36.831
97.302
167.69
242.389
320.913
408.222
501.052
594.104
675.966
723.053
723.234
670.795
564.892
425.557
272.9
128.759
19.955
-45.919
-70.624
-64.923
-51.78
-42.88
-41.775
-47.081
-49.577
-46.742
-41.22
-35.569
-34.181
-38.275
-45.839
-55.184
-64.42
-71.697
-76.406
-78.407
-77.663
-74.739
-70.356
-65.105
-59.721
-54.96
-51.217
-48.664
-47.356
-47.131
-47.845
-49.41
-51.653
-54.399
-57.504
-60.834
-64.291
-67.789
-71.211
-74.426
-77.302
-79.743
-81.697
-83.143
-84.071
-84.482
-84.386
-83.805
-82.783
-81.355
-79.563
-77.446
-75.04
-72.392
-69.555
-66.578
-63.512
-60.394
-57.241
-54.063
-50.864
-47.641
-44.389
-41.099
-37.758
-34.357
-30.888
-27.349
-23.737
-20.049
-16.278
-12.421
-8.474
-4.435
-0.308
3.905
8.198
12.564
16.994
21.477
26.001
30.555
35.129
39.711
44.289
48.853
53.389
57.883
62.322
66.691
70.975
75.158
79.224
83.157
86.94
90.558
93.995
97.238
100.269
103.077
105.648
107.968
110.027
111.813
113.316
114.529
115.445
116.056
116.359
116.351
116.03
115.396
114.45
113.194
111.633
109.772
107.617
105.178
102.463
99.484
96.252
92.782
89.086
85.182
81.086
76.814
72.384
67.816
63.127
58.338
53.467
48.535
43.56
38.562
33.561
28.574
23.62
18.718
13.882
9.131
4.478
-0.062
-4.474
-8.747
-12.868
-16.826
-20.613
-24.219
-27.637
-30.86
-33.883
-36.702
-39.313
-41.715
-43.907
-45.888
-47.661
-49.226
-50.587
-51.749
-52.716
-53.494
-54.089
-54.509
-54.761
-54.854
-54.798
-54.6
-54.27
-53.818
-53.254
-52.587
-51.828
-50.986
-50.072
-49.095
-48.066
-46.995
-45.892
-44.766
-43.626
-42.482
-41.343
-40.216
-39.111
-38.034
-36.994
-35.996
-35.047
-34.154
-33.321
-32.554
-31.855
-31.23
-30.681
-30.209
-29.818
-29.508
-29.281
-29.136
-29.073
-29.094
-29.196
-29.38
-29.643
-29.984
-30.402
-30.894
-31.457
-32.089
-32.786
-33.545
-34.362
-35.234
-36.156
-37.125
-38.137
-39.186
-40.268
-41.379
-42.514
-43.667
-44.835
-46.012
-47.193
-48.374
-49.551
-50.718
-51.873
-53.01
-54.126
-55.217
-56.279
-57.308
-58.301
-59.253
-60.161
-61.021
-61.829
-62.581
-63.275
-63.908
-64.476
-64.976
-65.406
-65.762
-66.042
-66.243
-66.364
-66.401
-66.354
-66.221
-66.002
-65.696
-65.304
-64.825
-64.262
-63.615
-62.886
-62.078
-61.193
-60.234
-59.205
-58.11
-56.954
-55.743
-54.481
-53.177
-51.839
-50.475
-49.095
-47.71
-46.33
-44.966
-43.629
-42.332
-41.083
-39.895
-38.777
-37.739
-36.792
-35.949
-35.219
-34.614
-34.143
-33.815
-33.636
-33.612
-33.743
-34.029
-34.469
-35.065
-35.827
-36.759
-37.866
-39.151
-40.613
-42.249
-44.048
-45.991
-48.047
-50.185
-52.375
-54.592
-56.816
-59.024
-61.19
-63.275
-65.231
-67.018
-68.595
-69.925
-70.971
-71.712
-72.158
-72.347
-72.348
-72.221
-72.004
-71.737
-71.481
-71.305
-71.285
-71.524
-72.089
-73.08
-74.683
-76.948
-79.815
-83.1
-86.363
-89.142
-91.108
-91.773
-90.549
-87.346
-82.382
-76.267
-70.321
-65.592
-62.736
-62.796
-66.646
-74.027
-83.886
-94.231
-101.866
-103.952
-97.835
-79.959
-47.166
0.559
60.412
128.78
202.167
281.955
371.933
469.427
563.706
635.695
665.564
644.344
577.93
484.995
385.025
291.069
207.91
132.03
61.89
0.184
-49.71
-83.436
-99.742
-101.543
-92.782
-77.526
-60.025
-43.897
-31.426
-23.984
-21.929
-24.445
-30.261
-38.108
-46.279
-53.016
-57.409
-59.05
-57.993
-54.852
-50.273
-44.857
-39.372
-34.55
-30.77
-28.202
-26.841
-26.495
-27.028
-28.317
-30.179
-32.435
-34.943
-37.595
-40.306
-42.999
-45.562
-47.866
-49.817
-51.351
-52.436
-53.06
-53.216
-52.913
-52.173
-51.036
-49.542
-47.726
-45.621
-43.26
-40.682
-37.934
-35.066
-32.126
-29.148
-26.157
-23.163
-20.172
-17.183
-14.188
-11.177
-8.131
-5.038
-1.888
1.324
4.605
7.96
11.399
14.926
18.548
22.267
26.084
29.998
34.005
38.101
42.276
46.523
50.829
55.185
59.581
64.005
68.448
72.898
77.342
81.766
86.159
90.504
94.786
98.987
103.091
107.08
110.935
114.637
118.168
121.51
124.643
127.552
130.218
132.625
134.758
136.603
138.148
139.382
140.294
140.877
141.124
141.032
140.596
139.817
138.694
137.232
135.434
133.307
130.858
128.098
125.038
121.689
118.067
114.187
110.066
105.724
101.179
96.454
91.57
86.55
81.419
76.2
70.917
65.595
60.259
54.931
49.636
44.395
39.23
34.162
29.21
24.393
19.726
15.226
10.905
6.776
2.848
-0.869
-4.37
-7.648
-10.701
-13.526
-16.122
-18.492
-20.637
-22.561
-24.27
-25.771
-27.072
-28.182
-29.113
-29.874
-30.48
-30.943
-31.276
-31.495
-31.612
-31.643
-31.602
-31.502
-31.358
-31.183
-30.99
-30.791
-30.596
-30.418
-30.264
-30.144
-30.065
-30.033
-30.055
-30.133
-30.273
-30.477
-30.746
-31.082
-31.483
-31.949
-32.478
-33.068
-33.714
-34.413
-35.158
-35.946
-36.769
-37.621
-38.495
-39.385
-40.283
-41.181
-42.073
-42.952
-43.811
-44.643
-45.443
-46.206
-46.926
-47.6
-48.224
-48.796
-49.312
-49.772
-50.174
-50.518
-50.803
-51.032
-51.205
-51.323
-51.389
-51.406
-51.377
-51.305
-51.193
-51.047
-50.87
-50.668
-50.444
-50.205
-49.955
-49.7
-49.444
-49.193
-48.953
-48.726
-48.519
-48.334
-48.174
-48.042
-47.941
-47.87
-47.832
-47.825
-47.851
-47.908
-47.994
-48.109
-48.249
-48.412
-48.594
-48.793
-49.003
-49.222
-49.445
-49.667
-49.884
-50.092
-50.286
-50.461
-50.614
-50.739
-50.833
-50.89
-50.906
-50.878
-50.802
-50.675
-50.495
-50.262
-49.975
-49.634
-49.243
-48.804
-48.321
-47.798
-47.242
-46.657
-46.052
-45.432
-44.804
-44.175
-43.553
-42.946
-42.365
-41.816
-41.31
-40.854
-40.459
-40.134
-39.89
-39.735
-39.675
-39.713
-39.854
-40.106
-40.481
-40.985
-41.622
-42.393
-43.296
-44.33
-45.488
-46.754
-48.099
-49.483
-50.871
-52.232
-53.54
-54.772
-55.897
-56.881
-57.684
-58.279
-58.646
-58.772
-58.646
-58.259
-57.618
-56.76
-55.767
-54.744
-53.791
-52.998
-52.43
-52.139
-52.194
-52.678
-53.659
-55.204
-57.358
-60.115
-63.52
-67.646
-72.414
-77.616
-82.859
-87.534
-91.103
-93.137
-93.105
-90.572
-85.476
-78.008
-68.881
-59.239
-50.012
-42.136
-36.586
-33.717
-33.154
-33.797
-33.536
-29.96
-20.57
-2.138
28.144
72.099
129.141
195.307
267.609
344.023
423.425
506.299
584.848
645.462
677.071
669.363
623.701
551.265
457.082
346.291
224.058
95.309
-21.755
-106.808
-150.296
-153.633
-133.337
-109.319
-92.487
-84.522
-79.74
-73.482
-65.645
-58.814
-56.811
-60.411
-67.663
-76.413
-84.117
-89.026
-90.695
-88.903
-83.845
-76.301
-67.093
-57.048
-47.048
-37.798
-29.677
-22.895
-17.51
-13.44
-10.643
-9.062
-8.599
-9.146
-10.606
-12.89
-15.887
-19.477
-23.504
-27.769
-32.098
-36.337
-40.341
-44
-47.232
-49.951
-52.081
-53.575
-54.394
-54.522
-53.968
-52.748
-50.9
-48.481
-45.558
-42.221
-38.555
-34.64
-30.559
-26.372
-22.122
-17.847
-13.58
-9.341
-5.147
-1.009
3.076
7.11
11.094
15.038
18.951
22.852
26.76
30.699
34.689
38.746
42.875
47.078
51.353
55.691
60.083
64.516
68.972
73.432
77.883
82.308
86.692
91.018
95.264
99.411
103.436
107.319
111.039
114.577
117.916
121.037
123.925
126.566
128.945
131.052
132.871
134.392
135.602
136.491
137.051
137.273
137.152
136.683
135.865
134.698
133.182
131.323
129.125
126.594
123.739
120.57
117.098
113.336
109.299
105.002
100.464
95.703
90.739
85.593
80.287
74.844
69.286
63.637
57.92
52.158
46.375
40.594
34.839
29.131
23.494
17.947
12.511
7.207
2.051
-2.939
-7.747
-12.359
-16.762
-20.945
-24.897
-28.61
-32.076
-35.29
-38.247
-40.944
-43.382
-45.56
-47.481
-49.148
-50.567
-51.743
-52.683
-53.397
-53.893
-54.18
-54.269
-54.171
-53.898
-53.46
-52.871
-52.143
-51.29
-50.323
-49.257
-48.103
-46.875
-45.585
-44.245
-42.865
-41.457
-40.032
-38.6
-37.17
-35.752
-34.353
-32.982
-31.644
-30.347
-29.094
-27.89
-26.737
-25.637
-24.593
-23.606
-22.676
-21.803
-20.988
-20.231
-19.533
-18.892
-18.309
-17.781
-17.306
-16.882
-16.507
-16.176
-15.884
-15.627
-15.403
-15.211
-15.048
-14.915
-14.811
-14.737
-14.694
-14.683
-14.704
-14.756
-14.834
-14.937
-15.064
-15.217
-15.401
-15.619
-15.867
-16.143
-16.445
-16.765
-17.096
-17.419
-17.708
-17.945
-18.122
-18.233
-18.288
-18.292
-18.246
-18.158
-18.032
-17.876
-17.704
-17.523
-17.333
-17.145
-16.979
-16.868
-16.871
-17.027
-17.351
-17.852
-18.521
-19.343
-20.308
-21.393
-22.552
-23.747
-24.937
-26.089
-27.194
-28.22
-29.117
-29.822
-30.242
-30.296
-29.938
-29.124
-27.817
-26
-23.653
-20.776
-17.423
-13.638
-9.456
-4.918
-0.038
5.145
10.558
16.117
21.716
27.24
32.594
37.677
42.36
46.545
50.143
53.079
55.341
56.907
57.746
57.836
57.146
55.668
53.43
50.472
46.845
42.628
37.913
32.818
27.501
22.094
16.718
11.482
6.458
1.73
-2.61
-6.481
-9.811
-12.549
-14.66
-16.127
-16.965
-17.217
-16.962
-16.319
-15.402
-14.324
-13.222
-12.221
-11.449
-11.057
-11.136
-11.821
-13.306
-15.627
-18.714
-22.372
-26.12
-29.527
-32.354
-34.174
-34.491
-33.251
-30.594
-27.088
-24.048
-22.398
-22.514
-25.036
-30.447
-38.386
-48.069
-57.737
-64.175
-64.777
-57.789
-40.787
-11.459
31.35
88.139
156.246
229.323
302.068
371.109
436.272
499.681
559.658
609.126
634.87
623.004
566.958
467.368
335.631
190.627
51.133
-62.736
-137.256
-170.373
-169.06
-149.321
-126.797
-109.72
-98.915
-89.376
-77.939
-65.293
-54.167
-48.497
-49.332
-54.864
-63.056
-71.442
-78.055
-82.283
-83.825
-82.668
-79.427
-74.829
-69.524
-64.29
-59.82
-56.407
-54.181
-53.129
-53.034
-53.724
-55.059
-56.845
-58.907
-61.128
-63.396
-65.617
-67.72
-69.596
-71.153
-72.335
-73.1
-73.441
-73.361
-72.874
-72.004
-70.788
-69.263
-67.462
-65.414
-63.146
-60.695
-58.103
-55.418
-52.689
-49.951
-47.226
-44.532
-41.874
-39.25
-36.653
-34.069
-31.478
-28.867
-26.224
-23.542
-20.815
-18.035
-15.192
-12.278
-9.286
-6.21
-3.047
0.206
3.547
6.975
10.486
14.072
17.726
21.439
25.206
29.018
32.867
36.747
40.646
44.557
48.469
52.372
56.254
60.102
63.904
67.647
71.317
74.9
78.382
81.749
84.988
88.083
91.023
93.794
96.383
98.779
100.971
102.949
104.704
106.227
107.51
108.548
109.335
109.867
110.141
110.154
109.907
109.4
108.633
107.61
106.334
104.808
103.039
101.032
98.795
96.335
93.662
90.785
87.715
84.463
81.042
77.464
73.742
69.889
65.918
61.845
57.681
53.442
49.141
44.791
40.406
36
31.585
27.174
22.779
18.413
14.085
9.808
5.592
1.445
-2.622
-6.602
-10.487
-14.268
-17.94
-21.496
-24.931
-28.239
-31.416
-34.459
-37.364
-40.129
-42.753
-45.235
-47.574
-49.77
-51.824
-53.737
-55.51
-57.146
-58.645
-60.012
-61.249
-62.358
-63.345
-64.213
-64.967
-65.611
-66.151
-66.591
-66.936
-67.192
-67.364
-67.457
-67.478
-67.43
-67.321
-67.156
-66.94
-66.679
-66.378
-66.043
-65.678
-65.288
-64.878
-64.452
-64.015
-63.571
-63.124
-62.677
-62.237
-61.805
-61.388
-60.987
-60.608
-60.254
-59.929
-59.634
-59.374
-59.149
-58.963
-58.816
-58.712
-58.65
-58.633
-58.661
-58.735
-58.856
-59.024
-59.239
-59.502
-59.812
-60.169
-60.574
-61.025
-61.522
-62.066
-62.656
-63.29
-63.969
-64.692
-65.455
-66.257
-67.095
-67.965
-68.863
-69.785
-70.724
-71.677
-72.638
-73.602
-74.564
-75.521
-76.467
-77.399
-78.314
-79.21
-80.083
-80.927
-81.738
-82.508
-83.233
-83.907
-84.522
-85.07
-85.545
-85.94
-86.255
-86.484
-86.625
-86.67
-86.61
-86.44
-86.161
-85.776
-85.291
-84.712
-84.051
-83.327
-82.57
-81.811
-81.068
-80.352
-79.661
-78.999
-78.365
-77.764
-77.198
-76.657
-76.125
-75.593
-75.057
-74.512
-73.941
-73.308
-72.555
-71.633
-70.514
-69.196
-67.695
-66.031
-64.229
-62.324
-60.364
-58.423
-56.564
-54.833
-53.251
-51.831
-50.597
-49.604
-48.928
-48.638
-48.767
-49.322
-50.288
-51.643
-53.346
-55.34
-57.538
-59.822
-62.103
-64.319
-66.456
-68.544
-70.6
-72.619
-74.569
-76.401
-78.097
-79.673
-81.155
-82.583
-84.024
-85.527
-87.201
-89.254
-91.749
-94.619
-97.637
-100.276
-102.028
-102.572
-101.48
-98.276
-92.923
-85.64
-77.066
-68.648
-61.605
-56.678
-54.865
-56.924
-62.581
-71.033
-80.473
-87.459
-89.048
-83.049
-66.354
-36.229
8.479
68.163
139.799
216.56
293.011
365.336
432.387
495.264
552.263
597.516
618.712
603.871
544.973
438.951
299.517
146.562
3.44
-102.428
-162.694
-178.781
-160.149
-128.203
-91.805
-57.578
-32.505
-14.644
-9.612
-18.584
-33.641
-51.185
-63.805
-67.948
-68.754
-68.2
-68.184
-69.728
-69.964
-68.018
-64.667
-60.408
-56.429
-53.573
-51.755
-50.92
-51.105
-52.09
-53.695
-55.832
-58.341
-61.105
-64.065
-67.081
-70.015
-72.774
-75.248
-77.381
-79.084
-80.18
-80.691
-80.802
-80.683
-80.589
-80.54
-80.203
-79.484
-78.533
-77.178
-75.099
-71.917
-66.985
-60.367
-52.936
-45.16
-37.181
-29.411
-22.235
-16.249
-12.504
-11.05
-10.886
-11.411
-12.259
-13.012
-13.52
-13.325
-11.509
-7.971
-3.403
1.748
7.103
12.422
17.793
23.063
27.792
31.913
35.669
39.233
42.794
46.404
49.92
53.313
56.655
59.962
63.219
66.408
69.48
72.427
75.295
78.115
80.9
83.655
86.379
89.083
91.807
94.597
97.479
100.459
103.531
106.661
109.809
112.927
115.943
118.795
121.433
123.806
125.885
127.647
129.062
130.096
130.698
130.803
130.369
129.371
127.789
125.629
122.912
119.67
115.984
111.928
107.561
102.936
98.08
93.015
87.767
82.358
76.81
71.158
65.431
59.66
53.895
48.179
42.554
37.058
31.688
26.433
21.295
16.28
11.409
6.712
2.22
-2.027
-5.974
-9.567
-12.762
-15.534
-17.892
-19.859
-21.474
-22.791
-23.838
-24.637
-25.21
-25.577
-25.759
-25.783
-25.678
-25.48
-25.245
-25.039
-24.914
-24.913
-25.051
-25.324
-25.709
-26.17
-26.676
-27.203
-27.734
-28.259
-28.773
-29.274
-29.761
-30.234
-30.681
-31.08
-31.414
-31.665
-31.829
-31.91
-31.921
-31.882
-31.812
-31.728
-31.643
-31.563
-31.49
-31.422
-31.353
-31.274
-31.181
-31.071
-30.944
-30.801
-30.645
-30.472
-30.28
-30.068
-29.832
-29.57
-29.279
-28.96
-28.614
-28.245
-27.858
-27.46
-27.057
-26.655
-26.261
-25.878
-25.513
-25.167
-24.846
-24.553
-24.29
-24.06
-23.867
-23.714
-23.605
-23.543
-23.529
-23.567
-23.658
-23.803
-24.003
-24.257
-24.564
-24.921
-25.326
-25.776
-26.267
-26.793
-27.35
-27.932
-28.532
-29.142
-29.755
-30.364
-30.958
-31.53
-32.072
-32.574
-33.028
-33.429
-33.767
-34.037
-34.233
-34.35
-34.381
-34.324
-34.173
-33.926
-33.581
-33.135
-32.589
-31.942
-31.197
-30.356
-29.425
-28.409
-27.315
-26.151
-24.925
-23.65
-22.335
-20.992
-19.632
-18.267
-16.909
-15.572
-14.268
-13.011
-11.815
-10.693
-9.661
-8.734
-7.926
-7.247
-6.706
-6.307
-6.057
-5.964
-6.039
-6.292
-6.726
-7.345
-8.154
-9.157
-10.35
-11.72
-13.231
-14.849
-16.54
-18.273
-20.027
-21.78
-23.499
-25.152
-26.698
-28.102
-29.346
-30.403
-31.241
-31.839
-32.184
-32.309
-32.31
-32.28
-32.303
-32.453
-32.751
-33.254
-34.046
-35.196
-36.807
-38.961
-41.671
-45.031
-49.177
-54.083
-59.623
-65.449
-70.872
-75.289
-78.205
-78.992
-77.276
-73.118
-66.779
-59.173
-51.745
-45.667
-42.158
-42.401
-46.528
-53.634
-62.244
-69.721
-72.722
-68.016
-51.679
-19.914
27.576
87.88
157.896
234.673
319.421
415.808
520.237
620.218
696.629
731.268
716.22
658.104
571.338
465.625
349.437
228.407
109.472
11.446
-52.299
-78.335
-72.724
-55.276
-40.712
-34.244
-34.917
-35.341
-32.651
-28.655
-25.748
-27.142
-33.117
-41.651
-51.133
-59.729
-65.964
-69.445
-70.042
-67.957
-63.906
-58.607
-52.682
-46.835
-41.691
-37.567
-34.619
-32.846
-32.081
-32.191
-33.066
-34.544
-36.476
-38.732
-41.197
-43.781
-46.397
-48.93
-51.254
-53.25
-54.83
-55.949
-56.581
-56.72
-56.374
-55.559
-54.307
-52.663
-50.667
-48.36
-45.786
-42.984
-40
-36.887
-33.694
-30.468
-27.246
-24.043
-20.871
-17.731
-14.619
-11.527
-8.444
-5.353
-2.242
0.9
4.08
7.304
10.579
13.913
17.314
20.789
24.341
27.972
31.681
35.466
39.323
43.248
47.236
51.278
55.367
59.496
63.658
67.847
72.054
76.268
80.476
84.666
88.824
92.939
96.994
100.973
104.86
108.639
112.293
115.809
119.171
122.358
125.349
128.124
130.667
132.975
135.038
136.847
138.393
139.671
140.678
141.419
141.89
142.074
141.961
141.533
140.789
139.739
138.392
136.758
134.841
132.63
130.125
127.34
124.276
120.935
117.314
113.398
109.205
104.786
100.186
95.453
90.619
85.7
80.717
75.699
70.679
65.699
60.789
55.966
51.263
46.726
42.404
38.357
34.604
31.119
27.885
24.886
22.117
19.592
17.31
15.259
13.432
11.824
10.432
9.267
8.317
7.551
6.939
6.44
6.045
5.776
5.646
5.663
5.827
6.127
6.561
7.138
7.852
8.688
9.631
10.657
11.759
12.94
14.201
15.545
16.964
18.432
19.932
21.45
22.971
24.485
25.977
27.429
28.831
30.182
31.48
32.725
33.913
35.036
36.089
37.067
37.97
38.797
39.549
40.223
40.821
41.344
41.794
42.175
42.487
42.729
42.901
43.002
43.032
42.993
42.885
42.706
42.458
42.141
41.757
41.308
40.795
40.218
39.579
38.881
38.124
37.31
36.442
35.52
34.546
33.522
32.451
31.334
30.173
28.971
27.73
26.452
25.142
23.802
22.435
21.047
19.641
18.222
16.796
15.368
13.944
12.531
11.135
9.763
8.424
7.122
5.867
4.663
3.519
2.439
1.431
0.499
-0.352
-1.117
-1.791
-2.37
-2.851
-3.231
-3.507
-3.677
-3.74
-3.695
-3.543
-3.285
-2.922
-2.459
-1.901
-1.253
-0.523
0.281
1.15
2.073
3.04
4.038
5.057
6.086
7.111
8.12
9.1
10.037
10.917
11.725
12.446
13.067
13.575
13.96
14.215
14.333
14.306
14.128
13.784
13.264
12.559
11.66
10.564
9.27
7.784
6.123
4.318
2.401
0.403
-1.648
-3.732
-5.825
-7.902
-9.935
-11.883
-13.708
-15.379
-16.862
-18.13
-19.17
-19.987
-20.625
-21.165
-21.693
-22.286
-23.002
-23.883
-24.996
-26.418
-28.229
-30.52
-33.353
-36.808
-41.011
-46.005
-51.695
-57.834
-63.953
-69.513
-74.075
-77.188
-78.337
-77.276
-74.139
-69.449
-64.208
-59.519
-56.149
-54.705
-55.839
-59.663
-65.378
-71.434
-75.439
-74.535
-66.244
-48.486
-19.117
23.546
79.829
148.62
227.588
311.624
393.753
469.741
535.68
589.139
632.488
661.308
667.74
647.9
594.714
510.135
404.145
282.855
158.18
42.622
-52.634
-114.03
-137.668
-129.815
-104.336
-77.804
-59.426
-50.657
-47.388
-45.184
-43.243
-43.082
-46.907
-54.84
-65.089
-75.322
-83.283
-88.086
-89.713
-88.313
-84.405
-78.67
-71.802
-64.674
-58.07
-52.334
-47.595
-43.858
-41.015
-39.016
-37.814
-37.297
-37.348
-37.9
-38.929
-40.428
-42.375
-44.702
-47.299
-50.051
-52.872
-55.711
-58.529
-61.281
-63.916
-66.366
-68.568
-70.476
-72.053
-73.259
-74.047
-74.38
-74.245
-73.652
-72.631
-71.215
-69.429
-67.287
-64.804
-62.003
-58.913
-55.576
-52.039
-48.339
-44.505
-40.574
-36.581
-32.557
-28.523
-24.49
-20.455
-16.418
-12.381
-8.348
-4.323
-0.304
3.715
7.739
11.78
15.842
19.923
24.023
28.137
32.26
36.383
40.49
44.56
48.577
52.522
56.379
60.131
63.76
67.244
70.566
73.705
76.643
79.364
81.852
84.093
86.073
87.781
89.207
90.343
91.181
91.714
91.935
91.837
91.415
90.666
89.589
88.182
86.446
84.384
81.999
79.3
76.292
72.985
69.389
65.514
61.375
56.985
52.359
47.515
42.469
37.241
31.849
26.314
20.656
14.896
9.055
3.155
-2.785
-8.741
-14.693
-20.619
-26.497
-32.307
-38.027
-43.638
-49.119
-54.452
-59.619
-64.603
-69.388
-73.96
-78.307
-82.418
-86.282
-89.892
-93.241
-96.324
-99.137
-101.679
-103.948
-105.946
-107.676
-109.14
-110.345
-111.297
-112.005
-112.477
-112.724
-112.758
-112.592
-112.24
-111.717
-111.039
-110.223
-109.288
-108.254
-107.139
-105.964
-104.749
-103.517
-102.288
-101.084
-99.925
-98.833
-97.828
-96.927
-96.149
-95.51
-95.023
-94.701
-94.555
-94.597
-94.837
-95.283
-95.944
-96.825
-97.931
-99.262
-100.819
-102.595
-104.579
-106.762
-109.131
-111.678
-114.397
-117.28
-120.313
-123.48
-126.764
-130.142
-133.583
-137.05
-140.496
-143.88
-147.165
-150.324
-153.335
-156.171
-158.798
-161.172
-163.24
-164.954
-166.267
-167.134
-167.515
-167.385
-166.748
-165.628
-164.074
-162.11
-159.726
-156.928
-153.712
-150.076
-146.079
-141.783
-137.243
-132.619
-128.088
-123.658
-119.32
-114.971
-110.236
-104.838
-98.559
