Name
Date of Birth,"Mar 27, 1959"
Recorded Date,2022-07-21 11:10:14 -0500
Classification,Sinus Rhythm
Symptoms,
Software Version,1.90
Device,"Watch4,2"
Sample Rate,510.227 hertz


Lead,Lead I
Unit,µV

47.837
49.819
51.793
53.724
55.577
57.316
58.91
60.326
61.539
62.522
63.253
63.709
63.873
63.729
63.263
62.465
61.324
59.83
57.975
55.756
53.172
50.226
46.92
43.261
39.261
34.94
30.315
25.407
20.233
14.815
9.175
3.341
-2.661
-8.807
-15.069
-21.422
-27.831
-34.257
-40.668
-47.04
-53.354
-59.6
-65.765
-71.821
-77.745
-83.515
-89.104
-94.48
-99.598
-104.387
-108.794
-112.772
-116.283
-119.301
-121.781
-123.663
-124.903
-125.459
-125.303
-124.432
-122.843
-120.538
-117.565
-113.994
-109.898
-105.407
-100.639
-95.702
-90.76
-85.955
-81.413
-77.321
-73.854
-71.094
-69.054
-67.586
-66.342
-64.986
-63.198
-60.564
-56.676
-51.269
-44.3
-36.213
-27.908
-20.291
-14.095
-9.923
-8.269
-9.353
-12.931
-17.762
-21.581
-21.844
-16.156
-2.32
21.787
58.162
108.571
172.59
246.561
325.704
404.769
480.966
557.555
637.59
719.672
796.912
850.228
858.015
808.258
698.25
542.675
367.742
197.677
53.472
-54.16
-124.594
-163.127
-177.668
-172.844
-154.355
-125.878
-92.584
-68.489
-62.425
-79.08
-118.209
-164.476
-203.804
-228.108
-231.972
-222.844
-211.161
-202.09
-200.473
-204.793
-209.613
-213.144
-214.082
-212.674
-211.474
-211.345
-212.241
-214.227
-216.796
-219.694
-223.049
-226.811
-230.83
-235.01
-239.235
-243.313
-247.033
-250.221
-252.727
-254.472
-255.456
-255.67
-255.097
-253.771
-251.755
-249.117
-245.935
-242.268
-238.151
-233.65
-228.844
-223.827
-218.708
-213.567
-208.452
-203.406
-198.455
-193.616
-188.899
-184.298
-179.781
-175.329
-170.927
-166.562
-162.227
-157.907
-153.577
-149.211
-144.786
-140.276
-135.664
-130.927
-126.045
-120.998
-115.774
-110.361
-104.751
-98.933
-92.895
-86.626
-80.115
-73.352
-66.331
-59.045
-51.489
-43.661
-35.562
-27.198
-18.575
-9.702
-0.591
8.745
18.289
28.024
37.93
47.985
58.167
68.449
78.806
89.208
99.626
110.03
120.387
130.666
140.834
150.857
160.704
170.343
179.742
188.87
197.697
206.194
214.334
222.089
229.436
236.352
242.814
248.804
254.306
259.306
263.791
267.753
271.183
274.077
276.432
278.246
279.519
280.256
280.46
280.137
279.297
277.949
276.105
273.778
270.985
267.74
264.062
259.969
255.48
250.616
245.397
239.844
233.98
227.826
221.405
214.738
207.847
200.753
193.478
186.042
178.464
170.764
162.96
155.069
147.108
139.094
131.043
122.968
114.886
106.81
98.752
90.727
82.744
74.816
66.952
59.162
51.455
43.839
36.32
28.907
21.603
14.414
7.345
0.4
-6.42
-13.112
-19.673
-26.102
-32.399
-38.562
-44.592
-50.487
-56.247
-61.872
-67.362
-72.718
-77.939
-83.026
-87.979
-92.802
-97.494
-102.057
-106.495
-110.809
-115.002
-119.077
-123.038
-126.887
-130.627
-134.264
-137.799
-141.237
-144.58
-147.833
-150.997
-154.076
-157.072
-159.987
-162.821
-165.578
-168.258
-170.861
-173.39
-175.845
-178.226
-180.536
-182.775
-184.944
-187.045
-189.077
-191.042
-192.94
-194.772
-196.539
-198.24
-199.876
-201.446
-202.952
-204.392
-205.766
-207.075
-208.318
-209.495
-210.606
-211.65
-212.629
-213.542
-214.392
-215.181
-215.91
-216.582
-217.202
-217.774
-218.301
-218.788
-219.239
-219.66
-220.055
-220.428
-220.784
-221.128
-221.464
-221.796
-222.13
-222.468
-222.815
-223.173
-223.545
-223.935
-224.344
-224.774
-225.226
-225.703
-226.204
-226.731
-227.284
-227.864
-228.469
-229.099
-229.749
-230.419
-231.103
-231.796
-232.492
-233.183
-233.862
-234.521
-235.153
-235.75
-236.301
-236.8
-237.238
-237.607
-237.899
-238.107
-238.222
-238.24
-238.153
-237.958
-237.651
-237.229
-236.689
-236.032
-235.258
-234.367
-233.361
-232.243
-231.015
-229.679
-228.243
-226.713
-225.096
-223.402
-221.641
-219.828
-217.981
-216.119
-214.26
-212.422
-210.625
-208.888
-207.232
-205.672
-204.22
-202.89
-201.698
-200.657
-199.783
-199.087
-198.576
-198.259
-198.145
-198.24
-198.546
-199.059
-199.77
-200.677
-201.78
-203.086
-204.608
-206.349
-208.301
-210.453
-212.797
-215.309
-217.961
-220.703
-223.456
-226.156
-228.742
-231.158
-233.355
-235.265
-236.802
-237.896
-238.474
-238.481
-237.884
-236.653
-234.765
-232.239
-229.109
-225.449
-221.403
-217.094
-212.658
-208.247
-203.958
-199.938
-196.399
-193.45
-191.116
-189.299
-187.69
-185.951
-183.872
-181.149
-177.342
-172.13
-165.312
-157.134
-148.417
-140.081
-132.748
-126.721
-122.482
-120.585
-121.003
-122.874
-123.413
-118.257
-104.989
-82.728
-51.948
-15.169
29.16
84.56
153.866
241.431
345.868
461.847
582.719
696.061
789.487
851.965
874.579
856.313
801.997
719.08
614.857
495.877
368.905
244.514
138.345
61.607
18.499
3.183
0.078
-1.507
-5.661
-10.853
-9.906
-0.656
13.846
30.163
44.049
53.338
58.575
60.027
57.449
51.287
42.562
32.145
21.138
10.743
1.277
-6.911
-12.956
-16.634
-18.247
-18.069
-16.9
-15.798
-15.175
-15.325
-16.69
-19.331
-23.188
-28.205
-33.936
-39.756
-45.322
-50.405
-54.85
-58.687
-61.9
-64.429
-66.331
-67.707
-68.63
-69.163
-69.323
-69.077
-68.444
-67.473
-66.238
-64.834
-63.326
-61.747
-60.123
-58.469
-56.798
-55.118
-53.421
-51.684
-49.883
-48.005
-46.042
-43.992
-41.843
-39.571
-37.149
-34.544
-31.732
-28.694
-25.41
-21.863
-18.035
-13.912
-9.485
-4.748
0.309
5.696
11.422
17.5
23.935
30.729
37.883
45.396
53.263
61.473
70.013
78.867
88.016
97.442
107.125
117.042
127.171
137.488
147.963
158.571
169.277
180.047
190.84
201.611
212.313
222.902
233.333
243.561
253.542
263.232
272.59
281.579
290.159
298.289
305.922
313.003
319.483
325.337
330.544
335.098
339.011
342.29
344.947
347.012
348.503
349.424
349.765
349.489
348.555
346.952
344.686
341.79
338.303
334.227
329.562
324.308
318.431
311.912
304.725
296.8
288.107
278.678
268.582
257.964
247.003
235.827
224.541
213.229
201.953
190.815
179.919
169.351
159.226
149.663
140.798
132.825
125.898
120.075
115.363
111.674
108.863
106.838
105.527
104.858
104.791
105.262
106.205
107.592
109.373
111.477
113.806
116.205
118.537
120.742
122.798
124.743
126.665
128.608
130.602
132.689
134.877
137.172
139.577
142.051
144.557
147.077
149.613
152.196
154.858
157.593
160.378
163.17
165.903
168.53
171.009
173.289
175.333
177.12
178.632
179.876
180.868
181.614
182.113
182.362
182.352
182.087
181.574
180.824
179.853
178.675
177.309
175.779
174.106
172.31
170.406
168.41
166.33
164.18
161.976
159.73
157.461
155.183
152.913
150.669
148.469
146.33
144.266
142.291
140.418
138.656
137.018
135.512
134.146
132.926
131.859
130.948
130.199
129.612
129.188
128.928
128.829
128.889
129.103
129.465
129.97
130.608
131.371
132.251
133.235
134.315
135.477
136.711
138.003
139.341
140.712
142.103
143.5
144.891
146.264
147.607
148.909
150.16
151.352
152.476
153.526
154.497
155.383
156.182
156.893
157.516
158.052
158.504
158.876
159.172
159.4
159.567
159.682
159.753
159.793
159.813
159.824
159.841
159.877
159.947
160.063
160.24
160.491
160.827
161.262
161.805
162.465
163.252
164.173
165.233
166.438
167.791
169.291
170.939
172.731
174.661
176.72
178.895
181.173
183.54
185.977
188.464
190.983
193.517
196.048
198.561
201.035
203.453
205.794
208.041
210.175
212.176
214.023
215.698
217.186
218.48
219.576
220.471
221.164
221.645
221.904
221.923
221.693
221.211
220.476
219.489
218.26
216.812
215.183
213.429
211.61
209.759
207.916
206.112
204.369
202.75
201.327
200.169
199.348
198.887
198.772
199.065
199.842
201.029
202.558
204.268
205.915
207.534
209.224
210.871
212.376
213.786
215.079
216.524
218.657
221.513
225.063
229.535
235.056
241.76
249.81
258.654
267.136
274.5
280.175
283.436
283.625
280.126
272.413
262.161
253.43
248.598
248.949
254.413
262.324
275.94
303.325
349.541
418.462
506.09
599.828
692.482
782.506
869.136
953.631
1029.848
1078.401
1081.947
1030.262
920.482
769.534
603.779
447.293
324.725
247.023
209.258
202.1
211.709
227.895
248.458
270.799
289.871
299.626
294.612
275.521
250.509
227.941
213.068
206.254
202.704
199.203
195.132
191.216
189.733
191.394
195.284
200.457
205.82
210.598
214.646
217.877
220.179
221.635
222.313
222.269
221.609
220.433
218.797
216.721
214.25
211.433
208.376
205.266
202.241
199.373
196.701
194.231
191.97
189.929
188.093
186.397
184.78
183.19
181.585
179.945
178.231
176.385
174.334
171.993
169.301
166.227
162.751
158.864
154.565
149.858
144.768
139.344
133.628
127.656
121.462
115.069
108.51
101.827
95.061
88.253
81.436
74.634
67.881
61.216
54.675
48.3
42.107
36.09
30.253
24.606
19.155
13.905
8.85
3.964
-0.751
-5.272
-9.575
-13.632
-17.44
-21.032
-24.434
-27.678
-30.774
-33.696
-36.452
-39.075
-41.575
-43.956
-46.192
-48.223
-50.07
-51.825
-53.565
-55.382
-57.323
-59.378
-61.583
-63.981
-66.615
-69.562
-72.842
-76.438
-80.382
-84.725
-89.557
-95.012
-101.108
-107.756
-114.908
-122.498
-130.488
-138.914
-147.709
-156.805
-166.188
-175.807
-185.642
-195.693
-205.871
-216.075
-226.236
-236.195
-245.832
-255.198
-264.32
-273.378
-282.712
-292.387
-302.318
-312.406
-322.428
-332.095
-341.136
-348.902
-354.403
-357.226
-357.516
-355.783
-352.926
-349.677
-346.536
-344.448
-344.805
-348.352
-355.114
-364.482
-375.153
-386.161
-397.026
-406.976
-414.992
-420.474
-423.216
-423.594
-422.656
-421.121
-419.281
-417.519
-416.18
-415.493
-415.667
-416.601
-417.843
-419.124
-420.329
-421.363
-422.256
-422.994
-423.49
-423.748
-423.809
-423.69
-423.394
-422.865
-422.01
-420.781
-419.164
-417.188
-414.929
-412.445
-409.806
-407.101
-404.416
-401.872
-399.576
-397.606
-396.062
-394.966
-394.401
-394.563
-395.49
-397.099
-399.189
-401.244
-402.728
-403.334
-402.547
-399.745
-394.843
-387.957
-379.581
-371.02
-363.585
-358.165
-355.777
-357.36
-361.629
-366.87
-372.376
-375.086
-374.092
-369.131
-353.737
-324.119
-278.224
-213.542
-136.743
-53.65
34.426
124.315
215.313
301.753
370.923
408.765
402.296
347.573
247.816
113.296
-37.435
-186.651
-315.181
-405.288
-452.082
-458.553
-435.209
-401.464
-371.603
-352.837
-348.825
-353.034
-356.581
-355.62
-346.631
-331.958
-318.215
-308.004
-302.921
-302.862
-305.274
-309.198
-314.513
-320.692
-327.388
-334.265
-340.89
-346.862
-351.735
-355.16
-356.968
-357.44
-357.326
-357.07
-356.791
-356.6
-356.552
-356.715
-357.181
-357.776
-358.047
-357.703
-356.628
-354.789
-352.261
-349.076
-345.205
-340.69
-335.644
-330.168
-324.353
-318.264
-311.923
-305.362
-298.624
-291.753
-284.796
-277.783
-270.733
-263.65
-256.533
-249.392
-242.241
-235.093
-227.957
-220.838
-213.736
-206.656
-199.6
-192.57
-185.563
-178.576
-171.601
-164.638
-157.685
-150.745
-143.824
-136.922
-130.038
-123.172
-116.319
-109.477
-102.643
-95.813
-88.984
-82.151
-75.316
-68.478
-61.641
-54.806
-47.976
-41.156
-34.348
-27.56
-20.795
-14.06
-7.364
-0.715
5.877
12.403
18.85
25.206
31.457
37.59
43.592
49.448
55.145
60.669
66.006
71.144
76.07
80.772
85.238
89.456
93.418
97.114
100.536
103.677
106.533
109.1
111.375
113.36
115.054
116.459
117.58
118.421
118.989
119.292
119.338
119.137
118.702
118.044
117.178
116.116
114.876
113.471
111.919
110.235
108.436
106.538
104.559
102.514
100.42
98.293
96.147
93.999
91.862
89.751
87.679
85.656
83.696
81.808
80.001
78.284
76.665
75.149
73.744
72.453
71.281
70.231
69.306
68.507
67.836
67.292
66.876
66.588
66.427
66.391
66.48
66.691
67.024
67.477
68.047
68.733
69.533
70.444
71.465
72.591
73.821
75.152
76.581
78.105
79.721
81.425
83.213
85.083
87.03
89.049
91.135
93.284
95.489
97.745
100.045
102.381
104.748
107.135
109.534
111.937
114.332
116.71
119.059
121.368
123.623
125.814
127.927
129.95
131.869
133.673
135.347
136.881
138.262
139.479
140.521
141.377
142.039
142.5
142.75
142.786
142.602
142.194
141.558
140.694
139.603
138.285
136.745
134.986
133.014
130.839
128.469
125.917
123.195
120.313
117.285
114.127
110.855
107.491
104.052
100.559
97.03
93.485
89.948
86.438
82.976
79.575
76.248
73.008
69.87
66.853
63.975
61.249
58.676
56.259
54.001
51.905
49.976
48.212
46.605
45.149
43.838
42.676
41.677
40.844
40.175
39.653
39.249
38.948
38.771
38.751
38.918
39.282
39.795
40.401
41.092
41.883
42.774
43.698
44.497
45.085
45.554
46.196
47.285
48.837
50.737
52.846
54.949
56.945
58.652
59.04
58.042
56.093
52.178
46.73
38.284
24.576
9.062
-5.18
-13.612
-11.092
-1.146
12.043
24.736
32.464
37.283
40.846
42.478
42.684
39.842
33.494
25.473
16.562
7.329
-1.461
-9.465
-16.12
-20.602
-23.115
-24.628
-25.713
-26.714
-27.792
-28.853
-30.058
-31.825
-34.184
-36.835
-39.573
-42.215
-44.729
-47.271
-49.873
-52.459
-55.004
-57.519
-60.023
-62.569
-65.161
-67.75
-70.303
-72.792
-75.2
-77.531
-79.777
-81.922
-83.95
-85.838
-87.572
-89.144
-90.546
-91.773
-92.817
-93.667
-94.316
-94.759
-94.992
-95.014
-94.819
-94.399
-93.75
-92.87
-91.761
-90.429
-88.881
-87.126
-85.176
-83.044
-80.744
-78.292
-75.703
-72.993
-70.182
-67.289
-64.339
-61.355
-58.364
-55.396
-52.478
-49.64
-46.906
-44.301
-41.846
-39.558
-37.451
-35.542
-33.851
-32.4
-31.217
-30.316
-29.696
-29.355
-29.291
-29.494
-29.943
-30.605
-31.427
-32.375
-33.426
-34.569
-35.81
-37.122
-38.458
-39.769
-40.997
-42.141
-43.246
-44.326
-45.356
-46.316
-47.195
-48.065
-49.093
-50.334
-51.714
-53.203
-54.814
-56.79
-59.599
-63.485
-68.385
-74.121
-80.498
-87.283
-94.184
-100.324
-104.094
-104.25
-100.228
-92.055
-80.271
-65.43
-48.153
-30.204
-14.54
-3.592
0.971
-0.469
-6.464
-17.156
-31.445
-48.71
-66.955
-78.687
-78.503
-60.68
-19.554
42.206
121.869
214.334
309.487
403.287
491.805
573.442
652.796
726.955
790.439
834.111
840.301
801.324
716.746
590.593
441.07
285.523
138.563
18.485
-65.07
-109.701
-116.092
-94.327
-58.428
-19.812
9.788
23.225
21.358
8.44
-7.079
-17.429
-20.76
-18.623
-15.475
-14.476
-15.126
-15.824
-14.505
-10.417
-4.431
2.499
9.565
16.167
21.902
26.497
29.799
31.876
32.982
33.333
33.091
32.419
31.516
30.576
29.805
29.407
29.511
30.216
31.61
33.731
36.601
40.235
44.616
49.69
55.39
61.637
68.342
75.444
82.869
90.539
98.368
106.27
114.186
122.087
129.96
137.791
145.568
153.26
160.829
168.252
175.498
182.55
189.413
196.078
202.528
208.745
214.697
220.334
225.592
230.388
234.634
238.252
241.187
243.428
245.01
246.016
246.594
246.844
246.82
246.578
246.132
245.56
245.044
244.634
244.267
243.931
243.582
243.353
243.651
244.605
246.03
247.985
250.643
254.253
259.342
265.82
272.829
279.881
286.803
293.153
298.477
302.096
302.866
300.578
296.076
289.903
282.428
274.12
265.261
256.403
248.527
241.857
235.798
229.934
223.923
217.537
210.866
203.826
196.05
187.471
178.346
168.85
159.148
149.275
139
128.131
116.617
104.378
91.379
77.668
63.258
48.204
32.662
16.768
0.683
-15.386
-31.325
-47.057
-62.456
-77.397
-91.673
-104.984
-117.098
-127.833
-137.052
-144.725
-150.822
-155.305
-158.24
-159.726
-159.894
-158.922
-156.882
-153.762
-149.628
-144.566
-138.736
-132.42
-125.85
-119.229
-112.795
-106.704
-101.096
-96.124
-91.83
-88.204
-85.256
-82.962
-81.392
-80.704
-80.976
-82.252
-84.542
-87.743
-91.762
-96.5
-101.768
-107.412
-113.317
-119.361
-125.507
-131.754
-138.063
-144.404
-150.708
-156.836
-162.696
-168.22
-173.336
-178.038
-182.336
-186.261
-189.92
-193.409
-196.783
-200.089
-203.329
-206.482
-209.55
-212.526
-215.4
-218.192
-220.915
-223.57
-226.176
-228.725
-231.192
-233.539
-235.699
-237.601
-239.202
-240.468
-241.377
-241.924
-242.097
-241.896
-241.334
-240.42
-239.156
-237.548
-235.594
-233.297
-230.672
-227.735
-224.507
-221.014
-217.276
-213.313
-209.146
-204.79
-200.264
-195.579
-190.747
-185.776
-180.682
-175.48
-170.187
-164.82
-159.397
-153.936
-148.455
-142.972
-137.504
-132.068
-126.678
-121.348
-116.094
-110.929
-105.867
-100.921
-96.101
-91.42
-86.888
-82.517
-78.315
-74.292
-70.455
-66.811
-63.367
-60.129
-57.101
-54.288
-51.694
-49.32
-47.169
-45.242
-43.54
-42.062
-40.806
-39.768
-38.943
-38.328
-37.914
-37.694
-37.66
-37.801
-38.106
-38.564
-39.164
-39.892
-40.734
-41.676
-42.703
-43.8
-44.95
-46.139
-47.348
-48.56
-49.758
-50.927
-52.047
-53.104
-54.081
-54.961
-55.73
-56.376
-56.885
-57.246
-57.449
-57.483
-57.338
-57.01
-56.492
-55.779
-54.869
-53.763
-52.464
-50.981
-49.323
-47.5
-45.525
-43.411
-41.173
-38.827
-36.388
-33.866
-31.277
-28.64
-25.974
-23.302
-20.646
-18.024
-15.46
-12.976
-10.596
-8.342
-6.227
-4.264
-2.471
-0.875
0.499
1.61
2.434
2.957
3.162
3.034
2.569
1.769
0.656
-0.723
-2.336
-4.156
-6.153
-8.305
-10.559
-12.851
-15.128
-17.333
-19.428
-21.404
-23.235
-24.904
-26.432
-27.838
-29.18
-30.571
-32.095
-33.839
-35.917
-38.411
-41.469
-45.309
-50.026
-55.59
-61.821
-68.327
-74.734
-80.784
-86.111
-90.216
-92.813
-93.962
-94.237
-94.797
-96.738
-100.648
-106.94
-116.114
-128.279
-142.766
-157.936
-170.864
-178.366
-178.227
-168.482
-146.884
-111.704
-61.787
1.89
74.865
152.29
230.205
306.717
383.382
459.478
529.814
586.542
617.5
612.208
568.603
487.179
373.032
240.549
102.274
-24.771
-117.796
-168.783
-175.404
-142.392
-90.936
-35.365
12.93
41.029
50.267
43.445
24.971
6.919
-5.894
-12.437
-13.127
-13.833
-16.979
-21.931
-28.065
-33.074
-36.105
-38
-39.361
-40.986
-43.474
-46.809
-50.92
-55.756
-61.137
-66.897
-72.899
-78.926
-84.726
-90.16
-95.164
-99.72
-103.867
-107.609
-110.901
-113.707
-116.026
-117.864
-119.231
-120.131
-120.549
-120.499
-120.026
-119.207
-118.125
-116.838
-115.375
-113.757
-112.001
-110.125
-108.149
-106.079
-103.908
-101.634
-99.265
-96.81
-94.283
-91.688
-89.019
-86.266
-83.418
-80.466
-77.402
-74.219
-70.907
-67.459
-63.869
-60.136
-56.26
-52.238
-48.064
-43.734
-39.239
-34.573
-29.73
-24.704
-19.487
-14.076
-8.467
-2.658
3.35
9.556
15.96
22.557
29.343
36.312
43.458
50.772
58.244
65.861
73.61
81.474
89.436
97.475
105.57
113.697
121.83
129.942
138.007
145.996
153.879
161.626
169.206
176.587
183.74
190.631
197.231
203.508
209.433
214.976
220.11
224.811
229.054
232.817
236.079
238.822
241.029
242.686
243.781
244.304
244.249
243.61
242.386
240.578
238.19
235.228
231.703
227.624
223.009
217.873
212.237
206.123
199.554
192.558
185.163
177.399
169.297
160.889
152.21
143.292
134.17
124.879
115.452
105.925
96.33
86.701
77.071
67.471
57.933
48.487
39.161
29.982
20.977
12.171
3.586
-4.756
-12.835
-20.633
-28.134
-35.322
-42.185
-48.713
-54.895
-60.726
-66.199
-71.311
-76.06
-80.447
-84.471
-88.135
-91.442
-94.397
-97.005
-99.27
-101.199
-102.799
-104.076
-105.04
-105.696
-106.055
-106.124
-105.912
-105.429
-104.682
-103.683
-102.44
-100.963
-99.263
-97.349
-95.234
-92.926
-90.438
-87.781
-84.965
-82.002
-78.902
-75.677
-72.336
-68.89
-65.351
-61.727
-58.031
-54.274
-50.465
-46.617
-42.742
-38.85
-34.954
-31.066
-27.197
-23.36
-19.567
-15.83
-12.161
-8.573
-5.077
-1.685
1.593
4.746
7.763
10.636
13.356
15.915
18.306
20.523
22.559
24.409
26.069
27.534
28.801
29.867
30.73
31.388
31.841
32.088
32.132
31.973
31.614
31.058
30.309
29.371
28.251
26.953
25.486
23.856
22.071
20.141
18.073
15.878
13.566
11.145
8.627
6.021
3.339
0.59
-2.215
-5.065
-7.95
-10.858
-13.778
-16.701
-19.613
-22.505
-25.366
-28.183
-30.946
-33.643
-36.264
-38.797
-41.231
-43.554
-45.756
-47.827
-49.756
-51.535
-53.154
-54.605
-55.879
-56.968
-57.866
-58.566
-59.063
-59.351
-59.424
-59.281
-58.918
-58.334
-57.525
-56.492
-55.235
-53.757
-52.058
-50.144
-48.019
-45.688
-43.16
-40.444
-37.551
-34.494
-31.287
-27.947
-24.492
-20.943
-17.322
-13.651
-9.951
-6.247
-2.562
1.084
4.666
8.162
11.551
14.807
17.906
20.822
23.531
26.006
28.226
30.165
31.8
33.119
34.104
34.742
35.013
34.888
34.344
33.37
31.959
30.108
27.827
25.129
22.052
18.655
15.001
11.15
7.153
3.04
-1.149
-5.364
-9.545
-13.612
-17.504
-21.199
-24.679
-27.927
-30.935
-33.734
-36.434
-39.212
-42.245
-45.654
-49.504
-53.84
-58.766
-64.396
-70.832
-78.156
-86.345
-95.397
-105.411
-116.359
-128.055
-140.117
-151.848
-162.545
-171.709
-178.743
-182.978
-184.157
-182.313
-177.908
-171.938
-165.245
-158.539
-152.79
-148.897
-145.932
-141.153
-131.827
-116.054
-95.673
-74.951
-54.085
-27.336
15.187
82.621
176.768
288.726
405.223
516.491
614.112
694.09
752.01
776.925
764.278
713.884
631.367
529.844
414.826
291.456
165.795
44.918
-54.149
-120.194
-151.171
-152.192
-138.841
-121.573
-103.532
-85.157
-62.898
-36.904
-11.042
11.232
26.396
32.787
30.93
22.027
8.082
-8.496
-25.608
-41.439
-54.669
-64.383
-70.112
-71.942
-70.467
-66.709
-61.825
-56.954
-52.889
-50.125
-48.928
-49.27
-50.935
-53.599
-56.799
-60.001
-62.867
-65.194
-66.869
-67.927
-68.39
-68.257
-67.58
-66.429
-64.843
-62.859
-60.496
-57.737
-54.609
-51.161
-47.454
-43.577
-39.595
-35.54
-31.444
-27.326
-23.2
-19.083
-14.979
-10.873
-6.76
-2.634
1.509
5.667
9.847
14.07
18.357
22.734
27.224
31.84
36.598
41.514
46.6
51.869
57.329
62.983
68.837
74.899
81.178
87.68
94.41
101.37
108.559
115.979
123.625
131.493
139.574
147.858
156.33
164.98
173.79
182.743
191.819
200.997
210.254
219.566
228.906
238.245
247.553
256.8
265.952
274.976
283.837
292.502
300.934
309.098
316.958
324.48
331.63
338.375
344.682
350.52
355.86
360.675
364.941
368.633
371.73
374.215
376.072
377.288
377.853
377.76
377.003
375.58
373.492
370.742
367.336
363.281
358.59
353.275
347.352
340.841
333.762
326.139
317.999
309.368
300.278
290.76
280.847
270.574
259.977
249.092
237.956
226.607
215.081
203.417
191.651
179.818
167.956
156.099
144.28
132.532
120.886
109.373
98.02
86.855
75.902
65.187
54.73
44.552
34.673
25.109
15.875
6.984
-1.553
-9.727
-17.53
-24.959
-32.01
-38.683
-44.979
-50.9
-56.451
-61.638
-66.468
-70.949
-75.092
-78.906
-82.404
-85.597
-88.499
-91.124
-93.486
-95.599
-97.478
-99.14
-100.599
-101.871
-102.973
-103.921
-104.732
-105.422
-106.009
-106.51
-106.941
-107.319
-107.662
-107.984
-108.301
-108.629
-108.981
-109.371
-109.812
-110.315
-110.893
-111.556
-112.314
-113.176
-114.149
-115.241
-116.459
-117.807
-119.289
-120.91
-122.671
-124.574
-126.619
-128.805
-131.131
-133.593
-136.188
-138.909
-141.75
-144.703
-147.759
-150.907
-154.135
-157.432
-160.784
-164.177
-167.598
-171.029
-174.458
-177.868
-181.243
-184.568
-187.827
-191.005
-194.086
-197.056
-199.901
-202.608
-205.162
-207.553
-209.77
-211.804
-213.644
-215.284
-216.718
-217.94
-218.948
-219.738
-220.31
-220.666
-220.807
-220.738
-220.465
-219.994
-219.334
-218.496
-217.488
-216.324
-215.016
-213.577
-212.021
-210.361
-208.613
-206.791
-204.909
-202.983
-201.027
-199.056
-197.082
-195.119
-193.18
-191.277
-189.418
-187.613
-185.87
-184.195
-182.593
-181.07
-179.628
-178.267
-176.989
-175.791
-174.671
-173.626
-172.649
-171.734
-170.872
-170.056
-169.275
-168.52
-167.779
-167.043
-166.3
-165.54
-164.755
-163.934
-163.068
-162.146
-161.16
-160.103
-158.968
-157.747
-156.437
-155.032
-153.534
-151.945
-150.27
-148.513
-146.679
-144.776
-142.813
-140.801
-138.745
-136.652
-134.529
-132.385
-130.235
-128.094
-125.974
-123.887
-121.846
-119.869
-117.967
-116.155
-114.437
-112.812
-111.288
-109.877
-108.596
-107.467
-106.507
-105.719
-105.107
-104.676
-104.421
-104.329
-104.369
-104.49
-104.65
-104.819
-104.965
-105.065
-105.069
-104.911
-104.543
-103.913
-102.975
-101.705
-100.08
-98.08
-95.741
-93.11
-90.23
-87.194
-84.085
-80.984
-78.017
-75.278
-72.867
-70.937
-69.659
-69.139
-69.35
-70.078
-70.965
-71.672
-71.879
-71.193
-69.095
-65.2
-59.641
-53.101
-46.57
-40.935
-36.845
-34.979
-36.112
-40.783
-47.628
-53.155
-54.855
-50.986
-41.839
-30.404
-13.552
15.877
63.822
137.33
232.98
337.512
440.605
530.943
604.379
666.928
718.546
757.794
779.493
769.354
721.81
635.132
510.401
363.972
211.546
71.531
-31.99
-92.588
-112.698
-101.06
-78.984
-56.435
-34.807
-17.36
0.071
16.268
24.891
27.25
23.063
13.509
3.322
-7.999
-20.048
-31.224
-42.257
-51.859
-58.935
-63.926
-66.538
-67.327
-67.747
-68.571
-70.219
-72.97
-76.65
-81.111
-86.528
-92.752
-99.3
-105.812
-111.937
-117.476
-122.481
-126.932
-130.728
-133.844
-136.3
-138.13
-139.426
-140.231
-140.546
-140.408
-139.854
-138.947
-137.779
-136.435
-135.002
-133.556
-132.149
-130.826
-129.626
-128.572
-127.688
-126.985
-126.455
-126.1
-125.919
-125.911
-126.077
-126.41
-126.892
-127.502
-128.215
-129.007
-129.86
-130.752
-131.661
-132.566
-133.443
-134.273
-135.038
-135.716
-136.282
-136.709
-136.969
-137.035
-136.881
-136.481
-135.811
-134.845
-133.563
-131.944
-129.973
-127.636
-124.918
-121.809
-118.3
-114.387
-110.065
-105.335
-100.2
-94.664
-88.736
-82.426
-75.748
-68.718
-61.356
-53.682
-45.719
-37.491
-29.025
-20.351
-11.497
-2.495
6.622
15.821
25.067
34.324
43.558
52.732
61.811
70.761
79.547
88.136
96.497
104.599
112.413
119.913
127.072
133.868
140.279
146.285
151.869
157.015
161.712
165.948
169.715
173.007
175.821
178.155
180.009
181.386
182.292
182.734
182.72
182.262
181.373
180.067
178.36
176.272
173.821
171.029
167.917
164.509
160.828
156.9
152.749
148.401
143.883
139.22
134.437
129.562
124.621
119.638
114.638
109.648
104.691
99.791
94.97
90.252
85.656
81.205
76.916
72.808
68.899
65.204
61.738
58.515
55.547
52.844
50.415
48.269
46.412
44.847
43.579
42.609
41.937
41.561
41.481
41.69
42.185
42.958
44.002
45.306
46.861
48.654
50.673
52.904
55.332
57.94
60.711
63.629
66.675
69.831
73.076
76.39
79.755
83.15
86.554
89.947
93.31
96.621
99.863
103.016
106.062
108.985
111.767
114.393
116.85
119.123
121.201
123.074
124.731
126.165
127.369
128.34
129.075
129.571
129.83
129.854
129.645
129.21
128.554
127.686
126.616
125.353
123.911
122.302
120.54
118.64
116.618
114.491
112.276
109.99
107.651
105.276
102.883
100.49
98.113
95.771
93.479
91.252
89.106
87.055
85.111
83.286
81.589
80.029
78.613
77.345
76.231
75.271
74.468
73.819
73.322
72.974
72.771
72.704
72.768
72.953
73.249
73.646
74.134
74.7
75.332
76.018
76.745
77.502
78.275
79.052
79.82
80.567
81.281
81.951
82.568
83.122
83.604
84.007
84.327
84.56
84.703
84.757
84.72
84.596
84.386
84.097
83.734
83.303
82.811
82.268
81.683
81.067
80.429
79.78
79.131
78.492
77.873
77.284
76.733
76.228
75.776
75.383
75.056
74.799
74.616
74.51
74.48
74.528
74.651
74.845
75.102
75.408
75.752
76.118
76.491
76.853
77.183
77.462
77.672
77.798
77.825
77.731
77.495
77.096
76.512
75.727
74.721
73.474
71.972
70.2
68.154
65.835
63.239
60.359
57.178
53.675
49.835
45.655
41.135
36.279
31.1
25.619
19.88
13.945
7.872
1.707
-4.509
-10.744
-16.944
-23.046
-28.984
-34.682
-40.074
-45.108
-49.75
-53.981
-57.818
-61.291
-64.443
-67.371
-70.164
-72.908
-75.682
-78.534
-81.529
-84.786
-88.491
-92.758
-97.593
-102.887
-108.333
-113.589
-118.309
-121.981
-123.944
-123.789
-121.477
-117.274
-112.182
-107.424
-104.012
-103.424
-106.285
-111.385
-117.322
-122.116
-125.952
-132.48
-142.195
-152.105
-152.108
-126.123
-67.019
24.381
137.822
255.309
368.281
473.911
570.779
657.938
725.965
760.553
749.982
689.432
581.562
437.483
275.497
114.245
-26.091
-129.823
-192.548
-216.905
-214.325
-197.728
-176.034
-157.366
-144.424
-139.264
-142.943
-150.929
-160.168
-167.704
-172.16
-176.928
-183.788
-192.797
-202.844
-211.068
-216.199
-218.537
-218.722
-217.818
-216.518
-215.225
-214.538
-214.851
-216.278
-218.761
-222.068
-225.974
-230.324
-234.95
-239.624
-244.154
-248.367
-252.089
-255.215
-257.633
-259.235
-259.975
-259.818
-258.743
-256.762
-253.905
-250.206
-245.73
-240.541
-234.685
-228.232
-221.257
-213.848
-206.119
-198.159
-190.039
-181.822
-173.556
-165.284
-157.046
-148.866
-140.749
-132.704
-124.74
-116.865
-109.097
-101.446
-93.914
-86.502
-79.208
-72.033
-64.986
-58.073
-51.301
-44.67
-38.184
-31.841
-25.645
-19.59
-13.666
-7.858
-2.153
3.462
8.999
14.468
19.877
25.238
30.564
35.874
41.197
46.552
51.954
57.415
62.936
68.509
74.117
79.716
85.258
90.711
96.051
101.269
106.388
111.42
116.382
121.299
126.168
130.993
135.794
140.564
145.308
150.049
154.811
159.676
164.763
170.139
175.848
181.904
188.243
194.808
201.53
208.269
214.913
221.336
227.376
232.938
237.946
242.292
245.891
248.587
250.148
250.419
249.276
246.62
242.453
236.768
229.563
220.975
211.164
200.308
188.659
176.379
163.571
150.374
136.891
123.275
109.762
96.525
83.697
71.431
59.806
48.924
38.917
29.762
21.374
13.643
6.37
-0.558
-7.181
-13.564
-19.743
-25.757
-31.699
-37.614
-43.507
-49.426
-55.402
-61.491
-67.796
-74.316
-80.987
-87.721
-94.366
-100.819
-107.032
-112.943
-118.496
-123.663
-128.4
-132.696
-136.575
-140.028
-143.035
-145.559
-147.534
-148.938
-149.782
-150.091
-149.918
-149.303
-148.267
-146.841
-145.062
-142.951
-140.523
-137.783
-134.714
-131.317
-127.607
-123.602
-119.331
-114.819
-110.082
-105.136
-99.999
-94.684
-89.21
-83.593
-77.843
-71.979
-66.021
-59.998
-53.939
-47.877
-41.839
-35.853
-29.947
-24.151
-18.492
-12.997
-7.691
-2.6
2.248
6.826
11.104
15.056
18.654
21.873
24.687
27.074
29.01
30.475
31.453
31.925
31.877
31.295
30.166
28.481
26.229
23.406
20.006
16.027
11.469
6.334
0.628
-5.642
-12.468
-19.838
-27.737
-36.15
-45.057
-54.436
-64.263
-74.508
-85.14
-96.123
-107.421
-118.996
-130.808
-142.817
-154.983
-167.265
-179.623
-192.019
-204.41
-216.753
-229.003
-241.111
-253.032
-264.717
-276.118
-287.187
-297.875
-308.136
-317.934
-327.228
-335.981
-344.152
-351.691
-358.559
-364.734
-370.198
-374.94
-378.962
-382.271
-384.886
-386.857
-388.229
-389.046
-389.35
-389.151
-388.457
-387.284
-385.651
-383.582
-381.082
-378.122
-374.663
-370.684
-366.15
-361.033
-355.284
-348.798
-341.495
-333.324
-324.253
-314.32
-303.589
-292.119
-279.995
-267.329
-254.269
-241.025
-227.839
-214.9
-202.399
-190.519
-179.456
-169.475
-160.81
-153.632
-148.078
-144.21
-142.048
-141.613
-142.888
-145.781
-150.163
-155.829
-162.527
-170.068
-178.276
-186.968
-195.964
-205.025
-213.927
-222.511
-230.65
-238.251
-245.248
-251.567
-257.155
-262.029
-266.228
-269.826
-272.943
-275.642
-277.974
-280.003
-281.78
-283.372
-284.842
-286.213
-287.477
-288.623
-289.619
-290.413
-290.945
-291.126
-290.873
-290.123
-288.816
-286.875
-284.204
-280.728
-276.389
-271.173
-265.109
-258.145
-250.171
-241.259
-231.644
-221.626
-211.6
-201.733
-191.919
-182.305
-173.183
-164.43
-155.664
-146.263
-135.29
-122.49
-108.317
-92.76
-75.773
-58.094
-40.746
-25.319
-14.211
-8.731
-8.877
-15.326
-27.463
-42.237
-57.932
-72.468
-83.936
-94.089
-99.72
-92.345
-63.836
-6.342
77.277
174.64
274.05
366.96
455.193
543.613
628.939
701.443
743.367
738.84
685.877
590.973
466.252
327.724
187.762
57.317
-49.001
-119.005
-147.645
-133.653
-84.035
-15.409
58.774
123.928
164.737
179.544
170.567
144.201
114.622
88.121
66.198
48.595
29.793
7.505
-17.174
-42.62
-65.446
-84.094
-99.134
-111.545
-122.951
-134.103
-144.807
-154.991
-164.535
-173.23
-180.906
-187.093
-191.062
-192.373
-190.831
-186.355
-179.072
-169.141
-156.734
-142.19
-125.857
-108.015
-88.981
-69.054
-48.557
-27.914
-7.513
12.317
31.227
48.889
65.02
79.369
91.807
102.324
110.978
117.909
123.251
127.119
129.697
131.204
131.91
132.144
132.176
132.221
132.52
133.323
134.853
137.314
140.821
145.404
151.063
157.762
165.456
174.097
183.59
193.808
204.605
215.809
227.292
238.966
250.731
262.483
274.131
285.593
296.825
307.827
318.591
329.111
339.39
349.43
359.255
368.902
378.409
387.815
397.142
406.39
415.557
424.637
433.617
442.476
451.183
459.692
467.967
475.977
483.69
491.075
498.094
504.709
510.881
516.576
521.76
526.406
530.489
533.988
536.886
539.171
540.834
541.869
542.272
542.037
541.161
539.643
537.481
534.681
531.249
527.192
522.524
517.259
511.416
505.015
498.08
490.636
482.709
474.326
465.518
456.316
446.752
436.86
426.676
416.237
405.579
394.739
383.756
372.667
361.51
350.321
339.137
327.993
316.924
305.964
295.147
284.503
274.062
263.854
253.905
244.24
234.881
225.849
217.161
208.832
200.877
193.304
186.123
179.339
172.956
166.975
161.394
156.211
151.421
147.015
142.985
139.32
136.006
133.029
130.373
128.022
125.956
124.157
122.606
121.282
120.164
119.231
118.463
117.838
117.336
116.937
116.621
116.37
116.166
115.993
115.835
115.678
115.509
115.316
115.091
114.823
114.506
114.135
113.704
113.213
112.659
112.043
111.368
110.635
109.851
109.02
108.149
107.246
106.319
105.375
104.426
103.48
102.547
101.637
100.76
99.925
99.14
98.415
97.757
97.173
96.669
96.248
95.916
95.673
95.522
95.462
95.492
95.608
95.807
96.082
96.427
96.833
97.29
97.786
98.311
98.849
99.387
99.909
100.401
100.845
101.226
101.526
101.731
101.823
101.786
101.607
101.271
100.765
100.077
99.196
98.114
96.825
95.322
93.603
91.666
89.513
87.146
84.57
81.792
78.823
75.672
72.354
68.885
65.283
61.566
57.758
53.882
49.962
46.026
42.099
38.212
34.392
30.669
27.073
23.632
20.377
17.336
14.536
12.005
9.766
7.845
6.261
5.034
4.181
3.715
3.647
3.986
4.737
5.902
7.481
9.471
11.866
14.655
17.828
21.368
25.258
29.474
33.994
38.791
43.834
49.092
54.53
60.114
65.806
71.567
77.358
83.137
88.864
94.495
99.99
105.307
110.404
115.241
119.777
123.976
127.802
131.222
134.204
136.718
138.739
140.242
141.206
141.612
141.438
140.668
139.287
137.284
134.651
131.382
127.473
122.928
117.754
111.966
105.581
98.615
91.084
83.01
74.415
65.328
55.773
45.781
35.38
24.607
13.503
2.115
-9.516
-21.353
-33.37
-45.547
-57.862
-70.282
-82.776
-95.309
-107.838
-120.313
-132.67
-144.822
-156.693
-168.215
-179.329
-189.985
-200.128
-209.699
-218.637
-226.874
-234.351
-241.031
-246.905
-251.982
-256.306
-259.929
-262.921
-265.417
-267.561
-269.5
-271.376
-273.291
-275.34
-277.667
-280.489
-283.928
-288.001
-292.588
-297.338
-301.89
-305.921
-308.955
-310.379
-309.84
-307.257
-302.849
-297.614
-292.681
-288.959
-287.819
-289.559
-292.61
-295.496
-296.241
-295.2
-296.642
-301.322
-305.991
-300.782
-269.042
-203.08
-105.618
11.829
128.663
233.224
325.43
406.58
479.882
541.054
573.362
563.216
504.371
396.763
254.141
96.12
-59.708
-192.945
-288.756
-344.111
-362.453
-356.732
-343.211
-329.9
-319.745
-310.736
-298.422
-283.547
-268.859
-256.895
-250.423
-249.418
-252.144
-257.194
-262.621
-266.591
-268.456
-268.092
-265.739
-262.128
-257.932
-253.63
-249.863
-247.314
-246.3
-246.907
-249.028
-252.325
-256.525
-261.43
-266.77
-272.29
-277.776
-283.003
-287.823
-292.173
-295.979
-299.197
-301.809
-303.777
-305.099
-305.807
-305.938
-305.536
-304.649
-303.311
-301.57
-299.482
-297.113
-294.54
-291.819
-288.98
-286.043
-283.017
-279.902
-276.701
-273.402
-269.977
-266.4
-262.652
-258.714
-254.578
-250.227
-245.642
-240.8
-235.681
-230.267
-224.548
-218.517
-212.163
-205.483
-198.475
-191.14
-183.488
-175.524
-167.253
-158.679
-149.81
-140.654
-131.221
-121.525
-111.578
-101.395
-90.995
-80.399
-69.629
-58.709
-47.665
-36.521
-25.306
-14.049
-2.78
8.471
19.671
30.789
41.791
52.645
63.315
73.77
83.976
93.901
103.514
112.782
121.677
130.169
138.233
145.841
152.969
159.596
165.699
171.261
176.264
180.694
184.538
187.785
190.428
192.46
193.88
194.684
194.876
194.458
193.437
191.819
189.617
186.841
183.507
179.632
175.232
170.328
164.943
159.1
152.822
146.137
139.071
131.651
123.909
115.872
107.571
99.038
90.303
81.398
72.353
63.201
53.973
44.698
35.409
26.134
16.903
7.745
-1.313
-10.242
-19.018
-27.615
-36.01
-44.181
-52.106
-59.768
-67.148
-74.23
-81.001
-87.446
-93.556
-99.32
-104.732
-109.786
-114.477
-118.804
-122.766
-126.365
-129.603
-132.484
-135.015
-137.203
-139.056
-140.583
-141.797
-142.709
-143.331
-143.679
-143.767
-143.61
-143.226
-142.63
-141.841
-140.875
-139.75
-138.483
-137.092
-135.593
-134.004
-132.34
-130.618
-128.853
-127.058
-125.249
-123.437
-121.634
-119.852
-118.099
-116.384
-114.715
-113.097
-111.536
-110.036
-108.599
-107.228
-105.924
-104.686
-103.514
-102.405
-101.356
-100.365
-99.425
-98.533
-97.682
-96.866
-96.08
-95.315
-94.566
-93.826
-93.088
-92.344
-91.589
-90.817
-90.021
-89.195
-88.335
-87.437
-86.497
-85.512
-84.481
-83.402
-82.276
-81.103
-79.885
-78.624
-77.324
-75.988
-74.621
-73.229
-71.818
-70.396
-68.969
-67.548
-66.14
-64.755
-63.403
-62.094
-60.838
-59.645
-58.527
-57.492
-56.552
-55.715
-54.992
-54.391
-53.92
-53.588
-53.401
-53.366
-53.488
-53.771
-54.218
-54.832
-55.612
-56.56
-57.674
-58.951
-60.388
-61.979
-63.721
-65.604
-67.623
-69.767
-72.026
-74.389
-76.844
-79.378
-81.976
-84.625
-87.308
-90.009
-92.713
-95.401
-98.059
-100.667
-103.21
-105.669
-108.028
-110.269
-112.377
-114.334
-116.125
-117.735
-119.148
-120.352
-121.334
-122.081
-122.584
-122.833
-122.82
-122.539
-121.982
-121.146
-120.026
-118.621
-116.93
-114.954
-112.694
-110.155
-107.341
-104.26
-100.919
-97.33
-93.502
-89.447
-85.18
-80.714
-76.065
-71.249
-66.283
-61.185
-55.974
-50.671
-45.301
-39.888
-34.456
-29.031
-23.636
-18.298
-13.04
-7.883
-2.845
2.059
6.811
11.395
15.791
19.982
23.951
27.685
31.167
34.386
37.332
39.998
42.382
44.489
46.315
47.857
49.106
50.041
50.652
50.938
50.903
50.561
49.93
49.038
47.93
46.664
45.293
43.868
42.432
41.015
39.658
38.398
37.278
36.362
35.706
35.327
35.222
35.369
35.722
36.244
36.881
37.515
38.008
38.228
38.046
37.36
36.107
34.183
31.418
27.757
23.26
18.16
12.952
8.093
3.87
0.685
-0.963
-0.934
0.703
3.436
6.007
7.487
7.419
5.125
0.162
-7.04
-15.652
-23.878
-28.599
-27.422
-18.542
0.415
31.272
74.747
131.151
198.136
270.248
343.115
412.199
474.691
532.585
585.558
630.984
663.756
670.681
640.234
566.959
449.162
299.272
138.066
-14.143
-134.619
-211.54
-247.392
-249.884
-232.131
-204.987
-172.338
-137.806
-107.054
-85.865
-78.702
-84.69
-96.195
-105.432
-107.989
-103.94
-97.608
-92.019
-87.867
-84.523
-80.187
-74.381
-67.846
-61.255
-55.453
-51.023
-47.991
-46.34
-45.951
-46.498
-47.726
-49.416
-51.337
-53.278
-55.035
-56.444
-57.384
-57.803
-57.681
-56.997
-55.742
-53.921
-51.568
-48.735
-45.494
-41.916
-38.061
-34.004
-29.825
-25.611
-21.463
-17.456
-13.64
-10.056
-6.73
-3.677
-0.913
1.561
3.761
5.7
7.391
8.848
10.08
11.101
11.932
12.599
13.127
13.541
13.861
14.106
14.298
14.455
14.598
14.744
14.905
15.1
15.349
15.672
16.091
16.627
17.297
18.121
19.116
20.299
21.684
23.281
25.1
27.149
29.436
31.965
34.739
37.759
41.024
44.531
48.273
52.244
56.433
60.828
65.413
70.173
75.089
80.141
85.308
90.567
95.893
101.262
106.647
112.023
117.363
122.64
127.827
132.899
137.83
142.596
147.171
151.534
155.664
159.539
163.142
166.455
169.463
172.152
174.51
176.527
178.195
179.506
180.456
181.044
181.268
181.132
180.638
179.793
178.606
177.085
175.244
173.096
170.655
167.939
164.965
161.751
158.318
154.684
150.871
146.899
142.79
138.565
134.244
129.85
125.403
120.922
116.429
111.942
107.481
103.064
98.709
94.431
90.247
86.172
82.22
78.403
74.733
71.219
67.871
64.695
61.697
58.882
56.254
53.812
51.559
49.494
47.614
45.917
44.399
43.055
41.88
40.867
40.009
39.298
38.726
38.285
37.964
37.754
37.646
37.628
37.691
37.824
38.016
38.255
38.532
38.834
39.153
39.476
39.795
40.1
40.382
40.633
40.845
41.011
41.124
41.18
41.173
41.098
40.952
40.732
40.435
40.061
39.608
39.077
38.467
37.782
37.021
36.19
35.29
34.325
33.3
32.219
31.088
29.912
28.698
27.451
26.178
24.886
23.581
22.269
20.956
19.649
18.352
17.071
15.811
14.575
13.368
12.194
11.056
9.955
8.895
7.877
6.902
5.969
5.079
4.23
3.421
2.649
1.909
1.2
0.515
-0.149
-0.8
-1.443
-2.086
-2.735
-3.398
-4.082
-4.797
-5.549
-6.347
-7.197
-8.108
-9.085
-10.135
-11.263
-12.474
-13.773
-15.164
-16.649
-18.232
-19.914
-21.696
-23.578
-25.561
-27.643
-29.821
-32.093
-34.452
-36.893
-39.41
-41.995
-44.638
-47.33
-50.059
-52.814
-55.581
-58.347
-61.097
-63.816
-66.486
-69.093
-71.618
-74.045
-76.358
-78.54
-80.576
-82.45
-84.147
-85.653
-86.955
-88.04
-88.896
-89.509
-89.87
-89.969
-89.795
-89.341
-88.601
-87.569
-86.243
-84.621
-82.703
-80.491
-77.987
-75.197
-72.128
-68.787
-65.183
-61.329
-57.236
-52.921
-48.401
-43.695
-38.823
-33.806
-28.667
-23.427
-18.11
-12.739
-7.337
-1.925
3.473
8.833
14.131
19.341
24.438
29.393
34.183
38.78
43.159
47.299
51.18
54.787
58.105
61.125
63.836
66.231
68.302
70.042
71.445
72.508
73.229
73.613
73.667
73.401
72.83
71.974
70.854
69.485
67.878
66.032
63.947
61.64
59.124
56.422
53.564
50.578
47.506
44.415
41.372
38.442
35.687
33.138
30.812
28.749
26.997
25.62
24.676
24.168
24.083
24.434
25.231
26.497
28.213
30.247
32.441
34.648
36.729
38.631
40.293
41.533
42.244
42.438
42.259
42.122
42.471
43.52
45.522
48.856
53.676
59.943
67.272
74.571
80.696
84.842
86.158
83.855
77.799
68.597
57.625
47.415
40.97
41.109
50.809
73.253
109.848
159.387
219.831
287.639
360.644
440.296
526.5
615.576
698.323
760.04
785.868
766.085
700.106
593.015
455.188
302.443
149.633
15.211
-83.912
-143.804
-166.048
-160.909
-143.295
-117.008
-85.465
-52.416
-18.138
9.403
25.82
34.565
36.912
36.906
36.459
31.818
22.195
8.323
-8.141
-23.69
-36.511
-45.929
-51.625
-54.099
-53.976
-52.225
-50.152
-48.52
-47.697
-47.977
-49.341
-51.714
-55.005
-58.769
-62.462
-65.787
-68.568
-70.752
-72.426
-73.616
-74.323
-74.631
-74.636
-74.414
-74.058
-73.611
-73.092
-72.54
-71.996
-71.521
-71.176
-70.991
-70.973
-71.113
-71.401
-71.856
-72.516
-73.416
-74.571
-75.971
-77.58
-79.368
-81.326
-83.463
-85.791
-88.295
-90.954
-93.767
-96.767
-100.008
-103.495
-107.163
-110.882
-114.525
-118.009
-121.283
-124.322
-127.085
-129.505
-131.503
-133.011
-133.988
-134.39
-134.143
-133.128
-131.208
-128.326
-124.522
-119.919
-114.638
-108.751
-102.304
-95.332
-87.897
-80.081
-71.955
-63.566
-54.946
-46.151
-37.275
-28.463
-19.867
-11.583
-3.628
4.036
11.436
18.562
25.393
31.906
38.101
43.977
49.508
54.641
59.319
63.508
67.206
70.44
73.239
75.607
77.52
78.935
79.825
80.177
79.983
79.237
77.925
76.046
73.62
70.689
67.298
63.482
59.271
54.687
49.76
44.527
39.028
33.309
27.411
21.374
15.244
9.066
2.887
-3.249
-9.308
-15.259
-21.075
-26.726
-32.184
-37.425
-42.427
-47.173
-51.643
-55.823
-59.698
-63.261
-66.505
-69.43
-72.035
-74.326
-76.307
-77.987
-79.377
-80.491
-81.341
-81.942
-82.31
-82.463
-82.416
-82.189
-81.798
-81.262
-80.598
-79.824
-78.956
-78.01
-77.001
-75.941
-74.844
-73.718
-72.574
-71.419
-70.257
-69.093
-67.929
-66.767
-65.606
-64.444
-63.276
-62.097
-60.899
-59.674
-58.412
-57.103
-55.734
-54.294
-52.772
-51.156
-49.433
-47.594
-45.628
-43.525
-41.275
-38.872
-36.307
-33.575
-30.671
-27.592
-24.335
-20.899
-17.285
-13.496
-9.533
-5.401
-1.107
3.344
7.942
12.678
17.542
22.522
27.606
32.779
38.027
43.333
48.683
54.058
59.443
64.82
70.172
75.483
80.738
85.92
91.016
96.011
100.893
105.649
110.27
114.744
119.062
123.218
127.202
131.011
134.638
138.078
141.329
144.386
147.248
149.911
152.374
154.635
156.694
158.55
160.203
161.653
162.901
163.949
164.797
165.447
165.9
166.157
166.22
166.089
165.764
165.244
164.528
163.616
162.505
161.192
159.675
157.949
156.009
153.852
151.472
148.863
146.019
142.935
139.605
136.024
132.187
128.09
123.731
119.106
114.214
109.053
103.622
97.921
91.95
85.71
79.203
72.431
65.397
58.108
50.568
42.786
34.769
26.527
18.071
9.414
0.568
-8.454
-17.637
-26.964
-36.418
-45.98
-55.631
-65.351
-75.12
-84.915
-94.714
-104.497
-114.244
-123.935
-133.552
-143.076
-152.488
-161.773
-170.914
-179.895
-188.699
-197.312
-205.719
-213.907
-221.867
-229.589
-237.067
-244.296
-251.274
-258.002
-264.48
-270.71
-276.691
-282.425
-287.912
-293.153
-298.151
-302.908
-307.426
-311.709
-315.764
-319.599
-323.221
-326.636
-329.845
-332.852
-335.663
-338.284
-340.714
-342.958
-345.022
-346.919
-348.678
-350.32
-351.86
-353.308
-354.671
-355.946
-357.135
-358.223
-359.169
-359.928
-360.451
-360.692
-360.639
-360.275
-359.566
-358.473
-356.94
-354.931
-352.448
-349.491
-346.019
-342.011
-337.472
-332.454
-327.137
-321.698
-316.273
-311.038
-306.156
-301.731
-297.829
-294.365
-291.039
-287.512
-283.469
-278.558
-272.493
-265.154
-256.668
-247.627
-239.053
-232.086
-227.719
-226.793
-230.054
-237.812
-249.658
-264.043
-278.205
-288.905
-293.096
-287.793
-269.93
-237.078
-187.462
-121.992
-45.118
38.392
123.651
207.767
291.489
372.901
445.903
501.796
527.998
514.895
461.663
371.915
253.704
120.015
-17.045
-144.052
-244.794
-308.766
-332.565
-318.334
-276.952
-222.847
-168.087
-124.833
-100.639
-94.762
-102.31
-113.656
-119.701
-117.932
-110.042
-100.817
-94.028
-89.664
-86.173
-81.508
-74.888
-67.045
-58.864
-51.103
-44.189
-38.317
-33.6
-30.041
-27.488
-25.689
-24.452
-23.627
-23.064
-22.596
-22.039
-21.252
-20.152
-18.706
-16.891
-14.683
-12.067
-9.047
-5.649
-1.914
2.114
6.389
10.876
15.527
20.285
25.091
29.87
34.569
39.153
43.598
47.89
52.024
55.996
59.814
63.502
67.078
70.562
73.974
77.325
80.637
83.933
87.24
90.588
94.003
97.508
101.125
104.875
108.779
112.856
117.121
121.586
126.264
131.17
136.319
141.725
147.403
153.362
159.612
166.161
173.014
180.175
187.644
195.416
203.487
211.85
220.494
229.409
238.58
247.988
257.615
267.438
277.432
287.571
297.825
308.162
318.549
328.949
339.328
349.648
359.869
369.953
379.861
389.552
398.989
408.131
416.94
425.377
433.407
440.995
448.105
454.707
460.771
466.27
471.179
475.477
479.145
482.167
484.532
486.228
487.252
487.599
487.271
486.272
484.608
482.292
479.338
475.763
471.587
466.835
461.531
455.706
449.388
442.612
435.41
427.82
419.877
411.621
403.089
394.323
385.36
376.242
367.006
357.693
348.339
338.981
329.656
320.396
311.235
302.202
293.326
284.632
276.146
267.887
259.875
252.126
244.653
237.467
230.577
223.988
217.702
211.721
206.043
200.664
195.578
190.777
186.251
181.989
177.978
174.205
170.653
167.306
164.148
161.161
158.327
155.627
153.044
150.56
148.157
145.817
143.525
141.264
139.02
136.778
134.527
132.253
129.947
127.6
125.204
122.752
120.239
117.663
115.02
112.309
109.53
106.686
103.777
100.809
97.785
94.71
91.592
88.438
85.255
82.052
78.839
75.624
72.418
69.23
66.072
62.952
59.881
56.869
53.925
51.059
48.278
45.592
43.008
40.532
38.171
35.931
33.816
31.83
29.976
28.257
26.673
25.227
23.916
22.742
21.7
20.789
20.005
19.343
18.797
18.361
18.027
17.788
17.633
17.553
17.536
17.573
17.65
17.755
17.875
17.996
18.105
18.187
18.228
18.214
18.129
17.961
17.695
17.316
16.812
16.169
15.374
14.415
13.281
11.959
10.439
8.712
6.769
4.602
2.204
-0.431
-3.306
-6.426
-9.791
-13.402
-17.258
-21.355
-25.69
-30.257
-35.048
-40.055
-45.266
-50.671
-56.256
-62.007
-67.906
-73.938
-80.085
-86.329
-92.652
-99.033
-105.453
-111.891
-118.328
-124.742
-131.115
-137.424
-143.65
-149.771
-155.769
-161.626
-167.323
-172.842
-178.168
-183.284
-188.18
-192.843
-197.263
-201.432
-205.344
-208.994
-212.382
-215.508
-218.375
-220.987
-223.352
-225.482
-227.39
-229.089
-230.594
-231.922
-233.09
-234.115
-235.018
-235.813
-236.519
-237.154
-237.739
-238.294
-238.844
-239.407
-240.004
-240.658
-241.392
-242.227
-243.181
-244.261
-245.478
-246.842
-248.368
-250.076
-251.973
-254.053
-256.308
-258.729
-261.303
-264.012
-266.818
-269.661
-272.486
-275.253
-277.939
-280.53
-283
-285.308
-287.401
-289.236
-290.804
-292.117
-293.175
-293.965
-294.478
-294.742
-294.857
-294.949
-295.103
-295.351
-295.667
-296.039
-296.516
-297.155
-298.002
-299.059
-300.222
-301.434
-302.763
-304.198
-305.622
-306.776
-307.096
-306.037
-303.303
-298.518
-291.2
-281.188
-268.547
-253.603
-237.351
-220.978
-205.447
-192.047
-182.297
-175.735
-170.269
-164.357
-155.235
-143.1
-132.173
-121.495
-108.14
-86.139
-43.126
25.613
118.868
232.492
353.907
472.155
576.464
653.242
691.866
683.026
623.916
520.461
384.99
235.203
89.147
-37.459
-133.829
-194.037
-218.384
-211.814
-180.336
-134.489
-85.219
-43.222
-18.49
-12.744
-21.253
-34.583
-43.389
-44.576
-39.946
-34.718
-32.519
-33.21
-35.242
-36.351
-35.712
-34.119
-32.411
-31.331
-31.384
-32.802
-35.708
-40.135
-45.9
-52.711
-60.347
-68.611
-77.304
-86.213
-95.108
-103.802
-112.177
-120.167
-127.723
-134.793
-141.342
-147.35
-152.823
-157.781
-162.254
-166.268
-169.844
-173.021
-175.846
-178.375
-180.68
-182.813
-184.806
-186.685
-188.463
-190.146
-191.741
-193.24
-194.626
-195.884
-197.003
-197.974
-198.797
-199.466
-199.971
-200.303
-200.45
-200.405
-200.165
-199.731
-199.102
-198.28
-197.271
-196.083
-194.727
-193.213
-191.548
-189.738
-187.788
-185.702
-183.49
-181.156
-178.705
-176.144
-173.478
-170.716
-167.866
-164.936
-161.932
-158.86
-155.729
-152.544
-149.311
-146.038
-142.729
-139.39
-136.026
-132.641
-129.239
-125.825
-122.4
-118.967
-115.527
-112.079
-108.623
-105.157
-101.678
-98.183
-94.669
-91.129
-87.559
-83.953
-80.304
-76.606
-72.852
-69.034
-65.146
-61.178
-57.123
-52.973
-48.72
-44.357
-39.876
-35.272
-30.537
-25.667
-20.657
-15.503
-10.202
-4.752
0.848
6.596
12.492
18.531
24.708
31.018
37.45
43.996
50.642
57.376
64.18
71.039
77.932
84.841
91.742
98.614
105.432
112.172
118.808
125.313
131.66
137.823
143.773
149.484
154.928
160.078
164.907
169.389
173.498
177.211
180.503
183.352
185.736
187.636
189.033
189.91
190.254
190.051
189.291
187.966
186.071
183.603
180.562
176.948
172.768
168.028
162.737
156.908
150.553
143.691
136.338
128.516
120.245
111.551
102.458
92.993
83.184
73.06
62.652
51.991
41.108
30.038
18.814
7.469
-3.961
-15.442
-26.938
-38.414
-49.836
-61.169
-72.38
-83.435
-94.301
-104.949
-115.348
-125.469
-135.285
-144.77
-153.9
-162.652
-171.005
-178.939
-186.435
-193.478
-200.052
-206.145
-211.745
-216.842
-221.428
-225.497
-229.045
-232.067
-234.565
-236.537
-237.988
-238.921
-239.344
-239.266
-238.696
-237.647
-236.135
-234.173
-231.781
-228.976
-225.779
-222.211
-218.293
-214.05
-209.505
-204.683
-199.609
-194.308
-188.808
-183.134
-177.313
-171.372
-165.338
-159.238
-153.097
-146.942
-140.797
-134.688
-128.639
-122.671
-116.808
-111.07
-105.475
-100.042
-94.786
-89.721
-84.859
-80.209
-75.779
-71.576
-67.604
-63.864
-60.356
-57.079
-54.029
-51.203
-48.594
-46.193
-43.992
-41.979
-40.143
-38.469
-36.943
-35.549
-34.27
-33.088
-31.985
-30.945
-29.947
-28.974
-28.006
-27.024
-26.011
-24.95
-23.822
-22.611
-21.302
-19.88
-18.334
-16.654
-14.829
-12.851
-10.713
-8.411
-5.943
-3.306
-0.5
2.474
5.615
8.916
12.371
15.972
19.709
23.573
27.548
31.618
35.763
39.967
44.21
48.472
52.733
56.971
61.164
65.297
69.353
73.311
77.153
80.856
84.399
87.764
90.932
93.884
96.6
99.062
101.26
103.193
104.854
106.237
107.329
108.107
108.562
108.691
108.493
107.972
107.14
106.017
104.647
103.092
101.408
99.64
97.817
95.954
94.082
92.236
90.46
88.796
87.265
85.879
84.664
83.637
82.771
81.995
81.187
80.189
78.9
77.258
75.199
72.662
69.591
65.932
61.661
56.8
51.313
45.091
38.134
30.55
22.63
14.928
7.994
2.286
-1.596
-3.003
-1.726
2.227
8.466
15.777
23.029
29.312
33.138
34.294
34.725
35.965
39.903
45.964
49.42
49.36
49.329
59.646
95.457
162.395
257.109
366.907
473.638
570.505
656.226
729.467
789.494
824.448
819.202
768.606
673.123
541.412
390.574
234.878
88.238
-32.739
-118.269
-164.797
-174.052
-155.533
-119.093
-71.484
-19.869
28.022
65.792
88.643
97.132
98.147
97.556
98.537
101.164
101.643
98.301
92.358
85.474
80.337
78.717
80.541
85.327
92.206
99.814
106.962
113.007
117.543
120.313
121.334
120.649
118.371
114.955
110.987
106.871
102.884
99.16
95.687
92.491
89.623
87.068
84.774
82.685
80.752
78.96
77.331
75.87
74.557
73.35
72.19
71.016
69.797
68.521
67.189
65.807
64.385
62.934
61.481
60.069
58.738
57.516
56.432
55.507
54.772
54.265
54.028
54.097
54.501
55.263
56.405
57.947
59.908
62.301
65.133
68.406
72.126
76.298
80.925
86.006
91.537
97.509
103.911
110.729
117.943
125.529
133.459
141.703
150.231
159.006
167.993
177.151
186.442
195.826
205.262
214.702
224.101
233.407
242.572
251.544
260.271
268.698
276.772
284.436
291.637
298.327
304.453
309.963
314.801
318.908
322.237
324.756
326.439
327.269
327.24
326.356
324.64
322.133
318.865
314.867
310.159
304.755
298.684
291.973
284.645
276.737
268.269
259.233
249.624
239.423
228.573
217.025
204.701
191.498
177.36
162.248
146.148
129.093
111.116
92.28
72.69
52.442
31.653
10.493
-10.874
-32.247
-53.35
-73.944
-93.762
-112.483
-129.855
-145.629
-159.573
-171.548
-181.447
-189.216
-194.873
-198.432
-199.918
-199.424
-197.04
-192.907
-187.248
-180.217
-171.994
-162.851
-153.026
-142.799
-132.476
-122.259
-112.296
-102.706
-93.543
-84.878
-76.791
-69.299
-62.427
-56.183
-50.529
-45.522
-41.199
-37.503
-34.364
-31.644
-29.15
-26.783
-24.489
-22.212
-19.938
-17.644
-15.29
-12.891
-10.46
-7.99
-5.473
-2.831
0.016
3.069
6.306
9.655
12.994
16.26
19.419
22.416
25.228
27.835
30.212
32.381
34.369
36.179
37.8
39.19
40.306
41.14
41.706
42.033
42.173
42.161
42.022
41.798
41.515
41.191
40.841
40.457
40.024
39.54
39.01
38.444
37.856
37.252
36.632
35.995
35.338
34.659
33.955
33.217
32.441
31.626
30.773
29.891
28.988
28.071
27.147
26.221
25.299
24.383
23.478
22.582
21.697
20.822
19.957
19.102
18.257
17.423
16.597
15.779
14.965
14.154
13.34
12.52
11.689
10.84
9.968
9.066
8.127
7.144
6.11
5.017
3.858
2.625
1.308
-0.099
-1.605
-3.216
-4.941
-6.785
-8.755
-10.852
-13.08
-15.44
-17.928
-20.545
-23.285
-26.142
-29.11
-32.179
-35.339
-38.581
-41.892
-45.257
-48.661
-52.088
-55.519
-58.937
-62.321
-65.651
-68.905
-72.063
-75.103
-78.003
-80.743
-83.3
-85.653
-87.784
-89.672
-91.301
-92.654
-93.714
-94.469
-94.908
-95.023
-94.808
-94.259
-93.376
-92.164
-90.63
-88.787
-86.647
-84.224
-81.536
-78.603
-75.445
-72.084
-68.538
-64.83
-60.984
-57.028
-52.994
-48.912
-44.811
-40.722
-36.676
-32.705
-28.841
-25.109
-21.526
-18.115
-14.902
-11.923
-9.222
-6.83
-4.764
-3.039
-1.661
-0.624
0.079
0.484
0.645
0.614
0.437
0.142
-0.253
-0.715
-1.189
-1.615
-1.926
-2.085
-2.075
-1.876
-1.488
-0.94
-0.293
0.348
0.853
1.113
1.033
0.52
-0.513
-2.162
-4.511
-7.657
-11.718
-16.699
-22.481
-28.84
-35.362
-41.604
-47.197
-51.662
-54.419
-55.162
-53.942
-51.197
-47.819
-44.639
-42.096
-40.597
-40.707
-42.606
-45.708
-48.582
-48.927
-44.358
-33.216
-13.937
15.504
56.792
110.753
175.719
247.343
321.387
393.706
463.563
533.269
600.115
659.722
703.146
714.616
687.25
620.015
515.774
389.119
253.399
119.612
3.251
-84.695
-138.518
-155.084
-140.93
-109.968
-75.251
-50.382
-43.958
-55.175
-79.075
-106.17
-128.131
-142.569
-150.604
-156.981
-164.996
-174.45
-184.096
-191.609
-195.941
-197.808
-198.024
-197.48
-196.875
-196.529
-196.646
-197.376
-198.685
-200.433
-202.53
-204.872
-207.343
-209.84
-212.236
-214.424
-216.317
-217.807
-218.794
-219.18
-218.895
-217.911
-216.233
-213.866
-210.837
-207.191
-202.977
-198.269
-193.133
-187.619
-181.797
-175.741
-169.534
-163.284
-157.075
-150.974
-145.039
-139.314
-133.83
-128.618
-123.69
-119.042
-114.675
-110.587
-106.776
-103.25
-100.005
-97.031
-94.314
-91.837
-89.583
-87.54
-85.691
-84.019
-82.506
-81.136
-79.894
-78.768
-77.744
-76.801
-75.921
-75.083
-74.267
-73.454
-72.624
-71.756
-70.832
-69.836
-68.752
-67.568
-66.272
-64.852
-63.298
-61.603
-59.761
-57.766
-55.616
-53.308
-50.841
-48.217
-45.439
-42.511
-39.438
-36.226
-32.883
-29.416
-25.835
-22.151
-18.373
-14.513
-10.58
-6.588
-2.548
1.529
5.631
9.747
13.866
17.976
22.066
26.126
30.146
34.117
38.03
41.875
45.646
49.332
52.926
56.421
59.807
63.078
66.225
69.24
72.115
74.842
77.414
79.821
82.057
84.113
85.98
87.65
89.116
90.367
91.395
92.19
92.743
93.045
93.085
92.853
92.34
91.537
90.433
89.02
87.288
85.229
82.836
80.101
77.019
73.585
69.794
65.645
61.137
56.271
51.049
45.475
39.556
33.299
26.713
19.81
12.602
5.104
-2.668
-10.695
-18.958
-27.436
-36.104
-44.94
-53.917
-63.008
-72.185
-81.417
-90.676
-99.93
-109.147
-118.297
-127.348
-136.268
-145.025
-153.588
-161.929
-170.018
-177.827
-185.33
-192.502
-199.322
-205.768
-211.822
-217.468
-222.692
-227.483
-231.831
-235.73
-239.176
-242.167
-244.705
-246.794
-248.44
-249.651
-250.44
-250.818
-250.803
-250.413
-249.666
-248.585
-247.192
-245.513
-243.573
-241.398
-239.018
-236.458
-233.749
-230.919
-227.997
-225.01
-221.986
-218.952
-215.934
-212.956
-210.042
-207.213
-204.491
-201.893
-199.437
-197.137
-195.006
-193.056
-191.296
-189.731
-188.367
-187.205
-186.247
-185.489
-184.928
-184.557
-184.37
-184.355
-184.501
-184.796
-185.225
-185.771
-186.418
-187.149
-187.944
-188.785
-189.651
-190.523
-191.379
-192.199
-192.964
-193.651
-194.242
-194.716
-195.055
-195.241
-195.257
-195.085
-194.71
-194.118
-193.292
-192.222
-190.896
-189.302
-187.432
-185.276
-182.829
-180.085
-177.044
-173.702
-170.057
-166.108
-161.852
-157.292
-152.43
-147.271
-141.818
-136.077
-130.054
-123.761
-117.211
-110.419
-103.397
-96.158
-88.71
-81.068
-73.254
-65.293
-57.209
-49.022
-40.751
-32.416
-24.041
-15.653
-7.276
1.072
9.382
17.643
25.841
33.949
41.933
49.775
57.47
65.039
72.503
79.856
87.055
94.043
100.781
107.253
113.482
119.443
125.027
130.179
134.948
139.517
144.117
148.811
153.396
157.596
161.306
164.368
166.49
167.149
165.614
161.477
154.897
146.363
136.313
125.339
114.193
103.757
95.232
89.486
86.778
86.925
89.485
93.582
98.079
101.962
104.053
103.395
99.412
91.753
80.544
66.602
51.163
35.207
19.608
5.077
-7.811
-18.389
-26.338
-31.953
-35.943
-38.874
-41.072
-42.691
-43.802
-44.626
-45.34
-45.856
-45.879
-45.126
-43.457
-40.872
-37.517
-33.566
-29.157
-24.458
-19.64
-14.855
-10.336
-6.232
-2.534
0.92
4.506
8.606
13.384
19.001
25.821
33.982
43.327
53.356
62.899
70.965
77.035
80.361
80.077
75.856
69.117
63.092
61.42
66.634
77.566
91.499
109.569
135.87
177.281
241.025
327.004
429.57
541.823
655.029
760.094
848.349
907.973
926.451
899.228
827.845
719.302
587.41
444.439
303.034
179.781
87.545
33.035
14.65
18.924
29.716
37.394
38.41
36.275
36.565
39.634
43.556
45.784
43.627
37.455
29.18
20.293
12.667
7.776
6.017
7.476
11.782
18.002
25.298
33.008
40.427
46.984
52.376
56.436
59.175
60.782
61.428
61.28
60.516
59.28
57.703
55.918
54.078
52.375
50.96
49.936
49.368
49.277
49.68
50.594
51.995
53.824
56.016
58.505
61.237
64.18
67.274
70.442
73.599
76.643
79.504
82.14
84.52
86.627
88.453
89.998
91.281
92.343
93.214
93.923
94.494
94.945
95.305
95.611
95.899
96.206
96.567
97.012
97.574
98.284
99.168
100.252
101.555
103.096
104.893
106.966
109.335
112.017
115.03
118.384
122.091
126.162
130.601
135.408
140.58
146.111
151.991
158.208
164.746
171.586
178.705
186.079
193.681
201.482
209.447
217.543
225.733
233.977
242.236
250.469
258.632
266.683
274.576
282.27
289.72
296.883
303.716
310.178
316.228
321.828
326.94
331.529
335.564
339.014
341.853
344.056
345.604
346.48
346.672
346.17
344.967
343.062
340.454
337.15
333.155
328.482
323.144
317.159
310.547
303.332
295.54
287.2
278.342
269
259.209
249.006
238.43
227.518
216.314
204.856
193.189
181.354
169.393
157.35
145.265
133.179
121.133
109.165
97.314
85.614
74.1
62.805
51.76
40.994
30.534
20.406
10.632
1.235
-7.768
-16.358
-24.522
-32.245
-39.517
-46.329
-52.673
-58.545
-63.941
-68.859
-73.3
-77.264
-80.755
-83.779
-86.34
-88.448
-90.112
-91.34
-92.145
-92.537
-92.532
-92.14
-91.378
-90.259
-88.8
-87.015
-84.922
-82.537
-79.878
-76.963
-73.809
-70.435
-66.86
-63.102
-59.182
-55.117
-50.929
-46.638
-42.263
-37.824
-33.343
-28.839
-24.333
-19.844
-15.393
-10.998
-6.678
-2.451
1.664
5.652
9.494
13.177
16.683
20.001
23.115
26.013
28.685
31.12
33.309
35.243
36.916
38.322
39.456
40.315
40.896
41.2
41.227
40.978
40.457
39.668
38.618
37.314
35.764
33.977
31.964
29.735
27.303
24.68
21.879
18.913
15.795
12.54
9.16
5.671
2.086
-1.581
-5.317
-9.109
-12.944
-16.809
-20.694
-24.587
-28.477
-32.354
-36.208
-40.032
-43.817
-47.555
-51.241
-54.869
-58.433
-61.931
-65.358
-68.712
-71.993
-75.198
-78.328
-81.381
-84.359
-87.261
-90.089
-92.844
-95.525
-98.134
-100.672
-103.139
-105.536
-107.863
-110.119
-112.305
-114.419
-116.461
-118.427
-120.318
-122.128
-123.857
-125.5
-127.053
-128.513
-129.876
-131.136
-132.288
-133.328
-134.249
-135.046
-135.714
-136.244
-136.632
-136.873
-136.959
-136.887
-136.651
-136.245
-135.669
-134.918
-133.99
-132.883
-131.597
-130.132
-128.49
-126.674
-124.688
-122.539
-120.233
-117.781
-115.192
-112.479
-109.657
-106.74
-103.748
-100.699
-97.612
-94.511
-91.42
-88.36
-85.358
-82.436
-79.62
-76.935
-74.408
-72.063
-69.927
-68.029
-66.395
-65.053
-64.029
-63.345
-63.029
-63.102
-63.578
-64.473
-65.803
-67.581
-69.833
-72.575
-75.809
-79.533
-83.741
-88.417
-93.545
-99.088
-104.991
-111.206
-117.684
-124.385
-131.289
-138.367
-145.571
-152.848
-160.12
-167.318
-174.418
-181.397
-188.229
-194.902
-201.412
-207.81
-214.214
-220.726
-227.39
-234.205
-241.135
-248.175
-255.392
-262.858
-270.643
-278.776
-287.246
-296.11
-305.372
-314.893
-324.367
-333.198
-340.678
-346.268
-349.506
-349.888
-347.228
-341.672
-333.717
-324.585
-315.567
-307.565
-301.503
-298.197
-297.787
-299.64
-302.14
-302.407
-297.434
-284.498
-260.673
-223.268
-170.108
-101.42
-20.643
67.704
158.288
248.485
340.412
433.168
522.093
598.36
644.206
645.153
595.696
496.353
360.745
208.348
57.206
-74.045
-173.167
-235.071
-260.453
-255.541
-228.359
-188.866
-146.636
-111.601
-92.461
-91.204
-104.218
-122.266
-136.232
-142.73
-142.896
-141.968
-143.69
-148.056
-153.796
-158.598
-161.535
-163.452
-165.182
-167.488
-170.912
-175.643
-181.77
-189.328
-198.132
-207.877
-218.322
-229.237
-240.382
-251.512
-262.372
-272.764
-282.566
-291.681
-300.024
-307.519
-314.105
-319.76
-324.493
-328.304
-331.21
-333.234
-334.4
-334.761
-334.376
-333.307
-331.632
-329.408
-326.676
-323.475
-319.828
-315.755
-311.271
-306.379
-301.072
-295.352
-289.224
-282.691
-275.766
-268.454
-260.758
-252.682
-244.23
-235.404
-226.215
-216.676
-206.799
-196.599
-186.095
-175.307
-164.259
-152.974
-141.47
-129.767
-117.884
-105.839
-93.654
-81.35
-68.948
-56.471
-43.945
-31.395
-18.851
-6.34
6.108
18.464
30.696
42.774
54.666
66.337
77.755
88.886
99.695
110.146
120.205
129.834
138.999
147.664
155.796
163.361
170.326
176.661
182.335
187.321
191.593
195.126
197.9
199.895
201.094
201.486
201.059
199.809
197.733
194.832
191.112
186.581
181.253
175.143
168.272
160.663
152.343
143.343
133.697
123.442
112.618
101.268
89.438
77.175
64.529
51.553
38.3
24.823
11.178
-2.58
-16.394
-30.209
-43.969
-57.621
-71.111
-84.387
-97.398
-110.099
-122.442
-134.385
-145.888
-156.915
-167.432
-177.41
-186.821
-195.643
-203.855
-211.444
-218.395
-224.701
-230.357
-235.361
-239.715
-243.425
-246.5
-248.95
-250.791
-252.039
-252.715
-252.84
-252.437
-251.534
-250.156
-248.333
-246.095
-243.473
-240.497
-237.201
-233.615
-229.771
-225.702
-221.437
-217.008
-212.442
-207.768
-203.012
-198.2
-193.355
-188.498
-183.651
-178.832
-174.057
-169.343
-164.701
-160.144
-155.68
-151.319
-147.066
-142.924
-138.899
-134.989
-131.197
-127.519
-123.954
-120.497
-117.144
-113.888
-110.721
-107.637
-104.625
-101.677
-98.782
-95.93
-93.11
-90.312
-87.526
-84.739
-81.944
-79.129
-76.284
-73.403
-70.474
-67.492
-64.448
-61.337
-58.152
-54.888
-51.542
-48.111
-44.591
-40.982
-37.282
-33.492
-29.613
-25.646
-21.593
-17.459
-13.246
-8.96
-4.607
-0.193
4.274
8.786
13.335
17.912
22.506
27.109
31.709
36.297
40.862
45.395
49.885
54.322
58.697
63.001
67.224
71.358
75.396
79.331
83.157
86.867
90.458
93.925
97.265
100.475
103.553
106.498
109.311
111.992
114.543
116.966
119.266
121.447
123.515
125.477
127.34
129.113
130.804
132.422
133.979
135.485
136.95
138.386
139.804
141.216
142.634
144.068
145.53
147.029
148.576
150.181
151.852
153.597
155.425
157.342
159.356
161.473
163.699
166.037
168.491
171.063
173.755
176.568
179.5
182.549
185.711
188.984
192.362
195.838
199.406
203.056
206.78
210.568
214.408
218.289
222.194
226.112
230.026
233.922
237.785
241.6
245.349
249.017
252.588
256.046
259.374
262.553
265.563
268.383
270.995
273.38
275.519
277.395
278.99
280.291
281.29
281.979
282.348
282.388
282.087
281.437
280.435
279.075
277.351
275.262
272.807
269.993
266.837
263.35
259.538
255.405
250.946
246.163
241.066
235.667
229.981
224.033
217.852
211.485
204.999
198.449
191.883
185.35
178.88
172.521
166.332
160.353
154.64
149.239
144.182
139.504
135.22
131.296
127.68
124.315
121.116
118.016
114.94
111.765
108.382
104.684
100.601
96.078
90.98
85.248
78.935
72.234
65.617
59.589
54.461
50.608
48.547
48.438
50.18
53.34
56.603
58.837
59.566
57.886
52.901
44.77
34.063
23.082
16.669
17.573
26.929
45.092
69.801
102.341
146.438
205.02
281.324
372.744
472.194
571.657
660.816
731.36
777.431
791.388
766.916
701.138
592.057
446.914
283.692
122.429
-11.612
-98.472
-136.382
-132.086
-102.751
-71.585
-48.506
-37.177
-36.66
-36.936
-34.872
-31.016
-24.579
-20.435
-20.645
-23.721
-29.496
-35.463
-39.303
-40.982
-40.489
-38.242
-35.114
-31.579
-28.017
-24.981
-22.942
-22.069
-22.355
-23.681
-25.8
-28.518
-31.668
-35.008
-38.3
-41.342
-43.992
-46.162
-47.81
-48.902
-49.412
-49.336
-48.688
-47.502
-45.818
-43.686
-41.156
-38.271
-35.092
-31.69
-28.143
-24.543
-20.963
-17.451
-14.05
-10.785
-7.673
-4.728
-1.952
0.671
3.153
5.504
7.734
9.847
11.854
13.773
15.623
17.427
19.207
20.98
22.763
24.573
26.426
28.34
30.325
32.391
34.549
36.814
39.201
41.725
44.401
47.242
50.259
53.467
56.874
60.489
64.318
68.363
72.627
77.108
81.806
86.717
91.834
97.148
102.65
108.326
114.162
120.142
126.246
132.453
138.741
145.084
151.458
157.835
164.186
170.482
176.693
182.789
188.739
194.513
200.08
205.409
210.472
215.239
219.682
223.774
227.491
230.808
233.704
236.161
238.16
239.688
240.732
241.282
241.331
240.875
239.913
238.444
236.473
234.006
231.053
227.624
223.735
219.403
214.647
209.489
203.953
198.064
191.85
185.34
178.563
171.55
164.334
156.947
149.421
141.79
134.086
126.343
118.592
110.865
103.192
95.602
88.124
80.783
73.604
66.61
59.821
53.257
46.934
40.866
35.067
29.546
24.311
19.368
14.721
10.37
6.314
2.551
-0.925
-4.121
-7.046
-9.711
-12.127
-14.307
-16.265
-18.018
-19.581
-20.971
-22.206
-23.302
-24.278
-25.151
-25.939
-26.659
-27.327
-27.958
-28.568
-29.171
-29.778
-30.402
-31.054
-31.744
-32.478
-33.266
-34.113
-35.023
-36.001
-37.048
-38.165
-39.352
-40.608
-41.93
-43.314
-44.757
-46.254
-47.796
-49.38
-50.995
-52.636
-54.292
-55.956
-57.619
-59.27
-60.902
-62.505
-64.07
-65.588
-67.053
-68.455
-69.788
-71.045
-72.221
-73.309
-74.306
-75.206
-76.005
-76.701
-77.29
-77.771
-78.141
-78.4
-78.547
-78.582
-78.504
-78.315
-78.016
-77.609
-77.095
-76.476
-75.755
-74.935
-74.019
-73.01
-71.912
-70.729
-69.464
-68.122
-66.707
-65.222
-63.673
-62.063
-60.395
-58.675
-56.906
-55.091
-53.236
-51.345
-49.421
-47.47
-45.497
-43.507
-41.505
-39.497
-37.489
-35.487
-33.499
-31.531
-29.589
-27.682
-25.818
-24.003
-22.248
-20.559
-18.946
-17.417
-15.98
-14.644
-13.418
-12.31
-11.327
-10.477
-9.768
-9.207
-8.802
-8.559
-8.484
-8.582
-8.858
-9.317
-9.96
-10.788
-11.803
-13.002
-14.384
-15.946
-17.684
-19.59
-21.66
-23.883
-26.251
-28.755
-31.38
-34.114
-36.943
-39.85
-42.82
-45.836
-48.88
-51.933
-54.978
-57.995
-60.968
-63.877
-66.705
-69.432
-72.04
-74.513
-76.833
-78.986
-80.955
-82.728
-84.296
-85.651
-86.791
-87.71
-88.407
-88.883
-89.139
-89.179
-89.007
-88.622
-88.028
-87.233
-86.246
-85.084
-83.763
-82.296
-80.702
-79.001
-77.213
-75.36
-73.46
-71.522
-69.563
-67.605
-65.68
-63.83
-62.089
-60.48
-59.027
-57.748
-56.655
-55.754
-55.033
-54.459
-54.004
-53.647
-53.38
-53.205
-53.102
-53.038
-52.976
-52.869
-52.692
-52.437
-52.087
-51.651
-51.166
-50.685
-50.301
-50.118
-50.221
-50.709
-51.673
-53.189
-55.377
-58.318
-62.114
-66.959
-72.867
-79.712
-87.288
-95.1
-102.637
-109.581
-115.404
-119.444
-121.592
-122.027
-121.303
-120.791
-121.52
-123.964
-128.935
-137.084
-147.975
-160.543
-172.832
-181.548
-183.789
-177.284
-159.272
-127.093
-80.435
-21.341
47.423
121.434
197.917
278.382
361.937
443.432
516.038
567.028
582.6
558.189
492.779
390.339
265.582
132.134
5.224
-95.462
-160.585
-188.859
-186.036
-168.736
-151.299
-139.699
-135.438
-134.118
-129.256
-119.802
-106.277
-89.547
-73.785
-60.828
-50.96
-45.124
-42.016
-40.81
-41.69
-44.212
-48.141
-53.008
-58.144
-63.257
-68.033
-71.929
-74.626
-76.002
-76.326
-76.379
-76.638
-77.222
-78.252
-79.831
-82.05
-85.012
-88.552
-92.206
-95.673
-98.834
-101.65
-104.192
-106.481
-108.477
-110.213
-111.789
-113.3
-114.822
-116.4
-118.032
-119.723
-121.491
-123.354
-125.333
-127.431
-129.635
-131.921
-134.261
-136.634
-139.024
-141.412
-143.776
-146.091
-148.327
-150.458
-152.459
-154.305
-155.966
-157.414
-158.617
-159.551
-160.195
-160.53
-160.543
-160.219
-159.543
-158.5
-157.078
-155.265
-153.054
-150.438
-147.411
-143.972
-140.123
-135.872
-131.228
-126.203
-120.811
-115.07
-108.999
-102.62
-95.955
-89.031
-81.877
-74.524
-67.004
-59.353
-51.607
-43.805
-35.987
-28.194
-20.468
-12.85
-5.383
1.891
8.929
15.691
22.136
28.223
33.915
39.174
43.966
48.257
52.018
55.221
57.841
59.857
61.251
62.007
62.114
61.562
60.346
58.464
55.917
52.709
48.848
44.346
39.218
33.482
27.158
20.273
12.852
4.926
-3.472
-12.308
-21.543
-31.139
-41.054
-51.245
-61.669
-72.281
-83.033
-93.88
-104.776
-115.674
-126.528
-137.292
-147.923
-158.377
-168.613
-178.589
-188.267
-197.61
-206.582
-215.152
-223.289
-230.964
-238.153
-244.833
-250.984
-256.59
-261.635
-266.11
-270.006
-273.318
-276.042
-278.18
-279.734
-280.711
-281.117
-280.966
-280.269
-279.042
-277.303
-275.072
-272.37
-269.219
-265.643
-261.667
-257.317
-252.621
-247.605
-242.299
-236.73
-230.928
-224.922
-218.74
-212.411
-205.963
-199.423
-192.819
-186.176
-179.52
-172.874
-166.261
-159.705
-153.225
-146.84
-140.57
-134.431
-128.439
-122.606
-116.947
-111.472
-106.19
-101.111
-96.24
-91.586
-87.151
-82.94
-78.956
-75.199
-71.67
-68.369
-65.294
-62.442
-59.809
-57.392
-55.186
-53.184
-51.382
-49.771
-48.346
-47.098
-46.021
-45.105
-44.344
-43.729
-43.25
-42.901
-42.673
-42.558
-42.546
-42.632
-42.806
-43.062
-43.39
-43.785
-44.239
-44.744
-45.294
-45.881
-46.499
-47.141
-47.801
-48.473
-49.151
-49.83
-50.504
-51.168
-51.817
-52.446
-53.049
-53.622
-54.161
-54.661
-55.117
-55.524
-55.878
-56.175
-56.408
-56.574
-56.666
-56.68
-56.609
-56.449
-56.194
-55.839
-55.378
-54.807
-54.119
-53.311
-52.377
-51.312
-50.11
-48.766
-47.274
-45.63
-43.827
-41.862
-39.73
-37.426
-34.948
-32.293
-29.457
-26.439
-23.236
-19.847
-16.27
-12.505
-8.553
-4.413
-0.088
4.42
9.105
13.964
18.99
24.177
29.519
35.009
40.64
46.403
52.29
58.293
64.401
70.603
76.882
83.221
89.604
96.013
102.431
108.838
115.216
121.55
127.827
134.037
140.168
146.207
152.136
157.939
163.603
169.112
174.447
179.593
184.534
189.256
193.753
198.022
202.052
205.834
209.348
212.565
215.465
218.036
220.267
222.158
223.715
224.952
225.906
226.632
227.173
227.58
227.891
228.134
228.349
228.562
228.799
229.102
229.499
229.994
230.572
231.195
231.791
232.303
232.652
232.7
232.306
231.312
229.565
226.942
223.358
218.725
212.915
205.898
197.747
188.683
179.147
169.575
160.29
151.694
144.289
138.296
133.746
130.351
127.222
123.684
119.428
113.911
106.684
98.002
88.516
79.656
73.864
73.05
78.816
93.252
118.213
154.966
202.963
259.022
319.177
379.565
439.49
501.612
564.69
624.237
670.504
687.891
667.98
610.235
519.676
408.262
287.687
167.144
58.312
-25.859
-78.342
-97.703
-91.006
-73.49
-55.2
-40.609
-29.874
-18.409
-5.519
6.582
15.95
20.007
18.498
13.05
4.981
-3.976
-12.163
-18.912
-23.919
-27.254
-29.511
-31.234
-32.822
-34.772
-37.531
-41.285
-46.079
-51.785
-58.075
-64.661
-71.279
-77.666
-83.674
-89.227
-94.28
-98.824
-102.841
-106.309
-109.242
-111.661
-113.577
-115.002
-115.945
-116.426
-116.511
-116.278
-115.806
-115.173
-114.423
-113.584
-112.685
-111.746
-110.783
-109.809
-108.816
-107.797
-106.754
-105.692
-104.616
-103.529
-102.42
-101.274
-100.078
-98.815
-97.47
-96.032
-94.485
-92.815
-91.016
-89.077
-86.992
-84.757
-82.363
-79.798
-77.052
-74.114
-70.973
-67.618
-64.039
-60.227
-56.173
-51.874
-47.326
-42.525
-37.473
-32.168
-26.614
-20.815
-14.774
-8.5
-2.002
4.71
11.622
18.718
25.981
33.391
40.926
48.563
56.278
64.043
71.832
79.617
87.371
95.064
102.667
110.15
117.486
124.644
131.597
138.318
144.779
150.957
156.828
162.37
167.564
172.393
176.84
180.892
184.537
187.768
190.577
192.96
194.915
196.444
197.551
198.241
198.524
198.412
197.917
197.057
195.848
194.313
192.471
190.348
187.967
185.354
182.537
179.542
176.398
173.133
169.774
166.349
162.885
159.408
155.944
152.518
149.153
145.872
142.694
139.64
136.727
133.971
131.386
128.985
126.777
124.772
122.976
121.392
120.024
118.871
117.933
117.204
116.681
116.355
116.217
116.259
116.467
116.828
117.33
117.957
118.694
119.525
120.434
121.404
122.421
123.467
124.527
125.584
126.625
127.634
128.598
129.503
130.337
131.09
131.75
132.307
132.755
133.084
133.289
133.365
133.306
133.111
132.778
132.306
131.696
130.95
130.071
129.063
127.93
126.68
125.317
123.851
122.288
120.636
118.905
117.103
115.24
113.324
111.365
109.372
107.353
105.317
103.271
101.225
99.183
97.154
95.142
93.153
91.191
89.261
87.365
85.506
83.685
81.902
80.156
78.445
76.768
75.119
73.494
71.888
70.293
68.701
67.104
65.493
63.855
62.182
60.46
58.676
56.818
54.873
52.827
50.667
48.379
45.951
43.369
40.621
37.696
34.583
31.271
27.75
24.012
20.049
15.855
11.427
6.761
1.856
-3.288
-8.671
-14.287
-20.132
-26.2
-32.482
-38.969
-45.648
-52.505
-59.524
-66.687
-73.975
-81.364
-88.832
-96.354
-103.904
-111.456
-118.983
-126.456
-133.849
-141.131
-148.275
-155.251
-162.031
-168.586
-174.889
-180.912
-186.63
-192.021
-197.064
-201.74
-206.032
-209.926
-213.408
-216.468
-219.097
-221.287
-223.034
-224.335
-225.191
-225.606
-225.588
-225.149
-224.302
-223.068
-221.468
-219.527
-217.268
-214.718
-211.902
-208.846
-205.577
-202.119
-198.501
-194.751
-190.9
-186.984
-183.038
-179.092
-175.18
-171.33
-167.567
-163.917
-160.402
-157.032
-153.821
-150.788
-147.955
-145.362
-143.037
-140.995
-139.243
-137.785
-136.614
-135.725
-135.09
-134.651
-134.346
-134.12
-133.932
-133.78
-133.66
-133.543
-133.396
-133.161
-132.803
-132.344
-131.791
-131.128
-130.338
-129.389
-128.329
-127.323
-126.532
-126.082
-126.066
-126.473
-127.34
-128.838
-130.989
-133.679
-136.725
-139.732
-142.379
-144.589
-146.116
-146.535
-145.77
-143.948
-141.297
-138.49
-136.228
-135.029
-135.608
-138.834
-143.782
-147.827
-149.995
-149.622
-147.431
-146.942
-145.15
-134.183
-108.617
-62.64
1.74
73.302
145.855
215.996
280.015
337.767
382.048
399.644
385.003
337.324
263.017
174.801
79.369
-18.159
-111.874
-194.88
-256.426
-290.362
-298.678
-289.814
-274.898
-261.122
-249.893
-239.074
-227.408
-215.653
-205.751
-200.196
-199.486
-202.456
-207.886
-214.041
-219.365
-223.3
-225.561
-226.16
-225.639
-224.493
-223.11
-222.056
-221.846
-222.707
-224.739
-227.858
-231.798
-236.357
-241.337
-246.529
-251.744
-256.802
-261.577
-265.999
-270.013
-273.581
-276.672
-279.244
-281.272
-282.758
-283.697
-284.106
-284.014
-283.436
-282.405
-280.956
-279.121
-276.947
-274.469
-271.698
-268.644
-265.309
-261.683
-257.765
-253.548
-249.01
-244.135
-238.91
-233.319
-227.356
-221.012
-214.272
-207.123
-199.552
-191.548
-183.108
-174.234
-164.925
-155.186
-145.026
-134.456
-123.494
-112.157
-100.46
-88.42
-76.051
-63.373
-50.407
-37.175
-23.7
-10.006
3.88
17.928
32.108
46.386
60.73
75.111
89.497
103.857
118.161
132.373
146.457
160.379
174.103
187.596
200.823
213.748
226.338
238.563
250.396
261.814
272.795
283.31
293.336
302.844
311.805
320.214
328.064
335.354
342.09
348.247
353.803
358.761
363.115
366.869
370.054
372.62
374.508
375.827
376.648
377.063
377.207
376.959
376.145
374.852
373.14
370.812
367.781
363.798
358.533
352.365
345.721
338.628
331.217
323.768
316.402
309.587
303.866
298.826
294.038
289.445
284.835
280.095
275.251
269.92
263.693
256.911
249.89
242.749
235.735
228.854
222.038
215.505
209.454
203.761
198.327
193.084
187.904
182.833
177.933
173.149
168.449
163.838
159.311
154.883
150.583
146.376
142.224
138.1
133.955
129.771
125.54
121.235
116.838
112.338
107.73
103.03
98.278
93.501
88.72
83.958
79.23
74.576
70.045
65.672
61.503
57.561
53.845
50.366
47.134
44.122
41.31
38.643
35.996
33.254
30.322
27.084
23.452
19.286
14.357
8.531
1.838
-5.506
-13.138
-20.738
-28.095
-34.902
-40.627
-44.848
-47.565
-49.39
-51.328
-54.165
-58.463
-64.759
-73.695
-85.925
-100.216
-113.05
-122.038
-125.668
-124.016
-119.824
-109.871
-86.259
-43.998
21.131
105.93
198.879
293.775
388.281
479.177
565.024
637.29
680.082
683.746
645.686
571.028
473.131
364.332
253.534
150.245
64.691
4.462
-26.152
-31.027
-22.549
-9.968
1.632
12.048
26.624
46.241
68.066
89.383
106.614
118.819
127.407
133.236
137.216
140.586
144.3
149
154.963
161.841
168.918
175.58
181.267
185.296
187.052
186.218
182.714
176.69
168.483
158.436
146.883
134.258
120.964
107.234
93.253
79.178
65.164
51.484
38.46
26.357
15.383
5.68
-2.676
-9.598
-15.037
-19.028
-21.635
-22.981
-23.183
-22.227
-20.098
-16.832
-12.502
-7.278
-1.392
4.997
11.763
18.785
25.977
33.235
40.46
47.619
54.693
61.666
68.511
75.119
81.381
87.251
92.714
97.815
102.647
107.249
111.638
115.852
119.907
123.822
127.615
131.261
134.724
137.991
141.062
143.974
146.763
149.432
151.965
154.331
156.478
158.376
160.003
161.323
162.316
162.968
163.271
163.239
162.896
162.25
161.304
160.055
158.499
156.638
154.484
152.045
149.336
146.37
143.163
139.733
136.098
132.27
128.259
124.073
119.715
115.193
110.515
105.691
100.733
95.655
90.469
85.192
79.842
74.433
68.982
63.505
58.017
52.533
47.071
41.648
36.279
30.982
25.774
20.672
15.692
10.849
6.158
1.632
-2.714
-6.871
-10.826
-14.572
-18.099
-21.402
-24.474
-27.313
-29.916
-32.284
-34.417
-36.32
-37.999
-39.461
-40.716
-41.776
-42.657
-43.373
-43.942
-44.384
-44.719
-44.969
-45.156
-45.305
-45.44
-45.586
-45.769
-46.015
-46.348
-46.796
-47.381
-48.129
-49.06
-50.198
-51.563
-53.171
-55.04
-57.185
-59.617
-62.347
-65.382
-68.728
-72.388
-76.362
-80.647
-85.239
-90.129
-95.309
-100.765
-106.482
-112.443
-118.629
-125.018
-131.587
-138.31
-145.161
-152.112
-159.135
-166.2
-173.276
-180.333
-187.342
-194.27
-201.089
-207.77
-214.284
-220.604
-226.705
-232.564
-238.158
-243.466
-248.471
-253.157
-257.509
-261.517
-265.169
-268.461
-271.387
-273.945
-276.134
-277.959
-279.423
-280.534
-281.302
-281.737
-281.853
-281.667
-281.194
-280.454
-279.467
-278.255
-276.84
-275.246
-273.498
-271.62
-269.638
-267.579
-265.466
-263.327
-261.186
-259.067
-256.995
-254.991
-253.079
-251.28
-249.612
-248.095
-246.746
-245.582
-244.616
-243.861
-243.329
-243.03
-242.971
-243.16
-243.6
-244.295
-245.247
-246.456
-247.92
-249.637
-251.6
-253.805
-256.244
-258.907
-261.784
-264.864
-268.134
-271.579
-275.185
-278.936
-282.816
-286.808
-290.894
-295.056
-299.276
-303.535
-307.815
-312.096
-316.361
-320.59
-324.766
-328.87
-332.887
-336.798
-340.59
-344.245
-347.75
-351.091
-354.254
-357.228
-360.002
-362.565
-364.909
-367.025
-368.906
-370.548
-371.947
-373.1
-374.006
-374.665
-375.08
-375.252
-375.187
-374.89
-374.368
-373.63
-372.685
-371.545
-370.222
-368.727
-367.076
-365.282
-363.361
-361.327
-359.196
-356.984
-354.706
-352.38
-350.02
-347.645
-345.269
-342.909
-340.581
-338.301
-336.082
-333.941
-331.888
-329.937
-328.099
-326.382
-324.797
-323.348
-322.043
-320.884
-319.875
-319.015
-318.303
-317.735
-317.305
-317.006
-316.829
-316.763
-316.795
-316.913
-317.102
-317.348
-317.633
-317.943
-318.26
-318.565
-318.839
-319.062
-319.216
-319.278
-319.227
-319.045
-318.708
-318.2
-317.502
-316.596
-315.466
-314.096
-312.473
-310.584
-308.419
-305.969
-303.227
-300.189
-296.853
-293.221
-289.298
-285.092
-280.612
-275.871
-270.882
-265.662
-260.229
-254.6
-248.795
-242.836
-236.746
-230.551
-224.279
-217.96
-211.624
-205.305
-199.04
-192.862
-186.807
-180.905
-175.187
-169.683
-164.42
-159.423
-154.716
-150.321
-146.256
-142.545
-139.206
-136.256
-133.705
-131.561
-129.827
-128.51
-127.612
-127.125
-127.045
-127.365
-128.086
-129.219
-130.771
-132.738
-135.11
-137.871
-140.996
-144.456
-148.212
-152.188
-156.308
-160.489
-164.65
-168.749
-172.744
-176.581
-180.197
-183.522
-186.499
-189.119
-191.369
-193.197
-194.582
-195.525
-196.089
-196.455
-196.785
-197.202
-197.86
-198.904
-200.423
-202.453
-204.889
-207.429
-209.819
-211.902
-213.46
-214.23
-214.054
-213.015
-211.567
-210.54
-210.606
-211.882
-214.63
-219.56
-226.963
-236.604
-246.489
-252.611
-252.91
-247.054
-235.854
-221.877
-202.148
-170.913
-125.215
-60.723
19.318
106.248
197.261
286.025
366.067
434.493
479.935
490.699
463.409
396.062
294.149
173.808
48.566
-66.283
-153.015
-206.246
-225.905
-217.964
-197.38
-172.108
-145.583
-118.826
-87.913
-53.515
-19.136
12.48
37.232
53.156
61.319
63.249
61.577
59.594
59.079
60.867
65.831
74.491
86.792
102.38
120.122
138.213
155.598
171.836
186.556
199.637
211.02
220.666
228.942
236.505
243.76
250.94
258.159
265.382
272.677
280.141
287.774
295.536
303.386
311.283
319.232
327.26
335.346
343.459
351.544
359.53
367.36
374.969
382.307
389.348
396.061
402.426
408.428
414.047
419.272
424.109
428.55
432.585
436.21
439.413
442.193
444.569
446.555
448.161
449.393
450.236
450.685
450.747
450.428
449.738
448.694
447.307
445.608
443.658
441.516
439.237
436.871
434.429
431.923
429.367
426.772
424.154
421.505
418.775
415.897
412.83
409.519
405.917
401.963
397.524
392.485
386.758
380.27
373.006
364.974
356.172
346.62
336.39
325.599
314.456
303.221
292.103
281.323
271.079
261.563
253.052
245.792
239.977
235.771
233.287
232.611
233.843
237.057
242.217
249.206
257.786
267.623
278.423
289.878
301.706
313.657
325.429
336.751
347.412
357.233
366.051
373.713
380.033
384.824
388.015
389.612
389.73
388.587
386.394
383.386
379.776
375.739
371.451
367.058
362.655
358.311
354.103
350.109
346.449
343.274
340.667
338.671
337.267
336.37
335.88
335.671
335.629
335.662
335.701
335.705
335.666
335.593
335.494
335.38
335.234
335.02
334.715
334.305
333.794
333.209
332.588
331.989
331.463
331.051
330.78
330.661
330.693
330.873
331.188
331.61
332.114
332.672
333.259
333.864
334.472
335.062
335.621
336.137
336.614
337.079
337.553
338.05
338.578
339.133
339.727
340.392
341.154
342.039
343.056
344.193
345.441
346.788
348.165
349.471
350.568
351.287
351.507
351.13
350.056
348.199
345.43
341.609
336.651
330.451
322.911
314.066
303.953
292.752
280.989
269.225
258.064
248.262
240.22
234.015
229.805
227.119
224.833
221.948
217.114
209.789
201.403
193.437
186.329
178.56
167.55
153.468
142.235
146.141
175.806
233.795
314.811
404.503
491.462
575.413
657.635
739.567
816.831
870.582
882.131
842.056
747.911
612.773
459.395
307.615
179.379
91.016
44.714
36.595
53.121
76.415
98.125
114.908
128.683
145.1
163.958
182.439
197.691
205.631
204.932
197.075
183.822
167.934
152.31
138.31
126.621
117.936
112.724
110.972
112.267
115.531
119.17
122.269
124.483
125.513
125.175
123.36
120.038
115.522
110.455
105.261
100.083
94.975
89.875
84.781
79.792
74.923
70.095
65.247
60.346
55.405
50.493
45.647
40.839
36.027
31.15
26.149
21.005
15.71
10.254
4.636
-1.144
-7.08
-13.144
-19.298
-25.514
-31.766
-38.037
-44.304
-50.531
-56.675
-62.69
-68.53
-74.154
-79.525
-84.603
-89.354
-93.747
-97.755
-101.358
-104.537
-107.276
-109.557
-111.368
-112.693
-113.524
-113.855
-113.682
-113.006
-111.83
-110.161
-108.01
-105.393
-102.327
-98.834
-94.936
-90.66
-86.035
-81.091
-75.861
-70.382
-64.69
-58.824
-52.825
-46.734
-40.592
-34.443
-28.329
-22.29
-16.367
-10.599
-5.024
0.324
5.41
10.203
14.672
18.792
22.538
25.887
28.82
31.32
33.375
34.976
36.114
36.786
36.992
36.734
36.016
34.846
33.235
31.194
28.739
25.887
22.657
19.071
15.15
10.921
6.406
1.634
-3.369
-8.577
-13.963
-19.501
-25.164
-30.927
-36.765
-42.656
-48.576
-54.504
-60.419
-66.304
-72.14
-77.912
-83.605
-89.206
-94.705
-100.089
-105.352
-110.484
-115.48
-120.335
-125.043
-129.601
-134.009
-138.263
-142.365
-146.315
-150.113
-153.761
-157.261
-160.615
-163.825
-166.893
-169.819
-172.604
-175.25
-177.755
-180.12
-182.342
-184.419
-186.35
-188.13
-189.756
-191.223
-192.527
-193.662
-194.623
-195.404
-196.002
-196.41
-196.624
-196.641
-196.457
-196.07
-195.477
-194.678
-193.671
-192.459
-191.041
-189.42
-187.6
-185.586
-183.385
-181.003
-178.45
-175.737
-172.875
-169.878
-166.762
-163.542
-160.236
-156.863
-153.444
-149.999
-146.55
-143.12
-139.732
-136.41
-133.177
-130.056
-127.07
-124.242
-121.592
-119.14
-116.905
-114.904
-113.154
-111.669
-110.462
-109.543
-108.923
-108.609
-108.605
-108.916
-109.544
-110.486
-111.74
-113.302
-115.165
-117.318
-119.752
-122.452
-125.405
-128.594
-132
-135.603
-139.383
-143.316
-147.38
-151.55
-155.801
-160.109
-164.448
-168.794
-173.122
-177.408
-181.63
-185.764
-189.791
-193.689
-197.44
-201.026
-204.431
-207.64
-210.639
-213.417
-215.962
-218.268
-220.325
-222.128
-223.673
-224.958
-225.982
-226.744
-227.247
-227.493
-227.488
-227.238
-226.748
-226.029
-225.088
-223.936
-222.584
-221.043
-219.324
-217.441
-215.404
-213.225
-210.918
-208.493
-205.961
-203.336
-200.626
-197.842
-194.996
-192.095
-189.15
-186.17
-183.161
-180.133
-177.091
-174.044
-170.998
-167.958
-164.93
-161.919
-158.93
-155.967
-153.034
-150.134
-147.271
-144.449
-141.669
-138.934
-136.249
-133.615
-131.035
-128.513
-126.052
-123.655
-121.328
-119.075
-116.9
-114.809
-112.808
-110.904
-109.102
-107.409
-105.834
-104.383
-103.063
-101.884
-100.853
-99.979
-99.27
-98.733
-98.378
-98.213
-98.247
-98.488
-98.944
-99.623
-100.532
-101.679
-103.069
-104.709
-106.602
-108.751
-111.16
-113.831
-116.763
-119.957
-123.411
-127.121
-131.082
-135.29
-139.737
-144.415
-149.314
-154.421
-159.726
-165.215
-170.874
-176.686
-182.635
-188.705
-194.876
-201.131
-207.451
-213.814
-220.199
-226.583
-232.947
-239.267
-245.522
-251.69
-257.749
-263.68
-269.468
-275.097
-280.55
-285.812
-290.869
-295.708
-300.316
-304.682
-308.787
-312.619
-316.168
-319.427
-322.392
-325.059
-327.425
-329.487
-331.247
-332.705
-333.862
-334.714
-335.251
-335.471
-335.38
-334.989
-334.323
-333.398
-332.22
-330.797
-329.134
-327.222
-325.055
-322.608
-319.83
-316.69
-313.168
-309.245
-304.931
-300.204
-295.029
-289.388
-283.248
-276.592
-269.426
-261.745
-253.563
-244.948
-235.983
-226.773
-217.45
-208.11
-198.85
-189.798
-181.054
-172.75
-164.996
-157.877
-151.551
-146.063
-141.324
-137.148
-133.116
-128.732
-123.661
-117.457
-109.541
-99.828
-88.497
-76.067
-63.801
-52.668
-43.146
-36.011
-31.881
-30.438
-30.881
-31.325
-28.589
-20.316
-4.59
21.01
58.424
108.942
171.934
243.631
319.309
394.92
469.781
546.216
622.377
692.656
745.44
764.791
744.644
686.677
599.991
499.497
392.704
284.467
180.278
86.484
13.66
-31.654
-51.21
-53.359
-49.002
-45.329
-43.839
-42.479
-40.18
-37.831
-37.342
-40.991
-49.056
-60.137
-72.765
-85.083
-95.387
-102.912
-107.302
-108.565
-107.315
-104.316
-100.204
-95.692
-91.456
-87.824
-84.971
-82.956
-81.632
-80.842
-80.464
-80.312
-80.221
-80.13
-79.969
-79.672
-79.156
-78.261
-76.856
-74.887
-72.318
-69.146
-65.376
-61.008
-56.078
-50.672
-44.871
-38.75
-32.37
-25.773
-19.019
-12.19
-5.373
1.329
7.837
14.098
20.064
25.699
30.977
35.876
40.397
44.556
48.368
51.837
54.969
57.766
60.238
62.403
64.279
65.887
67.245
68.372
69.289
70.017
70.577
70.986
71.262
71.42
71.477
71.453
71.369
71.244
71.099
70.953
70.825
70.734
70.694
70.721
70.826
71.019
71.307
71.698
72.196
72.802
73.519
74.344
75.277
76.312
77.443
78.663
79.963
81.332
82.76
84.233
85.739
87.261
88.786
90.297
91.777
93.212
94.582
95.872
97.065
98.143
99.092
99.895
100.538
101.006
101.287
101.368
101.241
100.895
100.324
99.521
98.482
97.203
95.683
93.922
91.92
89.68
87.206
84.503
81.576
78.434
75.086
71.54
67.808
63.902
59.834
55.618
51.268
46.797
42.222
37.557
32.819
28.022
23.183
18.318
13.442
8.57
3.717
-1.101
-5.872
-10.581
-15.215
-19.764
-24.215
-28.557
-32.78
-36.876
-40.835
-44.649
-48.312
-51.817
-55.159
-58.332
-61.331
-64.154
-66.798
-69.258
-71.534
-73.623
-75.524
-77.235
-78.757
-80.087
-81.227
-82.174
-82.93
-83.493
-83.864
-84.042
-84.029
-83.823
-83.425
-82.835
-82.053
-81.081
-79.917
-78.564
-77.021
-75.291
-73.376
-71.276
-68.995
-66.535
-63.901
-61.096
-58.124
-54.991
-51.703
-48.267
-44.691
-40.984
-37.155
-33.216
-29.177
-25.054
-20.858
-16.606
-12.313
-7.995
-3.671
0.641
4.923
9.155
13.317
17.389
21.351
25.183
28.864
32.376
35.7
38.816
41.707
44.356
46.747
48.866
50.699
52.233
53.459
54.367
54.95
55.203
55.122
54.707
53.959
52.882
51.48
49.762
47.739
45.423
42.829
39.973
36.876
33.556
30.038
26.345
22.503
18.537
14.476
10.346
6.177
1.997
-2.166
-6.283
-10.327
-14.268
-18.082
-21.74
-25.22
-28.495
-31.545
-34.348
-36.884
-39.138
-41.093
-42.736
-44.056
-45.045
-45.696
-46.006
-45.973
-45.598
-44.886
-43.843
-42.478
-40.803
-38.831
-36.577
-34.06
-31.297
-28.308
-25.113
-21.735
-18.195
-14.517
-10.724
-6.84
-2.891
1.1
5.108
9.108
13.077
16.991
20.829
24.568
28.187
31.668
34.991
38.138
41.092
43.835
46.355
48.637
50.671
52.446
53.955
55.192
56.152
56.833
57.236
57.357
57.197
56.755
56.027
55.014
53.718
52.137
50.274
48.132
45.719
43.046
40.124
36.967
33.585
29.99
26.192
22.201
18.028
13.683
9.177
4.525
-0.256
-5.148
-10.127
-15.172
-20.267
-25.402
-30.582
-35.806
-41.067
-46.353
-51.645
-56.914
-62.131
-67.251
-72.215
-76.963
-81.436
-85.583
-89.368
-92.766
-95.758
-98.306
-100.353
-101.849
-102.785
-103.188
-103.102
-102.57
-101.626
-100.314
-98.754
-97.12
-95.565
-94.217
-93.188
-92.516
-92.293
-92.74
-93.938
-95.804
-98.138
-100.493
-102.407
-103.648
-103.808
-102.245
-98.769
-93.538
-86.946
-79.999
-73.76
-69.004
-66.738
-68.185
-72.521
-77.03
-80.365
-81.047
-78.847
-76.268
-69.595
-50.374
-13.05
47.237
127.975
217.765
309.286
399.695
486.791
569.041
639.529
683.372
686.235
642.713
554.522
430.707
287.544
138.707
-2.389
-118.955
-200.726
-244.302
-253.468
-242.411
-225.554
-210.098
-197.596
-184.429
-166.674
-145.363
-123.621
-104.976
-92.327
-86.06
-85.956
-91.494
-101.068
-113.112
-126.161
-138.627
-149.807
-159.388
-166.637
-171.257
-173.526
-173.884
-173.2
-172.515
-172.259
-172.617
-173.867
-175.98
-178.82
-182.214
-185.724
-188.841
-191.295
-192.941
-193.69
-193.584
-192.63
-190.815
-188.199
-184.861
-180.859
-176.236
-171.017
-165.215
-158.869
-152.053
-144.826
-137.24
-129.335
-121.128
-112.635
-103.869
-94.84
-85.551
-76.01
-66.231
-56.225
-46.01
-35.606
-25.026
-14.281
-3.377
7.68
18.882
30.212
41.655
53.188
64.791
76.436
88.097
99.745
111.356
122.907
134.375
145.738
156.972
168.054
178.96
189.665
200.145
210.372
220.321
229.965
239.282
248.246
256.837
265.033
272.812
280.156
287.046
293.464
299.396
304.824
309.735
314.116
317.956
321.245
323.975
326.14
327.735
328.758
329.208
329.086
328.394
327.136
325.318
322.949
320.038
316.596
312.639
308.18
303.24
297.839
291.999
285.744
279.1
272.094
264.752
257.105
249.183
241.015
232.633
224.068
215.354
206.525
197.614
188.655
179.683
170.731
161.833
153.025
144.336
135.8
127.445
119.303
111.401
103.771
96.437
89.425
82.76
76.463
70.554
65.052
59.967
55.309
51.084
47.296
43.948
41.04
38.569
36.532
34.927
33.755
33.012
32.69
32.777
33.26
34.122
35.35
36.924
38.823
41.023
43.5
46.237
49.221
52.429
55.833
59.396
63.072
66.819
70.607
74.403
78.178
81.908
85.576
89.188
92.769
96.34
99.915
103.507
107.118
110.767
114.486
118.296
122.224
126.291
130.49
134.807
139.226
143.689
148.129
152.479
156.61
160.392
163.695
166.355
168.232
169.208
169.13
167.805
165.149
161.202
156.173
150.52
144.706
139.097
134.136
130.349
128.034
127.133
127.153
126.943
125.356
121.684
115.217
105.32
92.014
76.091
59.37
44.983
36.113
35.55
46.359
71.351
112.76
170.37
240.405
318.001
397.882
478.147
561.925
648.469
732.526
803.895
842.813
834.113
772.62
658.349
506.271
339.235
177.425
43.969
-46.254
-92.794
-99.944
-78.838
-42.708
1.611
47.501
87.552
117.295
133.064
135.272
129.89
121.538
113.181
105.666
96.479
84.952
72.058
59.024
48.557
42.45
40.614
42.432
46.464
50.838
54.71
57.791
59.754
60.447
59.797
57.787
54.799
51.551
48.496
45.816
43.594
41.772
40.369
39.48
39.106
39.161
39.57
40.285
41.307
42.68
44.41
46.449
48.73
51.17
53.693
56.252
58.815
61.35
63.831
66.232
68.538
70.748
72.869
74.904
76.851
78.703
80.457
82.125
83.721
85.269
86.789
88.299
89.815
91.351
92.923
94.542
96.22
97.963
99.776
101.667
103.644
105.714
107.888
110.172
112.57
115.087
117.724
120.484
123.363
126.358
129.462
132.667
135.963
139.339
142.78
146.272
149.797
153.336
156.868
160.373
163.826
167.203
170.479
173.627
176.622
179.436
182.042
184.416
186.532
188.365
189.892
191.091
191.94
192.422
192.517
192.21
191.486
190.334
188.743
186.705
184.215
181.27
177.87
174.016
169.714
164.97
159.793
154.195
148.191
141.795
135.026
127.902
120.446
112.68
104.629
96.316
87.769
79.013
70.077
60.987
51.771
42.455
33.066
23.631
14.174
4.722
-4.704
-14.078
-23.38
-32.588
-41.683
-50.645
-59.456
-68.101
-76.564
-84.83
-92.888
-100.725
-108.331
-115.698
-122.818
-129.684
-136.291
-142.635
-148.712
-154.522
-160.062
-165.333
-170.335
-175.07
-179.54
-183.746
-187.693
-191.383
-194.821
-198.01
-200.955
-203.661
-206.132
-208.374
-210.393
-212.195
-213.786
-215.174
-216.365
-217.37
-218.195
-218.851
-219.347
-219.694
-219.902
-219.983
-219.948
-219.808
-219.577
-219.267
-218.889
-218.457
-217.984
-217.48
-216.959
-216.433
-215.912
-215.41
-214.935
-214.5
-214.112
-213.782
-213.518
-213.326
-213.214
-213.186
-213.247
-213.4
-213.645
-213.983
-214.411
-214.927
-215.525
-216.198
-216.939
-217.735
-218.577
-219.451
-220.342
-221.234
-222.111
-222.955
-223.747
-224.467
-225.097
-225.616
-226.005
-226.245
-226.315
-226.198
-225.877
-225.334
-224.554
-223.524
-222.23
-220.663
-218.812
-216.672
-214.238
-211.508
-208.48
-205.16
-201.551
-197.661
-193.503
-189.089
-184.436
-179.563
-174.492
-169.246
-163.853
-158.341
-152.741
-147.086
-141.41
-135.748
-130.137
-124.614
-119.217
-113.983
-108.949
-104.153
-99.632
-95.419
-91.55
-88.056
-84.968
-82.314
-80.122
-78.414
-77.213
-76.536
-76.4
-76.818
-77.797
-79.345
-81.464
-84.154
-87.41
-91.225
-95.588
-100.484
-105.897
-111.804
-118.183
-125.006
-132.245
-139.867
-147.838
-156.123
-164.683
-173.48
-182.474
-191.623
-200.887
-210.223
-219.59
-228.946
-238.251
-247.464
-256.546
-265.459
-274.166
-282.631
-290.821
-298.703
-306.247
-313.424
-320.209
-326.576
-332.505
-337.975
-342.971
-347.476
-351.479
-354.971
-357.944
-360.393
-362.317
-363.714
-364.587
-364.94
-364.781
-364.117
-362.957
-361.314
-359.2
-356.628
-353.612
-350.169
-346.313
-342.06
-337.426
-332.43
-327.088
-321.418
-315.438
-309.166
-302.622
-295.824
-288.79
-281.54
-274.091
-266.464
-258.675
-250.745
-242.691
-234.532
-226.285
-217.97
-209.603
-201.204
-192.789
-184.375
-175.978
-167.615
-159.302
-151.057
-142.894
-134.832
-126.888
-119.082
-111.438
-103.977
-96.721
-89.691
-82.909
-76.399
-70.18
-64.27
-58.68
-53.425
-48.52
-43.983
-39.829
-36.071
-32.72
-29.787
-27.284
-25.221
-23.604
-22.433
-21.7
-21.406
-21.554
-22.156
-23.229
-24.782
-26.809
-29.301
-32.247
-35.625
-39.407
-43.541
-47.951
-52.569
-57.337
-62.204
-67.129
-72.05
-76.895
-81.593
-86.073
-90.274
-94.163
-97.721
-100.936
-103.84
-106.478
-108.912
-111.269
-113.671
-116.238
-119.1
-122.358
-126.094
-130.43
-135.531
-141.454
-148.141
-155.376
-162.707
-169.705
-176.038
-181.288
-184.935
-186.656
-186.409
-184.574
-182.197
-180.256
-179.257
-179.676
-181.89
-185.811
-190.84
-195.499
-196.995
-192.542
-180.115
-157.604
-123.202
-75.725
-14.344
58.975
139.057
221.303
301.337
378.257
455.629
531.686
601.396
654.559
673.621
650.669
584.748
480.706
356.542
226.791
104.957
7.325
-61.485
-100.322
-113.138
-113.754
-109.7
-104.313
-98.647
-87.738
-71.115
-52.217
-33.685
-19.054
-9.601
-4.091
-1.398
-0.311
0.715
2.948
7.015
13.062
20.715
29.25
38.072
46.731
54.646
61.222
66.153
69.345
70.923
71.206
70.443
68.833
66.621
64.044
61.325
58.696
56.325
54.3
52.704
51.589
50.988
50.941
51.463
52.526
54.094
56.123
58.567
61.395
64.562
68.013
71.68
75.485
79.372
83.31
87.278
91.27
95.283
99.313
103.375
107.495
111.698
116.004
120.427
124.974
129.656
134.49
139.496
144.689
150.079
155.67
161.467
167.471
173.682
180.094
186.698
193.48
200.429
207.535
214.788
222.176
229.688
237.306
245.018
252.806
260.654
268.54
276.443
284.339
292.204
300.015
307.745
315.37
322.862
330.194
337.339
344.271
350.962
357.386
363.514
369.321
374.782
379.873
384.572
388.857
392.708
396.107
399.038
401.486
403.44
404.887
405.821
406.235
406.124
405.489
404.328
402.645
400.445
397.735
394.525
390.827
386.653
382.021
376.946
371.448
365.548
359.268
352.632
345.663
338.388
330.833
323.025
314.991
306.759
298.355
289.807
281.141
272.382
263.556
254.686
245.795
236.904
228.033
219.2
210.421
201.711
193.082
184.545
176.109
167.782
159.569
151.475
143.503
135.653
127.925
120.318
112.828
105.45
98.179
91.009
83.931
76.938
70.021
63.171
56.379
49.635
42.931
36.257
29.605
22.967
16.337
9.707
3.072
-3.571
-10.225
-16.891
-23.569
-30.256
-36.951
-43.648
-50.342
-57.025
-63.689
-70.325
-76.923
-83.471
-89.957
-96.368
-102.692
-108.913
-115.018
-120.991
-126.819
-132.488
-137.982
-143.289
-148.396
-153.289
-157.957
-162.389
-166.576
-170.507
-174.175
-177.574
-180.698
-183.545
-186.111
-188.397
-190.404
-192.133
-193.59
-194.78
-195.708
-196.383
-196.814
-197.01
-196.982
-196.743
-196.304
-195.677
-194.878
-193.919
-192.814
-191.576
-190.221
-188.76
-187.207
-185.575
-183.874
-182.118
-180.317
-178.48
-176.618
-174.739
-172.852
-170.964
-169.08
-167.205
-165.346
-163.503
-161.681
-159.88
-158.102
-156.347
-154.614
-152.904
-151.214
-149.544
-147.89
-146.251
-144.624
-143.007
-141.395
-139.786
-138.176
-136.563
-134.945
-133.318
-131.682
-130.035
-128.377
-126.705
-125.02
-123.322
-121.61
-119.883
-118.141
-116.383
-114.61
-112.822
-111.018
-109.199
-107.365
-105.517
-103.655
-101.779
-99.889
-97.984
-96.062
-94.123
-92.165
-90.187
-88.186
-86.161
-84.112
-82.038
-79.939
-77.813
-75.66
-73.478
-71.264
-69.017
-66.735
-64.417
-62.06
-59.664
-57.23
-54.765
-52.274
-49.764
-47.242
-44.715
-42.192
-39.682
-37.191
-34.724
-32.284
-29.876
-27.509
-25.196
-22.948
-20.775
-18.69
-16.706
-14.836
-13.091
-11.48
-10.008
-8.679
-7.503
-6.494
-5.674
-5.077
-4.727
-4.639
-4.827
-5.3
-6.058
-7.096
-8.389
-9.894
-11.575
-13.397
-15.325
-17.332
-19.381
-21.431
-23.442
-25.354
-27.125
-28.747
-30.213
-31.532
-32.73
-33.804
-34.803
-35.851
-37.045
-38.502
-40.362
-42.69
-45.618
-49.377
-54.022
-59.487
-65.638
-72.078
-78.398
-84.353
-89.466
-93.139
-95.337
-96.346
-96.681
-97.428
-99.63
-104.052
-111.684
-123.581
-138.636
-153.872
-167.607
-177.814
-183.957
-188.619
-187.875
-174.13
-142.636
-86.906
-8.937
81.588
179.561
278.208
372.285
457.439
523.378
560.575
560.828
522.549
450.909
350.938
233.214
108.867
-10.596
-107.825
-171.645
-199.104
-192.878
-163.629
-122.077
-74.95
-28.898
9.371
34.908
44.202
38.597
25.779
12.742
4.047
1.095
0.255
-1.411
-4.245
-7.478
-8.763
-6.472
-1.178
5.685
12.795
19.295
24.997
30.037
34.328
37.592
39.891
41.609
43.116
44.804
46.841
49.131
51.646
54.413
57.426
60.691
64.202
67.889
71.723
75.729
79.919
84.318
88.916
93.646
98.421
103.153
107.778
112.263
116.583
120.71
124.62
128.288
131.704
134.875
137.803
140.478
142.891
145.026
146.878
148.464
149.8
150.907
151.799
152.491
152.998
153.337
153.526
153.577
153.5
153.302
152.994
152.59
152.107
151.561
150.969
150.346
149.71
149.08
148.471
147.899
147.378
146.921
146.542
146.251
146.062
145.984
146.026
146.197
146.504
146.952
147.546
148.288
149.179
150.217
151.4
152.725
154.187
155.779
157.494
159.324
161.26
163.292
165.408
167.596
169.843
172.132
174.45
176.779
179.102
181.403
183.663
185.865
187.991
190.024
191.946
193.738
195.382
196.86
198.154
199.247
200.123
200.765
201.159
201.291
201.148
200.72
199.995
198.963
197.613
195.936
193.923
191.569
188.867
185.814
182.408
178.649
174.539
170.083
165.283
160.147
154.678
148.883
142.768
136.339
129.604
122.571
115.252
107.659
99.81
91.722
83.416
74.912
66.234
57.404
48.446
39.381
30.229
21.013
11.757
2.488
-6.767
-15.982
-25.135
-34.194
-43.134
-51.934
-60.577
-69.062
-77.388
-85.544
-93.519
-101.301
-108.867
-116.196
-123.257
-129.995
-136.35
-142.262
-147.669
-152.546
-156.876
-160.629
-163.776
-166.283
-168.111
-169.265
-169.753
-169.547
-168.645
-167.068
-164.874
-162.23
-159.328
-156.326
-153.413
-150.782
-148.52
-146.649
-145.071
-143.497
-141.661
-139.369
-136.356
-132.346
-127.274
-121.399
-115.359
-110.133
-106.631
-105.379
-106.787
-111.427
-119.461
-130.166
-141.934
-152.218
-158.199
-157.836
-149.261
-130.013
-98.156
-52.805
4.568
69.553
137.586
204.628
269.922
335.352
398.371
454.915
496.496
508.599
485.642
426.215
332.671
221.286
106.207
1.724
-73.574
-114.86
-123.689
-107.184
-82.394
-59.35
-41.871
-30.309
-19.237
-7.042
4.53
13.81
18.07
16.93
12.095
4.944
-2.792
-9.619
-15.016
-18.666
-20.484
-20.842
-20.146
-18.774
-17.253
-16.051
-15.36
-15.256
-15.668
-16.371
-17.167
-17.838
-18.159
-17.996
-17.292
-16.045
-14.31
-12.139
-9.562
-6.612
-3.292
0.399
4.455
8.879
13.661
18.761
24.125
29.673
35.326
41.035
46.764
52.489
58.2
63.883
69.532
75.157
80.756
86.32
91.839
97.299
102.69
108.012
113.27
118.471
123.627
128.744
133.833
138.901
143.955
148.998
154.031
159.049
164.049
169.031
173.993
178.934
183.854
188.749
193.615
198.45
203.247
207.999
212.693
217.317
221.857
226.295
230.615
234.796
238.818
242.657
246.292
249.697
252.848
255.719
258.283
260.513
262.383
263.867
264.937
265.568
265.737
265.419
264.594
263.243
261.348
258.895
255.87
252.264
248.069
243.279
237.893
231.911
225.336
218.175
210.44
202.145
193.306
183.944
174.084
163.753
152.982
141.804
130.255
118.374
106.201
93.78
81.155
68.372
55.478
42.52
29.546
16.605
3.743
-8.993
-21.556
-33.901
-45.985
-57.764
-69.2
-80.253
-90.888
-101.071
-110.772
-119.962
-128.617
-136.714
-144.235
-151.165
-157.491
-163.207
-168.306
-172.789
-176.658
-179.919
-182.584
-184.666
-186.181
-187.15
-187.595
-187.541
-187.016
-186.049
-184.673
-182.919
-180.822
-178.419
-175.746
-172.84
-169.739
-166.483
-163.109
-159.655
-156.16
-152.661
-149.195
-145.797
-142.503
-139.345
-136.356
-133.566
-131.004
-128.695
-126.665
-124.934
-123.522
-122.445
-121.717
-121.348
-121.346
-121.716
-122.462
-123.584
-125.078
-126.94
-129.164
-131.738
-134.652
-137.891
-141.439
-145.278
-149.389
-153.749
-158.335
-163.123
-168.087
-173.199
-178.432
-183.757
-189.144
-194.561
-199.98
-205.368
-210.695
-215.93
-221.044
-226.008
-230.794
-235.375
-239.727
-243.824
-247.646
-251.172
-254.384
-257.264
-259.8
-261.978
-263.788
-265.223
-266.276
-266.946
-267.229
-267.129
-266.649
-265.794
-264.573
-262.995
-261.075
-258.825
-256.262
-253.406
-250.275
-246.893
-243.283
-239.469
-235.478
-231.337
-227.072
-222.712
-218.286
-213.822
-209.349
-204.894
-200.486
-196.151
-191.917
-187.808
-183.849
-180.065
-176.475
-173.102
-169.964
-167.078
-164.461
-162.126
-160.086
-158.35
-156.929
-155.828
-155.052
-154.604
-154.486
-154.696
-155.233
-156.092
-157.267
-158.751
-160.535
-162.609
-164.962
-167.581
-170.453
-173.564
-176.899
-180.441
-184.175
-188.083
-192.149
-196.354
-200.682
-205.114
-209.634
-214.224
-218.867
-223.545
-228.244
-232.946
-237.636
-242.299
-246.921
-251.488
-255.987
-260.404
-264.73
-268.951
-273.059
-277.042
-280.893
-284.603
-288.163
-291.568
-294.81
-297.883
-300.783
-303.505
-306.047
-308.405
-310.578
-312.566
-314.368
-315.984
-317.418
-318.67
-319.743
-320.641
-321.37
-321.933
-322.34
-322.596
-322.71
-322.691
-322.549
-322.296
-321.943
-321.501
-320.985
-320.408
-319.784
-319.127
-318.455
-317.782
-317.126
-316.505
-315.938
-315.443
-315.039
-314.745
-314.58
-314.563
-314.711
-315.043
-315.575
-316.325
-317.308
-318.541
-320.043
-321.829
-323.913
-326.307
-329.021
-332.066
-335.448
-339.167
-343.22
-347.604
-352.312
-357.338
-362.676
-368.315
-374.241
-380.444
-386.906
-393.607
-400.527
-407.632
-414.886
-422.254
-429.703
-437.201
-444.727
-452.252
-459.737
-467.148
-474.441
-481.564
-488.463
-495.067
-501.288
-507.06
-512.31
-516.977
-521.02
-524.374
-526.979
-528.794
-529.754
-529.808
-528.928
-527.072
-524.23
-520.441
-515.737
-510.167
-503.812
-496.717
-488.957
-480.634
-471.822
-462.636
-453.15
-443.424
-433.624
-423.8
-413.885
-403.749
-393.015
-381.218
-368.072
-353.154
-335.918
-316.375
-294.781
-271.664
-248.342
-225.939
-205.21
-187.377
-173.425
-163.086
-155.549
-149.155
-140.651
-127.185
-106.349
-74.558
-29.6
27.912
96.969
175.229
260.828
355.266
458.383
565.691
666.533
746.288
792.872
798.394
765.047
699.246
605.665
495.44
378.458
267.359
181.373
127.742
107.8
115.889
136.041
161.745
187.952
209.272
226.801
234.835
231.111
221.239
207.902
196.963
191.608
187.914
184.348
180.102
174.797
170.811
169.13
169.177
170.522
172.356
173.957
175.077
175.587
175.357
174.443
173.033
171.216
169.075
166.774
164.466
162.33
160.569
159.266
158.439
158.133
158.389
159.267
160.815
163.022
165.852
169.281
173.288
177.862
182.98
188.574
194.566
200.867
207.38
214.036
220.78
227.554
234.312
241.011
247.615
254.108
260.487
266.738
272.848
278.798
284.572
290.167
295.583
300.824
305.894
310.801
315.546
320.139
324.586
328.891
333.058
337.093
340.993
344.766
348.419
351.962
355.406
358.764
362.046
365.265
368.434
371.566
374.671
377.761
380.841
383.921
387.007
390.104
393.215
396.343
399.488
402.65
405.825
409.009
412.197
415.381
418.552
421.698
424.808
427.866
430.86
433.773
436.59
439.294
441.868
444.297
446.562
448.649
450.54
452.219
453.669
454.876
455.824
456.499
456.888
456.981
456.766
456.236
455.386
454.212
452.712
450.885
448.735
446.265
443.48
440.388
436.997
433.318
429.365
425.151
420.692
416.008
411.115
406.035
400.788
395.395
389.878
384.257
378.551
372.783
366.97
361.133
355.292
349.465
343.67
337.926
332.249
326.655
321.158
315.769
310.497
305.346
300.319
295.419
290.644
285.992
281.461
277.046
272.747
268.561
264.487
260.52
256.653
252.877
249.182
245.556
241.987
238.464
234.975
231.512
228.066
224.634
221.214
217.801
214.384
210.949
207.466
203.913
200.28
196.56
192.749
188.854
184.888
180.878
176.867
172.902
169.022
165.267
161.658
158.209
154.945
151.9
149.133
146.689
144.57
142.761
141.241
139.996
139.023
138.274
137.625
136.916
136.003
134.756
133.109
130.997
128.264
124.814
120.648
115.914
111.024
106.431
102.443
99.366
97.599
97.339
98.553
100.858
103.161
104.304
103.478
99.853
92.719
81.983
68.295
53.261
39.716
30.619
28.653
36.836
57.994
94.448
146.035
209.102
278.988
350.564
422.156
497.339
576.085
654.145
722.11
760.078
751.998
691.112
576.227
423.302
257.006
99.69
-24.235
-102.322
-137.85
-138.594
-118.011
-88.073
-52.985
-17.332
12.214
30.014
31.576
18.208
-1.21
-18.189
-27.821
-29.775
-28.866
-28.593
-29.656
-31.43
-31.788
-29.956
-26.761
-23.009
-19.625
-17.215
-15.779
-15.272
-15.663
-16.734
-18.286
-20.195
-22.284
-24.391
-26.409
-28.198
-29.657
-30.75
-31.415
-31.596
-31.271
-30.412
-29.028
-27.154
-24.813
-22.036
-18.868
-15.343
-11.511
-7.432
-3.163
1.225
5.676
10.15
14.612
19.036
23.407
27.71
31.946
36.125
40.256
44.343
48.394
52.412
56.402
60.378
64.351
68.336
72.346
76.39
80.476
84.611
88.8
93.048
97.356
101.722
106.143
110.621
115.157
119.751
124.405
129.116
133.881
138.699
143.563
148.47
153.411
158.376
163.355
168.338
173.313
178.268
183.19
188.063
192.873
197.603
202.237
206.758
211.146
215.383
219.45
223.326
226.993
230.431
233.622
236.547
239.187
241.525
243.546
245.234
246.574
247.553
248.16
248.386
248.22
247.657
246.692
245.321
243.542
241.358
238.769
235.779
232.396
228.626
224.479
219.966
215.098
209.891
204.36
198.522
192.396
186.001
179.36
172.494
165.428
158.186
150.793
143.276
135.66
127.973
120.241
112.491
104.75
97.043
89.395
81.832
74.378
67.056
59.887
52.893
46.093
39.507
33.15
27.039
21.188
15.609
10.316
5.317
0.62
-3.766
-7.837
-11.589
-15.021
-18.13
-20.92
-23.392
-25.551
-27.404
-28.958
-30.222
-31.206
-31.921
-32.381
-32.598
-32.587
-32.364
-31.943
-31.341
-30.576
-29.663
-28.621
-27.466
-26.216
-24.889
-23.501
-22.071
-20.616
-19.152
-17.696
-16.265
-14.874
-13.54
-12.277
-11.1
-10.022
-9.057
-8.216
-7.51
-6.95
-6.545
-6.303
-6.231
-6.336
-6.623
-7.097
-7.76
-8.614
-9.662
-10.904
-12.34
-13.969
-15.789
-17.797
-19.991
-22.367
-24.919
-27.644
-30.534
-33.583
-36.785
-40.13
-43.611
-47.218
-50.943
-54.775
-58.705
-62.723
-66.818
-70.98
-75.198
-79.463
-83.764
-88.091
-92.436
-96.787
-101.137
-105.477
-109.799
-114.094
-118.355
-122.576
-126.749
-130.869
-134.928
-138.922
-142.845
-146.694
-150.463
-154.149
-157.75
-161.264
-164.688
-168.021
-171.263
-174.414
-177.474
-180.444
-183.326
-186.12
-188.829
-191.455
-194
-196.468
-198.86
-201.18
-203.43
-205.614
-207.733
-209.79
-211.79
-213.734
-215.625
-217.467
-219.262
-221.015
-222.729
-224.407
-226.053
-227.672
-229.266
-230.839
-232.396
-233.939
-235.474
-237.003
-238.531
-240.061
-241.599
-243.147
-244.711
-246.294
-247.901
-249.536
-251.204
-252.909
-254.656
-256.449
-258.294
-260.195
-262.158
-264.187
-266.288
-268.464
-270.72
-273.059
-275.484
-277.998
-280.601
-283.295
-286.081
-288.958
-291.926
-294.982
-298.125
-301.35
-304.654
-308.032
-311.477
-314.981
-318.535
-322.13
-325.755
-329.399
-333.051
-336.696
-340.322
-343.914
-347.458
-350.939
-354.341
-357.646
-360.838
-363.9
-366.816
-369.567
-372.139
-374.515
-376.681
-378.624
-380.331
-381.792
-382.995
-383.931
-384.591
-384.968
-385.059
-384.858
-384.363
-383.574
-382.494
-381.131
-379.495
-377.596
-375.448
-373.062
-370.458
-367.65
-364.657
-361.491
-358.167
-354.7
-351.11
-347.418
-343.647
-339.818
-335.951
-332.073
-328.204
-324.368
-320.582
-316.861
-313.214
-309.657
-306.207
-302.888
-299.734
-296.766
-294
-291.446
-289.109
-286.983
-285.057
-283.3
-281.662
-280.104
-278.583
-277.066
-275.526
-273.919
-272.215
-270.379
-268.36
-266.117
-263.632
-260.904
-257.955
-254.834
-251.577
-248.235
-244.917
-241.744
-238.854
-236.381
-234.445
-233.121
-232.501
-232.75
-233.911
-235.909
-238.543
-241.36
-243.922
-245.956
-247.086
-246.81
-245.008
-241.804
-237.62
-233.597
-230.615
-229.064
-229.655
-232.966
-238.595
-245.59
-252.274
-255.838
-253.827
-244.292
-224.682
-192.509
-147.666
-92.428
-29.675
36.576
104.686
177.498
254.918
331.931
400.279
445.3
453.298
420.875
349.674
247.156
128.162
3.803
-113.841
-209.391
-276.523
-313.072
-324.152
-325.209
-325.742
-329.978
-337.651
-341.866
-340.684
-336.551
-331.902
-330.404
-333.088
-338.486
-345.634
-353.564
-361.119
-367.406
-371.863
-374.308
-375.081
-374.879
-374.241
-373.516
-373.161
-373.644
-375.243
-378.094
-382.136
-387.108
-392.796
-399.031
-405.592
-412.285
-418.923
-425.289
-431.241
-436.679
-441.507
-445.667
-449.122
-451.819
-453.737
-454.877
-455.243
-454.863
-453.769
-451.978
-449.524
-446.446
-442.79
-438.626
-433.999
-428.936
-423.455
-417.559
-411.245
-404.518
-397.366
-389.765
-381.696
-373.144
-364.095
-354.55
-344.503
-333.945
-322.87
-311.269
-299.142
-286.498
-273.348
-259.705
-245.587
-231.017
-216.024
-200.643
-184.909
-168.855
-152.517
-135.931
-119.137
-102.176
-85.092
-67.927
-50.725
-33.536
-16.406
0.613
17.471
34.118
50.505
66.582
82.3
97.61
112.465
126.82
140.632
153.858
166.459
178.397
189.638
200.151
209.908
218.886
227.063
234.424
240.955
246.648
251.5
255.51
258.682
261.022
262.543
263.26
263.189
262.354
260.778
258.492
255.525
251.914
247.697
242.914
237.609
231.828
225.619
219.03
212.112
204.916
197.494
189.898
182.181
174.395
166.593
158.827
151.147
143.604
136.246
129.118
122.266
115.729
109.546
103.753
98.381
93.46
89.019
85.082
81.671
78.805
76.502
74.773
73.629
73.077
73.117
73.745
74.952
76.728
79.059
81.929
85.319
89.208
93.576
98.404
103.671
109.354
115.423
121.848
128.597
135.638
142.936
150.455
158.16
166.016
173.993
182.062
190.196
198.364
206.529
214.649
222.672
230.553
238.259
245.755
253.014
260.021
266.765
273.257
279.527
285.6
291.501
297.255
302.875
308.385
313.806
319.162
324.495
329.83
335.158
340.467
345.731
350.908
355.986
360.898
365.494
369.642
373.197
376.021
378.056
379.176
379.164
377.953
375.594
372.269
368.392
364.291
360.129
356.296
353.319
351.355
350.304
349.689
348.571
346.338
342.606
336.573
327.393
315.928
304.724
296.67
294.041
295.164
296.079
296.475
301.606
322.134
367.617
439.235
528.666
620.542
704.763
780.078
847.971
912.786
967.044
990.945
969.381
891.521
764.886
616.856
475.438
367.159
303.281
277.055
275.574
281.152
284.217
284.725
285.298
292.034
306.008
323.062
339.458
351.249
356.8
357.187
353.689
347.507
340.082
332.771
326.383
321.361
317.772
315.209
313.176
311.286
308.977
305.611
300.9
294.736
287.154
278.413
268.757
258.394
247.623
236.739
225.9
215.211
204.723
194.433
184.404
174.704
165.353
156.375
147.787
139.599
131.84
124.527
117.632
111.113
104.923
99.004
93.339
87.925
82.759
77.849
73.204
68.835
64.77
61.039
57.662
54.653
52.024
49.781
47.945
46.536
45.57
45.064
45.032
45.481
46.416
47.839
49.745
52.125
54.966
58.248
61.956
66.072
70.576
75.448
80.665
86.204
92.037
98.138
104.477
111.021
117.734
124.58
131.522
138.521
145.54
152.537
159.474
166.312
173.012
179.536
185.845
191.903
197.672
203.117
208.205
212.903
217.179
221.005
224.354
227.203
229.53
231.315
232.543
233.198
233.269
232.748
231.629
229.909
227.586
224.664
221.147
217.045
212.368
207.13
201.349
195.042
188.231
180.94
173.192
165.015
156.437
147.485
138.19
128.584
118.697
108.56
98.207
87.668
76.975
66.16
55.253
44.283
33.281
22.274
11.289
0.353
-10.51
-21.277
-31.925
-42.435
-52.786
-62.963
-72.948
-82.728
-92.291
-101.627
-110.725
-119.578
-128.181
-136.529
-144.618
-152.447
-160.014
-167.319
-174.363
-181.148
-187.676
-193.95
-199.973
-205.748
-211.279
-216.571
-221.628
-226.453
-231.053
-235.43
-239.59
-243.537
-247.276
-250.812
-254.148
-257.29
-260.241
-263.005
-265.588
-267.992
-270.223
-272.283
-274.176
-275.906
-277.478
-278.894
-280.158
-281.276
-282.25
-283.086
-283.787
-284.361
-284.811
-285.143
-285.365
-285.481
-285.499
-285.427
-285.27
-285.038
-284.737
-284.376
-283.962
-283.503
-283.007
-282.481
-281.932
-281.367
-280.792
-280.214
-279.638
-279.068
-278.511
-277.968
-277.445
-276.942
-276.462
-276.005
-275.571
-275.16
-274.768
-274.394
-274.034
-273.682
-273.333
-272.98
-272.615
-272.232
-271.82
-271.37
-270.871
-270.315
-269.688
-268.981
-268.182
-267.28
-266.264
-265.124
-263.849
-262.43
-260.858
-259.125
-257.222
-255.144
-252.884
-250.438
-247.802
-244.974
-241.953
-238.738
-235.333
-231.739
-227.961
-224.006
-219.879
-215.59
-211.149
-206.567
-201.856
-197.031
-192.104
-187.093
-182.013
-176.882
-171.718
-166.538
-161.361
-156.207
-151.092
-146.036
-141.057
-136.173
-131.401
-126.759
-122.262
-117.926
-113.765
-109.794
-106.025
-102.469
-99.136
-96.036
-93.176
-90.561
-88.198
-86.089
-84.237
-82.642
-81.303
-80.22
-79.388
-78.803
-78.459
-78.348
-78.465
-78.798
-79.338
-80.075
-80.998
-82.095
-83.354
-84.762
-86.306
-87.973
-89.749
-91.62
-93.574
-95.596
-97.671
-99.787
-101.93
-104.087
-106.247
-108.395
-110.521
-112.612
-114.657
-116.646
-118.567
-120.41
-122.164
-123.821
-125.37
-126.805
-128.117
-129.3
-130.346
-131.248
-132.003
-132.604
-133.047
-133.326
-133.437
-133.378
-133.145
-132.737
-132.152
-131.389
-130.447
-129.328
-128.034
-126.567
-124.93
-123.125
-121.158
-119.034
-116.76
-114.344
-111.793
-109.118
-106.33
-103.445
-100.48
-97.45
-94.372
-91.264
-88.144
-85.029
-81.939
-78.887
-75.886
-72.951
-70.098
-67.347
-64.718
-62.229
-59.894
-57.731
-55.758
-53.991
-52.441
-51.108
-49.993
-49.104
-48.456
-48.072
-47.968
-48.149
-48.614
-49.362
-50.38
-51.646
-53.122
-54.742
-56.447
-58.189
-59.931
-61.652
-63.318
-64.874
-66.255
-67.402
-68.271
-68.838
-69.074
-68.946
-68.473
-67.713
-66.771
-65.78
-64.813
-63.924
-63.18
-62.656
-62.456
-62.708
-63.477
-64.844
-66.959
-69.815
-73.319
-77.222
-80.915
-83.765
-85.268
-84.788
-81.743
-76.082
-68.008
-58.263
-48.431
-39.819
-33.337
-30.063
-30.576
-34.33
-40.181
-45.758
-47.127
-40.757
-23.651
7.657
54.924
117.038
192.405
277.753
369.852
469.292
574.784
680.345
775.557
844.675
874.508
860.561
806.941
723.894
621.272
507.485
390.156
278.742
187.332
125.787
96.797
94.563
104.752
116.983
126.529
133.345
141.885
152.668
163.468
172.173
175.964
174.613
169.911
163.281
156.581
151.557
148.821
148.598
150.787
154.741
159.776
165.33
170.717
175.262
178.643
180.73
181.541
181.286
180.14
178.244
175.782
172.969
169.98
166.978
164.116
161.488
159.194
157.329
155.947
155.086
154.759
154.956
155.654
156.827
158.436
160.442
162.812
165.502
168.458
171.619
174.908
178.267
181.656
185.044
188.412
191.747
195.044
198.312
201.57
204.838
208.13
211.456
214.824
218.243
221.73
225.3
228.973
232.763
236.678
240.73
244.926
249.273
253.775
258.431
263.236
268.185
273.279
278.515
283.89
289.401
295.04
300.801
306.675
312.654
318.723
324.869
331.074
337.32
343.589
349.861
356.114
362.327
368.475
374.535
380.481
386.29
391.934
397.388
402.625
407.618
412.343
416.774
420.886
424.655
428.059
431.076
433.686
435.871
437.612
438.895
439.706
440.033
439.866
439.197
438.022
436.337
434.141
431.437
428.229
424.523
420.328
415.655
410.517
404.931
398.912
392.481
385.659
378.469
370.936
363.085
354.944
346.542
337.91
329.076
320.072
310.93
301.682
292.359
282.994
273.617
264.261
254.956
245.731
236.616
227.638
218.825
210.202
201.793
193.621
185.708
178.074
170.736
163.712
157.016
150.662
144.661
139.022
133.754
128.861
124.348
120.217
116.468
113.1
110.109
107.492
105.242
103.352
101.812
100.613
99.743
99.19
98.941
98.982
99.299
99.876
100.697
101.748
103.011
104.47
106.107
107.905
109.846
111.913
114.087
116.35
118.683
121.07
123.491
125.928
128.364
130.782
133.164
135.493
137.754
139.93
142.005
143.965
145.795
147.482
149.013
150.373
151.553
152.54
153.323
153.892
154.236
154.348
154.217
153.837
153.2
152.3
151.133
149.693
147.978
145.987
143.719
141.175
138.357
135.267
131.912
128.297
124.428
120.314
115.965
111.392
106.605
101.619
96.447
91.103
85.604
79.965
74.205
68.34
62.389
56.371
50.307
44.215
38.117
32.034
25.987
19.996
14.084
8.271
2.577
-2.978
-8.374
-13.594
-18.621
-23.439
-28.033
-32.388
-36.494
-40.339
-43.913
-47.209
-50.219
-52.938
-55.363
-57.494
-59.329
-60.871
-62.122
-63.088
-63.775
-64.193
-64.35
-64.257
-63.928
-63.378
-62.623
-61.682
-60.572
-59.315
-57.932
-56.448
-54.887
-53.274
-51.635
-49.996
-48.383
-46.824
-45.347
-43.981
-42.752
-41.688
-40.819
-40.175
-39.787
-39.682
-39.889
-40.432
-41.338
-42.632
-44.334
-46.461
-49.027
-52.046
-55.532
-59.498
-63.957
-68.913
-74.372
-80.34
-86.816
-93.8
-101.282
-109.243
-117.668
-126.539
-135.845
-145.58
-155.73
-166.267
-177.165
-188.392
-199.902
-211.648
-223.564
-235.561
-247.564
-259.505
-271.321
-282.963
-294.37
-305.463
-316.181
-326.459
-336.24
-345.488
-354.157
-362.213
-369.683
-376.616
-383.082
-389.185
-394.973
-400.487
-405.821
-411.052
-416.271
-421.58
-426.991
-432.533
-438.324
-444.376
-450.597
-456.767
-462.356
-466.826
-469.841
-470.975
-469.772
-466.062
-459.865
-451.64
-442.519
-433.548
-425.441
-418.935
-414.599
-412.482
-412.068
-411.923
-409.592
-402.648
-388.852
-365.897
-331.713
-284.545
-224.561
-154.815
-79.456
-3.029
71.969
147.517
224.162
297.692
360.417
397.703
394.572
346.417
253.537
122.989
-27
-180.701
-320.143
-423.831
-485.495
-506.72
-497.407
-478.546
-461.657
-450.587
-444.934
-437.915
-427.997
-417.762
-409.441
-406.226
-408.536
-414.331
-421.91
-429.208
-434.39
-436.82
-436.331
-433.19
-428.181
-422.046
-415.36
-408.756
-402.843
-397.927
-394.13
-391.391
-389.433
-388.011
-386.936
-386.012
-385.079
-384.011
-382.662
-380.876
-378.545
-375.591
-371.968
-367.672
-362.69
-357.019
-350.684
-343.746
-336.287
-328.391
-320.126
-311.547
-302.717
-293.715
-284.634
-275.582
-266.643
-257.874
-249.325
-241.03
-233.022
-225.327
-217.949
-210.875
-204.09
-197.586
-191.356
-185.398
-179.702
-174.245
-169.006
-163.959
-159.083
-154.356
-149.754
-145.252
-140.826
-136.451
-132.107
-127.775
-123.432
-119.053
-114.611
-110.08
-105.435
-100.651
-95.704
-90.57
-85.23
-79.666
-73.865
-67.816
-61.51
-54.943
-48.112
-41.019
-33.671
-26.074
-18.243
-10.191
-1.938
6.493
15.075
23.78
32.575
41.426
50.297
59.148
67.938
76.626
85.167
93.518
101.632
109.466
116.971
124.104
130.818
137.072
142.822
148.027
152.65
156.656
160.012
162.69
164.666
165.917
166.427
166.182
165.175
163.401
160.86
157.556
153.5
148.705
143.19
136.978
130.097
122.577
114.455
105.768
96.558
86.871
76.754
66.257
55.432
44.333
33.016
21.538
9.957
-1.671
-13.289
-24.838
-36.265
-47.514
-58.534
-69.276
-79.692
-89.738
-99.37
-108.552
-117.246
-125.421
-133.049
-140.106
-146.571
-152.428
-157.667
-162.281
-166.268
-169.629
-172.37
-174.5
-176.032
-176.984
-177.375
-177.226
-176.564
-175.417
-173.814
-171.789
-169.375
-166.606
-163.517
-160.143
-156.52
-152.683
-148.663
-144.491
-140.198
-135.815
-131.371
-126.894
-122.41
-117.946
-113.526
-109.178
-104.924
-100.779
-96.755
-92.857
-89.09
-85.454
-81.946
-78.554
-75.27
-72.082
-68.984
-65.973
-63.04
-60.169
-57.342
-54.53
-51.717
-48.896
-46.057
-43.191
-40.301
-37.394
-34.5
-31.667
-28.922
-26.275
-23.72
-21.234
-18.798
-16.404
-14.032
-11.667
-9.291
-6.87
-4.389
-1.843
0.806
3.612
6.661
10.083
13.943
18.256
23.022
28.191
33.705
39.515
45.53
51.645
57.779
63.836
69.736
75.426
80.777
85.637
89.817
93.06
95.205
96.163
95.854
94.268
91.425
87.334
82.067
75.728
68.353
60.014
50.779
40.698
29.927
18.661
7.134
-4.338
-15.516
-26.231
-36.312
-45.652
-54.184
-61.82
-68.523
-74.28
-78.997
-82.614
-85.098
-86.397
-86.567
-85.711
-83.966
-81.55
-78.648
-75.391
-71.913
-68.308
-64.633
-60.976
-57.399
-53.952
-50.755
-47.9
-45.46
-43.513
-42.077
-41.132
-40.64
-40.507
-40.643
-40.998
-41.532
-42.231
-43.103
-44.137
-45.33
-46.683
-48.171
-49.778
-51.5
-53.33
-55.281
-57.375
-59.641
-62.127
-64.871
-67.882
-71.143
-74.604
-78.214
-81.928
-85.696
-89.477
-93.216
-96.854
-100.344
-103.628
-106.655
-109.381
-111.771
-113.81
-115.522
-116.954
-118.175
-119.284
-120.373
-121.55
-122.931
-124.606
-126.688
-129.245
-132.349
-136.142
-140.65
-145.775
-151.295
-156.752
-161.655
-165.671
-168.34
-169.076
-167.696
-164.245
-159.156
-153.563
-148.332
-143.92
-141.039
-140.259
-141.368
-143.692
-145.617
-144.376
-137.834
-124.158
-101.003
-66.462
-19.207
40.34
108.669
181.243
253.931
324.96
396.932
470.586
542.543
605.363
642.924
640.251
590.765
492.83
357.199
203.593
50.127
-82.214
-177.325
-231.174
-245.19
-230.13
-200.226
-165.859
-136.397
-115.395
-104.173
-102.205
-104.124
-106.508
-106.375
-102.955
-100.022
-99.473
-101.608
-105.473
-108.345
-109.084
-108.013
-105.726
-103.14
-100.817
-99.033
-98.218
-98.64
-100.318
-103.082
-106.644
-110.781
-115.306
-120.04
-124.78
-129.298
-133.446
-137.143
-140.345
-143.027
-145.167
-146.743
-147.755
-148.234
-148.21
-147.73
-146.837
-145.566
-143.964
-142.082
-139.978
-137.722
-135.368
-132.947
-130.486
-127.997
-125.485
-122.957
-120.407
-117.816
-115.168
-112.448
-109.643
-106.747
-103.75
-100.638
-97.397
-94.009
-90.463
-86.751
-82.867
-78.806
-74.564
-70.139
-65.534
-60.757
-55.812
-50.703
-45.435
-40.012
-34.441
-28.732
-22.893
-16.937
-10.874
-4.719
1.511
7.796
14.119
20.46
26.797
33.109
39.373
45.566
51.664
57.643
63.478
69.146
74.621
79.878
84.892
89.641
94.1
98.248
102.062
105.521
108.605
111.295
113.576
115.43
116.843
117.804
118.303
118.332
