Name
Date of Birth,"Mar 27, 1959"
Recorded Date,2022-08-05 17:40:53 -0500
Classification,Sinus Rhythm
Symptoms,
Software Version,1.90
Device,"Watch4,2"
Sample Rate,510.227 hertz


Lead,Lead I
Unit,µV

-37.728
-40.175
-42.731
-45.323
-47.833
-50.195
-52.382
-54.398
-56.296
-58.105
-59.823
-61.46
-63.022
-64.511
-65.929
-67.255
-68.444
-69.47
-70.32
-70.997
-71.528
-71.916
-72.146
-72.195
-72.024
-71.605
-70.92
-69.945
-68.651
-67.018
-65.03
-62.687
-60
-56.973
-53.608
-49.905
-45.863
-41.489
-36.793
-31.786
-26.477
-20.87
-14.976
-8.818
-2.42
4.19
10.976
17.9
24.909
31.946
38.967
45.937
52.829
59.636
66.346
72.946
79.433
85.784
91.983
98.023
103.884
109.555
115.048
120.385
125.619
130.817
136.009
141.203
146.389
151.517
156.53
161.359
165.9
170.08
173.835
177.103
179.851
182.045
183.62
184.508
184.611
183.811
182.037
179.25
175.429
170.613
164.86
158.26
150.957
143.075
134.712
125.962
116.887
107.546
98.024
88.411
78.803
69.331
60.091
51.161
42.617
34.489
26.783
19.482
12.524
5.853
-0.556
-6.722
-12.644
-18.311
-23.727
-28.892
-33.805
-38.483
-42.94
-47.186
-51.239
-55.099
-58.754
-62.184
-65.35
-68.216
-70.765
-72.986
-74.876
-76.444
-77.697
-78.648
-79.32
-79.731
-79.894
-79.826
-79.536
-79.038
-78.352
-77.499
-76.503
-75.389
-74.179
-72.895
-71.556
-70.18
-68.78
-67.37
-65.958
-64.553
-63.162
-61.796
-60.462
-59.169
-57.922
-56.727
-55.59
-54.515
-53.503
-52.557
-51.676
-50.857
-50.1
-49.402
-48.758
-48.166
-47.619
-47.115
-46.646
-46.208
-45.795
-45.401
-45.02
-44.644
-44.268
-43.885
-43.488
-43.072
-42.63
-42.159
-41.654
-41.111
-40.529
-39.905
-39.237
-38.525
-37.769
-36.968
-36.124
-35.238
-34.312
-33.349
-32.351
-31.322
-30.267
-29.189
-28.095
-26.988
-25.874
-24.759
-23.647
-22.545
-21.457
-20.39
-19.349
-18.34
-17.368
-16.439
-15.559
-14.732
-13.962
-13.254
-12.612
-12.037
-11.531
-11.097
-10.733
-10.441
-10.219
-10.066
-9.98
-9.959
-9.999
-10.097
-10.25
-10.452
-10.7
-10.988
-11.312
-11.666
-12.045
-12.443
-12.855
-13.276
-13.701
-14.124
-14.539
-14.943
-15.329
-15.693
-16.031
-16.338
-16.611
-16.847
-17.044
-17.199
-17.312
-17.383
-17.413
-17.401
-17.351
-17.265
-17.147
-16.999
-16.826
-16.633
-16.425
-16.207
-15.985
-15.766
-15.554
-15.356
-15.179
-15.027
-14.908
-14.826
-14.788
-14.797
-14.86
-14.98
-15.162
-15.409
-15.723
-16.109
-16.566
-17.095
-17.698
-18.372
-19.116
-19.928
-20.803
-21.738
-22.727
-23.763
-24.841
-25.951
-27.086
-28.236
-29.391
-30.541
-31.676
-32.785
-33.857
-34.882
-35.848
-36.746
-37.564
-38.292
-38.922
-39.442
-39.846
-40.124
-40.27
-40.278
-40.143
-39.86
-39.427
-38.843
-38.107
-37.22
-36.185
-35.006
-33.687
-32.235
-30.658
-28.966
-27.171
-25.286
-23.327
-21.313
-19.263
-17.196
-15.134
-13.099
-11.112
-9.195
-7.366
-5.644
-4.048
-2.597
-1.313
-0.215
0.678
1.35
1.784
1.967
1.885
1.53
0.902
0
-1.178
-2.638
-4.398
-6.47
-8.859
-11.564
-14.581
-17.897
-21.496
-25.346
-29.392
-33.577
-37.842
-42.137
-46.424
-50.656
-54.778
-58.718
-62.391
-65.723
-68.656
-71.143
-73.145
-74.651
-75.673
-76.271
-76.544
-76.601
-76.563
-76.553
-76.693
-77.111
-77.915
-79.233
-81.263
-84.157
-87.973
-92.618
-97.805
-103.185
-108.457
-113.193
-116.779
-118.677
-118.52
-116.432
-113.123
-109.297
-105.704
-103.25
-102.83
-105.459
-110.697
-115.844
-118.051
-114.558
-106.094
-97.051
-87.273
-72.787
-42.99
17.242
111.35
234.308
373.349
510.314
639.634
760.696
870.51
964.689
1026.568
1037.377
990.629
888.391
743.799
576.827
401.353
230.021
76.292
-49.225
-135.798
-178.041
-178.879
-148.75
-102.561
-55.524
-22.583
-9.632
-14.808
-31.523
-46.874
-54.109
-53.581
-48.538
-46.011
-48.705
-54.518
-60.997
-65.267
-66.346
-64.941
-61.468
-56.445
-50.63
-44.909
-40.115
-36.682
-34.659
-33.955
-34.565
-36.498
-39.552
-43.291
-47.304
-51.294
-55.073
-58.546
-61.565
-63.98
-65.724
-66.796
-67.223
-67.041
-66.276
-64.946
-63.1
-60.803
-58.121
-55.126
-51.881
-48.453
-44.922
-41.361
-37.844
-34.421
-31.124
-27.974
-24.978
-22.138
-19.443
-16.874
-14.405
-12.012
-9.675
-7.37
-5.076
-2.767
-0.417
1.999
4.506
7.128
9.886
12.798
15.882
19.152
22.621
26.299
30.194
34.314
38.668
43.261
48.099
53.185
58.521
64.106
69.937
76.008
82.31
88.831
95.558
102.475
109.563
116.801
124.168
131.638
139.185
146.781
154.396
161.998
169.555
177.035
184.402
191.623
198.663
205.491
212.07
218.365
224.346
229.978
235.235
240.09
244.514
248.477
251.967
254.969
257.473
259.472
260.946
261.87
262.25
262.094
261.372
260.061
258.148
255.611
252.483
248.827
244.629
239.86
234.665
229.215
223.445
217.39
211.106
204.301
197.868
192.676
187.559
182.188
174.397
161.588
146.707
131.727
119.572
114.245
112.264
110.68
107.482
99.326
88.649
77.918
67.698
59.501
52.48
45.542
38.914
32.467
26.288
20.611
15.298
10.234
5.464
0.999
-3.177
-7.06
-10.646
-13.935
-16.911
-19.557
-21.892
-23.935
-25.693
-27.179
-28.405
-29.383
-30.128
-30.657
-30.985
-31.123
-31.087
-30.891
-30.55
-30.078
-29.491
-28.8
-28.021
-27.166
-26.248
-25.278
-24.268
-23.229
-22.171
-21.102
-20.031
-18.967
-17.916
-16.885
-15.879
-14.902
-13.958
-13.052
-12.184
-11.358
-10.575
-9.834
-9.137
-8.483
-7.872
-7.302
-6.772
-6.28
-5.824
-5.403
-5.013
-4.652
-4.318
-4.009
-3.722
-3.455
-3.205
-2.972
-2.751
-2.543
-2.344
-2.155
-1.973
-1.798
-1.629
-1.467
-1.311
-1.161
-1.018
-0.883
-0.757
-0.64
-0.535
-0.442
-0.363
-0.301
-0.256
-0.232
-0.23
-0.252
-0.302
-0.38
-0.49
-0.633
-0.811
-1.025
-1.279
-1.572
-1.907
-2.284
-2.705
-3.169
-3.677
-4.23
-4.825
-5.463
-6.141
-6.859
-7.615
-8.405
-9.227
-10.079
-10.957
-11.857
-12.777
-13.712
-14.659
-15.612
-16.568
-17.523
-18.471
-19.408
-20.33
-21.233
-22.112
-22.963
-23.783
-24.567
-25.312
-26.014
-26.671
-27.281
-27.839
-28.346
-28.799
-29.199
-29.544
-29.835
-30.073
-30.26
-30.396
-30.485
-30.53
-30.532
-30.497
-30.427
-30.328
-30.205
-30.061
-29.903
-29.735
-29.563
-29.393
-29.229
-29.077
-28.942
-28.83
-28.744
-28.691
-28.674
-28.698
-28.765
-28.88
-29.045
-29.261
-29.53
-29.852
-30.228
-30.656
-31.134
-31.66
-32.232
-32.844
-33.494
-34.175
-34.881
-35.606
-36.343
-37.083
-37.818
-38.54
-39.238
-39.905
-40.53
-41.105
-41.62
-42.066
-42.432
-42.71
-42.891
-42.966
-42.926
-42.764
-42.473
-42.047
-41.48
-40.768
-39.909
-38.899
-37.739
-36.427
-34.967
-33.36
-31.611
-29.724
-27.708
-25.57
-23.319
-20.968
-18.529
-16.018
-13.452
-10.848
-8.225
-5.604
-3.005
-0.45
2.04
4.447
6.75
8.931
10.969
12.845
14.538
16.029
17.301
18.337
19.124
19.648
19.899
19.874
19.57
18.985
18.115
16.948
15.473
13.685
11.584
9.171
6.458
3.461
0.206
-3.264
-6.902
-10.66
-14.491
-18.356
-22.217
-26.024
-29.719
-33.226
-36.473
-39.395
-41.936
-44.053
-45.728
-46.964
-47.801
-48.322
-48.601
-48.724
-48.788
-48.887
-49.121
-49.594
-50.389
-51.627
-53.516
-56.195
-59.68
-63.866
-68.432
-73
-77.243
-80.695
-82.681
-82.665
-80.454
-76.251
-70.752
-64.93
-59.673
-55.896
-54.981
-57.252
-61.072
-64.418
-64.757
-61.523
-58.228
-56.471
-53.358
-40.734
-4.538
65.171
168.779
298.73
440.925
583.091
718.876
843.384
949.907
1028.256
1064.113
1045.547
970.175
842.345
675.087
489.217
304.335
141.856
18.971
-60.466
-99.477
-108.954
-102.967
-88.368
-69.56
-50.86
-34.778
-24.89
-22.065
-21.343
-18.234
-10.93
-0.978
6.322
7.69
3.164
-5.602
-15.765
-25.818
-35.282
-43.25
-49.287
-53.244
-55.048
-55.164
-54.09
-52.055
-49.595
-47.587
-46.579
-46.855
-48.48
-51.184
-54.701
-58.857
-63.297
-67.538
-71.261
-74.274
-76.501
-78.018
-78.866
-79.05
-78.626
-77.678
-76.272
-74.473
-72.317
-69.819
-67.028
-64.016
-60.863
-57.661
-54.47
-51.325
-48.256
-45.277
-42.395
-39.612
-36.916
-34.291
-31.722
-29.199
-26.713
-24.254
-21.808
-19.351
-16.863
-14.316
-11.689
-8.964
-6.123
-3.151
-0.036
3.235
6.669
10.275
14.06
18.034
22.205
26.582
31.171
35.976
41.001
46.247
51.711
57.389
63.274
69.357
75.624
82.063
88.656
95.386
102.231
109.169
116.177
123.227
130.292
137.343
144.35
151.28
158.102
164.783
171.289
177.588
183.647
189.433
194.917
200.067
204.855
209.253
213.235
216.776
219.853
222.447
224.538
226.112
227.154
227.656
227.61
227.013
225.864
224.165
221.921
219.14
215.834
212.016
207.701
202.909
197.66
191.978
185.889
179.419
172.6
165.46
158.033
150.351
142.447
134.356
126.112
117.75
109.303
100.805
92.29
83.792
75.341
66.968
58.705
50.577
42.613
34.837
27.271
19.936
12.85
6.031
-0.507
-6.752
-12.694
-18.324
-23.637
-28.628
-33.295
-37.638
-41.66
-45.363
-48.754
-51.838
-54.623
-57.12
-59.338
-61.287
-62.981
-64.43
-65.648
-66.647
-67.442
-68.046
-68.472
-68.734
-68.845
-68.819
-68.668
-68.405
-68.039
-67.584
-67.047
-66.44
-65.771
-65.048
-64.279
-63.47
-62.628
-61.757
-60.863
-59.949
-59.019
-58.075
-57.12
-56.155
-55.182
-54.202
-53.216
-52.226
-51.231
-50.234
-49.235
-48.236
-47.237
-46.239
-45.244
-44.254
-43.27
-42.294
-41.328
-40.374
-39.435
-38.513
-37.612
-36.735
-35.885
-35.064
-34.276
-33.526
-32.815
-32.148
-31.528
-30.959
-30.445
-29.988
-29.593
-29.263
-29.001
-28.808
-28.688
-28.642
-28.672
-28.778
-28.96
-29.218
-29.551
-29.959
-30.439
-30.989
-31.607
-32.29
-33.034
-33.835
-34.689
-35.591
-36.538
-37.523
-38.543
-39.591
-40.662
-41.752
-42.854
-43.963
-45.073
-46.178
-47.273
-48.351
-49.407
-50.435
-51.43
-52.387
-53.302
-54.17
-54.987
-55.751
-56.457
-57.106
-57.693
-58.219
-58.683
-59.084
-59.423
-59.701
-59.919
-60.08
-60.186
-60.239
-60.243
-60.201
-60.118
-59.996
-59.842
-59.658
-59.449
-59.222
-58.985
-58.744
-58.507
-58.28
-58.067
-57.88
-57.73
-57.615
-57.536
-57.495
-57.489
-57.533
-57.65
-57.833
-58.073
-58.409
-58.868
-59.474
-60.259
-61.203
-62.26
-63.46
-64.853
-66.312
-67.69
-69.076
-70.461
-71.817
-73.464
-74.53
-74.166
-73.577
-73.126
-75.029
-81.939
-90.906
-99.961
-106.174
-105.525
-101.555
-97.263
-94.701
-97.267
-102.516
-107.967
-113.061
-116.284
-118.499
-120.818
-123.017
-125.231
-127.374
-129.21
-130.878
-132.489
-133.995
-135.379
-136.648
-137.792
-138.794
-139.646
-140.319
-140.785
-141.052
-141.127
-141.006
-140.69
-140.18
-139.478
-138.591
-137.527
-136.292
-134.89
-133.332
-131.627
-129.786
-127.822
-125.749
-123.583
-121.34
-119.039
-116.699
-114.341
-111.984
-109.649
-107.356
-105.125
-102.975
-100.924
-98.991
-97.194
-95.552
-94.085
-92.811
-91.746
-90.905
-90.301
-89.944
-89.84
-89.99
-90.393
-91.055
-91.985
-93.19
-94.674
-96.438
-98.477
-100.785
-103.343
-106.119
-109.069
-112.141
-115.283
-118.448
-121.597
-124.687
-127.673
-130.499
-133.094
-135.4
-137.361
-138.932
-140.073
-140.758
-141.002
-140.863
-140.446
-139.852
-139.165
-138.464
-137.832
-137.374
-137.193
-137.39
-138.05
-139.298
-141.331
-144.228
-147.967
-152.39
-157.085
-161.574
-165.377
-167.826
-168.159
-166.017
-161.288
-154.163
-145.659
-136.9
-128.976
-123.616
-121.341
-120.634
-120.091
-117.771
-114.317
-114.377
-118.483
-122.723
-115.622
-79.399
-6.236
102.161
233.906
369.662
500.646
624.549
740.331
846.312
929.924
973.02
961.871
891.565
767.41
605.321
427.203
252.586
101.564
-10.374
-80.369
-109.493
-105.927
-85.178
-56.487
-29.541
-14.642
-12.559
-23.403
-43.394
-61.647
-73.859
-79.382
-79.748
-81.362
-86.314
-92.939
-99.561
-103.531
-103.908
-101.704
-97.625
-92.237
-86.464
-80.979
-76.288
-72.864
-70.768
-69.847
-70.108
-71.565
-73.99
-77.144
-80.784
-84.654
-88.671
-92.747
-96.712
-100.389
-103.615
-106.281
-108.345
-109.786
-110.576
-110.713
-110.209
-109.104
-107.472
-105.377
-102.879
-100.038
-96.907
-93.553
-90.05
-86.471
-82.887
-79.35
-75.888
-72.519
-69.254
-66.087
-63.014
-60.019
-57.076
-54.166
-51.275
-48.388
-45.5
-42.594
-39.654
-36.66
-33.592
-30.429
-27.156
-23.755
-20.211
-16.51
-12.642
-8.601
-4.388
0.005
4.583
9.359
14.347
19.555
24.982
30.628
36.488
42.545
48.778
55.148
61.612
68.139
74.707
81.303
87.925
94.566
101.219
107.879
114.529
121.153
127.742
134.274
140.735
147.13
153.481
159.833
166.244
172.728
179.272
185.849
192.4
198.87
205.192
211.276
217.05
222.459
227.455
232.012
236.088
239.603
242.452
244.5
245.602
245.678
244.693
242.625
239.492
235.323
230.178
224.151
217.325
209.752
201.451
192.435
182.753
172.505
161.843
150.952
140.011
129.156
118.487
108.097
98.054
88.413
79.19
70.376
61.977
54.036
46.645
39.892
33.815
28.402
23.59
19.281
15.397
11.878
8.669
5.728
3.019
0.517
-1.77
-3.826
-5.652
-7.281
-8.791
-10.254
-11.702
-13.141
-14.542
-15.856
-17.054
-18.113
-19.004
-19.712
-20.23
-20.558
-20.723
-20.757
-20.679
-20.493
-20.183
-19.733
-19.149
-18.447
-17.654
-16.81
-15.942
-15.076
-14.246
-13.477
-12.783
-12.178
-11.657
-11.213
-10.844
-10.549
-10.331
-10.196
-10.139
-10.157
-10.242
-10.385
-10.575
-10.802
-11.052
-11.313
-11.573
-11.825
-12.062
-12.281
-12.476
-12.642
-12.773
-12.864
-12.91
-12.905
-12.844
-12.722
-12.537
-12.285
-11.965
-11.577
-11.123
-10.602
-10.018
-9.374
-8.674
-7.923
-7.127
-6.292
-5.425
-4.534
-3.625
-2.708
-1.79
-0.879
0.016
0.886
1.724
2.522
3.271
3.966
4.598
5.163
5.654
6.066
6.396
6.638
6.789
6.847
6.809
6.673
6.438
6.105
5.675
5.15
4.532
3.825
3.033
2.163
1.219
0.208
-0.864
-1.989
-3.16
-4.369
-5.609
-6.871
-8.148
-9.43
-10.709
-11.978
-13.229
-14.454
-15.645
-16.795
-17.899
-18.95
-19.942
-20.871
-21.732
-22.52
-23.233
-23.866
-24.418
-24.887
-25.271
-25.572
-25.788
-25.923
-25.977
-25.954
-25.856
-25.689
-25.455
-25.16
-24.81
-24.409
-23.963
-23.479
-22.963
-22.423
-21.865
-21.297
-20.726
-20.159
-19.604
-19.067
-18.555
-18.075
-17.633
-17.235
-16.887
-16.593
-16.359
-16.19
-16.088
-16.058
-16.101
-16.22
-16.415
-16.687
-17.035
-17.458
-17.955
-18.522
-19.157
-19.856
-20.617
-21.434
-22.303
-23.218
-24.172
-25.16
-26.173
-27.204
-28.245
-29.287
-30.321
-31.34
-32.334
-33.296
-34.216
-35.085
-35.897
-36.642
-37.314
-37.903
-38.405
-38.812
-39.12
-39.326
-39.424
-39.414
-39.294
-39.063
-38.722
-38.273
-37.717
-37.057
-36.297
-35.442
-34.497
-33.469
-32.367
-31.199
-29.98
-28.721
-27.438
-26.147
-24.862
-23.602
-22.382
-21.219
-20.126
-19.118
-18.209
-17.412
-16.743
-16.217
-15.847
-15.643
-15.615
-15.771
-16.12
-16.667
-17.409
-18.342
-19.465
-20.782
-22.307
-24.05
-26.015
-28.201
-30.602
-33.209
-36.01
-38.983
-42.081
-45.256
-48.455
-51.63
-54.747
-57.767
-60.631
-63.272
-65.609
-67.568
-69.1
-70.171
-70.746
-70.814
-70.388
-69.514
-68.285
-66.812
-65.207
-63.6
-62.12
-60.89
-60.032
-59.695
-60.081
-61.346
-63.52
-66.467
-69.895
-73.502
-77.04
-80.171
-82.368
-83.15
-82.266
-79.964
-76.975
-73.931
-71.389
-69.996
-70.384
-73.39
-78.655
-83.421
-84.623
-79.637
-68.328
-54.975
-41.993
-26.912
-2.897
42.48
119.015
226.55
358.924
504.125
646.567
776.468
884.517
959.677
997.057
990.59
936.926
841.47
706.786
540.199
357.435
173.821
11.764
-107.753
-178.877
-202.562
-188.797
-155.626
-113.628
-72.617
-43.071
-25.871
-21.717
-27.682
-33.785
-36.706
-36.157
-33.453
-34.667
-41.608
-52.301
-64.686
-75.186
-81.767
-84.747
-84.545
-81.763
-77.271
-71.742
-65.888
-60.7
-56.869
-54.607
-54
-54.961
-57.208
-60.496
-64.507
-68.753
-72.885
-76.686
-79.964
-82.668
-84.788
-86.282
-87.164
-87.482
-87.262
-86.546
-85.384
-83.796
-81.824
-79.524
-76.949
-74.173
-71.272
-68.315
-65.371
-62.489
-59.699
-57.023
-54.47
-52.041
-49.729
-47.519
-45.387
-43.314
-41.279
-39.265
-37.25
-35.21
-33.118
-30.95
-28.682
-26.293
-23.764
-21.077
-18.217
-15.17
-11.924
-8.471
-4.802
-0.909
3.215
7.578
12.186
17.042
22.149
27.507
33.113
38.965
45.054
51.37
57.902
64.634
71.549
78.627
85.846
93.183
100.611
108.102
115.627
123.156
130.655
138.093
145.436
152.65
159.702
166.557
173.181
179.542
185.607
191.344
196.724
201.716
206.292
210.428
214.098
217.279
219.953
222.101
223.707
224.758
225.246
225.162
224.504
223.269
221.46
219.082
216.143
212.654
208.629
204.085
199.041
193.517
187.537
181.127
174.315
167.127
159.596
151.751
143.627
135.254
126.668
117.903
108.994
99.974
90.879
81.743
72.599
63.482
54.423
45.453
36.604
27.904
19.381
11.062
2.971
-4.87
-12.441
-19.722
-26.698
-33.354
-39.68
-45.664
-51.3
-56.581
-61.504
-66.068
-70.271
-74.115
-77.603
-80.74
-83.532
-85.985
-88.109
-89.914
-91.409
-92.606
-93.519
-94.159
-94.542
-94.681
-94.592
-94.289
-93.789
-93.107
-92.261
-91.265
-90.136
-88.888
-87.539
-86.1
-84.588
-83.015
-81.393
-79.734
-78.05
-76.352
-74.648
-72.949
-71.264
-69.6
-67.966
-66.367
-64.812
-63.306
-61.854
-60.461
-59.132
-57.87
-56.68
-55.564
-54.524
-53.563
-52.681
-51.879
-51.158
-50.516
-49.952
-49.465
-49.053
-48.714
-48.445
-48.244
-48.109
-48.036
-48.024
-48.07
-48.17
-48.321
-48.522
-48.768
-49.057
-49.385
-49.749
-50.145
-50.57
-51.02
-51.49
-51.976
-52.475
-52.983
-53.493
-54.004
-54.51
-55.007
-55.492
-55.963
-56.415
-56.847
-57.256
-57.641
-58.001
-58.332
-58.636
-58.911
-59.156
-59.37
-59.554
-59.707
-59.828
-59.917
-59.976
-60.003
-60
-59.966
-59.904
-59.814
-59.697
-59.556
-59.393
-59.21
-59.011
-58.798
-58.576
-58.347
-58.116
-57.885
-57.659
-57.442
-57.235
-57.043
-56.868
-56.713
-56.58
-56.473
-56.394
-56.344
-56.325
-56.34
-56.391
-56.478
-56.604
-56.771
-56.979
-57.23
-57.525
-57.866
-58.252
-58.684
-59.162
-59.684
-60.25
-60.857
-61.503
-62.184
-62.898
-63.64
-64.406
-65.191
-65.992
-66.803
-67.62
-68.436
-69.248
-70.049
-70.835
-71.598
-72.333
-73.035
-73.697
-74.313
-74.879
-75.387
-75.833
-76.209
-76.511
-76.732
-76.866
-76.909
-76.854
-76.698
-76.435
-76.064
-75.584
-74.991
-74.287
-73.473
-72.548
-71.516
-70.38
-69.143
-67.809
-66.384
-64.874
-63.286
-61.629
-59.912
-58.147
-56.347
-54.524
-52.692
-50.866
-49.065
-47.305
-45.605
-43.979
-42.442
-41.008
-39.692
-38.51
-37.473
-36.591
-35.872
-35.326
-34.963
-34.793
-34.826
-35.058
-35.48
-36.083
-36.863
-37.824
-38.978
-40.329
-41.875
-43.617
-45.561
-47.711
-50.066
-52.607
-55.282
-58.029
-60.802
-63.563
-66.303
-69.02
-71.669
-74.187
-76.485
-78.474
-80.11
-81.378
-82.218
-82.541
-82.338
-81.679
-80.826
-80.195
-80.028
-80.375
-81.224
-82.55
-84.366
-86.664
-89.088
-90.847
-91.352
-90.411
-88.166
-84.98
-80.992
-76.229
-71.157
-66.919
-64.751
-65.531
-69.585
-76.773
-87.198
-100.921
-117.286
-134.934
-151.776
-165.235
-173.157
-172.593
-159.106
-130.152
-84.465
-23.474
46.405
122.53
205.937
299.584
411.423
541.726
680.53
811.333
909.966
957.846
947.681
883.083
777.175
643.102
491.048
327.353
159.144
-1.056
-137.161
-232.504
-277.879
-273.967
-232.43
-171.899
-110.449
-64.411
-39.749
-33.551
-38.917
-44.318
-44.67
-41.08
-36.444
-37.008
-44.791
-57.359
-72.003
-84.772
-93.29
-97.653
-98.205
-95.6
-90.853
-84.77
-78.195
-72.231
-67.653
-64.737
-63.603
-64.143
-66.033
-68.985
-72.623
-76.427
-80.031
-83.208
-85.807
-87.819
-89.26
-90.114
-90.407
-90.189
-89.499
-88.384
-86.881
-85.003
-82.784
-80.267
-77.515
-74.606
-71.616
-68.616
-65.661
-62.784
-60.011
-57.356
-54.823
-52.41
-50.103
-47.878
-45.718
-43.607
-41.529
-39.47
-37.41
-35.326
-33.196
-30.998
-28.709
-26.311
-23.783
-21.108
-18.267
-15.246
-12.03
-8.611
-4.979
-1.131
2.943
7.25
11.804
16.619
21.703
27.054
32.668
38.538
44.646
50.968
57.463
64.074
70.756
77.48
84.221
90.971
97.719
104.447
111.143
117.794
124.392
130.933
137.406
143.787
150.077
156.289
162.462
168.672
174.955
181.31
187.721
194.143
200.517
206.788
212.869
218.649
224.033
228.934
233.285
237.049
240.164
242.542
244.08
244.638
244.123
242.496
239.735
235.849
230.879
224.881
217.964
210.285
201.973
193.138
183.872
174.231
164.298
154.182
143.996
133.876
123.93
114.234
104.857
95.857
87.26
79.075
71.27
63.768
56.52
49.5
42.696
36.119
29.77
23.631
17.693
11.944
6.374
0.98
-4.245
-9.312
-14.219
-18.951
-23.48
-27.756
-31.749
-35.442
-38.827
-41.907
-44.684
-47.16
-49.347
-51.261
-52.919
-54.332
-55.512
-56.463
-57.198
-57.732
-58.082
-58.272
-58.319
-58.239
-58.046
-57.753
-57.373
-56.914
-56.385
-55.787
-55.126
-54.407
-53.635
-52.818
-51.961
-51.068
-50.143
-49.192
-48.217
-47.221
-46.206
-45.173
-44.122
-43.053
-41.969
-40.869
-39.753
-38.623
-37.48
-36.324
-35.158
-33.982
-32.799
-31.609
-30.415
-29.219
-28.023
-26.83
-25.642
-24.461
-23.292
-22.138
-21.002
-19.888
-18.798
-17.738
-16.71
-15.717
-14.763
-13.851
-12.983
-12.164
-11.396
-10.683
-10.027
-9.43
-8.896
-8.426
-8.022
-7.686
-7.418
-7.218
-7.086
-7.023
-7.027
-7.097
-7.233
-7.432
-7.692
-8.012
-8.39
-8.823
-9.309
-9.846
-10.429
-11.058
-11.729
-12.439
-13.186
-13.967
-14.78
-15.621
-16.488
-17.379
-18.291
-19.222
-20.169
-21.129
-22.101
-23.082
-24.07
-25.063
-26.06
-27.06
-28.061
-29.062
-30.062
-31.061
-32.058
-33.052
-34.043
-35.03
-36.012
-36.991
-37.964
-38.932
-39.894
-40.85
-41.8
-42.743
-43.679
-44.608
-45.528
-46.44
-47.344
-48.238
-49.122
-49.996
-50.86
-51.712
-52.553
-53.382
-54.199
-55.004
-55.794
-56.57
-57.33
-58.073
-58.798
-59.502
-60.185
-60.844
-61.477
-62.084
-62.662
-63.209
-63.722
-64.2
-64.639
-65.037
-65.391
-65.698
-65.953
-66.153
-66.295
-66.376
-66.391
-66.337
-66.211
-66.007
-65.724
-65.356
-64.9
-64.352
-63.709
-62.968
-62.127
-61.184
-60.138
-58.988
-57.734
-56.376
-54.917
-53.358
-51.701
-49.948
-48.104
-46.173
-44.161
-42.075
-39.922
-37.711
-35.456
-33.169
-30.864
-28.557
-26.264
-24
-21.783
-19.628
-17.549
-15.559
-13.673
-11.906
-10.275
-8.795
-7.479
-6.34
-5.39
-4.638
-4.095
-3.765
-3.648
-3.743
-4.054
-4.59
-5.372
-6.415
-7.725
-9.302
-11.147
-13.253
-15.61
-18.194
-20.956
-23.847
-26.818
-29.826
-32.84
-35.82
-38.708
-41.428
-43.894
-46.026
-47.775
-49.103
-49.973
-50.37
-50.304
-49.815
-49.014
-48.024
-46.961
-45.956
-45.124
-44.56
-44.415
-44.891
-46.138
-48.271
-51.255
-54.812
-58.666
-62.57
-66.151
-68.969
-70.621
-70.674
-69.131
-66.744
-64.259
-62.318
-61.758
-63.182
-66.974
-73.877
-83.023
-90.877
-94.308
-90.36
-77.785
-59.847
-38.202
-10.152
29.308
88.88
175.704
288.363
421.306
565.9
710.375
845.992
962.135
1045.229
1082.794
1063.473
984.338
851.754
679.997
489.948
301.642
133.787
1.652
-87.151
-130.669
-133.46
-108.218
-69.166
-29.724
-2.916
7.593
4.329
-7.078
-14.883
-13.367
-3.251
12.269
25.07
30.98
30.969
26.682
20.835
14.742
7.911
0.512
-6.438
-12.241
-16.622
-19.626
-21.561
-22.605
-22.746
-22.352
-22.295
-23.139
-25.069
-28.054
-31.777
-35.959
-40.451
-44.986
-49.176
-52.772
-55.651
-57.78
-59.262
-60.189
-60.605
-60.579
-60.189
-59.495
-58.552
-57.418
-56.136
-54.772
-53.408
-52.102
-50.901
-49.836
-48.921
-48.162
-47.557
-47.088
-46.729
-46.463
-46.276
-46.155
-46.088
-46.055
-46.028
-45.979
-45.879
-45.697
-45.405
-44.973
-44.374
-43.586
-42.588
-41.361
-39.889
-38.154
-36.135
-33.813
-31.17
-28.19
-24.861
-21.171
-17.112
-12.679
-7.873
-2.699
2.837
8.724
14.953
21.507
28.371
35.526
42.951
50.622
58.515
66.599
74.842
83.206
91.652
100.135
108.612
117.038
125.367
133.553
141.554
149.327
156.832
164.029
170.873
177.322
183.327
188.846
193.845
198.296
202.18
205.489
208.223
210.39
212.002
213.066
213.584
213.548
212.938
211.738
209.929
207.508
204.491
200.892
196.728
192.009
186.743
180.924
174.535
167.551
159.939
151.69
142.819
133.374
123.436
113.106
102.504
91.734
80.875
70.005
59.192
48.508
38.027
27.836
18.035
8.738
0.078
-7.843
-14.951
-21.218
-26.664
-31.34
-35.336
-38.725
-41.568
-43.915
-45.805
-47.274
-48.361
-49.11
-49.575
-49.83
-49.973
-50.088
-50.242
-50.472
-50.78
-51.141
-51.505
-51.829
-52.082
-52.241
-52.304
-52.274
-52.158
-51.968
-51.722
-51.419
-51.046
-50.59
-50.041
-49.403
-48.693
-47.941
-47.187
-46.468
-45.816
-45.256
-44.804
-44.468
-44.248
-44.139
-44.13
-44.211
-44.379
-44.63
-44.963
-45.374
-45.852
-46.387
-46.966
-47.574
-48.197
-48.821
-49.434
-50.025
-50.586
-51.112
-51.599
-52.044
-52.443
-52.79
-53.081
-53.311
-53.475
-53.569
-53.588
-53.531
-53.394
-53.178
-52.885
-52.515
-52.072
-51.558
-50.979
-50.339
-49.644
-48.9
-48.113
-47.289
-46.438
-45.564
-44.677
-43.783
-42.89
-42.005
-41.135
-40.287
-39.467
-38.682
-37.936
-37.236
-36.585
-35.99
-35.455
-34.983
-34.58
-34.25
-33.995
-33.818
-33.723
-33.711
-33.783
-33.939
-34.179
-34.503
-34.907
-35.391
-35.951
-36.584
-37.286
-38.054
-38.881
-39.763
-40.695
-41.671
-42.686
-43.734
-44.809
-45.908
-47.023
-48.151
-49.285
-50.423
-51.559
-52.688
-53.806
-54.909
-55.994
-57.056
-58.092
-59.1
-60.077
-61.02
-61.928
-62.8
-63.634
-64.43
-65.188
-65.91
-66.596
-67.249
-67.871
-68.465
-69.034
-69.582
-70.114
-70.633
-71.144
-71.651
-72.16
-72.673
-73.195
-73.731
-74.283
-74.855
-75.45
-76.07
-76.718
-77.395
-78.102
-78.84
-79.61
-80.412
-81.246
-82.109
-83.001
-83.919
-84.861
-85.824
-86.801
-87.789
-88.782
-89.774
-90.757
-91.724
-92.668
-93.579
-94.449
-95.268
-96.027
-96.717
-97.328
-97.851
-98.276
-98.596
-98.802
-98.887
-98.846
-98.671
-98.359
-97.905
-97.307
-96.563
-95.672
-94.633
-93.448
-92.12
-90.651
-89.046
-87.313
-85.461
-83.501
-81.447
-79.312
-77.111
-74.863
-72.585
-70.295
-68.012
-65.752
-63.531
-61.369
-59.285
-57.3
-55.435
-53.709
-52.141
-50.749
-49.55
-48.558
-47.787
-47.241
-46.923
-46.841
-47.006
-47.441
-48.164
-49.182
-50.5
-52.115
-54.019
-56.198
-58.624
-61.244
-64.006
-66.855
-69.744
-72.643
-75.513
-78.305
-80.957
-83.383
-85.512
-87.291
-88.682
-89.656
-90.205
-90.34
-90.119
-89.65
-89.054
-88.461
-87.988
-87.737
-87.832
-88.387
-89.544
-91.507
-94.402
-98.267
-103.034
-108.429
-114.094
-119.679
-124.713
-128.573
-130.759
-130.872
-128.871
-125.386
-121.201
-117.137
-113.997
-112.381
-112.901
-115.962
-121.087
-126.749
-129.875
-126.964
-115.958
-94.384
-61.594
-17.183
42.79
118.379
209.309
314.915
428.124
545.749
665.623
781.932
888.856
974.759
1022.896
1019.521
958.613
842.13
682.367
499.182
312.095
141.342
3.995
-91.32
-143.354
-158.085
-146.849
-122.39
-94.412
-71.394
-59.124
-57.776
-65.312
-75.535
-82.148
-83.713
-81.811
-81.263
-85.347
-93.484
-103.372
-111.745
-117.05
-119.663
-120.067
-118.618
-115.658
-111.538
-107.046
-103.208
-100.509
-99.019
-98.767
-99.787
-102.086
-105.583
-109.966
-114.73
-119.513
-124.108
-128.331
-132.043
-135.115
-137.435
-138.972
-139.774
-139.882
-139.328
-138.148
-136.372
-134.042
-131.224
-127.982
-124.383
-120.505
-116.43
-112.238
-108.014
-103.819
-99.694
-95.667
-91.753
-87.956
-84.273
-80.693
-77.195
-73.763
-70.386
-67.049
-63.737
-60.433
-57.119
-53.775
-50.383
-46.928
-43.395
-39.772
-36.049
-32.217
-28.272
-24.207
-20.021
-15.71
-11.268
-6.693
-1.979
2.876
7.874
13.014
18.296
23.716
29.27
34.947
40.738
46.63
52.609
58.657
64.757
70.887
77.028
83.154
89.244
95.271
101.211
107.035
112.719
118.235
123.556
128.655
133.508
138.089
142.373
146.338
149.961
153.221
156.099
158.575
160.635
162.262
163.443
164.167
164.425
164.208
163.514
162.339
160.686
158.557
155.96
152.903
149.398
145.459
141.102
136.346
131.213
125.723
119.902
113.774
107.368
100.711
93.832
86.76
79.525
72.157
64.687
57.143
49.555
41.953
34.365
26.819
19.342
11.962
4.702
-2.412
-9.356
-16.11
-22.653
-28.966
-35.034
-40.841
-46.375
-51.626
-56.586
-61.248
-65.609
-69.666
-73.419
-76.871
-80.024
-82.883
-85.456
-87.75
-89.775
-91.54
-93.057
-94.337
-95.392
-96.235
-96.878
-97.334
-97.616
-97.739
-97.714
-97.554
-97.274
-96.886
-96.401
-95.833
-95.193
-94.491
-93.738
-92.943
-92.114
-91.259
-90.384
-89.494
-88.594
-87.688
-86.776
-85.862
-84.945
-84.024
-83.099
-82.168
-81.228
-80.276
-79.309
-78.324
-77.317
-76.285
-75.224
-74.13
-73.001
-71.834
-70.624
-69.37
-68.069
-66.718
-65.315
-63.859
-62.348
-60.781
-59.157
-57.476
-55.739
-53.946
-52.099
-50.199
-48.25
-46.255
-44.217
-42.14
-40.03
-37.892
-35.731
-33.554
-31.368
-29.178
-26.994
-24.82
-22.664
-20.534
-18.435
-16.375
-14.36
-12.395
-10.486
-8.64
-6.861
-5.155
-3.525
-1.976
-0.513
0.862
2.145
3.334
4.426
5.419
6.312
7.104
7.795
8.383
8.871
9.258
9.547
9.74
9.838
9.847
9.769
9.608
9.369
9.058
8.678
8.235
7.735
7.182
6.583
5.942
5.266
4.559
3.827
3.076
2.31
1.534
0.752
-0.029
-0.808
-1.579
-2.339
-3.085
-3.812
-4.52
-5.204
-5.862
-6.493
-7.095
-7.667
-8.208
-8.719
-9.2
-9.653
-10.078
-10.478
-10.855
-11.211
-11.55
-11.875
-12.188
-12.494
-12.797
-13.099
-13.406
-13.72
-14.046
-14.387
-14.747
-15.127
-15.531
-15.961
-16.418
-16.904
-17.42
-17.966
-18.542
-19.149
-19.786
-20.451
-21.142
-21.856
-22.591
-23.342
-24.104
-24.871
-25.638
-26.398
-27.144
-27.869
-28.564
-29.222
-29.833
-30.39
-30.882
-31.299
-31.634
-31.875
-32.013
-32.041
-31.949
-31.73
-31.378
-30.886
-30.249
-29.464
-28.527
-27.435
-26.187
-24.782
-23.22
-21.506
-19.641
-17.633
-15.487
-13.214
-10.827
-8.339
-5.765
-3.121
-0.424
2.309
5.057
7.8
10.517
13.185
15.783
18.286
20.671
22.912
24.986
26.873
28.556
30.018
31.243
32.215
32.923
33.357
33.511
33.379
32.95
32.218
31.181
29.84
28.202
26.279
24.085
21.641
18.978
16.129
13.13
10.021
6.844
3.635
0.435
-2.724
-5.807
-8.78
-11.597
-14.21
-16.566
-18.626
-20.399
-21.901
-23.139
-24.185
-25.164
-26.259
-27.779
-30.01
-33.033
-36.877
-41.572
-46.949
-52.765
-58.655
-63.809
-67.382
-68.952
-68.261
-65.214
-60.14
-53.354
-45.265
-37.102
-30.423
-26.342
-25.73
-28.89
-35.456
-45.224
-57.97
-72.545
-85.684
-92.908
-90.394
-74.812
-47.07
-11.629
31.149
81.825
144.245
228.748
337.899
469.531
618.254
768.121
905.639
1018.257
1092.559
1120.553
1094.283
1011.012
872.814
688.222
478.332
267.248
83.286
-48.985
-124.317
-147.972
-135.009
-106.151
-71.306
-36.127
-6.868
13.854
21.848
14.787
-1.272
-18.498
-32.337
-40.094
-43.98
-48.666
-54.61
-60.971
-66.65
-69.135
-67.725
-63.305
-56.536
-48.707
-41.363
-35.086
-30.098
-26.654
-24.741
-24.306
-25.328
-27.499
-30.275
-33.305
-36.35
-39.188
-41.697
-43.697
-45.008
-45.556
-45.342
-44.383
-42.699
-40.303
-37.208
-33.462
-29.139
-24.311
-19.06
-13.458
-7.589
-1.548
4.569
10.66
16.648
22.479
28.111
33.521
38.695
43.625
48.316
52.785
57.044
61.104
64.978
68.676
72.212
75.604
78.87
82.029
85.1
88.098
91.039
93.935
96.8
99.642
102.47
105.293
108.117
110.952
113.81
116.699
119.628
122.607
125.641
128.737
131.898
135.126
138.419
141.774
145.186
148.647
152.15
155.682
159.232
162.783
166.32
169.825
173.278
176.658
179.942
183.108
186.131
188.988
191.654
194.104
196.314
198.262
199.924
201.278
202.304
202.981
203.29
203.215
202.74
201.851
200.537
198.787
196.594
193.954
190.864
187.324
183.337
178.907
174.041
168.751
163.049
156.949
150.469
143.629
136.45
128.957
121.174
113.13
104.853
96.372
87.717
78.919
70.011
61.023
51.988
42.936
33.9
24.909
15.995
7.185
-1.491
-10.006
-18.336
-26.456
-34.344
-41.978
-49.338
-56.409
-63.173
-69.618
-75.731
-81.503
-86.927
-91.997
-96.71
-101.065
-105.064
-108.708
-112.002
-114.953
-117.568
-119.857
-121.829
-123.497
-124.872
-125.967
-126.797
-127.377
-127.721
-127.844
-127.761
-127.489
-127.042
-126.436
-125.685
-124.804
-123.807
-122.708
-121.52
-120.256
-118.927
-117.547
-116.124
-114.669
-113.192
-111.7
-110.2
-108.7
-107.204
-105.719
-104.248
-102.794
-101.361
-99.951
-98.566
-97.206
-95.874
-94.569
-93.292
-92.042
-90.82
-89.624
-88.453
-87.309
-86.188
-85.092
-84.018
-82.966
-81.936
-80.926
-79.936
-78.965
-78.012
-77.076
-76.158
-75.255
-74.37
-73.5
-72.647
-71.809
-70.988
-70.183
-69.396
-68.625
-67.873
-67.138
-66.423
-65.728
-65.053
-64.399
-63.768
-63.16
-62.576
-62.016
-61.483
-60.976
-60.497
-60.046
-59.625
-59.235
-58.876
-58.55
-58.258
-58.001
-57.78
-57.596
-57.449
-57.341
-57.272
-57.243
-57.255
-57.308
-57.402
-57.538
-57.715
-57.933
-58.192
-58.49
-58.828
-59.203
-59.613
-60.058
-60.535
-61.041
-61.575
-62.132
-62.711
-63.307
-63.918
-64.538
-65.163
-65.79
-66.413
-67.029
-67.632
-68.217
-68.78
-69.317
-69.823
-70.293
-70.724
-71.112
-71.452
-71.74
-71.975
-72.153
-72.272
-72.33
-72.326
-72.258
-72.128
-71.935
-71.679
-71.364
-70.989
-70.558
-70.072
-69.536
-68.954
-68.328
-67.665
-66.969
-66.245
-65.499
-64.737
-63.964
-63.185
-62.406
-61.632
-60.867
-60.117
-59.384
-58.673
-57.987
-57.329
-56.703
-56.11
-55.551
-55.027
-54.538
-54.083
-53.66
-53.267
-52.901
-52.558
-52.234
-51.924
-51.623
-51.327
-51.029
-50.722
-50.4
-50.056
-49.683
-49.272
-48.817
-48.31
-47.744
-47.115
-46.417
-45.646
-44.798
-43.87
-42.861
-41.77
-40.595
-39.336
-37.995
-36.574
-35.077
-33.508
-31.874
-30.184
-28.449
-26.681
-24.895
-23.103
-21.321
-19.564
-17.851
-16.201
-14.632
-13.158
-11.795
-10.559
-9.467
-8.537
-7.782
-7.21
-6.829
-6.647
-6.671
-6.912
-7.374
-8.047
-8.924
-9.996
-11.26
-12.728
-14.405
-16.286
-18.363
-20.629
-23.076
-25.701
-28.484
-31.379
-34.332
-37.281
-40.173
-42.984
-45.692
-48.274
-50.698
-52.884
-54.758
-56.26
-57.327
-57.938
-58.074
-57.669
-56.757
-55.496
-54.12
-53.026
-52.592
-52.915
-54.029
-55.981
-58.617
-61.767
-65.099
-67.69
-68.556
-67.239
-63.546
-57.578
-49.818
-40.576
-30.362
-20.717
-13.658
-10.706
-12.795
-20.249
-32.794
-50.153
-71.829
-94.813
-113.729
-124.026
-122.703
-110.348
-90.209
-61.716
-19.069
46.379
140.789
262.648
401.353
542.523
678.251
804.795
919.644
1018.722
1085.064
1098.865
1048.789
931.296
760.975
563.408
362.615
182.375
38.102
-64.352
-125.651
-152.286
-151.904
-134.005
-105.086
-71.841
-44.538
-26.765
-20.109
-22.418
-24.03
-21.115
-14.132
-5.274
-0.974
-3.906
-12.554
-24.739
-37.132
-47.436
-55.101
-60.054
-62.445
-62.558
-60.867
-57.996
-54.69
-51.905
-50.3
-50.118
-51.484
-54.27
-58.18
-62.95
-68.182
-73.347
-78.07
-82.142
-85.448
-88.014
-89.879
-91.037
-91.528
-91.431
-90.811
-89.731
-88.24
-86.357
-84.125
-81.615
-78.91
-76.104
-73.282
-70.502
-67.801
-65.206
-62.733
-60.392
-58.186
-56.104
-54.129
-52.247
-50.446
-48.717
-47.048
-45.42
-43.806
-42.181
-40.52
-38.8
-37.003
-35.112
-33.109
-30.979
-28.709
-26.288
-23.706
-20.953
-18.017
-14.884
-11.545
-7.99
-4.212
-0.206
4.034
8.507
13.213
18.149
23.306
28.676
34.249
40.009
45.941
52.027
58.245
64.574
70.988
77.461
83.964
90.467
96.939
103.348
109.661
115.844
121.864
127.687
133.279
138.609
143.643
148.35
152.7
156.664
160.215
163.325
165.973
168.134
169.791
170.926
171.524
171.576
171.073
170.011
168.386
166.202
163.462
160.174
156.349
152.001
147.145
141.802
135.993
129.743
123.08
116.033
108.633
100.912
92.905
84.647
76.175
67.526
58.738
49.848
40.896
31.918
22.954
14.039
5.212
-3.493
-12.041
-20.399
-28.535
-36.421
-44.028
-51.333
-58.31
-64.941
-71.207
-77.091
-82.582
-87.669
-92.344
-96.601
-100.439
-103.858
-106.859
-109.448
-111.632
-113.42
-114.824
-115.856
-116.53
-116.862
-116.871
-116.573
-115.988
-115.138
-114.042
-112.722
-111.2
-109.499
-107.639
-105.644
-103.533
-101.329
-99.052
-96.721
-94.354
-91.969
-89.583
-87.211
-84.867
-82.564
-80.313
-78.124
-76.007
-73.968
-72.013
-70.147
-68.374
-66.695
-65.112
-63.624
-62.232
-60.934
-59.727
-58.608
-57.575
-56.622
-55.746
-54.942
-54.204
-53.528
-52.908
-52.338
-51.815
-51.334
-50.889
-50.477
-50.094
-49.736
-49.402
-49.088
-48.792
-48.513
-48.249
-48.002
-47.77
-47.554
-47.355
-47.176
-47.016
-46.88
-46.768
-46.683
-46.628
-46.605
-46.616
-46.664
-46.751
-46.878
-47.049
-47.263
-47.523
-47.83
-48.183
-48.583
-49.028
-49.519
-50.053
-50.628
-51.242
-51.892
-52.574
-53.284
-54.019
-54.774
-55.544
-56.324
-57.109
-57.894
-58.673
-59.44
-60.19
-60.918
-61.618
-62.286
-62.917
-63.507
-64.051
-64.547
-64.991
-65.38
-65.713
-65.987
-66.202
-66.357
-66.453
-66.49
-66.471
-66.396
-66.27
-66.095
-65.875
-65.615
-65.319
-64.992
-64.64
-64.267
-63.879
-63.481
-63.08
-62.68
-62.288
-61.907
-61.543
-61.2
-60.881
-60.591
-60.331
-60.104
-59.912
-59.756
-59.636
-59.552
-59.503
-59.489
-59.507
-59.555
-59.63
-59.726
-59.84
-59.967
-60.098
-60.229
-60.351
-60.457
-60.537
-60.586
-60.593
-60.552
-60.452
-60.287
-60.047
-59.726
-59.316
-58.81
-58.203
-57.488
-56.661
-55.719
-54.66
-53.482
-52.183
-50.764
-49.227
-47.573
-45.807
-43.931
-41.95
-39.871
-37.703
-35.452
-33.13
-30.747
-28.318
-25.858
-23.385
-20.915
-18.469
-16.065
-13.723
-11.464
-9.306
-7.266
-5.36
-3.604
-2.015
-0.609
0.597
1.589
2.354
2.882
3.162
3.186
2.948
2.452
1.7
0.693
-0.573
-2.112
-3.935
-6.042
-8.433
-11.099
-14.026
-17.198
-20.58
-24.12
-27.761
-31.448
-35.13
-38.774
-42.336
-45.763
-48.991
-51.938
-54.533
-56.729
-58.485
-59.771
-60.586
-60.952
-60.931
-60.636
-60.186
-59.694
-59.285
-59.078
-59.192
-59.744
-60.856
-62.697
-65.388
-68.978
-73.387
-78.309
-83.364
-88.194
-92.344
-95.261
-96.482
-95.639
-92.756
-88.591
-84
-79.671
-76.502
-75.258
-76.491
-80.933
-87.319
-91.804
-91.142
-82.309
-65.448
-44.903
-21.045
9.602
54.825
125.92
226.051
349.942
486.802
622.591
748.744
860.244
950.658
1011.524
1029.452
992.277
896.22
744.693
553.151
345.443
145.426
-21.486
-139.662
-208.181
-233.071
-228.574
-208.281
-177.64
-141.296
-103.835
-68.725
-41.12
-22.862
-9.873
1.148
11.693
21.275
25.928
23.279
14.199
0.972
-13.048
-25.109
-33.92
-39.178
-41.129
-40.184
-36.931
-32.108
-26.441
-20.894
-16.44
-13.544
-12.372
-12.857
-14.686
-17.552
-21.158
-25.067
-28.796
-32.062
-34.724
-36.753
-38.23
-39.193
-39.655
-39.676
-39.332
-38.687
-37.79
-36.67
-35.335
-33.829
-32.213
-30.557
-28.932
-27.383
-25.937
-24.609
-23.405
-22.327
-21.366
-20.507
-19.725
-18.999
-18.309
-17.635
-16.959
-16.256
-15.502
-14.665
-13.719
-12.636
-11.396
-9.98
-8.368
-6.542
-4.482
-2.174
0.395
3.234
6.355
9.768
13.482
17.504
21.834
26.466
31.401
36.638
42.177
48.021
54.155
60.555
67.198
74.067
81.137
88.383
95.77
103.252
110.797
118.387
126.004
133.631
141.238
148.776
156.199
163.464
170.544
177.432
184.104
190.519
196.646
202.466
207.978
213.201
218.119
222.674
226.828
230.543
233.808
236.637
239.024
240.941
242.344
243.173
243.385
242.976
241.928
240.205
237.763
234.532
230.5
225.711
220.177
213.902
206.862
199.026
190.412
181.088
171.147
160.699
149.859
138.71
127.342
115.868
104.395
93.047
81.903
71.002
60.415
50.238
40.592
31.587
23.288
15.695
8.782
2.506
-3.205
-8.404
-13.143
-17.486
-21.478
-25.167
-28.578
-31.721
-34.625
-37.345
-39.961
-42.541
-45.132
-47.736
-50.335
-52.899
-55.371
-57.704
-59.855
-61.787
-63.483
-64.936
-66.15
-67.135
-67.902
-68.447
-68.753
-68.808
-68.604
-68.151
-67.471
-66.593
-65.561
-64.416
-63.198
-61.939
-60.665
-59.389
-58.124
-56.874
-55.641
-54.428
-53.245
-52.1
-51.005
-49.968
-48.991
-48.075
-47.22
-46.422
-45.677
-44.982
-44.335
-43.734
-43.18
-42.677
-42.227
-41.833
-41.498
-41.221
-41.002
-40.839
-40.729
-40.67
-40.658
-40.69
-40.762
-40.872
-41.016
-41.193
-41.4
-41.634
-41.893
-42.173
-42.472
-42.787
-43.116
-43.455
-43.803
-44.156
-44.512
-44.869
-45.225
-45.578
-45.926
-46.266
-46.596
-46.914
-47.22
-47.509
-47.781
-48.034
-48.267
-48.479
-48.669
-48.839
-48.988
-49.117
-49.228
-49.321
-49.398
-49.461
-49.511
-49.549
-49.579
-49.601
-49.619
-49.634
-49.65
-49.67
-49.696
-49.731
-49.78
-49.844
-49.927
-50.033
-50.165
-50.326
-50.518
-50.747
-51.013
-51.321
-51.673
-52.072
-52.519
-53.017
-53.567
-54.17
-54.827
-55.538
-56.302
-57.119
-57.989
-58.91
-59.88
-60.899
-61.962
-63.069
-64.215
-65.398
-66.614
-67.859
-69.129
-70.418
-71.723
-73.038
-74.357
-75.676
-76.987
-78.285
-79.563
-80.815
-82.035
-83.216
-84.351
-85.434
-86.458
-87.418
-88.308
-89.123
-89.857
-90.506
-91.065
-91.53
-91.897
-92.163
-92.323
-92.376
-92.318
-92.147
-91.861
-91.46
-90.942
-90.307
-89.556
-88.687
-87.704
-86.607
-85.398
-84.081
-82.657
-81.133
-79.512
-77.8
-76.004
-74.13
-72.186
-70.179
-68.116
-66.007
-63.859
-61.681
-59.484
-57.275
-55.067
-52.869
-50.696
-48.56
-46.477
-44.46
-42.523
-40.681
-38.948
-37.343
-35.879
-34.566
-33.416
-32.439
-31.647
-31.054
-30.667
-30.491
-30.53
-30.786
-31.263
-31.965
-32.895
-34.042
-35.395
-36.944
-38.685
-40.627
-42.776
-45.124
-47.663
-50.38
-53.264
-56.304
-59.479
-62.742
-66.042
-69.319
-72.517
-75.607
-78.559
-81.345
-83.926
-86.236
-88.192
-89.735
-90.824
-91.432
-91.573
-91.247
-90.43
-89.219
-87.821
-86.537
-85.698
-85.48
-85.834
-86.712
-88.247
-90.495
-93.314
-96.188
-98.303
-99.134
-98.684
-97.152
-94.451
-90.43
-85.123
-79.188
-74.045
-70.964
-70.48
-72.58
-77.386
-85.082
-95.706
-108.709
-121.231
-128.924
-128.113
-115.508
-91.533
-60.505
-24.444
16.004
66.293
138.667
240.351
373.751
530.403
690.76
836.947
951.234
1023.316
1049.859
1026.401
954.343
835.327
674.26
486.954
292.383
113.909
-26.756
-119.66
-166.481
-177.435
-164.897
-140.113
-108.243
-73.997
-46.773
-31.087
-29.617
-39.522
-49.034
-51.947
-47.073
-36.728
-28.318
-25.043
-26.143
-30.415
-35.298
-39.563
-43.15
-45.614
-46.959
-47.376
-46.999
-46.107
-44.851
-43.428
-42.368
-42.172
-43.112
-45.247
-48.39
-52.258
-56.636
-61.242
-65.668
-69.612
-72.893
-75.419
-77.231
-78.384
-78.901
-78.842
-78.295
-77.324
-75.99
-74.337
-72.391
-70.204
-67.85
-65.402
-62.94
-60.514
-58.154
-55.877
-53.69
-51.591
-49.569
-47.601
-45.664
-43.737
-41.807
-39.858
-37.875
-35.837
-33.721
-31.502
-29.156
-26.66
-23.997
-21.149
-18.102
-14.847
-11.372
-7.671
-3.74
0.43
4.845
9.511
14.433
19.615
25.057
30.76
36.719
42.929
49.382
56.066
62.967
70.071
77.358
84.809
92.401
100.11
107.909
115.772
123.668
131.567
139.436
147.242
154.951
162.53
169.942
177.154
184.129
190.835
197.237
203.302
208.999
214.298
219.167
223.581
227.514
230.94
233.84
236.193
237.983
239.196
239.821
239.851
239.281
238.11
236.34
233.976
231.025
227.501
223.416
218.788
213.636
207.985
201.858
195.283
188.291
180.913
173.183
165.135
156.807
148.235
139.457
130.512
121.44
112.28
103.07
93.849
84.657
75.53
66.504
57.616
48.898
40.382
32.099
24.077
16.34
8.912
1.814
-4.937
-11.325
-17.339
-22.967
-28.204
-33.046
-37.491
-41.54
-45.198
-48.471
-51.368
-53.899
-56.078
-57.919
-59.439
-60.656
-61.59
-62.26
-62.689
-62.898
-62.911
-62.75
-62.44
-62.002
-61.461
-60.838
-60.156
-59.435
-58.696
-57.958
-57.237
-56.551
-55.914
-55.338
-54.835
-54.414
-54.083
-53.848
-53.712
-53.678
-53.746
-53.915
-54.183
-54.546
-54.998
-55.533
-56.143
-56.82
-57.553
-58.334
-59.152
-59.994
-60.851
-61.711
-62.562
-63.394
-64.195
-64.956
-65.666
-66.317
-66.9
-67.408
-67.834
-68.174
-68.422
-68.577
-68.637
-68.602
-68.472
-68.251
-67.942
-67.551
-67.082
-66.543
-65.942
-65.288
-64.591
-63.859
-63.105
-62.339
-61.572
-60.816
-60.081
-59.379
-58.721
-58.116
-57.575
-57.106
-56.719
-56.419
-56.215
-56.112
-56.115
-56.228
-56.453
-56.792
-57.244
-57.809
-58.484
-59.265
-60.148
-61.124
-62.189
-63.331
-64.543
-65.814
-67.133
-68.487
-69.866
-71.255
-72.642
-74.015
-75.359
-76.662
-77.913
-79.098
-80.208
-81.231
-82.158
-82.98
-83.69
-84.281
-84.748
-85.085
-85.29
-85.361
-85.296
-85.097
-84.765
-84.303
-83.715
-83.009
-82.189
-81.266
-80.248
-79.146
-77.971
-76.734
-75.448
-74.127
-72.784
-71.433
-70.088
-68.762
-67.47
-66.225
-65.038
-63.923
-62.89
-61.949
-61.109
-60.377
-59.76
-59.263
-58.89
-58.645
-58.527
-58.537
-58.674
-58.934
-59.315
-59.809
-60.409
-61.108
-61.895
-62.759
-63.688
-64.668
-65.685
-66.724
-67.77
-68.807
-69.818
-70.788
-71.698
-72.534
-73.278
-73.916
-74.431
-74.811
-75.043
-75.114
-75.015
-74.737
-74.273
-73.619
-72.769
-71.722
-70.477
-69.034
-67.397
-65.567
-63.554
-61.363
-59.005
-56.493
-53.84
-51.064
-48.187
-45.228
-42.21
-39.157
-36.092
-33.041
-30.032
-27.091
-24.244
-21.515
-18.928
-16.51
-14.286
-12.279
-10.509
-8.989
-7.732
-6.75
-6.057
-5.661
-5.563
-5.761
-6.25
-7.028
-8.104
-9.483
-11.158
-13.121
-15.355
-17.842
-20.565
-23.498
-26.597
-29.812
-33.085
-36.355
-39.584
-42.736
-45.774
-48.667
-51.359
-53.779
-55.873
-57.582
-58.855
-59.697
-60.104
-60.045
-59.602
-58.927
-58.237
-57.915
-58.272
-59.375
-61.256
-63.967
-67.392
-71.347
-75.401
-78.559
-79.826
-78.709
-74.971
-68.602
-59.89
-49.078
-36.833
-24.941
-15.503
-10.116
-9.888
-15.102
-25.419
-40.532
-59.403
-79.206
-96.206
-106.451
-105.947
-91.687
-61.268
-12.003
56.969
143.158
242.649
350.061
461.125
575.669
693.142
809.935
917.489
1001.485
1045.396
1036.364
970.24
849.949
688.386
506.519
324.983
166.2
46.089
-32.826
-74.009
-88.001
-86.888
-76.242
-60.984
-46.691
-37.645
-38.474
-49.299
-63.412
-74.245
-77.881
-74.688
-69.921
-67.1
-66.21
-65.664
-63.098
-57.969
-51.721
-45.501
-39.71
-34.586
-30.358
-27.34
-25.792
-25.48
-25.682
-26.068
-26.898
-28.35
-30.481
-33.228
-36.325
-39.667
-43.372
-47.331
-51.187
-54.669
-57.549
-59.715
-61.236
-62.138
-62.391
-62.039
-61.167
-59.857
-58.212
-56.303
-54.155
-51.822
-49.373
-46.879
-44.427
-42.074
-39.845
-37.757
-35.811
-33.996
-32.295
-30.681
-29.117
-27.573
-26.023
-24.445
-22.821
-21.127
-19.338
-17.429
-15.37
-13.137
-10.709
-8.066
-5.195
-2.083
1.278
4.896
8.774
12.915
17.323
22.003
26.957
32.185
37.686
43.454
49.484
55.765
62.285
69.027
75.972
83.101
90.39
97.813
105.345
112.957
120.618
128.296
135.958
143.569
151.095
158.499
165.745
172.796
179.616
186.169
192.419
198.333
203.876
209.018
213.729
217.979
221.742
224.995
227.714
229.88
231.477
232.491
232.911
232.728
231.94
230.544
228.543
225.943
222.752
218.982
214.648
209.769
204.363
198.456
192.073
185.242
177.993
170.359
162.375
154.077
145.5
136.684
127.668
118.489
109.189
99.806
90.38
80.95
71.553
62.226
53.006
43.926
35.02
26.318
17.85
9.641
1.717
-5.901
-13.192
-20.142
-26.734
-32.957
-38.803
-44.265
-49.339
-54.024
-58.322
-62.237
-65.774
-68.943
-71.754
-74.219
-76.354
-78.173
-79.695
-80.939
-81.924
-82.672
-83.202
-83.537
-83.7
-83.711
-83.593
-83.367
-83.054
-82.675
-82.248
-81.792
-81.325
-80.862
-80.418
-80.007
-79.64
-79.328
-79.08
-78.904
-78.805
-78.789
-78.857
-79.013
-79.255
-79.583
-79.994
-80.484
-81.048
-81.681
-82.374
-83.121
-83.913
-84.74
-85.593
-86.463
-87.34
-88.213
-89.072
-89.908
-90.712
-91.473
-92.184
-92.837
-93.424
-93.939
-94.377
-94.731
-94.998
-95.174
-95.258
-95.246
-95.137
-94.933
-94.633
-94.238
-93.751
-93.174
-92.511
-91.767
-90.945
-90.052
-89.093
-88.075
-87.004
-85.886
-84.73
-83.542
-82.329
-81.099
-79.86
-78.618
-77.38
-76.154
-74.945
-73.76
-72.605
-71.485
-70.405
-69.371
-68.385
-67.453
-66.578
-65.763
-65.012
-64.327
-63.71
-63.162
-62.686
-62.282
-61.951
-61.694
-61.51
-61.399
-61.361
-61.394
-61.499
-61.673
-61.915
-62.225
-62.599
-63.036
-63.534
-64.09
-64.704
-65.371
-66.091
-66.859
-67.675
-68.535
-69.435
-70.374
-71.348
-72.354
-73.388
-74.446
-75.526
-76.622
-77.731
-78.849
-79.973
-81.097
-82.217
-83.33
-84.431
-85.515
-86.579
-87.618
-88.628
-89.603
-90.539
-91.433
-92.279
-93.073
-93.811
-94.487
-95.098
-95.64
-96.108
-96.498
-96.806
-97.03
-97.164
-97.208
-97.158
-97.011
-96.767
-96.422
-95.977
-95.43
-94.782
-94.031
-93.178
-92.223
-91.166
-90.009
-88.752
-87.397
-85.945
-84.398
-82.759
-81.031
-79.216
-77.32
-75.344
-73.293
-71.173
-68.988
-66.743
-64.443
-62.096
-59.706
-57.281
-54.828
-52.352
-49.86
-47.362
-44.865
-42.378
-39.911
-37.471
-35.069
-32.717
-30.425
-28.205
-26.067
-24.022
-22.081
-20.26
-18.571
-17.028
-15.642
-14.42
-13.372
-12.509
-11.842
-11.377
-11.113
-11.043
-11.169
-11.503
-12.065
-12.864
-13.903
-15.18
-16.697
-18.468
-20.505
-22.815
-25.381
-28.179
-31.192
-34.42
-37.869
-41.542
-45.403
-49.374
-53.369
-57.31
-61.129
-64.76
-68.108
-71.05
-73.479
-75.325
-76.568
-77.207
-77.238
-76.632
-75.369
-73.466
-70.991
-68.093
-64.951
-61.738
-58.64
-55.862
-53.618
-52.173
-51.841
-52.829
-55.201
-58.855
-63.481
-68.743
-74.361
-79.94
-84.874
-88.569
-90.601
-91.064
-90.7
-90.314
-90.728
-92.811
-97.397
-105.473
-116.676
-128.592
-138.391
-142.746
-141.036
-135.863
-126.174
-108.273
-73.893
-10.641
85.272
210.25
355.467
506.939
655.79
797.281
924.501
1028.357
1097.737
1120.065
1088.373
1004.929
875.145
710.94
529.953
349.113
189.057
66.094
-15.401
-57.864
-72.122
-71.277
-62.44
-50.833
-40.796
-34.861
-36.124
-44.808
-55.67
-63.982
-67.506
-66.895
-67.01
-71.321
-79.488
-89.561
-98.607
-104.624
-107.601
-107.982
-105.791
-101.113
-94.345
-86.09
-77.227
-68.69
-60.863
-53.916
-48.16
-43.694
-40.496
-38.517
-37.461
-36.949
-36.798
-36.878
-37.077
-37.411
-37.833
-38.293
-38.836
-39.494
-40.288
-41.25
-42.373
-43.619
-44.966
-46.361
-47.731
-49.044
-50.264
-51.358
-52.299
-53.024
-53.489
-53.669
-53.538
-53.08
-52.282
-51.116
-49.569
-47.658
-45.402
-42.849
-40.071
-37.103
-33.977
-30.725
-27.366
-23.937
-20.465
-16.954
-13.396
-9.785
-6.112
-2.374
1.43
5.324
9.333
13.49
17.834
22.391
27.174
32.197
37.468
42.99
48.764
54.778
61.008
67.436
74.042
80.806
87.71
94.727
101.826
108.979
116.151
123.314
130.438
137.492
144.446
151.272
157.941
164.428
170.708
176.755
182.543
188.044
193.231
198.08
202.566
206.664
210.352
213.608
216.414
218.754
220.612
221.977
222.838
223.186
223.017
222.327
221.115
219.383
217.135
214.376
211.116
207.365
203.136
198.445
193.307
187.742
181.769
175.412
168.692
161.634
154.265
146.612
138.703
130.568
122.236
113.739
105.108
96.375
87.574
78.735
69.891
61.073
52.312
43.639
35.082
26.67
18.43
10.388
2.567
-5.008
-12.318
-19.343
-26.067
-32.473
-38.548
-44.283
-49.667
-54.694
-59.358
-63.657
-67.59
-71.156
-74.36
-77.204
-79.697
-81.844
-83.656
-85.144
-86.32
-87.197
-87.791
-88.117
-88.191
-88.032
-87.656
-87.082
-86.328
-85.413
-84.356
-83.174
-81.887
-80.511
-79.064
-77.562
-76.019
-74.451
-72.87
-71.289
-69.718
-68.168
-66.647
-65.163
-63.722
-62.33
-60.99
-59.707
-58.483
-57.318
-56.215
-55.171
-54.187
-53.26
-52.389
-51.571
-50.803
-50.081
-49.402
-48.762
-48.157
-47.584
-47.038
-46.516
-46.014
-45.53
-45.059
-44.601
-44.152
-43.713
-43.281
-42.857
-42.441
-42.034
-41.637
-41.252
-40.882
-40.528
-40.193
-39.88
-39.592
-39.333
-39.104
-38.91
-38.753
-38.635
-38.559
-38.526
-38.539
-38.597
-38.701
-38.852
-39.048
-39.29
-39.574
-39.899
-40.263
-40.662
-41.093
-41.551
-42.032
-42.531
-43.042
-43.559
-44.077
-44.588
-45.086
-45.565
-46.018
-46.438
-46.82
-47.157
-47.443
-47.673
-47.843
-47.948
-47.985
-47.95
-47.842
-47.659
-47.401
-47.067
-46.659
-46.18
-45.63
-45.015
-44.337
-43.602
-42.814
-41.98
-41.107
-40.201
-39.269
-38.319
-37.359
-36.396
-35.439
-34.496
-33.574
-32.68
-31.822
-31.007
-30.24
-29.528
-28.874
-28.285
-27.762
-27.31
-26.929
-26.62
-26.384
-26.22
-26.126
-26.1
-26.139
-26.238
-26.394
-26.599
-26.85
-27.137
-27.454
-27.793
-28.144
-28.499
-28.848
-29.183
-29.494
-29.771
-30.005
-30.188
-30.311
-30.367
-30.347
-30.244
-30.052
-29.767
-29.382
-28.897
-28.308
-27.613
-26.815
-25.914
-24.913
-23.815
-22.625
-21.348
-19.991
-18.561
-17.066
-15.516
-13.922
-12.297
-10.657
-9.017
-7.394
-5.807
-4.273
-2.811
-1.439
-0.174
0.969
1.978
2.836
3.531
4.046
4.369
4.489
4.398
4.087
3.551
2.785
1.791
0.575
-0.856
-2.499
-4.354
-6.431
-8.736
-11.266
-14.016
-16.977
-20.137
-23.481
-26.978
-30.577
-34.228
-37.879
-41.486
-45.012
-48.412
-51.626
-54.585
-57.211
-59.431
-61.203
-62.488
-63.247
-63.471
-63.168
-62.375
-61.197
-59.75
-58.139
-56.499
-54.962
-53.644
-52.711
-52.357
-52.71
-53.855
-55.765
-58.218
-60.947
-63.702
-66.113
-67.745
-68.241
-67.299
-64.927
-61.685
-58.32
-55.507
-53.904
-54.219
-56.99
-62.639
-71.274
-80.651
-86.769
-86.463
-76.402
-56.787
-32.087
-2.348
34.119
82.465
154.493
253.97
379.017
523.542
671.468
809.936
926.63
1007.838
1044.502
1026.594
949.693
816.846
637.784
432.711
225.523
41.445
-99.055
-187.355
-226.91
-230.751
-213.057
-186.058
-155.844
-124.949
-99.796
-84.768
-82.137
-91.637
-105.206
-114.16
-115.286
-107.547
-93.863
-80.993
-71.415
-66.356
-67.022
-69.791
-72.184
-73.253
-71.429
-67.824
-63.722
-59.171
-54.525
-49.952
-45.766
-42.632
-40.943
-40.723
-41.795
-43.904
-46.812
-50.196
-53.612
-56.714
-59.284
-61.232
-62.601
-63.43
-63.738
-63.584
-63.053
-62.214
-61.126
-59.829
-58.34
-56.709
-55.01
-53.321
-51.721
-50.262
-48.965
-47.843
-46.891
-46.095
-45.428
-44.854
-44.33
-43.824
-43.307
-42.753
-42.139
-41.436
-40.615
-39.644
-38.49
-37.122
-35.513
-33.639
-31.479
-29.016
-26.232
-23.116
-19.659
-15.856
-11.705
-7.203
-2.344
2.875
8.46
14.409
20.708
27.341
34.291
41.528
49.017
56.71
64.541
72.458
80.421
88.398
96.371
104.315
112.202
120.007
127.708
135.283
142.72
149.995
157.077
163.957
170.638
177.146
183.535
189.831
196.028
202.109
208.035
213.761
219.247
224.434
229.245
233.616
237.487
240.813
243.573
245.709
247.146
247.785
247.499
246.193
243.803
240.275
235.572
229.679
222.599
214.365
205.047
194.698
183.367
171.104
157.949
143.985
129.334
114.135
98.555
82.765
66.932
51.242
35.887
21.028
6.803
-6.677
-19.326
-31.053
-41.765
-51.39
-59.866
-67.168
-73.304
-78.301
-82.201
-85.086
-87.058
-88.252
-88.834
-88.941
-88.685
-88.172
-87.498
-86.758
-86.042
-85.419
-84.935
-84.625
-84.51
-84.605
-84.918
-85.426
-86.086
-86.832
-87.579
-88.261
-88.834
-89.258
-89.495
-89.518
-89.305
-88.852
-88.175
-87.289
-86.206
-84.94
-83.508
-81.937
-80.267
-78.54
-76.806
-75.106
-73.469
-71.921
-70.484
-69.176
-68.009
-66.985
-66.098
-65.344
-64.723
-64.235
-63.879
-63.651
-63.544
-63.552
-63.666
-63.881
-64.189
-64.586
-65.067
-65.627
-66.261
-66.968
-67.746
-68.59
-69.496
-70.456
-71.465
-72.515
-73.597
-74.706
-75.83
-76.964
-78.097
-79.224
-80.336
-81.427
-82.489
-83.515
-84.499
-85.433
-86.312
-87.13
-87.88
-88.557
-89.156
-89.673
-90.104
-90.445
-90.693
-90.845
-90.9
-90.856
-90.712
-90.469
-90.127
-89.689
-89.155
-88.53
-87.817
-87.021
-86.146
-85.198
-84.183
-83.107
-81.977
-80.799
-79.581
-78.33
-77.053
-75.759
-74.454
-73.148
-71.847
-70.56
-69.295
-68.058
-66.858
-65.701
-64.594
-63.543
-62.553
-61.629
-60.777
-60
-59.3
-58.682
-58.145
-57.692
-57.323
-57.037
-56.833
-56.708
-56.661
-56.689
-56.788
-56.953
-57.182
-57.468
-57.807
-58.193
-58.622
-59.086
-59.581
-60.099
-60.634
-61.18
-61.731
-62.28
-62.82
-63.346
-63.85
-64.328
-64.774
-65.183
-65.548
-65.866
-66.132
-66.342
-66.493
-66.582
-66.607
-66.565
-66.455
-66.278
-66.033
-65.72
-65.339
-64.893
-64.382
-63.809
-63.176
-62.485
-61.74
-60.943
-60.099
-59.211
-58.284
-57.323
-56.334
-55.326
-54.306
-53.282
-52.262
-51.256
-50.273
-49.32
-48.404
-47.531
-46.706
-45.935
-45.224
-44.583
-44.016
-43.529
-43.126
-42.811
-42.588
-42.46
-42.423
-42.471
-42.602
-42.817
-43.128
-43.547
-44.078
-44.722
-45.479
-46.342
-47.301
-48.337
-49.411
-50.483
-51.513
-52.461
-53.308
-54.03
-54.589
-54.939
-55.023
-54.781
-54.185
-53.212
-51.833
-50.056
-47.913
-45.472
-42.855
-40.179
-37.536
-35.044
-32.816
-30.971
-29.647
-28.939
-28.951
-29.868
-31.793
-34.727
-38.53
-42.828
-47.198
-51.293
-54.669
-56.732
-57.013
-55.28
-51.856
-47.629
-43.426
-40.019
-38.133
-38.517
-42.154
-48.387
-54.194
-56.536
-52.242
-41.452
-28.475
-13.469
6.825
39.939
97.559
183.144
292.439
417.158
545.57
669.718
784.21
880.07
944.161
961.842
920.845
818.602
665.238
479.233
285.829
109.652
-31.435
-126.34
-176.994
-191.885
-179.722
-152.505
-116.347
-77.355
-46.739
-28.539
-24.697
-32.119
-38.856
-39.259
-32.873
-22.17
-14.607
-13.309
-17.234
-25.071
-34.124
-42.928
-51.194
-58.163
-63.58
-67.587
-70.332
-72.016
-72.751
-72.626
-72.073
-71.825
-72.357
-73.767
-75.9
-78.49
-81.345
-84.37
-87.383
-90.052
-92.142
-93.541
-94.232
-94.318
-93.897
-93.02
-91.74
-90.141
-88.304
-86.339
-84.365
-82.442
-80.586
-78.782
-77.002
-75.237
-73.493
-71.767
-70.035
-68.262
-66.404
-64.43
-62.331
-60.088
-57.658
-54.968
-51.934
-48.503
-44.675
-40.489
-35.977
-31.152
-26.016
-20.576
-14.857
-8.891
-2.69
3.751
10.448
17.415
24.634
32.06
39.641
47.338
55.13
63.02
70.988
79.002
87.034
95.071
103.12
111.207
119.326
127.444
135.52
143.498
151.347
159.065
166.647
174.091
181.395
188.544
195.555
202.469
209.288
215.981
222.48
228.669
234.469
239.836
244.733
249.15
253.054
256.394
259.129
261.23
262.656
263.368
263.297
262.336
260.438
257.607
253.895
249.422
244.274
238.504
232.168
225.311
217.985
210.26
202.182
193.78
185.101
176.203
167.174
158.14
149.18
140.329
131.591
122.923
114.303
105.737
97.22
88.748
80.322
71.941
63.623
55.411
47.327
39.382
31.569
23.86
16.248
8.745
1.375
-5.825
-12.824
-19.607
-26.15
-32.429
-38.426
-44.13
-49.543
-54.681
-59.554
-64.163
-68.509
-72.587
-76.399
-79.951
-83.251
-86.306
-89.127
-91.721
-94.099
-96.275
-98.261
-100.065
-101.693
-103.15
-104.441
-105.572
-106.55
-107.381
-108.072
-108.63
-109.063
-109.379
-109.586
-109.692
-109.703
-109.625
-109.464
-109.226
-108.916
-108.539
-108.1
-107.604
-107.054
-106.455
-105.811
-105.127
-104.406
-103.652
-102.869
-102.061
-101.231
-100.382
-99.518
-98.641
-97.755
-96.862
-95.966
-95.068
-94.173
-93.282
-92.397
-91.521
-90.654
-89.799
-88.954
-88.122
-87.301
-86.493
-85.696
-84.909
-84.133
-83.367
-82.609
-81.858
-81.112
-80.369
-79.628
-78.885
-78.138
-77.385
-76.622
-75.847
-75.058
-74.25
-73.423
-72.572
-71.697
-70.794
-69.86
-68.895
-67.897
-66.862
-65.792
-64.683
-63.537
-62.352
-61.129
-59.87
-58.574
-57.244
-55.883
-54.491
-53.074
-51.634
-50.174
-48.701
-47.218
-45.731
-44.245
-42.767
-41.302
-39.857
-38.439
-37.053
-35.706
-34.404
-33.153
-31.958
-30.827
-29.763
-28.772
-27.859
-27.029
-26.284
-25.629
-25.066
-24.597
-24.226
-23.952
-23.777
-23.701
-23.724
-23.843
-24.058
-24.366
-24.764
-25.246
-25.81
-26.448
-27.156
-27.925
-28.75
-29.623
-30.536
-31.481
-32.449
-33.434
-34.425
-35.414
-36.393
-37.352
-38.284
-39.179
-40.03
-40.828
-41.566
-42.237
-42.834
-43.35
-43.781
-44.118
-44.359
-44.497
-44.529
-44.451
-44.26
-43.955
-43.533
-42.996
-42.344
-41.578
-40.701
-39.717
-38.628
-37.441
-36.159
-34.789
-33.339
-31.814
-30.224
-28.577
-26.886
-25.161
-23.418
-21.669
-19.929
-18.214
-16.538
-14.916
-13.363
-11.891
-10.512
-9.239
-8.083
-7.058
-6.179
-5.456
-4.899
-4.519
-4.323
-4.319
-4.512
-4.899
-5.479
-6.252
-7.223
-8.405
-9.81
-11.445
-13.312
-15.409
-17.727
-20.258
-22.977
-25.846
-28.821
-31.855
-34.904
-37.938
-40.92
-43.805
-46.536
-49.034
-51.232
-53.072
-54.516
-55.535
-56.119
-56.277
-56.056
-55.54
-54.835
-54.064
-53.342
-52.796
-52.558
-52.735
-53.471
-54.962
-57.345
-60.71
-65.003
-69.924
-75.153
-80.426
-85.359
-89.488
-92.406
-93.693
-93.369
-92.198
-90.888
-89.977
-90.161
-91.939
-95.754
-102.409
-110.72
-116.922
-118.095
-111.543
-97.752
-81.498
-63.117
-38.785
-0.34
64.014
158.015
276.982
410.928
546.181
674.149
790.118
887.546
958.694
991.835
975.141
905.272
785.918
628.687
451.646
272.982
110.705
-20.372
-111.472
-161.91
-177.114
-164.696
-135.833
-98.608
-61.092
-34.565
-22.391
-24.386
-35.699
-44.413
-45.572
-39.928
-30.686
-24.845
-25.186
-30.373
-38.65
-47.443
-55.164
-61.218
-65.297
-67.478
-67.935
-67.019
-65.09
-62.381
-59.434
-57.089
-55.868
-56.035
-57.627
-60.364
-64.016
-68.411
-73.223
-78.016
-82.452
-86.313
-89.508
-92.079
-94.054
-95.426
-96.219
-96.478
-96.259
-95.609
-94.56
-93.123
-91.322
-89.205
-86.834
-84.272
-81.582
-78.802
-75.951
-73.041
-70.076
-67.051
-63.959
-60.786
-57.513
-54.123
-50.604
-46.946
-43.138
-39.168
-35.02
-30.678
-26.129
-21.363
-16.374
-11.162
-5.726
-0.067
5.809
11.895
18.183
24.661
31.323
38.158
45.156
52.305
59.591
66.997
74.508
82.105
89.769
97.477
105.206
112.933
120.633
128.28
135.848
143.311
150.641
157.81
164.793
171.56
178.086
184.344
190.308
195.953
201.256
206.194
210.746
214.892
218.615
221.898
224.727
227.088
228.972
230.368
231.27
231.674
231.577
230.978
229.879
228.284
226.199
223.633
220.596
217.101
213.163
208.796
204.02
198.855
193.32
187.44
181.238
174.739
167.97
160.957
153.729
146.312
138.735
131.026
123.214
115.327
107.392
99.437
91.488
83.572
75.713
67.937
60.265
52.72
45.322
38.09
31.043
24.196
17.565
11.162
5.001
-0.909
-6.559
-11.94
-17.048
-21.878
-26.428
-30.696
-34.684
-38.392
-41.825
-44.987
-47.883
-50.52
-52.906
-55.049
-56.959
-58.645
-60.118
-61.389
-62.469
-63.369
-64.101
-64.676
-65.105
-65.398
-65.568
-65.622
-65.572
-65.427
-65.196
-64.887
-64.51
-64.072
-63.58
-63.042
-62.465
-61.854
-61.215
-60.553
-59.872
-59.175
-58.467
-57.749
-57.025
-56.297
-55.565
-54.832
-54.099
-53.366
-52.634
-51.904
-51.175
-50.449
-49.726
-49.007
-48.294
-47.588
-46.891
-46.204
-45.531
-44.872
-44.232
-43.612
-43.014
-42.441
-41.894
-41.377
-40.891
-40.438
-40.02
-39.638
-39.293
-38.988
-38.722
-38.496
-38.31
-38.166
-38.061
-37.997
-37.971
-37.983
-38.033
-38.117
-38.235
-38.383
-38.559
-38.759
-38.981
-39.218
-39.468
-39.724
-39.982
-40.236
-40.48
-40.71
-40.919
-41.103
-41.257
-41.376
-41.456
-41.495
-41.488
-41.434
-41.33
-41.176
-40.97
-40.714
-40.408
-40.053
-39.652
-39.208
-38.725
-38.206
-37.656
-37.079
-36.482
-35.869
-35.248
-34.625
-34.006
-33.4
-32.814
-32.256
-31.736
-31.26
-30.837
-30.476
-30.184
-29.968
-29.835
-29.792
-29.844
-29.997
-30.253
-30.617
-31.091
-31.676
-32.372
-33.18
-34.096
-35.119
-36.243
-37.465
-38.778
-40.176
-41.653
-43.2
-44.81
-46.474
-48.183
-49.927
-51.697
-53.483
-55.272
-57.055
-58.82
-60.554
-62.247
-63.887
-65.463
-66.964
-68.381
-69.702
-70.92
-72.024
-73.008
-73.863
-74.583
-75.164
-75.599
-75.887
-76.026
-76.015
-75.855
-75.547
-75.094
-74.501
-73.772
-72.911
-71.924
-70.818
-69.6
-68.279
-66.864
-65.365
-63.793
-62.162
-60.489
-58.789
-57.079
-55.375
-53.696
-52.058
-50.48
-48.978
-47.569
-46.266
-45.085
-44.041
-43.151
-42.431
-41.894
-41.55
-41.409
-41.475
-41.757
-42.259
-42.98
-43.919
-45.074
-46.445
-48.045
-49.884
-51.964
-54.284
-56.836
-59.602
-62.566
-65.699
-68.955
-72.29
-75.649
-78.983
-82.257
-85.423
-88.439
-91.26
-93.821
-96.072
-97.959
-99.421
-100.43
-100.983
-101.098
-100.856
-100.344
-99.591
-98.762
-98.1
-97.826
-98.224
-99.397
-101.26
-103.951
-107.705
-112.441
-117.826
-123.245
-127.821
-131.183
-133.377
-134.043
-132.759
-129.43
-124.395
-118.89
-114.6
-112.507
-112.933
-116.228
-122.576
-131.875
-143.297
-154.378
-161.747
-162.171
-152.8
-131.04
-94.377
-40.534
32.15
122.25
224.994
335.102
446.646
556.451
666.682
776.909
882.45
974.136
1032.385
1038.986
985.568
870.622
708.003
520.663
329.967
158.593
22.564
-71.775
-124.28
-142.07
-135.735
-116.283
-92.481
-71.952
-60.23
-57.475
-61.498
-66.368
-66.154
-60.391
-51.607
-44.667
-43.225
-47.008
-53.755
-60.866
-66.81
-71.119
-73.842
-75.01
-74.521
-72.595
-69.786
-66.569
-63.443
-61.014
-59.613
-59.526
-60.948
-63.739
-67.662
-72.471
-77.798
-83.216
-88.404
-93.08
-97.059
-100.313
-102.816
-104.56
-105.586
-105.945
-105.696
-104.905
-103.62
-101.873
-99.712
-97.195
-94.399
-91.412
-88.316
-85.185
-82.073
-79.014
-76.031
-73.135
-70.327
-67.603
-64.947
-62.34
-59.768
-57.22
-54.683
-52.144
-49.586
-46.985
-44.32
-41.574
-38.729
-35.774
-32.695
-29.482
-26.127
-22.624
-18.968
-15.156
-11.181
-7.04
-2.725
1.768
6.442
11.299
16.338
21.559
26.96
32.533
38.273
44.169
50.211
56.385
62.676
69.069
75.546
82.087
88.671
95.276
101.878
108.453
114.977
121.422
127.762
133.971
140.022
145.889
151.544
156.962
162.118
166.987
171.546
175.77
179.64
183.134
186.235
188.925
191.189
193.013
194.385
195.298
195.744
195.719
195.219
194.246
192.801
190.89
188.518
185.696
182.434
178.746
174.647
170.155
165.288
160.068
154.516
148.656
142.514
136.115
129.486
122.655
115.648
108.496
101.227
93.869
86.451
79.001
71.549
64.121
56.744
49.446
42.25
35.181
28.263
21.516
14.962
8.618
2.503
-3.368
-8.981
-14.325
-19.388
-24.163
-28.643
-32.823
-36.7
-40.273
-43.543
-46.513
-49.186
-51.568
-53.665
-55.486
-57.04
-58.338
-59.391
-60.212
-60.813
-61.209
-61.414
-61.443
-61.312
-61.035
-60.628
-60.107
-59.488
-58.785
-58.014
-57.189
-56.325
-55.435
-54.532
-53.628
-52.734
-51.862
-51.02
-50.217
-49.461
-48.757
-48.111
-47.528
-47.01
-46.561
-46.181
-45.872
-45.633
-45.463
-45.36
-45.321
-45.345
-45.427
-45.562
-45.747
-45.977
-46.247
-46.551
-46.884
-47.24
-47.615
-48.001
-48.394
-48.789
-49.18
-49.563
-49.932
-50.284
-50.616
-50.923
-51.205
-51.458
-51.68
-51.872
-52.032
-52.16
-52.257
-52.323
-52.36
-52.369
-52.353
-52.313
-52.253
-52.175
-52.081
-51.975
-51.861
-51.74
-51.616
-51.492
-51.371
-51.256
-51.15
-51.054
-50.972
-50.905
-50.856
-50.826
-50.815
-50.825
-50.856
-50.909
-50.982
-51.076
-51.19
-51.322
-51.472
-51.637
-51.816
-52.008
-52.209
-52.419
-52.634
-52.854
-53.076
-53.299
-53.521
-53.74
-53.955
-54.166
-54.371
-54.57
-54.761
-54.946
-55.123
-55.294
-55.459
-55.618
-55.773
-55.926
-56.079
-56.233
-56.391
-56.555
-56.727
-56.91
-57.107
-57.321
-57.553
-57.806
-58.083
-58.386
-58.716
-59.075
-59.463
-59.88
-60.327
-60.802
-61.304
-61.831
-62.381
-62.951
-63.539
-64.141
-64.753
-65.371
-65.99
-66.604
-67.207
-67.794
-68.356
-68.887
-69.38
-69.826
-70.219
-70.551
-70.815
-71.003
-71.106
-71.119
-71.034
-70.843
-70.542
-70.123
-69.583
-68.918
-68.125
-67.203
-66.151
-64.97
-63.662
-62.23
-60.677
-59.006
-57.222
-55.332
-53.344
-51.266
-49.107
-46.879
-44.595
-42.273
-39.929
-37.58
-35.245
-32.941
-30.688
-28.506
-26.416
-24.437
-22.587
-20.885
-19.35
-18.003
-16.863
-15.946
-15.265
-14.83
-14.647
-14.725
-15.071
-15.686
-16.569
-17.716
-19.124
-20.798
-22.742
-24.956
-27.432
-30.158
-33.115
-36.283
-39.636
-43.134
-46.731
-50.377
-54.018
-57.605
-61.093
-64.436
-67.592
-70.518
-73.16
-75.456
-77.349
-78.781
-79.724
-80.21
-80.264
-79.909
-79.241
-78.401
-77.641
-77.369
-77.839
-79.095
-81.163
-84.049
-87.679
-91.957
-96.365
-99.842
-101.6
-101.249
-98.619
-93.856
-87.107
-78.419
-68.614
-59.547
-52.918
-50.099
-51.845
-57.83
-67.798
-81.709
-98.182
-114.358
-126.075
-127.853
-116.248
-89.937
-48.896
5.082
72.795
155.296
252.814
366.831
494.384
631.647
773.748
908.11
1020.675
1094.96
1114.361
1074.742
980.218
841.49
676.865
501.082
328.064
174.469
51.213
-34.111
-79.647
-95.547
-93.175
-82.458
-72.62
-65.191
-60.726
-59.75
-58.742
-55.946
-49.614
-39.317
-29.067
-21.998
-19.915
-22.66
-27.35
-32.459
-37.877
-43.657
-50.13
-56.626
-61.879
-65.516
-67.737
-68.7
-68.551
-67.344
-65.176
-62.659
-60.654
-59.57
-59.468
-60.257
-61.701
-63.631
-65.91
-68.197
-70.075
-71.309
-71.79
-71.53
-70.637
-69.173
-67.172
-64.713
-61.886
-58.772
-55.441
-51.939
-48.308
-44.609
-40.915
-37.306
-33.846
-30.571
-27.506
-24.66
-22.032
-19.616
-17.4
-15.36
-13.479
-11.741
-10.128
-8.622
-7.202
-5.84
-4.507
-3.171
-1.8
-0.367
1.155
2.792
4.563
6.49
8.591
10.884
13.385
16.112
19.082
22.31
25.811
29.593
33.666
38.036
42.704
47.668
52.926
58.467
64.283
70.361
76.683
83.232
89.985
96.919
104.007
111.22
118.526
125.891
133.281
140.659
147.986
155.225
162.336
169.28
176.017
182.509
188.716
194.601
200.128
205.262
209.97
214.219
217.981
221.23
223.941
226.093
227.67
228.656
229.041
228.817
227.981
226.531
224.471
221.807
218.549
214.711
210.308
205.36
199.891
193.925
187.491
180.62
173.344
165.698
157.719
149.445
140.914
132.167
123.244
114.186
105.036
95.832
86.617
77.43
68.309
59.292
50.414
41.711
33.213
24.95
16.951
9.24
1.84
-5.229
-11.949
-18.308
-24.292
-29.893
-35.106
-39.927
-44.356
-48.395
-52.049
-55.326
-58.234
-60.786
-62.995
-64.877
-66.448
-67.727
-68.733
-69.488
-70.011
-70.326
-70.455
-70.419
-70.242
-69.945
-69.551
-69.079
-68.551
-67.985
-67.399
-66.811
-66.235
-65.686
-65.176
-64.717
-64.317
-63.984
-63.725
-63.543
-63.442
-63.422
-63.483
-63.623
-63.839
-64.127
-64.48
-64.892
-65.356
-65.862
-66.402
-66.965
-67.542
-68.121
-68.693
-69.246
-69.77
-70.253
-70.687
-71.062
-71.368
-71.597
-71.742
-71.796
-71.754
-71.609
-71.359
-71.001
-70.533
-69.953
-69.263
-68.465
-67.559
-66.551
-65.445
-64.246
-62.961
-61.596
-60.16
-58.661
-57.109
-55.511
-53.879
-52.222
-50.551
-48.877
-47.209
-45.558
-43.934
-42.348
-40.808
-39.323
-37.903
-36.555
-35.286
-34.103
-33.011
-32.018
-31.125
-30.338
-29.66
-29.091
-28.633
-28.287
-28.052
-27.927
-27.909
-27.995
-28.183
-28.468
-28.846
-29.311
-29.858
-30.48
-31.173
-31.928
-32.739
-33.6
-34.503
-35.442
-36.409
-37.399
-38.404
-39.419
-40.437
-41.454
-42.463
-43.46
-44.441
-45.401
-46.338
-47.247
-48.127
-48.975
-49.791
-50.572
-51.319
-52.032
-52.71
-53.354
-53.967
-54.548
-55.099
-55.623
-56.121
-56.596
-57.05
-57.485
-57.902
-58.305
-58.694
-59.072
-59.439
-59.797
-60.147
-60.488
-60.822
-61.149
-61.467
-61.776
-62.076
-62.364
-62.639
-62.898
-63.138
-63.355
-63.546
-63.707
-63.834
-63.921
-63.964
-63.959
-63.9
-63.781
-63.599
-63.347
-63.021
-62.616
-62.127
-61.551
-60.883
-60.121
-59.263
-58.307
-57.252
-56.099
-54.849
-53.502
-52.063
-50.534
-48.919
-47.222
-45.448
-43.604
-41.7
-39.749
-37.766
-35.763
-33.758
-31.765
-29.804
-27.891
-26.043
-24.27
-22.584
-20.998
-19.528
-18.194
-17.015
-16.006
-15.175
-14.531
-14.079
-13.827
-13.781
-13.935
-14.286
-14.833
-15.581
-16.555
-17.775
-19.253
-20.991
-22.979
-25.198
-27.637
-30.281
-33.112
-36.113
-39.246
-42.452
-45.681
-48.88
-52.003
-55.007
-57.794
-60.221
-62.221
-63.827
-65.191
-66.501
-67.815
-69.021
-70.013
-70.852
-71.575
-72.081
-72.04
-71.027
-68.95
-66.286
-63.806
-61.994
-61.184
-61.655
-63.719
-67.891
-74.292
-82.162
-90.226
-97.486
-103.163
-106.955
-109.129
-109.599
-108.424
-106.491
-104.901
-104.56
-106.525
-110.1
-111.955
-109.326
-99.547
-81.461
-58.51
-32.95
-2.829
36.243
93.43
177.779
289.602
424.407
572.987
720.927
857.484
970.986
1047.831
1077.206
1048.711
959.207
814.703
629.185
424.098
222.111
44.633
-93.343
-185.324
-232.621
-242.783
-225.18
-190.574
-148.538
-108.978
-80.363
-64.536
-59.361
-57.504
-51.753
-41.467
-29.573
-21.606
-21.502
-28.804
-40.909
-54.519
-67.404
-78.33
-86.496
-91.776
-94.216
-94.118
-92.15
-88.86
-84.76
-80.689
-77.484
-75.622
-75.27
-76.277
-78.318
-81.115
-84.421
-87.866
-91.008
-93.564
-95.401
-96.509
-96.97
-96.835
-96.12
-94.871
-93.173
-91.091
-88.684
-85.996
-83.045
-79.881
-76.575
-73.199
-69.833
-66.53
-63.321
-60.226
-57.26
-54.427
-51.727
-49.152
-46.685
-44.311
-42.019
-39.795
-37.627
-35.495
-33.377
-31.247
-29.08
-26.854
-24.547
-22.143
-19.625
-16.979
-14.19
-11.248
-8.144
-4.867
-1.407
2.246
6.102
10.167
14.446
18.944
23.663
28.601
33.756
39.122
44.692
50.456
56.401
62.515
68.781
75.18
81.693
88.297
94.969
101.682
108.41
115.123
121.793
128.388
134.877
141.227
147.409
153.388
159.134
164.616
169.805
174.67
179.184
183.321
187.055
190.362
193.222
195.614
197.522
198.93
199.826
200.199
200.044
199.354
198.129
196.369
194.078
191.262
187.929
184.091
179.762
174.958
169.698
164.003
157.897
151.405
144.553
137.371
129.889
122.137
114.148
105.955
97.592
89.091
80.487
71.815
63.106
54.396
45.716
37.098
28.573
20.171
11.921
3.849
-4.02
-11.66
-19.051
-26.17
-33.001
-39.526
-45.731
-51.602
-57.13
-62.305
-67.123
-71.577
-75.667
-79.392
-82.753
-85.755
-88.403
-90.704
-92.666
-94.301
-95.618
-96.632
-97.355
-97.802
-97.989
-97.931
-97.645
-97.148
-96.457
-95.589
-94.563
-93.395
-92.102
-90.703
-89.213
-87.649
-86.027
-84.363
-82.671
-80.967
-79.263
-77.573
-75.909
-74.281
-72.7
-71.176
-69.716
-68.328
-67.019
-65.794
-64.657
-63.612
-62.661
-61.805
-61.046
-60.384
-59.817
-59.345
-58.965
-58.674
-58.47
-58.349
-58.306
-58.337
-58.437
-58.6
-58.82
-59.093
-59.41
-59.766
-60.153
-60.566
-60.997
-61.438
-61.883
-62.325
-62.756
-63.17
-63.561
-63.921
-64.245
-64.528
-64.764
-64.95
-65.081
-65.154
-65.166
-65.115
-64.998
-64.814
-64.563
-64.245
-63.86
-63.408
-62.892
-62.313
-61.673
-60.977
-60.226
-59.426
-58.581
-57.696
-56.775
-55.825
-54.853
-53.864
-52.866
-51.867
-50.873
-49.893
-48.934
-48.003
-47.108
-46.257
-45.455
-44.711
-44.029
-43.417
-42.879
-42.42
-42.046
-41.759
-41.563
-41.461
-41.456
-41.547
-41.736
-42.024
-42.409
-42.89
-43.466
-44.134
-44.892
-45.734
-46.658
-47.658
-48.729
-49.863
-51.055
-52.296
-53.58
-54.897
-56.24
-57.6
-58.967
-60.334
-61.692
-63.032
-64.345
-65.623
-66.856
-68.039
-69.161
-70.216
-71.196
-72.095
-72.907
-73.625
-74.245
-74.761
-75.17
-75.467
-75.649
-75.712
-75.656
-75.476
-75.172
-74.742
-74.187
-73.506
-72.701
-71.774
-70.725
-69.558
-68.276
-66.881
-65.377
-63.767
-62.056
-60.248
-58.347
-56.358
-54.288
-52.142
-49.926
-47.646
-45.31
-42.924
-40.494
-38.03
-35.536
-33.023
-30.498
-27.97
-25.449
-22.944
-20.467
-18.029
-15.644
-13.325
-11.084
-8.936
-6.893
-4.969
-3.176
-1.527
-0.031
1.301
2.458
3.427
4.199
4.76
5.102
5.215
5.09
4.719
4.099
3.23
2.114
0.753
-0.853
-2.712
-4.827
-7.199
-9.824
-12.695
-15.8
-19.119
-22.62
-26.254
-29.971
-33.72
-37.453
-41.134
-44.725
-48.18
-51.45
-54.473
-57.191
-59.561
-61.542
-63.1
-64.217
-64.904
-65.213
-65.253
-65.132
-64.942
-64.772
-64.706
-64.851
-65.327
-66.238
-67.661
-69.676
-72.41
-75.966
-80.355
-85.411
-90.769
-95.979
-100.592
-104.13
-105.983
-105.563
-102.571
-97.24
-90.256
-82.429
-74.619
-67.635
-62.473
-60.423
-61.02
-61.538
-59.351
-51.293
-37.493
-22.396
-5.805
14.983
47.171
104.339
191.533
307.798
447.551
594.756
737.038
863.312
959.342
1018.515
1033.755
999.676
920.33
799.852
647.11
476.88
303.975
146.036
18.392
-69.939
-118.353
-133.07
-121.979
-96.205
-63.574
-31.525
-11.14
-6.003
-16.518
-38.326
-59.147
-72.83
-78.015
-76.115
-73.524
-72.801
-72.825
-72.58
-70.132
-65.095
-58.791
-52.168
-45.952
-40.735
-36.808
-34.312
-33.277
-33.571
-34.927
-37.127
-40.038
-43.475
-47.24
-51.163
-55.042
-58.711
-62.041
-64.879
-67.111
-68.678
-69.541
-69.701
-69.192
-68.055
-66.349
-64.154
-61.542
-58.587
-55.364
-51.941
-48.397
-44.817
-41.279
-37.86
-34.613
-31.569
-28.749
-26.162
-23.803
-21.663
-19.722
-17.954
-16.339
-14.863
-13.509
-12.261
-11.1
-10
-8.939
-7.892
-6.834
-5.744
-4.597
-3.37
-2.043
-0.599
0.981
2.717
4.631
6.752
9.1
11.689
14.527
17.618
20.962
24.554
28.376
32.4
36.604
40.969
45.48
50.131
54.903
59.777
64.734
69.749
74.812
79.929
85.105
90.353
95.707
101.199
106.885
112.833
119.08
125.643
132.521
139.693
147.153
154.882
162.84
170.983
179.252
187.562
195.839
203.987
211.86
219.309
226.153
232.196
237.297
241.338
244.218
245.859
246.169
245.08
242.578
238.661
233.34
226.64
218.565
209.166
198.569
186.919
174.401
161.216
147.52
133.474
119.25
105.019
90.978
77.289
64.055
51.375
39.344
28.07
17.691
8.297
-0.102
-7.511
-13.97
-19.529
-24.212
-28.08
-31.232
-33.78
-35.868
-37.604
-39.047
-40.259
-41.306
-42.272
-43.273
-44.383
-45.627
-47.024
-48.579
-50.296
-52.193
-54.248
-56.403
-58.589
-60.718
-62.734
-64.613
-66.331
-67.862
-69.18
-70.242
-71.034
-71.567
-71.846
-71.882
-71.68
-71.242
-70.593
-69.776
-68.84
-67.837
-66.806
-65.771
-64.754
-63.776
-62.854
-62.004
-61.23
-60.528
-59.899
-59.344
-58.867
-58.472
-58.158
-57.915
-57.734
-57.608
-57.528
-57.488
-57.483
-57.506
-57.552
-57.618
-57.702
-57.803
-57.917
-58.039
-58.163
-58.281
-58.387
-58.473
-58.531
-58.554
-58.534
-58.466
-58.343
-58.162
-57.917
-57.605
-57.223
-56.767
-56.234
-55.624
-54.936
-54.168
-53.322
-52.398
-51.399
-50.327
-49.184
-47.973
-46.699
-45.366
-43.978
-42.541
-41.06
-39.541
-37.992
-36.419
-34.831
-33.236
-31.643
-30.06
-28.497
-26.963
-25.466
-24.015
-22.619
-21.284
-20.02
-18.832
-17.728
-16.713
-15.793
-14.973
-14.256
-13.647
-13.148
-12.761
-12.488
-12.328
-12.282
-12.349
-12.528
-12.816
-13.212
-13.711
-14.31
-15.004
-15.787
-16.653
-17.597
-18.611
-19.688
-20.822
-22.003
-23.226
-24.481
-25.761
-27.059
-28.366
-29.675
-30.979
-32.27
-33.541
-34.787
-36.002
-37.179
-38.314
-39.404
-40.443
-41.431
-42.363
-43.239
-44.056
-44.814
-45.514
-46.154
-46.737
-47.263
-47.735
-48.153
-48.522
-48.843
-49.12
-49.355
-49.551
-49.711
-49.837
-49.933
-50
-50.041
-50.058
-50.053
-50.028
-49.986
-49.927
-49.853
-49.764
-49.661
-49.543
-49.409
-49.258
-49.087
-48.894
-48.676
-48.43
-48.152
-47.837
-47.482
-47.082
-46.631
-46.126
-45.56
-44.929
-44.227
-43.449
-42.593
-41.654
-40.63
-39.519
-38.319
-37.03
-35.653
-34.188
-32.638
-31.003
-29.287
-27.493
-25.627
-23.694
-21.699
-19.652
-17.562
-15.44
-13.302
-11.159
-9.028
-6.925
-4.865
-2.866
-0.944
0.886
2.611
4.216
5.685
7.003
8.152
9.118
9.889
10.45
10.793
10.907
10.786
10.433
9.852
9.043
8.004
6.723
5.192
3.408
1.374
-0.906
-3.418
-6.143
-9.05
-12.083
-15.188
-18.31
-21.397
-24.413
-27.316
-30.052
-32.561
-34.768
-36.606
-38.027
-38.987
-39.445
-39.396
-38.863
-37.912
-36.664
-35.224
-33.697
-32.203
-30.863
-29.813
-29.191
-29.095
-29.642
-31.016
-33.33
-36.589
-40.644
-45.112
-49.572
-53.653
-56.875
-58.607
-58.307
-55.726
-51.191
-45.503
-39.461
-33.81
-29.271
-26.777
-27.494
-30.72
-33.332
-32.309
-24.322
-9.765
6.289
23.615
44.937
77.971
137.238
228.181
349.122
492.91
641.766
782.766
905.948
999.374
1058.48
1075.249
1041.108
956.445
821.513
646.413
452.379
260.177
95.518
-22.5
-91.821
-119.094
-121.628
-118.622
-117.589
-119.157
-118.888
-110.887
-96.023
-78.778
-63.689
-54.592
-52.205
-55.601
-63.653
-74.612
-86.739
-98.281
-107.646
-114.237
-117.963
-118.718
-116.772
-112.66
-107.082
-101.159
-95.991
-92.077
-89.655
-88.897
-89.727
-92.027
-95.609
-100.019
-104.75
-109.46
-113.897
-117.87
-121.275
-124.009
-125.994
-127.234
-127.773
-127.654
-126.921
-125.606
-123.745
-121.39
-118.608
-115.472
-112.056
-108.439
-104.699
-100.911
-97.146
-93.457
-89.873
-86.416
-83.092
-79.898
-76.826
-73.862
-70.986
-68.181
-65.432
-62.724
-60.04
-57.36
-54.662
-51.923
-49.121
-46.236
-43.247
-40.137
-36.892
-33.497
-29.947
-26.236
-22.359
-18.307
-14.066
-9.62
-4.958
-0.078
5.023
10.339
15.857
21.553
27.39
33.323
39.32
45.357
51.42
57.51
63.62
69.749
75.897
82.049
88.191
94.317
100.407
106.448
112.449
118.426
124.426
130.51
136.699
142.993
149.375
155.783
162.155
168.414
174.448
180.173
185.517
190.406
194.799
198.653
201.893
204.442
206.196
207.028
206.861
205.652
203.372
200.054
195.746
190.531
184.544
177.903
170.701
163.026
154.937
146.487
137.762
128.846
119.836
110.859
102.01
93.363
84.994
76.931
69.182
61.733
54.521
47.494
40.627
33.902
27.323
20.903
14.637
8.528
2.578
-3.229
-8.902
-14.447
-19.879
-25.194
-30.376
-35.401
-40.225
-44.808
-49.127
-53.166
-56.917
-60.385
-63.569
-66.477
-69.125
-71.525
-73.684
-75.612
-77.311
-78.788
-80.058
-81.134
-82.033
-82.775
-83.373
-83.842
-84.196
-84.443
-84.592
-84.65
-84.619
-84.502
-84.304
-84.029
-83.683
-83.273
-82.803
-82.278
-81.704
-81.085
-80.427
-79.731
-79
-78.238
-77.445
-76.626
-75.781
-74.913
-74.025
-73.118
-72.195
-71.26
-70.313
-69.357
-68.394
-67.426
-66.457
-65.487
-64.521
-63.562
-62.612
-61.675
-60.755
-59.857
-58.983
-58.137
-57.323
-56.543
-55.799
-55.095
-54.432
-53.81
-53.231
-52.696
-52.204
-51.757
-51.352
-50.989
-50.666
-50.381
-50.131
-49.913
-49.724
-49.56
-49.417
-49.292
-49.181
-49.08
-48.984
-48.889
-48.79
-48.685
-48.567
-48.434
-48.28
-48.102
-47.897
-47.661
-47.392
-47.086
-46.742
-46.359
-45.935
-45.469
-44.963
-44.417
-43.832
-43.211
-42.557
-41.874
-41.166
-40.438
-39.697
-38.947
-38.195
-37.449
-36.714
-35.998
-35.309
-34.654
-34.039
-33.473
-32.963
-32.516
-32.138
-31.835
-31.615
-31.483
-31.443
-31.501
-31.662
-31.928
-32.305
-32.793
-33.396
-34.114
-34.95
-35.901
-36.969
-38.15
-39.442
-40.842
-42.345
-43.947
-45.641
-47.422
-49.282
-51.214
-53.21
-55.261
-57.359
-59.494
-61.657
-63.838
-66.027
-68.215
-70.391
-72.546
-74.671
-76.756
-78.792
-80.77
-82.683
-84.52
-86.275
-87.939
-89.504
-90.965
-92.314
-93.545
-94.653
-95.633
-96.48
-97.192
-97.766
-98.2
-98.491
-98.64
-98.645
-98.509
-98.231
-97.813
-97.257
-96.566
-95.744
-94.794
-93.72
-92.528
-91.223
-89.81
-88.294
-86.682
-84.979
-83.191
-81.326
-79.389
-77.387
-75.329
-73.222
-71.073
-68.891
-66.685
-64.464
-62.235
-60.008
-57.79
-55.591
-53.419
-51.282
-49.191
-47.153
-45.177
-43.274
-41.455
-39.731
-38.113
-36.611
-35.236
-33.996
-32.905
-31.973
-31.208
-30.616
-30.202
-29.974
-29.938
-30.102
-30.469
-31.041
-31.814
-32.789
-33.964
-35.338
-36.905
-38.652
-40.564
-42.628
-44.841
-47.203
-49.71
-52.354
-55.123
-57.998
-60.961
-63.993
-67.056
-70.108
-73.101
-75.982
-78.707
-81.239
-83.549
-85.611
-87.393
-88.839
-89.889
-90.477
-90.554
-90.125
-89.228
-87.903
-86.173
-84.098
-81.847
-79.723
-78.041
-76.976
-76.492
-76.477
-77.025
-78.321
-80.306
-82.534
-84.298
-84.956
-84.383
-82.795
-80.023
-75.619
-69.437
-61.966
-54.458
-48.359
-44.595
-43.601
-45.986
-52.642
-63.041
-74.739
-84.815
-90.656
-93.123
-95.156
-95.311
-87.011
-57.826
4.134
99.771
220.542
350.983
477.738
597.985
713.267
824.572
925.096
998.461
1027.136
998.786
912.324
775.908
603.714
413.895
223.699
51.591
-85.353
-177.852
-223.183
-226.764
-203.1
-166.635
-130.081
-105.379
-94.629
-94.766
-101.022
-103.716
-99.312
-90.152
-79.637
-74.047
-75.976
-83.941
-95.927
-109.03
-121.442
-132.239
-140.359
-145.37
-147.192
-145.94
-142.081
-136.045
-128.256
-119.531
-110.841
-102.813
-95.747
-89.664
-84.399
-79.85
-75.957
-72.529
-69.259
-65.963
-62.594
-59.201
-55.938
-52.916
-50.19
-47.833
-45.923
-44.501
-43.59
-43.183
-43.207
-43.59
-44.248
-45.057
-45.924
-46.758
-47.445
-47.898
-48.035
-47.771
-47.051
-45.835
-44.088
-41.796
-38.952
-35.553
-31.625
-27.212
-22.375
-17.204
-11.768
-6.122
-0.326
5.579
11.564
17.598
23.674
29.8
35.979
42.221
48.538
54.937
61.433
68.054
74.824
81.782
88.953
96.35
103.98
111.846
119.937
128.242
136.738
145.391
154.17
163.043
171.975
180.937
189.894
198.806
207.635
216.338
224.877
233.212
241.306
249.121
256.62
263.769
270.534
276.885
282.793
288.226
293.156
297.552
301.39
304.643
307.291
309.313
310.69
311.41
311.462
310.837
309.533
307.547
304.883
301.546
297.544
292.889
287.596
281.683
275.169
268.08
260.44
252.279
243.627
234.517
224.985
215.066
204.799
194.223
183.378
172.306
161.048
149.647
138.144
126.581
115
103.442
91.947
80.554
69.302
58.225
47.358
36.734
26.383
16.332
6.608
-2.766
-11.769
-20.383
-28.591
-36.38
-43.738
-50.658
-57.134
-63.162
-68.742
-73.876
-78.566
-82.82
-86.645
-90.051
-93.048
-95.651
-97.872
-99.727
-101.233
-102.407
-103.266
-103.83
-104.116
-104.145
-103.935
-103.504
-102.873
-102.059
-101.08
-99.955
-98.698
-97.328
-95.86
-94.308
-92.687
-91.009
-89.287
-87.533
-85.756
-83.966
-82.171
-80.379
-78.598
-76.832
-75.087
-73.368
-71.679
-70.024
-68.406
-66.828
-65.292
-63.8
-62.355
-60.958
-59.61
-58.312
-57.067
-55.875
-54.738
-53.657
-52.633
-51.666
-50.76
-49.913
-49.128
-48.406
-47.747
-47.151
-46.621
-46.156
-45.758
-45.426
-45.161
-44.963
-44.833
-44.769
-44.77
-44.836
-44.964
-45.153
-45.399
-45.701
-46.054
-46.456
-46.901
-47.386
-47.905
-48.454
-49.027
-49.618
-50.221
-50.831
-51.442
-52.046
-52.64
-53.215
-53.768
-54.291
-54.78
-55.229
-55.634
-55.988
-56.289
-56.532
-56.714
-56.832
-56.882
-56.864
-56.777
-56.619
-56.392
-56.095
-55.732
-55.303
-54.812
-54.263
-53.659
-53.005
-52.307
-51.571
-50.802
-50.006
-49.191
-48.363
-47.529
-46.695
-45.869
-45.057
-44.265
-43.501
-42.771
-42.081
-41.438
-40.846
-40.311
-39.837
-39.43
-39.093
-38.828
-38.64
-38.528
-38.496
-38.542
-38.667
-38.87
-39.148
-39.498
-39.917
-40.399
-40.94
-41.533
-42.172
-42.848
-43.556
-44.288
-45.034
-45.788
-46.541
-47.284
-48.008
-48.704
-49.363
-49.976
-50.533
-51.026
-51.444
-51.781
-52.027
-52.175
-52.216
-52.143
-51.95
-51.631
-51.18
-50.593
-49.865
-48.994
-47.98
-46.821
-45.517
-44.071
-42.485
-40.765
-38.915
-36.942
-34.852
-32.655
-30.358
-27.973
-25.507
-22.973
-20.381
-17.745
-15.084
-12.417
-9.763
-7.143
-4.581
-2.097
0.288
2.554
4.688
6.677
8.51
10.171
11.644
12.911
13.959
14.777
15.359
15.7
15.803
15.675
15.332
14.786
14.045
13.107
11.952
10.562
8.928
7.041
4.904
2.534
-0.057
-2.841
-5.784
-8.866
-12.067
-15.363
-18.737
-22.148
-25.531
-28.821
-31.911
-34.657
-37.013
-39.005
-40.729
-42.406
-44.216
-46.235
-48.564
-51.303
-54.303
-57.237
-59.634
-60.818
-60.389
-58.38
-55.002
-50.576
-45.722
-41.187
-37.795
-36.593
-38.139
-42.241
-48.42
-56.062
-64.44
-72.989
-81.362
-89.139
-96.295
-103.618
-111.27
-118.065
-122.762
-123.884
-121.58
-119.618
-120.044
-120.176
-112.457
-83.274
-21.81
72.541
192.74
325.745
459.728
591.091
718.442
836.317
933.757
992.648
995.788
937.71
823.044
665.759
485.698
301.037
129.27
-13.949
-117.386
-177.31
-196.834
-183.683
-151.754
-112.072
-75.321
-54.016
-50.266
-62.411
-83.991
-101.378
-109.211
-108.031
-100.682
-94.062
-90.666
-88.909
-87.559
-85.22
-81.582
-77.365
-73.17
-69.458
-66.552
-64.747
-63.97
-63.683
-63.689
-64.169
-65.208
-66.926
-69.318
-72.116
-75.223
-78.73
-82.48
-86.134
-89.431
-92.12
-94.079
-95.365
-95.973
-95.858
-95.059
-93.649
-91.71
-89.344
-86.607
-83.519
-80.128
-76.5
-72.713
-68.861
-65.006
-61.183
-57.417
-53.72
-50.098
-46.547
-43.048
-39.574
-36.103
-32.619
-29.112
-25.575
-21.995
-18.356
-14.644
-10.839
-6.926
-2.896
1.262
5.555
9.987
14.559
19.27
24.116
29.096
34.208
39.452
44.827
50.331
55.96
61.711
67.578
73.553
79.627
85.789
92.025
98.322
104.665
111.037
117.42
123.796
130.143
136.443
142.672
148.809
154.83
160.712
166.431
171.963
177.285
182.374
187.205
191.757
196.007
199.935
203.521
206.746
209.591
212.04
214.077
215.689
216.864
217.589
217.857
217.661
216.994
215.855
214.243
212.159
209.607
206.592
203.124
199.212
194.868
190.108
184.948
179.406
173.501
167.257
160.696
153.843
146.723
139.362
131.789
124.032
116.12
108.082
99.948
91.746
83.508
75.262
67.037
58.863
50.766
42.775
34.915
27.212
19.691
12.374
5.282
-1.564
-8.146
-14.448
-20.456
-26.158
-31.541
-36.599
-41.325
-45.713
-49.761
-53.467
-56.832
-59.859
-62.551
-64.912
-66.951
-68.674
-70.092
-71.213
-72.051
-72.615
-72.92
-72.978
-72.804
-72.412
-71.816
-71.031
-70.073
-68.955
-67.694
-66.304
-64.8
-63.195
-61.504
-59.739
-57.912
-56.035
-54.12
-52.175
-50.212
-48.239
-46.265
-44.297
-42.343
-40.41
-38.505
-36.632
-34.798
-33.007
-31.265
-29.574
-27.939
-26.364
-24.852
-23.406
-22.028
-20.722
-19.49
-18.334
-17.255
-16.257
-15.34
-14.506
-13.756
-13.091
-12.514
-12.024
-11.624
-11.314
-11.094
-10.965
-10.928
-10.981
-11.125
-11.357
-11.676
-12.08
-12.566
-13.131
-13.77
-14.479
-15.254
-16.089
-16.979
-17.916
-18.895
-19.909
-20.95
-22.011
-23.085
-24.163
-25.239
-26.303
-27.35
-28.371
-29.359
-30.307
-31.206
-32.052
-32.835
-33.552
-34.196
-34.762
-35.245
-35.643
-35.952
-36.17
-36.297
-36.332
-36.277
-36.132
-35.901
-35.588
-35.196
-34.732
-34.201
-33.61
-32.966
-32.278
-31.553
-30.801
-30.031
-29.251
-28.472
-27.702
-26.952
-26.231
-25.548
-24.914
-24.336
-23.824
-23.386
-23.03
-22.764
-22.594
-22.526
-22.567
-22.72
-22.988
-23.376
-23.884
-24.514
-25.266
-26.138
-27.13
-28.237
-29.458
-30.786
-32.217
-33.746
-35.365
-37.068
-38.848
-40.696
-42.605
-44.565
-46.568
-48.604
-50.664
-52.738
-54.816
-56.889
-58.948
-60.981
-62.981
-64.938
-66.844
-68.691
-70.471
-72.176
-73.799
-75.335
-76.777
-78.119
-79.357
-80.485
-81.5
-82.398
-83.177
-83.836
-84.37
-84.781
-85.066
-85.225
-85.259
-85.169
-84.954
-84.616
-84.159
-83.585
-82.897
-82.101
-81.201
-80.201
-79.109
-77.929
-76.67
-75.337
-73.938
-72.478
-70.967
-69.41
-67.819
-66.2
-64.565
-62.927
-61.297
-59.689
-58.118
-56.596
-55.138
-53.758
-52.468
-51.279
-50.201
-49.244
-48.419
-47.739
-47.212
-46.849
-46.656
-46.64
-46.808
-47.163
-47.705
-48.428
-49.328
-50.402
-51.655
-53.101
-54.751
-56.609
-58.676
-60.951
-63.43
-66.104
-68.949
-71.92
-74.969
-78.046
-81.11
-84.128
-87.061
-89.854
-92.436
-94.726
-96.657
-98.178
-99.25
-99.835
-99.914
-99.491
-98.609
-97.369
-95.894
-94.311
-92.759
-91.374
-90.274
-89.609
-89.594
-90.394
-92.138
-94.815
-98.171
-101.946
-105.927
-109.798
-113.147
-115.557
-116.584
-116.19
-115.117
-114.099
-113.708
-114.722
-117.72
-123.194
-132.004
-142.894
-151.823
-155.651
-151.527
-140.058
-126.506
-111.292
-90.128
-53.802
10.863
108.098
232.494
372.572
512.906
643.519
759.703
855.207
922.953
954.244
939.434
877.882
775.606
639.919
484.084
320.43
160.499
21.499
-83.654
-149.168
-174.076
-167.706
-144.214
-114.67
-90.244
-77.643
-76.131
-82.95
-91.227
-94.519
-92.096
-86.172
-81.776
-82.673
-88.462
-96.845
-104.811
-110.423
-113.614
-114.817
-114.211
-111.936
-108.302
-103.864
-99.415
-95.761
-93.251
-91.993
-92.186
-93.843
-96.849
-101.036
-106.023
-111.336
-116.658
-121.741
-126.355
-130.4
-133.802
-136.487
-138.468
-139.786
-140.473
-140.577
-140.143
-139.196
-137.774
-135.929
-133.717
-131.213
-128.498
-125.649
-122.739
-119.823
-116.934
-114.097
-111.323
-108.616
-105.968
-103.36
-100.772
-98.188
-95.593
-92.975
-90.319
-87.604
-84.811
-81.92
-78.914
-75.778
-72.5
-69.068
-65.472
-61.706
-57.767
-53.651
-49.359
-44.888
-40.235
-35.399
-30.378
-25.172
-19.781
-14.209
-8.457
-2.533
3.558
9.804
16.193
22.711
29.343
36.071
42.877
49.739
56.636
63.545
70.441
77.3
84.094
90.797
97.381
103.818
110.08
116.138
121.965
127.534
132.817
137.789
142.427
146.705
150.602
154.096
157.167
159.798
161.971
163.672
164.887
165.606
165.821
165.527
164.719
163.399
161.566
159.227
156.387
153.056
149.245
144.968
140.242
135.084
129.516
123.561
117.243
110.588
103.624
96.38
88.886
81.172
73.271
65.213
57.031
48.757
40.424
32.064
23.708
15.39
7.139
-1.014
-9.04
-16.91
-24.597
-32.077
-39.324
-46.316
-53.032
-59.453
-65.562
-71.343
-76.781
-81.867
-86.591
-90.945
-94.926
-98.529
-101.755
-104.605
-107.083
-109.192
-110.94
-112.335
-113.386
-114.104
-114.502
-114.592
-114.389
-113.909
-113.167
-112.181
-110.967
-109.543
-107.927
-106.138
-104.193
-102.112
-99.913
-97.614
-95.234
-92.789
-90.299
-87.78
-85.248
-82.718
-80.205
-77.723
-75.285
-72.901
-70.582
-68.338
-66.178
-64.107
-62.134
-60.263
-58.497
-56.841
-55.297
-53.866
-52.548
-51.343
-50.25
-49.266
-48.389
-47.616
-46.941
-46.362
-45.872
-45.465
-45.135
-44.874
-44.677
-44.533
-44.436
-44.377
-44.348
-44.339
-44.343
-44.35
-44.354
-44.345
-44.316
-44.26
-44.17
-44.04
-43.863
-43.634
-43.348
-43
-42.587
-42.106
-41.553
-40.926
-40.224
-39.447
-38.593
-37.662
-36.657
-35.577
-34.426
-33.206
-31.919
-30.571
-29.166
-27.708
-26.204
-24.659
-23.08
-21.473
-19.845
-18.204
-16.557
-14.91
-13.272
-11.648
-10.047
-8.474
-6.937
-5.442
-3.995
-2.602
-1.267
0.004
1.207
2.338
3.392
4.368
5.261
6.071
6.796
7.434
7.984
8.447
8.823
9.113
9.319
9.442
9.484
9.449
9.34
9.16
8.912
8.601
8.23
7.804
7.328
6.804
6.238
5.633
4.993
4.323
3.627
2.906
2.167
1.41
0.64
-0.141
-0.929
-1.723
-2.519
-3.316
-4.112
-4.904
-5.692
-6.473
-7.247
-8.011
-8.766
-9.508
-10.238
-10.953
-11.652
-12.333
-12.995
-13.635
-14.252
-14.843
-15.405
-15.935
-16.431
-16.889
-17.304
-17.673
-17.992
-18.255
-18.457
-18.593
-18.657
-18.645
-18.55
-18.369
-18.095
-17.724
-17.25
-16.668
-15.973
-15.161
-14.228
-13.171
-11.985
-10.669
-9.221
-7.643
-5.933
-4.093
-2.126
-0.033
2.181
4.51
6.95
9.493
12.13
14.852
17.646
20.501
23.4
26.33
29.272
32.208
35.12
37.987
40.787
43.498
46.094
48.554
50.86
52.989
54.924
56.646
58.135
59.376
60.357
61.066
61.489
61.613
61.426
60.926
60.12
59.017
57.628
55.955
53.991
51.734
49.191
46.368
43.273
39.915
36.305
32.469
28.464
24.351
20.189
16.019
11.853
7.695
3.566
-0.477
-4.356
-7.985
-11.292
-14.246
-16.803
-18.883
-20.501
-21.754
-22.821
-24.043
-25.703
-27.848
-30.502
-33.663
-37.064
-40.515
-43.842
-46.438
-47.807
-47.827
-46.286
-43.249
-39.317
-34.704
-29.449
-24.228
-19.641
-16.141
-14.578
-15.422
-18.453
-23.933
-32.488
-43.084
-53.592
-62.152
-65.858
-64.827
-62.633
-58.483
-49.259
-27.205
20.493
97.992
202.781
326.173
453.311
576.138
690.383
793.464
882.859
950.495
987.061
982.452
932.738
839.327
705.703
546.283
376.218
213.45
81.025
-12.702
-67.704
-91.791
-103.608
-112.613
-120.602
-125.901
-121.461
-105.993
-83.604
-58.585
-35.628
-16.806
-2.027
8.365
14.222
15.899
14.119
9.944
4.052
-3.246
-11.523
-19.829
-26.95
-32.217
-35.576
-37.326
-37.763
-37.061
-35.443
-33.492
-32.049
-31.624
-32.353
-34.123
-36.647
-39.682
-43.019
-46.347
-49.277
-51.563
-53.106
-53.899
-54.047
-53.631
-52.699
-51.322
-49.58
-47.535
-45.238
-42.739
-40.075
-37.303
-34.493
-31.697
-28.953
-26.287
-23.709
-21.224
-18.827
-16.503
-14.231
-11.999
-9.798
-7.619
-5.456
-3.292
-1.11
1.108
3.383
5.733
8.177
10.731
13.41
16.225
19.182
22.29
25.552
28.975
32.569
36.339
40.292
44.434
48.768
53.295
58.018
62.932
68.034
73.317
78.77
84.386
90.15
96.051
102.071
108.194
114.402
120.673
126.985
133.315
139.637
145.926
152.154
158.293
164.315
170.191
175.892
181.388
186.652
191.653
196.365
200.759
204.809
208.49
211.777
214.648
217.081
219.058
220.561
221.576
222.089
222.09
221.572
220.529
218.958
216.857
214.23
211.079
207.413
203.241
198.574
193.425
187.813
181.755
175.272
168.386
161.122
153.506
145.565
137.328
128.824
120.086
111.145
102.034
92.785
83.433
74.01
64.55
55.087
45.651
36.276
26.991
17.826
8.811
-0.027
-8.662
-17.069
-25.226
-33.109
-40.701
-47.981
-54.935
-61.549
-67.809
-73.705
-79.229
-84.374
-89.136
-93.511
-97.498
-101.099
-104.315
-107.151
-109.613
-111.709
-113.446
-114.836
-115.889
-116.619
-117.037
-117.159
-116.998
-116.57
-115.891
-114.976
-113.842
-112.505
-110.982
-109.29
-107.444
-105.462
-103.36
-101.154
-98.858
-96.489
-94.06
-91.586
-89.082
-86.558
-84.029
-81.506
-78.999
-76.518
-74.074
-71.674
-69.327
-67.038
-64.813
-62.658
-60.578
-58.574
-56.652
-54.812
-53.056
-51.386
-49.803
-48.305
-46.894
-45.567
-44.324
-43.163
-42.081
-41.075
-40.143
-39.281
-38.486
-37.753
-37.079
-36.458
-35.888
-35.362
-34.877
-34.427
-34.008
-33.616
-33.246
-32.893
-32.555
-32.227
-31.906
-31.589
-31.275
-30.959
-30.641
-30.32
-29.992
-29.658
-29.316
-28.967
-28.609
-28.243
-27.87
-27.491
-27.106
-26.718
-26.328
-25.938
-25.551
-25.169
-24.795
-24.431
-24.082
-23.75
-23.438
-23.151
-22.891
-22.662
-22.468
-22.31
-22.192
-22.117
-22.087
-22.103
-22.167
-22.281
-22.445
-22.66
-22.926
-23.244
-23.613
-24.034
-24.504
-25.025
-25.593
-26.207
-26.866
-27.568
-28.31
-29.09
-29.907
-30.756
-31.637
-32.546
-33.481
-34.44
-35.42
-36.419
-37.435
-38.466
-39.511
-40.566
-41.633
-42.709
-43.795
-44.89
-45.996
-47.113
-48.243
-49.386
-50.544
-51.72
-52.916
-54.133
-55.375
-56.644
-57.943
-59.275
-60.644
-62.052
-63.501
-64.994
-66.534
-68.12
-69.755
-71.439
-73.172
-74.954
-76.783
-78.658
-80.576
-82.536
-84.533
-86.563
-88.62
-90.7
-92.794
-94.894
-96.994
-99.082
-101.15
-103.187
-105.182
-107.125
-109.003
-110.804
-112.516
-114.127
-115.623
-116.993
-118.223
-119.3
-120.214
-120.954
-121.509
-121.87
-122.03
-121.981
-121.719
-121.238
-120.536
-119.612
-118.465
-117.096
-115.509
-113.71
-111.705
-109.502
-107.113
-104.549
-101.828
-98.966
-95.981
-92.895
-89.73
-86.508
-83.255
-79.994
-76.75
-73.545
-70.405
-67.354
-64.418
-61.623
-58.994
-56.554
-54.325
-52.328
-50.582
-49.1
-47.891
-46.961
-46.316
-45.964
-45.92
-46.199
-46.808
-47.752
-49.03
-50.634
-52.551
-54.757
-57.209
-59.862
-62.673
-65.597
-68.602
-71.653
-74.705
-77.702
-80.57
-83.233
-85.628
-87.695
-89.384
-90.671
-91.553
-92.063
-92.272
-92.244
-92.053
-91.772
-91.467
-91.218
-91.105
-91.201
-91.657
-92.677
-94.401
-96.901
-100.088
-103.637
-107.183
-110.34
-112.531
-113.097
-111.521
-107.486
-101.199
-93.598
-85.885
-79.223
-75.018
-73.948
-75.38
-78.676
-82.309
-85.69
-91.35
-99.889
-108.306
-109.255
-88.21
-33.305
56.326
174.444
306.455
437.749
565.929
691.093
810.675
918.156
994.892
1021.414
990.52
904.237
775.883
624.133
460.65
296.5
142.972
9.876
-89.167
-148.155
-169.722
-159.55
-131.31
-95.435
-59.884
-35.735
-25.992
-31.143
-47.871
-64.975
-76.737
-81.481
-80.077
-78.342
-78.482
-79.368
-79.999
-78.414
-74.244
-68.811
-63.02
-57.636
-53.3
-50.32
-48.872
-48.991
-50.508
-53.122
-56.591
-60.758
-65.438
-70.436
-75.562
-80.605
-85.384
-89.752
-93.588
-96.805
-99.351
-101.2
-102.353
-102.838
-102.705
-102.023
-100.86
-99.278
-97.337
-95.092
-92.612
-89.977
-87.266
-84.556
-81.902
-79.335
-76.879
-74.542
-72.322
-70.209
-68.179
-66.199
-64.242
-62.289
-60.319
-58.316
-56.257
-54.116
-51.87
-49.494
-46.966
-44.269
-41.385
-38.297
-34.993
-31.463
-27.701
-23.701
-19.458
-14.965
-10.217
-5.21
0.058
5.588
11.378
17.425
23.723
30.264
37.035
44.023
51.213
58.587
66.124
73.804
81.602
89.494
97.453
105.451
113.457
121.442
129.374
137.222
144.951
152.53
159.926
167.106
174.037
180.69
187.032
193.035
198.67
203.912
208.735
213.116
217.033
220.469
223.405
225.828
227.725
229.086
229.906
230.179
229.904
229.082
227.717
225.814
223.383
220.434
216.982
213.042
208.631
203.77
198.48
192.786
186.712
180.285
173.533
166.485
159.17
151.619
143.862
135.932
127.859
119.675
111.409
103.094
94.759
86.433
78.145
69.922
61.791
53.776
45.903
38.194
30.67
23.35
16.253
9.394
2.789
-3.55
-9.612
-15.387
-20.868
-26.049
-30.926
-35.497
-39.759
-43.714
-47.364
-50.712
-53.764
-56.524
-59.001
-61.202
-63.137
-64.816
-66.249
-67.447
-68.422
-69.186
-69.751
-70.131
-70.338
-70.385
-70.285
-70.051
-69.697
-69.234
-68.675
-68.032
-67.317
-66.54
-65.713
-64.846
-63.948
-63.029
-62.098
-61.163
-60.231
-59.309
-58.405
-57.522
-56.668
-55.844
-55.057
-54.308
-53.601
-52.937
-52.319
-51.747
-51.222
-50.745
-50.316
-49.934
-49.599
-49.309
-49.063
-48.861
-48.7
-48.579
-48.496
-48.449
-48.435
-48.454
-48.502
-48.577
-48.678
-48.801
-48.943
-49.104
-49.279
-49.466
-49.664
-49.869
-50.081
-50.296
-50.513
-50.73
-50.947
-51.161
-51.372
-51.578
-51.778
-51.973
-52.161
-52.341
-52.513
-52.677
-52.832
-52.978
-53.113
-53.238
-53.351
-53.452
-53.54
-53.614
-53.674
-53.717
-53.745
-53.755
-53.747
-53.72
-53.674
-53.607
-53.52
-53.41
-53.278
-53.122
-52.942
-52.736
-52.505
-52.246
-51.959
-51.643
-51.298
-50.923
-50.517
-50.081
-49.613
-49.115
-48.588
-48.032
-47.448
-46.84
-46.209
-45.558
-44.891
-44.21
-43.52
-42.825
-42.13
-41.439
-40.757
-40.09
-39.443
-38.822
-38.232
-37.679
-37.169
-36.708
-36.301
-35.954
-35.673
-35.463
-35.329
-35.277
-35.309
-35.432
-35.648
-35.96
-36.37
-36.879
-37.488
-38.197
-39.004
-39.907
-40.903
-41.987
-43.156
-44.402
-45.721
-47.104
-48.544
-50.031
-51.555
-53.108
-54.677
-56.252
-57.821
-59.371
-60.892
-62.37
-63.794
-65.151
-66.43
-67.619
-68.705
-69.679
-70.529
-71.245
-71.819
-72.243
-72.509
-72.613
-72.55
-72.317
-71.913
-71.338
-70.592
-69.679
-68.602
-67.366
-65.979
-64.449
-62.785
-61
-59.106
-57.116
-55.05
-52.923
-50.756
-48.569
-46.382
-44.219
-42.1
-40.047
-38.081
-36.222
-34.488
-32.898
-31.472
-30.228
-29.185
-28.359
-27.765
-27.417
-27.325
-27.499
-27.939
-28.646
-29.619
-30.858
-32.371
-34.163
-36.236
-38.588
-41.215
-44.104
-47.232
-50.566
-54.054
-57.641
-61.271
-64.888
-68.449
-71.907
-75.215
-78.314
-81.136
-83.613
-85.686
-87.307
-88.429
-89.031
-89.132
-88.793
-88.128
-87.259
-86.288
-85.313
-84.453
-83.818
-83.531
-83.72
-84.456
-85.847
-88.095
-91.293
-95.42
-100.301
-105.47
-110.378
-114.555
-117.404
-118.173
-116.38
-111.874
-104.95
-96.553
-87.889
-80.037
-74.06
-71.312
-71.84
-73.721
-74.794
-72.109
-64.49
-54.753
-43.784
-28.39
-1.776
47.813
129.231
241.505
377.799
526.664
675.04
815.265
939.735
1036.775
1094.746
1100.611
1045.098
930.03
764.56
565.038
354.983
158.102
-4.565
-118.787
-183.387
-207.574
-204.176
-184.222
-153.867
-115.438
-73.14
-35.47
-9.488
1.043
-1.683
-9.099
-15.629
-19.208
-21.013
-26.11
-35.852
-48.776
-62.738
-73.766
-80.192
-82.54
-81.217
-77.211
-71.577
-64.769
-57.612
-51.367
-46.652
-43.696
-42.599
-43.061
-44.764
-47.54
-50.996
-54.599
-58.004
-60.946
-63.281
-65.05
-66.258
-66.882
-66.955
-66.514
-65.6
-64.278
-62.58
-60.523
-58.145
-55.487
-52.613
-49.604
-46.535
-43.481
-40.494
-37.604
-34.835
-32.2
-29.698
-27.328
-25.075
-22.912
-20.819
-18.777
-16.767
-14.773
-12.77
-10.731
-8.629
-6.439
-4.14
-1.715
0.853
3.579
6.476
9.553
12.816
16.271
19.922
23.774
27.832
32.099
36.576
41.263
46.157
51.255
56.551
62.036
67.7
73.528
79.506
85.616
91.841
98.16
104.551
110.99
117.455
123.918
130.356
136.74
143.043
149.237
155.295
161.19
166.892
172.376
177.615
182.585
187.26
191.617
195.635
199.293
202.572
205.453
207.922
209.965
211.568
212.721
213.416
213.649
213.414
212.712
211.542
209.909
207.818
205.276
202.293
198.88
195.05
190.817
186.199
181.213
175.878
170.215
164.247
157.995
151.483
144.737
137.78
130.638
123.337
115.903
108.36
100.736
93.056
85.345
77.629
69.932
62.277
54.689
47.19
39.799
32.538
25.426
18.479
11.714
5.147
-1.21
-7.344
-13.245
-18.902
-24.307
-29.455
-34.339
-38.956
-43.304
-47.38
-51.186
-54.721
-57.988
-60.99
-63.732
-66.218
-68.453
-70.446
-72.203
-73.732
-75.042
-76.143
-77.044
-77.755
-78.286
-78.648
-78.851
-78.905
-78.82
-78.607
-78.275
-77.833
-77.292
-76.659
-75.944
-75.154
-74.297
-73.379
-72.409
-71.391
-70.332
-69.237
-68.109
-66.955
-65.776
-64.578
-63.363
-62.133
-60.891
-59.639
-58.378
-57.109
-55.833
-54.552
-53.265
-51.973
-50.675
-49.374
-48.067
-46.757
-45.444
-44.127
-42.808
-41.488
-40.168
-38.848
-37.531
-36.218
-34.912
-33.614
-32.328
-31.055
-29.801
-28.566
-27.356
-26.174
-25.023
-23.908
-22.832
-21.801
-20.817
-19.887
-19.013
-18.2
-17.453
-16.776
-16.173
-15.647
-15.203
-14.842
-14.57
-14.387
-14.296
-14.3
-14.398
-14.593
-14.884
-15.272
-15.756
-16.335
-17.006
-17.769
-18.619
-19.555
-20.571
-21.665
-22.831
-24.064
-25.359
-26.711
-28.113
-29.558
-31.041
-32.554
-34.091
-35.643
-37.206
-38.77
-40.33
-41.879
-43.41
-44.917
-46.394
-47.835
-49.236
-50.592
-51.897
-53.148
-54.342
-55.476
-56.546
-57.552
-58.491
-59.364
-60.17
-60.908
-61.581
-62.188
-62.731
-63.213
-63.636
-64.002
-64.314
-64.577
-64.792
-64.965
-65.1
-65.2
-65.27
-65.313
-65.334
-65.336
-65.322
-65.297
-65.263
-65.223
-65.18
-65.136
-65.092
-65.052
-65.015
-64.982
-64.954
-64.929
-64.908
-64.89
-64.871
-64.852
-64.829
-64.8
-64.762
-64.714
-64.651
-64.571
-64.47
-64.345
-64.193
-64.008
-63.788
-63.528
-63.225
-62.875
-62.476
-62.025
-61.519
-60.955
-60.333
-59.65
-58.904
-58.095
-57.222
-56.285
-55.283
-54.217
-53.091
-51.905
-50.664
-49.371
-48.03
-46.644
-45.219
-43.76
-42.273
-40.762
-39.235
-37.699
-36.16
-34.627
-33.111
-31.62
-30.167
-28.764
-27.419
-26.147
-24.96
-23.871
-22.893
-22.038
-21.312
-20.726
-20.288
-20.008
-19.895
-19.956
-20.191
-20.605
-21.2
-21.982
-22.957
-24.12
-25.458
-26.96
-28.614
-30.423
-32.394
-34.532
-36.828
-39.273
-41.859
-44.58
-47.426
-50.373
-53.369
-56.354
-59.271
-62.076
-64.757
-67.306
-69.7
-71.891
-73.792
-75.321
-76.435
-77.117
-77.362
-77.15
-76.429
-75.233
-73.757
-72.315
-71.224
-70.652
-70.549
-70.816
-71.552
-72.862
-74.653
-76.527
-77.85
-78.173
-77.545
-76.261
-74.321
-71.541
-67.873
-63.638
-59.707
-57.028
-55.994
-56.617
-59.058
-63.454
-69.859
-78.136
-87.326
-95.783
-100.943
-99.223
-87.403
-63.704
-29.886
10.45
55.467
106.253
169.829
253.626
360.111
486.713
622.62
754.676
869.801
954.469
997.796
990.075
927.57
813.431
657.959
479.889
299.307
137.207
10.357
-75.055
-120.941
-137.412
-136.253
-124.765
-106.59
-83.416
-59.451
-41.088
-33.183
-36.005
-43.917
-50.453
-52.36
-50.565
-49.449
-51.777
-57.296
-64.336
-70.19
-73.646
-75.019
-74.422
-72.214
-68.889
-64.792
-60.563
-56.988
-54.371
-52.793
-52.435
-53.295
-55.265
-58.222
-61.818
-65.583
-69.232
-72.554
-75.351
-77.555
-79.115
-79.968
-80.15
-79.724
-78.734
-77.237
-75.284
-72.9
-70.134
-67.047
-63.7
-60.171
-56.541
-52.884
-49.272
-45.759
-42.381
-39.163
-36.119
-33.251
-30.557
-28.024
-25.635
-23.378
-21.239
-19.206
-17.263
-15.39
-13.564
-11.764
-9.969
-8.157
-6.313
-4.417
-2.452
-0.405
1.739
3.991
6.365
8.873
11.529
14.346
17.338
20.517
23.893
27.475
31.272
35.29
39.531
43.997
48.688
53.599
58.726
64.062
69.597
75.318
81.213
87.265
93.456
99.766
106.173
112.654
119.184
125.735
132.28
138.791
145.237
151.588
157.815
163.886
169.77
175.436
180.855
185.996
190.83
195.329
199.466
203.215
206.552
209.455
211.902
213.877
215.362
216.344
216.812
216.757
216.172
215.055
213.404
211.221
208.51
205.279
201.537
197.296
192.572
187.381
181.744
175.683
169.22
162.383
155.197
147.693
139.901
131.852
123.578
115.113
106.492
97.747
88.915
80.029
71.124
62.234
53.393
44.632
35.984
27.48
19.148
11.017
3.112
-4.541
-11.921
-19.006
-25.778
-32.22
-38.318
-44.061
-49.437
-54.441
-59.068
-63.313
-67.178
-70.664
-73.774
-76.514
-78.893
-80.918
-82.602
-83.957
-84.996
-85.736
-86.192
-86.381
-86.323
-86.035
-85.536
-84.847
-83.988
-82.977
-81.836
-80.583
-79.239
-77.821
-76.35
-74.841
-73.312
-71.779
-70.256
-68.757
-67.296
-65.882
-64.526
-63.236
-62.021
-60.884
-59.832
-58.868
-57.993
-57.209
-56.517
-55.913
-55.398
-54.968
-54.618
-54.346
-54.146
-54.012
-53.938
-53.919
-53.947
-54.017
-54.12
-54.252
-54.404
-54.57
-54.744
-54.921
-55.094
-55.258
-55.41
-55.544
-55.658
-55.75
-55.816
-55.857
-55.873
-55.863
-55.828
-55.772
-55.696
-55.604
-55.498
-55.384
-55.266
-55.149
-55.038
-54.939
-54.857
-54.799
-54.769
-54.774
-54.82
-54.911
-55.054
-55.252
-55.51
-55.833
-56.223
-56.684
-57.218
-57.827
-58.512
-59.274
-60.112
-61.025
-62.011
-63.067
-64.19
-65.375
-66.617
-67.91
-69.249
-70.625
-72.032
-73.461
-74.903
-76.35
-77.793
-79.221
-80.626
-81.998
-83.326
-84.601
-85.815
-86.957
-88.018
-88.992
-89.869
-90.643
-91.307
-91.854
-92.279
-92.578
-92.746
-92.782
-92.682
-92.446
-92.073
-91.565
-90.924
-90.151
-89.251
-88.228
-87.088
-85.836
-84.481
-83.029
-81.49
-79.872
-78.187
-76.444
-74.655
-72.831
-70.983
-69.124
-67.266
-65.42
-63.598
-61.813
-60.076
-58.397
-56.788
-55.259
-53.819
-52.478
-51.244
-50.123
-49.123
-48.249
-47.504
-46.894
-46.421
-46.086
-45.89
-45.834
-45.915
-46.132
-46.481
-46.957
-47.555
-48.268
-49.088
-50.006
-51.013
-52.099
-53.252
-54.461
-55.714
-56.999
-58.303
-59.612
-60.913
-62.192
-63.437
-64.633
-65.768
-66.831
-67.809
-68.692
-69.47
-70.134
-70.675
-71.085
-71.357
-71.484
-71.463
-71.288
-70.958
-70.471
-69.827
-69.029
-68.081
-66.991
-65.768
-64.421
-62.959
-61.394
-59.742
-58.018
-56.24
-54.421
-52.578
-50.727
-48.885
-47.072
-45.305
-43.6
-41.967
-40.421
-38.974
-37.641
-36.437
-35.369
-34.437
-33.644
-32.991
-32.492
-32.164
-32.013
-32.041
-32.248
-32.631
-33.189
-33.918
-34.789
-35.772
-36.822
-37.888
-38.947
-39.976
-40.96
-41.894
-42.728
-43.401
-43.857
-44.038
-43.909
-43.486
-42.761
-41.712
-40.42
-39.012
-37.739
-36.998
-37.011
-37.812
-39.376
-41.644
-44.582
-48.162
-52.027
-55.375
-57.567
-58.306
-57.619
-55.793
-52.899
-48.866
-43.997
-39.333
-36.226
-35.685
-38.079
-43.295
-51.361
-62.468
-76.566
-91.721
-103.887
-109.45
-106.292
-95.636
-80.674
-61.252
-32.308
16.007
92.123
196.442
320.801
449.604
570.102
678.454
775.276
863.935
941.526
993.892
1004.822
960.563
856.391
701.48
513.568
315.702
130.884
-21.212
-126.535
-181.66
-191.754
-170.791
-138.76
-111.585
-98.305
-99.639
-107.45
-111.807
-106.803
-91.543
-70.523
-51.055
-37.834
-31.746
-31.152
-32.974
-35.378
-38.106
-41.212
-44.46
-46.863
-47.672
-46.785
-44.401
-40.963
-36.778
-31.992
-27.093
-22.908
-19.951
-18.397
-18.208
-19.097
-20.804
-23.164
-25.849
-28.408
-30.55
-32.117
-33.054
-33.446
-33.352
-32.787
-31.816
-30.524
-28.978
-27.241
-25.36
-23.357
-21.285
-19.214
-17.213
-15.355
-13.69
-12.237
-11.01
-10.007
-9.218
-8.627
-8.21
-7.936
-7.779
-7.717
-7.724
-7.779
-7.851
-7.909
-7.92
-7.849
-7.663
-7.337
-6.845
-6.163
-5.272
-4.151
-2.784
-1.156
0.748
2.944
5.446
8.27
11.424
14.919
18.76
22.952
27.493
32.383
37.615
43.179
49.066
55.259
61.743
68.496
75.498
82.722
90.142
97.728
105.447
113.268
121.154
129.07
136.978
144.838
152.613
160.263
167.748
175.03
182.069
188.829
195.272
201.363
207.066
212.35
217.182
221.535
225.382
228.697
231.461
233.655
235.265
236.277
236.684
236.48
235.664
234.237
232.205
229.574
226.357
222.568
218.224
213.347
207.958
202.084
195.753
188.995
181.84
174.324
166.479
158.342
149.95
141.338
132.544
123.606
114.561
105.446
96.298
87.152
78.044
69.006
60.072
51.271
42.633
34.184
25.949
17.951
10.21
2.744
-4.431
-11.304
-17.863
-24.1
-30.011
-35.592
-40.842
-45.764
-50.36
-54.636
-58.599
-62.257
-65.62
-68.7
-71.507
-74.055
-76.357
-78.427
-80.278
-81.926
-83.385
-84.668
-85.791
-86.767
-87.61
-88.333
-88.947
-89.465
-89.897
-90.253
-90.541
-90.77
-90.946
-91.075
-91.16
-91.206
-91.214
-91.185
-91.118
-91.014
-90.87
-90.683
-90.451
-90.171
-89.838
-89.449
-89.001
-88.488
-87.909
-87.259
-86.535
-85.735
-84.856
-83.896
-82.856
-81.732
-80.527
-79.239
-77.87
-76.422
-74.897
-73.297
-71.627
-69.89
-68.091
-66.236
-64.331
-62.382
-60.398
-58.387
-56.357
-54.316
-52.276
-50.244
-48.23
-46.245
-44.298
-42.398
-40.555
-38.776
-37.072
-35.448
-33.914
-32.475
-31.138
-29.908
-28.791
-27.79
-26.91
-26.154
-25.524
-25.023
-24.651
-24.411
-24.302
-24.324
-24.478
-24.76
-25.17
-25.704
-26.36
-27.134
-28.021
-29.016
-30.115
-31.311
-32.597
-33.968
-35.416
-36.934
-38.515
-40.151
-41.835
-43.559
-45.315
-47.096
-48.894
-50.702
-52.512
-54.318
-56.111
-57.886
-59.634
-61.348
-63.022
-64.649
-66.222
-67.734
-69.179
-70.551
-71.844
-73.053
-74.172
-75.197
-76.123
-76.948
-77.667
-78.278
-78.78
-79.171
-79.449
-79.616
-79.67
-79.613
-79.445
-79.169
-78.785
-78.298
-77.71
-77.023
-76.243
-75.372
-74.415
-73.378
-72.265
-71.081
-69.832
-68.524
-67.163
-65.755
-64.306
-62.823
-61.313
-59.782
-58.236
-56.68
-55.121
-53.564
-52.012
-50.471
-48.943
-47.432
-45.939
-44.466
-43.015
-41.586
-40.179
-38.794
-37.43
-36.084
-34.756
-33.441
-32.138
-30.842
-29.549
-28.257
-26.959
-25.654
-24.335
-22.999
-21.641
-20.257
-18.843
-17.394
-15.905
-14.375
-12.8
-11.179
-9.509
-7.793
-6.03
-4.224
-2.38
-0.505
1.394
3.308
5.228
7.142
9.037
10.903
12.726
14.495
16.197
17.816
19.337
20.744
22.021
23.149
24.114
24.898
25.486
25.863
26.021
25.95
25.641
25.081
24.252
23.136
21.723
20.003
17.973
15.636
12.999
10.088
6.942
3.604
0.121
-3.467
-7.128
-10.823
-14.513
-18.149
-21.667
-25.014
-28.142
-31.009
-33.581
-35.845
-37.813
-39.54
-41.14
-42.726
-44.408
-46.288
-48.455
-51.021
-54.103
-57.799
-62.196
-67.36
-73.389
-80.372
-88.31
-97.044
-106.235
-115.437
-124.167
-131.91
-138.04
-141.948
-143.23
-141.917
-138.51
-133.612
-127.977
-122.517
-118.144
-116.042
-116.16
-116.065
-113.032
-104.502
-90.203
-74.34
-59.43
-43.02
-18.11
28.386
107.604
220.304
360.459
515.515
668.669
809.328
927.794
1012.456
1057.093
1053.16
995.35
888.223
736.185
551.049
351.416
155.017
-16.002
-143.449
-220.007
-245.446
-227.704
-182.161
-123.842
-67.187
-26.638
-6.116
-2.569
-9.107
-13.385
-10.826
-3.673
4.634
7.67
3.356
-5.903
-17.874
-29.639
-39.129
-45.877
-49.817
-51.23
-50.692
-48.769
-45.857
-42.346
-38.915
-36.316
-34.984
-35.086
-36.497
-38.901
-42.06
-45.756
-49.637
-53.271
-56.363
-58.753
-60.408
-61.402
-61.775
-61.538
-60.74
-59.463
-57.779
-55.751
-53.423
-50.818
-47.987
-45.004
-41.95
-38.912
-35.954
-33.113
-30.419
-27.887
-25.524
-23.335
-21.309
-19.431
-17.686
-16.064
-14.552
-13.143
-11.821
-10.565
-9.352
-8.153
-6.941
-5.694
-4.388
-2.999
-1.506
0.116
1.887
3.821
5.935
8.248
10.782
13.565
16.614
19.938
23.542
27.428
31.591
36.023
40.707
45.61
50.704
55.963
61.362
66.895
72.55
78.311
84.16
90.072
96.036
102.06
108.156
114.329
120.593
126.961
133.458
140.141
147.045
154.179
161.549
169.123
176.861
184.727
192.674
200.646
208.578
216.379
223.936
231.156
237.927
244.127
249.629
254.264
257.887
260.393
261.678
261.679
260.367
257.72
253.734
248.435
241.844
233.997
224.978
214.863
203.759
191.803
179.131
165.931
152.389
138.682
124.999
111.502
98.309
85.526
73.244
61.533
50.489
40.212
30.749
22.139
14.395
7.5
1.443
-3.83
-8.402
-12.377
-15.887
-19.038
-21.899
-24.521
-26.95
-29.231
-31.434
-33.638
-35.883
-38.201
-40.615
-43.135
-45.778
-48.54
-51.38
-54.232
-57.009
-59.649
-62.12
-64.405
-66.491
-68.363
-70
-71.381
-72.509
-73.391
-74.031
-74.436
-74.607
-74.557
-74.322
-73.951
-73.502
-73.017
-72.528
-72.057
-71.625
-71.251
-70.952
-70.739
-70.611
-70.571
-70.623
-70.774
-71.032
-71.399
-71.871
-72.439
-73.095
-73.83
-74.64
-75.519
-76.458
-77.453
-78.499
-79.593
-80.735
-81.921
-83.146
-84.402
-85.682
-86.977
-88.28
-89.583
-90.875
-92.148
-93.393
-94.603
-95.772
-96.892
-97.956
-98.959
-99.894
-100.756
-101.541
-102.245
-102.864
-103.396
-103.839
-104.192
-104.455
-104.629
-104.713
-104.709
-104.62
-104.447
-104.194
-103.861
-103.453
-102.974
-102.426
-101.816
-101.146
-100.423
-99.652
-98.837
-97.986
-97.103
-96.194
-95.264
-94.318
-93.361
-92.398
-91.434
-90.473
-89.521
-88.581
-87.657
-86.753
-85.873
-85.019
-84.195
-83.403
-82.646
-81.926
-81.244
-80.603
-80.005
-79.451
-78.943
-78.481
-78.067
-77.702
-77.387
-77.123
-76.91
-76.749
-76.64
-76.585
-76.584
-76.638
-76.747
-76.911
-77.13
-77.404
-77.732
-78.114
-78.549
-79.035
-79.571
-80.154
-80.783
-81.455
-82.166
-82.914
-83.693
-84.5
-85.33
-86.176
-87.035
-87.898
-88.76
-89.615
-90.457
-91.278
-92.07
-92.827
-93.541
-94.204
-94.809
-95.346
-95.807
-96.184
-96.47
-96.658
-96.74
-96.71
-96.563
-96.293
-95.897
-95.37
-94.712
-93.918
-92.989
-91.924
-90.726
-89.398
-87.943
-86.367
-84.676
-82.877
-80.98
-78.994
-76.929
-74.797
-72.609
-70.377
-68.117
-65.841
-63.566
-61.307
-59.081
-56.909
-54.81
-52.804
-50.911
-49.15
-47.541
-46.103
-44.852
-43.801
-42.962
-42.345
-41.961
-41.821
-41.933
-42.304
-42.937
-43.834
-44.997
-46.427
-48.116
-50.051
-52.219
-54.608
-57.212
-60.033
-63.071
-66.312
-69.748
-73.36
-77.126
-81.023
-85.007
-89.017
-92.99
-96.864
-100.588
-104.123
-107.42
-110.421
-113.061
-115.261
-116.968
-118.145
-118.748
-118.755
-118.172
-117.03
-115.41
-113.431
-111.193
-108.812
-106.414
-104.106
-102.012
-100.231
-98.868
-98.092
-98.029
-98.708
-100.039
-101.77
-103.566
-105.119
-106.042
-105.748
-103.693
-99.577
-93.596
-86.36
-78.553
-70.962
-64.348
-59.691
-58.363
-59.864
-61.325
-60.228
-53.592
-42.119
-31.34
-21.435
-9.285
13.592
62.912
144.709
257.368
393.622
535.5
670.622
789.953
881.852
941.464
960.271
929.047
847.957
718.145
549.754
362.605
177.351
17.294
-100.95
-171.69
-199.067
-193.81
-165
-122.123
-71.647
-20.576
18.778
40.638
43.632
31.956
17.812
7.657
3.154
2.625
-0.605
-8.822
-20.776
-34.471
-45.895
-53.357
-57.442
-58.569
-57.63
-55.457
-52.286
-48.734
-45.813
-44.014
-43.503
-44.332
-46.248
-49.004
-52.47
-56.335
-60.13
-63.542
-66.387
-68.576
-70.166
-71.191
-71.633
-71.518
-70.904
-69.849
-68.412
-66.631
-64.517
-62.097
-59.425
-56.569
-53.608
-50.619
-47.656
-44.754
-41.945
-39.248
-36.68
-34.249
-31.949
-29.766
-27.691
-25.714
-23.826
-22.019
-20.276
-18.575
-16.893
-15.207
-13.499
-11.749
-9.939
-8.05
-6.066
-3.973
-1.755
0.598
3.101
5.768
8.614
11.652
14.894
18.351
22.034
25.951
30.109
34.513
39.164
44.062
49.205
54.588
60.204
66.042
72.09
78.334
84.757
91.339
98.057
104.889
111.808
118.787
125.796
132.805
139.782
146.694
153.508
160.19
166.707
173.027
179.114
184.938
190.466
195.667
200.511
204.97
209.017
212.625
215.772
218.437
220.599
222.244
223.358
223.929
223.95
223.416
222.326
220.679
218.481
215.738
212.46
208.661
204.357
199.566
194.31
188.613
182.502
176.003
169.147
161.965
154.489
146.754
138.793
130.641
122.334
113.908
105.399
96.842
88.274
79.729
71.241
62.844
54.57
46.449
38.511
30.783
23.291
16.059
9.108
2.458
-3.872
-9.87
-15.521
-20.816
-25.748
-30.309
-34.499
-38.316
-41.761
-44.838
-47.552
-49.91
-51.921
-53.593
-54.939
-55.972
-56.704
-57.15
-57.326
-57.248
-56.934
-56.4
-55.664
-54.745
-53.659
-52.426
-51.063
-49.587
-48.015
-46.366
-44.654
-42.895
-41.106
-39.298
-37.487
-35.684
-33.901
-32.148
-30.435
-28.77
-27.162
-25.616
-24.14
-22.738
-21.415
-20.176
-19.024
-17.96
-16.988
-16.109
-15.322
-14.629
-14.029
-13.521
-13.103
-12.774
-12.531
-12.372
-12.295
-12.295
-12.37
-12.516
-12.729
-13.004
-13.338
-13.726
-14.164
-14.647
-15.172
-15.733
-16.328
-16.95
-17.597
-18.263
-18.944
-19.636
-20.335
-21.035
-21.733
-22.426
-23.108
-23.776
-24.427
-25.059
-25.667
-26.25
-26.805
-27.33
-27.824
-28.286
-28.714
-29.107
-29.467
-29.792
-30.082
-30.339
-30.564
-30.757
-30.919
-31.052
-31.158
-31.238
-31.294
-31.329
-31.343
-31.341
-31.324
-31.295
-31.258
-31.213
-31.166
-31.117
-31.071
-31.028
-30.992
-30.964
-30.947
-30.942
-30.949
-30.971
-31.009
-31.062
-31.13
-31.215
-31.315
-31.431
-31.562
-31.706
-31.864
-32.034
-32.216
-32.408
-32.61
-32.82
-33.038
-33.263
-33.494
-33.729
-33.968
-34.211
-34.455
-34.701
-34.948
-35.195
-35.443
-35.69
-35.937
-36.183
-36.43
-36.677
-36.926
-37.176
-37.429
-37.686
-37.947
-38.214
-38.488
-38.77
-39.06
-39.359
-39.668
-39.986
-40.314
-40.651
-40.997
-41.351
-41.712
-42.078
-42.448
-42.819
-43.189
-43.554
-43.911
-44.257
-44.588
-44.898
-45.185
-45.444
-45.67
-45.858
-46.004
-46.102
-46.147
-46.135
-46.059
-45.916
-45.7
-45.407
-45.033
-44.576
-44.031
-43.398
-42.673
-41.856
-40.948
-39.947
-38.856
-37.676
-36.41
-35.062
-33.638
-32.143
-30.586
-28.977
-27.326
-25.647
-23.951
-22.255
-20.571
-18.915
-17.303
-15.747
-14.259
-12.855
-11.546
-10.349
-9.279
-8.351
-7.578
-6.973
-6.549
-6.316
-6.284
-6.456
-6.833
-7.417
-8.215
-9.242
-10.512
-12.033
-13.81
-15.844
-18.125
-20.643
-23.374
-26.278
-29.31
-32.423
-35.573
-38.728
-41.857
-44.918
-47.861
-50.618
-53.124
-55.328
-57.187
-58.667
-59.764
-60.49
-60.899
-61.084
-61.139
-61.162
-61.259
-61.536
-62.101
-63.06
-64.503
-66.565
-69.432
-73.236
-77.996
-83.545
-89.513
-95.517
-101.168
-105.953
-109.269
-110.563
-109.548
-106.603
-102.576
-98.268
-94.622
-92.591
-92.852
-96.197
-102.115
-107.798
-111.218
-110.83
-105.945
-98.199
-84.325
-56.997
-9.194
65.354
163.064
272.985
384.681
489.892
589.965
689.023
784.737
869.288
924.126
930.198
879.64
772.271
620.735
445.627
265.648
100.48
-33.877
-128.67
-181.242
-195.515
-180.787
-149.269
-111.415
-77.683
-55.705
-45.724
-44.845
-45.862
-41.877
-32.484
-20.895
-12.497
-10.998
-16.099
-25.304
-35.515
-44.943
-52.716
-58.281
-61.689
-62.972
-62.334
-60.473
-57.896
-55.033
-52.632
-51.221
-51.041
-52.239
-54.653
-57.938
-61.846
-66.045
-70.079
-73.665
-76.633
-78.879
-80.451
-81.395
-81.718
-81.482
-80.773
-79.648
-78.162
-76.354
-74.233
-71.849
-69.272
-66.58
-63.86
-61.171
-58.547
-56.016
-53.597
-51.295
-49.116
-47.045
-45.062
-43.153
-41.307
-39.514
-37.765
-36.042
-34.32
-32.576
-30.783
-28.917
-26.959
-24.888
-22.685
-20.334
-17.822
-15.135
-12.264
-9.198
-5.921
-2.424
1.307
5.281
9.507
13.99
18.735
23.746
29.019
34.553
40.34
46.372
52.639
59.126
65.819
72.699
79.745
86.935
94.245
101.646
109.111
116.608
124.106
131.57
138.967
146.261
153.417
160.397
167.168
173.692
179.936
185.865
191.446
196.646
201.434
205.781
209.66
213.046
215.913
218.243
220.017
221.22
221.841
221.871
221.304
220.137
218.37
216.008
213.058
209.528
205.431
200.784
195.605
189.916
183.741
177.106
170.041
162.576
154.744
146.579
138.115
129.389
120.439
111.302
102.017
92.622
83.156
73.657
64.164
54.714
45.343
36.087
26.979
18.052
9.336
0.86
-7.349
-15.266
-22.869
-30.137
-37.052
-43.599
-49.765
-55.54
-60.915
-65.885
-70.447
-74.601
-78.347
-81.69
-84.635
-87.189
-89.363
-91.165
-92.61
-93.71
-94.482
-94.941
-95.104
-94.991
-94.619
-94.008
-93.178
-92.148
-90.94
-89.571
-88.063
-86.434
-84.703
-82.889
-81.009
-79.081
-77.12
-75.142
-73.16
-71.188
-69.238
-67.32
-65.444
-63.619
-61.852
-60.151
-58.522
-56.968
-55.495
-54.105
-52.8
-51.582
-50.451
-49.408
-48.452
-47.581
-46.795
-46.09
-45.466
-44.918
-44.444
-44.04
-43.704
-43.432
-43.22
-43.066
-42.966
-42.917
-42.916
-42.96
-43.048
-43.177
-43.345
-43.55
-43.791
-44.067
-44.376
-44.718
-45.091
-45.495
-45.93
-46.393
-46.885
-47.406
-47.953
-48.528
-49.128
-49.752
-50.401
-51.073
-51.765
-52.478
-53.21
-53.958
-54.721
-55.497
-56.282
-57.075
-57.871
-58.667
-59.459
-60.244
-61.016
-61.772
-62.506
-63.215
-63.893
-64.534
-65.135
-65.691
-66.196
-66.645
-67.035
-67.362
-67.62
-67.808
-67.921
-67.957
-67.915
-67.791
-67.585
-67.296
-66.922
-66.465
-65.924
-65.3
-64.596
-63.813
-62.955
-62.025
-61.027
-59.966
-58.848
-57.677
-56.461
-55.204
-53.914
-52.598
-51.262
-49.914
-48.562
-47.212
-45.872
-44.549
-43.251
-41.984
-40.753
-39.566
-38.426
-37.339
-36.309
-35.34
-34.435
-33.598
-32.829
-32.131
-31.504
-30.948
-30.462
-30.044
-29.691
-29.399
-29.165
-28.982
-28.846
-28.751
-28.691
-28.658
-28.646
-28.648
-28.655
-28.659
-28.653
-28.627
-28.573
-28.481
-28.345
-28.155
-27.906
-27.588
-27.197
-26.726
-26.168
-25.519
-24.774
-23.93
-22.982
-21.928
-20.766
-19.498
-18.124
-16.646
-15.068
-13.392
-11.625
-9.772
-7.84
-5.836
-3.767
-1.643
0.528
2.734
4.965
7.207
9.448
11.673
13.867
16.011
18.088
20.078
21.963
23.726
25.353
26.828
28.14
29.277
30.228
30.986
31.542
31.892
32.027
31.937
31.62
31.078
30.316
29.353
28.201
26.864
25.345
23.638
21.737
19.646
17.363
14.878
12.197
9.328
6.304
3.195
0.055
-3.067
-6.142
-9.171
-12.124
-14.935
-17.525
-19.786
-21.64
-23.074
-24.03
-24.404
-24.183
-23.396
-22.232
-21.102
-20.251
-19.731
-19.59
-19.789
-20.284
-21.157
-22.151
-22.656
-22.36
-21.135
-19.054
-16.554
-13.834
-10.797
-7.806
-5.573
-4.62
-5.585
-8.773
-13.975
-21.419
-31.454
-43.694
-57.496
-72.033
-85.502
-96.043
-101.106
-96.492
-79.454
-48.644
-4.111
51.717
118.695
197.652
289.107
394.661
511.897
637.405
766.613
888.235
989.324
1053.575
1064.543
1018.055
918.248
776.896
613.188
441.456
274.849
127.577
9.483
-70.359
-107.827
-106.91
-77.735
-34.296
8.331
35.957
43.387
32.899
11.805
-7.3
-18.642
-23.415
-24.816
-28.947
-37.621
-48.047
-57.813
-64.531
-67.124
-66.035
-61.854
-55.292
-47.458
-39.695
-32.83
-27.22
-23.077
-20.471
-19.466
-20.115
-22.165
-25.088
-28.504
-32.191
-35.998
-39.854
-43.619
-47.09
-50.119
-52.659
-54.69
-56.198
-57.176
-57.592
-57.446
-56.782
-55.664
-54.16
-52.337
-50.25
-47.95
-45.5
-42.968
-40.423
-37.931
-35.537
-33.263
-31.121
-29.114
-27.236
-25.479
-23.82
-22.228
-20.674
-19.134
-17.588
-16.019
-14.408
-12.731
-10.965
-9.09
-7.086
-4.94
-2.636
-0.164
2.489
5.33
8.365
11.596
15.027
18.661
22.502
26.552
30.813
35.283
39.958
44.834
49.905
55.16
60.586
66.169
71.892
77.735
83.68
89.703
95.78
101.889
108.001
114.091
120.131
126.092
131.946
137.665
143.219
148.58
153.719
158.608
163.221
167.532
171.516
175.148
178.406
181.268
183.716
185.73
187.295
188.395
189.019
189.155
188.797
187.939
186.578
184.714
182.35
179.491
176.143
172.317
168.025
163.281
158.101
152.503
146.507
140.136
133.412
126.36
119.007
111.38
103.506
95.415
87.136
78.697
70.13
61.464
52.73
43.958
35.177
26.418
17.709
9.079
0.556
-7.834
-16.065
-24.114
-31.957
-39.574
-46.945
-54.053
-60.882
-67.419
-73.65
-79.566
-85.16
-90.424
-95.357
-99.956
-104.222
-108.157
-111.765
-115.053
-118.028
-120.698
-123.075
-125.168
-126.99
-128.556
-129.878
-130.975
-131.862
-132.556
-133.076
-133.442
-133.671
-133.784
-133.798
-133.734
-133.61
-133.443
-133.254
-133.058
-132.873
-132.715
-132.599
-132.538
-132.545
-132.63
-132.802
-133.067
-133.429
-133.893
-134.459
-135.126
-135.892
-136.754
-137.709
-138.754
-139.883
-141.09
-142.366
-143.705
-145.095
-146.525
-147.977
-149.435
-150.879
-152.293
-153.66
-154.964
-156.188
-157.312
-158.323
-159.208
-159.952
-160.538
-160.945
-161.144
-161.118
-160.858
-160.367
-159.651
-158.72
-157.576
-156.232
-154.71
-153.022
-151.173
-149.151
-146.924
-144.477
-141.811
-138.938
-135.893
-132.69
-129.323
-125.787
-122.072
-118.164
-114.062
-109.742
-105.151
-100.28
-95.148
-89.814
-84.389
-78.952
-73.552
