Name
Date of Birth,"Mar 27, 1959"
Recorded Date,2022-08-22 10:30:06 -0500
Classification,Sinus Rhythm
Symptoms,
Software Version,1.90
Device,"Watch4,2"
Sample Rate,510.227 hertz


Lead,Lead I
Unit,µV

-61.753
-64.044
-66.208
-68.227
-70.08
-71.749
-73.219
-74.471
-75.493
-76.27
-76.793
-77.053
-77.042
-76.757
-76.192
-75.347
-74.223
-72.821
-71.145
-69.202
-66.999
-64.541
-61.838
-58.903
-55.75
-52.401
-48.876
-45.189
-41.374
-37.473
-33.521
-29.555
-25.602
-21.658
-17.732
-13.851
-9.992
-6.107
-2.181
1.807
5.852
9.863
13.762
17.54
21.042
23.964
26.297
28.168
29.5
30.624
31.172
29.624
26.466
23.182
22.176
28.85
44.186
64.022
82.592
89.228
78.418
54.284
24.414
2.255
-2.378
9.775
32.975
56.29
70.661
74.528
70.54
64.377
60.409
59.376
60.234
61.089
61.123
60.559
59.433
57.933
56.279
54.972
55.081
57.313
61.464
67.008
73.764
81.495
89.641
96.8
100.61
99.113
91.724
78.899
60.871
37.811
10.528
-18.894
-45.849
-64.579
-71.307
-64.518
-45.556
-17.32
19.603
66.116
126.249
204.271
300.187
411.703
530.176
643.051
737.767
800.047
817.8
784.08
698.266
566.788
404.501
230.712
64.301
-76.64
-180.152
-241.821
-263.155
-250.853
-214.156
-163.403
-107.651
-56.075
-18.767
-2.452
-11.746
-48.063
-103.493
-166.032
-221.396
-252.573
-252.183
-222.627
-173.855
-125.204
-92.972
-84.72
-99.671
-126.919
-153.012
-169.579
-174.009
-169.728
-163.485
-159.47
-158.94
-161.367
-164.691
-167.935
-171.197
-174.451
-177.796
-181.047
-183.761
-185.702
-186.786
-186.947
-186.183
-184.544
-182.086
-178.89
-175.03
-170.54
-165.449
-159.801
-153.661
-147.107
-140.199
-132.975
-125.471
-117.71
-109.713
-101.496
-93.056
-84.383
-75.472
-66.321
-56.933
-47.322
-37.492
-27.451
-17.208
-6.769
3.857
14.642
25.56
36.587
47.688
58.831
70.001
81.164
92.282
103.36
114.383
125.309
136.125
146.801
157.24
167.382
177.195
186.486
195.089
203.118
210.55
217.259
223.569
228.944
232.665
235.692
238.358
242.298
250.357
261.527
273.68
282.839
283.054
272.903
255.46
237.004
225.042
223.897
231.607
241.704
248.262
246.977
238.158
226.159
213.854
203.171
194.48
186.132
177.477
168.529
159.227
149.917
140.736
131.49
122.041
112.229
102.003
91.552
81.164
71.154
61.496
51.94
42.6
33.687
25.049
16.404
6.929
-3.868
-14.726
-25.224
-36.12
-49.426
-69.174
-94.551
-120.113
-139.501
-145.347
-138.053
-124.655
-110.843
-102.644
-101.504
-103.87
-109.111
-116.194
-123.022
-130.856
-140.318
-152.44
-171.096
-195.118
-219.079
-237.915
-245.264
-241.188
-232.563
-224.677
-222.584
-227.23
-234.501
-242.136
-248.631
-253.276
-257.294
-261.168
-264.761
-268.286
-271.723
-274.785
-277.496
-280.228
-283.062
-285.749
-288.248
-289.955
-290.975
-293.21
-296.606
-299.695
-300.116
-293.568
-280.609
-266.252
-255.637
-254.822
-263.498
-275.498
-285.899
-289.428
-285.426
-278.066
-269.678
-262.611
-257.756
-253.446
-249.21
-245.131
-241.094
-237.605
-234.903
-232.641
-230.645
-228.785
-226.923
-225.159
-223.692
-222.846
-222.902
-223.848
-225.591
-227.988
-230.527
-232.708
-233.953
-233.075
-229.155
-222.005
-211.551
-198.275
-183.492
-168.28
-153.846
-142.407
-135.808
-135.106
-141.351
-154.5
-173.338
-196.914
-223.881
-251.608
-277.57
-299.673
-315.528
-323.823
-324.336
-316.649
-301.098
-279.39
-253.577
-225.798
-198.685
-174.258
-154
-139.683
-132.321
-131.828
-137.489
-148.118
-162.254
-178.75
-196.342
-213.216
-227.813
-239.02
-246.466
-250.425
-250.92
-247.471
-239.917
-228.839
-215.231
-200.284
-184.393
-167.217
-149.008
-130.954
-114.407
-99.986
-87.5
-76.292
-66.335
-58.558
-53.599
-50.873
-48.98
-47.054
-45.018
-43.339
-42.374
-41.249
-38.674
-34.468
-29.425
-24.191
-18.968
-13.206
-5.903
2.763
11.922
21.412
31.68
43.526
57.673
73.82
91.006
108.928
127.376
145.709
163.049
177.755
188.087
193.484
193.903
189.136
179.743
166.753
151.272
135.377
121.348
110.265
103.021
100.797
103.745
111.574
124.143
140.246
158.304
177.883
198.276
217.93
235.958
251.433
262.889
269.963
272.644
269.886
261.265
247.344
228.465
205.678
180.811
154.794
128.59
104.064
82.483
64.723
51.806
43.73
39.759
39.7
42.971
48.3
54.83
61.374
66.231
69.74
74.298
81.775
94.562
112.64
130.668
145.722
158.831
174.284
204.734
261.917
349.361
465.854
600.705
736.894
858.706
950.181
996.643
988.594
923.508
805.695
648.793
473.643
300.126
146.968
28.867
-47.871
-81.88
-77.016
-44.589
1.986
49.548
84.908
103.295
106.78
100.672
95.526
96.896
104.421
115.671
124.598
128.466
128.615
127.041
126.428
127.719
130.173
133.041
135.644
137.572
138.575
138.293
136.555
133.467
129.281
124.331
118.903
113.218
107.529
102.097
97.117
92.722
88.972
85.879
83.459
81.723
80.665
80.272
80.514
81.34
82.698
84.537
86.788
89.384
92.251
95.312
98.51
101.807
105.172
108.592
112.057
115.56
119.102
122.689
126.325
130.012
133.755
137.551
141.404
145.319
149.302
153.362
157.504
161.725
166.026
170.402
174.85
179.364
183.938
188.561
193.227
197.931
202.667
207.433
212.224
217.035
221.859
226.691
231.525
236.352
241.164
245.95
250.7
255.404
260.052
264.633
269.136
273.549
277.859
282.055
286.124
290.053
293.827
297.434
300.857
304.084
307.1
309.891
312.443
314.742
316.775
318.53
319.996
321.16
322.013
322.546
322.751
322.621
322.151
321.337
320.176
318.669
316.815
314.617
312.078
309.205
306.004
302.483
298.652
294.521
290.103
285.412
280.461
275.266
269.845
264.215
258.396
252.406
246.267
240
233.625
227.165
220.643
214.078
207.494
200.912
194.352
187.835
181.38
175.005
168.729
162.568
156.537
150.651
144.923
139.364
133.986
128.796
123.803
119.014
114.433
110.065
105.911
101.974
98.253
94.747
91.452
88.366
85.482
82.794
80.295
77.976
75.827
73.838
71.998
70.294
68.714
67.246
65.877
64.593
63.382
62.23
61.126
60.056
59.009
57.973
56.938
55.894
54.831
53.741
52.615
51.446
50.228
48.954
47.62
46.222
44.755
43.218
41.61
39.93
38.178
36.357
34.469
32.518
30.509
28.447
26.339
24.194
22.02
19.826
17.623
15.422
13.234
11.072
8.946
6.868
4.851
2.906
1.043
-0.725
-2.389
-3.939
-5.365
-6.657
-7.807
-8.807
-9.65
-10.328
-10.835
-11.167
-11.319
-11.287
-11.07
-10.666
-10.075
-9.297
-8.335
-7.193
-5.875
-4.39
-2.745
-0.951
0.981
3.038
5.207
7.474
9.824
12.244
14.719
17.234
19.776
22.331
24.889
27.436
29.962
32.454
34.9
37.29
39.614
41.86
44.015
46.069
48.012
49.837
51.541
53.118
54.564
55.878
57.061
58.118
59.056
59.882
60.601
61.223
61.764
62.246
62.698
63.14
63.58
64.023
64.469
64.909
65.329
65.702
65.982
66.129
66.111
65.913
65.528
64.945
64.139
63.079
61.735
60.102
58.201
56.062
53.72
51.238
48.703
46.245
44.025
42.173
40.777
39.884
39.507
39.654
40.341
41.583
43.36
45.606
48.23
51.129
54.185
57.249
60.107
62.46
63.982
64.397
63.502
61.162
57.281
51.784
44.603
35.692
25.063
12.786
-1.059
-16.392
-33.115
-51.116
-70.185
-89.992
-110.201
-130.541
-150.798
-170.831
-190.513
-209.682
-228.207
-246.021
-263.092
-279.425
-294.992
-309.696
-323.477
-336.366
-348.402
-359.592
-369.826
-378.753
-385.989
-391.296
-394.371
-394.721
-392.042
-386.425
-378.304
-368.686
-358.841
-349.643
-341.924
-337.156
-335.587
-335.253
-334.037
-329.018
-318.869
-307.128
-296.12
-283.495
-263.5
-225.13
-158.291
-62.586
56.572
189.444
322.968
448.656
558.371
641.168
687.085
684.654
626.204
513.483
354.181
164.548
-32.05
-213.375
-357.608
-449.442
-487.504
-477.288
-431.975
-369.96
-304.598
-248.392
-209.495
-186.383
-175.574
-169.624
-160.96
-150.061
-139.355
-132.774
-135.072
-146.098
-163.647
-185.345
-207.46
-227.023
-242.919
-254.674
-262.47
-267.061
-268.915
-268.38
-266.376
-264.276
-262.939
-262.779
-263.868
-265.774
-268.189
-271
-273.846
-276.258
-277.945
-278.729
-278.592
-277.709
-276.173
-274.001
-271.253
-267.975
-264.212
-260.029
-255.461
-250.529
-245.263
-239.692
-233.851
-227.776
-221.494
-215.023
-208.375
-201.548
-194.551
-187.401
-180.113
-172.714
-165.221
-157.642
-149.989
-142.269
-134.488
-126.654
-118.773
-110.846
-102.882
-94.888
-86.874
-78.853
-70.836
-62.826
-54.829
-46.85
-38.895
-30.971
-23.087
-15.251
-7.473
0.235
7.863
15.403
22.847
30.193
37.438
44.581
51.62
58.551
65.368
72.063
78.627
85.043
91.303
97.4
103.332
109.105
114.721
120.177
125.466
130.57
135.462
140.103
144.452
148.462
152.1
155.344
158.19
160.656
162.76
164.532
165.986
167.116
167.918
168.389
168.53
168.361
167.934
167.326
166.632
165.969
165.431
165.092
164.996
165.133
165.463
165.909
166.405
166.913
167.395
167.826
168.177
168.396
168.377
167.991
167.068
165.404
162.826
159.178
154.339
148.267
140.994
132.62
123.262
113.033
102.051
90.427
78.284
65.78
53.124
40.555
28.365
16.871
6.361
-2.878
-10.581
-16.563
-20.719
-23.026
-23.508
-22.209
-19.195
-14.542
-8.344
-0.743
8.081
17.919
28.509
39.591
50.928
62.267
73.361
84.006
94.043
103.369
111.928
119.675
126.575
132.609
137.777
142.115
145.688
148.572
150.871
152.666
154.014
154.983
155.651
156.073
156.29
156.331
156.202
155.932
155.579
155.176
154.734
154.237
153.643
152.905
151.978
150.819
149.397
147.679
145.624
143.22
140.475
137.381
133.929
130.062
125.663
120.661
115.032
108.77
101.907
94.494
86.579
78.271
69.723
61.086
52.518
44.151
36.075
28.409
21.279
14.851
9.351
4.953
1.768
-0.096
-0.557
0.431
2.907
6.802
11.938
18.132
25.184
32.899
41.107
49.625
58.268
66.845
75.14
82.972
90.2
96.669
102.224
106.735
110.067
112.19
113.18
113.133
112.175
110.455
108.127
105.338
102.226
98.906
95.471
92.007
88.581
85.277
82.187
79.407
77.049
75.174
73.786
72.862
72.352
72.173
72.223
72.41
72.654
72.902
73.134
73.333
73.489
73.593
73.631
73.576
73.385
73.022
72.458
71.683
70.7
69.527
68.198
66.742
65.183
63.535
61.797
59.961
58.018
55.951
53.74
51.372
48.84
46.14
43.277
40.253
37.068
33.721
30.208
26.526
22.68
18.668
14.49
10.14
5.603
0.877
-4.028
-9.1
-14.322
-19.669
-25.121
-30.641
-36.165
-41.632
-46.981
-52.153
-57.117
-61.832
-66.233
-70.237
-73.758
-76.746
-79.185
-81.073
-82.379
-83.059
-83.097
-82.561
-81.595
-80.342
-78.933
-77.444
-75.95
-74.664
-73.762
-73.286
-73.155
-73.01
-72.414
-71.129
-68.921
-65.324
-60.132
-53.532
-45.965
-38.586
-32.868
-29.828
-30.44
-36.102
-46.658
-59.776
-73.111
-83.301
-88.453
-90.996
-91.46
-86.435
-70.394
-34.155
29.597
119.583
230.579
354.849
481.248
600.416
700.875
767.92
789.026
755.554
667.747
534.17
369.151
190.814
16.202
-138.124
-257.878
-335.514
-369.983
-366.637
-337.416
-295.224
-251.51
-217.509
-197.806
-191.569
-194.581
-197.673
-196.26
-191.29
-186.102
-186.526
-194.137
-206.291
-219.924
-231.94
-241.285
-248.191
-252.348
-253.756
-252.835
-250.443
-247.92
-246.072
-245.03
-244.829
-245.584
-247.38
-250.211
-253.75
-257.343
-260.512
-263.05
-264.876
-266.009
-266.449
-266.146
-265.112
-263.449
-261.265
-258.651
-255.681
-252.371
-248.743
-244.853
-240.769
-236.574
-232.354
-228.157
-223.983
-219.832
-215.696
-211.57
-207.483
-203.448
-199.456
-195.503
-191.583
-187.716
-183.96
-180.382
-177.014
-173.895
-171.061
-168.565
-166.531
-165.07
-164.265
-164.183
-164.837
-166.223
-168.353
-171.23
-174.808
-179.004
-183.663
-188.589
-193.647
-198.697
-203.592
-208.177
-212.209
-215.448
-217.707
-218.822
-218.659
-217.121
-214.09
-209.456
-203.224
-195.465
-186.32
-175.999
-164.64
-152.381
-139.398
-125.878
-112.074
-98.254
-84.646
-71.481
-59.031
-47.556
-37.331
-28.635
-21.61
-16.332
-12.845
-11.138
-11.253
-13.215
-16.996
-22.559
-29.853
-38.825
-49.413
-61.502
-74.87
-89.268
-104.439
-120.111
-136.101
-152.242
-168.361
-184.297
-199.872
-214.933
-229.361
-243.028
-255.767
-267.384
-277.71
-286.665
-294.277
-300.606
-305.725
-309.711
-312.624
-314.553
-315.599
-315.865
-315.456
-314.459
-312.951
-311.047
-308.905
-306.715
-304.682
-302.947
-301.578
-300.64
-300.183
-300.258
-300.923
-302.211
-304.152
-306.788
-310.155
-314.274
-319.186
-324.899
-331.401
-338.673
-346.625
-355.172
-364.266
-373.857
-383.885
-394.282
-404.935
-415.686
-426.401
-436.931
-447.13
-456.896
-466.07
-474.48
-481.952
-488.315
-493.479
-497.394
-499.974
-501.109
-500.73
-498.799
-495.361
-490.564
-484.514
-477.317
-469.095
-459.959
-450.106
-439.791
-429.292
-418.865
-408.711
-399.01
-389.989
-381.935
-375.085
-369.634
-365.689
-363.259
-362.397
-363.143
-365.495
-369.393
-374.682
-381.132
-388.472
-396.456
-404.85
-413.401
-421.8
-429.672
-436.665
-442.443
-446.74
-449.342
-449.995
-448.494
-444.692
-438.517
-429.994
-419.204
-406.276
-391.345
-374.565
-356.119
-336.249
-315.242
-293.4
-271.057
-248.494
-225.985
-203.826
-182.256
-161.483
-141.668
-122.91
-105.274
-88.794
-73.472
-59.293
-46.23
-34.211
-23.139
-12.89
-3.286
5.8
14.482
22.879
31.063
39.107
47.07
54.967
62.797
70.545
78.155
85.566
92.715
99.491
105.776
111.435
116.293
120.243
123.225
125.187
126.117
126.003
124.847
122.704
119.645
115.748
111.131
105.929
100.31
94.524
88.834
83.493
78.784
74.908
72.009
70.242
69.733
70.586
72.884
76.67
81.963
88.815
97.262
107.272
118.743
131.448
145.137
159.586
174.553
189.841
205.281
220.655
235.754
250.409
264.462
277.747
290.1
301.283
311.037
319.222
325.793
330.801
334.343
336.47
337.24
336.727
335.018
332.253
328.573
324.057
318.78
312.864
306.441
299.706
292.857
285.929
278.881
271.638
264.115
256.277
248.067
239.387
230.128
220.19
209.547
198.219
186.146
173.309
159.835
145.923
132.007
118.707
106.516
96.015
88.031
83.07
81.265
82.555
86.299
91.625
97.967
104.556
110.067
114.569
120.11
128.672
142.877
163.262
185.751
208.247
233.065
265.766
316.805
394.816
499.154
624.462
761.704
898.836
1027.31
1137.156
1215.574
1250.545
1231.182
1154.472
1025.717
858.477
673.496
491.451
333.191
215.661
145.792
123.46
140.927
182.327
232.652
278.52
307.292
316.34
308.754
291.043
275.265
267.101
266.018
269.219
270.488
267.716
262.454
255.837
249.418
242.917
235.27
226.757
217.46
207.205
196.096
184.195
171.991
160.641
150.648
141.651
133.466
126.057
119.581
114.476
110.845
108.392
107.076
107.127
108.704
111.97
116.894
123.214
130.726
139.282
148.705
158.82
169.428
180.295
191.171
201.828
212.079
221.77
230.778
239.008
246.363
252.77
258.233
262.81
266.602
269.76
272.378
274.499
276.174
277.443
278.382
279.087
279.619
280.021
280.338
280.621
280.948
281.388
281.944
282.576
283.203
283.717
284.049
284.168
284.039
283.645
282.967
281.986
280.709
279.152
277.309
275.161
272.663
269.775
266.49
262.824
258.812
254.506
249.948
245.164
240.186
235.029
229.693
224.175
218.466
212.552
206.442
200.164
193.76
187.278
180.765
174.249
167.744
161.245
154.725
148.153
141.489
134.715
127.834
120.853
113.775
106.601
99.316
91.883
84.25
76.348
68.094
59.433
50.343
40.848
31.022
20.966
10.811
0.662
-9.408
-19.328
-29.039
-38.475
-47.567
-56.225
-64.342
-71.786
-78.4
-84.06
-88.686
-92.258
-94.823
-96.475
-97.352
-97.571
-97.226
-96.394
-95.135
-93.503
-91.551
-89.34
-86.941
-84.45
-81.999
-79.698
-77.634
-75.844
-74.319
-73.008
-71.824
-70.694
-69.558
-68.373
-67.12
-65.789
-64.381
-62.903
-61.367
-59.764
-58.065
-56.245
-54.281
-52.173
-49.941
-47.626
-45.282
-42.962
-40.712
-38.572
-36.568
-34.716
-33.025
-31.493
-30.11
-28.876
-27.793
-26.869
-26.112
-25.528
-25.114
-24.867
-24.778
-24.84
-25.04
-25.37
-25.819
-26.382
-27.055
-27.835
-28.724
-29.72
-30.821
-32.024
-33.323
-34.711
-36.18
-37.723
-39.33
-40.992
-42.701
-44.449
-46.229
-48.034
-49.857
-51.691
-53.53
-55.368
-57.198
-59.014
-60.81
-62.58
-64.317
-66.016
-67.671
-69.276
-70.828
-72.32
-73.748
-75.107
-76.393
-77.601
-78.728
-79.77
-80.721
-81.579
-82.341
-83.005
-83.569
-84.034
-84.398
-84.662
-84.828
-84.896
-84.87
-84.749
-84.535
-84.23
-83.837
-83.357
-82.791
-82.14
-81.408
-80.594
-79.703
-78.736
-77.695
-76.581
-75.396
-74.143
-72.824
-71.44
-69.992
-68.483
-66.914
-65.286
-63.603
-61.866
-60.075
-58.233
-56.339
-54.396
-52.403
-50.361
-48.269
-46.125
-43.931
-41.686
-39.39
-37.043
-34.647
-32.203
-29.718
-27.199
-24.652
-22.083
-19.5
-16.911
-14.326
-11.752
-9.192
-6.651
-4.135
-1.65
0.792
3.182
5.511
7.772
9.957
12.057
14.058
15.956
17.754
19.448
21.031
22.488
23.786
24.901
25.824
26.543
27.057
27.369
27.483
27.426
27.252
27.012
26.759
26.531
26.342
26.229
26.243
26.445
26.92
27.72
28.861
30.367
32.239
34.443
36.923
39.566
42.199
44.681
46.857
48.568
49.704
50.124
49.719
48.373
45.882
42.154
37.251
31.359
24.874
18.232
11.757
5.921
1.41
-1.307
-2.002
-0.953
0.959
3.045
4.734
5.36
4.345
0.995
-4.019
-7.596
-6.413
2.573
19.864
41.203
64.304
90.545
124.532
177.409
257.645
366.321
500.209
648.118
795.169
927.145
1028.367
1083.808
1082.373
1020.236
901.744
740.608
557.597
372.827
205.623
72.402
-18.284
-63.46
-66.779
-40.841
-0.32
41.071
70.194
83.167
82.702
74.157
68.497
70.908
79.967
92.266
100.088
99.411
91.194
77.454
61.485
45.54
30.518
17.1
5.973
-2.336
-7.715
-10.426
-10.879
-9.728
-7.868
-5.94
-4.517
-3.942
-4.137
-4.937
-6.117
-7.347
-8.23
-8.483
-7.917
-6.452
-4.164
-1.137
2.548
6.799
11.524
16.651
22.123
27.898
33.954
40.263
46.788
53.494
60.336
67.253
74.187
81.092
87.924
94.654
101.264
107.703
113.908
119.828
125.416
130.62
135.377
139.588
143.121
145.878
147.807
148.896
149.175
148.675
147.431
145.5
142.954
139.901
136.461
132.734
128.811
124.803
120.855
117.16
113.97
111.49
109.859
109.172
109.465
110.753
113.042
116.3
120.463
125.455
131.181
137.548
144.472
151.835
159.468
167.158
174.621
181.589
187.853
193.239
197.627
200.933
203.07
203.979
203.624
201.96
198.962
194.633
188.97
182.003
173.818
164.537
154.347
143.474
132.094
120.358
108.383
96.246
84.039
71.855
59.772
47.885
36.276
24.998
14.112
3.667
-6.331
-15.898
-25.096
-34.038
-42.799
-51.428
-59.96
-68.399
-76.756
-85.056
-93.307
-101.521
-109.705
-117.861
-125.995
-134.116
-142.215
-150.269
-158.237
-166.049
-173.659
-181.035
-188.153
-195.003
-201.575
-207.855
-213.841
-219.54
-224.953
-230.081
-234.92
-239.463
-243.709
-247.661
-251.328
-254.72
-257.844
-260.702
-263.293
-265.617
-267.669
-269.447
-270.942
-272.144
-273.045
-273.646
-273.947
-273.95
-273.654
-273.061
-272.169
-270.982
-269.503
-267.733
-265.671
-263.321
-260.691
-257.794
-254.647
-251.27
-247.676
-243.885
-239.912
-235.781
-231.517
-227.147
-222.692
-218.174
-213.616
-209.049
-204.514
-200.053
-195.697
-191.466
-187.37
-183.418
-179.616
-175.961
-172.455
-169.071
-165.776
-162.551
-159.382
-156.305
-153.392
-150.693
-148.227
-145.992
-143.953
-142.148
-140.722
-139.656
-138.817
-138.114
-137.401
-136.791
-136.704
-137.291
-138.41
-140.184
-142.871
-146.765
-152.45
-159.839
-168.038
-176.547
-185.187
-193.496
-201.01
-207.036
-210.396
-210.874
-209.333
-206.285
-202.078
-197.174
-191.805
-186.551
-182.431
-179.638
-177.581
-175.882
-174.212
-172.366
-170.486
-168.48
-165.995
-163.076
-160.024
-157.053
-154.374
-152.04
-149.89
-147.829
-145.868
-143.96
-142.044
-140.108
-138.128
-136.136
-134.201
-132.381
-130.72
-129.27
-128.122
-127.371
-127.087
-127.312
-128.068
-129.391
-131.307
-133.831
-136.92
-140.457
-144.305
-148.348
-152.5
-156.68
-160.786
-164.672
-168.115
-170.918
-172.945
-174.106
-174.327
-173.518
-171.573
-168.418
-164.091
-158.738
-152.517
-145.56
-137.943
-129.73
-121.022
-111.978
-102.825
-93.753
-84.89
-76.353
-68.282
-60.87
-54.369
-48.989
-44.801
-41.771
-39.84
-38.97
-39.18
-40.492
-42.885
-46.306
-50.689
-56.011
-62.319
-69.652
-77.998
-87.269
-97.296
-107.909
-119.019
-130.604
-142.657
-155.157
-168.036
-181.212
-194.616
-208.205
-221.96
-235.737
-249.246
-262.029
-273.422
-282.792
-289.621
-293.326
-293.307
-289.154
-280.618
-268.121
-253.025
-236.822
-221.079
-206.772
-193.546
-180.741
-167.56
-154.667
-144.328
-137.473
-133.148
-124.166
-98.549
-46.875
37.48
151.869
286.276
431.975
578.821
718.162
840.086
929.261
970.459
952.077
872.407
739.497
568.381
379.589
192.505
25.878
-103.379
-186.599
-223.192
-219.428
-189.365
-149.743
-114.132
-95.438
-100.803
-127.503
-169.319
-214.872
-252.582
-278.767
-293.491
-300.271
-304.198
-306.544
-306.81
-304.084
-296.915
-285.5
-271.043
-254.603
-237.402
-220.139
-203.037
-186.314
-170.089
-154.52
-139.828
-126.14
-113.514
-102.004
-91.645
-82.512
-74.731
-68.341
-63.294
-59.465
-56.648
-54.639
-53.244
-52.269
-51.525
-50.805
-49.896
-48.659
-47.021
-44.932
-42.374
-39.295
-35.601
-31.249
-26.244
-20.623
-14.472
-7.879
-0.924
6.281
13.605
20.907
28.03
34.864
41.351
47.43
53.054
58.177
62.745
66.763
70.273
73.293
75.821
77.84
79.341
80.366
81.014
81.331
81.297
80.946
80.437
80.086
80.236
81.001
82.175
83.472
84.806
86.067
86.931
86.718
84.586
80.207
74.053
67.015
59.673
52.442
45.856
40.835
38.612
39.821
44.008
50.024
56.975
64.321
71.625
78.262
83.248
85.967
86.648
86.148
85.213
84.233
83.364
82.719
82.633
83.386
84.902
86.805
88.73
90.496
92.086
93.6
95.083
96.507
97.893
99.295
100.751
102.298
103.95
105.697
107.57
109.585
111.71
113.9
116.085
118.174
120.109
121.754
122.858
123.29
123.01
122.161
121.137
120.077
118.79
117.057
114.611
111.161
106.536
100.188
91.096
78.91
63.985
47.117
29.685
12.894
-2.463
-15.095
-23.216
-25.787
-22.469
-13.694
-0.885
14.851
32.911
52.275
71.675
90.253
107.449
123.366
138.865
154.407
170.018
185.809
201.785
217.82
233.772
249.124
263.063
275.066
284.816
292.09
296.84
299.004
298.527
295.527
290.194
282.698
273.241
261.99
249.156
235.068
220.037
204.38
188.43
172.454
156.754
141.685
127.522
114.516
102.913
92.85
84.48
77.967
73.355
70.651
69.798
70.63
73.035
76.945
82.208
88.674
96.126
104.227
112.719
121.374
129.901
138.057
145.562
152.093
157.473
161.608
164.423
165.887
165.878
164.213
160.828
155.719
148.981
140.764
131.061
119.979
107.851
94.999
81.878
68.805
55.637
42.356
29.22
16.099
2.797
-10.777
-25.224
-40.641
-56.288
-71.939
-87.445
-102.003
-115.112
-126.356
-134.56
-139.418
-141.578
-140.961
-137.934
-133.74
-128.978
-124.238
-120.834
-119.221
-119.272
-121.564
-125.803
-130.786
-136.022
-141.012
-144.895
-147.443
-148.471
-147.272
-143.965
-139.341
-133.765
-127.65
-121.368
-114.871
-108.295
-102.04
-96.079
-90.102
-83.887
-77.131
-69.699
-61.677
-53.055
-43.781
-33.862
-23.32
-12.189
-0.523
11.652
24.299
37.338
50.643
63.994
77.116
89.669
101.243
111.502
120.163
126.985
131.812
134.505
134.916
132.923
128.408
121.264
111.464
99.049
84.123
66.924
47.768
27.088
5.423
-16.723
-38.881
-60.641
-81.685
-101.735
-120.511
-137.735
-153.121
-166.389
-177.347
-185.877
-191.942
-195.59
-196.932
-196.235
-193.9
-190.351
-186.013
-181.218
-176.167
-171.065
-166.221
-161.867
-158.126
-155.004
-152.222
-149.477
-146.624
-143.401
-139.263
-133.837
-127.051
-119.083
-110.774
-103.194
-97.038
-93.158
-92.923
-96.132
-100.493
-103.74
-102.511
-95.525
-86.805
-78.208
-67.998
-51.786
-17.665
45.053
138.725
262.182
405.784
553.664
691.896
803.531
872.063
886.39
838.968
731.461
575.768
390.604
199.978
27.236
-108.523
-195.941
-233.973
-228.365
-193.257
-145.892
-100.389
-70.108
-58.721
-61.889
-73.497
-82.847
-84.865
-81.082
-74.358
-70.356
-71.406
-75.666
-80.828
-84.314
-85.221
-84.297
-82.365
-80.148
-78.118
-76.611
-76.051
-76.646
-78.351
-80.973
-84.216
-87.867
-91.739
-95.603
-99.223
-102.381
-104.937
-106.814
-107.979
-108.41
-108.097
-107.044
-105.275
-102.838
-99.79
-96.201
-92.145
-87.688
-82.908
-77.89
-72.722
-67.504
-62.312
-57.205
-52.229
-47.416
-42.791
-38.373
-34.173
-30.186
-26.408
-22.837
-19.467
-16.3
-13.33
-10.546
-7.933
-5.473
-3.152
-0.957
1.124
3.106
5
6.82
8.577
10.278
11.935
13.562
15.173
16.784
18.409
20.06
21.75
23.491
25.293
27.162
29.104
31.12
33.214
35.383
37.627
39.941
42.32
44.756
47.24
49.759
52.303
54.856
57.401
59.922
62.398
64.81
67.137
69.358
71.451
73.392
75.161
76.735
78.093
79.214
80.077
80.663
80.955
80.936
80.592
79.909
78.877
77.487
75.734
73.614
71.126
68.272
65.055
61.482
57.563
53.307
48.728
43.842
38.665
33.219
27.523
21.602
15.48
9.183
2.739
-3.825
-10.479
-17.193
-23.939
-30.686
-37.405
-44.067
-50.642
-57.102
-63.421
-69.573
-75.532
-81.276
-86.784
-92.035
-97.012
-101.699
-106.084
-110.153
-113.899
-117.314
-120.392
-123.132
-125.532
-127.593
-129.32
-130.716
-131.79
-132.551
-133.01
-133.179
-133.072
-132.705
-132.094
-131.256
-130.211
-128.976
-127.571
-126.016
-124.331
-122.536
-120.65
-118.692
-116.682
-114.636
-112.572
-110.507
-108.454
-106.428
-104.44
-102.503
-100.626
-98.818
-97.087
-95.438
-93.876
-92.406
-91.03
-89.747
-88.559
-87.464
-86.458
-85.538
-84.699
-83.935
-83.24
-82.605
-82.024
-81.486
-80.983
-80.505
-80.043
-79.587
-79.127
-78.655
-78.161
-77.637
-77.077
-76.473
-75.821
-75.115
-74.352
-73.53
-72.647
-71.702
-70.695
-69.627
-68.5
-67.317
-66.082
-64.798
-63.47
-62.105
-60.709
-59.29
-57.854
-56.409
-54.964
-53.527
-52.107
-50.713
-49.354
-48.039
-46.776
-45.574
-44.44
-43.384
-42.409
-41.523
-40.728
-40.028
-39.426
-38.92
-38.51
-38.193
-37.965
-37.823
-37.76
-37.771
-37.846
-37.977
-38.154
-38.368
-38.608
-38.861
-39.116
-39.359
-39.58
-39.765
-39.903
-39.981
-39.986
-39.907
-39.733
-39.454
-39.059
-38.539
-37.886
-37.093
-36.155
-35.069
-33.832
-32.444
-30.907
-29.226
-27.411
-25.471
-23.418
-21.264
-19.024
-16.714
-14.353
-11.954
-9.533
-7.106
-4.691
-2.31
0.014
2.261
4.412
6.448
8.347
10.089
11.656
13.042
14.239
15.235
16.013
16.543
16.803
16.781
16.469
15.859
14.956
13.765
12.306
10.626
8.765
6.766
4.655
2.443
0.154
-2.166
-4.462
-6.659
-8.705
-10.575
-12.23
-13.631
-14.784
-15.716
-16.507
-17.283
-18.107
-19.031
-20.126
-21.442
-23.063
-25.089
-27.575
-30.623
-34.434
-39.069
-44.457
-50.424
-56.477
-62.096
-66.896
-70.3
-71.592
-70.446
-67
-61.803
-56.083
-51.197
-48.005
-47.482
-51.036
-58.31
-66.903
-74.534
-77.73
-75.689
-71.746
-65.093
-51.646
-23.649
30.171
113.116
220.682
344.074
471.617
596.673
714.646
817.344
894.332
931.052
915.292
845.882
729.314
578.723
411.74
243.81
89.736
-34.634
-117.509
-154.01
-145.353
-102.224
-42.098
19.458
67.11
90.87
92.031
76.182
54.253
38.043
30.947
32.299
38.068
42.588
44.904
46.067
47.261
50.247
54.919
60.15
65.288
69.555
72.416
73.881
74
72.889
70.841
68.069
64.712
60.959
57.004
53.019
49.193
45.662
42.509
39.818
37.646
36.031
34.995
34.529
34.6
35.173
36.198
37.626
39.416
41.512
43.855
46.375
48.989
51.633
54.265
56.849
59.366
61.803
64.149
66.412
68.61
70.759
72.874
74.966
77.039
79.103
81.173
83.262
85.388
87.564
89.796
92.091
94.455
96.891
99.401
101.982
104.627
107.331
110.092
112.905
115.77
118.681
121.631
124.615
127.625
130.653
133.689
136.719
139.73
142.707
145.636
148.5
151.284
153.969
156.537
158.972
161.253
163.364
165.285
166.998
168.485
169.728
170.71
171.415
171.83
171.941
171.734
171.199
170.327
169.11
167.542
165.619
163.337
160.697
157.699
154.346
150.643
146.598
142.218
137.515
132.502
127.191
121.601
115.746
109.648
103.326
96.8
90.095
83.233
76.238
69.135
61.949
54.707
47.433
40.153
32.893
25.677
18.53
11.475
4.535
-2.268
-8.914
-15.383
-21.659
-27.723
-33.562
-39.163
-44.514
-49.604
-54.426
-58.973
-63.239
-67.222
-70.919
-74.331
-77.458
-80.304
-82.872
-85.169
-87.202
-88.98
-90.511
-91.808
-92.881
-93.744
-94.41
-94.893
-95.209
-95.373
-95.399
-95.306
-95.107
-94.82
-94.459
-94.04
-93.577
-93.086
-92.578
-92.068
-91.567
-91.086
-90.637
-90.228
-89.869
-89.568
-89.33
-89.164
-89.072
-89.061
-89.132
-89.288
-89.53
-89.859
-90.274
-90.773
-91.356
-92.018
-92.756
-93.565
-94.441
-95.377
-96.367
-97.404
-98.481
-99.592
-100.727
-101.881
-103.045
-104.212
-105.375
-106.527
-107.661
-108.772
-109.852
-110.898
-111.903
-112.864
-113.776
-114.636
-115.44
-116.187
-116.875
-117.503
-118.069
-118.574
-119.018
-119.401
-119.726
-119.994
-120.206
-120.366
-120.477
-120.543
-120.567
-120.554
-120.507
-120.432
-120.333
-120.214
-120.08
-119.935
-119.784
-119.629
-119.473
-119.32
-119.172
-119.03
-118.894
-118.766
-118.644
-118.529
-118.418
-118.309
-118.199
-118.084
-117.961
-117.826
-117.672
-117.494
-117.286
-117.041
-116.753
-116.417
-116.023
-115.564
-115.033
-114.423
-113.727
-112.937
-112.047
-111.05
-109.941
-108.715
-107.368
-105.897
-104.301
-102.58
-100.735
-98.771
-96.694
-94.51
-92.227
-89.854
-87.402
-84.882
-82.302
-79.675
-77.011
-74.321
-71.622
-68.929
-66.261
-63.634
-61.065
-58.571
-56.171
-53.882
-51.715
-49.678
-47.786
-46.054
-44.512
-43.184
-42.088
-41.236
-40.638
-40.293
-40.197
-40.329
-40.646
-41.106
-41.667
-42.292
-42.964
-43.661
-44.347
-44.975
-45.484
-45.818
-45.952
-45.869
-45.54
-44.97
-44.207
-43.339
-42.526
-41.917
-41.606
-41.681
-42.236
-43.376
-45.226
-47.901
-51.453
-55.942
-61.497
-68.16
-75.846
-84.272
-92.871
-101.028
-108.262
-114.055
-117.74
-118.876
-117.419
-113.835
-109.238
-104.646
-100.688
-98.027
-97.574
-100.114
-104.338
-106.779
-103.873
-91.994
-72.035
-49.357
-24.166
5.364
45.169
108.399
198.822
314.5
450.982
593.687
730.39
848.653
931.676
966.158
941.622
856.118
718.057
543.339
352.812
165.773
0.042
-129.267
-212.942
-248.041
-240.032
-202.37
-152.49
-106.512
-74.411
-58.233
-52.347
-47.316
-36.881
-20.254
-1.727
11.301
14.587
8.919
-2.38
-15.029
-26.076
-34.889
-41.373
-44.991
-45.444
-43.008
-38.376
-32.713
-27.294
-22.644
-18.994
-16.785
-16.13
-16.94
-19.031
-21.83
-24.644
-27.126
-29.095
-30.414
-31.112
-31.177
-30.567
-29.368
-27.7
-25.641
-23.252
-20.546
-17.502
-14.144
-10.532
-6.741
-2.866
1.029
4.913
8.761
12.559
16.297
19.966
23.578
27.156
30.722
34.289
37.863
41.443
45.04
48.673
52.365
56.141
60.017
64.006
68.118
72.359
76.737
81.253
85.904
90.682
95.581
100.596
105.722
110.953
116.278
121.686
127.164
132.696
138.265
143.851
149.434
154.989
160.493
165.92
171.247
176.447
181.494
186.362
191.025
195.459
199.637
203.536
207.133
210.403
213.327
215.885
218.059
219.834
221.195
222.13
222.632
222.692
222.309
221.479
220.205
218.49
216.341
213.767
210.781
207.396
203.629
199.5
195.029
190.241
185.159
179.811
174.224
168.425
162.445
156.312
150.057
143.708
137.294
130.846
124.392
117.959
111.574
105.263
99.052
92.962
87.016
81.233
75.632
70.228
65.036
60.067
55.331
50.836
46.589
42.591
38.846
35.351
32.106
29.105
26.344
23.813
21.505
19.41
17.517
15.814
14.288
12.929
11.721
10.653
9.711
8.881
8.152
7.509
6.94
6.434
5.978
5.562
5.176
4.81
4.456
4.106
3.755
3.395
3.023
2.634
2.227
1.8
1.352
0.884
0.397
-0.107
-0.624
-1.151
-1.683
-2.217
-2.748
-3.27
-3.78
-4.272
-4.743
-5.189
-5.606
-5.992
-6.342
-6.656
-6.932
-7.169
-7.366
-7.525
-7.645
-7.729
-7.778
-7.797
-7.788
-7.756
-7.705
-7.64
-7.567
-7.492
-7.423
-7.366
-7.33
-7.323
-7.353
-7.43
-7.563
-7.758
-8.026
-8.375
-8.81
-9.341
-9.972
-10.71
-11.559
-12.523
-13.607
-14.811
-16.138
-17.587
-19.158
-20.85
-22.659
-24.582
-26.615
-28.752
-30.989
-33.317
-35.731
-38.222
-40.782
-43.402
-46.071
-48.78
-51.517
-54.269
-57.025
-59.771
-62.494
-65.183
-67.823
-70.402
-72.909
-75.33
-77.654
-79.871
-81.97
-83.941
-85.774
-87.461
-88.996
-90.371
-91.582
-92.624
-93.494
-94.189
-94.708
-95.052
-95.221
-95.217
-95.041
-94.697
-94.191
-93.528
-92.717
-91.766
-90.683
-89.481
-88.174
-86.779
-85.311
-83.786
-82.222
-80.637
-79.049
-77.476
-75.931
-74.43
-72.986
-71.615
-70.336
-69.164
-68.117
-67.209
-66.457
-65.878
-65.487
-65.292
-65.294
-65.5
-65.912
-66.544
-67.412
-68.529
-69.898
-71.524
-73.41
-75.549
-77.926
-80.503
-83.229
-86.057
-88.946
-91.873
-94.82
-97.757
-100.648
-103.454
-106.135
-108.67
-111.037
-113.205
-115.149
-116.889
-118.49
-120.063
-121.742
-123.616
-125.733
-128.15
-130.932
-134.142
-137.851
-142.101
-146.87
-152.214
-158.281
-165.077
-172.515
-180.304
-187.814
-194.46
-199.828
-203.296
-204.255
-202.64
-198.479
-192.298
-185.653
-179.85
-175.893
-175.454
-178.74
-183.52
-188.231
-190.684
-189.798
-189.169
-189.777
-187.607
-175.651
-142.606
-80.01
10.822
123.381
248.427
374.453
492.509
591.961
658.625
679.677
645.985
557.062
420.677
251.925
70.784
-103.012
-249.871
-355.431
-413.987
-427.163
-402.507
-350.964
-284.888
-215.706
-155.835
-114.93
-94.952
-93.216
-101.262
-109.766
-115.515
-118.301
-120.818
-126.704
-135.697
-146.143
-156.019
-162.497
-164.718
-163.325
-159.148
-153.801
-148.767
-144.574
-141.555
-140.067
-140.158
-141.789
-144.832
-148.751
-152.882
-156.898
-160.614
-163.915
-166.832
-169.334
-171.357
-172.957
-174.224
-175.199
-175.908
-176.346
-176.472
-176.298
-175.864
-175.218
-174.43
-173.54
-172.562
-171.51
-170.386
-169.191
-167.924
-166.572
-165.11
-163.52
-161.788
-159.903
-157.859
-155.642
-153.231
-150.603
-147.733
-144.599
-141.189
-137.492
-133.501
-129.211
-124.62
-119.731
-114.55
-109.086
-103.344
-97.331
-91.055
-84.526
-77.759
-70.768
-63.571
-56.187
-48.637
-40.944
-33.135
-25.236
-17.274
-9.276
-1.271
6.714
14.648
22.503
30.249
37.857
45.298
52.544
59.567
66.339
72.833
79.025
84.89
90.407
95.554
100.313
104.666
108.599
112.098
115.154
117.756
119.901
121.584
122.803
123.561
123.861
123.71
123.116
122.091
120.647
118.799
116.564
113.961
111.008
107.726
104.137
100.264
96.131
91.761
87.179
82.411
77.482
72.417
67.243
61.984
56.665
51.312
45.947
40.594
35.276
30.013
24.825
19.73
14.746
9.888
5.168
0.6
-3.807
-8.044
-12.105
-15.985
-19.679
-23.187
-26.508
-29.642
-32.591
-35.359
-37.95
-40.368
-42.621
-44.714
-46.655
-48.452
-50.112
-51.645
-53.06
-54.365
-55.57
-56.685
-57.718
-58.68
-59.578
-60.422
-61.219
-61.977
-62.701
-63.399
-64.074
-64.73
-65.37
-65.997
-66.61
-67.209
-67.795
-68.365
-68.915
-69.444
-69.947
-70.42
-70.857
-71.254
-71.606
-71.906
-72.15
-72.333
-72.449
-72.493
-72.461
-72.348
-72.149
-71.862
-71.482
-71.006
-70.432
-69.759
-68.984
-68.107
-67.13
-66.052
-64.876
-63.604
-62.241
-60.79
-59.256
-57.647
-55.968
-54.227
-52.433
-50.594
-48.72
-46.82
-44.904
-42.982
-41.063
-39.157
-37.274
-35.421
-33.609
-31.844
-30.136
-28.49
-26.913
-25.411
-23.99
-22.652
-21.403
-20.243
-19.175
-18.199
-17.315
-16.523
-15.82
-15.204
-14.671
-14.215
-13.833
-13.517
-13.26
-13.053
-12.886
-12.75
-12.634
-12.529
-12.422
-12.304
-12.161
-11.984
-11.762
-11.485
-11.141
-10.72
-10.214
-9.612
-8.909
-8.095
-7.166
-6.114
-4.937
-3.633
-2.199
-0.636
1.055
2.873
4.814
6.873
9.043
11.317
13.685
16.139
18.664
21.245
23.864
26.504
29.149
31.779
34.374
36.914
39.38
41.758
44.031
46.184
48.199
50.056
51.738
53.231
54.518
55.581
56.406
56.982
57.302
57.37
57.186
56.75
56.059
55.104
53.884
52.406
50.677
48.705
46.509
44.117
41.575
38.947
36.284
33.63
31.024
28.49
26.071
23.813
21.753
19.929
18.373
17.111
16.18
15.614
15.399
15.476
15.771
16.174
16.62
17.09
17.526
17.862
18.025
17.933
17.555
16.933
16.041
14.744
13.023
10.974
8.939
7.564
7.367
8.645
11.778
17.231
25.145
35.393
47.179
58.943
69.537
78.188
83.965
86.195
84.768
81.065
78.677
81.707
93.484
113.452
137.98
165.963
196.947
236.061
293.336
372.432
474.702
595.163
718.022
827.591
907.995
942.67
922.962
847.761
719.619
551.628
365.892
183.988
30.526
-75.633
-132.624
-145.13
-125.535
-92.206
-54.569
-20.811
0.708
10.336
7.923
-3.09
-12.47
-16.504
-14.688
-8.391
-3.712
-2.506
-2.989
-3.812
-2.821
0.544
5.093
10.043
14.876
19.029
22.08
23.805
24.095
23.081
21.109
18.417
15.129
11.435
7.534
3.625
-0.049
-3.322
-6.133
-8.415
-10.132
-11.264
-11.779
-11.677
-11.009
-9.829
-8.196
-6.162
-3.761
-1.038
1.949
5.131
8.426
11.779
15.161
18.552
21.947
25.346
28.752
32.182
35.672
39.251
42.943
46.767
50.732
54.855
59.153
63.65
68.366
73.319
78.524
83.995
89.739
95.762
102.062
108.633
115.468
122.555
129.879
137.43
145.197
153.176
161.372
169.773
178.356
187.083
195.906
204.776
213.654
222.484
231.203
239.763
248.126
256.278
264.238
272.002
279.546
286.833
293.796
300.398
306.636
312.508
318.023
323.194
328.023
332.548
336.845
340.939
344.813
348.399
351.559
354.199
356.273
357.747
358.624
358.881
358.461
357.33
355.464
352.825
349.384
345.065
339.734
333.345
325.919
317.543
308.399
298.622
288.295
277.509
266.334
254.853
243.17
231.357
219.455
207.535
195.68
184.01
172.702
161.864
151.541
141.733
132.373
123.424
114.886
106.743
98.977
91.579
84.532
77.849
71.572
65.717
60.278
55.228
50.504
46.076
41.94
38.103
34.595
31.433
28.615
26.148
24.043
22.295
20.896
19.816
19.007
18.433
18.065
17.877
17.854
17.971
18.196
18.499
18.848
19.212
19.563
19.868
20.094
20.214
20.204
20.047
19.732
19.248
18.582
17.727
16.675
15.421
13.962
12.297
10.424
8.346
6.067
3.595
0.941
-1.883
-4.862
-7.981
-11.222
-14.566
-17.993
-21.481
-25.008
-28.552
-32.09
-35.599
-39.056
-42.438
-45.723
-48.891
-51.919
-54.789
-57.483
-59.986
-62.281
-64.357
-66.202
-67.806
-69.164
-70.269
-71.118
-71.71
-72.044
-72.122
-71.948
-71.53
-70.873
-69.989
-68.887
-67.581
-66.086
-64.417
-62.591
-60.626
-58.539
-56.351
-54.082
-51.751
-49.378
-46.982
-44.582
-42.198
-39.847
-37.544
-35.306
-33.146
-31.077
-29.11
-27.256
-25.523
-23.916
-22.442
-21.104
-19.904
-18.842
-17.917
-17.127
-16.466
-15.93
-15.514
-15.209
-15.007
-14.898
-14.871
-14.915
-15.021
-15.176
-15.366
-15.581
-15.808
-16.037
-16.257
-16.459
-16.634
-16.774
-16.877
-16.94
-16.963
-16.945
-16.889
-16.797
-16.677
-16.532
-16.369
-16.192
-16.008
-15.825
-15.655
-15.512
-15.408
-15.359
-15.379
-15.484
-15.693
-16.02
-16.471
-17.056
-17.783
-18.672
-19.748
-21.033
-22.54
-24.281
-26.266
-28.5
-30.978
-33.679
-36.559
-39.579
-42.702
-45.905
-49.18
-52.506
-55.853
-59.177
-62.427
-65.573
-68.6
-71.486
-74.201
-76.748
-79.175
-81.581
-84.109
-86.864
-89.9
-93.264
-97.004
-101.177
-105.855
-111.111
-116.98
-123.53
-130.881
-139.064
-148.048
-157.6
-167.182
-176.206
-184.112
-190.245
-194.01
-195.183
-193.667
-190.009
-185.614
-181.667
-179.45
-179.838
-182.189
-185.472
-188.663
-191.685
-196.71
-204.912
-214.004
-216.624
-200.218
-155.465
-80.617
18.599
129.662
242.181
351.492
453.717
543.399
611.729
644.833
631.047
568.103
459.349
316.201
157.729
0.915
-136.008
-237.029
-298.436
-321.356
-313.022
-287.662
-253.924
-220.576
-197.181
-185.276
-185.874
-195.695
-204.828
-209.119
-207.638
-201.716
-197.255
-196.301
-197.32
-198.917
-198.844
-196.331
-192.41
-187.846
-183.178
-178.996
-175.729
-173.602
-172.744
-173.073
-174.28
-176.151
-178.564
-181.313
-184.183
-186.981
-189.494
-191.601
-193.245
-194.357
-194.888
-194.81
-194.1
-192.772
-190.861
-188.406
-185.46
-182.078
-178.307
-174.209
-169.849
-165.298
-160.639
-155.932
-151.223
-146.547
-141.925
-137.374
-132.909
-128.53
-124.228
-119.993
-115.817
-111.696
-107.63
-103.614
-99.638
-95.693
-91.767
-87.849
-83.938
-80.029
-76.118
-72.204
-68.285
-64.365
-60.45
-56.543
-52.646
-48.759
-44.883
-41.02
-37.175
-33.35
-29.549
-25.777
-22.041
-18.35
-14.712
-11.139
-7.638
-4.222
-0.9
2.314
5.41
8.374
11.193
13.855
16.344
18.647
20.749
22.635
24.292
25.706
26.865
27.756
28.368
28.69
28.712
28.427
27.827
26.906
25.66
24.086
22.182
19.95
17.391
14.509
11.31
7.802
3.994
-0.103
-4.476
-9.111
-13.993
-19.104
-24.427
-29.94
-35.623
-41.454
-47.409
-53.463
-59.592
-65.769
-71.968
-78.163
-84.328
-90.435
-96.458
-102.372
-108.151
-113.77
-119.206
-124.436
-129.436
-134.188
-138.671
-142.868
-146.762
-150.338
-153.583
-156.486
-159.035
-161.224
-163.045
-164.494
-165.568
-166.266
-166.589
-166.54
-166.123
-165.345
-164.214
-162.74
-160.934
-158.809
-156.38
-153.661
-150.669
-147.422
-143.937
-140.233
-136.331
-132.25
-128.011
-123.635
-119.142
-114.553
-109.889
-105.17
-100.417
-95.65
-90.888
-86.149
-81.453
-76.817
-72.258
-67.791
-63.432
-59.194
-55.09
-51.133
-47.331
-43.695
-40.233
-36.951
-33.856
-30.952
-28.242
-25.729
-23.414
-21.297
-19.379
-17.657
-16.128
-14.791
-13.64
-12.671
-11.878
-11.257
-10.8
-10.501
-10.352
-10.347
-10.477
-10.734
-11.11
-11.596
-12.185
-12.868
-13.638
-14.485
-15.403
-16.386
-17.425
-18.514
-19.647
-20.818
-22.021
-23.252
-24.505
-25.776
-27.061
-28.356
-29.658
-30.966
-32.275
-33.584
-34.89
-36.191
-37.487
-38.775
-40.052
-41.318
-42.571
-43.808
-45.028
-46.231
-47.414
-48.575
-49.711
-50.82
-51.899
-52.945
-53.954
-54.922
-55.844
-56.715
-57.532
-58.29
-58.983
-59.605
-60.151
-60.617
-60.997
-61.287
-61.48
-61.571
-61.556
-61.432
-61.196
-60.843
-60.371
-59.781
-59.072
-58.25
-57.316
-56.275
-55.131
-53.889
-52.557
-51.14
-49.644
-48.073
-46.432
-44.729
-42.976
-41.187
-39.372
-37.544
-35.712
-33.892
-32.098
-30.341
-28.621
-26.943
-25.315
-23.751
-22.279
-20.921
-19.688
-18.592
-17.639
-16.831
-16.166
-15.626
-15.17
-14.76
-14.368
-13.974
-13.581
-13.18
-12.741
-12.223
-11.575
-10.761
-9.774
-8.593
-7.194
-5.595
-3.841
-2.028
-0.295
1.271
2.602
3.633
4.313
4.566
4.302
3.46
1.933
-0.447
-3.724
-7.871
-12.77
-17.991
-23.049
-27.512
-30.728
-31.989
-31.003
-27.76
-22.565
-16.653
-11.413
-7.78
-7.223
-10.37
-15.89
-22.616
-28.933
-34.051
-40.338
-48.014
-53.375
-48.293
-20.331
37.724
125.267
235.04
354.904
476.824
596.674
709.013
805.575
873.487
897.726
869.142
788.69
663.298
505.953
334.376
164.596
15.433
-95.364
-161.139
-181.991
-168.321
-138.117
-104.309
-77.942
-64.427
-61.438
-66.535
-74
-78.602
-80.187
-79.891
-80.926
-85.794
-93.399
-101.361
-107.248
-109.883
-109.742
-107.852
-105.173
-102.303
-99.753
-98.12
-97.763
-98.787
-101.089
-104.385
-108.454
-113.142
-118.274
-123.641
-129.058
-134.353
-139.36
-143.961
-148.061
-151.573
-154.458
-156.693
-158.261
-159.172
-159.467
-159.193
-158.407
-157.158
-155.48
-153.418
-151.03
-148.389
-145.577
-142.658
-139.671
-136.645
-133.597
-130.539
-127.476
-124.401
-121.286
-118.109
-114.853
-111.505
-108.061
-104.508
-100.831
-97.012
-93.034
-88.886
-84.562
-80.056
-75.362
-70.479
-65.408
-60.157
-54.737
-49.157
-43.423
-37.546
-31.533
-25.397
-19.151
-12.809
-6.384
0.108
6.646
13.21
19.777
26.324
32.827
39.262
45.601
51.818
57.888
63.781
69.473
74.938
80.148
85.079
89.707
94.011
97.969
101.565
104.781
107.603
110.021
112.025
113.61
114.771
115.509
115.823
115.718
115.202
114.283
112.974
111.287
109.24
106.851
104.142
101.135
97.856
94.332
90.59
86.66
82.573
78.362
74.057
69.692
65.298
60.909
56.555
52.268
48.077
44.01
40.094
36.352
32.808
29.483
26.393
23.555
20.982
18.685
16.672
14.95
13.522
12.39
11.554
11.011
10.757
10.784
11.085
11.65
12.466
13.52
14.797
16.281
17.955
19.8
21.797
23.926
26.168
28.501
30.908
33.366
35.858
38.366
40.871
43.357
45.81
48.215
50.559
52.832
55.023
57.124
59.128
61.029
62.822
64.503
66.07
67.521
68.856
70.074
71.177
72.167
73.047
73.82
74.49
75.063
75.545
75.941
76.259
76.504
76.685
76.807
76.879
76.906
76.896
76.853
76.784
76.692
76.583
76.459
76.322
76.175
76.019
75.853
75.679
75.494
75.299
75.091
74.869
74.632
74.377
74.102
73.805
73.483
73.133
72.753
72.338
71.885
71.391
70.851
70.261
69.618
68.917
68.155
67.328
66.432
65.464
64.422
63.304
62.108
60.834
59.481
58.052
56.547
54.971
53.326
51.616
49.848
48.026
46.156
44.245
42.299
40.324
38.328
36.317
34.301
32.287
30.284
28.301
26.349
24.436
22.574
20.774
19.045
17.4
15.849
14.403
13.075
11.875
10.813
9.899
9.143
8.553
8.133
7.888
7.823
7.937
8.23
8.698
9.336
10.138
11.099
12.208
13.455
14.832
16.324
17.922
19.614
21.385
23.218
25.096
26.999
28.906
30.797
32.65
34.441
36.143
37.731
39.181
40.473
41.587
42.5
43.187
43.614
43.76
43.613
43.168
42.423
41.382
40.049
38.446
36.615
34.599
32.438
30.156
27.76
25.265
22.69
20.07
17.455
14.871
12.323
9.805
7.308
4.827
2.353
-0.168
-2.856
-5.842
-9.228
-13.072
-17.362
-22.072
-27.217
-32.835
-38.96
-45.593
-52.684
-60.124
-67.904
-76.094
-84.61
-93.202
-101.359
-108.308
-113.425
-116.336
-116.536
-113.54
-107.326
-98.016
-86.337
-73.954
-62.254
-52.4
-45.967
-43.034
-41.769
-40.848
-37.895
-31.95
-25.679
-18.311
-6.215
17.192
61.967
132.159
224.692
332.121
444.38
553.957
655.566
741.78
801.468
821.521
790.649
705.911
574.933
413.45
244.075
88.602
-36.304
-119.251
-160.986
-168.234
-149.043
-116.286
-77.693
-40.165
-13.794
-0.841
-1.868
-13.858
-26.503
-35.104
-38.701
-38.186
-38.94
-42.935
-48.808
-55.374
-60.583
-63.746
-65.778
-67.34
-68.962
-71.101
-73.99
-77.706
-82.22
-87.364
-92.84
-98.398
-103.866
-109.03
-113.675
-117.677
-120.943
-123.423
-125.127
-126.048
-126.181
-125.555
-124.208
-122.174
-119.506
-116.258
-112.484
-108.26
-103.666
-98.784
-93.702
-88.489
-83.198
-77.876
-72.558
-67.269
-62.034
-56.862
-51.754
-46.718
-41.759
-36.882
-32.09
-27.383
-22.755
-18.199
-13.705
-9.262
-4.863
-0.5
3.835
8.149
12.448
16.736
21.017
25.293
29.573
33.861
38.165
42.491
46.842
51.222
55.633
60.075
64.547
69.043
73.559
78.085
82.611
87.128
91.623
96.08
100.484
104.817
109.061
113.195
117.197
121.046
124.718
128.189
131.434
134.428
137.149
139.573
141.677
143.439
144.839
145.86
146.485
146.699
146.49
145.848
144.766
143.241
141.269
138.854
135.999
132.714
129.009
124.899
120.4
115.532
110.318
104.783
98.954
92.86
86.533
80.007
73.316
66.495
59.584
52.618
45.638
38.681
31.786
24.991
18.334
11.851
5.577
-0.455
-6.214
-11.671
-16.798
-21.573
-25.973
-29.981
-33.581
-36.762
-39.515
-41.834
-43.718
-45.166
-46.184
-46.778
-46.959
-46.74
-46.135
-45.164
-43.846
-42.204
-40.261
-38.044
-35.58
-32.898
-30.026
-26.997
-23.841
-20.589
-17.272
-13.922
-10.57
-7.244
-3.974
-0.786
2.293
5.24
8.032
10.65
13.075
15.293
17.289
19.054
20.58
21.859
22.89
23.672
24.204
24.492
24.541
24.357
23.949
23.329
22.507
21.498
20.315
18.973
17.49
15.881
14.164
12.357
10.478
8.544
6.574
4.583
2.589
0.607
-1.349
-3.264
-5.126
-6.924
-8.649
-10.291
-11.845
-13.305
-14.669
-15.934
-17.1
-18.17
-19.146
-20.032
-20.834
-21.558
-22.211
-22.801
-23.338
-23.829
-24.285
-24.715
-25.13
-25.54
-25.955
-26.384
-26.837
-27.323
-27.849
-28.424
-29.055
-29.745
-30.502
-31.327
-32.225
-33.195
-34.241
-35.359
-36.547
-37.803
-39.121
-40.493
-41.914
-43.372
-44.858
-46.36
-47.868
-49.367
-50.847
-52.293
-53.692
-55.031
-56.295
-57.471
-58.547
-59.509
-60.344
-61.041
-61.589
-61.979
-62.203
-62.254
-62.123
-61.808
-61.305
-60.611
-59.726
-58.65
-57.384
-55.932
-54.3
-52.496
-50.527
-48.406
-46.144
-43.758
-41.266
-38.685
-36.036
-33.338
-30.612
-27.878
-25.159
-22.471
-19.834
-17.266
-14.788
-12.419
-10.182
-8.093
-6.173
-4.437
-2.9
-1.577
-0.48
0.392
1.035
1.447
1.621
1.541
1.196
0.588
-0.281
-1.402
-2.758
-4.325
-6.062
-7.906
-9.796
-11.676
-13.495
-15.226
-16.83
-18.257
-19.451
-20.344
-20.88
-21.031
-20.773
-20.07
-18.922
-17.375
-15.516
-13.504
-11.478
-9.522
-7.726
-6.185
-4.996
-4.274
-4.113
-4.544
-5.615
-7.445
-10.067
-13.41
-17.26
-21.153
-24.574
-27.118
-28.314
-27.506
-24.281
-18.626
-10.794
-1.57
8.082
17.568
26.189
32.584
36.68
40.627
46.652
57.569
74.158
91.877
107.456
122.709
143.052
179.81
244.251
337.733
456.361
591.755
729.544
858.246
965.129
1034.819
1056.294
1021.897
931.932
795.209
625.862
442.056
261.672
102.381
-20.905
-100.346
-134.485
-128.914
-96.91
-52.849
-10.7
15.671
21.729
9.18
-15.89
-40.798
-58.847
-69.196
-73.344
-77.536
-84.394
-92.426
-100.242
-105.486
-107.399
-107.206
-105.933
-104.451
-103.507
-103.502
-104.629
-106.985
-110.483
-114.88
-119.99
-125.692
-131.822
-138.212
-144.747
-151.281
-157.682
-163.834
-169.573
-174.766
-179.343
-183.255
-186.485
-189.037
-190.926
-192.189
-192.886
-193.075
-192.806
-192.123
-191.063
-189.681
-188.044
-186.224
-184.301
-182.329
-180.346
-178.376
-176.435
-174.527
-172.649
-170.786
-168.911
-167.006
-165.06
-163.063
-161.011
-158.892
-156.695
-154.408
-152.02
-149.522
-146.911
-144.182
-141.334
-138.37
-135.296
-132.119
-128.852
-125.504
-122.086
-118.608
-115.079
-111.512
-107.917
-104.308
-100.696
-97.097
-93.524
-89.994
-86.524
-83.13
-79.828
-76.635
-73.569
-70.645
-67.878
-65.284
-62.876
-60.667
-58.669
-56.89
-55.339
-54.022
-52.943
-52.105
-51.507
-51.148
-51.023
-51.127
-51.452
-51.987
-52.721
-53.639
-54.727
-55.967
-57.341
-58.83
-60.413
-62.069
-63.777
-65.515
-67.258
-68.986
-70.674
-72.3
-73.841
-75.276
-76.582
-77.74
-78.731
-79.536
-80.14
-80.528
-80.688
-80.608
-80.281
-79.7
-78.859
-77.756
-76.391
-74.765
-72.883
-70.75
-68.373
-65.762
-62.929
-59.887
-56.651
-53.235
-49.656
-45.932
-42.08
-38.12
-34.07
-29.949
-25.777
-21.574
-17.358
-13.15
-8.968
-4.831
-0.756
3.24
7.141
10.931
14.597
18.127
21.509
24.732
27.789
30.67
33.371
35.886
38.211
40.345
42.286
44.036
45.596
46.969
48.16
49.174
50.016
50.693
51.213
51.582
51.809
51.902
51.871
51.724
51.471
51.122
50.686
50.173
49.593
48.955
48.269
47.542
46.784
46.003
45.207
44.403
43.6
42.802
42.018
41.252
40.509
39.795
39.112
38.465
37.855
37.284
36.754
36.264
35.816
35.409
35.041
34.712
34.42
34.162
33.935
33.738
33.565
33.413
33.278
33.154
33.037
32.921
32.801
32.671
32.524
32.355
32.158
31.925
31.65
31.326
30.948
30.507
29.998
29.415
28.753
28.005
27.168
26.236
25.207
24.076
22.842
21.502
20.054
18.496
16.83
15.054
13.171
11.182
9.088
6.895
4.605
2.226
-0.238
-2.78
-5.392
-8.068
-10.798
-13.571
-16.38
-19.213
-22.06
-24.91
-27.751
-30.571
-33.359
-36.103
-38.793
-41.417
-43.965
-46.425
-48.791
-51.052
-53.202
-55.233
-57.138
-58.91
-60.547
-62.044
-63.398
-64.609
-65.674
-66.597
-67.383
-68.039
-68.572
-68.991
-69.304
-69.524
-69.662
-69.729
-69.733
-69.681
-69.583
-69.452
-69.301
-69.145
-68.993
-68.856
-68.747
-68.679
-68.665
-68.708
-68.808
-68.964
-69.183
-69.479
-69.876
-70.388
-71.023
-71.785
-72.676
-73.692
-74.826
-76.049
-77.311
-78.564
-79.766
-80.889
-81.915
-82.808
-83.514
-83.972
-84.12
-83.916
-83.33
-82.327
-80.896
-79.059
-76.869
-74.422
-71.826
-69.178
-66.594
-64.183
-62.045
-60.297
-59.026
-58.34
-58.457
-59.481
-61.358
-63.958
-66.909
-69.783
-72.306
-74.052
-74.31
-72.67
-69.189
-64.219
-58.731
-53.877
-50.323
-48.776
-50.584
-55.694
-61.748
-66.346
-66.327
-60.482
-52.76
-45.402
-35.641
-17.289
20.875
88.503
185.279
305.678
440.853
578.762
710.123
823.782
904.963
939.618
916.622
834.321
700.379
530.491
345.893
166.391
10.896
-105.413
-176.099
-201.459
-188.805
-152.679
-107.634
-66.575
-41.259
-34.577
-43.844
-63.104
-81.34
-93.449
-99.581
-101.469
-104.507
-110.34
-117.034
-123.2
-126.834
-127.512
-126.511
-124.729
-122.91
-121.752
-121.635
-122.757
-125.201
-128.824
-133.347
-138.559
-144.301
-150.395
-156.646
-162.882
-168.922
-174.589
-179.757
-184.318
-188.184
-191.308
-193.669
-195.249
-196.058
-196.137
-195.531
-194.297
-192.49
-190.148
-187.324
-184.085
-180.507
-176.684
-172.687
-168.563
-164.351
-160.077
-155.759
-151.414
-147.041
-142.627
-138.159
-133.633
-129.047
-124.407
-119.714
-114.961
-110.142
-105.248
-100.28
-95.238
-90.126
-84.945
-79.702
-74.404
-69.063
-63.695
-58.312
-52.923
-47.537
-42.164
-36.815
-31.499
-26.229
-21.014
-15.865
-10.797
-5.824
-0.962
3.774
8.37
12.81
17.079
21.162
25.042
28.706
32.14
35.329
38.261
40.922
43.301
45.387
47.173
48.649
49.81
50.651
51.168
51.362
51.231
50.778
50.005
48.919
47.524
45.83
43.847
41.586
39.061
36.286
33.278
30.056
26.638
23.045
19.3
15.424
11.442
7.377
3.254
-0.903
-5.067
-9.215
-13.322
-17.362
-21.312
-25.148
-28.849
-32.392
-35.759
-38.93
-41.888
-44.617
-47.101
-49.33
-51.29
-52.973
-54.37
-55.477
-56.288
-56.801
-57.016
-56.934
-56.558
-55.893
-54.945
-53.722
-52.234
-50.49
-48.504
-46.288
-43.857
-41.226
-38.412
-35.431
-32.302
-29.042
-25.67
-22.205
-18.665
-15.068
-11.434
-7.781
-4.125
-0.485
3.123
6.683
10.181
13.6
16.93
20.156
23.268
26.257
29.112
31.826
34.393
36.807
39.064
41.159
43.091
44.858
46.46
47.898
49.174
50.289
51.247
52.054
52.712
53.229
53.609
53.86
53.989
54.003
53.909
53.715
53.429
53.059
52.612
52.096
51.518
50.886
50.205
49.483
48.725
47.937
47.124
46.29
45.439
44.575
43.701
42.821
41.936
41.048
40.16
39.272
38.386
37.503
36.622
35.745
34.871
34
33.131
32.264
31.398
30.533
29.668
28.802
27.935
27.067
26.199
25.33
24.461
23.595
22.732
21.875
21.026
20.189
19.366
18.562
17.783
17.031
16.314
15.636
15.003
14.423
13.9
13.44
13.05
12.736
12.503
12.358
12.306
12.353
12.505
12.769
13.149
13.652
14.281
15.043
15.939
16.974
18.151
19.469
20.931
22.535
24.281
26.168
28.192
30.35
32.637
35.046
37.57
40.201
42.929
45.743
48.631
51.58
54.579
57.614
60.672
63.738
66.797
69.836
72.839
75.788
78.666
81.453
84.127
86.667
89.056
91.272
93.291
95.094
96.663
97.983
99.048
99.844
100.359
100.582
100.507
100.13
99.456
98.481
97.201
95.619
93.739
91.576
89.155
86.492
83.593
80.461
77.088
73.477
69.645
65.599
61.343
56.89
52.256
47.483
42.642
37.799
33.018
28.348
23.813
19.454
15.314
11.465
8.022
5.067
2.635
0.761
-0.572
-1.337
-1.394
-0.827
0.064
0.995
1.608
1.779
1.784
1.594
0.786
-0.626
-2.283
-3.608
-3.468
-1.422
1.903
6.431
12.671
20.507
29.354
37.942
43.753
45.173
42.299
34.793
21.669
3.829
-15.928
-34.317
-46.156
-49.825
-48.954
-43.311
-29.367
0.255
56.877
144.226
257.613
387.97
523.454
655.973
779.25
884.418
961.275
996.795
980.705
912.208
796.066
644.707
477.398
311.923
167.926
62.219
0.004
-19.484
-6.38
22.742
56.217
83.138
97.83
102.138
98.19
92.094
89.562
90.915
94.824
97.559
96.086
91.191
85.261
80.88
79.33
80.237
82.637
85.602
88.595
91.134
92.572
92.514
90.831
87.602
83.112
77.587
71.18
64.093
56.584
48.877
41.171
33.642
26.403
19.555
13.196
7.382
2.148
-2.483
-6.509
-9.958
-12.86
-15.256
-17.19
-18.696
-19.815
-20.603
-21.12
-21.439
-21.613
-21.673
-21.638
-21.52
-21.324
-21.051
-20.692
-20.222
-19.621
-18.875
-17.973
-16.911
-15.681
-14.271
-12.665
-10.853
-8.828
-6.587
-4.13
-1.458
1.426
4.517
7.802
11.266
14.896
18.681
22.609
26.667
30.84
35.112
39.467
43.889
48.359
52.856
57.361
61.849
66.298
70.686
74.99
79.188
83.257
87.173
90.915
94.461
97.789
100.878
103.708
106.257
108.508
110.442
112.045
113.299
114.192
114.712
114.848
114.592
113.938
112.881
111.417
109.546
107.267
104.585
101.504
98.029
94.169
89.935
85.339
80.394
75.116
69.52
63.625
57.451
51.016
44.342
37.452
30.367
23.111
15.708
8.182
0.56
-7.136
-14.878
-22.643
-30.405
-38.139
-45.821
-53.427
-60.933
-68.319
-75.56
-82.637
-89.529
-96.216
-102.682
-108.909
-114.88
-120.58
-125.997
-131.117
-135.929
-140.423
-144.589
-148.42
-151.91
-155.053
-157.845
-160.284
-162.368
-164.098
-165.474
-166.5
-167.179
-167.516
-167.517
-167.191
-166.544
-165.588
-164.332
-162.788
-160.969
-158.889
-156.561
-154.001
-151.224
-148.247
-145.087
-141.762
-138.289
-134.688
-130.977
-127.176
-123.304
-119.381
-115.426
-111.46
-107.501
-103.569
-99.681
-95.857
-92.113
-88.467
-84.935
-81.532
-78.273
-75.17
-72.237
-69.485
-66.925
-64.564
-62.412
-60.475
-58.759
-57.268
-56.005
-54.972
-54.17
-53.597
-53.251
-53.13
-53.227
-53.538
-54.055
-54.769
-55.672
-56.752
-57.998
-59.399
-60.941
-62.611
-64.395
-66.279
-68.247
-70.286
-72.381
-74.516
-76.678
-78.851
-81.023
-83.18
-85.31
-87.399
-89.436
-91.411
-93.312
-95.131
-96.858
-98.485
-100.006
-101.413
-102.704
-103.872
-104.915
-105.832
-106.619
-107.279
-107.81
-108.215
-108.496
-108.657
-108.7
-108.632
-108.457
-108.182
-107.813
-107.356
-106.818
-106.205
-105.525
-104.782
-103.983
-103.132
-102.234
-101.293
-100.314
-99.3
-98.255
-97.18
-96.077
-94.95
-93.798
-92.622
-91.422
-90.196
-88.944
-87.666
-86.358
-85.02
-83.648
-82.241
-80.795
-79.31
-77.78
-76.204
-74.577
-72.895
-71.157
-69.36
-67.501
-65.58
-63.596
-61.551
-59.452
-57.305
-55.117
-52.894
-50.648
-48.388
-46.127
-43.872
-41.632
-39.414
-37.226
-35.082
-32.995
-30.979
-29.049
-27.217
-25.5
-23.914
-22.472
-21.186
-20.057
-19.093
-18.303
-17.706
-17.328
-17.194
-17.32
-17.718
-18.397
-19.353
-20.574
-22.031
-23.67
-25.44
-27.298
-29.209
-31.15
-33.091
-34.988
-36.796
-38.462
-39.942
-41.209
-42.236
-43.012
-43.592
-44.065
-44.559
-45.239
-46.227
-47.618
-49.524
-52.048
-55.256
-59.175
-63.802
-69.186
-75.461
-82.72
-90.955
-99.898
-109.118
-118.365
-127.214
-134.876
-140.745
-144.195
-145.356
-146.134
-147.378
-148.608
-148.69
-143.926
-133.577
-120.904
-109.385
-105.589
-112.79
-127.549
-144.638
-152.902
-140.447
-100.816
-29.731
69.794
189.88
322.53
456.011
577.432
673.251
727.855
729.389
674.493
566.433
417.933
249.867
81.345
-67.392
-179.396
-250.531
-282.225
-283.649
-272.558
-260.842
-254.417
-255.965
-258.818
-255.952
-246.118
-228.322
-205.951
-185.201
-168.753
-158.071
-153.319
-152.79
-155.28
-160.256
-167.293
-175.882
-185.032
-193.902
-201.741
-207.698
-211.568
-213.368
-213.129
-211.459
-209.218
-206.885
-204.834
-203.449
-202.731
-202.598
-202.982
-203.49
-203.642
-203.203
-202.023
-200.032
-197.31
-193.908
-189.851
-185.265
-180.283
-174.986
-169.455
-163.733
-157.844
-151.857
-145.844
-139.861
-133.967
-128.197
-122.572
-117.115
-111.838
-106.744
-101.839
-97.126
-92.608
-88.297
-84.199
-80.317
-76.652
-73.193
-69.932
-66.858
-63.955
-61.213
-58.62
-56.164
-53.838
-51.632
-49.537
-47.539
-45.624
-43.773
-41.971
-40.201
-38.446
-36.688
-34.914
-33.109
-31.261
-29.361
-27.4
-25.367
-23.255
-21.058
-18.77
-16.388
-13.911
-11.336
-8.666
-5.904
-3.054
-0.124
2.878
5.943
9.059
12.214
15.394
18.584
21.769
24.934
28.061
31.135
34.137
37.052
39.862
42.552
45.104
47.505
49.739
51.794
53.657
55.318
56.768
57.997
59.001
59.774
60.313
60.616
60.682
60.513
60.112
59.483
58.633
57.57
56.303
54.843
53.202
51.393
49.432
47.333
45.113
42.788
40.375
37.894
35.36
32.793
30.209
27.628
25.067
22.542
20.071
17.669
15.351
13.133
11.026
9.044
7.195
5.492
3.94
2.548
1.321
0.263
-0.624
-1.337
-1.879
-2.249
-2.452
-2.491
-2.373
-2.104
-1.692
-1.146
-0.474
0.312
1.202
2.186
3.251
4.386
5.579
6.817
8.089
9.382
10.685
11.986
13.274
14.539
15.77
16.96
18.1
19.181
20.199
21.147
22.021
22.817
23.533
24.169
24.723
25.197
25.592
25.912
26.16
26.34
26.458
26.519
26.53
26.496
26.424
26.321
26.194
26.049
25.895
25.736
25.581
25.435
25.304
25.194
25.11
25.057
25.039
25.058
25.118
25.221
25.367
25.557
25.791
26.068
26.385
26.739
27.127
27.544
27.986
28.446
28.919
29.399
29.879
30.352
30.812
31.252
31.666
32.049
32.395
32.7
32.959
33.17
33.33
33.437
33.491
33.493
33.442
33.343
33.196
33.007
32.78
32.521
32.238
31.936
31.626
31.318
31.022
30.748
30.51
30.318
30.186
30.126
30.153
30.28
30.52
30.885
31.39
32.048
32.869
33.867
35.049
36.426
38.005
39.793
41.794
44.012
46.446
49.097
51.963
55.041
58.326
61.809
65.482
69.335
73.357
77.535
81.853
86.291
90.831
95.451
100.131
104.85
109.583
114.306
118.998
123.64
128.214
132.699
137.075
141.319
145.407
149.322
153.044
156.555
159.838
162.878
165.669
168.213
170.511
172.563
174.361
175.891
177.144
178.12
178.817
179.237
179.396
179.31
179.014
178.56
177.991
177.346
176.652
175.928
175.2
174.506
173.881
173.378
173.039
172.902
173.02
173.421
174.08
174.959
175.98
177.056
178.151
179.207
180.146
180.912
181.428
181.632
181.525
180.995
179.829
177.961
175.385
172.302
169.286
166.838
165.309
165.27
167.317
171.607
178.104
186.216
194.267
200.605
204.021
202.87
196.711
187.47
176.949
167.465
160.539
153.418
144.761
138.136
141.037
166.297
224.873
317.577
438.203
574.794
713.099
843.489
955.147
1035.545
1072.838
1054.567
977.336
846.649
674.115
479.696
283.697
106.23
-33.001
-123.075
-161.36
-153.145
-113.489
-58.875
-3.974
37.824
62.929
73.996
76.502
80.624
89.729
101.235
111.791
114.914
108.444
95.003
77.124
58.428
41.838
28.37
18.512
12.395
9.588
9.333
11.01
13.781
16.452
18.205
18.576
17.279
14.464
10.465
5.529
0.082
-5.325
-10.372
-14.868
-18.721
-22.016
-24.804
-27.089
-28.944
-30.451
-31.658
-32.603
-33.292
-33.713
-33.89
-33.88
-33.756
-33.58
-33.387
-33.196
-33.02
-32.862
-32.733
-32.626
-32.523
-32.407
-32.27
-32.104
-31.908
-31.676
-31.388
-31.023
-30.559
-29.975
-29.257
-28.394
-27.374
-26.191
-24.84
-23.319
-21.635
-19.787
-17.778
-15.608
-13.278
-10.794
-8.162
-5.391
-2.489
0.532
3.66
6.877
10.169
13.516
16.902
20.308
23.715
27.102
30.45
33.737
36.942
40.045
43.023
45.855
48.52
50.996
53.264
55.306
57.102
58.636
59.893
60.857
61.518
61.863
61.884
61.573
60.925
59.937
58.606
56.935
54.926
52.583
49.914
46.928
43.636
40.05
36.184
32.051
27.67
23.056
18.228
13.205
8.005
2.649
-2.842
-8.448
-14.148
-19.92
-25.743
-31.597
-37.462
-43.315
-49.139
-54.914
-60.621
-66.242
-71.761
-77.161
-82.427
-87.546
-92.507
-97.297
-101.907
-106.329
-110.556
-114.583
-118.404
-122.018
-125.42
-128.61
-131.587
-134.352
-136.904
-139.246
-141.381
-143.311
-145.039
-146.57
-147.907
-149.056
-150.021
-150.808
-151.423
-151.87
-152.158
-152.291
-152.277
-152.122
-151.835
-151.421
-150.888
-150.242
-149.49
-148.638
-147.692
-146.658
-145.541
-144.345
-143.077
-141.741
-140.341
-138.883
-137.37
-135.807
-134.198
-132.547
-130.859
-129.138
-127.387
-125.612
-123.816
-122.003
-120.179
-118.347
-116.511
-114.676
-112.845
-111.023
-109.212
-107.416
-105.638
-103.883
-102.152
-100.449
-98.777
-97.139
-95.539
-93.98
-92.465
-90.997
-89.58
-88.216
-86.908
-85.661
-84.475
-83.355
-82.303
-81.32
-80.41
-79.575
-78.815
-78.134
-77.532
-77.01
-76.57
-76.213
-75.94
-75.75
-75.645
-75.625
-75.691
-75.842
-76.078
-76.399
-76.805
-77.294
-77.864
-78.516
-79.245
-80.05
-80.927
-81.874
-82.885
-83.956
-85.082
-86.258
-87.478
-88.735
-90.024
-91.339
-92.674
-94.02
-95.372
-96.722
-98.065
-99.392
-100.697
-101.972
-103.21
-104.404
-105.547
-106.634
-107.656
-108.608
-109.484
-110.279
-110.988
-111.609
-112.138
-112.573
-112.913
-113.16
-113.317
-113.387
-113.375
-113.289
-113.137
-112.931
-112.682
-112.404
-112.109
-111.81
-111.523
-111.263
-111.042
-110.873
-110.771
-110.749
-110.824
-111.012
-111.329
-111.791
-112.415
-113.216
-114.213
-115.417
-116.832
-118.466
-120.324
-122.416
-124.762
-127.372
-130.243
-133.376
-136.765
-140.399
-144.263
-148.317
-152.499
-156.755
-161.036
-165.306
-169.549
-173.731
-177.809
-181.735
-185.45
-188.92
-192.139
-195.079
-197.701
-199.996
-201.991
-203.785
-205.533
-207.344
-209.278
-211.359
-213.603
-216.079
-218.854
-221.98
-225.486
-229.32
-233.497
-238.161
-243.323
-248.844
-254.384
-259.239
-262.742
-264.526
-264.036
-260.676
-254.387
-245.215
-233.737
-221.555
-209.998
-199.996
-193.047
-189.542
-187.666
-185.867
-181.905
-174.039
-164.709
-155.143
-142.321
-120.619
-80.566
-14.032
78.542
191.614
316.951
444.099
565.128
670.183
746.001
779.451
759.176
682.615
555.674
392.01
211.927
36.325
-114.546
-225.801
-290.429
-310.729
-294.835
-251.149
-192.2
-127.623
-66.84
-23.227
-0.34
2.612
-9.903
-25.89
-39.317
-48.486
-53.243
-57.849
-64.011
-70.76
-76.736
-79.123
-76.889
-70.987
-62.893
-54.773
-47.822
-42.217
-38.177
-35.842
-35.26
-36.448
-39.024
-42.252
-45.667
-49.021
-52.106
-54.856
-57.173
-58.908
-60.036
-60.611
-60.647
-60.161
-59.156
-57.599
-55.493
-52.87
-49.752
-46.195
-42.258
-38.006
-33.518
-28.854
-24.057
-19.165
-14.205
-9.197
-4.157
0.913
6.023
11.175
16.367
21.598
26.862
32.163
37.51
42.908
48.363
53.875
59.44
65.054
70.716
76.417
82.148
87.895
93.64
99.372
105.078
110.748
116.369
121.929
127.415
132.814
138.117
143.311
148.383
153.319
158.104
162.724
167.166
171.417
175.463
179.29
182.887
186.24
189.34
192.174
194.731
197.002
198.977
200.647
202.005
203.044
203.758
204.142
204.194
203.912
203.295
202.345
201.062
199.45
197.515
195.261
192.697
189.83
186.671
183.231
179.521
175.558
171.355
166.929
162.297
157.479
152.492
147.358
142.095
136.725
131.269
125.748
120.185
114.6
109.016
103.453
97.935
92.481
87.112
81.848
76.709
71.713
66.877
62.218
57.751
53.491
49.451
45.642
42.075
38.759
35.7
32.904
30.376
28.116
26.126
24.403
22.945
21.747
20.802
20.102
19.638
19.399
19.374
19.548
19.908
20.438
21.121
21.941
22.88
23.919
25.038
26.22
27.443
28.688
29.936
31.166
32.358
33.495
34.556
35.524
36.382
37.112
37.701
38.133
38.396
38.479
38.372
38.067
37.557
36.838
35.906
34.76
33.399
31.826
30.044
28.057
25.871
23.495
20.936
18.205
15.314
12.274
9.099
5.804
2.404
-1.086
-4.649
-8.268
-11.926
-15.603
-19.283
-22.946
-26.575
-30.152
-33.659
-37.078
-40.392
-43.587
-46.647
-49.559
-52.308
-54.885
-57.278
-59.48
-61.482
-63.277
-64.861
-66.231
-67.383
-68.318
-69.035
-69.536
-69.824
-69.904
-69.782
-69.463
-68.956
-68.269
-67.411
-66.394
-65.228
-63.926
-62.5
-60.963
-59.33
-57.616
-55.836
-54.006
-52.14
-50.254
-48.363
-46.482
-44.625
-42.806
-41.037
-39.328
-37.693
-36.139
-34.678
-33.316
-32.06
-30.917
-29.891
-28.986
-28.204
-27.546
-27.011
-26.598
-26.305
-26.129
-26.066
-26.111
-26.258
-26.503
-26.838
-27.257
-27.752
-28.312
-28.929
-29.592
-30.29
-31.014
-31.752
-32.493
-33.231
-33.957
-34.669
-35.362
-36.032
-36.677
-37.295
-37.885
-38.443
-38.966
-39.447
-39.882
-40.272
-40.619
-40.923
-41.187
-41.41
-41.595
-41.748
-41.87
-41.961
-42.019
-42.04
-42.026
-41.993
-41.957
-41.948
-41.987
-42.089
-42.27
-42.545
-42.921
-43.395
-43.949
-44.544
-45.145
-45.728
-46.266
-46.733
-47.09
-47.285
-47.268
-46.979
-46.372
-45.429
-44.138
-42.497
-40.527
-38.242
-35.702
-33.048
-30.43
-28.005
-25.93
-24.307
-23.301
-23.198
-24.175
-26.244
-29.221
-32.646
-36.08
-39.299
-41.958
-43.514
-43.685
-42.556
-40.826
-39.96
-41.229
-45.379
-53.202
-65.489
-82.444
-102.522
-122.203
-137.163
-143.893
-142.27
-133.722
-116.78
-87.665
-39.939
32.502
128.512
241.968
363.999
484.079
594.85
689.21
758.318
794.569
789.671
739.325
646.501
516.041
358.975
190.894
27.01
-114.451
-218.665
-278.413
-292.905
-267.28
-211.79
-140.669
-67.752
-8.233
26.72
36.297
24.089
-1.389
-30.287
-58.031
-80.688
-94.33
-97.738
-90.229
-74.19
-56.493
-42.338
-34.513
-33.267
-34.73
-35.845
-35.819
-34.795
-34.37
-35.655
-38.371
-41.942
-45.839
-49.742
-53.653
-57.615
-61.509
-65.17
-68.504
-71.457
-73.977
-76.043
-77.633
-78.721
-79.325
-79.476
-79.201
-78.545
-77.562
-76.303
-74.832
-73.216
-71.503
-69.727
-67.914
-66.078
-64.226
-62.359
-60.464
-58.521
-56.511
-54.421
-52.236
-49.946
-47.533
-44.979
-42.269
-39.384
-36.313
-33.048
-29.583
-25.914
-22.041
-17.965
-13.695
-9.24
-4.611
0.185
5.139
10.24
15.476
20.833
26.295
31.848
37.474
43.152
48.861
54.576
60.275
65.933
71.526
77.029
82.416
87.663
92.744
97.636
102.313
106.753
110.933
114.829
118.42
121.688
124.615
127.183
129.377
131.186
132.597
133.603
134.195
134.371
134.127
133.463
132.382
130.887
128.987
126.689
124.006
120.952
117.541
113.794
109.727
105.364
100.727
95.839
90.724
85.41
79.92
74.283
68.525
62.673
56.755
50.797
44.826
38.87
32.953
27.1
21.335
15.681
10.159
4.79
-0.408
-5.417
-10.223
-14.811
-19.17
-23.289
-27.161
-30.778
-34.136
-37.232
-40.066
-42.636
-44.947
-47
-48.801
-50.355
-51.669
-52.752
-53.611
-54.257
-54.699
-54.948
-55.015
-54.912
-54.649
-54.239
-53.694
-53.024
-52.241
-51.357
-50.382
-49.327
-48.201
-47.014
-45.774
-44.489
-43.166
-41.813
-40.433
-39.033
-37.615
-36.185
-34.743
-33.292
-31.834
-30.369
-28.897
-27.418
-25.931
-24.437
-22.934
-21.42
-19.896
-18.361
-16.812
-15.252
-13.678
-12.091
-10.491
-8.88
-7.258
-5.628
-3.99
-2.349
-0.707
0.933
2.566
4.187
5.792
7.374
8.927
10.445
11.921
13.348
14.719
16.025
17.258
18.41
19.473
20.439
21.299
22.044
22.666
23.159
23.514
23.725
23.786
23.691
23.435
23.015
22.427
21.668
20.736
19.632
18.354
16.906
15.288
13.503
11.558
9.455
7.202
4.806
2.274
-0.384
-3.161
-6.045
-9.027
-12.094
-15.235
-18.436
-21.685
-24.967
-28.267
-31.57
-34.86
-38.121
-41.34
-44.5
-47.586
-50.582
-53.474
-56.248
-58.889
-61.385
-63.721
-65.886
-67.867
-69.656
-71.242
-72.618
-73.776
-74.71
-75.416
-75.893
-76.136
-76.146
-75.923
-75.467
-74.783
-73.875
-72.749
-71.412
-69.874
-68.146
-66.246
-64.189
-61.992
-59.674
-57.253
-54.75
-52.184
-49.575
-46.938
-44.287
-41.642
-39.023
-36.452
-33.95
-31.536
-29.227
-27.044
-25.005
-23.128
-21.421
-19.886
-18.528
-17.357
-16.392
-15.66
-15.179
-14.958
-15.002
-15.312
-15.879
-16.694
-17.72
-18.903
-20.194
-21.55
-22.942
-24.358
-25.764
-27.114
-28.358
-29.436
-30.307
-30.942
-31.31
-31.4
-31.241
-30.884
-30.416
-29.942
-29.553
-29.349
-29.435
-29.893
-30.811
-32.248
-34.29
-37.127
-40.838
-45.348
-50.474
-55.793
-60.837
-65.305
-68.742
-70.45
-70.07
-67.682
-63.718
-59.28
-55.56
-53.273
-53.267
-56.792
-63.556
-71.391
-78.031
-80.223
-77.322
-72.658
-66.207
-54.68
-30.76
16.514
91.063
189.009
301.455
416.457
527.274
630.231
719.641
787.923
821.744
808.123
742.785
628.474
478.095
311.485
147.997
6.55
-99.582
-165.168
-192.251
-188.946
-164.666
-129.37
-91.493
-58.661
-37.84
-31.103
-35.93
-45.144
-51.484
-52.159
-47.976
-43.148
-40.463
-39.406
-38.63
-36.183
-31.362
-25.041
-18.098
-11.278
-5.212
-0.313
3.195
5.223
5.919
5.588
4.454
2.671
0.425
-2.067
-4.592
-6.919
-8.901
-10.477
-11.588
-12.186
-12.246
-11.748
-10.704
-9.167
-7.19
-4.825
-2.124
0.872
4.108
7.515
11.016
14.526
17.978
21.33
24.551
27.622
30.529
33.265
35.838
38.269
40.581
42.788
44.903
46.931
48.886
50.785
52.647
54.492
56.334
58.184
60.053
61.951
63.886
65.862
67.88
69.938
72.032
74.165
76.336
78.546
80.792
83.071
85.38
87.713
90.065
92.429
94.795
97.152
99.488
101.792
104.052
106.254
108.383
110.426
112.368
114.192
115.884
117.429
118.809
120.01
121.015
121.81
122.38
122.712
122.792
122.609
122.152
121.412
120.381
119.053
117.425
115.491
113.253
110.709
107.863
104.718
101.279
97.553
93.549
89.277
84.748
79.975
74.972
69.753
64.335
58.734
52.968
47.055
41.013
34.862
28.621
22.31
15.949
9.558
3.157
-3.233
-9.594
-15.905
-22.148
-28.306
-34.361
-40.296
-46.097
-51.748
-57.238
-62.553
-67.683
-72.617
-77.346
-81.862
-86.158
-90.228
-94.067
-97.671
-101.036
-104.16
-107.042
-109.682
-112.079
-114.235
-116.15
-117.827
-119.268
-120.476
-121.455
-122.211
-122.746
-123.068
-123.183
-123.096
-122.814
-122.345
-121.697
-120.876
-119.89
-118.749
-117.459
-116.029
-114.468
-112.784
-110.987
-109.085
-107.088
-105.005
-102.845
-100.616
-98.328
-95.989
-93.608
-91.195
-88.757
-86.302
-83.841
-81.38
-78.927
-76.491
-74.079
-71.697
-69.352
-67.051
-64.797
-62.597
-60.454
-58.372
-56.354
-54.404
-52.522
-50.711
-48.971
-47.301
-45.703
-44.173
-42.711
-41.314
-39.979
-38.702
-37.481
-36.309
-35.185
-34.103
-33.058
-32.046
-31.063
-30.103
-29.163
-28.237
-27.322
-26.414
-25.509
-24.606
-23.702
-22.795
-21.886
-20.975
-20.061
-19.148
-18.238
-17.332
-16.435
-15.551
-14.685
-13.843
-13.03
-12.252
-11.516
-10.831
-10.202
-9.64
-9.15
-8.74
-8.417
-8.19
-8.064
-8.046
-8.141
-8.353
-8.687
-9.147
-9.735
-10.453
-11.3
-12.277
-13.381
-14.609
-15.955
-17.414
-18.977
-20.635
-22.379
-24.197
-26.078
-28.01
-29.978
-31.969
-33.971
-35.969
-37.948
-39.894
-41.791
-43.627
-45.389
-47.064
-48.641
-50.109
-51.459
-52.686
-53.786
-54.758
-55.597
-56.302
-56.872
-57.314
-57.632
-57.835
-57.922
-57.899
-57.773
-57.557
-57.266
-56.914
-56.507
-56.055
-55.569
-55.067
-54.568
-54.086
-53.622
-53.177
-52.753
-52.364
-52.036
-51.787
-51.625
-51.552
-51.57
-51.681
-51.895
-52.204
-52.573
-52.969
-53.354
-53.696
-53.995
-54.246
-54.449
-54.603
-54.669
-54.594
-54.324
-53.807
-53.04
-52.072
-50.916
-49.537
-47.987
-46.443
-45.252
-44.791
-45.198
-46.305
-47.86
-49.871
-52.427
-55.294
-57.717
-58.658
-57.332
-53.728
-48.425
-41.537
-32.778
-22.351
-11.355
-1.641
4.79
6.918
4.983
-1.131
-12.339
-27.897
-44.676
-58.984
-66.252
-65.719
-61.924
-55.692
-43.892
-18.516
32.916
115.085
224.078
350.51
481.4
608.633
726.718
827.876
902.79
937.577
920.069
847.701
724.978
565.705
390.123
218.265
69.914
-40.808
-108.187
-135.746
-133.298
-109.593
-73.991
-32.46
9.234
39.768
53.427
48.925
30.513
10.731
-3.035
-8.611
-7.365
-5.326
-4.842
-5.267
-5.753
-4.385
-0.966
3.324
7.75
11.498
13.946
15.023
14.715
13.103
10.475
7.072
3.052
-1.444
-6.258
-11.254
-16.279
-21.147
-25.735
-29.955
-33.723
-36.997
-39.75
-41.957
-43.623
-44.788
-45.496
-45.797
-45.735
-45.336
-44.637
-43.691
-42.56
-41.323
-40.035
-38.73
-37.431
-36.15
-34.893
-33.66
-32.438
-31.195
-29.902
-28.539
-27.088
-25.539
-23.879
-22.087
-20.142
-18.025
-15.723
-13.227
-10.528
-7.621
-4.501
-1.169
2.37
6.105
10.028
14.133
18.411
22.854
27.451
32.19
37.058
42.044
47.13
52.3
57.534
62.811
68.109
73.404
78.675
83.895
89.041
94.085
99.004
103.771
108.363
112.754
116.921
120.84
124.491
127.854
130.911
133.646
136.044
138.093
139.783
141.107
142.059
142.635
142.835
142.659
142.11
141.193
139.915
138.285
136.313
134.014
131.401
128.493
125.308
121.866
118.189
114.301
110.226
105.989
101.616
97.134
92.568
87.946
83.293
78.637
74.001
69.411
64.889
60.457
56.135
51.942
47.896
44.011
40.3
36.775
33.446
30.321
27.407
24.706
22.223
19.959
17.912
16.081
14.461
13.046
11.83
10.805
9.959
9.282
8.762
8.385
8.137
8.003
7.967
8.014
8.128
8.292
8.49
8.707
8.927
9.135
9.319
9.464
9.559
9.593
9.556
9.439
9.235
8.937
8.541
8.04
7.434
6.718
5.893
4.958
3.914
2.763
1.507
0.15
-1.303
-2.848
-4.479
-6.189
-7.972
-9.819
-11.724
-13.677
-15.671
-17.696
-19.744
-21.805
-23.872
-25.936
-27.988
-30.022
-32.03
-34.005
-35.941
-37.833
-39.677
-41.467
-43.202
-44.877
-46.491
-48.043
-49.532
-50.957
-52.318
-53.617
-54.854
-56.032
-57.15
-58.213
-59.222
-60.181
-61.091
-61.957
-62.781
-63.569
-64.323
-65.048
-65.749
-66.43
-67.096
-67.752
-68.402
-69.052
-69.706
-70.368
-71.044
-71.737
-72.451
-73.189
-73.955
-74.751
-75.58
-76.442
-77.338
-78.27
-79.237
-80.24
-81.276
-82.346
-83.448
-84.579
-85.74
-86.926
-88.136
-89.367
-90.614
-91.875
-93.146
-94.421
-95.695
-96.962
-98.216
-99.451
-100.659
-101.834
-102.967
-104.051
-105.076
-106.035
-106.918
-107.718
-108.425
-109.032
-109.53
-109.913
-110.176
-110.312
-110.315
-110.182
-109.91
-109.495
-108.937
-108.235
-107.387
-106.395
-105.262
-103.99
-102.585
-101.052
-99.398
-97.635
-95.774
-93.83
-91.817
-89.75
-87.646
-85.524
-83.4
-81.291
-79.213
-77.184
-75.221
-73.348
-71.588
-69.962
-68.492
-67.196
-66.095
-65.207
-64.55
-64.127
-63.946
-64.017
-64.354
-64.986
-65.94
-67.226
-68.853
-70.826
-73.134
-75.768
-78.7
-81.879
-85.253
-88.777
-92.413
-96.145
-99.951
-103.786
-107.591
-111.293
-114.823
-118.145
-121.224
-124.023
-126.551
-128.849
-130.999
-133.137
-135.363
-137.758
-140.42
-143.439
-146.899
-150.912
-155.551
-160.928
-167.273
-174.666
-183.002
-192.052
-201.295
-210.168
-218.245
-224.91
-229.36
-231.208
-230.587
-228.072
-224.929
-222.469
-221.601
-223.351
-228.874
-237.696
-247.425
-255.363
-258.661
-257.054
-252.439
-243.61
-224.725
-186.122
-119.876
-25.24
89.911
212.419
332.999
448.034
556.304
655.402
736.188
782.586
779.339
719.209
603.542
446.038
269.431
95.535
-53.348
-162.336
-229.242
-257.525
-259.226
-247.282
-229.372
-212.339
-197.936
-187.196
-181.385
-177.927
-175.358
-171.794
-166.448
-162.338
-160.996
-162.706
-166.467
-169.087
-168.938
-166.091
-161.064
-154.988
-148.656
-142.384
-136.699
-132.248
-129.364
-128.1
-128.312
-129.692
-131.976
-134.997
-138.555
-142.408
-146.364
-150.227
-153.79
-156.933
-159.561
-161.596
-163.009
-163.766
-163.835
-163.23
-162.001
-160.202
-157.893
-155.121
-151.917
-148.33
-144.426
-140.28
-135.979
-131.581
-127.123
-122.63
-118.122
-113.612
-109.111
-104.612
-100.091
-95.532
-90.926
-86.27
-81.571
-76.823
-72.019
-67.152
-62.218
-57.217
-52.154
-47.032
-41.856
-36.634
-31.377
-26.099
-20.819
-15.551
-10.305
-5.096
0.066
5.17
10.201
15.15
20.006
24.756
29.389
33.892
38.252
42.457
46.496
50.359
54.035
57.513
60.786
63.844
66.68
69.289
71.662
73.795
75.683
77.324
78.716
79.858
80.749
81.39
81.782
81.93
81.835
81.504
80.939
80.147
79.134
77.907
76.474
74.842
73.018
71.012
68.832
66.488
63.989
61.344
58.562
55.652
52.625
49.489
46.254
42.928
39.519
36.035
32.485
28.876
25.215
21.507
17.759
13.976
10.165
6.329
2.473
-1.398
-5.281
-9.171
-13.065
-16.959
-20.849
-24.733
-28.606
-32.465
-36.307
-40.127
-43.921
-47.686
-51.417
-55.109
-58.758
-62.359
-65.907
-69.397
-72.823
-76.179
-79.462
-82.663
-85.777
-88.799
-91.721
-94.537
-97.241
-99.826
-102.287
-104.616
-106.809
-108.86
-110.763
-112.513
-114.107
-115.541
-116.81
-117.912
-118.844
-119.605
-120.195
-120.612
-120.857
-120.932
-120.839
-120.579
-120.156
-119.574
-118.838
-117.952
-116.923
-115.757
-114.46
-113.04
-111.504
-109.862
-108.122
-106.292
-104.382
-102.401
-100.358
-98.263
-96.124
-93.951
-91.752
-89.535
-87.309
-85.082
-82.861
-80.652
-78.463
-76.299
-74.166
-72.069
-70.011
-67.997
-66.03
-64.112
-62.246
-60.433
-58.675
-56.972
-55.324
-53.731
-52.192
-50.707
-49.274
-47.891
-46.556
-45.267
-44.022
-42.82
-41.658
-40.535
-39.449
-38.399
-37.384
-36.402
-35.453
-34.536
-33.652
-32.801
-31.982
-31.196
-30.444
-29.728
-29.047
-28.404
-27.798
-27.231
-26.704
-26.219
-25.774
-25.372
-25.013
-24.697
-24.425
-24.197
-24.013
-23.872
-23.773
-23.716
-23.697
-23.714
-23.763
-23.839
-23.938
-24.054
-24.182
-24.314
-24.444
-24.563
-24.664
-24.738
-24.777
-24.771
-24.711
-24.588
-24.393
-24.118
-23.755
-23.296
-22.733
-22.062
-21.275
-20.37
-19.341
-18.185
-16.899
-15.481
-13.933
-12.253
-10.445
-8.511
-6.458
-4.295
-2.033
0.315
2.738
5.22
7.747
10.301
12.868
15.434
17.985
20.506
22.981
25.389
27.712
29.934
32.039
34.013
35.843
37.512
39.014
40.348
41.511
42.496
43.291
43.869
44.212
44.316
44.174
43.79
43.172
42.327
41.286
40.094
38.798
37.442
36.061
34.669
33.307
32.026
30.889
29.981
29.36
29.064
29.134
29.592
30.429
31.622
33.103
34.773
36.553
38.347
40.049
41.57
42.797
43.636
43.965
43.578
42.371
40.391
37.841
35.142
32.752
31.006
30.34
31.35
34.388
39.442
45.896
52.592
58.467
62.657
64.384
62.867
57.419
48.943
40.582
35.756
38.01
48.899
66.102
89.297
120.367
162.358
223.042
307.929
416.564
546.156
687.395
827.201
954.193
1055.117
1117.657
1131.596
1088.264
986.965
834.695
647.837
451.835
271.186
128.459
38.613
1.756
11.262
53.05
107.715
161.158
200.512
217.775
215.076
197.626
175.549
159.443
152.125
152.975
157.907
161.611
163.569
164.897
166.924
171.43
178.155
185.918
194.022
201.581
207.914
212.914
216.506
218.723
219.833
220.019
219.408
218.184
216.529
214.624
212.652
210.783
209.183
207.991
207.316
207.244
207.82
209.057
210.962
213.515
216.661
220.358
224.552
229.191
234.24
239.64
245.321
251.209
257.221
263.295
269.395
275.492
281.569
287.621
293.649
299.666
305.7
311.771
317.891
324.069
330.307
336.614
343
349.478
356.055
362.738
369.528
376.424
383.426
390.528
397.721
404.992
412.324
419.702
427.111
434.537
441.967
449.384
456.771
464.112
471.389
478.584
485.677
492.645
499.464
506.109
512.558
518.787
524.774
530.496
535.934
541.072
545.895
550.391
554.549
558.357
561.806
564.885
567.589
569.909
571.838
573.371
574.505
575.245
575.599
575.579
575.198
574.471
573.415
572.049
570.398
568.478
566.301
563.881
561.234
558.385
555.371
552.219
548.944
545.56
542.076
538.499
534.834
531.059
527.133
523.013
518.659
514.053
509.21
504.133
498.825
493.29
487.523
481.55
475.439
469.231
462.954
456.641
450.312
444.044
437.975
432.21
426.836
421.901
417.39
413.309
409.665
406.408
403.455
400.658
397.784
394.652
391.123
387.032
382.255
376.598
369.791
361.636
351.978
340.685
327.691
312.899
296.197
277.604
257.221
235.235
211.955
187.638
162.503
136.825
110.837
84.795
59.022
33.745
9.14
-14.593
-37.289
-58.749
-78.732
-97.138
-113.961
-129.249
-143.168
-155.862
-167.459
-178.164
-188.149
-197.556
-206.549
-215.214
-223.592
-231.771
-239.835
-247.884
-256.069
-264.462
-273.078
-281.92
-290.924
-300.016
-309.121
-318.103
-326.843
-335.271
-343.326
-350.993
-358.289
-365.201
-371.717
-377.834
-383.514
-388.742
-393.52
-397.841
-401.722
-405.201
-408.32
-411.152
-413.768
-416.212
-418.517
-420.704
-422.779
-424.754
-426.638
-428.428
-430.132
-431.761
-433.327
-434.848
-436.34
-437.809
-439.259
-440.688
-442.091
-443.468
-444.82
-446.149
-447.458
-448.753
-450.041
-451.333
-452.64
-453.968
-455.321
-456.701
-458.11
-459.547
-461.013
-462.505
-464.021
-465.558
-467.114
-468.688
-470.276
-471.875
-473.479
-475.082
-476.676
-478.253
-479.804
-481.317
-482.781
-484.182
-485.509
-486.747
-487.884
-488.906
-489.799
-490.548
-491.138
-491.555
-491.783
-491.808
-491.613
-491.185
-490.509
-489.572
-488.364
-486.875
-485.097
-483.021
-480.642
-477.955
-474.958
-471.648
-468.025
-464.09
-459.845
-455.295
-450.447
-445.309
-439.892
-434.21
-428.278
-422.117
-415.746
-409.19
-402.472
-395.617
-388.651
-381.603
-374.497
-367.359
-360.215
-353.09
-346.014
-339.018
-332.131
-325.382
-318.797
-312.401
-306.22
-300.278
-294.592
-289.172
-284.03
-279.182
-274.651
-270.473
-266.67
-263.256
-260.238
-257.617
-255.386
-253.533
-252.026
-250.81
-249.831
-249.043
-248.413
-247.924
-247.543
-247.214
-246.873
-246.437
-245.851
-245.087
-244.111
-242.904
-241.479
-239.874
-238.173
-236.506
-234.98
-233.692
-232.741
-232.205
-232.183
-232.783
-234.134
-236.42
-239.72
-243.952
-248.908
-254.201
-259.377
-264.054
-267.739
-269.722
-269.563
-267.31
-263.463
-259.085
-255.275
-252.645
-251.734
-253.352
-257.889
-264.739
-272.226
-277.551
-277.651
-270.161
-252.881
-223.105
-178.232
-117.825
-44.35
38.176
124.792
213.375
305.485
400.603
494.805
579.169
639.379
661.479
636.787
564.083
448.377
302.396
144.122
-9.543
-139.674
-231.923
-283.564
-296.082
-279.007
-247.712
-213.104
-186.332
-174.667
-177.144
-190.249
-206.251
-217.967
-223.717
-224.583
-224.465
-226.035
-228.596
-230.623
-230.09
-226.143
-219.566
-211.395
-202.617
-194.061
-186.33
-179.763
-174.555
-170.734
-168.127
-166.59
-166.021
-166.253
-167.109
-168.455
-170.129
-172.002
-173.951
-175.762
-177.257
-178.326
-178.875
-178.875
-178.312
-177.159
-175.428
-173.17
-170.433
-167.269
-163.722
-159.814
-155.596
-151.13
-146.492
-141.769
-137.024
-132.292
-127.602
-122.967
-118.39
-113.873
-109.398
-104.932
-100.452
-95.941
-91.387
-86.786
-82.127
-77.392
-72.568
-67.641
-62.602
-57.447
-52.17
-46.769
-41.247
-35.608
-29.863
-24.025
-18.105
-12.113
-6.061
0.042
6.181
12.344
18.517
24.685
30.831
36.938
42.985
48.951
54.815
60.556
66.152
71.582
76.823
81.856
86.661
91.218
95.509
99.517
103.227
106.622
109.692
112.424
114.81
116.84
118.508
119.812
120.748
121.316
121.517
121.354
120.832
119.958
118.738
117.183
115.302
113.109
110.616
107.838
104.792
101.495
97.965
94.222
90.284
86.172
81.906
77.506
72.992
68.383
63.698
58.956
54.174
49.371
44.562
39.762
34.985
30.245
25.554
20.922
16.359
11.874
7.475
3.168
-1.041
-5.147
-9.146
-13.034
-16.808
-20.467
-24.009
-27.433
-30.738
-33.924
-36.993
-39.944
-42.779
-45.499
-48.105
-50.598
-52.981
-55.254
-57.419
-59.477
-61.429
-63.275
-65.016
-66.652
-68.183
-69.608
-70.928
-72.141
-73.246
-74.242
-75.129
-75.905
-76.569
-77.121
-77.561
-77.888
-78.102
-78.206
-78.199
-78.084
-77.862
-77.537
-77.111
-76.588
-75.973
-75.269
-74.481
-73.616
-72.678
-71.674
-70.609
-69.492
-68.328
-67.125
-65.891
-64.633
-63.36
-62.078
-60.796
-59.521
-58.26
-57.021
-55.81
-54.633
-53.496
-52.404
-51.36
-50.368
-49.431
-48.549
-47.723
-46.954
-46.239
-45.577
-44.964
-44.397
-43.871
-43.381
-42.921
-42.484
-42.065
-41.654
-41.245
-40.83
-40.4
-39.946
-39.46
-38.933
-38.356
-37.722
-37.022
-36.248
-35.395
-34.456
-33.425
-32.299
-31.073
-29.746
-28.315
-26.781
-25.144
-23.408
-21.575
-19.65
-17.638
-15.547
-13.385
-11.159
-8.88
-6.558
-4.202
-1.824
0.565
2.952
5.326
7.674
9.985
12.246
14.443
16.566
18.603
20.543
22.376
24.093
25.685
27.145
28.469
29.652
30.69
31.583
32.328
32.929
33.387
33.708
33.897
33.961
33.909
33.751
33.499
33.163
32.758
32.294
31.786
31.248
30.695
30.141
29.598
29.082
28.605
28.182
27.828
27.553
27.369
27.287
27.317
27.466
27.742
28.146
28.679
29.34
30.129
31.04
32.071
33.211
34.455
35.797
37.229
38.742
40.327
41.967
43.645
45.348
47.061
48.767
50.452
52.096
53.687
55.221
56.691
58.088
59.394
60.583
61.631
62.529
63.266
63.833
64.233
64.469
64.564
64.56
64.5
64.421
64.351
64.302
64.297
64.379
64.598
65.013
65.669
66.582
67.782
69.301
71.124
73.209
75.464
77.758
80.009
82.146
84.076
85.71
86.94
87.652
87.788
87.261
85.892
83.63
80.551
76.83
72.932
69.345
66.409
64.646
64.745
67.031
71.424
77.528
84.304
90.646
95.921
99.232
99.205
96.173
92.408
90.131
92.668
100.313
109
118.728
132.918
159.296
209.872
288.876
392.401
511.699
634.663
754.183
865.674
961.928
1033.513
1065.413
1044.281
966.683
836.324
668.637
486.989
312.107
165.565
62.594
5.437
-8.154
10.836
45.729
85.125
117.35
135.283
140.338
135.12
126.515
121.317
120.402
122.237
122.943
119.557
112.768
104.968
98.794
95.348
94.226
94.543
95.351
96.125
96.459
95.785
93.817
90.561
86.164
80.929
75.09
68.784
62.222
55.661
49.328
43.428
38.09
33.366
29.316
25.99
23.413
21.6
20.536
20.174
20.464
21.358
22.807
24.771
27.196
30.015
33.153
36.528
40.076
43.753
47.526
51.369
55.263
59.193
63.157
67.167
71.233
75.358
79.543
83.782
88.076
92.428
96.844
101.329
105.883
110.505
115.19
119.935
124.733
129.577
134.455
139.35
144.25
149.144
154.019
158.865
163.67
168.419
173.099
177.696
182.196
186.583
190.838
194.944
198.882
202.634
206.183
209.51
212.597
215.426
217.978
220.238
222.188
223.813
225.096
226.023
226.581
226.757
226.542
225.926
224.901
223.462
221.605
219.33
216.635
213.523
209.998
206.066
201.736
197.018
191.924
186.467
180.665
174.535
168.097
161.371
154.381
147.15
139.702
132.064
124.262
116.323
108.274
100.144
91.96
83.75
75.543
67.366
59.245
51.208
43.278
35.481
27.839
20.373
13.105
6.051
-0.77
-7.343
-13.656
-19.696
-25.454
-30.923
-36.096
-40.97
-45.542
-49.813
-53.782
-57.454
-60.832
-63.923
-66.733
-69.271
-71.547
-73.572
-75.358
-76.917
-78.264
-79.414
-80.381
-81.182
-81.832
-82.347
-82.745
-83.041
-83.252
-83.394
-83.483
-83.534
-83.563
-83.583
-83.608
-83.652
-83.725
-83.84
-84.007
-84.234
-84.531
-84.906
-85.365
-85.915
-86.561
-87.307
-88.156
-89.112
-90.175
-91.348
-92.629
-94.017
-95.512
-97.109
-98.807
-100.6
-102.485
-104.455
-106.504
-108.626
-110.814
-113.06
-115.357
-117.695
-120.068
-122.465
-124.879
-127.3
-129.72
-132.13
-134.521
-136.883
-139.209
-141.489
-143.715
-145.877
-147.968
-149.979
-151.902
-153.73
-155.454
-157.069
-158.567
-159.944
-161.193
-162.31
-163.291
-164.134
-164.834
-165.391
-165.804
-166.071
-166.194
-166.173
-166.01
-165.706
-165.265
-164.689
-163.983
-163.151
-162.197
-161.126
-159.946
-158.662
-157.28
-155.808
-154.254
-152.625
-150.931
-149.179
-147.378
-145.537
-143.666
-141.773
-139.866
-137.955
-136.047
-134.15
-132.27
-130.414
-128.588
-126.796
-125.042
-123.33
-121.662
-120.04
-118.466
-116.941
-115.464
-114.033
-112.648
-111.307
-110.005
-108.739
-107.502
-106.289
-105.094
-103.911
-102.731
-101.546
-100.346
-99.123
-97.867
-96.568
-95.215
-93.798
-92.306
-90.728
-89.056
-87.28
-85.392
-83.383
-81.248
-78.979
-76.575
-74.031
-71.344
-68.514
-65.54
-62.423
-59.167
-55.775
-52.251
-48.602
-44.838
-40.972
-37.02
-32.994
-28.913
-24.792
-20.651
-16.511
-12.389
-8.299
-4.258
-0.282
3.609
7.39
11.042
14.545
17.883
21.035
23.982
26.708
29.202
31.464
33.489
35.268
36.784
38.007
38.918
39.51
39.777
39.719
39.343
38.661
37.706
36.533
35.195
33.735
32.184
30.564
28.913
27.293
25.77
24.419
23.294
22.436
21.889
21.669
21.758
22.104
22.619
23.205
23.782
24.255
24.523
24.493
24.052
23.12
21.588
19.227
15.943
11.801
6.977
1.943
-2.763
-6.789
-9.63
-10.548
-9.25
-5.908
-1.045
4.026
7.904
9.733
8.523
2.926
-6.699
-17.859
-27.771
-32.327
-29.595
-22.763
-13.015
1.507
25.363
69.963
144.476
250.334
384.867
535.973
687.24
823.714
928.501
990.79
1003.673
962.934
872.772
737.379
567.106
381.136
198.039
41.351
-69.869
-132.526
-150.061
-134.334
-103.252
-66.044
-30.706
-6.085
7.263
8.417
-0.117
-8.649
-13.428
-14.484
-14.14
-18.627
-29.756
-45.183
-62.135
-77.47
-89.992
-99.951
-107.139
-111.593
-113.708
-114.271
-114.548
-115.32
-116.774
-118.999
-122.128
-126.277
-131.422
-137.214
-142.99
-148.267
-152.84
-156.604
-159.544
-161.624
-162.765
-162.975
-162.352
-160.982
-158.921
-156.207
-152.835
-148.823
-144.238
-139.158
-133.685
-127.926
-121.961
-115.851
-109.654
-103.411
-97.164
-90.947
-84.781
-78.672
-72.632
-66.673
-60.816
-55.081
-49.477
-44.007
-38.665
-33.442
-28.337
-23.35
-18.483
-13.735
-9.104
-4.59
-0.197
4.071
8.212
12.23
16.13
19.919
23.603
27.188
30.679
34.085
37.411
40.664
43.849
46.967
50.022
53.017
55.952
58.83
61.648
64.405
67.096
69.718
72.264
74.728
77.1
79.37
81.528
83.562
85.461
87.213
88.804
90.222
91.453
92.485
93.306
93.902
94.261
94.372
94.222
93.802
93.101
92.11
90.821
89.23
87.329
85.118
82.593
79.755
76.607
73.152
69.396
65.347
61.015
56.411
51.55
46.447
41.118
35.585
29.866
23.984
17.962
11.824
5.595
-0.7
-7.035
-13.383
-19.717
-26.011
-32.238
-38.371
-44.384
-50.251
-55.949
-61.451
-66.736
-71.78
-76.564
-81.067
-85.272
-89.162
-92.722
-95.94
-98.805
-101.309
-103.444
-105.208
-106.596
-107.61
-108.252
-108.526
-108.437
-107.995
-107.209
-106.09
-104.652
-102.911
-100.881
-98.581
-96.029
-93.246
-90.251
-87.067
-83.715
-80.218
-76.599
-72.881
-69.089
-65.245
-61.373
-57.498
-53.641
-49.826
-46.074
-42.408
-38.847
-35.411
-32.119
-28.988
-26.033
-23.271
-20.714
-18.373
-16.261
-14.386
-12.756
-11.376
-10.253
-9.388
-8.785
-8.443
-8.361
-8.537
-8.967
-9.645
-10.567
-11.722
-13.104
-14.7
-16.501
-18.493
-20.664
-22.997
-25.478
-28.09
-30.816
-33.639
-36.539
-39.498
-42.498
-45.518
-48.539
-51.544
-54.511
-57.422
-60.26
-63.005
-65.641
-68.151
-70.518
-72.729
-74.767
-76.621
-78.279
-79.729
-80.964
-81.975
-82.755
-83.301
-83.609
-83.678
-83.508
-83.101
-82.461
-81.593
-80.506
-79.208
-77.709
-76.024
-74.166
-72.15
-69.994
-67.715
-65.332
-62.866
-60.336
-57.764
-55.171
-52.58
-50.011
-47.488
-45.033
-42.666
-40.409
-38.282
-36.304
-34.492
-32.862
-31.43
-30.208
-29.207
-28.436
-27.904
-27.615
-27.574
-27.781
-28.237
-28.936
-29.875
-31.044
-32.434
-34.033
-35.826
-37.797
-39.93
-42.207
-44.607
-47.111
-49.695
-52.339
-55.02
-57.713
-60.398
-63.049
-65.645
-68.163
-70.584
-72.888
-75.059
-77.08
-78.941
-80.63
-82.143
-83.472
-84.616
-85.575
-86.348
-86.941
-87.359
-87.607
-87.693
-87.629
-87.425
-87.101
-86.674
-86.164
-85.594
-84.985
-84.358
-83.739
-83.149
-82.599
-82.107
-81.691
-81.373
-81.189
-81.168
-81.329
-81.689
-82.26
-83.045
-84.038
-85.214
-86.524
-87.924
-89.371
-90.833
-92.298
-93.742
-95.129
-96.41
-97.526
-98.427
-99.088
-99.483
-99.575
-99.364
-98.896
-98.267
-97.641
-97.15
-96.873
-96.888
-97.26
-98.061
-99.394
-101.335
-103.917
-107.216
-111.351
-116.33
-122.11
-128.464
-134.847
-140.657
-145.325
-148.144
-148.393
-145.779
-140.242
-132.029
-122.335
-112.453
-103.317
-96.493
-92.626
-90.214
-87.969
-84.241
-77.959
-71.761
-66.708
-59.335
-42.902
-6.054
60.422
156.968
278.325
414.168
551.461
681.741
796.222
884.163
938.829
950.463
912.274
826.457
694.849
528.571
347.612
170.272
19.3
-88.562
-152.01
-174.668
-167.056
-144.204
-113.393
-82.608
-61.697
-53.078
-58.895
-76.264
-94.244
-107.406
-113.813
-114.173
-114.487
-117.117
-120.798
-124.318
-125.439
-123.506
-119.748
-115.106
-110.335
-106.111
-102.83
-100.718
-99.89
-100.245
-101.501
-103.446
-105.937
-108.802
-111.864
-114.954
-117.891
-120.509
-122.663
-124.237
-125.145
-125.337
-124.798
-123.527
-121.539
-118.887
-115.641
-111.874
-107.657
-103.05
-98.106
-92.896
-87.501
-82.009
-76.513
-71.076
-65.742
-60.543
-55.498
-50.615
-45.895
-41.319
-36.856
-32.481
-28.175
-23.919
-19.699
-15.493
-11.272
-7.01
-2.681
1.742
6.278
10.951
15.78
20.781
25.967
31.347
36.928
42.715
48.716
54.937
61.38
68.048
74.94
82.051
89.377
96.909
104.633
112.534
120.593
128.788
137.095
145.489
153.938
162.414
170.883
179.31
187.66
195.895
203.978
211.87
219.531
226.925
234.012
240.755
247.119
253.068
258.571
263.595
268.113
272.099
275.53
278.384
280.646
282.3
283.336
283.747
283.527
282.678
281.203
279.107
276.403
273.104
269.227
264.792
259.825
254.351
248.4
242.004
235.195
228.011
220.489
212.668
204.588
196.29
187.814
179.204
170.5
161.743
152.974
144.231
135.555
126.981
118.545
110.28
102.219
94.391
86.823
79.54
72.565
65.917
59.614
53.671
48.099
42.907
38.103
33.689
29.667
26.036
22.791
19.927
17.436
15.306
13.525
12.08
10.954
10.132
9.593
9.321
9.294
9.493
9.895
10.48
11.226
12.113
13.117
14.22
15.399
16.636
17.912
19.208
20.507
21.792
23.049
24.262
25.421
26.511
27.524
28.45
29.28
30.009
30.63
31.14
31.536
31.815
31.978
32.023
31.952
31.766
31.468
31.061
30.549
29.935
29.225
28.421
27.531
26.559
25.51
24.39
23.204
21.957
20.654
19.3
17.9
16.459
14.98
13.467
11.925
10.356
8.763
7.15
5.518
3.869
2.205
0.528
-1.162
-2.864
-4.578
-6.302
-8.037
-9.783
-11.539
-13.305
-15.082
-16.868
-18.663
-20.467
-22.279
-24.098
-25.923
-27.754
-29.588
-31.424
-33.262
-35.099
-36.933
-38.763
-40.587
-42.402
-44.207
-45.999
-47.776
-49.537
-51.279
-53
-54.698
-56.371
-58.016
-59.63
-61.213
-62.761
-64.272
-65.744
-67.175
-68.563
-69.907
-71.205
-72.457
-73.662
-74.819
-75.927
-76.986
-77.997
-78.958
-79.868
-80.727
-81.534
-82.288
-82.987
-83.631
-84.217
-84.744
-85.209
-85.61
-85.945
-86.21
-86.402
-86.517
-86.552
-86.503
-86.368
-86.142
-85.823
-85.409
-84.895
-84.281
-83.564
-82.743
-81.814
-80.776
-79.628
-78.367
-76.994
-75.508
-73.909
-72.201
-70.389
-68.48
-66.482
-64.404
-62.254
-60.045
-57.788
-55.491
-53.163
-50.812
-48.446
-46.08
-43.727
-41.4
-39.112
-36.876
-34.704
-32.609
-30.607
-28.702
-26.897
-25.198
-23.616
-22.171
-20.896
-19.82
-18.962
-18.339
-17.967
-17.856
-18.015
-18.428
-19.061
-19.876
-20.838
-21.92
-23.109
-24.371
-25.657
-26.907
-28.041
-28.996
-29.74
-30.244
-30.486
-30.478
-30.238
-29.813
-29.33
-28.913
-28.679
-28.758
-29.245
-30.228
-31.881
-34.462
-38.148
-43.008
-48.953
-55.655
-62.776
-70.018
-76.904
-82.775
-87.164
-89.859
-91.072
-91.827
-93.393
-96.86
-103.604
-114.3
-127.932
-142.956
-157.132
-169.381
-181.488
-194.76
-208.279
-214.816
-201.631
-157.665
-76.006
39.597
177.451
326.131
473.969
612.971
735.063
827.709
877.047
869.832
800.973
674.989
505.975
316.733
130.288
-31.271
-150.625
-221.14
-243.556
-225.659
-182.33
-128.355
-77.969
-44.83
-33.13
-40.513
-59.605
-77.01
-86.186
-87.133
-82.615
-79.653
-80.786
-84.061
-87.727
-89.314
-88.095
-85.302
-81.804
-78.265
-75.383
-73.595
-73.115
-74.05
-76.265
-79.457
-83.449
-88.132
-93.307
-98.752
-104.224
-109.481
-114.388
-118.877
-122.868
-126.293
-129.09
-131.216
-132.68
-133.509
-133.73
-133.372
-132.459
-131.017
-129.093
-126.744
-124.039
-121.06
-117.863
-114.488
-110.97
-107.33
-103.582
-99.739
-95.793
-91.725
-87.524
-83.183
-78.697
-74.068
-69.293
-64.365
-59.277
-54.023
-48.598
-43.006
-37.248
-31.33
-25.259
-19.046
-12.705
-6.257
0.281
6.894
13.565
20.28
27.02
33.769
40.508
47.22
53.885
60.483
66.993
73.393
79.659
85.771
91.707
97.445
102.964
108.244
113.263
118.004
122.448
126.577
130.374
133.825
136.915
139.632
141.966
143.906
145.447
146.582
147.308
147.623
147.529
147.026
146.12
144.815
143.12
141.044
138.598
135.795
132.65
129.179
125.4
121.331
116.995
112.412
107.605
102.598
97.414
92.079
86.616
81.052
75.412
69.719
64
58.279
52.58
46.926
41.34
35.842
30.455
25.196
20.085
15.138
10.371
5.798
1.433
-2.713
-6.629
-10.309
-13.743
-16.927
-19.857
-22.531
-24.947
-27.106
-29.01
-30.661
-32.065
-33.227
-34.153
-34.852
-35.332
-35.603
-35.674
-35.558
-35.266
-34.81
-34.202
-33.455
-32.582
-31.597
-30.512
-29.341
-28.097
-26.792
-25.441
-24.054
-22.645
-21.226
-19.806
-18.398
-17.01
-15.653
-14.334
-13.061
-11.842
-10.681
-9.585
-8.559
-7.604
-6.726
-5.924
-5.202
-4.559
-3.995
-3.51
-3.101
-2.767
-2.506
-2.314
-2.187
-2.121
-2.112
-2.156
-2.246
-2.378
-2.544
-2.74
-2.96
-3.195
-3.442
-3.692
-3.94
-4.181
-4.407
-4.615
-4.799
-4.954
-5.076
-5.161
-5.207
-5.209
-5.165
-5.074
-4.934
-4.745
-4.504
-4.214
-3.873
-3.484
-3.047
-2.565
-2.041
-1.477
-0.876
-0.243
0.418
1.101
1.802
2.515
3.234
3.952
4.663
5.359
6.033
6.679
7.29
7.858
8.377
8.84
9.242
9.574
9.833
10.011
10.104
10.106
10.014
9.822
9.528
9.13
8.624
8.009
7.285
6.452
5.51
4.462
3.308
2.053
0.7
-0.745
-2.277
-3.888
-5.572
-7.319
-9.12
-10.964
-12.841
-14.738
-16.645
-18.55
-20.439
-22.301
-24.121
-25.886
-27.585
-29.202
-30.725
-32.14
-33.435
-34.596
-35.613
-36.475
-37.17
-37.691
-38.028
-38.176
-38.13
-37.884
-37.435
-36.781
-35.924
-34.864
-33.605
-32.152
-30.511
-28.692
-26.711
-24.581
-22.319
-19.942
-17.47
-14.921
-12.317
-9.675
-7.013
-4.347
-1.694
0.922
3.479
5.957
8.337
10.599
12.726
14.7
16.503
18.129
19.574
20.834
21.897
22.746
23.35
23.691
23.758
23.547
23.054
22.282
21.237
19.95
18.471
16.848
15.127
13.342
11.513
9.682
7.913
6.274
4.852
3.719
2.91
2.468
2.427
2.783
3.524
4.613
5.937
7.384
8.853
10.214
11.38
12.274
12.721
12.481
11.37
9.329
6.516
3.292
0.003
-3.054
-5.444
-6.548
-5.82
-3.12
1.072
5.745
9.648
11.704
10.947
6.047
-3.078
-14.686
-26.543
-35.347
-40.338
-44.159
-45.951
-42.077
-23.236
24.459
105.06
215.183
344.19
475.584
602.776
723.876
836.395
936.882
1012.495
1045.931
1024.767
945.032
812.25
642.245
456.219
274.018
115.898
-4.484
-83.979
-125.117
-139.284
-138.492
-129.96
-119.579
-108.003
-95.815
-84.422
-72.342
-59.287
-44.832
-29.89
-18.642
-13.933
-17.026
-27.229
-41.361
-57.391
-74.173
-90.365
-105.32
-118.171
-128.114
-135.207
-139.936
-142.601
-143.51
-143.388
-142.906
-142.746
-143.493
-145.333
-148.256
-152.602
-159.042
-167.612
-177.898
-189.18
-200.324
-210.496
-219.185
-225.383
-227.639
-225.247
-218.186
-207.14
-193.649
-178.873
-163.47
-148.467
-135.111
-124.154
-115.925
-110.05
-105.386
-101.172
-97.093
-92.742
-87.759
-81.905
-74.997
-67.216
-59.103
-50.986
-42.981
-35.155
-27.457
-19.89
-12.524
-5.353
1.697
8.653
15.515
22.246
28.763
35.021
41.012
46.734
52.199
57.416
62.378
67.088
71.545
75.751
79.711
83.428
86.908
90.158
93.187
96.006
98.632
101.076
103.348
105.453
107.389
109.158
110.763
112.206
113.492
114.622
115.599
116.423
117.097
117.623
118.002
118.234
118.317
118.248
118.026
117.647
117.109
116.409
115.543
114.509
113.303
111.926
110.377
108.656
106.76
104.689
102.442
100.017
97.411
94.62
91.638
88.462
85.092
81.528
77.768
73.817
69.676
65.353
60.856
56.191
51.362
46.37
41.218
35.907
30.441
24.822
19.054
13.142
7.095
0.929
-5.338
-11.692
-18.125
-24.633
-31.222
-37.891
-44.629
-51.426
-58.266
-65.119
-71.944
-78.682
-85.253
-91.594
-97.668
-103.447
-108.933
-114.131
-119.049
-123.7
-128.092
-132.23
-136.124
-139.782
-143.207
-146.443
-149.558
-152.658
-155.912
-159.457
-163.392
-167.788
-172.649
-177.927
-183.55
-189.402
-195.335
-201.226
-206.955
-212.404
-217.483
-222.07
-226.02
-229.152
-231.2
-231.92
-231.092
-228.545
-224.214
-218.133
-210.407
-201.212
-190.816
-179.467
-167.42
-154.954
-142.283
-129.619
-117.174
-105.173
-93.907
-83.691
-74.837
-67.602
-62.155
-58.556
-56.79
-56.775
-58.322
-61.228
-65.256
-70.132
-75.654
-81.665
-88.025
-94.609
-101.258
-107.775
-113.948
-119.61
-124.633
-128.946
-132.517
-135.343
-137.494
-139.073
-140.22
-141.108
-141.85
-142.511
-143.13
-143.729
-144.329
-144.976
-145.716
-146.567
-147.548
-148.666
-149.923
-151.322
-152.837
-154.415
-155.98
-157.446
-158.754
-159.866
-160.763
-161.43
-161.864
-162.056
-162.009
-161.738
-161.251
-160.552
-159.641
-158.515
-157.177
-155.642
-153.931
-152.065
-150.065
-147.946
-145.726
-143.418
-141.038
-138.596
-136.101
-133.557
-130.972
-128.356
-125.722
-123.082
-120.449
-117.834
-115.247
-112.702
-110.207
-107.77
-105.4
-103.101
-100.877
-98.734
-96.675
-94.705
-92.826
-91.041
-89.354
-87.764
-86.272
-84.88
-83.586
-82.387
-81.283
-80.271
-79.349
-78.52
-77.784
-77.141
-76.591
-76.136
-75.776
-75.511
-75.339
-75.253
-75.248
-75.321
-75.468
-75.693
-75.993
-76.369
-76.818
-77.339
-77.932
-78.595
-79.321
-80.093
-80.901
-81.739
-82.612
-83.541
-84.539
-85.608
-86.751
-87.965
-89.241
-90.568
-91.918
-93.234
-94.473
-95.591
-96.562
-97.384
-98.033
-98.47
-98.645
-98.489
-97.954
-97.016
-95.647
-93.841
-91.629
-89.061
-86.233
-83.273
-80.297
-77.435
-74.822
-72.552
-70.748
-69.506
-68.955
-69.371
-70.895
-73.465
-76.902
-80.759
-84.522
-87.88
-90.373
-91.198
-89.932
-86.702
-82.027
-77.233
-73.802
-72.61
-74.494
-80.792
-91.323
-103.537
-114.633
-120.756
-119.872
-114.926
-107.212
-93.61
-68.116
-20.383
57.886
165.455
296.358
441.289
587.375
724.187
839.588
919.244
951.762
928.724
850.052
722.826
559.666
379.359
200.44
43.314
-74.87
-149.084
-182.369
-188.651
-186.021
-183.482
-183.835
-183.652
-176.647
-163.089
-146.888
-132.011
-122.261
-118.041
-117.469
-118.98
-120.82
-121.223
-118.852
-112.924
-103.388
-90.87
-76.369
-60.81
-44.961
-29.637
-15.6
-3.301
7.092
15.647
22.622
28.255
32.721
36.227
38.982
41.136
42.86
44.329
45.702
47.171
48.884
50.924
53.353
56.203
59.474
63.145
67.164
71.455
75.949
80.594
85.338
90.139
94.935
99.65
104.211
108.543
112.598
116.353
119.794
122.922
125.752
128.313
130.646
132.801
134.82
136.737
138.584
140.388
142.181
143.997
145.866
147.816
149.873
152.058
154.388
156.878
159.536
162.367
165.371
168.546
171.887
175.392
179.054
182.868
186.825
190.912
195.117
199.424
203.815
208.269
212.762
217.267
221.758
226.205
230.578
234.847
238.979
242.942
246.704
250.232
253.494
256.459
259.098
261.381
263.281
264.773
265.834
266.443
266.582
266.236
265.391
264.039
262.172
259.786
256.881
253.46
249.528
245.092
240.166
234.763
228.901
222.6
215.883
208.775
201.306
193.504
185.401
177.032
168.431
159.634
150.679
141.603
132.445
123.242
114.033
104.855
95.746
86.741
77.875
69.181
60.689
52.43
44.43
36.713
29.302
22.215
15.47
9.08
3.055
-2.596
-7.869
-12.762
-17.275
-21.412
-25.18
-28.585
-31.641
-34.359
-36.756
-38.847
-40.651
-42.189
-43.483
-44.555
-45.428
-46.127
-46.677
-47.103
-47.429
-47.682
-47.885
-48.063
-48.238
-48.432
-48.667
-48.96
-49.33
-49.792
-50.359
-51.042
-51.851
-52.792
-53.869
-55.085
-56.438
-57.928
-59.548
-61.292
-63.153
-65.12
-67.18
-69.322
-71.53
-73.788
-76.081
-78.39
-80.697
-82.983
-85.229
-87.417
-89.526
-91.536
-93.43
-95.188
-96.792
-98.225
-99.47
-100.513
-101.34
-101.937
-102.296
-102.406
-102.261
-101.856
-101.187
-100.255
-99.059
-97.603
-95.891
-93.93
-91.729
-89.298
-86.646
-83.788
-80.737
-77.507
-74.116
-70.578
-66.913
-63.137
-59.27
-55.329
-51.335
-47.305
-43.26
-39.219
-35.199
-31.221
-27.303
-23.461
-19.714
-16.077
-12.566
-9.194
-5.975
-2.919
-0.037
2.663
5.174
7.491
9.61
11.527
13.243
14.757
16.069
17.184
18.103
18.833
19.377
19.744
19.94
19.974
19.856
19.595
19.202
18.687
18.062
17.338
16.528
15.643
14.697
13.702
12.672
11.619
10.556
9.495
8.448
7.427
6.441
5.501
4.614
3.786
3.025
2.335
1.722
1.19
0.74
0.374
0.094
-0.099
-0.208
-0.235
-0.185
-0.066
0.113
0.346
0.622
0.93
1.26
1.601
1.946
2.29
2.626
2.944
3.234
3.485
3.688
3.836
3.919
3.928
3.854
3.694
3.448
3.121
2.714
2.221
1.632
0.93
0.102
-0.858
-1.954
-3.188
-4.553
-6.036
-7.611
-9.23
-10.853
-12.44
-13.955
-15.37
-16.646
-17.737
-18.598
-19.173
-19.409
-19.269
-18.74
-17.822
-16.543
-14.941
-13.061
-10.997
-8.87
-6.819
-4.985
-3.481
-2.384
-1.792
-1.891
-2.799
-4.503
-6.849
-9.448
-11.913
-14.016
-15.487
-15.854
-14.823
-12.44
-9.135
-5.98
-3.951
-3.611
-5.624
-10.724
-19.411
-30.569
-41.037
-47.099
-45.093
-34.532
-19.113
-0.474
21.511
49.595
93.959
162.047
256.205
376.536
511.471
643.697
756.494
831.444
855.482
823.84
737.133
599.854
425.177
233.104
45.644
-108.258
-207.642
-248.075
-234.071
-186.581
-129.808
-79.27
-47.809
-35.85
-36.91
-44.915
-49.869
-48.524
-43.446
-37.424
-36.237
-41.229
-48.95
-56.998
-62.958
-65.776
-66.337
-65.021
-61.641
-56.83
-51.84
-47.448
-44.167
-42.169
-41.106
-40.924
-41.945
-44.07
-46.838
-49.9
-52.883
-55.554
-57.966
-60.069
-61.714
-62.861
-63.511
-63.68
-63.443
-62.85
-61.897
-60.606
-59
-57.1
-54.963
-52.646
-50.207
-47.717
-45.228
-42.77
-40.367
-38.035
-35.78
-33.607
-31.501
-29.439
-27.397
-25.36
-23.32
-21.266
-19.182
-17.044
-14.831
-12.522
-10.102
-7.561
-4.889
-2.074
0.888
4.001
7.263
10.666
14.208
17.886
21.696
25.634
29.692
33.86
38.129
42.487
46.922
51.418
55.956
60.517
65.081
69.625
74.128
78.565
82.911
87.14
91.225
95.142
98.862
102.36
105.609
108.584
111.263
113.621
115.641
117.3
118.583
119.474
119.959
120.028
119.67
118.877
117.644
115.968
113.847
111.285
108.286
104.856
101.004
96.742
92.085
87.05
81.655
75.92
69.869
63.528
56.925
50.088
43.05
35.841
28.496
21.048
13.533
5.983
-1.568
-9.089
-16.548
-23.915
-31.162
-38.263
-45.191
-51.923
-58.431
-64.693
-70.687
-76.392
-81.792
-86.867
-91.606
-95.998
-100.039
-103.729
-107.07
-110.061
-112.707
-115.009
-116.975
-118.614
-119.937
-120.948
-121.662
-122.093
-122.271
-122.235
-122.013
-121.616
-121.054
-120.323
-119.424
-118.367
-117.151
-115.762
-114.204
-112.491
-110.663
-108.789
-106.914
-105.065
-103.25
-101.448
-99.668
-97.947
-96.322
-94.838
-93.542
-92.464
-91.67
-91.26
-91.277
-91.72
-92.532
-93.583
-94.785
-96.092
-97.465
-98.899
-100.357
-101.768
-103.076
-104.235
-105.18
-105.85
-106.136
-105.872
-104.973
-103.424
-101.272
-98.659
-95.675
-92.362
-88.767
-84.919
-80.855
-76.638
-72.296
-67.83
-63.271
-58.661
-54.086
-49.685
-45.529
-41.632
-37.964
-34.43
-30.969
-27.557
-24.16
-20.746
-17.294
-13.78
-10.213
-6.636
-3.066
0.492
4.058
7.681
11.381
15.146
18.947
22.734
26.469
30.129
33.682
37.087
40.31
43.327
46.13
48.732
51.138
53.342
55.331
57.088
58.606
59.889
60.94
61.757
62.329
62.644
62.707
62.543
62.183
61.651
60.964
60.135
59.193
58.175
57.109
56
54.828
53.57
52.224
50.812
49.376
47.956
46.568
45.197
43.826
42.452
41.075
39.684
38.235
36.667
34.963
33.169
31.389
29.726
28.241
26.96
25.881
25.018
24.405
24.095
24.126
24.513
25.278
26.471
28.189
30.542
33.57
37.223
41.374
45.904
50.739
55.826
61.128
66.58
72.113
77.671
83.221
88.745
94.198
99.495
104.511
109.128
113.283
116.978
120.279
123.243
125.918
128.367
130.647
132.827
134.962
137.063
139.129
141.166
143.199
145.28
147.459
149.756
152.182
154.736
157.365
159.99
162.483
164.638
166.282
167.272
167.489
166.868
165.332
162.792
159.199
154.528
148.803
142.084
134.361
125.564
115.776
105.22
94.336
83.801
74.162
65.917
59.675
55.921
54.977
56.973
61.362
67.026
72.915
77.658
80.614
83.075
86.384
91.726
98.907
103.855
103.276
98.742
96.809
110.084
150.51
220.419
314.065
419.289
522.473
616.118
694.307
750.785
776.002
755.527
680.267
547.168
366.102
162.861
-34.589
-197.209
-306.903
-366.226
-386.458
-384.592
-373.084
-352.572
-322.087
-283.039
-243.911
-218.815
-216.3
-236.71
-271.287
-306.12
-332.666
-348.652
-356.778
-362.934
-369.795
-376.575
-381.18
-381.494
-377.447
-370.686
-363.27
-356.448
-350.521
-345.549
-341.532
-338.436
-336.193
-334.419
-332.504
-330.15
-327.277
-323.836
-319.86
-315.285
-310.011
-304.056
-297.479
-290.317
-282.632
-274.509
-266.087
-257.608
-249.309
-241.364
-233.903
-227.002
-220.731
-215.138
-210.219
-205.946
-202.267
-199.177
-196.748
-195.028
-194.002
-193.593
-193.64
-193.924
-194.256
-194.448
-194.305
-193.675
-192.417
-190.451
-187.783
-184.432
-180.416
-175.688
-170.112
-163.586
-156.075
-147.579
-138.153
-127.898
-116.909
-105.338
-93.411
-81.306
-69.178
-57.131
-45.196
-33.414
-21.847
-10.589
0.22
10.461
20.06
28.944
37.059
44.386
50.919
56.715
61.902
66.574
70.79
74.589
77.967
80.931
83.51
85.726
87.607
89.179
90.457
91.467
92.243
92.797
93.131
93.22
93.008
92.46
91.564
90.314
88.722
86.801
84.558
82.016
79.213
76.176
72.936
69.516
65.933
62.213
58.387
54.489
50.557
46.623
42.716
38.861
35.083
31.401
27.832
24.388
21.073
17.895
14.86
11.975
9.247
6.681
4.278
2.043
-0.022
-1.916
-3.639
-5.193
-6.581
-7.807
-8.876
-9.791
-10.56
-11.187
-11.681
-12.049
-12.296
-12.43
-12.459
-12.389
-12.227
-11.979
-11.652
-11.25
-10.777
-10.238
-9.635
-8.97
-8.244
-7.457
-6.608
-5.696
-4.722
-3.682
-2.576
-1.401
-0.157
1.157
2.545
4.006
5.544
7.159
8.853
10.626
12.481
14.416
16.433
18.53
20.707
22.963
25.294
27.699
30.176
32.72
35.327
37.993
40.713
43.481
46.29
49.133
52.002
54.89
57.787
60.685
63.576
66.449
69.296
72.109
74.878
77.595
80.252
82.841
85.354
87.784
90.123
92.366
94.507
96.541
98.462
100.266
101.951
103.513
104.95
106.259
107.439
108.49
109.41
110.2
110.861
111.394
111.801
112.083
112.244
112.287
112.214
112.03
111.738
111.341
110.843
110.247
109.558
108.779
107.913
106.965
105.937
104.833
103.656
102.41
101.097
99.72
98.28
96.781
95.225
93.615
91.952
90.241
88.484
86.685
84.847
82.974
81.069
79.135
77.177
75.198
73.202
71.192
69.174
67.152
65.133
63.121
61.124
59.146
57.195
55.277
53.398
51.566
49.786
48.064
46.408
44.824
43.319
41.9
40.572
39.342
38.215
37.196
36.287
35.489
34.797
34.209
33.721
33.329
33.027
32.808
32.666
32.597
32.601
32.674
32.81
32.999
33.23
33.494
33.78
34.079
34.378
34.664
34.928
35.162
35.366
35.53
35.643
35.676
35.595
35.37
34.983
34.418
33.663
32.713
31.566
30.245
28.792
27.245
25.639
23.992
22.316
20.639
18.999
17.447
16.043
14.83
13.833
13.052
12.477
12.07
11.785
11.55
11.232
10.68
9.747
8.302
6.24
3.49
-0.078
-4.711
-10.532
-17.489
-25.39
-33.784
-42.232
-50.491
-58.156
-64.57
-69.404
-72.753
-75.089
-77.605
-81.504
-87.43
-96.183
-108.843
-124.78
-141.575
-156.766
-166.738
-170.604
-171.476
-169.044
-160.267
-138.633
-93.793
-21.853
73.57
184.099
297.443
404.648
500.033
577.266
630.441
650.853
629.448
563.917
455.407
311.656
149.555
-13.914
-158.618
-265.481
-328.292
-347.539
-333.165
-302.85
-268.88
-242.039
-228.108
-224.98
-230.211
-237.834
-242.3
-243.281
-242.033
-242.125
-246.368
-253.92
-262.537
-269.755
-274.29
-276.426
-276.985
-276.754
-276.198
-275.737
-275.903
-276.99
-279.06
-281.981
-285.464
-289.307
-293.348
-297.373
-301.142
-304.424
-307.08
-309.052
-310.306
-310.81
-310.526
-309.427
-307.523
-304.851
-301.443
-297.333
-292.565
-287.177
-281.233
-274.801
-267.951
-260.767
-253.313
-245.635
-237.779
-229.777
-221.655
-213.436
-205.133
-196.742
-188.271
-179.726
-171.112
-162.441
-153.718
-144.944
-136.121
-127.251
-118.334
-109.376
-100.381
-91.359
-82.316
-73.264
-64.213
-55.179
-46.175
-37.213
-28.303
-19.455
-10.679
-1.985
6.615
15.113
23.497
31.756
39.877
47.846
55.652
63.281
70.72
77.956
84.975
91.766
98.314
104.608
110.633
116.379
121.833
126.982
131.816
136.323
140.494
144.317
147.786
150.891
153.626
155.985
157.963
159.556
160.763
161.58
162.008
162.048
161.701
160.97
159.859
158.374
156.521
154.307
151.743
148.836
145.599
142.044
138.183
134.029
129.597
124.902
119.958
114.783
109.393
103.804
98.033
92.099
86.019
79.81
73.49
67.078
60.59
54.045
47.458
40.849
34.232
27.625
21.043
14.502
8.018
1.606
-4.719
-10.943
-17.051
-23.031
-28.868
-34.551
-40.066
-45.402
-50.549
-55.495
-60.23
-64.746
-69.034
-73.085
-76.892
-80.448
-83.748
-86.786
-89.557
-92.058
-94.285
-96.236
-97.91
-99.306
-100.423
-101.264
-101.829
-102.12
-102.142
-101.899
-101.394
-100.636
-99.631
-98.386
-96.911
-95.216
-93.311
-91.208
-88.918
-86.455
-83.831
-81.061
-78.158
-75.136
-72.012
-68.798
-65.511
-62.164
-58.774
-55.355
-51.921
-48.486
-45.064
-41.667
-38.31
-35.003
-31.758
-28.585
-25.495
-22.497
-19.598
-16.806
-14.128
-11.568
-9.132
-6.822
-4.641
-2.59
-0.669
1.122
2.785
4.322
5.736
7.031
8.211
9.279
10.242
11.105
11.873
12.552
13.148
13.668
14.116
14.498
14.819
15.086
15.301
15.471
15.597
15.684
15.736
15.754
15.742
15.701
15.634
15.54
15.422
15.28
15.115
14.926
14.712
14.474
14.212
13.925
13.613
13.277
12.916
12.531
12.125
11.697
11.251
10.789
10.313
9.827
9.334
8.84
8.351
7.873
7.413
6.977
6.576
6.217
5.911
5.665
5.49
5.395
5.391
5.486
5.691
6.013
6.461
7.042
7.764
8.632
9.651
10.825
12.154
13.639
15.278
17.068
19.002
21.073
23.271
25.586
28.006
30.52
33.112
35.77
38.477
41.22
43.981
46.74
49.475
52.163
54.784
57.315
59.736
62.025
64.16
66.129
67.918
69.515
70.902
72.051
72.942
73.561
73.899
73.954
73.727
73.226
72.475
71.51
70.373
69.1
67.719
66.245
64.698
63.111
61.532
60.023
58.636
57.395
56.319
55.431
54.747
54.243
53.851
53.449
52.927
52.234
51.334
50.184
48.706
46.789
44.323
41.258
37.539
33.06
27.787
21.764
15.21
8.627
2.556
-2.54
-6.176
-7.857
-7.279
-4.375
0.383
5.948
11.351
15.664
17.959
17.457
13.35
6.405
-0.2
-3.127
1.021
13.221
29.812
49.367
73.26
105.194
155.605
232.445
337.338
468.917
616.591
764.255
895.426
990.974
1034.328
1016.304
935.97
801.315
628.699
438.233
248.519
77.298
-60.762
-157.201
-208.313
-217.46
-197.248
-163.027
-129.749
-111.012
-110.089
-123.15
-143.747
-160.895
-169.657
-171.328
-168.705
-167.745
-170.871
-176.244
-181.63
-184.449
-183.914
-181.07
-176.958
-172.407
-167.98
-164.063
-161.149
-159.58
-159.391
-160.427
-162.423
-165.146
-168.423
-172.07
-175.837
-179.499
-182.841
-185.636
-187.748
-189.082
-189.559
-189.15
-187.846
-185.639
-182.57
-178.72
-174.166
-168.991
-163.271
-157.06
-150.441
-143.51
-136.371
-129.135
-121.886
-114.678
-107.558
-100.559
-93.705
-87.013
-80.481
-74.09
-67.829
-61.694
-55.684
-49.805
-44.054
-38.422
-32.9
-27.481
-22.163
-16.944
-11.824
-6.8
-1.876
2.946
7.657
12.248
16.713
21.05
25.255
29.326
33.26
37.053
40.704
44.209
47.564
50.763
53.8
56.668
59.359
61.867
64.184
66.303
68.217
69.919
71.404
72.666
73.699
74.499
75.062
75.385
75.466
75.305
74.902
74.258
73.376
72.259
70.914
69.347
67.565
65.578
63.394
61.025
58.483
55.781
52.932
49.952
46.856
43.659
40.381
37.038
33.65
30.233
26.806
23.388
19.996
16.648
13.36
10.148
7.028
4.012
1.115
-1.653
-4.281
-6.761
-9.086
-11.249
-13.248
-15.081
-16.746
-18.246
-19.582
-20.761
-21.786
-22.666
-23.409
-24.023
-24.521
-24.912
-25.21
-25.428
-25.578
-25.675
-25.732
-25.765
-25.786
-25.81
-25.85
-25.919
-26.03
-26.194
-26.422
-26.724
-27.109
-27.586
-28.16
-28.838
-29.624
-30.521
-31.529
-32.65
-33.881
-35.22
-36.663
-38.205
-39.838
-41.557
-43.351
-45.213
-47.13
-49.094
-51.091
-53.111
-55.142
-57.172
-59.188
-61.178
-63.132
-65.039
-66.886
-68.665
-70.366
-71.98
-73.499
-74.916
-76.224
-77.417
-78.491
-79.442
-80.268
-80.965
-81.535
-81.976
-82.291
-82.481
-82.55
-82.502
-82.342
-82.075
-81.71
-81.252
-80.71
-80.092
-79.408
-78.666
-77.876
-77.047
-76.19
-75.312
-74.424
-73.533
-72.649
-71.78
-70.932
-70.113
-69.331
-68.59
-67.898
-67.261
-66.682
-66.168
-65.722
-65.348
-65.049
-64.828
-64.687
-64.629
-64.654
-64.764
-64.959
-65.239
-65.604
-66.051
-66.58
-67.188
-67.873
-68.63
-69.455
-70.346
-71.297
-72.304
-73.362
-74.468
-75.616
-76.801
-78.019
-79.265
-80.533
-81.818
-83.114
-84.413
-85.71
-86.997
-88.266
-89.512
-90.725
-91.898
-93.023
-94.091
-95.093
-96.021
-96.865
-97.617
-98.267
-98.807
-99.23
-99.528
-99.696
-99.726
-99.615
-99.358
-98.951
-98.393
-97.68
-96.809
-95.78
-94.592
-93.246
-91.743
-90.085
-88.277
-86.326
-84.242
-82.036
-79.72
-77.306
-74.809
-72.244
-69.627
-66.971
-64.287
-61.587
-58.886
-56.201
-53.55
-50.951
-48.417
-45.964
-43.606
-41.359
-39.235
-37.241
-35.377
-33.647
-32.058
-30.632
-29.399
-28.38
-27.588
-27.031
-26.714
-26.637
-26.792
-27.151
-27.66
-28.267
-28.927
-29.609
-30.287
-30.922
-31.462
-31.837
-31.975
-31.824
-31.343
-30.507
-29.317
-27.796
-25.988
-23.977
-21.89
-19.856
-18.019
-16.51
-15.403
-14.756
-14.69
-15.412
-17.07
-19.736
-23.3
-27.384
-31.749
-36.255
-40.346
-43.362
-44.887
-44.359
-42.683
-41.585
-41.051
-41.668
-42.596
-41.97
-41.81
-42.884
-46.089
-54.261
-65.295
-77.025
-86.964
-85.898
-65.942
-20.856
55.971
161.503
289.017
432.549
580.74
723.496
848.827
939.836
982.479
966.302
889.658
759.908
591.413
405.552
222.73
64.37
-51.857
-121.028
-144.246
-132.965
-105.712
-74.976
-51.877
-41.8
-41.34
-47.2
-53.484
-54.629
-50.782
-44.009
-38.289
-36.865
-39.29
-43.202
-45.453
-44.323
-39.981
-33.265
-25.289
-16.757
-8.054
0.227
7.481
13.383
17.849
20.998
23.06
24.209
24.585
24.36
23.722
22.826
21.809
20.825
20.022
19.52
19.404
19.724
20.495
21.727
23.419
25.528
27.992
30.747
33.734
36.908
40.235
43.661
47.119
50.538
53.838
56.969
59.901
62.613
65.095
67.348
69.378
71.213
72.892
74.447
75.902
77.28
78.6
79.886
81.169
82.476
83.835
85.269
86.8
88.448
90.233
92.169
94.267
96.536
98.979
101.6
104.406
107.398
110.58
113.952
117.511
121.254
125.175
129.265
133.512
137.903
142.42
147.045
151.758
156.536
161.355
166.189
171.012
175.797
180.513
185.132
189.624
193.957
198.103
202.03
205.71
209.115
212.216
214.988
217.407
219.451
221.098
222.332
223.136
223.498
223.407
222.855
221.838
220.355
218.405
215.993
213.127
209.818
206.077
201.922
197.371
192.446
187.169
181.567
175.667
169.499
163.095
156.486
149.706
142.791
135.776
128.697
121.589
114.49
107.434
100.457
93.593
86.875
80.336
74.004
67.909
62.078
56.534
51.3
46.396
41.839
37.643
33.821
30.381
27.33
24.673
22.41
20.54
19.06
17.963
17.241
16.883
16.877
17.208
17.858
18.811
20.044
21.538
23.268
25.211
27.342
29.635
32.063
34.6
37.218
39.891
42.59
45.29
47.964
50.587
53.133
55.579
57.903
60.083
62.1
63.936
65.573
66.996
68.192
69.148
69.853
70.298
70.476
70.38
70.006
69.351
68.414
67.195
65.695
63.919
61.871
59.557
56.987
54.169
51.113
47.832
44.34
40.651
36.78
32.745
28.562
24.251
19.829
15.315
10.729
6.091
1.419
-3.267
-7.948
-12.606
-17.22
-21.774
-26.248
-30.626
-34.888
-39.02
-43.005
-46.826
-50.471
-53.925
-57.176
-60.213
-63.025
-65.604
-67.943
-70.035
-71.876
-73.464
-74.797
-75.876
-76.704
-77.284
-77.622
-77.725
-77.602
-77.262
-76.715
-75.974
-75.05
-73.958
-72.711
-71.323
-69.81
-68.187
-66.471
-64.679
-62.827
-60.933
-59.014
-57.087
-55.171
-53.28
-51.433
-49.645
-47.928
-46.298
-44.766
-43.345
-42.046
-40.876
-39.843
-38.953
-38.21
-37.617
-37.176
-36.884
-36.739
-36.738
-36.876
-37.147
-37.544
-38.06
-38.685
-39.41
-40.228
-41.127
-42.098
-43.13
-44.21
-45.328
-46.471
-47.629
-48.789
-49.939
-51.067
-52.167
-53.233
-54.258
-55.236
-56.164
-57.037
-57.855
-58.616
-59.316
-59.949
-60.513
-61.005
-61.43
-61.791
-62.093
-62.339
-62.535
-62.688
-62.804
-62.888
-62.94
-62.953
-62.928
-62.869
-62.785
-62.699
-62.625
-62.573
-62.551
-62.562
-62.602
-62.663
-62.722
-62.737
-62.676
-62.512
-62.222
-61.793
-61.202
-60.412
-59.394
-58.105
-56.506
-54.566
-52.27
-49.628
-46.685
-43.506
-40.16
-36.727
-33.291
-29.954
-26.833
-24.025
-21.631
-19.708
-18.339
-17.727
-17.967
-18.993
-20.604
-22.32
-23.62
-24.197
-23.661
-21.376
-17.106
-11.053
-3.709
3.671
9.751
13.733
14.706
11.418
4.324
-4.161
-11.688
-14.842
-12.119
-6.245
2.47
17.217
42.778
87.616
158.026
251.748
363.924
487.801
612.249
728.827
826.89
890.302
906.656
866.264
766.674
618.202
437.918
249.011
75.323
-65.054
-160.45
-210.772
-222.893
-207.016
-176.632
-140.568
-106.508
-80.508
-61.884
-48.848
-37.01
-21.899
-4.868
10.252
18.843
17.788
7.696
-8.555
-27.716
-47.423
-65.801
-81.475
-93.889
-102.662
-107.869
-110.274
-110.498
-109.26
-107.741
-106.793
-106.843
-108.134
-110.485
-113.501
-116.959
-120.532
-123.727
-126.256
-127.962
-128.766
-128.779
-128.107
-126.77
-124.837
-122.398
-119.496
-116.192
-112.533
-108.536
-104.258
-99.756
-95.073
-90.26
-85.348
-80.354
-75.296
-70.182
-65.011
-59.793
-54.539
-49.258
-43.966
-38.673
-33.383
-28.098
-22.816
-17.531
-12.242
-6.945
-1.64
3.669
8.979
14.283
19.569
24.833
30.068
35.271
40.44
45.573
50.665
55.714
60.714
65.662
70.55
75.37
80.113
84.771
89.334
93.794
98.141
102.365
106.455
110.402
114.194
117.819
121.265
124.522
127.575
130.414
133.025
135.397
137.52
139.382
140.975
142.289
143.315
144.048
144.48
144.606
144.421
143.923
143.109
141.977
140.528
138.763
136.685
134.297
131.607
128.619
125.343
121.788
117.964
113.883
109.558
105.004
100.235
95.267
90.117
84.803
79.345
73.761
68.071
62.296
56.455
50.568
44.656
38.738
32.835
26.965
21.148
15.4
9.741
4.186
-1.247
-6.544
-11.691
-16.673
-21.478
-26.094
-30.513
-34.723
-38.717
-42.488
-46.031
-49.341
-52.415
-55.25
-57.847
-60.206
-62.33
-64.22
-65.882
-67.321
-68.543
-69.557
-70.368
-70.988
-71.423
-71.685
-71.783
-71.728
-71.53
-71.199
-70.746
-70.181
-69.514
-68.755
-67.915
-67
-66.021
-64.986
-63.9
-62.772
-61.608
-60.412
-59.19
-57.947
-56.685
-55.407
-54.116
-52.811
-51.494
-50.164
-48.82
-47.461
-46.082
-44.683
-43.259
-41.807
-40.323
-38.802
-37.241
-35.635
-33.979
-32.27
-30.503
-28.675
-26.782
-24.823
-22.795
-20.698
-18.531
-16.295
-13.993
-11.625
-9.195
-6.707
-4.165
-1.574
1.059
3.73
6.429
9.151
11.885
14.624
17.357
20.075
22.769
25.427
28.039
30.594
33.083
35.493
37.814
40.034
42.142
44.127
45.978
47.684
49.235
50.621
51.835
52.87
53.72
54.381
54.849
55.122
55.197
55.072
54.748
54.225
53.504
52.586
51.475
50.173
48.684
47.015
45.171
43.156
40.977
38.64
36.152
33.52
30.752
27.856
24.842
21.719
18.499
15.195
11.82
8.387
4.912
1.409
-2.109
-5.631
-9.146
-12.645
-16.121
-19.564
-22.967
-26.324
-29.624
-32.856
-36.008
-39.065
-42.015
-44.849
-47.558
-50.137
-52.577
-54.876
-57.035
-59.055
-60.934
-62.665
-64.234
-65.631
-66.864
-67.946
-68.897
-69.753
-70.538
-71.282
-72.031
-72.814
-73.651
-74.544
-75.466
-76.384
-77.289
-78.187
-79.1
-80.049
-81.015
-81.98
-82.93
-83.834
-84.667
-85.385
-85.901
-86.156
-86.137
-85.864
-85.408
-84.846
-84.21
-83.514
-82.757
-81.947
-81.118
-80.3
-79.487
-78.68
-77.898
-77.203
-76.729
-76.582
-76.807
-77.425
-78.429
-79.821
-81.637
-83.934
-86.756
-90.154
-94.209
-98.997
-104.599
-111.129
-118.693
-127.276
-136.719
-146.694
-156.69
-166.237
-174.971
-182.452
-188.173
-191.752
-193.048
-192.521
-191.239
-190.178
-189.918
-190.97
-193.829
-198.886
-206.429
-214.413
-218.496
-215.089
-200.967
-176.722
-147.104
-112.685
-71.885
-19.681
54.726
154.461
276.914
415.776
556.204
686.558
796.533
874.473
911.79
898.991
831.593
712.444
552.09
370.254
188.821
29.367
-92.301
-170.33
-207.982
-215.143
-201.705
-176.956
-146.247
-114.018
-88.716
-74.717
-74.266
-85.19
-97.956
-107.052
-110.611
-109.39
-108.341
-109.27
-111.033
-112.563
-112.149
-109.52
-105.829
-101.89
-98.384
-95.904
-94.79
-95.216
-97.18
-100.474
-104.771
-109.815
-115.444
-121.452
-127.596
-133.649
-139.36
-144.551
-149.134
-153.026
-156.166
-158.518
-160.052
-160.772
-160.725
-159.965
-158.549
-156.531
-153.957
-150.884
-147.391
-143.567
-139.513
-135.31
-131.009
-126.656
-122.284
-117.918
-113.58
-109.276
-104.997
-100.736
-96.495
-92.281
-88.106
-83.979
-79.9
-75.872
-71.895
-67.978
-64.129
-60.359
-56.679
-53.101
-49.64
-46.314
-43.143
-40.144
-37.33
-34.712
-32.299
-30.101
-28.124
-26.376
-24.861
-23.581
-22.541
-21.743
-21.19
-20.883
-20.818
