Name
Date of Birth,"Mar 27, 1959"
Recorded Date,2022-08-27 16:48:47 -0500
Classification,Sinus Rhythm
Symptoms,
Software Version,1.90
Device,"Watch4,2"
Sample Rate,510.227 hertz


Lead,Lead I
Unit,µV

55.62
58.517
61.212
63.688
65.931
67.928
69.665
71.131
72.313
73.202
73.789
74.064
74.021
73.652
72.953
71.921
70.554
68.852
66.817
64.453
61.766
58.766
55.463
51.867
47.99
43.847
39.451
34.817
29.961
24.897
19.642
14.216
8.641
2.94
-2.861
-8.738
-14.662
-20.605
-26.538
-32.432
-38.262
-44.006
-49.64
-55.134
-60.46
-65.581
-70.471
-75.109
-79.474
-83.548
-87.322
-90.791
-93.964
-96.865
-99.509
-101.897
-104.023
-105.871
-107.424
-108.675
-109.61
-110.218
-110.485
-110.393
-109.931
-109.103
-107.891
-106.271
-104.193
-101.58
-98.389
-94.616
-90.27
-85.389
-80.024
-74.227
-68.08
-61.691
-55.152
-48.554
-41.967
-35.44
-29.045
-22.879
-17.056
-11.721
-6.978
-2.887
0.508
3.192
5.175
6.484
7.194
7.425
7.272
6.806
6.079
5.111
3.95
2.665
1.335
0.059
-1.089
-2.057
-2.794
-3.255
-3.419
-3.287
-2.905
-2.356
-1.707
-0.986
-0.191
0.705
1.729
2.881
4.131
5.462
6.866
8.335
9.875
11.435
12.894
14.272
15.72
17.393
19.499
22.055
24.808
27.671
30.739
33.848
36.701
38.947
40.038
39.966
39.384
38.661
37.915
37.488
37.691
38.969
42.099
47.074
53.042
59.443
65.922
72.097
77.804
82.66
85.915
87.445
87.733
87.064
85.646
83.567
80.676
77.034
72.969
68.565
63.696
58.323
52.381
45.908
39.096
32.045
24.776
17.348
9.853
2.399
-4.852
-11.743
-18.173
-24.057
-29.336
-33.979
-37.989
-41.413
-44.338
-46.888
-49.171
-51.282
-53.328
-55.404
-57.626
-60.118
-62.985
-66.37
-70.461
-75.407
-81.263
-87.928
-95.087
-102.364
-109.393
-115.694
-120.697
-123.89
-124.929
-123.993
-121.766
-118.949
-116.39
-115.077
-115.877
-119.868
-126.832
-134.096
-138.817
-138.318
-132.218
-124.372
-116.279
-104.621
-81.519
-33.618
48.338
163.247
303.399
455.107
604.921
746.133
871.225
970.287
1030.871
1036.801
980.16
863.114
698.15
507.447
311.245
129.38
-22.824
-138.788
-214.545
-254.291
-266.386
-256.011
-228.986
-189.504
-141.82
-95.563
-60.342
-41.488
-39.225
-46.813
-56.418
-63.975
-69.27
-75.577
-84.928
-96.605
-108.283
-116.696
-120.482
-120.079
-116.3
-110.474
-103.727
-96.786
-90.668
-86.179
-83.556
-82.853
-83.902
-86.332
-89.844
-94.094
-98.571
-102.894
-106.837
-110.221
-113.012
-115.216
-116.795
-117.768
-118.188
-118.087
-117.509
-116.503
-115.089
-113.309
-111.22
-108.879
-106.358
-103.731
-101.062
-98.414
-95.831
-93.34
-90.96
-88.697
-86.547
-84.501
-82.542
-80.644
-78.786
-76.947
-75.106
-73.24
-71.322
-69.327
-67.229
-65.006
-62.636
-60.103
-57.389
-54.479
-51.363
-48.029
-44.471
-40.683
-36.66
-32.396
-27.887
-23.132
-18.129
-12.881
-7.392
-1.667
4.285
10.454
16.824
23.38
30.102
36.971
43.962
51.052
58.213
65.418
72.636
79.837
86.989
94.059
101.014
107.82
114.444
120.853
127.013
132.893
138.462
143.691
148.55
153.014
157.056
160.654
163.786
166.434
168.58
170.209
171.311
171.876
171.898
171.373
170.302
168.687
166.535
163.853
160.654
156.951
152.763
148.107
143.007
137.487
131.572
125.291
118.674
111.752
104.557
97.123
89.484
81.674
73.728
65.68
57.566
49.419
41.274
33.164
25.122
17.179
9.366
1.712
-5.755
-13.009
-20.024
-26.779
-33.253
-39.425
-45.281
-50.804
-55.982
-60.806
-65.267
-69.36
-73.082
-76.432
-79.41
-82.02
-84.268
-86.16
-87.705
-88.912
-89.795
-90.364
-90.635
-90.621
-90.34
-89.806
-89.039
-88.055
-86.872
-85.509
-83.985
-82.318
-80.528
-78.632
-76.649
-74.598
-72.497
-70.363
-68.214
-66.064
-63.93
-61.827
-59.766
-57.762
-55.825
-53.966
-52.192
-50.513
-48.933
-47.461
-46.099
-44.851
-43.72
-42.709
-41.817
-41.044
-40.391
-39.856
-39.438
-39.132
-38.938
-38.851
-38.867
-38.983
-39.193
-39.492
-39.874
-40.334
-40.864
-41.457
-42.107
-42.807
-43.549
-44.326
-45.132
-45.96
-46.804
-47.657
-48.515
-49.371
-50.221
-51.061
-51.886
-52.694
-53.481
-54.244
-54.982
-55.691
-56.371
-57.02
-57.639
-58.225
-58.774
-59.286
-59.759
-60.194
-60.594
-60.955
-61.273
-61.557
-61.817
-62.06
-62.296
-62.519
-62.715
-62.899
-63.087
-63.249
-63.363
-63.41
-63.363
-63.249
-63.117
-62.943
-62.676
-62.447
-62.413
-62.478
-62.652
-62.962
-63.074
-63.887
-66.274
-68.984
-71.633
-71.923
-67.098
-60.201
-53.26
-49.292
-52.447
-59.047
-65.974
-71.091
-70.867
-67.818
-64.491
-61.45
-60.245
-59.966
-59.445
-58.896
-58.166
-57.327
-56.608
-55.851
-54.93
-53.879
-52.707
-51.396
-49.948
-48.372
-46.671
-44.869
-42.994
-41.038
-38.994
-36.871
-34.673
-32.41
-30.093
-27.729
-25.326
-22.898
-20.46
-18.025
-15.611
-13.23
-10.897
-8.628
-6.44
-4.349
-2.374
-0.533
1.156
2.676
4.008
5.134
6.036
6.701
7.117
7.276
7.166
6.777
6.089
5.094
3.786
2.166
0.235
-2
-4.529
-7.326
-10.348
-13.55
-16.884
-20.309
-23.796
-27.306
-30.798
-34.226
-37.536
-40.685
-43.646
-46.392
-48.903
-51.168
-53.198
-55.045
-56.813
-58.621
-60.605
-62.884
-65.542
-68.674
-72.338
-76.582
-81.48
-87.029
-93.145
-99.773
-106.899
-114.46
-122.428
-130.651
-138.63
-145.951
-152.445
-157.63
-160.765
-161.366
-158.785
-153.462
-147.979
-143.918
-140.938
-136.517
-124.678
-101.04
-68.243
-35.13
-14.526
-17.878
-44.175
-78.32
-98.867
-83.517
-21.165
82.386
214.452
359.639
504.534
642.531
764.181
855.987
904.731
897.47
831.214
713.08
555.878
378.234
198.598
34.77
-97.735
-189.57
-239.111
-252.056
-238.232
-209.83
-176.521
-146.593
-126.467
-116.297
-113.5
-112.13
-106.304
-95.967
-84.405
-76.517
-75.596
-81.156
-90.55
-100.755
-109.98
-117.223
-121.89
-124.011
-123.622
-121.006
-116.934
-111.969
-106.626
-101.74
-97.904
-95.407
-94.423
-94.789
-96.184
-98.397
-101.121
-103.932
-106.531
-108.69
-110.268
-111.282
-111.758
-111.692
-111.126
-110.108
-108.679
-106.893
-104.781
-102.356
-99.65
-96.702
-93.566
-90.308
-86.987
-83.658
-80.36
-77.115
-73.939
-70.838
-67.808
-64.844
-61.934
-59.057
-56.2
-53.349
-50.49
-47.609
-44.689
-41.709
-38.65
-35.494
-32.227
-28.836
-25.312
-21.645
-17.829
-13.859
-9.732
-5.447
-1.005
3.598
8.36
13.279
18.355
23.58
28.95
34.457
40.091
45.842
51.697
57.64
63.656
69.728
75.837
81.964
88.088
94.188
100.241
106.225
112.115
117.888
123.519
128.984
134.259
139.319
144.14
148.701
152.978
156.949
160.596
163.898
166.838
169.401
171.571
173.337
174.687
175.612
176.107
176.167
175.789
174.973
173.722
172.039
169.932
167.408
164.478
161.155
157.452
153.385
148.972
144.232
139.186
133.856
128.265
122.437
116.399
110.176
103.797
97.288
90.677
83.995
77.268
70.525
63.795
57.106
50.484
43.956
37.548
31.284
25.186
19.277
13.577
8.105
2.878
-2.09
-6.783
-11.19
-15.3
-19.105
-22.597
-25.771
-28.623
-31.152
-33.356
-35.238
-36.8
-38.047
-38.985
-39.62
-39.962
-40.021
-39.808
-39.335
-38.616
-37.665
-36.497
-35.128
-33.573
-31.85
-29.974
-27.963
-25.832
-23.599
-21.279
-18.888
-16.44
-13.951
-11.435
-8.904
-6.373
-3.852
-1.354
1.111
3.532
5.9
8.207
10.444
12.604
14.68
16.668
18.561
20.355
22.048
23.635
25.116
26.488
27.752
28.907
29.953
30.892
31.726
32.456
33.084
33.614
34.047
34.387
34.637
34.8
34.878
34.877
34.797
34.644
34.421
34.13
33.776
33.363
32.894
32.372
31.802
31.187
30.532
29.839
29.114
28.36
27.581
26.78
25.961
25.128
24.283
23.429
22.569
21.706
20.842
19.979
19.119
18.263
17.413
16.569
15.734
14.906
14.087
13.277
12.475
11.681
10.894
10.113
9.337
8.563
7.791
7.018
6.241
5.457
4.664
3.858
3.037
2.197
1.335
0.448
-0.467
-1.413
-2.392
-3.406
-4.459
-5.55
-6.681
-7.854
-9.067
-10.322
-11.615
-12.946
-14.311
-15.707
-17.131
-18.577
-20.041
-21.517
-22.997
-24.475
-25.942
-27.391
-28.813
-30.196
-31.533
-32.811
-34.021
-35.152
-36.194
-37.136
-37.968
-38.68
-39.264
-39.71
-40.01
-40.158
-40.146
-39.969
-39.622
-39.102
-38.408
-37.539
-36.498
-35.291
-33.922
-32.399
-30.735
-28.939
-27.026
-25.01
-22.904
-20.723
-18.485
-16.21
-13.922
-11.642
-9.393
-7.198
-5.083
-3.075
-1.194
0.537
2.104
3.496
4.697
5.69
6.453
6.965
7.211
7.185
6.88
6.293
5.423
4.277
2.882
1.272
-0.519
-2.463
-4.543
-6.746
-9.047
-11.409
-13.783
-16.114
-18.367
-20.527
-22.591
-24.545
-26.363
-28.027
-29.554
-31.025
-32.556
-34.215
-35.983
-37.889
-40.05
-42.718
-46.298
-51.007
-56.755
-63.435
-71.012
-79.326
-88.106
-96.588
-103.355
-107.381
-108.322
-106.08
-100.744
-92.546
-81.815
-69.879
-59.216
-51.739
-48.631
-50.517
-57.426
-69.553
-85.4
-100.7
-110.693
-110.464
-99.449
-82.496
-60.34
-31.831
8.933
76.075
174.521
303.922
460.141
625.404
783.698
918.361
1008.975
1044.762
1020.13
936.883
805.994
640.979
458.032
274.22
108.366
-22.838
-110.812
-154.874
-164.521
-153.618
-131.227
-104.058
-76.863
-51.87
-34.259
-26.446
-25.082
-27.496
-29.941
-31.557
-35.905
-44.037
-55.578
-68.619
-79.754
-87.785
-92.673
-94.377
-93.619
-91.074
-87.476
-84.118
-81.803
-80.707
-80.924
-82.434
-85.125
-88.885
-93.403
-98.139
-102.754
-107.085
-110.994
-114.398
-117.198
-119.282
-120.644
-121.361
-121.497
-121.089
-120.184
-118.827
-117.121
-115.198
-113.146
-110.999
-108.752
-106.404
-103.991
-101.568
-99.18
-96.84
-94.545
-92.283
-90.056
-87.866
-85.694
-83.493
-81.19
-78.708
-76.009
-73.095
-70.002
-66.757
-63.368
-59.832
-56.15
-52.336
-48.404
-44.352
-40.166
-35.825
-31.326
-26.682
-21.921
-17.069
-12.135
-7.111
-1.977
3.281
8.669
14.189
19.847
25.649
31.596
37.677
43.867
50.141
56.481
62.869
69.294
75.74
82.185
88.606
94.978
101.276
107.475
113.548
119.467
125.203
130.727
136.016
141.05
145.807
150.266
154.406
158.207
161.649
164.715
167.389
169.654
171.495
172.899
173.857
174.362
174.406
173.988
173.105
171.758
169.951
167.689
164.979
161.83
158.254
154.263
149.873
145.1
139.962
134.478
128.67
122.56
116.17
109.526
102.652
95.573
88.317
80.908
73.374
65.742
58.039
50.292
42.527
34.771
27.05
19.391
11.816
4.35
-2.984
-10.166
-17.174
-23.991
-30.599
-36.982
-43.127
-49.019
-54.649
-60.007
-65.085
-69.877
-74.378
-78.586
-82.498
-86.115
-89.437
-92.468
-95.21
-97.668
-99.849
-101.76
-103.409
-104.805
-105.958
-106.878
-107.577
-108.068
-108.362
-108.473
-108.415
-108.2
-107.843
-107.358
-106.76
-106.06
-105.274
-104.414
-103.494
-102.525
-101.52
-100.489
-99.444
-98.394
-97.349
-96.317
-95.307
-94.326
-93.381
-92.478
-91.623
-90.82
-90.075
-89.39
-88.769
-88.214
-87.727
-87.308
-86.959
-86.678
-86.466
-86.32
-86.238
-86.218
-86.257
-86.35
-86.494
-86.684
-86.915
-87.182
-87.48
-87.802
-88.145
-88.501
-88.865
-89.233
-89.597
-89.953
-90.296
-90.619
-90.919
-91.189
-91.426
-91.625
-91.781
-91.891
-91.951
-91.959
-91.91
-91.804
-91.638
-91.411
-91.123
-90.773
-90.363
-89.893
-89.365
-88.782
-88.147
-87.463
-86.735
-85.968
-85.167
-84.336
-83.484
-82.614
-81.735
-80.852
-79.973
-79.104
-78.252
-77.424
-76.626
-75.866
-75.148
-74.481
-73.868
-73.315
-72.827
-72.407
-72.059
-71.786
-71.589
-71.469
-71.426
-71.461
-71.57
-71.753
-72.005
-72.322
-72.699
-73.13
-73.608
-74.124
-74.669
-75.234
-75.808
-76.383
-76.945
-77.484
-77.987
-78.444
-78.842
-79.168
-79.411
-79.559
-79.6
-79.524
-79.321
-78.982
-78.498
-77.862
-77.069
-76.113
-74.992
-73.704
-72.247
-70.624
-68.836
-66.89
-64.789
-62.542
-60.158
-57.65
-55.032
-52.321
-49.533
-46.689
-43.81
-40.917
-38.034
-35.183
-32.386
-29.664
-27.04
-24.537
-22.178
-19.989
-17.992
-16.209
-14.661
-13.366
-12.341
-11.6
-11.148
-10.989
-11.128
-11.571
-12.336
-13.434
-14.869
-16.645
-18.759
-21.201
-23.956
-26.997
-30.276
-33.748
-37.369
-41.097
-44.903
-48.753
-52.602
-56.394
-60.054
-63.512
-66.711
-69.594
-72.107
-74.229
-75.959
-77.338
-78.45
-79.358
-80.12
-80.803
-81.472
-82.217
-83.131
-84.281
-85.768
-87.76
-90.402
-93.743
-97.643
-101.735
-105.584
-108.779
-110.859
-111.26
-109.432
-105.157
-98.913
-91.682
-84.589
-78.813
-75.288
-74.999
-79.261
-87.438
-96.273
-102.651
-102.99
-96.88
-88.295
-76.466
-56.738
-20.591
43.495
138.221
258.322
394.436
536.182
677.561
811.443
926.69
1006.426
1030.786
991.38
891.661
745.712
576.298
399.87
229.126
76.424
-48.626
-134.371
-173.416
-166.784
-125.361
-67.916
-13.952
18.982
25.271
10.34
-15.194
-36.619
-47.497
-49.699
-47.825
-48.736
-54.033
-61.006
-67.342
-70.57
-70.121
-66.992
-61.619
-54.785
-47.751
-41.34
-36.089
-32.272
-29.74
-28.395
-28.421
-29.772
-32.103
-35.086
-38.396
-41.825
-45.336
-48.83
-52.097
-54.952
-57.288
-59.051
-60.248
-60.885
-60.942
-60.416
-59.334
-57.751
-55.734
-53.344
-50.637
-47.661
-44.479
-41.159
-37.775
-34.402
-31.092
-27.878
-24.778
-21.798
-18.936
-16.187
-13.536
-10.958
-8.428
-5.928
-3.44
-0.951
1.555
4.097
6.695
9.371
12.141
15.018
18.016
21.144
24.413
27.827
31.391
35.107
38.976
43.001
47.184
51.527
56.032
60.698
65.522
70.502
75.633
80.907
86.316
91.847
97.487
103.223
109.038
114.915
120.834
126.776
132.72
138.642
144.52
150.33
156.046
161.643
167.096
172.378
177.465
182.331
186.953
191.306
195.369
199.12
202.539
205.606
208.305
210.619
212.532
214.033
215.109
215.751
215.951
215.704
215.005
213.854
212.251
210.199
207.703
204.77
201.408
197.63
193.448
188.877
183.933
178.636
173.005
167.062
160.832
154.337
147.604
140.659
133.528
126.239
118.819
111.295
103.695
96.046
88.376
80.712
73.078
65.502
58.008
50.62
43.361
36.253
29.318
22.574
16.039
9.731
3.664
-2.148
-7.693
-12.96
-17.942
-22.631
-27.023
-31.115
-34.905
-38.395
-41.587
-44.485
-47.096
-49.425
-51.482
-53.276
-54.818
-56.118
-57.191
-58.048
-58.704
-59.172
-59.469
-59.608
-59.605
-59.476
-59.236
-58.9
-58.484
-58.002
-57.469
-56.899
-56.305
-55.701
-55.099
-54.51
-53.945
-53.415
-52.927
-52.49
-52.109
-51.791
-51.539
-51.356
-51.245
-51.207
-51.241
-51.347
-51.523
-51.767
-52.075
-52.444
-52.87
-53.347
-53.869
-54.431
-55.027
-55.65
-56.294
-56.952
-57.617
-58.283
-58.942
-59.589
-60.217
-60.819
-61.389
-61.921
-62.411
-62.853
-63.243
-63.578
-63.854
-64.07
-64.224
-64.315
-64.342
-64.308
-64.211
-64.055
-63.842
-63.576
-63.258
-62.895
-62.491
-62.05
-61.579
-61.083
-60.568
-60.04
-59.505
-58.97
-58.441
-57.925
-57.427
-56.956
-56.516
-56.114
-55.757
-55.449
-55.198
-55.006
-54.88
-54.823
-54.838
-54.928
-55.097
-55.345
-55.674
-56.082
-56.571
-57.137
-57.78
-58.495
-59.278
-60.124
-61.029
-61.985
-62.987
-64.026
-65.096
-66.188
-67.293
-68.403
-69.508
-70.598
-71.662
-72.691
-73.673
-74.598
-75.455
-76.234
-76.923
-77.513
-77.993
-78.354
-78.585
-78.678
-78.623
-78.413
-78.041
-77.502
-76.791
-75.903
-74.838
-73.595
-72.173
-70.576
-68.805
-66.866
-64.764
-62.506
-60.1
-57.556
-54.884
-52.1
-49.217
-46.255
-43.229
-40.161
-37.07
-33.978
-30.91
-27.888
-24.931
-22.062
-19.301
-16.672
-14.198
-11.902
-9.804
-7.923
-6.276
-4.881
-3.755
-2.912
-2.358
-2.093
-2.121
-2.448
-3.092
-4.065
-5.376
-7.027
-9.014
-11.334
-13.981
-16.938
-20.17
-23.634
-27.283
-31.07
-34.959
-38.923
-42.921
-46.9
-50.792
-54.51
-57.974
-61.135
-63.946
-66.384
-68.464
-70.165
-71.502
-72.625
-73.679
-74.823
-76.252
-77.962
-79.885
-82.195
-85.112
-88.628
-92.751
-97.205
-101.448
-105.439
-109.224
-112.442
-114.681
-115.673
-115.114
-113.452
-111.833
-110.69
-110.507
-112.168
-116.238
-123.496
-133.933
-144.948
-153.056
-155.514
-151.76
-145.086
-137.867
-127.898
-107.125
-62.232
15.786
126.79
261.74
405.449
546.714
680.18
802.67
908.993
985.923
1015.95
984.35
886.084
730.643
538.565
337.612
154.208
7.028
-93.374
-149.716
-170.829
-165.926
-147.653
-122.771
-97.347
-81.24
-76.721
-84.434
-101.08
-115.526
-122.676
-121.609
-113.88
-106.111
-101.161
-98.569
-97.956
-97.399
-96.24
-95.164
-94.143
-93.344
-93.033
-92.96
-92.742
-92.169
-91.054
-89.517
-88.151
-87.331
-87.148
-87.709
-89.076
-91.239
-94.165
-97.615
-101.094
-104.23
-106.83
-108.782
-110.081
-110.729
-110.701
-110.032
-108.827
-107.178
-105.154
-102.801
-100.132
-97.172
-93.984
-90.64
-87.217
-83.789
-80.399
-77.07
-73.816
-70.64
-67.536
-64.49
-61.481
-58.482
-55.47
-52.43
-49.352
-46.224
-43.03
-39.748
-36.355
-32.83
-29.158
-25.325
-21.32
-17.137
-12.768
-8.21
-3.463
1.47
6.59
11.897
17.39
23.068
28.928
34.965
41.172
47.54
54.06
60.717
67.498
74.384
81.357
88.396
95.482
102.59
109.697
116.778
123.807
130.758
137.603
144.316
150.868
157.231
163.379
169.284
174.92
180.26
185.281
189.959
194.271
198.197
201.717
204.813
207.469
209.67
211.404
212.66
213.429
213.705
213.484
212.765
211.548
209.837
207.638
204.958
201.809
198.202
194.153
189.676
184.791
179.518
173.878
167.896
161.594
155.001
148.143
141.048
133.744
126.262
118.631
110.882
103.043
95.145
87.219
79.292
71.395
63.555
55.801
48.159
40.654
33.311
26.153
19.201
12.476
5.996
-0.224
-6.166
-11.819
-17.17
-22.211
-26.932
-31.329
-35.396
-39.133
-42.538
-45.614
-48.363
-50.791
-52.904
-54.711
-56.221
-57.444
-58.394
-59.082
-59.523
-59.732
-59.724
-59.515
-59.122
-58.562
-57.852
-57.009
-56.051
-54.995
-53.858
-52.656
-51.406
-50.123
-48.823
-47.52
-46.228
-44.961
-43.731
-42.548
-41.424
-40.368
-39.387
-38.489
-37.679
-36.961
-36.34
-35.817
-35.392
-35.068
-34.842
-34.712
-34.677
-34.733
-34.875
-35.1
-35.4
-35.771
-36.206
-36.699
-37.241
-37.826
-38.445
-39.093
-39.759
-40.437
-41.119
-41.796
-42.462
-43.109
-43.729
-44.315
-44.862
-45.363
-45.813
-46.208
-46.544
-46.817
-47.026
-47.169
-47.245
-47.253
-47.194
-47.07
-46.882
-46.632
-46.323
-45.958
-45.541
-45.077
-44.57
-44.024
-43.447
-42.843
-42.218
-41.579
-40.932
-40.283
-39.639
-39.007
-38.394
-37.807
-37.253
-36.738
-36.269
-35.853
-35.495
-35.2
-34.972
-34.817
-34.736
-34.733
-34.81
-34.968
-35.206
-35.526
-35.925
-36.404
-36.958
-37.586
-38.284
-39.047
-39.87
-40.747
-41.672
-42.636
-43.634
-44.655
-45.693
-46.737
-47.778
-48.806
-49.811
-50.782
-51.706
-52.574
-53.374
-54.093
-54.72
-55.245
-55.658
-55.948
-56.107
-56.126
-55.998
-55.716
-55.276
-54.672
-53.901
-52.961
-51.851
-50.571
-49.125
-47.515
-45.746
-43.826
-41.765
-39.574
-37.264
-34.851
-32.348
-29.774
-27.144
-24.478
-21.793
-19.107
-16.44
-13.811
-11.242
-8.755
-6.373
-4.119
-2.012
-0.074
1.675
3.219
4.546
5.647
6.511
7.127
7.476
7.543
7.318
6.791
5.959
4.824
3.394
1.691
-0.248
-2.384
-4.676
-7.088
-9.593
-12.158
-14.745
-17.309
-19.79
-22.134
-24.292
-26.22
-27.872
-29.224
-30.281
-31.086
-31.732
-32.31
-32.885
-33.531
-34.326
-35.368
-36.763
-38.611
-40.966
-43.911
-47.616
-52.178
-57.589
-63.696
-70.091
-76.305
-81.945
-86.533
-89.417
-90.112
-88.444
-84.652
-79.55
-74.202
-69.541
-66.429
-66.115
-68.89
-73.12
-76.658
-76.622
-71.571
-64.386
-57.305
-48.432
-32.061
3.694
70.167
169.318
297.596
445.039
597.016
743.609
872.053
967.518
1019.953
1018.109
960.534
855.715
711.792
543.729
366.039
190.821
36.135
-83.865
-162.912
-199.231
-200.808
-181.952
-152.487
-122.442
-101.463
-90.565
-90.107
-96.539
-99.42
-94.743
-82.525
-65.617
-51.859
-44.734
-43.468
-46.586
-51.349
-56.489
-62.112
-67.565
-72.017
-75.013
-76.31
-76.072
-74.657
-72.27
-69.259
-66.388
-64.371
-63.558
-64.053
-65.691
-68.174
-71.297
-74.764
-78.102
-80.976
-83.207
-84.712
-85.555
-85.808
-85.492
-84.67
-83.44
-81.864
-80.002
-77.895
-75.555
-73.027
-70.379
-67.677
-64.996
-62.382
-59.854
-57.426
-55.1
-52.869
-50.721
-48.634
-46.583
-44.547
-42.513
-40.462
-38.382
-36.251
-34.043
-31.734
-29.298
-26.713
-23.962
-21.03
-17.904
-14.576
-11.038
-7.287
-3.32
0.866
5.272
9.901
14.753
19.826
25.116
30.616
36.32
42.216
48.291
54.53
60.916
67.43
74.05
80.755
87.519
94.318
101.125
107.911
114.648
121.307
127.858
134.269
140.512
146.555
152.369
157.925
163.194
168.15
172.766
177.019
180.886
184.347
187.383
189.977
192.114
193.783
194.973
195.676
195.886
195.6
194.818
193.54
191.773
189.522
186.798
183.612
179.977
175.911
171.432
166.558
161.312
155.717
149.798
143.58
137.092
130.361
123.416
116.287
109.004
101.596
94.094
86.526
78.922
71.309
63.715
56.167
48.69
41.309
34.046
26.925
19.966
13.188
6.609
0.245
-5.889
-11.78
-17.417
-22.792
-27.895
-32.721
-37.266
-41.527
-45.502
-49.192
-52.599
-55.725
-58.577
-61.16
-63.481
-65.55
-67.376
-68.968
-70.339
-71.498
-72.458
-73.23
-73.827
-74.259
-74.54
-74.682
-74.695
-74.592
-74.383
-74.081
-73.694
-73.233
-72.708
-72.126
-71.497
-70.828
-70.126
-69.399
-68.652
-67.89
-67.119
-66.343
-65.565
-64.789
-64.017
-63.25
-62.489
-61.736
-60.99
-60.251
-59.518
-58.793
-58.073
-57.359
-56.65
-55.945
-55.245
-54.548
-53.854
-53.164
-52.478
-51.797
-51.121
-50.451
-49.789
-49.136
-48.493
-47.862
-47.244
-46.642
-46.056
-45.49
-44.944
-44.422
-43.926
-43.458
-43.021
-42.617
-42.25
-41.921
-41.634
-41.391
-41.194
-41.046
-40.949
-40.905
-40.916
-40.982
-41.105
-41.284
-41.519
-41.81
-42.157
-42.557
-43.01
-43.515
-44.069
-44.671
-45.319
-46.011
-46.745
-47.52
-48.331
-49.178
-50.056
-50.962
-51.893
-52.847
-53.819
-54.807
-55.807
-56.815
-57.829
-58.844
-59.857
-60.864
-61.861
-62.844
-63.809
-64.754
-65.676
-66.573
-67.441
-68.281
-69.088
-69.862
-70.599
-71.296
-71.95
-72.557
-73.112
-73.61
-74.047
-74.419
-74.723
-74.955
-75.112
-75.195
-75.201
-75.13
-74.98
-74.748
-74.43
-74.023
-73.521
-72.919
-72.214
-71.403
-70.485
-69.46
-68.329
-67.097
-65.764
-64.331
-62.795
-61.149
-59.391
-57.526
-55.562
-53.516
-51.413
-49.286
-47.167
-45.094
-43.095
-41.192
-39.392
-37.692
-36.088
-34.572
-33.149
-31.837
-30.654
-29.61
-28.708
-27.943
-27.289
-26.709
-26.155
-25.564
-24.9
-24.143
-23.307
-22.44
-21.6
-20.855
-20.258
-19.839
-19.614
-19.596
-19.792
-20.202
-20.85
-21.773
-23.023
-24.68
-26.775
-29.314
-32.265
-35.551
-39.099
-42.813
-46.585
-50.321
-53.944
-57.393
-60.698
-63.9
-66.942
-69.842
-72.67
-75.527
-78.758
-82.684
-87.33
-92.738
-98.976
-105.801
-112.924
-119.803
-125.169
-127.88
-127.455
-123.552
-116.193
-106.081
-93.866
-80.741
-69.177
-61.535
-59.268
-63.285
-73.769
-90.032
-111.143
-135.36
-158.186
-173.686
-178.233
-169.336
-146.47
-112.34
-64.262
2.2
87.327
193.02
313.448
438.086
564.264
686.108
797.312
892.375
952.931
961.588
910.587
797.542
636.479
450.919
261.218
88.771
-49.255
-144.627
-192.979
-196.448
-168.009
-123.939
-80.671
-55.016
-52.04
-67.28
-92.555
-114.009
-124.588
-125.435
-120.304
-116.406
-117.001
-120.474
-124.356
-125.735
-123.708
-119.235
-113.341
-106.98
-100.754
-95.051
-90.377
-87.028
-85.042
-84.327
-84.68
-85.933
-87.961
-90.58
-93.579
-96.788
-100.049
-103.212
-106.143
-108.68
-110.701
-112.142
-112.964
-113.157
-112.73
-111.708
-110.141
-108.097
-105.644
-102.841
-99.747
-96.416
-92.916
-89.322
-85.708
-82.145
-78.682
-75.348
-72.16
-69.126
-66.24
-63.491
-60.854
-58.297
-55.795
-53.326
-50.87
-48.409
-45.919
-43.375
-40.752
-38.026
-35.177
-32.186
-29.036
-25.712
-22.204
-18.503
-14.603
-10.501
-6.192
-1.673
3.058
8.005
13.166
18.539
24.121
29.905
35.882
42.041
48.366
54.84
61.446
68.161
74.964
81.829
88.732
95.646
102.54
109.387
116.156
122.814
129.332
135.678
141.82
147.728
153.371
158.721
163.751
168.434
172.746
176.663
180.166
183.235
185.852
188.002
189.674
190.857
191.543
191.727
191.407
190.584
189.261
187.444
185.141
182.364
179.126
175.443
171.332
166.813
161.909
156.641
151.036
145.119
138.92
132.466
125.786
118.911
111.871
104.696
97.415
90.058
82.654
75.233
67.821
60.446
53.134
45.911
38.799
31.821
24.998
18.349
11.891
5.641
-0.388
-6.184
-11.736
-17.035
-22.074
-26.847
-31.35
-35.582
-39.542
-43.231
-46.652
-49.809
-52.707
-55.353
-57.755
-59.92
-61.859
-63.581
-65.097
-66.417
-67.553
-68.517
-69.32
-69.974
-70.492
-70.886
-71.167
-71.347
-71.437
-71.448
-71.39
-71.272
-71.105
-70.896
-70.654
-70.388
-70.103
-69.807
-69.506
-69.205
-68.909
-68.621
-68.345
-68.083
-67.837
-67.608
-67.398
-67.206
-67.034
-66.88
-66.744
-66.626
-66.524
-66.438
-66.364
-66.302
-66.25
-66.205
-66.167
-66.133
-66.101
-66.07
-66.039
-66.005
-65.966
-65.923
-65.872
-65.812
-65.742
-65.661
-65.566
-65.458
-65.336
-65.199
-65.046
-64.879
-64.696
-64.5
-64.289
-64.066
-63.83
-63.583
-63.326
-63.061
-62.789
-62.511
-62.231
-61.949
-61.667
-61.389
-61.114
-60.845
-60.585
-60.334
-60.096
-59.871
-59.663
-59.473
-59.304
-59.158
-59.039
-58.948
-58.888
-58.86
-58.868
-58.912
-58.995
-59.118
-59.283
-59.49
-59.74
-60.035
-60.374
-60.758
-61.185
-61.654
-62.164
-62.713
-63.299
-63.918
-64.569
-65.247
-65.949
-66.67
-67.408
-68.156
-68.91
-69.663
-70.409
-71.141
-71.851
-72.532
-73.176
-73.774
-74.318
-74.8
-75.211
-75.543
-75.787
-75.933
-75.975
-75.902
-75.707
-75.383
-74.921
-74.315
-73.56
-72.651
-71.585
-70.357
-68.965
-67.409
-65.688
-63.802
-61.754
-59.545
-57.181
-54.667
-52.01
-49.219
-46.305
-43.279
-40.157
-36.955
-33.689
-30.379
-27.044
-23.703
-20.38
-17.094
-13.866
-10.715
-7.662
-4.728
-1.934
0.696
3.144
5.388
7.409
9.19
10.715
11.971
12.951
13.651
14.065
14.185
13.993
13.478
12.632
11.451
9.935
8.092
5.937
3.496
0.816
-2.055
-5.071
-8.188
-11.374
-14.595
-17.804
-20.944
-23.947
-26.745
-29.287
-31.525
-33.41
-34.923
-36.08
-36.943
-37.613
-38.187
-38.742
-39.354
-40.108
-41.108
-42.413
-44.078
-46.191
-48.887
-52.302
-56.503
-61.392
-66.654
-72.035
-77.275
-81.719
-84.67
-85.595
-83.948
-80.717
-77.291
-73.432
-69.863
-65.439
-58.964
-53.808
-50.621
-51.096
-57.244
-64.678
-71.967
-76.25
-71.171
-52.906
-14.848
48.701
139.564
257.492
399.075
557.144
719.716
869.825
986.807
1052.616
1056.902
1001.379
897.865
760.107
602.796
437.116
272.575
124.348
6.395
-72.788
-111.734
-121.739
-118.787
-112.783
-108.203
-102.849
-91.349
-73.89
-53.864
-35.187
-22.247
-16.307
-16.508
-21.902
-30.9
-41.739
-52.959
-63.203
-71.341
-76.851
-79.532
-79.434
-76.959
-72.77
-67.643
-62.381
-57.795
-54.391
-52.451
-52.095
-53.212
-55.584
-58.939
-62.925
-67.106
-71.154
-74.833
-77.951
-80.447
-82.292
-83.454
-83.954
-83.843
-83.155
-81.933
-80.223
-78.05
-75.456
-72.498
-69.232
-65.731
-62.068
-58.309
-54.52
-50.747
-47.02
-43.357
-39.768
-36.25
-32.799
-29.4
-26.034
-22.685
-19.339
-15.98
-12.592
-9.157
-5.655
-2.067
1.624
5.431
9.365
13.437
17.653
22.018
26.538
31.211
36.04
41.023
46.161
51.453
56.898
62.492
68.23
74.106
80.113
86.24
92.475
98.805
105.214
111.685
118.198
124.734
131.271
137.785
144.254
150.652
156.955
163.135
169.167
175.024
180.68
186.11
191.288
196.189
200.789
205.066
208.997
212.562
215.743
218.521
220.882
222.812
224.297
225.33
225.9
226.003
225.633
224.791
223.475
221.689
219.439
216.732
213.578
209.987
205.976
201.558
196.752
191.578
186.056
180.209
174.059
167.633
160.954
154.051
146.949
139.676
132.26
124.729
117.109
109.429
101.716
93.995
86.292
78.633
71.041
63.539
56.15
48.893
41.79
34.857
28.112
21.57
15.244
9.148
3.291
-2.317
-7.669
-12.76
-17.586
-22.143
-26.431
-30.45
-34.202
-37.689
-40.917
-43.891
-46.616
-49.102
-51.355
-53.386
-55.203
-56.817
-58.239
-59.478
-60.547
-61.456
-62.215
-62.837
-63.331
-63.708
-63.979
-64.153
-64.241
-64.251
-64.191
-64.071
-63.897
-63.677
-63.416
-63.12
-62.795
-62.444
-62.073
-61.683
-61.279
-60.861
-60.431
-59.991
-59.542
-59.083
-58.614
-58.135
-57.645
-57.144
-56.631
-56.104
-55.564
-55.009
-54.439
-53.853
-53.252
-52.634
-52.001
-51.352
-50.689
-50.012
-49.322
-48.621
-47.911
-47.194
-46.472
-45.75
-45.029
-44.313
-43.606
-42.911
-42.233
-41.576
-40.945
-40.344
-39.778
-39.252
-38.771
-38.341
-37.965
-37.65
-37.398
-37.215
-37.104
-37.069
-37.112
-37.238
-37.448
-37.745
-38.13
-38.605
-39.172
-39.83
-40.58
-41.421
-42.352
-43.372
-44.479
-45.671
-46.945
-48.298
-49.725
-51.223
-52.788
-54.413
-56.093
-57.822
-59.591
-61.395
-63.226
-65.073
-66.931
-68.789
-70.64
-72.475
-74.285
-76.061
-77.794
-79.475
-81.096
-82.647
-84.12
-85.503
-86.79
-87.971
-89.038
-89.983
-90.798
-91.476
-92.009
-92.391
-92.615
-92.676
-92.569
-92.288
-91.829
-91.191
-90.371
-89.369
-88.186
-86.822
-85.282
-83.568
-81.687
-79.643
-77.444
-75.098
-72.612
-69.998
-67.266
-64.428
-61.498
-58.491
-55.426
-52.32
-49.194
-46.067
-42.96
-39.896
-36.895
-33.98
-31.167
-28.477
-25.927
-23.537
-21.33
-19.324
-17.538
-15.986
-14.686
-13.648
-12.886
-12.406
-12.208
-12.289
-12.652
-13.3
-14.25
-15.512
-17.088
-18.979
-21.178
-23.674
-26.454
-29.489
-32.732
-36.131
-39.638
-43.207
-46.809
-50.404
-53.94
-57.353
-60.561
-63.493
-66.093
-68.315
-70.116
-71.476
-72.398
-72.925
-73.138
-73.132
-73.005
-72.858
-72.806
-72.97
-73.457
-74.401
-75.977
-78.304
-81.438
-85.295
-89.568
-93.905
-97.997
-101.421
-103.681
-104.391
-103.258
-100.441
-96.803
-93.254
-90.52
-89.481
-90.909
-95.285
-103.217
-113.379
-121.696
-124.47
-118.162
-101.849
-79.903
-54.619
-24.889
13.461
72.051
160.111
279.641
428.355
593.32
756.486
900.126
1004.588
1054.954
1043.6
970.604
844.481
679.601
493.334
302.324
123.363
-27.221
-136.923
-198.791
-214.972
-197.905
-166.133
-137.108
-121.433
-120.399
-126.381
-128.951
-121.869
-104.4
-81.519
-61.451
-49.221
-45.68
-49.133
-56.017
-63.909
-72.214
-80.477
-87.985
-93.93
-97.737
-99.294
-98.993
-97.463
-95.1
-92.384
-90.127
-88.918
-89.039
-90.572
-93.279
-96.812
-100.923
-105.264
-109.354
-112.883
-115.675
-117.644
-118.856
-119.367
-119.194
-118.407
-117.097
-115.332
-113.173
-110.666
-107.831
-104.721
-101.412
-97.984
-94.519
-91.072
-87.673
-84.344
-81.095
-77.932
-74.851
-71.837
-68.873
-65.944
-63.04
-60.152
-57.273
-54.384
-51.464
-48.493
-45.448
-42.309
-39.061
-35.691
-32.185
-28.536
-24.733
-20.772
-16.65
-12.359
-7.894
-3.25
1.579
6.595
11.799
17.19
22.767
28.524
34.454
40.548
46.794
53.179
59.689
66.307
73.015
79.793
86.619
93.47
100.323
107.151
113.928
120.625
127.215
133.667
139.953
146.042
151.906
157.513
162.837
167.849
172.522
176.831
180.751
184.259
187.335
189.958
192.113
193.783
194.957
195.624
195.777
195.41
194.522
193.113
191.185
188.745
185.8
182.361
178.442
174.058
169.227
163.969
158.307
152.264
145.868
139.146
132.128
124.844
117.327
109.61
101.726
93.71
85.596
77.417
69.209
61.005
52.837
44.738
36.739
28.869
21.157
13.63
6.313
-0.77
-7.598
-14.151
-20.411
-26.363
-31.994
-37.292
-42.249
-46.859
-51.117
-55.02
-58.57
-61.768
-64.618
-67.128
-69.305
-71.16
-72.704
-73.952
-74.917
-75.618
-76.069
-76.29
-76.298
-76.113
-75.754
-75.239
-74.587
-73.817
-72.948
-71.998
-70.983
-69.92
-68.826
-67.714
-66.599
-65.493
-64.406
-63.35
-62.333
-61.362
-60.445
-59.586
-58.789
-58.056
-57.39
-56.79
-56.255
-55.783
-55.369
-55.009
-54.698
-54.429
-54.196
-53.992
-53.808
-53.637
-53.471
-53.303
-53.125
-52.928
-52.707
-52.454
-52.163
-51.828
-51.444
-51.007
-50.513
-49.959
-49.343
-48.665
-47.923
-47.119
-46.253
-45.327
-44.344
-43.307
-42.221
-41.091
-39.922
-38.722
-37.497
-36.255
-35.005
-33.756
-32.517
-31.296
-30.102
-28.946
-27.836
-26.781
-25.79
-24.87
-24.031
-23.28
-22.625
-22.07
-21.623
-21.289
-21.07
-20.972
-20.997
-21.145
-21.419
-21.819
-22.343
-22.992
-23.762
-24.651
-25.654
-26.766
-27.983
-29.296
-30.698
-32.182
-33.737
-35.355
-37.026
-38.738
-40.481
-42.245
-44.016
-45.784
-47.535
-49.258
-50.939
-52.565
-54.125
-55.606
-56.995
-58.283
-59.457
-60.507
-61.423
-62.197
-62.819
-63.28
-63.574
-63.693
-63.633
-63.388
-62.955
-62.333
-61.52
-60.516
-59.323
-57.944
-56.383
-54.645
-52.735
-50.662
-48.434
-46.06
-43.552
-40.924
-38.189
-35.366
-32.473
-29.529
-26.555
-23.572
-20.603
-17.668
-14.791
-11.989
-9.282
-6.689
-4.231
-1.927
0.2
2.133
3.853
5.342
6.584
7.566
8.276
8.711
8.869
8.747
8.339
7.628
6.603
5.259
3.593
1.607
-0.689
-3.281
-6.14
-9.215
-12.455
-15.81
-19.233
-22.693
-26.153
-29.565
-32.878
-36.022
-38.935
-41.575
-43.899
-45.863
-47.459
-48.702
-49.654
-50.428
-51.122
-51.823
-52.628
-53.633
-54.943
-56.666
-58.878
-61.662
-65.159
-69.486
-74.67
-80.581
-86.885
-93.162
-98.994
-103.906
-107.294
-108.528
-107.28
-103.85
-98.958
-93.514
-88.548
-84.92
-83.693
-86.384
-92.496
-98.942
-102.951
-101.189
-93.737
-85.436
-75.885
-60.481
-30.365
27.514
117.37
234.496
369.734
512.08
653.814
787.549
902.61
980.879
1002.481
956.887
843.664
678.017
485.326
289.356
112.766
-28.669
-127.238
-182.093
-198.678
-185.137
-153.762
-113.835
-74.828
-48.972
-39.402
-46.696
-66.692
-86.578
-100.536
-107.312
-107.526
-107.513
-109.834
-112.999
-115.77
-115.84
-112.257
-106.058
-98.567
-90.901
-83.874
-78.028
-73.522
-70.376
-68.656
-68.258
-68.896
-70.373
-72.476
-74.94
-77.663
-80.522
-83.325
-85.924
-88.166
-89.926
-91.147
-91.801
-91.862
-91.329
-90.222
-88.58
-86.472
-83.964
-81.111
-77.971
-74.596
-71.051
-67.413
-63.759
-60.163
-56.681
-53.345
-50.177
-47.184
-44.363
-41.706
-39.189
-36.782
-34.459
-32.197
-29.978
-27.784
-25.593
-23.382
-21.126
-18.801
-16.387
-13.865
-11.217
-8.429
-5.488
-2.386
0.886
4.331
7.954
11.759
15.75
19.931
24.303
28.865
33.613
38.544
43.651
48.923
54.348
59.912
65.597
71.387
77.26
83.195
89.17
95.159
101.137
107.078
112.954
118.737
124.399
129.912
135.246
140.374
145.269
149.902
154.248
158.283
161.983
165.327
168.295
170.868
173.03
174.767
176.068
176.923
177.324
177.267
176.748
175.767
174.327
172.433
170.091
167.31
164.1
160.476
156.452
152.046
147.275
142.16
136.722
130.985
124.974
118.712
112.228
105.546
98.696
91.704
84.598
77.406
70.155
62.872
55.583
48.314
41.089
33.933
26.867
19.913
13.091
6.42
-0.083
-6.4
-12.518
-18.422
-24.1
-29.54
-34.733
-39.671
-44.345
-48.752
-52.885
-56.744
-60.326
-63.631
-66.66
-69.417
-71.905
-74.129
-76.095
-77.809
-79.281
-80.519
-81.531
-82.329
-82.922
-83.321
-83.536
-83.579
-83.459
-83.189
-82.779
-82.239
-81.58
-80.813
-79.949
-78.998
-77.97
-76.876
-75.726
-74.53
-73.297
-72.036
-70.756
-69.464
-68.17
-66.878
-65.597
-64.332
-63.088
-61.869
-60.68
-59.524
-58.403
-57.319
-56.274
-55.268
-54.304
-53.38
-52.499
-51.659
-50.861
-50.105
-49.39
-48.716
-48.083
-47.49
-46.935
-46.418
-45.937
-45.491
-45.083
-44.708
-44.363
-44.045
-43.749
-43.476
-43.228
-43.003
-42.79
-42.594
-42.433
-42.319
-42.269
-42.283
-42.334
-42.421
-42.574
-42.77
-42.948
-43.063
-43.06
-42.939
-42.781
-42.606
-42.329
-42.048
-42.071
-42.452
-43.105
-44.071
-45.002
-46.576
-50.703
-56.856
-63.325
-67.115
-62.757
-50.897
-36.938
-26.374
-26.989
-38.845
-54.66
-68.835
-75.187
-72.976
-67.66
-62.48
-59.772
-60.09
-61.186
-62.115
-62.928
-63.55
-64.32
-65.294
-66.166
-66.847
-67.38
-67.75
-67.938
-67.95
-67.793
-67.49
-67.089
-66.598
-65.991
-65.257
-64.396
-63.408
-62.295
-61.054
-59.681
-58.177
-56.548
-54.801
-52.941
-50.974
-48.906
-46.743
-44.494
-42.168
-39.774
-37.324
-34.831
-32.31
-29.774
-27.239
-24.722
-22.237
-19.802
-17.433
-15.142
-12.943
-10.85
-8.877
-7.041
-5.357
-3.837
-2.496
-1.344
-0.391
0.353
0.882
1.198
1.302
1.193
0.867
0.307
-0.498
-1.552
-2.857
-4.41
-6.203
-8.227
-10.458
-12.854
-15.371
-17.963
-20.589
-23.222
-25.825
-28.352
-30.746
-32.932
-34.844
-36.434
-37.665
-38.509
-38.953
-39.005
-38.711
-38.156
-37.441
-36.68
-35.977
-35.447
-35.225
-35.424
-36.189
-37.705
-40.078
-43.345
-47.438
-52.074
-56.893
-61.593
-65.772
-68.946
-70.783
-71.021
-69.728
-67.627
-65.609
-64.394
-64.586
-66.685
-71.057
-78.01
-87.209
-95.856
-99.55
-94.68
-78.971
-54.189
-24.455
10.173
53.288
111.949
194.191
300.59
425.124
558.315
688.441
805.588
900.412
962.404
980.386
946.064
858.387
722.309
552.12
368.587
191.054
40.571
-67.719
-131.125
-151.656
-140.044
-112.889
-81.441
-56.318
-44.125
-42.566
-47.696
-52.777
-51.443
-43.642
-32.725
-24.376
-22.868
-28.085
-37.544
-47.61
-55.756
-61.565
-65.174
-66.591
-65.835
-63.029
-58.641
-53.676
-49.188
-45.681
-43.414
-42.633
-43.356
-45.532
-49.027
-53.408
-58.147
-62.903
-67.411
-71.465
-74.997
-77.938
-80.215
-81.85
-82.891
-83.37
-83.335
-82.819
-81.831
-80.402
-78.578
-76.407
-73.959
-71.307
-68.517
-65.656
-62.773
-59.897
-57.05
-54.244
-51.478
-48.749
-46.039
-43.328
-40.604
-37.852
-35.06
-32.216
-29.301
-26.295
-23.182
-19.948
-16.58
-13.07
-9.409
-5.591
-1.614
2.524
6.819
11.269
15.87
20.622
25.52
30.561
35.739
41.047
46.478
52.023
57.671
63.411
69.227
75.103
81.023
86.967
92.916
98.85
104.747
110.584
116.34
121.989
127.508
132.874
138.063
143.05
147.813
152.328
156.575
160.531
164.178
167.497
170.47
173.084
175.322
177.173
178.626
179.672
180.303
180.514
180.302
179.665
178.603
177.118
175.216
172.903
170.187
167.078
163.59
159.735
155.531
150.993
146.14
140.994
135.574
129.903
124.004
117.901
111.619
105.18
98.611
91.937
85.18
78.367
71.521
64.665
57.822
51.015
44.264
37.589
31.011
24.548
18.216
12.032
6.011
0.168
-5.486
-10.939
-16.18
-21.202
-25.996
-30.557
-34.88
-38.962
-42.801
-46.396
-49.748
-52.858
-55.729
-58.365
-60.77
-62.949
-64.909
-66.655
-68.196
-69.539
-70.691
-71.662
-72.46
-73.092
-73.57
-73.899
-74.091
-74.153
-74.094
-73.923
-73.649
-73.28
-72.826
-72.293
-71.692
-71.029
-70.313
-69.55
-68.749
-67.915
-67.055
-66.175
-65.281
-64.378
-63.47
-62.563
-61.661
-60.768
-59.887
-59.023
-58.177
-57.354
-56.555
-55.784
-55.043
-54.334
-53.661
-53.024
-52.428
-51.872
-51.36
-50.893
-50.472
-50.099
-49.773
-49.496
-49.268
-49.09
-48.961
-48.881
-48.849
-48.867
-48.932
-49.044
-49.202
-49.406
-49.654
-49.945
-50.279
-50.653
-51.068
-51.521
-52.013
-52.541
-53.104
-53.7
-54.328
-54.986
-55.671
-56.382
-57.115
-57.869
-58.641
-59.429
-60.229
-61.041
-61.86
-62.684
-63.51
-64.336
-65.158
-65.974
-66.781
-67.575
-68.353
-69.114
-69.853
-70.567
-71.252
-71.905
-72.522
-73.098
-73.627
-74.106
-74.528
-74.888
-75.182
-75.404
-75.549
-75.612
-75.589
-75.474
-75.262
-74.95
-74.533
-74.007
-73.367
-72.611
-71.737
-70.742
-69.626
-68.387
-67.026
-65.544
-63.943
-62.224
-60.39
-58.445
-56.394
-54.242
-51.996
-49.664
-47.256
-44.783
-42.26
-39.702
-37.125
-34.546
-31.982
-29.454
-26.979
-24.575
-22.258
-20.045
-17.951
-15.994
-14.194
-12.567
-11.13
-9.897
-8.88
-8.092
-7.544
-7.243
-7.186
-7.376
-7.813
-8.506
-9.471
-10.723
-12.264
-14.096
-16.215
-18.61
-21.268
-24.163
-27.248
-30.477
-33.801
-37.178
-40.58
-43.968
-47.29
-50.483
-53.468
-56.174
-58.553
-60.56
-62.163
-63.354
-64.144
-64.575
-64.733
-64.711
-64.603
-64.52
-64.569
-64.859
-65.493
-66.591
-68.328
-70.82
-74.092
-78.012
-82.232
-86.373
-90.129
-93.117
-94.84
-94.916
-93.136
-89.761
-85.755
-82.071
-79.361
-78.391
-79.857
-84.266
-92.135
-101.715
-108.792
-109.948
-101.838
-84.676
-63.299
-38.084
-7.174
35.066
100.991
194.873
315.047
455.543
600.429
736.746
852.44
933.839
971.318
954.869
880.193
750.657
577.842
383.737
191.936
27.06
-93.346
-165.91
-195.308
-196.358
-184.234
-167.714
-153.332
-141.271
-131.481
-124.55
-117.599
-109.389
-98.55
-85.411
-74.288
-67.98
-67.658
-72.584
-79.495
-86.521
-92.98
-98.183
-102.138
-104.484
-104.735
-103.152
-100.295
-96.635
-92.735
-89.25
-86.578
-85.079
-84.991
-86.195
-88.47
-91.57
-95.112
-98.648
-101.853
-104.492
-106.436
-107.697
-108.289
-108.219
-107.548
-106.356
-104.718
-102.693
-100.319
-97.612
-94.605
-91.364
-87.963
-84.484
-81.001
-77.561
-74.194
-70.92
-67.75
-64.687
-61.723
-58.84
-56.015
-53.233
-50.483
-47.754
-45.034
-42.302
-39.536
-36.712
-33.808
-30.806
-27.691
-24.448
-21.065
-17.532
-13.843
-9.992
-5.976
-1.79
2.57
7.111
11.835
16.743
21.836
27.11
32.562
38.186
43.972
49.911
55.989
62.191
68.501
74.902
81.374
87.895
94.444
100.997
107.527
114.009
120.416
126.719
132.89
138.9
144.72
150.321
155.675
160.754
165.531
169.98
174.077
177.797
181.119
184.022
186.488
188.501
190.047
191.114
191.692
191.775
191.36
190.443
189.028
187.116
184.715
181.832
178.478
174.668
170.415
165.737
160.656
155.192
149.369
143.213
136.752
130.013
123.026
115.823
108.434
100.892
93.23
85.48
77.674
69.845
62.026
54.246
46.537
38.927
31.443
24.113
16.96
10.008
3.277
-3.212
-9.442
-15.398
-21.065
-26.432
-31.488
-36.226
-40.64
-44.727
-48.484
-51.912
-55.014
-57.794
-60.257
-62.413
-64.27
-65.839
-67.134
-68.167
-68.955
-69.512
-69.857
-70.005
-69.975
-69.784
-69.451
-68.992
-68.424
-67.765
-67.031
-66.237
-65.399
-64.53
-63.644
-62.754
-61.871
-61.006
-60.17
-59.37
-58.615
-57.91
-57.261
-56.673
-56.149
-55.69
-55.297
-54.97
-54.708
-54.507
-54.366
-54.278
-54.24
-54.244
-54.285
-54.357
-54.451
-54.562
-54.683
-54.806
-54.925
-55.034
-55.127
-55.199
-55.244
-55.259
-55.238
-55.179
-55.079
-54.935
-54.746
-54.512
-54.231
-53.905
-53.534
-53.119
-52.665
-52.172
-51.646
-51.09
-50.51
-49.911
-49.3
-48.683
-48.068
-47.463
-46.875
-46.313
-45.783
-45.294
-44.852
-44.466
-44.14
-43.882
-43.696
-43.588
-43.562
-43.622
-43.77
-44.007
-44.336
-44.756
-45.267
-45.866
-46.553
-47.322
-48.171
-49.095
-50.089
-51.146
-52.26
-53.422
-54.625
-55.858
-57.112
-58.376
-59.637
-60.884
-62.104
-63.285
-64.415
-65.481
-66.47
-67.37
-68.171
-68.859
-69.425
-69.857
-70.147
-70.286
-70.265
-70.079
-69.722
-69.191
-68.482
-67.596
-66.53
-65.287
-63.868
-62.277
-60.517
-58.595
-56.518
-54.294
-51.933
-49.448
-46.853
-44.165
-41.403
-38.585
-35.73
-32.861
-30.002
-27.176
-24.409
-21.72
-19.131
-16.662
-14.335
-12.173
-10.197
-8.421
-6.858
-5.522
-4.427
-3.588
-3.016
-2.712
-2.671
-2.889
-3.367
-4.118
-5.153
-6.476
-8.085
-9.975
-12.143
-14.587
-17.295
-20.233
-23.355
-26.6
-29.913
-33.255
-36.596
-39.911
-43.16
-46.271
-49.156
-51.73
-53.93
-55.72
-57.1
-58.047
-58.52
-58.561
-58.336
-58.158
-58.361
-59.134
-60.439
-62.16
-64.389
-67.28
-70.778
-74.454
-77.549
-79.448
-80.112
-79.905
-78.896
-76.853
-73.636
-69.645
-66.237
-64.912
-66.358
-70.629
-77.697
-87.815
-101.637
-117.974
-132.693
-141.789
-141.837
-133.294
-121.301
-106.754
-85.891
-50.047
12.994
107.135
227.65
364.248
504.835
642.47
770.885
881.97
962.86
995.786
971.545
890.759
763.21
609.33
446.496
288.444
150.002
39.665
-38.155
-83.033
-104.633
-114.674
-119.756
-123.059
-122.257
-113.135
-97.008
-77.738
-59.2
-45.566
-37.984
-35.716
-38.522
-45.405
-54.638
-64.637
-73.923
-81.21
-86.138
-88.736
-88.693
-86.102
-81.573
-75.837
-69.838
-64.542
-60.356
-57.427
-56.021
-56.158
-57.707
-60.485
-64.078
-67.995
-71.947
-75.735
-79.169
-82.15
-84.593
-86.422
-87.651
-88.337
-88.512
-88.204
-87.435
-86.221
-84.599
-82.624
-80.35
-77.836
-75.143
-72.326
-69.444
-66.554
-63.694
-60.887
-58.144
-55.466
-52.845
-50.27
-47.726
-45.19
-42.641
-40.06
-37.425
-34.717
-31.914
-28.995
-25.941
-22.733
-19.355
-15.795
-12.043
-8.09
-3.933
0.431
5.005
9.785
14.769
19.956
25.341
30.919
36.684
42.627
48.739
55.007
61.417
67.952
74.596
81.325
88.12
94.956
101.808
108.65
115.456
122.196
128.841
135.363
141.73
147.913
153.882
159.608
165.061
170.214
175.04
179.515
183.614
187.317
190.603
193.454
195.855
197.791
199.252
200.228
200.713
200.701
200.193
199.187
197.688
195.701
193.236
190.303
186.916
183.091
178.846
174.202
169.18
163.805
158.102
152.099
145.825
139.308
132.58
125.67
118.611
111.433
104.168
96.845
89.496
82.149
74.833
67.576
60.403
53.341
46.412
39.638
33.041
26.639
20.448
14.484
8.761
3.29
-1.92
-6.86
-11.526
-15.914
-20.021
-23.848
-27.397
-30.672
-33.678
-36.421
-38.911
-41.156
-43.167
-44.955
-46.532
-47.911
-49.104
-50.124
-50.986
-51.703
-52.287
-52.752
-53.111
-53.375
-53.555
-53.664
-53.71
-53.704
-53.654
-53.569
-53.456
-53.32
-53.169
-53.006
-52.835
-52.659
-52.48
-52.299
-52.116
-51.93
-51.741
-51.547
-51.344
-51.132
-50.906
-50.664
-50.402
-50.117
-49.807
-49.468
-49.097
-48.693
-48.253
-47.775
-47.261
-46.708
-46.117
-45.49
-44.828
-44.132
-43.406
-42.652
-41.874
-41.076
-40.263
-39.439
-38.611
-37.783
-36.963
-36.158
-35.374
-34.619
-33.9
-33.225
-32.6
-32.035
-31.535
-31.107
-30.758
-30.494
-30.319
-30.239
-30.259
-30.38
-30.606
-30.939
-31.38
-31.928
-32.584
-33.346
-34.211
-35.179
-36.244
-37.403
-38.652
-39.986
-41.399
-42.884
-44.436
-46.047
-47.709
-49.415
-51.156
-52.922
-54.705
-56.495
-58.283
-60.058
-61.813
-63.536
-65.219
-66.852
-68.427
-69.934
-71.367
-72.717
-73.977
-75.139
-76.198
-77.147
-77.98
-78.691
-79.276
-79.731
-80.05
-80.231
-80.27
-80.163
-79.909
-79.504
-78.947
-78.236
-77.371
-76.35
-75.175
-73.847
-72.368
-70.739
-68.965
-67.049
-64.996
-62.81
-60.498
-58.066
-55.52
-52.87
-50.122
-47.287
-44.375
-41.395
-38.362
-35.288
-32.19
-29.083
-25.984
-22.91
-19.879
-16.911
-14.023
-11.231
-8.553
-6.006
-3.605
-1.37
0.682
2.533
4.168
5.571
6.729
7.629
8.261
8.622
8.71
8.522
8.052
7.285
6.209
4.818
3.107
1.077
-1.263
-3.9
-6.809
-9.946
-13.265
-16.718
-20.262
-23.864
-27.486
-31.085
-34.605
-37.975
-41.127
-44.005
-46.562
-48.754
-50.568
-52.014
-53.145
-54.061
-54.856
-55.621
-56.452
-57.447
-58.713
-60.357
-62.468
-65.147
-68.564
-72.86
-78.066
-84.067
-90.54
-97.076
-103.282
-108.67
-112.559
-114.342
-113.713
-110.878
-106.578
-101.655
-97.005
-93.67
-92.873
-96.017
-102.474
-109.081
-112.851
-110.494
-102.779
-95.145
-87.427
-75.978
-51.139
4.13
96.236
223.575
378.092
539.997
695.683
834.339
942.302
1013.287
1037.401
1006.109
922.309
790.022
621.667
437.429
254.251
93.372
-28.616
-108.469
-147.652
-159.003
-157.867
-149.79
-140.095
-127.889
-110.879
-94.143
-78.463
-65.296
-56.75
-50.352
-47.883
-51.007
-58.402
-69.593
-81.69
-91.594
-98.732
-102.8
-103.658
-101.737
-97.411
-91.282
-84.615
-78.666
-73.996
-70.883
-69.541
-69.908
-71.904
-75.376
-79.826
-84.701
-89.65
-94.41
-98.794
-102.704
-106.027
-108.675
-110.651
-111.998
-112.749
-112.936
-112.576
-111.691
-110.318
-108.516
-106.345
-103.871
-101.161
-98.286
-95.311
-92.299
-89.296
-86.328
-83.411
-80.551
-77.742
-74.972
-72.226
-69.482
-66.72
-63.921
-61.067
-58.137
-55.113
-51.974
-48.701
-45.279
-41.694
-37.934
-33.99
-29.856
-25.528
-21.005
-16.286
-11.375
-6.272
-0.98
4.497
10.156
15.99
21.991
28.151
34.459
40.903
47.467
54.134
60.886
67.702
74.562
81.442
88.32
95.169
101.966
108.685
115.299
121.782
128.109
134.253
140.188
145.89
151.333
156.495
161.353
165.884
170.071
173.892
177.333
180.378
183.012
185.224
187.004
188.345
189.239
189.683
189.674
189.212
188.299
186.94
185.14
182.908
180.254
177.19
173.728
169.886
165.678
161.123
156.24
151.048
145.568
139.822
133.831
127.62
121.211
114.628
107.895
101.034
94.07
87.026
79.925
72.789
65.641
58.5
51.389
44.326
37.332
30.425
23.622
16.942
10.399
4.009
-2.215
-8.26
-14.113
-19.765
-25.207
-30.429
-35.425
-40.188
-44.713
-48.996
-53.033
-56.822
-60.361
-63.651
-66.691
-69.484
-72.03
-74.335
-76.4
-78.23
-79.829
-81.203
-82.358
-83.298
-84.031
-84.563
-84.903
-85.058
-85.036
-84.847
-84.499
-84.002
-83.365
-82.598
-81.71
-80.711
-79.611
-78.42
-77.147
-75.803
-74.397
-72.94
-71.44
-69.907
-68.351
-66.78
-65.203
-63.627
-62.061
-60.512
-58.988
-57.495
-56.04
-54.629
-53.27
-51.966
-50.725
-49.55
-48.445
-47.415
-46.461
-45.587
-44.795
-44.085
-43.459
-42.917
-42.459
-42.085
-41.795
-41.585
-41.456
-41.403
-41.425
-41.517
-41.678
-41.902
-42.186
-42.526
-42.919
-43.358
-43.842
-44.364
-44.921
-45.507
-46.119
-46.751
-47.398
-48.057
-48.721
-49.388
-50.053
-50.712
-51.362
-52
-52.624
-53.23
-53.816
-54.381
-54.923
-55.441
-55.933
-56.399
-56.84
-57.255
-57.645
-58.012
-58.357
-58.68
-58.983
-59.268
-59.535
-59.787
-60.025
-60.249
-60.462
-60.664
-60.858
-61.043
-61.221
-61.393
-61.559
-61.719
-61.872
-62.017
-62.154
-62.28
-62.393
-62.491
-62.571
-62.63
-62.665
-62.672
-62.647
-62.584
-62.479
-62.326
-62.119
-61.853
-61.521
-61.117
-60.636
-60.072
-59.419
-58.673
-57.83
-56.884
-55.833
-54.675
-53.407
-52.027
-50.534
-48.93
-47.216
-45.395
-43.471
-41.451
-39.342
-37.155
-34.9
-32.59
-30.239
-27.861
-25.469
-23.079
-20.707
-18.369
-16.087
-13.878
-11.762
-9.761
-7.895
-6.187
-4.655
-3.316
-2.181
-1.262
-0.567
-0.107
0.105
0.06
-0.256
-0.85
-1.724
-2.88
-4.319
-6.033
-8.006
-10.21
-12.611
-15.178
-17.887
-20.713
-23.633
-26.612
-29.6
-32.553
-35.421
-38.172
-40.799
-43.272
-45.547
-47.593
-49.385
-50.948
-52.394
-53.781
-55.093
-56.395
-57.78
-59.492
-61.969
-65.445
-69.901
-75.3
-81.604
-88.682
-96.368
-103.995
-110.238
-114.151
-115.331
-113.65
-109.294
-102.499
-93.471
-83.324
-74.418
-68.69
-67.202
-70.529
-78.546
-90.96
-107.565
-125.796
-140.27
-146.405
-141.294
-125.304
-101.395
-69.179
-23.329
44.035
137.926
256.576
390.499
526.463
656.863
777.387
883.15
968.507
1019.413
1020.111
964.9
854.292
697.919
515.022
322.134
137.221
-18.988
-135.762
-208.435
-239.652
-243.677
-231.863
-211.915
-190.647
-168.842
-148.501
-131.287
-114.636
-97.332
-77.795
-56.828
-39.372
-28.369
-25.186
-29.109
-36.932
-47.038
-58.65
-70.607
-82.079
-91.826
-98.841
-103.142
-105.079
-104.899
-102.999
-99.93
-96.437
-93.522
-91.797
-91.346
-92.053
-93.656
-95.87
-98.446
-101.031
-103.187
-104.663
-105.385
-105.362
-104.71
-103.521
-101.835
-99.731
-97.295
-94.588
-91.661
-88.556
-85.301
-81.947
-78.559
-75.183
-71.859
-68.61
-65.442
-62.359
-59.354
-56.414
-53.52
-50.662
-47.829
-45.013
-42.204
-39.389
-36.548
-33.666
-30.721
-27.694
-24.567
-21.324
-17.953
-14.442
-10.787
-6.981
-3.02
1.1
5.385
9.838
14.463
19.261
24.233
29.376
34.687
40.161
45.789
51.559
57.46
63.477
69.594
75.795
82.06
88.368
94.699
101.028
107.332
113.586
119.764
125.84
131.787
137.577
143.184
148.58
153.739
158.635
163.243
167.539
171.5
175.105
178.334
181.169
183.593
185.591
187.15
188.258
188.907
189.09
188.802
188.04
186.806
185.102
182.933
180.306
177.232
173.722
169.79
165.452
160.725
155.628
150.182
144.409
138.334
131.98
125.375
118.545
111.517
104.32
96.981
89.531
81.995
74.404
66.784
59.162
51.567
44.024
36.559
29.196
21.961
14.874
7.959
1.234
-5.281
-11.57
-17.617
-23.409
-28.933
-34.181
-39.142
-43.81
-48.181
-52.249
-56.013
-59.473
-62.629
-65.486
-68.045
-70.314
-72.3
-74.008
-75.45
-76.633
-77.57
-78.27
-78.746
-79.01
-79.074
-78.953
-78.659
-78.207
-77.611
-76.885
-76.043
-75.1
-74.068
-72.962
-71.794
-70.576
-69.32
-68.038
-66.741
-65.437
-64.138
-62.852
-61.586
-60.349
-59.146
-57.983
-56.865
-55.795
-54.777
-53.814
-52.908
-52.06
-51.27
-50.54
-49.87
-49.258
-48.705
-48.208
-47.766
-47.376
-47.037
-46.745
-46.497
-46.29
-46.121
-45.986
-45.882
-45.805
-45.752
-45.72
-45.706
-45.706
-45.718
-45.739
-45.766
-45.797
-45.83
-45.863
-45.895
-45.926
-45.955
-45.983
-46.008
-46.032
-46.055
-46.079
-46.103
-46.129
-46.157
-46.19
-46.227
-46.272
-46.326
-46.39
-46.468
-46.561
-46.673
-46.807
-46.964
-47.146
-47.357
-47.598
-47.87
-48.176
-48.518
-48.895
-49.312
-49.768
-50.265
-50.803
-51.384
-52.005
-52.667
-53.366
-54.102
-54.871
-55.671
-56.499
-57.351
-58.225
-59.118
-60.026
-60.945
-61.871
-62.798
-63.722
-64.634
-65.528
-66.395
-67.226
-68.014
-68.752
-69.434
-70.052
-70.601
-71.077
-71.475
-71.789
-72.014
-72.141
-72.16
-72.064
-71.845
-71.492
-71.001
-70.365
-69.58
-68.646
-67.566
-66.34
-64.969
-63.449
-61.772
-59.938
-57.952
-55.819
-53.552
-51.17
-48.698
-46.174
-43.645
-41.141
-38.688
-36.305
-33.991
-31.752
-29.591
-27.503
-25.501
-23.59
-21.768
-20.047
-18.43
-16.902
-15.441
-13.996
-12.504
-10.931
-9.259
-7.482
-5.629
-3.732
-1.843
-0.045
1.592
3.009
4.148
4.975
5.456
5.537
5.168
4.288
2.837
0.784
-1.891
-5.198
-9.116
-13.578
-18.451
-23.559
-28.744
-33.871
-38.852
-43.585
-47.908
-51.775
-55.265
-58.468
-61.528
-64.453
-67.034
-69.223
-71.193
-72.913
-74.234
-75.039
-75.089
-74.574
-74.185
-74.213
-74.532
-75.167
-76.175
-77.619
-79.678
-81.889
-83.251
-83.4
-82.593
-81.339
-80.351
-80.175
-81.472
-84.639
-88.85
-92.672
-94.059
-92.683
-92.031
-94.415
-97.939
-94.693
-69.776
-11.505
82.144
204.576
341.579
481.653
619.778
750.509
866.649
953.57
991.757
971.578
893.511
769.656
621.674
464.77
310.975
170.624
48.52
-46.472
-108.556
-138.454
-138.837
-119.792
-92.539
-67.502
-53.936
-53.584
-63.659
-76.675
-84.478
-84.645
-78.721
-71.271
-66.094
-63.352
-61.217
-57.917
-53.6
-49.396
-46.381
-45.156
-45.278
-46.427
-48.803
-52.08
-55.478
-58.435
-60.5
-61.732
-62.83
-64.141
-65.658
-67.485
-69.703
-72.334
-75.402
-78.656
-81.615
-84
-85.696
-86.656
-86.939
-86.579
-85.582
-84.031
-82.046
-79.719
-77.122
-74.297
-71.263
-68.067
-64.776
-61.456
-58.166
-54.937
-51.785
-48.715
-45.723
-42.798
-39.925
-37.078
-34.241
-31.4
-28.544
-25.665
-22.752
-19.792
-16.769
-13.665
-10.462
-7.143
-3.698
-0.116
3.607
7.478
11.499
15.671
19.996
24.475
29.111
33.904
38.854
43.96
49.218
54.624
60.169
65.843
71.635
77.533
83.521
89.583
95.702
101.858
108.033
114.204
120.35
126.447
132.471
138.397
144.2
149.855
155.335
160.615
165.67
170.473
175.001
179.23
183.137
186.703
189.906
192.728
195.154
197.168
198.758
199.913
200.623
200.884
200.689
200.037
198.929
197.366
195.354
192.9
190.013
186.704
182.987
178.877
174.391
169.547
164.367
158.871
153.084
147.029
140.734
134.223
127.525
120.667
113.679
106.589
99.424
92.215
84.988
77.772
70.593
63.476
56.448
49.531
42.748
36.121
29.67
23.414
17.368
11.549
5.971
0.644
-4.421
-9.215
-13.731
-17.965
-21.913
-25.574
-28.947
-32.033
-34.836
-37.359
-39.609
-41.593
-43.319
-44.796
-46.034
-47.046
-47.843
-48.437
-48.842
-49.071
-49.138
-49.057
-48.841
-48.503
-48.059
-47.52
-46.9
-46.212
-45.467
-44.677
-43.853
-43.005
-42.142
-41.274
-40.407
-39.549
-38.706
-37.884
-37.088
-36.322
-35.589
-34.892
-34.233
-33.614
-33.034
-32.494
-31.994
-31.533
-31.11
-30.722
-30.368
-30.046
-29.753
-29.486
-29.244
-29.023
-28.821
-28.635
-28.462
-28.3
-28.146
-27.999
-27.855
-27.714
-27.575
-27.435
-27.295
-27.154
-27.013
-26.87
-26.728
-26.586
-26.446
-26.308
-26.175
-26.047
-25.927
-25.815
-25.715
-25.627
-25.553
-25.495
-25.455
-25.434
-25.433
-25.455
-25.501
-25.571
-25.668
-25.791
-25.942
-26.122
-26.332
-26.571
-26.841
-27.141
-27.47
-27.829
-28.217
-28.633
-29.075
-29.543
-30.035
-30.549
-31.083
-31.636
-32.205
-32.788
-33.383
-33.989
-34.604
-35.225
-35.852
-36.482
-37.115
-37.748
-38.381
-39.012
-39.639
-40.262
-40.879
-41.487
-42.087
-42.676
-43.254
-43.817
-44.364
-44.895
-45.405
-45.895
-46.36
-46.799
-47.209
-47.587
-47.932
-48.24
-48.509
-48.735
-48.916
-49.049
-49.129
-49.154
-49.119
-49.02
-48.852
-48.613
-48.298
-47.902
-47.423
-46.855
-46.196
-45.443
-44.593
-43.644
-42.596
-41.448
-40.2
-38.855
-37.414
-35.88
-34.258
-32.551
-30.766
-28.915
-27.009
-25.06
-23.084
-21.095
-19.108
-17.14
-15.206
-13.32
-11.494
-9.741
-8.074
-6.512
-5.073
-3.779
-2.65
-1.697
-0.932
-0.36
0.016
0.192
0.168
-0.062
-0.51
-1.192
-2.122
-3.321
-4.799
-6.558
-8.588
-10.854
-13.319
-15.954
-18.739
-21.68
-24.768
-27.968
-31.232
-34.489
-37.665
-40.729
-43.609
-46.182
-48.413
-50.329
-52.09
-54.039
-56.369
-59.057
-62.068
-65.331
-68.703
-72.089
-75.098
-77.006
-77.584
-77.064
-75.892
-74.811
-74.341
-74.64
-76.229
-79.915
-85.784
-93.486
-102.221
-110.426
-117.32
-122.963
-126.77
-129.285
-131.592
-132.993
-134.455
-134.843
-129.923
-120.025
-104.904
-87.184
-75.39
-70.386
-68.025
-59.724
-28.394
37.682
139.983
274.779
429.826
589.008
741.37
872.739
967.264
1015.285
1006.98
942.765
834.216
691.532
529.287
360.82
195.77
49.504
-64.377
-139.282
-172.454
-170.146
-146.146
-110.905
-76.206
-54.281
-47.904
-57.876
-79.41
-99.705
-112.629
-116.497
-112.754
-108.436
-106.286
-105.047
-103.756
-100.762
-96.269
-92.008
-88.697
-86.387
-85.21
-85.278
-86.539
-88.665
-90.891
-92.539
-93.588
-94.532
-95.737
-97.29
-99.148
-101.251
-103.717
-106.655
-109.884
-112.995
-115.641
-117.636
-118.945
-119.635
-119.728
-119.216
-118.144
-116.614
-114.728
-112.573
-110.198
-107.621
-104.876
-102.023
-99.129
-96.266
-93.487
-90.812
-88.254
-85.809
-83.466
-81.21
-79.022
-76.871
-74.734
-72.592
-70.426
-68.223
-65.97
-63.646
-61.229
-58.694
-56.022
-53.195
-50.2
-47.027
-43.668
-40.116
-36.368
-32.423
-28.28
-23.938
-19.395
-14.652
-9.71
-4.573
0.753
6.261
11.94
17.777
23.76
29.871
36.094
42.407
48.792
55.226
61.686
68.146
74.582
80.967
87.273
93.473
99.541
105.446
111.164
116.665
121.925
126.918
131.62
136.007
140.058
143.752
147.072
149.998
152.517
154.615
156.28
157.503
158.276
158.594
158.453
157.854
156.796
155.284
153.323
150.92
148.086
144.832
141.172
137.122
132.699
127.923
122.815
117.396
111.691
105.724
99.52
93.106
86.507
79.752
72.868
65.881
58.82
51.712
44.584
37.462
30.374
23.344
16.396
9.555
2.843
-3.718
-10.107
-16.306
-22.296
-28.061
-33.586
-38.856
-43.861
-48.589
-53.032
-57.184
-61.039
-64.594
-67.848
-70.801
-73.454
-75.81
-77.874
-79.652
-81.15
-82.376
-83.341
-84.053
-84.525
-84.768
-84.795
-84.62
-84.256
-83.718
-83.019
-82.176
-81.202
-80.114
-78.925
-77.651
-76.306
-74.906
-73.464
-71.993
-70.508
-69.019
-67.538
-66.076
-64.642
-63.245
-61.892
-60.591
-59.348
-58.166
-57.052
-56.008
-55.036
-54.14
-53.318
-52.573
-51.903
-51.308
-50.785
-50.332
-49.946
-49.625
-49.364
-49.158
-49.005
-48.898
-48.833
-48.804
-48.807
-48.834
-48.881
-48.942
-49.012
-49.085
-49.158
-49.226
-49.284
-49.331
-49.362
-49.375
-49.367
-49.338
-49.286
-49.21
-49.108
-48.982
-48.831
-48.655
-48.457
-48.236
-47.995
-47.737
-47.462
-47.173
-46.874
-46.567
-46.255
-45.942
-45.631
-45.326
-45.031
-44.751
-44.489
-44.249
-44.035
-43.851
-43.701
-43.587
-43.512
-43.479
-43.49
-43.548
-43.653
-43.809
-44.015
-44.273
-44.583
-44.946
-45.361
-45.828
-46.346
-46.914
-47.53
-48.192
-48.899
-49.647
-50.433
-51.255
-52.108
-52.988
-53.89
-54.81
-55.743
-56.681
-57.62
-58.554
-59.475
-60.378
-61.255
-62.101
-62.907
-63.668
-64.374
-65.02
-65.598
-66.101
-66.521
-66.851
-67.085
-67.216
-67.236
-67.14
-66.922
-66.575
-66.096
-65.478
-64.718
-63.813
-62.759
-61.556
-60.201
-58.696
-57.04
-55.235
-53.283
-51.187
-48.951
-46.582
-44.086
-41.47
-38.744
-35.917
-33.003
-30.016
-26.972
-23.884
-20.769
-17.649
-14.543
-11.474
-8.464
-5.535
-2.706
0.001
2.566
4.968
7.188
9.208
11.016
12.595
13.93
15.005
15.804
16.325
16.57
16.54
16.239
15.658
14.788
13.629
12.18
10.442
8.422
6.122
3.552
0.745
-2.257
-5.397
-8.626
-11.917
-15.254
-18.631
-22.029
-25.381
-28.613
-31.654
-34.427
-36.904
-39.057
-40.811
-42.206
-43.38
-44.51
-45.945
-47.988
-50.692
-54.104
-58.23
-62.79
-67.576
-72.375
-76.547
-79.561
-81.206
-81.188
-79.539
-76.841
-73.362
-69.256
-65.169
-61.674
-59.479
-59.626
-62.536
-68.017
-76.054
-86.738
-100.169
-115.001
-127.564
-134.388
-132.312
-121.898
-107.818
-89.972
-64.574
-23.355
45.587
145.101
270.294
412.024
557.873
700.291
833.339
947.212
1030.048
1066.36
1043.685
960.72
822.964
645.119
449.504
255.623
85.315
-42.008
-121.011
-151.382
-142.013
-113.253
-78.644
-50.439
-39.967
-44.605
-60.557
-82.001
-96.509
-100.23
-94.028
-80.42
-67.05
-57.819
-52.547
-50.336
-49.197
-48.706
-49.801
-53.018
-58.236
-64.369
-70.218
-75.246
-79.086
-81.502
-82.485
-82.057
-80.638
-79.127
-78.201
-78.163
-79.15
-81.042
-83.622
-86.721
-89.998
-92.992
-95.409
-97.098
-98.012
-98.238
-97.848
-96.881
-95.423
-93.568
-91.378
-88.911
-86.201
-83.272
-80.18
-76.992
-73.779
-70.597
-67.478
-64.436
-61.478
-58.599
-55.789
-53.033
-50.305
-47.592
-44.883
-42.168
-39.438
-36.68
-33.875
-31.004
-28.045
-24.979
-21.791
-18.466
-14.995
-11.37
-7.588
-3.644
0.462
4.732
9.17
13.778
18.557
23.507
28.627
33.912
39.358
44.956
50.695
56.565
62.55
68.634
74.801
81.03
87.303
93.596
99.887
106.152
112.366
118.503
124.537
130.44
136.187
141.749
147.101
152.215
157.067
161.631
165.885
169.805
173.37
176.561
179.36
181.749
183.715
185.244
186.326
186.951
187.112
186.805
186.029
184.783
183.071
180.898
178.272
175.203
171.703
167.787
163.47
158.772
153.712
148.313
142.597
136.59
130.318
123.808
117.088
110.187
103.135
95.96
88.693
81.362
73.997
66.626
59.277
51.979
44.757
37.638
30.646
23.805
17.137
10.663
4.401
-1.631
-7.417
-12.943
-18.198
-23.171
-27.855
-32.243
-36.33
-40.115
-43.595
-46.774
-49.653
-52.238
-54.535
-56.552
-58.299
-59.786
-61.025
-62.029
-62.81
-63.383
-63.762
-63.962
-63.997
-63.883
-63.635
-63.269
-62.799
-62.241
-61.608
-60.916
-60.176
-59.403
-58.607
-57.801
-56.994
-56.197
-55.419
-54.667
-53.949
-53.271
-52.637
-52.052
-51.52
-51.04
-50.615
-50.245
-49.928
-49.663
-49.448
-49.281
-49.159
-49.078
-49.036
-49.029
-49.054
-49.106
-49.182
-49.279
-49.392
-49.519
-49.656
-49.8
-49.949
-50.1
-50.251
-50.4
-50.545
-50.684
-50.816
-50.939
-51.053
-51.156
-51.249
-51.331
-51.404
-51.468
-51.524
-51.574
-51.62
-51.664
-51.708
-51.753
-51.801
-51.854
-51.914
-51.982
-52.059
-52.146
-52.244
-52.353
-52.473
-52.605
-52.748
-52.901
-53.064
-53.237
-53.418
-53.607
-53.802
-54.005
-54.213
-54.427
-54.646
-54.87
-55.098
-55.331
-55.568
-55.808
-56.05
-56.295
-56.543
-56.792
-57.043
-57.296
-57.551
-57.808
-58.068
-58.332
-58.601
-58.876
-59.159
-59.45
-59.753
-60.068
-60.398
-60.745
-61.109
-61.492
-61.895
-62.319
-62.764
-63.228
-63.712
-64.215
-64.733
-65.267
-65.812
-66.366
-66.924
-67.484
-68.039
-68.586
-69.118
-69.629
-70.114
-70.566
-70.979
-71.344
-71.656
-71.906
-72.086
-72.188
-72.205
-72.127
-71.946
-71.655
-71.245
-70.71
-70.043
-69.239
-68.293
-67.201
-65.961
-64.569
-63.027
-61.333
-59.489
-57.499
-55.366
-53.096
-50.697
-48.177
-45.546
-42.818
-40.009
-37.133
-34.208
-31.253
-28.287
-25.33
-22.403
-19.524
-16.711
-13.985
-11.365
-8.874
-6.533
-4.364
-2.387
-0.62
0.919
2.212
3.246
4.016
4.516
4.74
4.678
4.311
3.621
2.599
1.238
-0.464
-2.498
-4.854
-7.506
-10.408
-13.513
-16.773
-20.141
-23.587
-27.072
-30.551
-33.963
-37.233
-40.284
-43.061
-45.51
-47.589
-49.285
-50.605
-51.603
-52.383
-53.038
-53.671
-54.384
-55.275
-56.472
-58.103
-60.269
-63.11
-66.802
-71.448
-77.072
-83.517
-90.353
-97.116
-103.373
-108.582
-112.157
-113.607
-112.683
-109.757
-105.869
-102.136
-99.413
-98.503
-100.223
-105.266
-114.005
-124.333
-131.754
-132.077
-121.321
-99.836
-71.962
-38.413
1.425
53.505
130.018
236.384
373.763
535.436
703.068
858.065
980.49
1054.238
1070.486
1025.323
923.922
774.325
590.785
394.054
202.241
36.541
-86.523
-164.187
-197.39
-194.609
-171.631
-137.428
-101.946
-76.806
-63.565
-62.699
-70.583
-75.728
-73.704
-64.948
-52.379
-43.515
-41.531
-45.239
-52.566
-60.386
-67.097
-72.33
-75.727
-77.334
-77.217
-75.564
-72.92
-69.674
-66.237
-63.331
-61.478
-60.936
-61.823
-63.955
-67.038
-70.857
-75.096
-79.299
-83.12
-86.335
-88.816
-90.586
-91.681
-92.098
-91.877
-91.093
-89.811
-88.098
-86.001
-83.54
-80.754
-77.707
-74.473
-71.135
-67.768
-64.422
-61.126
-57.902
-54.76
-51.701
-48.719
-45.799
-42.919
-40.064
-37.22
-34.376
-31.52
-28.634
-25.699
-22.691
-19.591
-16.382
-13.049
-9.581
-5.965
-2.195
1.738
5.836
10.103
14.541
19.155
23.948
28.922
34.078
39.413
44.927
50.614
56.469
62.482
68.642
74.937
81.351
87.869
94.472
101.141
107.855
114.592
121.33
128.044
134.71
141.302
147.793
154.156
160.365
166.392
172.209
177.79
183.108
188.137
192.854
197.235
201.258
204.902
208.148
210.978
213.377
215.33
216.825
217.852
218.404
218.476
218.065
217.172
215.799
213.951
211.636
208.862
205.641
201.987
197.914
193.44
188.583
183.365
177.807
171.933
165.769
159.34
152.673
145.797
138.739
131.528
124.192
116.761
109.261
101.723
94.173
86.639
79.147
71.724
64.394
57.182
50.108
43.194
36.458
29.919
23.592
17.491
11.629
6.016
0.662
-4.426
-9.241
-13.78
-18.039
-22.019
-25.719
-29.143
-32.293
-35.175
-37.796
-40.162
-42.282
-44.165
-45.821
-47.261
-48.495
-49.535
-50.393
-51.082
-51.615
-52.003
-52.26
-52.398
-52.429
-52.364
-52.214
-51.989
-51.701
-51.358
-50.968
-50.542
-50.086
-49.609
-49.116
-48.613
-48.106
-47.6
-47.098
-46.603
-46.117
-45.644
-45.184
-44.738
-44.308
-43.893
-43.495
-43.113
-42.746
-42.394
-42.057
-41.733
-41.421
-41.121
-40.832
-40.554
-40.285
-40.027
-39.778
-39.54
-39.313
-39.097
-38.893
-38.7
-38.521
-38.355
-38.204
-38.068
-37.948
-37.847
-37.764
-37.703
-37.663
-37.646
-37.654
-37.688
-37.748
-37.836
-37.952
-38.098
-38.272
-38.477
-38.712
-38.977
-39.273
-39.598
-39.952
-40.334
-40.743
-41.177
-41.635
-42.114
-42.613
-43.129
-43.662
-44.208
-44.767
-45.336
-45.913
-46.497
-47.085
-47.676
-48.269
-48.861
-49.452
-50.04
-50.624
-51.205
-51.78
-52.35
-52.915
-53.474
-54.028
-54.576
-55.119
-55.657
-56.191
-56.721
-57.248
-57.773
-58.297
-58.82
-59.344
-59.868
-60.393
-60.918
-61.444
-61.971
-62.496
-63.02
-63.54
-64.056
-64.565
-65.065
-65.554
-66.028
-66.483
-66.915
-67.32
-67.692
-68.027
-68.319
-68.562
-68.751
-68.88
-68.943
-68.934
-68.845
-68.672
-68.406
-68.043
-67.577
-67.001
-66.312
-65.504
-64.575
-63.52
-62.338
-61.029
-59.591
-58.024
-56.331
-54.513
-52.574
-50.518
-48.352
-46.081
-43.716
-41.266
-38.745
-36.165
-33.543
-30.893
-28.232
-25.58
-22.952
-20.367
-17.841
-15.392
-13.038
-10.797
-8.69
-6.735
-4.951
-3.357
-1.969
-0.803
0.128
0.817
1.256
1.444
1.371
1.025
0.396
-0.526
-1.748
-3.271
-5.094
-7.208
-9.588
-12.2
-15.001
-17.949
-21.003
-24.129
-27.29
-30.446
-33.551
-36.542
-39.361
-41.957
-44.276
-46.269
-47.906
-49.187
-50.152
-50.892
-51.495
-52.034
-52.591
-53.257
-54.137
-55.348
-57.001
-59.165
-61.941
-65.523
-70.024
-75.44
-81.623
-88.161
-94.567
-100.417
-105.185
-108.181
-108.92
-107.266
-103.487
-98.454
-93.33
-89.153
-86.9
-87.865
-92.113
-97.779
-102.822
-104.452
-101.494
-96.622
-90.499
-79.785
-57.789
-13.006
62.811
168.513
298.216
441.433
586.462
726.436
851.187
946.917
1000.997
1000.255
942.393
835.699
691.629
526.753
353.003
181.359
26.284
-101.224
-189.53
-234.344
-240.928
-217.236
-176.947
-132.549
-93.947
-68.987
-58.049
-57.636
-60.925
-61.842
-59.931
-57.027
-57.026
-62.532
-72.295
-84.143
-95.396
-103.794
-108.636
-110.093
-108.646
-104.976
-99.883
-93.939
-87.744
-82.185
-77.899
-75.181
-74.16
-74.65
-76.304
-78.9
-82.136
-85.57
-88.892
-91.862
-94.284
-96.135
-97.422
-98.116
-98.242
-97.842
-96.935
-95.563
-93.77
-91.573
-89.015
-86.144
-83.009
-79.678
-76.218
-72.689
-69.154
-65.653
-62.21
-58.842
-55.553
-52.338
-49.195
-46.107
-43.054
-40.017
-36.978
-33.92
-30.828
-27.681
-24.458
-21.139
-17.709
-14.151
-10.456
-6.612
-2.614
1.546
5.871
10.361
15.016
19.836
24.821
29.967
35.275
40.738
46.353
52.111
58.006
64.027
70.161
76.394
82.709
89.09
95.515
101.966
108.418
114.851
121.238
127.556
133.778
139.88
145.835
151.616
157.199
162.556
167.663
172.496
177.03
181.244
185.117
188.628
191.76
194.496
196.82
198.718
200.18
201.195
201.754
201.851
201.483
200.647
199.344
197.577
195.35
192.672
189.55
185.998
182.028
177.657
172.9
167.778
162.31
156.518
150.425
144.056
137.436
130.591
123.548
116.334
108.976
101.502
93.939
86.315
78.656
70.989
63.34
55.734
48.197
40.752
33.422
26.229
19.195
12.338
5.677
-0.771
-6.991
-12.969
-18.693
-24.152
-29.337
-34.241
-38.857
-43.182
-47.212
-50.947
-54.387
-57.534
-60.391
-62.963
-65.255
-67.275
-69.03
-70.53
-71.783
-72.799
-73.591
-74.167
-74.542
-74.726
-74.733
-74.575
-74.265
-73.816
-73.241
-72.553
-71.764
-70.888
-69.936
-68.921
-67.854
-66.746
-65.609
-64.452
-63.286
-62.12
-60.961
-59.818
-58.698
-57.607
-56.551
-55.534
-54.561
-53.634
-52.758
-51.935
-51.167
-50.454
-49.799
-49.201
-48.662
-48.181
-47.757
-47.39
-47.079
-46.822
-46.618
-46.467
-46.365
-46.311
-46.302
-46.338
-46.414
-46.528
-46.678
-46.861
-47.074
-47.313
-47.578
-47.865
-48.171
-48.496
-48.836
-49.191
-49.558
-49.937
-50.326
-50.723
-51.128
-51.54
-51.957
-52.379
-52.804
-53.233
-53.664
-54.097
-54.529
-54.962
-55.393
-55.822
-56.247
-56.669
-57.085
-57.495
-57.9
-58.298
-58.689
-59.073
-59.45
-59.821
-60.184
-60.54
-60.89
-61.232
-61.566
-61.893
-62.213
-62.524
-62.828
-63.125
-63.415
-63.698
-63.976
-64.248
-64.515
-64.779
-65.04
-65.299
-65.559
-65.82
-66.085
-66.356
-66.635
-66.925
-67.226
-67.542
-67.874
-68.223
-68.592
-68.98
-69.388
-69.817
-70.268
-70.74
-71.234
-71.749
-72.284
-72.838
-73.411
-73.999
-74.6
-75.212
-75.83
-76.45
-77.067
-77.677
-78.275
-78.853
-79.407
-79.929
-80.413
-80.85
-81.231
-81.55
-81.796
-81.962
-82.037
-82.014
-81.884
-81.64
-81.275
-80.783
-80.157
-79.392
-78.485
-77.431
-76.227
-74.873
-73.368
-71.711
-69.906
-67.955
-65.863
-63.639
-61.291
-58.83
-56.269
-53.622
-50.906
-48.135
-45.329
-42.506
-39.682
-36.878
-34.112
-31.404
-28.776
-26.25
-23.85
-21.596
-19.509
-17.608
-15.914
-14.44
-13.197
-12.193
-11.437
-10.939
-10.72
-10.795
-11.177
-11.874
-12.893
-14.231
-15.883
-17.83
-20.039
-22.472
-25.087
-27.848
-30.728
-33.693
-36.705
-39.712
-42.647
-45.444
-48.05
-50.412
-52.482
-54.233
-55.656
-56.782
-57.691
-58.454
-59.14
-59.833
-60.61
-61.574
-62.834
-64.478
-66.611
-69.384
-72.922
-77.276
-82.351
-87.857
-93.42
-98.657
-103.094
-106.177
-107.394
-106.438
-103.532
-99.409
-94.928
-91.089
-88.937
-89.416
-93.638
-101.486
-110.432
-117.443
-119.335
-114.568
-105.768
-94.495
-78.215
-51.343
-3.424
74.94
184.387
320.638
474.3
631.145
779.969
907.586
998.589
1041.555
1026.922
953.346
828.397
664.297
478.458
289.628
117.413
-21.045
-114.592
-161.047
-169.015
-150.984
-122.288
-95.186
-74.505
-63.409
-58.65
-54.543
-49.352
-41.057
-32.258
-28.543
-31.38
-41.131
-56.246
-72.663
-88.379
-102.362
-113.123
-120.443
-124.51
-125.365
-123.698
-120.394
-115.92
-110.895
-106.239
-102.411
-99.583
-97.842
-96.933
-96.562
-96.623
-96.882
-96.97
-96.701
-95.946
-94.6
-92.725
-90.378
-87.586
-84.477
-81.228
-77.977
-74.844
-71.911
-69.203
-66.762
-64.617
-62.759
-61.16
-59.753
-58.49
-57.362
-56.363
-55.47
-54.64
-53.789
-52.809
-51.621
-50.161
-48.374
-46.226
-43.681
-40.73
-37.397
-33.74
-29.837
-25.744
-21.486
-17.076
-12.525
-7.851
-3.085
1.743
6.621
11.543
16.499
21.482
26.481
31.5
36.56
41.699
46.957
52.362
57.925
63.651
69.535
75.575
81.764
88.084
94.511
101.02
107.589
114.197
120.825
127.447
134.032
140.545
146.951
153.218
159.313
165.208
170.873
176.279
181.401
186.217
190.707
194.851
198.627
202.016
204.998
207.554
209.67
211.331
212.523
213.236
213.462
213.197
212.438
211.185
209.442
207.213
204.506
201.332
197.703
193.634
189.14
184.242
178.958
173.313
167.328
161.03
154.444
147.598
140.521
133.239
125.784
118.182
110.465
102.661
94.8
86.91
79.02
71.158
63.352
55.628
48.012
40.529
33.201
26.052
19.1
12.365
5.863
-0.389
-6.379
-12.096
-17.528
-22.67
-27.513
-32.055
-36.293
-40.225
-43.854
-47.181
-50.21
-52.948
-55.402
-57.578
-59.488
-61.14
-62.546
-63.718
-64.668
-65.41
-65.956
-66.319
-66.514
-66.554
-66.454
-66.226
-65.884
-65.442
-64.913
-64.308
-63.64
-62.921
-62.161
-61.369
-60.555
-59.728
-58.895
-58.062
-57.236
-56.423
-55.626
-54.849
-54.095
-53.365
-52.663
-51.987
-51.339
-50.717
-50.121
-49.55
-49.002
-48.477
-47.971
-47.485
-47.015
-46.561
-46.12
-45.692
-45.274
-44.866
-44.467
-44.075
-43.69
-43.312
-42.94
-42.575
-42.218
-41.869
-41.53
-41.201
-40.883
-40.58
-40.292
-40.021
-39.769
-39.539
-39.332
-39.152
-39
-38.88
-38.792
-38.739
-38.723
-38.746
-38.808
-38.91
-39.052
-39.236
-39.459
-39.722
-40.024
-40.363
-40.738
-41.146
-41.585
-42.052
-42.544
-43.057
-43.589
-44.135
-44.692
-45.256
-45.823
-46.391
-46.954
-47.512
-48.059
-48.593
-49.111
-49.611
-50.091
-50.547
-50.979
-51.385
-51.764
-52.116
-52.441
-52.74
-53.012
-53.261
-53.486
-53.691
-53.878
-54.048
-54.206
-54.355
-54.498
-54.639
-54.782
-54.931
-55.091
-55.265
-55.456
-55.667
-55.902
-56.163
-56.452
-56.769
-57.117
-57.494
-57.902
-58.34
-58.805
-59.296
-59.811
-60.345
-60.895
-61.456
-62.022
-62.587
-63.144
-63.687
-64.207
-64.696
-65.147
-65.55
-65.896
-66.177
-66.382
-66.502
-66.527
-66.448
-66.254
-65.938
-65.491
-64.906
-64.176
-63.295
-62.258
-61.061
-59.703
-58.181
-56.494
-54.645
-52.634
-50.466
-48.146
-45.68
-43.078
-40.349
-37.507
-34.566
-31.542
-28.452
-25.316
-22.153
-18.984
-15.83
-12.712
-9.649
-6.662
-3.773
-1.004
1.622
4.082
6.354
8.418
10.255
11.845
13.173
14.229
15.006
15.496
15.689
15.568
15.118
14.329
13.191
11.703
9.866
7.691
5.196
2.42
-0.598
-3.812
-7.18
-10.668
-14.237
-17.844
-21.436
-24.943
-28.297
-31.439
-34.312
-36.869
-39.085
-40.951
-42.497
-43.799
-44.932
-45.977
-47.028
-48.165
-49.504
-51.166
-53.248
-55.877
-59.208
-63.357
-68.394
-74.248
-80.609
-87.086
-93.28
-98.691
-102.791
-105.122
-105.318
-103.482
-100.387
-96.965
-94.096
-92.765
-93.778
-97.755
-105.38
-115.34
-123.985
-127.992
-123.568
-109.934
-90.553
-65.212
-32.124
13.941
83.886
181.147
304.661
449.45
601.204
748.587
878.137
973.379
1024.74
1022.471
965.541
862.668
721.759
557.283
383.922
214.264
66.506
-45.712
-117.183
-147.29
-144.588
-123.164
-92.549
-62.672
-43.415
-36.319
-41.9
-56.378
-68.84
-74.565
-72.811
-65.819
-61.192
-62.139
-67.471
-75.085
-81.417
-84.979
-86.477
-86.287
-84.482
-81.212
-76.677
-71.554
-66.88
-63.192
-60.569
-59.098
-58.892
-59.997
-62.368
-65.714
-69.509
-73.377
-77.112
-80.538
-83.534
-85.992
-87.806
-88.951
-89.484
-89.456
-88.899
-87.85
-86.326
-84.363
-82.019
-79.352
-76.426
-73.309
-70.071
-66.777
-63.495
-60.273
-57.139
-54.112
-51.195
-48.384
-45.668
-43.03
-40.446
-37.898
-35.366
-32.832
-30.275
-27.674
-25.008
-22.255
-19.396
-16.413
-13.29
-10.015
-6.577
-2.969
0.816
4.781
8.927
13.257
17.772
22.474
27.361
32.433
37.686
43.114
48.712
54.469
60.376
66.416
72.576
78.836
85.179
91.584
98.027
104.487
110.939
117.356
123.714
129.984
136.139
142.152
147.994
153.639
159.058
164.226
169.117
173.707
177.972
181.891
185.443
188.611
191.375
193.722
195.638
197.11
198.131
198.693
198.79
198.421
197.585
196.285
194.525
192.312
189.655
186.565
183.056
179.142
174.841
170.172
165.155
159.812
154.167
148.245
142.072
135.673
129.076
122.308
115.397
108.371
101.256
94.082
86.873
79.658
72.461
65.309
58.223
51.229
44.346
37.597
31
24.572
18.331
12.291
6.466
0.868
-4.492
-9.606
-14.467
-19.069
-23.408
-27.482
-31.289
-34.832
-38.112
-41.133
-43.9
-46.419
-48.697
-50.743
-52.565
-54.172
-55.576
-56.788
-57.818
-58.678
-59.381
-59.938
-60.361
-60.661
-60.851
-60.941
-60.942
-60.866
-60.721
-60.52
-60.27
-59.982
-59.664
-59.324
-58.969
-58.606
-58.242
-57.88
-57.526
-57.183
-56.855
-56.544
-56.252
-55.979
-55.727
-55.495
-55.283
-55.09
-54.914
-54.754
-54.607
-54.472
-54.345
-54.226
-54.11
-53.998
-53.885
-53.771
-53.653
-53.53
-53.399
-53.26
-53.111
-52.951
-52.778
-52.592
-52.392
-52.178
-51.951
-51.71
-51.457
-51.192
-50.917
-50.633
-50.342
-50.046
-49.748
-49.45
-49.155
-48.865
-48.585
-48.316
-48.062
-47.827
-47.612
-47.421
-47.256
-47.119
-47.013
-46.939
-46.898
-46.893
-46.924
-46.991
-47.097
-47.241
-47.423
-47.644
-47.902
-48.198
-48.531
-48.899
-49.301
-49.736
-50.201
-50.697
-51.219
-51.767
-52.338
-52.93
-53.54
-54.167
-54.808
-55.459
-56.12
-56.788
-57.461
-58.137
-58.815
-59.493
-60.171
-60.847
-61.521
-62.192
-62.86
-63.525
-64.187
-64.846
-65.503
-66.156
-66.809
-67.459
-68.109
-68.76
-69.41
-70.062
-70.714
-71.368
-72.022
-72.676
-73.329
-73.981
-74.63
-75.273
-75.911
-76.539
-77.157
-77.759
-78.344
-78.908
-79.445
-79.952
-80.422
-80.851
-81.232
-81.56
-81.828
-82.03
-82.16
-82.211
-82.176
-82.05
-81.825
-81.496
-81.055
-80.497
-79.818
-79.011
-78.074
-77.004
-75.798
-74.455
-72.974
-71.356
-69.603
-67.717
-65.702
-63.563
-61.305
-58.936
-56.465
-53.9
-51.254
-48.539
-45.771
-42.967
-40.144
-37.32
-34.516
-31.751
-29.046
-26.421
-23.892
-21.479
-19.199
-17.07
-15.112
-13.343
-11.781
-10.442
-9.34
-8.486
-7.894
-7.573
-7.52
-7.737
-8.227
-8.993
-10.053
-11.419
-13.094
-15.079
-17.37
-19.954
-22.817
-25.93
-29.242
-32.703
-36.263
-39.873
-43.503
-47.113
-50.649
-54.049
-57.231
-60.117
-62.655
-64.796
-66.503
-67.766
-68.601
-69.06
-69.243
-69.252
-69.183
-69.152
-69.253
-69.581
-70.242
-71.344
-73.057
-75.543
-78.858
-82.913
-87.472
-92.196
-96.727
-100.639
-103.328
-104.206
-102.939
-99.683
-95.076
-89.899
-85.102
-81.752
-80.878
-83.75
-90.238
-97.686
-103.227
-103.939
-98.84
-91.2
-82.272
-68.687
-43.763
3.969
83.628
194.944
332.883
487.635
645.555
796.025
925.654
1017.811
1058.505
1036.288
949.46
807.391
626.853
429.35
235.25
63.424
-71.317
-160.097
-199.779
-196.644
-164.34
-119.814
-79.565
-53.556
-43.136
-42.587
-43.236
-39.23
-29.916
-19.604
-14.567
-17.961
-29.249
-45.421
-61.944
-75.988
-86.636
-93.35
-96.378
-96.171
-93.14
-88.211
-82.607
-77.394
-73.275
-70.736
-69.959
-70.858
-73.278
-76.894
-81.238
-85.834
-90.337
-94.487
-98.106
-101.133
-103.516
-105.228
-106.296
-106.756
-106.635
-105.959
-104.757
-103.052
-100.881
-98.3
-95.36
-92.133
-88.694
-85.114
-81.468
-77.811
-74.179
-70.599
-67.088
-63.652
-60.293
-57.004
-53.766
-50.565
-47.387
-44.219
-41.047
-37.851
-34.609
-31.302
-27.91
-24.417
-20.81
-17.074
-13.198
-9.173
-4.992
-0.651
3.853
8.524
13.366
18.383
23.576
28.947
34.494
40.216
46.109
52.167
58.381
64.739
71.227
77.832
84.536
91.321
98.165
105.048
111.945
118.832
125.683
132.472
139.171
145.75
152.181
158.437
164.488
170.306
175.864
181.137
186.097
190.722
194.987
198.871
202.354
205.416
208.04
210.211
211.916
213.144
213.886
214.138
213.894
213.156
211.925
210.205
208.003
205.329
202.194
198.612
194.599
190.174
185.356
180.168
174.634
168.777
162.624
156.203
149.54
142.664
135.603
128.385
121.041
113.597
106.084
98.529
90.96
83.404
75.889
68.44
61.082
53.836
46.727
39.774
32.995
26.409
20.031
13.875
7.954
2.277
-3.146
-8.308
-13.205
-17.832
-22.189
-26.274
-30.089
-33.637
-36.922
-39.948
-42.721
-45.247
-47.535
-49.592
-51.428
-53.051
-54.472
-55.702
-56.751
-57.63
-58.35
-58.923
-59.359
-59.67
-59.866
-59.958
-59.955
-59.867
-59.704
-59.474
-59.185
-58.845
-58.461
-58.038
-57.584
-57.102
-56.597
-56.073
-55.533
-54.981
-54.418
-53.847
-53.27
-52.688
-52.103
-51.515
-50.927
-50.339
-49.751
-49.165
-48.581
-48
-47.422
-46.848
-46.279
-45.716
-45.16
-44.611
-44.071
-43.542
-43.025
-42.521
-42.032
-41.561
-41.107
-40.675
-40.266
-39.882
-39.525
-39.198
-38.904
-38.645
-38.423
-38.24
-38.099
-38.001
-37.949
-37.942
-37.983
-38.072
-38.209
-38.394
-38.627
-38.907
-39.233
-39.603
-40.016
-40.47
-40.961
-41.487
-42.045
-42.63
-43.24
-43.87
-44.518
-45.179
-45.849
-46.524
-47.201
-47.876
-48.544
-49.202
-49.846
-50.472
-51.076
-51.656
-52.208
-52.73
-53.22
-53.675
-54.095
-54.479
-54.826
-55.137
-55.413
-55.654
-55.862
-56.04
-56.191
-56.319
-56.427
-56.52
-56.602
-56.679
-56.754
-56.834
-56.922
-57.024
-57.145
-57.288
-57.458
-57.659
-57.896
-58.171
-58.489
-58.852
-59.262
-59.721
-60.23
-60.789
-61.398
-62.055
-62.76
-63.509
-64.299
-65.127
-65.986
-66.873
-67.778
-68.696
-69.617
-70.532
-71.43
-72.302
-73.136
-73.922
-74.648
-75.303
-75.877
-76.357
-76.735
-76.999
-77.138
-77.144
-77.008
-76.72
-76.273
-75.662
-74.881
-73.925
-72.793
-71.481
-69.99
-68.322
-66.477
-64.46
-62.277
-59.934
-57.439
-54.804
-52.041
-49.163
-46.189
-43.137
-40.027
-36.881
-33.722
-30.572
-27.457
-24.4
-21.423
-18.549
-15.8
-13.198
-10.766
-8.526
-6.499
-4.708
-3.171
-1.905
-0.926
-0.245
0.133
0.203
-0.037
-0.591
-1.469
-2.679
-4.226
-6.111
-8.331
-10.875
-13.725
-16.849
-20.201
-23.732
-27.39
-31.131
-34.914
-38.701
-42.446
-46.093
-49.579
-52.839
-55.814
-58.454
-60.704
-62.536
-63.961
-65.025
-65.821
-66.446
-66.965
-67.444
-67.974
-68.644
-69.556
-70.82
-72.482
-74.634
-77.475
-81.103
-85.493
-90.465
-95.533
-100.146
-103.883
-106.217
-106.456
-104.19
-99.368
-92.396
-84.39
-76.686
-70.396
-66.569
-66.565
-70.456
-76.238
-81.481
-82.847
-78.581
-71.302
-62.53
-49.704
-26.879
17.32
93.103
201.011
335.836
486.908
639.881
784.949
910.936
1004.397
1053.172
1044.232
972.705
842.947
666.724
464.748
259.441
73.149
-75.405
-176.055
-229.021
-242.04
-225.215
-191.829
-150.719
-110.031
-81.425
-67.581
-67.863
-77.522
-84.229
-83.457
-76.531
-66.401
-59.839
-59.223
-62.771
-68.807
-75.01
-80.002
-83.39
-84.98
-84.966
-83.629
-81.353
-78.438
-74.96
-71.306
-68.236
-66.214
-65.469
-66.023
-67.587
-69.927
-72.902
-76.2
-79.373
-82.113
-84.23
-85.648
-86.441
-86.654
-86.292
-85.41
-84.087
-82.393
-80.392
-78.126
-75.609
-72.89
-70.036
-67.124
-64.235
-61.424
-58.721
-56.143
-53.697
-51.379
-49.177
-47.067
-45.021
-43.014
-41.026
-39.037
-37.029
-34.977
-32.854
-30.632
-28.281
-25.774
-23.09
-20.209
-17.115
-13.793
-10.233
-6.427
-2.369
1.945
6.523
11.368
16.483
21.87
27.527
33.449
39.632
46.064
52.736
59.63
66.731
74.017
81.469
89.061
96.768
104.562
112.414
120.294
128.17
136.009
143.777
151.44
158.964
166.315
173.456
180.355
186.979
193.293
199.269
204.875
210.084
214.87
219.208
223.076
226.454
229.324
231.671
233.482
234.747
235.459
235.613
235.209
234.248
232.735
230.676
228.082
224.964
221.338
217.221
212.632
207.592
202.125
196.256
190.011
183.418
176.508
169.312
161.859
154.183
146.316
138.29
130.138
121.892
113.584
105.245
96.906
88.596
80.345
72.179
64.126
56.21
48.454
40.881
33.51
26.36
19.447
12.786
6.391
0.273
-5.558
-11.095
-16.331
-21.261
-25.883
-30.196
-34.201
-37.899
-41.295
-44.393
-47.201
-49.725
-51.975
-53.959
-55.689
-57.176
-58.43
-59.463
-60.289
-60.92
-61.368
-61.646
-61.768
-61.745
-61.591
-61.318
-60.936
-60.459
-59.896
-59.26
-58.559
-57.805
-57.008
-56.175
-55.316
-54.44
-53.553
-52.662
-51.773
-50.892
-50.024
-49.172
-48.339
-47.529
-46.745
-45.987
-45.259
-44.561
-43.894
-43.259
-42.656
-42.087
-41.55
-41.046
-40.575
-40.137
-39.731
-39.357
-39.016
-38.706
-38.428
-38.181
-37.964
-37.778
-37.62
-37.491
-37.389
-37.313
-37.262
-37.236
-37.235
-37.257
-37.303
-37.373
-37.465
-37.581
-37.72
-37.882
-38.067
-38.273
-38.501
-38.751
-39.021
-39.31
-39.618
-39.944
-40.286
-40.644
-41.015
-41.398
-41.791
-42.193
-42.602
-43.016
-43.434
-43.855
-44.277
-44.699
-45.12
-45.54
-45.957
-46.371
-46.779
-47.183
-47.579
-47.968
-48.349
-48.721
-49.083
-49.436
-49.779
-50.112
-50.436
-50.752
-51.06
-51.361
-51.657
-51.95
-52.242
-52.534
-52.83
-53.132
-53.442
-53.764
-54.1
-54.452
-54.823
-55.216
-55.632
-56.074
-56.542
-57.039
-57.566
-58.124
-58.714
-59.337
-59.992
-60.679
-61.399
-62.15
-62.931
-63.739
-64.574
-65.432
-66.311
-67.207
-68.115
-69.032
-69.951
-70.868
-71.774
-72.664
-73.53
-74.365
-75.159
-75.907
-76.599
-77.227
-77.783
-78.26
-78.649
-78.942
-79.132
-79.212
-79.176
-79.016
-78.727
-78.307
-77.749
-77.051
-76.21
-75.227
-74.1
-72.831
-71.421
-69.872
-68.188
-66.376
-64.44
-62.389
-60.231
-57.978
-55.643
-53.242
-50.791
-48.306
-45.807
-43.312
-40.841
-38.414
-36.047
-33.757
-31.563
-29.48
-27.528
-25.726
-24.092
-22.643
-21.394
-20.358
-19.548
-18.973
-18.633
-18.528
-18.659
-19.03
-19.655
-20.548
-21.717
-23.165
-24.895
-26.897
-29.157
-31.651
-34.334
-37.16
-40.082
-43.057
-46.053
-49.038
-51.967
-54.787
-57.429
-59.82
-61.901
-63.616
-64.916
-65.793
-66.259
-66.364
-66.192
-65.818
-65.327
-64.815
-64.374
-64.104
-64.109
-64.483
-65.388
-67.072
-69.665
-73.188
-77.506
-82.192
-86.783
-90.839
-93.695
-94.598
-93.162
-89.279
-83.313
-76.593
-70.55
-66.452
-66.064
-69.866
-76.504
-84.964
-93.14
-100.74
-110.592
-120.929
-126.997
-118.418
-79.881
-6.515
99.077
226.764
360.237
493.85
625.982
753.153
869.96
960.221
1004.871
992.451
921.563
800.518
644.725
472.435
298.906
140.691
14.327
-72.706
-118.549
-129.789
-124.122
-115.922
-113.331
-120.408
-130.57
-135.562
-132.891
-120.645
-101.94
-83.402
-67.839
-57.499
-53.147
-52.45
-54.062
-57.364
-61.725
-67.259
-73.699
-79.895
-84.817
-87.999
-89.312
-88.969
-87.33
-84.646
-81.354
-78.246
-75.987
-74.89
-75.054
-76.335
-78.46
-81.213
-84.266
-87.142
-89.52
-91.23
-92.198
-92.478
-92.137
-91.195
-89.721
-87.818
-85.552
-82.981
-80.149
-77.072
-73.799
-70.403
-66.956
-63.534
-60.189
-56.944
-53.814
-50.81
-47.927
-45.158
-42.487
-39.889
-37.349
-34.853
-32.387
-29.938
-27.486
-25.005
-22.47
-19.855
-17.138
-14.301
-11.326
-8.202
-4.915
-1.458
2.177
5.993
9.998
14.198
18.597
23.201
28.011
33.027
38.248
43.669
49.284
55.084
61.058
67.192
73.47
79.875
86.388
92.986
99.647
106.346
113.056
119.751
126.4
132.975
139.445
145.78
151.949
157.922
163.669
169.159
174.365
179.26
183.817
188.011
191.819
195.219
198.192
200.719
202.786
204.378
205.484
206.096
206.207
205.814
204.915
203.513
201.611
199.216
196.338
192.988
189.181
184.934
180.264
175.194
169.744
163.94
157.808
151.373
144.666
137.714
130.548
123.198
115.695
108.07
100.355
92.579
84.774
76.97
69.194
61.477
53.844
46.322
38.935
31.707
24.66
17.814
11.187
4.798
-1.34
-7.212
-12.807
-18.116
-23.129
-27.842
-32.251
-36.352
-40.144
-43.629
-46.809
-49.686
-52.268
-54.559
-56.569
-58.306
-59.781
-61.004
-61.989
-62.748
-63.295
-63.643
-63.806
-63.799
-63.636
-63.331
-62.898
-62.352
-61.706
-60.972
-60.165
-59.296
-58.378
-57.42
-56.434
-55.429
-54.415
-53.401
-52.393
-51.4
-50.428
-49.483
-48.572
-47.698
-46.867
-46.081
-45.343
-44.655
-44.018
-43.431
-42.896
-42.411
-41.975
-41.586
-41.242
-40.942
-40.682
-40.461
-40.275
-40.122
-39.998
-39.903
-39.832
-39.785
-39.758
-39.75
-39.76
-39.786
-39.827
-39.881
-39.948
-40.025
-40.112
-40.208
-40.311
-40.419
-40.533
-40.651
-40.774
-40.9
-41.029
-41.163
-41.302
-41.446
-41.596
-41.754
-41.919
-42.094
-42.28
-42.476
-42.686
-42.908
-43.145
-43.396
-43.661
-43.941
-44.234
-44.539
-44.856
-45.183
-45.518
-45.859
-46.205
-46.554
-46.905
-47.256
-47.605
-47.952
-48.295
-48.633
-48.964
-49.288
-49.602
-49.907
-50.2
-50.48
-50.747
-51
-51.236
-51.457
-51.661
-51.848
-52.018
-52.171
-52.308
-52.429
-52.537
-52.633
-52.72
-52.8
-52.876
-52.953
-53.033
-53.121
-53.221
-53.335
-53.468
-53.622
-53.801
-54.007
-54.242
-54.507
-54.804
-55.134
-55.497
-55.893
-56.322
-56.783
-57.274
-57.792
-58.336
-58.902
-59.486
-60.082
-60.687
-61.294
-61.895
-62.485
-63.055
-63.597
-64.101
-64.558
-64.958
-65.289
-65.542
-65.705
-65.768
-65.72
-65.55
-65.251
-64.813
-64.229
-63.492
-62.597
-61.54
-60.316
-58.925
-57.365
-55.637
-53.742
-51.686
-49.471
-47.106
-44.598
-41.958
-39.2
-36.338
-33.389
-30.37
-27.303
-24.208
-21.107
-18.022
-14.977
-11.991
-9.089
-6.293
-3.629
-1.121
1.206
3.331
5.232
6.889
8.283
9.4
10.231
10.768
11.005
10.93
10.528
9.782
8.684
7.229
5.414
3.248
0.742
-2.081
-5.18
-8.512
-12.03
-15.689
-19.452
-23.281
-27.124
-30.92
-34.595
-38.072
-41.291
-44.195
-46.735
-48.89
-50.662
-52.089
-53.254
-54.232
-55.105
-55.965
-56.912
-58.06
-59.521
-61.39
-63.778
-66.858
-70.76
-75.507
-80.952
-86.752
-92.521
-97.899
-102.441
-105.571
-106.762
-105.768
-102.906
-98.966
-94.732
-91.024
-88.727
-88.723
-92.14
-98.539
-104.839
-107.932
-104.926
-95.366
-83.228
-69.821
-51.53
-21.483
31.552
115.652
229.421
367.282
519.927
674.251
819.407
941.719
1024.039
1053.033
1019.947
925.398
779.731
600.069
407.405
221.816
63.536
-54.292
-128.377
-161.591
-166.685
-156.373
-138.722
-121.096
-105.166
-92.325
-83.842
-76.666
-69.244
-59.884
-48.811
-40.582
-37.544
-40.445
-48.516
-58.288
-67.8
-76.401
-83.119
-87.693
-90.102
-90.172
-88.315
-85.312
-81.64
-77.802
-74.588
-72.531
-71.884
-72.77
-74.996
-78.221
-82.217
-86.659
-91.079
-95.131
-98.593
-101.33
-103.365
-104.733
-105.428
-105.485
-104.975
-103.957
-102.491
-100.622
-98.369
-95.768
-92.882
-89.786
-86.563
-83.294
-80.027
-76.798
-73.629
-70.532
-67.511
-64.564
-61.674
-58.823
-55.995
-53.176
-50.357
-47.526
-44.665
-41.752
-38.767
-35.686
-32.495
-29.178
-25.723
-22.121
-18.362
-14.441
-10.354
-6.1
-1.677
2.921
7.695
12.649
17.782
23.094
28.582
34.242
40.068
46.051
52.181
58.443
64.825
71.309
77.878
84.513
91.193
97.897
104.601
111.281
117.912
124.468
130.923
137.249
143.419
149.407
155.186
160.728
166.008
171.001
175.682
180.03
184.02
187.633
190.848
193.649
196.019
197.942
199.408
200.405
200.925
200.963
200.516
199.583
198.166
196.268
193.896
191.059
187.767
184.034
179.874
175.304
170.342
165.01
159.329
153.323
147.016
140.434
133.605
126.555
119.314
111.908
104.369
96.723
89.002
81.234
73.447
65.671
57.934
50.262
42.683
35.221
27.9
20.743
13.771
7.004
0.459
-5.846
-11.899
-17.685
-23.194
-28.416
-33.345
-37.974
-42.3
-46.321
-50.037
-53.447
-56.557
-59.368
-61.888
-64.121
-66.078
-67.765
-69.194
-70.376
-71.322
-72.045
-72.558
-72.875
-73.011
-72.98
-72.796
-72.474
-72.029
-71.475
-70.825
-70.094
-69.293
-68.435
-67.533
-66.596
-65.636
-64.661
-63.681
-62.702
-61.733
-60.778
-59.843
-58.934
-58.053
-57.204
-56.39
-55.613
-54.873
-54.173
-53.511
-52.889
-52.304
-51.757
-51.244
-50.765
-50.316
-49.896
-49.501
-49.129
-48.777
-48.442
-48.122
-47.813
-47.514
-47.222
-46.935
-46.652
-46.371
-46.09
-45.811
-45.532
-45.253
-44.974
-44.697
-44.422
-44.151
-43.883
-43.62
-43.364
-43.116
-42.877
-42.648
-42.432
-42.229
-42.041
-41.87
-41.716
-41.583
-41.47
-41.38
-41.313
-41.27
-41.253
-41.263
-41.299
-41.363
-41.456
-41.577
-41.726
-41.904
-42.109
-42.341
-42.599
-42.881
-43.186
-43.512
-43.858
-44.222
-44.602
-44.998
-45.407
-45.828
-46.26
-46.7
-47.149
-47.605
-48.067
-48.534
-49.006
-49.482
-49.962
-50.445
-50.933
-51.425
-51.92
-52.42
-52.923
-53.431
-53.944
-54.461
-54.983
-55.51
-56.043
-56.582
-57.129
-57.683
-58.246
-58.817
-59.396
-59.984
-60.579
-61.181
-61.789
-62.401
-63.016
-63.632
-64.247
-64.857
-65.461
-66.054
-66.632
-67.191
-67.726
-68.233
-68.704
-69.135
-69.52
-69.853
-70.129
-70.34
-70.482
-70.548
-70.532
-70.428
-70.229
-69.93
-69.524
-69.006
-68.37
-67.613
-66.731
-65.72
-64.578
-63.304
-61.897
-60.357
-58.686
-56.885
-54.958
-52.909
-50.743
-48.467
-46.089
-43.618
-41.065
-38.443
-35.767
-33.052
-30.314
-27.572
-24.843
-22.147
-19.503
-16.928
-14.442
-12.062
-9.805
-7.692
-5.742
-3.972
-2.401
-1.043
0.086
0.973
1.609
1.991
2.115
1.982
1.585
0.916
-0.037
-1.279
-2.816
-4.651
-6.777
-9.185
-11.855
-14.75
-17.833
-21.062
-24.399
-27.812
-31.262
-34.707
-38.095
-41.359
-44.429
-47.243
-49.733
-51.841
-53.541
-54.824
-55.719
-56.297
-56.613
-56.737
-56.76
-56.77
-56.872
-57.18
-57.781
-58.8
-60.444
-62.873
-66.163
-70.259
-74.876
-79.619
-84.101
-87.807
-90.085
-90.399
-88.509
-84.599
-79.382
-73.993
-69.659
-67.619
-69.384
-75.381
-84.293
-94.203
-102.236
-107.237
-110.738
-112.709
-111.19
-98.779
-64.009
0.783
99.796
228.733
377.718
538.972
701.569
854.993
986.512
1077.328
1112.214
1081.931
986.743
838.323
654.557
455.258
260.144
87.353
-50.601
-146.076
-199.471
-218.523
-210.895
-186.483
-152.216
-113.925
-81.5
-59.097
-48.63
-48.001
-47.873
-44.638
-38.515
-31.439
-29.489
-34.756
-45.603
-60.25
-75.547
-89.029
-99.732
-107.122
-111.167
-112.22
-110.76
-107.249
-102.268
-96.791
-91.883
-88.203
-86.088
-85.525
-86.243
-88.039
-90.684
-93.766
-96.786
-99.368
-101.302
-102.536
-103.137
-103.14
-102.552
-101.41
-99.78
-97.738
-95.341
-92.623
-89.599
-86.297
-82.776
-79.107
-75.367
-71.628
-67.938
-64.324
-60.809
-57.402
-54.108
-50.926
-47.848
-44.853
-41.926
-39.054
-36.222
-33.417
-30.621
-27.809
-24.956
-22.037
-19.034
-15.93
-12.711
-9.363
-5.873
-2.233
1.566
5.53
9.663
13.974
18.468
23.151
28.026
33.094
38.353
43.801
49.434
55.244
61.221
67.352
73.623
80.017
86.517
93.101
99.75
106.438
113.142
119.835
126.491
133.083
139.582
145.958
152.185
158.231
164.07
169.672
175.012
180.06
184.794
189.186
193.214
196.856
200.091
202.898
205.263
207.167
208.6
209.55
210.008
209.97
209.432
208.396
206.862
204.837
202.328
199.345
195.9
192.009
187.686
182.952
177.827
172.332
166.493
160.333
153.879
147.159
140.2
133.032
125.684
118.186
110.568
102.86
95.092
87.296
79.5
71.734
64.026
56.404
48.894
41.521
34.309
27.28
20.453
13.846
7.477
1.359
-4.494
-10.073
-15.368
-20.372
-25.08
-29.49
-33.6
-37.409
-40.92
-44.137
-47.063
-49.704
-52.069
-54.165
-56.001
-57.588
-58.938
-60.062
-60.973
-61.685
-62.211
-62.566
-62.764
-62.82
-62.748
-62.561
-62.272
-61.896
-61.444
-60.928
-60.358
-59.745
-59.098
-58.425
-57.734
-57.032
-56.324
-55.615
-54.91
-54.212
-53.525
-52.85
-52.19
-51.546
-50.919
-50.309
-49.717
-49.142
-48.584
-48.041
-47.514
-47
-46.497
-46.005
-45.521
-45.043
-44.57
-44.1
-43.632
-43.166
-42.699
-42.233
-41.766
-41.299
-40.834
-40.371
-39.912
-39.458
-39.011
-38.575
-38.151
-37.743
-37.352
-36.983
-36.637
-36.317
-36.026
-35.766
-35.539
-35.347
-35.191
-35.072
-34.991
-34.95
-34.948
-34.986
-35.065
-35.185
-35.345
-35.545
-35.784
-36.062
-36.378
-36.73
-37.116
-37.533
-37.981
-38.457
-38.957
-39.48
-40.021
-40.578
-41.148
-41.727
-42.311
-42.897
-43.482
-44.062
-44.635
-45.198
-45.751
-46.29
-46.817
-47.329
-47.829
-48.316
-48.791
-49.254
-49.707
-50.15
-50.584
-51.011
-51.431
-51.846
-52.258
-52.667
-53.076
-53.487
-53.902
-54.321
-54.747
-55.181
-55.624
-56.079
-56.547
-57.029
-57.527
-58.043
-58.578
-59.135
-59.712
-60.31
-60.927
-61.562
-62.211
-62.87
-63.533
-64.193
-64.846
-65.485
-66.106
-66.702
-67.267
-67.798
-68.292
-68.746
-69.152
-69.505
-69.794
-70.012
-70.151
-70.2
-70.151
-69.993
-69.717
-69.32
-68.801
-68.155
-67.376
-66.457
-65.382
-64.146
-62.751
-61.199
-59.492
-57.644
-55.672
-53.607
-51.496
-49.372
-47.255
-45.159
-43.082
-41.026
-38.999
-37.001
-35.034
-33.098
-31.186
-29.297
-27.442
-25.606
-23.764
-21.866
-19.831
-17.614
-15.204
-12.608
-9.858
-6.999
-4.079
-1.169
1.641
4.274
6.658
8.736
10.469
11.79
12.617
12.849
12.352
11.041
8.884
5.877
2.06
-2.495
-7.702
-13.433
-19.522
-25.829
-32.226
-38.594
-44.837
-50.835
-56.463
-61.592
-66.078
-69.833
-72.822
-75.06
-76.62
-77.593
-78.084
-78.245
-78.275
-78.355
-78.642
-79.253
-80.285
-81.915
-84.304
-87.511
-91.462
-95.874
-100.383
-104.653
-108.258
-110.575
-111.012
-109.235
-105.378
-100.068
-94.017
-88.007
-82.99
-80.18
-81.053
-84.999
-88.761
-89.358
-83.671
-73.143
-64.493
-58.424
-51.421
-32.871
16.539
104.98
231.383
386.982
549.628
703.59
837.418
938.151
1002.096
1021.932
989.87
908.154
778.03
609.191
421.811
233.764
68.205
-54.471
-129.572
-157.549
-148.004
-120.069
-85.098
-53.653
-36.39
-32.513
-41.182
-58.909
-74.769
-84.875
-88.803
-87.423
-86.724
-88.952
-92.606
-96.169
-97.174
-94.838
-90.258
-84.466
-78.374
-72.629
-67.63
-63.783
-61.323
-60.263
-60.462
-61.699
-63.81
-66.653
-70.039
-73.773
-77.688
-81.618
-85.427
-88.983
-92.129
-94.748
-96.778
-98.182
-98.959
-99.127
-98.714
-97.763
-96.345
-94.52
-92.348
-89.891
-87.2
-84.339
-81.382
-78.395
-75.448
-72.587
-69.837
-67.214
-64.719
-62.342
-60.071
-57.88
-55.737
-53.616
-51.494
-49.349
-47.163
-44.914
-42.575
-40.124
-37.536
-34.791
-31.871
-28.76
-25.444
-21.913
-18.159
-14.177
-9.964
-5.518
-0.836
4.083
9.241
14.634
20.259
26.109
32.177
38.454
44.924
51.573
58.382
65.332
72.401
79.564
86.798
94.074
101.366
108.644
115.879
123.039
130.093
137.01
143.759
150.308
156.627
162.685
168.452
173.902
179.007
183.742
188.084
192.011
195.504
198.546
201.12
203.215
204.819
205.925
206.527
206.622
206.209
205.291
203.872
201.959
199.563
196.695
193.369
189.602
185.412
180.819
175.844
170.512
164.846
158.873
152.619
146.113
139.382
132.455
125.363
118.133
110.795
103.378
95.91
88.42
80.933
73.476
66.074
58.752
51.531
44.435
37.482
30.692
24.083
17.67
11.469
5.49
-0.253
-5.751
-10.997
-15.983
-20.705
-25.159
-29.343
-33.257
-36.9
-40.276
-43.388
-46.24
-48.838
-51.188
-53.297
-55.175
-56.829
-58.269
-59.505
-60.547
-61.405
-62.09
-62.613
-62.983
-63.213
-63.313
-63.292
-63.162
-62.933
-62.616
-62.219
-61.752
-61.226
-60.648
-60.027
-59.372
-58.69
-57.988
-57.272
-56.55
-55.826
-55.106
-54.395
-53.696
-53.013
-52.35
-51.709
-51.092
-50.502
-49.94
-49.408
-48.907
-48.438
-48.001
-47.598
-47.229
-46.895
-46.595
-46.33
-46.099
-45.902
-45.739
-45.607
-45.507
-45.436
-45.394
-45.379
-45.388
-45.421
-45.474
-45.547
-45.637
-45.742
-45.86
-45.99
-46.128
-46.273
-46.424
-46.578
-46.736
-46.894
-47.051
-47.206
-47.358
-47.504
-47.644
-47.775
-47.896
-48.005
-48.101
-48.183
-48.25
-48.3
-48.333
-48.35
-48.348
-48.33
-48.294
-48.242
-48.174
-48.092
-47.998
-47.893
-47.779
-47.658
-47.533
-47.407
-47.282
-47.161
-47.045
-46.938
-46.842
-46.76
-46.693
-46.645
-46.617
-46.613
-46.635
-46.685
-46.767
-46.882
-47.032
-47.22
-47.448
-47.716
-48.028
-48.383
-48.783
-49.227
-49.718
-50.253
-50.834
-51.457
-52.122
-52.826
-53.566
-54.338
-55.139
-55.964
-56.808
-57.667
-58.536
-59.408
-60.279
-61.143
-61.994
-62.826
-63.632
-64.407
-65.143
-65.833
-66.471
-67.05
-67.562
-68.001
-68.36
-68.632
-68.812
-68.891
-68.864
-68.725
-68.467
-68.085
-67.575
-66.931
-66.15
-65.23
-64.17
-62.968
-61.624
-60.141
-58.519
-56.762
-54.874
-52.859
-50.722
-48.47
-46.109
-43.649
-41.098
-38.465
-35.764
-33.007
-30.209
-27.385
-24.554
-21.732
-18.939
-16.193
-13.511
-10.911
-8.41
-6.026
-3.779
-1.687
0.232
1.959
3.475
4.762
5.807
6.596
7.123
7.388
7.389
7.124
6.586
5.763
4.646
3.236
1.53
-0.473
-2.765
-5.332
-8.14
-11.141
-14.289
-17.54
-20.854
-24.208
-27.56
-30.866
-34.072
-37.105
-39.908
-42.443
-44.668
-46.551
-48.073
-49.224
-50.055
-50.68
-51.197
-51.713
-52.299
-52.954
-53.812
-55.122
-57.103
-59.986
-63.895
-68.783
-74.669
-81.675
-89.475
-97.282
-104.207
-109.206
-111.553
-111.063
-107.642
-101.168
-92.219
-82.445
-73.807
-68.393
-68.147
-73.148
-81.542
-91.738
-101.308
-108.553
-115.685
-122.955
-126.53
-119.579
-88.792
-21.765
83.892
224.28
388.455
559.559
725.971
875.884
994.252
1071.188
1095.429
1060.142
970.262
833.083
661.933
474.072
285.17
112.61
-29.295
-130.412
-188.369
-207.583
-194.013
-160.221
-116.067
-71.653
-42.972
-34.619
-47.38
-76.014
-101.345
-114.106
-111.356
-93.558
-74.148
-60.257
-52.966
-54.343
-59.34
-64.593
-70.225
-74.293
-76.958
-79.054
-80.124
-80.241
-79.485
-77.688
-75.214
-72.929
-71.504
-71.221
-72.171
-74.213
-77.062
-80.532
-84.329
-87.949
-91.058
-93.486
-95.138
-96.075
-96.369
-96.034
-95.128
-93.749
-91.959
-89.817
-87.372
-84.642
-81.677
-78.553
-75.343
-72.126
-68.957
-65.862
-62.859
-59.951
-57.134
-54.399
-51.728
-49.098
-46.493
-43.901
-41.309
-38.708
-36.079
-33.403
-30.658
-27.82
-24.871
-21.795
-18.581
-15.217
-11.698
-8.016
-4.169
-0.155
4.029
8.386
12.918
17.63
22.521
27.589
32.832
38.246
43.824
49.556
55.432
61.437
67.558
73.779
80.081
86.446
92.853
99.281
105.707
112.108
118.46
124.736
130.911
136.959
142.854
148.568
154.077
159.353
164.373
169.112
173.545
177.652
181.41
184.799
187.801
190.399
192.576
194.32
195.618
196.46
196.84
196.751
196.19
195.159
193.657
191.689
189.261
186.381
183.06
179.31
175.145
170.58
165.635
160.327
154.678
148.711
142.449
135.917
129.141
122.147
114.963
107.615
100.133
92.545
84.878
77.162
69.424
61.693
53.996
46.358
38.807
31.366
24.06
16.91
9.937
3.162
-3.399
-9.728
-15.812
-21.636
-27.189
-32.462
-37.447
-42.136
-46.526
-50.613
-54.396
-57.876
-61.053
-63.931
-66.514
-68.81
-70.823
-72.565
-74.042
-75.268
-76.251
-77.006
-77.545
-77.881
-78.028
-78.001
-77.815
-77.482
-77.019
-76.439
-75.756
-74.984
-74.136
-73.225
-72.263
-71.262
-70.233
-69.186
-68.13
-67.076
-66.029
-65
-63.993
-63.015
-62.071
-61.166
-60.302
-59.484
-58.713
-57.991
-57.318
-56.696
-56.122
-55.597
-55.119
-54.685
-54.295
-53.945
-53.633
-53.355
-53.11
-52.893
-52.703
-52.536
-52.389
-52.261
-52.149
-52.05
-51.963
-51.886
-51.817
-51.756
-51.7
-51.65
-51.604
-51.563
-51.524
-51.49
-51.458
-51.431
-51.407
-51.388
-51.375
-51.368
-51.368
-51.377
-51.395
-51.424
-51.465
-51.518
-51.586
-51.668
-51.766
-51.881
-52.011
-52.159
-52.324
-52.505
-52.702
-52.914
-53.142
-53.382
-53.635
-53.9
-54.174
-54.457
-54.748
-55.044
-55.346
-55.65
-55.957
-56.264
-56.571
-56.876
-57.178
-57.477
-57.772
-58.061
-58.345
-58.623
-58.896
-59.163
-59.424
-59.681
-59.933
-60.183
-60.43
-60.678
-60.926
-61.177
-61.433
-61.696
-61.968
-62.25
-62.544
-62.852
-63.175
-63.515
-63.871
-64.244
-64.635
-65.043
-65.469
-65.912
-66.369
-66.84
-67.323
-67.814
-68.311
-68.81
-69.305
-69.793
-70.267
-70.723
-71.155
-71.555
-71.917
-72.233
-72.496
-72.699
-72.832
-72.889
-72.859
-72.737
-72.513
-72.181
-71.734
-71.166
-70.472
-69.648
-68.689
-67.594
-66.359
-64.985
-63.47
-61.817
-60.026
-58.102
-56.05
-53.876
-51.588
-49.199
-46.722
-44.17
-41.559
-38.907
-36.23
-33.547
-30.877
-28.236
-25.642
-23.111
-20.664
-18.321
-16.103
-14.029
-12.117
-10.384
-8.848
-7.523
-6.422
-5.548
-4.905
-4.5
-4.344
-4.458
-4.86
-5.561
-6.568
-7.883
-9.503
-11.418
-13.608
-16.029
-18.636
-21.381
-24.223
-27.133
-30.073
-32.993
-35.832
-38.51
-40.958
-43.12
-44.951
-46.413
-47.486
-48.177
-48.53
-48.628
-48.572
-48.472
-48.436
-48.581
-49.045
-49.951
-51.449
-53.735
-56.934
-61.082
-66.088
-71.647
-77.356
-82.843
-87.642
-91.181
-93.026
-92.937
-91.099
-88.333
-85.715
-84.192
-84.554
-87.575
-93.857
-103.554
-115.886
-127.832
-134.74
-132.383
-117.863
-91.845
-56.846
-13.649
39.086
107.708
198.8
314.607
453.324
603.95
751.291
879.218
970.495
1013.029
999.71
930.625
812.682
658.419
486.082
312.96
157.326
33.873
-53.928
-107.9
-137.469
-155.808
-168.27
-175.946
-176.572
-165.594
-143.857
-115.805
-86.488
-61.116
-42.383
-30.933
-26.618
-28.498
-35.45
-45.91
-57.907
-69.787
-79.95
-87.218
-91.261
-92.034
-89.801
-85.342
-79.547
-73.336
-67.824
-63.763
-61.406
-60.866
-61.996
-64.469
-68.005
-72.185
-76.45
-80.417
-83.843
-86.585
-88.658
-90.078
-90.826
-90.936
-90.473
-89.486
-88.039
-86.172
-83.902
-81.268
-78.324
-75.137
-71.79
-68.354
-64.893
-61.452
-58.059
-54.731
-51.484
-48.319
-45.232
-42.215
-39.247
-36.315
-33.409
-30.514
-27.618
-24.702
-21.742
-18.718
-15.612
-12.408
-9.096
-5.664
-2.101
1.6
5.444
9.436
13.578
17.875
22.33
26.947
31.73
36.679
41.793
47.071
52.512
58.109
63.856
69.745
75.765
81.904
88.148
94.483
100.892
107.357
113.858
120.374
126.884
133.365
139.791
146.139
152.382
158.495
164.452
170.226
175.792
181.125
186.2
190.992
195.478
199.635
203.443
206.88
209.927
212.568
214.786
216.567
217.899
218.771
219.175
219.106
218.559
217.533
216.028
214.047
211.596
208.681
205.311
201.5
197.26
192.607
187.558
182.134
176.356
170.245
163.826
157.124
150.165
142.976
135.585
128.019
120.309
112.481
104.567
96.594
88.591
80.588
72.611
64.688
56.846
49.11
41.506
34.057
26.785
19.713
12.858
6.24
-0.126
-6.224
-12.041
-17.567
-22.792
-27.708
-32.311
-36.594
-40.558
-44.2
-47.522
-50.528
-53.22
-55.606
-57.691
-59.485
-60.996
-62.235
-63.214
-63.944
-64.438
-64.71
-64.774
-64.645
-64.337
-63.865
-63.246
-62.493
-61.624
-60.653
-59.594
-58.464
-57.275
-56.041
-54.776
-53.492
-52.201
-50.913
-49.64
-48.391
-47.174
-45.997
-44.868
-43.791
-42.773
-41.817
-40.926
-40.105
-39.353
-38.674
-38.068
-37.534
-37.072
-36.681
-36.36
-36.106
-35.918
-35.791
-35.724
-35.711
-35.75
-35.837
-35.968
-36.139
-36.346
-36.585
-36.853
-37.144
-37.456
-37.784
-38.127
-38.479
-38.839
-39.204
-39.571
-39.939
-40.306
-40.671
-41.032
-41.39
-41.743
-42.091
-42.434
-42.771
-43.104
-43.431
-43.754
-44.073
-44.389
-44.701
-45.012
-45.322
-45.631
-45.939
-46.248
-46.557
-46.867
-47.178
-47.49
-47.803
-48.118
-48.433
-48.749
-49.066
-49.383
-49.7
-50.015
-50.328
-50.638
-50.945
-51.246
-51.541
-51.829
-52.11
-52.381
-52.644
-52.896
-53.138
-53.369
-53.588
-53.798
-53.996
-54.184
-54.364
-54.535
-54.699
-54.858
-55.015
-55.17
-55.327
-55.487
-55.653
-55.828
-56.013
-56.211
-56.424
-56.655
-56.905
-57.176
-57.47
-57.788
-58.131
-58.499
-58.894
-59.316
-59.762
-60.234
-60.729
-61.244
-61.778
-62.328
-62.888
-63.456
-64.025
-64.591
-65.148
-65.688
-66.205
-66.69
-67.137
-67.535
-67.876
-68.152
-68.353
-68.471
-68.496
-68.421
-68.239
-67.94
-67.519
-66.971
-66.289
-65.47
-64.511
-63.409
-62.164
-60.775
-59.244
-57.573
-55.767
-53.832
-51.776
-49.61
-47.345
-44.994
-42.573
-40.098
-37.586
-35.054
-32.52
-30
-27.514
-25.08
-22.719
-20.453
-18.303
-16.289
-14.432
-12.749
-11.259
-9.978
-8.913
-8.073
-7.465
-7.1
-6.995
-7.169
-7.632
-8.394
-9.46
-10.828
-12.492
-14.435
-16.623
-19.02
-21.587
-24.284
-27.084
-29.954
-32.852
-35.729
-38.512
-41.134
-43.541
-45.674
-47.49
-48.963
-50.082
-50.881
-51.432
-51.799
-52.057
-52.293
-52.586
-53.061
-53.85
-55.05
-56.796
-59.273
-62.604
-66.846
-71.894
-77.366
-82.834
-87.927
-92.164
-94.986
-95.948
-94.784
-91.769
-87.921
-84.334
-81.835
-81.316
-83.722
-89.75
-99.721
-111.775
-121.748
-125.864
-121.361
-108.561
-89.592
-63.082
-24.592
33.064
116.511
225.258
353.545
492.612
632.929
766.938
885.297
975.676
1023.491
1015.88
948.932
827.914
667.849
489.115
311.074
151.72
22.929
-68.559
-121.978
-144.109
-142.439
-128.799
-114.183
-102.998
-100.198
-103.357
-105.117
-102.512
-91.842
-74.345
-57.182
-44.568
-38.946
-40.375
-45.677
-52.928
-61.568
-71.13
-81.115
-90.196
-97.194
-101.687
-103.694
-103.621
-101.813
-98.532
-94.477
-90.706
-87.938
-86.506
-86.456
-87.537
-89.541
-92.311
-95.494
-98.598
-101.26
-103.282
-104.601
-105.292
-105.407
-104.952
-103.975
-102.553
-100.755
-98.64
-96.247
-93.588
-90.692
-87.613
-84.413
-81.158
-77.906
-74.692
-71.534
-68.443
-65.421
-62.464
-59.566
-56.713
-53.884
-51.062
-48.234
-45.382
-42.493
-39.547
-36.52
-33.39
-30.133
-26.733
-23.176
-19.449
-15.543
-11.449
-7.161
-2.676
2.009
6.896
11.985
17.279
22.776
28.474
34.366
40.444
46.7
53.121
59.693
66.399
73.22
80.135
87.123
94.16
101.221
108.281
115.313
122.29
129.183
135.963
142.602
149.071
155.342
161.386
167.176
172.686
177.89
182.765
187.287
191.434
195.188
198.529
201.441
203.909
205.921
207.466
208.536
209.127
209.234
208.857
207.998
206.662
204.855
202.587
199.868
196.712
193.133
189.148
184.775
180.034
174.946
169.533
163.817
157.824
151.577
145.103
138.425
131.57
124.565
117.434
110.205
102.902
95.551
88.179
80.808
73.462
66.166
58.94
51.806
44.784
37.891
31.146
24.563
18.159
11.945
5.934
0.136
-5.439
-10.784
-15.891
-20.756
-25.374
-29.742
-33.857
-37.72
-41.329
-44.686
-47.793
-50.652
-53.267
-55.643
-57.786
-59.7
-61.395
-62.876
-64.153
-65.233
-66.126
-66.841
-67.387
-67.774
-68.013
-68.113
-68.084
-67.935
-67.678
-67.321
-66.874
-66.347
-65.748
-65.086
-64.371
-63.61
-62.813
-61.986
-61.138
-60.277
-59.408
-58.54
-57.677
-56.827
-55.993
-55.181
-54.394
-53.636
-52.91
-52.217
-51.561
-50.943
-50.363
-49.823
-49.322
-48.86
-48.437
-48.051
-47.703
-47.389
-47.11
-46.864
-46.648
-46.462
-46.303
-46.169
-46.06
-45.973
-45.905
-45.856
-45.823
-45.803
-45.796
-45.798
-45.81
-45.83
-45.856
-45.887
-45.925
-45.967
-46.014
-46.067
-46.125
-46.189
-46.26
-46.34
-46.428
-46.527
-46.638
-46.762
-46.9
-47.054
-47.225
-47.414
-47.621
-47.847
-48.092
-48.357
-48.642
-48.945
-49.268
-49.609
-49.969
-50.345
-50.738
-51.147
-51.57
-52.005
-52.452
-52.908
-53.372
-53.842
-54.315
-54.79
-55.265
-55.737
-56.205
-56.667
-57.12
-57.564
-57.996
-58.416
-58.821
-59.212
-59.588
-59.948
-60.294
-60.626
-60.944
-61.25
-61.547
-61.835
-62.116
-62.392
-62.666
-62.939
-63.213
-63.489
-63.77
-64.057
-64.35
-64.651
-64.961
-65.279
-65.608
-65.945
-66.29
-66.642
-66.999
-67.358
-67.717
-68.071
-68.417
-68.75
-69.066
-69.358
-69.62
-69.847
-70.03
-70.162
-70.235
-70.241
-70.171
-70.016
-69.768
-69.42
-68.964
-68.394
-67.703
-66.887
-65.941
-64.861
-63.645
-62.29
-60.796
-59.164
-57.396
-55.496
-53.468
-51.321
-49.064
-46.709
-44.268
-41.755
-39.186
-36.579
-33.953
-31.333
-28.738
-26.189
-23.706
-21.312
-19.028
-16.879
-14.886
-13.066
-11.436
-10.016
-8.823
-7.881
-7.204
-6.792
-6.647
-6.765
-7.151
-7.821
-8.784
-10.041
-11.593
-13.435
-15.567
-17.992
-20.693
-23.635
-26.769
-30.034
-33.386
-36.802
-40.269
-43.783
-47.304
-50.753
-54.048
-57.106
-59.87
-62.326
-64.426
-66.086
-67.336
-68.276
-69.137
-70.321
-72.024
-74.235
-76.943
-80.053
-83.447
-87.12
-90.697
-93.415
-94.873
-94.878
-93.416
-90.902
-87.54
-83.208
-78.353
-73.811
-70.195
-68.386
-68.987
-71.867
-77.134
-85.103
-95.469
-107.724
-121.293
-133.144
-138.908
-135.658
-120.032
-92.595
-58.613
-18.219
29.702
88.794
170.068
276.146
404.796
553.868
709.654
858.012
984.331
1064.741
1082.731
1032.288
914.905
749.608
561.054
368.696
192.249
43.25
-71.707
-145.191
-176.456
-167.886
-129.036
-76.312
-26.336
3.758
8.205
-8.533
-37.253
-62.96
-78.717
-85.59
-86.458
-87.894
-92.401
-97.854
-102.391
-103.814
-101.338
-96.012
-89.214
-82.117
-75.577
-70.21
-66.225
-63.629
-62.475
-62.695
-64.029
-66.283
-69.24
-72.611
-76.264
-80.096
-83.923
-87.6
-90.983
-93.896
-96.239
-97.966
-99.029
-99.418
-99.147
-98.235
-96.734
-94.718
-92.248
-89.391
-86.209
-82.76
-79.117
-75.357
-71.556
-67.789
-64.109
-60.546
-57.119
-53.834
-50.687
-47.671
-44.764
-41.938
-39.172
-36.446
-33.744
-31.051
-28.349
-25.615
-22.83
-19.971
-17.022
-13.966
-10.79
-7.482
-4.033
-0.433
3.323
7.237
11.315
15.562
19.983
24.583
29.364
34.327
39.473
44.798
50.299
55.968
61.796
67.77
73.877
80.102
86.427
92.832
99.297
105.798
112.314
118.817
125.282
131.682
137.99
144.176
150.213
156.073
161.729
167.153
172.318
177.199
181.772
186.012
189.897
193.405
196.517
199.214
201.48
203.299
204.659
205.548
205.959
205.885
205.323
204.271
202.73
200.704
198.199
195.224
191.789
187.909
183.599
178.875
173.759
168.271
162.434
156.273
149.813
143.081
136.103
128.908
121.524
113.98
106.304
98.525
90.672
82.774
74.859
66.954
59.087
51.284
43.571
35.973
28.513
21.213
14.096
7.18
0.484
-5.976
-12.184
-18.127
-23.794
-29.176
-34.264
-39.054
-43.54
-47.722
-51.597
-55.168
-58.436
-61.406
-64.082
-66.47
-68.579
-70.415
-71.989
-73.311
-74.39
-75.238
-75.867
-76.289
-76.517
-76.564
-76.443
-76.167
-75.751
-75.207
-74.55
-73.792
-72.949
-72.031
-71.053
-70.026
-68.962
-67.872
-66.767
-65.656
-64.549
-63.454
-62.378
-61.329
-60.312
-59.333
-58.397
-57.507
-56.667
-55.879
-55.146
-54.47
-53.851
-53.291
-52.79
-52.347
-51.962
-51.634
-51.362
-51.144
-50.978
-50.862
-50.793
-50.769
-50.786
-50.841
-50.931
-51.053
-51.201
-51.374
-51.567
-51.777
-51.999
-52.232
-52.47
-52.712
-52.955
-53.197
-53.435
-53.667
-53.891
-54.107
-54.312
-54.505
-54.686
-54.854
-55.007
-55.147
-55.272
-55.384
-55.481
-55.565
-55.635
-55.693
-55.738
-55.771
-55.794
-55.807
-55.811
-55.807
-55.797
-55.783
-55.766
-55.747
-55.728
-55.711
-55.696
-55.685
-55.68
-55.68
-55.688
-55.704
-55.731
-55.768
-55.817
-55.88
-55.957
-56.049
-56.156
-56.28
-56.419
-56.575
-56.748
-56.938
-57.145
-57.371
-57.616
-57.88
-58.166
-58.472
-58.801
-59.151
-59.524
-59.919
-60.336
-60.777
-61.241
-61.728
-62.238
-62.772
-63.33
-63.91
-64.511
-65.132
-65.769
-66.42
-67.081
-67.748
-68.416
-69.081
-69.74
-70.389
-71.025
-71.645
-72.245
-72.821
-73.37
-73.885
-74.359
-74.781
-75.141
-75.43
-75.639
-75.759
-75.782
-75.701
-75.508
-75.202
-74.775
-74.22
-73.529
-72.683
-71.671
-70.491
-69.147
-67.648
-66.012
-64.255
-62.394
-60.456
-58.46
-56.416
-54.324
-52.169
-49.934
-47.617
-45.226
-42.785
-40.321
-37.837
-35.334
-32.809
-30.24
-27.612
-24.902
-22.065
-19.077
-15.952
-12.723
-9.468
-6.284
-3.235
-0.37
2.28
4.697
6.841
8.668
10.136
11.187
11.762
11.793
11.176
9.839
7.772
5.004
1.635
-2.201
-6.401
-10.879
-15.555
-20.368
-25.241
-30.093
-34.847
-39.424
-43.733
-47.668
-51.096
-53.914
-56.097
-57.681
-58.785
-59.558
-60.1
-60.517
-60.932
-61.459
-62.222
-63.334
-64.847
-66.851
-69.554
-73.101
-77.526
-82.717
-88.265
-93.677
-98.539
-102.307
-104.255
-103.876
-101.036
-96.046
-89.867
-83.779
-78.932
-76.434
-77.779
-83.058
-90.11
-96.543
-99.198
-96.928
-93.31
-89.913
-83.601
-67.02
-26.504
49.136
160.5
302.214
462.166
623.857
775.85
904.471
994.847
1039.05
1029.33
966.997
862.25
722.225
558.958
384.866
211.024
56.479
-62.118
-136.103
-162.328
-150.471
-118.333
-80.632
-51.768
-39.969
-42.794
-55.685
-70.417
-78.923
-80.224
-76.895
-73.774
-74.848
-80.207
-87.128
-92.171
-93.883
-92.559
-89.06
-84.557
-79.491
-73.911
-68.613
-64.332
-61.308
-59.7
-59.356
-59.985
-61.582
-64.153
-67.38
-70.969
-74.706
-78.332
-81.743
-84.861
-87.499
-89.53
-90.913
-91.619
-91.667
-91.107
-89.956
-88.253
-86.066
-83.45
-80.473
-77.207
-73.708
-70.048
-66.299
-62.53
-58.809
-55.186
-51.686
-48.328
-45.116
-42.042
-39.096
-36.258
-33.5
-30.804
-28.147
-25.51
-22.876
-20.223
-17.53
-14.776
-11.939
-8.998
-5.94
-2.747
0.592
4.087
7.748
11.581
15.589
19.778
24.153
28.718
33.476
38.428
43.574
48.912
54.438
60.145
66.024
72.063
78.25
84.567
90.997
97.521
104.117
110.764
117.435
124.106
130.751
137.34
143.845
150.237
156.487
162.564
168.439
174.083
179.467
184.564
189.347
193.791
197.871
201.565
204.852
207.713
210.13
212.089
213.575
214.579
215.091
215.106
214.62
213.633
212.146
210.163
207.692
204.741
201.323
197.45
193.138
188.407
183.275
177.764
171.899
165.704
159.206
152.432
145.41
138.17
130.742
123.156
115.441
107.627
99.745
91.825
83.894
75.982
68.116
60.323
52.628
45.056
37.63
30.37
23.298
16.431
9.787
3.381
-2.773
-8.664
-14.281
-19.617
-24.663
-29.416
-33.872
-38.028
-41.887
-45.448
-48.714
-51.692
-54.384
-56.8
-58.946
-60.832
-62.466
-63.86
-65.023
-65.969
-66.707
-67.251
-67.612
-67.803
-67.836
-67.723
-67.476
-67.106
-66.624
-66.041
-65.369
-64.616
-63.792
-62.907
-61.969
-60.987
-59.967
-58.918
-57.845
-56.756
-55.654
-54.547
-53.437
-52.33
-51.229
-50.136
-49.055
-47.988
-46.937
-45.904
-44.89
-43.897
-42.926
-41.978
-41.054
-40.155
-39.282
-38.437
-37.62
-36.834
-36.079
-35.358
-34.672
-34.023
-33.413
-32.844
-32.318
-31.836
-31.401
-31.014
-30.676
-30.389
-30.153
-29.97
-29.84
-29.764
-29.742
-29.775
-29.861
-30.002
-30.195
-30.442
-30.74
-31.089
-31.487
-31.933
-32.425
-32.96
-33.537
-34.154
-34.806
-35.492
-36.207
-36.948
-37.711
-38.492
-39.287
-40.091
-40.9
-41.711
-42.52
-43.323
-44.116
-44.898
-45.665
-46.414
-47.145
-47.855
-48.543
-49.209
-49.851
-50.47
-51.066
-51.641
-52.193
-52.726
-53.239
-53.735
-54.215
-54.68
-55.134
-55.576
-56.01
-56.439
-56.863
-57.287
-57.713
-58.144
-58.581
-59.027
-59.484
-59.954
-60.437
-60.935
-61.447
-61.974
-62.515
-63.068
-63.633
-64.206
-64.785
-65.366
-65.944
-66.516
-67.075
-67.616
-68.131
-68.615
-69.061
-69.461
-69.809
-70.099
-70.322
-70.471
-70.54
-70.521
-70.407
-70.191
-69.867
-69.427
-68.867
-68.182
-67.367
-66.418
-65.334
-64.113
-62.754
-61.257
-59.623
-57.854
-55.955
-53.93
-51.785
-49.528
-47.169
-44.716
-42.185
-39.59
-36.946
-34.271
-31.581
-28.896
-26.234
-23.615
-21.056
-18.574
-16.186
-13.909
-11.762
-9.762
-7.929
-6.28
-4.83
-3.597
-2.593
-1.83
-1.312
-1.042
-1.022
-1.258
-1.762
-2.544
-3.61
-4.964
-6.608
-8.537
-10.735
-13.176
-15.813
-18.599
-21.485
-24.428
-27.396
-30.348
-33.245
-36.036
-38.659
-41.058
-43.185
-44.991
-46.429
-47.48
-48.162
-48.537
-48.719
-48.807
-48.88
-49.024
-49.322
-49.863
-50.743
-52.048
-53.84
-56.243
-59.456
-63.563
-68.566
-74.307
-80.33
-86.118
-91.195
-94.874
-96.346
-95.251
-91.488
-85.252
-77.791
-70.516
-64.46
-61.426
-62.162
-64.852
-67.967
-69.77
-69.67
-71.734
-77.916
-84.186
-81.517
-54.634
8.751
109.952
243.054
395.586
552.774
704.614
838.182
938.392
994.07
993.566
936.231
831.999
690.191
526.224
354.139
184.671
34.93
-81.245
-156.731
-188.262
-183.978
-158.656
-124.605
-94.806
-77.124
-71.178
-74.436
-79.816
-80.614
-75.66
-67.061
-60.579
-60.262
-65.981
-75.306
-84.012
-89.812
-92.745
-93.054
-91.121
-87.262
-81.654
-75.107
-68.937
-63.864
-60.097
-57.762
-56.874
-57.429
-59.412
-62.521
-66.187
-70.017
-73.769
-77.251
-80.36
-82.992
-85.027
-86.436
-87.263
-87.542
-87.309
-86.599
-85.426
-83.826
-81.853
-79.562
-77.014
-74.28
-71.427
-68.526
-65.645
-62.829
-60.108
-57.501
-55.014
-52.642
-50.373
-48.184
-46.051
-43.949
-41.859
-39.758
-37.625
-35.435
-33.163
-30.786
-28.282
-25.632
-22.819
-19.828
-16.648
-13.268
-9.682
-5.885
-1.875
2.352
6.798
11.465
16.355
21.465
26.793
32.334
38.083
44.031
50.165
56.472
62.935
69.536
76.255
83.069
89.955
96.889
103.843
110.79
117.702
124.55
131.304
137.935
144.413
150.708
156.791
162.633
168.207
173.485
178.442
183.055
187.298
191.153
194.597
197.614
200.187
202.3
203.943
205.104
205.775
205.951
205.629
204.809
203.492
201.685
199.394
196.63
193.405
189.732
185.63
181.116
176.211
170.938
165.32
159.382
153.152
146.656
139.922
132.979
125.857
118.583
111.188
103.701
96.15
88.565
80.973
73.402
65.88
58.431
51.081
43.855
36.775
29.862
23.136
16.616
10.317
4.255
-1.558
-7.11
-12.393
-17.4
-22.124
-26.563
-30.716
-34.581
-38.161
-41.46
-44.481
-47.231
-49.718
-51.949
-53.933
-55.681
-57.204
-58.512
-59.617
-60.532
-61.27
-61.842
-62.263
-62.545
-62.7
-62.743
-62.686
-62.54
-62.317
-62.03
-61.687
-61.301
-60.878
-60.428
-59.959
-59.477
-58.987
-58.496
-58.006
-57.522
-57.045
-56.578
-56.121
-55.676
-55.243
-54.822
-54.411
-54.01
-53.618
-53.234
-52.857
-52.485
-52.117
-51.751
-51.386
-51.022
-50.656
-50.287
-49.916
-49.541
-49.161
-48.778
-48.391
-48.001
-47.608
-47.215
-46.822
-46.432
-46.048
-45.67
-45.304
-44.951
-44.614
-44.298
-44.005
-43.738
-43.502
-43.298
-43.13
-43
-42.911
-42.864
-42.86
-42.901
-42.987
-43.119
-43.296
-43.517
-43.783
-44.092
-44.443
-44.833
-45.262
-45.726
-46.223
-46.749
-47.303
-47.881
-48.478
-49.092
-49.72
-50.357
-51
-51.646
-52.29
-52.929
-53.56
-54.179
-54.783
-55.371
-55.938
-56.485
-57.009
-57.51
-57.987
-58.441
-58.872
-59.281
-59.67
-60.04
-60.393
-60.731
-61.057
-61.373
-61.681
-61.984
-62.286
-62.589
-62.895
-63.207
-63.527
-63.855
-64.195
-64.547
-64.911
-65.288
-65.679
-66.083
-66.501
-66.931
-67.373
-67.824
-68.283
-68.746
-69.21
-69.67
-70.122
-70.56
-70.979
-71.371
-71.732
-72.054
-72.33
-72.553
-72.716
-72.81
-72.829
-72.764
-72.609
-72.356
-71.998
-71.532
-70.951
-70.251
-69.429
-68.482
-67.409
-66.208
-64.881
-63.427
-61.847
-60.145
-58.324
-56.388
-54.344
-52.199
-49.962
-47.646
-45.263
-42.828
-40.356
-37.864
-35.369
-32.889
-30.442
-28.043
-25.708
-23.453
-21.296
-19.256
-17.352
-15.6
-14.015
-12.613
-11.408
-10.412
-9.634
-9.075
-8.736
-8.621
-8.737
-9.1
-9.726
-10.623
-11.796
-13.246
-14.97
-16.959
-19.191
-21.625
-24.217
-26.921
-29.698
-32.518
-35.348
-38.141
-40.841
-43.373
-45.668
-47.669
-49.325
-50.598
-51.47
-51.946
-52.073
-51.93
-51.61
-51.216
-50.86
-50.652
-50.704
-51.108
-51.979
-53.508
-55.873
-59.169
-63.341
-68.139
-73.236
-78.334
-83.05
-86.798
-88.995
-89.23
-87.606
-84.806
-81.62
-78.942
-77.769
-79.167
-84.427
-93.254
-102.876
-110.25
-112.299
-109.54
-106.813
-104.706
-99.15
-79.269
-28.634
59.507
181.657
326.192
475.454
619.411
753.819
872.95
968.867
1026.237
1028.716
970.261
855.161
698.916
522.768
344.964
181.262
42.918
-63.573
-135.835
-176.87
-192.117
-188.496
-171.692
-146.503
-120.201
-98.792
-86.273
-82.797
-82.341
-79.312
-71.661
-61.088
-52.704
-49.727
-52.187
-58.513
-66.117
-73.661
-80.717
-86.403
-90.357
-92.516
-92.849
-91.798
-89.775
-86.93
-83.742
-81.077
-79.483
-79.202
-80.273
-82.401
-85.307
-88.835
-92.659
-96.311
-99.483
-101.994
-103.77
-104.898
-105.437
-105.39
-104.815
-103.79
-102.377
-100.636
-98.61
-96.31
-93.782
-91.093
-88.312
-85.515
-82.755
-80.057
-77.438
-74.904
-72.45
-70.069
-67.743
-65.449
-63.17
-60.889
-58.592
-56.266
-53.891
-51.445
-48.906
-46.249
-43.453
-40.501
-37.381
-34.08
-30.59
-26.903
-23.016
-18.925
-14.629
-10.123
-5.405
-0.474
4.671
10.025
15.586
21.345
27.296
33.425
39.721
46.166
52.743
59.434
66.216
73.067
79.964
86.881
93.79
100.665
107.477
114.198
120.797
127.246
133.515
139.575
145.398
150.955
156.219
161.166
165.769
170.006
173.855
177.296
180.31
182.88
184.991
186.633
187.794
188.466
188.645
188.329
187.516
186.211
184.418
182.146
179.404
176.205
172.564
168.497
164.024
159.165
153.943
148.381
142.504
136.34
129.916
123.259
116.398
109.362
102.181
94.885
87.502
80.061
72.593
65.124
57.683
50.296
42.989
35.786
28.712
21.786
15.031
8.463
2.101
-4.042
-9.95
-15.613
-21.021
-26.166
-31.041
-35.642
-39.966
-44.012
-47.78
-51.272
-54.491
-57.442
-60.13
-62.562
-64.747
-66.692
-68.407
-69.902
-71.189
-72.278
-73.181
-73.911
-74.478
-74.896
-75.177
-75.332
-75.372
-75.309
-75.154
-74.915
-74.603
-74.227
-73.795
-73.314
-72.791
-72.234
-71.648
-71.037
-70.408
-69.765
-69.11
-68.447
-67.78
-67.109
-66.438
-65.767
-65.099
-64.434
-63.772
-63.115
-62.463
-61.815
-61.172
-60.533
-59.898
-59.267
-58.64
-58.017
-57.399
-56.786
-56.179
-55.579
-54.988
-54.408
-53.839
-53.285
-52.748
-52.228
-51.73
-51.254
-50.803
-50.378
-49.982
-49.616
-49.281
-48.978
-48.71
-48.476
-48.277
-48.113
-47.985
-47.893
-47.837
-47.816
-47.831
-47.881
-47.965
-48.084
-48.234
-48.417
-48.63
-48.871
-49.138
-49.43
-49.743
-50.074
-50.422
-50.784
-51.155
-51.535
-51.921
-52.309
-52.699
-53.089
-53.477
-53.862
-54.244
-54.623
-54.999
-55.373
-55.744
-56.116
-56.488
-56.863
-57.243
-57.63
-58.025
-58.43
-58.849
-59.283
-59.734
-60.204
-60.697
-61.214
-61.757
-62.331
-62.936
-63.575
-64.251
-64.966
-65.721
-66.518
-67.357
-68.24
-69.164
-70.131
-71.138
-72.183
-73.262
-74.373
-75.512
-76.673
-77.851
-79.039
-80.232
-81.423
-82.603
-83.765
-84.9
-86
-87.057
-88.061
-89.004
-89.877
-90.671
-91.377
-91.985
-92.488
-92.876
-93.141
-93.274
-93.267
-93.113
-92.804
-92.336
-91.703
-90.902
-89.928
-88.782
-87.462
-85.97
-84.307
-82.477
-80.485
-78.338
-76.042
-73.606
-71.041
-68.359
-65.574
-62.703
-59.763
-56.773
-53.751
-50.72
-47.7
-44.713
-41.78
-38.92
-36.154
-33.503
-30.987
-28.63
-26.452
-24.474
-22.715
-21.193
-19.924
-18.923
-18.195
-17.748
-17.582
-17.707
-18.133
-18.873
-19.934
-21.32
-23.035
-25.075
-27.43
-30.083
-32.997
-36.132
-39.446
-42.895
-46.444
-50.056
-53.685
-57.278
-60.764
-64.077
-67.157
-69.945
-72.388
-74.457
-76.135
-77.447
-78.46
-79.236
-79.845
-80.38
-80.919
-81.563
-82.42
-83.574
-85.144
-87.314
-90.225
-93.939
-98.404
-103.38
-108.538
-113.541
-117.909
-121.021
-122.334
-121.544
-118.738
-114.465
-109.648
-105.363
-102.739
-103.183
-107.157
-113.525
-120.576
-125.752
-128.346
-130.272
-132.21
-133.094
-125.785
-98.541
-42.372
49.113
173.042
320.208
482.599
648.179
805.992
943.088
1040.761
1084.466
1064.76
982.147
847.812
676.781
486.894
294.764
116.311
-31.309
-135.154
-188.342
-191.26
-157.014
-104.866
-54.084
-24.064
-21.364
-41.185
-73.914
-103.316
-120.825
-127.043
-125.693
-124.85
-128.09
-133.664
-139.175
-141.492
-139.64
-134.763
-127.931
-120.179
-112.281
-104.687
-97.919
-92.31
-87.916
-84.698
-82.546
-81.381
-81.138
-81.68
-82.834
-84.467
-86.495
-88.852
-91.494
-94.309
-97.148
-99.912
-102.511
-104.871
-106.927
-108.586
-109.781
-110.495
-110.734
-110.525
-109.908
-108.892
-107.485
-105.699
-103.528
-100.993
-98.13
-94.956
-91.499
-87.799
-83.899
-79.876
-75.793
-71.677
-67.539
-63.378
-59.186
-54.972
-50.74
-46.487
-42.223
-37.952
-33.673
-29.395
-25.113
-20.81
-16.464
-12.033
-7.482
-2.791
2.055
7.061
12.23
17.566
23.068
28.726
34.534
40.489
46.586
52.825
59.197
65.691
72.288
78.97
85.712
92.493
99.292
106.085
112.851
119.567
126.212
132.768
139.214
145.528
151.687
157.666
163.441
168.988
174.284
179.306
184.032
188.44
192.512
196.23
199.577
202.538
205.099
207.247
208.97
210.261
211.11
211.511
211.462
210.959
210.005
208.6
206.75
204.462
201.743
198.605
195.059
191.12
186.804
182.127
177.109
171.768
166.128
160.21
154.038
147.637
141.031
134.245
127.308
120.244
113.08
105.842
98.558
91.252
83.952
76.683
69.469
62.337
55.309
48.409
41.66
35.084
28.7
22.529
16.588
10.896
5.467
0.316
-4.544
-9.101
-13.344
-17.265
-20.857
-24.113
-27.029
-29.601
-31.828
-33.71
-35.246
-36.439
-37.292
-37.809
-37.997
-37.86
-37.407
-36.646
-35.587
-34.239
-32.616
-30.727
-28.586
-26.207
-23.603
