Name
Date of Birth,"Mar 27, 1959"
Recorded Date,2019-05-01 09:39:05 -0500
Classification,Sinus Rhythm
Symptoms,
Software Version,1.2
Device,"Watch4,2"
Sample Rate,510.227 hertz


Lead,Lead I
Unit,µV

384.032
515.113
534.898
523.278
559.835
597.931
602.161
588.858
564.905
531.36
494.847
459.702
428.289
401.488
378.922
360.229
344.815
331.299
317.858
303.484
287.77
270.684
252.856
234.937
217.452
201.21
186.999
175.249
166.269
160.063
156.249
154.34
153.736
153.961
154.915
156.562
158.669
161.118
163.9
167.377
172.356
179.077
186.983
195.201
202.862
209.224
213.765
215.525
212.945
205.326
192.95
176.775
158.374
139.022
119.459
100.752
84.441
71.386
61.891
55.644
51.365
48.18
45.861
44.017
42.081
39.653
36.351
32.179
27.848
23.699
19.604
15.375
10.937
6.584
2.7
-0.626
-3.457
-5.711
-7.046
-6.772
-4.538
-0.677
4.457
10.535
16.852
22.654
26.998
28.399
25.805
18.713
6.707
-10.042
-30.357
-52.644
-75.093
-95.377
-111.482
-121.566
-123.834
-117.586
-103.765
-84.335
-61.66
-38.526
-17.356
-0.543
9.314
10.701
3.798
-10.007
-28.645
-49.638
-71.107
-91.388
-108.478
-121.069
-128.866
-132.316
-132.624
-131.345
-129.399
-127.359
-125.935
-125.522
-126.288
-128.24
-130.915
-133.659
-136.173
-138.394
-140.333
-142.13
-143.82
-145.359
-146.816
-148.303
-149.878
-151.568
-153.331
-155.081
-156.786
-158.463
-160.156
-161.926
-163.793
-165.726
-167.683
-169.627
-171.546
-173.44
-175.304
-177.125
-178.892
-180.605
-182.283
-183.949
-185.61
-187.259
-188.873
-190.424
-191.897
-193.296
-194.635
-195.926
-197.171
-198.371
-199.529
-200.653
-201.755
-202.84
-203.905
-204.94
-205.935
-206.875
-207.759
-208.583
-209.338
-210.01
-210.578
-211.031
-211.37
-211.609
-211.757
-211.811
-211.754
-211.571
-211.25
-210.799
-210.239
-209.597
-208.896
-208.169
-207.466
-206.848
-206.377
-206.087
-205.974
-206.008
-206.164
-206.44
-206.847
-207.393
-208.068
-208.845
-209.686
-210.542
-211.362
-212.065
-212.539
-212.665
-212.336
-211.495
-210.149
-208.341
-206.114
-203.502
-200.538
-197.268
-193.768
-190.122
-186.413
-182.736
-179.197
-175.945
-173.164
-171.031
-169.692
-169.242
-169.706
-171.07
-173.316
-176.406
-180.285
-184.887
-190.113
-195.869
-202.075
-208.639
-215.463
-222.419
-229.342
-236.083
-242.527
-248.6
-254.295
-259.63
-264.619
-269.285
-273.645
-277.723
-281.584
-285.281
-288.852
-292.338
-295.706
-298.995
-302.363
-305.797
-309.141
-312.012
-313.647
-313.326
-310.561
-304.742
-295.33
-282.388
-266.252
-248.065
-230.013
-213.996
-201.67
-194.661
-193.569
-197.633
-205.481
-214.133
-218.801
-215.042
-198.069
-162.833
-108.292
-37.359
47.047
139.793
239.186
349.874
468.57
585.36
683.262
736.435
730.504
665.906
552.201
407.409
248.249
86.733
-62.366
-180.936
-257.334
-287.963
-282.263
-262.219
-243.56
-233.715
-232.062
-230.064
-224.926
-218.544
-213.397
-213.605
-219.642
-229.02
-239.871
-249.908
-257.205
-261.265
-261.888
-259.192
-253.936
-246.917
-238.838
-230.552
-222.858
-216.164
-210.674
-206.418
-203.241
-201.03
-199.691
-199.064
-198.97
-199.28
-199.914
-200.839
-202.057
-203.513
-205.095
-206.688
-208.198
-209.566
-210.747
-211.689
-212.321
-212.595
-212.503
-212.061
-211.311
-210.276
-208.963
-207.369
-205.487
-203.336
-200.952
-198.376
-195.637
-192.762
-189.779
-186.734
-183.695
-180.705
-177.785
-174.937
-172.15
-169.425
-166.77
-164.192
-161.693
-159.268
-156.909
-154.607
-152.36
-150.154
-147.97
-145.779
-143.536
-141.21
-138.783
-136.238
-133.566
-130.757
-127.798
-124.682
-121.408
-117.975
-114.378
-110.613
-106.676
-102.564
-98.284
-93.843
-89.254
-84.529
-79.68
-74.719
-69.662
-64.524
-59.321
-54.067
-48.778
-43.471
-38.165
-32.881
-27.642
-22.471
-17.388
-12.419
-7.587
-2.913
1.579
5.87
9.937
13.763
17.328
20.614
23.604
26.281
28.631
30.639
32.295
33.588
34.509
35.052
35.215
34.994
34.391
33.407
32.048
30.32
28.233
25.796
23.023
19.928
16.528
12.842
8.89
4.693
0.275
-4.342
-9.132
-14.069
-19.129
-24.286
-29.514
-34.786
-40.076
-45.358
-50.607
-55.797
-60.902
-65.899
-70.764
-75.475
-80.013
-84.356
-88.488
-92.393
-96.057
-99.467
-102.612
-105.485
-108.078
-110.387
-112.411
-114.148
-115.601
-116.773
-117.669
-118.298
-118.667
-118.786
-118.666
-118.321
-117.761
-117.003
-116.06
-114.948
-113.683
-112.283
-110.765
-109.145
-107.441
-105.671
-103.851
-101.997
-100.126
-98.251
-96.386
-94.546
-92.741
-90.985
-89.287
-87.656
-86.1
-84.625
-83.234
-81.932
-80.72
-79.598
-78.563
-77.612
-76.745
-75.958
-75.25
-74.613
-74.04
-73.519
-73.042
-72.6
-72.185
-71.785
-71.389
-70.986
-70.568
-70.135
-69.684
-69.213
-68.714
-68.171
-67.579
-66.937
-66.25
-65.53
-64.781
-63.998
-63.181
-62.335
-61.468
-60.593
-59.706
-58.783
-57.808
-56.761
-55.648
-54.501
-53.328
-52.119
-50.837
-49.41
-47.819
-46.093
-44.268
-42.403
-40.506
-38.511
-36.449
-34.452
-32.577
-30.849
-29.07
-26.774
-23.762
-20.142
-16.116
-12.032
-8.211
-4.816
-2.502
-2.436
-5.371
-11.662
-20.977
-32.161
-44.081
-55.797
-65.893
-72.63
-74.514
-70.214
-59.524
-43.523
-23.68
-1.88
19.683
38.91
53.722
61.936
62.23
54.105
37.921
15.399
-11.129
-39.244
-66.404
-89.978
-107.681
-117.16
-116.703
-106.276
-87.145
-61.589
-32.48
-2.833
24.743
47.349
62.049
67.035
61.894
47.887
27.668
4.436
-19.391
-41.588
-59.647
-71.539
-75.855
-72.492
-62.976
-49.54
-33.792
-17.04
-0.747
13.742
24.963
31.971
34.682
33.154
27.408
17.91
5.627
-8.072
-21.556
-33.471
-42.528
-46.81
-44.619
-35.502
-20.261
-0.87
20.4
41.908
62.075
78.557
89.009
92.324
88.841
80.428
69.468
57.482
45.514
34.949
27.304
23.517
23.686
26.782
31.182
35.904
40.511
44.613
47.804
49.717
50.146
49.349
47.941
46.293
44.523
42.643
40.582
38.363
36.08
33.763
31.361
28.861
26.29
23.709
21.231
18.941
16.881
15.081
13.544
12.258
11.179
10.241
9.366
8.467
7.474
6.325
4.942
3.221
1.061
-1.635
-4.969
-8.985
-13.771
-19.492
-26.109
-33.402
-40.991
-48.193
-54.382
-59.165
-61.935
-61.932
-58.998
-53.316
-45.503
-37.08
-29.157
-22.257
-17.504
-15.924
-17.239
-20.443
-23.547
-23.006
-15.781
0.596
29.922
76.137
139.305
216.129
302.882
393.803
489.201
596.308
713.078
830.729
932.062
989.289
987.319
926.107
814.09
670.361
512.997
354.346
209.948
95.76
20.295
-11.949
-9.654
9.346
34.608
54.817
67.373
75.833
76.324
72.406
66.438
57.778
51.509
46.245
39.949
33.988
27.79
23.209
22.153
24.045
28.276
33.855
39.684
45.17
49.76
53.036
54.844
55.245
54.47
52.698
50.086
46.811
43.043
38.975
34.78
30.575
26.463
22.568
19.025
15.961
13.472
11.595
10.341
9.697
9.642
10.148
11.169
12.646
14.521
16.732
19.219
21.927
24.793
27.752
30.743
33.707
36.602
39.405
42.102
44.69
47.17
49.547
51.83
54.034
56.168
58.242
60.262
62.232
64.161
66.06
67.941
69.817
71.701
73.604
75.538
77.512
79.535
81.615
83.756
85.964
88.241
90.593
93.027
95.554
98.186
100.931
103.792
106.772
109.864
113.057
116.333
119.674
123.055
126.46
129.876
133.299
136.734
140.185
143.66
147.154
150.654
154.148
157.624
161.075
164.499
167.902
171.302
174.719
178.185
181.714
185.303
188.93
192.548
196.1
199.516
202.739
205.728
208.445
210.857
212.93
214.63
215.912
216.724
217.003
216.672
215.678
213.986
211.595
208.533
204.853
200.629
195.928
190.804
185.305
179.472
173.342
166.953
160.348
153.575
146.696
139.789
132.922
126.151
119.506
112.998
106.616
100.332
94.123
87.971
81.869
75.818
69.824
63.899
58.053
52.303
46.651
41.089
35.613
30.218
24.909
19.701
14.614
9.68
4.923
0.37
-3.962
-8.062
-11.923
-15.544
-18.929
-22.086
-25.021
-27.737
-30.238
-32.524
-34.602
-36.477
-38.158
-39.657
-40.982
-42.147
-43.162
-44.037
-44.782
-45.403
-45.908
-46.3
-46.586
-46.771
-46.86
-46.861
-46.779
-46.622
-46.396
-46.107
-45.761
-45.364
-44.92
-44.432
-43.904
-43.338
-42.737
-42.101
-41.431
-40.729
-39.995
-39.229
-38.431
-37.603
-36.744
-35.856
-34.938
-33.993
-33.021
-32.023
-31.002
-29.958
-28.894
-27.812
-26.714
-25.603
-24.481
-23.352
-22.217
-21.079
-19.942
-18.807
-17.678
-16.558
-15.449
-14.355
-13.28
-12.228
-11.203
-10.209
-9.251
-8.334
-7.462
-6.64
-5.871
-5.159
-4.508
-3.921
-3.4
-2.947
-2.564
-2.252
-2.011
-1.843
-1.746
-1.722
-1.769
-1.886
-2.074
-2.33
-2.653
-3.042
-3.496
-4.013
-4.59
-5.227
-5.922
-6.671
-7.474
-8.326
-9.225
-10.169
-11.152
-12.172
-13.224
-14.305
-15.411
-16.538
-17.682
-18.84
-20.009
-21.186
-22.369
-23.556
-24.743
-25.93
-27.115
-28.295
-29.468
-30.632
-31.784
-32.922
-34.043
-35.144
-36.222
-37.274
-38.297
-39.285
-40.235
-41.143
-42.004
-42.815
-43.571
-44.267
-44.901
-45.47
-45.97
-46.4
-46.757
-47.039
-47.243
-47.367
-47.407
-47.361
-47.225
-46.999
-46.68
-46.265
-45.753
-45.146
-44.445
-43.652
-42.77
-41.799
-40.745
-39.615
-38.419
-37.169
-35.877
-34.552
-33.205
-31.852
-30.505
-29.179
-27.883
-26.623
-25.404
-24.242
-23.149
-22.145
-21.239
-20.429
-19.711
-19.087
-18.563
-18.156
-17.882
-17.746
-17.757
-17.937
-18.313
-18.923
-19.782
-20.882
-22.198
-23.697
-25.366
-27.213
-29.256
-31.505
-33.928
-36.457
-38.997
-41.44
-43.693
-45.693
-47.319
-48.391
-48.866
-48.81
-48.504
-48.456
-48.891
-49.702
-50.758
-51.903
-52.944
-53.762
-53.758
-51.779
-47.371
-40.852
-33.031
-25.269
-18.665
-13.81
-11.85
-14.562
-22.807
-36.48
-54.377
-73.992
-93.232
-110.799
-125.131
-134.392
-137.542
-134.315
-125.578
-113.736
-100.915
-88.39
-77.06
-67.348
-58.777
-50.109
-39.379
-23.314
1.511
37.818
87.441
150.854
226.885
312.958
405.599
499.507
587.962
663.935
720.536
753.633
762.404
746.809
706.349
637.951
537.799
408.476
262.24
120.938
7.928
-63.148
-93.536
-98.338
-93.994
-90.14
-88.339
-82.672
-70.121
-53.042
-35.313
-22.033
-15.497
-14.672
-17.993
-23.684
-29.771
-34.588
-37.203
-37.226
-34.892
-30.968
-26.126
-20.897
-15.986
-12.107
-9.643
-8.744
-9.3
-10.977
-13.518
-16.722
-20.349
-24.163
-27.96
-31.554
-34.805
-37.615
-39.9
-41.596
-42.67
-43.105
-42.907
-42.107
-40.754
-38.913
-36.648
-34.026
-31.104
-27.941
-24.603
-21.165
-17.7
-14.277
-10.949
-7.75
-4.706
-1.837
0.851
3.358
5.696
7.883
9.935
11.862
13.674
15.381
16.997
18.54
20.026
21.473
22.896
24.309
25.727
27.164
28.632
30.14
31.699
33.315
34.999
36.761
38.612
40.564
42.625
44.805
47.112
49.553
52.133
54.855
57.72
60.726
63.87
67.149
70.555
74.082
77.718
81.453
85.274
89.167
93.115
97.101
101.107
105.113
109.099
113.044
116.927
120.726
124.419
127.985
131.401
134.647
137.702
140.546
143.157
145.518
147.609
149.413
150.913
152.095
152.945
153.452
153.606
153.399
152.825
151.881
150.564
148.876
146.817
144.392
141.608
138.47
134.99
131.178
127.047
122.611
117.887
112.892
107.643
102.161
96.463
90.572
84.508
78.293
71.948
65.495
58.959
52.36
45.723
39.07
32.424
25.808
19.242
12.749
6.348
0.059
-6.101
-12.114
-17.966
-23.64
-29.125
-34.408
-39.48
-44.33
-48.951
-53.336
-57.481
-61.383
-65.039
-68.451
-71.618
-74.542
-77.227
-79.675
-81.893
-83.886
-85.659
-87.221
-88.579
-89.743
-90.723
-91.528
-92.171
-92.662
-93.014
-93.238
-93.346
-93.349
-93.259
-93.085
-92.839
-92.531
-92.169
-91.763
-91.322
-90.856
-90.373
-89.882
-89.389
-88.901
-88.424
-87.963
-87.521
-87.098
-86.694
-86.308
-85.941
-85.592
-85.261
-84.947
-84.649
-84.366
-84.098
-83.846
-83.605
-83.369
-83.124
-82.863
-82.589
-82.304
-82.019
-81.741
-81.472
-81.222
-81.005
-80.826
-80.684
-80.566
-80.444
-80.304
-80.137
-79.947
-79.751
-79.552
-79.336
-79.092
-78.801
-78.445
-78.011
-77.471
-76.776
-75.907
-74.866
-73.683
-72.424
-71.132
-69.83
-68.535
-67.247
-65.978
-64.761
-63.618
-62.569
-61.64
-60.856
-60.268
-59.955
-59.958
-60.282
-60.897
-61.729
-62.727
-63.863
-65.11
-66.447
-67.848
-69.274
-70.704
-72.137
-73.553
-74.932
-76.229
-77.374
-78.331
-79.097
-79.69
-80.16
-80.536
-80.831
-81.065
-81.264
-81.45
-81.646
-81.851
-82.046
-82.224
-82.387
-82.541
-82.698
-82.845
-82.953
-82.999
-82.958
-82.824
-82.595
-82.263
-81.819
-81.258
-80.596
-79.86
-79.08
-78.277
-77.467
-76.679
-75.956
-75.368
-74.973
-74.8
-74.857
-75.131
-75.609
-76.268
-77.079
-77.99
-78.927
-79.822
-80.622
-81.286
-81.77
-82.011
-81.927
-81.42
-80.422
-78.894
-76.827
-74.233
-71.135
-67.577
-63.626
-59.368
-54.903
-50.314
-45.666
-41.017
-36.434
-31.998
-27.798
-23.923
-20.434
-17.378
-14.791
-12.688
-11.069
-9.902
-9.153
-8.785
-8.771
-9.102
-9.771
-10.767
-12.075
-13.678
-15.556
-17.703
-20.119
-22.794
-25.716
-28.876
-32.274
-35.926
-39.835
-43.968
-48.272
-52.677
-57.122
-61.551
-65.908
-70.123
-74.135
-77.871
-81.272
-84.299
-86.933
-89.182
-91.071
-92.625
-93.881
-94.892
-95.745
-96.549
-97.415
-98.45
-99.764
-101.438
-103.577
-106.364
-109.872
-114.012
-118.556
-122.989
-126.729
-129.325
-130.209
-128.66
-124.33
-117.281
-107.979
-97.749
-88.033
-79.898
-74.719
-73.795
-77.335
-84.542
-93.729
-101.664
-104.458
-98.451
-79.122
-41.742
14.281
85.79
169.925
261.493
360.502
473.808
597.931
724.4
836.195
902.224
905.984
841.836
713.685
549.054
372.146
205.559
74.749
-15.529
-66.575
-85.994
-94.53
-101.938
-110.813
-120.425
-121.783
-112.466
-96.75
-79.409
-66.339
-59.92
-58.866
-61.651
-66.818
-73.025
-79.025
-83.391
-85.2
-84.377
-81.372
-76.918
-71.668
-66.167
-61.061
-57.021
-54.43
-53.364
-53.698
-55.151
-57.475
-60.495
-63.988
-67.721
-71.523
-75.232
-78.722
-81.909
-84.681
-86.949
-88.666
-89.8
-90.343
-90.321
-89.761
-88.71
-87.237
-85.402
-83.264
-80.884
-78.314
-75.617
-72.858
-70.096
-67.388
-64.775
-62.281
-59.923
-57.71
-55.639
-53.703
-51.885
-50.164
-48.523
-46.948
-45.423
-43.932
-42.458
-40.981
-39.481
-37.94
-36.342
-34.672
-32.919
-31.07
-29.118
-27.056
-24.875
-22.568
-20.124
-17.534
-14.787
-11.873
-8.785
-5.514
-2.058
1.584
5.408
9.411
13.591
17.948
22.481
27.189
32.062
37.094
42.27
47.573
52.975
58.438
63.919
69.385
74.807
80.161
85.437
90.62
95.696
100.662
105.504
110.207
114.763
119.147
123.343
127.349
131.179
134.868
138.46
141.979
145.442
148.86
152.23
155.534
158.735
161.762
164.555
167.062
169.233
171.036
172.435
173.373
173.785
173.594
172.714
171.078
168.627
165.297
161.039
155.844
149.754
142.86
135.263
127.055
118.329
109.18
99.718
90.059
80.321
70.613
61.042
51.72
42.761
34.295
26.448
19.301
12.879
7.166
2.129
-2.268
-6.069
-9.336
-12.163
-14.632
-16.805
-18.728
-20.433
-21.971
-23.402
-24.802
-26.246
-27.783
-29.433
-31.199
-33.076
-35.047
-37.088
-39.15
-41.159
-43.062
-44.83
-46.449
-47.92
-49.238
-50.385
-51.349
-52.117
-52.684
-53.053
-53.226
-53.206
-53.005
-52.645
-52.16
-51.596
-50.99
-50.364
-49.734
-49.108
-48.498
-47.913
-47.358
-46.835
-46.344
-45.889
-45.476
-45.113
-44.802
-44.542
-44.328
-44.154
-44.012
-43.9
-43.812
-43.744
-43.692
-43.654
-43.628
-43.615
-43.614
-43.623
-43.638
-43.656
-43.673
-43.685
-43.689
-43.68
-43.655
-43.61
-43.543
-43.453
-43.338
-43.195
-43.023
-42.822
-42.591
-42.328
-42.034
-41.707
-41.349
-40.959
-40.539
-40.09
-39.613
-39.112
-38.587
-38.041
-37.478
-36.9
-36.31
-35.709
-35.102
-34.49
-33.877
-33.264
-32.655
-32.051
-31.456
-30.87
-30.298
-29.739
-29.197
-28.672
-28.167
-27.682
-27.218
-26.777
-26.36
-25.967
-25.6
-25.259
-24.947
-24.664
-24.411
-24.189
-24
-23.844
-23.721
-23.631
-23.574
-23.549
-23.555
-23.59
-23.652
-23.739
-23.847
-23.974
-24.117
-24.275
-24.444
-24.623
-24.808
-25.001
-25.198
-25.397
-25.596
-25.791
-25.979
-26.156
-26.316
-26.454
-26.562
-26.634
-26.663
-26.642
-26.564
-26.419
-26.196
-25.881
-25.466
-24.945
-24.317
-23.583
-22.747
-21.818
-20.809
-19.745
-18.642
-17.516
-16.379
-15.236
-14.098
-12.976
-11.876
-10.81
-9.782
-8.778
-7.789
-6.796
-5.763
-4.659
-3.439
-2.041
-0.426
1.435
3.562
5.952
8.606
11.514
14.648
17.978
21.462
25.033
28.62
32.148
35.506
38.591
41.293
43.472
45.026
45.871
45.936
45.18
43.58
41.128
37.849
33.796
29.031
23.645
17.735
11.409
4.813
-1.911
-8.613
-15.115
-21.265
-26.937
-32.011
-36.399
-40.056
-42.952
-45.112
-46.595
-47.445
-47.739
-47.58
-47.082
-46.419
-45.764
-45.258
-45.109
-45.576
-46.815
-48.879
-51.623
-54.602
-57.328
-59.382
-60.254
-59.402
-56.534
-51.649
-45.351
-38.988
-34.054
-31.813
-33.337
-39.434
-50.354
-65.655
-83.624
-101.094
-114.162
-118.936
-111.977
-90.082
-50.573
8.27
86.805
181.465
285.093
391.002
492.217
586.821
678.735
764.821
839.089
889.212
892.863
840.927
733.556
576.498
392.121
200.561
18.383
-131.831
-236.042
-288.664
-287.625
-244.327
-178.634
-108.268
-52.604
-24.336
-22.674
-40.686
-64.384
-80.966
-86.874
-84.178
-79.928
-79.184
-81.795
-85.819
-88.061
-87.237
-84.381
-80.601
-76.963
-74.189
-72.525
-72.096
-72.916
-74.726
-77.145
-79.883
-82.727
-85.488
-87.992
-90.061
-91.51
-92.234
-92.199
-91.405
-89.902
-87.761
-85.063
-81.918
-78.467
-74.856
-71.239
-67.752
-64.504
-61.595
-59.106
-57.116
-55.718
-54.959
-54.835
-55.287
-56.189
-57.407
-58.828
-60.336
-61.812
-63.143
-64.208
-64.911
-65.192
-64.987
-64.242
-62.899
-60.882
-58.158
-54.75
-50.718
-46.179
-41.26
-36.048
-30.626
-25.074
-19.452
-13.823
-8.233
-2.696
2.768
8.128
13.348
18.366
23.145
27.686
32.015
36.187
40.27
44.307
48.332
52.381
56.473
60.621
64.83
69.082
73.36
77.658
81.98
86.339
90.748
95.195
99.663
104.121
108.531
112.861
117.085
121.169
125.091
128.833
132.382
135.736
138.895
141.85
144.592
147.102
149.363
151.362
153.087
154.527
155.674
156.523
157.072
157.323
157.276
156.929
156.275
155.304
154.01
152.392
150.45
148.192
145.629
142.781
139.677
136.352
132.831
129.134
125.273
121.249
117.068
112.732
108.241
103.608
98.841
93.946
88.936
83.821
78.595
73.248
67.746
62.049
56.142
50.027
43.715
37.25
30.676
24.047
17.443
10.925
4.543
-1.647
-7.612
-13.319
-18.712
-23.735
-28.31
-32.344
-35.782
-38.587
-40.738
-42.251
-43.156
-43.503
-43.381
-42.865
-42.014
-40.884
-39.509
-37.921
-36.173
-34.318
-32.417
-30.553
-28.785
-27.157
-25.714
-24.471
-23.427
-22.566
-21.839
-21.205
-20.642
-20.134
-19.679
-19.281
-18.935
-18.635
-18.382
-18.16
-17.957
-17.768
-17.578
-17.388
-17.205
-17.045
-16.934
-16.898
-16.951
-17.101
-17.35
-17.694
-18.131
-18.654
-19.25
-19.912
-20.634
-21.409
-22.236
-23.111
-24.025
-24.97
-25.935
-26.909
-27.883
-28.849
-29.802
-30.735
-31.647
-32.537
-33.406
-34.256
-35.088
-35.903
-36.698
-37.476
-38.234
-38.975
-39.697
-40.401
-41.089
-41.763
-42.427
-43.084
-43.736
-44.387
-45.04
-45.696
-46.359
-47.03
-47.71
-48.399
-49.1
-49.813
-50.539
-51.276
-52.026
-52.787
-53.558
-54.338
-55.124
-55.911
-56.695
-57.472
-58.237
-58.985
-59.712
-60.413
-61.084
-61.724
-62.332
-62.906
-63.443
-63.94
-64.392
-64.796
-65.15
-65.449
-65.688
-65.861
-65.966
-66.005
-65.981
-65.898
-65.757
-65.55
-65.274
-64.927
-64.505
-64.006
-63.422
-62.743
-61.967
-61.105
-60.169
-59.173
-58.122
-57.013
-55.844
-54.612
-53.317
-51.975
-50.595
-49.18
-47.747
-46.316
-44.915
-43.588
-42.357
-41.219
-40.175
-39.217
-38.337
-37.545
-36.84
-36.216
-35.668
-35.176
-34.72
-34.287
-33.852
-33.381
-32.833
-32.141
-31.261
-30.174
-28.866
-27.341
-25.619
-23.712
-21.648
-19.472
-17.231
-14.983
-12.803
-10.75
-8.887
-7.29
-6.032
-5.21
-4.912
-5.209
-6.154
-7.766
-10.035
-12.933
-16.417
-20.414
-24.846
-29.621
-34.615
-39.726
-44.856
-49.896
-54.746
-59.295
-63.429
-67.049
-70.092
-72.54
-74.417
-75.796
-76.747
-77.352
-77.715
-77.962
-78.262
-78.787
-79.687
-81.083
-83.126
-86.013
-89.862
-94.675
-100.252
-106.138
-111.834
-116.915
-120.908
-123.267
-123.643
-121.935
-118.516
-114.397
-110.646
-108.058
-107.3
-108.907
-113.091
-119.598
-127.142
-133.235
-134.911
-129.358
-114.16
-86.974
-45.415
12.328
86.525
174.03
268.845
365.319
459.145
550.363
640.736
726.193
797.989
841.092
839.159
786.835
686.743
548.587
389.401
223.463
66.383
-62.894
-154.119
-203.792
-218.225
-215.149
-206.417
-196.517
-184.952
-165.606
-138.01
-107.263
-78.376
-56.435
-43.727
-40.052
-44.486
-55.112
-69.165
-83.385
-95.514
-104.596
-109.968
-111.148
-108.147
-101.305
-91.802
-81.618
-71.971
-63.331
-56.048
-50.257
-46.038
-43.5
-42.353
-41.949
-41.931
-42.156
-42.545
-43.149
-43.925
-44.776
-45.724
-46.856
-48.228
-49.86
-51.726
-53.758
-55.918
-58.163
-60.423
-62.602
-64.592
-66.318
-67.736
-68.825
-69.575
-69.969
-69.986
-69.626
-68.891
-67.79
-66.33
-64.511
-62.343
-59.861
-57.122
-54.201
-51.172
-48.082
-44.965
-41.843
-38.734
-35.648
-32.587
-29.536
-26.476
-23.39
-20.267
-17.098
-13.874
-10.571
-7.161
-3.615
0.096
3.987
8.072
12.363
16.866
21.579
26.493
31.584
36.829
42.2
47.665
53.191
58.749
64.315
69.867
75.397
80.891
86.341
91.738
97.062
102.297
107.435
112.462
117.373
122.174
126.875
131.502
136.09
140.65
145.183
149.675
154.086
158.383
162.522
166.455
170.15
173.574
176.688
179.463
181.86
183.822
185.285
186.164
186.366
185.834
184.526
182.422
179.539
175.891
171.505
166.427
160.678
154.289
147.307
139.766
131.731
123.287
114.533
105.601
96.624
87.706
78.94
70.396
62.117
54.152
46.539
39.307
32.507
26.177
20.34
15.024
10.225
5.914
2.046
-1.458
-4.676
-7.664
-10.471
-13.129
-15.655
-18.076
-20.413
-22.684
-24.929
-27.177
-29.449
-31.772
-34.146
-36.557
-38.978
-41.359
-43.651
-45.823
-47.852
-49.724
-51.439
-52.988
-54.368
-55.584
-56.624
-57.485
-58.164
-58.653
-58.958
-59.094
-59.081
-58.951
-58.736
-58.458
-58.135
-57.782
-57.405
-57.014
-56.614
-56.203
-55.786
-55.366
-54.949
-54.542
-54.15
-53.773
-53.414
-53.068
-52.734
-52.409
-52.094
-51.787
-51.49
-51.205
-50.934
-50.682
-50.454
-50.25
-50.074
-49.924
-49.801
-49.704
-49.631
-49.581
-49.552
-49.543
-49.551
-49.576
-49.616
-49.67
-49.736
-49.812
-49.896
-49.987
-50.082
-50.181
-50.281
-50.38
-50.479
-50.575
-50.669
-50.759
-50.846
-50.93
-51.009
-51.084
-51.154
-51.218
-51.275
-51.326
-51.369
-51.405
-51.434
-51.458
-51.478
-51.496
-51.515
-51.535
-51.559
-51.589
-51.626
-51.673
-51.732
-51.803
-51.89
-51.994
-52.118
-52.264
-52.432
-52.623
-52.837
-53.072
-53.328
-53.601
-53.886
-54.18
-54.48
-54.78
-55.078
-55.37
-55.652
-55.921
-56.174
-56.41
-56.624
-56.809
-56.958
-57.065
-57.121
-57.12
-57.051
-56.906
-56.675
-56.353
-55.936
-55.42
-54.798
-54.062
-53.2
-52.204
-51.073
-49.809
-48.415
-46.896
-45.263
-43.537
-41.751
-39.937
-38.115
-36.298
-34.485
-32.678
-30.881
-29.098
-27.332
-25.577
-23.819
-22.054
-20.284
-18.508
-16.713
-14.866
-12.909
-10.794
-8.498
-6.024
-3.393
-0.631
2.228
5.136
8.027
10.809
13.4
15.74
17.784
19.492
20.81
21.656
21.926
21.526
20.399
18.514
15.864
12.449
8.297
3.469
-1.927
-7.743
-13.846
-20.128
-26.501
-32.886
-39.191
-45.302
-51.085
-56.421
-61.21
-65.371
-68.838
-71.551
-73.487
-74.688
-75.251
-75.33
-75.066
-74.557
-73.896
-73.189
-72.557
-72.141
-72.08
-72.466
-73.424
-75.151
-77.747
-81.182
-85.237
-89.405
-93.129
-95.969
-97.413
-96.84
-93.938
-88.764
-81.903
-74.725
-68.577
-64.349
-62.946
-65.18
-71.176
-80.227
-90.407
-98.313
-100.512
-93.978
-75.371
-41.6
9.533
77.273
157.297
244.218
333.751
426.716
526.203
628.903
723.522
790.071
807.572
769.413
684.495
571.92
453.527
340.012
232.038
131.017
38.552
-37.916
-88.43
-114.609
-120.857
-114.048
-104.065
-91.812
-78.211
-66.367
-56.37
-50.815
-51.444
-56.773
-65.511
-76.003
-85.903
-93.546
-98.165
-99.35
-97.315
-92.808
-86.538
-79.173
-71.567
-64.482
-58.304
-53.231
-49.23
-46.1
-43.731
-42.051
-40.955
-40.324
-40.064
-40.113
-40.447
-41.081
-41.988
-43.092
-44.31
-45.567
-46.818
-48.047
-49.249
-50.401
-51.469
-52.414
-53.184
-53.755
-54.113
-54.237
-54.102
-53.672
-52.923
-51.86
-50.505
-48.877
-46.988
-44.839
-42.429
-39.781
-36.927
-33.909
-30.775
-27.556
-24.275
-20.958
-17.629
-14.317
-11.045
-7.818
-4.632
-1.485
1.622
4.685
7.704
10.69
13.663
16.644
19.659
22.728
25.862
29.076
32.378
35.772
39.258
42.832
46.485
50.217
54.032
57.93
61.909
65.962
70.073
74.225
78.393
82.543
86.629
90.61
94.452
98.128
101.628
104.936
108.035
110.905
113.523
115.884
117.993
119.859
121.487
122.9
124.13
125.237
126.311
127.433
128.66
130.029
131.559
133.265
135.185
137.368
139.812
142.459
145.209
147.923
150.502
152.892
154.961
156.483
157.29
157.278
156.55
155.44
154.054
152.205
149.653
146.111
141.287
134.997
126.66
115.234
100.3
82.135
61.486
39.66
17.818
-3.247
-22.229
-37.308
-47.449
-52.406
-52.749
-50.002
-45.347
-39.439
-33.319
-28.306
-25.235
-24.521
-25.86
-28.15
-30.699
-33.274
-35.557
-37.273
-38.243
-38.334
-37.774
-37.149
-36.798
-36.829
-37.274
-38.026
-39.028
-40.289
-41.721
-43.165
-44.518
-45.722
-46.769
-47.707
-48.553
-49.289
-49.906
-50.39
-50.74
-50.971
-51.097
-51.136
-51.109
-51.039
-50.954
-50.889
-50.86
-50.877
-50.937
-51.024
-51.131
-51.256
-51.398
-51.554
-51.728
-51.925
-52.161
-52.459
-52.831
-53.277
-53.79
-54.347
-54.931
-55.528
-56.121
-56.694
-57.231
-57.713
-58.126
-58.465
-58.706
-58.817
-58.747
-58.421
-57.791
-56.836
-55.545
-53.933
-52.023
-49.845
-47.45
-44.905
-42.269
-39.596
-36.925
-34.28
-31.705
-29.261
-27.024
-25.098
-23.556
-22.439
-21.776
-21.574
-21.817
-22.479
-23.496
-24.776
-26.243
-27.838
-29.517
-31.256
-33.017
-34.745
-36.379
-37.847
-39.092
-40.083
-40.794
-41.208
-41.331
-41.182
-40.809
-40.289
-39.679
-39.016
-38.324
-37.614
-36.902
-36.215
-35.583
-35.026
-34.56
-34.188
-33.913
-33.738
-33.66
-33.663
-33.712
-33.767
-33.801
-33.812
-33.811
-33.808
-33.804
-33.789
-33.745
-33.674
-33.588
-33.501
-33.431
-33.389
-33.384
-33.439
-33.593
-33.867
-34.261
-34.747
-35.264
-35.78
-36.282
-36.776
-37.282
-37.796
-38.289
-38.739
-39.113
-39.375
-39.492
-39.4
-39.021
-38.316
-37.272
-35.919
-34.326
-32.525
-30.517
-28.284
-25.791
-23.036
-20.042
-16.828
-13.428
-9.896
-6.304
-2.767
0.587
3.673
6.435
8.856
10.951
12.699
14.057
14.975
15.384
15.243
14.527
13.196
11.237
8.667
5.533
1.932
-2.027
-6.269
-10.725
-15.339
-20.071
-24.855
-29.62
-34.304
-38.826
-43.109
-47.073
-50.618
-53.667
-56.178
-58.134
-59.563
-60.52
-61.054
-61.243
-61.179
-60.933
-60.605
-60.304
-60.143
-60.264
-60.809
-61.901
-63.727
-66.527
-70.397
-75.254
-80.821
-86.555
-91.933
-96.578
-100
-101.558
-100.961
-98.407
-94.632
-91.068
-89.037
-89.192
-92.121
-98.52
-108.354
-120.612
-133.197
-142.613
-145.244
-138.443
-119.637
-86.087
-36.102
30.636
113.093
207.836
310.103
415.706
517.651
607.848
681.135
731.01
757.242
764.654
750.098
712.787
645.671
534.217
383.532
206.18
26.036
-117.823
-205.709
-232.893
-208.347
-158.25
-104.238
-61.458
-37.462
-32.254
-40.958
-54.201
-66.136
-72.169
-71.521
-69.716
-69.002
-69.643
-71.19
-70.38
-65.907
-58.619
-49.325
-39.322
-29.743
-21.16
-13.95
-8.368
-4.406
-1.821
-0.457
-0.228
-1.011
-2.702
-5.174
-8.252
-11.791
-15.692
-19.802
-23.936
-27.921
-31.588
-34.829
-37.601
-39.889
-41.684
-42.981
-43.769
-44.023
-43.741
-42.945
-41.664
-39.948
-37.849
-35.435
-32.795
-30.028
-27.232
-24.477
-21.796
-19.206
-16.712
-14.321
-12.044
-9.894
-7.868
-5.962
-4.172
-2.491
-0.912
0.58
2.014
3.429
4.87
6.367
7.941
9.606
11.375
13.257
15.262
17.396
19.66
22.053
24.583
27.254
30.074
33.047
36.172
39.444
42.858
46.407
50.088
53.892
57.812
61.84
65.964
70.178
74.472
78.834
83.251
87.706
92.182
96.659
101.12
105.543
109.907
114.188
118.365
122.417
126.323
130.06
133.609
136.95
140.063
142.929
145.531
147.851
149.873
151.581
152.961
154.002
154.691
155.019
154.98
154.567
153.778
152.61
151.063
149.141
146.846
144.184
141.164
137.796
134.09
130.061
125.725
121.097
116.198
111.048
105.668
100.08
94.307
88.373
82.302
76.118
69.845
63.509
57.134
50.746
44.367
38.024
31.74
25.538
19.44
13.468
7.641
1.978
-3.503
-8.787
-13.859
-18.706
-23.318
-27.684
-31.796
-35.648
-39.235
-42.554
-45.605
-48.387
-50.904
-53.158
-55.155
-56.902
-58.405
-59.674
-60.717
-61.545
-62.169
-62.6
-62.85
-62.932
-62.86
-62.647
-62.307
-61.854
-61.301
-60.662
-59.951
-59.179
-58.359
-57.503
-56.621
-55.725
-54.823
-53.927
-53.043
-52.179
-51.343
-50.539
-49.774
-49.049
-48.37
-47.737
-47.152
-46.616
-46.13
-45.693
-45.305
-44.964
-44.669
-44.419
-44.21
-44.041
-43.908
-43.808
-43.738
-43.694
-43.672
-43.669
-43.682
-43.707
-43.741
-43.781
-43.823
-43.865
-43.903
-43.935
-43.958
-43.971
-43.972
-43.959
-43.932
-43.89
-43.835
-43.765
-43.683
-43.589
-43.485
-43.371
-43.249
-43.12
-42.988
-42.852
-42.714
-42.578
-42.444
-42.315
-42.191
-42.076
-41.97
-41.875
-41.793
-41.725
-41.674
-41.639
-41.625
-41.631
-41.661
-41.716
-41.799
-41.909
-42.05
-42.22
-42.421
-42.652
-42.912
-43.201
-43.517
-43.858
-44.222
-44.607
-45.01
-45.429
-45.861
-46.304
-46.754
-47.209
-47.667
-48.124
-48.579
-49.03
-49.472
-49.905
-50.326
-50.731
-51.117
-51.482
-51.822
-52.133
-52.409
-52.646
-52.838
-52.98
-53.069
-53.1
-53.069
-52.974
-52.814
-52.589
-52.299
-51.946
-51.528
-51.047
-50.503
-49.895
-49.224
-48.488
-47.687
-46.819
-45.884
-44.886
-43.825
-42.701
-41.516
-40.267
-38.956
-37.59
-36.179
-34.734
-33.271
-31.811
-30.376
-29
-27.71
-26.535
-25.499
-24.618
-23.91
-23.384
-23.051
-22.926
-23.009
-23.29
-23.747
-24.354
-25.077
-25.883
-26.728
-27.561
-28.329
-28.989
-29.507
-29.86
-30.037
-30.034
-29.847
-29.471
-28.923
-28.24
-27.473
-26.692
-25.956
-25.321
-24.851
-24.618
-24.691
-25.133
-25.987
-27.278
-29.022
-31.229
-33.916
-37.096
-40.76
-44.874
-49.396
-54.281
-59.498
-65.026
-70.81
-76.766
-82.822
-88.933
-95.069
-101.219
-107.368
-113.432
-119.39
-125.309
-131.113
-136.596
-141.374
-144.775
-146.203
-145.303
-141.595
-134.544
-124.158
-110.832
-95.627
-80.492
-67.024
-56.316
-49.575
-47.623
-50.142
-55.929
-62.406
-65.564
-61.629
-47.054
-18.11
28.15
91.271
167.701
253.227
343.438
438.858
542.425
649.377
746.772
814.193
832.155
794.842
711.504
599.571
470.857
330.388
180.784
27.568
-107.862
-201.047
-240.373
-227.239
-182.25
-132.985
-94.737
-72.691
-63.142
-56.937
-50.873
-46.285
-44.985
-49.008
-57.587
-67.687
-76.352
-81.838
-83.687
-82.186
-78.17
-72.514
-65.997
-59.614
-54.318
-50.51
-48.293
-47.583
-48.061
-49.506
-51.751
-54.525
-57.59
-60.778
-63.94
-66.965
-69.763
-72.196
-74.152
-75.563
-76.383
-76.61
-76.264
-75.368
-73.973
-72.134
-69.909
-67.355
-64.522
-61.458
-58.226
-54.894
-51.533
-48.219
-45.005
-41.928
-39.021
-36.295
-33.755
-31.397
-29.208
-27.167
-25.259
-23.473
-21.796
-20.221
-18.731
-17.308
-15.936
-14.595
-13.267
-11.937
-10.589
-9.208
-7.783
-6.302
-4.758
-3.142
-1.445
0.344
2.236
4.239
6.365
8.621
11.016
13.555
16.243
19.083
22.076
25.221
28.516
31.957
35.539
39.254
43.094
47.048
51.104
55.249
59.468
63.744
68.059
72.395
76.732
81.049
85.326
89.54
93.671
97.696
101.595
105.346
108.927
112.318
115.5
118.453
121.159
123.601
125.762
127.629
129.188
130.426
131.334
131.902
132.123
131.993
131.506
130.661
129.457
127.897
125.983
123.722
121.12
118.186
114.932
111.368
107.51
103.373
98.972
94.327
89.454
84.374
79.109
73.677
68.103
62.406
56.611
50.739
44.811
38.852
32.881
26.921
20.994
15.12
9.319
3.612
-1.983
-7.447
-12.762
-17.911
-22.881
-27.655
-32.223
-36.571
-40.69
-44.571
-48.207
-51.591
-54.718
-57.586
-60.192
-62.536
-64.619
-66.442
-68.01
-69.326
-70.396
-71.227
-71.826
-72.201
-72.36
-72.312
-72.069
-71.639
-71.036
-70.269
-69.352
-68.298
-67.119
-65.829
-64.441
-62.968
-61.424
-59.821
-58.174
-56.493
-54.791
-53.082
-51.374
-49.681
-48.012
-46.377
-44.785
-43.244
-41.762
-40.346
-39.002
-37.734
-36.547
-35.445
-34.432
-33.51
-32.68
-31.944
-31.303
-30.756
-30.302
-29.939
-29.665
-29.476
-29.37
-29.341
-29.387
-29.501
-29.679
-29.916
-30.206
-30.547
-30.933
-31.353
-31.796
-32.256
-32.725
-33.204
-33.686
-34.149
-34.597
-35.048
-35.517
-36.023
-36.561
-37.089
-37.599
-38.128
-38.643
-39.054
-39.293
-39.281
-39.011
-38.599
-38.076
-37.322
-36.468
-35.955
-35.872
-36.093
-36.681
-37.158
-38.431
-43.226
-50.905
-58.995
-63.335
-56.169
-38.125
-16.955
-0.439
0.388
-14.974
-36.139
-55.092
-63.116
-58.851
-50.08
-41.53
-36.486
-35.875
-36.517
-37.007
-37.444
-37.721
-38.319
-39.345
-40.371
-41.268
-42.106
-42.871
-43.541
-44.129
-44.65
-45.141
-45.672
-46.261
-46.871
-47.485
-48.103
-48.718
-49.328
-49.926
-50.498
-51.034
-51.536
-52
-52.426
-52.809
-53.146
-53.433
-53.666
-53.84
-53.951
-53.994
-53.963
-53.854
-53.66
-53.377
-53.001
-52.53
-51.96
-51.285
-50.497
-49.591
-48.566
-47.426
-46.175
-44.823
-43.38
-41.867
-40.308
-38.728
-37.152
-35.598
-34.081
-32.61
-31.197
-29.851
-28.584
-27.398
-26.284
-25.224
-24.195
-23.169
-22.114
-20.989
-19.738
-18.313
-16.675
-14.799
-12.676
-10.307
-7.708
-4.901
-1.917
1.196
4.374
7.535
10.579
13.407
15.912
17.987
19.512
20.383
20.519
19.86
18.375
16.062
12.951
9.089
4.537
-0.621
-6.288
-12.334
-18.599
-24.919
-31.123
-37.052
-42.553
-47.498
-51.785
-55.344
-58.14
-60.176
-61.484
-62.124
-62.191
-61.799
-61.075
-60.18
-59.281
-58.603
-58.446
-58.974
-60.2
-61.954
-63.835
-65.496
-66.752
-67.325
-66.754
-64.795
-61.545
-57.647
-54.424
-52.925
-53.515
-56.315
-61.454
-68.97
-78.366
-88.025
-94.999
-96.333
-90.063
-74.983
-49.799
-12.636
37.979
102.358
177.072
255.913
334.581
409.327
481.523
557.1
634.223
708.282
767.705
789.61
763.068
684.317
556.108
402.243
243.705
99.409
-8.279
-73.699
-97.286
-84.965
-52.752
-14.755
16.435
33.212
33.163
19.565
1.633
-14.174
-22.408
-22.646
-21.023
-20.873
-23.853
-29.323
-33.603
-35.221
-34.481
-31.983
-28.954
-26.041
-23.379
-21.401
-20.429
-20.545
-21.695
-23.685
-26.361
-29.631
-33.392
-37.481
-41.697
-45.879
-49.9
-53.66
-57.05
-59.96
-62.303
-64.022
-65.11
-65.568
-65.4
-64.602
-63.15
-61.04
-58.289
-54.934
-51.031
-46.639
-41.818
-36.645
-31.216
-25.638
-20.019
-14.44
-8.955
-3.612
1.532
6.39
10.843
14.784
18.144
20.875
22.945
24.319
24.957
24.855
24.059
22.651
20.729
18.374
15.648
12.623
9.395
6.093
2.889
-0.058
-2.63
-4.721
-6.234
-7.064
-7.091
-6.238
-4.487
-1.856
1.62
5.908
10.985
16.814
23.32
30.4
37.925
45.762
53.813
61.983
70.173
78.282
86.189
93.8
101.063
107.948
114.428
120.484
126.085
131.214
135.884
140.118
143.951
147.425
150.558
153.365
155.864
158.07
160.009
161.696
163.128
164.292
165.178
165.777
166.082
166.088
165.774
165.117
164.097
162.69
160.887
158.686
156.084
153.084
149.694
145.924
141.792
137.323
132.54
127.465
122.121
116.532
110.727
104.736
98.59
92.319
85.953
79.519
73.044
66.555
60.076
53.628
47.235
40.913
34.685
28.57
22.587
16.754
11.089
5.608
0.325
-4.747
-9.596
-14.214
-18.592
-22.724
-26.607
-30.235
-33.608
-36.725
-39.585
-42.192
-44.549
-46.66
-48.531
-50.169
-51.583
-52.78
-53.771
-54.565
-55.172
-55.604
-55.869
-55.981
-55.949
-55.786
-55.503
-55.112
-54.623
-54.047
-53.398
-52.685
-51.92
-51.114
-50.276
-49.415
-48.542
-47.664
-46.79
-45.927
-45.081
-44.258
-43.463
-42.705
-41.991
-41.325
-40.711
-40.148
-39.637
-39.181
-38.78
-38.436
-38.145
-37.906
-37.716
-37.582
-37.51
-37.505
-37.568
-37.693
-37.872
-38.106
-38.399
-38.761
-39.195
-39.7
-40.271
-40.908
-41.616
-42.403
-43.268
-44.187
-45.132
-46.074
-46.994
-47.898
-48.8
-49.691
-50.547
-51.311
-51.926
-52.384
-52.712
-52.954
-53.124
-53.189
-53.103
-52.903
-52.755
-52.765
-52.847
-52.688
-51.916
-50.391
-48.364
-46.229
-44.079
-41.952
-40.216
-39.667
-41.443
-46.375
-54.134
-63.61
-73.997
-84.533
-94.186
-101.676
-105.006
-102.269
-93.422
-79.662
-62.093
-42.275
-21.807
-2.193
13.978
23.983
27.004
23.114
12.497
-3.579
-23.998
-47.555
-71.546
-93.177
-110.865
-123.166
-128.891
-127.91
-119.819
-105.055
-85.836
-64.427
-42.858
-23.251
-7.251
3.893
8.607
6.57
-0.998
-12.615
-26.339
-40.449
-53.909
-65.549
-73.982
-78.67
-79.88
-78.323
-75.308
-71.72
-67.855
-64.154
-61.08
-58.877
-57.65
-57.173
-56.885
-56.487
-55.948
-55.252
-54.463
-53.586
-52.548
-51.375
-50.17
-48.983
-47.83
-46.683
-45.462
-44.129
-42.683
-41.128
-39.482
-37.748
-35.919
-33.996
-31.985
-29.902
-27.769
-25.604
-23.424
-21.246
-19.091
-16.982
-14.945
-13.001
-11.165
-9.449
-7.862
-6.414
-5.123
-4.002
-3.066
-2.326
-1.79
-1.465
-1.357
-1.466
-1.792
-2.337
-3.106
-4.106
-5.346
-6.83
-8.561
-10.536
-12.743
-15.162
-17.763
-20.511
-23.371
-26.309
-29.297
-32.302
-35.292
-38.228
-41.052
-43.704
-46.127
-48.259
-50.046
-51.458
-52.495
-53.18
-53.576
-53.737
-53.7
-53.521
-53.275
-53.056
-52.974
-53.14
-53.643
-54.626
-56.335
-58.908
-62.316
-66.308
-70.325
-73.794
-76.306
-77.396
-76.436
-73.113
-67.59
-60.651
-53.972
-49.217
-47.409
-49.416
-56.085
-67.545
-82.881
-99.805
-114.323
-122.212
-119.836
-103.702
-70.394
-16.888
56.392
144.999
243.575
345.665
450.164
561.892
677.909
789.369
879.727
923.792
909.285
837.834
718.826
570.343
408.112
243.205
90.75
-30.609
-108.727
-139.662
-132.699
-109.588
-85.811
-68.6
-57.628
-45.69
-31.324
-17.033
-5.645
-1.528
-5.167
-14.469
-27.889
-42.234
-54.643
-64.231
-70.372
-72.999
-72.915
-70.462
-65.852
-60.345
-55.078
-50.529
-47.103
-44.706
-42.974
-41.953
-41.713
-41.906
-42.238
-42.513
-42.53
-42.349
-42.071
-41.634
-40.973
-40.08
-38.981
-37.757
-36.506
-35.27
-34.079
-32.969
-31.976
-31.153
-30.539
-30.14
-29.939
-29.893
-29.952
-30.082
-30.258
-30.452
-30.617
-30.695
-30.633
-30.39
-29.938
-29.257
-28.323
-27.114
-25.619
-23.849
-21.831
-19.609
-17.236
-14.754
-12.193
-9.585
-6.962
-4.35
-1.771
0.77
3.279
5.761
8.218
10.657
13.086
15.524
17.995
20.521
23.132
25.85
28.693
31.683
34.833
38.147
41.624
45.257
49.025
52.913
56.897
60.941
65.012
69.076
73.097
77.058
80.942
84.729
88.401
91.941
95.343
98.618
101.785
104.851
107.83
110.737
113.599
116.476
119.42
122.471
125.665
129.01
132.507
136.16
139.956
143.865
147.83
151.763
155.556
159.13
162.406
165.298
167.701
169.468
170.463
170.573
169.702
167.778
164.736
160.518
155.098
148.499
140.784
132.065
122.485
112.163
101.217
89.789
78.04
66.171
54.387
42.857
31.733
21.159
11.283
2.24
-5.862
-12.976
-19.093
-24.245
-28.494
-31.892
-34.496
-36.391
-37.678
-38.483
-38.945
-39.172
-39.253
-39.281
-39.36
-39.581
-40.023
-40.724
-41.694
-42.926
-44.402
-46.101
-47.998
-50.049
-52.201
-54.391
-56.551
-58.631
-60.599
-62.418
-64.052
-65.471
-66.648
-67.577
-68.268
-68.728
-68.97
-69.006
-68.852
-68.534
-68.081
-67.524
-66.896
-66.222
-65.516
-64.796
-64.074
-63.36
-62.663
-61.985
-61.323
-60.678
-60.05
-59.442
-58.853
-58.283
-57.727
-57.181
-56.642
-56.107
-55.574
-55.041
-54.51
-53.979
-53.45
-52.923
-52.402
-51.887
-51.377
-50.871
-50.369
-49.869
-49.369
-48.87
-48.37
-47.868
-47.365
-46.862
-46.359
-45.857
-45.358
-44.862
-44.371
-43.886
-43.409
-42.94
-42.483
-42.038
-41.609
-41.197
-40.805
-40.434
-40.087
-39.765
-39.47
-39.203
-38.965
-38.758
-38.583
-38.44
-38.332
-38.259
-38.222
-38.222
-38.259
-38.333
-38.445
-38.594
-38.778
-38.998
-39.251
-39.536
-39.851
-40.193
-40.562
-40.954
-41.367
-41.799
-42.247
-42.708
-43.18
-43.659
-44.144
-44.632
-45.12
-45.608
-46.092
-46.572
-47.046
-47.513
-47.972
-48.422
-48.864
-49.295
-49.718
-50.131
-50.535
-50.932
-51.323
-51.708
-52.089
-52.468
-52.846
-53.225
-53.606
-53.991
-54.381
-54.778
-55.182
-55.595
-56.018
-56.451
-56.894
-57.348
-57.812
-58.285
-58.765
-59.252
-59.743
-60.236
-60.726
-61.211
-61.687
-62.149
-62.593
-63.012
-63.403
-63.758
-64.071
-64.335
-64.546
-64.695
-64.778
-64.786
-64.713
-64.552
-64.299
-63.948
-63.494
-62.933
-62.263
-61.479
-60.582
-59.572
-58.449
-57.215
-55.87
-54.415
-52.856
-51.199
-49.455
-47.637
-45.755
-43.823
-41.856
-39.871
-37.886
-35.916
-33.974
-32.071
-30.22
-28.439
-26.749
-25.173
-23.729
-22.428
-21.275
-20.282
-19.459
-18.815
-18.358
-18.085
-17.996
-18.101
-18.415
-18.967
-19.776
-20.847
-22.172
-23.733
-25.524
-27.557
-29.853
-32.423
-35.249
-38.269
-41.41
-44.625
-47.884
-51.187
-54.458
-57.516
-60.278
-62.84
-65.473
-68.491
-71.954
-75.58
-79.072
-82.428
-85.602
-88.295
-89.781
-89.139
-86.091
-81.294
-75.851
-70.535
-65.893
-62.609
-61.882
-65.131
-72.901
-84.34
-97.514
-110.725
-122.843
-132.72
-138.947
-140.241
-136.094
-127.464
-116.832
-106.32
-97.224
-90.935
-88.516
-90.042
-94.736
-100.221
-102.319
-97.443
-82.486
-53.628
-7.893
55.812
135.655
226.58
322.623
419.058
515.108
610.737
700.781
777.086
825.966
832.187
790.091
700.715
573.601
426.381
276.49
141.418
34.153
-40.29
-84.827
-111.153
-130.647
-149.514
-167.795
-178.05
-174.959
-159.254
-134.701
-107.46
-81.513
-57.512
-35.92
-18.038
-5.489
0.768
0.817
-4.293
-13.456
-25.893
-40.405
-55.028
-67.798
-77.421
-83.301
-85.594
-84.788
-81.362
-76.167
-70.475
-65.375
-61.549
-59.326
-58.625
-59.172
-60.709
-62.8
-64.856
-66.493
-67.513
-67.848
-67.587
-66.823
-65.595
-63.993
-62.135
-60.084
-57.877
-55.531
-53.03
-50.401
-47.701
-44.986
-42.317
-39.731
-37.243
-34.865
-32.606
-30.463
-28.432
-26.501
-24.657
-22.891
-21.2
-19.577
-18.015
-16.499
-15.007
-13.519
-12.01
-10.46
-8.853
-7.174
-5.411
-3.554
-1.593
0.481
2.672
4.99
7.444
10.042
12.792
15.702
18.775
22.016
25.425
29.002
32.744
36.647
40.703
44.904
49.239
53.698
58.268
62.938
67.693
72.52
77.402
82.323
87.266
92.21
97.133
102.012
106.824
111.544
116.149
120.617
124.925
129.054
132.986
136.703
140.189
143.424
146.389
149.059
151.415
153.444
155.135
156.483
157.492
158.17
158.528
158.581
158.34
157.81
156.988
155.861
154.418
152.648
150.548
148.127
145.395
142.359
139.022
135.385
131.437
127.159
122.526
117.506
112.083
106.259
100.059
93.532
86.741
79.76
72.651
65.462
58.237
51.019
43.85
36.776
29.851
23.142
16.723
10.686
5.101
0.015
-4.556
-8.627
-12.237
-15.447
-18.306
-20.855
-23.127
-25.146
-26.936
-28.516
-29.914
-31.163
-32.309
-33.416
-34.536
-35.709
-36.952
-38.256
-39.598
-40.934
-42.229
-43.452
-44.585
-45.618
-46.547
-47.376
-48.108
-48.751
-49.302
-49.747
-50.076
-50.281
-50.363
-50.335
-50.218
-50.039
-49.824
-49.598
-49.379
-49.178
-49.002
-48.854
-48.731
-48.628
-48.541
-48.471
-48.419
-48.388
-48.375
-48.38
-48.397
-48.422
-48.446
-48.463
-48.468
-48.453
-48.415
-48.351
-48.259
-48.139
-47.991
-47.813
-47.603
-47.36
-47.082
-46.767
-46.414
-46.021
-45.59
-45.119
-44.611
-44.068
-43.493
-42.89
-42.262
-41.614
-40.95
-40.276
-39.596
-38.915
-38.239
-37.572
-36.919
-36.285
-35.674
-35.091
-34.539
-34.022
-33.544
-33.108
-32.718
-32.374
-32.081
-31.839
-31.651
-31.517
-31.437
-31.413
-31.443
-31.527
-31.663
-31.851
-32.086
-32.367
-32.689
-33.049
-33.441
-33.862
-34.306
-34.767
-35.241
-35.723
-36.208
-36.692
-37.171
-37.641
-38.1
-38.543
-38.97
-39.379
-39.766
-40.131
-40.471
-40.787
-41.076
-41.339
-41.574
-41.784
-41.968
-42.127
-42.264
-42.379
-42.475
-42.555
-42.62
-42.673
-42.719
-42.761
-42.801
-42.845
-42.896
-42.957
-43.032
-43.124
-43.234
-43.363
-43.513
-43.682
-43.868
-44.07
-44.285
-44.508
-44.737
-44.969
-45.199
-45.425
-45.644
-45.852
-46.045
-46.22
-46.372
-46.493
-46.576
-46.613
-46.594
-46.513
-46.359
-46.127
-45.807
-45.395
-44.886
-44.274
-43.553
-42.714
-41.747
-40.642
-39.398
-38.015
-36.499
-34.863
-33.124
-31.303
-29.424
-27.505
-25.558
-23.587
-21.589
-19.556
-17.484
-15.375
-13.244
-11.105
-8.968
-6.842
-4.729
-2.62
-0.495
1.671
3.912
6.249
8.684
11.195
13.736
16.25
18.667
20.932
23.006
24.856
26.457
27.784
28.814
29.508
29.814
29.664
28.981
27.702
25.791
23.247
20.107
16.442
12.355
7.941
3.286
-1.533
-6.456
-11.423
-16.379
-21.252
-25.953
-30.381
-34.416
-37.95
-40.895
-43.2
-44.871
-45.967
-46.599
-46.869
-46.859
-46.656
-46.352
-46.067
-45.928
-46.068
-46.593
-47.656
-49.53
-52.376
-56.176
-60.695
-65.351
-69.507
-72.689
-74.353
-73.807
-70.745
-65.352
-58.44
-51.815
-47.271
-45.965
-49.013
-57.33
-70.876
-88.553
-107.747
-123.944
-132.549
-129.551
-110.718
-72.402
-12.272
68.574
164.913
270.151
378.598
489.895
606.195
722.82
827.355
899.019
916.216
873.251
780.649
658.913
531.571
410.015
294.84
187.772
90.387
10.185
-42.632
-70.282
-78.015
-73.577
-67.667
-61.138
-54.359
-49.811
-47.101
-48.5
-55.164
-64.626
-74.609
-83.058
-88.21
-89.516
-86.95
-80.661
-71.55
-61.434
-52.401
-45.847
-42.122
-40.693
-40.923
-42.396
-44.623
-46.768
-47.709
-46.695
-43.823
-39.897
-35.68
-31.672
-28.126
-25.083
-22.616
-20.7
-19.103
-17.625
-16.255
-14.856
-13.4
-12.324
-12.383
-14.657
-20.021
-28.21
-38.161
-49.057
-60.098
-70.311
-78.495
-82.495
-80.127
-71.101
-56.566
-38.133
-17.948
2.394
21.742
37.621
47.163
49.14
43.548
31.92
17.291
1.577
-14.328
-28.572
-39.071
-44.395
-43.393
-36.836
-27.385
-16.627
-5.25
5.829
15.975
24.384
29.833
32.471
33.745
34.535
35.362
36.546
37.907
39.614
42.256
45.882
50.087
54.591
59.111
63.56
68.148
72.923
77.783
82.701
87.665
92.683
97.813
103.055
108.339
113.615
118.828
123.941
128.943
133.813
138.521
143.036
147.318
151.335
155.064
158.486
161.591
164.362
166.782
168.836
170.509
171.796
172.691
173.187
173.273
172.941
172.186
171.009
169.414
167.407
164.995
162.187
158.991
155.421
151.492
147.221
142.625
137.723
132.535
127.083
121.39
115.481
109.38
103.112
96.702
90.177
83.562
76.884
70.168
63.44
56.725
50.05
43.438
36.913
30.498
24.215
18.084
12.125
6.355
0.789
-4.557
-9.671
-14.544
-19.165
-23.529
-27.631
-31.467
-35.035
-38.337
-41.373
-44.147
-46.662
-48.925
-50.942
-52.72
-54.269
-55.596
-56.713
-57.629
-58.356
-58.906
-59.292
-59.524
-59.617
-59.582
-59.434
-59.185
-58.847
-58.432
-57.953
-57.421
-56.846
-56.237
-55.605
-54.956
-54.299
-53.639
-52.982
-52.332
-51.693
-51.067
-50.458
-49.865
-49.29
-48.733
-48.194
-47.672
-47.165
-46.673
-46.194
-45.728
-45.271
-44.823
-44.381
-43.945
-43.513
-43.082
-42.651
-42.219
-41.784
-41.345
-40.902
-40.453
-39.998
-39.539
-39.074
-38.607
-38.138
-37.668
-37.201
-36.738
-36.283
-35.838
-35.408
-34.995
-34.603
-34.237
-33.901
-33.598
-33.331
-33.104
-32.92
-32.78
-32.687
-32.641
-32.645
-32.698
-32.801
-32.953
-33.155
-33.406
-33.706
-34.052
-34.443
-34.877
-35.352
-35.864
-36.411
-36.988
-37.593
-38.221
-38.867
-39.529
-40.2
-40.876
-41.552
-42.222
-42.881
-43.524
-44.145
-44.739
-45.303
-45.831
-46.322
-46.772
-47.18
-47.546
-47.867
-48.146
-48.38
-48.571
-48.719
-48.825
-48.889
-48.914
-48.901
-48.852
-48.769
-48.656
-48.515
-48.35
-48.163
-47.96
-47.742
-47.515
-47.283
-47.05
-46.822
-46.604
-46.401
-46.219
-46.064
-45.94
-45.851
-45.8
-45.79
-45.822
-45.895
-46.009
-46.162
-46.351
-46.577
-46.837
-47.129
-47.452
-47.804
-48.187
-48.599
-49.038
-49.5
-49.98
-50.472
-50.971
-51.47
-51.963
-52.439
-52.891
-53.311
-53.695
-54.037
-54.328
-54.557
-54.709
-54.772
-54.742
-54.617
-54.394
-54.075
-53.665
-53.179
-52.644
-52.085
-51.516
-50.941
-50.354
-49.751
-49.131
-48.492
-47.831
-47.135
-46.384
-45.568
-44.683
-43.721
-42.666
-41.481
-40.109
-38.505
-36.646
-34.537
-32.2
-29.661
-26.952
-24.119
-21.228
-18.367
-15.619
-13.046
-10.696
-8.613
-6.856
-5.507
-4.67
-4.429
-4.844
-5.95
-7.756
-10.271
-13.481
-17.339
-21.76
-26.623
-31.809
-37.223
-42.783
-48.412
-54.025
-59.517
-64.764
-69.662
-74.111
-78.021
-81.324
-83.953
-85.867
-87.075
-87.647
-87.695
-87.36
-86.763
-85.994
-85.159
-84.378
-83.793
-83.562
-83.819
-84.679
-86.298
-88.879
-92.534
-97.209
-102.626
-108.27
-113.593
-118.14
-121.416
-122.782
-121.795
-118.515
-113.557
-108.075
-103.29
-99.923
-98.507
-99.897
-104.557
-111.79
-119.748
-125.542
-125.926
-118.231
-100.012
-68.072
-19.174
46.832
126.371
215.01
307.491
402.026
503.187
611.146
718.845
814.732
877.837
888.479
841.68
738.708
589.453
416.968
239.755
78.078
-43.5
-117.774
-145.744
-137.812
-117.992
-99.853
-88.503
-83.759
-77.313
-67.222
-56.451
-47.717
-45.274
-49.791
-58.759
-70.182
-81.572
-90.704
-96.868
-99.771
-99.498
-96.817
-92.522
-87.285
-81.941
-77.262
-73.615
-71.15
-69.824
-69.383
-69.647
-70.477
-71.696
-73.146
-74.697
-76.259
-77.765
-79.16
-80.381
-81.363
-82.064
-82.506
-82.727
-82.754
-82.626
-82.371
-81.997
-81.525
-80.951
-80.233
-79.355
-78.314
-77.116
-75.799
-74.386
-72.883
-71.289
-69.574
-67.705
-65.669
-63.442
-61.006
-58.365
-55.527
-52.522
-49.416
-46.257
-43.073
-39.886
-36.695
-33.506
-30.332
-27.182
-24.065
-20.991
-17.962
-14.984
-12.064
-9.196
-6.368
-3.556
-0.719
2.174
5.143
8.205
11.37
14.646
18.042
21.562
25.202
28.96
32.836
36.827
40.936
45.158
49.485
53.904
58.401
62.961
67.572
72.218
76.884
81.555
86.216
90.852
95.451
99.998
104.474
108.861
113.139
117.289
121.29
125.122
128.762
132.188
135.382
138.324
140.996
143.38
145.458
147.215
148.637
149.711
150.426
150.773
150.743
150.331
149.535
148.355
146.795
144.857
142.545
139.862
136.809
133.393
129.619
125.496
121.033
116.246
111.151
105.772
100.136
94.271
88.204
81.959
75.554
69.011
62.361
55.637
48.885
42.15
35.469
28.876
22.407
16.085
9.934
3.966
-1.834
-7.483
-12.993
-18.37
-23.573
-28.568
-33.363
-37.991
-42.517
-46.987
-51.368
-55.586
-59.6
-63.403
-66.961
-70.184
-72.88
-74.921
-76.349
-77.454
-78.661
-80.104
-81.852
-83.948
-85.979
-87.638
-88.732
-88.045
-85.821
-82.933
-77.575
-69.825
-57.219
-36.421
-13.088
8.225
20.829
17.069
2.787
-16.237
-34.865
-46.108
-53.306
-59.459
-64.103
-68.927
-72.134
-72.294
-71.004
-68.8
-66.109
-63.708
-61.732
-60.267
-59.583
-59.497
-59.43
-59.087
-58.426
-57.481
-56.402
-55.264
-54.011
-52.675
-51.385
-50.229
-49.249
-48.427
-47.693
-47.004
-46.363
-45.784
-45.271
-44.809
-44.363
-43.897
-43.388
-42.828
-42.212
-41.538
-40.805
-40.014
-39.173
-38.3
-37.412
-36.521
-35.632
-34.745
-33.856
-32.974
-32.105
-31.26
-30.446
-29.669
-28.935
-28.248
-27.614
-27.036
-26.514
-26.048
-25.637
-25.283
-24.988
-24.753
-24.583
-24.48
-24.444
-24.479
-24.584
-24.761
-25.008
-25.324
-25.708
-26.158
-26.671
-27.244
-27.877
-28.565
-29.307
-30.1
-30.941
-31.827
-32.756
-33.724
-34.728
-35.763
-36.825
-37.909
-39.009
-40.121
-41.24
-42.359
-43.473
-44.578
-45.667
-46.735
-47.777
-48.787
-49.762
-50.695
-51.582
-52.419
-53.204
-53.931
-54.601
-55.209
-55.755
-56.237
-56.654
-57.006
-57.29
-57.506
-57.651
-57.723
-57.721
-57.644
-57.491
-57.261
-56.956
-56.577
-56.127
-55.609
-55.027
-54.384
-53.682
-52.923
-52.109
-51.241
-50.32
-49.344
-48.314
-47.228
-46.087
-44.892
-43.643
-42.339
-40.977
-39.549
-38.054
-36.492
-34.868
-33.188
-31.463
-29.707
-27.938
-26.183
-24.467
-22.813
-21.237
-19.752
-18.366
-17.086
-15.919
-14.875
-13.954
-13.14
-12.412
-11.742
-11.097
-10.444
-9.737
-8.918
-7.937
-6.757
-5.352
-3.715
-1.849
0.233
2.514
4.972
7.563
10.22
12.853
15.363
17.651
19.627
21.187
22.222
22.641
22.379
21.402
19.705
17.302
14.216
10.484
6.159
1.323
-3.911
-9.394
-14.961
-20.459
-25.747
-30.686
-35.147
-39.041
-42.316
-44.98
-47.053
-48.548
-49.502
-49.977
-50.075
-49.941
-49.733
-49.614
-49.802
-50.579
-52.113
-54.405
-57.24
-60.122
-62.541
-64.127
-64.469
-63.029
-59.541
-54.22
-47.858
-41.967
-38.025
-36.847
-39.002
-45.13
-55.324
-68.621
-82.816
-94.285
-99.147
-94.572
-77.973
-46.399
2.537
69.955
153.194
245.655
341.003
433.475
523.035
615.331
709.21
800.119
874.553
906.019
879.505
789.759
643.89
472.159
303.091
160.319
61.087
2.592
-25.199
-36.338
-44.899
-54.406
-62.84
-64.918
-56.973
-42.016
-25.671
-13.231
-7.385
-7.527
-11.863
-18.83
-27.199
-35.437
-41.91
-45.602
-46.203
-44.121
-40.164
-35.002
-29.235
-23.603
-18.827
-15.352
-13.328
-12.642
-13.033
-14.289
-16.236
-18.691
-21.458
-24.373
-27.315
-30.175
-32.873
-35.304
-37.348
-38.924
-39.985
-40.507
-40.5
-39.992
-39.016
-37.626
-35.89
-33.862
-31.597
-29.151
-26.569
-23.91
-21.234
-18.596
-16.051
-13.639
-11.384
-9.3
-7.389
-5.643
-4.051
-2.594
-1.245
0.015
1.204
2.342
3.444
4.529
5.618
6.731
7.889
9.111
10.412
11.81
13.317
14.946
16.707
18.609
20.66
22.866
25.238
27.781
30.504
33.412
36.509
39.797
43.276
46.947
50.804
54.843
59.054
63.429
67.955
72.619
77.406
82.299
87.28
92.329
97.424
102.544
107.665
112.764
117.816
122.798
127.684
132.451
137.075
141.531
145.798
149.852
153.672
157.237
160.526
163.52
166.202
168.555
170.564
172.216
173.497
174.4
174.916
175.038
174.763
174.089
173.014
171.543
169.677
167.423
164.79
161.785
158.421
154.711
150.668
146.31
141.652
136.713
131.511
126.065
120.397
114.526
108.474
102.263
95.915
89.452
82.897
76.272
69.6
62.903
56.202
49.519
42.874
36.288
29.778
23.364
17.063
10.891
4.865
-1.002
-6.695
-12.204
-17.517
-22.626
-27.52
-32.195
-36.644
-40.863
-44.847
-48.596
-52.106
-55.377
-58.411
-61.208
-63.771
-66.103
-68.208
-70.093
-71.762
-73.223
-74.482
-75.548
-76.427
-77.128
-77.661
-78.032
-78.253
-78.332
-78.278
-78.102
-77.813
-77.421
-76.937
-76.369
-75.727
-75.021
-74.259
-73.449
-72.602
-71.725
-70.825
-69.912
-68.992
-68.073
-67.162
-66.264
-65.386
-64.533
-63.709
-62.918
-62.164
-61.451
-60.781
-60.158
-59.584
-59.061
-58.592
-58.179
-57.823
-57.526
-57.287
-57.108
-56.988
-56.927
-56.925
-56.981
-57.092
-57.259
-57.478
-57.747
-58.064
-58.427
-58.83
-59.271
-59.747
-60.252
-60.785
-61.34
-61.914
-62.504
-63.106
-63.718
-64.335
-64.955
-65.574
-66.189
-66.796
-67.392
-67.972
-68.533
-69.072
-69.585
-70.068
-70.518
-70.932
-71.309
-71.645
-71.938
-72.188
-72.393
-72.553
-72.669
-72.741
-72.771
-72.761
-72.714
-72.632
-72.52
-72.379
-72.214
-72.028
-71.825
-71.608
-71.381
-71.147
-70.91
-70.674
-70.443
-70.222
-70.014
-69.824
-69.657
-69.518
-69.41
-69.34
-69.31
-69.326
-69.392
-69.51
-69.685
-69.918
-70.211
-70.565
-70.978
-71.451
-71.981
-72.564
-73.197
-73.874
-74.592
-75.345
-76.125
-76.929
-77.748
-78.576
-79.407
-80.233
-81.048
-81.843
-82.612
-83.346
-84.038
-84.679
-85.262
-85.778
-86.219
-86.576
-86.842
-87.006
-87.062
-87.002
-86.817
-86.502
-86.052
-85.462
-84.729
-83.851
-82.829
-81.662
-80.353
-78.907
-77.326
-75.616
-73.784
-71.837
-69.783
-67.631
-65.391
-63.072
-60.686
-58.246
-55.767
-53.262
-50.747
-48.238
-45.751
-43.304
-40.912
-38.593
-36.36
-34.23
-32.218
-30.342
-28.619
-27.065
-25.693
-24.517
-23.547
-22.792
-22.259
-21.948
-21.858
-21.988
-22.341
-22.924
-23.748
-24.818
-26.136
-27.701
-29.504
-31.532
-33.768
-36.179
-38.73
-41.383
-44.101
-46.857
-49.619
-52.35
-55.002
-57.509
-59.801
-61.823
-63.516
-64.838
-65.779
-66.334
-66.527
-66.42
-66.063
-65.527
-64.913
-64.314
-63.849
-63.648
-63.808
-64.496
-65.947
-68.284
-71.531
-75.536
-79.871
-84.11
-87.919
-90.828
-92.303
-92.014
-89.851
-86.278
-82.438
-79.495
-78.37
-79.828
-84.445
-92.47
-103.614
-116.401
-128.062
-135.224
-134.548
-123.207
-98.514
-57.789
0.893
77.813
169.676
270.037
372.634
472.585
569.54
665.021
754.595
829.32
874.105
872.554
820.04
719.725
581.096
421.841
257.155
103.837
-16.985
-94.628
-127.079
-123.204
-104.369
-85.212
-72.26
-65.419
-57.258
-45.81
-33.557
-23.225
-18.905
-21.158
-27.63
-36.448
-45.227
-51.842
-55.631
-56.356
-54.177
-49.946
-44.53
-38.612
-33.006
-28.492
-25.434
-23.974
-24.057
-25.388
-27.721
-30.859
-34.561
-38.594
-42.775
-46.934
-50.93
-54.653
-57.971
-60.775
-62.995
-64.589
-65.547
-65.884
-65.627
-64.824
-63.533
-61.817
-59.733
-57.337
-54.684
-51.84
-48.875
-45.859
-42.863
-39.935
-37.112
-34.421
-31.873
-29.472
-27.212
-25.08
-23.056
-21.125
-19.274
-17.491
-15.766
-14.084
-12.428
-10.782
-9.128
-7.451
-5.737
-3.972
-2.145
-0.243
1.741
3.816
5.988
8.267
10.66
13.178
15.83
18.624
21.566
24.664
27.924
31.35
34.944
38.706
42.635
46.728
50.979
55.383
59.93
64.611
69.412
74.32
79.321
84.396
89.529
94.7
99.889
105.075
110.235
115.349
120.391
125.34
130.172
134.864
139.392
143.734
147.868
151.772
155.424
158.805
161.895
164.675
167.127
169.237
170.989
172.371
173.372
173.983
174.198
174.011
173.422
172.428
171.032
169.238
167.052
164.48
161.533
158.222
154.559
150.56
146.241
141.619
136.713
131.544
126.132
120.499
114.668
108.662
102.505
96.221
89.835
83.371
76.855
70.311
63.763
57.236
50.754
44.338
38.011
31.793
25.705
19.764
13.987
8.39
2.988
-2.207
-7.184
-11.931
-16.442
-20.708
-24.724
-28.485
-31.989
-35.233
-38.219
-40.946
-43.417
-45.635
-47.605
-49.333
-50.825
-52.089
-53.133
-53.967
-54.601
-55.044
-55.309
-55.405
-55.345
-55.14
-54.802
-54.341
-53.77
-53.099
-52.34
-51.502
-50.596
-49.631
-48.618
-47.566
-46.483
-45.378
-44.259
-43.134
-42.011
-40.897
-39.797
-38.718
-37.665
-36.643
-35.656
-34.706
-33.796
-32.929
-32.106
-31.327
-30.594
-29.906
-29.264
-28.666
-28.112
-27.601
-27.131
-26.702
-26.311
-25.958
-25.642
-25.36
-25.111
-24.895
-24.708
-24.551
-24.419
-24.312
-24.226
-24.159
-24.108
-24.071
-24.044
-24.025
-24.011
-24.001
-23.994
-23.987
-23.979
-23.971
-23.962
-23.952
-23.942
-23.932
-23.924
-23.918
-23.917
-23.922
-23.937
-23.965
-24.005
-24.057
-24.122
-24.199
-24.292
-24.406
-24.537
-24.678
-24.846
-25.053
-25.31
-25.633
-26.012
-26.423
-26.888
-27.43
-28
-28.563
-29.089
-29.532
-29.931
-30.359
-30.774
-31.096
-31.524
-32.291
-33.25
-34.41
-35.812
-36.94
-39.162
-43.808
-48.962
-54.04
-55.527
-49.22
-39.759
-30.235
-25.252
-31.14
-42.287
-53.936
-62.826
-63.57
-60.007
-56.025
-52.486
-51.757
-52.453
-52.793
-53.109
-53.17
-53.089
-53.22
-53.326
-53.215
-52.947
-52.536
-51.959
-51.222
-50.342
-49.327
-48.216
-47.055
-45.834
-44.543
-43.196
-41.799
-40.36
-38.893
-37.402
-35.892
-34.374
-32.861
-31.365
-29.901
-28.483
-27.123
-25.835
-24.63
-23.52
-22.522
-21.644
-20.893
-20.277
-19.797
-19.466
-19.303
-19.322
-19.532
-19.939
-20.546
-21.358
-22.384
-23.623
-25.067
-26.71
-28.537
-30.548
-32.754
-35.153
-37.741
-40.487
-43.33
-46.218
-49.107
-51.941
-54.673
-57.244
-59.579
-61.64
-63.405
-64.849
-65.96
-66.703
-67.03
-66.922
-66.392
-65.505
-64.387
-63.156
-61.915
-60.767
-59.824
-59.235
-59.171
-59.762
-61.109
-63.267
-66.306
-70.41
-75.619
-81.785
-88.596
-95.386
-101.451
-106.341
-109.486
-110.209
-108.404
-104.225
-98.254
-92.061
-86.961
-83.638
-83.018
-85.688
-91.02
-97.92
-104.277
-106.289
-100.623
-84.716
-55.827
-11.683
48.672
124.801
214.709
312.503
410.004
502.11
584.492
654.837
715.875
763.302
787.441
780.009
728.514
629.412
492.156
330.16
166.141
24.393
-80.257
-140.818
-162.955
-162.992
-153.984
-143.428
-132.65
-116.547
-94.229
-69.208
-45.178
-27.316
-18.094
-16.759
-22.574
-33.495
-46.103
-57.937
-67.641
-74.351
-78.169
-79.406
-77.776
-73.784
-68.961
-64.508
-61.202
-59.437
-58.966
-59.606
-61.563
-64.69
-68.469
-72.482
-76.33
-79.773
-82.837
-85.458
-87.473
-88.797
-89.398
-89.266
-88.433
-86.905
-84.66
-81.727
-78.165
-74.06
-69.523
-64.632
-59.464
-54.104
-48.643
-43.193
-37.842
-32.665
-27.735
-23.111
-18.87
-15.081
-11.785
-8.993
-6.692
-4.84
-3.385
-2.309
-1.573
-1.126
-0.902
-0.798
-0.739
-0.664
-0.518
-0.244
0.235
1.007
2.134
3.651
5.581
7.922
10.68
13.895
17.572
21.691
26.212
31.052
36.156
41.494
47.035
52.746
58.579
64.476
70.396
76.32
82.225
88.091
93.885
99.543
105.031
110.341
115.475
120.466
125.328
130.049
134.621
139.037
143.292
147.384
151.297
154.999
158.467
161.685
164.648
167.367
169.837
172.038
173.943
175.518
176.734
177.579
178.035
178.085
177.716
176.92
175.7
174.072
172.043
169.618
166.793
163.562
159.931
155.919
151.552
146.855
141.851
136.564
131.026
125.277
119.347
113.255
107.006
100.601
94.05
87.38
80.624
73.816
66.978
60.119
53.243
46.364
39.499
32.652
25.815
18.97
12.118
5.292
-1.445
-8.034
-14.435
-20.627
-26.601
-32.343
-37.828
-43.025
-47.909
-52.468
-56.687
-60.538
-63.972
-66.932
-69.397
-71.389
-72.968
-74.194
-75.101
-75.713
-76.046
-76.13
-75.999
-75.686
-75.209
-74.579
-73.817
-72.961
-72.07
-71.208
-70.411
-69.679
-68.986
-68.311
-67.648
-66.997
-66.359
-65.723
-65.08
-64.431
-63.791
-63.178
-62.598
-62.044
-61.498
-60.941
-60.366
-59.78
-59.201
-58.639
-58.1
-57.589
-57.113
-56.68
-56.298
-55.964
-55.666
-55.394
-55.142
-54.908
-54.692
-54.495
-54.313
-54.141
-53.973
-53.807
-53.64
-53.466
-53.282
-53.082
-52.863
-52.626
-52.371
-52.101
-51.817
-51.519
-51.211
-50.894
-50.57
-50.243
-49.912
-49.581
-49.252
-48.926
-48.607
-48.298
-48.001
-47.718
-47.453
-47.209
-46.988
-46.794
-46.63
-46.5
-46.406
-46.352
-46.339
-46.371
-46.448
-46.573
-46.747
-46.97
-47.242
-47.565
-47.937
-48.359
-48.83
-49.35
-49.915
-50.525
-51.177
-51.87
-52.6
-53.366
-54.166
-54.996
-55.856
-56.742
-57.653
-58.586
-59.538
-60.504
-61.48
-62.461
-63.44
-64.409
-65.363
-66.294
-67.196
-68.064
-68.89
-69.672
-70.404
-71.083
-71.704
-72.263
-72.753
-73.166
-73.497
-73.739
-73.885
-73.928
-73.86
-73.676
-73.375
-72.953
-72.409
-71.735
-70.922
-69.965
-68.865
-67.624
-66.25
-64.751
-63.139
-61.435
-59.672
-57.883
-56.1
-54.343
-52.618
-50.935
-49.305
-47.737
-46.244
-44.824
-43.458
-42.135
-40.85
-39.592
-38.353
-37.102
-35.78
-34.343
-32.76
-31.02
-29.14
-27.137
-25.026
-22.839
-20.624
-18.453
-16.429
-14.625
-13.094
-11.892
-11.069
-10.697
-10.872
-11.646
-13.048
-15.082
-17.72
-20.942
-24.719
-28.985
-33.639
-38.551
-43.558
-48.538
-53.403
-58.058
-62.423
-66.411
-69.947
-73.034
-75.714
-78.036
-80.049
-81.766
-83.218
-84.497
-85.727
-87.062
-88.66
-90.602
-92.994
-96.024
-99.729
-104.031
-108.657
-112.967
-116.388
-118.51
-118.71
-116.327
-111.209
-103.443
-93.664
-83.477
-73.945
-65.69
-60.355
-59.159
-61.8
-67.933
-74.357
-75.903
-71.036
-57.344
-33.415
-0.287
45.49
105.467
181.402
277.611
393.304
526.258
666.302
792.366
882.984
919.165
893.151
813.376
694.385
549.972
392.913
232.447
80.301
-44.618
-129.356
-169.697
-172.634
-157.318
-137.266
-118.52
-101.322
-79.642
-53.122
-26.021
-2.467
12.202
15.619
9.003
-5.708
-25.447
-46.52
-66.101
-82.456
-94.373
-100.905
-101.847
-97.619
-89.221
-78.484
-67.226
-56.437
-46.722
-38.599
-32.267
-27.809
-25.179
-23.876
-23.293
-23.161
-23.363
-23.853
-24.677
-25.77
-27.009
-28.395
-29.964
-31.711
-33.624
-35.622
-37.582
-39.424
-41.082
-42.506
-43.671
-44.529
-45.016
-45.095
-44.749
-43.987
-42.843
-41.343
-39.503
-37.343
-34.883
-32.16
-29.225
-26.126
-22.915
-19.635
-16.313
-12.985
-9.689
-6.452
-3.291
-0.214
2.792
5.733
8.614
11.442
14.228
16.991
19.752
22.537
25.375
28.286
31.288
34.395
37.62
40.971
44.456
48.073
51.816
55.682
59.665
63.761
67.963
72.264
76.65
81.108
85.622
90.179
94.761
99.352
103.937
108.499
113.022
117.488
121.884
126.192
130.394
134.471
138.403
142.171
145.757
149.14
152.302
155.223
157.887
160.276
162.375
164.168
165.64
166.778
167.568
167.999
168.061
167.745
167.045
165.956
164.476
162.603
160.341
157.694
154.667
151.27
147.511
143.404
138.962
134.201
129.137
123.789
118.178
112.325
106.252
99.983
93.541
86.953
80.243
73.437
66.563
59.645
52.711
45.787
38.9
32.075
25.34
18.719
12.237
5.917
-0.218
-6.148
-11.854
-17.318
-22.526
-27.464
-32.121
-36.488
-40.559
-44.328
-47.792
-50.95
-53.804
-56.355
-58.609
-60.571
-62.249
-63.652
-64.789
-65.673
-66.315
-66.729
-66.928
-66.929
-66.745
-66.394
-65.892
-65.256
-64.504
-63.653
-62.721
-61.724
-60.68
-59.605
-58.514
-57.421
-56.339
-55.282
-54.259
-53.281
-52.356
-51.492
-50.694
-49.967
-49.314
-48.738
-48.239
-47.819
-47.476
-47.209
-47.014
-46.89
-46.831
-46.833
-46.892
-47.002
-47.157
-47.35
-47.574
-47.824
-48.091
-48.367
-48.647
-48.921
-49.183
-49.427
-49.645
-49.831
-49.981
-50.089
-50.151
-50.165
-50.126
-50.034
-49.888
-49.687
-49.431
-49.122
-48.761
-48.352
-47.896
-47.398
-46.861
-46.289
-45.688
-45.063
-44.418
-43.759
-43.092
-42.423
-41.758
-41.104
-40.465
-39.85
-39.263
-38.711
-38.2
-37.735
-37.322
-36.966
-36.672
-36.443
-36.283
-36.195
-36.182
-36.244
-36.383
-36.6
-36.893
-37.262
-37.706
-38.22
-38.804
-39.452
-40.162
-40.928
-41.745
-42.607
-43.508
-44.442
-45.402
-46.38
-47.368
-48.359
-49.344
-50.315
-51.265
-52.183
-53.064
-53.897
-54.675
-55.39
-56.034
-56.6
-57.081
-57.47
-57.76
-57.946
-58.024
-57.988
-57.837
-57.566
-57.174
-56.661
-56.027
-55.271
-54.396
-53.405
-52.303
-51.093
-49.782
-48.378
-46.889
-45.326
-43.7
-42.022
-40.304
-38.561
-36.807
-35.054
-33.319
-31.615
-29.954
-28.353
-26.825
-25.386
-24.049
-22.828
-21.738
-20.791
-20.004
-19.389
-18.959
-18.721
-18.681
-18.844
-19.217
-19.812
-20.632
-21.682
-22.958
-24.458
-26.177
-28.109
-30.233
-32.518
-34.919
-37.392
-39.898
-42.404
-44.877
-47.281
-49.572
-51.7
-53.626
-55.317
-56.749
-57.902
-58.754
-59.298
-59.559
-59.609
-59.555
-59.506
-59.559
-59.788
-60.238
-60.983
-62.119
-63.736
-65.933
-68.788
-72.307
-76.56
-81.659
-87.534
-93.978
-100.544
-106.482
-111.143
-114.013
-114.448
-111.985
-106.595
-98.512
-88.652
-78.481
-69.126
-61.713
-57.428
-56.587
-58.614
-62.098
-64.27
-62.002
-52.288
-31.51
3.823
56.216
124.913
205.501
293.163
382.575
472.942
567.646
662.662
750.999
818.883
843.487
813.981
726.494
586.407
417.608
242.935
85.998
-33.14
-111.443
-154.154
-174.426
-186.027
-193.796
-196.325
-187.644
-164.759
-130.699
-91.492
-54.757
-25.353
-4.992
5.365
6.144
-1.427
-15.544
-33.387
-52.081
-69.253
-83.116
-92.276
-95.978
-94.22
-87.738
-77.925
-66.425
-54.848
-44.349
-35.763
-29.645
-26.147
-25.175
-26.397
-29.253
-33.082
-37.436
-42.022
-46.609
-51.115
-55.429
-59.424
-63.06
-66.33
-69.18
-71.533
-73.309
-74.409
-74.796
-74.483
-73.495
-71.888
-69.727
-67.078
-64.032
-60.684
-57.123
-53.448
-49.736
-46.038
-42.406
-38.885
-35.502
-32.286
-29.245
-26.372
-23.66
-21.097
-18.668
-16.357
-14.142
-11.997
-9.893
-7.798
-5.687
-3.54
-1.341
0.924
3.265
5.692
8.212
10.828
13.541
16.356
19.278
22.317
25.484
28.783
32.213
35.767
39.437
43.212
47.079
51.019
55.003
59.003
62.995
66.959
70.888
74.775
78.609
82.375
86.058
89.651
93.164
96.609
99.995
103.334
106.641
109.943
113.291
116.727
120.273
123.938
127.707
131.554
135.46
139.397
143.325
147.192
150.924
154.447
157.705
160.641
163.189
165.261
166.743
167.537
167.572
166.799
165.188
162.713
159.356
155.12
150.037
144.158
137.543
130.247
122.312
113.783
104.73
95.253
85.477
75.517
65.476
55.452
45.547
35.886
26.568
17.669
9.233
1.292
-6.115
-12.932
-19.103
-24.585
-29.363
-33.448
-36.865
-39.635
-41.796
-43.396
-44.515
-45.26
-45.714
-45.931
-45.955
-45.818
-45.57
-45.282
-45.011
-44.796
-44.668
-44.642
-44.735
-44.97
-45.343
-45.833
-46.399
-46.979
-47.533
-48.043
-48.495
-48.879
-49.182
-49.378
-49.458
-49.43
-49.295
-49.059
-48.725
-48.289
-47.762
-47.169
-46.54
-45.908
-45.299
-44.725
-44.2
-43.733
-43.332
-43.003
-42.747
-42.553
-42.416
-42.333
-42.3
-42.316
-42.377
-42.473
-42.595
-42.735
-42.886
-43.041
-43.196
-43.345
-43.483
-43.608
-43.717
-43.812
-43.891
-43.951
-43.989
-44.004
-43.992
-43.952
-43.881
-43.777
-43.638
-43.461
-43.248
-42.997
-42.709
-42.386
-42.029
-41.641
-41.224
-40.782
-40.319
-39.839
-39.345
-38.842
-38.334
-37.826
-37.32
-36.822
-36.336
-35.864
-35.412
-34.983
-34.579
-34.206
-33.865
-33.56
-33.294
-33.071
-32.893
-32.764
-32.686
-32.663
-32.697
-32.791
-32.948
-33.167
-33.452
-33.801
-34.214
-34.691
-35.229
-35.825
-36.477
-37.18
-37.93
-38.722
-39.551
-40.412
-41.297
-42.2
-43.116
-44.037
-44.957
-45.867
-46.761
-47.633
-48.475
-49.28
-50.041
-50.751
-51.403
-51.989
-52.502
-52.935
-53.28
-53.53
-53.679
-53.721
-53.65
-53.461
-53.151
-52.714
-52.148
-51.453
-50.626
-49.67
-48.587
-47.379
-46.051
-44.61
-43.063
-41.418
-39.686
-37.875
-35.996
-34.063
-32.09
-30.095
-28.096
-26.111
-24.154
-22.242
-20.391
-18.616
-16.934
-15.356
-13.889
-12.548
-11.346
-10.301
-9.432
-8.744
-8.236
-7.904
-7.737
-7.737
-7.909
-8.26
-8.793
-9.511
-10.416
-11.52
-12.837
-14.37
-16.1
-17.981
-19.971
-22.051
-24.231
-26.555
-29.046
-31.671
-34.37
-37.05
-39.613
-42.038
-44.281
-46.201
-47.771
-49.047
-50.189
-51.669
-53.91
-56.94
-60.718
-65.129
-69.66
-73.936
-77.549
-79.37
-78.454
-74.542
-67.452
-57.716
-46.864
-35.937
-25.88
-18.637
-15.776
-18.364
-27.643
-43.256
-63.137
-85.655
-109.043
-130.576
-148.018
-158.976
-160.511
-151.697
-133.37
-106.319
-71.904
-31.806
12.925
60.49
108.894
158.103
208.813
261.886
316.718
369.909
418.712
462.573
506.358
557.446
615.181
670.72
704.404
692.643
628.643
519.319
384.261
253.495
143.079
59.114
3.101
-35.492
-62.201
-78.188
-87.124
-86.983
-77.525
-62.519
-45.071
-29.76
-19.757
-15.583
-16.853
-22.04
-29.671
-38.291
-45.921
-51.402
-54.243
-54.342
-52.313
-48.847
-44.476
-39.94
-36.039
-33.207
-31.642
-31.338
-32.037
-33.543
-35.71
-38.332
-41.205
-44.173
-47.108
-49.914
-52.529
-54.86
-56.794
-58.258
-59.203
-59.613
-59.499
-58.885
-57.803
-56.297
-54.425
-52.243
-49.797
-47.139
-44.312
-41.368
-38.364
-35.359
-32.412
-29.567
-26.856
-24.3
-21.909
-19.685
-17.623
-15.712
-13.935
-12.275
-10.721
-9.259
-7.878
-6.566
-5.307
-4.085
-2.884
-1.692
-0.496
0.716
1.956
3.236
4.57
5.966
7.435
8.988
10.638
12.399
14.28
16.29
18.435
20.723
23.164
25.773
28.559
31.521
34.66
37.969
41.441
45.066
48.822
52.672
56.582
60.517
64.452
68.38
72.287
76.158
79.975
83.722
87.396
91.013
94.577
98.088
101.543
104.945
108.326
111.745
115.252
118.881
122.645
126.531
130.538
134.659
138.869
143.121
147.332
151.391
155.213
158.733
161.886
164.598
166.748
168.191
168.815
168.529
167.272
165
161.649
157.173
151.579
144.919
137.308
128.89
119.779
110.077
99.901
89.387
78.72
68.092
57.651
47.522
37.817
28.653
20.177
12.51
5.714
-0.203
-5.279
-9.579
-13.139
-16.008
-18.26
-19.987
-21.32
-22.373
-23.215
-23.905
-24.499
-25.072
-25.725
-26.536
-27.541
-28.752
-30.154
-31.731
-33.477
-35.369
-37.361
-39.395
-41.397
-43.319
-45.142
-46.855
-48.443
-49.886
-51.151
-52.219
-53.095
-53.785
-54.298
-54.64
-54.815
-54.84
-54.746
-54.568
-54.341
-54.09
-53.828
-53.563
-53.305
-53.063
-52.845
-52.653
-52.481
-52.329
-52.199
-52.091
-52.01
-51.954
-51.915
-51.887
-51.864
-51.839
-51.809
-51.769
-51.716
-51.646
-51.56
-51.458
-51.342
-51.21
-51.064
-50.901
-50.72
-50.521
-50.303
-50.064
-49.804
-49.522
-49.22
-48.899
-48.559
-48.203
-47.831
-47.446
-47.047
-46.638
-46.22
-45.794
-45.361
-44.925
-44.488
-44.053
-43.622
-43.199
-42.786
-42.387
-42.003
-41.637
-41.292
-40.968
-40.667
-40.39
-40.139
-39.915
-39.718
-39.549
-39.409
-39.297
-39.215
-39.163
-39.14
-39.147
-39.183
-39.249
-39.344
-39.469
-39.623
-39.806
-40.018
-40.257
-40.524
-40.816
-41.132
-41.471
-41.83
-42.208
-42.603
-43.013
-43.437
-43.872
-44.317
-44.77
-45.229
-45.694
-46.162
-46.632
-47.103
-47.575
-48.045
-48.514
-48.978
-49.437
-49.887
-50.325
-50.749
-51.154
-51.535
-51.887
-52.206
-52.487
-52.728
-52.925
-53.074
-53.173
-53.221
-53.218
-53.161
-53.049
-52.876
-52.641
-52.339
-51.967
-51.522
-50.998
-50.391
-49.7
-48.925
-48.067
-47.125
-46.095
-44.972
-43.753
-42.446
-41.057
-39.598
-38.079
-36.517
-34.937
-33.376
-31.867
-30.434
-29.09
-27.835
-26.676
-25.618
-24.67
-23.837
-23.112
-22.481
-21.939
-21.484
-21.113
-20.81
-20.533
-20.222
-19.828
-19.33
-18.734
-18.061
-17.328
-16.556
-15.777
-15.034
-14.393
-13.902
-13.575
-13.408
-13.397
-13.558
-13.942
-14.617
-15.625
-16.973
-18.636
-20.578
-22.771
-25.17
-27.711
-30.312
-32.877
-35.356
-37.778
-40.21
-42.716
-45.349
-48.104
-50.951
-53.911
-57.043
-60.419
-64.112
-68.174
-72.62
-77.53
-83.073
-89.257
-95.901
-102.606
-108.702
-113.604
-116.967
-118.323
-117.079
-113.08
-106.465
-97.823
-88.529
-79.588
-71.421
-64.822
-60.517
-58.275
-57.372
-56.055
-51.15
-40.289
-21.534
8.107
51.282
109.653
182.022
263.205
347.626
430.521
512.981
600.665
691.014
777.272
843.932
865.2
830.858
739.626
597.279
429.87
257.703
99.253
-20.846
-96.336
-127.597
-122.34
-103.665
-85.563
-74.434
-71.528
-68.423
-62.184
-54.801
-48.375
-47.317
-52.547
-61.621
-72.594
-82.984
-90.684
-95.143
-96.115
-93.663
-88.536
-81.552
-73.439
-65.09
-57.306
-50.471
-44.774
-40.22
-36.612
-33.829
-31.775
-30.313
-29.344
-28.793
-28.627
-28.856
-29.473
-30.421
-31.619
-32.961
-34.382
-35.854
-37.352
-38.866
-40.389
-41.893
-43.363
-44.779
-46.079
-47.216
-48.146
-48.805
-49.175
-49.257
-49.053
-48.589
-47.886
-46.947
-45.782
-44.403
-42.809
-41.016
-39.04
-36.903
-34.66
-32.357
-30.031
-27.724
-25.46
-23.25
-21.106
-19.023
-16.987
-14.986
-13.002
-11.018
-9.024
-7.006
-4.943
-2.818
-0.598
1.742
4.216
6.841
9.628
12.589
15.739
19.08
22.598
26.278
30.098
34.037
38.08
42.204
46.378
50.578
54.787
58.996
63.217
67.448
71.676
75.883
80.035
84.115
88.121
92.05
95.905
99.687
103.393
107.033
110.642
114.222
117.757
121.206
124.491
127.559
130.377
132.92
135.179
137.133
138.746
139.992
140.85
141.293
141.296
140.815
139.775
138.145
135.928
133.158
129.918
126.267
122.24
117.875
113.202
108.255
103.083
97.716
92.172
86.484
80.692
74.853
69.057
63.356
57.776
52.321
46.96
41.68
36.484
31.372
26.339
21.39
16.521
11.748
7.098
2.588
-1.776
-5.998
-10.102
-14.092
-17.962
-21.699
-25.279
-28.684
-31.907
-34.934
-37.75
-40.345
-42.713
-44.859
-46.795
-48.531
-50.07
-51.419
-52.579
-53.559
-54.372
-55.028
-55.541
-55.921
-56.181
-56.336
-56.401
-56.384
-56.297
-56.149
-55.952
-55.724
-55.476
-55.212
-54.933
-54.633
-54.308
-53.959
-53.582
-53.164
-52.703
-52.2
-51.669
-51.139
-50.626
-50.138
-49.673
-49.217
-48.767
-48.337
-47.941
-47.596
-47.321
-47.128
-47.045
-47.12
-47.371
-47.797
-48.37
-49.023
-49.716
-50.425
-51.137
-51.851
-52.557
-53.224
-53.833
-54.366
-54.8
-55.114
-55.262
-55.169
-54.802
-54.16
-53.275
-52.226
-51.066
-49.825
-48.531
-47.207
-45.878
-44.579
-43.33
-42.137
-41.018
-39.997
-39.119
-38.455
-38.042
-37.888
-37.975
-38.255
-38.692
-39.271
-39.967
-40.758
-41.623
-42.54
-43.502
-44.517
-45.582
-46.682
-47.795
-48.881
-49.916
-50.893
-51.811
-52.682
-53.512
-54.3
-55.05
-55.769
-56.459
-57.119
-57.742
-58.31
-58.812
-59.243
-59.601
-59.888
-60.105
-60.249
-60.317
-60.309
-60.223
-60.06
-59.821
-59.505
-59.113
-58.65
-58.122
-57.541
-56.913
-56.248
-55.553
-54.837
-54.108
-53.373
-52.636
-51.904
-51.181
-50.473
-49.785
-49.122
-48.49
-47.894
-47.339
-46.829
-46.37
-45.962
-45.606
-45.301
-45.046
-44.836
-44.667
-44.533
-44.426
-44.339
-44.266
-44.201
-44.135
-44.058
-43.955
-43.814
-43.629
-43.395
-43.109
-42.773
-42.387
-41.96
-41.511
-41.054
-40.605
-40.177
-39.766
-39.371
-38.99
-38.623
-38.274
-37.938
-37.595
-37.221
-36.799
-36.306
-35.721
-35.016
-34.134
-33.028
-31.667
-30.03
-28.125
-25.975
-23.598
-21.027
-18.306
-15.493
-12.674
-9.945
-7.376
-5.04
-3.007
-1.356
-0.205
0.344
0.221
-0.632
-2.237
-4.591
-7.685
-11.478
-15.882
-20.791
-26.074
-31.579
-37.199
-42.827
-48.352
-53.663
-58.614
-63.078
-66.964
-70.186
-72.684
-74.429
-75.416
-75.708
-75.443
-74.768
-73.837
-72.797
-71.761
-70.862
-70.228
-69.986
-70.276
-71.162
-72.744
-75.188
-78.517
-82.632
-87.235
-91.673
-95.254
-97.455
-97.597
-95.032
-89.637
-81.477
-71.271
-60.652
-51.019
-43.575
-39.67
-39.922
-43.79
-50.314
-57.182
-60.377
-56.195
-40.745
-9.563
38.873
102.437
178.819
263.93
354.919
455.152
564.258
674.696
774.609
843.073
859.929
819.284
722.773
581.013
417.325
250.559
100.447
-11.463
-82.211
-113.509
-113.412
-100.472
-79.122
-53.704
-31.709
-13.098
-7.098
-17.595
-36.076
-57.669
-73.787
-79.833
-81.811
-82.591
-83.66
-85.759
-85.538
-81.65
-75.045
-66.46
-57.165
-48.198
-39.923
-32.649
-26.686
-22.088
-18.724
-16.543
-15.539
-15.662
-16.864
-19.059
-22.096
-25.854
-30.228
-35.068
-40.178
-45.348
-50.38
-55.112
-59.442
-63.297
-66.61
-69.322
-71.371
-72.72
-73.364
-73.314
-72.602
-71.273
-69.383
-67.013
-64.269
-61.26
-58.091
-54.854
-51.603
-48.373
-45.191
-42.073
-39.04
-36.111
-33.299
-30.619
-28.092
-25.722
-23.508
-21.432
-19.456
-17.556
-15.706
-13.882
-12.085
-10.32
-8.598
-6.955
-5.41
-3.96
-2.591
-1.258
0.101
1.529
3.059
4.712
6.498
8.44
10.563
12.882
15.426
18.228
21.323
24.78
28.645
32.924
37.602
42.622
47.897
53.367
58.979
64.68
70.43
76.182
81.887
87.512
93.017
98.353
103.463
108.261
112.675
116.666
120.215
123.331
126.046
128.376
130.329
131.922
133.158
134.04
134.573
134.742
134.538
133.961
133.021
131.745
130.159
128.275
126.098
123.627
120.849
117.763
114.369
110.666
106.659
102.361
97.787
92.965
87.925
82.694
77.294
71.746
66.071
60.29
54.428
48.511
42.563
36.611
30.681
24.8
18.992
13.28
7.685
2.223
-3.092
-8.246
-13.226
-18.023
-22.626
-27.026
-31.215
-35.187
-38.935
-42.456
-45.747
-48.808
-51.639
-54.243
-56.624
-58.785
-60.734
-62.476
-64.019
-65.37
-66.539
-67.533
-68.363
-69.037
-69.567
-69.963
-70.236
-70.398
-70.461
-70.437
-70.339
-70.18
-69.971
-69.725
-69.453
-69.167
-68.876
-68.588
-68.314
-68.06
-67.834
-67.642
-67.492
-67.389
-67.34
-67.351
-67.427
-67.57
-67.782
-68.06
-68.402
-68.804
-69.266
-69.79
-70.378
-71.031
-71.752
-72.54
-73.394
-74.305
-75.254
-76.212
-77.149
-78.037
-78.85
-79.569
-80.172
-80.634
-80.933
-81.033
-80.901
-80.514
-79.836
-78.843
-77.518
-75.866
-73.934
-71.803
-69.554
-67.26
-64.97
-62.732
-60.627
-58.753
-57.207
-56.097
-55.483
-55.451
-56.187
-57.767
-60.115
-62.977
-65.796
-67.977
-69.117
-68.766
-66.361
-61.689
-54.911
-46.659
-38.396
-31.579
-27.143
-26.039
-29.089
-36.273
-46.69
-58.375
-67.82
-71.405
-66.004
-48.119
-14.549
36.873
105.145
185.722
273.155
361.165
448.863
540.164
631.885
718.684
788.077
816.585
793.89
716.532
586.54
427.543
260.907
108.38
-2.114
-63.445
-78.532
-59.389
-32.246
-11.78
-2.74
-3.726
-4.6
-1.692
2.991
7.024
6.154
-0.368
-10.135
-21.307
-31.793
-39.918
-45.332
-47.91
-47.753
-45.528
-41.959
-37.665
-33.379
-29.777
-27.172
-25.695
-25.328
-25.86
-27.12
-28.973
-31.213
-33.63
-36.071
-38.424
-40.64
-42.714
-44.591
-46.184
-47.398
-48.158
-48.442
-48.269
-47.665
-46.663
-45.311
-43.67
-41.839
-39.939
-38.054
-36.235
-34.493
-32.808
-31.181
-29.641
-28.213
-26.918
-25.754
-24.701
-23.747
-22.889
-22.106
-21.369
-20.62
-19.78
-18.806
-17.685
-16.426
-15.067
-13.625
-12.1
-10.498
-8.824
-7.083
-5.277
-3.397
-1.419
0.664
2.853
5.134
7.486
9.907
12.406
14.991
17.682
20.488
23.41
26.453
29.614
32.874
36.215
39.61
43.033
46.479
49.942
53.416
56.896
60.37
63.834
67.301
70.774
74.252
77.742
81.241
84.772
88.384
92.11
95.976
99.981
104.095
108.285
112.529
116.788
121.02
125.165
129.139
132.879
136.345
139.486
142.252
144.558
146.279
147.315
147.588
147.053
145.709
143.557
140.595
136.85
132.369
127.214
121.468
115.185
108.38
101.094
93.376
85.318
77.06
68.732
60.45
52.309
44.37
36.691
29.327
22.308
15.639
9.324
3.354
-2.245
-7.408
-12.095
-16.279
-19.972
-23.227
-26.103
-28.667
-30.977
-33.076
-35.003
-36.792
-38.457
-40.001
-41.427
-42.736
-43.955
-45.139
-46.332
-47.568
-48.86
-50.198
-51.558
-52.905
-54.206
-55.432
-56.563
-57.585
-58.496
-59.301
-60.01
-60.631
-61.166
-61.602
-61.928
-62.136
-62.227
-62.211
-62.105
-61.932
-61.715
-61.477
-61.236
-61.003
-60.785
-60.585
-60.401
-60.226
-60.058
-59.896
-59.741
-59.594
-59.455
-59.319
-59.184
-59.044
-58.894
-58.729
-58.543
-58.335
-58.101
-57.843
-57.56
-57.255
-56.93
-56.587
-56.227
-55.849
-55.454
-55.042
-54.613
-54.166
-53.701
-53.219
-52.72
-52.206
-51.677
-51.137
-50.585
-50.026
-49.461
-48.894
-48.328
-47.765
-47.209
-46.663
-46.128
-45.607
-45.101
-44.612
-44.139
-43.685
-43.247
-42.827
-42.425
-42.038
-41.668
-41.313
-40.973
-40.647
-40.336
-40.038
-39.754
-39.485
-39.23
-38.99
-38.767
-38.56
-38.369
-38.195
-38.037
-37.895
-37.768
-37.655
-37.556
-37.469
-37.394
-37.33
-37.276
-37.232
-37.198
-37.174
-37.16
-37.158
-37.166
-37.186
-37.218
-37.262
-37.319
-37.389
-37.471
-37.566
-37.673
-37.791
-37.919
-38.057
-38.201
-38.35
-38.502
-38.655
-38.807
-38.955
-39.098
-39.234
-39.363
-39.481
-39.589
-39.685
-39.767
-39.835
-39.887
-39.922
-39.938
-39.935
-39.911
-39.864
-39.795
-39.701
-39.583
-39.44
-39.271
-39.076
-38.856
-38.611
-38.342
-38.049
-37.736
-37.403
-37.054
-36.691
-36.318
-35.936
-35.55
-35.161
-34.774
-34.389
-34.011
-33.641
-33.282
-32.937
-32.608
-32.297
-32.007
-31.739
-31.496
-31.28
-31.092
-30.933
-30.806
-30.71
-30.648
-30.619
-30.624
-30.663
-30.737
-30.842
-30.979
-31.146
-31.339
-31.556
-31.794
-32.049
-32.317
-32.594
-32.877
-33.16
-33.442
-33.716
-33.98
-34.228
-34.458
-34.666
-34.846
-34.997
-35.115
-35.196
-35.239
-35.24
-35.199
-35.113
-34.981
-34.801
-34.574
-34.299
-33.976
-33.606
-33.191
-32.732
-32.233
-31.697
-31.127
-30.53
-29.909
-29.269
-28.618
-27.959
-27.3
-26.647
-26.006
-25.384
-24.787
-24.221
-23.694
-23.211
-22.778
-22.4
-22.083
-21.832
-21.649
-21.538
-21.503
-21.544
-21.664
-21.863
-22.142
-22.498
-22.932
-23.44
-24.019
-24.665
-25.373
-26.136
-26.949
-27.804
-28.694
-29.61
-30.543
-31.485
-32.425
-33.353
-34.261
-35.137
-35.971
-36.752
-37.471
-38.116
-38.679
-39.15
-39.519
-39.779
-39.922
-39.941
-39.831
-39.586
-39.204
-38.682
-38.018
-37.212
-36.264
-35.178
-33.957
-32.607
-31.132
-29.54
-27.839
-26.039
-24.151
-22.188
-20.163
-18.091
-15.987
-13.865
-11.745
-9.645
-7.583
-5.573
-3.633
-1.778
-0.026
1.605
3.098
4.437
5.611
6.608
7.417
8.026
8.428
8.618
8.602
8.383
7.959
7.322
6.461
5.374
4.063
2.535
0.798
-1.139
-3.262
-5.549
-7.966
-10.48
-13.057
-15.669
-18.311
-20.963
-23.594
-26.159
-28.576
-30.767
-32.691
-34.308
-35.609
-36.618
-37.289
-37.583
-37.644
-37.59
-37.57
-37.783
-38.146
-38.518
-39.067
-40
-41.298
-42.957
-44.626
-45.676
-46.078
-45.904
-44.895
-42.83
-39.51
-34.804
-29.463
-24.843
-21.82
-21.155
-23.358
-28.569
-37.146
-49.103
-63.108
-76.787
-87.305
-91.586
-87.34
-72.685
-45.309
-3.421
53.437
124.19
206.019
294.956
387.099
477.901
561.706
632.625
685.062
714.789
719.491
698.442
652.344
583.907
497.738
400.006
298.061
198.855
108.74
33.226
-24.246
-62.407
-81.744
-84.69
-75.189
-57.401
-36.034
-15.802
0.285
10.592
14.493
12.645
6.41
-2.764
-12.848
-21.691
-28.181
-31.873
-32.811
-31.623
-28.988
-25.502
-21.98
-19.231
-17.644
-17.367
-18.332
-20.266
-22.971
-26.283
-29.979
-33.843
-37.701
-41.41
-44.864
-47.992
-50.692
-52.882
-54.51
-55.544
-55.989
-55.866
-55.208
-54.063
-52.483
-50.53
-48.26
-45.734
-43.012
-40.159
-37.238
-34.309
-31.427
-28.625
-25.922
-23.328
-20.837
-18.443
-16.142
-13.927
-11.803
-9.777
-7.859
-6.051
-4.346
-2.734
-1.21
0.229
1.582
2.834
3.964
4.942
5.73
6.303
6.659
6.814
6.811
6.708
6.572
6.458
6.407
6.455
6.635
6.984
7.534
8.333
9.432
10.895
12.802
15.208
18.147
21.617
25.585
29.991
34.76
39.821
45.118
50.6
56.224
61.951
67.741
73.549
79.328
85.009
90.511
95.761
100.703
105.305
109.558
113.475
117.082
120.403
123.457
126.253
128.791
131.066
133.068
134.787
136.214
137.348
138.204
138.795
139.13
139.212
139.033
138.577
137.825
136.757
135.359
133.622
131.544
129.13
126.391
123.343
120.006
116.398
112.535
108.433
104.107
99.575
94.86
89.984
84.973
79.851
74.644
69.379
64.079
58.765
53.459
48.178
42.939
37.758
32.65
27.631
22.715
17.918
13.253
8.732
4.368
0.171
-3.849
-7.686
-11.332
-14.783
-18.035
-21.086
-23.935
-26.581
-29.027
-31.274
-33.326
-35.188
-36.865
-38.363
-39.689
-40.849
-41.852
-42.705
-43.417
-43.995
-44.447
-44.781
-45.005
-45.126
-45.15
-45.085
-44.937
-44.712
-44.419
-44.062
-43.648
-43.184
-42.675
-42.126
-41.544
-40.933
-40.297
-39.641
-38.968
-38.283
-37.588
-36.886
-36.181
-35.473
-34.766
-34.06
-33.356
-32.656
-31.961
-31.271
-30.586
-29.91
-29.242
-28.586
-27.942
-27.314
-26.704
-26.115
-25.549
-25.01
-24.499
-24.02
-23.574
-23.164
-22.792
-22.459
-22.169
-21.921
-21.717
-21.56
-21.448
-21.383
-21.364
-21.391
-21.464
-21.581
-21.743
-21.95
-22.201
-22.498
-22.839
-23.226
-23.657
-24.133
-24.651
-25.21
-25.806
-26.436
-27.098
-27.787
-28.499
-29.23
-29.976
-30.735
-31.503
-32.277
-33.055
-33.834
-34.614
-35.391
-36.163
-36.929
-37.683
-38.424
-39.147
-39.851
-40.535
-41.198
-41.838
-42.456
-43.052
-43.625
-44.173
-44.688
-45.159
-45.579
-45.947
-46.266
-46.544
-46.794
-47.035
-47.289
-47.577
-47.914
-48.306
-48.749
-49.225
-49.718
-50.209
-50.693
-51.179
-51.672
-52.169
-52.662
-53.128
-53.526
-53.802
-53.885
-53.694
-53.174
-52.296
-51.066
-49.529
-47.747
-45.798
-43.748
-41.635
-39.485
-37.325
-35.179
-33.091
-31.137
-29.414
-28.054
-27.21
-26.999
-27.508
-28.763
-30.716
-33.274
-36.289
-39.616
-43.145
-46.8
-50.527
-54.28
-58.002
-61.604
-64.98
-67.99
-70.458
-72.227
-73.152
-73.142
-72.199
-70.405
-67.923
-64.931
-61.572
-57.954
-54.151
-50.232
-46.262
-42.313
-38.451
-34.761
-31.361
-28.393
-26.025
-24.39
-23.552
-23.49
-24.097
-25.257
-26.868
-28.843
-31.097
-33.539
-36.087
-38.688
-41.313
-43.936
-46.501
-48.899
-50.979
-52.599
-53.643
-54.046
-53.795
-52.875
-51.276
-49.016
-46.146
-42.747
-38.897
-34.64
-29.989
-24.968
-19.626
-14.059
-8.4
-2.791
2.615
7.669
12.224
16.13
19.248
21.483
22.785
23.141
22.549
20.995
18.458
14.942
10.481
5.143
-0.975
-7.752
-15.048
-22.688
-30.479
-38.228
-45.737
-52.84
-59.391
-65.266
-70.367
-74.617
-77.96
-80.374
-81.867
-82.459
-82.201
-81.191
-79.548
-77.418
-74.984
-72.423
-69.919
-67.737
-66.198
-65.456
-65.558
-66.421
-67.635
-68.769
-69.492
-69.251
-67.412
-63.871
-58.717
-52.257
-46.092
-42.059
-41.196
-45.005
-53.359
-63.239
-74.132
-86.278
-99.795
-118.293
-137.358
-145.011
-129.928
-78.677
9.635
122.024
245.338
364.068
469.852
563.867
643.815
706.119
746.323
757.155
737.24
691.35
624.372
540.964
441.772
324.704
193.465
60.114
-54.911
-131.704
-162.599
-153.996
-124.843
-95.021
-74.775
-65.561
-61.991
-58.82
-55.238
-52.927
-54.417
-60.026
-68.05
-76.136
-81.805
-84.093
-83.032
-78.883
-72.395
-64.429
-55.748
-47.257
-39.8
-33.749
-29.251
-26.31
-24.746
-24.405
-25.14
-26.75
-29.041
-31.881
-35.144
-38.678
-42.314
-45.861
-49.133
-52.004
-54.4
-56.272
-57.592
-58.352
-58.565
-58.267
-57.509
-56.325
-54.726
-52.722
-50.346
-47.674
-44.813
-41.865
-38.91
-36.006
-33.189
-30.494
-27.945
-25.549
-23.297
-21.172
-19.151
-17.226
-15.401
-13.672
-12.026
-10.433
-8.842
-7.216
-5.529
-3.764
-1.919
0.01
2.029
4.14
6.352
8.669
11.086
13.602
16.215
18.901
21.637
24.393
27.112
29.754
32.299
34.733
37.084
39.388
41.664
43.931
46.189
48.434
50.682
52.944
55.236
57.603
60.094
62.774
65.754
69.123
72.938
77.248
82.037
87.256
92.879
98.869
105.197
111.843
118.759
125.903
133.238
140.684
148.136
155.461
162.453
168.927
174.729
179.697
183.746
186.83
188.885
189.883
189.807
188.625
186.331
182.912
178.338
172.64
165.885
158.181
149.72
140.683
131.24
121.594
111.884
102.221
92.721
83.454
74.474
65.856
57.663
49.967
42.87
36.42
30.629
25.485
20.907
16.808
13.103
9.665
6.399
3.242
0.132
-2.952
-6.015
-9.083
-12.178
-15.329
-18.59
-21.99
-25.535
-29.229
-33.035
-36.908
-40.796
-44.618
-48.304
-51.811
-55.104
-58.169
-61.009
-63.615
-65.982
-68.107
-69.974
-71.572
-72.898
-73.945
-74.721
-75.242
-75.531
-75.625
-75.56
-75.361
-75.045
-74.628
-74.115
-73.515
-72.834
-72.073
-71.24
-70.342
-69.389
-68.394
-67.367
-66.315
-65.241
-64.148
-63.035
-61.906
-60.762
-59.606
-58.441
-57.273
-56.105
-54.946
-53.802
-52.678
-51.578
-50.503
-49.458
-48.444
-47.464
-46.518
-45.608
-44.737
-43.908
-43.121
-42.382
-41.69
-41.049
-40.459
-39.921
-39.435
-39.003
-38.622
-38.293
-38.016
-37.788
-37.612
-37.485
-37.409
-37.382
-37.404
-37.473
-37.589
-37.749
-37.952
-38.196
-38.477
-38.793
-39.142
-39.522
-39.93
-40.364
-40.819
-41.294
-41.785
-42.286
-42.796
-43.308
-43.819
-44.325
-44.822
-45.308
-45.778
-46.231
-46.663
-47.073
-47.458
-47.815
-48.142
-48.438
-48.7
-48.927
-49.118
-49.273
-49.392
-49.475
-49.522
-49.536
-49.518
-49.469
-49.39
-49.284
-49.153
-49
-48.828
-48.64
-48.441
-48.235
-48.025
-47.817
-47.614
-47.421
-47.241
-47.079
-46.936
-46.818
-46.727
-46.666
-46.638
-46.646
-46.692
-46.779
-46.907
-47.079
-47.293
-47.551
-47.849
-48.188
-48.565
-48.978
-49.423
-49.897
-50.396
-50.917
-51.454
-52.001
-52.553
-53.102
-53.642
-54.165
-54.663
-55.13
-55.556
-55.936
-56.26
-56.522
-56.714
-56.828
-56.857
-56.794
-56.632
-56.365
-55.986
-55.491
-54.874
-54.133
-53.266
-52.27
-51.147
-49.896
-48.519
-47.02
-45.402
-43.671
-41.832
-39.893
-37.863
-35.753
-33.577
-31.347
-29.078
-26.787
-24.49
-22.205
-19.947
-17.734
-15.58
-13.502
-11.515
-9.637
-7.884
-6.276
-4.828
-3.557
-2.476
-1.601
-0.94
-0.501
-0.287
-0.301
-0.548
-1.04
-1.787
-2.796
-4.069
-5.609
-7.41
-9.458
-11.732
-14.197
-16.812
-19.54
-22.342
-25.188
-28.046
-30.881
-33.646
-36.285
-38.744
-40.971
-42.925
-44.562
-45.863
-46.836
-47.521
-47.995
-48.333
-48.588
-48.822
-49.112
-49.551
-50.24
-51.284
-52.76
-54.78
-57.533
-61.111
-65.462
-70.352
-75.291
-79.753
-83.337
-85.569
-85.821
-83.73
-79.333
-73.194
-66.62
-60.928
-56.956
-55.499
-57.454
-63.205
-72.211
-82.694
-91.439
-94.994
-90.287
-74.239
-43.599
4.8
70.886
150.872
240.34
333.603
429.746
533
639.797
741.912
824.638
865.114
852.742
786.687
671.781
524.427
359.501
193.143
47.709
-60.539
-122.934
-143.091
-139.259
-128.228
-119.025
-112.411
-100.797
-80.847
-55.914
-30.769
-11.479
-1.013
1.208
-3.939
-14.807
-28.581
-42.25
-53.833
-62.266
-67.331
-69.21
-67.693
-62.882
-55.888
-48.409
-41.66
-36.247
-32.275
-29.611
-28.444
-28.931
-30.809
-33.513
-36.526
-39.545
-42.455
-45.264
-47.856
-50.041
-51.729
-52.917
-53.65
-53.971
-53.89
-53.378
-52.433
-51.1
-49.426
-47.472
-45.295
-42.935
-40.445
-37.88
-35.298
-32.755
-30.295
-27.945
-25.718
-23.62
-21.645
-19.79
-18.045
-16.394
-14.817
-13.298
-11.817
-10.362
-8.918
-7.47
-6.003
-4.498
-2.941
-1.32
0.375
2.155
4.029
6.003
8.085
10.282
12.598
15.042
17.62
20.34
23.207
26.226
29.402
32.735
36.225
39.87
43.665
47.602
51.675
55.875
60.19
64.612
69.126
73.722
78.387
83.104
87.857
92.629
97.398
102.144
106.847
111.482
116.029
120.463
124.761
128.904
132.872
136.642
140.192
143.494
146.524
149.266
151.703
153.824
155.621
157.089
158.228
159.054
159.578
159.813
159.769
159.443
158.83
157.929
156.74
155.265
153.501
151.427
149.021
146.267
143.146
139.64
135.721
131.336
126.442
121.011
115.024
108.495
101.45
93.917
85.934
77.556
68.853
59.924
50.88
41.811
32.808
23.959
15.362
7.146
-0.57
-7.698
-14.164
-19.928
-24.972
-29.279
-32.849
-35.721
-37.951
-39.625
-40.849
-41.701
-42.248
-42.563
-42.717
-42.809
-42.926
-43.131
-43.469
-43.97
-44.652
-45.533
-46.618
-47.882
-49.283
-50.767
-52.263
-53.729
-55.132
-56.439
-57.624
-58.653
-59.495
-60.14
-60.589
-60.84
-60.898
-60.762
-60.438
-59.947
-59.315
-58.572
-57.754
-56.883
-55.975
-55.046
-54.107
-53.167
-52.235
-51.311
-50.392
-49.478
-48.571
-47.674
-46.793
-45.927
-45.075
-44.237
-43.412
-42.601
-41.806
-41.03
-40.274
-39.542
-38.838
-38.165
-37.528
-36.93
-36.37
-35.85
-35.369
-34.926
-34.52
-34.15
-33.815
-33.513
-33.244
-33.008
-32.804
-32.632
-32.491
-32.38
-32.299
-32.246
-32.22
-32.22
-32.244
-32.29
-32.357
-32.441
-32.542
-32.656
-32.781
-32.914
-33.053
-33.197
-33.343
-33.491
-33.641
-33.792
-33.946
-34.105
-34.27
-34.443
-34.628
-34.826
-35.04
-35.274
-35.53
-35.81
-36.115
-36.448
-36.809
-37.202
-37.627
-38.084
-38.575
-39.101
-39.661
-40.255
-40.884
-41.545
-42.239
-42.964
-43.718
-44.5
-45.308
-46.14
-46.993
-47.863
-48.746
-49.639
-50.535
-51.427
-52.31
-53.176
-54.018
-54.826
-55.593
-56.311
-56.971
-57.568
-58.095
-58.546
-58.916
-59.2
-59.393
-59.491
-59.489
-59.382
-59.163
-58.827
-58.37
-57.792
-57.091
-56.265
-55.315
-54.241
-53.048
-51.739
-50.317
-48.78
-47.122
-45.347
-43.463
-41.485
-39.434
-37.329
-35.186
-33.028
-30.884
-28.775
-26.718
-24.716
-22.759
-20.847
-18.99
-17.204
-15.517
-13.944
-12.484
-11.135
-9.891
-8.744
-7.694
-6.722
-5.79
-4.887
-4.019
-3.216
-2.541
-2.036
-1.722
-1.621
-1.736
-2.083
-2.693
-3.588
-4.779
-6.281
-8.092
-10.222
-12.707
-15.541
-18.688
-22.089
-25.636
-29.242
-32.845
-36.369
-39.751
-42.933
-45.841
-48.423
-50.658
-52.528
-54.061
-55.305
-56.285
-57.057
-57.686
-58.252
-58.906
-59.794
-61.04
-62.779
-65.096
-68.091
-71.95
-76.74
-82.36
-88.542
-94.714
-100.254
-104.728
-107.618
-108.293
-106.419
-101.963
-95.413
-88.109
-81.417
-76.268
-73.566
-74.089
-78.014
-84.813
-92.813
-98.701
-98.872
-90.277
-69.798
-34.521
17.726
88.285
175.032
271.743
372.174
469.582
561.758
651.771
736.216
810.199
862.586
871.988
829.591
731.482
578.9
394.956
200.969
21.16
-112.557
-190.692
-214.829
-196.713
-164.472
-134.066
-111.048
-95.944
-80.049
-60.708
-41.011
-24.201
-15.032
-14.883
-21.744
-32.786
-44.612
-54.735
-62.09
-66.232
-67.323
-65.689
-61.67
-56.375
-51.004
-46.458
-43.351
-41.757
-41.477
-42.427
-44.554
-47.492
-50.868
-54.374
-57.71
-60.803
-63.63
-66.079
-68.027
-69.419
-70.225
-70.451
-70.144
-69.312
-67.972
-66.171
-63.96
-61.41
-58.585
-55.539
-52.323
-48.995
-45.615
-42.246
-38.948
-35.768
-32.737
-29.877
-27.199
-24.704
-22.389
-20.24
-18.243
-16.379
-14.634
-12.995
-11.449
-9.983
-8.582
-7.231
-5.911
-4.609
-3.306
-1.987
-0.638
0.758
2.213
3.741
5.355
7.07
8.894
10.841
12.923
15.154
17.554
20.135
22.904
25.865
29.016
32.352
35.864
39.535
43.337
47.241
51.22
55.25
59.32
63.42
67.535
71.652
75.754
79.831
83.893
87.952
92.014
96.09
100.191
104.338
108.581
112.959
117.494
122.2
127.06
132.044
137.124
142.263
147.408
152.491
157.415
162.072
166.38
170.255
173.618
176.38
178.421
179.638
179.959
179.33
177.732
175.169
171.644
167.181
161.842
155.707
148.888
141.517
133.693
125.511
117.067
108.459
99.81
91.232
82.808
74.605
66.673
59.049
51.772
44.868
38.327
32.126
26.227
20.573
15.138
9.901
4.841
-0.059
-4.825
-9.481
-14.031
-18.47
-22.796
-27.004
-31.094
-35.064
-38.895
-42.564
-46.046
-49.311
-52.344
-55.136
-57.68
-59.973
-62.015
-63.809
-65.365
-66.699
-67.823
-68.75
-69.488
-70.049
-70.446
-70.697
-70.816
-70.819
-70.721
-70.534
-70.271
-69.945
-69.564
-69.138
-68.674
-68.177
-67.653
-67.111
-66.554
-65.991
-65.426
-64.864
-64.309
-63.765
-63.236
-62.724
-62.23
-61.755
-61.3
-60.865
-60.45
-60.054
-59.677
-59.317
-58.973
-58.646
-58.332
-58.033
-57.745
-57.469
-57.202
-56.943
-56.691
-56.443
-56.198
-55.955
-55.712
-55.469
-55.223
-54.975
-54.725
-54.471
-54.214
-53.953
-53.69
-53.423
-53.153
-52.881
-52.607
-52.332
-52.059
-51.789
-51.524
-51.266
-51.018
-50.781
-50.558
-50.348
-50.155
-49.978
-49.818
-49.678
-49.558
-49.46
-49.384
-49.334
-49.312
-49.319
-49.356
-49.425
-49.528
-49.665
-49.838
-50.047
-50.294
-50.578
-50.902
-51.267
-51.673
-52.121
-52.61
-53.138
-53.705
-54.308
-54.943
-55.606
-56.293
-56.999
-57.721
-58.457
-59.202
-59.954
-60.71
-61.47
-62.232
-62.991
-63.742
-64.479
-65.194
-65.88
-66.529
-67.133
-67.682
-68.166
-68.58
-68.917
-69.174
-69.34
-69.407
-69.357
-69.182
-68.878
-68.444
-67.88
-67.186
-66.37
-65.447
-64.443
-63.384
-62.284
-61.147
-59.966
-58.739
-57.465
-56.143
-54.774
-53.344
-51.835
-50.238
-48.548
-46.761
-44.863
-42.819
-40.574
-38.086
-35.34
-32.343
-29.123
-25.707
-22.127
-18.43
-14.677
-10.958
-7.357
-3.939
-0.755
2.145
4.696
6.812
8.384
9.33
9.598
9.156
7.998
6.119
3.534
0.286
-3.551
-7.871
-12.568
-17.553
-22.737
-28.033
-33.345
-38.558
-43.548
-48.21
-52.453
-56.197
-59.379
-61.945
-63.871
-65.157
-65.832
-65.961
-65.626
-64.938
-64.033
-63.048
-62.113
-61.35
-60.867
-60.773
-61.197
-62.25
-64.039
-66.637
-70.033
-74.263
-79.376
-85.249
-91.65
-98.126
-103.955
-108.525
-111.343
-111.794
-109.432
-104.19
-96.122
-85.906
-74.791
-63.717
-53.73
-45.889
-40.322
-36.401
-33.218
-28.76
-20.2
-4.941
20.444
59.638
112.785
176.961
249.439
325.952
406.443
496.522
594.494
692.927
776.755
821.764
812.59
745.999
631.071
488.283
339.448
203.697
92.115
10.526
-41.667
-73.137
-90.385
-99.764
-104.656
-101.948
-91.336
-74.945
-56.406
-41.429
-32.902
-30.982
-34.703
-42.043
-51.264
-60.691
-68.472
-73.542
-75.561
-74.768
-71.865
-67.56
-62.508
-57.461
-53.155
-49.983
-48.016
-47.105
-46.95
-47.318
-48.039
-48.933
-49.802
-50.498
-50.931
-51.039
-50.819
-50.257
-49.293
-47.911
-46.125
-43.986
-41.609
-39.11
-36.582
-34.118
-31.794
-29.665
-27.785
-26.199
-24.91
-23.913
-23.18
-22.658
-22.33
-22.169
-22.132
-22.167
-22.185
-22.102
-21.858
-21.404
-20.7
-19.717
-18.427
-16.813
-14.89
-12.686
-10.244
-7.62
-4.848
-1.952
1.037
4.093
7.182
10.274
13.362
16.444
19.522
22.595
25.666
28.736
31.824
34.952
38.143
41.424
44.813
48.32
51.959
55.741
59.672
63.749
67.961
72.289
76.707
81.192
85.706
90.214
94.682
99.084
103.398
107.618
111.733
115.736
119.623
123.378
126.99
130.455
133.761
136.904
139.893
142.744
145.494
148.188
150.847
153.476
156.066
158.578
160.971
163.196
165.182
166.88
168.248
169.243
169.843
170.025
169.747
168.962
167.604
165.59
162.873
159.429
155.247
150.357
144.806
138.659
132.018
124.971
117.589
109.939
102.069
94.02
85.855
77.639
69.444
61.363
53.467
45.814
38.456
31.416
24.698
18.292
12.156
6.252
0.564
-4.921
-10.201
-15.267
-20.123
-24.767
-29.199
-33.432
-37.475
-41.337
-45.027
-48.547
-51.886
-55.032
-57.957
-60.638
-63.062
-65.223
-67.12
-68.76
-70.149
-71.297
-72.221
-72.933
-73.445
-73.766
-73.906
-73.874
-73.685
-73.355
-72.899
-72.336
-71.681
-70.949
-70.153
-69.304
-68.412
-67.487
-66.533
-65.557
-64.565
-63.563
-62.557
-61.555
-60.559
-59.576
-58.609
-57.662
-56.737
-55.837
-54.96
-54.109
-53.283
-52.482
-51.705
-50.951
-50.221
-49.512
-48.823
-48.154
-47.504
-46.871
-46.254
-45.652
-45.064
-44.489
-43.927
-43.378
-42.841
-42.316
-41.805
-41.309
-40.827
-40.362
-39.916
-39.489
-39.084
-38.702
-38.347
-38.019
-37.723
-37.46
-37.234
-37.048
-36.904
-36.805
-36.754
-36.751
-36.8
-36.9
-37.053
-37.26
-37.52
-37.835
-38.203
-38.624
-39.098
-39.624
-40.201
-40.827
-41.499
-42.217
-42.979
-43.78
-44.62
-45.496
-46.403
-47.339
-48.301
-49.284
-50.283
-51.295
-52.312
-53.33
-54.341
-55.339
-56.316
-57.268
-58.188
-59.069
-59.909
-60.703
-61.447
-62.14
-62.779
-63.361
-63.884
-64.342
-64.733
-65.05
-65.289
-65.445
-65.512
-65.483
-65.352
-65.117
-64.774
-64.319
-63.746
-63.044
-62.208
-61.239
-60.138
-58.912
-57.571
-56.127
-54.596
-53.008
-51.389
-49.761
-48.146
-46.545
-44.961
-43.398
-41.859
-40.352
-38.876
-37.415
-35.944
-34.45
-32.912
-31.308
-29.61
-27.759
-25.705
-23.415
-20.865
-18.067
-15.044
-11.822
-8.434
-4.927
-1.361
2.173
5.572
8.76
11.665
14.216
16.332
17.894
18.785
18.919
18.232
16.697
14.31
11.074
7.017
2.207
-3.25
-9.217
-15.532
-22.073
-28.733
-35.402
-41.964
-48.258
-54.124
-59.429
-64.069
-67.968
-71.071
-73.354
-74.827
-75.57
-75.716
-75.405
-74.809
-74.087
-73.388
-72.871
-72.703
-73.047
-74.099
-76.132
-79.295
-83.563
-88.757
-94.411
-99.989
-105.052
-109.017
-111.1
-110.835
-108.253
-103.888
-99.132
-95.498
-93.945
-95.447
-101.052
-111.017
-124.471
-139.464
-152.419
-158.985
-155.449
-138.219
-103.221
-48.746
23.37
110.778
209.128
315.212
431.403
556.474
682.407
797.391
882.329
919.571
904.249
836.033
720.334
572.781
406.647
242.283
107.534
15.948
-27.111
-30.857
-21.907
-16.494
-21.526
-36.122
-47.82
-51.544
-49.81
-45.752
-45.119
-50.107
-58.763
-69.315
-80.06
-89.302
-95.886
-99.246
-99.176
-96.001
-90.566
-83.65
-75.867
-67.986
-60.775
-54.647
-49.8
-46.227
-43.704
-42.084
-41.281
-41.136
-41.485
-42.201
-43.169
-44.316
-45.589
-46.885
-48.067
-49.029
-49.683
-50.016
-50.084
-49.929
-49.591
-49.113
-48.533
-47.888
-47.222
-46.54
-45.818
-45.048
-44.228
-43.383
-42.556
-41.773
-41.039
-40.332
-39.601
-38.803
-37.909
-36.886
-35.707
-34.352
-32.81
-31.1
-29.276
-27.371
-25.404
-23.383
-21.295
-19.138
-16.917
-14.637
-12.301
-9.915
-7.474
-4.98
-2.436
0.163
2.827
5.582
8.466
11.507
14.721
18.121
21.71
25.491
29.467
33.632
37.976
42.487
47.154
51.963
56.907
61.969
67.131
72.369
77.658
82.974
88.291
93.587
98.836
104.014
109.099
114.067
118.898
123.571
128.063
132.351
136.41
140.22
143.757
147.001
149.932
152.529
154.777
156.659
158.163
159.276
159.988
160.292
160.182
159.655
158.709
157.346
155.57
153.386
150.803
147.831
144.484
140.774
136.717
132.332
127.636
122.649
117.393
111.89
106.162
100.233
94.128
87.87
81.487
75.004
68.447
61.841
55.214
48.59
41.996
35.456
28.993
22.632
16.393
10.299
4.368
-1.382
-6.934
-12.274
-17.389
-22.268
-26.904
-31.288
-35.418
-39.288
-42.899
-46.25
-49.342
-52.18
-54.768
-57.11
-59.215
-61.088
-62.739
-64.178
-65.413
-66.457
-67.319
-68.012
-68.547
-68.938
-69.196
-69.334
-69.366
-69.304
-69.16
-68.947
-68.677
-68.362
-68.011
-67.636
-67.243
-66.842
-66.439
-66.039
-65.647
-65.266
-64.899
-64.546
-64.209
-63.888
-63.581
-63.289
-63.009
-62.74
-62.48
-62.226
-61.977
-61.73
-61.483
-61.234
-60.981
-60.721
-60.454
-60.177
-59.888
-59.587
-59.27
-58.937
-58.587
-58.217
-57.829
-57.421
-56.994
-56.548
-56.086
-55.61
-55.123
-54.629
-54.131
-53.635
-53.145
-52.667
-52.206
-51.768
-51.358
-50.98
-50.641
-50.344
-50.094
-49.895
-49.749
-49.66
-49.628
-49.656
-49.744
-49.893
-50.102
-50.37
-50.698
-51.084
-51.527
-52.026
-52.579
-53.186
-53.843
-54.548
-55.298
-56.089
-56.916
-57.774
-58.657
-59.561
-60.477
-61.4
-62.323
-63.24
-64.143
-65.027
-65.885
-66.711
-67.499
-68.243
-68.938
-69.581
-70.166
-70.691
-71.153
-71.55
-71.88
-72.143
-72.337
-72.46
-72.51
-72.487
-72.387
-72.207
-71.946
-71.6
-71.17
-70.655
-70.054
-69.37
-68.603
-67.758
-66.839
-65.848
-64.789
-63.662
-62.469
-61.213
-59.896
-58.52
-57.087
-55.599
-54.061
-52.481
-50.869
-49.229
-47.566
-45.878
-44.172
-42.458
-40.748
-39.052
-37.385
-35.762
-34.21
-32.764
-31.458
-30.318
-29.356
-28.576
-27.985
-27.59
-27.397
-27.41
-27.611
-27.98
-28.503
-29.175
-29.99
-30.93
-31.951
-32.986
-33.982
-34.904
-35.733
-36.46
-37.052
-37.487
-37.756
-37.87
-37.879
-37.82
-37.706
-37.537
-37.305
-37.027
-36.754
-36.558
-36.489
-36.583
-36.869
-37.397
-38.277
-39.6
-41.43
-43.788
-46.627
-49.937
-53.762
-58.158
-63.19
-68.895
-75.228
-82.176
-89.835
-98.178
-107.03
-116.021
-124.443
-131.624
-137.116
-140.401
-140.893
-138.32
-132.714
-124.663
-115.645
-107.071
-99.871
-95.067
-93.518
-95.383
-100.129
-105.997
-109.481
-107.008
-95.72
-72.26
-33.392
22.726
96.935
186.67
284.923
386.696
488.173
585.952
679.944
762.152
819.729
843.173
821.315
754.185
650.821
517.465
367.345
214.681
73.033
-39.618
-113.451
-150.174
-160.435
-158.32
-153.309
-147.716
-137.55
-121.109
-101.117
-81.418
-66.919
-59.724
-58.552
-61.625
-66.984
-72.408
-76.061
-76.953
-74.658
-69.449
-62.198
-53.726
-44.728
-36.087
-28.676
-22.944
-19.095
-17.075
-16.605
-17.498
-19.589
-22.61
-26.257
-30.276
-34.438
-38.576
-42.571
-46.261
-49.504
-52.206
-54.307
-55.797
-56.688
-56.979
-56.671
-55.774
-54.322
-52.384
-50.054
-47.418
-44.559
-41.557
-38.49
-35.445
-32.486
-29.649
-26.946
-24.371
-21.917
-19.582
-17.368
-15.271
-13.279
-11.372
-9.52
-7.699
-5.889
-4.068
-2.213
-0.296
1.703
3.794
5.979
8.257
10.631
13.105
15.687
18.379
21.186
24.109
27.149
30.311
33.594
37
40.526
44.167
47.919
51.778
55.741
59.801
63.951
68.181
72.48
76.839
81.244
85.684
90.144
94.609
99.064
103.496
107.888
112.228
116.498
120.684
124.77
128.74
132.578
136.27
139.798
143.148
146.303
149.248
151.968
154.449
156.675
158.635
160.315
161.705
162.795
163.576
164.042
164.186
164.006
163.498
162.661
161.495
160.002
158.183
156.044
153.587
150.819
147.747
144.379
140.722
136.787
132.585
128.126
123.424
118.491
113.343
107.996
102.465
96.769
90.926
84.956
78.879
72.715
66.486
60.213
53.916
47.618
41.339
35.098
28.916
22.812
16.802
10.905
5.138
-0.486
-5.951
-11.243
-16.349
-21.259
-25.96
-30.443
-34.699
-38.72
-42.5
-46.032
-49.312
-52.336
-55.103
-57.612
-59.863
-61.858
-63.602
-65.099
-66.356
-67.38
-68.18
-68.767
-69.15
-69.341
-69.352
-69.195
-68.883
-68.427
-67.841
-67.136
-66.325
-65.419
-64.43
-63.369
-62.247
-61.075
-59.862
-58.62
-57.357
-56.082
-54.805
-53.534
-52.277
-51.041
-49.833
-48.659
-47.525
-46.435
-45.392
-44.399
-43.457
-42.569
-41.732
-40.946
-40.21
-39.52
-38.874
-38.269
-37.701
-37.167
-36.664
-36.187
-35.735
-35.303
-34.89
-34.493
-34.109
-33.738
-33.376
-33.022
-32.676
-32.335
-31.998
-31.664
-31.333
-31.002
-30.672
-30.342
-30.01
-29.678
-29.344
-29.01
-28.676
-28.344
-28.016
-27.695
-27.382
-27.082
-26.798
-26.532
-26.288
-26.068
-25.875
-25.712
-25.58
-25.481
-25.414
-25.382
-25.384
-25.42
-25.489
-25.589
-25.721
-25.881
-26.068
-26.279
-26.514
-26.768
-27.039
-27.326
-27.625
-27.935
-28.251
-28.572
-28.892
-29.209
-29.517
-29.811
-30.087
-30.34
-30.563
-30.751
-30.901
-31.007
-31.065
-31.071
-31.022
-30.915
-30.747
-30.516
-30.22
-29.857
-29.428
-28.932
-28.368
-27.738
-27.042
-26.282
-25.46
-24.578
-23.64
-22.648
-21.605
-20.515
-19.385
-18.219
-17.023
-15.805
-14.572
-13.334
-12.102
-10.886
-9.697
-8.546
-7.441
-6.39
-5.405
-4.494
-3.662
-2.914
-2.253
-1.689
-1.238
-0.913
-0.723
-0.677
-0.779
-1.036
-1.46
-2.058
-2.829
-3.775
-4.889
-6.173
-7.638
-9.284
-11.106
-13.077
-15.139
-17.239
-19.336
-21.377
-23.313
-25.091
-26.639
-27.91
-28.881
-29.532
-29.853
-29.832
-29.441
-28.684
-27.607
-26.294
-24.887
-23.519
-22.286
-21.316
-20.759
-20.778
-21.567
-23.251
-25.839
-29.385
-33.999
-39.696
-46.424
-53.921
-61.616
-69.029
-75.863
-81.695
-85.966
-88.29
-88.435
-86.712
-84.225
-81.742
-79.318
-77.431
-76.926
-78.044
-80.84
-83.031
-79.216
-67.32
-47.673
-21.911
4.681
34.929
76.463
133.248
212.498
310.67
417.39
529.746
635.974
725.9
792.153
816.364
791.347
718.977
603.322
461.159
309.035
161.312
36.372
-53.187
-103.204
-118.147
-112.653
-101.211
-91.765
-85.427
-77.532
-65.913
-52.342
-40.044
-33.281
-33.387
-38.695
-47.211
-56.495
-64.124
-69.054
-70.887
-69.495
-65.556
-59.913
-53.258
-46.493
-40.551
-35.893
-32.704
-31.003
-30.496
-30.962
-32.291
-34.272
-36.711
-39.461
-42.367
-45.315
-48.223
-50.967
-53.416
-55.474
-57.061
-58.158
-58.793
-59.007
-58.87
-58.427
-57.684
-56.661
-55.372
-53.84
-52.109
-50.218
-48.205
-46.118
-44.012
-41.93
-39.915
-37.975
-36.092
-34.239
-32.376
-30.482
-28.569
-26.644
-24.712
-22.779
-20.847
-18.919
-17.004
-15.097
-13.179
-11.23
-9.226
-7.144
-4.97
-2.69
-0.293
2.23
4.888
7.687
10.631
13.72
16.959
20.34
23.848
27.468
31.177
34.942
38.729
42.482
46.118
49.565
52.751
55.619
58.149
60.322
62.124
63.571
64.677
65.488
66.079
66.506
66.816
67.078
67.358
67.756
68.427
69.496
71.081
73.293
76.184
79.797
84.163
89.257
95.029
101.39
108.197
115.332
122.692
130.138
137.534
144.708
151.431
157.51
162.772
167.036
170.173
172.077
172.649
171.86
169.719
166.27
161.611
155.835
149.023
141.295
132.778
123.625
114.033
104.171
94.184
84.233
74.446
64.937
55.817
47.152
38.972
31.3
24.125
17.432
11.215
5.443
0.074
-4.941
-9.677
-14.188
-18.51
-22.686
-26.745
-30.709
-34.603
-38.429
-42.176
-45.833
-49.387
-52.82
-56.12
-59.27
-62.245
-65.021
-67.568
-69.867
-71.91
-73.69
-75.206
-76.461
-77.458
-78.209
-78.732
-79.042
-79.151
-79.076
-78.827
-78.42
-77.871
-77.199
-76.42
-75.551
-74.605
-73.598
-72.541
-71.447
-70.325
-69.186
-68.035
-66.881
-65.732
-64.596
-63.48
-62.394
-61.341
-60.33
-59.364
-58.449
-57.589
-56.785
-56.04
-55.354
-54.729
-54.165
-53.662
-53.222
-52.842
-52.523
-52.263
-52.061
-51.916
-51.824
-51.783
-51.79
-51.842
-51.935
-52.067
-52.234
-52.431
-52.657
-52.908
-53.181
-53.473
-53.78
-54.1
-54.431
-54.769
-55.112
-55.457
-55.803
-56.148
-56.489
-56.826
-57.157
-57.481
-57.798
-58.105
-58.402
-58.689
-58.965
-59.229
-59.48
-59.72
-59.949
-60.166
-60.374
-60.573
-60.764
-60.948
-61.128
-61.304
-61.477
-61.649
-61.82
-61.991
-62.164
-62.339
-62.516
-62.697
-62.881
-63.069
-63.26
-63.456
-63.655
-63.857
-64.062
-64.27
-64.479
-64.69
-64.901
-65.111
-65.319
-65.523
-65.723
-65.917
-66.101
-66.275
-66.435
-66.579
-66.704
-66.807
-66.884
-66.933
-66.951
-66.933
-66.878
-66.782
-66.643
-66.458
-66.223
-65.938
-65.599
-65.205
-64.754
-64.244
-63.673
-63.041
-62.347
-61.591
-60.773
-59.892
-58.95
-57.947
-56.887
-55.77
-54.599
-53.378
-52.11
-50.799
-49.449
-48.067
-46.658
-45.229
-43.787
-42.341
-40.902
-39.478
-38.08
-36.719
-35.404
-34.148
-32.958
-31.842
-30.81
-29.869
-29.028
-28.294
-27.677
-27.186
-26.83
-26.616
-26.551
-26.64
-26.881
-27.275
-27.819
-28.516
-29.371
-30.39
-31.573
-32.926
-34.448
-36.137
-37.98
-39.952
-42.009
-44.112
-46.218
-48.288
-50.293
-52.198
-53.965
-55.554
-56.918
-58.02
-58.829
-59.31
-59.428
-59.168
-58.549
-57.64
-56.553
-55.397
-54.265
-53.223
-52.349
-51.755
-51.553
-51.862
-52.785
-54.353
-56.645
-59.827
-63.927
-68.824
-74.165
-79.246
-83.394
-86.17
-87.041
-85.462
-81.299
-74.652
-66.317
-57.964
-50.976
-46.319
-44.944
-47.237
-52.694
-60.296
-67.48
-70.241
-65.23
-49.089
-18.347
29.033
93.836
174.105
263.798
356.003
445.555
531.039
613
687.756
747.039
776.916
763.392
703.522
600.007
461.295
304.252
143.306
-2.291
-107.839
-162.611
-166.688
-132.78
-88.209
-51.131
-27.941
-18.114
-12.289
-5.384
1.386
5.503
3.503
-5.141
-18.382
-33.01
-45.922
-55.961
-62.774
-66.306
-67.151
-65.586
-61.848
-57.242
-52.915
-49.328
-46.886
-45.536
-44.986
-45.337
-46.666
-48.614
-50.895
-53.306
-55.624
-57.877
-60.101
-62.17
-63.972
-65.429
-66.48
-67.127
-67.389
-67.247
-66.709
-65.799
-64.563
-63.054
-61.297
-59.306
-57.086
-54.666
-52.125
-49.528
-46.917
-44.345
-41.809
-39.36
-37.156
-35.159
-33.169
-31.011
-28.43
-25.424
-22.376
-19.424
-16.426
-13.591
-11.312
-10.042
-10.531
-12.77
-15.83
-19.208
-22.769
-26.066
-28.668
-29.918
-28.644
-24.755
-19.336
-13.039
-6.252
0.574
7.284
13.397
17.911
20.71
22.561
23.965
25.34
26.966
28.739
30.816
33.669
37.358
41.591
46.147
50.78
55.382
60.074
64.861
69.64
74.381
79.084
83.756
88.434
93.107
97.699
102.161
106.451
110.54
114.425
118.097
121.535
124.722
127.64
130.269
132.596
134.605
136.285
137.624
138.613
139.244
139.517
139.433
138.998
138.212
137.073
135.575
133.713
131.488
128.906
125.98
122.727
119.171
115.343
111.278
107.014
102.581
98.004
93.3
88.474
83.53
78.471
73.309
68.066
62.763
57.415
52.035
46.628
41.186
35.695
30.127
24.452
18.649
12.716
6.676
0.573
-5.533
-11.572
-17.487
-23.239
-28.792
-34.117
-39.18
-43.95
-48.385
-52.434
-56.036
-59.116
-61.618
-63.51
-64.793
-65.502
-65.697
-65.46
-64.862
-63.961
-62.807
-61.442
-59.904
-58.228
-56.454
-54.626
-52.802
-51.057
-49.453
-48.042
-46.846
-45.863
-45.07
-44.427
-43.897
-43.451
-43.069
-42.74
-42.458
-42.222
-42.034
-41.896
-41.8
-41.725
-41.653
-41.564
-41.452
-41.321
-41.182
-41.055
-40.957
-40.904
-40.905
-40.966
-41.085
-41.258
-41.474
-41.722
-41.993
-42.282
-42.586
-42.903
-43.231
-43.563
-43.892
-44.21
-44.508
-44.777
-45.01
-45.198
-45.338
-45.425
-45.458
-45.437
-45.363
-45.235
-45.054
-44.82
-44.533
-44.193
-43.803
-43.363
-42.874
-42.341
-41.767
-41.154
-40.508
-39.832
-39.132
-38.409
-37.67
-36.918
-36.156
-35.389
-34.62
-33.852
-33.089
-32.333
-31.59
-30.861
-30.15
-29.461
-28.797
-28.162
-27.559
-26.991
-26.462
-25.973
-25.528
-25.129
-24.777
-24.474
-24.22
-24.016
-23.863
-23.76
-23.707
-23.705
-23.752
-23.848
-23.992
-24.184
-24.421
-24.704
-25.03
-25.399
-25.81
-26.261
-26.752
-27.279
-27.841
-28.437
-29.064
-29.717
-30.395
-31.091
-31.801
-32.52
-33.242
-33.961
-34.67
-35.363
-36.036
-36.683
-37.298
-37.877
-38.415
-38.906
-39.347
-39.732
-40.055
-40.307
-40.483
-40.577
-40.584
-40.5
-40.318
-40.035
-39.647
-39.152
-38.549
-37.837
-37.01
-36.062
-34.99
-33.794
-32.487
-31.079
-29.578
-27.994
-26.339
-24.628
-22.884
-21.118
-19.333
-17.529
-15.707
-13.877
-12.063
-10.285
-8.567
-6.917
-5.331
-3.814
-2.381
-1.037
0.217
1.384
2.484
3.503
4.398
5.13
5.663
5.978
6.081
5.97
5.634
5.053
4.199
3.057
1.634
-0.083
-2.111
-4.467
-7.176
-10.207
-13.483
-16.936
-20.505
-24.148
-27.842
-31.547
-35.2
-38.733
-42.078
-45.181
-48.009
-50.506
-52.622
-54.329
-55.61
-56.52
-57.145
-57.545
-57.78
-57.915
-58.013
-58.165
-58.48
-59.039
-59.961
-61.421
-63.486
-66.111
-69.095
-72.029
-74.494
-76.158
-76.599
-75.257
-71.826
-66.418
-59.593
-52.486
-46.215
-41.402
-38.606
-38.589
-41.657
-47.26
-53.94
-59.033
-59.523
-53.133
-37.651
-10.537
30.243
85.636
155.169
236.406
325.419
418.072
509.56
593.851
664.421
715.037
740.472
738.612
710.95
659.709
587.105
492.63
374.728
237.835
93.784
-36.664
-132.384
-183.805
-194.186
-178.75
-153.969
-128.457
-103.722
-76.312
-44.296
-9.073
25.977
56.279
79.028
92.854
97.584
94.971
86.745
73.66
56.647
36.531
14.661
-6.322
-24.641
-39.823
-51.732
-60.522
-66.415
-69.425
-70.194
-70.253
-70.555
-71.443
-72.992
-74.785
-76.535
-78.211
-79.521
-79.955
-79.24
-77.254
-74.023
-69.809
-64.792
-59.082
-52.853
-46.276
-39.546
-32.86
-26.392
-20.322
-14.805
-9.954
-5.854
-2.546
-0.025
1.713
2.7
2.995
2.649
1.735
0.334
-1.48
-3.591
-5.878
-8.218
-10.46
-12.484
-14.201
-15.534
-16.435
-16.884
-16.864
-16.375
-15.441
-14.071
-12.291
-10.135
-7.636
-4.853
-1.839
1.361
4.695
8.126
11.626
15.167
18.737
22.336
25.963
29.621
33.317
37.051
40.828
44.656
48.545
52.509
56.556
60.683
64.888
69.16
73.487
77.854
82.239
86.616
90.957
95.24
99.438
103.53
107.491
111.297
114.923
118.345
121.539
124.488
127.172
129.576
131.687
133.493
134.985
136.157
137.004
137.521
137.705
137.551
137.059
136.23
135.065
133.567
131.741
129.594
127.135
124.373
121.321
117.989
114.393
110.546
106.464
102.163
97.661
92.977
88.129
83.136
78.019
72.796
67.489
62.117
56.699
51.255
45.801
40.358
34.941
29.567
24.253
19.013
13.862
8.814
3.881
-0.925
-5.592
-10.111
-14.471
-18.664
-22.684
-26.523
-30.176
-33.639
-36.908
-39.98
-42.855
-45.53
-48.008
-50.288
-52.374
-54.268
-55.973
-57.496
-58.841
-60.013
-61.02
-61.868
-62.564
-63.116
-63.531
-63.817
-63.982
-64.034
-63.98
-63.83
-63.591
-63.272
-62.88
-62.424
-61.912
-61.352
-60.751
-60.119
-59.461
-58.786
-58.101
-57.412
-56.726
-56.051
-55.39
-54.751
-54.137
-53.554
-53.005
-52.493
-52.022
-51.592
-51.207
-50.866
-50.572
-50.323
-50.121
-49.963
-49.85
-49.78
-49.752
-49.763
-49.812
-49.895
-50.01
-50.153
-50.322
-50.513
-50.722
-50.945
-51.178
-51.417
-51.658
-51.895
-52.125
-52.341
-52.541
-52.719
-52.87
-52.992
-53.08
-53.131
-53.142
-53.11
-53.035
-52.913
-52.745
-52.528
-52.264
-51.951
-51.591
-51.184
-50.732
-50.237
-49.7
-49.124
-48.511
-47.866
-47.189
-46.485
-45.758
-45.011
-44.248
-43.474
-42.692
-41.909
-41.129
-40.357
-39.599
-38.861
-38.148
-37.465
-36.818
-36.211
-35.648
-35.134
-34.672
-34.265
-33.916
-33.628
-33.401
-33.238
-33.14
-33.108
-33.141
-33.241
-33.407
-33.638
-33.934
-34.294
-34.717
-35.2
-35.743
-36.344
-37.001
-37.709
-38.467
-39.269
-40.111
-40.988
-41.893
-42.819
-43.758
-44.702
-45.646
-46.581
-47.501
-48.399
-49.27
-50.109
-50.913
-51.675
-52.39
-53.052
-53.655
-54.193
-54.657
-55.041
-55.337
-55.536
-55.631
-55.617
-55.487
-55.234
-54.849
-54.321
-53.643
-52.813
-51.831
-50.703
-49.436
-48.041
-46.538
-44.951
-43.306
-41.627
-39.932
-38.235
-36.546
-34.874
-33.227
-31.618
-30.047
-28.501
-26.965
-25.415
-23.827
-22.175
-20.423
-18.522
-16.429
-14.112
-11.547
-8.729
-5.665
-2.372
1.122
4.782
8.553
12.359
16.109
19.701
23.036
26.028
28.583
30.595
31.965
32.608
32.448
31.441
29.563
26.809
23.194
18.754
13.556
7.703
1.335
-5.39
-12.323
-19.331
-26.286
-33.045
-39.459
-45.385
-50.69
-55.272
-59.052
-61.973
-64.004
-65.142
-65.429
-64.939
-63.79
-62.135
-60.136
-57.961
-55.78
-53.761
-52.062
-50.882
-50.484
-50.993
-52.374
-54.408
-56.661
-58.732
-60.379
-61.262
-60.833
-58.78
-55.216
-50.758
-46.678
-44.088
-43.429
-45.017
-49.345
-56.516
-65.831
-75.509
-82.413
-83.369
-76.329
-59.299
-29.906
13.953
73.808
147.794
230.18
315.667
399.596
482.277
569.456
660.358
750.059
825.22
860.968
842.583
763.755
630.13
467.605
301.147
154.487
45.517
-25.231
-63.915
-83.166
-95.677
-104.692
-108.301
-101.212
-80.723
-50.688
-17.89
10.801
31.66
43.699
46.663
41.531
29.771
13.813
-2.784
-17.697
-29.966
-38.882
-43.98
-45.2
-42.791
-37.917
-32.554
-27.927
-24.501
-22.559
-22.166
-23.35
-26.143
-30.175
-34.698
-39.216
-43.469
-47.293
-50.67
-53.539
-55.784
-57.398
-58.455
-59.006
-59.093
-58.74
-57.937
-56.714
-55.123
-53.211
-51.03
-48.631
-46.058
-43.365
-40.603
-37.799
-34.981
-32.173
-29.407
-26.718
-24.128
-21.64
-19.247
-16.928
-14.677
-12.502
-10.404
-8.391
-6.469
-4.64
-2.924
-1.357
0.05
1.307
2.45
3.549
4.652
5.785
6.97
8.212
9.532
10.966
12.542
14.283
16.22
18.381
20.817
23.606
26.785
30.355
34.287
38.505
42.955
47.606
52.427
57.393
62.474
67.628
72.828
78.061
83.298
88.505
93.624
98.572
103.299
107.782
112.019
116.042
119.866
123.486
126.907
130.13
133.154
135.979
138.592
140.963
143.077
144.926
146.515
147.865
148.983
149.861
150.487
150.836
150.891
150.645
150.085
149.198
147.978
146.423
144.539
142.344
139.85
137.067
134.004
130.665
127.06
123.205
119.114
114.804
110.294
105.601
100.747
95.754
90.644
85.436
80.15
74.8
69.404
63.98
58.545
53.117
47.713
42.349
37.042
31.809
26.667
21.628
16.709
11.919
7.273
2.779
-1.551
-5.71
-9.688
-13.479
-17.077
-20.476
-23.672
-26.662
-29.443
-32.015
-34.378
-36.533
-38.483
-40.231
-41.781
-43.139
-44.309
-45.297
-46.111
-46.758
-47.244
-47.579
-47.77
-47.828
-47.761
-47.58
-47.295
-46.916
-46.452
-45.914
-45.312
-44.656
-43.955
-43.218
-42.455
-41.676
-40.889
-40.104
-39.328
-38.57
-37.837
-37.135
-36.472
-35.852
-35.28
-34.761
-34.299
-33.896
-33.557
-33.284
-33.078
-32.941
-32.873
-32.874
-32.944
-33.08
-33.282
-33.546
-33.869
-34.247
-34.678
-35.157
-35.679
-36.24
-36.836
-37.46
-38.109
-38.776
-39.455
-40.142
-40.831
-41.516
-42.192
-42.855
-43.501
-44.124
-44.722
-45.29
-45.825
-46.324
-46.783
-47.2
-47.572
-47.897
-48.175
-48.404
-48.585
-48.717
-48.804
-48.847
-48.849
-48.812
-48.742
-48.64
-48.512
-48.363
-48.196
-48.017
-47.831
-47.642
-47.458
-47.282
-47.121
-46.979
-46.86
-46.769
-46.711
-46.687
-46.701
-46.757
-46.855
-46.999
-47.19
-47.431
-47.723
-48.067
-48.464
-48.913
-49.415
-49.967
-50.568
-51.212
-51.898
-52.621
-53.377
-54.16
-54.967
-55.792
-56.631
-57.48
-58.334
-59.186
-60.032
-60.865
-61.68
-62.471
-63.231
-63.956
-64.641
-65.283
-65.881
-66.435
-66.944
-67.41
-67.835
-68.219
-68.567
-68.88
-69.157
-69.398
-69.604
-69.779
-69.933
-70.072
-70.197
-70.307
-70.404
-70.482
-70.537
-70.56
-70.527
-70.419
-70.219
-69.913
-69.501
-68.989
-68.376
-67.664
-66.856
-65.962
-65.008
-64.021
-63.016
-62.017
-61.051
-60.159
-59.414
-58.884
-58.624
-58.688
-59.111
-59.91
-61.104
-62.691
-64.643
-66.913
-69.428
-72.104
-74.887
-77.716
-80.511
-83.174
-85.571
-87.563
-89.032
-89.85
-89.891
-89.055
-87.262
-84.471
-80.709
-76.035
-70.536
-64.331
-57.513
-50.182
-42.471
-34.526
-26.522
-18.646
-11.086
-4.044
2.239
7.538
11.675
14.515
16.001
16.123
14.892
12.368
8.621
3.731
-2.196
-9.039
-16.679
-24.973
-33.757
-42.839
-51.977
-60.916
-69.448
-77.4
-84.643
-91.097
-96.701
-101.441
-105.371
-108.552
-111.05
-112.929
-114.209
-114.933
-115.201
-115.121
-114.851
-114.58
-114.429
-114.547
-115.156
-116.299
-117.889
-119.692
-121.161
-121.785
-121.283
-119.221
-115.114
-108.958
-100.984
-91.869
-83.047
-75.6
-70.07
-67.244
-67.737
-71.27
-77.084
-83.357
-86.86
-84.828
-75.161
-55.575
-23.919
21.184
80.253
152.127
231.886
312.878
389.582
457.507
516.868
570.992
619.714
658.064
672.558
646.361
568.278
438.091
274.542
106.822
-34.273
-125.483
-164.196
-162.713
-141.876
-120.67
-106.707
-99.037
-91.129
-79.405
-65.318
-52.122
-44.472
-44.017
-49.164
-57.917
-67.713
-76.149
-82.294
-85.827
-86.638
-85.334
-82.646
-79.152
-75.632
-72.883
-71.264
-70.91
-71.817
-73.708
-76.358
-79.616
-83.254
-87.067
-90.912
-94.655
-98.194
-101.462
-104.359
-106.805
-108.751
-110.164
-111.048
-111.423
-111.315
-110.768
-109.832
-108.559
-106.997
-105.191
-103.18
-101.016
-98.75
-96.437
-94.133
-91.877
-89.696
-87.613
-85.636
-83.766
-82.001
-80.327
-78.729
-77.195
-75.714
-74.277
-72.877
-71.5
-70.134
-68.764
-67.376
-65.956
-64.491
-62.97
-61.379
-59.71
-57.955
-56.104
-54.154
-52.096
-49.922
-47.626
-45.201
-42.642
-39.944
-37.104
-34.12
-30.99
-27.717
-24.301
-20.747
-17.058
-13.241
-9.302
-5.248
-1.089
3.165
7.503
11.913
16.381
20.893
25.433
29.985
34.532
39.056
43.539
47.962
52.306
56.552
60.68
64.673
68.509
72.173
75.645
78.908
81.947
84.745
87.289
89.565
91.56
93.264
94.666
95.757
96.53
96.979
97.097
96.883
96.332
95.445
94.222
92.664
90.775
88.561
86.028
83.183
80.036
76.597
72.88
68.896
64.661
60.19
55.499
50.606
45.529
40.288
34.9
29.387
23.768
18.064
12.295
6.483
0.647
-5.192
-11.012
-16.795
-22.52
-28.169
-33.722
-39.161
-44.469
-49.63
-54.629
-59.452
-64.085
-68.518
-72.74
-76.742
-80.518
-84.06
-87.365
-90.429
-93.25
-95.828
-98.164
-100.258
-102.115
-103.739
-105.134
-106.308
-107.268
-108.021
-108.576
-108.944
-109.134
-109.157
-109.023
-108.746
-108.336
-107.806
-107.17
-106.44
-105.628
-104.748
-103.81
-102.828
-101.81
-100.768
-99.711
-98.647
-97.584
-96.529
-95.49
-94.471
-93.478
-92.514
-91.584
-90.691
-89.836
-89.02
-88.244
-87.509
-86.815
-86.161
-85.547
-84.971
-84.433
-83.932
-83.464
-83.029
-82.623
-82.241
-81.882
-81.541
-81.214
-80.897
-80.588
-80.282
-79.978
-79.678
-79.38
-79.076
-78.762
-78.435
-78.093
-77.745
-77.385
-77
-76.597
-76.203
-75.841
-75.535
-75.287
-75.053
-74.83
-74.661
-74.51
-74.281
-73.9
-73.281
-72.418
-71.436
-70.364
-69.07
-67.704
-66.743
-66.269
-66.151
-66.452
-66.633
-67.742
-72.731
-80.785
-89.261
-93.531
-85.14
-65.082
-41.714
-23.532
-22.574
-38.954
-61.417
-81.31
-89.092
-83.608
-73.3
-63.205
-56.955
-55.425
-55.165
-54.716
-54.146
-53.385
-52.99
-53.006
-52.922
-52.579
-52.005
-51.22
-50.271
-49.123
-47.715
-46.295
-45.198
-44.325
-43.666
-43.255
-42.58
-42.998
-45.845
-49.238
-52.609
-52.478
-44.685
-33.867
-23.136
-17.118
-22.127
-32.574
-43.686
-52.181
-52.679
-48.992
-44.995
-41.541
-40.971
-41.881
-42.482
-43.092
-43.466
-43.688
-44.059
-44.28
-44.131
-43.686
-43.006
-42.116
-41.042
-39.804
-38.411
-36.905
-35.344
-33.722
-32.022
-30.242
-28.383
-26.465
-24.534
-22.635
-20.783
-18.968
-17.148
-15.284
-13.357
-11.356
-9.276
-7.104
-4.839
-2.493
-0.097
2.316
4.723
7.123
9.531
11.973
14.464
17.001
19.567
22.138
24.695
27.227
29.725
32.177
34.589
36.985
39.401
41.882
44.454
47.116
49.845
52.596
55.318
57.952
60.454
62.795
64.944
66.871
68.548
69.948
71.032
71.748
72.034
71.818
71.062
69.774
67.995
65.798
63.279
60.542
57.684
54.797
51.963
49.263
46.771
44.54
42.631
41.117
40.063
39.538
39.551
40.019
40.833
41.857
42.94
43.959
44.786
45.293
45.364
44.858
43.642
41.637
38.734
34.828
29.895
23.953
17.331
10.768
5.027
0.904
-0.814
0.209
4.179
11.343
20.746
30.575
39.419
45.324
48.078
50.497
52.781
54.135
53.566
47.021
39.086
41.918
66.949
126.992
222.068
339.065
464.699
583.577
687.358
776.097
847.033
897.594
924.255
921.104
887.062
824.986
739.489
637.855
527.741
415.943
309.299
214.659
137.064
79.135
41.605
23.105
21.035
32.582
54.13
80.567
106.932
129.618
145.874
154.423
154.936
146.991
131.044
109.27
84.517
59.393
36.487
