Name
Date of Birth,"Mar 27, 1959"
Recorded Date,2022-08-11 14:14:42 -0500
Classification,Sinus Rhythm
Symptoms,
Software Version,1.90
Device,"Watch4,2"
Sample Rate,510.227 hertz


Lead,Lead I
Unit,µV

31.084
33.251
35.286
37.177
38.909
40.471
41.853
43.046
44.042
44.834
45.417
45.788
45.944
45.885
45.612
45.126
44.431
43.531
42.432
41.141
39.665
38.013
36.195
34.22
32.101
29.849
27.477
24.998
22.425
19.773
17.055
14.285
11.478
8.646
5.803
2.962
0.136
-2.662
-5.423
-8.133
-10.783
-13.362
-15.863
-18.279
-20.603
-22.831
-24.956
-26.973
-28.881
-30.679
-32.358
-33.912
-35.336
-36.627
-37.789
-38.83
-39.751
-40.549
-41.255
-41.897
-42.486
-43.036
-43.544
-43.992
-44.382
-44.737
-44.96
-44.93
-44.734
-44.407
-43.915
-43.458
-42.517
-40.603
-38.513
-36.519
-36.218
-39.269
-44.207
-50.247
-54.464
-53.757
-49.066
-40.638
-32.023
-27.03
-26.009
-30.059
-36.272
-41.445
-44.732
-44.509
-42.352
-40.115
-38.132
-37.309
-37.129
-36.878
-36.675
-36.413
-36.151
-36.045
-35.982
-35.87
-35.721
-35.522
-35.27
-34.973
-34.635
-34.262
-33.868
-33.472
-33.072
-32.662
-32.248
-31.83
-31.414
-31.004
-30.606
-30.223
-29.865
-29.543
-29.267
-29.051
-28.905
-28.843
-28.878
-29.026
-29.299
-29.707
-30.259
-30.966
-31.835
-32.876
-34.094
-35.493
-37.078
-38.851
-40.815
-42.969
-45.304
-47.805
-50.455
-53.239
-56.146
-59.176
-62.331
-65.6
-68.977
-72.456
-76.027
-79.677
-83.372
-87.051
-90.656
-94.134
-97.448
-100.591
-103.542
-106.259
-108.696
-110.777
-112.429
-113.619
-114.277
-114.308
-113.709
-112.534
-110.927
-109.194
-107.578
-106.242
-105.407
-105.207
-105.557
-106.275
-106.983
-107.119
-106.318
-104.251
-100.448
-94.69
-87.097
-78.023
-68.18
-58.375
-49.13
-41.187
-35.634
-33.25
-34.594
-39.86
-48.536
-60.209
-73.864
-86.661
-95.453
-97.212
-90.536
-77.694
-60.23
-36.352
-1.186
54.276
137.108
246.905
378.977
524.386
671.887
813.353
938.214
1033.132
1086.092
1085.603
1028.314
920.128
772.983
604.177
430.589
267.906
128.794
20.344
-55.767
-103.821
-130.432
-141.927
-142.467
-134.682
-122.813
-111.263
-103.948
-101.971
-101.589
-99.029
-92.615
-83.752
-77.237
-76.155
-80.765
-89.851
-100.84
-112.211
-123.612
-134.29
-143.474
-150.704
-155.719
-158.716
-160.187
-160.461
-159.843
-158.953
-158.494
-158.887
-160.272
-162.535
-165.364
-168.49
-171.664
-174.52
-176.673
-177.884
-178.037
-177.126
-175.231
-172.407
-168.698
-164.179
-158.94
-153.054
-146.586
-139.587
-132.106
-124.215
-116.005
-107.565
-98.968
-90.267
-81.499
-72.694
-63.874
-55.056
-46.246
-37.447
-28.668
-19.918
-11.211
-2.561
6.025
14.541
22.983
31.347
39.63
47.822
55.914
63.894
71.747
79.458
87.01
94.386
101.569
108.544
115.298
121.818
128.09
134.1
139.834
145.278
150.418
155.237
159.722
163.856
167.624
171.014
174.01
176.6
178.771
180.514
181.817
182.671
183.069
183.004
182.47
181.464
179.984
178.03
175.602
172.705
169.345
165.528
161.264
156.566
151.447
145.922
140.01
133.729
127.101
120.148
112.896
105.369
97.597
89.607
81.43
73.097
64.64
56.091
47.483
38.849
30.221
21.631
13.113
4.696
-3.589
-11.711
-19.643
-27.356
-34.827
-42.03
-48.943
-55.547
-61.822
-67.753
-73.325
-78.526
-83.347
-87.78
-91.818
-95.459
-98.702
-101.546
-103.997
-106.058
-107.736
-109.041
-109.982
-110.573
-110.825
-110.755
-110.377
-109.709
-108.768
-107.572
-106.141
-104.494
-102.649
-100.628
-98.448
-96.131
-93.694
-91.156
-88.535
-85.849
-83.113
-80.343
-77.555
-74.762
-71.977
-69.212
-66.477
-63.781
-61.134
-58.541
-56.01
-53.544
-51.148
-48.825
-46.575
-44.399
-42.298
-40.271
-38.316
-36.431
-34.614
-32.862
-31.171
-29.537
-27.958
-26.428
-24.946
-23.506
-22.106
-20.742
-19.411
-18.111
-16.838
-15.59
-14.367
-13.166
-11.986
-10.827
-9.689
-8.572
-7.477
-6.405
-5.358
-4.338
-3.346
-2.386
-1.461
-0.573
0.275
1.078
1.836
2.544
3.201
3.804
4.351
4.842
5.276
5.653
5.973
6.237
6.448
6.607
6.718
6.785
6.811
6.802
6.765
6.705
6.63
6.549
6.469
6.399
6.348
6.326
6.343
6.409
6.534
6.728
7.003
7.368
7.835
8.413
9.113
9.941
10.908
12.019
13.28
14.697
16.274
18.013
19.917
21.985
24.216
26.607
29.156
31.855
34.698
37.676
40.776
43.984
47.287
50.668
54.11
57.591
61.089
64.584
68.052
71.473
74.826
78.088
81.238
84.251
87.107
89.786
92.268
94.531
96.554
98.316
99.801
101.005
101.926
102.56
102.9
102.933
102.646
102.036
101.101
99.841
98.258
96.357
94.162
91.714
89.068
86.285
83.414
80.482
77.509
74.517
71.552
68.7
66.045
63.65
61.563
59.805
58.407
57.434
56.854
56.498
56.121
55.447
54.322
52.804
50.944
48.643
45.897
42.801
39.587
36.666
34.197
31.939
29.684
27.509
25.45
23.53
21.833
20.223
18.661
17.628
16.846
14.793
11.334
7.068
3.339
4.399
11.188
20.693
30.665
36.066
35.142
33.766
37.187
53.09
90.084
149.568
232.584
338.638
461.64
597.714
741.008
882.076
1012.777
1120.492
1190.771
1211.099
1170.309
1066.285
907.242
710.454
502.449
309.015
149.996
37.322
-31.207
-63.663
-69.161
-60.103
-42.763
-22.444
-7.303
1.564
3.992
2.04
3.627
11.018
22.504
35.082
42.814
43.485
38.661
30.458
21.309
12.51
4.401
-2.591
-7.862
-11.061
-12.356
-12.174
-10.897
-8.931
-6.715
-4.748
-3.7
-3.933
-5.41
-7.993
-11.423
-15.4
-19.66
-23.844
-27.55
-30.55
-32.755
-34.138
-34.751
-34.636
-33.812
-32.353
-30.34
-27.833
-24.884
-21.527
-17.8
-13.768
-9.508
-5.099
-0.603
3.946
8.525
13.117
17.716
22.323
26.947
31.606
36.31
41.065
45.875
50.741
55.67
60.672
65.754
70.925
76.19
81.549
87.001
92.541
98.157
103.84
109.575
115.345
121.134
126.929
132.712
138.47
144.186
149.842
155.421
160.903
166.268
171.495
176.561
181.443
186.119
190.566
194.762
198.684
202.312
205.625
208.603
211.228
213.483
215.35
216.818
217.871
218.501
218.697
218.454
217.767
216.634
215.056
213.034
210.575
207.684
204.372
200.65
196.53
192.027
187.159
181.943
176.4
170.551
164.42
158.03
151.407
144.577
137.568
130.407
123.122
115.74
108.289
100.798
93.292
85.799
78.345
70.955
63.654
56.464
49.408
42.506
35.778
29.241
22.912
16.804
10.931
5.305
-0.067
-5.174
-10.011
-14.572
-18.854
-22.854
-26.57
-30.002
-33.153
-36.024
-38.619
-40.941
-42.997
-44.792
-46.333
-47.627
-48.681
-49.505
-50.106
-50.494
-50.678
-50.669
-50.476
-50.11
-49.581
-48.9
-48.076
-47.121
-46.043
-44.854
-43.562
-42.176
-40.707
-39.163
-37.552
-35.884
-34.167
-32.409
-30.618
-28.802
-26.968
-25.125
-23.278
-21.436
-19.605
-17.792
-16.004
-14.248
-12.531
-10.859
-9.238
-7.674
-6.173
-4.741
-3.382
-2.101
-0.904
0.207
1.227
2.152
2.979
3.704
4.325
4.838
5.242
5.533
5.711
5.775
5.723
5.554
5.269
4.866
4.348
3.714
2.965
2.104
1.132
0.052
-1.133
-2.418
-3.799
-5.271
-6.83
-8.469
-10.182
-11.963
-13.806
-15.703
-17.648
-19.632
-21.649
-23.688
-25.742
-27.802
-29.858
-31.9
-33.919
-35.905
-37.848
-39.738
-41.566
-43.321
-44.993
-46.573
-48.051
-49.416
-50.66
-51.773
-52.747
-53.574
-54.247
-54.761
-55.109
-55.288
-55.294
-55.124
-54.776
-54.25
-53.545
-52.663
-51.605
-50.376
-48.98
-47.426
-45.722
-43.879
-41.911
-39.834
-37.662
-35.413
-33.107
-30.762
-28.401
-26.045
-23.716
-21.437
-19.23
-17.119
-15.129
-13.284
-11.606
-10.115
-8.83
-7.768
-6.948
-6.386
-6.09
-6.069
-6.328
-6.875
-7.723
-8.884
-10.362
-12.157
-14.269
-16.689
-19.404
-22.395
-25.623
-29.048
-32.624
-36.303
-40.051
-43.833
-47.614
-51.359
-55.016
-58.531
-61.852
-64.924
-67.699
-70.176
-72.359
-74.268
-76.006
-77.693
-79.512
-81.724
-84.524
-88.01
-92.226
-97.181
-102.787
-108.922
-115.305
-121.397
-126.731
-130.963
-133.816
-135.053
-134.505
-131.986
-128.197
-124.837
-123.137
-123.667
-124.772
-123.234
-118.105
-111.013
-106.574
-110.319
-123.434
-143.338
-164.744
-180.857
-186.893
-177.194
-145.195
-86.204
3.183
119.628
254.897
401.158
549.078
692.906
826.933
939.59
1019.763
1054.495
1034.041
959.833
837.761
680.192
503.839
323.108
153.434
8.356
-103.05
-176.801
-214.635
-222.939
-212.181
-191.558
-169.728
-153.631
-143.749
-138.1
-132.125
-121.011
-104.902
-87.218
-73.068
-66.113
-66.602
-72.536
-80.915
-90.102
-99.467
-108.262
-115.933
-121.698
-125.026
-126.205
-125.736
-123.96
-121.324
-118.373
-115.693
-114.006
-113.682
-114.654
-116.743
-119.675
-123.147
-126.883
-130.515
-133.641
-136.036
-137.624
-138.394
-138.417
-137.738
-136.379
-134.41
-131.907
-128.927
-125.523
-121.73
-117.583
-113.143
-108.481
-103.667
-98.761
-93.792
-88.781
-83.742
-78.675
-73.582
-68.456
-63.282
-58.053
-52.767
-47.419
-42.009
-36.534
-30.986
-25.359
-19.649
-13.85
-7.967
-2.003
4.034
10.131
16.276
22.452
28.643
34.832
41.004
47.142
53.229
59.25
65.186
71.018
76.726
82.291
87.69
92.901
97.903
102.672
107.188
111.429
115.373
119.002
122.295
125.234
127.804
129.989
131.774
133.149
134.102
134.625
134.714
134.363
133.57
132.338
130.669
128.567
126.041
123.099
119.754
116.019
111.908
107.438
102.629
97.5
92.072
86.368
80.413
74.231
67.849
61.293
54.59
47.769
40.857
33.882
26.87
19.848
12.843
5.879
-1.02
-7.829
-14.528
-21.096
-27.514
-33.765
-39.832
-45.702
-51.362
-56.802
-62.012
-66.984
-71.713
-76.194
-80.423
-84.398
-88.119
-91.585
-94.799
-97.761
-100.477
-102.949
-105.183
-107.185
-108.962
-110.52
-111.866
-113.009
-113.955
-114.714
-115.293
-115.701
-115.945
-116.034
-115.975
-115.776
-115.444
-114.985
-114.407
-113.715
-112.915
-112.011
-111.009
-109.913
-108.727
-107.457
-106.106
-104.678
-103.178
-101.61
-99.977
-98.285
-96.537
-94.739
-92.894
-91.008
-89.086
-87.132
-85.153
-83.153
-81.138
-79.115
-77.088
-75.065
-73.052
-71.054
-69.078
-67.131
-65.219
-63.35
-61.53
-59.767
-58.067
-56.437
-54.886
-53.418
-52.041
-50.76
-49.582
-48.51
-47.549
-46.703
-45.976
-45.369
-44.884
-44.523
-44.284
-44.169
-44.174
-44.297
-44.536
-44.885
-45.34
-45.896
-46.546
-47.284
-48.102
-48.993
-49.948
-50.959
-52.016
-53.109
-54.228
-55.361
-56.497
-57.624
-58.731
-59.804
-60.833
-61.805
-62.709
-63.534
-64.268
-64.901
-65.424
-65.825
-66.097
-66.232
-66.221
-66.06
-65.742
-65.266
-64.627
-63.824
-62.857
-61.727
-60.436
-58.985
-57.378
-55.618
-53.713
-51.669
-49.493
-47.195
-44.787
-42.282
-39.697
-37.047
-34.351
-31.627
-28.893
-26.172
-23.483
-20.848
-18.288
-15.823
-13.473
-11.258
-9.201
-7.321
-5.635
-4.157
-2.9
-1.873
-1.089
-0.556
-0.276
-0.25
-0.476
-0.956
-1.696
-2.703
-3.976
-5.51
-7.297
-9.326
-11.586
-14.056
-16.698
-19.475
-22.338
-25.239
-28.143
-31.014
-33.817
-36.52
-39.072
-41.417
-43.508
-45.296
-46.738
-47.82
-48.529
-48.859
-48.886
-48.741
-48.624
-48.801
-49.514
-50.931
-53.144
-56.24
-60.193
-64.804
-69.718
-74.337
-77.976
-80.076
-80.297
-78.391
-74.326
-68.41
-61.133
-53.422
-46.576
-41.882
-40.437
-43.096
-50.333
-61.575
-75.259
-89.197
-100.295
-106.872
-109.432
-108.265
-103.088
-89.534
-58.72
-2.296
85.183
201.127
336.353
480.346
621.653
753.956
872.104
966.963
1031.062
1053.112
1023.092
940.684
808.025
636.247
445.255
254.33
85.667
-42.85
-124.879
-161.789
-162.455
-140.827
-109.283
-76.936
-52.638
-41.461
-43.184
-55.572
-71.177
-81.642
-84.46
-80.015
-71.858
-65.068
-61.002
-59.162
-58.751
-58.427
-58.159
-58.614
-60.013
-62.538
-66.03
-69.922
-73.801
-77.371
-80.361
-82.702
-84.449
-85.687
-86.682
-87.834
-89.347
-91.258
-93.519
-95.938
-98.35
-100.643
-102.627
-104.064
-104.822
-104.85
-104.165
-102.863
-101.013
-98.65
-95.839
-92.647
-89.147
-85.415
-81.513
-77.491
-73.391
-69.245
-65.079
-60.912
-56.75
-52.588
-48.412
-44.201
-39.942
-35.628
-31.254
-26.819
-22.315
-17.734
-13.068
-8.313
-3.462
1.486
6.532
11.676
16.916
22.243
27.645
33.11
38.624
44.176
49.755
55.349
60.943
66.523
72.073
77.577
83.019
88.377
93.632
98.761
103.743
108.556
113.177
117.586
121.76
125.679
129.322
132.669
135.701
138.401
140.752
142.738
144.346
145.564
146.381
146.79
146.783
146.357
145.51
144.242
142.553
140.449
137.935
135.02
131.714
128.028
123.978
119.578
114.847
109.804
104.47
98.868
93.022
86.955
80.694
74.265
67.694
61.008
54.236
47.404
40.54
33.669
26.82
20.017
13.285
6.647
0.128
-6.253
-12.474
-18.517
-24.363
-29.997
-35.404
-40.57
-45.483
-50.134
-54.514
-58.615
-62.433
-65.963
-69.204
-72.153
-74.812
-77.182
-79.267
-81.07
-82.596
-83.854
-84.849
-85.592
-86.09
-86.355
-86.397
-86.228
-85.86
-85.303
-84.572
-83.679
-82.636
-81.455
-80.151
-78.736
-77.222
-75.623
-73.951
-72.217
-70.436
-68.617
-66.772
-64.913
-63.05
-61.194
-59.353
-57.537
-55.756
-54.017
-52.327
-50.695
-49.125
-47.625
-46.199
-44.851
-43.586
-42.407
-41.317
-40.318
-39.412
-38.6
-37.883
-37.261
-36.735
-36.302
-35.964
-35.716
-35.558
-35.487
-35.5
-35.593
-35.762
-36.002
-36.309
-36.675
-37.097
-37.566
-38.076
-38.62
-39.191
-39.782
-40.385
-40.994
-41.6
-42.196
-42.774
-43.328
-43.848
-44.327
-44.758
-45.133
-45.446
-45.689
-45.856
-45.942
-45.94
-45.844
-45.651
-45.354
-44.951
-44.436
-43.808
-43.064
-42.204
-41.228
-40.137
-38.933
-37.619
-36.199
-34.678
-33.062
-31.356
-29.567
-27.704
-25.776
-23.791
-21.762
-19.701
-17.622
-15.542
-13.48
-11.451
-9.473
-7.565
-5.746
-4.038
-2.458
-1.02
0.26
1.368
2.287
3
3.491
3.752
3.772
3.543
3.057
2.303
1.276
-0.015
-1.566
-3.369
-5.427
-7.754
-10.361
-13.245
-16.4
-19.819
-23.486
-27.392
-31.506
-35.773
-40.131
-44.516
-48.866
-53.148
-57.324
-61.354
-65.19
-68.754
-71.959
-74.743
-77.061
-78.883
-80.225
-81.093
-81.49
-81.53
-81.412
-81.419
-81.851
-82.865
-84.437
-86.545
-89.33
-92.9
-97.179
-101.748
-105.919
-109.232
-111.635
-113.208
-113.74
-112.903
-110.549
-107.184
-104.024
-102.095
-101.991
-104.065
-108.678
-116.413
-126.989
-138.116
-146.493
-148.817
-143.913
-133.903
-120.501
-103.012
-76.463
-31.658
39.73
141.513
271.206
420.757
577.444
728.024
859.96
959.483
1017.896
1028.365
986.26
895.135
759.1
587.892
398.936
209.879
41.796
-87.846
-172.161
-212.239
-215.979
-195.026
-160.646
-121.08
-85.975
-64.783
-60.078
-71.902
-93.483
-111.21
-118.926
-114.39
-99.068
-82.473
-69.416
-61.262
-59.579
-60.865
-63.121
-66.558
-70.177
-74.605
-80.224
-86.067
-91.675
-96.588
-100.313
-102.894
-104.527
-105.39
-105.878
-106.483
-107.453
-108.819
-110.512
-112.361
-114.2
-115.917
-117.317
-118.137
-118.237
-117.591
-116.24
-114.285
-111.799
-108.813
-105.379
-101.585
-97.511
-93.235
-88.828
-84.316
-79.721
-75.073
-70.388
-65.681
-60.959
-56.204
-51.395
-46.517
-41.567
-36.541
-31.444
-26.271
-21.015
-15.671
-10.236
-4.708
0.91
6.617
12.413
18.291
24.243
30.257
36.315
42.403
48.507
54.613
60.707
66.774
72.796
78.756
84.638
90.422
96.088
101.615
106.98
112.159
117.133
121.877
126.371
130.592
134.521
138.138
141.424
144.362
146.935
149.129
150.931
152.331
153.317
153.884
154.024
153.736
153.017
151.869
150.295
148.299
145.89
143.076
139.87
136.284
132.335
128.039
123.415
118.484
113.266
107.787
102.068
96.137
90.019
83.741
77.329
70.81
64.213
57.563
50.886
44.209
37.556
30.952
24.418
17.977
11.65
5.455
-0.588
-6.464
-12.158
-17.655
-22.944
-28.013
-32.854
-37.46
-41.823
-45.94
-49.806
-53.421
-56.782
-59.891
-62.749
-65.358
-67.722
-69.846
-71.734
-73.392
-74.827
-76.047
-77.058
-77.869
-78.487
-78.921
-79.178
-79.268
-79.198
-78.977
-78.613
-78.115
-77.489
-76.745
-75.89
-74.933
-73.881
-72.741
-71.523
-70.232
-68.877
-67.465
-66.003
-64.498
-62.958
-61.39
-59.8
-58.195
-56.583
-54.969
-53.36
-51.762
-50.183
-48.627
-47.102
-45.612
-44.164
-42.763
-41.415
-40.124
-38.896
-37.736
-36.648
-35.635
-34.702
-33.851
-33.085
-32.405
-31.813
-31.308
-30.89
-30.558
-30.31
-30.144
-30.057
-30.044
-30.101
-30.223
-30.404
-30.639
-30.919
-31.238
-31.587
-31.958
-32.342
-32.73
-33.112
-33.48
-33.824
-34.135
-34.402
-34.618
-34.772
-34.856
-34.861
-34.778
-34.6
-34.319
-33.931
-33.43
-32.812
-32.074
-31.215
-30.234
-29.132
-27.911
-26.572
-25.12
-23.56
-21.898
-20.143
-18.302
-16.387
-14.409
-12.386
-10.333
-8.267
-6.206
-4.167
-2.17
-0.234
1.62
3.374
5.011
6.516
7.869
9.052
10.045
10.833
11.405
11.747
11.852
11.707
11.304
10.644
9.727
8.559
7.141
5.462
3.516
1.303
-1.175
-3.907
-6.878
-10.074
-13.469
-17.02
-20.677
-24.385
-28.091
-31.752
-35.327
-38.774
-42.049
-45.099
-47.863
-50.28
-52.29
-53.847
-54.939
-55.596
-55.858
-55.767
-55.414
-54.972
-54.707
-54.895
-55.7
-57.104
-59.074
-61.739
-65.177
-69.269
-73.57
-77.378
-80.18
-81.891
-82.534
-81.833
-79.501
-75.465
-70.31
-65.35
-61.692
-59.983
-60.647
-64.125
-71.046
-81.181
-92.244
-100.836
-103.435
-98.402
-87.235
-71.465
-50.745
-21.007
25.323
96.047
196.08
324.491
475.807
638.876
798.647
940.094
1046.155
1103.377
1103.858
1043.016
924.692
758.682
559.995
352.034
159.296
2.388
-105.526
-166.111
-190.01
-188.815
-173.621
-149.031
-117.121
-84.559
-58.073
-43.444
-43.356
-52.335
-62.437
-69.089
-70.573
-69.753
-71.647
-77.449
-86.041
-95.297
-101.94
-104.867
-104.723
-102.038
-97.667
-92.418
-86.709
-81.198
-76.818
-74.02
-72.876
-73.374
-75.256
-78.237
-82.146
-86.653
-91.277
-95.674
-99.592
-102.868
-105.502
-107.481
-108.756
-109.325
-109.219
-108.475
-107.159
-105.318
-102.976
-100.17
-96.946
-93.367
-89.516
-85.474
-81.315
-77.091
-72.834
-68.565
-64.299
-60.041
-55.789
-51.528
-47.235
-42.892
-38.49
-34.019
-29.472
-24.837
-20.099
-15.247
-10.273
-5.171
0.058
5.413
10.889
16.478
22.17
27.95
33.802
39.71
45.657
51.628
57.607
63.575
69.512
75.398
81.212
86.932
92.535
97.997
103.291
108.393
113.279
117.923
122.302
126.392
130.169
133.614
136.704
139.42
141.746
143.664
145.162
146.225
146.846
147.016
146.729
145.983
144.777
143.115
141
138.439
135.442
132.02
128.189
123.963
119.361
114.403
109.111
103.51
97.624
91.481
85.108
78.534
71.789
64.904
57.909
50.833
43.709
36.566
29.433
22.341
15.316
8.387
1.579
-5.082
-11.574
-17.875
-23.964
-29.824
-35.439
-40.794
-45.876
-50.676
-55.185
-59.395
-63.304
-66.907
-70.204
-73.194
-75.882
-78.27
-80.364
-82.169
-83.695
-84.95
-85.943
-86.686
-87.189
-87.465
-87.526
-87.386
-87.057
-86.554
-85.891
-85.08
-84.137
-83.075
-81.907
-80.646
-79.306
-77.897
-76.432
-74.922
-73.377
-71.808
-70.222
-68.629
-67.037
-65.453
-63.882
-62.331
-60.806
-59.31
-57.849
-56.426
-55.045
-53.709
-52.421
-51.184
-50
-48.87
-47.796
-46.78
-45.823
-44.926
-44.088
-43.311
-42.595
-41.939
-41.344
-40.808
-40.331
-39.912
-39.55
-39.242
-38.988
-38.786
-38.632
-38.526
-38.466
-38.448
-38.47
-38.529
-38.621
-38.744
-38.892
-39.061
-39.246
-39.442
-39.642
-39.84
-40.03
-40.206
-40.36
-40.485
-40.575
-40.622
-40.618
-40.558
-40.433
-40.238
-39.965
-39.607
-39.161
-38.621
-37.983
-37.242
-36.398
-35.446
-34.388
-33.222
-31.95
-30.573
-29.093
-27.513
-25.837
-24.07
-22.223
-20.306
-18.334
-16.322
-14.288
-12.25
-10.226
-8.235
-6.297
-4.425
-2.634
-0.938
0.644
2.092
3.385
4.506
5.442
6.183
6.721
7.051
7.164
7.06
6.742
6.212
5.463
4.478
3.229
1.695
-0.129
-2.236
-4.62
-7.275
-10.204
-13.408
-16.863
-20.523
-24.34
-28.259
-32.232
-36.232
-40.187
-43.969
-47.49
-50.713
-53.67
-56.528
-59.411
-62.278
-65.089
-67.813
-70.285
-72.367
-73.843
-74.23
-73.197
-70.817
-67.347
-63.336
-59.666
-57.018
-55.952
-57.172
-61.042
-67.422
-75.859
-85.352
-94.473
-102.119
-107.639
-110.762
-111.677
-110.871
-109.153
-107.736
-107.934
-110.937
-116.366
-121.539
-123.653
-119.839
-108.78
-92.817
-72.885
-46.379
-8.36
50.164
136.874
251.19
387.727
536.75
684.63
821.73
938.866
1024.495
1069.41
1063.678
1000.393
881.269
714.112
515.244
308.177
116.717
-37.461
-141.589
-196.271
-209.527
-195.23
-168.337
-137.767
-111.537
-94.958
-87.265
-87.275
-90.17
-89.51
-84.613
-77
-69.964
-68.032
-71.963
-80.21
-90.692
-100.78
-108.865
-114.325
-117.026
-117.295
-115.563
-112.315
-108.106
-103.459
-99.107
-95.824
-93.991
-93.735
-94.952
-97.35
-100.681
-104.687
-108.986
-113.137
-116.804
-119.788
-122.021
-123.528
-124.314
-124.373
-123.726
-122.425
-120.541
-118.129
-115.231
-111.876
-108.101
-103.971
-99.565
-94.968
-90.257
-85.487
-80.689
-75.885
-71.092
-66.315
-61.556
-56.806
-52.048
-47.269
-42.463
-37.625
-32.752
-27.836
-22.865
-17.829
-12.719
-7.533
-2.271
3.064
8.467
13.93
19.443
24.992
30.564
36.144
41.718
47.276
52.802
58.282
63.702
69.043
74.29
79.426
84.43
89.284
93.966
98.457
102.735
106.782
110.575
114.097
117.328
120.249
122.845
125.098
126.993
128.518
129.661
130.411
130.76
130.703
130.234
129.351
128.056
126.349
124.235
121.72
118.813
115.523
111.864
107.847
103.491
98.811
93.828
88.56
83.032
77.266
71.287
65.121
58.794
52.332
45.764
39.116
32.418
25.694
18.974
12.284
5.649
-0.906
-7.355
-13.676
-19.848
-25.849
-31.661
-37.266
-42.649
-47.796
-52.693
-57.33
-61.698
-65.79
-69.599
-73.122
-76.357
-79.302
-81.959
-84.329
-86.416
-88.225
-89.762
-91.035
-92.05
-92.819
-93.35
-93.655
-93.745
-93.632
-93.329
-92.848
-92.203
-91.407
-90.474
-89.416
-88.246
-86.977
-85.622
-84.196
-82.71
-81.177
-79.608
-78.011
-76.399
-74.787
-73.176
-71.57
-69.974
-68.388
-66.825
-65.302
-63.817
-62.364
-60.971
-59.659
-58.444
-57.35
-56.363
-55.451
-54.635
-53.951
-53.309
-52.606
-51.906
-51.201
-50.473
-49.948
-49.014
-47.075
-44.979
-42.982
-42.641
-45.821
-50.453
-55.156
-57.876
-55.792
-51.393
-46.788
-43.42
-43.677
-45.845
-48.186
-50.308
-51.151
-51.323
-51.605
-51.844
-52.133
-52.414
-52.522
-52.556
-52.594
-52.603
-52.57
-52.5
-52.386
-52.215
-51.978
-51.656
-51.226
-50.692
-50.057
-49.317
-48.47
-47.515
-46.45
-45.277
-44
-42.619
-41.135
-39.553
-37.878
-36.115
-34.273
-32.36
-30.389
-28.371
-26.321
-24.253
-22.184
-20.131
-18.113
-16.148
-14.257
-12.456
-10.764
-9.199
-7.778
-6.519
-5.438
-4.55
-3.868
-3.405
-3.175
-3.187
-3.45
-3.959
-4.711
-5.703
-6.933
-8.407
-10.13
-12.1
-14.314
-16.769
-19.458
-22.371
-25.484
-28.753
-32.123
-35.543
-38.971
-42.387
-45.775
-49.107
-52.333
-55.395
-58.228
-60.779
-63.013
-64.865
-66.264
-67.223
-67.828
-68.263
-68.804
-69.658
-70.951
-72.86
-75.515
-78.852
-82.708
-86.748
-90.444
-93.463
-95.528
-96.202
-95.22
-92.618
-88.571
-83.568
-78.305
-73.196
-68.841
-66.246
-66.122
-69.019
-75.287
-84.607
-96.566
-110.158
-122.886
-131.899
-134.404
-129.289
-117.725
-99.857
-74.258
-36.104
21.498
102.2
206.473
330.009
465.976
608.068
748.352
877.847
983.864
1051.026
1066.496
1021.855
918.044
765.938
582.778
390.852
212.098
63.569
-45.052
-113.78
-149.497
-162.654
-162.375
-154.135
-141.791
-127.055
-112.184
-98.955
-86.617
-75.019
-63.571
-53.338
-47.701
-47.872
-53.948
-64.571
-76.376
-87.449
-96.755
-103.056
-106.249
-106.561
-104.119
-99.705
-94.284
-88.462
-82.958
-78.632
-75.878
-74.828
-75.487
-77.519
-80.563
-84.355
-88.507
-92.56
-96.198
-99.21
-101.49
-103.062
-103.942
-104.116
-103.615
-102.491
-100.801
-98.602
-95.935
-92.824
-89.306
-85.446
-81.321
-77.014
-72.605
-68.149
-63.68
-59.222
-54.789
-50.387
-46.015
-41.66
-37.301
-32.922
-28.515
-24.07
-19.58
-15.035
-10.421
-5.723
-0.931
3.961
8.955
14.052
19.247
24.537
29.912
35.36
40.866
46.418
52.002
57.604
63.21
68.805
74.372
79.892
85.347
90.718
95.982
101.118
106.101
110.909
115.518
119.906
124.049
127.924
131.51
134.786
137.733
140.332
142.566
144.419
145.879
146.933
147.571
147.786
147.572
146.926
145.847
144.336
142.398
140.038
137.264
134.088
130.52
126.577
122.275
117.631
112.667
107.404
101.865
96.076
90.062
83.851
77.471
70.95
64.318
57.601
50.831
44.034
37.239
30.474
23.763
17.133
10.609
4.212
-2.034
-8.111
-14
-19.683
-25.146
-30.375
-35.359
-40.086
-44.551
-48.745
-52.664
-56.305
-59.666
-62.748
-65.552
-68.081
-70.339
-72.331
-74.065
-75.549
-76.79
-77.798
-78.584
-79.157
-79.531
-79.715
-79.722
-79.564
-79.253
-78.8
-78.218
-77.519
-76.713
-75.811
-74.825
-73.764
-72.64
-71.46
-70.235
-68.973
-67.682
-66.37
-65.043
-63.71
-62.375
-61.046
-59.726
-58.42
-57.135
-55.872
-54.637
-53.433
-52.262
-51.128
-50.033
-48.98
-47.97
-47.006
-46.089
-45.22
-44.402
-43.636
-42.922
-42.263
-41.66
-41.112
-40.622
-40.19
-39.816
-39.5
-39.241
-39.04
-38.894
-38.804
-38.767
-38.782
-38.845
-38.956
-39.111
-39.306
-39.539
-39.804
-40.098
-40.415
-40.751
-41.099
-41.453
-41.808
-42.156
-42.491
-42.806
-43.093
-43.346
-43.558
-43.719
-43.823
-43.862
-43.829
-43.716
-43.515
-43.222
-42.829
-42.333
-41.729
-41.012
-40.18
-39.232
-38.166
-36.98
-35.676
-34.255
-32.719
-31.072
-29.319
-27.467
-25.523
-23.499
-21.406
-19.258
-17.07
-14.857
-12.634
-10.419
-8.232
-6.092
-4.016
-2.023
-0.131
1.641
3.271
4.741
6.035
7.137
8.036
8.718
9.17
9.38
9.343
9.059
8.526
7.741
6.693
5.374
3.783
1.923
-0.202
-2.579
-5.199
-8.04
-11.065
-14.23
-17.486
-20.781
-24.08
-27.347
-30.546
-33.646
-36.593
-39.325
-41.79
-43.939
-45.722
-47.138
-48.188
-48.87
-49.28
-49.56
-49.901
-50.598
-51.902
-53.893
-56.625
-60.155
-64.391
-69.218
-74.393
-79.278
-83.252
-86.014
-87.347
-87.153
-85.543
-82.499
-78.151
-73.398
-69.306
-66.553
-65.85
-67.629
-71.927
-79.228
-89.189
-99.487
-107.415
-110.254
-106.794
-98.557
-86.711
-70.427
-44.929
-2.325
64.489
160.075
282.784
426.558
582.253
737.863
881.568
999.238
1077.818
1106.043
1075.602
987.219
845.893
664.412
462.564
259.996
80.537
-56.724
-142.917
-176.759
-169.812
-139.298
-101.055
-68.529
-48.589
-42.505
-47.264
-57.607
-67.592
-72.304
-71.652
-67.896
-64.161
-64.11
-68.144
-74.547
-81.7
-87.521
-90.708
-91.387
-89.938
-86.799
-82.597
-77.841
-72.851
-68.177
-64.575
-62.419
-61.835
-62.836
-65.146
-68.49
-72.704
-77.454
-82.309
-86.952
-91.112
-94.621
-97.468
-99.627
-101.059
-101.775
-101.797
-101.159
-99.926
-98.141
-95.833
-93.047
-89.831
-86.251
-82.39
-78.326
-74.132
-69.861
-65.541
-61.192
-56.824
-52.438
-48.031
-43.59
-39.092
-34.523
-29.874
-25.137
-20.308
-15.378
-10.335
-5.171
0.119
5.536
11.077
16.735
22.502
28.365
34.31
40.318
46.369
52.444
58.525
64.593
70.629
76.613
82.524
88.339
94.038
99.597
104.992
110.199
115.192
119.947
124.439
128.645
132.542
136.106
139.319
142.159
144.61
146.654
148.279
149.471
150.22
150.519
150.362
149.746
148.67
147.138
145.152
142.721
139.854
136.563
132.862
128.766
124.293
119.464
114.3
108.824
103.06
97.034
90.775
84.31
77.669
70.883
63.98
56.992
49.95
42.884
35.823
28.796
21.832
14.957
8.196
1.575
-4.883
-11.159
-17.231
-23.083
-28.698
-34.064
-39.167
-43.997
-48.548
-52.812
-56.786
-60.466
-63.852
-66.945
-69.746
-72.26
-74.49
-76.445
-78.131
-79.557
-80.733
-81.671
-82.38
-82.873
-83.163
-83.263
-83.185
-82.942
-82.548
-82.016
-81.359
-80.588
-79.717
-78.758
-77.721
-76.619
-75.461
-74.257
-73.017
-71.75
-70.463
-69.164
-67.861
-66.56
-65.266
-63.986
-62.725
-61.487
-60.276
-59.097
-57.951
-56.842
-55.773
-54.745
-53.761
-52.821
-51.928
-51.082
-50.286
-49.539
-48.844
-48.201
-47.612
-47.077
-46.597
-46.173
-45.806
-45.496
-45.243
-45.049
-44.912
-44.834
-44.814
-44.852
-44.947
-45.098
-45.302
-45.56
-45.868
-46.224
-46.625
-47.069
-47.552
-48.07
-48.621
-49.199
-49.8
-50.42
-51.052
-51.691
-52.331
-52.964
-53.584
-54.183
-54.753
-55.288
-55.78
-56.221
-56.603
-56.918
-57.158
-57.317
-57.387
-57.36
-57.231
-56.992
-56.639
-56.168
-55.575
-54.856
-54.009
-53.034
-51.929
-50.695
-49.333
-47.844
-46.231
-44.5
-42.654
-40.702
-38.651
-36.512
-34.298
-32.023
-29.702
-27.351
-24.987
-22.626
-20.288
-17.993
-15.76
-13.607
-11.552
-9.614
-7.814
-6.172
-4.707
-3.435
-2.368
-1.521
-0.906
-0.536
-0.42
-0.561
-0.961
-1.623
-2.556
-3.768
-5.263
-7.039
-9.089
-11.401
-13.962
-16.748
-19.725
-22.851
-26.079
-29.36
-32.651
-35.912
-39.106
-42.19
-45.125
-47.86
-50.343
-52.529
-54.368
-55.84
-56.967
-57.787
-58.347
-58.743
-59.104
-59.635
-60.634
-62.288
-64.63
-67.665
-71.381
-75.763
-80.778
-86.099
-91.059
-95.148
-98.092
-99.775
-100.198
-99.166
-96.405
-92.168
-87.3
-82.688
-79.151
-77.231
-77.166
-79.635
-84.902
-91.736
-97.962
-100.735
-98.538
-92.629
-85.019
-76.32
-62.574
-35.255
15.934
99.434
216.113
360.331
520.459
680.772
827.973
949.322
1034.452
1076.389
1067.899
1005.518
890.207
728.073
534.311
330.293
139.307
-16.378
-123.333
-179.848
-191.545
-173.089
-141.465
-109.648
-89.967
-85.725
-92.605
-104.282
-110.116
-105.118
-91.237
-73.016
-58.212
-50.759
-50.046
-54.198
-60.128
-66.512
-73.409
-80.404
-87.041
-92.526
-96.215
-98.193
-98.726
-97.975
-96.225
-93.883
-91.508
-89.856
-89.335
-89.955
-91.624
-94.121
-97.201
-100.633
-104.054
-107.049
-109.382
-110.958
-111.758
-111.854
-111.284
-110.066
-108.273
-105.981
-103.25
-100.135
-96.668
-92.878
-88.823
-84.573
-80.199
-75.761
-71.29
-66.803
-62.313
-57.819
-53.319
-48.806
-44.261
-39.674
-35.04
-30.353
-25.611
-20.808
-15.934
-10.98
-5.938
-0.799
4.439
9.773
15.2
20.711
26.296
31.943
37.636
43.361
49.105
54.853
60.59
66.301
71.97
77.578
83.107
88.535
93.842
99.005
104.002
108.808
113.401
117.758
121.857
125.675
129.192
132.387
135.24
137.735
139.853
141.58
142.902
143.808
144.289
144.338
143.948
143.119
141.851
140.144
138.005
135.439
132.456
129.067
125.284
121.124
116.603
111.74
106.556
101.073
95.316
89.311
83.083
76.662
70.075
63.352
56.522
49.615
42.66
35.686
28.723
21.797
14.937
8.168
1.516
-4.996
-11.346
-17.513
-23.479
-29.227
-34.741
-40.008
-45.016
-49.755
-54.218
-58.397
-62.288
-65.888
-69.195
-72.21
-74.934
-77.371
-79.525
-81.402
-83.01
-84.356
-85.451
-86.303
-86.925
-87.327
-87.522
-87.522
-87.339
-86.987
-86.479
-85.826
-85.043
-84.141
-83.131
-82.027
-80.839
-79.577
-78.252
-76.874
-75.451
-73.993
-72.508
-71.003
-69.486
-67.963
-66.441
-64.926
-63.422
-61.935
-60.469
-59.028
-57.616
-56.236
-54.891
-53.584
-52.316
-51.091
-49.91
-48.776
-47.688
-46.651
-45.664
-44.73
-43.849
-43.025
-42.258
-41.55
-40.901
-40.315
-39.791
-39.331
-38.937
-38.609
-38.348
-38.155
-38.029
-37.972
-37.983
-38.06
-38.203
-38.41
-38.679
-39.009
-39.396
-39.837
-40.329
-40.868
-41.452
-42.073
-42.729
-43.414
-44.122
-44.846
-45.58
-46.317
-47.049
-47.769
-48.468
-49.138
-49.772
-50.361
-50.898
-51.373
-51.779
-52.109
-52.354
-52.507
-52.56
-52.509
-52.347
-52.069
-51.673
-51.155
-50.513
-49.746
-48.855
-47.839
-46.699
-45.439
-44.06
-42.569
-40.97
-39.27
-37.478
-35.604
-33.661
-31.663
-29.628
-27.571
-25.508
-23.458
-21.441
-19.477
-17.585
-15.782
-14.086
-12.513
-11.083
-9.814
-8.724
-7.827
-7.133
-6.654
-6.4
-6.381
-6.607
-7.076
-7.783
-8.728
-9.911
-11.345
-13.042
-15
-17.214
-19.678
-22.379
-25.304
-28.429
-31.703
-35.074
-38.485
-41.876
-45.213
-48.459
-51.572
-54.515
-57.221
-59.617
-61.65
-63.262
-64.414
-65.123
-65.394
-65.233
-64.759
-64.127
-63.57
-63.441
-63.937
-65.081
-66.92
-69.485
-72.76
-76.723
-80.98
-84.74
-87.492
-88.994
-89.109
-87.855
-85.097
-80.636
-75.027
-69.531
-65.149
-62.797
-63.146
-66.384
-73.151
-83.366
-94.823
-104.587
-109.62
-108.503
-102.908
-94.171
-81.176
-58.752
-18.158
48.765
146.639
273.541
422.699
583.338
742.036
886.479
1002.71
1077.761
1101.516
1065.939
971.036
825.173
644.101
450.17
266.069
109.126
-11.24
-93.933
-144.81
-170.404
-175.942
-167.122
-148.291
-126.121
-108.123
-97.108
-92.627
-89.954
-83.793
-73.364
-61.116
-51.857
-48.953
-52.389
-60.32
-69.964
-79.52
-88.25
-95.52
-100.843
-103.933
-104.781
-103.73
-101.284
-97.908
-94.099
-90.495
-87.794
-86.406
-86.39
-87.627
-89.859
-92.815
-96.245
-99.792
-103.016
-105.642
-107.546
-108.688
-109.124
-108.89
-107.988
-106.469
-104.416
-101.891
-98.951
-95.636
-91.963
-87.984
-83.767
-79.383
-74.908
-70.394
-65.866
-61.343
-56.836
-52.348
-47.877
-43.413
-38.94
-34.445
-29.92
-25.359
-20.757
-16.108
-11.399
-6.621
-1.762
3.183
8.215
13.331
18.529
23.799
29.134
34.522
39.948
45.397
50.859
56.318
61.762
67.175
72.54
77.84
83.058
88.173
93.166
98.014
102.697
107.192
111.477
115.531
119.332
122.859
126.092
129.011
131.599
133.838
135.712
137.206
138.309
139.008
139.295
139.163
138.607
137.625
136.216
134.383
132.13
129.464
126.394
122.93
119.086
114.877
110.319
105.43
100.232
94.746
88.995
83.005
76.802
70.411
63.861
57.18
50.396
43.538
36.634
29.712
22.799
15.924
9.112
2.389
-4.22
-10.693
-17.008
-23.143
-29.081
-34.803
-40.295
-45.543
-50.535
-55.262
-59.714
-63.887
-67.775
-71.376
-74.688
-77.711
-80.449
-82.904
-85.081
-86.986
-88.628
-90.014
-91.153
-92.056
-92.734
-93.198
-93.461
-93.533
-93.428
-93.159
-92.738
-92.178
-91.492
-90.692
-89.79
-88.799
-87.73
-86.593
-85.398
-84.156
-82.875
-81.563
-80.228
-78.877
-77.517
-76.152
-74.788
-73.429
-72.079
-70.741
-69.418
-68.112
-66.824
-65.556
-64.31
-63.086
-61.885
-60.708
-59.556
-58.428
-57.326
-56.249
-55.2
-54.178
-53.184
-52.22
-51.286
-50.383
-49.513
-48.677
-47.877
-47.115
-46.392
-45.712
-45.075
-44.483
-43.94
-43.448
-43.006
-42.619
-42.286
-42.01
-41.791
-41.63
-41.527
-41.483
-41.496
-41.567
-41.693
-41.873
-42.103
-42.382
-42.705
-43.068
-43.466
-43.892
-44.341
-44.805
-45.279
-45.754
-46.223
-46.676
-47.107
-47.506
-47.864
-48.173
-48.423
-48.606
-48.712
-48.735
-48.667
-48.501
-48.231
-47.853
-47.361
-46.753
-46.026
-45.178
-44.209
-43.117
-41.906
-40.577
-39.136
-37.587
-35.938
-34.199
-32.385
-30.509
-28.587
-26.634
-24.666
-22.703
-20.764
-18.869
-17.035
-15.28
-13.622
-12.081
-10.678
-9.433
-8.36
-7.472
-6.78
-6.296
-6.031
-5.993
-6.185
-6.606
-7.254
-8.133
-9.256
-10.632
-12.261
-14.139
-16.26
-18.612
-21.183
-23.951
-26.874
-29.907
-32.998
-36.093
-39.157
-42.153
-45.04
-47.784
-50.332
-52.614
-54.587
-56.201
-57.404
-58.205
-58.611
-58.609
-58.307
-57.865
-57.477
-57.488
-58.195
-59.677
-62.024
-65.324
-69.44
-74.199
-79.232
-83.675
-86.718
-87.951
-87.031
-83.815
-78.563
-71.536
-63.345
-55.439
-49.428
-46.599
-48.045
-54.47
-65.373
-79.405
-94.768
-108.419
-118.465
-125.099
-128.017
-126.36
-115.589
-86.925
-32.285
53.714
168.699
303.836
449.363
594.666
733.767
862.128
970.008
1046.14
1075.91
1045.951
954.073
807.579
622.771
423.112
230.324
61.555
-69.975
-158.81
-205.37
-212.851
-191.862
-155.494
-116.152
-87.882
-75.738
-77.187
-86.593
-92.662
-90.091
-80.636
-68.031
-59.288
-57.591
-61.43
-68.578
-76.221
-82.855
-88.275
-92.224
-94.376
-94.601
-93.125
-90.37
-86.683
-82.403
-77.921
-73.72
-70.467
-68.534
-67.887
-68.391
-69.828
-71.955
-74.574
-77.376
-79.924
-81.944
-83.321
-84.003
-84.043
-83.475
-82.288
-80.525
-78.264
-75.566
-72.486
-69.066
-65.322
-61.301
-57.07
-52.698
-48.261
-43.811
-39.372
-34.964
-30.595
-26.262
-21.962
-17.683
-13.403
-9.107
-4.783
-0.423
3.98
8.434
12.951
17.543
22.221
26.993
31.858
36.815
41.862
46.989
52.188
57.448
62.751
68.085
73.435
78.787
84.127
89.438
94.704
99.906
105.026
110.045
114.942
119.694
124.281
128.678
132.865
136.818
140.515
143.935
147.058
149.863
152.331
154.445
156.19
157.551
158.516
159.074
159.216
158.937
158.232
157.1
155.54
153.557
151.155
148.341
145.127
141.523
137.543
133.202
128.518
123.51
118.198
112.604
106.752
100.666
94.371
87.896
81.268
74.514
67.663
60.744
53.785
46.815
39.861
32.95
26.108
19.361
12.734
6.248
-0.073
-6.21
-12.145
-17.86
-23.341
-28.573
-33.547
-38.251
-42.678
-46.822
-50.679
-54.245
-57.518
-60.5
-63.191
-65.594
-67.714
-69.556
-71.127
-72.435
-73.489
-74.298
-74.874
-75.228
-75.372
-75.318
-75.08
-74.669
-74.1
-73.386
-72.539
-71.575
-70.505
-69.343
-68.101
-66.791
-65.425
-64.013
-62.567
-61.095
-59.608
-58.115
-56.623
-55.14
-53.673
-52.23
-50.816
-49.436
-48.095
-46.798
-45.549
-44.35
-43.206
-42.117
-41.087
-40.117
-39.208
-38.361
-37.576
-36.854
-36.196
-35.599
-35.066
-34.593
-34.182
-33.831
-33.538
-33.304
-33.125
-33.001
-32.929
-32.909
-32.937
-33.011
-33.129
-33.288
-33.486
-33.719
-33.984
-34.278
-34.597
-34.938
-35.296
-35.668
-36.049
-36.434
-36.818
-37.196
-37.563
-37.915
-38.247
-38.553
-38.827
-39.065
-39.261
-39.41
-39.506
-39.544
-39.518
-39.423
-39.256
-39.013
-38.69
-38.284
-37.793
-37.214
-36.548
-35.795
-34.953
-34.023
-33.008
-31.911
-30.735
-29.486
-28.168
-26.79
-25.363
-23.896
-22.402
-20.894
-19.385
-17.887
-16.417
-14.988
-13.61
-12.296
-11.059
-9.912
-8.87
-7.949
-7.163
-6.524
-6.044
-5.734
-5.604
-5.663
-5.909
-6.343
-6.966
-7.786
-8.823
-10.09
-11.593
-13.332
-15.305
-17.503
-19.915
-22.515
-25.256
-28.092
-30.978
-33.873
-36.758
-39.602
-42.359
-44.972
-47.369
-49.482
-51.274
-52.716
-53.775
-54.444
-54.743
-54.727
-54.5
-54.173
-53.84
-53.597
-53.549
-53.804
-54.473
-55.691
-57.621
-60.38
-64
-68.385
-73.25
-78.244
-83.016
-87.115
-89.991
-91.229
-90.57
-88.152
-84.755
-81.253
-78.369
-77.003
-77.952
-81.649
-88.526
-97.442
-104.996
-108.038
-103.462
-89.937
-69.865
-44.052
-10.93
33.087
96.028
182.99
292.992
421.713
558.091
690.084
808.616
902.268
961.386
976.75
938.034
842.87
696.369
511.716
312.058
121.486
-39.794
-157.741
-229.431
-259.955
-256.231
-227.889
-184.9
-135.649
-91.814
-62.449
-49.514
-51.259
-59.244
-64.224
-63.728
-58.562
-52.933
-52.26
-57.372
-66.564
-77.473
-86.909
-93.338
-96.879
-97.825
-96.741
-94.257
-90.798
-86.832
-83.117
-80.4
-79.023
-79.091
-80.509
-82.988
-86.271
-90.106
-94.105
-97.835
-101.028
-103.543
-105.336
-106.46
-106.932
-106.745
-105.936
-104.568
-102.693
-100.356
-97.587
-94.398
-90.832
-86.952
-82.83
-78.544
-74.146
-69.666
-65.127
-60.541
-55.916
-51.257
-46.554
-41.796
-36.972
-32.078
-27.112
-22.073
-16.958
-11.759
-6.468
-1.078
4.412
9.999
15.68
21.447
27.29
33.195
39.148
45.131
51.126
57.119
63.091
69.027
74.909
80.717
86.433
92.038
97.509
102.827
107.97
112.914
117.638
122.122
126.343
130.282
133.918
137.234
140.212
142.836
145.09
146.96
148.436
149.507
150.164
150.401
150.213
149.599
148.557
147.091
145.204
142.903
140.197
137.096
133.613
129.763
125.562
121.027
116.179
111.038
105.626
99.968
94.087
88.011
81.764
75.374
68.867
62.271
55.612
48.918
42.214
35.527
28.88
22.299
15.806
9.422
3.17
-2.932
-8.866
-14.616
-20.167
-25.506
-30.621
-35.503
-40.144
-44.537
-48.678
-52.563
-56.191
-59.56
-62.674
-65.533
-68.141
-70.504
-72.626
-74.515
-76.178
-77.623
-78.86
-79.897
-80.744
-81.412
-81.911
-82.252
-82.444
-82.5
-82.429
-82.243
-81.95
-81.562
-81.088
-80.538
-79.919
-79.241
-78.512
-77.74
-76.931
-76.091
-75.228
-74.347
-73.452
-72.548
-71.64
-70.732
-69.826
-68.926
-68.034
-67.154
-66.287
-65.436
-64.601
-63.786
-62.991
-62.218
-61.467
-60.741
-60.038
-59.361
-58.71
-58.086
-57.489
-56.92
-56.378
-55.865
-55.381
-54.924
-54.496
-54.095
-53.721
-53.375
-53.053
-52.757
-52.485
-52.236
-52.009
-51.802
-51.615
-51.444
-51.288
-51.144
-51.011
-50.884
-50.761
-50.637
-50.51
-50.376
-50.231
-50.07
-49.891
-49.688
-49.457
-49.194
-48.894
-48.554
-48.169
-47.735
-47.248
-46.705
-46.104
-45.442
-44.717
-43.928
-43.074
-42.154
-41.169
-40.117
-39.001
-37.822
-36.582
-35.283
-33.931
-32.531
-31.088
-29.613
-28.116
-26.607
-25.097
-23.598
-22.121
-20.682
-19.294
-17.968
-16.717
-15.551
-14.484
-13.53
-12.702
-12.012
-11.469
-11.08
-10.852
-10.793
-10.912
-11.209
-11.683
-12.331
-13.154
-14.162
-15.367
-16.774
-18.384
-20.191
-22.187
-24.364
-26.706
-29.178
-31.744
-34.357
-36.974
-39.557
-42.072
-44.486
-46.762
-48.856
-50.714
-52.277
-53.493
-54.325
-54.768
-54.854
-54.62
-54.092
-53.354
-52.583
-52.034
-51.982
-52.585
-53.813
-55.639
-58.215
-61.617
-65.707
-70.043
-73.914
-76.813
-78.7
-79.621
-79.293
-77.48
-74.227
-70.141
-66.494
-64.466
-64.656
-67.345
-73.098
-81.81
-92.214
-102.408
-109.396
-111.772
-110.769
-107.039
-99.819
-83.996
-50.613
7.308
93.261
203.462
329.058
461.748
592.133
713.906
820.532
900.952
946.408
947.974
900.999
809.916
681.124
526.188
359.505
194.846
48.314
-68.302
-148.63
-193.003
-208.117
-200.429
-177.97
-146.593
-112.03
-83.522
-64.8
-57.077
-57.849
-58.619
-56.168
-50.798
-44.136
-41.189
-43.617
-49.983
-58.93
-68.109
-75.76
-81.387
-84.773
-86.023
-85.527
-83.722
-80.968
-77.673
-74.508
-72.141
-70.952
-71.102
-72.488
-74.832
-77.899
-81.418
-84.994
-88.246
-90.926
-92.902
-94.165
-94.76
-94.708
-94.035
-92.797
-91.063
-88.893
-86.323
-83.378
-80.082
-76.488
-72.666
-68.697
-64.637
-60.523
-56.379
-52.216
-48.043
-43.866
-39.672
-35.443
-31.169
-26.842
-22.458
-18.018
-13.514
-8.933
-4.267
0.496
5.361
10.333
15.412
20.596
25.878
31.25
36.7
42.212
47.774
53.372
58.993
64.623
70.247
75.848
81.408
86.909
92.332
97.656
102.857
107.915
112.805
117.507
121.996
126.251
130.25
133.971
137.394
140.499
143.266
145.679
147.72
149.376
150.633
151.48
151.908
151.909
151.478
150.614
149.315
147.584
145.425
142.845
139.851
136.456
132.671
128.514
124
119.148
113.98
108.518
102.787
96.81
90.616
84.231
77.682
71
64.211
57.346
50.432
43.498
36.572
29.682
22.854
16.114
9.486
2.993
-3.342
-9.499
-15.459
-21.205
-26.722
-31.996
-37.015
-41.769
-46.249
-50.45
-54.366
-57.994
-61.335
-64.388
-67.155
-69.641
-71.85
-73.788
-75.464
-76.885
-78.061
-79.002
-79.72
-80.225
-80.53
-80.647
-80.589
-80.369
-80
-79.494
-78.864
-78.124
-77.284
-76.358
-75.356
-74.29
-73.17
-72.007
-70.811
-69.59
-68.353
-67.109
-65.864
-64.626
-63.399
-62.19
-61.002
-59.841
-58.71
-57.612
-56.55
-55.526
-54.543
-53.603
-52.706
-51.855
-51.049
-50.291
-49.58
-48.917
-48.303
-47.737
-47.221
-46.755
-46.338
-45.972
-45.655
-45.388
-45.17
-45
-44.877
-44.799
-44.766
-44.776
-44.826
-44.915
-45.041
-45.202
-45.395
-45.617
-45.866
-46.138
-46.428
-46.733
-47.048
-47.368
-47.687
-48.002
-48.305
-48.592
-48.857
-49.094
-49.295
-49.456
-49.568
-49.626
-49.622
-49.55
-49.405
-49.18
-48.872
-48.476
-47.988
-47.407
-46.729
-45.953
-45.078
-44.104
-43.031
-41.862
-40.599
-39.246
-37.808
-36.294
-34.712
-33.075
-31.394
-29.682
-27.954
-26.225
-24.512
-22.834
-21.207
-19.648
-18.173
-16.797
-15.537
-14.414
-13.443
-12.636
-12.008
-11.569
-11.332
-11.311
-11.516
-11.942
-12.589
-13.453
-14.535
-15.848
-17.404
-19.201
-21.237
-23.506
-25.998
-28.705
-31.604
-34.647
-37.782
-40.948
-44.094
-47.199
-50.237
-53.188
-56.014
-58.643
-61.005
-63.048
-64.715
-65.988
-66.856
-67.288
-67.346
-67.178
-66.973
-67.036
-67.635
-68.837
-70.701
-73.25
-76.333
-79.896
-83.776
-87.408
-90.275
-92.063
-92.467
-91.481
-89.337
-85.883
-81.13
-75.731
-70.415
-66.031
-63.577
-63.549
-66.091
-71.859
-80.662
-90.681
-99.786
-105.117
-105.073
-100.839
-93.393
-82.195
-63.009
-27.962
31.01
119.63
237.621
379.888
536.703
694.824
840.902
959.274
1037.016
1064.857
1037.01
957.035
831.421
670.362
489.615
304.089
131.568
-9.992
-110.22
-166.195
-182.668
-172.078
-148.343
-121.536
-100.555
-90.218
-89.095
-94.846
-101.799
-103.202
-97.832
-87.139
-74.722
-65.451
-60.885
-60.256
-62.142
-64.949
-68.256
-72.105
-76.401
-80.864
-84.805
-87.87
-90.07
-91.298
-91.594
-91.171
-90.203
-89.14
-88.602
-88.836
-89.88
-91.694
-94.066
-96.78
-99.644
-102.367
-104.618
-106.221
-107.099
-107.246
-106.742
-105.64
-103.985
-101.841
-99.284
-96.376
-93.165
-89.697
-86.011
-82.158
-78.201
-74.188
-70.15
-66.106
-62.063
-58.016
-53.959
-49.878
-45.754
-41.573
-37.327
-33.009
-28.614
-24.135
-19.562
-14.887
-10.1
-5.195
-0.168
4.983
10.253
15.638
21.125
26.704
32.359
38.076
43.842
49.64
55.457
61.275
67.077
72.843
78.554
84.188
89.722
95.131
100.391
105.478
110.368
115.035
119.455
123.606
127.465
131.01
134.221
137.078
139.563
141.659
143.353
144.631
145.482
145.898
145.874
145.406
144.493
143.137
141.342
139.115
136.464
133.402
129.941
126.099
121.891
117.339
112.463
107.287
101.836
96.136
90.216
84.103
77.827
71.418
64.904
58.317
51.686
45.041
38.409
31.82
25.301
18.877
12.575
6.416
0.425
-5.381
-10.981
-16.36
-21.504
-26.399
-31.036
-35.406
-39.503
-43.321
-46.858
-50.114
-53.088
-55.783
-58.204
-60.356
-62.246
-63.883
-65.275
-66.433
-67.369
-68.094
-68.622
-68.966
-69.138
-69.153
-69.026
-68.77
-68.399
-67.928
-67.37
-66.738
-66.046
-65.304
-64.525
-63.718
-62.895
-62.063
-61.232
-60.408
-59.599
-58.811
-58.049
-57.318
-56.622
-55.964
-55.347
-54.773
-54.243
-53.758
-53.32
-52.927
-52.581
-52.281
-52.025
-51.814
-51.646
-51.519
-51.431
-51.382
-51.368
-51.389
-51.441
-51.524
-51.635
-51.774
-51.938
-52.126
-52.338
-52.571
-52.824
-53.095
-53.384
-53.688
-54.005
-54.335
-54.674
-55.022
-55.375
-55.733
-56.091
-56.447
-56.798
-57.141
-57.472
-57.785
-58.078
-58.346
-58.583
-58.785
-58.949
-59.068
-59.139
-59.156
-59.114
-59.007
-58.832
-58.582
-58.252
-57.837
-57.333
-56.735
-56.04
-55.247
-54.351
-53.351
-52.247
-51.039
-49.725
-48.309
-46.791
-45.176
-43.467
-41.67
-39.792
-37.843
-35.833
-33.775
-31.682
-29.568
-27.449
-25.341
-23.263
-21.233
-19.271
-17.393
-15.62
-13.97
-12.461
-11.113
-9.945
-8.971
-8.206
-7.663
-7.355
-7.296
-7.498
-7.962
-8.688
-9.673
-10.92
-12.434
-14.22
-16.276
-18.597
-21.175
-24.002
-27.07
-30.358
-33.828
-37.435
-41.122
-44.844
-48.57
-52.273
-55.93
-59.502
-62.922
-66.134
-69.081
-71.714
-74.005
-75.906
-77.362
-78.414
-79.184
-79.854
-80.687
-81.894
-83.599
-85.918
-88.929
-92.56
-96.643
-100.882
-104.808
-107.974
-109.991
-110.585
-109.625
-107.189
-103.506
-98.88
-93.785
-88.887
-84.989
-82.731
-82.723
-85.347
-90.594
-98.599
-108.662
-118.787
-126.739
-129.997
-127.623
-120.728
-109.433
-92.679
-65.234
-19.08
50.735
147.187
266.639
401.237
545.301
691.044
831.259
956.225
1050.231
1097.697
1086.151
1012.625
884.335
716.042
527.61
337.402
162.694
18.584
-86.052
-148.611
-172.538
-167.862
-147.523
-121.513
-99.335
-87.352
-84.912
-90.175
-97.744
-100.187
-95.889
-86.102
-74.28
-65.741
-62.325
-63.215
-66.853
-71.329
-75.985
-80.817
-85.752
-90.549
-94.584
-97.57
-99.6
-100.665
-100.88
-100.504
-99.723
-98.973
-98.837
-99.52
-101.029
-103.291
-106.07
-109.129
-112.258
-115.162
-117.516
-119.153
-119.998
-120.046
-119.371
-118.026
-116.058
-113.536
-110.535
-107.122
-103.346
-99.26
-94.91
-90.355
-85.668
-80.904
-76.1
-71.281
-66.457
-61.632
-56.804
-51.963
-47.093
-42.184
-37.23
-32.229
-27.178
-22.074
-16.909
-11.676
-6.368
-0.982
4.485
10.033
15.656
21.347
27.094
32.884
38.703
44.535
50.366
56.183
61.971
67.715
73.397
79.001
84.508
89.898
95.151
100.244
105.155
109.862
114.344
118.578
122.545
126.222
129.592
132.635
135.334
137.674
139.639
141.217
142.396
143.167
143.523
143.46
142.973
142.063
140.732
138.983
136.824
134.262
131.307
127.973
124.275
120.228
115.851
111.165
106.191
100.952
95.473
89.78
83.9
77.861
71.69
65.416
59.066
52.67
46.254
39.847
33.473
27.159
20.929
14.806
8.811
2.964
-2.716
-8.213
-13.512
-18.601
-23.467
-28.102
-32.497
-36.648
-40.55
-44.201
-47.599
-50.747
-53.645
-56.298
-58.712
-60.892
-62.846
-64.582
-66.111
-67.441
-68.584
-69.551
-70.353
-71.002
-71.51
-71.888
-72.149
-72.302
-72.359
-72.33
-72.225
-72.052
-71.819
-71.535
-71.204
-70.834
-70.43
-69.996
-69.536
-69.053
-68.551
-68.03
-67.493
-66.94
-66.373
-65.791
-65.195
-64.584
-63.957
-63.314
-62.655
-61.978
-61.282
-60.567
-59.832
-59.076
-58.3
-57.503
-56.685
-55.848
-54.993
-54.122
-53.237
-52.34
-51.436
-50.527
-49.617
-48.712
-47.816
-46.933
-46.069
-45.229
-44.417
-43.639
-42.899
-42.202
-41.553
-40.953
-40.409
-39.921
-39.493
-39.126
-38.822
-38.583
-38.408
-38.298
-38.252
-38.268
-38.344
-38.478
-38.664
-38.9
-39.178
-39.494
-39.841
-40.21
-40.596
-40.987
-41.377
-41.755
-42.112
-42.438
-42.722
-42.955
-43.127
-43.228
-43.249
-43.183
-43.022
-42.758
-42.386
-41.901
-41.3
-40.579
-39.735
-38.768
-37.678
-36.465
-35.133
-33.685
-32.126
-30.465
-28.712
-26.88
-24.982
-23.034
-21.053
-19.054
-17.058
-15.082
-13.141
-11.252
-9.432
-7.699
-6.073
-4.575
-3.223
-2.034
-1.025
-0.211
0.392
0.774
0.933
0.867
0.571
0.036
-0.761
-1.836
-3.199
-4.855
-6.805
-9.042
-11.555
-14.317
-17.279
-20.389
-23.591
-26.839
-30.098
-33.328
-36.475
-39.472
-42.235
-44.689
-46.775
-48.446
-49.663
-50.415
-50.714
-50.619
-50.232
-49.669
-49.056
-48.525
-48.202
-48.218
-48.691
-49.769
-51.656
-54.509
-58.387
-63.194
-68.642
-74.375
-80.046
-85.19
-89.176
-91.471
-91.734
-90.111
-87.32
-84.14
-81.425
-80.156
-81.211
-85.411
-92.469
-100.173
-105.69
-106.002
-99.864
-88.621
-72.401
-49.424
-14.397
40.97
122.436
231.562
364.135
511.703
664.115
810.829
942.304
1046.909
1112.833
1129.116
1086.063
982.318
824.91
629.271
419.816
221.54
54.905
-66.524
-141.089
-174.612
-174.736
-153.279
-120.559
-85.847
-61.402
-51.818
-55.95
-68.944
-79.138
-80.793
-74.776
-64.392
-56.841
-55.387
-58.717
-64.881
-71.262
-76.635
-81.112
-84.646
-86.994
-88.053
-88.001
-87.152
-85.755
-84.033
-82.225
-80.69
-80.008
-80.482
-82.064
-84.622
-87.908
-91.664
-95.678
-99.627
-103.12
-105.92
-107.923
-109.095
-109.491
-109.149
-108.086
-106.367
-104.074
-101.273
-98.023
-94.37
-90.355
-86.045
-81.523
-76.872
-72.159
-67.425
-62.696
-57.988
-53.307
-48.65
-44.009
-39.364
-34.702
-30.019
-25.306
-20.562
-15.781
-10.953
-6.069
-1.121
3.9
8.996
14.166
19.407
24.711
30.07
35.471
40.901
46.347
51.797
57.238
62.659
68.047
73.387
78.664
83.864
88.968
93.959
98.816
103.52
108.05
112.387
116.51
120.4
124.035
127.398
130.469
133.232
135.669
137.764
139.504
140.875
141.867
142.47
142.676
142.481
141.882
140.875
139.464
137.649
135.437
132.834
129.847
126.489
122.77
118.706
114.311
109.603
104.601
99.326
93.799
88.044
82.084
75.943
69.648
63.224
56.698
50.094
43.441
36.762
30.085
23.434
16.833
10.306
3.875
-2.439
-8.617
-14.639
-20.49
-26.153
-31.615
-36.864
-41.888
-46.679
-51.228
-55.529
-59.577
-63.369
-66.903
-70.178
-73.195
-75.957
-78.465
-80.724
-82.739
-84.516
-86.062
-87.384
-88.491
-89.391
-90.093
-90.608
-90.945
-91.116
-91.13
-90.998
-90.73
-90.337
-89.829
-89.215
-88.504
-87.707
-86.831
-85.886
-84.88
-83.819
-82.712
-81.566
-80.387
-79.181
-77.954
-76.711
-75.458
-74.198
-72.937
-71.679
-70.428
-69.188
-67.962
-66.755
-65.569
-64.406
-63.27
-62.162
-61.085
-60.041
-59.032
-58.06
-57.126
-56.233
-55.382
-54.574
-53.813
-53.097
-52.43
-51.812
-51.243
-50.726
-50.261
-49.848
-49.488
-49.182
-48.93
-48.732
-48.586
-48.493
-48.45
-48.455
-48.508
-48.604
-48.741
-48.917
-49.126
-49.368
-49.636
-49.928
-50.238
-50.563
-50.896
-51.233
-51.568
-51.893
-52.204
-52.493
-52.755
-52.983
-53.171
-53.313
-53.402
-53.431
-53.396
-53.289
-53.104
-52.836
-52.477
-52.025
-51.475
-50.823
-50.068
-49.207
-48.24
-47.167
-45.989
-44.706
-43.32
-41.833
-40.25
-38.575
-36.814
-34.973
-33.062
-31.091
-29.074
-27.025
-24.957
-22.887
-20.828
-18.799
-16.817
-14.9
-13.064
-11.325
-9.7
-8.205
-6.862
-5.688
-4.698
-3.901
-3.311
-2.936
-2.788
-2.876
-3.202
-3.761
-4.553
-5.578
-6.846
-8.365
-10.136
-12.151
-14.404
-16.881
-19.569
-22.446
-25.47
-28.594
-31.766
-34.93
-38.053
-41.1
-44.038
-46.837
-49.447
-51.805
-53.862
-55.567
-56.868
-57.772
-58.282
-58.395
-58.21
-57.881
-57.613
-57.75
-58.588
-60.22
-62.695
-66.056
-70.188
-74.946
-80.016
-84.614
-87.943
-89.586
-89.306
-87.058
-83.056
-77.437
-70.561
-63.653
-58.223
-55.338
-55.841
-60.113
-67.969
-79.422
-93.675
-107.851
-118.316
-121.487
-115.326
-100.844
-79.727
-52.035
-14.534
39.102
115.67
219.053
347.5
494.845
649.886
799.103
929.913
1028.48
1084.586
1091.402
1043.652
943.434
797.132
616.564
422.522
236.411
78.373
-36.429
-107.222
-140.376
-145.784
-137.266
-121.249
-102.162
-86.832
-76.009
-71.134
-72.023
-72.088
-69.122
-63.622
-56.985
-54.054
-56.568
-63.192
-72.254
-81.222
-88.704
-94.273
-97.46
-98.335
-97.192
-94.449
-90.749
-86.568
-82.274
-78.447
-75.697
-74.364
-74.544
-76.083
-78.679
-82.098
-86.113
-90.396
-94.549
-98.248
-101.297
-103.628
-105.256
-106.192
-106.434
-105.999
-104.942
-103.33
-101.217
-98.648
-95.654
-92.269
-88.556
-84.588
-80.442
-76.193
-71.889
-67.56
-63.224
-58.891
-54.56
-50.228
-45.881
-41.498
-37.064
-32.567
-27.999
-23.355
-18.626
-13.801
-8.867
-3.817
1.353
6.643
12.049
17.565
23.182
28.889
34.672
40.512
46.393
52.3
58.215
64.122
70.003
75.838
81.607
87.288
92.861
98.302
103.588
108.693
113.593
118.264
122.683
126.825
130.669
134.192
137.375
140.197
142.643
144.694
146.338
147.563
148.357
148.715
148.629
148.097
147.118
145.696
143.833
141.537
138.817
135.685
132.154
128.239
123.958
119.331
114.378
109.123
103.588
97.8
91.786
85.574
79.192
72.67
66.036
59.321
52.554
45.765
38.981
32.231
25.541
18.939
12.447
6.091
-0.108
-6.131
-11.957
-17.572
-22.96
-28.108
-33.006
-37.644
-42.016
-46.116
-49.941
-53.488
-56.758
-59.752
-62.473
-64.925
-67.113
-69.045
-70.729
-72.172
-73.386
-74.38
-75.166
-75.756
-76.161
-76.395
-76.47
-76.397
-76.192
-75.864
-75.428
-74.895
-74.276
-73.583
-72.825
-72.012
-71.154
-70.258
-69.332
-68.383
-67.416
-66.437
-65.451
-64.462
-63.473
-62.487
-61.507
-60.535
-59.572
-58.619
-57.678
-56.75
-55.834
-54.931
-54.041
-53.165
-52.303
-51.455
-50.62
-49.799
-48.992
-48.199
-47.421
-46.658
-45.91
-45.178
-44.465
-43.771
-43.098
-42.448
-41.823
-41.226
-40.659
-40.124
-39.625
-39.164
-38.742
-38.364
-38.032
-37.747
-37.512
-37.328
-37.196
-37.116
-37.09
-37.116
-37.194
-37.322
-37.498
-37.72
-37.986
-38.291
-38.633
-39.007
-39.409
-39.832
-40.273
-40.723
-41.175
-41.623
-42.059
-42.474
-42.862
-43.213
-43.52
-43.774
-43.967
-44.09
-44.135
-44.094
-43.959
-43.722
-43.378
-42.92
-42.345
-41.648
-40.828
-39.881
-38.808
-37.61
-36.286
-34.84
-33.274
-31.593
-29.802
-27.909
-25.922
-23.852
-21.712
-19.518
-17.286
-15.032
-12.775
-10.534
-8.33
-6.184
-4.116
-2.145
-0.292
1.423
2.979
4.355
5.534
6.501
7.243
7.749
8.009
8.01
7.747
7.223
6.442
5.406
4.115
2.56
0.738
-1.344
-3.68
-6.261
-9.074
-12.109
-15.343
-18.728
-22.216
-25.748
-29.278
-32.776
-36.214
-39.564
-42.781
-45.797
-48.552
-51.002
-53.105
-54.834
-56.151
-57.001
-57.422
-57.563
-57.653
-58.009
-58.889
-60.441
-62.821
-66.172
-70.48
-75.56
-80.916
-85.741
-89.31
-91.056
-90.483
-87.292
-81.397
-73.027
-63.05
-52.812
-43.689
-37.155
-34.586
-36.965
-45.14
-58.698
-75.513
-93.212
-108.809
-120.475
-128.682
-132.466
-129.833
-116.472
-84.152
-27.116
57.775
170.05
303.158
450.74
604.714
755.374
893.282
1004.422
1076.268
1098.538
1064.063
975.305
838.332
665.115
474.071
283.122
112.546
-20.762
-109.518
-153.942
-162.213
-147.646
-122.345
-94.979
-73.208
-61.193
-58.85
-65.015
-73.906
-78.645
-77.589
-71.456
-63.729
-59.357
-59.36
-62.561
-67.703
-73.145
-78.277
-83.161
-87.449
-90.688
-92.785
-93.914
-94.179
-93.685
-92.611
-91.184
-89.857
-89.256
-89.645
-90.972
-93.152
-95.969
-99.208
-102.689
-106.086
-109.019
-111.283
-112.785
-113.512
-113.532
-112.883
-111.579
-109.688
-107.286
-104.439
-101.208
-97.632
-93.749
-89.618
-85.308
-80.89
-76.424
-71.941
-67.462
-62.995
-58.542
-54.098
-49.655
-45.197
-40.713
-36.195
-31.637
-27.036
-22.385
-17.676
-12.9
-8.047
-3.112
1.909
7.014
12.2
17.458
22.781
28.156
33.569
39.008
44.46
49.911
55.348
60.756
66.12
71.423
76.647
81.773
86.781
91.649
96.356
100.881
105.2
109.294
113.14
116.718
120.009
122.992
125.651
127.969
129.928
131.517
132.721
133.53
133.936
133.931
133.51
132.671
131.413
129.739
127.653
125.162
122.272
118.996
115.346
111.336
106.983
102.304
97.319
92.049
86.517
80.747
74.765
68.595
62.265
55.802
49.232
42.583
35.881
29.154
22.427
15.725
9.074
2.497
-3.983
-10.345
-16.568
-22.634
-28.524
-34.224
-39.719
-44.997
-50.047
-54.859
-59.426
-63.741
-67.801
-71.602
-75.143
-78.423
-81.444
-84.208
-86.719
-88.981
-91.001
-92.785
-94.341
-95.676
-96.8
-97.721
-98.449
-98.995
-99.366
-99.575
-99.631
-99.543
-99.323
-98.98
-98.523
-97.961
-97.305
-96.562
-95.74
-94.849
-93.895
-92.886
-91.829
-90.731
-89.597
-88.433
-87.246
-86.041
-84.822
-83.594
-82.362
-81.13
-79.901
-78.68
-77.47
-76.275
-75.097
-73.94
-72.807
-71.7
-70.622
-69.576
-68.565
-67.591
-66.657
-65.767
-64.921
-64.124
-63.378
-62.685
-62.047
-61.465
-60.943
-60.482
-60.082
-59.744
-59.471
-59.261
-59.114
-59.032
-59.011
-59.052
-59.151
-59.308
-59.519
-59.781
-60.09
-60.444
-60.838
-61.267
-61.728
-62.215
-62.723
-63.247
-63.78
-64.317
-64.851
-65.373
-65.878
-66.358
-66.804
-67.209
-67.567
-67.869
-68.108
-68.278
-68.37
-68.379
-68.299
-68.123
-67.846
-67.464
-66.973
-66.37
-65.654
-64.822
-63.875
-62.813
-61.637
-60.351
-58.957
-57.458
-55.86
-54.167
-52.386
-50.524
-48.591
-46.595
-44.549
-42.466
-40.362
-38.254
-36.158
-34.092
-32.074
-30.123
-28.257
-26.491
-24.839
-23.318
-21.943
-20.73
-19.697
-18.858
-18.225
-17.811
-17.626
-17.679
-17.976
-18.513
-19.288
-20.299
-21.551
-23.056
-24.827
-26.867
-29.175
-31.748
-34.574
-37.639
-40.913
-44.345
-47.882
-51.468
-55.055
-58.609
-62.088
-65.439
-68.596
-71.478
-74.014
-76.148
-77.834
-79.034
-79.735
-79.95
-79.737
-79.194
-78.43
-77.566
-76.717
-75.997
-75.528
-75.416
-75.797
-76.868
-78.781
-81.59
-85.241
-89.51
-94.08
-98.641
-102.74
-105.744
-107.115
-106.529
-104.007
-100.055
-95.458
-91.085
-87.916
-87.117
-89.084
-92.928
-97.034
-98.976
-97.82
-95.004
-91.466
-86.535
-74.338
-44.43
12.288
101.412
219.669
357.136
503.939
649.653
787.767
912.27
1011.656
1073.431
1083.924
1033.274
922.621
761.336
567.105
363.736
173.339
15.624
-96.026
-160.058
-180.797
-169.296
-141.535
-108.69
-81.595
-67.643
-65.21
-71.315
-79.233
-80.611
-74.311
-62.538
-49.742
-41.824
-40.245
-43.513
-49.566
-56.111
-62.211
-67.713
-72.297
-75.556
-77.259
-77.543
-76.713
-75.029
-72.782
-70.316
-68.066
-66.633
-66.324
-67.095
-68.831
-71.307
-74.262
-77.47
-80.606
-83.292
-85.317
-86.597
-87.106
-86.896
-86.01
-84.465
-82.331
-79.691
-76.601
-73.117
-69.277
-65.118
-60.702
-56.103
-51.395
-46.636
-41.862
-37.092
-32.341
-27.615
-22.91
-18.218
-13.522
-8.809
-4.074
0.688
5.48
10.311
15.188
20.121
25.118
30.186
35.326
40.539
45.82
51.162
56.557
61.993
67.456
72.934
78.414
83.885
89.333
94.746
100.107
105.402
110.614
115.724
120.715
125.565
130.254
134.761
139.066
143.148
146.986
150.56
153.85
156.839
159.507
161.837
163.815
165.425
166.656
167.495
167.934
167.964
167.582
166.782
165.565
163.93
161.881
159.422
156.562
153.308
149.671
145.666
141.306
136.607
131.589
126.27
120.672
114.818
108.733
102.44
95.967
89.339
82.584
75.73
68.803
61.831
54.84
47.858
40.909
34.02
27.213
20.512
13.938
7.512
1.253
-4.821
-10.696
-16.356
-21.789
-26.983
-31.93
-36.622
-41.053
-45.217
-49.113
-52.738
-56.092
-59.177
-61.996
-64.552
-66.85
-68.898
-70.702
-72.27
-73.613
-74.739
-75.659
-76.383
-76.923
-77.29
-77.496
-77.551
-77.468
-77.257
-76.93
-76.497
-75.969
-75.355
-74.665
-73.908
-73.092
-72.226
-71.316
-70.37
-69.394
-68.394
-67.374
-66.341
-65.299
-64.251
-63.201
-62.154
-61.11
-60.074
-59.047
-58.031
-57.027
-56.038
-55.064
-54.106
-53.167
-52.247
-51.347
-50.468
-49.612
-48.78
-47.973
-47.194
-46.443
-45.722
-45.034
-44.379
-43.761
-43.182
-42.643
-42.147
-41.696
-41.292
-40.936
-40.631
-40.378
-40.177
-40.029
-39.935
-39.894
-39.907
-39.973
-40.09
-40.258
-40.475
-40.738
-41.044
-41.391
-41.774
-42.189
-42.63
-43.094
-43.572
-44.06
-44.55
-45.036
-45.51
-45.964
-46.391
-46.783
-47.131
-47.427
-47.663
-47.831
-47.923
-47.93
-47.847
-47.667
-47.383
-46.991
-46.486
-45.865
-45.125
-44.264
-43.281
-42.174
-40.946
-39.597
-38.131
-36.552
-34.866
-33.081
-31.206
-29.254
-27.237
-25.171
-23.071
-20.952
-18.831
-16.727
-14.658
-12.642
-10.698
-8.845
-7.103
-5.492
-4.033
-2.746
-1.647
-0.749
-0.065
0.393
0.615
0.596
0.33
-0.185
-0.954
-1.986
-3.288
-4.859
-6.695
-8.787
-11.121
-13.679
-16.435
-19.35
-22.385
-25.501
-28.656
-31.811
-34.932
-37.979
-40.91
-43.689
-46.271
-48.623
-50.706
-52.482
-53.935
-55.08
-55.951
-56.59
-57.085
-57.569
-58.235
-59.349
-61.152
-63.784
-67.322
-71.834
-77.263
-83.363
-89.698
-95.553
-100.137
-102.839
-103.261
-101.088
-96.257
-89.064
-80.141
-70.649
-62.054
-55.749
-52.852
-54.175
-60.237
-70.431
-82.912
-95.215
-104.112
-107.973
-107.314
-101.902
-90.773
-68.947
-28.096
37.66
131.835
250.749
385.534
528.602
670.894
805.76
926.17
1019.263
1071.659
1070.275
1006.938
884.315
713.807
514.52
310.26
123.106
-28.8
-134.549
-194.237
-213.546
-202.858
-176.057
-142.59
-112.066
-92.615
-84.39
-85.769
-90.981
-91.289
-84.429
-71.871
-57.522
-47.309
-43.309
-44.513
-49.115
-54.949
-61.165
-67.61
-74.049
-80.165
-85.326
-89.263
-92.099
-93.837
-94.601
-94.694
-94.35
-94.025
-94.3
-95.356
-97.151
-99.584
-102.396
-105.336
-108.237
-110.841
-112.852
-114.135
-114.635
-114.362
-113.414
-111.858
-109.734
-107.104
-104.037
-100.588
-96.82
-92.793
-88.552
-84.158
-79.661
-75.096
-70.495
-65.871
-61.231
-56.573
-51.885
-47.152
-42.366
-37.522
-32.619
-27.657
-22.63
-17.531
-12.353
-7.091
-1.74
3.701
9.234
14.857
20.563
26.343
32.183
38.068
43.987
49.925
55.869
61.805
67.718
73.592
79.41
85.154
90.806
96.345
101.749
106.996
112.065
116.932
121.577
125.977
130.111
133.959
137.5
140.715
143.586
146.095
148.226
149.965
151.298
152.215
152.705
152.762
152.38
151.556
150.291
148.586
146.445
143.875
140.884
137.484
133.688
129.51
124.967
120.079
114.865
109.348
103.551
97.5
91.22
84.738
78.081
71.277
64.355
57.342
50.266
43.157
36.041
28.947
21.9
14.926
8.052
1.3
-5.307
-11.747
-18.001
-24.051
-29.879
-35.473
-40.818
-45.904
-50.721
-55.262
-59.521
-63.494
-67.178
-70.574
-73.681
-76.501
-79.039
-81.3
-83.288
-85.01
-86.475
-87.69
-88.666
-89.411
-89.937
-90.254
-90.373
-90.308
-90.069
-89.67
-89.122
-88.438
-87.632
-86.714
-85.697
-84.594
-83.414
-82.17
-80.872
-79.53
-78.154
-76.752
-75.334
-73.907
-72.478
-71.054
-69.641
-68.246
-66.873
-65.526
-64.212
-62.934
-61.696
-60.502
-59.355
-58.259
-57.216
-56.229
-55.301
-54.433
-53.626
-52.883
-52.204
-51.59
-51.041
-50.559
-50.143
-49.792
-49.507
-49.287
-49.13
-49.036
-49.003
-49.028
-49.111
-49.249
-49.44
-49.681
-49.969
-50.301
-50.675
-51.085
-51.527
-51.998
-52.491
-53.002
-53.523
-54.05
-54.575
-55.09
-55.59
-56.067
-56.513
-56.922
-57.286
-57.596
-57.846
-58.029
-58.136
-58.162
-58.098
-57.939
-57.679
-57.312
-56.835
-56.242
-55.53
-54.696
-53.74
-52.659
-51.454
-50.124
-48.671
-47.097
-45.406
-43.604
-41.698
-39.694
-37.604
-35.44
-33.216
-30.947
-28.649
-26.336
-24.025
-21.736
-19.486
-17.293
-15.175
-13.149
-11.233
-9.448
-7.814
-6.348
-5.064
-3.976
-3.092
-2.428
-1.996
-1.8
-1.844
-2.131
-2.664
-3.456
-4.517
-5.847
-7.445
-9.301
-11.403
-13.736
-16.28
-18.999
-21.851
-24.796
-27.792
-30.804
-33.803
-36.746
-39.594
-42.31
-44.846
-47.164
-49.225
-50.977
-52.405
-53.546
-54.436
-55.115
-55.678
-56.23
-56.976
-58.236
-60.19
-62.854
-66.224
-70.295
-75.005
-80.245
-85.552
-90.057
-93.136
-94.506
-94.031
-91.744
-87.652
-81.765
-74.776
-68.181
-63.212
-60.818
-61.652
-65.735
-73.339
-84.2
-95.997
-105.558
-109.771
-107.002
-99.165
-88.068
-72.153
-46.48
-1.675
70.314
169.806
291.863
426.438
560.781
687.532
799.92
888.806
947.493
964.991
931.612
847.12
713.878
543.386
355.424
169.034
5.562
-118.482
-196.984
-231.125
-228.984
-202.275
-162.145
-117.29
-76.318
-45.758
-27.461
-21.447
-22.949
-25.222
-25.981
-24.732
-23.727
-27.252
-35.712
-47.405
-60.045
-70.168
-76.374
-79.042
-78.52
-75.614
-71.2
-65.841
-60.365
-55.837
-52.814
-51.433
-51.698
-53.35
-56.089
-59.682
-63.756
-67.8
-71.462
-74.55
-76.967
-78.746
-79.911
-80.434
-80.322
-79.63
-78.407
-76.701
-74.548
-71.957
-68.952
-65.586
-61.927
-58.054
-54.047
-49.955
-45.812
-41.643
-37.464
-33.288
-29.122
-24.958
-20.782
-16.582
-12.351
-8.085
-3.783
0.564
4.969
9.443
13.996
18.632
23.35
28.151
33.031
37.986
43.008
48.085
53.204
58.353
63.521
68.698
73.87
79.024
84.145
89.219
94.231
99.164
104
108.72
113.305
117.735
121.991
126.052
129.899
133.512
136.871
139.958
142.755
145.244
147.408
149.233
150.704
151.809
152.536
152.878
152.825
152.373
151.518
150.258
148.594
146.529
144.066
141.213
137.978
134.371
130.404
126.091
121.447
116.489
111.236
105.709
99.929
93.92
87.704
81.307
74.755
68.074
61.289
54.429
47.52
40.588
33.66
26.762
19.92
13.159
6.501
-0.029
-6.41
-12.623
-18.647
-24.467
-30.065
-35.428
-40.542
-45.397
-49.983
-54.292
-58.318
-62.055
-65.501
-68.652
-71.51
-74.075
-76.349
-78.337
-80.042
-81.472
-82.633
-83.533
-84.183
-84.591
-84.769
-84.729
-84.482
-84.042
-83.421
-82.634
-81.693
-80.612
-79.405
-78.086
-76.668
-75.164
-73.587
-71.949
-70.264
-68.542
-66.796
-65.036
-63.273
-61.517
-59.778
-58.064
-56.384
-54.746
-53.158
-51.626
-50.156
-48.754
-47.426
-46.176
-45.008
-43.925
-42.931
-42.028
-41.217
-40.499
-39.876
-39.346
-38.911
-38.569
-38.319
-38.16
-38.09
-38.107
-38.208
-38.39
-38.649
-38.981
-39.382
-39.848
-40.373
-40.951
-41.578
-42.247
-42.953
-43.69
-44.449
-45.226
-46.012
-46.801
-47.586
-48.357
-49.108
-49.831
-50.519
-51.163
-51.758
-52.295
-52.769
-53.172
-53.499
-53.742
-53.897
-53.957
-53.918
-53.774
-53.522
-53.159
-52.683
-52.093
-51.387
-50.566
-49.632
-48.587
-47.432
-46.171
-44.808
-43.348
-41.798
-40.165
-38.458
-36.687
-34.863
-33.002
-31.119
-29.228
-27.344
-25.484
-23.665
-21.905
-20.222
-18.631
-17.147
-15.785
-14.561
-13.492
-12.596
-11.884
-11.364
-11.048
-10.942
-11.058
-11.407
-11.985
-12.786
-13.808
-15.048
-16.519
-18.229
-20.175
-22.349
-24.743
-27.342
-30.133
-33.098
-36.187
-39.355
-42.547
-45.707
-48.808
-51.82
-54.71
-57.451
-59.985
-62.246
-64.19
-65.769
-66.945
-67.734
-68.143
-68.174
-67.929
-67.545
-67.236
-67.341
-68.055
-69.411
-71.422
-74.07
-77.346
-81.23
-85.373
-89.031
-91.637
-92.902
-92.764
-91.35
-88.573
-84.274
-78.815
-73.277
-68.866
-66.471
-66.562
-69.219
-74.64
-83.195
-94.157
-104.917
-112.247
-112.926
-105.585
-91.664
-72.257
-46.813
-11.753
39.237
111.771
208.27
325.994
458.581
596.658
729.535
847.301
937.954
989.914
993.607
941.551
834.426
680.581
495.012
300.621
120.264
-27.485
-130.317
-189.028
-211.637
-207.588
-188.381
-160.139
-127.068
-96.245
-72.048
-58.571
-56.831
-61.963
-68.742
-72.055
-70.055
-64.222
-56.75
-51.453
-49.702
-51.651
-57.597
-65.014
-72.369
-78.999
-83.502
-86.446
-88.573
-89.746
-90.323
-90.437
-90.044
-89.636
-89.79
-90.683
-92.337
-94.672
-97.427
-100.363
-103.329
-106.076
-108.317
-109.92
-110.821
-111.015
-110.584
-109.592
-108.073
-106.083
-103.686
-100.927
-97.859
-94.533
-90.991
-87.288
-83.471
-79.571
-75.617
-71.622
-67.591
-63.521
-59.402
-55.215
-50.95
-46.602
-42.166
-37.642
-33.024
-28.305
-23.477
-18.535
-13.476
-8.296
-2.995
2.425
7.957
13.592
19.316
25.113
30.969
36.869
42.799
48.741
54.68
60.597
66.473
72.29
78.026
83.659
89.165
94.521
99.702
104.686
109.448
113.965
118.215
122.174
125.823
129.142
132.109
134.709
136.923
138.738
140.14
141.117
141.661
141.764
141.423
140.633
139.397
137.717
135.597
133.047
130.077
126.698
122.926
118.778
114.273
109.431
104.274
98.828
93.118
87.171
81.015
74.679
68.193
61.586
54.888
48.13
41.34
34.548
27.782
21.071
14.44
7.917
1.525
-4.711
-10.772
-16.635
-22.284
-27.702
-32.875
-37.791
-42.44
-46.813
-50.906
-54.713
-58.233
-61.467
-64.415
-67.081
-69.471
-71.592
-73.451
-75.057
-76.422
-77.557
-78.475
-79.187
-79.707
-80.05
-80.228
-80.257
-80.149
-79.92
-79.583
-79.15
-78.637
-78.054
-77.415
-76.731
-76.011
-75.267
-74.508
-73.741
-72.973
-72.212
-71.463
-70.729
-70.017
-69.327
-68.662
-68.024
-67.412
-66.828
-66.27
-65.738
-65.228
-64.741
-64.273
-63.823
-63.389
-62.968
-62.558
-62.158
-61.764
-61.377
-60.994
-60.614
-60.236
-59.859
-59.483
-59.107
-58.732
-58.359
-57.987
-57.616
-57.249
-56.885
-56.525
-56.17
-55.822
-55.481
-55.147
-54.823
-54.51
-54.208
-53.917
-53.639
-53.373
-53.12
-52.878
-52.647
-52.423
-52.206
-51.992
-51.778
-51.562
-51.338
-51.103
-50.852
-50.58
-50.28
-49.948
-49.578
-49.162
-48.696
-48.173
-47.59
-46.94
-46.219
-45.423
-44.549
-43.593
-42.554
-41.43
-40.219
-38.923
-37.543
-36.081
-34.54
-32.925
-31.241
-29.495
-27.7
-25.867
-24.01
-22.145
-20.288
-18.458
-16.674
-14.954
-13.31
-11.758
-10.311
-8.983
-7.791
-6.753
-5.882
-5.194
-4.7
-4.411
-4.335
-4.473
-4.817
-5.358
-6.09
-7.018
-8.159
-9.528
-11.133
-12.981
-15.071
-17.4
-19.95
-22.691
-25.577
-28.561
-31.617
-34.719
-37.85
-40.993
-44.101
-47.111
-49.95
-52.515
-54.699
-56.47
-57.832
-58.873
-59.774
-60.667
-61.665
-62.962
-64.698
-66.845
-69.229
-71.416
-72.878
-73.447
-73.141
-71.923
-69.824
-66.919
-63.486
-60.28
-58.068
-57.014
-56.97
-57.724
-59.178
-61.659
-65.322
-69.912
-75.304
-81.619
-89.287
-98.164
-106.459
-111.647
-111.29
-104.948
-95.229
-83.502
-67.826
-41.644
6.337
83.583
189.901
318.073
454.824
589.074
715.383
830.161
928.583
1002.062
1036.888
1020.348
948.098
822.817
656.782
469.983
281.982
112.761
-21.586
-114.371
-166.081
-182.471
-173.496
-149.018
-115.356
-81.72
-57.656
-47.323
-54.023
-71.625
-86.58
-91.619
-82.194
-61.859
-42.403
-30.17
-28.507
-36.798
-48.706
-60.593
-70.46
-76.866
-81.015
-83.593
-84.514
-84.153
-82.591
-80.048
-77.372
-75.412
-74.594
-75.092
-76.852
-79.601
-83.074
-87.013
-90.998
-94.6
-97.574
-99.793
-101.237
-101.971
-102.035
-101.454
-100.295
-98.634
-96.528
-94.023
-91.149
-87.934
-84.434
-80.721
-76.872
-72.944
-68.974
-64.979
-60.969
-56.945
-52.905
-48.834
-44.712
-40.528
-36.271
-31.938
-27.523
-23.021
-18.418
-13.706
-8.872
-3.909
1.187
6.416
11.775
17.256
22.85
28.543
34.321
40.168
46.07
52.013
57.981
63.959
69.927
75.866
81.758
87.579
93.306
98.915
104.381
109.679
114.782
119.667
124.307
128.679
132.759
136.525
139.955
143.028
145.727
148.033
149.932
151.41
152.456
153.061
153.218
152.923
152.174
150.972
149.321
147.225
144.692
141.734
138.361
134.588
130.433
125.912
121.048
115.861
110.376
104.618
98.615
92.395
85.985
79.416
72.716
65.917
59.048
52.137
45.214
38.307
31.445
24.652
17.954
11.376
4.939
-1.336
-7.429
-13.323
-19.002
-24.454
-29.665
-34.625
-39.327
-43.764
-47.93
-51.822
-55.439
-58.781
-61.85
-64.648
-67.18
-69.452
-71.47
-73.244
-74.782
-76.092
-77.187
-78.077
-78.772
-79.285
-79.628
-79.811
-79.848
-79.75
-79.528
-79.194
-78.759
-78.232
-77.624
-76.944
-76.201
-75.405
-74.561
-73.679
-72.765
-71.825
-70.865
-69.891
-68.907
-67.918
-66.928
-65.941
-64.959
-63.986
-63.023
-62.073
-61.137
-60.218
-59.318
-58.436
-57.576
-56.739
-55.925
-55.138
-54.379
-53.648
-52.948
-52.281
-51.648
-51.052
-50.494
-49.977
-49.501
-49.07
-48.684
-48.345
-48.055
-47.814
-47.623
-47.482
-47.392
-47.352
-47.361
-47.419
-47.524
-47.676
-47.872
-48.11
-48.388
-48.702
-49.048
-49.421
-49.818
-50.231
-50.655
-51.083
-51.508
-51.923
-52.32
-52.692
-53.031
-53.327
-53.574
-53.761
-53.882
-53.928
-53.891
-53.764
-53.54
-53.214
-52.781
-52.235
-51.574
-50.794
-49.894
-48.872
-47.728
-46.462
-45.076
-43.574
-41.96
-40.239
-38.418
-36.508
-34.519
-32.464
-30.357
-28.217
-26.061
-23.908
-21.777
-19.687
-17.655
-15.698
-13.835
-12.083
-10.459
-8.981
-7.666
-6.531
-5.593
-4.868
-4.369
-4.101
-4.063
-4.256
-4.681
-5.346
-6.264
-7.448
-8.902
-10.634
-12.646
-14.936
-17.493
-20.29
-23.277
-26.394
-29.593
-32.837
-36.106
-39.374
-42.593
-45.681
-48.552
-51.134
-53.367
-55.224
-56.65
-57.561
-57.982
-58.055
-57.954
-57.904
-58.016
-58.219
-58.556
-59.209
-60.174
-61.386
-62.803
-64.204
-65.651
-67.516
-69.796
-72.26
-74.845
-77.359
-79.567
-81.527
-82.886
-83.155
-82.585
-81.576
-80.59
-80.412
-81.583
-84.476
-89.041
-93.708
-95.974
-93.242
-84.671
-72.263
-57.902
-41.302
-17.364
23.428
90.143
187.978
315.028
463.756
622.327
776.836
914.342
1020.4
1083.101
1094.081
1047.539
945.947
796.974
613.885
417.729
229.712
70.715
-43.555
-110.591
-135.165
-129.544
-110.413
-88.003
-70.634
-63.331
-63.89
-70.682
-79.309
-82.967
-80.455
-72.615
-62.555
-55.799
-53.938
-55.945
-60.337
-64.988
-69.229
-73.373
-77.11
-79.945
-81.648
-82.219
-81.922
-81.042
-79.698
-78
-76.376
-75.47
-75.645
-76.969
-79.326
-82.452
-86.13
-90.171
-94.236
-97.929
-100.992
-103.291
-104.795
-105.565
-105.634
-105.021
-103.786
-102.004
-99.737
-97.044
-93.962
-90.527
-86.804
-82.87
-78.809
-74.686
-70.541
-66.398
-62.269
-58.156
-54.055
-49.951
-45.823
-41.654
-37.435
-33.159
-28.821
-24.411
-19.917
-15.327
-10.629
-5.812
-0.871
4.194
9.383
14.69
20.106
25.618
31.213
36.875
42.592
48.35
54.136
59.933
65.725
71.494
77.222
82.888
88.469
93.941
99.281
104.463
109.463
114.256
118.815
123.118
127.14
130.857
134.248
137.291
139.967
142.256
144.143
145.613
146.654
147.255
147.409
147.11
146.356
145.147
143.486
141.378
138.829
135.851
132.455
128.655
124.469
119.913
115.009
109.778
104.246
98.438
92.381
86.104
79.637
73.009
66.251
59.394
52.469
45.506
38.537
31.59
24.694
17.878
11.168
4.59
-1.834
-8.08
-14.13
-19.965
-25.569
-30.928
-36.03
-40.865
-45.425
-49.705
-53.7
-57.407
-60.826
-63.959
-66.808
-69.378
-71.674
-73.705
-75.477
-77.003
-78.291
-79.353
-80.203
-80.853
-81.316
-81.606
-81.738
-81.724
-81.58
-81.319
-80.954
-80.499
-79.965
-79.364
-78.708
-78.007
-77.269
-76.503
-75.718
-74.92
-74.115
-73.309
-72.506
-71.711
-70.926
-70.155
-69.401
-68.663
-67.945
-67.246
-66.568
-65.909
-65.271
-64.651
-64.05
-63.466
-62.898
-62.345
-61.807
-61.281
-60.767
-60.264
-59.772
-59.292
-58.821
-58.362
-57.915
-57.481
-57.061
-56.657
-56.271
-55.905
-55.56
-55.24
-54.947
-54.683
-54.45
-54.249
-54.082
-53.95
-53.855
-53.796
-53.774
-53.789
-53.842
-53.93
-54.055
-54.214
-54.406
-54.628
-54.878
-55.152
-55.448
-55.759
-56.082
-56.411
-56.74
-57.064
-57.376
-57.669
-57.936
-58.17
-58.362
-58.506
-58.593
-58.614
-58.563
-58.433
-58.217
-57.91
-57.508
-57.004
-56.396
-55.681
-54.858
-53.924
-52.88
-51.725
-50.462
-49.093
-47.624
-46.059
-44.405
-42.671
-40.868
-39.009
-37.108
-35.179
-33.24
-31.308
-29.403
-27.544
-25.749
-24.034
-22.417
-20.912
-19.539
-18.314
-17.252
-16.367
-15.674
-15.186
-14.913
-14.865
-15.035
-15.419
-16.013
-16.814
-17.832
-19.078
-20.55
-22.249
-24.178
-26.327
-28.691
-31.246
-33.935
-36.708
-39.518
-42.328
-45.138
-47.932
-50.668
-53.301
-55.757
-57.964
-59.891
-61.474
-62.612
-63.302
-63.614
-63.707
-63.869
-64.314
-65.154
-66.571
-68.709
-71.503
-74.729
-77.962
-80.699
-82.69
-83.792
-83.728
-82.222
-79.302
-75.45
-71.337
-67.397
-63.837
-60.701
-58.808
-60.024
-64.806
-72.252
-80.283
-85.424
-87.275
-87.788
-88.697
-92.44
-98.357
-103.194
-104.048
-96.286
-74.405
-33.339
32.647
127.347
249.167
393.184
550.11
706.526
850.292
968.7
1050.53
1089.1
1078.829
1017.726
908.1
755.102
570.605
373.805
186.331
29.33
-82.377
-148.299
-176.054
-176.723
-164.25
-144.784
-122.165
-103.151
-88.784
-80.737
-78.9
-76.14
-69.847
-60.428
-49.371
-42.159
-41.095
-45.024
-52.46
-61.079
-69.485
-77.325
-84.113
-89.289
-92.593
-94.173
-94.365
-93.471
-91.844
-89.884
-88.086
-87.131
-87.365
-88.745
-91.144
-94.305
-97.956
-101.871
-105.711
-109.085
-111.776
-113.7
-114.843
-115.277
-115.044
-114.161
-112.699
-110.734
-108.326
-105.532
-102.387
-98.925
-95.202
-91.288
-87.25
-83.146
-79.005
-74.843
-70.671
-66.488
-62.29
-58.068
-53.804
-49.484
-45.102
-40.649
-36.122
-31.512
-26.808
-21.999
-17.075
-12.03
-6.859
-1.565
3.851
9.379
15.012
20.735
26.537
32.401
38.314
44.262
50.231
56.203
62.16
68.085
73.957
79.754
85.454
91.032
96.465
101.727
106.793
111.639
116.24
120.571
124.609
128.331
131.716
134.742
137.391
139.644
141.486
142.902
143.882
144.415
144.494
144.115
143.275
141.975
140.219
138.01
135.358
132.273
128.766
124.853
120.551
115.878
110.854
105.503
99.849
93.918
87.737
81.335
74.74
67.985
61.098
54.112
47.057
39.964
32.863
25.786
18.76
11.815
4.978
-1.726
-8.271
-14.635
-20.796
-26.735
-32.435
-37.879
-43.054
-47.948
-52.552
-56.857
-60.857
-64.548
-67.926
-70.991
-73.743
-76.185
-78.319
-80.152
-81.688
-82.936
-83.904
-84.601
-85.039
-85.228
-85.179
-84.906
-84.422
-83.738
-82.868
-81.825
-80.623
-79.275
-77.793
-76.191
-74.479
-72.671
-70.776
-68.807
-66.773
-64.684
-62.549
-60.377
-58.177
-55.957
-53.723
-51.484
-49.247
-47.017
-44.802
-42.608
-40.44
-38.304
-36.205
-34.147
-32.137
-30.178
-28.275
-26.433
-24.655
-22.946
-21.31
-19.752
-18.274
-16.883
-15.581
-14.373
-13.262
-12.252
-11.348
-10.553
-9.87
-9.302
-8.853
-8.524
-8.319
-8.238
-8.283
-8.453
-8.748
-9.168
-9.709
-10.369
-11.146
-12.035
-13.032
-14.131
-15.328
-16.614
-17.984
-19.429
-20.942
-22.512
-24.129
-25.784
-27.464
-29.159
-30.856
-32.542
-34.207
-35.835
-37.415
-38.934
-40.377
-41.733
-42.989
-44.132
-45.151
-46.035
-46.774
-47.36
-47.784
-48.04
-48.123
-48.027
-47.749
-47.289
-46.644
-45.817
-44.808
-43.623
-42.267
-40.746
-39.068
-37.243
-35.284
-33.206
-31.026
-28.763
-26.44
-24.079
-21.704
-19.342
-17.016
-14.747
-12.557
-10.465
-8.493
-6.664
-4.999
-3.524
-2.258
-1.221
-0.428
0.109
0.382
0.395
0.15
-0.35
-1.109
-2.144
-3.471
-5.102
-7.047
-9.31
-11.886
-14.754
-17.888
-21.24
-24.771
-28.454
-32.262
-36.176
-40.163
-44.171
-48.13
-51.96
-55.565
-58.831
-61.702
-64.18
-66.348
-68.387
-70.472
-72.729
-75.244
-78.099
-81.208
-84.325
-87.093
-88.994
-89.707
-89.256
-87.839
-85.734
-83.387
-81.368
-80.37
-81.166
-83.987
-88.423
-93.765
-99.791
-106.959
-115.426
-124.456
-131.108
-131.585
-124.778
-112.701
-101.013
-96.339
-100.601
-111.497
-123.658
-129.655
-124.713
-105.284
-66.464
-5.352
80.255
190.469
319.862
462.545
610.909
755.694
888.033
994.993
1064.693
1086.718
1053.196
965.395
828.308
653.86
461.17
269.206
98.877
-33.721
-122.578
-168.931
-181.038
-170.34
-146.905
-118.143
-91.42
-72.5
-63.003
-63.075
-68.059
-71.106
-70.46
-66.546
-62.078
-61.592
-65.9
-73.547
-82.891
-91.522
-97.931
-101.758
-102.943
-101.822
-98.974
-94.953
-90.196
-85.163
-80.522
-76.937
-74.789
-74.211
-75.061
-77.045
-79.943
-83.511
-87.4
-91.208
-94.601
-97.381
-99.483
-100.924
-101.715
-101.856
-101.362
-100.285
-98.695
-96.645
-94.181
-91.331
-88.129
-84.636
-80.925
-77.072
-73.152
-69.213
-65.279
-61.37
-57.49
-53.637
-49.805
-45.977
-42.126
-38.231
-34.278
-30.25
-26.139
-21.93
-17.604
-13.145
-8.539
-3.776
1.148
6.233
11.477
16.876
22.421
28.1
33.899
39.801
45.793
51.858
57.98
64.14
70.316
76.487
82.629
88.718
94.726
100.625
106.385
111.978
117.372
122.54
127.45
132.074
136.384
140.354
143.957
147.169
149.97
152.338
154.256
155.709
156.684
157.172
157.166
156.661
155.657
154.156
152.163
149.685
146.732
143.319
139.461
135.177
130.486
125.414
119.984
114.225
108.166
101.839
95.276
88.512
81.58
74.516
67.357
60.137
52.892
45.657
38.465
31.349
24.34
17.469
10.764
4.251
-2.046
-8.104
-13.903
-19.426
-24.657
-29.584
-34.195
-38.484
-42.442
-46.068
-49.358
-52.313
-54.936
-57.231
-59.205
-60.865
-62.221
-63.286
-64.071
-64.591
-64.861
-64.897
-64.715
-64.333
-63.768
-63.038
-62.16
-61.153
-60.033
-58.817
-57.522
-56.163
-54.756
-53.314
-51.851
-50.379
-48.91
-47.454
-46.022
-44.622
-43.262
-41.95
-40.693
-39.495
-38.363
-37.3
-36.31
-35.396
-34.559
-33.803
-33.126
-32.531
-32.016
-31.582
-31.228
-30.952
-30.754
-30.631
-30.584
-30.61
-30.707
-30.875
-31.112
-31.416
-31.786
-32.222
-32.721
-33.283
-33.907
-34.591
-35.335
-36.137
-36.995
-37.907
-38.872
-39.888
-40.95
-42.057
-43.204
-44.388
-45.605
-46.851
-48.121
-49.409
-50.711
-52.02
-53.331
-54.637
-55.931
-57.207
-58.456
-59.672
-60.845
-61.968
-63.032
-64.028
-64.947
-65.779
-66.517
-67.151
-67.672
-68.073
-68.344
-68.479
-68.47
-68.311
-67.996
-67.52
-66.879
-66.07
-65.091
-63.941
-62.621
-61.13
-59.472
-57.65
-55.668
-53.532
-51.249
-48.828
-46.277
-43.608
-40.831
-37.962
-35.015
-32.007
-28.958
-25.886
-22.814
-19.764
-16.757
-13.818
-10.969
-8.231
-5.626
-3.173
-0.893
1.193
3.065
4.702
6.086
7.201
8.03
8.561
8.782
8.687
8.274
7.543
6.487
5.095
3.358
1.271
-1.166
-3.947
-7.063
-10.496
-14.217
-18.18
-22.33
-26.614
-30.979
-35.384
-39.786
-44.136
-48.369
-52.409
-56.182
-59.632
-62.708
-65.37
-67.6
-69.406
-70.839
-72.007
-73.003
-73.926
-74.883
-75.967
-77.262
-78.862
-80.859
-83.359
-86.54
-90.56
-95.437
-101.075
-107.339
-113.992
-120.564
-126.513
-131.188
-133.758
-134.512
-134.043
-131.871
-128.51
-123.272
-115.263
-107.897
-103.08
-102.156
-106.723
-111.991
-114.922
-115.346
-111.198
-103.233
-87.361
-53.795
4.617
93.556
210.644
346.266
491.675
636.974
775.021
898.909
996.097
1053.585
1058.688
1003.226
889.68
728.675
537.944
340.91
159.705
11.701
-92.313
-153.89
-181.036
-182.73
-170.799
-151.198
-128.455
-110.786
-100.221
-97.842
-102.234
-105.134
-103.265
-97.085
-88.534
-83.099
-82.851
-86.533
-92.534
-98.464
-103.179
-106.529
-108.207
-108.274
-106.948
-104.518
-101.486
-98.221
-94.991
-92.261
-90.55
-90.15
-91.123
-93.317
-96.464
-100.32
-104.646
-109.104
-113.278
-116.882
-119.763
-121.868
-123.224
-123.841
-123.718
-122.893
-121.446
-119.445
-116.947
-113.997
-110.62
-106.869
-102.823
-98.565
-94.178
-89.722
-85.228
-80.719
-76.21
-71.706
-67.205
-62.695
-58.155
-53.571
-48.936
-44.246
-39.498
-34.683
-29.793
-24.819
-19.753
-14.59
-9.331
-3.981
1.456
6.968
12.545
18.173
23.834
29.513
35.195
40.866
46.512
52.116
57.663
63.134
68.511
73.777
78.91
83.889
88.693
93.301
97.691
101.841
105.732
109.345
112.659
115.658
118.325
120.644
122.602
124.187
125.388
126.196
126.605
126.61
126.208
125.399
124.184
122.567
120.554
118.152
115.372
112.225
108.724
104.885
100.724
96.261
91.515
86.508
81.263
75.805
70.16
64.354
58.414
52.368
46.243
40.068
33.869
27.674
21.509
15.399
9.37
3.445
-2.354
-8.005
-13.488
-18.786
-23.881
-28.759
-33.407
-37.814
-41.969
-45.866
-49.497
-52.858
-55.947
-58.763
-61.305
-63.577
-65.581
-67.322
-68.808
-70.046
-71.045
-71.816
-72.368
-72.716
-72.87
-72.843
-72.651
-72.305
-71.82
-71.21
-70.49
-69.672
-68.771
-67.8
-66.771
-65.697
-64.589
-63.459
-62.316
-61.171
-60.032
-58.907
-57.803
-56.728
-55.687
-54.684
-53.725
-52.813
-51.951
-51.141
-50.383
-49.679
-49.028
-48.43
-47.884
-47.387
-46.939
-46.537
-46.178
-45.86
-45.579
-45.334
-45.119
-44.932
-44.77
-44.629
-44.507
-44.399
-44.305
-44.219
-44.141
-44.069
-43.999
-43.929
-43.859
-43.785
-43.705
-43.619
-43.524
-43.419
-43.303
-43.173
-43.03
-42.871
-42.697
-42.505
-42.295
-42.066
-41.815
-41.541
-41.242
-40.916
-40.56
-40.173
-39.752
-39.295
-38.799
-38.261
-37.68
-37.051
-36.371
-35.639
-34.85
-34
-33.089
-32.112
-31.068
-29.955
-28.772
-27.519
-26.194
-24.799
-23.333
-21.799
-20.197
-18.531
-16.803
-15.018
-13.181
-11.298
-9.378
-7.429
-5.464
-3.495
-1.536
0.399
2.294
4.133
5.9
7.58
9.159
10.624
11.961
13.155
14.19
15.048
15.717
16.183
16.434
16.459
16.245
15.788
15.09
14.149
12.966
11.533
9.833
7.851
5.587
3.036
0.206
-2.893
-6.245
-9.818
-13.558
-17.408
-21.317
-25.235
-29.134
-32.977
-36.711
-40.275
-43.59
-46.582
-49.207
-51.424
-53.201
-54.537
-55.456
-56.024
-56.36
-56.588
-56.823
-57.183
-57.757
-58.641
-59.929
-61.729
-64.221
-67.542
-71.722
-76.698
-82.253
-88.066
-93.817
-99.045
-103.068
-105.293
-105.373
-103.266
-99.428
-94.614
-89.65
-85.534
-83.527
-84.182
-86.713
-89.556
-90.294
-87.808
-83.628
-79.423
-75.248
-66.443
-43.249
5.473
87.932
204.197
347.056
503.407
657.49
796.988
911.022
991.292
1032.361
1027.406
971.924
865.299
711.128
522.492
320.632
129.12
-28.71
-137.959
-197.8
-214.842
-202.524
-176.82
-147.17
-122.114
-107.418
-101.752
-103.325
-106.766
-104.598
-95.496
-81.152
-65.574
-54.464
-49.484
-49.46
-52.579
-56.674
-60.78
-64.653
-67.868
-69.918
-70.51
-69.723
-67.819
-65.026
-61.64
-58.032
-54.694
-52.29
-51.163
-51.29
-52.561
-54.729
-57.528
-60.726
-63.972
-66.872
-69.199
-70.858
-71.824
-72.161
-71.904
-71.067
-69.715
-67.92
-65.736
-63.213
-60.382
-57.273
-53.941
-50.452
-46.873
-43.256
-39.627
-35.999
-32.378
-28.756
-25.126
-21.473
-17.774
-14.014
-10.182
-6.27
-2.27
1.824
6.025
10.343
14.788
19.367
24.08
28.925
33.897
38.985
44.176
49.456
54.806
60.21
65.651
71.112
76.575
82.022
87.432
92.785
98.06
103.233
108.28
113.179
117.902
122.427
126.729
130.784
134.569
138.061
141.239
144.083
146.573
148.693
150.425
151.756
152.674
153.168
153.23
152.854
152.038
150.781
149.083
146.949
144.386
141.402
138.007
134.215
130.041
125.501
120.614
115.4
109.882
104.082
98.025
91.736
85.243
78.574
71.755
64.816
57.786
50.692
43.563
36.428
29.314
22.246
15.252
8.356
1.582
-5.049
-11.514
-17.795
-23.874
-29.734
-35.362
-40.744
-45.871
-50.732
-55.321
-59.632
-63.661
-67.406
-70.866
-74.041
-76.934
-79.548
-81.887
-83.956
-85.763
-87.315
-88.619
-89.687
-90.526
-91.148
-91.562
-91.782
-91.817
-91.679
-91.38
-90.931
-90.345
-89.632
-88.805
-87.873
-86.848
-85.741
-84.561
-83.317
-82.018
-80.674
-79.291
-77.876
-76.438
-74.981
-73.513
-72.038
-70.56
-69.086
-67.62
-66.164
-64.723
-63.3
-61.899
-60.521
-59.171
-57.851
-56.562
-55.308
-54.089
-52.909
-51.77
-50.671
-49.616
-48.605
-47.64
-46.722
-45.851
-45.029
-44.256
-43.531
-42.857
-42.232
-41.657
-41.131
-40.654
-40.225
-39.843
-39.507
-39.217
-38.969
-38.762
-38.594
-38.461
-38.361
-38.289
-38.241
-38.213
-38.199
-38.195
-38.194
-38.192
-38.182
-38.159
-38.115
-38.045
-37.943
-37.802
-37.616
-37.379
-37.085
-36.73
-36.308
-35.816
-35.248
-34.602
-33.876
-33.068
-32.176
-31.201
-30.141
-28.998
-27.774
-26.472
-25.096
-23.652
-22.147
-20.59
-18.994
-17.369
-15.73
-14.091
-12.465
-10.868
-9.316
-7.82
-6.395
-5.051
-3.804
-2.669
-1.663
-0.798
-0.089
0.452
0.812
0.981
0.95
0.719
0.289
-0.343
-1.182
-2.246
-3.549
-5.097
-6.891
-8.932
-11.211
-13.719
-16.429
-19.292
-22.26
-25.285
-28.327
-31.359
-34.349
-37.248
-39.996
-42.526
-44.773
-46.698
-48.267
-49.441
-50.224
-50.654
-50.807
-50.795
-50.724
-50.674
-50.739
-51.003
-51.514
-52.31
-53.462
-55.113
-57.427
-60.511
-64.333
-68.77
-73.726
-79.024
-84.207
-88.539
-91.243
-92.293
-92.596
-93.142
-94.148
-93.607
-88.702
-78.323
-63.941
-51.306
-46.538
-52.946
-70.614
-93.821
-115.124
-125.629
-115.352
-77.763
-7.943
92.427
215.275
351.422
488.793
618.923
736.46
834.156
906.122
944.343
940.083
889.351
791.894
653.871
488.287
311.99
143.914
0.3
-108.124
-178.039
-213.305
-219.568
-204.332
-175.609
-139.643
-105.757
-81.874
-70.034
-69.658
-74.21
-75.319
-70.681
-60.897
-49.411
-41.585
-38.826
-40.106
-44.299
-49.545
-54.816
-60.132
-65.142
-69.294
-72.461
-74.64
-75.742
-75.9
-75.389
-74.38
-73.305
-72.776
-73.006
-73.993
-75.681
-77.825
-80.192
-82.646
-84.947
-86.799
-88.064
-88.678
-88.64
-88.047
-86.962
-85.413
-83.458
-81.158
-78.558
-75.716
-72.676
-69.476
-66.162
-62.776
-59.342
-55.885
-52.412
-48.923
-45.411
-41.857
-38.243
-34.553
-30.778
-26.912
-22.948
-18.878
-14.689
-10.373
-5.922
-1.328
3.413
8.303
13.343
18.527
23.847
29.29
34.84
40.486
46.212
52.003
57.844
63.717
69.602
75.481
81.332
87.133
92.859
98.485
103.984
109.33
114.495
119.454
124.179
128.646
132.827
136.699
140.239
143.423
146.232
148.646
150.647
152.22
153.351
154.03
154.249
154
153.281
152.092
150.434
148.313
145.735
142.711
139.252
135.374
131.094
126.429
121.401
116.033
110.349
104.376
98.141
91.674
85.003
78.159
71.174
64.079
56.904
49.681
42.441
35.212
28.025
20.907
13.886
6.988
0.236
-6.347
-12.74
-18.924
-24.882
-30.599
-36.062
-41.259
-46.182
-50.823
-55.178
-59.242
-63.015
-66.496
-69.688
-72.593
-75.215
-77.562
-79.64
-81.458
-83.025
-84.351
-85.448
-86.326
-86.998
-87.476
-87.773
-87.9
-87.871
-87.698
-87.393
-86.968
-86.435
-85.805
-85.089
-84.296
-83.437
-82.521
-81.555
-80.549
-79.508
-78.44
-77.351
-76.246
-75.13
-74.007
-72.881
-71.755
-70.633
-69.517
-68.409
-67.312
-66.228
-65.157
-64.103
-63.064
-62.045
-61.044
-60.064
-59.107
-58.174
-57.266
-56.385
-55.533
-54.713
-53.925
-53.171
-52.454
-51.773
-51.132
-50.53
-49.969
-49.449
-48.972
-48.538
-48.146
-47.797
-47.491
-47.226
-47.003
-46.819
-46.672
-46.561
-46.482
-46.433
-46.41
-46.408
-46.424
-46.453
-46.491
-46.531
-46.569
-46.597
-46.609
-46.599
-46.56
-46.484
-46.365
-46.195
-45.97
-45.683
-45.331
-44.907
-44.408
-43.83
-43.171
-42.428
-41.6
-40.687
-39.688
-38.605
-37.441
-36.2
-34.888
-33.511
-32.077
-30.597
-29.083
-27.545
-26
-24.462
-22.948
-21.477
-20.064
-18.724
-17.473
-16.324
-15.294
-14.398
-13.649
-13.057
-12.637
-12.401
-12.361
-12.526
-12.899
-13.473
-14.242
-15.202
-16.354
-17.711
-19.279
-21.058
-23.048
-25.249
-27.657
-30.264
-33.04
-35.927
-38.873
-41.829
-44.767
-47.682
-50.561
-53.367
-56.046
-58.524
-60.725
-62.613
-64.136
-65.215
-65.847
-66.088
-66.083
-66.111
-66.426
-67.193
-68.544
-70.554
-73.102
-75.97
-78.885
-81.404
-83.165
-83.882
-83.271
-81.235
-78.036
-74.107
-69.847
-65.759
-62.2
-59.607
-58.732
-60.07
-63.607
-69.172
-76.597
-85.57
-96.113
-107.065
-115.168
-117.605
-111.974
-97.681
-77.74
-53.774
-23.872
16.204
74.417
157.632
265.356
393.078
532.155
670.482
799.133
907.926
984.97
1019.494
1000.488
923.762
792.48
618.063
420.629
221.787
45.733
-87.815
-169.918
-200.004
-189.572
-156.049
-115.284
-80.138
-57.497
-48.963
-51.798
-61.412
-71.996
-77.932
-78.538
-75.426
-71.417
-70.654
-73.954
-79.882
-87.025
-93.149
-96.845
-98.273
-97.759
-95.716
-92.732
-89.191
-85.341
-81.694
-78.958
-77.473
-77.355
-78.605
-80.963
-84.197
-88.145
-92.487
-96.801
-100.774
-104.191
-106.941
-109.038
-110.488
-111.264
-111.384
-110.895
-109.85
-108.308
-106.311
-103.881
-101.051
-97.878
-94.435
-90.804
-87.063
-83.266
-79.443
-75.616
-71.794
-67.981
-64.172
-60.352
-56.499
-52.594
-48.625
-44.583
-40.462
-36.25
-31.932
-27.495
-22.926
-18.218
-13.369
-8.379
-3.249
2.015
7.404
12.906
18.506
24.189
29.942
35.749
41.597
47.469
53.345
59.206
65.034
70.804
76.495
82.081
87.536
92.834
97.948
102.853
107.521
111.927
116.046
119.855
123.329
126.447
129.188
131.535
133.469
134.977
136.044
136.661
136.819
136.512
135.738
134.495
132.786
130.614
127.987
124.913
121.404
117.472
113.135
108.408
103.314
97.872
92.108
86.046
79.715
73.142
66.358
59.391
52.274
45.038
37.714
30.332
22.924
15.52
8.151
0.843
-6.373
-13.473
-20.431
-27.224
-33.829
-40.228
-46.402
-52.334
-58.011
-63.42
-68.55
-73.392
-77.938
-82.184
-86.126
-89.761
-93.091
-96.116
-98.839
-101.266
-103.402
-105.255
-106.832
-108.144
-109.2
-110.013
-110.593
-110.953
-111.107
-111.068
-110.849
-110.464
-109.927
-109.252
-108.45
-107.537
-106.522
-105.42
-104.241
-102.997
-101.698
-100.354
-98.975
-97.57
-96.149
-94.719
-93.287
-91.862
-90.448
-89.053
-87.682
-86.339
-85.029
-83.757
-82.526
-81.339
-80.2
-79.11
-78.073
-77.09
-76.161
-75.289
-74.473
-73.714
-73.013
-72.37
-71.784
-71.256
-70.785
-70.371
-70.014
-69.711
-69.462
-69.264
-69.116
-69.015
-68.958
-68.942
-68.963
-69.017
-69.102
-69.211
-69.341
-69.485
-69.639
-69.796
-69.95
-70.093
-70.219
-70.319
-70.388
-70.417
-70.4
-70.329
-70.197
-69.996
-69.72
-69.362
-68.914
-68.37
-67.722
-66.966
-66.096
-65.107
-63.998
-62.764
-61.403
-59.915
-58.299
-56.556
-54.687
-52.696
-50.585
-48.358
-46.024
-43.589
-41.062
-38.456
-35.781
-33.053
-30.288
-27.503
-24.718
-21.951
-19.224
-16.557
-13.971
-11.485
-9.118
-6.886
-4.808
-2.9
-1.181
0.336
1.637
2.707
3.534
4.109
4.424
4.487
4.302
3.873
3.201
2.275
1.089
-0.356
-2.056
-4.012
-6.216
-8.658
-11.31
-14.111
-17.006
-19.946
-22.895
-25.845
-28.778
-31.646
-34.395
-36.95
-39.24
-41.24
-42.895
-44.106
-44.864
-45.223
-45.324
-45.463
-45.868
-46.658
-48.016
-50.067
-52.741
-55.903
-59.226
-62.171
-64.428
-65.747
-65.708
-64.15
-61.178
-57.015
-52.243
-47.571
-43.324
-39.986
-38.46
-39.32
-42.85
-49.167
-57.814
-68.181
-80.124
-92.37
-101.811
-105.695
-101.366
-87.702
-67.122
-40.89
-7.246
37.318
99.49
184.859
292.377
417.48
552.47
686.37
811.13
918.651
998.354
1041.521
1039.079
984.649
879.826
732.127
556.02
372.517
202.279
62.379
-36.667
-96.443
-124.586
-129.815
-122.812
-108.495
-90.411
-75.315
-64.835
-59.818
-59.096
-56.013
-48.355
-37.511
-26.194
-19.497
-19.285
-24.334
-32.824
-42.418
-51.8
-60.234
-66.854
-71.255
-73.317
-73.205
-71.443
-68.493
-64.797
-61.096
-58.186
-56.562
-56.432
-57.721
-60.175
-63.548
-67.574
-71.852
-75.914
-79.446
-82.292
-84.41
-85.843
-86.613
-86.726
-86.23
-85.205
-83.714
-81.799
-79.489
-76.789
-73.742
-70.414
-66.877
-63.207
-59.455
-55.646
-51.8
-47.928
-44.032
-40.109
-36.146
-32.121
-28.02
-23.834
-19.557
-15.185
-10.706
-6.11
-1.384
3.483
8.496
13.657
18.965
24.416
30
35.707
41.524
47.433
53.418
59.463
65.551
71.665
77.786
83.894
89.967
95.983
101.919
107.749
113.448
118.989
124.347
129.495
134.407
139.057
143.422
147.477
151.199
154.566
157.559
160.158
162.347
164.11
165.435
166.312
166.731
166.687
166.177
165.2
163.759
161.857
159.503
156.705
153.475
149.828
145.781
141.353
136.563
131.435
125.993
120.264
114.275
108.055
101.633
95.04
88.306
81.464
74.542
67.574
60.588
53.614
46.683
39.82
33.055
26.411
19.914
13.586
7.447
1.517
-4.187
-9.649
-14.858
-19.8
-24.468
-28.853
-32.95
-36.757
-40.272
-43.494
-46.427
-49.075
-51.442
-53.537
-55.366
-56.94
-58.269
-59.364
-60.237
-60.901
-61.368
-61.652
-61.766
-61.725
-61.541
-61.228
-60.8
-60.269
-59.648
-58.948
-58.182
-57.361
-56.494
-55.592
-54.663
-53.717
-52.76
-51.8
-50.843
-49.895
-48.96
-48.042
-47.144
-46.27
-45.422
-44.6
-43.807
-43.043
-42.309
-41.605
-40.931
-40.288
-39.675
-39.093
-38.542
-38.021
-37.531
-37.072
-36.644
-36.249
-35.887
-35.559
-35.265
-35.006
-34.784
-34.6
-34.453
-34.345
-34.276
-34.246
-34.256
-34.307
-34.397
-34.527
-34.696
-34.903
-35.149
-35.43
-35.746
-36.095
-36.475
-36.881
-37.311
-37.761
-38.225
-38.699
-39.176
-39.651
-40.115
-40.563
-40.987
-41.379
-41.731
-42.034
-42.279
-42.459
-42.565
-42.588
-42.52
-42.355
-42.085
-41.704
-41.208
-40.592
-39.852
-38.984
-37.988
-36.86
-35.601
-34.21
-32.691
-31.045
-29.278
-27.396
-25.406
-23.319
-21.149
-18.908
-16.611
-14.274
-11.916
-9.555
-7.214
-4.913
-2.672
-0.513
1.543
3.475
5.26
6.878
8.311
9.544
10.563
11.352
11.896
12.182
12.208
11.973
11.479
10.724
9.699
8.397
6.819
4.968
2.851
0.476
-2.15
-5.007
-8.059
-11.258
-14.548
-17.882
-21.228
-24.562
-27.865
-31.104
-34.216
-37.136
-39.803
-42.162
-44.177
-45.809
-47.002
-47.792
-48.3
-48.726
-49.366
-50.485
-52.24
-54.738
-58.029
-61.995
-66.425
-70.97
-75.054
-78.086
-79.542
-79.073
-76.584
-72.277
-66.522
-59.815
-52.881
-46.667
-42.348
-40.842
-42.791
-48.452
-57.506
-69.587
-83.579
-97.002
-106.867
-110.107
-105.116
-92.612
-73.482
-47.642
-11.931
39.57
112.265
209.63
330.361
468.986
616.395
760.997
890.958
992.769
1056.562
1075.421
1044.884
968.219
849.874
697.813
526.175
349.762
186.256
51.553
-45.685
-105.116
-132.86
-136.821
-126.684
-108.433
-87.321
-71.767
-64.397
-65.537
-72.627
-77.401
-76.594
-71.275
-64.173
-60.468
-61.985
-67.421
-75.083
-82.918
-89.957
-95.887
-100.234
-102.902
-104
-103.774
-102.654
-100.921
-98.826
-96.888
-95.725
-95.713
-96.954
-99.322
-102.565
-106.459
-110.801
-115.269
-119.436
-123.015
-125.857
-127.917
-129.244
-129.867
-129.784
-129.036
-127.704
-125.855
-123.547
-120.829
-117.717
-114.263
-110.54
-106.625
-102.602
-98.53
-94.44
-90.351
-86.278
-82.221
-78.18
-74.143
-70.089
-66.003
-61.875
-57.697
-53.465
-49.17
-44.799
-40.339
-35.777
-31.105
-26.321
-21.424
-16.417
-11.305
-6.095
-0.801
4.564
9.987
15.455
20.954
26.471
31.992
37.5
42.977
48.406
53.767
59.039
64.199
69.224
74.091
78.775
83.255
87.505
91.503
95.227
98.656
101.769
104.546
106.969
109.023
110.693
111.965
112.83
113.278
113.304
112.903
112.073
110.817
109.136
107.036
104.525
101.612
98.309
94.631
90.591
86.209
81.503
76.495
71.207
65.664
59.891
53.914
47.762
41.462
35.043
28.534
21.962
15.356
8.744
2.153
-4.39
-10.861
-17.236
-23.491
-29.606
-35.559
-41.334
-46.914
-52.284
-57.431
-62.344
-67.013
-71.43
-75.59
-79.488
-83.12
-86.486
-89.585
-92.42
-94.993
-97.309
-99.373
-101.192
-102.773
-104.127
-105.261
-106.186
-106.914
-107.454
-107.819
-108.02
-108.068
-107.976
-107.754
-107.414
-106.967
-106.423
-105.792
-105.083
-104.306
-103.469
-102.581
-101.647
-100.676
-99.673
-98.645
-97.596
-96.531
-95.456
-94.374
-93.289
-92.204
-91.121
-90.045
-88.976
-87.917
-86.87
-85.836
-84.816
-83.812
-82.825
-81.857
-80.907
-79.978
-79.071
-78.187
-77.328
-76.494
-75.689
-74.913
-74.168
-73.457
-72.781
-72.142
-71.542
-70.984
-70.468
-69.998
-69.573
-69.195
-68.865
-68.583
-68.349
-68.161
-68.02
-67.923
-67.869
-67.856
-67.881
-67.942
-68.035
-68.155
-68.299
-68.462
-68.638
-68.822
-69.007
-69.187
-69.355
-69.503
-69.625
-69.714
-69.761
-69.759
-69.699
-69.574
-69.377
-69.099
-68.732
-68.27
-67.707
-67.038
-66.258
-65.363
-64.351
-63.22
-61.967
-60.594
-59.101
-57.49
-55.762
-53.924
-51.98
-49.937
-47.803
-45.589
-43.305
-40.964
-38.58
-36.171
-33.752
-31.343
-28.965
-26.637
-24.383
-22.222
-20.172
-18.253
-16.482
-14.876
-13.453
-12.228
-11.215
-10.43
-9.886
-9.593
-9.557
-9.775
-10.241
-10.949
-11.894
-13.077
-14.506
-16.178
-18.095
-20.26
-22.665
-25.304
-28.154
-31.164
-34.289
-37.482
-40.705
-43.952
-47.203
-50.423
-53.569
-56.57
-59.353
-61.868
-64.038
-65.76
-67.009
-67.832
-68.381
-68.928
-69.678
-70.751
-72.296
-74.419
-77.075
-80.029
-82.803
-84.857
-85.912
-85.863
-84.605
-82.067
-78.281
-73.673
-69.179
-65.448
-62.584
-60.658
-59.585
-60.103
-64.079
-71.455
-80.705
-89.741
-94.114
-92.623
-87.92
-82.058
-80.457
-86.03
-95.14
-103.321
-100.5
-74.96
-19.708
70.233
192.482
338.994
499.5
660.271
809.479
935.655
1027.852
1079.14
1083.124
1036.679
941.858
803.821
633.758
448.748
267.921
109.504
-12.765
-93.98
-137.545
-150.193
-141.167
-119.487
-91.471
-65.461
-48.535
-42.62
-47.619
-57.95
-66.007
-69.688
-69.265
-67.498
-68.941
-74.431
-82.471
-91.416
-98.889
-103.452
-105.231
-104.614
-102.085
-98.348
-93.98
-89.351
-85.03
-81.766
-79.906
-79.574
-80.786
-83.253
-86.69
-90.918
-95.593
-100.297
-104.726
-108.618
-111.816
-114.309
-116.076
-117.087
-117.357
-116.911
-115.789
-114.055
-111.756
-108.925
-105.609
-101.861
-97.749
-93.358
-88.769
-84.056
-79.276
-74.46
-69.631
-64.804
-59.982
-55.163
-50.338
-45.487
-40.596
-35.658
-30.665
-25.613
-20.494
-15.296
-10.01
-4.629
0.85
6.424
12.09
17.841
23.669
29.561
35.505
41.482
47.478
53.478
59.467
65.43
71.351
77.213
82.995
88.681
94.251
99.683
104.956
110.046
114.932
119.59
124
128.14
131.987
135.523
138.728
141.584
144.073
146.181
147.893
149.199
150.087
150.551
150.584
150.183
149.346
148.075
146.373
144.246
141.7
138.745
135.394
131.658
127.555
123.102
118.316
113.22
107.836
102.187
96.3
90.199
83.913
77.469
70.896
64.221
57.475
50.685
43.88
37.086
30.332
23.642
17.042
10.556
4.205
-1.99
-8.01
-13.837
-19.457
-24.856
-30.021
-34.942
-39.611
-44.022
-48.168
-52.048
-55.659
-59.002
-62.079
-64.891
-67.445
-69.745
-71.799
-73.615
-75.202
-76.571
-77.731
-78.695
-79.475
-80.083
-80.531
-80.833
-81.001
-81.049
-80.987
-80.829
-80.585
-80.267
-79.883
-79.445
-78.96
-78.436
-77.881
-77.301
-76.703
-76.09
-75.468
-74.84
-74.21
-73.579
-72.949
-72.322
-71.699
-71.079
-70.462
-69.849
-69.237
-68.627
-68.017
-67.404
-66.788
-66.166
-65.536
-64.897
-64.247
-63.585
-62.91
-62.221
-61.518
-60.802
-60.073
-59.332
-58.582
-57.824
-57.06
-56.294
-55.528
-54.765
-54.01
-53.265
-52.534
-51.822
-51.132
-50.467
-49.831
-49.226
-48.656
-48.124
-47.63
-47.178
-46.769
-46.404
-46.085
-45.811
-45.584
-45.402
-45.265
-45.169
-45.114
-45.095
-45.107
-45.146
-45.206
-45.28
-45.361
-45.441
-45.513
-45.567
-45.595
-45.588
-45.534
-45.426
-45.253
-45.006
-44.676
-44.253
-43.731
-43.101
-42.359
-41.497
-40.511
-39.396
-38.15
-36.768
-35.25
-33.594
-31.802
-29.874
-27.815
-25.629
-23.323
-20.906
-18.391
-15.791
-13.118
-10.389
-7.622
-4.837
-2.054
0.704
3.419
6.069
8.635
11.094
13.426
15.608
17.626
19.462
21.1
22.525
23.717
24.664
25.364
25.815
26.016
25.965
25.649
25.056
24.183
23.029
21.595
19.885
17.903
15.666
13.212
10.589
7.855
5.059
2.234
-0.595
-3.406
-6.162
-8.79
-11.22
-13.383
-15.216
-16.692
-17.782
-18.438
-18.708
-18.722
-18.659
-18.829
-19.494
-20.731
-22.618
-25.187
-28.293
-31.863
-35.728
-39.374
-42.336
-44.375
-45.271
-45.044
-43.969
-42.009
-39.199
-36.055
-33.201
-31.291
-30.959
-32.531
-36.067
-41.915
-50.486
-60.997
-71.26
-78.652
-80.228
-75.001
-64.785
-50.498
-31.456
-3.384
41.932
112.065
211.329
338.166
485.85
643.275
797.538
936.9
1047.854
1118.795
1140.389
1104.44
1011.105
867.422
686.634
490.009
299.326
133.072
5.217
-80.049
-126.648
-141.45
-134.712
-116.259
-92.513
-70.996
-56.95
-50.834
-52.014
-55.751
-56.213
-52.588
-46.109
-40.012
-38.498
-42.314
-50.181
-60.188
-69.919
-77.88
-83.396
-86.257
-86.698
-85.047
-81.721
-77.239
-72.12
-67.118
-63.067
-60.4
-59.275
-59.628
-61.197
-63.757
-67.073
-70.766
-74.382
-77.574
-80.14
-82.009
-83.21
-83.756
-83.638
-82.881
-81.542
-79.694
-77.398
-74.697
-71.619
-68.197
-64.495
-60.589
-56.563
-52.496
-48.441
-44.428
-40.477
-36.6
-32.8
-29.074
-25.409
-21.781
-18.171
-14.567
-10.955
-7.326
-3.666
0.043
3.821
7.683
11.641
15.699
19.861
24.13
28.502
32.973
37.534
42.173
46.88
51.644
56.453
61.296
66.16
71.028
75.884
80.71
85.489
90.198
94.817
99.323
103.691
107.898
111.921
115.734
119.316
122.641
125.686
128.431
130.853
132.932
134.65
135.99
136.937
137.479
137.604
137.306
136.578
135.418
133.825
131.801
129.352
126.484
123.207
119.533
115.477
111.053
106.282
101.182
95.776
90.088
84.142
77.966
71.586
65.032
58.332
51.516
44.614
37.655
30.67
23.688
16.737
9.847
3.043
-3.647
-10.2
-16.593
-22.804
-28.815
-34.607
-40.166
-45.477
-50.53
-55.316
-59.827
-64.057
-68.004
-71.666
-75.043
-78.138
-80.953
-83.495
-85.77
-87.785
-89.549
-91.072
-92.365
-93.44
-94.307
-94.981
-95.474
-95.799
-95.971
-96.003
-95.909
-95.701
-95.393
-94.997
-94.525
-93.988
-93.397
-92.761
-92.088
-91.386
-90.663
-89.924
-89.175
-88.419
-87.661
-86.903
-86.146
-85.392
-84.641
-83.894
-83.149
-82.407
-81.666
-80.924
-80.181
-79.435
-78.685
-77.928
-77.162
-76.387
-75.601
-74.801
-73.987
-73.158
-72.313
-71.453
-70.578
-69.689
-68.787
-67.875
-66.955
-66.03
-65.103
-64.177
-63.257
-62.348
-61.453
-60.578
-59.729
-58.91
-58.127
-57.385
-56.69
-56.044
-55.453
-54.921
-54.45
-54.043
-53.703
-53.432
-53.23
-53.099
-53.039
-53.05
-53.13
-53.278
-53.49
-53.763
-54.093
-54.474
-54.9
-55.365
-55.859
-56.377
-56.909
-57.446
-57.979
-58.498
-58.991
-59.449
-59.86
-60.213
-60.498
-60.703
-60.82
-60.839
-60.753
-60.553
-60.233
-59.787
-59.21
-58.497
-57.646
-56.653
-55.517
-54.24
-52.824
-51.272
-49.589
-47.782
-45.861
-43.836
-41.72
-39.528
-37.276
-34.982
-32.668
-30.353
-28.061
-25.812
-23.626
-21.526
-19.53
-17.658
-15.932
-14.37
-12.988
-11.807
-10.841
-10.106
-9.611
-9.356
-9.34
-9.562
-10.021
-10.726
-11.686
-12.905
-14.386
-16.133
-18.142
-20.408
-22.911
-25.601
-28.435
-31.369
-34.373
-37.443
-40.563
-43.701
-46.815
-49.832
-52.683
-55.322
-57.671
-59.628
-61.18
-62.374
-63.357
-64.41
-65.735
-67.459
-69.758
-72.747
-76.357
-80.354
-84.283
-87.586
-89.952
-91.231
-91.163
-89.57
-86.544
-82.496
-78.206
-74.433
-71.509
-69.563
-69.015
-70.433
-74.089
-79.945
-87.499
-96.19
-106.017
-116.531
-125.851
-131.484
-130.88
-122.997
-109.289
-91.14
-68.265
-36.868
9.685
77.794
171.807
290.474
428.521
577.313
725.383
861.777
973.454
1048.576
1077.062
1051.041
971.247
842.629
676.461
490.674
302.365
130.516
-8.024
-104.752
-157.678
-171.802
-159.215
-133.241
-104.476
-82.906
-73.483
-74.626
-83.253
-92.448
-95.279
-91.004
-81.591
-71.268
-65.018
-63.861
-66.529
-71.405
-76.806
-82.15
-87.404
-92.262
-96.232
-99.038
-100.744
-101.493
-101.41
-100.686
-99.577
-98.499
-98.076
-98.62
-100.105
-102.448
-105.433
-108.837
-112.474
-116.03
-119.126
-121.543
-123.192
-124.051
-124.189
-123.649
-122.447
-120.652
-118.344
-115.59
-112.451
-108.969
-105.178
-101.136
-96.912
-92.577
-88.188
-83.777
-79.361
-74.951
-70.546
-66.145
-61.738
-57.308
-52.844
-48.341
-43.79
-39.191
-34.537
-29.82
-25.031
-20.163
-15.209
-10.167
-5.038
0.174
5.46
10.813
16.22
21.669
27.145
32.638
38.133
43.618
49.08
54.501
59.867
65.159
70.359
75.447
80.402
85.203
89.827
94.255
98.463
102.432
106.141
109.571
112.701
115.516
117.997
120.13
121.9
123.297
124.308
124.925
125.142
124.954
124.357
123.353
121.942
120.127
117.916
115.315
112.334
108.986
105.284
101.243
96.88
92.215
87.268
82.06
76.615
70.957
65.111
59.103
52.96
46.709
40.376
33.987
27.57
21.15
14.751
8.399
2.116
-4.075
-10.153
-16.098
-21.892
-27.518
-32.961
-38.207
-43.243
-48.06
-52.647
-56.999
-61.109
-64.974
-68.589
-71.955
-75.071
-77.939
-80.562
-82.942
-85.087
-87.001
-88.692
-90.168
-91.437
-92.508
-93.392
-94.098
-94.637
-95.019
-95.253
-95.352
-95.324
-95.179
-94.928
-94.579
-94.14
-93.621
-93.028
-92.368
-91.649
-90.875
-90.053
-89.187
-88.28
-87.337
-86.361
-85.355
-84.32
-83.259
-82.172
-81.063
-79.93
-78.775
-77.597
-76.399
-75.178
-73.936
-72.673
-71.387
-70.08
-68.752
-67.402
-66.032
-64.641
-63.232
-61.804
-60.361
-58.903
-57.434
-55.956
-54.472
-52.987
-51.503
-50.024
-48.555
-47.101
-45.665
-44.253
-42.869
-41.518
-40.204
-38.932
-37.707
-36.531
-35.409
-34.344
-33.338
-32.395
-31.515
-30.701
-29.953
-29.273
-28.66
-28.115
-27.637
-27.224
-26.874
-26.586
-26.354
-26.176
-26.046
-25.958
-25.907
-25.884
-25.885
-25.9
-25.922
-25.942
-25.952
-25.943
-25.906
-25.833
-25.713
-25.54
-25.303
-24.996
-24.612
-24.146
-23.59
-22.941
-22.195
-21.348
-20.4
-19.348
-18.192
-16.932
-15.57
-14.108
-12.55
-10.901
-9.168
-7.36
-5.489
-3.569
-1.613
0.361
2.339
4.302
6.231
8.111
9.925
11.659
13.297
14.822
16.216
17.461
18.541
19.442
20.15
20.653
20.938
21.001
20.841
20.46
19.855
19.018
17.929
16.573
14.943
13.035
10.85
8.399
5.695
2.768
-0.328
-3.54
-6.814
-10.101
-13.371
-16.58
-19.672
-22.582
-25.225
-27.526
-29.436
-30.906
-31.905
-32.441
-32.549
-32.299
-31.813
-31.207
-30.6
-30.135
-29.937
-30.104
-30.729
-31.936
-33.926
-36.871
-40.82
-45.652
-51.039
-56.676
-62.314
-67.391
-71.175
-73.107
-72.743
-70.816
-68.56
-66.121
-64.19
-62.282
-59.993
-59.654
-61.135
-64.541
-69.953
-74.001
-76.822
-77.767
-72.579
-56.385
-19.953
45.598
143.733
272.231
423.763
586.964
749.008
898.048
1019.494
1099.186
1125.517
1089.081
990.207
837.546
646.075
438.037
235.637
58.273
-78.323
-167.895
-212.709
-219.89
-202.18
-172.236
-138.844
-110.84
-92.699
-83.753
-82.687
-83.784
-81.313
-75.084
-66.396
-58.71
-56.154
-58.759
-64.824
-72.793
-80.581
-87.138
-92.316
-95.604
-96.905
-96.655
-95.215
-92.898
-90.103
-87.206
-84.635
-83.018
-82.689
-83.587
-85.564
-88.358
-91.678
-95.285
-98.855
-101.996
-104.474
-106.193
-107.126
-107.331
-106.853
-105.71
-103.963
-101.69
-98.952
-95.803
-92.285
-88.434
-84.31
-79.989
-75.546
-71.041
-66.51
-61.974
-57.446
-52.928
-48.417
-43.9
-39.359
-34.78
-30.155
-25.477
-20.74
-15.937
-11.054
-6.083
-1.013
4.164
9.452
14.85
20.357
25.964
31.664
37.443
43.288
49.185
55.122
61.084
67.059
73.029
78.979
84.892
90.748
96.527
102.208
107.767
113.182
118.43
123.486
128.327
132.93
137.273
141.332
145.088
148.518
151.605
154.329
156.674
158.624
160.167
161.29
161.985
162.244
162.062
161.436
160.367
158.856
156.908
154.53
151.731
148.521
144.914
140.924
136.569
131.868
126.84
121.51
115.9
110.037
103.945
97.653
91.188
84.577
77.851
71.036
64.161
57.254
50.343
43.454
36.613
29.846
23.177
16.628
10.22
3.973
-2.095
-7.967
-13.63
-19.07
-24.276
-29.239
-33.952
-38.408
-42.603
-46.534
-50.201
-53.603
-56.742
-59.623
-62.249
-64.625
-66.759
-68.658
-70.33
-71.783
-73.029
-74.076
-74.935
-75.617
-76.132
-76.491
-76.707
-76.788
-76.747
-76.593
-76.337
-75.989
-75.558
-75.052
-74.48
-73.85
-73.169
-72.443
-71.679
-70.883
-70.06
-69.214
-68.35
-67.471
-66.581
-65.683
-64.78
-63.874
-62.967
-62.06
-61.157
-60.258
-59.365
-58.48
-57.605
-56.74
-55.888
-55.05
-54.229
-53.425
-52.642
-51.879
-51.14
-50.427
-49.741
-49.085
-48.461
-47.871
-47.318
-46.804
-46.33
-45.899
-45.513
-45.172
-44.879
-44.634
-44.437
-44.29
-44.192
-44.144
-44.144
-44.193
-44.289
-44.429
-44.612
-44.835
-45.095
-45.386
-45.705
-46.046
-46.403
-46.771
-47.143
-47.513
-47.875
-48.22
-48.541
-48.831
-49.083
-49.288
-49.438
-49.526
-49.545
-49.487
-49.347
-49.118
-48.795
-48.373
-47.85
-47.221
-46.484
-45.637
-44.678
-43.608
-42.426
-41.136
-39.74
-38.242
-36.649
-34.97
-33.216
-31.398
-29.531
-27.628
-25.703
-23.772
-21.853
-19.963
-18.119
-16.337
-14.633
-13.026
-11.534
-10.178
-8.972
-7.933
-7.071
-6.398
-5.928
-5.67
-5.631
-5.812
-6.217
-6.848
-7.718
-8.839
-10.214
-11.844
-13.725
-15.847
-18.196
-20.753
-23.48
-26.336
-29.274
-32.25
-35.222
-38.155
-41.008
-43.741
-46.31
-48.666
-50.757
-52.534
-53.948
-54.979
-55.661
-56.034
-56.142
-56.092
-56.023
-56.156
-56.817
-58.201
-60.333
-63.239
-66.954
-71.442
-76.638
-82.147
-87.172
-91.148
-93.823
-95.005
-94.626
-92.618
-88.847
-83.846
-78.938
-75.174
-73.446
-74.507
-78.532
-85.883
-96.291
-107.542
-116.641
-120.545
-117.957
-110.327
-98.588
-81.691
-54.365
-7.97
63.972
164.128
288.796
429.592
576.906
720.7
852.029
959.808
1031.933
1056.442
1022.557
928.4
780.789
594.637
393.096
199.295
32.249
-94.316
-176.384
-217.722
-224.85
-208.161
-178.458
-143.68
-113.448
-94.306
-86.695
-89.311
-95.398
-97.018
-92.541
-82.858
-71.68
-64.464
-62.353
-64.004
-68.078
-72.647
-76.794
-80.745
-84.259
-86.825
-88.389
-89.057
-88.832
-87.9
-86.529
-84.845
-83.257
-82.386
-82.445
-83.444
-85.333
-87.849
-90.745
-93.84
-96.834
-99.389
-101.33
-102.562
-103.061
-102.902
-102.136
-100.798
-98.958
-96.685
-94.036
-91.062
-87.807
-84.312
-80.635
-76.842
-72.983
-69.092
-65.19
-61.286
-57.381
-53.467
-49.529
-45.546
-41.501
-37.386
-33.193
-28.916
-24.546
-20.071
-15.481
-10.767
-5.923
-0.944
4.173
9.425
14.804
20.301
25.903
31.594
37.362
43.191
49.067
54.975
60.898
66.818
72.717
78.574
84.369
90.077
95.674
101.135
106.434
111.547
116.448
121.112
125.515
129.632
133.441
136.92
140.047
142.804
145.172
147.136
148.68
149.793
150.464
150.687
150.455
149.765
148.618
147.015
144.961
142.462
139.528
136.168
132.398
128.232
123.688
118.784
113.543
107.987
102.142
96.033
89.689
83.136
76.404
69.523
62.522
55.431
48.28
41.098
33.914
26.757
19.653
12.629
5.711
-1.078
-7.715
-14.18
-20.453
-26.516
-32.355
-37.953
-43.301
-48.386
-53.199
-57.735
-61.986
-65.95
-69.624
-73.008
-76.102
-78.909
-81.433
-83.678
-85.65
-87.357
-88.807
-90.008
-90.97
-91.702
-92.216
-92.522
-92.631
-92.553
-92.302
-91.886
-91.319
-90.61
-89.77
-88.81
-87.739
-86.568
-85.305
-83.959
-82.539
-81.052
-79.507
-77.91
-76.268
-74.588
-72.875
-71.135
-69.373
-67.595
-65.804
-64.007
-62.206
-60.407
-58.614
-56.83
-55.059
-53.306
-51.575
-49.869
-48.193
-46.552
-44.948
-43.388
-41.875
-40.415
-39.011
-37.67
-36.394
-35.19
-34.062
-33.014
-32.05
-31.176
-30.394
-29.71
-29.126
-28.646
-28.274
-28.01
-27.857
-27.816
-27.888
-28.072
-28.368
-28.774
-29.288
-29.907
-30.627
-31.445
-32.355
-33.352
-34.427
-35.574
-36.785
-38.049
-39.358
-40.699
-42.062
-43.436
-44.807
-46.164
-47.495
-48.786
-50.025
-51.198
-52.293
-53.298
-54.198
-54.982
-55.638
-56.156
-56.525
-56.737
-56.784
-56.659
-56.357
-55.873
-55.205
-54.351
-53.309
-52.08
-50.668
-49.075
-47.309
-45.376
-43.287
-41.055
-38.697
-36.228
-33.669
-31.037
-28.355
-25.644
-22.929
-20.234
-17.581
-14.994
-12.497
-10.113
-7.869
-5.792
-3.902
-2.218
-0.761
0.453
1.406
2.08
2.47
2.572
2.382
1.893
1.091
-0.037
-1.494
-3.279
-5.388
-7.81
-10.533
-13.535
-16.772
-20.194
-23.747
-27.377
-31.046
-34.716
-38.349
-41.906
-45.331
-48.556
-51.526
-54.187
-56.484
-58.411
-59.97
-61.159
-62.074
-62.861
-63.704
-64.9
-66.696
-69.172
-72.38
-76.371
-81.062
-86.345
-91.962
-97.277
-101.644
-104.697
-106.174
-105.933
-104.023
-100.427
-95.367
-89.733
-84.647
-81.122
-80.108
-82.18
-87.661
-96.336
-106.884
-117.206
-124.399
-127.051
-125.808
-121.001
-112.484
-95.528
-61.352
-2.325
87.43
205.954
345.151
495.991
645.936
786.168
908.768
1002.084
1059.189
1071.273
1031.045
940.343
801.295
624.149
428.078
232.346
60.109
-70.554
-153.739
-191.387
-192.941
-171.545
-138.263
-101.73
-71.092
-52.607
-47.396
-53.94
-64.82
-71.614
-72.125
-67.076
-60.39
-57.286
-58.601
-62.991
-69.019
-74.589
-78.828
-81.899
-83.561
-83.891
-83.331
-82.118
-80.435
-78.556
-76.725
-75.251
-74.65
-75.187
-76.785
-79.314
-82.55
-86.231
-90.148
-94.003
-97.428
-100.205
-102.237
-103.492
-104.017
-103.849
-103.002
-101.536
-99.527
-97.035
-94.119
-90.819
-87.176
-83.251
-79.12
-74.86
-70.533
-66.177
-61.814
-57.456
-53.105
-48.759
-44.405
-40.022
-35.596
-31.118
-26.579
-21.975
-17.3
-12.541
-7.689
-2.735
2.329
7.505
12.793
18.19
23.69
29.281
34.953
40.69
46.479
52.307
58.159
64.022
69.881
75.719
81.52
87.264
92.934
98.507
103.962
109.277
114.428
119.393
124.149
128.675
132.947
136.945
140.648
144.036
147.091
149.794
152.132
154.088
155.65
156.808
157.552
157.875
157.774
157.244
156.287
154.903
153.096
150.872
148.238
145.206
141.785
137.989
133.835
129.337
124.514
119.386
113.974
108.301
102.39
96.263
89.948
83.467
76.847
70.113
63.291
56.405
49.48
42.54
35.61
28.711
21.867
15.097
8.421
1.859
-4.573
-10.859
-16.984
-22.935
-28.701
-34.271
-39.636
-44.788
-49.721
-54.429
-58.91
-63.159
-67.175
-70.957
-74.505
-77.821
-80.907
-83.764
-86.397
-88.808
-91.004
-92.988
-94.766
-96.344
-97.728
-98.923
-99.937
-100.775
-101.445
-101.953
-102.306
-102.51
-102.572
-102.497
-102.293
-101.964
-101.516
-100.955
-100.287
-99.516
-98.647
-97.686
-96.637
-95.506
-94.297
-93.015
-91.664
-90.25
-88.778
-87.251
-85.676
-84.058
-82.401
-80.71
-78.992
-77.251
-75.493
-73.723
-71.946
-70.168
-68.394
-66.63
-64.882
-63.154
-61.452
-59.781
-58.147
-56.555
-55.011
-53.519
-52.084
-50.71
-49.403
-48.165
-47.001
-45.914
-44.906
-43.98
-43.138
-42.38
-41.708
-41.121
-40.619
-40.2
-39.862
-39.603
-39.421
-39.31
-39.268
-39.288
-39.367
-39.498
-39.674
-39.889
-40.135
-40.403
-40.686
-40.974
-41.26
-41.533
-41.784
-42.003
-42.182
-42.31
-42.379
-42.378
-42.299
-42.133
-41.872
-41.507
-41.033
-40.444
-39.734
-38.899
-37.936
-36.844
-35.62
-34.264
-32.776
-31.161
-29.419
-27.557
-25.58
-23.496
-21.314
-19.049
-16.713
-14.321
-11.888
-9.433
-6.972
-4.528
-2.12
0.233
2.509
4.69
6.754
8.681
10.448
12.037
13.431
14.614
15.57
16.284
16.741
16.932
16.856
16.511
15.894
14.999
13.816
12.344
10.584
8.541
6.224
3.644
0.818
-2.215
-5.415
-8.732
-12.112
-15.516
-18.906
-22.248
-25.513
-28.651
-31.602
-34.315
-36.729
-38.785
-40.474
-41.782
-42.697
-43.314
-43.752
-44.17
-44.852
-46.032
-47.798
-50.237
-53.379
-57.08
-61.261
-65.75
-70.043
-73.652
-76.256
-77.55
-77.462
-76.175
-73.626
-69.827
-65.295
-60.768
-57.073
-54.999
-55.015
-57.262
-62.073
-69.935
-79.942
-89.229
-94.642
-93.049
-83.561
-69.449
-52.506
-30.526
2.113
56.071
140.148
254.289
392.97
545.456
697.418
839.139
961.527
1053.268
1105.844
1109.655
1057.66
952.005
800.259
617.124
424.742
244.347
94.085
-13.526
-78.968
-109.475
-114.25
-106.097
-91.741
-75.484
-64.144
-58.409
-58.345
-62.347
-63.358
-59.069
-50.587
-40.594
-34.424
-33.845
-37.579
-43.943
-50.694
-56.955
-62.625
-66.976
-69.635
-70.573
-69.897
-68.132
-65.749
-62.967
-60.242
-58.305
-57.622
-58.383
-60.57
-63.886
-68.035
-72.799
-77.822
-82.645
-86.96
-90.584
-93.437
-95.572
-97.019
-97.786
-97.926
-97.517
-96.621
-95.297
-93.581
-91.492
-89.082
-86.423
-83.594
-80.677
-77.729
-74.778
-71.843
-68.932
-66.042
-63.164
-60.279
-57.358
-54.383
-51.339
-48.213
-44.997
-41.675
-38.231
-34.647
-30.908
-27.002
-22.924
-18.669
-14.24
-9.639
-4.875
0.042
5.098
10.279
15.573
20.964
26.437
31.977
37.563
43.174
48.79
54.386
59.936
65.414
70.792
76.041
81.132
86.036
90.726
95.172
99.348
103.227
106.785
109.996
112.839
115.293
117.341
118.966
120.154
120.893
121.175
120.992
120.343
119.225
117.641
115.596
113.095
110.15
106.773
102.978
98.782
94.206
89.271
84.001
78.421
72.56
66.445
60.109
53.581
46.894
40.081
33.173
26.204
19.205
12.208
5.244
-1.658
-8.468
-15.16
-21.707
-28.085
-34.272
-40.248
-45.993
-51.492
-56.73
-61.693
-66.373
-70.761
-74.851
-78.637
-82.12
-85.297
-88.172
-90.747
-93.027
-95.02
-96.733
-98.177
-99.363
-100.302
-101.006
-101.491
-101.77
-101.857
-101.768
-101.519
-101.123
-100.596
-99.954
-99.211
-98.38
-97.477
-96.514
-95.503
-94.457
-93.386
-92.302
-91.212
-90.126
-89.052
-87.997
-86.967
-85.966
-85
-84.073
-83.187
-82.344
-81.545
-80.793
-80.086
-79.424
-78.808
-78.235
-77.705
-77.215
-76.764
-76.351
-75.973
-75.627
-75.313
-75.028
-74.769
-74.536
-74.327
-74.139
-73.972
-73.825
-73.696
-73.586
-73.494
-73.419
-73.362
-73.322
-73.3
-73.296
-73.311
-73.345
-73.4
-73.476
-73.574
-73.695
-73.84
-74.009
-74.203
-74.42
-74.662
-74.927
-75.215
-75.523
-75.851
-76.195
-76.555
-76.926
-77.306
-77.691
-78.076
-78.457
-78.829
-79.186
-79.522
-79.829
-80.102
-80.334
-80.517
-80.644
-80.708
-80.701
-80.616
-80.445
-80.18
-79.813
-79.339
-78.748
-78.036
-77.197
-76.227
-75.122
-73.878
-72.493
-70.967
-69.298
-67.488
-65.537
-63.449
-61.226
-58.875
-56.401
-53.814
-51.123
-48.34
-45.48
-42.558
-39.59
-36.595
-33.592
-30.602
-27.648
-24.752
-21.935
-19.219
-16.625
-14.175
-11.891
-9.792
-7.896
-6.22
-4.781
-3.595
-2.678
-2.038
-1.677
-1.597
-1.794
-2.271
-3.037
-4.095
-5.447
-7.092
-9.026
-11.247
-13.745
-16.499
-19.466
-22.593
-25.83
-29.135
-32.484
-35.861
-39.235
-42.556
-45.764
-48.792
-51.58
-54.089
-56.254
-57.996
-59.321
-60.311
-61.144
-62.099
-63.388
-65.135
-67.512
-70.642
-74.448
-78.758
-83.214
-87.266
-90.563
-92.827
-93.647
-92.807
-90.379
-86.577
-81.918
-77.098
-72.515
-68.717
-66.566
-66.622
-69.292
-74.813
-82.897
-93.265
-105.082
-116.032
-123.39
-124.451
-118.301
-106.723
-90.809
-69.817
-38.937
10.36
84.86
187.502
315.103
459.425
609.965
756.308
889.15
997.349
1070.767
1098.738
1071.637
988.549
853.272
677.633
481.674
285.239
109.516
-28.383
-120.858
-167.452
-174.739
-154.525
-119.441
-80.058
-47.078
-27.655
-22.117
-28.307
-38.795
-44.988
-45.195
-40.661
-35.236
-34.264
-38.66
-46.816
-56.865
-66.244
-73.457
-78.189
-80.406
-80.442
-78.82
-76.008
-72.374
-68.33
-64.529
-61.644
-60.063
-59.917
-61.071
-63.241
-66.222
-69.795
-73.624
-77.312
-80.535
-83.101
-84.954
-86.119
-86.613
-86.434
-85.601
-84.166
-82.2
-79.76
-76.892
-73.624
-69.992
-66.058
-61.894
-57.577
-53.182
-48.757
-44.331
-39.923
-35.544
-31.194
-26.874
-22.572
-18.267
-13.946
-9.597
-5.21
-0.781
3.702
8.253
12.886
17.612
22.437
27.366
32.397
37.529
42.758
48.077
53.477
58.943
64.465
70.03
75.627
81.243
86.862
92.468
98.044
103.572
109.031
114.399
119.655
124.774
129.732
134.506
139.07
143.402
147.478
151.274
154.769
157.94
160.77
163.237
165.326
167.02
168.306
169.172
169.608
169.607
169.163
168.275
166.941
165.164
162.948
160.299
157.228
153.746
149.865
145.602
140.976
136.004
130.711
125.118
119.252
113.139
106.807
100.285
93.6
86.784
79.866
72.876
65.842
58.795
51.763
44.773
37.853
31.029
24.324
17.762
11.365
5.152
-0.857
-6.647
-12.202
-17.51
-22.56
-27.341
-31.848
-36.073
-40.014
-43.668
-47.034
-50.115
-52.912
-55.431
-57.676
-59.655
-61.376
-62.847
-64.079
-65.082
-65.867
-66.446
-66.83
-67.033
-67.067
-66.944
-66.677
-66.279
-65.761
-65.136
-64.415
-63.61
-62.73
-61.787
-60.791
-59.749
-58.672
-57.568
-56.444
-55.307
-54.164
-53.022
-51.886
-50.761
-49.653
-48.565
-47.503
-46.469
-45.468
-44.503
-43.578
-42.695
-41.858
-41.069
-40.331
-39.647
-39.02
-38.452
-37.946
-37.505
-37.131
-36.827
-36.597
-36.441
-36.365
-36.369
-36.458
-36.632
-36.896
-37.249
-37.695
-38.235
-38.869
-39.599
-40.425
-41.346
-42.361
-43.47
-44.67
-45.959
-47.334
-48.791
-50.324
-51.93
-53.602
-55.333
-57.116
-58.944
-60.808
-62.7
-64.611
-66.53
-68.447
-70.351
-72.231
-74.075
-75.871
-77.607
-79.27
-80.848
-82.327
-83.697
-84.946
-86.062
-87.034
-87.851
-88.505
-88.985
-89.284
-89.395
-89.309
-89.023
-88.531
-87.832
-86.924
-85.807
-84.482
-82.952
-81.22
-79.292
-77.174
-74.874
-72.4
-69.763
-66.974
-64.048
-60.998
-57.844
-54.603
-51.298
-47.95
-44.583
-41.221
-37.889
-34.612
-31.417
-28.331
-25.378
-22.583
-19.971
-17.566
-15.392
-13.472
-11.823
-10.461
-9.401
-8.655
-8.237
-8.155
-8.407
-8.991
-9.904
-11.142
-12.713
-14.615
-16.841
-19.383
-22.226
-25.357
-28.762
-32.412
-36.262
-40.263
-44.355
-48.492
-52.64
-56.768
-60.85
-64.842
-68.679
-72.307
-75.672
-78.721
-81.426
-83.736
-85.594
-87.038
-88.187
-89.223
-90.431
-92.031
-94.159
-97.004
-100.676
-105.115
-110.183
-115.469
-120.318
-124.193
-126.555
-126.836
-124.768
-120.314
-113.613
-105.351
-96.482
-87.998
-81.222
-77.417
-77.524
-82.244
-91.665
-105.292
-121.712
-138.137
-151.358
-158.12
-156.808
-148.496
-133.153
-108.676
-69.86
-8.239
80.201
192.952
322.443
457.334
589.781
716.551
834.702
938.041
1014.103
1046.391
1020.596
932.068
788.296
606.426
410.237
222.734
61.352
-61.798
-142.954
-185.493
-194.937
-180.758
-153.612
-121.663
-95.074
-80.97
-79.738
-89.14
-101.267
-107.224
-104.636
-94.783
-82.161
-72.475
-67.412
-66.063
-67.057
-68.861
-71.147
-74.118
-77.631
-81.325
-84.621
-87.23
-89.065
-89.982
-89.992
-89.271
-88.065
-86.842
-86.156
-86.214
-87.019
-88.496
-90.42
-92.559
-94.733
-96.678
-98.1
-98.854
-98.886
-98.206
-96.91
-95.072
-92.731
-89.954
-86.813
-83.361
-79.665
-75.782
-71.761
-67.664
-63.541
-59.425
-55.346
-51.317
-47.335
-43.394
-39.475
-35.555
-31.619
-27.656
-23.658
-19.618
-15.526
-11.367
-7.13
-2.803
1.624
6.159
10.808
15.576
20.46
25.454
30.549
35.735
41.001
46.337
51.731
57.173
62.649
68.144
73.642
79.126
84.577
89.973
95.293
100.511
105.604
110.547
115.316
119.885
124.231
128.329
132.155
135.687
138.902
141.778
144.297
146.439
148.189
149.531
150.454
150.946
151.001
150.613
149.78
148.5
146.778
144.617
142.025
139.013
135.592
131.777
127.586
123.037
118.151
112.952
107.464
101.715
95.733
89.545
83.183
76.676
70.057
63.356
56.604
49.834
43.076
36.362
29.719
23.179
16.767
10.512
4.436
-1.436
-7.084
-12.488
-17.63
-22.497
-27.075
-31.352
-35.32
-38.972
-42.305
-45.314
-48.001
-50.365
-52.412
-54.145
-55.571
-56.699
-57.538
-58.099
-58.394
-58.435
-58.238
-57.817
-57.188
-56.366
-55.368
-54.212
-52.914
-51.492
-49.962
-48.342
-46.647
-44.893
-43.096
-41.269
-39.428
-37.584
-35.749
-33.936
-32.152
-30.408
-28.712
-27.07
-25.489
-23.973
-22.528
-21.157
-19.862
-18.646
-17.51
-16.454
-15.481
-14.588
-13.775
-13.041
-12.385
-11.804
-11.296
-10.859
-10.489
-10.184
-9.941
-9.756
-9.627
-9.55
-9.523
-9.542
-9.606
-9.711
-9.857
-10.04
-10.26
-10.514
-10.803
-11.125
-11.48
-11.865
-12.282
-12.729
-13.205
-13.709
-14.241
-14.799
-15.382
-15.987
-16.614
-17.259
-17.921
-18.596
-19.281
-19.973
-20.669
-21.364
-22.054
-22.734
-23.401
-24.048
-24.671
-25.264
-25.82
-26.335
-26.801
-27.212
-27.562
-27.844
-28.051
-28.177
-28.215
-28.16
-28.006
-27.747
-27.379
-26.898
-26.3
-25.582
-24.743
-23.781
-22.696
-21.489
-20.162
-18.717
-17.157
-15.488
-13.714
-11.842
-9.88
-7.834
-5.715
-3.532
-1.294
0.986
3.297
5.626
7.962
10.289
12.595
14.866
17.088
19.247
21.328
23.319
25.205
26.975
28.614
30.113
31.46
32.645
33.659
34.495
35.147
35.608
35.876
35.947
35.821
35.498
34.98
34.271
33.375
32.298
31.048
29.634
28.065
26.354
24.513
22.554
20.494
18.346
16.128
13.857
11.549
9.222
6.894
4.584
2.309
0.088
-2.063
-4.125
-6.082
-7.918
-9.619
-11.169
-12.556
-13.769
-14.797
-15.63
-16.263
-16.688
-16.902
-16.901
-16.686
-16.255
-15.613
