Name
Date of Birth,"Mar 27, 1959"
Recorded Date,2022-08-14 14:36:49 -0500
Classification,Sinus Rhythm
Symptoms,
Software Version,1.90
Device,"Watch4,2"
Sample Rate,510.227 hertz


Lead,Lead I
Unit,µV

-13.098
-14.314
-15.213
-15.785
-16.027
-15.942
-15.531
-14.825
-13.856
-12.631
-11.166
-9.464
-7.527
-5.44
-3.294
-1.062
1.278
3.783
6.532
9.386
12.162
14.861
17.513
20.014
22.227
23.785
24.27
23.782
22.637
21.085
19.291
17.368
15.536
14.41
14.715
16.609
19.729
23.402
27.139
30.769
34.021
36.32
36.905
35.266
31.636
26.871
21.574
15.934
10.111
4.314
-0.965
-5.061
-7.927
-10.184
-12.169
-13.76
-14.939
-15.747
-16.293
-17.391
-18.689
-18.113
-15.921
-13.593
-13.977
-22.579
-38.554
-55.701
-67.442
-65.309
-49.323
-27.486
-6.391
6.927
11.278
11.552
9.965
8.319
7.133
4.547
0.667
-3.644
-8.043
-11.519
-13.169
-12.828
-10.428
-6.263
-1.241
4.013
9.233
14.096
18.323
21.745
24.212
25.796
26.849
27.584
28.053
28.283
28.221
27.848
27.2
26.262
24.964
23.27
21.179
18.72
15.957
12.932
9.648
6.103
2.3
-1.753
-6.035
-10.525
-15.208
-20.066
-25.059
-30.141
-35.254
-40.335
-45.35
-50.272
-55.071
-59.727
-64.178
-68.343
-72.157
-75.553
-78.482
-80.956
-82.962
-84.466
-85.547
-86.333
-87.068
-88.163
-89.835
-92.09
-94.912
-98.264
-102.123
-106.49
-110.939
-114.542
-116.648
-116.983
-115.58
-112.752
-108.497
-102.665
-95.81
-89.403
-84.949
-83.529
-85.694
-91.43
-101.053
-115.32
-132.905
-149.797
-162.199
-166.448
-162.742
-155.771
-145.489
-127.83
-93.94
-30.919
65.196
190.085
334.284
484.021
630.184
765.945
881.145
963.719
999.245
977.024
897.291
768.698
606.041
426.634
246.368
82.082
-50.907
-142.844
-191.795
-205.761
-196.323
-173.468
-143.579
-109.646
-76.509
-49.998
-34.62
-31.262
-34.997
-40.394
-44.442
-47.259
-52.553
-62.439
-76.064
-91.341
-104.861
-114.513
-120.295
-122.55
-121.929
-119.281
-115.239
-110.629
-106.575
-103.838
-102.696
-103.244
-105.347
-108.745
-113.218
-118.422
-123.845
-129.094
-133.902
-138.107
-141.691
-144.655
-146.973
-148.646
-149.705
-150.184
-150.128
-149.571
-148.522
-147.002
-145.043
-142.696
-140.035
-137.132
-134.058
-130.865
-127.582
-124.235
-120.837
-117.397
-113.919
-110.391
-106.791
-103.106
-99.324
-95.434
-91.429
-87.294
-83.008
-78.555
-73.922
-69.099
-64.079
-58.858
-53.429
-47.795
-41.957
-35.921
-29.696
-23.289
-16.708
-9.96
-3.057
3.991
11.17
18.465
25.862
33.342
40.885
48.47
56.073
63.669
71.233
78.739
86.158
93.461
100.621
107.609
114.395
120.951
127.248
133.259
138.956
144.314
149.308
153.914
158.111
161.879
165.2
168.058
170.44
172.334
173.731
174.625
175.011
174.887
174.255
173.116
171.478
169.348
166.737
163.659
160.131
156.171
151.8
147.039
141.914
136.451
130.678
124.623
118.315
111.786
105.067
98.19
91.187
84.089
76.928
69.737
62.544
55.382
48.277
41.258
34.352
27.583
20.976
14.552
8.332
2.335
-3.423
-8.927
-14.163
-19.121
-23.791
-28.168
-32.246
-36.023
-39.497
-42.671
-45.548
-48.131
-50.428
-52.446
-54.195
-55.685
-56.928
-57.936
-58.724
-59.304
-59.693
-59.905
-59.955
-59.86
-59.634
-59.292
-58.851
-58.325
-57.728
-57.075
-56.378
-55.651
-54.905
-54.152
-53.401
-52.662
-51.943
-51.251
-50.592
-49.971
-49.392
-48.857
-48.369
-47.929
-47.536
-47.189
-46.888
-46.629
-46.411
-46.229
-46.08
-45.96
-45.865
-45.789
-45.729
-45.68
-45.638
-45.598
-45.556
-45.508
-45.451
-45.381
-45.295
-45.191
-45.066
-44.919
-44.748
-44.555
-44.338
-44.099
-43.838
-43.559
-43.264
-42.955
-42.637
-42.313
-41.988
-41.667
-41.355
-41.056
-40.775
-40.519
-40.292
-40.098
-39.943
-39.83
-39.763
-39.745
-39.78
-39.869
-40.014
-40.218
-40.481
-40.803
-41.184
-41.624
-42.121
-42.673
-43.277
-43.93
-44.627
-45.365
-46.136
-46.936
-47.759
-48.598
-49.446
-50.295
-51.139
-51.969
-52.778
-53.56
-54.305
-55.007
-55.659
-56.257
-56.795
-57.267
-57.672
-58.004
-58.264
-58.45
-58.561
-58.597
-58.561
-58.454
-58.28
-58.043
-57.749
-57.405
-57.017
-56.598
-56.159
-55.713
-55.272
-54.85
-54.462
-54.123
-53.847
-53.648
-53.536
-53.524
-53.624
-53.85
-54.216
-54.734
-55.413
-56.265
-57.295
-58.512
-59.921
-61.517
-63.298
-65.259
-67.403
-69.738
-72.276
-75.014
-77.952
-81.084
-84.394
-87.866
-91.471
-95.159
-98.883
-102.593
-106.245
-109.81
-113.256
-116.535
-119.596
-122.375
-124.806
-126.851
-128.467
-129.62
-130.318
-130.585
-130.485
-130.135
-129.624
-129.04
-128.503
-128.104
-127.937
-128.116
-128.687
-129.738
-131.465
-133.955
-137.187
-141.039
-145.129
-149.044
-152.502
-155.051
-156.035
-155.027
-151.882
-146.851
-140.765
-134.603
-129.145
-125.207
-124.078
-125.995
-129.115
-131.091
-128.96
-121.461
-112.305
-104.869
-97.685
-85.309
-55.668
4.239
97.35
220.297
363.81
512.434
654.364
777.118
865.592
907.236
891.087
814.135
682.344
510.416
320.894
135.998
-20.861
-133.39
-199.982
-226.462
-228.639
-223.605
-217.234
-210.194
-198.759
-177.604
-148.281
-115.818
-84.91
-60.429
-44.767
-37.648
-38.098
-44.538
-55.019
-67.606
-80.874
-93.456
-103.702
-110.807
-114.606
-115.157
-113.133
-109.428
-104.63
-99.536
-95.229
-92.245
-90.8
-90.98
-92.485
-95.001
-98.332
-102.076
-105.715
-108.96
-111.636
-113.672
-115.16
-116.128
-116.557
-116.504
-116.037
-115.209
-114.072
-112.643
-110.913
-108.914
-106.696
-104.322
-101.868
-99.377
-96.87
-94.364
-91.863
-89.372
-86.891
-84.404
-81.888
-79.329
-76.709
-74.021
-71.256
-68.396
-65.421
-62.309
-59.04
-55.598
-51.97
-48.146
-44.12
-39.887
-35.445
-30.796
-25.946
-20.898
-15.656
-10.225
-4.612
1.174
7.123
13.221
19.455
25.807
32.257
38.784
45.364
51.973
58.584
65.17
71.703
78.154
84.492
90.689
96.714
102.536
108.125
113.45
118.483
123.194
127.557
131.545
135.134
138.301
141.025
143.288
145.074
146.368
147.157
147.432
147.187
146.416
145.118
143.294
140.947
138.085
134.717
130.855
126.514
121.712
116.469
110.807
104.749
98.322
91.553
84.47
77.103
69.483
61.643
53.613
45.428
37.118
28.718
20.259
11.773
3.291
-5.157
-13.541
-21.835
-30.01
-38.042
-45.907
-53.581
-61.045
-68.279
-75.267
-81.993
-88.443
-94.608
-100.477
-106.044
-111.303
-116.251
-120.886
-125.209
-129.221
-132.926
-136.329
-139.435
-142.252
-144.788
-147.054
-149.057
-150.811
-152.325
-153.611
-154.683
-155.551
-156.228
-156.726
-157.059
-157.237
-157.273
-157.179
-156.967
-156.647
-156.23
-155.726
-155.146
-154.497
-153.79
-153.032
-152.23
-151.391
-150.521
-149.625
-148.709
-147.776
-146.83
-145.875
-144.914
-143.948
-142.981
-142.014
-141.049
-140.086
-139.128
-138.176
-137.23
-136.292
-135.363
-134.445
-133.538
-132.644
-131.766
-130.904
-130.06
-129.235
-128.432
-127.652
-126.896
-126.166
-125.465
-124.793
-124.153
-123.546
-122.976
-122.443
-121.95
-121.499
-121.091
-120.729
-120.414
-120.148
-119.933
-119.77
-119.659
-119.604
-119.604
-119.66
-119.772
-119.94
-120.163
-120.44
-120.768
-121.146
-121.57
-122.037
-122.544
-123.085
-123.659
-124.259
-124.882
-125.521
-126.172
-126.83
-127.487
-128.137
-128.774
-129.39
-129.979
-130.535
-131.049
-131.516
-131.928
-132.278
-132.559
-132.764
-132.885
-132.916
-132.848
-132.676
-132.393
-131.996
-131.479
-130.839
-130.072
-129.179
-128.158
-127.009
-125.734
-124.335
-122.814
-121.176
-119.425
-117.568
-115.613
-113.566
-111.439
-109.245
-106.996
-104.707
-102.394
-100.072
-97.758
-95.469
-93.222
-91.03
-88.909
-86.875
-84.942
-83.129
-81.453
-79.931
-78.576
-77.402
-76.419
-75.641
-75.074
-74.718
-74.571
-74.635
-74.916
-75.429
-76.187
-77.194
-78.452
-79.958
-81.706
-83.685
-85.874
-88.23
-90.71
-93.272
-95.877
-98.504
-101.121
-103.682
-106.129
-108.388
-110.389
-112.085
-113.434
-114.394
-114.946
-115.099
-114.892
-114.403
-113.716
-112.906
-112.066
-111.286
-110.659
-110.282
-110.269
-110.803
-112.06
-114.102
-116.83
-119.989
-123.236
-126.257
-128.669
-129.885
-129.354
-126.82
-122.569
-117.421
-112.292
-108.156
-106.057
-107.118
-112.62
-122.018
-132.195
-140.042
-142.427
-139.829
-136.983
-133.813
-125.692
-102.103
-47.759
42.708
164.624
306.249
450.766
588.504
715.201
825.153
910.644
957.299
950.025
883.048
759.763
595.115
410.88
227.688
64.969
-64.089
-153.064
-201.419
-214.592
-200.165
-168.274
-128.665
-91.514
-65.838
-53.813
-53.547
-57.965
-59.632
-57.337
-53.311
-52.138
-56.918
-66.439
-77.31
-86.184
-91.429
-92.752
-90.646
-85.962
-79.322
-71.702
-64.467
-58.4
-53.884
-51.225
-50.357
-51.174
-53.604
-57.24
-61.537
-66.133
-70.748
-75.166
-79.285
-82.98
-86.135
-88.732
-90.79
-92.317
-93.327
-93.825
-93.818
-93.338
-92.428
-91.132
-89.496
-87.578
-85.438
-83.144
-80.765
-78.347
-75.92
-73.5
-71.094
-68.699
-66.304
-63.889
-61.426
-58.888
-56.255
-53.506
-50.621
-47.581
-44.36
-40.94
-37.301
-33.428
-29.31
-24.938
-20.303
-15.404
-10.242
-4.821
0.851
6.767
12.919
19.298
25.891
32.686
39.669
46.821
54.127
61.563
69.107
76.733
84.412
92.115
99.811
107.467
115.05
122.525
129.858
137.013
143.956
150.653
157.068
163.167
168.919
174.291
179.253
183.778
187.837
191.407
194.467
196.997
198.98
200.404
201.257
201.531
201.222
200.328
198.849
196.791
194.16
190.966
187.223
182.949
178.163
172.888
167.149
160.974
154.394
147.441
140.149
132.553
124.689
116.595
108.31
99.871
91.319
82.692
74.029
65.369
56.748
48.203
39.768
31.477
23.361
15.449
7.77
0.347
-6.796
-13.638
-20.161
-26.348
-32.187
-37.666
-42.776
-47.512
-51.872
-55.853
-59.458
-62.692
-65.56
-68.071
-70.235
-72.064
-73.571
-74.771
-75.681
-76.317
-76.699
-76.843
-76.771
-76.503
-76.057
-75.455
-74.716
-73.859
-72.902
-71.864
-70.76
-69.607
-68.421
-67.214
-66
-64.79
-63.596
-62.426
-61.288
-60.19
-59.136
-58.131
-57.178
-56.278
-55.432
-54.639
-53.899
-53.21
-52.57
-51.974
-51.42
-50.903
-50.418
-49.96
-49.523
-49.102
-48.691
-48.284
-47.876
-47.463
-47.039
-46.601
-46.145
-45.67
-45.172
-44.649
-44.102
-43.529
-42.93
-42.306
-41.659
-40.991
-40.303
-39.6
-38.885
-38.161
-37.434
-36.707
-35.985
-35.273
-34.574
-33.894
-33.238
-32.608
-32.011
-31.45
-30.93
-30.455
-30.028
-29.653
-29.331
-29.067
-28.859
-28.71
-28.62
-28.587
-28.611
-28.689
-28.82
-28.999
-29.223
-29.488
-29.789
-30.12
-30.474
-30.845
-31.225
-31.607
-31.983
-32.343
-32.681
-32.988
-33.256
-33.477
-33.644
-33.748
-33.781
-33.737
-33.609
-33.388
-33.069
-32.646
-32.112
-31.465
-30.7
-29.814
-28.805
-27.673
-26.416
-25.035
-23.532
-21.91
-20.171
-18.32
-16.364
-14.308
-12.163
-9.936
-7.641
-5.29
-2.898
-0.479
1.948
4.369
6.764
9.117
11.41
13.626
15.751
17.769
19.663
21.417
23.016
24.443
25.682
26.72
27.543
28.14
28.503
28.629
28.517
28.167
27.573
26.725
25.616
24.242
22.6
20.693
18.528
16.122
13.508
10.732
7.845
4.894
1.923
-1.035
-3.943
-6.759
-9.435
-11.912
-14.135
-16.058
-17.637
-18.829
-19.616
-20.023
-20.114
-20.006
-19.806
-19.598
-19.464
-19.488
-19.754
-20.353
-21.375
-22.867
-24.928
-27.726
-31.332
-35.758
-40.872
-46.243
-51.348
-55.685
-58.587
-59.318
-57.503
-52.928
-45.702
-36.898
-27.85
-19.797
-14.492
-12.663
-13.056
-14.524
-15.422
-15.301
-16.878
-21.09
-25.513
-22.485
0.569
54.399
144.415
267.477
414.483
574.006
733.562
882.038
1005.626
1089.257
1119.316
1084.632
984.548
828.13
632.61
424.613
229.956
69.957
-40.38
-101.283
-121.184
-111.08
-85.316
-51.831
-16.071
13.294
30.901
32.973
19.299
-1.937
-21.599
-34.703
-39.431
-39.013
-38.31
-38.299
-38.463
-37.759
-34.527
-29.049
-22.588
-15.93
-9.989
-5.451
-2.395
-0.837
-0.732
-1.807
-3.847
-6.725
-10.258
-14.256
-18.568
-23.025
-27.453
-31.708
-35.624
-39.065
-41.945
-44.21
-45.843
-46.853
-47.263
-47.119
-46.482
-45.409
-43.958
-42.181
-40.131
-37.871
-35.477
-33.022
-30.583
-28.211
-25.939
-23.79
-21.769
-19.872
-18.081
-16.37
-14.702
-13.046
-11.374
-9.662
-7.889
-6.03
-4.059
-1.953
0.309
2.746
5.376
8.223
11.308
14.648
18.249
22.11
26.22
30.562
35.111
39.838
44.709
49.699
54.791
59.978
65.269
70.672
76.193
81.825
87.544
93.326
99.152
105.007
110.88
116.781
122.73
128.758
134.908
141.198
147.62
154.131
160.654
167.093
173.333
179.28
184.865
190.021
194.694
198.824
202.355
205.212
207.31
208.547
208.803
207.991
206.058
202.999
198.863
193.732
187.725
180.947
173.488
165.428
156.831
147.76
138.279
128.457
118.374
108.13
97.85
87.642
77.595
67.762
58.157
48.769
39.554
30.478
21.516
12.655
3.899
-4.742
-13.251
-21.611
-29.802
-37.819
-45.679
-53.392
-60.97
-68.409
-75.691
-82.787
-89.658
-96.269
-102.586
-108.587
-114.259
-119.6
-124.615
-129.314
-133.715
-137.827
-141.66
-145.223
-148.522
-151.574
-154.389
-156.984
-159.375
-161.583
-163.63
-165.541
-167.329
-169.005
-170.575
-172.045
-173.424
-174.726
-175.954
-177.107
-178.18
-179.165
-180.064
-180.881
-181.619
-182.28
-182.843
-183.295
-183.626
-183.838
-183.951
-183.984
-183.924
-183.754
-183.466
-183.045
-182.561
-182.107
-181.621
-181.044
-180.3
-179.265
-178.047
-176.839
-175.572
-174.123
-172.63
-171.184
-170.154
-170.165
-171.106
-172.567
-174.389
-176.256
-177.73
-178.608
-178.038
-174.651
-168.163
-158.798
-146.981
-133.885
-120.547
-107.477
-95.905
-87.63
-83.575
-84.234
-89.307
-97.139
-106.22
-115.735
-124.532
-131.193
-134.627
-133.815
-128.667
-120.526
-110.847
-100.529
-90.334
-80.908
-72.903
-67.193
-64.11
-63.062
-63.176
-63.82
-64.65
-65.572
-66.483
-67.044
-67.025
-66.518
-65.815
-65.174
-64.7
-64.34
-63.991
-63.64
-63.324
-63.047
-62.766
-62.417
-61.958
-61.382
-60.721
-59.997
-59.214
-58.363
-57.426
-56.391
-55.258
-54.03
-52.709
-51.291
-49.769
-48.135
-46.384
-44.514
-42.527
-40.421
-38.196
-35.849
-33.383
-30.807
-28.133
-25.373
-22.54
-19.648
-16.712
-13.748
-10.778
-7.82
-4.894
-2.021
0.78
3.491
6.093
8.569
10.901
13.069
15.053
16.838
18.408
19.748
20.847
21.691
22.271
22.588
22.641
22.43
21.946
21.175
20.101
18.724
17.041
15.058
12.785
10.234
7.432
4.426
1.266
-1.996
-5.316
-8.664
-12.005
-15.284
-18.434
-21.375
-24.033
-26.361
-28.323
-29.876
-31.004
-31.716
-32.056
-32.12
-32.009
-31.813
-31.628
-31.56
-31.716
-32.212
-33.181
-34.789
-37.163
-40.345
-44.235
-48.544
-52.922
-57.035
-60.453
-62.651
-63.192
-61.798
-58.639
-54.559
-50.484
-47.168
-45.519
-46.322
-50.169
-57.758
-67.648
-75.956
-79.435
-74.563
-61.074
-43.112
-20.451
9.336
52.183
119.537
214.483
334.335
472.992
617.406
758.495
886.623
988.047
1048.486
1051.547
988.582
861.78
685.372
484.615
285.582
112.612
-18.319
-102.028
-142.17
-148.742
-131.158
-100.169
-63.396
-28.241
-6.387
-1.626
-13.807
-37.738
-60.13
-74.656
-80.432
-79.276
-77.827
-78.516
-79.892
-80.699
-78.919
-74.211
-67.98
-61.269
-54.887
-49.46
-45.282
-42.494
-41.125
-41.044
-42.007
-43.819
-46.355
-49.459
-52.961
-56.727
-60.6
-64.422
-68.052
-71.329
-74.124
-76.37
-78.026
-79.075
-79.526
-79.402
-78.751
-77.638
-76.123
-74.258
-72.095
-69.679
-67.069
-64.335
-61.544
-58.76
-56.028
-53.369
-50.795
-48.308
-45.898
-43.545
-41.222
-38.892
-36.528
-34.105
-31.603
-29.001
-26.279
-23.411
-20.376
-17.153
-13.725
-10.078
-6.201
-2.084
2.275
6.88
11.727
16.811
22.128
27.67
33.432
39.403
45.574
51.93
58.457
65.137
71.95
78.873
85.881
92.948
100.045
107.141
114.207
121.211
128.12
134.901
141.522
147.949
154.151
160.094
165.749
171.084
176.072
180.685
184.897
188.686
192.03
194.91
197.311
199.219
200.621
201.511
201.882
201.731
201.059
199.867
198.161
195.951
193.246
190.061
186.413
182.322
177.808
172.895
167.609
161.977
156.027
149.789
143.293
136.571
129.655
122.577
115.37
108.066
100.697
93.294
85.888
78.508
71.184
63.943
56.81
49.811
42.967
36.302
29.834
23.582
17.561
11.785
6.267
1.017
-3.957
-8.649
-13.055
-17.173
-21.003
-24.544
-27.801
-30.777
-33.477
-35.909
-38.08
-39.999
-41.676
-43.121
-44.345
-45.362
-46.181
-46.817
-47.281
-47.587
-47.747
-47.774
-47.68
-47.478
-47.18
-46.797
-46.34
-45.821
-45.248
-44.632
-43.98
-43.302
-42.602
-41.889
-41.166
-40.439
-39.712
-38.988
-38.27
-37.56
-36.859
-36.17
-35.494
-34.829
-34.177
-33.538
-32.91
-32.292
-31.684
-31.084
-30.491
-29.902
-29.317
-28.733
-28.148
-27.56
-26.969
-26.371
-25.765
-25.151
-24.526
-23.891
-23.245
-22.589
-21.922
-21.247
-20.565
-19.876
-19.185
-18.492
-17.8
-17.112
-16.43
-15.759
-15.1
-14.457
-13.834
-13.235
-12.664
-12.124
-11.619
-11.155
-10.734
-10.363
-10.044
-9.784
-9.585
-9.453
-9.391
-9.404
-9.496
-9.669
-9.927
-10.27
-10.7
-11.218
-11.824
-12.515
-13.291
-14.148
-15.084
-16.095
-17.177
-18.325
-19.534
-20.798
-22.11
-23.463
-24.848
-26.257
-27.68
-29.108
-30.53
-31.936
-33.314
-34.652
-35.939
-37.163
-38.309
-39.367
-40.323
-41.164
-41.878
-42.452
-42.877
-43.144
-43.242
-43.166
-42.908
-42.464
-41.83
-41.004
-39.984
-38.769
-37.362
-35.764
-33.98
-32.017
-29.882
-27.586
-25.143
-22.568
-19.878
-17.09
-14.221
-11.293
-8.33
-5.355
-2.389
0.543
3.418
6.212
8.897
11.446
13.838
16.055
18.078
19.891
21.472
22.805
23.881
24.697
25.247
25.526
25.518
25.21
24.598
23.682
22.466
20.955
19.154
17.072
14.741
12.196
9.481
6.646
3.72
0.728
-2.297
-5.33
-8.325
-11.216
-13.955
-16.49
-18.762
-20.768
-22.506
-23.937
-25.138
-26.246
-27.454
-29.123
-31.56
-34.82
-38.928
-43.919
-49.651
-55.958
-62.445
-68.161
-72.173
-74.049
-73.6
-70.845
-66.072
-59.475
-51.596
-44.05
-38.747
-36.957
-39.573
-47.052
-59.335
-76.49
-97.227
-117.717
-133.695
-142.172
-143.41
-139.587
-130.133
-109.583
-66.585
7.972
113.265
240.676
374.032
501.149
622.843
741.636
858.057
963.795
1033.232
1042.158
978.364
841.784
653.882
444.156
238.185
60.384
-75.92
-166.901
-213.747
-224.694
-209.402
-178.134
-140.169
-104.163
-77.273
-60.964
-53.771
-50.136
-44.525
-36.841
-29.361
-26.326
-30.621
-41.025
-54.535
-67.722
-78.08
-84.662
-87.559
-87.219
-84.108
-78.97
-72.677
-66.083
-60.19
-55.713
-52.898
-51.848
-52.432
-54.322
-57.242
-60.823
-64.578
-68.179
-71.352
-73.898
-75.892
-77.399
-78.469
-79.227
-79.616
-79.529
-79.074
-78.327
-77.13
-75.43
-73.057
-69.792
-65.987
-62.034
-57.999
-54.009
-50.294
-46.945
-44.319
-42.823
-42.099
-41.769
-41.74
-41.8
-41.82
-41.782
-41.348
-40.157
-38.436
-36.395
-34.094
-31.699
-29.186
-26.479
-23.726
-21.062
-18.376
-15.58
-12.616
-9.382
-5.912
-2.254
1.627
5.75
10.096
14.659
19.413
24.325
29.397
34.63
40.007
45.518
51.135
56.828
62.571
68.334
74.089
79.805
85.45
90.99
96.392
101.621
106.644
111.428
115.941
120.149
124.022
127.529
130.645
133.346
135.61
137.418
138.752
139.595
139.935
139.763
139.07
137.852
136.108
133.838
131.047
127.742
123.935
119.638
114.867
109.642
103.983
97.914
91.462
84.654
77.52
70.091
62.4
54.478
46.362
38.085
29.682
21.189
12.639
4.069
-4.488
-12.999
-21.431
-29.754
-37.935
-45.949
-53.766
-61.362
-68.714
-75.799
-82.597
-89.091
-95.263
-101.101
-106.593
-111.728
-116.501
-120.906
-124.939
-128.602
-131.894
-134.819
-137.383
-139.59
-141.45
-142.972
-144.166
-145.044
-145.619
-145.905
-145.916
-145.669
-145.18
-144.465
-143.541
-142.426
-141.136
-139.689
-138.101
-136.391
-134.573
-132.664
-130.681
-128.637
-126.549
-124.43
-122.293
-120.15
-118.012
-115.889
-113.791
-111.726
-109.7
-107.721
-105.793
-103.922
-102.111
-100.364
-98.683
-97.071
-95.528
-94.053
-92.648
-91.311
-90.04
-88.833
-87.688
-86.601
-85.57
-84.591
-83.661
-82.776
-81.931
-81.123
-80.347
-79.598
-78.873
-78.167
-77.477
-76.797
-76.126
-75.46
-74.796
-74.132
-73.466
-72.797
-72.122
-71.441
-70.752
-70.056
-69.351
-68.636
-67.914
-67.182
-66.443
-65.697
-64.944
-64.187
-63.425
-62.661
-61.894
-61.126
-60.358
-59.59
-58.823
-58.059
-57.296
-56.536
-55.779
-55.026
-54.275
-53.528
-52.784
-52.04
-51.297
-50.551
-49.802
-49.047
-48.282
-47.504
-46.711
-45.899
-45.064
-44.202
-43.311
-42.385
-41.419
-40.411
-39.356
-38.25
-37.088
-35.868
-34.585
-33.239
-31.827
-30.349
-28.803
-27.189
-25.509
-23.762
-21.952
-20.08
-18.15
-16.166
-14.132
-12.055
-9.942
-7.802
-5.645
-3.483
-1.328
0.808
2.91
4.963
6.948
8.848
10.647
12.329
13.881
15.284
16.525
17.586
18.453
19.118
19.57
19.797
19.787
19.527
19.01
18.244
17.237
15.993
14.512
12.782
10.799
8.569
6.1
3.395
0.459
-2.706
-6.082
-9.625
-13.283
-17
-20.735
-24.478
-28.221
-31.946
-35.605
-39.115
-42.391
-45.389
-48.079
-50.448
-52.461
-54.05
-55.237
-56.188
-57.185
-58.517
-60.322
-62.526
-65.025
-67.857
-71.055
-74.545
-77.936
-80.669
-82.437
-83.293
-83.566
-83.413
-82.749
-81.477
-79.867
-78.427
-77.645
-77.946
-79.15
-81.072
-84.047
-88.366
-94.163
-101.804
-109.99
-115.15
-114.801
-106.455
-90.017
-71.201
-53.306
-35.436
-12.89
28.146
100.377
208.053
349.892
511.952
674.063
818.29
925.142
982.86
985.724
930.855
824.019
672.248
487.688
288.563
93.859
-74.609
-201.386
-280.162
-313.076
-310.015
-281.004
-236.296
-185.322
-137.049
-100.219
-78.549
-70.507
-69.527
-69.011
-66.738
-64.03
-65.469
-73.616
-87.01
-102.771
-116.817
-126.467
-131.488
-132.23
-129.393
-124.03
-117.074
-109.538
-102.706
-97.455
-94.095
-92.758
-93.323
-95.458
-98.847
-103.048
-107.461
-111.67
-115.428
-118.578
-121.115
-123.051
-124.358
-125.062
-125.221
-124.871
-124.057
-122.81
-121.13
-119.044
-116.594
-113.841
-110.862
-107.729
-104.507
-101.243
-97.969
-94.706
-91.47
-88.265
-85.086
-81.922
-78.751
-75.559
-72.332
-69.049
-65.694
-62.245
-58.678
-54.972
-51.108
-47.072
-42.852
-38.44
-33.833
-29.029
-24.023
-18.808
-13.374
-7.723
-1.868
4.17
10.373
16.723
23.202
29.784
36.431
43.118
49.833
56.581
63.372
70.198
77.031
83.829
90.548
97.163
103.669
110.066
116.34
122.476
128.467
134.331
140.101
145.773
151.298
156.579
161.524
166.071
170.186
173.857
177.062
179.762
181.908
183.462
184.406
184.717
184.354
183.241
181.295
178.482
174.846
170.484
165.495
159.943
153.873
147.32
140.34
133.001
125.364
117.471
109.352
101.053
92.649
84.247
75.961
67.863
59.968
52.253
44.7
37.317
30.119
23.122
16.325
9.727
3.343
-2.788
-8.63
-14.16
-19.378
-24.305
-28.962
-33.353
-37.461
-41.256
-44.718
-47.838
-50.608
-53.021
-55.065
-56.734
-58.041
-59.008
-59.661
-60.021
-60.101
-59.91
-59.462
-58.775
-57.871
-56.772
-55.5
-54.075
-52.521
-50.86
-49.12
-47.321
-45.482
-43.616
-41.738
-39.862
-38.003
-36.174
-34.387
-32.652
-30.98
-29.38
-27.862
-26.432
-25.096
-23.857
-22.717
-21.679
-20.742
-19.906
-19.169
-18.527
-17.978
-17.518
-17.143
-16.847
-16.624
-16.47
-16.379
-16.343
-16.357
-16.414
-16.507
-16.631
-16.777
-16.941
-17.117
-17.298
-17.479
-17.657
-17.827
-17.986
-18.129
-18.256
-18.362
-18.446
-18.508
-18.546
-18.562
-18.556
-18.53
-18.485
-18.425
-18.353
-18.271
-18.185
-18.098
-18.014
-17.937
-17.871
-17.822
-17.794
-17.791
-17.818
-17.88
-17.981
-18.125
-18.317
-18.56
-18.857
-19.21
-19.623
-20.098
-20.634
-21.233
-21.895
-22.62
-23.407
-24.253
-25.157
-26.116
-27.125
-28.179
-29.274
-30.403
-31.559
-32.734
-33.921
-35.112
-36.298
-37.47
-38.62
-39.738
-40.814
-41.839
-42.804
-43.698
-44.513
-45.239
-45.867
-46.391
-46.802
-47.095
-47.262
-47.299
-47.202
-46.969
-46.597
-46.084
-45.432
-44.641
-43.714
-42.655
-41.471
-40.166
-38.752
-37.239
-35.64
-33.97
-32.245
-30.481
-28.696
-26.909
-25.138
-23.4
-21.712
-20.09
-18.552
-17.118
-15.807
-14.638
-13.626
-12.788
-12.138
-11.689
-11.454
-11.434
-11.632
-12.051
-12.697
-13.587
-14.738
-16.154
-17.842
-19.801
-22.023
-24.496
-27.198
-30.087
-33.119
-36.251
-39.441
-42.665
-45.895
-49.085
-52.179
-55.11
-57.8
-60.205
-62.28
-63.974
-65.278
-66.202
-66.795
-67.154
-67.362
-67.481
-67.597
-67.801
-68.193
-68.902
-70.011
-71.631
-73.973
-77.152
-81.17
-85.862
-90.776
-95.407
-99.361
-102.142
-103.132
-101.934
-98.452
-93.243
-87.584
-82.691
-79.636
-79.393
-82.799
-90.647
-102.013
-113.514
-121.382
-121.743
-113.817
-100.588
-81.574
-53.38
-9.031
61.328
159.577
280.188
413.766
548.579
676.903
793.738
891.059
956.298
974.743
933.611
829.632
672.371
480.327
279.386
94.326
-56.717
-161.23
-219.526
-237.758
-222.966
-188.807
-144.735
-101.136
-72.672
-63.037
-71.537
-90.918
-105.119
-107.185
-97.208
-79.657
-64.627
-56.381
-53.845
-55.534
-58.612
-61.931
-66
-70.246
-73.825
-76.382
-77.666
-77.615
-76.428
-74.2
-71.173
-68.147
-65.881
-64.711
-64.75
-65.851
-67.727
-70.182
-72.924
-75.508
-77.625
-79.111
-79.898
-80.055
-79.657
-78.739
-77.372
-75.643
-73.602
-71.297
-68.758
-66.004
-63.09
-60.088
-57.069
-54.095
-51.198
-48.395
-45.693
-43.088
-40.569
-38.113
-35.689
-33.276
-30.858
-28.423
-25.957
-23.441
-20.852
-18.165
-15.354
-12.397
-9.274
-5.968
-2.465
1.244
5.163
9.297
13.644
18.206
22.984
27.979
33.189
38.612
44.24
50.069
56.087
62.283
68.64
75.14
81.763
88.486
95.285
102.134
109.005
115.87
122.698
129.457
136.118
142.646
149.009
155.175
161.111
166.785
172.167
177.227
181.936
186.267
190.195
193.698
196.755
199.347
201.458
203.074
204.183
204.777
204.849
204.396
203.417
201.915
199.896
197.367
194.34
190.829
186.852
182.427
177.576
172.324
166.696
160.721
154.426
147.843
141.005
133.944
126.693
119.286
111.759
104.144
96.475
88.785
81.107
73.473
65.911
58.452
51.123
43.951
36.96
30.173
23.611
17.293
11.237
5.458
-0.03
-5.218
-10.095
-14.655
-18.894
-22.807
-26.395
-29.659
-32.601
-35.227
-37.542
-39.555
-41.274
-42.711
-43.878
-44.785
-45.448
-45.88
-46.095
-46.109
-45.935
-45.59
-45.088
-44.444
-43.673
-42.789
-41.806
-40.738
-39.597
-38.397
-37.148
-35.861
-34.548
-33.217
-31.877
-30.538
-29.206
-27.888
-26.59
-25.317
-24.074
-22.863
-21.689
-20.554
-19.459
-18.406
-17.396
-16.429
-15.505
-14.624
-13.785
-12.989
-12.235
-11.522
-10.849
-10.217
-9.624
-9.07
-8.556
-8.08
-7.643
-7.246
-6.888
-6.57
-6.292
-6.056
-5.861
-5.708
-5.598
-5.532
-5.511
-5.535
-5.605
-5.722
-5.886
-6.1
-6.364
-6.678
-7.044
-7.461
-7.93
-8.452
-9.026
-9.651
-10.328
-11.055
-11.83
-12.652
-13.52
-14.431
-15.381
-16.368
-17.388
-18.437
-19.51
-20.604
-21.713
-22.832
-23.956
-25.079
-26.197
-27.304
-28.393
-29.46
-30.498
-31.5
-32.462
-33.375
-34.233
-35.029
-35.758
-36.412
-36.985
-37.472
-37.866
-38.162
-38.355
-38.44
-38.412
-38.267
-38
-37.609
-37.091
-36.446
-35.672
-34.769
-33.738
-32.581
-31.3
-29.9
-28.383
-26.753
-25.017
-23.181
-21.253
-19.24
-17.151
-14.998
-12.793
-10.551
-8.287
-6.017
-3.758
-1.526
0.66
2.784
4.83
6.784
8.633
10.361
11.952
13.391
14.664
15.756
16.655
17.35
17.829
18.086
18.12
17.934
17.529
16.902
16.042
14.939
13.589
11.993
10.147
8.062
5.747
3.227
0.551
-2.235
-5.086
-7.956
-10.818
-13.636
-16.358
-18.929
-21.289
-23.379
-25.157
-26.578
-27.592
-28.201
-28.447
-28.412
-28.212
-27.928
-27.627
-27.41
-27.361
-27.523
-27.92
-28.546
-29.467
-30.896
-32.986
-35.761
-39.245
-43.4
-48.04
-52.821
-57.074
-59.784
-60.986
-61.782
-62.776
-63.891
-62.39
-54.005
-38.01
-17.917
-1.352
3.453
-5.779
-25.43
-48.355
-68.035
-81.186
-83.931
-70.605
-31.489
44.31
159.96
312.191
488.763
670.43
839.875
977.858
1067.455
1097.348
1058.278
951.286
786.894
582.484
365.409
162.866
-2.749
-115.596
-175.879
-192.206
-176.302
-144.48
-105.342
-65.602
-34.408
-12.867
-2.726
-3.02
-5.122
-6.549
-7.255
-7.762
-13.144
-24.328
-38.382
-52.817
-64.333
-71.111
-73.548
-72.229
-67.916
-61.707
-54.784
-48.272
-42.989
-39.432
-37.723
-37.788
-39.518
-42.645
-46.732
-51.284
-55.914
-60.338
-64.369
-67.933
-70.951
-73.367
-75.185
-76.432
-77.125
-77.29
-76.954
-76.124
-74.832
-73.121
-71.032
-68.632
-65.993
-63.186
-60.294
-57.373
-54.461
-51.589
-48.775
-46.024
-43.339
-40.706
-38.101
-35.508
-32.909
-30.29
-27.637
-24.928
-22.14
-19.252
-16.244
-13.097
-9.799
-6.334
-2.691
1.139
5.16
9.376
13.784
18.386
23.18
28.167
33.342
38.701
44.238
49.944
55.81
61.825
67.973
74.237
80.598
87.033
93.522
100.039
106.558
113.052
119.492
125.849
132.093
138.194
144.12
149.841
155.323
160.537
165.451
170.036
174.262
178.102
181.53
184.521
187.053
189.105
190.661
191.704
192.221
192.202
191.639
190.527
188.864
186.65
183.891
180.592
176.764
172.419
167.574
162.246
156.456
150.228
143.584
136.554
129.164
121.446
113.43
105.151
96.642
87.937
79.073
70.085
61.008
51.879
42.733
33.605
24.527
15.533
6.655
-2.078
-10.636
-18.993
-27.123
-35.003
-42.611
-49.928
-56.936
-63.621
-69.97
-75.973
-81.622
-86.91
-91.834
-96.391
-100.583
-104.411
-107.878
-110.992
-113.758
-116.185
-118.286
-120.07
-121.551
-122.742
-123.66
-124.319
-124.735
-124.926
-124.908
-124.698
-124.314
-123.773
-123.093
-122.29
-121.382
-120.386
-119.316
-118.189
-117.018
-115.819
-114.604
-113.386
-112.175
-110.983
-109.819
-108.692
-107.61
-106.582
-105.612
-104.707
-103.872
-103.109
-102.424
-101.817
-101.291
-100.847
-100.485
-100.206
-100.009
-99.893
-99.858
-99.901
-100.021
-100.215
-100.481
-100.816
-101.217
-101.681
-102.203
-102.782
-103.413
-104.092
-104.817
-105.583
-106.388
-107.227
-108.098
-108.996
-109.919
-110.863
-111.825
-112.803
-113.793
-114.795
-115.804
-116.82
-117.84
-118.864
-119.888
-120.911
-121.932
-122.95
-123.962
-124.969
-125.969
-126.96
-127.942
-128.915
-129.876
-130.826
-131.763
-132.684
-133.589
-134.478
-135.348
-136.201
-137.035
-137.85
-138.644
-139.417
-140.169
-140.898
-141.602
-142.277
-142.92
-143.531
-144.106
-144.646
-145.149
-145.609
-146.021
-146.381
-146.684
-146.925
-147.101
-147.206
-147.233
-147.18
-147.047
-146.834
-146.545
-146.174
-145.719
-145.176
-144.538
-143.815
-143.017
-142.152
-141.239
-140.268
-139.231
-138.137
-136.989
-135.796
-134.589
-133.334
-131.993
-130.65
-129.368
-128.221
-127.319
-126.57
-125.838
-125.186
-124.656
-124.089
-123.41
-122.418
-120.846
-118.972
-117.117
-115.288
-113.572
-112.18
-111.183
-110.918
-111.777
-113.407
-115.452
-117.861
-120.456
-123.125
-125.869
-128.372
-130.3
-131.91
-133.42
-134.874
-136.406
-137.952
-139.419
-140.952
-142.686
-144.511
-146.304
-147.937
-149.236
-150.175
-150.761
-150.951
-150.703
-149.972
-148.802
-147.346
-145.887
-144.81
-144.33
-144.444
-145.105
-146.268
-147.902
-150.006
-152.217
-153.697
-153.848
-152.453
-149.579
-145.563
-140.487
-134.199
-127.098
-120.444
-115.559
-113.434
-114.638
-119.182
-127.332
-139.796
-155.611
-171.432
-183.782
-189.121
-187.195
-181.936
-173.655
-159.118
-130.073
-73.884
13.932
129.878
264.473
403.632
539.952
669.951
787.603
884.465
943.914
948.027
889.337
769.815
604.574
417.708
230.703
63.575
-68.331
-158.258
-203.714
-207.93
-182.794
-142.865
-103.286
-79.397
-75.914
-89.002
-110.66
-127.669
-133.906
-130.643
-121.562
-114.001
-111.349
-112.384
-115.385
-117.573
-117.398
-115.428
-112.469
-109.122
-105.843
-102.714
-99.587
-96.703
-94.605
-93.503
-93.443
-94.429
-96.255
-98.839
-102.271
-106.385
-110.808
-115.216
-119.284
-122.811
-125.78
-128.14
-129.808
-130.76
-131.01
-130.614
-129.667
-128.236
-126.346
-124.028
-121.315
-118.267
-114.969
-111.507
-107.961
-104.387
-100.813
-97.263
-93.746
-90.265
-86.814
-83.369
-79.896
-76.372
-72.778
-69.101
-65.334
-61.456
-57.443
-53.274
-48.928
-44.389
-39.648
-34.693
-29.517
-24.115
-18.487
-12.636
-6.57
-0.293
6.189
12.871
19.747
26.806
34.038
41.428
48.962
56.624
64.392
72.244
80.156
88.101
96.053
103.981
111.857
119.649
127.325
134.853
142.202
149.339
156.231
162.846
169.156
175.128
180.736
185.951
190.748
195.103
198.996
202.407
205.32
207.72
209.596
210.938
211.742
212.004
211.724
210.903
209.548
207.667
205.272
202.376
198.997
195.155
190.871
186.171
181.079
175.626
169.841
163.755
157.4
150.809
144.017
137.058
129.965
122.773
115.515
108.226
100.936
93.678
86.481
79.374
72.385
65.539
58.86
52.369
46.086
40.029
34.215
28.656
23.364
18.349
13.618
9.177
5.029
1.175
-2.385
-5.654
-8.637
-11.338
-13.766
-15.929
-17.837
-19.5
-20.931
-22.14
-23.14
-23.944
-24.565
-25.015
-25.309
-25.458
-25.475
-25.371
-25.158
-24.847
-24.447
-23.969
-23.419
-22.806
-22.138
-21.419
-20.656
-19.854
-19.017
-18.148
-17.25
-16.324
-15.373
-14.396
-13.394
-12.366
-11.312
-10.23
-9.121
-7.982
-6.813
-5.612
-4.379
-3.114
-1.817
-0.487
0.875
2.267
3.689
5.138
6.61
8.103
9.613
11.136
12.665
14.197
15.725
17.243
18.746
20.226
21.677
23.093
24.467
25.791
27.058
28.262
29.396
30.452
31.424
32.307
33.094
33.781
34.362
34.835
35.194
35.438
35.565
35.573
35.461
35.23
34.881
34.415
33.836
33.147
32.352
31.458
30.469
29.393
28.236
27.006
25.71
24.358
22.957
21.517
20.048
18.559
17.059
15.561
14.074
12.607
11.173
9.78
8.439
7.158
5.948
4.816
3.773
2.826
1.982
1.25
0.636
0.146
-0.213
-0.437
-0.523
-0.468
-0.268
0.077
0.567
1.203
1.983
2.905
3.968
5.166
6.496
7.952
9.527
11.214
13.003
14.882
16.839
18.861
20.933
23.039
25.166
27.298
29.42
31.518
33.578
35.585
37.525
39.381
41.138
42.778
44.287
45.651
46.857
47.896
48.757
49.439
49.937
50.246
50.358
50.256
49.928
49.366
48.564
47.52
46.241
44.74
43.039
41.176
39.191
37.119
34.989
32.827
30.656
28.518
26.463
24.544
22.812
21.298
20.025
19.038
18.349
17.936
17.739
17.65
17.555
17.41
17.177
16.697
15.802
14.315
12.049
8.993
5.147
0.364
-5.415
-11.868
-18.495
-24.614
-29.491
-32.881
-34.588
-34.173
-31.495
-27.14
-22.192
-18.126
-16.304
-17.22
-21.268
-29.01
-40.593
-53.914
-64.827
-69.314
-63.341
-47.052
-24.231
5.718
44.424
96.203
170.587
268.674
387.312
522.443
661.463
794.62
911.677
995.483
1031.401
1005.589
911.217
756.792
562.106
356.005
167.754
18.83
-80.154
-132.76
-150.6
-148.332
-139.344
-128.296
-114.67
-95.831
-68.766
-35.99
-2.992
25.076
43.658
51.615
50.283
41.351
27.22
10.444
-6.603
-21.534
-32.643
-39.287
-41.468
-39.622
-34.601
-27.439
-19.394
-11.864
-5.81
-1.66
0.488
0.812
-0.395
-2.841
-6.096
-9.618
-12.997
-15.973
-18.42
-20.355
-21.798
-22.742
-23.204
-23.221
-22.837
-22.097
-21.033
-19.653
-17.977
-16.041
-13.896
-11.611
-9.254
-6.888
-4.556
-2.285
-0.091
2.015
4.028
5.95
7.797
9.594
11.362
13.121
14.89
16.684
18.53
20.457
22.492
24.66
26.979
29.465
32.134
35.001
38.075
41.364
44.87
48.593
52.535
56.696
61.074
65.665
70.464
75.461
80.646
86.008
91.531
97.2
102.994
108.89
114.864
120.893
126.948
133
139.02
144.977
150.839
156.574
162.15
167.533
172.692
177.595
182.21
186.507
190.457
194.034
197.211
199.965
202.276
204.124
205.493
206.369
206.741
206.602
205.944
204.766
203.067
200.85
198.121
194.888
191.162
186.958
182.292
177.184
171.654
165.727
159.426
152.781
145.819
138.569
131.063
123.333
115.411
107.33
99.124
90.824
82.463
74.074
65.688
57.335
49.045
40.844
32.759
24.815
17.035
9.439
2.049
-5.12
-12.051
-18.73
-25.146
-31.287
-37.147
-42.719
-47.998
-52.983
-57.672
-62.066
-66.168
-69.982
-73.513
-76.768
-79.754
-82.48
-84.956
-87.193
-89.202
-90.994
-92.582
-93.978
-95.195
-96.244
-97.139
-97.89
-98.51
-99.009
-99.398
-99.688
-99.887
-100.004
-100.049
-100.029
-99.951
-99.822
-99.648
-99.434
-99.186
-98.908
-98.604
-98.277
-97.931
-97.569
-97.193
-96.804
-96.405
-95.998
-95.583
-95.162
-94.735
-94.304
-93.869
-93.432
-92.992
-92.551
-92.111
-91.673
-91.238
-90.808
-90.386
-89.973
-89.572
-89.185
-88.815
-88.463
-88.134
-87.829
-87.552
-87.304
-87.088
-86.906
-86.76
-86.652
-86.583
-86.553
-86.564
-86.615
-86.708
-86.84
-87.012
-87.222
-87.468
-87.749
-88.062
-88.404
-88.771
-89.159
-89.564
-89.981
-90.404
-90.829
-91.251
-91.662
-92.058
-92.432
-92.776
-93.085
-93.352
-93.569
-93.73
-93.827
-93.854
-93.804
-93.673
-93.454
-93.143
-92.734
-92.223
-91.607
-90.882
-90.046
-89.095
-88.03
-86.848
-85.55
-84.138
-82.614
-80.979
-79.238
-77.394
-75.454
-73.423
-71.306
-69.111
-66.845
-64.516
-62.133
-59.707
-57.249
-54.77
-52.287
-49.813
-47.366
-44.96
-42.613
-40.34
-38.158
-36.082
-34.124
-32.294
-30.607
-29.073
-27.708
-26.524
-25.532
-24.741
-24.159
-23.792
-23.647
-23.725
-24.02
-24.526
-25.241
-26.169
-27.326
-28.722
-30.359
-32.236
-34.346
-36.677
-39.216
-41.931
-44.772
-47.688
-50.629
-53.55
-56.428
-59.225
-61.893
-64.368
-66.572
-68.439
-69.925
-70.989
-71.608
-71.785
-71.543
-70.949
-70.108
-69.131
-68.139
-67.261
-66.613
-66.306
-66.435
-67.128
-68.576
-70.921
-74.195
-78.236
-82.708
-87.256
-91.58
-95.307
-97.905
-98.856
-97.896
-95.407
-92.244
-89.215
-87.11
-86.595
-88.318
-93.302
-101.158
-108.762
-112.744
-109.952
-99.725
-86.434
-72.658
-55.903
-29.688
17.625
95.596
203.938
336.642
482.881
627.933
760.955
870.382
942.84
968.292
938.401
852.102
716.731
545.485
356.643
169.112
1.913
-130.113
-219.633
-265.831
-276.197
-261.728
-231.146
-192.938
-153.784
-117.17
-88.383
-69.465
-57.491
-51.389
-48.442
-47.432
-51.666
-62.034
-77.829
-97.238
-116.034
-130.992
-140.98
-145.897
-146.397
-143.402
-137.778
-130.465
-122.693
-115.829
-110.65
-107.413
-106.154
-106.577
-108.358
-111.254
-114.83
-118.553
-122.076
-125.163
-127.696
-129.718
-131.242
-132.238
-132.722
-132.724
-132.268
-131.401
-130.148
-128.511
-126.512
-124.183
-121.569
-118.738
-115.757
-112.685
-109.569
-106.433
-103.295
-100.171
-97.065
-93.975
-90.888
-87.778
-84.625
-81.413
-78.124
-74.744
-71.251
-67.62
-63.83
-59.861
-55.7
-51.336
-46.759
-41.963
-36.942
-31.699
-26.235
-20.558
-14.675
-8.592
-2.318
4.136
10.76
17.537
24.451
31.486
38.622
45.835
53.102
60.397
67.692
74.958
82.167
89.285
96.283
103.127
109.784
116.221
122.406
128.305
133.887
139.121
143.977
148.428
152.447
156.011
159.098
161.687
163.762
165.309
166.315
166.771
166.671
166.011
164.79
163.01
160.678
157.801
154.389
150.456
146.02
141.097
135.71
129.882
123.638
117.005
110.013
102.693
95.077
87.197
79.089
70.788
62.328
53.746
45.075
36.353
27.612
18.886
10.209
1.611
-6.877
-15.226
-23.408
-31.398
-39.171
-46.707
-53.985
-60.988
-67.701
-74.108
-80.201
-85.968
-91.402
-96.498
-101.252
-105.663
-109.73
-113.455
-116.843
-119.897
-122.625
-125.035
-127.136
-128.94
-130.457
-131.699
-132.681
-133.414
-133.914
-134.195
-134.271
-134.158
-133.87
-133.422
-132.829
-132.106
-131.265
-130.321
-129.285
-128.17
-126.986
-125.744
-124.453
-123.123
-121.762
-120.379
-118.979
-117.571
-116.159
-114.75
-113.347
-111.955
-110.578
-109.218
-107.879
-106.563
-105.271
-104.007
-102.771
-101.565
-100.391
-99.249
-98.14
-97.064
-96.023
-95.016
-94.043
-93.106
-92.205
-91.341
-90.516
-89.73
-88.986
-88.285
-87.629
-87.02
-86.459
-85.949
-85.491
-85.086
-84.737
-84.445
-84.211
-84.037
-83.923
-83.87
-83.876
-83.943
-84.067
-84.248
-84.482
-84.768
-85.102
-85.481
-85.901
-86.359
-86.849
-87.367
-87.909
-88.467
-89.036
-89.609
-90.178
-90.735
-91.272
-91.781
-92.253
-92.681
-93.056
-93.368
-93.61
-93.775
-93.852
-93.836
-93.717
-93.49
-93.149
-92.688
-92.105
-91.397
-90.561
-89.599
-88.509
-87.296
-85.96
-84.506
-82.937
-81.259
-79.478
-77.601
-75.638
-73.598
-71.494
-69.341
-67.154
-64.951
-62.749
-60.567
-58.423
-56.337
-54.325
-52.403
-50.586
-48.89
-47.332
-45.928
-44.694
-43.644
-42.789
-42.14
-41.706
-41.497
-41.513
-41.753
-42.212
-42.893
-43.802
-44.954
-46.361
-48.026
-49.948
-52.125
-54.549
-57.208
-60.076
-63.104
-66.238
-69.428
-72.628
-75.802
-78.904
-81.873
-84.637
-87.119
-89.242
-90.959
-92.232
-93.023
-93.322
-93.138
-92.502
-91.51
-90.286
-88.957
-87.661
-86.517
-85.617
-85.098
-85.167
-85.994
-87.654
-90.054
-92.921
-95.987
-99.062
-101.87
-103.944
-104.82
-104.217
-102.35
-99.937
-97.665
-96.175
-96.152
-98.354
-103.715
-111.708
-119.654
-124.829
-124.479
-119.004
-112.506
-104.98
-92.909
-67.839
-16.958
64.014
171.559
296.926
426.857
553.954
674.183
780.523
863.785
909.875
905.679
847.881
741.12
598.45
437.824
275.445
128.433
10.991
-70.069
-113.307
-125.865
-119.739
-103.529
-84.557
-67.991
-55.144
-49.2
-50.635
-54.842
-58.694
-58.32
-52.287
-44.38
-37.028
-31.624
-28.646
-26.553
-24.953
-24.464
-25.565
-28.494
-32.688
-37.339
-41.789
-45.53
-48.248
-49.704
-49.785
-48.796
-47.398
-46.123
-45.375
-45.359
-46.019
-47.243
-48.871
-50.616
-52.112
-53.112
-53.476
-53.151
-52.203
-50.705
-48.721
-46.339
-43.649
-40.709
-37.558
-34.232
-30.757
-27.181
-23.573
-19.98
-16.44
-12.978
-9.603
-6.315
-3.113
0.024
3.123
6.201
9.274
12.352
15.44
18.553
21.707
24.92
28.213
31.605
35.113
38.753
42.538
46.478
50.577
54.838
59.26
63.843
68.589
73.495
78.562
83.784
89.156
94.671
100.317
106.083
111.952
117.906
123.925
129.988
136.071
142.151
148.2
154.192
160.098
165.89
171.536
177.007
182.272
187.3
192.062
196.528
200.67
204.461
207.877
210.894
213.491
215.649
217.352
218.587
219.341
219.606
219.377
218.652
217.429
215.714
213.512
210.832
207.688
204.094
200.069
195.633
190.809
185.622
180.101
174.273
168.171
161.826
155.272
148.544
141.676
134.705
127.666
120.594
113.525
106.491
99.528
92.665
85.935
79.365
72.983
66.814
60.882
55.207
49.809
44.703
39.903
35.422
31.269
27.449
23.968
20.827
18.025
15.559
13.425
11.616
10.122
8.932
8.035
7.416
7.06
6.95
7.069
7.398
7.919
8.613
9.46
10.441
11.537
12.728
13.996
15.323
16.69
18.081
19.48
20.871
22.239
23.572
24.857
26.083
27.239
28.317
29.309
30.21
31.012
31.714
32.31
32.801
33.185
33.462
33.633
33.701
33.666
33.534
33.306
32.987
32.582
32.094
31.529
30.891
30.185
29.416
28.589
27.709
26.78
25.808
24.796
23.749
22.672
21.568
20.442
19.297
18.137
16.965
15.784
14.596
13.403
12.207
11.011
9.814
8.619
7.426
6.238
5.054
3.876
2.705
1.542
0.389
-0.751
-1.879
-2.991
-4.085
-5.159
-6.21
-7.234
-8.227
-9.188
-10.11
-10.99
-11.825
-12.608
-13.337
-14.008
-14.615
-15.156
-15.624
-16.017
-16.33
-16.558
-16.698
-16.746
-16.696
-16.548
-16.296
-15.941
-15.479
-14.909
-14.232
-13.446
-12.555
-11.559
-10.462
-9.267
-7.978
-6.602
-5.146
-3.618
-2.027
-0.384
1.298
3.004
4.72
6.431
8.119
9.768
11.361
12.881
14.313
15.641
16.849
17.924
18.848
19.602
20.172
20.544
20.703
20.64
20.34
19.794
19.001
17.96
16.668
15.12
13.301
11.198
8.811
6.141
3.19
-0.026
-3.493
-7.185
-11.052
-15.047
-19.121
-23.227
-27.338
-31.421
-35.424
-39.289
-42.941
-46.311
-49.361
-52.055
-54.352
-56.245
-57.747
-58.912
-59.852
-60.663
-61.422
-62.218
-63.132
-64.254
-65.696
-67.537
-69.875
-72.858
-76.558
-80.964
-85.933
-91.146
-96.242
-100.876
-104.588
-106.817
-107.081
-105.157
-101.388
-96.478
-91.089
-85.973
-81.849
-79.514
-80.165
-83.381
-86.237
-86.003
-79.771
-67.119
-52.617
-37.919
-20.935
3.45
47.343
119.985
223.27
355.45
504.929
655.572
792.1
896.357
956.34
965.189
919.741
825.902
689.647
521.493
339.044
159.256
4.811
-104.9
-164.551
-175.92
-152.297
-113.894
-73.951
-43.732
-29.108
-26.807
-33.138
-41.249
-44.534
-42.738
-38.288
-36.148
-39.933
-48.915
-60.307
-70.559
-77.835
-82.305
-84.397
-84.402
-82.541
-79.117
-74.964
-71.19
-68.376
-66.654
-66.087
-66.744
-68.665
-71.804
-75.856
-80.317
-84.843
-89.248
-93.374
-97.11
-100.343
-102.967
-104.957
-106.359
-107.204
-107.513
-107.307
-106.596
-105.408
-103.791
-101.791
-99.456
-96.845
-94.017
-91.036
-87.966
-84.853
-81.725
-78.602
-75.492
-72.397
-69.309
-66.213
-63.091
-59.926
-56.705
-53.412
-50.035
-46.555
-42.956
-39.223
-35.343
-31.304
-27.099
-22.719
-18.163
-13.429
-8.519
-3.438
1.809
7.214
12.773
18.476
24.316
30.282
36.363
42.546
48.816
55.158
61.552
67.978
74.414
80.837
87.223
93.545
99.778
105.894
111.867
117.668
123.271
128.648
133.772
138.617
143.159
147.373
151.236
154.728
157.829
160.521
162.79
164.621
166.004
166.928
167.387
167.376
166.892
165.935
164.508
162.613
160.259
157.453
154.209
150.539
146.461
141.992
137.153
131.967
126.458
120.65
114.572
108.249
101.712
94.989
88.109
81.103
74.001
66.832
59.625
52.408
45.21
38.058
30.975
23.988
17.119
10.389
3.82
-2.571
-8.766
-14.75
-20.508
-26.03
-31.304
-36.321
-41.076
-45.563
-49.779
-53.724
-57.397
-60.802
-63.941
-66.82
-69.447
-71.828
-73.973
-75.892
-77.597
-79.1
-80.412
-81.548
-82.52
-83.342
-84.028
-84.59
-85.043
-85.4
-85.672
-85.873
-86.014
-86.107
-86.162
-86.189
-86.199
-86.199
-86.199
-86.205
-86.223
-86.261
-86.323
-86.413
-86.535
-86.691
-86.885
-87.116
-87.387
-87.696
-88.044
-88.43
-88.852
-89.308
-89.796
-90.314
-90.858
-91.427
-92.016
-92.625
-93.249
-93.886
-94.534
-95.191
-95.854
-96.521
-97.191
-97.862
-98.534
-99.204
-99.873
-100.541
-101.205
-101.868
-102.528
-103.185
-103.84
-104.493
-105.143
-105.792
-106.438
-107.083
-107.727
-108.369
-109.009
-109.648
-110.285
-110.92
-111.55
-112.177
-112.797
-113.41
-114.015
-114.609
-115.191
-115.758
-116.307
-116.837
-117.344
-117.824
-118.274
-118.689
-119.065
-119.398
-119.683
-119.917
-120.095
-120.213
-120.267
-120.255
-120.173
-120.018
-119.787
-119.479
-119.091
-118.622
-118.073
-117.444
-116.735
-115.948
-115.086
-114.152
-113.149
-112.083
-110.957
-109.775
-108.544
-107.27
-105.959
-104.619
-103.257
-101.885
-100.515
-99.16
-97.834
-96.552
-95.327
-94.175
-93.11
-92.143
-91.284
-90.54
-89.919
-89.43
-89.085
-88.889
-88.85
-88.974
-89.263
-89.722
-90.352
-91.147
-92.097
-93.193
-94.428
-95.806
-97.344
-99.051
-100.932
-102.988
-105.215
-107.607
-110.15
-112.81
-115.533
-118.266
-120.957
-123.567
-126.065
-128.408
-130.541
-132.397
-133.896
-134.968
-135.56
-135.639
-135.194
-134.257
-132.878
-131.13
-129.131
-126.997
-124.859
-122.83
-120.943
-119.205
-117.699
-116.618
-116.197
-116.62
-117.865
-119.796
-122.411
-125.585
-128.865
-131.537
-132.702
-132.478
-132.309
-133.377
-135.888
-137.156
-133.136
-122.592
-107.544
-95.211
-93.518
-105.991
-132.217
-165.014
-194.618
-210.677
-201.698
-159.36
-78.617
39.304
187.043
352.715
521.548
679.652
811.127
902.519
944.063
928.855
860.171
745.332
594.276
422.118
242.74
72.509
-69.889
-171.452
-225.41
-232.681
-205.704
-160.818
-113.444
-79.29
-63.819
-64.306
-74.604
-82.454
-81.746
-73.547
-61.621
-53.858
-53.979
-60.625
-71.252
-81.839
-89.96
-95.32
-97.719
-97.313
-94.421
-89.357
-82.819
-75.69
-68.85
-62.898
-58.223
-55.068
-53.43
-53.179
-54.083
-55.792
-57.876
-60.014
-61.966
-63.534
-64.651
-65.277
-65.377
-64.965
-64.075
-62.726
-60.945
-58.762
-56.19
-53.252
-49.991
-46.445
-42.672
-38.739
-34.706
-30.635
-26.57
-22.537
-18.553
-14.627
-10.76
-6.946
-3.169
0.592
4.355
8.137
11.951
15.813
19.745
23.766
27.895
32.149
36.54
41.078
45.773
50.63
55.652
60.839
66.188
71.692
77.348
83.15
89.091
95.163
101.357
107.659
114.057
120.538
127.083
133.674
140.29
146.907
153.501
160.048
166.52
172.89
179.131
185.212
191.107
196.786
202.22
207.381
212.241
216.774
220.952
224.752
228.15
231.125
233.657
235.728
237.323
238.427
239.03
239.123
238.698
237.75
236.279
234.285
231.77
228.74
225.204
221.172
216.658
211.679
206.252
200.399
194.142
187.505
180.516
173.201
165.589
157.712
149.599
141.282
132.794
124.167
115.434
106.627
97.778
88.919
80.08
71.292
62.583
53.981
45.513
37.204
29.079
21.16
13.469
6.025
-1.155
-8.054
-14.658
-20.956
-26.937
-32.593
-37.919
-42.91
-47.564
-51.881
-55.862
-59.511
-62.833
-65.834
-68.521
-70.906
-72.996
-74.805
-76.344
-77.626
-78.664
-79.473
-80.067
-80.46
-80.667
-80.703
-80.583
-80.321
-79.932
-79.432
-78.834
-78.152
-77.4
-76.592
-75.739
-74.854
-73.948
-73.031
-72.113
-71.202
-70.305
-69.43
-68.583
-67.767
-66.986
-66.244
-65.543
-64.882
-64.263
-63.684
-63.145
-62.644
-62.179
-61.747
-61.346
-60.971
-60.621
-60.29
-59.975
-59.672
-59.377
-59.085
-58.791
-58.491
-58.179
-57.853
-57.505
-57.133
-56.731
-56.295
-55.821
-55.305
-54.745
-54.136
-53.478
-52.767
-52.003
-51.184
-50.311
-49.383
-48.401
-47.366
-46.28
-45.144
-43.96
-42.731
-41.46
-40.149
-38.801
-37.419
-36.007
-34.568
-33.104
-31.62
-30.117
-28.599
-27.068
-25.529
-23.983
-22.434
-20.885
-19.339
-17.799
-16.268
-14.748
-13.242
-11.751
-10.277
-8.822
-7.387
-5.972
-4.58
-3.211
-1.864
-0.541
0.759
2.034
3.286
4.513
5.717
6.896
8.051
9.18
10.282
11.355
12.397
13.401
14.362
15.274
16.13
16.923
17.646
18.29
18.85
19.32
19.697
19.977
20.157
20.229
20.188
20.027
19.741
19.327
18.78
18.096
17.273
16.318
15.235
14.026
12.69
11.213
9.582
7.791
5.835
3.713
1.434
-0.989
-3.532
-6.149
-8.792
-11.418
-13.984
-16.464
-18.831
-21.041
-23.048
-24.792
-26.211
-27.27
-27.928
-28.156
-27.968
-27.407
-26.556
-25.546
-24.483
-23.471
-22.64
-22.095
-21.947
-22.32
-23.274
-24.913
-27.449
-30.977
-35.47
-40.8
-46.539
-52.181
-57.336
-61.415
-63.651
-63.628
-61.268
-56.844
-51.322
-45.926
-41.719
-39.938
-42.175
-48.189
-55.547
-61.945
-64.036
-60.92
-56.713
-52.248
-44.566
-27.467
12.967
87.121
196.152
337.139
497.466
660.386
812.43
936.819
1017.711
1042.835
1001.515
892.742
726.806
523.388
310.477
116.144
-36.702
-135.523
-180.988
-181.514
-153.408
-114.032
-75.804
-50.274
-39.959
-40.785
-47.719
-51.22
-47.363
-38.439
-28.08
-22.71
-25.005
-33.108
-44.345
-55.219
-63.63
-69.329
-72.236
-72.49
-70.422
-66.463
-61.348
-55.935
-51.052
-47.224
-44.76
-43.847
-44.432
-46.347
-49.339
-53.029
-56.986
-60.875
-64.434
-67.497
-70.018
-71.966
-73.325
-74.113
-74.36
-74.109
-73.404
-72.28
-70.756
-68.862
-66.637
-64.144
-61.461
-58.667
-55.842
-53.042
-50.303
-47.651
-45.099
-42.656
-40.322
-38.082
-35.91
-33.791
-31.709
-29.651
-27.605
-25.549
-23.456
-21.304
-19.069
-16.734
-14.284
-11.705
-8.985
-6.115
-3.092
0.088
3.422
6.912
10.558
14.36
18.316
22.424
26.677
31.069
35.593
40.237
44.99
49.834
54.752
59.724
64.729
69.745
74.747
79.708
84.602
89.402
94.078
98.602
102.945
107.076
110.968
114.592
117.922
120.931
123.595
125.892
127.8
129.302
130.381
131.023
131.216
130.951
130.22
129.02
127.347
125.203
122.591
119.517
115.989
112.02
107.623
102.816
97.617
92.047
86.132
79.896
73.366
66.573
59.545
52.315
44.914
37.376
29.733
22.019
14.266
6.507
-1.229
-8.909
-16.505
-23.991
-31.339
-38.526
-45.529
-52.328
-58.903
-65.238
-71.318
-77.13
-82.664
-87.911
-92.864
-97.519
-101.872
-105.925
-109.676
-113.131
-116.293
-119.17
-121.769
-124.099
-126.172
-128
-129.595
-130.971
-132.141
-133.12
-133.923
-134.564
-135.057
-135.416
-135.655
-135.785
-135.82
-135.769
-135.644
-135.454
-135.208
-134.912
-134.573
-134.197
-133.788
-133.35
-132.887
-132.4
-131.889
-131.357
-130.803
-130.225
-129.623
-128.995
-128.338
-127.65
-126.928
-126.169
-125.371
-124.53
-123.643
-122.708
-121.724
-120.688
-119.601
-118.46
-117.268
-116.024
-114.731
-113.391
-112.008
-110.586
-109.128
-107.642
-106.132
-104.606
-103.07
-101.532
-100.001
-98.484
-96.991
-95.53
-94.109
-92.737
-91.424
-90.176
-89.003
-87.911
-86.908
-85.999
-85.192
-84.491
-83.899
-83.421
-83.059
-82.812
-82.682
-82.667
-82.765
-82.972
-83.285
-83.699
-84.206
-84.802
-85.478
-86.225
-87.034
-87.896
-88.8
-89.734
-90.688
-91.648
-92.601
-93.537
-94.442
-95.304
-96.111
-96.852
-97.515
-98.089
-98.565
-98.932
-99.182
-99.307
-99.3
-99.157
-98.874
-98.448
-97.878
-97.166
-96.311
-95.319
-94.192
-92.936
-91.556
-90.06
-88.455
-86.752
-84.961
-83.092
-81.159
-79.178
-77.165
-75.14
-73.119
-71.12
-69.162
-67.268
-65.456
-63.742
-62.142
-60.666
-59.329
-58.148
-57.136
-56.303
-55.657
-55.203
-54.944
-54.889
-55.041
-55.399
-55.949
-56.679
-57.579
-58.654
-59.915
-61.371
-63.018
-64.847
-66.849
-69.018
-71.34
-73.789
-76.312
-78.849
-81.342
-83.742
-86.022
-88.16
-90.116
-91.844
-93.261
-94.27
-94.818
-94.878
-94.424
-93.493
-92.083
-90.143
-87.819
-85.374
-83.047
-81.128
-79.704
-78.579
-77.795
-77.693
-78.311
-79.441
-80.674
-81.16
-80.539
-79.162
-76.966
-73.421
-68.333
-61.861
-54.79
-48.877
-45.449
-44.875
-47.712
-55.009
-66.501
-79.976
-92.643
-100.617
-102.378
-101.402
-99.421
-93.734
-77.686
-38.719
33.294
138.259
270.663
419.391
569.911
712.557
835.216
923.895
969.626
963.159
904.779
803.424
666.098
505.994
335.531
166.581
20.641
-85.739
-143.009
-147.855
-115.238
-65.314
-15.547
15.859
24.41
15.101
-5.179
-22.853
-30.279
-27.761
-17.916
-7.792
-1.405
2.01
4.212
7.448
11.716
15.56
17.972
18.437
17.384
15.264
12.007
7.954
3.892
0.401
-2.107
-3.709
-5.073
-6.57
-8.202
-10.053
-12.199
-14.627
-17.364
-20.227
-22.789
-24.812
-26.211
-26.937
-27.052
-26.617
-25.639
-24.186
-22.366
-20.243
-17.884
-15.341
-12.641
-9.839
-6.989
-4.124
-1.279
1.528
4.296
7.026
9.734
12.45
15.194
17.982
20.827
23.737
26.723
29.801
32.985
36.288
39.722
43.301
47.036
50.939
55.016
59.269
63.695
68.289
73.048
77.968
83.044
88.272
93.645
99.154
104.79
110.541
116.395
122.334
128.34
134.392
140.468
146.545
152.601
158.609
164.544
170.379
176.088
181.642
187.015
192.178
197.102
201.762
206.129
210.179
213.887
217.229
220.184
222.731
224.853
226.534
227.759
228.518
228.8
228.6
227.912
226.736
225.072
222.924
220.298
217.203
213.651
209.655
205.232
200.4
195.179
189.592
183.663
177.417
170.882
164.085
157.056
149.826
142.425
134.885
127.238
119.516
111.75
103.971
96.21
88.496
80.858
73.324
65.919
58.669
51.596
44.722
38.066
31.647
25.479
19.577
13.953
8.616
3.576
-1.163
-5.596
-9.72
-13.534
-17.04
-20.239
-23.136
-25.736
-28.046
-30.075
-31.832
-33.328
-34.575
-35.584
-36.37
-36.946
-37.326
-37.526
-37.559
-37.44
-37.184
-36.805
-36.318
-35.734
-35.069
-34.332
-33.537
-32.693
-31.811
-30.9
-29.969
-29.025
-28.076
-27.127
-26.185
-25.255
-24.341
-23.446
-22.575
-21.73
-20.913
-20.125
-19.368
-18.642
-17.947
-17.283
-16.649
-16.045
-15.47
-14.921
-14.399
-13.901
-13.428
-12.978
-12.55
-12.145
-11.762
-11.401
-11.065
-10.753
-10.467
-10.21
-9.982
-9.787
-9.626
-9.503
-9.419
-9.377
-9.379
-9.428
-9.525
-9.673
-9.873
-10.126
-10.433
-10.797
-11.217
-11.693
-12.226
-12.814
-13.458
-14.156
-14.906
-15.705
-16.55
-17.438
-18.364
-19.322
-20.307
-21.312
-22.331
-23.354
-24.374
-25.382
-26.367
-27.32
-28.231
-29.09
-29.888
-30.614
-31.258
-31.812
-32.266
-32.613
-32.844
-32.951
-32.929
-32.769
-32.468
-32.02
-31.423
-30.673
-29.768
-28.709
-27.495
-26.13
-24.616
-22.957
-21.157
-19.225
-17.169
-14.999
-12.728
-10.367
-7.932
-5.442
-2.916
-0.374
2.164
4.678
7.147
9.547
11.855
14.048
16.107
18.012
19.744
21.279
22.598
23.683
24.52
25.097
25.406
25.434
25.17
24.608
23.749
22.594
21.146
19.401
17.354
15.008
12.37
9.451
6.268
2.841
-0.81
-4.65
-8.639
-12.735
-16.889
-21.057
-25.205
-29.292
-33.285
-37.159
-40.866
-44.362
-47.598
-50.502
-53.057
-55.305
-57.271
-58.982
-60.511
-61.951
-63.54
-65.658
-68.506
-72.095
-76.351
-81.18
-86.551
-92.38
-98.183
-103.036
-106.182
-107.252
-106.27
-103.476
-98.829
-92.294
-84.524
-76.978
-71.229
-68.564
-69.612
-74.355
-83.369
-96.518
-111.338
-124.483
-132.16
-132.495
-128.748
-124.274
-117.748
-103.303
-68.369
-0.334
103.134
237.146
389.763
543.297
686.028
808.556
900.325
955.416
964.771
918.911
816.929
662.251
468.477
261.444
67.202
-90.453
-195.778
-249.839
-261.465
-243.487
-211.954
-176.888
-146.884
-128.785
-122.107
-123.455
-124.823
-118.217
-102.139
-79.78
-58.696
-44.878
-39.394
-40.629
-45.329
-51.741
-59.84
-69.345
-79.35
-88.446
-95.558
-100.448
-103.328
-104.36
-103.663
-101.534
-98.731
-96.284
-94.819
-94.496
-95.196
-96.641
-98.605
-100.924
-103.286
-105.285
-106.683
-107.388
-107.413
-106.887
-105.901
-104.488
-102.712
-100.64
-98.319
-95.809
-93.153
-90.385
-87.562
-84.731
-81.924
-79.172
-76.488
-73.874
-71.328
-68.831
-66.359
-63.895
-61.429
-58.953
-56.461
-53.94
-51.37
-48.733
-46.009
-43.179
-40.228
-37.137
-33.891
-30.481
-26.901
-23.149
-19.225
-15.129
-10.857
-6.41
-1.787
3.009
7.973
13.1
18.383
23.812
29.371
35.046
40.819
46.669
52.577
58.519
64.473
70.411
76.309
82.137
87.869
93.474
98.923
104.187
109.234
114.037
118.567
122.796
126.697
130.246
133.418
136.193
138.55
140.473
141.945
142.954
143.489
143.542
143.106
142.179
140.76
138.851
136.458
133.588
130.251
126.462
122.234
117.588
112.543
107.121
101.349
95.251
88.856
82.194
75.296
68.194
60.92
53.508
45.99
38.401
30.774
23.14
15.532
7.981
0.518
-6.83
-14.035
-21.07
-27.911
-34.535
-40.921
-47.049
-52.901
-58.463
-63.72
-68.662
-73.278
-77.561
-81.507
-85.112
-88.375
-91.298
-93.883
-96.136
-98.063
-99.672
-100.975
-101.983
-102.707
-103.164
-103.366
-103.33
-103.073
-102.61
-101.959
-101.138
-100.162
-99.051
-97.82
-96.487
-95.069
-93.581
-92.04
-90.461
-88.858
-87.246
-85.637
-84.045
-82.48
-80.954
-79.476
-78.055
-76.699
-75.416
-74.209
-73.085
-72.048
-71.1
-70.244
-69.48
-68.811
-68.234
-67.751
-67.359
-67.058
-66.844
-66.717
-66.673
-66.709
-66.823
-67.012
-67.271
-67.598
-67.989
-68.44
-68.948
-69.509
-70.12
-70.777
-71.477
-72.215
-72.99
-73.797
-74.633
-75.497
-76.384
-77.291
-78.218
-79.159
-80.114
-81.08
-82.053
-83.032
-84.012
-84.992
-85.967
-86.934
-87.889
-88.828
-89.748
-90.643
-91.511
-92.345
-93.142
-93.897
-94.605
-95.262
-95.862
-96.401
-96.871
-97.269
-97.59
-97.828
-97.979
-98.037
-97.999
-97.859
-97.615
-97.261
-96.796
-96.215
-95.515
-94.695
-93.753
-92.691
-91.507
-90.203
-88.782
-87.247
-85.603
-83.855
-82.01
-80.074
-78.055
-75.96
-73.801
-71.586
-69.326
-67.033
-64.72
-62.404
-60.101
-57.828
-55.602
-53.44
-51.36
-49.381
-47.518
-45.785
-44.192
-42.752
-41.479
-40.388
-39.492
-38.802
-38.327
-38.074
-38.049
-38.261
-38.708
-39.379
-40.268
-41.369
-42.684
-44.228
-46.008
-48.023
-50.272
-52.748
-55.435
-58.321
-61.371
-64.531
-67.752
-70.983
-74.179
-77.32
-80.361
-83.25
-85.932
-88.322
-90.357
-91.992
-93.174
-93.877
-94.111
-93.901
-93.308
-92.427
-91.341
-90.159
-88.998
-87.95
-87.132
-86.62
-86.525
-87.089
-88.449
-90.597
-93.43
-96.576
-99.578
-102.13
-103.753
-103.728
-101.69
-97.612
-91.828
-85.413
-79.647
-75.609
-74.522
-77.903
-85.596
-95.305
-104.442
-109.2
-108.11
-104.902
-101.137
-95.39
-82.545
-48.065
20.829
129.17
276.926
449.116
623.603
779.983
895.662
958.764
967.172
922.015
832.804
708.043
555.032
385.071
210.957
49.409
-82.741
-173.503
-220.198
-228.042
-204.805
-162.578
-110.652
-58.013
-16.977
8.192
16.673
12.566
7.39
6.06
9.127
14.582
15.673
10.191
-0.012
-12.699
-23.982
-31.641
-35.873
-36.952
-35.384
-31.943
-27.166
-21.736
-16.709
-12.853
-10.439
-9.577
-10.167
-11.92
-14.609
-17.91
-21.304
-24.418
-27.06
-29.117
-30.615
-31.607
-32.075
-32.037
-31.558
-30.68
-29.445
-27.886
-26
-23.803
-21.34
-18.669
-15.861
-12.986
-10.086
-7.188
-4.31
-1.461
1.353
4.131
6.888
9.642
12.411
15.207
18.043
20.929
23.885
26.934
30.099
33.403
36.862
40.488
44.295
48.292
52.487
56.882
61.479
66.274
71.266
76.452
81.829
87.392
93.132
99.039
105.102
111.307
117.639
124.08
130.609
137.203
143.838
150.49
157.13
163.731
170.262
176.692
182.991
189.125
195.062
200.769
206.212
211.358
216.175
220.633
224.701
228.35
231.554
234.287
236.529
238.258
239.458
240.114
240.215
239.751
238.717
237.109
234.929
232.179
228.866
224.998
220.588
215.653
210.209
204.277
197.882
191.047
183.802
176.175
168.199
159.907
151.333
142.515
133.488
124.292
114.964
105.543
96.068
86.577
77.107
67.694
58.374
49.181
40.146
31.299
22.67
14.285
6.167
-1.662
-9.181
-16.375
-23.227
-29.726
-35.862
-41.627
-47.015
-52.024
-56.652
-60.901
-64.773
-68.273
-71.41
-74.191
-76.628
-78.733
-80.519
-82.003
-83.199
-84.126
-84.802
-85.244
-85.473
-85.507
-85.364
-85.065
-84.628
-84.071
-83.412
-82.667
-81.852
-80.983
-80.074
-79.137
-78.184
-77.227
-76.275
-75.338
-74.423
-73.537
-72.687
-71.878
-71.115
-70.4
-69.736
-69.125
-68.567
-68.062
-67.61
-67.209
-66.857
-66.552
-66.29
-66.068
-65.883
-65.731
-65.607
-65.509
-65.433
-65.374
-65.329
-65.295
-65.27
-65.251
-65.238
-65.228
-65.222
-65.22
-65.221
-65.227
-65.238
-65.255
-65.279
-65.314
-65.359
-65.418
-65.493
-65.587
-65.702
-65.842
-66.009
-66.205
-66.434
-66.697
-66.996
-67.334
-67.712
-68.131
-68.594
-69.099
-69.649
-70.243
-70.882
-71.563
-72.285
-73.046
-73.842
-74.669
-75.523
-76.397
-77.286
-78.183
-79.082
-79.976
-80.857
-81.717
-82.549
-83.342
-84.089
-84.781
-85.409
-85.963
-86.436
-86.818
-87.103
-87.285
-87.355
-87.309
-87.141
-86.847
-86.423
-85.867
-85.174
-84.343
-83.374
-82.267
-81.025
-79.651
-78.149
-76.527
-74.794
-72.962
-71.041
-69.047
-66.993
-64.893
-62.764
-60.622
-58.479
-56.349
-54.248
-52.19
-50.193
-48.277
-46.455
-44.744
-43.158
-41.711
-40.418
-39.286
-38.319
-37.519
-36.891
-36.449
-36.216
-36.212
-36.446
-36.928
-37.661
-38.638
-39.855
-41.286
-42.883
-44.601
-46.394
-48.223
-50.068
-51.896
-53.665
-55.318
-56.783
-57.998
-58.921
-59.512
-59.748
-59.634
-59.201
-58.522
-57.709
-56.88
-56.156
-55.653
-55.472
-55.71
-56.447
-57.8
-59.964
-63.077
-67.172
-72.148
-77.729
-83.564
-89.322
-94.547
-98.561
-100.745
-100.814
-98.94
-95.718
-92.102
-89.065
-87.455
-88.629
-93.07
-99.254
-105.143
-108.228
-107.758
-107.008
-107.875
-107.772
-98.548
-66.104
-0.314
99.512
225.471
362.948
500.001
630.552
750.194
852.725
926.947
957.139
930.71
844.597
704.53
526.399
331.544
141.43
-22.865
-147.183
-224.697
-257.626
-255.055
-225.306
-179.34
-125.512
-71.787
-30.673
-7.421
-3.084
-13.727
-27.592
-38.78
-45.89
-49.947
-56.504
-66.779
-78.522
-89.722
-97.201
-99.785
-98.411
-93.917
-87.485
-80.466
-73.847
-68.346
-64.531
-62.583
-62.39
-63.805
-66.57
-70.26
-74.408
-78.659
-82.716
-86.381
-89.596
-92.297
-94.439
-96.035
-97.102
-97.648
-97.697
-97.268
-96.366
-95.019
-93.264
-91.135
-88.692
-86.001
-83.126
-80.142
-77.101
-74.035
-70.97
-67.92
-64.892
-61.888
-58.895
-55.889
-52.853
-49.77
-46.626
-43.407
-40.093
-36.661
-33.092
-29.368
-25.476
-21.404
-17.142
-12.683
-8.022
-3.158
1.907
7.166
12.616
18.253
24.069
30.058
36.212
42.517
48.964
55.539
62.225
69.006
75.859
82.764
89.695
96.629
103.539
110.396
117.172
123.838
130.364
136.719
142.874
148.797
154.46
159.833
164.887
169.597
173.935
177.879
181.405
184.493
187.126
189.288
190.965
192.146
192.822
192.989
192.641
191.778
190.403
188.52
186.136
183.262
179.91
176.097
171.842
167.163
162.086
156.634
150.834
144.715
138.306
131.637
124.742
117.651
110.399
103.018
95.541
88.002
80.432
72.863
65.325
57.849
50.461
43.188
36.056
29.087
22.304
15.727
9.372
3.256
-2.607
-8.206
-13.531
-18.575
-23.333
-27.801
-31.979
-35.867
-39.47
-42.791
-45.837
-48.615
-51.136
-53.41
-55.448
-57.263
-58.868
-60.278
-61.506
-62.567
-63.475
-64.245
-64.89
-65.425
-65.862
-66.214
-66.493
-66.709
-66.874
-66.996
-67.083
-67.145
-67.187
-67.215
-67.234
-67.247
-67.257
-67.266
-67.274
-67.28
-67.284
-67.283
-67.274
-67.254
-67.22
-67.166
-67.088
-66.98
-66.838
-66.657
-66.431
-66.156
-65.827
-65.442
-64.996
-64.487
-63.913
-63.273
-62.567
-61.795
-60.958
-60.057
-59.094
-58.073
-56.996
-55.867
-54.691
-53.474
-52.22
-50.937
-49.631
-48.308
-46.977
-45.645
-44.32
-43.011
-41.724
-40.469
-39.254
-38.086
-36.973
-35.922
-34.94
-34.033
-33.205
-32.46
-31.803
-31.234
-30.756
-30.368
-30.069
-29.858
-29.732
-29.689
-29.724
-29.834
-30.011
-30.251
-30.548
-30.894
-31.28
-31.699
-32.142
-32.599
-33.063
-33.523
-33.969
-34.393
-34.784
-35.133
-35.43
-35.666
-35.832
-35.919
-35.92
-35.826
-35.633
-35.335
-34.929
-34.412
-33.783
-33.043
-32.192
-31.234
-30.171
-29.007
-27.749
-26.402
-24.975
-23.477
-21.917
-20.307
-18.663
-17
-15.335
-13.683
-12.062
-10.49
-8.984
-7.561
-6.234
-5.017
-3.925
-2.973
-2.178
-1.555
-1.117
-0.876
-0.842
-1.024
-1.429
-2.06
-2.91
-3.977
-5.259
-6.761
-8.499
-10.485
-12.717
-15.194
-17.911
-20.855
-24.013
-27.353
-30.824
-34.373
-37.952
-41.519
-45.049
-48.504
-51.829
-54.96
-57.816
-60.33
-62.457
-64.158
-65.395
-66.162
-66.472
-66.369
-65.96
-65.354
-64.656
-63.992
-63.465
-63.161
-63.204
-63.758
-64.965
-66.929
-69.606
-72.741
-76.044
-79.242
-81.984
-83.845
-84.393
-83.26
-80.522
-76.937
-73.389
-70.636
-69.598
-71.076
-75.698
-84.255
-95.337
-104.928
-109.763
-106.551
-95.585
-81.801
-65.264
-42.891
-7.095
55.512
149.05
270.822
413.017
559.018
697.225
816.132
902.141
947.802
943.981
888.911
790.197
654.867
496.422
328.685
163.437
18.352
-92.173
-161.84
-189.223
-182.318
-155.822
-119.933
-84.997
-61.316
-49.98
-50.907
-60.017
-66.597
-66.873
-61.23
-52.097
-46.094
-45.608
-49.263
-55.659
-62.365
-68.104
-72.735
-75.813
-77.245
-77.201
-75.898
-73.685
-70.821
-67.637
-64.749
-62.722
-61.865
-62.279
-63.806
-66.197
-69.267
-72.718
-76.115
-79.136
-81.582
-83.353
-84.487
-85.023
-84.957
-84.338
-83.246
-81.738
-79.87
-77.674
-75.155
-72.357
-69.344
-66.195
-62.996
-59.806
-56.657
-53.574
-50.568
-47.643
-44.797
-42.01
-39.253
-36.51
-33.764
-31.003
-28.216
-25.384
-22.483
-19.49
-16.38
-13.133
-9.733
-6.166
-2.42
1.512
5.636
9.951
14.457
19.152
24.036
29.106
34.361
39.796
45.402
51.171
57.093
63.152
69.334
75.619
81.985
88.41
94.87
101.338
107.785
114.183
120.502
126.709
132.775
138.665
144.348
149.791
154.963
159.833
164.372
168.55
172.341
175.72
178.663
181.149
183.161
184.681
185.696
186.195
186.17
185.614
184.525
182.903
180.75
178.071
174.875
171.173
166.98
162.311
157.187
151.628
145.66
139.308
132.6
125.565
118.234
110.639
102.814
94.793
86.608
78.295
69.888
61.42
52.926
44.436
35.983
27.597
19.307
11.139
3.121
-4.724
-12.374
-19.808
-27.007
-33.955
-40.636
-47.037
-53.148
-58.958
-64.46
-69.65
-74.522
-79.077
-83.313
-87.232
-90.838
-94.136
-97.132
-99.834
-102.251
-104.392
-106.267
-107.889
-109.269
-110.419
-111.351
-112.08
-112.616
-112.974
-113.164
-113.2
-113.093
-112.854
-112.494
-112.023
-111.451
-110.787
-110.042
-109.223
-108.338
-107.396
-106.403
-105.366
-104.292
-103.186
-102.052
-100.896
-99.721
-98.531
-97.328
-96.116
-94.896
-93.67
-92.439
-91.206
-89.971
-88.735
-87.499
-86.264
-85.031
-83.8
-82.573
-81.353
-80.139
-78.935
-77.742
-76.563
-75.399
-74.253
-73.126
-72.021
-70.94
-69.884
-68.855
-67.855
-66.886
-65.95
-65.05
-64.185
-63.36
-62.575
-61.833
-61.135
-60.483
-59.879
-59.326
-58.823
-58.374
-57.981
-57.643
-57.362
-57.138
-56.972
-56.863
-56.809
-56.811
-56.864
-56.968
-57.12
-57.317
-57.556
-57.833
-58.147
-58.491
-58.864
-59.261
-59.676
-60.106
-60.545
-60.988
-61.429
-61.864
-62.287
-62.692
-63.072
-63.422
-63.735
-64.005
-64.224
-64.385
-64.483
-64.51
-64.46
-64.328
-64.11
-63.8
-63.396
-62.894
-62.293
-61.592
-60.789
-59.885
-58.882
-57.78
-56.583
-55.295
-53.921
-52.467
-50.943
-49.356
-47.718
-46.04
-44.334
-42.614
-40.891
-39.181
-37.496
-35.848
-34.251
-32.72
-31.269
-29.915
-28.674
-27.559
-26.584
-25.763
-25.107
-24.625
-24.32
-24.195
-24.253
-24.501
-24.95
-25.614
-26.496
-27.601
-28.927
-30.467
-32.212
-34.141
-36.216
-38.4
-40.656
-42.949
-45.256
-47.548
-49.788
-51.929
-53.911
-55.677
-57.184
-58.387
-59.249
-59.756
-59.912
-59.761
-59.391
-58.878
-58.292
-57.709
-57.204
-56.869
-56.797
-57.063
-57.749
-58.987
-60.886
-63.479
-66.681
-70.222
-73.765
-76.962
-79.385
-80.496
-79.795
-77.011
-72.332
-66.388
-59.909
-53.768
-48.963
-46.546
-47.832
-52.66
-58.41
-62.213
-60.869
-53.57
-44.533
-35.935
-26.308
-10.249
26.158
95.15
201.306
344.14
510.566
681.282
837.918
959.216
1031.132
1046.35
1001.78
904.355
762.455
588.539
401.094
218.128
61.722
-51.259
-116.835
-138.861
-130.644
-106.688
-74.44
-40.22
-10.036
11.356
18.691
12.46
0.886
-8.579
-11.82
-9.25
-6.656
-7.242
-10.13
-13.935
-16.545
-17.514
-17.892
-17.754
-16.932
-15.838
-15.109
-15.191
-16.163
-17.434
-18.542
-19.852
-21.837
-24.64
-28.087
-31.793
-35.514
-39.336
-43.257
-46.995
-50.271
-52.861
-54.685
-55.844
-56.404
-56.36
-55.731
-54.562
-52.914
-50.867
-48.481
-45.787
-42.835
-39.683
-36.4
-33.051
-29.675
-26.299
-22.939
-19.596
-16.265
-12.931
-9.568
-6.161
-2.7
0.827
4.43
8.122
11.918
15.831
19.874
24.062
28.404
32.912
37.592
42.446
47.472
52.666
58.023
63.536
69.201
75.009
80.954
87.025
93.212
99.503
105.883
112.336
118.843
125.383
131.933
138.469
144.967
151.399
157.738
163.956
170.023
175.91
181.588
187.026
192.194
197.064
201.605
205.791
209.594
212.988
215.951
218.459
220.492
222.034
223.068
223.582
223.566
223.013
221.918
220.28
218.099
215.381
212.132
208.362
204.085
199.316
194.075
188.382
182.261
175.739
168.844
161.606
154.057
146.23
138.159
129.881
121.431
112.846
104.164
95.422
86.655
77.902
69.197
60.575
52.069
43.712
35.533
27.56
19.82
12.337
5.133
-1.773
-8.364
-14.625
-20.544
-26.111
-31.318
-36.162
-40.64
-44.752
-48.501
-51.89
-54.927
-57.62
-59.98
-62.019
-63.749
-65.187
-66.348
-67.25
-67.91
-68.347
-68.58
-68.629
-68.513
-68.252
-67.864
-67.369
-66.784
-66.127
-65.415
-64.663
-63.887
-63.098
-62.311
-61.537
-60.785
-60.064
-59.382
-58.746
-58.16
-57.63
-57.157
-56.743
-56.391
-56.098
-55.865
-55.689
-55.569
-55.501
-55.481
-55.505
-55.57
-55.67
-55.8
-55.956
-56.132
-56.325
-56.53
-56.742
-56.958
-57.175
-57.391
-57.601
-57.807
-58.005
-58.196
-58.379
-58.555
-58.726
-58.893
-59.058
-59.224
-59.393
-59.57
-59.757
-59.96
-60.182
-60.428
-60.702
-61.011
-61.358
-61.748
-62.187
-62.679
-63.228
-63.839
-64.516
-65.261
-66.078
-66.97
-67.938
-68.984
-70.107
-71.308
-72.586
-73.939
-75.364
-76.858
-78.418
-80.038
-81.714
-83.44
-85.211
-87.019
-88.857
-90.719
-92.595
-94.477
-96.358
-98.227
-100.074
-101.89
-103.665
-105.389
-107.053
-108.646
-110.157
-111.579
-112.9
-114.113
-115.208
-116.177
-117.012
-117.707
-118.256
-118.654
-118.897
-118.983
-118.91
-118.677
-118.286
-117.738
-117.037
-116.186
-115.189
-114.053
-112.786
-111.394
-109.887
-108.276
-106.574
-104.797
-102.96
-101.082
-99.182
-97.277
-95.388
-93.536
-91.739
-90.012
-88.374
-86.839
-85.428
-84.158
-83.046
-82.108
-81.357
-80.806
-80.466
-80.347
-80.454
-80.784
-81.335
-82.11
-83.118
-84.376
-85.9
-87.692
-89.758
-92.095
-94.699
-97.561
-100.654
-103.931
-107.344
-110.846
-114.392
-117.953
-121.486
-124.934
-128.228
-131.284
-134.023
-136.395
-138.355
-139.862
-140.907
-141.495
-141.659
-141.491
-141.108
-140.629
-140.189
-139.905
-139.869
-140.219
-141.167
-142.901
-145.528
-148.984
-152.996
-157.255
-161.497
-165.377
-168.383
-169.996
-169.87
-168.174
-165.661
-163.182
-161.644
-161.999
-165.191
-172.295
-182.964
-194.706
-204.734
-209.881
-209.856
-207.916
-203.497
-192.962
-167.554
-113.855
-27.36
88.5
224.317
365.026
502.825
634.612
754.139
853.397
916.678
925.667
872.674
759.044
597.326
409.629
216.647
38.744
-107.124
-212.868
-276.823
-304.364
-304.78
-286.294
-254.826
-215.697
-175.966
-142.054
-118.544
-105.8
-98.141
-90.494
-81.235
-71.646
-66.274
-68.093
-76.486
-89.079
-102.593
-114.443
-123.403
-129.219
-132.141
-132.465
-130.665
-127.367
-123.149
-118.847
-115.38
-113.187
-112.437
-113.091
-114.836
-117.382
-120.461
-123.653
-126.524
-128.82
-130.406
-131.264
-131.474
-131.07
-130.073
-128.545
-126.553
-124.155
-121.398
-118.303
-114.891
-111.207
-107.318
-103.297
-99.201
-95.064
-90.906
-86.739
-82.567
-78.393
-74.208
-69.993
-65.737
-61.43
-57.063
-52.63
-48.117
-43.508
-38.783
-33.925
-28.916
-23.744
-18.4
-12.874
-7.165
-1.27
4.81
11.07
17.507
24.117
30.898
37.844
44.947
52.197
59.584
67.095
74.714
82.424
90.203
98.032
105.888
113.746
121.583
129.37
137.082
144.689
152.163
159.473
166.59
173.482
180.119
186.472
192.511
198.207
203.535
208.467
212.98
217.052
220.662
223.793
226.428
228.554
230.159
231.237
231.78
231.786
231.255
230.19
228.597
226.485
223.863
220.747
217.153
213.099
208.605
203.696
198.396
192.732
186.732
180.426
173.846
167.024
159.992
152.785
145.435
137.976
130.442
122.863
115.274
107.703
100.183
92.74
85.404
78.198
71.149
64.277
57.604
51.147
44.924
38.948
33.231
27.785
22.617
17.734
13.141
8.839
4.83
1.113
-2.316
-5.459
-8.324
-10.918
-13.249
-15.326
-17.162
-18.766
-20.151
-21.329
-22.312
-23.115
-23.749
-24.228
-24.564
-24.77
-24.859
-24.843
-24.732
-24.537
-24.269
-23.938
-23.551
-23.117
-22.643
-22.136
-21.602
-21.046
-20.472
-19.886
-19.291
-18.688
-18.081
-17.472
-16.861
-16.249
-15.638
-15.027
-14.416
-13.806
-13.196
-12.587
-11.979
-11.371
-10.764
-10.159
-9.556
-8.956
-8.361
-7.771
-7.187
-6.613
-6.049
-5.499
-4.964
-4.447
-3.951
-3.478
-3.033
-2.619
-2.237
-1.893
-1.59
-1.33
-1.118
-0.957
-0.85
-0.799
-0.809
-0.882
-1.019
-1.224
-1.498
-1.841
-2.256
-2.742
-3.3
-3.927
-4.624
-5.388
-6.218
-7.11
-8.063
-9.071
-10.133
-11.242
-12.396
-13.589
-14.816
-16.071
-17.348
-18.641
-19.942
-21.244
-22.54
-23.822
-25.081
-26.309
-27.499
-28.642
-29.729
-30.751
-31.7
-32.569
-33.348
-34.03
-34.608
-35.073
-35.42
-35.644
-35.739
-35.701
-35.525
-35.209
-34.749
-34.145
-33.396
-32.501
-31.46
-30.275
-28.951
-27.49
-25.898
-24.181
-22.348
-20.41
-18.378
-16.266
-14.088
-11.859
-9.596
-7.316
-5.036
-2.773
-0.543
1.637
3.751
5.779
7.701
9.502
11.164
12.669
14.006
15.156
16.108
16.858
17.4
17.728
17.833
17.696
17.303
16.647
15.724
14.531
13.074
11.36
9.408
7.26
4.953
2.524
0.007
-2.579
-5.209
-7.841
-10.425
-12.902
-15.211
-17.322
-19.202
-20.808
-22.128
-23.18
-24.017
-24.748
-25.464
-26.221
-27.088
-28.139
-29.454
-31.138
-33.262
-35.895
-39.16
-43.15
-47.878
-53.243
-58.959
-64.633
-69.866
-74.176
-76.959
-77.696
-76.144
-72.541
-67.548
-61.926
-56.632
-52.778
-51.603
-54.598
-61.296
-68.483
-73.165
-72.279
-66.077
-60.275
-56.534
-51.715
-37.761
2.108
79.295
194.829
343.66
508.837
671.517
817.975
932.662
1003.884
1022.125
977.18
868.076
702.601
497.606
281.182
81.439
-78.72
-184.538
-238.223
-249.811
-230.92
-197.083
-155.942
-113.972
-81.76
-61.448
-54.041
-56.584
-57.732
-53.17
-43.256
-30.327
-21.397
-18.939
-21.371
-27.315
-34.188
-40.602
-46.34
-50.673
-53.341
-54.544
-54.513
-53.487
-51.617
-49.032
-46.179
-43.82
-42.455
-42.205
-42.943
-44.403
-46.357
-48.637
-50.988
-53.03
-54.509
-55.314
-55.426
-54.933
-53.905
-52.372
-50.382
-48.008
-45.303
-42.314
-39.088
-35.659
-32.081
-28.427
-24.752
-21.095
-17.488
-13.942
-10.462
-7.045
-3.674
-0.326
3.014
6.359
9.719
13.101
16.521
20
23.555
27.206
30.973
34.872
38.92
43.129
47.507
52.059
56.785
61.684
66.756
72.003
77.422
83.012
88.769
94.687
100.759
106.977
113.329
119.799
126.371
133.025
139.741
146.496
153.265
160.024
166.743
173.396
179.951
186.379
192.649
198.727
204.582
210.182
215.493
220.485
225.128
229.391
233.247
236.669
239.634
242.119
244.104
245.571
246.506
246.894
246.727
245.996
244.696
242.826
240.387
237.383
233.821
229.713
225.073
219.915
214.261
208.131
201.551
194.547
187.148
179.385
171.291
162.901
154.251
145.377
136.318
127.111
117.795
108.408
98.988
89.573
80.198
70.898
61.709
52.662
43.79
35.121
26.684
18.505
10.607
3.013
-4.257
-11.187
-17.761
-23.968
-29.797
-35.241
-40.294
-44.955
-49.221
-53.097
-56.584
-59.69
-62.423
-64.793
-66.811
-68.492
-69.85
-70.9
-71.659
-72.144
-72.374
-72.366
-72.138
-71.709
-71.097
-70.321
-69.397
-68.345
-67.181
-65.922
-64.583
-63.18
-61.728
-60.238
-58.725
-57.2
-55.672
-54.152
-52.648
-51.169
-49.719
-48.306
-46.932
-45.603
-44.32
-43.085
-41.899
-40.761
-39.672
-38.631
-37.635
-36.685
-35.778
-34.912
-34.086
-33.299
-32.549
-31.833
-31.152
-30.504
-29.887
-29.302
-28.746
-28.222
-27.727
-27.263
-26.831
-26.431
-26.065
-25.733
-25.438
-25.181
-24.965
-24.791
-24.662
-24.581
-24.551
-24.574
-24.654
-24.793
-24.995
-25.261
-25.594
-25.997
-26.469
-27.013
-27.628
-28.315
-29.072
-29.898
-30.79
-31.746
-32.763
-33.838
-34.965
-36.141
-37.36
-38.615
-39.901
-41.211
-42.537
-43.871
-45.205
-46.531
-47.84
-49.124
-50.374
-51.58
-52.734
-53.827
-54.85
-55.795
-56.653
-57.415
-58.075
-58.625
-59.058
-59.372
-59.561
-59.622
-59.553
-59.353
-59.023
-58.563
-57.975
-57.262
-56.429
-55.48
-54.423
-53.266
-52.019
-50.693
-49.302
-47.861
-46.387
-44.894
-43.403
-41.932
-40.503
-39.138
-37.856
-36.675
-35.613
-34.685
-33.911
-33.309
-32.889
-32.661
-32.637
-32.827
-33.245
-33.905
-34.804
-35.933
-37.284
-38.845
-40.62
-42.619
-44.84
-47.28
-49.931
-52.792
-55.862
-59.14
-62.601
-66.192
-69.851
-73.52
-77.167
-80.784
-84.368
-87.896
-91.312
-94.539
-97.502
-100.148
-102.456
-104.377
-105.83
-106.823
-107.449
-107.928
-108.639
-109.909
-111.812
-114.361
-117.531
-121.07
-124.798
-128.405
-131.078
-132.084
-131.103
-127.989
-123.005
-116.841
-109.797
-102.246
-95.319
-90.212
-87.962
-89.362
-94.474
-102.881
-114.583
-129.722
-146.737
-162.162
-172.45
-174.205
-167.191
-156.011
-143.149
-127.485
-103.826
-59.79
14.44
121.462
258.254
411.813
565.935
704.783
811.973
876.175
889.07
849.179
762.671
637.882
488.373
327.113
165.89
20.917
-94.875
-174.314
-216.055
-230.213
-230.628
-225.435
-218.598
-208.281
-190.194
-165.57
-138.714
-114.252
-96.888
-88.308
-87.805
-94.352
-106.021
-120.473
-135.399
-148.676
-159.015
-165.747
-168.701
-168.13
-164.567
-158.929
-152.503
-146.537
-141.797
-138.733
-137.486
-137.933
-139.929
-143.195
-147.241
-151.542
-155.691
-159.392
-162.505
-165.01
-166.869
-168.065
-168.621
-168.572
-167.972
-166.868
-165.286
-163.242
-160.764
-157.887
-154.677
-151.21
-147.564
-143.816
-140.02
-136.21
-132.413
-128.648
-124.923
-121.242
-117.594
-113.956
-110.315
-106.659
-102.976
-99.257
-95.484
-91.632
-87.682
-83.614
-79.414
-75.07
-70.573
-65.91
-61.078
-56.071
-50.891
-45.54
-40.019
-34.329
-28.472
-22.451
-16.271
-9.94
-3.466
3.14
9.868
16.703
23.628
30.624
37.671
44.749
51.835
58.906
65.935
72.898
79.768
86.517
93.118
99.544
105.765
111.756
117.487
122.934
128.069
132.867
137.305
141.361
145.014
148.245
151.036
153.373
155.242
156.633
157.538
157.949
157.863
157.278
156.196
154.621
152.558
150.016
147.007
143.543
139.64
135.316
130.59
125.483
120.018
114.219
108.111
101.722
95.077
88.207
81.139
73.903
66.528
59.044
51.481
43.868
36.233
28.605
21.011
13.477
6.029
-1.309
-8.515
-15.567
-22.444
-29.129
-35.605
-41.855
-47.867
-53.627
-59.127
-64.357
-69.31
-73.982
-78.367
-82.465
-86.274
-89.794
-93.029
-95.981
-98.653
-101.052
-103.185
-105.058
-106.68
-108.06
-109.207
-110.134
-110.85
-111.366
-111.695
-111.848
-111.836
-111.672
-111.368
-110.935
-110.384
-109.727
-108.975
-108.14
-107.23
-106.257
-105.229
-104.156
-103.045
-101.906
-100.745
-99.57
-98.387
-97.203
-96.024
-94.856
-93.703
-92.571
-91.463
-90.383
-89.335
-88.322
-87.346
-86.408
-85.511
-84.656
-83.844
-83.076
-82.351
-81.671
-81.034
-80.44
-79.889
-79.378
-78.906
-78.472
-78.073
-77.708
-77.373
-77.067
-76.786
-76.527
-76.287
-76.061
-75.846
-75.635
-75.425
-75.21
-74.983
-74.739
-74.472
-74.175
-73.842
-73.467
-73.042
-72.561
-72.017
-71.403
-70.712
-69.937
-69.071
-68.109
-67.044
-65.87
-64.583
-63.177
-61.649
-59.993
-58.206
-56.285
-54.227
-52.029
-49.69
-47.21
-44.59
-41.829
-38.932
-35.901
-32.74
-29.455
-26.052
-22.538
-18.92
-15.208
-11.41
-7.538
-3.603
0.381
4.401
8.442
12.49
16.529
20.542
24.513
28.428
32.267
36.015
39.652
43.163
46.527
49.725
52.735
55.537
58.111
60.438
62.499
64.276
65.749
66.902
67.72
68.19
68.303
68.046
67.41
66.386
64.971
63.168
60.979
58.412
55.468
52.155
48.487
44.483
40.163
35.544
30.635
25.446
19.994
14.302
8.394
2.296
-3.967
-10.367
-16.858
-23.39
-29.908
-36.351
-42.678
-48.852
-54.833
-60.594
-66.087
-71.25
-76.031
-80.368
-84.208
-87.556
-90.414
-92.758
-94.661
-96.258
-97.748
-99.507
-101.861
-104.891
-108.62
-113.062
-118.051
-123.401
-128.719
-133.053
-135.443
-135.421
-132.777
-127.614
-120.363
-111.313
-101.132
-91.576
-84.59
-81.573
-83.543
-90.692
-102.671
-119.599
-140.103
-160.014
-174.953
-180.538
-174.84
-161.403
-142.777
-118.318
-84.616
-31.521
49.953
161.888
302.51
460.591
619.407
763.653
875.594
941.633
953.625
905.746
801.238
649.338
464.337
268.995
85.628
-66.386
-171.967
-230.204
-247.954
-234.484
-203.86
-164.806
-124.087
-92.523
-76.482
-79.104
-98.897
-124.923
-145.928
-156.48
-155.67
-148.415
-140.863
-134.647
-129.61
-125.165
-120.39
-115.978
-112.835
-110.901
-110.342
-111.306
-113.506
-116.496
-119.548
-121.989
-123.758
-125.303
-126.977
-128.88
-130.989
-133.233
-135.673
-138.354
-141.113
-143.609
-145.547
-146.785
-147.294
-147.133
-146.335
-144.916
-142.928
-140.461
-137.608
-134.435
-131
-127.338
-123.504
-119.575
-115.61
-111.656
-107.745
-103.889
-100.093
-96.352
-92.648
-88.952
-85.245
-81.51
-77.736
-73.915
-70.032
-66.071
-62.018
-57.858
-53.576
-49.157
-44.588
-39.858
-34.961
-29.896
-24.664
-19.268
-13.71
-7.99
-2.111
3.923
10.11
16.443
22.917
29.523
36.25
43.084
50.008
57.005
64.054
71.135
78.224
85.298
92.33
99.294
106.163
112.909
119.502
125.914
132.116
138.077
143.771
149.167
154.241
158.964
163.313
167.263
170.793
173.883
176.516
178.674
180.344
181.513
182.174
182.319
181.944
181.047
179.63
177.697
175.254
172.313
168.884
164.984
160.629
155.841
150.641
145.053
139.103
132.82
126.231
119.368
112.263
104.948
97.455
89.819
82.073
74.251
66.387
58.513
50.663
42.867
35.157
27.563
20.113
12.833
5.751
-1.112
-7.732
-14.089
-20.167
-25.947
-31.418
-36.567
-41.384
-45.862
-49.996
-53.781
-57.218
-60.305
-63.046
-65.446
-67.508
-69.242
-70.655
-71.759
-72.563
-73.082
-73.328
-73.316
-73.06
-72.577
-71.882
-70.993
-69.926
-68.698
-67.325
-65.825
-64.213
-62.507
-60.72
-58.869
-56.967
-55.027
-53.062
-51.084
-49.104
-47.131
-45.174
-43.243
-41.343
-39.481
-37.663
-35.894
-34.177
-32.515
-30.911
-29.365
-27.88
-26.455
-25.089
-23.782
-22.532
-21.337
-20.194
-19.1
-18.053
-17.048
-16.082
-15.15
-14.249
-13.375
-12.523
-11.69
-10.874
-10.07
-9.276
-8.49
-7.709
-6.933
-6.161
-5.39
-4.621
-3.854
-3.088
-2.326
-1.566
-0.812
-0.063
0.677
1.408
2.128
2.834
3.524
4.197
4.85
5.481
6.087
6.666
7.217
7.736
8.221
8.67
9.082
9.455
9.788
10.081
10.334
10.548
10.724
10.865
10.972
11.048
11.097
11.123
11.13
11.122
11.105
11.085
11.066
11.056
11.06
11.083
11.133
11.214
11.331
11.488
11.691
11.943
12.247
12.606
13.022
13.497
14.033
14.63
15.287
16.003
16.775
17.6
18.473
19.383
20.323
21.283
22.249
23.209
24.151
25.059
25.921
26.724
27.455
28.102
28.652
29.088
29.395
29.561
29.572
29.417
29.086
28.567
27.853
26.946
25.845
24.548
23.049
21.332
19.383
17.199
14.778
12.122
9.24
6.142
2.853
-0.579
-4.106
-7.679
-11.252
-14.794
-18.265
-21.611
-24.767
-27.658
-30.213
-32.388
-34.147
-35.45
-36.284
-36.666
-36.647
-36.322
-35.799
-35.178
-34.572
-34.097
-33.863
-33.979
-34.564
-35.774
-37.741
-40.496
-43.927
-47.794
-51.804
-55.669
-59.03
-61.367
-62.159
-61.105
-58.367
-54.518
-50.158
-45.938
-42.607
-40.971
-42.125
-46.001
-50.055
-51.247
-46.751
-35.902
-22.697
-10.135
3.747
25.113
65.983
137.816
242.451
375.748
527.764
683.016
829.435
953.742
1040.338
1077.551
1056.2
975.404
843.661
675.483
489.293
302.806
135.174
3.588
-79.632
-107.512
-86.401
-34.016
27.288
74.336
93.054
83.887
56.653
26.564
7.866
5.011
15.059
31.529
46.638
57.333
64.427
69.408
73.931
77.978
80.439
80.6
78.453
74.742
70.3
65.88
62.083
59.269
57.66
57.284
57.758
58.431
58.822
58.568
57.487
55.644
53.147
50.173
47.029
44.07
41.532
39.548
38.157
37.291
36.886
36.884
37.199
37.749
38.473
39.331
40.288
41.316
42.37
43.388
44.328
45.159
45.867
46.453
46.927
47.307
47.619
47.897
48.169
48.457
48.781
49.154
49.597
50.135
50.79
51.59
52.558
53.718
55.09
56.69
58.529
60.617
62.958
65.554
68.408
71.521
74.894
78.527
82.416
86.556
90.939
95.554
100.388
105.423
110.64
116.016
121.527
127.147
132.848
138.6
144.373
150.134
155.85
161.488
167.013
172.39
177.584
182.562
187.288
191.732
195.86
199.643
203.053
206.063
208.649
210.789
212.465
213.658
214.356
214.547
214.222
213.376
212.007
210.115
207.705
204.782
201.359
197.447
193.064
188.228
182.96
177.284
171.227
164.816
158.08
151.051
143.76
136.242
128.531
120.661
112.668
104.587
96.452
88.298
80.158
72.066
64.053
56.148
48.381
40.779
33.368
26.17
19.208
12.502
6.068
-0.079
-5.924
-11.459
-16.674
-21.563
-26.124
-30.355
-34.256
-37.83
-41.082
-44.018
-46.646
-48.975
-51.017
-52.783
-54.287
-55.544
-56.567
-57.373
-57.978
-58.398
-58.65
-58.749
-58.714
-58.558
-58.299
-57.952
-57.53
-57.049
-56.521
-55.959
-55.373
-54.776
-54.176
-53.581
-52.999
-52.437
-51.898
-51.388
-50.909
-50.464
-50.053
-49.678
-49.338
-49.031
-48.758
-48.515
-48.3
-48.111
-47.943
-47.795
-47.662
-47.541
-47.428
-47.321
-47.217
-47.112
-47.005
-46.892
-46.773
-46.645
-46.507
-46.359
-46.201
-46.033
-45.855
-45.67
-45.479
-45.285
-45.091
-44.901
-44.717
-44.544
-44.386
-44.248
-44.134
-44.049
-43.998
-43.985
-44.014
-44.09
-44.216
-44.396
-44.631
-44.925
-45.278
-45.693
-46.168
-46.703
-47.298
-47.95
-48.657
-49.417
-50.224
-51.075
-51.964
-52.884
-53.83
-54.794
-55.767
-56.739
-57.703
-58.649
-59.566
-60.446
-61.276
-62.048
-62.749
-63.371
-63.903
-64.335
-64.657
-64.86
-64.936
-64.879
-64.682
-64.34
-63.849
-63.207
-62.411
-61.463
-60.363
-59.113
-57.718
-56.183
-54.515
-52.723
-50.818
-48.809
-46.712
-44.544
-42.321
-40.064
-37.792
-35.528
-33.292
-31.108
-28.999
-26.986
-25.089
-23.329
-21.726
-20.304
-19.086
-18.091
-17.34
-16.85
-16.637
-16.718
-17.105
-17.801
-18.808
-20.128
-21.767
-23.741
-26.062
-28.731
-31.748
-35.109
-38.801
-42.806
-47.097
-51.62
-56.322
-61.152
-66.061
-71.017
-75.986
-80.916
-85.746
-90.403
-94.81
-98.924
-102.699
-106.083
-109.063
-111.65
-113.895
-115.907
-117.778
-119.581
-121.406
-123.328
-125.426
-127.806
-130.531
-133.697
-137.485
-141.987
-147.197
-153.021
-159.125
-165.093
-170.544
-174.93
-177.558
-177.931
-175.849
-171.535
-165.744
-159.544
-154.054
-150.376
-149.901
-152.931
-157.885
-162.711
-164.609
-162.622
-159.154
-155.464
-150.074
-136.556
-103.832
-42.131
53.441
180.407
330.976
493.459
653.565
796.919
906.305
966.868
969.25
908.658
790.35
624.998
426.919
218.218
21.27
-142.969
-257.034
-318.354
-333.682
-313.441
-273.285
-223.135
-170.273
-125.695
-95.579
-83.358
-88.817
-102.847
-116.304
-125.151
-128.471
-130.137
-135.189
-143.928
-154.544
-164.814
-171.907
-175.185
-175.488
-173.463
-170.088
-166.443
-163.3
-161.201
-160.572
-161.495
-163.807
-167.388
-172.001
-177.232
-182.633
-187.828
-192.51
-196.531
-199.868
-202.482
-204.356
-205.51
-205.976
-205.805
-205.05
-203.745
-201.908
-199.571
-196.774
-193.581
-190.074
-186.332
-182.436
-178.444
-174.392
-170.312
-166.221
-162.131
-158.045
-153.951
-149.831
-145.671
-141.461
-137.189
-132.847
-128.418
-123.879
-119.211
-114.395
-109.416
-104.264
-98.928
-93.4
-87.673
-81.746
-75.62
-69.298
-62.784
-56.077
-49.182
-42.104
-34.847
-27.422
-19.839
-12.109
-4.245
3.735
11.812
19.963
28.167
36.397
44.627
52.828
60.97
69.022
76.952
84.726
92.31
99.669
106.769
113.576
120.056
126.175
131.902
137.206
142.058
146.43
150.297
153.637
156.428
158.652
160.292
161.335
161.771
161.592
160.792
159.371
157.329
154.671
151.405
147.543
143.098
138.088
132.533
126.456
119.881
112.838
105.356
97.467
89.206
80.609
71.712
62.553
53.173
43.609
33.901
24.089
14.212
4.309
-5.583
-15.426
-25.184
-34.822
-44.307
-53.606
-62.689
-71.527
-80.094
-88.365
-96.318
-103.932
-111.19
-118.076
-124.578
-130.684
-136.386
-141.678
-146.557
-151.02
-155.07
-158.709
-161.943
-164.779
-167.224
-169.291
-170.991
-172.337
-173.342
-174.024
-174.396
-174.477
-174.284
-173.835
-173.149
-172.244
-171.139
-169.854
-168.407
-166.818
-165.104
-163.284
-161.374
-159.391
-157.352
-155.271
-153.163
-151.041
-148.918
-146.805
-144.714
-142.654
-140.633
-138.658
-136.738
-134.875
-133.077
-131.346
-129.685
-128.097
-126.584
-125.147
-123.785
-122.5
-121.29
-120.153
-119.087
-118.09
-117.159
-116.289
-115.477
-114.719
-114.011
-113.348
-112.727
-112.142
-111.59
-111.066
-110.568
-110.09
-109.629
-109.181
-108.744
-108.314
-107.89
-107.469
-107.049
-106.628
-106.205
-105.778
-105.346
-104.908
-104.463
-104.008
-103.542
-103.065
-102.576
-102.073
-101.556
-101.025
-100.479
-99.919
-99.344
-98.753
-98.147
-97.525
-96.886
-96.229
-95.552
-94.855
-94.136
-93.391
-92.621
-91.822
-90.991
-90.126
-89.223
-88.278
-87.288
-86.249
-85.156
-84.007
-82.797
-81.524
-80.185
-78.779
-77.303
-75.757
-74.139
-72.448
-70.686
-68.853
-66.949
-64.975
-62.934
-60.829
-58.665
-56.447
-54.179
-51.869
-49.528
-47.165
-44.792
-42.422
-40.067
-37.741
-35.46
-33.238
-31.089
-29.024
-27.058
-25.204
-23.477
-21.893
-20.466
-19.209
-18.135
-17.253
-16.576
-16.11
-15.855
-15.812
-15.981
-16.366
-16.982
-17.843
-18.952
-20.313
-21.925
-23.776
-25.855
-28.136
-30.571
-33.112
-35.715
-38.335
-40.948
-43.521
-46.009
-48.363
-50.517
-52.405
-53.987
-55.216
-56.054
-56.502
-56.587
-56.375
-55.991
-55.528
-55.074
-54.746
-54.628
-54.813
-55.407
-56.456
-58.043
-60.358
-63.502
-67.483
-72.202
-77.3
-82.331
-86.93
-90.566
-92.517
-92.252
-89.54
-84.555
-78.043
-71.095
-64.768
-60.156
-58.85
-61.198
-65.218
-68.57
-68.317
-63.6
-58.771
-56.824
-55.344
-46.687
-15.707
51.433
156.864
294.767
451.67
610.346
760
889.6
986.274
1037.784
1029.548
954.717
816.737
629.044
415.699
202.988
16.276
-126.479
-217.937
-260.899
-265.165
-240.129
-196.757
-143.033
-87.764
-44.61
-19.187
-13.144
-21.744
-31.23
-35.393
-33.255
-27.083
-24.965
-29.797
-39.717
-52.452
-63.788
-71.396
-75.66
-76.979
-75.942
-73.366
-69.755
-65.73
-62.285
-60.124
-59.447
-60.325
-62.64
-66.089
-70.436
-75.355
-80.316
-84.936
-89.022
-92.456
-95.258
-97.473
-99.077
-100.085
-100.566
-100.565
-100.128
-99.29
-98.052
-96.431
-94.477
-92.25
-89.824
-87.271
-84.631
-81.931
-79.186
-76.403
-73.586
-70.73
-67.819
-64.829
-61.743
-58.545
-55.223
-51.767
-48.159
-44.376
-40.398
-36.205
-31.785
-27.128
-22.228
-17.08
-11.682
-6.037
-0.152
5.966
12.306
18.861
25.62
32.572
39.702
46.994
54.429
61.989
69.651
77.39
85.182
92.998
100.808
108.582
116.29
123.898
131.375
138.686
145.798
152.678
159.292
165.609
171.595
177.22
182.455
187.271
191.642
195.544
198.956
201.857
204.232
206.066
207.348
208.07
208.226
207.814
206.834
205.29
203.188
200.537
197.35
193.642
189.431
184.739
179.589
174.007
168.021
161.661
154.96
147.949
140.665
133.143
125.42
117.534
109.523
101.424
93.275
85.115
76.98
68.907
60.929
53.08
45.394
37.899
30.624
23.597
16.842
10.382
4.238
-1.573
-7.034
-12.131
-16.853
-21.19
-25.137
-28.689
-31.843
-34.599
-36.96
-38.93
-40.514
-41.72
-42.559
-43.042
-43.181
-42.99
-42.486
-41.684
-40.602
-39.257
-37.668
-35.854
-33.833
-31.624
-29.246
-26.717
-24.056
-21.281
-18.408
-15.456
-12.439
-9.374
-6.275
-3.156
-0.03
3.09
6.194
9.271
12.311
15.306
18.248
21.129
23.944
26.687
29.355
31.943
34.449
36.87
39.204
41.452
43.612
45.683
47.665
49.559
51.365
53.083
54.712
56.255
57.71
59.078
60.359
61.555
62.663
63.686
64.621
65.47
66.231
66.905
67.491
67.988
68.397
68.717
68.947
69.089
69.141
69.103
68.976
68.759
68.452
68.056
67.572
67
66.342
65.6
64.777
63.876
62.9
61.854
60.742
59.57
58.343
57.067
55.749
54.397
53.018
51.62
50.212
48.803
47.402
46.018
44.661
43.339
42.062
40.839
39.679
38.591
37.584
36.665
35.844
35.128
34.526
34.044
33.688
33.465
33.377
33.43
33.626
33.966
34.45
35.078
35.847
36.755
37.798
38.97
40.265
41.676
43.193
44.806
46.503
48.269
50.089
51.947
53.826
55.708
57.575
59.409
61.193
62.913
64.553
66.099
67.534
68.842
70.005
71.011
71.846
72.498
72.956
73.211
73.257
73.098
72.732
72.162
71.381
70.375
69.133
67.651
65.927
63.966
61.777
59.372
56.778
54.04
51.203
48.312
45.407
42.516
39.671
36.92
34.319
31.94
29.847
28.088
26.705
25.727
25.159
24.982
25.143
25.55
26.112
26.727
27.28
27.669
27.794
27.562
26.865
25.522
23.378
20.397
16.687
12.522
8.231
4.112
0.542
-1.899
-2.689
-1.609
1.057
4.543
8.058
10.748
11.636
9.672
3.625
-5.936
-15.821
-22.948
-24.238
-19.68
-14.138
-8.808
-0.684
17.526
60.445
137.515
249.501
392.052
550.05
706.694
847.721
956.324
1021.622
1035.481
992.438
896.703
754.435
578.546
388.962
204.705
48.309
-64.428
-131.147
-156.472
-153.479
-136.008
-110.838
-83.557
-59.661
-43.115
-38.177
-44.841
-56.933
-68.667
-76.733
-80.803
-84.16
-88.733
-93.791
-97.985
-99.352
-97.217
-92.332
-85.519
-77.995
-70.81
-64.608
-59.854
-56.678
-54.955
-54.57
-55.457
-57.363
-60.024
-63.198
-66.619
-70.145
-73.669
-77.026
-80.032
-82.567
-84.547
-85.929
-86.725
-86.927
-86.542
-85.613
-84.192
-82.344
-80.132
-77.61
-74.829
-71.853
-68.755
-65.608
-62.489
-59.45
-56.522
-53.726
-51.065
-48.534
-46.117
-43.787
-41.512
-39.261
-37.006
-34.724
-32.394
-29.99
-27.486
-24.854
-22.07
-19.11
-15.956
-12.589
-8.996
-5.167
-1.093
3.23
7.801
12.621
17.692
23.011
28.577
34.383
40.423
46.685
53.16
59.829
66.676
73.678
80.812
88.049
95.363
102.722
110.093
117.442
124.734
131.931
138.997
145.894
152.582
159.026
165.187
171.028
176.515
181.612
186.288
190.512
194.255
197.493
200.202
202.362
203.955
204.967
205.387
205.208
204.425
203.036
201.044
198.454
195.277
191.526
187.216
182.367
177.003
171.148
164.833
158.087
150.945
143.442
135.615
127.502
119.145
110.582
101.857
93.009
84.082
75.116
66.152
57.229
48.386
39.66
31.086
22.697
14.525
6.599
-1.055
-8.411
-15.448
-22.146
-28.49
-34.466
-40.061
-45.27
-50.086
-54.507
-58.534
-62.169
-65.418
-68.288
-70.791
-72.937
-74.742
-76.22
-77.39
-78.269
-78.878
-79.238
-79.369
-79.294
-79.035
-78.615
-78.055
-77.377
-76.602
-75.751
-74.844
-73.899
-72.935
-71.969
-71.015
-70.088
-69.201
-68.365
-67.589
-66.883
-66.253
-65.704
-65.239
-64.862
-64.574
-64.373
-64.26
-64.232
-64.286
-64.417
-64.621
-64.892
-65.224
-65.61
-66.044
-66.519
-67.028
-67.563
-68.119
-68.688
-69.264
-69.84
-70.413
-70.976
-71.524
-72.054
-72.564
-73.049
-73.509
-73.942
-74.349
-74.728
-75.082
-75.411
-75.719
-76.007
-76.279
-76.538
-76.787
-77.03
-77.272
-77.515
-77.763
-78.02
-78.289
-78.572
-78.873
-79.192
-79.532
-79.892
-80.275
-80.679
-81.105
-81.55
-82.013
-82.492
-82.983
-83.483
-83.987
-84.49
-84.985
-85.469
-85.933
-86.372
-86.778
-87.144
-87.463
-87.727
-87.93
-88.064
-88.122
-88.097
-87.984
-87.776
-87.47
-87.062
-86.549
-85.93
-85.203
-84.37
-83.433
-82.394
-81.255
-80.022
-78.701
-77.3
-75.825
-74.287
-72.697
-71.068
-69.414
-67.752
-66.098
-64.47
-62.886
-61.364
-59.922
-58.579
-57.347
-56.243
-55.28
-54.474
-53.84
-53.395
-53.15
-53.116
-53.303
-53.719
-54.373
-55.266
-56.391
-57.745
-59.323
-61.127
-63.167
-65.45
-67.971
-70.726
-73.702
-76.881
-80.244
-83.755
-87.355
-90.99
-94.605
-98.148
-101.59
-104.886
-107.982
-110.816
-113.313
-115.409
-117.059
-118.222
-118.869
-119.002
-118.647
-117.87
-116.783
-115.497
-114.121
-112.786
-111.602
-110.679
-110.119
-110.018
-110.528
-111.775
-113.798
-116.502
-119.645
-122.917
-126.019
-128.581
-130.068
-129.963
-127.938
-124.107
-119.033
-113.301
-107.609
-102.8
-99.736
-99.625
-102.443
-105.604
-106.175
-101.418
-90.818
-78.752
-68.372
-57.593
-39.941
-2.535
66.904
170.495
303.901
456.046
610.365
754.568
875.779
959.922
995.821
972.297
885.82
741.339
552.535
343.304
137.789
-38.703
-167.002
-243.512
-271.642
-265.327
-244.033
-218.983
-199.181
-188.281
-182.24
-178.388
-172.156
-159.526
-141.86
-122.39
-106.585
-98.576
-98.423
-104.317
-113.256
-123.195
-133.691
-144.079
-153.162
-160.057
-164.283
-165.861
-165.4
-163.402
-160.135
-156.254
-152.78
-150.367
-149.339
-149.746
-151.259
-153.601
-156.573
-159.774
-162.727
-165.128
-166.807
-167.727
-167.984
-167.629
-166.691
-165.25
-163.389
-161.178
-158.669
-155.886
-152.851
-149.615
-146.253
-142.846
-139.458
-136.124
-132.866
-129.693
-126.611
-123.619
-120.698
-117.821
-114.971
-112.134
-109.297
-106.453
-103.583
-100.663
-97.67
-94.582
-91.374
-88.03
-84.535
-80.874
-77.04
-73.028
-68.835
-64.462
-59.909
-55.174
-50.258
-45.162
-39.89
-34.448
-28.845
-23.089
-17.194
-11.176
-5.054
1.152
7.418
13.723
20.038
26.337
32.591
38.771
44.846
50.785
56.558
62.133
67.479
72.566
77.365
81.846
85.984
89.751
93.123
96.08
98.601
100.668
102.265
103.38
104.001
104.121
103.733
102.836
101.429
99.513
97.096
94.186
90.794
86.936
82.629
77.892
72.749
67.224
61.343
55.136
48.631
41.861
34.857
27.652
20.281
12.776
5.171
-2.499
-10.202
-17.905
-25.577
-33.186
-40.703
-48.099
-55.348
-62.424
-69.302
-75.96
-82.376
-88.533
-94.411
-99.997
-105.276
-110.239
-114.874
-119.176
-123.141
-126.764
-130.046
-132.988
-135.593
-137.866
-139.813
-141.441
-142.761
-143.782
-144.515
-144.972
-145.165
-145.107
-144.811
-144.291
-143.559
-142.63
-141.516
-140.231
-138.787
-137.199
-135.478
-133.637
-131.688
-129.642
-127.51
-125.303
-123.03
-120.701
-118.323
-115.904
-113.45
-110.969
-108.464
-105.939
-103.4
-100.847
-98.282
-95.709
-93.127
-90.536
-87.938
-85.332
-82.718
-80.097
-77.468
-74.832
-72.189
-69.539
-66.882
-64.221
-61.554
-58.883
-56.209
-53.532
-50.855
-48.178
-45.502
-42.831
-40.165
-37.507
-34.859
-32.224
-29.605
-27.004
-24.426
-21.875
-19.353
-16.866
-14.419
-12.015
-9.66
-7.359
-5.116
-2.935
-0.819
1.228
3.203
5.104
6.93
8.679
10.35
11.943
13.458
14.895
16.255
17.54
18.752
19.893
20.966
21.975
22.923
23.816
24.657
25.451
26.204
26.921
27.607
28.269
28.915
29.549
30.181
30.817
31.465
32.133
32.826
33.551
34.313
35.117
35.969
36.87
37.823
38.829
39.89
41.006
42.176
43.397
44.666
45.979
47.33
48.714
50.121
51.54
52.959
54.366
55.748
57.09
58.376
59.591
60.72
61.749
62.664
63.453
64.099
64.588
64.903
65.028
64.95
64.657
64.136
63.377
62.373
61.125
59.634
57.9
55.92
53.681
51.17
48.386
45.328
41.997
38.408
34.577
30.532
26.326
22.007
17.623
13.221
8.83
4.483
0.23
-3.878
-7.769
-11.375
-14.651
-17.546
-20.018
-22.068
-23.716
-25.028
-26.118
-27.073
-27.972
-28.926
-30.01
-31.312
-32.934
-34.919
-37.362
-40.474
-44.352
-48.996
-54.302
-59.889
-65.308
-70.201
-73.999
-75.94
-75.548
-72.66
-67.514
-60.973
-54.195
-48.311
-44.59
-44.773
-48.917
-54.6
-59.375
-60.003
-56.037
-52.764
-52.476
-52.641
-45.438
-13.438
57.272
170.227
322.07
496.134
672.033
833.147
960.784
1042.786
1070.596
1036.99
944.598
799.833
616.506
416.211
220.884
53.659
-70.325
-146.168
-178.329
-178.809
-157.161
-122.818
-82.085
-40.688
-10.06
4.261
1.152
-14.788
-30.483
-38.83
-38.765
-33.214
-29.552
-30.527
-34.621
-39.681
-42.938
-43.75
-42.949
-40.744
-37.482
-33.564
-29.436
-25.945
-23.587
-22.382
-22.338
-23.495
-25.867
-29.414
-33.872
-38.733
-43.61
-48.271
-52.533
-56.309
-59.522
-62.078
-63.964
-65.233
-65.929
-66.101
-65.787
-64.998
-63.757
-62.112
-60.107
-57.811
-55.299
-52.635
-49.886
-47.097
-44.294
-41.497
-38.71
-35.929
-33.143
-30.329
-27.462
-24.524
-21.502
-18.381
-15.147
-11.781
-8.261
-4.572
-0.699
3.369
7.639
12.117
16.805
21.702
26.804
32.102
37.586
43.25
49.083
55.076
61.219
67.496
73.895
80.399
86.991
93.652
100.36
107.091
113.82
120.521
127.167
133.728
140.176
146.482
152.614
158.543
164.239
169.673
174.814
179.635
184.108
188.208
191.91
195.191
198.03
200.41
202.313
203.725
204.636
205.035
204.915
204.272
203.103
201.409
199.193
196.46
193.218
189.478
185.252
180.558
175.412
169.837
163.853
157.487
150.763
143.71
136.357
128.735
120.874
112.808
104.568
96.188
87.701
79.14
70.538
61.926
53.336
44.798
36.34
27.99
19.775
11.719
3.845
-3.824
-11.268
-18.468
-25.409
-32.074
-38.451
-44.53
-50.299
-55.753
-60.886
-65.694
-70.176
-74.329
-78.157
-81.661
-84.846
-87.718
-90.283
-92.55
-94.528
-96.227
-97.659
-98.835
-99.767
-100.467
-100.949
-101.224
-101.307
-101.208
-100.942
-100.52
-99.954
-99.257
-98.441
-97.516
-96.493
-95.383
-94.196
-92.939
-91.623
-90.255
-88.843
-87.395
-85.916
-84.415
-82.897
-81.367
-79.832
-78.295
-76.763
-75.238
-73.725
-72.227
-70.749
-69.293
-67.863
-66.462
-65.093
-63.761
-62.468
-61.219
-60.016
-58.862
-57.763
-56.72
-55.737
-54.819
-53.968
-53.189
-52.484
-51.858
-51.314
-50.856
-50.486
-50.207
-50.022
-49.932
-49.939
-50.044
-50.248
-50.55
-50.951
-51.449
-52.044
-52.732
-53.511
-54.378
-55.328
-56.355
-57.455
-58.62
-59.843
-61.117
-62.433
-63.784
-65.16
-66.551
-67.948
-69.341
-70.719
-72.07
-73.384
-74.648
-75.852
-76.984
-78.033
-78.989
-79.84
-80.576
-81.187
-81.666
-82.002
-82.188
-82.216
-82.079
-81.773
-81.293
-80.637
-79.802
-78.788
-77.595
-76.226
-74.684
-72.975
-71.103
-69.074
-66.898
-64.583
-62.138
-59.575
-56.907
-54.147
-51.311
-48.419
-45.488
-42.539
-39.591
-36.665
-33.782
-30.962
-28.221
-25.577
-23.047
-20.645
-18.392
-16.305
-14.399
-12.688
-11.186
-9.902
-8.847
-8.029
-7.445
-7.091
-6.969
-7.082
-7.448
-8.08
-8.984
-10.162
-11.615
-13.335
-15.315
-17.53
-19.939
-22.494
-25.149
-27.862
-30.607
-33.349
-36.036
-38.602
-40.97
-43.069
-44.845
-46.257
-47.266
-47.855
-48.041
-47.878
-47.448
-46.852
-46.189
-45.567
-45.107
-44.931
-45.152
-45.923
-47.457
-49.933
-53.407
-57.741
-62.61
-67.62
-72.398
-76.507
-79.316
-80.24
-79.093
-76.344
-72.964
-70.078
-68.78
-69.958
-74.703
-84.288
-97.909
-112.356
-124.324
-129.55
-127.205
-121.01
-109.915
-91.044
-57.703
3.022
95.244
217.81
365.623
523.866
680.603
821.559
928.883
991.112
996.878
944.768
843.743
703.067
538.185
362.137
186.682
29.083
-96.024
-177.041
-208.987
-197.489
-156.367
-101.988
-49.844
-13.623
3.036
3.094
-7.117
-15.996
-18.646
-16.666
-13.071
-13.845
-20.89
-31.506
-42.87
-52.118
-57.995
-60.727
-60.709
-58.525
-54.841
-50.612
-46.901
-44.264
-42.966
-43.192
-44.908
-48.055
-52.501
-57.808
-63.46
-69.121
-74.53
-79.499
-83.96
-87.823
-91.012
-93.544
-95.45
-96.751
-97.482
-97.664
-97.303
-96.437
-95.105
-93.353
-91.248
-88.858
-86.251
-83.5
-80.654
-77.747
-74.805
-71.843
-68.868
-65.883
-62.878
-59.835
-56.743
-53.594
-50.378
-47.087
-43.704
-40.213
-36.599
-32.848
-28.952
-24.903
-20.694
-16.32
-11.78
-7.074
-2.206
2.82
7.999
13.329
18.805
24.424
30.177
36.057
42.055
48.162
54.365
60.65
67.001
73.399
79.826
86.262
92.684
99.069
105.393
111.632
117.758
123.747
129.572
135.205
140.62
145.789
150.687
155.288
159.568
163.503
167.07
170.251
173.025
175.375
177.288
178.749
179.748
180.275
180.326
179.896
178.983
177.589
175.719
173.378
170.576
167.326
163.642
159.543
155.046
150.176
144.956
139.412
133.571
127.464
121.121
114.573
107.854
100.997
94.036
87.005
79.937
72.866
65.825
58.846
51.96
45.197
38.585
32.152
25.921
19.918
14.163
8.676
3.473
-1.429
-6.019
-10.286
-14.221
-17.819
-21.077
-23.994
-26.571
-28.812
-30.723
-32.312
-33.587
-34.562
-35.248
-35.661
-35.816
-35.731
-35.423
-34.911
-34.215
-33.355
-32.349
-31.218
-29.982
-28.659
-27.269
-25.829
-24.356
-22.867
-21.377
-19.9
-18.45
-17.037
-15.673
-14.367
-13.127
-11.959
-10.869
-9.86
-8.935
-8.096
-7.342
-6.673
-6.087
-5.58
-5.149
-4.789
-4.494
-4.259
-4.077
-3.94
-3.843
-3.778
-3.737
-3.713
-3.7
-3.691
-3.68
-3.66
-3.628
-3.577
-3.505
-3.408
-3.284
-3.131
-2.949
-2.738
-2.497
-2.229
-1.935
-1.617
-1.278
-0.923
-0.555
-0.179
0.201
0.579
0.95
1.308
1.648
1.965
2.254
2.509
2.726
2.901
3.029
3.107
3.133
3.102
3.014
2.867
2.66
2.393
2.067
1.685
1.249
0.762
0.229
-0.345
-0.955
-1.595
-2.258
-2.938
-3.628
-4.32
-5.006
-5.679
-6.33
-6.95
-7.532
-8.068
-8.549
-8.97
-9.324
-9.605
-9.808
-9.928
-9.963
-9.909
-9.765
-9.527
-9.196
-8.771
-8.255
-7.649
-6.957
-6.186
-5.343
-4.439
-3.486
-2.499
-1.491
-0.477
0.529
1.512
2.456
3.345
4.165
4.901
5.537
6.055
6.437
6.667
6.732
6.62
6.326
5.84
5.158
4.281
3.203
1.924
0.44
-1.267
-3.203
-5.371
-7.774
-10.408
-13.257
-16.308
-19.532
-22.883
-26.326
-29.817
-33.319
-36.807
-40.231
-43.545
-46.7
-49.641
-52.343
-54.779
-56.904
-58.683
-60.091
-61.148
-61.951
-62.588
-63.096
-63.591
-64.222
-65.238
-67.052
-69.86
-73.668
-78.559
-84.517
-91.344
-98.766
-105.984
-111.735
-115.262
-116.15
-114.016
-108.956
-101.35
-91.785
-81.825
-73.953
-70.146
-71.744
-80.048
-94.319
-111.531
-128.914
-142.878
-151.763
-159.392
-167.5
-172.453
-165.732
-131.354
-56.273
60.127
210.617
380.749
553.406
717.67
861.483
969.984
1030.197
1029.458
964.709
844.105
682.476
499.628
313.31
140.238
-6.841
-119.324
-190.58
-222.055
-217.047
-182.253
-130.674
-73.927
-26.648
-0.799
2.13
-14.554
-40.685
-64.215
-80.585
-88.842
-91.635
-94.252
-97.81
-101.346
-103.503
-101.876
-96.195
-88.002
-78.837
-70.168
-62.875
-57.075
-52.803
-50.265
-49.474
-50.207
-52.092
-54.726
-57.827
-61.273
-64.986
-68.798
-72.51
-75.943
-78.985
-81.592
-83.733
-85.376
-86.481
-87.029
-87.044
-86.58
-85.696
-84.445
-82.871
-81.012
-78.925
-76.677
-74.34
-71.989
-69.675
-67.425
-65.255
-63.169
-61.159
-59.213
-57.305
-55.394
-53.447
-51.435
-49.331
-47.117
-44.768
-42.257
-39.557
-36.644
-33.496
-30.097
-26.432
-22.49
-18.263
-13.746
-8.941
-3.851
1.518
7.162
13.073
19.244
25.664
32.318
39.191
46.265
53.518
60.924
68.456
76.082
83.77
91.484
99.188
106.844
114.412
121.852
129.124
136.185
142.995
149.513
155.699
161.513
166.917
171.876
176.354
180.32
183.744
186.599
188.861
190.508
191.523
191.891
191.6
190.643
189.016
186.719
183.753
180.127
175.85
170.938
165.408
159.284
152.589
145.352
137.605
129.381
120.719
111.655
102.231
92.489
82.472
72.225
61.793
51.221
40.555
29.838
19.116
8.432
-2.173
-12.657
-22.982
-33.111
-43.008
-52.641
-61.98
-70.997
-79.667
-87.967
-95.878
-103.384
-110.47
-117.127
-123.345
-129.122
-134.454
-139.343
-143.792
-147.809
-151.4
-154.579
-157.358
-159.752
-161.777
-163.452
-164.797
-165.832
-166.578
-167.057
-167.291
-167.303
-167.115
-166.749
-166.227
-165.571
-164.801
-163.936
-162.996
-161.999
-160.96
-159.895
-158.819
-157.744
-156.682
-155.643
-154.636
-153.668
-152.745
-151.872
-151.052
-150.287
-149.578
-148.925
-148.327
-147.782
-147.287
-146.84
-146.436
-146.072
-145.744
-145.449
-145.18
-144.935
-144.71
-144.499
-144.301
-144.112
-143.93
-143.752
-143.577
-143.405
-143.235
-143.067
-142.903
-142.743
-142.59
-142.444
-142.31
-142.189
-142.085
-142.002
-141.943
-141.914
-141.916
-141.956
-142.036
-142.159
-142.329
-142.547
-142.815
-143.135
-143.505
-143.926
-144.397
-144.914
-145.476
-146.08
-146.72
-147.39
-148.085
-148.797
-149.518
-150.239
-150.95
-151.641
-152.302
-152.92
-153.487
-153.989
-154.417
-154.757
-155
-155.133
-155.147
-155.03
-154.771
-154.363
-153.796
-153.063
-152.16
-151.082
-149.825
-148.388
-146.771
-144.977
-143.008
-140.87
-138.568
-136.11
-133.506
-130.768
-127.908
-124.941
-121.882
-118.751
-115.568
-112.356
-109.137
-105.935
-102.772
-99.675
-96.668
-93.773
-91.009
-88.397
-85.954
-83.701
-81.66
-79.849
-78.284
-76.98
-75.949
-75.202
-74.75
-74.593
-74.727
-75.146
-75.846
-76.828
-78.107
-79.687
-81.566
-83.739
-86.194
-88.911
-91.871
-95.035
-98.344
-101.743
-105.176
-108.596
-111.976
-115.274
-118.438
-121.41
-124.107
-126.459
-128.418
-129.934
-130.986
-131.579
-131.731
-131.502
-130.98
-130.254
-129.43
-128.602
-127.831
-127.196
-126.751
-126.605
-126.982
-128.006
-129.703
-131.992
-134.548
-136.986
-139.007
-140.107
-139.58
-137.018
-132.209
-125.304
-117.328
-109.541
-103.07
-99.423
-99.367
-101.939
-105.773
-108.943
-110.92
-114.287
-120.83
-129.668
-133.24
-118.144
-73.024
8.948
123.89
260.242
407.284
553.548
690.454
808.481
892.69
929.135
907.342
825.927
694.117
527.106
343.289
160.746
-3.706
-136.01
-226.388
-272.874
-280.859
-259.621
-222.368
-179.975
-141.667
-115.123
-100.692
-95.05
-91.209
-82.146
-67.255
-50.284
-37.205
-31.946
-34.334
-42.027
-51.913
-62.382
-72.692
-81.643
-88.618
-93.306
-95.555
-95.889
-94.818
-92.543
-89.655
-87.088
-85.43
-85.002
-85.842
-87.612
-90.005
-92.803
-95.671
-98.21
-100.156
-101.373
-101.828
-101.614
-100.802
-99.441
-97.595
-95.339
-92.728
-89.801
-86.594
-83.137
-79.479
-75.693
-71.833
-67.938
-64.034
-60.134
-56.242
-52.362
-48.484
-44.588
-40.658
-36.688
-32.671
-28.603
-24.474
-20.267
-15.963
-11.544
-6.994
-2.297
2.559
7.585
12.79
18.177
23.746
29.496
35.427
41.54
47.833
54.305
60.953
67.768
74.745
81.872
89.137
96.525
104.016
111.591
119.227
126.901
134.588
142.26
149.889
157.443
164.892
172.203
179.343
186.278
192.972
199.392
205.503
211.27
216.661
221.644
226.187
230.26
233.837
236.893
239.404
241.349
242.713
243.479
243.636
243.176
242.093
240.386
238.057
235.109
231.554
227.402
222.669
217.374
211.541
205.192
198.359
191.07
183.359
175.263
166.819
158.067
149.048
139.805
130.381
120.822
111.173
101.477
91.781
82.129
72.564
63.128
53.862
44.805
35.996
27.468
19.255
11.387
3.892
-3.205
-9.881
-16.117
-21.897
-27.207
-32.036
-36.377
-40.225
-43.579
-46.439
-48.809
-50.696
-52.109
-53.059
-53.559
-53.625
-53.274
-52.527
-51.403
-49.924
-48.114
-45.997
-43.597
-40.939
-38.048
-34.949
-31.666
-28.225
-24.648
-20.958
-17.176
-13.323
-9.42
-5.483
-1.531
2.422
6.359
10.269
14.138
17.958
21.717
25.407
29.023
32.557
36.006
39.366
42.633
45.805
48.883
51.865
54.751
57.543
60.242
62.85
65.368
67.799
70.146
72.41
74.593
76.697
78.724
80.674
82.547
84.343
86.062
87.703
89.263
90.741
92.135
93.442
94.66
95.784
96.813
97.743
98.57
99.291
99.904
100.405
100.793
101.066
101.222
101.26
101.181
100.984
100.67
100.241
99.698
99.044
98.281
97.415
96.448
95.388
94.239
93.01
91.708
90.343
88.924
87.462
85.968
84.453
82.928
81.405
79.897
78.416
76.974
75.583
74.256
73.004
71.837
70.768
69.803
68.952
68.222
67.618
67.145
66.807
66.605
66.541
66.614
66.825
67.17
67.645
68.246
68.967
69.798
70.732
71.756
72.855
74.015
75.218
76.447
77.682
78.906
80.096
81.234
82.304
83.289
84.173
84.938
85.566
86.04
86.345
86.466
86.392
86.113
85.616
84.898
83.962
82.809
81.442
79.856
78.036
75.971
73.657
71.091
68.279
65.229
61.952
58.478
54.854
51.13
47.36
43.59
39.85
36.184
32.645
29.293
26.21
23.464
21.107
19.19
17.748
16.778
16.253
16.116
16.273
16.628
17.071
17.465
17.688
17.667
17.347
16.607
15.232
13.034
9.928
6.027
1.681
-2.914
-7.657
-12.003
-15.252
-16.885
-16.36
-14.712
-13.498
-12.511
-12.284
-11.722
-9.765
-9.197
-9.8
-12.385
-18.1
-24.273
-33.181
-43.082
-46.461
-34.753
6.914
85.202
195.584
328.529
467.99
603.797
732.066
845.76
936.215
990.391
993.52
942.291
842.627
706.028
550.153
387.173
227.541
83.786
-36.227
-123.442
-173.62
-190.168
-177.967
-147.341
-108.975
-72.498
-46.299
-31.666
-26.078
-23.371
-17.622
-8.783
0.552
6.165
4.962
-2.476
-13.708
-26.04
-37.47
-46.644
-53.14
-57.114
-58.617
-58.027
-56.001
-52.967
-49.589
-46.891
-45.399
-45.328
-46.79
-49.524
-53.245
-57.78
-62.744
-67.631
-72.142
-76.1
-79.423
-82.199
-84.453
-86.169
-87.406
-88.233
-88.708
-88.887
-88.792
-88.419
-87.801
-86.992
-86.057
-85.069
-84.072
-83.087
-82.129
-81.2
-80.3
-79.424
-78.549
-77.65
-76.704
-75.693
-74.599
-73.41
-72.103
-70.653
-69.036
-67.225
-65.202
-62.951
-60.457
-57.711
-54.707
-51.44
-47.909
-44.119
-40.07
-35.765
-31.209
-26.406
-21.364
-16.094
-10.607
-4.918
0.956
6.996
13.181
19.485
25.885
32.353
38.86
45.378
51.874
58.318
64.676
70.917
77.006
82.911
88.599
94.039
99.2
104.051
108.566
112.718
116.482
119.837
122.762
125.24
127.256
128.796
129.851
130.412
130.474
130.036
129.098
127.662
125.735
123.325
120.445
117.109
113.334
109.139
104.546
99.579
94.263
88.627
82.699
76.509
70.088
63.468
56.681
49.761
42.739
35.647
28.516
21.378
14.261
7.194
0.205
-6.681
-13.439
-20.047
-26.482
-32.726
-38.76
-44.569
-50.138
-55.455
-60.511
-65.296
-69.806
-74.036
-77.983
-81.649
-85.034
-88.142
-90.979
-93.55
-95.866
-97.935
-99.768
-101.377
-102.774
-103.972
-104.984
-105.823
-106.503
-107.037
-107.438
-107.719
-107.893
-107.971
-107.965
-107.887
-107.746
-107.553
-107.317
-107.047
-106.749
-106.431
-106.098
-105.757
-105.411
-105.065
-104.72
-104.379
-104.043
-103.713
-103.388
-103.066
-102.748
-102.429
-102.109
-101.785
-101.454
-101.114
-100.762
-100.397
-100.017
-99.621
-99.207
-98.774
-98.323
-97.854
-97.366
-96.861
-96.34
-95.805
-95.257
-94.7
-94.137
-93.57
-93.003
-92.44
-91.884
-91.341
-90.813
-90.306
-89.824
-89.372
-88.955
-88.577
-88.242
-87.955
-87.721
-87.541
-87.42
-87.358
-87.357
-87.418
-87.54
-87.723
-87.964
-88.26
-88.609
-89.008
-89.45
-89.931
-90.445
-90.986
-91.546
-92.117
-92.691
-93.26
-93.814
-94.345
-94.843
-95.299
-95.705
-96.051
-96.327
-96.526
-96.638
-96.655
-96.568
-96.371
-96.057
-95.62
-95.055
-94.36
-93.532
-92.571
-91.476
-90.249
-88.893
-87.411
-85.809
-84.091
-82.266
-80.343
-78.33
-76.24
-74.085
-71.88
-69.643
-67.391
-65.142
-62.914
-60.726
-58.6
-56.558
-54.619
-52.802
-51.124
-49.6
-48.251
-47.096
-46.152
-45.429
-44.938
-44.689
-44.69
-44.955
-45.489
-46.288
-47.345
-48.65
-50.202
-52.014
-54.092
-56.432
-59.027
-61.864
-64.929
-68.214
-71.696
-75.328
-79.061
-82.834
-86.592
-90.306
-93.949
-97.496
-100.913
-104.129
-107.064
-109.648
-111.826
-113.574
-114.911
-115.838
-116.338
-116.482
-116.444
-116.52
-117.034
-118.148
-119.804
-121.881
-124.441
-127.607
-131.3
-135.077
-138.183
-140.016
-140.503
-139.926
-138.297
-135.332
-130.873
-125.336
-120.042
-116.431
-115.199
-116.493
-120.436
-127.467
-138.406
-152.123
-164.645
-172.294
-171.749
-163.54
-152.572
-138.888
-118.547
-83.059
-20.236
72.925
191.411
325.731
463.145
596.918
722.75
832.48
915.083
953.235
931.305
845.01
698.962
510.644
305.32
106.175
-63.987
-189.043
-263.909
-289.882
-275.334
-235.164
-183.261
-133.216
-98.978
-85.103
-90.009
-106.96
-122.42
-129.832
-129.518
-124.695
-122.694
-125.911
-131.78
-138.023
-141.874
-142.416
-140.575
-136.722
-131.283
-125.162
-119.369
-114.655
-111.391
-109.571
-109.01
-109.758
-111.877
-115.14
-119.097
-123.32
-127.494
-131.43
-135.032
-138.164
-140.683
-142.522
-143.687
-144.208
-144.116
-143.444
-142.212
-140.451
-138.214
-135.552
-132.522
-129.194
-125.644
-121.949
-118.195
-114.438
-110.717
-107.062
-103.486
-99.996
-96.589
-93.247
-89.944
-86.663
-83.389
-80.107
-76.803
-73.456
-70.043
-66.544
-62.941
-59.216
-55.357
-51.351
-47.185
-42.854
-38.354
-33.683
-28.844
-23.837
-18.659
-13.312
-7.797
-2.117
3.722
9.717
15.86
22.142
28.55
35.072
41.691
48.389
55.148
61.948
68.766
75.578
82.361
89.089
95.735
102.274
108.676
114.914
120.96
126.786
132.366
137.672
142.679
147.362
151.699
155.668
159.248
162.423
165.175
167.49
169.356
170.763
171.704
172.173
172.166
171.682
170.724
169.297
167.406
165.061
162.274
159.058
155.429
151.406
147.009
142.259
137.181
131.799
126.141
120.234
114.108
107.791
101.313
94.705
87.998
81.221
74.405
67.578
60.768
54.005
47.313
40.718
34.244
27.914
21.748
15.766
9.986
4.424
-0.906
-5.991
-10.821
-15.385
-19.678
-23.692
-27.426
-30.877
-34.045
-36.932
-39.543
-41.882
-43.955
-45.772
-47.341
-48.674
-49.78
-50.674
-51.368
-51.875
-52.21
-52.386
-52.419
-52.322
-52.109
-51.794
-51.389
-50.907
-50.361
-49.761
-49.119
-48.444
-47.746
-47.034
-46.316
-45.598
-44.888
-44.19
-43.51
-42.851
-42.216
-41.607
-41.026
-40.473
-39.947
-39.449
-38.977
-38.528
-38.1
-37.69
-37.295
-36.912
-36.536
-36.164
-35.793
-35.419
-35.039
-34.65
-34.25
-33.837
-33.409
-32.964
-32.501
-32.02
-31.52
-31.002
-30.465
-29.912
-29.342
-28.758
-28.161
-27.553
-26.937
-26.315
-25.689
-25.063
-24.438
-23.819
-23.207
-22.607
-22.02
-21.45
-20.898
-20.367
-19.859
-19.374
-18.914
-18.478
-18.067
-17.68
-17.316
-16.974
-16.651
-16.345
-16.054
-15.773
-15.498
-15.226
-14.95
-14.666
-14.367
-14.049
-13.706
-13.332
-12.92
-12.465
-11.962
-11.404
-10.786
-10.103
-9.349
-8.519
-7.611
-6.621
-5.546
-4.386
-3.14
-1.808
-0.392
1.108
2.687
4.343
6.072
7.868
9.725
11.635
13.589
15.578
17.589
19.608
21.622
23.615
25.57
27.472
29.3
31.036
32.661
34.16
35.518
36.719
37.749
38.592
39.238
39.68
39.909
39.918
39.699
39.245
38.558
37.649
36.528
35.209
33.697
31.988
30.081
27.984
25.704
23.245
20.611
17.809
14.858
11.808
8.717
5.635
2.603
-0.368
-3.272
-6.082
-8.75
-11.21
-13.387
-15.226
-16.689
-17.715
-18.227
-18.23
-17.814
-17.191
-16.685
-16.571
-17.02
-18.125
-19.935
-22.301
-24.965
-27.544
-29.409
-29.945
-28.67
-25.298
-19.793
-12.498
-3.947
5.281
14.301
22.005
27.202
28.943
26.526
19.715
8.796
-6.128
-23.81
-40.946
-54.107
-60.058
-57.546
-49.67
-38.668
-22.537
4.405
52.929
132.156
242.264
377.89
528.394
680.544
825.484
952.774
1049.867
1105.001
1105.188
1045.484
930.012
769.851
584.483
394.484
219.973
78.901
-18.117
-70.679
-86.559
-79.21
-65.232
-52.438
-42.931
-36.642
-26.426
-10.487
8.915
31.04
49.941
61.574
65.938
62.825
54.494
43.541
31.188
18.513
6.502
-3.638
-11.104
-15.71
-17.588
-17.33
-15.644
-12.976
-10.05
-7.899
-7.069
-7.788
-10.111
-13.733
-18.368
-23.831
-29.716
-35.499
-40.867
-45.632
-49.721
-53.222
-56.158
-58.512
-60.34
-61.717
-62.7
-63.346
-63.678
-63.694
-63.431
-62.95
-62.323
-61.63
-60.922
-60.223
-59.553
-58.915
-58.314
-57.745
-57.19
-56.62
-56.016
-55.358
-54.633
-53.827
-52.919
-51.883
-50.695
-49.328
-47.761
-45.978
-43.965
-41.708
-39.199
-36.433
-33.407
-30.122
-26.576
-22.771
-18.707
-14.386
-9.813
-4.995
0.057
5.334
10.822
16.503
22.357
28.365
34.501
40.74
47.057
53.422
59.805
66.176
72.505
78.758
84.904
90.91
96.745
102.377
107.775
112.91
117.752
122.274
126.45
130.257
133.673
136.676
139.251
141.38
143.051
144.253
144.977
145.219
144.975
144.244
143.031
141.34
139.18
136.563
133.502
130.015
126.12
121.839
117.194
112.211
106.914
101.332
95.492
89.423
83.156
76.72
70.145
63.461
56.699
49.886
43.053
36.226
29.434
22.702
16.055
9.517
3.111
-3.142
-9.222
-15.112
-20.795
-26.256
-31.483
-36.464
-41.192
-45.658
-49.859
-53.79
-57.451
-60.841
-63.964
-66.821
-69.417
-71.759
-73.853
-75.706
-77.326
-78.724
-79.908
-80.889
-81.676
-82.28
-82.713
-82.984
-83.106
-83.089
-82.944
-82.683
-82.315
-81.852
-81.304
-80.682
-79.994
-79.25
-78.459
-77.629
-76.767
-75.88
-74.974
-74.054
-73.124
-72.189
-71.252
-70.315
-69.382
-68.454
-67.534
-66.622
-65.721
-64.832
-63.955
-63.093
-62.247
-61.417
-60.605
-59.812
-59.039
-58.289
-57.561
-56.856
-56.177
-55.524
-54.897
-54.298
-53.727
-53.185
-52.672
-52.191
-51.741
-51.325
-50.944
-50.6
-50.294
-50.03
-49.809
-49.633
-49.504
-49.425
-49.396
-49.42
-49.498
-49.631
-49.818
-50.062
-50.36
-50.713
-51.119
-51.576
-52.082
-52.634
-53.23
-53.865
-54.536
-55.238
-55.969
-56.722
-57.494
-58.281
-59.077
-59.876
-60.673
-61.462
-62.236
-62.988
-63.711
-64.397
-65.038
-65.626
-66.153
-66.613
-66.996
-67.296
-67.506
-67.617
-67.624
-67.521
-67.302
-66.963
-66.499
-65.908
-65.188
-64.338
-63.358
-62.249
-61.012
-59.65
-58.167
-56.567
-54.853
-53.032
-51.11
-49.095
-46.995
-44.819
-42.577
-40.284
-37.955
-35.606
-33.256
-30.92
-28.62
-26.374
-24.201
-22.121
-20.147
-18.295
-16.579
-15.016
-13.622
-12.415
-11.407
-10.611
-10.038
-9.697
-9.597
-9.742
-10.125
-10.743
-11.596
-12.688
-14.038
-15.661
-17.56
-19.739
-22.193
-24.911
-27.879
-31.065
-34.414
-37.87
-41.377
-44.888
-48.374
-51.794
-55.093
-58.21
-61.059
-63.567
-65.682
-67.357
-68.566
-69.31
-69.617
-69.557
-69.235
-68.767
-68.287
-67.925
-67.79
-68
-68.636
-69.819
-71.786
-74.68
-78.496
-83.121
-88.185
-93.256
-98.03
-102.047
-104.576
-105.123
-103.557
-100.149
-95.861
-91.902
-89.247
-88.842
-92.036
-98.949
-107.619
-115.727
-120.01
-118.589
-114.12
-108.293
-98.65
-79.876
-41.074
28.544
130.534
261.856
414.558
574.522
729.901
865.916
964.249
1011.109
996.351
919.424
790.136
623.629
439.177
256.399
94.157
-32.844
-116.576
-158.292
-166.655
-150.922
-121.907
-86.288
-50.063
-23.92
-12.457
-17.653
-36.309
-56.242
-70.719
-77.449
-77.108
-75.979
-76.644
-78.101
-79.436
-78.533
-74.919
-69.935
-64.509
-59.449
-55.399
-52.607
-51.206
-51.225
-52.503
-54.766
-57.799
-61.458
-65.59
-70.033
-74.636
-79.225
-83.627
-87.692
-91.297
-94.351
-96.799
-98.619
-99.797
-100.34
-100.291
-99.705
-98.641
-97.155
-95.292
-93.092
-90.614
-87.926
-85.104
-82.222
-79.333
-76.467
-73.647
-70.883
-68.175
-65.52
-62.894
-60.267
-57.615
-54.92
-52.165
-49.341
-46.427
-43.403
-40.249
-36.945
-33.478
-29.835
-26.004
-21.977
-17.748
-13.315
-8.68
-3.848
1.178
6.395
11.797
17.38
23.135
29.053
35.123
41.332
47.665
54.104
60.629
67.216
73.843
80.485
87.114
93.703
100.222
106.641
112.93
119.057
124.992
130.702
136.155
141.322
146.171
150.675
154.806
158.536
161.843
164.704
167.099
169.01
170.421
171.319
171.694
171.538
170.844
169.612
167.84
165.532
162.692
159.331
155.459
151.091
146.243
140.934
135.185
129.02
122.464
115.545
108.29
100.731
92.899
84.825
76.543
68.085
59.487
50.779
41.996
33.17
24.332
15.513
6.741
-1.954
-10.546
-19.009
-27.321
-35.458
-43.401
-51.13
-58.629
-65.883
-72.878
-79.605
-86.053
-92.214
-98.084
-103.658
-108.933
-113.909
-118.587
-122.969
-127.059
-130.861
-134.384
-137.632
-140.616
-143.342
-145.821
-148.062
-150.075
-151.869
-153.455
-154.843
-156.042
-157.062
-157.912
-158.602
-159.139
-159.533
-159.79
-159.919
-159.925
-159.817
-159.6
-159.279
-158.861
-158.351
-157.754
-157.075
-156.317
-155.487
-154.586
-153.62
-152.592
-151.506
-150.364
-149.171
-147.931
-146.646
-145.322
-143.963
-142.574
-141.16
-139.727
-138.28
-136.825
-135.37
-133.92
-132.483
-131.067
-129.679
-128.327
-127.018
-125.761
-124.564
-123.434
-122.379
-121.405
-120.52
-119.729
-119.038
-118.453
-117.978
-117.619
-117.379
-117.261
-117.269
-117.405
-117.669
-118.062
-118.585
-119.234
-120.008
-120.904
-121.918
-123.045
-124.278
-125.613
-127.04
-128.551
-130.138
-131.79
-133.497
-135.248
-137.031
-138.834
-140.645
-142.453
-144.244
-146.007
-147.73
-149.401
-151.008
-152.54
-153.985
-155.331
-156.568
-157.686
-158.673
-159.521
-160.221
-160.766
-161.147
-161.359
-161.397
-161.255
-160.931
-160.42
-159.721
-158.834
-157.759
-156.498
-155.053
-153.429
-151.631
-149.665
-147.539
-145.261
-142.839
-140.284
-137.605
-134.815
-131.924
-128.947
-125.895
-122.786
-119.635
-116.461
-113.282
-110.118
-106.99
-103.915
-100.915
-98.01
-95.215
-92.546
-90.02
-87.65
-85.452
-83.444
-81.638
-80.048
-78.686
-77.561
-76.684
-76.06
-75.688
-75.563
-75.682
-76.048
-76.668
-77.554
-78.707
-80.127
-81.814
-83.758
-85.945
-88.351
-90.927
-93.626
-96.398
-99.199
-101.997
-104.755
-107.425
-109.952
-112.272
-114.322
-116.059
-117.432
-118.401
-118.971
-119.175
-119.082
-118.799
-118.399
-117.965
-117.621
-117.434
-117.436
-117.694
-118.239
-119.181
-120.785
-123.17
-126.282
-130.146
-134.725
-139.652
-144.432
-148.497
-150.81
-151.487
-152.031
-152.129
-151.062
-147.368
-137.166
-122.288
-108.578
-100.393
-103.924
-117.874
-134.828
-151.264
-162.213
-165.659
-159.841
-136.016
-86.363
-4.531
108.921
245.165
394.773
546.271
690.246
816.13
908.529
953.654
940.228
866.249
739.955
574.546
387.882
198.299
23.364
-120.517
-221.14
-275.488
-287.629
-265.325
-222.625
-170.167
-117.687
-77.893
-54.057
-46.538
-51.902
-59.107
-63.699
-65.511
-66.194
-71.528
-82.821
-97.363
-112.176
-123.532
-129.87
-131.786
-129.98
-125.454
-119.254
-112.362
-105.973
-100.991
-97.824
-96.554
-97.035
-99.031
-102.271
-106.354
-110.771
-115.124
-119.151
-122.685
-125.68
-128.108
-129.925
-131.137
-131.767
-131.832
-131.352
-130.354
-128.844
-126.849
-124.41
-121.569
-118.39
-114.941
-111.288
-107.497
-103.617
-99.677
-95.703
-91.706
-87.694
-83.666
-79.61
-75.507
-71.341
-67.098
-62.765
-58.33
-53.773
-49.076
-44.221
-39.194
-33.982
-28.577
-22.971
-17.157
-11.132
-4.897
1.546
8.193
15.039
22.082
29.316
36.734
44.328
52.087
60.002
68.059
76.243
84.536
92.918
101.368
109.862
118.376
126.883
135.356
143.766
152.084
160.279
168.321
176.179
183.821
191.217
198.335
205.147
211.622
217.733
223.453
228.757
233.622
238.026
241.948
245.372
248.281
250.663
252.505
253.801
254.543
254.731
254.362
253.44
251.97
249.962
247.425
244.375
240.828
236.803
232.32
227.405
222.081
216.378
210.323
203.947
197.283
190.362
183.219
175.887
168.4
160.793
153.1
145.355
137.592
129.844
122.142
114.519
107.004
99.626
92.412
85.388
78.579
72.006
65.69
59.648
53.899
48.455
43.33
38.534
34.074
29.957
26.187
22.765
19.691
16.963
14.578
12.528
10.808
9.408
8.318
7.527
7.023
6.791
6.819
7.09
7.588
8.298
9.203
10.284
11.526
12.911
14.421
16.042
17.755
19.545
21.398
23.298
25.232
27.186
29.149
31.107
33.052
34.973
36.863
38.714
40.521
42.278
43.983
45.632
47.225
48.76
50.239
51.663
53.034
54.356
55.633
56.871
58.075
59.252
60.409
61.555
62.696
63.841
64.997
66.174
67.379
68.619
69.901
71.233
72.62
74.07
75.586
77.174
78.836
80.575
82.392
84.289
86.263
88.313
90.436
92.627
94.88
97.19
99.547
101.943
104.368
106.81
109.258
111.696
114.111
116.488
118.809
121.059
123.221
125.276
127.207
128.998
130.631
132.089
133.355
134.415
135.254
135.857
136.211
136.305
136.127
135.67
134.926
133.889
132.555
130.922
128.99
126.762
124.241
121.433
118.346
114.988
111.37
107.506
103.413
99.108
94.609
89.937
85.114
80.163
75.112
