Name
Date of Birth,"Mar 27, 1959"
Recorded Date,2019-05-01 01:23:18 -0500
Classification,Atrial Fibrillation
Symptoms,
Software Version,1.2
Device,"Watch4,2"
Sample Rate,510.227 hertz


Lead,Lead I
Unit,µV

-549.129
-755.103
-774.081
-736.367
-734.99
-735.439
-722.366
-724.456
-740.713
-753.046
-755.077
-747.111
-734.169
-722.768
-714.746
-709.138
-704.045
-696.663
-685.608
-670.069
-647.606
-615.14
-570.514
-512.507
-443.113
-367.343
-288.682
-209.236
-127.941
-42.309
44.08
122.285
177.177
192.085
159.482
80.403
-34.337
-166.614
-298.543
-412.32
-495.382
-543.488
-560.596
-559.769
-553.206
-547.689
-544.3
-537.325
-523.646
-505.16
-485.1
-468.073
-456.362
-449.021
-444.558
-441.479
-438.17
-433.216
-425.856
-415.742
-403.014
-388.372
-372.493
-355.915
-339.352
-323.565
-308.984
-295.825
-284.086
-273.527
-263.969
-255.287
-247.286
-239.757
-232.521
-225.409
-218.292
-211.073
-203.62
-195.786
-187.461
-178.56
-169.036
-158.877
-148.076
-136.64
-124.594
-111.977
-98.829
-85.192
-71.111
-56.63
-41.8
-26.681
-11.333
4.184
19.825
35.56
51.368
67.239
83.171
99.164
115.221
131.352
147.562
163.854
180.234
196.699
213.247
229.874
246.573
263.332
280.135
296.958
313.767
330.528
347.206
363.768
380.19
396.446
412.519
428.39
444.04
459.464
474.673
489.683
504.52
519.218
533.805
548.324
562.83
577.37
591.979
606.685
621.494
636.405
651.405
666.477
681.597
696.716
711.755
726.617
741.178
755.311
768.897
781.799
793.875
805.006
815.089
824.045
831.819
838.378
843.692
847.749
850.545
852.106
852.498
851.829
850.245
847.904
844.964
841.605
838.001
834.302
830.643
827.129
823.845
820.866
818.266
816.115
814.482
813.423
812.957
813.067
813.694
814.764
816.19
817.866
819.693
821.597
823.513
825.406
827.257
829.045
830.748
832.342
833.794
835.062
836.125
836.975
837.631
838.128
838.513
838.851
839.199
839.606
840.103
840.703
841.402
842.193
843.061
843.987
844.961
845.983
847.055
848.181
849.36
850.584
851.837
853.102
854.355
855.569
856.733
857.849
858.939
860.045
861.225
862.549
864.087
865.904
868.047
870.556
873.454
876.751
880.45
884.527
888.972
893.779
898.908
904.3
909.87
915.495
921.054
926.419
931.415
935.867
939.61
942.465
944.332
945.11
944.632
942.903
940.035
936.252
932.083
928.083
924.651
922.342
921.755
922.981
925.86
929.808
933.414
935.464
935.148
931.443
923.745
912.622
899.302
886.002
876.368
873.746
881.015
901.403
937.193
988.697
1054.949
1133.383
1219.249
1307.311
1392.051
1466.794
1525.285
1563.23
1577.566
1566.627
1531.374
1474.402
1399.552
1312.792
1220.985
1130.005
1045.524
973.019
915.73
875.05
851.106
841.893
844.074
854.577
869.712
885.13
898.008
906.732
910.387
909.456
905.1
898.273
890.495
883.76
879.118
877.032
877.619
880.259
884.251
889.082
893.991
898.153
901.152
902.767
902.95
901.93
899.877
896.919
893.278
889.154
884.707
880.09
875.417
870.792
866.357
862.225
858.481
855.186
852.36
850.014
848.15
846.742
845.747
845.12
844.81
844.775
844.977
845.362
845.874
846.447
847.014
847.529
847.957
848.27
848.452
848.494
848.387
848.141
847.764
847.263
846.639
845.889
845.011
844.003
842.871
841.613
840.233
838.729
837.098
835.339
833.446
831.414
829.235
826.898
824.394
821.716
818.857
815.811
812.576
809.146
805.518
801.687
797.651
793.405
788.944
784.262
779.355
774.219
768.85
763.246
757.404
751.325
745.007
738.453
731.664
724.644
717.394
709.918
702.218
694.298
686.16
677.81
669.253
660.493
651.538
642.396
633.08
623.599
613.968
604.198
594.302
584.291
574.178
563.974
553.691
543.338
532.927
522.471
511.985
501.488
490.998
480.521
470.061
459.617
449.18
438.741
428.294
417.822
407.316
396.775
386.2
375.613
365.032
354.467
343.92
333.38
322.834
312.287
301.746
291.22
280.732
270.299
259.944
249.708
239.62
229.684
219.887
210.18
200.501
190.805
181.064
171.26
161.388
151.421
141.338
131.13
120.78
110.289
99.647
88.808
77.748
66.473
55.017
43.465
31.925
20.486
9.227
-1.781
-12.483
-22.805
-32.695
-42.125
-51.093
-59.641
-67.796
-75.548
-82.889
-89.808
-96.336
-102.582
-108.671
-114.717
-120.85
-127.133
-133.679
-140.708
-148.234
-156.111
-164.029
-171.344
-177.509
-182.254
-185.124
-185.591
-183.659
-179.57
-174.063
-168.754
-164.819
-162.863
-163.78
-168.142
-175.439
-184.598
-193.441
-198.246
-195.87
-183.825
-159.135
-119.549
-64.545
5.298
87.586
177.398
269.613
359.225
439.568
503.885
547.427
566.057
558.637
528.854
478.565
408.999
321.851
216.095
98.759
-15.751
-113.221
-178.376
-209.241
-216.815
-211.85
-207.295
-207.832
-208.935
-209.982
-210.26
-210.348
-214.466
-223.443
-235.803
-250.535
-265.501
-278.542
-289.061
-296.751
-301.418
-303.694
-304.316
-303.818
-303.005
-302.707
-303.291
-304.958
-307.791
-311.588
-316.197
-321.515
-327.326
-333.425
-339.649
-345.839
-351.889
-357.713
-363.186
-368.167
-372.52
-376.143
-378.985
-381.028
-382.267
-382.714
-382.389
-381.331
-379.603
-377.263
-374.371
-370.986
-367.163
-362.971
-358.483
-353.773
-348.917
-343.976
-338.992
-334.001
-329.031
-324.103
-319.237
-314.449
-309.744
-305.135
-300.639
-296.271
-292.049
-287.989
-284.101
-280.397
-276.888
-273.586
-270.505
-267.658
-265.058
-262.719
-260.653
-258.873
-257.392
-256.217
-255.356
-254.812
-254.588
-254.684
-255.101
-255.837
-256.891
-258.257
-259.932
-261.912
-264.19
-266.76
-269.613
-272.741
-276.134
-279.782
-283.675
-287.801
-292.15
-296.711
-301.473
-306.425
-311.557
-316.857
-322.314
-327.917
-333.655
-339.515
-345.484
-351.55
-357.699
-363.921
-370.203
-376.536
-382.91
-389.318
-395.751
-402.202
-408.664
-415.126
-421.576
-428.003
-434.397
-440.749
-447.058
-453.321
-459.533
-465.69
-471.789
-477.82
-483.772
-489.62
-495.329
-500.868
-506.207
-511.319
-516.189
-520.793
-525.109
-529.115
-532.776
-536.062
-538.955
-541.428
-543.462
-545.053
-546.211
-546.993
-547.486
-547.771
-547.917
-547.974
-547.985
-548.037
-548.224
-548.634
-549.381
-550.519
-552.138
-554.42
-557.395
-560.955
-564.865
-568.59
-571.601
-573.596
-574.133
-572.711
-569.339
-564.228
-557.993
-552.038
-547.429
-544.764
-544.887
-548.246
-554.246
-561.8
-568.886
-572.226
-569.063
-557.052
-533.467
-496.518
-446.037
-382.967
-309.788
-230.602
-149.717
-71.858
-2.759
52.334
89.677
106.77
102.428
76.978
31.985
-29.625
-103.145
-183.047
-264.42
-342.821
-413.934
-474.341
-522.042
-556.331
-578.218
-590.101
-594.333
-593.498
-590.847
-589.07
-589.86
-594.242
-602.179
-612.747
-625.064
-637.9
-649.479
-658.56
-664.483
-666.914
-666.087
-662.513
-656.641
-649.185
-641.085
-632.988
-625.334
-618.385
-612.147
-606.629
-601.872
-597.819
-594.367
-591.436
-588.966
-586.938
-585.392
-584.346
-583.762
-583.553
-583.608
-583.808
-584.032
-584.18
-584.153
-583.84
-583.176
-582.124
-580.667
-578.827
-576.615
-574.026
-571.048
-567.657
-563.842
-559.627
-555.043
-550.127
-544.936
-539.519
-533.94
-528.285
-522.615
-516.964
-511.356
-505.79
-500.266
-494.799
-489.404
-484.096
-478.89
-473.792
-468.806
-463.942
-459.194
-454.554
-450.001
-445.502
-441.033
-436.585
-432.151
-427.734
-423.338
-418.965
-414.62
-410.314
-406.056
-401.852
-397.709
-393.628
-389.617
-385.685
-381.845
-378.112
-374.5
-371.02
-367.683
-364.499
-361.475
-358.62
-355.937
-353.427
-351.093
-348.936
-346.957
-345.159
-343.543
-342.106
-340.848
-339.768
-338.863
-338.13
-337.564
-337.159
-336.909
-336.804
-336.838
-337
-337.28
-337.668
-338.151
-338.72
-339.36
-340.061
-340.81
-341.594
-342.4
-343.216
-344.03
-344.83
-345.604
-346.342
-347.034
-347.672
-348.248
-348.757
-349.194
-349.554
-349.834
-350.032
-350.145
-350.171
-350.11
-349.958
-349.717
-349.385
-348.966
-348.459
-347.87
-347.202
-346.461
-345.653
-344.785
-343.864
-342.898
-341.89
-340.846
-339.772
-338.671
-337.548
-336.406
-335.248
-334.078
-332.904
-331.732
-330.565
-329.406
-328.252
-327.102
-325.958
-324.823
-323.701
-322.598
-321.52
-320.479
-319.501
-318.605
-317.812
-317.137
-316.575
-316.123
-315.773
-315.514
-315.335
-315.216
-315.123
-315.024
-314.894
-314.7
-314.409
-313.974
-313.316
-312.36
-311.032
-309.261
-307.006
-304.239
-300.94
-297.111
-292.771
-287.958
-282.721
-277.117
-271.182
-264.958
-258.494
-251.858
-245.164
-238.539
-232.12
-226.06
-220.469
-215.423
-210.975
-207.164
-204.012
-201.528
-199.728
-198.579
-198.111
-198.441
-199.545
-201.254
-203.229
-204.867
-205.561
-204.89
-202.33
-197.276
-189.688
-179.916
-168.825
-158.137
-149.225
-142.92
-140.292
-142.041
-147.714
-156.197
-165.028
-170.117
-168.302
-156.692
-131.545
-90.657
-33.164
39.603
121.986
208.865
297.377
385.659
473.906
555.53
617.887
650.675
644.433
601.774
535.946
454.876
366.922
277.351
186.507
105.383
47.709
21.265
31.034
70.049
122.64
173.945
208.344
216.34
197.618
159.225
116.296
82.227
63.801
60.525
64.039
67.625
69.111
68.999
70.429
74.744
80.787
87.285
93.221
98.304
102.888
107.163
111.041
114.486
117.545
120.294
122.768
124.934
126.76
128.256
129.513
130.642
131.74
132.919
134.3
136
138.1
140.651
143.678
147.186
151.188
155.682
160.64
166.019
171.773
177.851
184.206
190.79
197.541
204.392
211.277
218.131
224.907
231.569
238.088
244.44
250.603
256.561
262.307
267.841
273.159
278.256
283.125
287.759
292.158
296.323
300.254
303.954
307.422
310.658
313.663
316.438
318.984
321.303
323.394
325.259
326.9
328.322
329.528
330.525
331.317
331.909
332.307
332.516
332.543
332.391
332.066
331.573
330.916
330.099
329.126
327.999
326.722
325.297
323.726
322.011
320.155
318.158
316.023
313.753
311.35
308.816
306.154
303.365
300.452
297.418
294.264
290.99
287.599
284.09
280.464
276.723
272.867
268.898
264.817
260.629
256.338
251.948
247.461
242.88
238.207
233.442
228.589
223.649
218.622
213.513
208.327
203.074
197.767
192.417
187.026
181.593
176.11
170.565
164.952
159.26
153.478
147.605
141.649
135.624
129.556
123.466
117.363
111.256
105.138
99.008
92.888
86.805
80.808
74.976
69.38
64.099
59.223
54.813
50.909
47.531
44.671
42.323
40.491
39.174
38.388
38.143
38.419
39.17
40.296
41.642
43.049
44.355
45.409
46.076
46.226
45.752
44.569
42.609
39.851
36.233
31.643
26.123
19.838
13.108
6.551
0.749
-3.845
-6.622
-7.079
-5.183
-1.136
4.398
10.237
15.578
19.805
22.09
22.227
20.919
19.48
20.12
25.572
38.042
59.69
92.979
139.363
198.777
269.805
349.597
434.317
519.723
600.862
671.791
726.881
762.122
774.947
764.062
729.907
674.62
601.887
517.342
427.618
338.431
255.046
182.561
124.25
81.524
54.387
40.831
37.541
41.552
49.532
57.576
63.159
64.931
62.237
55.725
46.668
36.074
25.362
16.345
9.938
6.478
5.996
7.858
11.354
15.947
20.871
25.286
28.745
31.005
31.995
31.9
30.851
28.926
26.301
23.147
19.609
15.834
11.922
7.939
3.999
0.223
-3.27
-6.359
-8.979
-11.101
-12.71
-13.816
-14.438
-14.601
-14.347
-13.727
-12.788
-11.583
-10.159
-8.561
-6.847
-5.077
-3.305
-1.59
0.037
1.562
2.974
4.269
5.445
6.497
7.422
8.216
8.87
9.367
9.698
9.853
9.84
9.675
9.375
8.96
8.438
7.809
7.073
6.232
5.288
4.244
3.117
1.94
0.753
-0.389
-1.445
-2.388
-3.21
-3.917
-4.529
-5.082
-5.601
-6.116
-6.652
-7.23
-7.875
-8.61
-9.478
-10.553
-11.925
-13.69
-15.933
-18.716
-22.077
-26.053
-30.644
-35.815
-41.532
-47.741
-54.383
-61.411
-68.771
-76.395
-84.194
-92.045
-99.795
-107.301
-114.431
-121.067
-127.11
-132.452
-137.019
-140.786
-143.739
-145.893
-147.272
-147.888
-147.764
-146.956
-145.537
-143.608
-141.306
-138.742
-136.021
-133.247
-130.515
-127.936
-125.6
-123.553
-121.83
-120.447
-119.421
-118.78
-118.544
-118.695
-119.205
-120.03
-121.1
-122.37
-123.79
-125.289
-126.794
-128.23
-129.528
-130.654
-131.581
-132.279
-132.715
-132.839
-132.61
-132.02
-131.072
-129.778
-128.168
-126.271
-124.141
-121.899
-119.68
-117.621
-115.85
-114.441
-113.452
-112.956
-113.041
-113.812
-115.376
-117.801
-121.094
-125.269
-130.351
-136.236
-142.682
-149.228
-155.193
-159.869
-162.676
-163.172
-160.999
-156.177
-148.982
-139.892
-129.891
-120.077
-111.385
-104.377
-98.999
-94.212
-88.445
-80.102
-66.926
-46.076
-14.803
28.906
85.977
153.81
228.696
309.183
391.288
473.164
552.686
619.137
665.24
683.85
667.634
623.031
557.301
477.689
395.564
313.789
234.223
161.233
96.575
43.853
5.762
-18.452
-30.873
-34.767
-33.582
-30.564
-28.366
-28.542
-31.972
-38.739
-47.981
-58.581
-69.238
-78.251
-84.416
-87.251
-86.592
-82.746
-76.331
-67.912
-58.21
-48.132
-38.298
-29.076
-20.694
-13.149
-6.405
-0.49
4.629
9.011
12.64
15.495
17.575
18.862
19.405
19.29
18.612
17.482
16.019
14.341
12.557
10.754
8.998
7.352
5.891
4.712
3.94
3.684
4.018
4.991
6.624
8.927
11.9
15.522
19.749
24.525
29.797
35.525
41.676
48.209
55.066
62.168
69.418
76.733
84.047
91.307
98.469
105.494
112.348
119.011
125.48
131.755
137.83
143.697
149.339
154.748
159.923
164.871
169.604
174.125
178.433
182.523
186.388
190.02
193.408
196.536
199.381
201.925
204.151
206.044
207.593
208.785
209.609
210.051
210.099
209.747
208.987
207.816
206.232
204.235
201.825
199.004
195.779
192.155
188.138
183.736
178.957
173.808
168.299
162.444
156.255
149.748
142.935
135.827
128.436
120.78
112.879
104.756
96.443
87.971
79.38
70.722
62.052
53.427
44.908
36.547
28.394
20.501
12.919
5.702
-1.094
-7.43
-13.271
-18.586
-23.378
-27.653
-31.442
-34.814
-37.849
-40.646
-43.329
-46.004
-48.764
-51.693
-54.845
-58.282
-62.086
-66.324
-71.059
-76.336
-82.108
-88.331
-94.983
-101.862
-108.655
-114.914
-119.988
-123.274
-124.329
-122.743
-118.177
-110.665
-100.452
-88.062
-74.41
-60.358
-46.774
-34.315
-23.153
-12.734
-1.908
10.784
26.967
48.581
78.42
118.969
171.703
234.948
303.627
373.462
442.216
512.701
589.563
670.507
745.664
796.155
801.487
752.531
651.541
513.335
360.586
213.557
90.445
2.416
-48.837
-68.738
-70.736
-67.144
-65.146
-66.589
-66.882
-63.885
-58.978
-54.575
-54.953
-61.757
-73.371
-87.85
-102.759
-115.681
-125.674
-132.424
-135.735
-136.127
-134.34
-131.008
-127.019
-123.339
-120.458
-118.599
-117.839
-117.964
-118.807
-120.278
-122.179
-124.312
-126.531
-128.686
-130.685
-132.475
-133.954
-135.004
-135.51
-135.348
-134.455
-132.815
-130.418
-127.289
-123.457
-118.955
-113.842
-108.183
-102.044
-95.496
-88.604
-81.429
-74.046
-66.53
-58.957
-51.404
-43.927
-36.564
-29.349
-22.303
-15.445
-8.793
-2.355
3.865
9.86
15.621
21.139
26.403
31.405
36.145
40.619
44.827
48.768
52.438
55.836
58.961
61.811
64.388
66.692
68.722
70.482
71.979
73.219
74.212
74.965
75.487
75.788
75.877
75.765
75.46
74.973
74.311
73.486
72.507
71.384
70.128
68.747
67.251
65.65
63.952
62.165
60.295
58.347
56.327
54.239
52.087
49.872
47.599
45.269
42.886
40.452
37.97
35.441
32.866
30.244
27.576
24.859
22.093
19.277
16.409
13.493
10.536
7.543
4.518
1.465
-1.623
-4.749
-7.911
-11.112
-14.352
-17.628
-20.931
-24.237
-27.511
-30.721
-33.836
-36.831
-39.693
-42.402
-44.936
-47.267
-49.358
-51.178
-52.706
-53.918
-54.791
-55.314
-55.499
-55.414
-55.153
-54.809
-54.459
-54.139
-53.895
-53.806
-53.952
-54.44
-55.38
-56.82
-58.848
-61.612
-65.108
-69.203
-73.6
-77.707
-80.987
-83.059
-83.433
-81.745
-78.085
-72.838
-66.856
-61.453
-57.576
-55.933
-57.374
-62.116
-69.389
-77.673
-84.475
-86.929
-82.746
-69.352
-44.059
-5.448
46.767
109.643
178.728
251.715
324.697
396.104
464.107
518.58
552.712
559.501
531.848
476.835
402.047
315.073
227.613
142.242
60.618
-12.911
-76.588
-126.744
-160.816
-179.927
-186.578
-184.372
-177.037
-168.067
-160.467
-156.105
-155.972
-160.111
-167.488
-176.811
-186.713
-195.494
-201.944
-205.577
-206.215
-204.178
-200.113
-194.603
-188.342
-182.134
-176.454
-171.519
-167.43
-164.095
-161.422
-159.367
-157.787
-156.508
-155.404
-154.37
-153.338
-152.275
-151.114
-149.771
-148.177
-146.286
-144.085
-141.563
-138.696
-135.443
-131.748
-127.584
-122.962
-117.902
-112.431
-106.575
-100.356
-93.809
-86.978
-79.9
-72.599
-65.08
-57.337
-49.388
-41.263
-33.016
-24.719
-16.422
-8.165
0.013
8.082
16.01
23.768
31.339
38.716
45.878
52.799
59.44
65.758
71.73
77.34
82.583
87.464
91.981
96.13
99.914
103.331
106.376
109.044
111.323
113.199
114.664
115.715
116.355
116.592
116.429
115.868
114.916
113.577
111.858
109.768
107.314
104.506
101.356
97.88
94.097
90.026
85.689
81.106
76.299
71.289
66.098
60.749
55.262
49.66
43.962
38.192
32.371
26.519
20.657
14.806
8.984
3.21
-2.499
-8.128
-13.663
-19.09
-24.4
-29.582
-34.628
-39.534
-44.294
-48.905
-53.366
-57.676
-61.836
-65.849
-69.717
-73.446
-77.041
-80.51
-83.859
-87.098
-90.236
-93.282
-96.247
-99.141
-101.972
-104.752
-107.49
-110.196
-112.879
-115.548
-118.212
-120.879
-123.557
-126.253
-128.97
-131.714
-134.487
-137.289
-140.121
-142.981
-145.865
-148.77
-151.692
-154.624
-157.56
-160.491
-163.411
-166.309
-169.175
-171.999
-174.769
-177.474
-180.1
-182.636
-185.069
-187.389
-189.584
-191.642
-193.553
-195.307
-196.893
-198.305
-199.531
-200.565
-201.4
-202.031
-202.453
-202.666
-202.667
-202.458
-202.043
-201.428
-200.618
-199.623
-198.451
-197.113
-195.62
-193.984
-192.215
-190.326
-188.33
-186.239
-184.069
-181.834
-179.551
-177.236
-174.906
-172.575
-170.259
-167.97
-165.714
-163.501
-161.338
-159.236
-157.212
-155.28
-153.449
-151.73
-150.13
-148.651
-147.288
-146.02
-144.812
-143.632
-142.446
-141.227
-139.955
-138.605
-137.146
-135.544
-133.752
-131.737
-129.471
-126.92
-124.055
-120.858
-117.341
-113.569
-109.638
-105.638
-101.644
-97.696
-93.85
-90.195
-86.82
-83.836
-81.339
-79.357
-77.977
-77.345
-77.459
-78.197
-79.222
-79.906
-79.693
-78.191
-74.91
-69.469
-61.859
-52.324
-41.731
-31.452
-22.527
-15.801
-12.045
-11.31
-12.881
-15.401
-16.243
-12.264
-0.806
21.211
56.403
105.64
168.958
243.359
323.912
407.564
489.29
566.197
636.134
689.41
720.996
725.399
694.796
636.936
556.902
459.495
361.873
269.203
187.942
129.397
88.637
63.151
50.99
43.882
42.442
47.719
57.203
69.587
80.852
87.903
90.745
90.227
88.387
86.376
84.294
83.214
83.95
86.472
90.42
94.512
96.962
97.325
96.171
93.538
89.483
84.306
78.199
71.954
66.851
63.192
60.429
58.287
56.539
55.062
54.061
53.419
52.662
51.748
50.995
50.629
50.891
51.844
53.295
55.152
57.425
60.032
62.851
65.736
68.509
71.088
73.475
75.693
77.792
79.802
81.719
83.555
85.327
87.061
88.793
90.55
92.354
94.233
96.225
98.396
100.808
103.489
106.442
109.633
113.002
116.514
120.136
123.828
127.549
131.249
134.885
138.445
141.928
145.331
148.647
151.846
154.908
157.83
160.62
163.304
165.91
168.448
170.944
173.438
175.981
178.644
181.471
184.462
187.607
190.877
194.238
197.657
201.082
204.438
207.659
210.682
213.457
215.955
218.125
219.897
221.187
221.887
221.923
221.261
219.88
217.781
214.988
211.533
207.488
202.957
198.025
192.759
187.215
181.424
175.436
169.321
163.152
157.019
150.993
145.123
139.452
134.014
128.82
123.87
119.133
114.547
110.07
105.68
101.36
97.116
92.944
88.829
84.762
80.731
76.727
72.746
68.781
64.822
60.869
56.931
53.029
49.196
45.453
41.812
38.279
34.852
31.53
28.314
25.197
22.168
19.218
16.339
13.526
10.776
8.081
5.43
2.811
0.212
-2.373
-4.947
-7.515
-10.084
-12.662
-15.257
-17.867
-20.491
-23.129
-25.779
-28.433
-31.072
-33.656
-36.144
-38.495
-40.676
-42.659
-44.418
-45.914
-47.106
-47.956
-48.43
-48.515
-48.196
-47.446
-46.256
-44.642
-42.664
-40.446
-38.114
-35.777
-33.53
-31.443
-29.598
-28.114
-27.114
-26.698
-26.942
-27.855
-29.464
-31.888
-35.109
-38.914
-42.897
-46.396
-48.754
-49.564
-48.499
-45.173
-39.548
-31.973
-23.117
-14.212
-6.537
-0.841
2.654
4.084
4.327
5.111
8.515
17.141
34.187
62.427
103.037
156.433
220.512
289.667
360.368
429.875
495.992
560.35
617.765
656.649
666.511
635.807
565.677
470.692
365.082
264.84
177.757
101.488
36.773
-16.207
-57.029
-82.242
-92.354
-90.943
-81.044
-66.88
-53.01
-41.871
-34.946
-33.227
-36.183
-42.575
-51.441
-61.282
-70.146
-77.046
-81.535
-83.446
-83.346
-81.904
-79.579
-77.059
-75.108
-74.084
-74.16
-75.351
-77.413
-80.162
-83.469
-87.128
-90.943
-94.77
-98.471
-101.945
-105.121
-107.891
-110.164
-111.886
-113.016
-113.553
-113.509
-112.902
-111.769
-110.158
-108.121
-105.709
-102.967
-99.936
-96.668
-93.217
-89.643
-86.009
-82.361
-78.733
-75.155
-71.644
-68.21
-64.86
-61.59
-58.392
-55.262
-52.2
-49.204
-46.279
-43.423
-40.633
-37.906
-35.238
-32.627
-30.074
-27.576
-25.133
-22.748
-20.422
-18.16
-15.966
-13.845
-11.799
-9.829
-7.939
-6.132
-4.409
-2.775
-1.232
0.216
1.563
2.804
3.935
4.949
5.841
6.605
7.236
7.728
8.076
8.275
8.322
8.212
7.941
7.508
6.909
6.142
5.208
4.106
2.836
1.399
-0.204
-1.968
-3.892
-5.97
-8.197
-10.568
-13.075
-15.711
-18.466
-21.333
-24.3
-27.357
-30.493
-33.696
-36.952
-40.25
-43.576
-46.917
-50.26
-53.591
-56.897
-60.165
-63.383
-66.539
-69.623
-72.624
-75.533
-78.34
-81.038
-83.62
-86.08
-88.411
-90.61
-92.672
-94.595
-96.376
-98.015
-99.511
-100.865
-102.078
-103.152
-104.091
-104.897
-105.576
-106.131
-106.569
-106.894
-107.114
-107.236
-107.267
-107.214
-107.085
-106.889
-106.634
-106.328
-105.977
-105.591
-105.176
-104.738
-104.286
-103.824
-103.358
-102.894
-102.437
-101.992
-101.564
-101.155
-100.769
-100.41
-100.079
-99.78
-99.514
-99.282
-99.085
-98.924
-98.8
-98.714
-98.663
-98.65
-98.672
-98.728
-98.817
-98.937
-99.085
-99.26
-99.458
-99.677
-99.914
-100.167
-100.432
-100.708
-100.991
-101.279
-101.569
-101.859
-102.146
-102.428
-102.701
-102.963
-103.212
-103.446
-103.661
-103.857
-104.031
-104.18
-104.305
-104.402
-104.47
-104.507
-104.512
-104.483
-104.42
-104.322
-104.187
-104.016
-103.809
-103.566
-103.288
-102.975
-102.628
-102.248
-101.837
-101.394
-100.922
-100.422
-99.895
-99.344
-98.77
-98.177
-97.567
-96.943
-96.307
-95.664
-95.016
-94.368
-93.722
-93.083
-92.454
-91.839
-91.243
-90.669
-90.122
-89.605
-89.124
-88.685
-88.293
-87.954
-87.674
-87.459
-87.314
-87.244
-87.253
-87.343
-87.517
-87.775
-88.118
-88.549
-89.069
-89.682
-90.388
-91.188
-92.081
-93.067
-94.139
-95.291
-96.513
-97.799
-99.147
-100.56
-102.042
-103.595
-105.217
-106.907
-108.654
-110.438
-112.232
-113.997
-115.692
-117.281
-118.731
-120.014
-121.104
-121.968
-122.563
-122.842
-122.761
-122.281
-121.374
-120.013
-118.199
-115.976
-113.417
-110.623
-107.694
-104.698
-101.721
-98.87
-96.256
-94.015
-92.293
-91.175
-90.792
-91.321
-92.767
-95.034
-97.863
-100.707
-103.098
-104.691
-105.001
-103.654
-100.689
-96.354
-91.342
-86.786
-83.363
-81.499
-81.758
-84.147
-87.908
-91.701
-93.32
-90.161
-80.245
-61.756
-32.668
8.222
60.888
124.031
194.926
270.242
346.696
420.099
485.059
536.543
570.407
585.056
582.088
561.214
521.239
460.897
376.671
274.427
167.987
70.551
-1.138
-42.047
-61.836
-68.863
-73.827
-81.992
-87.597
-88.344
-84.656
-77.756
-72.555
-71.711
-74.726
-80.704
-88.311
-96.05
-102.58
-107.13
-109.217
-108.718
-106.197
-102.258
-97.348
-92.169
-87.456
-83.61
-80.895
-79.382
-78.867
-79.222
-80.351
-82.066
-84.193
-86.574
-89.061
-91.559
-93.992
-96.25
-98.21
-99.752
-100.783
-101.26
-101.164
-100.495
-99.271
-97.512
-95.256
-92.558
-89.463
-86.021
-82.279
-78.278
-74.069
-69.71
-65.255
-60.761
-56.272
-51.815
-47.408
-43.063
-38.785
-34.575
-30.432
-26.346
-22.315
-18.338
-14.415
-10.55
-6.741
-2.989
0.709
4.353
7.943
11.477
14.95
18.359
21.697
24.957
28.132
31.213
34.193
37.066
39.826
42.469
44.99
47.383
49.644
51.768
53.75
55.585
57.267
58.793
60.157
61.356
62.387
63.246
63.932
64.443
64.777
64.933
64.911
64.71
64.331
63.776
63.047
62.148
61.083
59.857
58.478
56.951
55.284
53.486
51.565
49.53
47.39
45.158
42.842
40.455
38.008
35.513
32.982
30.427
27.859
25.291
22.733
20.194
17.684
15.211
12.781
10.401
8.077
5.811
3.607
1.469
-0.602
-2.601
-4.529
-6.384
-8.167
-9.879
-11.523
-13.102
-14.623
-16.093
-17.516
-18.898
-20.243
-21.554
-22.832
-24.083
-25.313
-26.536
-27.764
-29.009
-30.28
-31.587
-32.932
-34.311
-35.706
-37.085
-38.42
-39.679
-40.84
-41.886
-42.794
-43.542
-44.101
-44.43
-44.496
-44.271
-43.728
-42.85
-41.631
-40.091
-38.305
-36.377
-34.415
-32.514
-30.731
-29.129
-27.805
-26.857
-26.407
-26.576
-27.421
-29.025
-31.522
-34.889
-38.98
-43.485
-47.789
-51.323
-53.689
-54.397
-53.084
-49.82
-44.866
-38.886
-33.077
-28.273
-25.012
-23.955
-25.085
-27.479
-29.764
-29.814
-24.958
-13.11
7.715
39.696
83.705
139.123
204.238
276.102
351.252
426.147
496.351
556.643
602.752
631.779
642.222
633.652
605.806
559.585
497.908
425.251
346.521
266.247
188.144
115.972
54.153
5.651
-28.605
-49.195
-58.026
-57.268
-48.87
-35.659
-21.494
-9.179
-0.265
4.581
5.823
4.061
-0.289
-6.101
-11.657
-15.869
-18.252
-18.761
-17.97
-16.381
-14.292
-12.252
-10.927
-10.705
-11.758
-14.05
-17.297
-21.265
-25.787
-30.644
-35.616
-40.518
-45.177
-49.464
-53.29
-56.574
-59.25
-61.276
-62.624
-63.288
-63.28
-62.634
-61.395
-59.615
-57.348
-54.645
-51.55
-48.118
-44.409
-40.484
-36.404
-32.217
-27.957
-23.652
-19.326
-14.998
-10.678
-6.371
-2.073
2.213
6.478
10.715
14.912
19.061
23.154
27.185
31.145
35.024
38.812
42.498
46.07
49.517
52.826
55.982
58.973
61.785
64.411
66.841
69.069
71.089
72.893
74.478
75.84
76.976
77.881
78.554
78.991
79.192
79.157
78.885
78.377
77.637
76.666
75.469
74.05
72.417
70.574
68.531
66.294
63.874
61.28
58.524
55.615
52.566
49.389
46.096
42.702
39.219
35.662
32.044
28.38
24.683
20.969
17.251
13.542
9.857
6.208
2.608
-0.929
-4.393
-7.771
-11.053
-14.228
-17.287
-20.22
-23.02
-25.679
-28.191
-30.55
-32.754
-34.8
-36.685
-38.409
-39.972
-41.376
-42.624
-43.718
-44.662
-45.463
-46.126
-46.658
-47.068
-47.364
-47.555
-47.651
-47.661
-47.596
-47.464
-47.276
-47.039
-46.763
-46.456
-46.126
-45.781
-45.428
-45.075
-44.728
-44.397
-44.088
-43.809
-43.564
-43.361
-43.204
-43.095
-43.036
-43.026
-43.062
-43.143
-43.266
-43.428
-43.626
-43.855
-44.111
-44.392
-44.693
-45.007
-45.326
-45.633
-45.918
-46.176
-46.406
-46.612
-46.805
-46.992
-47.179
-47.384
-47.613
-47.867
-48.142
-48.416
-48.667
-48.885
-49.07
-49.23
-49.376
-49.503
-49.602
-49.662
-49.658
-49.569
-49.37
-49.016
-48.479
-47.76
-46.879
-45.887
-44.853
-43.823
-42.833
-41.907
-41.059
-40.314
-39.703
-39.248
-38.989
-38.973
-39.25
-39.895
-40.965
-42.475
-44.415
-46.726
-49.311
-52.079
-54.952
-57.859
-60.748
-63.566
-66.257
-68.771
-71.046
-73.014
-74.603
-75.736
-76.341
-76.367
-75.799
-74.679
-73.11
-71.238
-69.194
-67.09
-65.012
-63.012
-61.165
-59.575
-58.349
-57.594
-57.403
-57.781
-58.763
-60.472
-62.881
-65.798
-68.839
-71.282
-72.458
-72.116
-70.063
-66.086
-60.305
-52.891
-44.341
-36.036
-29.273
-24.461
-21.564
-19.957
-18.348
-15.648
-10.303
0.59
19.965
49.633
90.306
141.1
199.97
264.94
333.01
399.356
458.532
505.525
536.543
549.686
544.107
519.234
476.222
418.271
349.925
276.591
203.103
133.307
71.031
19.788
-18.619
-43.899
-57.155
-60.864
-57.375
-48.994
-38.806
-29.577
-22.972
-19.942
-20.476
-23.708
-28.97
-35.403
-41.545
-46.343
-49.29
-50.163
-49.324
-47.382
-44.734
-41.887
-39.507
-37.966
-37.459
-38.059
-39.581
-41.844
-44.725
-48.037
-51.593
-55.261
-58.912
-62.443
-65.77
-68.778
-71.367
-73.475
-75.05
-76.079
-76.559
-76.487
-75.894
-74.819
-73.303
-71.392
-69.12
-66.512
-63.607
-60.45
-57.089
-53.578
-49.958
-46.255
-42.494
-38.691
-34.855
-30.994
-27.104
-23.178
-19.211
-15.205
-11.161
-7.085
-2.981
1.15
5.307
9.486
13.68
17.881
22.076
26.254
30.401
34.499
38.534
42.488
46.343
50.086
53.704
57.185
60.513
63.671
66.638
69.394
71.929
74.234
76.306
78.149
79.764
81.154
82.33
83.295
84.049
84.581
84.871
84.894
84.641
84.108
83.305
82.246
80.925
79.339
77.479
75.326
72.866
70.082
66.936
63.41
59.514
55.276
50.758
46.041
41.179
36.216
31.186
26.113
21.042
16.015
11.07
6.258
1.633
-2.744
-6.779
-10.401
-13.583
-16.322
-18.657
-20.658
-22.367
-23.819
-25.052
-26.082
-26.939
-27.648
-28.218
-28.666
-29.027
-29.351
-29.712
-30.175
-30.768
-31.499
-32.343
-33.249
-34.171
-35.053
-35.834
-36.468
-36.92
-37.163
-37.19
-36.989
-36.531
-35.77
-34.653
-33.133
-31.184
-28.795
-25.981
-22.78
-19.27
-15.583
-11.856
-8.22
-4.773
-1.569
1.324
3.817
5.802
7.146
7.727
7.478
6.324
4.158
1.034
-2.865
-7.187
-11.335
-14.74
-16.988
-17.724
-16.657
-13.88
-9.714
-4.588
0.705
5.508
9.464
12.337
14.238
16.136
19.491
25.657
36.335
53.125
77.422
110.746
153.945
206.314
266.052
331.308
399.76
468.483
533.832
591.109
635.874
665.237
677.676
671.851
646.724
602.752
542.262
469.534
389.746
307.464
226.411
150.658
84.757
31.744
-7.274
-32.933
-47.352
-52.724
-50.882
-44.463
-37.007
-31.07
-28.068
-28.472
-31.589
-36.664
-43.216
-50.163
-55.928
-59.517
-60.443
-58.681
-54.841
-49.486
-43.033
-36.137
-29.522
-23.64
-18.754
-14.926
-12.02
-9.954
-8.675
-8.071
-8.023
-8.444
-9.302
-10.581
-12.259
-14.279
-16.531
-18.899
-21.303
-23.688
-25.998
-28.184
-30.181
-31.91
-33.345
-34.469
-35.26
-35.697
-35.73
-35.317
-34.458
-33.171
-31.487
-29.453
-27.095
-24.437
-21.524
-18.406
-15.142
-11.805
-8.437
-5.068
-1.731
1.539
4.7
7.712
10.554
13.223
15.712
18.02
20.138
22.06
23.793
25.354
26.758
28.029
29.176
30.201
31.111
31.909
32.597
33.178
33.649
33.999
34.223
34.321
34.291
34.135
33.848
33.426
32.867
32.166
31.323
30.339
29.216
27.957
26.567
25.052
23.421
21.683
19.848
17.922
15.913
13.83
11.68
9.471
7.213
4.913
2.58
0.225
-2.143
-4.514
-6.878
-9.226
-11.55
-13.84
-16.09
-18.291
-20.438
-22.522
-24.538
-26.48
-28.341
-30.119
-31.807
-33.404
-34.906
-36.311
-37.621
-38.833
-39.95
-40.972
-41.9
-42.737
-43.484
-44.145
-44.723
-45.221
-45.644
-45.996
-46.281
-46.506
-46.676
-46.796
-46.871
-46.907
-46.908
-46.879
-46.826
-46.753
-46.663
-46.562
-46.455
-46.344
-46.235
-46.131
-46.036
-45.953
-45.883
-45.83
-45.794
-45.778
-45.781
-45.806
-45.852
-45.921
-46.012
-46.125
-46.26
-46.415
-46.589
-46.781
-46.988
-47.209
-47.441
-47.683
-47.932
-48.187
-48.446
-48.708
-48.97
-49.232
-49.491
-49.745
-49.993
-50.232
-50.46
-50.675
-50.877
-51.064
-51.235
-51.389
-51.526
-51.645
-51.745
-51.827
-51.89
-51.934
-51.96
-51.967
-51.958
-51.933
-51.895
-51.846
-51.789
-51.725
-51.658
-51.59
-51.523
-51.459
-51.402
-51.353
-51.315
-51.291
-51.283
-51.295
-51.328
-51.386
-51.472
-51.586
-51.732
-51.911
-52.124
-52.372
-52.657
-52.979
-53.34
-53.741
-54.181
-54.662
-55.183
-55.744
-56.343
-56.979
-57.65
-58.353
-59.086
-59.845
-60.629
-61.434
-62.258
-63.097
-63.949
-64.811
-65.678
-66.546
-67.413
-68.273
-69.123
-69.959
-70.778
-71.576
-72.351
-73.101
-73.823
-74.513
-75.171
-75.793
-76.376
-76.918
-77.417
-77.871
-78.279
-78.639
-78.951
-79.216
-79.432
-79.6
-79.721
-79.794
-79.822
-79.804
-79.742
-79.637
-79.491
-79.308
-79.091
-78.845
-78.574
-78.285
-77.981
-77.67
-77.356
-77.047
-76.748
-76.465
-76.203
-75.966
-75.763
-75.598
-75.479
-75.411
-75.4
-75.453
-75.574
-75.773
-76.057
-76.43
-76.894
-77.452
-78.104
-78.856
-79.715
-80.684
-81.763
-82.951
-84.246
-85.643
-87.139
-88.717
-90.347
-91.995
-93.624
-95.204
-96.714
-98.129
-99.423
-100.566
-101.524
-102.267
-102.781
-103.053
-103.073
-102.836
-102.34
-101.611
-100.723
-99.776
-98.864
-98.074
-97.456
-97.036
-96.874
-97.047
-97.629
-98.708
-100.336
-102.505
-105.262
-108.697
-112.757
-117.262
-121.78
-125.588
-128.066
-128.779
-127.276
-123.266
-116.784
-108.085
-98.088
-88.335
-80.111
-74.464
-72.144
-72.994
-76.122
-80.158
-82.567
-80.042
-69.49
-47.79
-12.653
36.317
98.159
170.867
250.848
333.379
413.069
483.619
539.404
576.668
593.105
587.509
559.837
511.714
446.663
369.971
287.382
203.951
123.957
51.593
-8.826
-54.634
-85.256
-101.771
-106.545
-102.091
-90.662
-75.301
-59.914
-47.27
-38.805
-34.972
-35.066
-38.272
-44.002
-51.001
-57.455
-62.195
-64.661
-64.793
-63.177
-60.333
-56.581
-52.456
-48.591
-45.365
-42.973
-41.408
-40.435
-39.877
-39.63
-39.576
-39.627
-39.728
-39.826
-39.888
-39.909
-39.886
-39.831
-39.766
-39.714
-39.686
-39.689
-39.737
-39.851
-40.034
-40.274
-40.524
-40.703
-40.755
-40.652
-40.369
-39.892
-39.186
-38.191
-36.862
-35.172
-33.099
-30.634
-27.765
-24.475
-20.777
-16.709
-12.327
-7.711
-2.915
2.028
7.082
12.22
17.405
22.593
27.754
32.872
37.931
42.914
47.804
52.581
57.242
61.795
66.256
70.643
74.967
79.224
83.41
87.52
91.545
95.479
99.306
103.005
106.559
109.954
113.178
116.22
119.067
121.701
124.106
126.267
128.171
129.81
131.175
132.258
133.057
133.568
133.794
133.736
133.395
132.775
131.876
130.701
129.254
127.54
125.566
123.337
120.863
118.154
115.22
112.075
108.733
105.207
101.511
97.663
93.676
89.569
85.357
81.058
76.688
72.265
67.805
63.325
58.84
54.366
49.917
45.506
41.147
36.851
32.63
28.495
24.456
20.523
16.705
13.01
9.445
6.018
2.734
-0.402
-3.387
-6.22
-8.898
-11.421
-13.791
-16.01
-18.079
-20.002
-21.784
-23.429
-24.943
-26.332
-27.603
-28.763
-29.819
-30.781
-31.654
-32.449
-33.172
-33.832
-34.437
-34.993
-35.509
-35.992
-36.45
-36.89
-37.321
-37.748
-38.179
-38.619
-39.075
-39.551
-40.051
-40.578
-41.135
-41.724
-42.347
-43.002
-43.691
-44.412
-45.167
-45.954
-46.773
-47.621
-48.497
-49.4
-50.326
-51.273
-52.233
-53.201
-54.168
-55.13
-56.081
-57.016
-57.931
-58.82
-59.679
-60.508
-61.303
-62.061
-62.775
-63.432
-64.028
-64.566
-65.053
-65.502
-65.925
-66.329
-66.727
-67.139
-67.575
-68.039
-68.524
-69.007
-69.479
-69.937
-70.389
-70.856
-71.346
-71.851
-72.361
-72.858
-73.324
-73.749
-74.104
-74.351
-74.475
-74.48
-74.394
-74.282
-74.183
-74.115
-74.077
-74.042
-73.991
-73.931
-73.856
-73.772
-73.689
-73.609
-73.556
-73.57
-73.656
-73.798
-73.952
-74.032
-73.979
-73.772
-73.425
-73.013
-72.608
-72.266
-72.035
-71.934
-71.996
-72.268
-72.774
-73.542
-74.609
-75.991
-77.784
-80.152
-83.103
-86.524
-90.115
-93.313
-95.642
-96.711
-95.992
-93.084
-87.956
-80.862
-72.608
-64.419
-57.182
-51.762
-49.163
-49.69
-52.834
-57.363
-60.952
-61.002
-55.141
-40.297
-13.208
28.145
82.444
145.196
211.92
279.675
351.465
433.002
521.652
607.316
671.326
689.875
652.393
563.716
438.619
303.668
183.145
88.662
27.193
-5.206
-21.352
-28.525
-33.55
-38.939
-39.576
-34.043
-23.31
-9.892
0.82
6.034
5.584
0.422
-7.433
-16.282
-24.674
-31.401
-35.885
-37.904
-37.718
-35.985
-33.298
-30.336
-27.88
-26.384
-26.056
-26.976
-28.977
-31.873
-35.552
-39.808
-44.419
-49.239
-54.111
-58.919
-63.585
-67.974
-71.962
-75.469
-78.419
-80.786
-82.566
-83.747
-84.34
-84.376
-83.883
-82.902
-81.474
-79.626
-77.404
-74.858
-72.044
-69.026
-65.856
-62.569
-59.196
-55.758
-52.268
-48.737
-45.168
-41.556
-37.904
-34.216
-30.499
-26.765
-23.023
-19.277
-15.534
-11.799
-8.081
-4.389
-0.735
2.874
6.422
9.898
13.286
16.57
19.738
22.778
25.679
28.432
31.027
33.458
35.716
37.795
39.69
41.393
42.9
44.206
45.307
46.2
46.882
47.352
47.61
47.657
47.495
47.126
46.556
45.79
44.831
43.689
42.37
40.882
39.234
37.433
35.488
33.41
31.214
28.91
26.512
24.03
21.469
18.85
16.19
13.487
10.741
7.953
5.119
2.261
-0.585
-3.432
-6.296
-9.118
-11.857
-14.475
-16.924
-19.237
-21.488
-23.631
-25.585
-27.553
-29.777
-32.11
-34.569
-37.201
-39.488
-42.836
-48.616
-54.873
-61.012
-63.442
-57.865
-49.038
-40.137
-35.887
-42.773
-55.066
-67.905
-77.959
-79.712
-77.075
-73.996
-71.326
-71.457
-72.947
-73.958
-74.81
-75.238
-75.33
-75.403
-75.175
-74.425
-73.19
-71.462
-69.212
-66.465
-63.31
-59.864
-56.277
-52.692
-49.154
-45.719
-42.494
-39.582
-37.115
-35.226
-33.976
-33.451
-33.788
-34.971
-36.867
-39.186
-41.333
-42.759
-43.051
-41.694
-38.304
-32.915
-25.763
-17.484
-9.202
-1.695
4.483
8.607
10.557
11.098
11.509
13.851
20.731
34.238
56.348
89.316
134.341
191.105
258.134
332.637
410.837
488.702
561.591
624.004
670.99
699.178
706.47
691.977
656.385
601.846
531.9
451.717
367.15
283.193
204.451
135.434
79.085
36.635
8.107
-8.155
-14.908
-14.557
-9.924
-4.539
-0.738
0.206
-2.417
-8.167
-16.071
-25.453
-35.161
-43.567
-49.852
-53.676
-54.97
-54.315
-52.325
-49.441
-46.355
-43.813
-42.204
-41.743
-42.466
-44.166
-46.7
-49.953
-53.725
-57.828
-62.094
-66.377
-70.584
-74.626
-78.386
-81.737
-84.551
-86.738
-88.261
-89.097
-89.248
-88.736
-87.587
-85.852
-83.595
-80.868
-77.728
-74.226
-70.411
-66.341
-62.08
-57.689
-53.231
-48.756
-44.294
-39.874
-35.515
-31.225
-27.012
-22.881
-18.826
-14.85
-10.959
-7.157
-3.452
0.151
3.648
7.037
10.315
13.48
16.526
19.449
22.245
24.908
27.433
29.815
32.047
34.126
36.05
37.817
39.427
40.882
42.181
43.325
44.318
45.16
45.854
46.402
46.806
47.068
47.191
47.179
47.035
46.763
46.367
45.852
45.223
44.484
43.641
42.7
41.667
40.546
39.344
38.066
36.719
35.306
33.836
32.312
30.74
29.127
27.476
25.793
24.084
22.353
20.605
18.844
17.075
15.303
13.531
11.765
10.009
8.267
6.543
4.841
3.165
1.518
-0.097
-1.678
-3.223
-4.73
-6.199
-7.627
-9.014
-10.361
-11.667
-12.933
-14.158
-15.344
-16.491
-17.6
-18.671
-19.706
-20.706
-21.67
-22.601
-23.497
-24.362
-25.194
-25.995
-26.767
-27.51
-28.225
-28.915
-29.58
-30.222
-30.842
-31.442
-32.023
-32.586
-33.133
-33.665
-34.183
-34.687
-35.178
-35.656
-36.122
-36.575
-37.015
-37.442
-37.856
-38.256
-38.643
-39.017
-39.378
-39.727
-40.063
-40.387
-40.7
-41.002
-41.294
-41.576
-41.849
-42.112
-42.368
-42.615
-42.855
-43.087
-43.311
-43.527
-43.735
-43.934
-44.123
-44.302
-44.469
-44.625
-44.769
-44.9
-45.018
-45.123
-45.214
-45.291
-45.353
-45.4
-45.43
-45.442
-45.435
-45.408
-45.359
-45.287
-45.191
-45.07
-44.922
-44.746
-44.541
-44.306
-44.04
-43.742
-43.413
-43.053
-42.663
-42.243
-41.795
-41.324
-40.832
-40.326
-39.811
-39.292
-38.776
-38.269
-37.78
-37.315
-36.878
-36.476
-36.115
-35.801
-35.542
-35.347
-35.223
-35.181
-35.227
-35.369
-35.614
-35.965
-36.425
-36.994
-37.675
-38.472
-39.4
-40.468
-41.687
-43.063
-44.599
-46.291
-48.13
-50.095
-52.156
-54.284
-56.448
-58.619
-60.776
-62.894
-64.946
-66.895
-68.69
-70.279
-71.614
-72.653
-73.366
-73.746
-73.81
-73.601
-73.193
-72.655
-72.041
-71.419
-70.864
-70.461
-70.308
-70.51
-71.16
-72.394
-74.408
-77.258
-80.852
-84.956
-89.115
-92.914
-96.096
-98.253
-98.861
-97.812
-95.312
-91.966
-88.922
-86.937
-86.18
-87.016
-89.853
-94.301
-99.39
-103.223
-102.942
-96.416
-82.242
-58.706
-24.066
22.473
80.641
148.49
222.616
299.948
377.32
450.583
514.835
565.442
598.902
613.468
608.914
585.337
543.883
487.459
420.685
348.991
277.36
209.878
149.65
99.405
60.883
34.224
17.934
9.456
6.082
5.299
5.179
4.045
0.686
-5.259
-13.373
-22.636
-31.788
-39.605
-45.368
-48.691
-49.436
-47.828
-44.287
-39.436
-34.082
-29.057
-24.903
-21.904
-20.196
-19.752
-20.54
-22.509
-25.513
-29.346
-33.824
-38.783
-44.086
-49.635
-55.295
-60.886
-66.23
-71.154
-75.537
-79.314
-82.445
-84.899
-86.659
-87.728
-88.129
-87.912
-87.124
-85.808
-84.003
-81.748
-79.095
-76.103
-72.835
-69.349
-65.686
-61.87
-57.917
-53.84
-49.647
-45.344
-40.926
-36.39
-31.733
-26.962
-22.085
-17.112
-12.052
-6.91
-1.696
3.582
8.911
14.276
19.661
25.049
30.42
35.755
41.031
46.226
51.317
56.285
61.11
65.771
70.251
74.531
78.591
82.417
85.989
89.294
92.314
95.037
97.449
99.539
101.298
102.718
103.792
104.517
104.888
104.906
104.571
103.885
102.852
101.477
99.768
97.733
95.382
92.727
89.779
86.555
83.069
79.34
75.387
71.228
66.886
62.382
57.738
52.978
48.124
43.199
38.227
33.231
28.233
23.256
18.321
13.449
8.659
3.97
-0.601
-5.039
-9.33
-13.462
-17.424
-21.209
-24.809
-28.222
-31.445
-34.477
-37.32
-39.976
-42.449
-44.744
-46.866
-48.821
-50.617
-52.266
-53.777
-55.165
-56.443
-57.627
-58.73
-59.768
-60.754
-61.698
-62.612
-63.506
-64.392
-65.29
-66.218
-67.192
-68.227
-69.333
-70.513
-71.767
-73.08
-74.426
-75.778
-77.102
-78.368
-79.554
-80.631
-81.567
-82.333
-82.876
-83.147
-83.106
-82.711
-81.938
-80.783
-79.257
-77.414
-75.345
-73.146
-70.913
-68.727
-66.658
-64.817
-63.314
-62.26
-61.785
-61.972
-62.939
-64.863
-67.754
-71.468
-75.724
-80
-83.824
-86.938
-88.888
-89.078
-87.356
-83.794
-78.899
-73.775
-68.999
-64.576
-60.858
-58.337
-56.878
-55.89
-53.727
-47.656
-35.924
-17.658
8.832
45.728
94.35
155.313
225.994
300.283
375.628
451.24
527.175
606.57
683.062
743.376
775.86
766.381
714.096
632.561
534.187
434.369
341.837
253.894
171.182
96.168
31.382
-17.659
-48.175
-63.349
-67.359
-62.278
-52.67
-39.55
-21.494
-5.515
3.934
2.073
-17.523
-47.737
-80.539
-109.568
-127.492
-137.205
-142.4
-144.001
-144.045
-141.483
-136.107
-129.705
-123.031
-116.859
-111.601
-107.057
-103.481
-100.989
-99.21
-97.857
-96.669
-95.555
-94.701
-94.222
-94.105
-94.329
-94.87
-95.7
-96.809
-98.122
-99.519
-100.919
-102.256
-103.478
-104.556
-105.425
-106.015
-106.28
-106.177
-105.658
-104.676
-103.187
-101.178
-98.662
-95.671
-92.248
-88.433
-84.258
-79.766
-75.006
-70.027
-64.892
-59.671
-54.416
-49.178
-44.008
-38.96
-34.08
-29.406
-24.959
-20.745
-16.773
-13.049
-9.578
-6.363
-3.397
-0.673
1.824
4.109
6.193
8.082
9.782
11.3
12.639
13.803
14.787
15.587
16.198
16.621
16.855
16.901
16.76
16.431
15.914
15.211
14.324
13.259
12.021
10.618
9.058
7.35
5.508
3.542
1.465
-0.712
-2.978
-5.322
-7.733
-10.201
-12.713
-15.261
-17.833
-20.418
-23.007
-25.592
-28.166
-30.723
-33.259
-35.77
-38.251
-40.702
-43.117
-45.494
-47.828
-50.115
-52.352
-54.539
-56.678
-58.769
-60.813
-62.812
-64.764
-66.673
-68.538
-70.355
-72.118
-73.831
-75.497
-77.131
-78.748
-80.357
-81.965
-83.58
-85.194
-86.8
-88.383
-89.91
-91.348
-92.665
-93.829
-94.821
-95.616
-96.169
-96.434
-96.356
-95.876
-94.963
-93.593
-91.742
-89.433
-86.704
-83.622
-80.293
-76.801
-73.238
-69.717
-66.344
-63.258
-60.631
-58.591
-57.307
-56.997
-57.681
-59.273
-61.571
-64.09
-66.401
-68.161
-68.81
-67.9
-65.45
-61.726
-57.442
-53.738
-51.299
-50.615
-52.413
-56.808
-63.078
-69.823
-74.619
-74.62
-67.542
-51.16
-23.023
18.421
73.378
140.625
217.378
300.026
384.54
466.175
539.292
598.285
638.974
658.7
656.003
630.929
585.171
521.874
446.105
364.26
281.911
204.12
135.937
80.725
40.089
14.389
1.901
-0.638
3.806
11.858
19.509
24.14
24.247
18.962
8.798
-4.994
-21.321
-38.575
-54.746
-68.727
-79.978
-88.268
-93.992
-97.633
-99.551
-100.346
-100.723
-101.031
-101.399
-101.827
-102.134
-102.22
-102.078
-101.647
-100.834
-99.581
-97.851
-95.636
-92.989
-89.947
-86.53
-82.803
-78.866
-74.84
-70.885
-67.136
-63.674
-60.574
-57.888
-55.631
-53.831
-52.502
-51.646
-51.285
-51.447
-52.129
-53.306
-54.893
-56.75
-58.733
-60.679
-62.443
-63.908
-64.951
-65.481
-65.449
-64.823
-63.592
-61.746
-59.24
-55.999
-51.974
-47.149
-41.564
-35.31
-28.482
-21.186
-13.525
-5.606
2.444
10.535
18.614
26.66
34.676
42.646
50.499
58.132
65.44
72.327
78.74
84.657
90.056
94.936
99.296
103.159
106.569
109.537
112.047
114.053
115.48
116.284
116.469
116.068
115.14
113.76
111.981
109.844
107.396
104.663
101.666
98.416
94.902
91.132
87.139
82.973
78.712
74.422
70.134
65.866
61.616
57.355
53.075
48.767
44.418
40.03
35.614
31.182
26.766
22.396
18.086
13.845
9.667
5.545
1.488
-2.492
-6.372
-10.12
-13.713
-17.127
-20.338
-23.327
-26.082
-28.597
-30.872
-32.917
-34.734
-36.327
-37.697
-38.844
-39.775
-40.497
-41.02
-41.356
-41.516
-41.515
-41.365
-41.081
-40.675
-40.16
-39.545
-38.838
-38.049
-37.188
-36.265
-35.29
-34.274
-33.224
-32.152
-31.067
-29.978
-28.893
-27.82
-26.765
-25.736
-24.737
-23.775
-22.855
-21.979
-21.151
-20.374
-19.647
-18.974
-18.355
-17.789
-17.277
-16.819
-16.416
-16.067
-15.772
-15.531
-15.345
-15.214
-15.138
-15.116
-15.151
-15.241
-15.388
-15.594
-15.858
-16.183
-16.569
-17.019
-17.534
-18.117
-18.772
-19.5
-20.307
-21.195
-22.168
-23.23
-24.38
-25.62
-26.953
-28.376
-29.893
-31.503
-33.206
-35.005
-36.903
-38.898
-40.992
-43.18
-45.453
-47.804
-50.223
-52.705
-55.251
-57.859
-60.523
-63.242
-66.012
-68.827
-71.673
-74.519
-77.319
-80.03
-82.612
-85.03
-87.265
-89.289
-91.072
-92.582
-93.778
-94.629
-95.116
-95.208
-94.874
-94.098
-92.895
-91.345
-89.562
-87.66
-85.73
-83.818
-81.976
-80.289
-78.845
-77.76
-77.147
-77.043
-77.549
-78.827
-80.909
-83.695
-86.85
-89.669
-91.448
-91.623
-89.582
-84.942
-77.785
-68.502
-58.185
-48.514
-40.998
-37.073
-37.927
-43.664
-53.281
-64.784
-74.864
-79.825
-75.884
-58.621
-24.617
27.826
97.206
177.981
265.643
356.727
449.272
544.121
633.151
702.064
737.919
726.377
668.412
579.522
473.819
368.366
272.409
183.596
103.196
33.055
-25.191
-66.488
-89.051
-94.915
-86.593
-67.466
-41.854
-13.842
13.6
37.467
55.005
64.923
66.381
58.807
43.078
20.953
-6.29
-36.29
-65.72
-92.481
-114.883
-131.363
-141.504
-145.308
-142.478
-134.289
-123.401
-111.521
-99.967
-89.879
-81.567
-75.532
-72.666
-72.659
-74.205
-76.484
-78.849
-80.913
-82.846
-84.491
-85.337
-85.361
-84.888
-84.132
-83.344
-82.578
-81.6
-80.311
-78.753
-76.922
-74.819
-72.446
-69.747
-66.717
-63.419
-59.899
-56.212
-52.393
-48.441
-44.349
-40.108
-35.727
-31.244
-26.713
-22.174
-17.646
-13.131
-8.63
-4.164
0.249
4.602
8.898
13.147
17.346
21.476
25.506
29.407
33.163
36.777
40.257
43.606
46.821
49.898
52.833
55.629
58.286
60.793
63.135
65.294
67.26
69.027
70.593
71.956
73.108
74.04
74.746
75.219
75.454
75.445
75.188
74.678
73.913
72.895
71.631
70.127
68.391
66.431
64.256
61.877
59.306
56.555
53.635
50.557
47.336
43.985
40.52
36.955
33.307
29.592
25.826
22.027
18.209
14.391
10.586
6.81
3.075
-0.605
-4.218
-7.755
-11.206
-14.561
-17.814
-20.956
-23.98
-26.883
-29.659
-32.309
-34.833
-37.232
-39.511
-41.677
-43.734
-45.687
-47.543
-49.301
-50.967
-52.544
-54.038
-55.464
-56.836
-58.165
-59.466
-60.75
-62.022
-63.284
-64.524
-65.716
-66.835
-67.855
-68.748
-69.498
-70.083
-70.477
-70.657
-70.58
-70.205
-69.502
-68.432
-66.971
-65.116
-62.878
-60.318
-57.539
-54.642
-51.733
-48.901
-46.223
-43.812
-41.786
-40.255
-39.362
-39.195
-39.87
-41.594
-44.395
-48.144
-52.588
-57.164
-61.313
-64.682
-66.713
-66.746
-64.661
-60.561
-54.986
-49.262
-44.273
-40.424
-38.495
-39.043
-41.681
-45.565
-48.729
-47.829
-40.275
-23.9
3.979
45.46
101.494
172.02
254.937
345.918
440.637
534.283
620.49
692.958
746.128
774.965
778.168
757.065
711.463
644.119
556.89
452.311
342.13
236.37
145.971
81.376
38.952
14.384
2.91
-3.957
-6.132
-3.996
-1.309
1.185
0.555
-5.719
-16.869
-31.893
-49.241
-66.63
-82.021
-94.266
-102.834
-107.636
-109.221
-108.272
-105.388
-101.449
-97.435
-93.937
-91.327
-89.775
-89.163
-89.414
-90.498
-92.286
-94.637
-97.44
-100.57
-103.932
-107.472
-111.092
-114.674
-118.096
-121.222
-123.931
-126.121
-127.723
-128.701
-129.039
-128.746
-127.841
-126.352
-124.324
-121.817
-118.888
-115.596
-111.998
-108.148
-104.107
-99.941
-95.712
-91.478
-87.28
-83.145
-79.092
-75.136
-71.285
-67.545
-63.915
-60.389
-56.964
-53.642
-50.426
-47.321
-44.329
-41.451
-38.687
-36.038
-33.508
-31.1
-28.819
-26.669
-24.654
-22.778
-21.048
-19.471
-18.05
-16.788
-15.685
-14.743
-13.962
-13.341
-12.88
-12.577
-12.431
-12.44
-12.603
-12.92
-13.388
-14.007
-14.772
-15.683
-16.734
-17.922
-19.242
-20.688
-22.254
-23.934
-25.72
-27.606
-29.584
-31.647
-33.789
-36.004
-38.287
-40.631
-43.031
-45.481
-47.977
-50.512
-53.081
-55.677
-58.291
-60.917
-63.55
-66.184
-68.817
-71.446
-74.068
-76.68
-79.277
-81.856
-84.411
-86.934
-89.415
-91.846
-94.227
-96.566
-98.868
-101.139
-103.38
-105.592
-107.766
-109.892
-111.945
-113.893
-115.7
-117.334
-118.77
-119.993
-120.987
-121.732
-122.197
-122.337
-122.112
-121.491
-120.449
-118.968
-117.05
-114.729
-112.065
-109.163
-106.113
-102.981
-99.844
-96.783
-93.895
-91.297
-89.111
-87.429
-86.387
-86.177
-86.835
-88.255
-90.167
-92.056
-93.454
-94.063
-93.456
-91.104
-86.944
-81.281
-74.848
-68.967
-64.536
-61.781
-61.105
-62.937
-66.806
-71.579
-75.167
-74.402
-66.928
-51.399
-26.088
10.7
59.525
120.079
190.352
266.652
345.901
425.242
500.516
567.03
620.493
656.91
674.107
671.499
648.116
604.151
542.195
466.176
381.061
292.66
205.746
124.64
54.441
-1.455
-41.987
-67.39
-79.603
-81.732
-76.461
-66.976
-57.423
-50.561
-47.788
-49.786
-55.935
-65.061
-76.292
-88.225
-98.962
-107.486
-113.363
-116.505
-117.507
-116.994
-115.408
-113.418
-111.766
-110.801
-110.675
-111.375
-112.661
-114.381
-116.438
-118.674
-120.943
-123.147
-125.231
-127.175
-128.977
-130.59
-131.95
-133.01
-133.748
-134.209
-134.451
-134.515
-134.442
-134.256
-133.99
-133.668
-133.3
-132.859
-132.293
-131.557
-130.634
-129.529
-128.249
-126.792
-125.136
-123.23
-121.036
-118.528
-115.684
-112.493
-108.939
-105.02
-100.755
-96.197
-91.419
-86.481
-81.42
-76.264
-71.032
-65.753
-60.461
-55.196
-49.978
-44.83
-39.772
-34.825
-30.017
-25.364
-20.87
-16.523
-12.306
-8.21
-4.236
-0.391
3.317
6.882
10.297
13.549
16.619
19.491
22.153
24.594
26.808
28.786
30.515
31.981
33.173
34.082
34.702
35.029
35.06
34.795
34.238
33.394
32.274
30.888
29.244
27.354
25.229
22.883
20.328
17.579
14.651
11.56
8.321
4.951
1.47
-2.105
-5.757
-9.467
-13.218
-16.99
-20.766
-24.529
-28.261
-31.946
-35.567
-39.109
-42.558
-45.899
-49.121
-52.211
-55.159
-57.957
-60.598
-63.074
-65.383
-67.521
-69.486
-71.277
-72.896
-74.344
-75.623
-76.738
-77.691
-78.489
-79.136
-79.638
-80.002
-80.235
-80.343
-80.333
-80.213
-79.991
-79.675
-79.271
-78.788
-78.234
-77.616
-76.943
-76.223
-75.462
-74.669
-73.849
-73.009
-72.156
-71.295
-70.432
-69.57
-68.715
-67.869
-67.036
-66.219
-65.42
-64.642
-63.886
-63.155
-62.451
-61.775
-61.13
-60.519
-59.945
-59.413
-58.927
-58.492
-58.111
-57.79
-57.535
-57.351
-57.242
-57.211
-57.262
-57.398
-57.625
-57.944
-58.36
-58.875
-59.492
-60.213
-61.045
-61.99
-63.053
-64.231
-65.524
-66.93
-68.451
-70.094
-71.86
-73.746
-75.747
-77.856
-80.068
-82.374
-84.755
-87.175
-89.592
-91.961
-94.245
-96.413
-98.431
-100.263
-101.864
-103.18
-104.176
-104.826
-105.119
-105.043
-104.582
-103.732
-102.53
-101.06
-99.433
-97.76
-96.128
-94.6
-93.244
-92.137
-91.362
-91.02
-91.192
-91.921
-93.227
-95.138
-97.697
-100.852
-104.446
-108.089
-111.152
-112.995
-113.099
-111.092
-106.72
-99.989
-90.976
-80.092
-68.732
-58.316
-49.814
-44.004
-39.189
-33.29
-26.823
-18.028
-7.426
4.074
24.473
56.855
104.511
174.498
258.784
351.976
449.637
535.053
602.647
646.92
658.97
644.81
607.85
551.546
485.463
411.128
331.134
250.646
172.212
102.127
45.988
5.3
-19.588
-30.529
-30.756
-22.82
-9.495
5.489
18.765
28.226
32.829
32.682
28.693
21.712
12.717
3.303
-4.952
-11.137
-14.889
-16.412
-16.287
-15.003
-13.027
-10.985
-9.486
-8.883
-9.302
-10.666
-12.767
-15.445
-18.576
-22.015
-25.603
-29.217
-32.762
-36.161
-39.353
-42.254
-44.756
-46.782
-48.281
-49.225
-49.61
-49.444
-48.739
-47.522
-45.834
-43.706
-41.168
-38.252
-34.985
-31.404
-27.551
-23.47
-19.207
-14.799
-10.271
-5.641
-0.92
3.888
8.781
13.762
18.837
24.008
29.274
34.63
40.07
45.587
51.178
56.837
62.557
68.329
74.143
79.986
85.844
91.701
97.537
103.335
109.074
114.733
120.295
125.741
131.054
136.219
141.217
146.033
150.652
155.056
159.231
163.162
166.834
170.233
173.345
176.16
178.666
180.854
182.716
184.245
185.436
186.285
186.789
186.949
186.765
186.241
185.383
184.197
182.693
180.882
178.778
176.393
173.745
170.849
167.724
164.387
160.855
157.147
153.281
149.275
145.145
140.911
136.589
132.199
127.76
123.292
118.814
114.344
109.9
105.498
101.153
96.88
92.69
88.592
84.597
80.714
76.958
73.34
69.869
66.549
63.377
60.35
57.469
54.73
52.131
49.669
47.347
45.181
43.207
41.462
39.985
38.807
37.95
37.44
37.306
37.584
38.316
39.535
41.254
43.489
46.252
49.543
53.347
57.59
62.136
66.841
71.56
76.167
80.575
84.667
88.298
91.318
93.559
94.889
95.254
94.581
92.764
89.842
85.974
81.543
77.217
73.653
71.388
70.867
72.432
76.11
81.703
88.736
96.303
103.478
109.493
113.969
117.062
119.718
123.449
129.989
141.556
160.563
189.381
229.87
282.82
347.46
421.755
502.964
587.221
669.68
744.734
806.419
849.537
870.471
866.976
838.276
785.622
712.09
622.534
523.516
421.908
324.089
236.061
162.222
104.857
64.669
40.556
29.559
28.036
31.976
36.906
39.665
38.599
32.804
22.501
8.812
-6.952
-23.053
-37.336
-48.561
-56.31
-60.481
-61.583
-60.282
-57.128
-52.918
-48.58
-44.657
-41.435
-39.03
-37.292
-36.123
-35.484
-35.236
-35.255
-35.457
-35.768
-36.171
-36.677
-37.26
-37.898
-38.58
-39.279
-39.977
-40.655
-41.297
-41.91
-42.503
-43.086
-43.67
-44.244
-44.789
-45.285
-45.69
-45.972
-46.107
-46.062
-45.8
-45.301
-44.551
-43.549
-42.305
-40.818
-39.094
-37.147
-34.994
-32.672
-30.225
-27.707
-25.187
-22.725
-20.371
-18.175
-16.186
-14.438
-12.964
-11.779
-10.889
-10.298
-10.011
-10.028
-10.345
-10.953
-11.832
-12.963
-14.318
-15.876
-17.62
-19.532
-21.596
-23.8
-26.133
-28.587
-31.162
-33.85
-36.645
-39.54
-42.526
-45.596
-48.742
-51.952
-55.212
-58.508
-61.834
-65.18
-68.543
-71.924
-75.325
-78.756
-82.233
-85.767
-89.363
-93.023
-96.744
-100.522
-104.36
-108.261
-112.229
-116.259
-120.339
-124.451
-128.567
-132.635
-136.589
-140.343
-143.808
-146.918
-149.633
-151.922
-153.77
-155.168
-156.106
-156.587
-156.615
-156.196
-155.339
-154.05
-152.366
-150.383
-148.252
-146.154
-144.24
-142.572
-141.156
-140.003
-139.139
-138.633
-138.505
-138.665
-139.104
-139.997
-141.689
-144.581
-148.815
-154.107
-160.053
-166.507
-173.263
-179.967
-185.973
-190.274
-192.336
-192.466
-191.243
-189.041
-186.309
-183.41
-180.978
-180.402
-182.576
-187.594
-195.401
-205.553
-217.129
-229.443
-241.589
-251.809
-258.763
-261.146
-257.121
-245.791
-227.159
-200.996
-167.207
-125.996
-77.018
-20.809
40.547
105.467
172.906
241.393
308.964
372.64
428.159
472.017
502.427
517.903
516.948
498.439
462.504
411.431
349.457
281.117
210.161
139.888
73.852
16.019
-30.883
-66.136
-90.577
-105.972
-114.036
-116.114
-114.193
-111.194
-109.222
-109.283
-111.674
-115.833
-121.202
-127.584
-134.259
-139.922
-143.815
-145.623
-145.359
-143.607
-140.885
-137.516
-134.067
-131.215
-129.368
-128.775
-129.49
-131.327
-134.145
-137.834
-142.203
-147.061
-152.226
-157.545
-162.914
-168.234
-173.385
-178.233
-182.643
-186.516
-189.8
-192.455
-194.467
-195.842
-196.597
-196.77
-196.416
-195.577
-194.299
-192.622
-190.584
-188.232
-185.617
-182.788
-179.794
-176.676
-173.454
-170.149
-166.771
-163.323
-159.808
-156.222
-152.558
-148.816
-144.997
-141.107
-137.153
-133.141
-129.075
-124.963
-120.811
-116.627
-112.421
-108.204
-103.988
-99.787
-95.615
-91.485
-87.416
-83.419
-79.509
-75.696
-71.992
-68.406
-64.95
-61.631
-58.458
-55.44
-52.583
-49.897
-47.386
-45.058
-42.916
-40.964
-39.205
-37.641
-36.271
-35.094
-34.11
-33.315
-32.707
-32.281
-32.033
-31.96
-32.056
-32.317
-32.74
-33.317
-34.044
-34.913
-35.919
-37.052
-38.307
-39.674
-41.142
-42.706
-44.354
-46.083
-47.884
-49.753
-51.681
-53.66
-55.685
-57.75
-59.85
-61.979
-64.129
-66.296
-68.474
-70.67
-72.887
-75.121
-77.367
-79.612
-81.839
-84.032
-86.169
-88.213
-90.127
-91.869
-93.396
-94.678
-95.686
-96.389
-96.752
-96.725
-96.265
-95.346
-93.961
-92.117
-89.83
-87.125
-84.057
-80.714
-77.206
-73.649
-70.159
-66.839
-63.79
-61.102
-58.851
-57.115
-55.963
-55.468
-55.668
-56.541
-58.026
-59.989
-62.291
-64.821
-67.346
-69.458
-70.598
-70.151
-67.67
-63.04
-56.166
-46.658
-34.294
-19.177
-1.994
15.961
33.795
51.524
69.503
87.757
106.346
125.406
146.237
171.903
204.99
246.653
295.235
346.862
398.897
450.704
505.785
568.415
636.182
700.126
743.147
746.207
700.839
608.727
482.903
343.809
209.721
97.371
17.261
-28.268
-43.767
-42.012
-34.642
-28.927
-26.888
-23.747
-17.227
-8.375
0.735
5.853
5.224
0.208
-7.648
-16.239
-23.451
-28.558
-31.343
-31.705
-30.21
-27.563
-24.304
-21.15
-18.852
-17.759
-18.013
-19.621
-22.331
-25.913
-30.207
-34.985
-40.03
-45.179
-50.268
-55.159
-59.746
-63.905
-67.536
-70.578
-72.983
-74.742
-75.863
-76.367
-76.297
-75.704
-74.638
-73.148
-71.276
-69.064
-66.566
-63.841
-60.948
-57.946
-54.88
-51.779
-48.669
-45.565
-42.471
-39.389
-36.31
-33.224
-30.124
-27.01
-23.88
-20.738
-17.582
-14.411
-11.223
-8.019
-4.798
-1.563
1.682
4.932
8.182
11.424
14.646
17.84
20.996
24.105
27.159
30.149
33.069
35.909
38.661
41.318
43.871
46.313
48.634
50.827
52.883
54.794
56.554
58.156
59.593
60.86
61.952
62.864
63.594
64.137
64.493
64.658
64.632
64.416
64.008
63.41
62.624
61.654
60.502
59.174
57.675
56.012
54.192
52.222
50.111
47.868
45.502
43.022
40.437
37.759
34.996
32.161
29.263
26.314
23.323
20.301
17.259
14.206
11.151
8.103
5.07
2.061
-0.916
-3.855
-6.747
-9.586
-12.367
-15.082
-17.728
-20.3
-22.794
-25.207
-27.536
-29.778
-31.934
-34
-35.975
-37.859
-39.65
-41.348
-42.953
-44.466
-45.887
-47.215
-48.453
-49.602
-50.663
-51.638
-52.528
-53.333
-54.057
-54.701
-55.268
-55.758
-56.176
-56.524
-56.808
-57.033
-57.204
-57.328
-57.411
-57.457
-57.474
-57.464
-57.432
-57.379
-57.307
-57.221
-57.125
-57.026
-56.927
-56.835
-56.753
-56.685
-56.636
-56.606
-56.591
-56.589
-56.599
-56.626
-56.684
-56.787
-56.942
-57.157
-57.436
-57.775
-58.165
-58.589
-59.014
-59.41
-59.748
-60.003
-60.163
-60.217
-60.139
-59.9
-59.46
-58.778
-57.83
-56.594
-55.051
-53.223
-51.147
-48.886
-46.539
-44.182
-41.89
-39.766
-37.893
-36.36
-35.294
-34.766
-34.889
-35.86
-37.718
-40.391
-43.695
-47.147
-50.246
-52.657
-53.852
-53.255
-50.796
-46.657
-41.464
-36.647
-33.381
-32.421
-34.768
-41.058
-50.809
-62.925
-75.298
-84.393
-86.997
-80.352
-61.317
-27.558
21.425
84.935
160.69
244.18
330.348
413.826
488.069
546.796
585.551
601.021
591.21
556.84
500.399
425.653
338.557
246.118
154.41
69.398
-3.029
-59.363
-98.093
-119.027
-124.247
-117.308
-101.515
-80.907
-60.28
-42.764
-30.16
-23.518
-22.375
-25.544
-32.032
-40.168
-47.739
-53.54
-57.008
-57.961
-56.974
-54.646
-51.389
-47.906
-45.002
-43.085
-42.346
-42.781
-44.112
-46.146
-48.747
-51.705
-54.82
-57.919
-60.849
-63.497
-65.784
-67.636
-68.989
-69.797
-70.031
-69.692
-68.79
-67.357
-65.438
-63.073
-60.309
-57.19
-53.755
-50.057
-46.154
-42.108
-37.983
-33.833
-29.693
-25.599
-21.578
-17.645
-13.812
-10.082
-6.446
-2.904
0.541
3.888
7.13
10.266
13.3
16.232
19.065
21.8
24.438
26.979
29.427
31.779
34.035
36.193
38.249
40.203
42.055
43.806
45.459
47.017
48.483
49.859
51.15
52.359
53.49
54.545
55.524
56.43
57.265
58.028
58.72
59.341
59.892
60.372
60.782
61.12
61.387
61.581
61.702
61.75
61.722
61.618
61.436
61.175
60.836
60.417
59.919
59.342
58.687
57.956
57.15
56.27
55.317
54.295
53.204
52.047
50.827
49.548
48.212
46.826
45.392
43.916
42.404
40.859
39.288
37.694
36.082
34.457
32.824
31.185
29.546
27.91
26.281
24.663
23.058
21.47
19.901
18.353
16.826
15.322
13.841
12.382
10.945
9.529
8.132
6.754
5.391
4.043
2.706
1.379
0.058
-1.26
-2.577
-3.895
-5.218
-6.547
-7.884
-9.231
-10.588
-11.955
-13.333
-14.72
-16.116
-17.521
-18.931
-20.346
-21.763
-23.179
-24.591
-25.997
-27.392
-28.772
-30.132
-31.468
-32.774
-34.047
-35.279
-36.466
-37.603
-38.683
-39.701
-40.653
-41.533
-42.338
-43.064
-43.712
-44.28
-44.769
-45.18
-45.515
-45.778
-45.969
-46.092
-46.148
-46.138
-46.066
-45.938
-45.76
-45.539
-45.281
-44.991
-44.675
-44.339
-43.987
-43.618
-43.236
-42.846
-42.458
-42.092
-41.768
-41.502
-41.306
-41.192
-41.158
-41.201
-41.31
-41.459
-41.624
-41.78
-41.904
-41.984
-42.002
-41.922
-41.707
-41.304
-40.659
-39.739
-38.514
-36.963
-35.115
-33.007
-30.703
-28.303
-25.881
-23.521
-21.337
-19.42
-17.897
-16.925
-16.611
-17.121
-18.676
-21.297
-24.902
-29.272
-33.885
-38.302
-42.184
-44.97
-46.226
-45.98
-44.503
-42.576
-41.429
-41.806
-44.226
-49.407
-57.425
-67.514
-78.23
-87.074
-91.062
-87.821
-75.102
-50.405
-12.125
39.979
104.791
179.607
260.682
344.042
425.271
498.533
557.717
598.403
617.166
613.203
589.205
546.192
484.881
406.426
309.796
201.771
95.995
6.095
-52.773
-78.24
-80.595
-69.983
-59.025
-52.499
-46.178
-39.636
-32.415
-25.258
-22.412
-24.765
-30.803
-39.39
-48.278
-55.209
-59.503
-60.798
-58.893
-54.425
-48.171
-40.747
-33.011
-25.857
-19.719
-14.843
-11.355
-9.107
-8.008
-8.039
-9.109
-11.115
-13.967
-17.558
-21.779
-26.538
-31.685
-37.023
-42.362
-47.517
-52.358
-56.81
-60.824
-64.363
-67.392
-69.873
-71.76
-73.027
-73.669
-73.693
-73.128
-72.013
-70.409
-68.405
-66.101
-63.603
-60.986
-58.291
-55.543
-52.758
-49.951
-47.14
-44.346
-41.58
-38.848
-36.16
-33.521
-30.938
-28.406
-25.907
-23.413
-20.891
-18.323
-15.699
-13.019
-10.285
-7.501
-4.672
-1.807
1.08
3.977
6.877
9.775
12.666
15.543
18.394
21.207
23.966
26.66
29.277
31.807
34.239
36.565
38.775
40.863
42.825
44.655
46.344
47.883
49.262
50.474
51.508
52.357
53.012
53.462
53.701
53.723
53.526
53.106
52.461
51.588
50.487
49.157
47.601
45.818
43.81
41.578
39.121
36.445
33.559
30.473
27.196
23.74
20.106
16.303
12.344
8.242
4.012
-0.33
-4.768
-9.271
-13.796
-18.292
-22.706
-26.993
-31.121
-35.056
-38.76
-42.198
-45.318
-48.078
-50.451
-52.413
-53.943
-55.029
-55.657
-55.845
-55.673
-55.24
-54.649
-53.994
-53.318
-52.641
-52.015
-51.506
-51.211
-51.237
-51.655
-52.48
-53.757
-55.569
-57.883
-60.519
-63.034
-64.732
-64.949
-63.214
-59.247
-52.865
-44.231
-33.791
-22.326
-11.171
-1.652
5.272
9.226
10.542
10.481
10.806
13.612
21.787
38.269
65.749
106.096
159.503
224.515
298.683
378.657
459.836
537.013
604.284
656.032
688.535
699.601
688.293
655.38
603.285
535.807
458.618
378.047
299.443
227.701
166.816
118.99
85.109
64.667
55.239
53.57
56.502
60.573
62.906
61.916
56.689
47.134
34.186
19.119
3.355
-11.38
-23.853
-33.565
-40.343
-44.416
-46.312
-46.573
-45.878
-45.035
-44.588
-44.821
-45.861
-47.65
-50.105
-53.175
-56.749
-60.672
-64.827
-69.112
-73.443
-77.778
-82.052
-86.171
-90.038
-93.558
-96.643
-99.222
-101.248
-102.692
-103.539
-103.8
-103.495
-102.651
-101.305
-99.504
-97.292
-94.714
-91.82
-88.651
-85.254
-81.674
-77.948
-74.118
-70.219
-66.275
-62.308
-58.336
-54.376
-50.453
-46.599
-42.837
-39.186
-35.65
-32.225
-28.913
-25.712
-22.616
-19.623
-16.713
-13.863
-11.06
-8.294
-5.553
-2.814
-0.032
2.86
5.917
9.168
12.619
16.254
20.056
23.998
28.039
32.119
36.152
40.059
43.78
47.27
50.484
53.359
55.806
57.711
58.983
59.565
59.428
58.564
56.972
54.671
51.71
48.173
44.173
39.807
35.143
30.233
25.126
19.887
14.601
9.368
4.263
-0.659
-5.357
-9.799
-13.956
-17.818
-21.405
-24.764
-27.964
-31.052
-34.052
-36.975
-39.828
-42.623
-45.382
-48.126
-50.857
-53.576
-56.286
-58.987
-61.684
-64.369
-67.021
-69.604
-72.079
-74.418
-76.604
-78.627
-80.48
-82.156
-83.651
-84.966
-86.11
-87.087
-87.902
-88.556
-89.049
-89.384
-89.571
-89.622
-89.547
-89.358
-89.063
-88.671
-88.191
-87.633
-87.002
-86.305
-85.545
-84.73
-83.868
-82.966
-82.034
-81.081
-80.116
-79.149
-78.188
-77.242
-76.32
-75.429
-74.577
-73.769
-73.014
-72.318
-71.687
-71.128
-70.647
-70.25
-69.942
-69.729
-69.616
-69.606
-69.704
-69.913
-70.237
-70.677
-71.236
-71.915
-72.714
-73.633
-74.672
-75.828
-77.1
-78.484
-79.976
-81.574
-83.272
-85.066
-86.95
-88.918
-90.964
-93.081
-95.262
-97.499
-99.784
-102.108
-104.464
-106.841
-109.231
-111.624
-114.01
-116.38
-118.724
-121.03
-123.288
-125.488
-127.62
-129.673
-131.64
-133.51
-135.276
-136.931
-138.469
-139.884
-141.171
-142.326
-143.344
-144.221
-144.955
-145.543
-145.984
-146.276
-146.422
-146.424
-146.288
-146.018
-145.622
-145.106
-144.479
-143.747
-142.919
-141.999
-140.996
-139.915
-138.766
-137.563
-136.316
-135.035
-133.731
-132.414
-131.091
-129.772
-128.461
-127.157
-125.862
-124.584
-123.333
-122.131
-120.997
-119.941
-118.975
-118.105
-117.332
-116.659
-116.077
-115.563
-115.095
-114.653
-114.218
-113.784
-113.332
-112.824
-112.213
-111.444
-110.465
-109.246
-107.766
-106.009
-103.973
-101.673
-99.137
-96.411
-93.56
-90.658
-87.785
-85.041
-82.552
-80.44
-78.895
-78.177
-78.386
-79.451
-81.141
-83.008
-84.638
-85.8
-86.082
-84.91
-82.225
-78.412
-74.384
-71.705
-71.556
-74.427
-80.985
-91.914
-106.777
-124.192
-141.546
-154.899
-160.956
-157.334
-141.345
-110.417
-63.595
-1.505
73.112
155.537
241.372
326.267
404.745
470.935
520.085
549.037
556.869
544.361
512.222
462.323
398.594
326.141
250.206
175.282
104.494
40.561
-13.221
-54.972
-84.773
-103.868
-114.386
-118.358
-117.197
-112.849
-108.202
-105.164
-104.511
-106.394
-110.124
-115.034
-120.84
-126.732
-131.331
-133.859
-134.016
-131.805
-127.778
-122.414
-116.011
-109.134
-102.459
-96.397
-91.199
-86.936
-83.484
-80.801
-78.873
-77.603
-76.883
-76.614
-76.739
-77.278
-78.242
-79.591
-81.239
-83.064
-84.975
-86.927
-88.861
-90.719
-92.426
-93.886
-95.05
-95.911
-96.451
-96.658
-96.497
-95.901
-94.842
-93.321
-91.35
-88.963
-86.182
-83.007
-79.468
-75.609
-71.487
-67.174
-62.715
-58.124
-53.422
-48.632
-43.78
-38.909
-34.042
-29.181
-24.333
-19.503
-14.698
-9.932
-5.206
-0.503
4.193
8.902
13.635
18.388
23.16
27.946
32.744
37.546
42.343
47.115
51.845
56.523
61.136
65.675
70.127
74.473
78.696
82.779
86.707
90.465
94.042
97.424
100.602
103.565
106.309
108.827
111.115
113.17
114.986
116.559
117.888
118.972
119.811
120.406
120.756
120.864
120.733
120.367
119.772
118.954
117.918
116.672
115.225
113.588
111.771
109.784
107.632
105.324
102.867
100.269
97.537
94.679
91.701
88.612
85.426
82.159
78.83
75.449
72.015
68.526
64.982
61.386
57.742
54.046
50.296
46.496
42.666
38.833
35.02
31.232
27.463
23.7
19.936
16.178
12.456
8.801
5.248
1.842
-1.365
-4.303
-6.901
-9.119
-10.948
-12.4
-13.477
-14.144
-14.353
-14.064
-13.246
-11.905
-10.08
-7.811
-5.165
-2.241
0.868
4.019
7.045
9.825
12.248
14.244
15.758
16.65
16.711
15.846
14.115
11.757
9.242
6.995
5.287
4.482
5.087
7.39
11.31
16.273
21.108
24.691
26.529
26.36
23.793
18.927
12.649
6.695
3.908
7.358
19.128
40.727
74.227
121.26
181.787
254.644
335.838
418.91
500.416
578.147
650.968
721.375
785.819
836.41
863.299
852.049
798.993
710.161
599.249
489.908
397.339
329.258
285.78
255.356
229.83
203.658
175.049
149.61
130.392
118.12
111.188
104.446
95.138
82.748
67.587
51.387
35.239
19.661
5.818
-5.379
-13.535
-18.498
-20.631
-20.569
-18.813
-15.938
-12.688
-9.617
-7.098
-5.389
-4.517
-4.457
-5.201
-6.656
-8.698
-11.224
-14.134
-17.329
-20.741
-24.27
-27.793
-31.195
-34.349
-37.141
-39.468
-41.227
-42.351
-42.804
-42.582
-41.705
-40.203
-38.11
-35.474
-32.354
-28.809
-24.899
-20.68
-16.205
-11.531
-6.718
-1.822
3.1
8.008
12.872
17.669
22.384
27.009
31.535
35.961
40.29
44.521
48.652
52.678
56.592
60.388
64.059
67.598
70.999
74.256
77.36
80.304
83.079
85.674
88.084
90.299
92.313
94.114
95.689
97.025
98.116
98.964
99.577
99.961
100.12
100.06
99.789
99.324
98.673
97.833
96.792
95.533
94.05
92.35
90.45
88.368
86.108
83.665
81.027
78.197
75.174
71.957
68.527
64.858
60.946
56.823
52.546
48.177
43.754
39.303
34.836
30.369
25.936
21.574
17.318
13.188
9.21
5.42
1.881
-1.34
-4.209
-6.736
-8.97
-10.958
-12.722
-14.271
-15.612
-16.758
-17.735
-18.56
-19.24
-19.776
-20.176
-20.469
-20.704
-20.938
-21.196
-21.472
-21.734
-21.954
-22.122
-22.235
-22.29
-22.277
-22.184
-22.015
-21.784
-21.51
-21.203
-20.858
-20.459
-19.99
-19.449
-18.847
-18.206
-17.541
-16.866
-16.191
-15.527
-14.894
-14.304
-13.766
-13.275
-12.831
-12.438
-12.103
-11.838
-11.652
-11.548
-11.53
-11.6
-11.761
-12.015
-12.365
-12.811
-13.354
-13.996
-14.74
-15.591
-16.552
-17.621
-18.797
-20.076
-21.462
-22.963
-24.581
-26.321
-28.186
-30.175
-32.287
-34.513
-36.829
-39.203
-41.6
-43.983
-46.321
-48.589
-50.761
-52.808
-54.698
-56.384
-57.831
-59.008
-59.884
-60.437
-60.655
-60.552
-60.19
-59.662
-59.069
-58.503
-58.026
-57.706
-57.63
-57.878
-58.566
-59.801
-61.636
-64.169
-67.527
-71.702
-76.593
-81.913
-87.096
-91.616
-95.036
-96.808
-96.545
-94.202
-89.966
-84.589
-79.273
-74.954
-72.468
-72.627
-75.552
-80.627
-86.625
-91.162
-91.228
-84.154
-67.156
-37.655
5.495
62.165
130.955
208.556
290.594
372.022
446.535
507.854
550.906
573.094
574.822
555.78
515.713
453.961
368.081
265.22
159.252
63.785
-4.268
-40.912
-55.839
-57.558
-57.29
-60.119
-60.865
-57.912
-51.822
-43.998
-39.106
-39.318
-43.823
-51.467
-60.742
-70.111
-78.269
-84.451
-88.211
-89.507
-88.95
-87.185
-84.696
-82.116
-80.081
-78.926
-78.855
-79.913
-81.906
-84.69
-88.158
-92.13
-96.435
-100.934
-105.49
-109.993
-114.361
-118.475
-122.205
-125.458
-128.164
-130.284
-131.81
-132.736
-133.064
-132.815
-132.022
-130.725
-128.958
-126.76
-124.167
-121.222
-117.977
-114.486
-110.803
-106.968
-103.011
-98.951
-94.802
-90.571
-86.262
-81.875
-77.407
-72.857
-68.229
-63.529
-58.766
-53.945
-49.071
-44.149
-39.185
-34.186
-29.164
-24.128
-19.092
-14.069
-9.074
-4.124
0.764
5.573
10.291
14.902
19.394
23.755
27.97
32.03
35.921
39.631
43.15
46.464
49.563
52.436
55.073
57.466
59.606
61.488
63.104
64.452
65.527
66.328
66.853
67.101
67.075
66.777
66.21
65.38
64.294
62.96
61.387
59.587
57.571
55.351
52.94
50.354
47.606
44.71
41.682
38.538
35.291
31.959
28.556
25.1
21.606
18.088
14.563
11.046
7.55
4.089
0.676
-2.677
-5.96
-9.161
-12.272
-15.284
-18.189
-20.981
-23.655
-26.208
-28.636
-30.939
-33.118
-35.174
-37.11
-38.93
-40.638
-42.238
-43.736
-45.138
-46.449
-47.674
-48.82
-49.892
-50.897
-51.839
-52.724
-53.558
-54.346
-55.095
-55.81
-56.497
-57.161
-57.806
-58.439
-59.063
-59.682
-60.297
-60.908
-61.515
-62.121
-62.727
-63.332
-63.935
-64.533
-65.126
-65.714
-66.296
-66.867
-67.417
-67.936
-68.419
-68.87
-69.299
-69.71
-70.109
-70.499
-70.891
-71.299
-71.731
-72.185
-72.646
-73.096
-73.529
-73.953
-74.384
-74.838
-75.321
-75.822
-76.331
-76.842
-77.354
-77.855
-78.319
-78.713
-79.023
-79.274
-79.518
-79.807
-80.172
-80.627
-81.172
-81.815
-82.573
-83.466
-84.51
-85.711
-87.084
-88.664
-90.51
-92.683
-95.209
-98.066
-101.184
-104.498
-107.957
-111.509
-115.11
-118.708
-122.242
-125.671
-128.965
-132.087
-134.985
-137.579
-139.762
-141.448
-142.579
-143.143
-143.191
-142.776
-141.96
-140.832
-139.457
-137.919
-136.332
-134.775
-133.329
-132.105
-131.175
-130.68
-130.857
-131.772
-133.366
-135.445
-137.514
-139.155
-140.144
-140.053
-138.391
-135.111
-130.353
-124.752
-119.693
-116.099
-114.361
-115.101
-118.685
-124.65
-132.13
-139.232
-142.668
-139.86
-129.085
-107.896
-74.117
-27.175
33.015
103.605
177.806
252.104
324.528
393.167
460.401
521.061
564.115
582.044
563.09
505.675
420.227
313.296
201.476
100.921
17.43
-37.628
-64.295
-73.458
-70.561
-65.881
-64.883
-63.024
-59.975
-55.964
-51.517
-51.028
-56.289
-66.098
-79
-92.76
-105.207
-115.347
-122.749
-127.088
-128.531
-127.658
-125.095
-121.627
-118.163
-115.25
-113.132
-111.957
-111.67
-112.167
-113.408
-115.275
-117.6
-120.272
-123.204
-126.316
-129.577
-132.924
-136.235
-139.387
-142.249
-144.7
-146.667
-148.108
-148.985
-149.278
-148.983
-148.104
-146.664
-144.699
-142.238
-139.31
-135.946
-132.177
-128.048
-123.611
-118.918
-114.021
-108.958
-103.75
-98.42
-92.981
-87.445
-81.821
-76.11
-70.314
-64.436
-58.488
-52.481
-46.429
-40.344
-34.237
-28.12
-22.005
-15.906
-9.841
-3.826
2.12
7.977
13.727
19.347
24.816
30.114
35.222
40.123
44.802
49.244
53.434
57.36
61.01
64.373
67.439
70.198
72.642
74.764
76.56
78.026
79.16
79.964
80.437
80.585
80.411
79.923
79.129
78.037
76.66
75.009
73.098
70.941
68.553
65.953
63.158
60.187
57.058
53.791
50.407
46.925
43.366
39.75
36.097
32.426
28.758
25.111
21.503
17.952
14.475
11.088
7.805
4.64
1.604
-1.292
-4.038
-6.627
-9.051
-11.306
-13.388
-15.294
-17.022
-18.573
-19.948
-21.148
-22.177
-23.04
-23.741
-24.287
-24.685
-24.941
-25.064
-25.062
-24.945
-24.721
-24.401
-23.995
-23.512
-22.963
-22.358
-21.707
-21.019
-20.303
-19.568
-18.823
-18.075
-17.331
-16.6
-15.886
-15.196
-14.536
-13.909
-13.321
-12.775
-12.274
-11.821
-11.419
-11.069
-10.773
-10.533
-10.349
-10.224
-10.156
-10.147
-10.197
-10.305
-10.471
-10.693
-10.97
-11.302
-11.686
-12.122
-12.608
-13.141
-13.721
-14.346
-15.013
-15.721
-16.465
-17.246
-18.058
-18.9
-19.77
-20.662
-21.576
-22.507
-23.453
-24.41
-25.375
-26.343
-27.311
-28.274
-29.228
-30.169
-31.091
-31.989
-32.86
-33.698
-34.5
-35.26
-35.974
-36.638
-37.247
-37.799
-38.287
-38.711
-39.065
-39.348
-39.556
-39.69
-39.747
-39.729
-39.635
-39.466
-39.224
-38.912
-38.533
-38.091
-37.59
-37.034
-36.43
-35.783
-35.099
-34.387
-33.658
-32.92
-32.186
-31.467
-30.775
-30.123
-29.524
-28.989
-28.528
-28.149
-27.86
-27.671
-27.591
-27.631
-27.803
-28.109
-28.554
-29.145
-29.883
-30.772
-31.813
-32.996
-34.315
-35.77
-37.363
-39.105
-41.005
-43.053
-45.247
-47.575
-50.015
-52.564
-55.196
-57.873
-60.569
-63.219
-65.759
-68.165
-70.392
-72.393
-74.154
-75.549
-76.455
-76.967
-77.126
-77
-76.738
-76.199
-75.234
-74.057
-72.844
-71.419
-69.726
-67.505
-64.419
-61.038
-57.993
-55.401
-53.439
-52.477
-52.727
-54.718
-58.946
-64.527
-70.294
-75.488
-79.291
-81.091
-80.549
-77.217
-70.769
-62.064
-52.429
-42.985
-34.963
-28.959
-24.738
-21.486
-18.04
-12.65
-2.916
13.89
41.035
81.062
133.478
195.002
262.242
332.84
408.31
491.846
580.237
663.203
723.159
742.058
712.721
640.968
544.103
440.817
343.7
257.523
179.855
109.826
49.497
1.698
-29.705
-44.051
-44.648
-35.56
-21.391
-6.966
4.829
12.437
14.776
11.985
5.079
-4.766
-15.857
-26.028
-34.063
-39.549
-42.365
-43.035
-42.222
-40.425
-38.391
-36.993
-36.683
-37.64
-39.878
-43.14
-47.217
-51.987
-57.225
-62.708
-68.263
-73.712
-78.922
-83.789
-88.176
-91.966
-95.079
-97.447
-99.044
-99.868
-99.923
-99.24
-97.864
-95.836
-93.203
-90.01
-86.295
-82.117
-77.537
-72.622
-67.441
-62.05
-56.489
-50.798
-45.004
-39.125
-33.177
-27.165
-21.087
-14.953
-8.77
-2.549
3.694
9.949
16.21
22.465
28.706
34.921
41.097
47.222
53.281
59.257
65.134
70.895
76.521
81.997
87.312
92.454
97.41
102.172
106.729
111.07
115.185
119.06
122.684
126.045
129.133
131.938
134.452
136.668
138.578
140.181
141.47
142.441
143.086
143.393
143.354
142.969
142.241
141.179
139.801
138.121
136.153
133.921
131.444
128.73
125.786
122.601
119.165
115.481
111.557
107.416
103.08
98.556
93.849
88.962
83.883
78.608
73.126
67.409
61.444
55.247
48.851
42.322
35.741
29.167
22.648
16.221
9.914
3.775
-2.15
-7.822
-13.189
-18.195
-22.781
-26.856
-30.353
-33.245
-35.529
-37.247
-38.465
-39.228
-39.569
-39.525
-39.116
-38.375
-37.336
-36.015
-34.437
-32.641
-30.674
-28.613
-26.523
-24.437
-22.372
-20.319
-18.247
-16.144
-14.009
-11.831
-9.619
-7.38
-5.124
-2.878
-0.67
1.485
3.578
5.611
7.589
9.497
11.314
13.011
14.55
15.903
17.046
17.958
18.622
19.03
19.167
19.026
18.606
17.903
16.911
15.625
14.045
12.186
10.075
7.756
5.273
2.67
-0.016
-2.75
-5.495
-8.208
-10.834
-13.318
-15.612
-17.668
-19.448
-20.91
-22.034
-22.847
-23.404
-23.797
-24.112
-24.398
-24.717
-25.149
-25.781
-26.741
-28.17
-30.149
-32.798
-36.28
-40.588
-45.634
-51.165
-56.61
-61.433
-65.178
-67.252
-67.234
-65.201
-61.476
-56.847
-52.621
-49.736
-48.969
-51.289
-56.879
-64.848
-73.562
-80.375
-82.056
-75.917
-59.324
-29.398
15.407
74.825
147.045
228.574
314.879
401.156
481.956
551.027
602.918
634.073
642.576
628.05
591.792
536.556
466.466
387.213
304.948
224.704
150.932
87.768
37.652
1.372
-21.473
-32.883
-35.733
-32.406
-25.627
-18.707
-13.714
-11.665
-13.002
-17.104
-22.972
-29.95
-36.988
-42.592
-46.031
-47.087
-45.816
-42.86
-38.87
-34.289
-29.733
-25.888
-23.124
-21.626
-21.437
-22.363
-24.249
-26.991
-30.406
-34.311
-38.547
-42.959
-47.417
-51.81
-55.997
-59.825
-63.18
-65.978
-68.171
-69.741
-70.678
-70.989
-70.699
-69.85
-68.488
-66.651
-64.38
-61.712
-58.698
-55.394
-51.859
-48.155
-44.327
-40.407
-36.422
-32.385
-28.307
-24.192
-20.04
-15.844
-11.602
-7.317
-2.996
1.353
5.725
10.115
14.518
18.928
23.336
27.732
32.105
36.442
40.728
44.947
49.083
53.117
57.034
60.82
64.462
67.948
71.267
74.409
77.363
80.122
82.678
85.023
87.152
89.057
90.734
92.18
93.392
94.367
95.106
95.608
95.874
95.904
95.702
95.271
94.615
93.739
92.651
91.357
89.865
88.185
86.325
84.296
82.108
79.772
77.297
74.691
71.966
69.13
66.192
63.161
60.045
56.85
53.585
50.259
46.877
43.448
39.976
36.465
32.92
29.346
25.748
22.126
18.483
14.819
11.138
7.446
3.747
0.045
-3.66
-7.373
-11.096
-14.827
-18.562
-22.296
-26.021
-29.728
-33.394
-36.982
-40.449
-43.752
-46.857
-49.737
-52.359
-54.692
-56.697
-58.326
-59.543
-60.321
-60.641
-60.488
-59.862
-58.775
-57.273
-55.457
-53.45
-51.375
-49.347
-47.445
-45.728
-44.287
-43.22
-42.625
-42.61
-43.245
-44.54
-46.563
-49.391
-52.924
-56.938
-60.98
-64.335
-66.413
-66.731
-64.689
-59.842
-52.152
-41.768
-29.437
-16.434
-3.661
7.988
17.505
24.727
30.353
35.406
41.959
52.954
70.951
98.973
140.485
195.457
260.569
333.167
409.523
489.929
580.386
679.806
780.66
868.149
919.491
920.095
867.296
770.371
648.301
520.635
403.755
305.98
231.116
177.887
138.731
108.307
81.06
55.193
35.434
24.082
21.856
26.522
31.986
34.91
34.504
30.88
25.399
18.777
11.077
3.282
-3.213
-7.686
-9.959
-10.374
-9.658
-8.349
-6.777
-5.489
-5.149
-6.141
-8.622
-12.526
-17.583
-23.57
-30.323
-37.63
-45.257
-52.996
-60.648
-68.041
-75.041
-81.503
-87.305
-92.369
-96.637
-100.082
-102.704
-104.52
-105.572
-105.921
-105.628
-104.752
-103.349
-101.475
-99.198
-96.591
-93.725
-90.67
-87.476
-84.183
-80.821
-77.413
-73.973
-70.51
-67.022
-63.504
-59.959
-56.393
-52.812
-49.227
-45.644
-42.068
-38.506
-34.964
-31.452
-27.98
-24.56
-21.202
-17.923
-14.736
-11.658
-8.705
-5.893
-3.233
-0.738
1.583
3.719
5.66
7.398
8.924
10.233
11.314
12.163
12.774
13.14
13.259
13.129
12.748
12.116
11.234
10.104
8.73
7.115
5.266
3.187
0.887
-1.625
-4.341
-7.25
-10.339
-13.597
-17.008
-20.559
-24.234
-28.016
-31.888
-35.833
-39.833
-43.871
-47.927
-51.985
-56.026
-60.032
-63.986
-67.871
-71.671
-75.369
-78.951
-82.403
-85.712
-88.865
-91.853
-94.665
-97.292
-99.728
-101.965
-104
-105.827
-107.445
-108.853
-110.05
-111.039
-111.821
-112.402
-112.785
-112.98
-112.991
-112.829
-112.502
-112.021
-111.397
-110.641
-109.766
-108.782
-107.704
-106.544
-105.314
-104.027
-102.697
-101.335
-99.955
-98.568
-97.186
-95.82
-94.481
-93.181
-91.929
-90.736
-89.609
-88.558
-87.59
-86.712
-85.932
-85.254
-84.684
-84.226
-83.883
-83.659
-83.554
-83.571
-83.71
-83.971
-84.354
-84.857
-85.48
-86.218
-87.071
-88.035
-89.106
-90.28
-91.553
-92.921
-94.377
-95.916
-97.532
-99.219
-100.97
-102.778
-104.636
-106.535
-108.469
-110.429
-112.406
-114.393
-116.381
-118.361
-120.325
-122.264
-124.169
-126.032
-127.845
-129.599
-131.286
-132.898
-134.427
-135.864
-137.203
-138.437
-139.558
-140.56
-141.438
-142.185
-142.796
-143.269
-143.598
-143.781
-143.817
-143.705
-143.445
-143.036
-142.482
-141.785
-140.947
-139.974
-138.871
-137.645
-136.305
-134.86
-133.321
-131.701
-130.012
-128.267
-126.481
-124.666
-122.835
-121
-119.174
-117.37
-115.604
-113.892
-112.249
-110.693
-109.238
-107.898
-106.687
-105.614
-104.685
-103.906
-103.282
-102.826
-102.555
-102.485
-102.627
-102.992
-103.583
-104.4
-105.428
-106.648
-108.024
-109.522
-111.109
-112.758
-114.447
-116.156
-117.851
-119.487
-121.008
-122.359
-123.493
-124.373
-124.968
-125.269
-125.304
-125.124
-124.82
-124.474
-124.132
-123.858
-123.722
-123.801
-124.215
-125.092
-126.53
-128.682
-131.722
-135.652
-140.359
-145.553
-150.709
-155.389
-159.239
-161.765
-162.575
-161.674
-159.424
-156.665
-154.496
-153.548
-154.123
-156.633
-161.196
-167.207
-173.191
-176.723
-175.238
-166.782
-149.789
-122.525
-83.407
-31.967
30.623
101.705
178.113
256.627
333.926
405.318
464.949
508.351
532.432
537.123
525.441
497.609
452.82
390.288
306.555
208.022
109.276
24.028
-30.574
-51.489
-51.339
-41.743
-36.898
-42.18
-50.712
-58.833
-64.352
-67.316
-72.282
-80.622
-90.846
-101.537
-110.592
-116.928
-120.623
-121.636
-120.066
-116.382
-111.299
-105.682
-100.413
-96.007
-92.666
-90.51
-89.551
-89.783
-91.159
-93.533
-96.714
-100.537
-104.87
-109.6
-114.629
-119.819
-125.003
-130.008
-134.663
-138.85
-142.502
-145.569
-148.027
-149.856
-151.049
-151.626
-151.626
-151.088
-150.047
-148.539
-146.596
-144.262
-141.592
-138.642
-135.468
-132.105
-128.572
-124.881
-121.035
-117.037
-112.884
-108.567
-104.072
-99.393
-94.525
-89.469
-84.231
-78.81
-73.208
-67.426
-61.468
-55.341
-49.055
-42.623
-36.059
-29.378
-22.6
-15.744
-8.833
-1.887
5.071
12.024
18.95
25.828
32.638
39.358
45.967
52.444
58.767
64.915
70.866
76.6
82.098
87.341
92.315
97.001
101.387
105.46
109.209
112.623
115.696
118.419
120.79
122.805
124.464
125.766
126.714
127.314
127.569
127.488
127.078
126.349
125.312
123.975
122.353
120.457
118.301
115.899
113.266
110.416
107.366
104.132
100.733
97.184
93.503
89.705
85.807
81.826
77.778
73.676
69.533
65.36
61.17
56.978
52.798
48.644
44.524
40.446
36.418
32.448
28.55
24.731
21
17.367
13.85
10.479
7.29
4.321
1.602
-0.841
-2.982
-4.792
-6.242
-7.299
-7.935
-8.134
-7.887
-7.179
-6.007
-4.374
-2.305
0.123
2.81
5.656
8.561
11.445
14.258
16.918
19.334
21.422
23.069
24.197
24.778
24.721
23.921
22.407
20.319
18.049
16.278
15.612
16.564
19.693
25.348
33.544
44.042
55.922
67.711
78.132
85.993
90.338
91.168
89.298
86.183
84.587
87.999
99.647
122.938
160.646
213.541
280.906
360.652
448.437
538.777
625.895
702.896
763.235
802.527
817.786
807.724
773.837
719.103
647.588
565.475
479.414
394.949
317.298
250.464
196.218
155.27
127.201
109.67
99.713
94.488
90.743
85.969
78.982
69.062
56.175
41.209
25.246
9.544
-4.281
-15.171
-22.768
-26.984
-28.151
-26.845
-23.623
-19.223
-14.537
-10.198
-6.59
-3.928
-2.206
-1.395
-1.481
-2.373
-3.93
-6.024
-8.533
-11.35
-14.392
-17.557
-20.714
-23.717
-26.42
-28.686
-30.393
-31.461
-31.847
-31.527
-30.509
-28.818
-26.484
-23.562
-20.117
-16.211
-11.911
-7.281
-2.382
2.715
7.934
13.202
18.45
23.623
28.687
33.61
38.369
42.95
47.339
51.531
55.528
59.327
62.921
66.304
69.467
72.407
75.122
77.61
79.872
81.905
83.706
85.272
86.601
87.691
88.537
89.138
89.489
89.591
89.445
89.056
88.428
87.568
86.483
85.181
83.671
81.964
80.068
77.995
75.753
73.353
70.808
68.129
65.328
62.416
59.407
56.312
53.144
49.913
46.633
43.314
39.968
36.606
33.239
29.879
26.536
23.223
19.95
16.728
13.568
10.48
7.473
4.557
1.739
-0.974
-3.573
-6.055
-8.413
-10.643
-12.742
-14.707
-16.536
-18.227
-19.782
-21.2
-22.482
-23.632
-24.651
-25.544
-26.313
-26.962
-27.497
-27.922
-28.242
-28.464
-28.593
-28.638
-28.605
-28.504
-28.344
-28.133
-27.881
-27.598
-27.295
-26.98
-26.665
-26.359
-26.072
-25.813
-25.592
-25.418
-25.298
-25.241
-25.253
-25.341
-25.51
-25.764
-26.107
-26.542
-27.071
-27.697
-28.421
-29.243
-30.165
-31.185
-32.303
-33.518
-34.827
-36.228
-37.716
-39.289
-40.941
-42.666
-44.459
-46.312
-48.219
-50.172
-52.163
-54.183
-56.224
-58.276
-60.331
-62.38
-64.414
-66.425
-68.405
-70.346
-72.243
-74.088
-75.876
-77.602
-79.262
-80.851
-82.366
-83.804
-85.162
-86.438
-87.63
-88.737
-89.757
-90.69
-91.535
-92.293
-92.965
-93.551
-94.053
-94.474
-94.817
-95.086
-95.283
-95.414
-95.482
-95.494
-95.453
-95.365
-95.236
-95.069
-94.87
-94.643
-94.394
-94.125
-93.841
-93.544
-93.238
-92.925
-92.608
-92.287
-91.966
-91.646
-91.329
-91.019
-90.716
-90.424
-90.146
-89.883
-89.638
-89.415
-89.215
-89.041
-88.895
-88.778
-88.693
-88.642
-88.626
-88.649
-88.713
-88.823
-88.984
-89.198
-89.472
-89.808
-90.211
-90.683
-91.227
-91.843
-92.533
-93.297
-94.14
-95.066
-96.076
-97.171
-98.353
-99.62
-100.969
-102.397
-103.892
-105.446
-107.055
-108.717
-110.436
-112.221
-114.071
-115.984
-117.958
-119.973
-122.014
-124.052
-126.044
-127.953
-129.74
-131.367
-132.811
-134.042
-135.016
-135.689
-136.002
-135.9
-135.347
-134.31
-132.768
-130.746
-128.279
-125.432
-122.307
-118.979
-115.538
-112.101
-108.76
-105.644
-102.909
-100.658
-99.055
-98.305
-98.425
-99.344
-100.858
-102.482
-103.81
-104.516
-104.053
-102
-98.382
-93.448
-87.921
-82.956
-79.257
-77.365
-78.038
-81.427
-86.822
-92.847
-97.149
-96.885
-89.757
-73.53
-45.683
-4.654
49.67
116.016
191.544
272.407
354.45
432.828
501.626
555.256
589.65
602.185
591.894
559.535
507.21
438.542
359.223
275.752
193.87
118.803
54.726
4.05
-32.133
-54.158
-64.347
-66.031
-62.473
-57.174
-53.048
-51.714
-54.118
-60.425
-69.733
-80.752
-92.068
-101.989
-109.344
-113.759
-115.15
-113.822
-110.413
-105.549
-99.992
-94.65
-90.087
-86.555
-84.171
-82.849
-82.484
-83.033
-84.366
-86.292
-88.676
-91.378
-94.284
-97.329
-100.397
-103.343
-106.026
-108.295
-110.057
-111.267
-111.899
-111.945
-111.413
-110.314
-108.682
-106.572
-104.031
-101.107
-97.851
-94.305
-90.525
-86.576
-82.519
-78.42
-74.324
-70.256
-66.237
-62.277
-58.381
-54.552
-50.785
-47.068
-43.395
-39.763
-36.168
-32.612
-29.092
-25.601
-22.133
-18.684
-15.247
-11.823
-8.41
-5.007
-1.615
1.765
5.13
8.475
11.799
15.1
18.378
21.632
24.863
28.07
31.252
34.408
37.538
40.638
43.705
46.735
49.722
52.662
55.55
58.378
61.141
63.833
66.447
68.977
71.414
73.752
75.984
78.102
80.1
81.97
83.702
85.292
86.738
88.034
89.177
90.161
90.976
91.625
92.114
92.422
92.537
92.446
92.133
91.611
90.909
90.005
88.879
87.589
86.18
84.69
83.174
81.598
79.888
78.097
76.318
74.342
71.924
69.227
66.248
62.95
59.9
55.615
48.657
41.112
33.623
30.014
34.862
43.128
51.457
54.85
46.431
32.305
17.648
6.01
3.25
5.199
7.629
9.609
8.564
6.002
3.858
1.772
-0.005
-1.597
-3.39
-5.126
-6.598
-7.873
-8.965
-9.851
-10.539
-11.046
-11.383
-11.592
-11.722
-11.76
-11.695
-11.54
-11.3
-10.983
-10.601
-10.157
-9.655
-9.107
-8.525
-7.917
-7.294
-6.664
-6.035
-5.415
-4.812
-4.233
-3.686
-3.176
-2.709
-2.291
-1.926
-1.617
-1.369
-1.181
-1.056
-0.994
-0.993
-1.052
-1.169
-1.341
-1.565
-1.839
-2.16
-2.525
-2.933
-3.381
-3.866
-4.386
-4.939
-5.52
-6.125
-6.748
-7.385
-8.032
-8.686
-9.346
-10.013
-10.686
-11.366
-12.058
-12.762
-13.478
-14.204
-14.934
-15.662
-16.393
-17.136
-17.903
-18.717
-19.595
-20.556
-21.621
-22.802
-24.105
-25.527
-27.051
-28.666
-30.368
-32.157
-34.047
-36.052
-38.161
-40.359
-42.612
-44.854
-47.023
-49.049
-50.845
-52.352
-53.531
-54.36
-54.849
-55.017
-54.858
-54.371
-53.543
-52.351
-50.813
-48.959
-46.853
-44.645
-42.485
-40.54
-38.993
-37.961
-37.547
-37.86
-38.951
-40.878
-43.701
-47.41
-52.06
-57.763
-64.443
-71.915
-79.783
-87.304
-93.842
-98.894
-101.823
-102.178
-99.895
-95.131
-88.709
-81.986
-75.957
-71.427
-69.104
-68.935
-70.211
-71.662
-70.802
-64.591
-50.372
-25.495
12.213
63.596
128.359
204.926
289.79
378.37
465.541
545.357
611.955
660.375
686.761
688.674
665.728
619.419
553.033
471.577
381.048
287.808
197.939
117.129
49.995
-0.842
-34.72
-52.615
-56.903
-50.867
-38.018
-22.407
-7.992
2.747
8.577
9.203
5.294
-2.043
-11.628
-21.761
-30.634
-37.323
-41.505
-43.304
-43.322
-42.159
-40.324
-38.514
-37.425
-37.393
-38.539
-40.791
-43.892
-47.657
-51.931
-56.512
-61.203
-65.843
-70.296
-74.458
-78.248
-81.557
-84.294
-86.399
-87.833
-88.59
-88.68
-88.124
-86.96
-85.239
-83.016
-80.342
-77.265
-73.833
-70.1
-66.125
-61.97
-57.697
-53.355
-48.982
-44.61
-40.26
-35.947
-31.683
-27.47
-23.305
-19.19
-15.131
-11.132
-7.202
-3.345
0.438
4.143
7.769
11.312
14.768
18.133
21.402
24.567
27.623
30.561
33.372
36.051
38.592
40.992
43.245
45.349
47.299
49.093
50.725
52.193
53.492
54.617
55.563
56.328
56.907
57.298
57.498
57.504
57.314
56.927
56.339
55.55
54.558
53.363
51.965
50.367
48.57
46.578
44.397
42.033
39.495
36.79
33.926
30.914
27.764
24.484
21.086
17.579
13.973
10.282
6.519
2.698
-1.165
-5.052
-8.948
-12.836
-16.699
-20.524
-24.296
-28.006
-31.645
-35.204
-38.672
-42.034
-45.275
-48.381
-51.345
-54.161
-56.827
-59.346
-61.729
-63.997
-66.176
-68.283
-70.328
-72.314
-74.227
-76.06
-77.805
-79.448
-80.998
-82.456
-83.818
-85.089
-86.269
-87.34
-88.274
-89.009
-89.456
-89.55
-89.244
-88.5
-87.325
-85.724
-83.708
-81.313
-78.55
-75.421
-71.948
-68.133
-63.977
-59.527
-54.84
-50.032
-45.309
-40.843
-36.787
-33.277
-30.36
-28.095
-26.56
-25.785
-25.835
-26.796
-28.664
-31.507
-35.454
-40.408
-46.165
-52.327
-58.129
-62.921
-66.225
-67.41
-66.036
-62.146
-56.003
-48.388
-40.613
-33.564
-27.929
-24.569
-23.629
-24.309
-25.169
-23.868
-17.494
-3.661
19.94
55.897
105.64
168.912
244.071
327.97
416.36
504.696
587.781
659.326
713.664
746.908
756.606
741.982
704.113
645.408
569.826
483.473
393.025
304.294
222.679
152.473
96.095
54.66
27.775
12.978
6.93
6.333
7.534
7.541
4.728
-1.855
-12.302
-25.632
-40.538
-55.548
-68.843
-79.159
-86.046
-89.39
-89.523
-87.098
-82.741
-77.237
-71.541
-66.305
-61.902
-58.532
-56.165
-54.739
-54.231
-54.538
-55.503
-57.003
-58.908
-61.107
-63.53
-66.077
-68.63
-71.061
-73.235
-75.031
-76.346
-77.115
-77.302
-76.892
-75.892
-74.324
-72.222
-69.634
-66.624
-63.255
-59.584
-55.672
-51.573
-47.348
-43.062
-38.774
-34.539
-30.394
-26.363
-22.462
-18.7
-15.081
-11.605
-8.265
-5.049
-1.949
1.038
3.917
6.69
9.36
11.934
14.416
16.813
19.125
21.353
23.498
25.557
27.531
29.415
31.206
32.9
34.491
35.98
37.363
38.64
39.809
40.865
41.808
42.633
43.337
43.916
44.365
44.677
44.85
44.879
44.759
44.488
44.063
43.48
42.74
41.839
40.779
39.559
38.181
36.647
34.96
33.125
31.145
29.029
26.78
24.408
21.919
19.321
16.624
13.836
10.967
8.029
5.03
1.984
-1.098
-4.204
-7.321
-10.435
-13.533
-16.602
-19.63
-22.602
-25.508
-28.334
-31.07
-33.706
-36.23
-38.636
-40.913
-43.057
-45.06
-46.917
-48.626
-50.182
-51.585
-52.834
-53.928
-54.869
-55.657
-56.296
-56.787
-57.134
-57.343
-57.417
-57.362
-57.186
-56.894
-56.496
-55.999
-55.412
-54.745
-54.006
-53.206
-52.355
-51.462
-50.536
-49.588
-48.627
-47.662
-46.702
-45.755
-44.828
-43.929
-43.065
-42.242
-41.466
-40.743
-40.076
-39.47
-38.929
-38.457
-38.057
-37.732
-37.483
-37.312
-37.221
-37.209
-37.277
-37.424
-37.649
-37.949
-38.321
-38.764
-39.272
-39.843
-40.471
-41.152
-41.882
-42.656
-43.468
-44.315
-45.19
-46.09
-47.01
-47.944
-48.887
-49.833
-50.778
-51.716
-52.642
-53.551
-54.437
-55.296
-56.122
-56.91
-57.655
-58.353
-58.999
-59.589
-60.119
-60.586
-60.988
-61.323
-61.589
-61.786
-61.913
-61.972
-61.963
-61.887
-61.745
-61.538
-61.268
-60.936
-60.546
-60.1
-59.601
-59.053
-58.462
-57.835
-57.178
-56.499
-55.808
-55.111
-54.419
-53.739
-53.079
-52.444
-51.842
-51.279
-50.761
-50.298
-49.895
-49.561
-49.304
-49.13
-49.046
-49.055
-49.153
-49.338
-49.609
-49.966
-50.418
-50.971
-51.628
-52.396
-53.277
-54.268
-55.361
-56.525
-57.716
-58.89
-59.998
-60.999
-61.865
-62.562
-63.052
-63.298
-63.254
-62.883
-62.158
-61.046
-59.52
-57.573
-55.23
-52.578
-49.746
-46.865
-44.053
-41.398
-38.991
-36.945
-35.374
-34.403
-34.137
-34.625
-35.956
-38.279
-41.599
-45.763
-50.401
-54.808
-58.299
-60.344
-60.346
-57.834
-52.748
-45.384
-36.672
-28.185
-21.311
-17.089
-16.279
-18.832
-23.813
-29.528
-33.097
-30.661
-18.265
7.744
50.045
108.109
178.606
257.828
341.83
430.344
524.946
621.133
708.285
768.458
782.897
745.13
663.02
556.145
446.183
347.038
262.775
190.414
128.063
76.727
38.577
16.317
8.637
10.953
18.904
27.827
34.081
36.046
32.67
23.662
10.224
-5.914
-22.927
-38.67
-51.688
-61.415
-67.554
-70.29
-70.231
-68.047
-64.621
-60.972
-57.746
-55.277
-53.723
-53.004
-53.017
-53.69
-54.849
-56.307
-57.932
-59.632
-61.368
-63.142
-64.936
-66.691
-68.32
-69.726
-70.822
-71.538
-71.834
-71.716
-71.211
-70.376
-69.302
-68.065
-66.736
-65.368
-63.977
-62.56
-61.091
-59.551
-57.947
-56.293
-54.615
-52.935
-51.265
-49.597
-47.916
-46.187
-44.351
-42.361
-40.174
-37.765
-35.14
-32.326
-29.372
-26.32
-23.204
-20.049
-16.868
-13.668
-10.456
-7.236
-4.011
-0.795
2.388
5.513
8.554
11.498
14.34
17.088
19.757
22.362
24.913
27.417
29.877
32.288
34.644
36.932
39.136
41.242
43.243
45.129
46.897
48.536
50.04
51.395
52.593
53.622
54.471
55.131
55.594
55.855
55.91
55.76
55.405
54.849
54.095
53.148
52.012
50.693
49.197
47.533
45.707
43.728
41.608
39.356
36.986
34.508
31.937
29.285
26.567
23.797
20.988
18.152
15.304
12.455
9.617
6.8
4.013
1.264
-1.44
-4.092
-6.686
-9.219
-11.688
-14.091
-16.427
-18.694
-20.895
-23.031
-25.108
-27.13
-29.103
-31.032
-32.925
-34.79
-36.635
-38.471
-40.305
-42.146
-43.999
-45.874
-47.782
-49.737
-51.744
-53.81
-55.934
-58.112
-60.336
-62.598
-64.871
-67.126
-69.328
-71.434
-73.409
-75.221
-76.836
-78.219
-79.328
-80.115
-80.545
-80.593
-80.236
-79.481
-78.337
-76.823
-75.001
-72.949
-70.763
-68.573
-66.493
-64.608
-63.005
-61.732
-60.851
-60.472
-60.681
-61.562
-63.183
-65.466
-68.35
-71.831
-75.709
-79.687
-83.322
-85.817
-86.455
-84.932
-80.949
-74.316
-65.225
-53.69
-40.084
-25.63
-11.418
1.939
14.115
25.601
37.54
50.569
65.856
85.686
112.313
148.013
194.367
251.057
316.625
389.577
467.212
545.521
619.822
683.745
731.358
758.956
763.413
744.38
703.542
641.163
560.621
464.651
356.087
246.244
144.61
61.555
7.088
-23.401
-35.328
-34.849
-31.564
-25.195
-16.065
-7.513
0.364
4.547
2.631
-4.247
-15.03
-28.17
-41.296
-52.727
-61.683
-67.703
-70.891
-71.89
-71.317
-69.774
-68.081
-66.987
-66.852
-67.843
-69.902
-72.787
-76.336
-80.411
-84.827
-89.394
-93.955
-98.384
-102.591
-106.514
-110.064
-113.132
-115.614
-117.437
-118.572
-119.017
-118.793
-117.93
-116.458
-114.424
-111.882
-108.888
-105.496
-101.76
-97.728
-93.455
-89
-84.421
-79.779
-75.12
-70.473
-65.86
-61.293
-56.78
-52.328
-47.94
-43.611
-39.344
-35.142
-31.01
-26.957
-22.989
-19.108
-15.32
-11.627
-8.035
-4.551
-1.183
2.062
5.173
8.141
10.957
13.608
16.084
18.377
20.481
22.387
24.09
25.584
26.862
27.92
28.753
29.357
29.727
29.86
29.752
29.402
28.809
27.974
26.898
25.583
24.034
22.255
20.254
18.036
15.611
12.987
10.175
7.187
4.034
0.729
-2.714
-6.28
-9.954
-13.719
-17.559
-21.456
-25.393
-29.353
-33.317
-37.269
-41.19
-45.064
-48.874
-52.603
-56.235
-59.755
-63.147
-66.4
-69.5
-72.438
-75.202
-77.787
-80.184
-82.391
-84.402
-86.216
-87.833
-89.252
-90.476
-91.507
-92.349
-93.008
-93.49
-93.803
-93.954
-93.952
-93.808
-93.532
-93.134
-92.625
-92.019
-91.325
-90.557
-89.725
-88.844
-87.924
-86.977
-86.016
-85.051
-84.093
-83.152
-82.236
-81.355
-80.515
-79.722
-78.982
-78.299
-77.676
-77.117
-76.623
-76.196
-75.837
-75.545
-75.321
-75.163
-75.069
-75.038
-75.067
-75.152
-75.292
-75.482
-75.72
-76
-76.32
-76.676
-77.061
-77.473
-77.907
-78.356
-78.817
-79.284
-79.754
-80.22
-80.68
-81.128
-81.563
-81.98
-82.377
-82.752
-83.102
-83.425
-83.72
-83.985
-84.218
-84.418
-84.584
-84.714
-84.808
-84.865
-84.883
-84.861
-84.798
-84.693
-84.545
-84.352
-84.114
-83.829
-83.497
-83.118
-82.692
-82.218
-81.698
-81.131
-80.517
-79.859
-79.157
-78.411
-77.623
-76.794
-75.925
-75.017
-74.071
-73.089
-72.073
-71.024
-69.943
-68.833
-67.696
-66.535
-65.353
-64.151
-62.935
-61.708
-60.473
-59.237
-58.003
-56.776
-55.562
-54.367
-53.195
-52.051
-50.941
-49.872
-48.848
-47.879
-46.971
-46.129
-45.363
-44.678
-44.082
-43.579
-43.175
-42.872
-42.674
-42.585
-42.609
-42.75
-43.014
-43.405
-43.925
-44.576
-45.358
-46.27
-47.304
-48.453
-49.708
-51.066
-52.53
-54.102
-55.781
-57.564
-59.445
-61.411
-63.446
-65.523
-67.603
-69.651
-71.631
-73.514
-75.28
-76.907
-78.368
-79.631
-80.644
-81.364
-81.753
-81.778
-81.411
-80.646
-79.505
-78.037
-76.331
-74.458
-72.466
-70.414
-68.365
-66.411
-64.659
-63.215
-62.17
-61.649
-61.841
-62.83
-64.545
-66.732
-68.897
-70.537
-71.293
-70.768
-68.458
-64.162
-58.102
-50.968
-44.066
-38.623
-35.283
-34.567
-37.06
-42.745
-50.724
-59.115
-64.897
-64.918
-56.762
-38.246
-7.017
38.608
98.826
172.252
255.782
345.197
436.199
523.993
602.395
664.919
706.448
724.602
720.104
694.948
649.933
581.717
486.203
365.399
230.064
101.941
4.65
-49.12
-62.207
-51.982
-37.354
-29.79
-30.381
-31.827
-30.056
-25.289
-20.01
-19.099
-24.01
-33.023
-44.651
-56.694
-66.95
-74.719
-79.604
-81.362
-80.649
-78.225
-74.65
-70.743
-67.323
-64.78
-63.341
-63.085
-63.796
-65.313
-67.526
-70.227
-73.234
-76.407
-79.614
-82.773
-85.82
-88.644
-91.122
-93.126
-94.56
-95.382
-95.575
-95.139
-94.091
-92.451
-90.257
-87.568
-84.431
-80.892
-77.001
-72.794
-68.326
-63.655
-58.839
-53.939
-49.004
-44.059
-39.125
-34.212
-29.325
-24.466
-19.631
-14.811
-10.002
-5.204
-0.419
4.349
9.099
13.832
18.55
23.256
27.952
32.638
37.313
41.972
46.609
51.216
55.782
60.296
64.745
69.119
73.407
77.6
81.689
85.67
89.534
93.271
96.867
100.302
103.562
106.639
109.522
112.204
114.684
116.963
119.052
120.976
122.746
124.365
125.828
127.118
128.219
129.12
129.805
130.26
130.471
130.419
130.089
129.478
128.565
127.321
125.698
123.627
121.064
117.997
114.428
110.384
105.902
101.025
95.815
90.353
84.711
78.956
73.145
67.314
61.523
55.848
50.383
45.249
40.537
36.298
32.571
29.372
26.69
24.506
22.766
21.38
20.282
19.419
18.752
18.266
17.928
17.687
17.483
17.243
16.908
16.447
15.829
15.037
14.075
12.958
11.732
10.47
9.224
8.024
6.894
5.835
4.856
3.974
3.2
2.548
2.026
1.636
1.383
1.27
1.286
1.414
1.622
1.865
2.111
2.336
2.521
2.657
2.734
2.742
2.677
2.541
2.331
2.047
1.683
1.235
0.701
0.085
-0.61
-1.376
-2.206
-3.094
-4.036
-5.026
-6.062
-7.138
-8.252
-9.402
-10.585
-11.797
-13.032
-14.281
-15.54
-16.801
-18.061
-19.312
-20.552
-21.776
-22.982
-24.168
-25.333
-26.474
-27.586
-28.668
-29.716
-30.728
-31.705
-32.648
-33.559
-34.44
-35.296
-36.129
-36.943
-37.737
-38.508
-39.255
-39.978
-40.683
-41.384
-42.095
-42.826
-43.588
-44.391
-45.238
-46.119
-47.017
-47.899
-48.732
-49.487
-50.143
-50.685
-51.094
-51.347
-51.407
-51.233
-50.79
-50.048
-48.986
-47.581
-45.837
-43.806
-41.57
-39.251
-36.967
-34.793
-32.815
-31.135
-29.857
-29.122
-29.084
-29.834
-31.5
-34.254
-38.092
-42.916
-48.458
-54.121
-59.34
-63.628
-66.361
-67.088
-65.855
-62.961
-59.179
-55.809
-53.771
-53.823
-56.906
-63.174
-71.715
-80.881
-88.036
-89.982
-84.065
-67.677
-37.947
6.718
66.108
138.472
220.454
307.704
395.544
478.578
550.455
605.396
639.489
650.424
637.304
600.894
543.535
469.086
383.3
292.82
203.289
119.866
47.555
-10.398
-52.541
-78.756
-90.898
-92.163
-85.431
-74.071
-62.187
-52.494
-46.538
-45.214
-48.074
-54.013
-62.144
-71.019
-78.681
-84.095
-86.803
-86.653
-84.219
-80.131
-74.859
-69.163
-63.855
-59.354
-55.863
-53.393
-51.71
-50.661
-50.136
-49.946
-49.917
-49.918
-49.869
-49.769
-49.62
-49.403
-49.068
-48.562
-47.888
-47.073
-46.159
-45.21
-44.276
-43.401
-42.653
-42.089
-41.744
-41.651
-41.785
-42.07
-42.443
-42.821
-43.139
-43.36
-43.412
-43.235
-42.777
-41.975
-40.781
-39.165
-37.077
-34.476
-31.334
-27.612
-23.331
-18.569
-13.407
-7.962
-2.33
3.428
9.238
15.038
20.779
26.414
31.907
37.243
42.384
47.289
51.915
56.198
60.113
63.674
66.905
69.857
72.567
75.046
77.313
79.383
81.259
82.939
84.413
85.654
86.651
87.405
87.921
88.223
88.316
88.192
87.839
87.233
86.358
85.207
83.772
82.044
80.022
77.709
75.118
72.27
69.182
65.866
62.333
58.591
54.651
50.531
46.246
41.818
37.266
32.612
27.877
23.086
18.262
13.426
8.598
3.794
-0.97
-5.675
-10.304
-14.84
-19.269
-23.575
-27.746
-31.766
-35.626
-39.315
-42.827
-46.158
-49.303
-52.261
-55.031
-57.614
-60.013
-62.231
-64.27
-66.135
-67.831
-69.366
-70.746
-71.981
-73.081
-74.057
-74.922
-75.689
-76.371
-76.981
-77.525
-78.011
-78.447
-78.844
-79.217
-79.578
-79.935
-80.294
-80.666
-81.053
-81.457
-81.868
-82.256
-82.593
-82.85
-83.006
-83.047
-82.958
-82.717
-82.302
-81.676
-80.814
-79.698
-78.317
-76.652
-74.692
-72.438
-69.936
-67.283
-64.58
-61.92
-59.367
-56.944
-54.706
-52.722
-51.071
-49.858
-49.157
-48.995
-49.453
-50.654
-52.593
-55.144
-57.928
-60.281
-61.647
-61.574
-59.562
-55.275
-48.672
-40.015
-30.28
-20.886
-12.91
-7.342
-5.062
-6.172
-10.143
-15.722
-20.101
-20.042
-13.046
4.048
34.405
79.212
139.009
211.495
289.61
368.95
447.283
522.421
595.963
662.094
707.033
719.918
691.107
621.576
524.948
413.209
296.527
184.332
82.46
-0.849
-54.864
-78.567
-79.19
-66.254
-53.105
-45.456
-40.644
-37.966
-35.914
-34.821
-38.47
-47.25
-59.35
-72.963
-85.28
-94.57
-100.688
-103.485
-103.072
-100.141
-95.45
-89.925
-84.664
-80.292
-76.997
-74.871
-73.826
-73.739
-74.545
-76.077
-78.102
-80.473
-83.069
-85.799
-88.615
-91.402
-94.013
-96.303
-98.125
-99.389
-100.058
-100.107
-99.531
-98.34
-96.549
-94.196
-91.336
-88.016
-84.284
-80.19
-75.777
-71.105
-66.241
-61.251
-56.203
-51.145
-46.105
-41.107
-36.164
-31.286
-26.479
-21.744
-17.074
-12.47
-7.933
-3.47
0.913
5.212
9.425
13.551
17.588
21.53
25.372
29.107
32.726
36.221
39.583
42.803
45.869
48.772
51.505
54.062
56.437
58.624
60.617
62.413
64.006
65.393
66.57
67.534
68.279
68.804
69.106
69.184
69.034
68.658
68.054
67.223
66.167
64.887
63.388
61.672
59.745
57.613
55.281
52.757
50.049
47.165
44.115
40.908
37.557
34.072
30.467
26.753
22.945
19.055
15.099
11.09
7.042
2.97
-1.113
-5.191
-9.251
-13.279
-17.26
-21.181
-25.029
-28.791
-32.454
-36.008
-39.442
-42.746
-45.911
-48.929
-51.794
-54.498
-57.039
-59.41
-61.609
-63.633
-65.483
-67.157
-68.657
-69.984
-71.143
-72.138
-72.972
-73.653
-74.185
-74.575
-74.831
-74.96
-74.968
-74.866
-74.66
-74.359
-73.973
-73.51
-72.979
-72.389
-71.748
-71.065
-70.347
-69.603
-68.838
-68.059
-67.274
-66.488
-65.706
-64.932
-64.172
-63.43
-62.708
-62.009
-61.337
-60.691
-60.075
-59.488
-58.932
-58.408
-57.916
-57.458
-57.036
-56.651
-56.305
-55.999
-55.737
-55.519
-55.346
-55.219
-55.139
-55.105
-55.12
-55.183
-55.295
-55.459
-55.677
-55.952
-56.288
-56.687
-57.151
-57.679
-58.268
-58.92
-59.635
-60.42
-61.28
-62.217
-63.23
-64.321
-65.488
-66.725
-68.015
-69.327
-70.628
-71.886
-73.073
-74.171
-75.157
-76.004
-76.683
-77.153
-77.381
-77.349
-77.04
-76.44
-75.541
-74.343
-72.894
-71.292
-69.637
-68.026
-66.526
-65.17
-64.023
-63.174
-62.711
-62.751
-63.376
-64.604
-66.503
-69.185
-72.616
-76.666
-80.978
-84.9
-87.886
-89.522
-89.326
-86.958
-82.4
-75.825
-67.991
-60.19
-53.419
-48.539
-46.357
-46.919
-49.574
-53.184
-55.431
-53.254
-43.948
-24.67
7.172
52.534
111.144
181.712
260.801
343.556
424.815
498.359
557.771
598.439
616.83
610.38
579.318
526.08
454.35
369.904
279.68
189.637
105.686
33.773
-22.582
-61.981
-84.348
-91.768
-87.698
-75.282
-58.356
-41.526
-27.776
-18.764
-15.39
-17.099
-22.658
-31.083
-40.802
-49.707
-56.65
-61.1
-62.878
-62.574
-60.857
-58.178
-55.243
-52.847
-51.374
-51.02
-51.811
-53.494
-55.886
-58.861
-62.201
-65.716
-69.262
-72.703
-75.947
-78.915
-81.49
-83.574
-85.101
-86.024
-86.332
-86.027
-85.111
-83.618
-81.591
-79.078
-76.132
-72.793
-69.098
-65.098
-60.848
-56.409
-51.849
-47.216
-42.548
-37.879
-33.232
-28.624
-24.068
-19.566
-15.114
-10.715
-6.373
-2.095
2.11
6.237
10.282
14.243
18.117
21.9
25.587
29.172
32.653
36.021
39.269
42.39
45.375
48.217
50.913
53.459
55.851
58.088
60.167
62.086
63.845
65.443
66.878
68.149
69.253
70.191
70.961
71.564
71.998
72.265
72.365
72.298
72.068
71.676
71.123
70.414
69.55
68.537
67.378
66.078
64.642
63.075
61.384
59.574
57.652
55.626
53.503
51.289
48.994
46.626
44.193
41.705
39.17
36.597
33.997
31.379
28.754
26.132
23.522
20.936
18.382
15.87
13.409
11.009
8.676
6.418
4.242
2.154
0.16
-1.736
-3.529
-5.217
-6.796
-8.264
-9.62
-10.864
-11.994
-13.011
-13.918
-14.714
-15.402
-15.985
-16.466
-16.849
-17.138
-17.337
-17.452
-17.488
-17.451
-17.348
-17.185
-16.968
-16.705
-16.402
-16.065
-15.7
-15.313
-14.91
-14.495
-14.074
-13.65
-13.228
-12.811
-12.402
-12.004
-11.618
-11.248
-10.894
-10.557
-10.239
-9.94
-9.661
-9.403
-9.165
-8.947
-8.75
-8.574
-8.416
-8.277
-8.155
-8.048
-7.956
-7.876
-7.806
-7.745
-7.692
-7.645
-7.603
-7.566
-7.532
-7.502
-7.476
-7.454
-7.435
-7.422
-7.414
-7.414
-7.422
-7.442
-7.474
-7.521
-7.585
-7.668
-7.771
-7.895
-8.043
-8.215
-8.412
-8.636
-8.887
-9.168
-9.479
-9.822
-10.198
-10.609
-11.055
-11.538
-12.059
-12.618
-13.216
-13.854
-14.531
-15.25
-16.009
-16.812
-17.658
-18.55
-19.489
-20.476
-21.513
-22.601
-23.739
-24.928
-26.165
-27.449
-28.78
-30.155
-31.574
-33.037
-34.544
-36.096
-37.693
-39.334
-41.015
-42.73
-44.473
-46.235
-48.014
-49.811
-51.628
-53.463
-55.318
-57.195
-59.088
-60.991
-62.88
-64.722
-66.484
-68.133
-69.639
-70.985
-72.147
-73.104
-73.828
-74.281
-74.432
-74.253
-73.717
-72.798
-71.482
-69.778
-67.748
-65.483
-63.08
-60.625
-58.168
-55.773
-53.52
-51.486
-49.788
-48.54
-47.799
-47.695
-48.391
-49.892
-52.112
-54.768
-57.264
-59.057
-59.687
-58.542
-55.227
-49.803
-42.575
-34.48
-26.957
-21.125
-18.052
-18.829
-23.621
-31.566
-41.191
-49.874
-54.129
-50.649
-35.815
-6.011
39.049
96.504
163.663
237.882
320.234
414.46
517.462
617.474
695.099
730.114
713.119
650.012
559.665
461.828
369.105
285.891
208.363
134.52
67.85
12.676
-26.467
-48.051
-54.859
-51.025
-40.255
-26.311
-13.172
-3.445
1.384
0.695
-4.658
-13.233
-23.889
-35.066
-44.812
-52.079
-56.397
-57.671
-56.546
-53.742
-49.811
-45.537
-41.732
-38.815
-37.002
-36.338
-36.625
-37.731
-39.57
-41.962
-44.746
-47.79
-50.97
-54.214
-57.455
-60.589
-63.493
-66.044
-68.148
-69.757
-70.85
-71.419
-71.468
-71.006
-70.062
-68.682
-66.905
-64.77
-62.32
-59.589
-56.625
-53.482
-50.213
-46.872
-43.499
-40.118
-36.743
-33.385
-30.043
-26.718
-23.404
-20.09
-16.769
-13.439
-10.096
-6.743
-3.377
0.004
3.402
6.821
10.257
13.709
17.172
20.639
24.103
27.555
30.984
34.378
37.728
41.023
44.255
47.413
50.49
53.474
56.357
59.127
61.775
64.291
66.661
68.877
70.926
72.799
74.484
75.974
77.258
78.328
79.178
79.801
80.191
80.345
80.259
79.932
79.363
78.554
77.508
76.228
74.719
72.989
71.046
68.899
66.559
64.037
61.345
58.499
55.51
52.396
49.17
45.85
42.452
38.992
35.489
31.958
28.418
24.885
21.375
17.905
14.491
11.146
7.886
4.722
1.668
-1.267
-4.072
-6.739
-9.261
-11.632
-13.848
-15.906
-17.804
-19.542
-21.12
-22.54
-23.806
-24.922
-25.893
-26.725
-27.425
-28
-28.459
-28.81
-29.062
-29.224
-29.305
-29.315
-29.262
-29.157
-29.008
-28.824
-28.614
-28.386
-28.148
-27.906
-27.669
-27.442
-27.23
-27.037
-26.868
-26.724
-26.609
-26.523
-26.468
-26.444
-26.451
-26.489
-26.556
-26.649
-26.768
-26.908
-27.067
-27.241
-27.427
-27.621
-27.821
-28.023
-28.224
-28.421
-28.612
-28.794
-28.964
-29.121
-29.262
-29.384
-29.487
-29.568
-29.625
-29.659
-29.669
-29.657
-29.624
-29.575
-29.513
-29.441
-29.365
-29.289
-29.217
-29.154
-29.102
-29.064
-29.046
-29.052
-29.091
-29.169
-29.294
-29.471
-29.709
-30.012
-30.383
-30.824
-31.329
-31.894
-32.525
-33.229
-34.018
-34.914
-35.931
-37.083
-38.389
-39.853
-41.475
-43.252
-45.165
-47.198
-49.345
-51.597
-53.961
-56.44
-59.016
-61.656
-64.309
-66.89
-69.321
-71.527
-73.417
-74.929
-76.019
-76.649
-76.813
-76.521
-75.766
-74.553
-72.878
-70.723
-68.12
-65.131
-61.865
-58.508
-55.241
-52.235
-49.663
-47.64
-46.285
-45.733
-46.082
-47.408
-49.742
-53.022
-57.228
-62.409
-68.464
-75.192
-82.131
-88.497
-93.758
-97.665
-99.97
-100.509
-99.148
-95.619
-90.254
-84.029
-77.375
-70.388
-62.879
-53.995
-43.181
-30.387
-14.645
5.642
31.392
63.954
104.31
151.574
205.309
264.148
323.704
381.617
436.718
488.182
539.046
587.011
623.932
640.658
624.085
568.71
479.454
366.001
247.447
143.647
66.763
23.199
7.53
4.957
4.091
-1.883
-13.344
-23.373
-28.215
-28.588
-26.654
-26.614
-30.511
-37.276
-45.516
-53.73
-60.47
-65.128
-67.549
-67.588
-65.532
-62.027
-57.644
-53.043
-48.969
-45.841
-43.85
-43.114
-43.537
-44.981
-47.358
-50.49
-54.163
-58.216
-62.491
-66.866
-71.248
-75.499
-79.461
-82.992
-85.976
-88.352
-90.095
-91.186
-91.624
-91.423
-90.611
-89.241
-87.366
-85.031
-82.283
-79.166
-75.734
-72.048
-68.173
-64.168
-60.081
-55.941
-51.769
-47.578
-43.38
-39.178
-34.971
-30.754
-26.526
-22.294
-18.064
-13.844
-9.641
-5.46
-1.308
2.808
6.882
10.904
14.865
18.756
22.563
26.276
29.882
33.366
36.716
39.919
42.961
45.83
48.517
51.012
53.306
55.392
57.26
58.903
60.317
61.494
62.429
63.111
63.526
63.665
63.53
63.128
62.471
61.57
60.434
59.076
57.518
55.773
53.851
51.747
49.444
46.936
44.228
41.333
38.281
35.087
31.749
28.269
24.642
20.863
16.934
12.841
8.549
4.055
-0.627
-5.451
-10.338
-15.229
-20.088
-24.884
-29.603
-34.217
-38.684
-42.968
-47.04
-50.862
-54.401
-57.6
-60.374
-62.679
-64.505
-65.879
-66.872
-67.534
-67.89
-67.966
-67.784
-67.367
-66.753
-65.963
-65.006
-63.905
-62.689
-61.408
-60.142
-58.937
-57.808
-56.751
-55.726
-54.711
-53.703
-52.693
-51.671
-50.632
-49.572
-48.498
-47.437
-46.4
-45.393
-44.407
-43.421
-42.428
-41.435
-40.456
-39.517
-38.638
-37.831
-37.11
-36.495
-35.996
-35.621
-35.369
-35.23
-35.195
-35.265
-35.439
-35.718
-36.103
-36.587
-37.167
-37.835
-38.584
-39.408
-40.299
-41.245
-42.239
-43.273
-44.341
-45.44
-46.564
-47.708
-48.864
-50.027
-51.19
-52.346
-53.488
-54.609
-55.699
-56.754
-57.767
-58.73
-59.64
-60.491
-61.278
-61.998
-62.646
-63.22
-63.719
-64.14
-64.483
-64.746
-64.931
-65.038
-65.067
-65.02
-64.898
-64.705
-64.442
-64.113
-63.722
-63.272
-62.77
-62.22
-61.631
-61.01
-60.365
-59.707
-59.046
-58.393
-57.758
-57.152
-56.583
-56.061
-55.594
-55.19
-54.858
-54.608
-54.45
-54.391
-54.441
-54.604
-54.886
-55.29
-55.814
-56.457
-57.217
-58.099
-59.111
-60.258
-61.548
-62.984
-64.566
-66.287
-68.131
-70.071
-72.071
-74.09
-76.092
-78.041
-79.909
-81.663
-83.27
-84.684
-85.856
-86.739
-87.287
-87.468
-87.252
-86.635
-85.651
-84.36
-82.857
-81.232
-79.551
-77.892
-76.35
-75.023
-74.034
-73.512
-73.536
-74.224
-75.733
-78.066
-81.137
-84.709
-88.271
-91.364
-93.615
-94.529
-93.738
-91.264
-87.334
-82.565
-78.016
-74.401
-72.243
-72.19
-74.269
-77.671
-81.028
-82.197
-78.637
-68.353
-49.47
-19.872
21.51
74.239
136.666
205.836
278.284
350.707
419.23
478.983
525.583
556.281
569.63
565.493
544.416
507.178
455.889
394.57
327.914
259.811
193.66
132.351
78.27
33.775
0.058
-23.539
-38.72
-47.177
-50.792
-51.57
-51.157
-51.334
-53.351
-57.377
-62.973
-69.534
-76.184
-81.898
-86.074
-88.205
-87.997
-85.674
-81.652
-76.443
-70.749
-65.33
-60.644
-56.987
-54.524
-53.205
-52.976
-53.766
-55.393
-57.646
-60.354
-63.364
-66.567
-69.885
-73.191
-76.339
-79.199
-81.651
-83.619
-85.07
-85.964
-86.273
-86.001
-85.18
-83.867
-82.139
-80.064
-77.7
-75.118
-72.404
-69.631
-66.853
-64.099
-61.359
-58.628
-55.906
-53.193
-50.501
-47.817
-45.111
-42.354
-39.514
-36.561
-33.468
-30.187
-26.643
-22.799
-18.65
-14.226
-9.604
-4.837
0.043
5.002
10.015
15.05
20.064
25.027
29.926
34.732
39.414
43.917
48.164
52.107
55.73
59.04
62.076
64.862
67.402
69.707
71.788
73.65
75.302
76.738
77.936
78.886
79.589
80.055
80.313
80.376
80.241
79.901
79.337
78.537
77.497
76.21
74.668
72.869
70.815
68.517
65.997
63.273
60.357
57.261
53.993
50.567
46.999
43.307
39.51
35.626
31.675
27.678
23.658
19.636
15.632
11.663
7.745
3.893
0.125
-3.543
-7.096
-10.519
-13.798
-16.92
-19.871
-22.639
-25.215
-27.589
-29.756
-31.709
-33.444
-34.958
-36.249
-37.318
-38.164
-38.792
-39.203
-39.402
-39.395
-39.188
-38.789
-38.206
-37.448
-36.525
-35.449
-34.231
-32.884
-31.421
-29.854
-28.2
-26.47
-24.679
-22.842
-20.972
-19.082
-17.187
-15.299
-13.431
-11.595
-9.803
-8.064
-6.388
-4.785
-3.263
-1.828
-0.486
0.757
1.897
2.929
3.851
4.66
5.355
5.934
6.397
6.746
6.979
7.101
7.112
7.017
6.82
6.524
6.134
5.653
5.084
4.431
3.694
2.878
1.983
1.012
-0.033
-1.147
-2.325
-3.565
-4.862
-6.214
-7.62
-9.079
-10.589
-12.147
-13.751
-15.397
-17.08
-18.792
-20.524
-22.269
-24.025
-25.8
-27.6
-29.429
-31.292
-33.188
-35.108
-37.047
-38.99
-40.909
-42.78
-44.576
-46.271
-47.851
-49.299
-50.59
-51.685
-52.531
-53.076
-53.277
-53.102
-52.528
-51.564
-50.223
-48.548
-46.608
-44.452
-42.15
-39.781
-37.422
-35.169
-33.133
-31.414
-30.171
-29.63
-29.901
-30.945
-32.56
-34.308
-35.754
-36.586
-36.386
-34.616
-31.035
-25.858
-19.811
-14.213
-10.336
-8.892
-10.49
-15.847
-25.03
-37.092
-50.04
-60.64
-65.379
-61.579
-46.74
-18.033
26.403
86.843
161.867
247.685
339.336
432.249
520.828
597.956
657.345
693.708
704.857
693.594
661.337
608.065
534.365
439.175
330.167
223.152
131.193
66.63
32.64
20.577
24.324
39.174
58.062
76.838
88.892
83.936
61.951
30.309
-3.36
-28.186
-41.147
-47.78
-51.364
-55.223
-60.209
-63.138
-63.083
-60.709
-56.707
-52.496
-48.73
-45.184
-41.837
-38.774
-35.991
-33.486
-31.221
-29.105
-27.106
-25.252
-23.553
-21.983
-20.529
-19.187
-17.935
-16.759
-15.661
-14.661
-13.77
-12.99
-12.318
-11.745
-11.277
-10.918
-10.672
-10.535
-10.489
-10.506
-10.54
-10.532
-10.426
-10.173
-9.719
-8.999
-7.964
-6.579
-4.821
-2.681
-0.155
2.759
6.053
9.707
13.688
17.953
22.443
27.086
31.817
36.583
41.328
46.002
50.559
54.961
59.182
63.209
67.026
70.621
73.985
77.109
79.994
82.647
85.077
87.302
89.332
91.171
92.823
94.288
95.564
96.649
97.536
98.21
98.662
98.886
98.876
98.628
98.138
97.401
96.414
95.174
93.682
91.94
89.953
87.727
85.27
82.594
79.709
76.63
73.373
69.949
66.376
62.666
58.836
54.901
50.877
46.78
42.626
38.431
34.212
29.986
25.768
21.573
17.418
13.317
9.283
5.331
1.473
-2.28
-5.916
-9.428
-12.805
-16.041
-19.129
-22.065
-24.844
-27.464
-29.923
-32.219
-34.355
-36.33
-38.147
-39.809
-41.32
-42.684
-43.907
-44.993
-45.948
-46.778
-47.489
-48.087
-48.579
-48.97
-49.266
-49.475
-49.602
-49.654
-49.635
-49.552
-49.41
-49.212
-48.964
-48.669
-48.331
-47.953
-47.537
-47.087
-46.604
-46.09
-45.546
-44.973
-44.373
-43.745
-43.09
-42.407
-41.697
-40.96
-40.194
-39.401
-38.581
-37.734
-36.861
-35.962
-35.04
-34.095
-33.129
-32.144
-31.143
-30.127
-29.1
-28.064
-27.022
-25.978
-24.936
-23.897
-22.867
-21.85
-20.847
-19.865
-18.905
-17.972
-17.069
-16.2
-15.368
-14.576
-13.829
-13.129
-12.478
-11.88
-11.337
-10.851
-10.423
-10.054
-9.745
-9.496
-9.307
-9.177
-9.107
-9.094
-9.137
-9.236
-9.387
-9.589
-9.839
-10.136
-10.476
-10.857
-11.277
-11.732
-12.221
-12.742
-13.292
-13.87
-14.473
-15.099
-15.748
-16.416
-17.103
-17.806
-18.524
-19.255
-19.999
-20.754
-21.52
-22.294
-23.078
-23.87
-24.669
-25.477
-26.292
-27.113
-27.941
-28.775
-29.616
-30.462
-31.313
-32.17
-33.031
-33.898
-34.77
-35.645
-36.525
-37.407
-38.29
-39.174
-40.057
-40.938
-41.815
-42.689
-43.561
-44.433
-45.306
-46.182
-47.064
-47.953
-48.852
-49.76
-50.675
-51.596
-52.524
-53.459
-54.402
-55.357
-56.321
-57.296
-58.28
-59.272
-60.27
-61.268
-62.257
-63.233
-64.193
-65.144
-66.098
-67.066
-68.053
-69.061
-70.088
-71.128
-72.176
-73.216
-74.221
-75.165
-76.022
-76.77
-77.4
-77.885
-78.185
-78.248
-78.006
-77.404
-76.403
-74.978
-73.125
-70.846
-68.154
-65.087
-61.698
-58.062
-54.285
-50.458
-46.685
-43.105
-39.831
-37.071
-35.124
-34.092
-33.929
-34.433
-35.164
-35.813
-36.308
-36.341
-35.456
-33.635
-31.106
-28.656
-27.678
-28.821
-31.998
-37.217
-44.392
-52.895
-61.766
-68.935
-71.257
-66.789
-54.62
-33.832
-3.818
35.634
84.801
142.863
207.053
275.556
345.889
413.176
475.144
530.503
579.186
625.704
668.585
699.659
709.206
682.933
615.134
512.174
384.573
252.432
136.651
49.396
-2.322
-23.463
-29.808
-33.664
-41.766
-54.39
-63.932
-65.985
-62.256
-55.755
-50.329
-47.239
-45.037
-42.493
-39.198
-35.161
-30.015
-23.625
-16.825
-11.367
-8.816
-9.872
-14.134
-20.474
-28.309
-37.336
-46.712
-55.118
-61.528
-65.479
-67.315
-68.13
-68.587
-68.877
-69.287
-70.116
-71.557
-73.697
-76.262
-78.62
-80.391
-81.462
-81.785
-81.44
-80.478
-78.889
-76.754
-74.222
-71.385
-68.304
-65.005
-61.47
-57.714
-53.79
-49.738
-45.604
-41.419
-37.191
-32.927
-28.627
-24.287
-19.903
-15.476
-11.008
-6.507
-1.982
2.557
7.096
11.623
16.131
20.616
25.075
29.505
33.896
38.235
42.509
46.704
50.807
54.803
58.68
62.425
66.029
69.479
72.768
75.885
78.822
81.568
84.113
86.448
88.563
90.452
92.106
93.52
94.687
95.604
96.266
96.671
96.816
96.7
96.324
95.689
94.796
93.649
92.252
90.611
88.732
86.623
84.294
81.754
79.016
76.091
72.992
69.735
66.335
62.806
59.167
55.433
51.621
47.75
43.838
39.901
35.959
32.028
28.126
24.271
20.479
16.766
13.148
9.64
6.256
3.008
-0.091
-3.029
-5.798
-8.388
-10.792
-13.004
-15.018
-16.831
-18.441
-19.846
-21.046
-22.045
-22.844
-23.448
-23.863
-24.094
-24.15
-24.039
-23.771
-23.355
-22.802
-22.124
-21.333
-20.441
-19.46
-18.404
-17.285
-16.116
-14.911
-13.681
-12.439
-11.197
-9.968
-8.762
-7.589
-6.461
-5.386
-4.373
-3.431
-2.566
-1.785
-1.093
-0.496
0.003
0.401
0.697
0.888
0.975
0.958
0.838
0.616
0.296
-0.119
-0.627
-1.222
-1.901
-2.66
-3.492
-4.393
-5.358
-6.381
-7.456
-8.579
-9.744
-10.945
-12.178
-13.437
-14.718
-16.016
-17.327
-18.646
-19.97
-21.295
-22.617
-23.935
-25.244
-26.543
-27.83
-29.103
-30.359
-31.599
-32.82
-34.021
-35.203
-36.362
-37.501
-38.616
-39.708
-40.776
-41.819
-42.837
-43.827
-44.79
-45.724
-46.628
-47.5
-48.34
-49.146
-49.916
-50.65
-51.345
-52.001
-52.616
-53.188
-53.716
-54.199
-54.634
-55.022
-55.36
-55.648
-55.886
-56.071
-56.205
-56.287
-56.317
-56.295
-56.222
-56.098
-55.925
-55.704
-55.437
-55.126
-54.774
-54.384
-53.959
-53.502
-53.017
-52.508
-51.978
-51.43
-50.869
-50.297
-49.72
-49.14
-48.563
-47.991
-47.428
-46.879
-46.348
-45.836
-45.349
-44.889
-44.459
-44.063
-43.704
-43.384
-43.108
-42.878
-42.698
-42.573
-42.506
-42.499
-42.557
-42.681
-42.877
-43.147
-43.494
-43.919
-44.424
-45.011
-45.683
-46.442
-47.288
-48.222
-49.244
-50.355
-51.56
-52.859
-54.253
-55.738
-57.309
-58.962
-60.694
-62.508
-64.4
-66.365
-68.395
-70.484
-72.626
-74.814
-77.031
-79.247
-81.423
-83.52
-85.508
-87.362
-89.059
-90.574
-91.874
-92.923
-93.694
-94.168
-94.332
-94.171
-93.668
-92.817
-91.637
-90.199
-88.604
-86.952
-85.333
-83.804
-82.394
-81.155
-80.171
-79.528
-79.327
-79.647
-80.492
-81.936
-84.119
-87.01
-90.439
-93.949
-96.73
-98.078
-97.5
-94.47
-88.675
-80.232
-69.494
-57.609
-46.454
-37.59
-32.375
-31.821
-35.771
-43.17
-52.308
-59.912
-61.851
-54.36
-33.451
3.923
58.458
129.36
214.131
307.631
403.527
495.081
574.298
633.943
669.129
676.328
654.325
605.221
532.92
442.795
342.41
239.54
140.834
52.755
-19.665
-74.308
-110.906
-130.779
-137.307
-134.268
-124.91
-113.302
-103.379
-97.059
-95.003
-96.825
-100.756
-105.528
-110.879
-115.654
-118.336
-118.606
-116.671
-113.456
-110.877
-109.687
-109.312
-109.763
-111.318
-113.847
-117.309
-121.14
-124.055
-125.764
-126.945
-127.956
-129.05
-130.37
-131.687
-133.057
-134.907
-137.2
-139.503
-141.507
-142.903
-143.567
-143.646
-143.177
-142.091
-140.413
-138.219
-135.588
-132.635
-129.418
-125.927
-122.185
-118.227
-114.104
-109.892
-105.643
-101.383
-97.133
-92.901
-88.688
-84.497
-80.324
-76.159
-71.998
-67.838
-63.678
-59.525
-55.382
-51.251
-47.131
-43.016
-38.901
-34.787
-30.674
-26.569
-22.479
-18.41
-14.372
-10.376
-6.433
-2.552
1.259
4.991
8.639
12.194
15.648
18.993
22.221
25.324
28.292
31.118
33.793
36.31
38.661
40.84
42.839
44.654
46.279
47.709
48.939
49.966
50.784
51.392
51.786
51.965
51.928
51.674
51.205
50.524
49.634
48.539
47.245
45.759
44.088
42.238
40.219
38.039
35.707
33.233
30.627
27.899
25.059
22.119
19.089
15.98
12.802
9.567
6.283
2.961
-0.39
-3.76
-7.138
-10.516
-13.884
-17.231
-20.549
-23.828
-27.059
-30.234
-33.346
-36.386
-39.349
-42.228
-45.018
-47.715
-50.312
-52.807
-55.196
-57.477
-59.646
-61.701
-63.643
-65.469
-67.179
-68.772
-70.249
-71.61
-72.854
-73.982
-74.995
-75.892
-76.675
-77.345
-77.904
-78.354
-78.699
-78.94
-79.082
-79.129
-79.084
-78.953
-78.739
-78.449
-78.086
-77.656
-77.164
-76.616
-76.016
-75.37
-74.683
-73.959
-73.203
-72.418
-71.607
-70.776
-69.925
-69.059
-68.181
-67.292
-66.396
-65.495
-64.592
-63.688
-62.785
-61.885
-60.99
-60.1
-59.216
-58.34
-57.472
-56.612
-55.761
-54.92
-54.088
-53.265
-52.452
-51.648
-50.854
-50.07
-49.296
-48.532
-47.781
-47.045
-46.328
-45.634
-44.969
-44.337
-43.745
-43.199
-42.704
-42.267
-41.89
-41.58
-41.339
-41.175
-41.093
-41.1
-41.203
-41.406
-41.714
-42.132
-42.659
-43.293
-44.032
-44.873
-45.815
-46.868
-48.037
-49.329
-50.748
-52.296
-53.972
-55.764
-57.653
-59.61
-61.606
-63.611
-65.6
-67.555
-69.453
-71.273
-72.976
-74.52
-75.861
-76.958
-77.774
-78.272
-78.44
-78.296
-77.885
-77.284
-76.56
-75.756
-74.922
-74.125
-73.442
-72.964
-72.807
-73.042
-73.786
-75.245
-77.464
-80.377
-83.759
-87.08
-89.813
-91.604
-91.95
-90.297
-86.631
-81.228
-74.823
-68.988
-64.963
-63.482
-65.568
-71.898
-81.956
-94.574
-107.474
-116.788
-119.232
-112.121
-92.072
-56.551
-4.822
62.713
143.382
232.015
323.657
412.904
492.344
555.075
595.454
610.385
601.388
571.37
521.715
450.114
353.782
236.713
111.212
-1.047
-78.568
-112.992
-109.629
-85.71
-60.416
-43.707
-36.411
-33.525
-30.394
-26.459
-24.13
-26.598
-34.415
-45.894
-58.664
-69.968
-78.51
-84.155
-86.811
-86.849
-84.895
-81.528
-77.595
-74.014
-71.224
-69.378
-68.511
-68.467
-69.124
-70.411
-72.159
-74.182
-76.355
-78.577
-80.786
-82.946
-84.969
-86.742
-88.145
-89.087
-89.522
-89.432
-88.817
-87.68
-86.035
-83.906
-81.336
-78.367
-75.038
-71.388
-67.451
-63.271
-58.902
-54.398
-49.819
-45.212
-40.609
-36.03
-31.49
-26.999
-22.563
-18.184
-13.854
-9.573
-5.34
-1.159
2.966
7.034
11.045
15.001
18.905
22.756
26.553
30.294
33.976
37.594
41.142
44.614
48.002
51.297
54.495
57.59
60.575
63.446
66.196
68.821
71.314
73.671
75.885
77.951
79.862
81.614
83.2
84.617
85.859
86.923
87.805
88.501
89.008
89.323
89.445
89.372
89.102
88.636
87.973
87.116
86.066
84.828
83.405
81.804
80.031
78.094
76.001
73.763
71.389
68.89
66.279
63.567
60.766
57.889
54.951
51.962
48.938
45.891
42.834
39.779
36.74
33.726
30.751
27.826
24.96
22.165
19.45
16.823
14.294
11.871
9.56
7.367
5.297
3.355
1.543
-0.135
-1.68
-3.092
-4.369
-5.515
-6.531
-7.42
-8.186
-8.833
-9.364
-9.785
-10.1
-10.314
-10.433
-10.461
-10.403
-10.263
-10.047
-9.757
-9.399
-8.977
-8.494
-7.953
-7.36
-6.718
-6.029
-5.297
-4.525
-3.716
-2.871
-1.994
-1.084
-0.144
0.825
1.822
2.847
3.9
4.98
6.086
7.218
8.377
9.562
10.772
12.007
13.267
14.549
15.852
17.175
18.513
19.865
21.228
22.598
23.971
25.344
26.714
28.076
29.428
30.765
32.084
33.382
34.653
35.895
37.103
38.272
39.401
40.484
41.519
42.502
43.43
44.302
45.113
45.862
46.547
47.165
47.715
48.196
48.608
48.951
49.225
49.434
49.579
49.663
49.691
49.666
49.593
49.477
49.322
49.134
48.92
48.686
48.437
48.181
47.926
47.682
47.457
47.261
47.104
46.997
46.949
46.971
47.071
47.257
47.537
47.917
48.406
49.011
49.74
50.602
51.606
52.758
54.064
55.526
57.144
58.912
60.823
62.873
65.059
67.383
69.847
72.45
75.188
78.06
81.052
84.144
87.302
90.481
93.637
96.729
99.721
102.585
105.288
107.791
110.044
111.994
113.588
114.768
115.476
115.656
115.28
114.363
112.946
111.099
108.872
106.283
103.375
100.195
96.78
93.197
89.528
85.827
82.282
79.167
76.577
74.552
73.016
71.572
69.874
67.645
