Name
Date of Birth,"Mar 27, 1959"
Recorded Date,2020-07-19 21:44:19 -0500
Classification,Sinus Rhythm
Symptoms,
Software Version,1.90
Device,"Watch4,2"
Sample Rate,514.062 hertz


Lead,Lead I
Unit,µV

342.26
462.764
536.705
563.866
555.665
533.193
516.581
510.838
512.429
514.164
510.386
501.115
489.506
479.021
470.676
463.71
456.802
448.192
437.149
423.767
408.105
390.612
371.992
352.755
333.551
315.146
297.977
282.309
268.307
255.94
245.138
235.86
227.989
221.381
215.938
211.572
208.218
205.835
204.356
203.71
203.826
204.634
206.062
208.055
210.573
213.582
217.056
220.975
225.324
230.087
235.251
240.799
246.696
252.93
259.496
266.394
273.634
281.225
289.177
297.5
306.203
315.296
324.785
334.664
344.925
355.556
366.544
377.876
389.546
401.517
413.737
426.147
438.68
451.272
463.859
476.367
488.709
500.8
512.558
523.922
534.849
545.299
555.244
564.664
573.555
581.951
589.906
597.47
604.686
611.581
618.175
624.497
630.591
636.488
642.201
647.709
652.95
657.848
662.302
666.191
669.353
671.574
672.613
672.227
670.21
666.381
660.571
652.613
642.319
629.537
614.169
596.173
575.577
552.447
526.89
499.056
469.169
437.522
404.465
370.373
335.588
300.439
265.266
230.422
196.296
163.249
131.571
101.491
73.174
46.744
22.293
-0.131
-20.563
-39.096
-55.879
-71.093
-84.9
-97.463
-108.976
-119.657
-129.762
-139.54
-149.177
-158.81
-168.546
-178.462
-188.624
-199.071
-209.787
-220.723
-231.809
-242.962
-254.111
-265.186
-276.09
-286.714
-296.93
-306.614
-315.68
-324.076
-331.763
-338.718
-344.927
-350.388
-355.128
-359.191
-362.619
-365.456
-367.741
-369.512
-370.822
-371.729
-372.297
-372.587
-372.648
-372.515
-372.223
-371.8
-371.268
-370.647
-369.947
-369.172
-368.332
-367.437
-366.501
-365.536
-364.551
-363.553
-362.548
-361.544
-360.546
-359.562
-358.598
-357.66
-356.754
-355.886
-355.062
-354.287
-353.565
-352.896
-352.279
-351.713
-351.194
-350.717
-350.278
-349.87
-349.487
-349.12
-348.763
-348.41
-348.051
-347.68
-347.288
-346.868
-346.412
-345.913
-345.364
-344.758
-344.089
-343.352
-342.539
-341.648
-340.673
-339.612
-338.463
-337.222
-335.891
-334.469
-332.958
-331.36
-329.679
-327.919
-326.087
-324.189
-322.233
-320.229
-318.187
-316.119
-314.036
-311.952
-309.88
-307.833
-305.827
-303.874
-301.988
-300.184
-298.474
-296.873
-295.391
-294.043
-292.839
-291.792
-290.912
-290.21
-289.694
-289.373
-289.254
-289.344
-289.646
-290.165
-290.902
-291.857
-293.03
-294.416
-296.011
-297.808
-299.798
-301.973
-304.32
-306.827
-309.481
-312.266
-315.168
-318.17
-321.256
-324.406
-327.601
-330.822
-334.05
-337.266
-340.448
-343.577
-346.631
-349.591
-352.437
-355.152
-357.715
-360.102
-362.289
-364.259
-365.998
-367.498
-368.755
-369.766
-370.536
-371.077
-371.41
-371.553
-371.524
-371.335
-370.993
-370.514
-369.916
-369.224
-368.466
-367.654
-366.793
-365.883
-364.922
-363.894
-362.776
-361.523
-360.08
-358.406
-356.477
-354.285
-351.837
-349.138
-346.193
-343.009
-339.599
-335.998
-332.258
-328.43
-324.577
-320.774
-317.11
-313.709
-310.7
-308.179
-306.225
-304.88
-304.167
-304.109
-304.714
-305.979
-307.891
-310.405
-313.461
-317.009
-320.986
-325.321
-329.938
-334.732
-339.616
-344.538
-349.459
-354.361
-359.212
-363.986
-368.7
-373.38
-378.073
-382.849
-387.735
-392.783
-398.138
-403.782
-409.548
-415.157
-420.016
-423.566
-425.494
-425.321
-422.497
-417.026
-409.171
-399.694
-390.26
-382.109
-375.862
-372.415
-372.389
-375.36
-380.461
-385.611
-387.028
-381.726
-367.499
-341.615
-301.835
-247.032
-176.778
-93.92
-5.102
83.949
169.175
249.742
327.2
399.382
457.354
486.735
475.654
419.244
324.335
205.49
72.344
-65.505
-200.727
-326.028
-423.415
-480.336
-495.016
-471.772
-428.177
-382.693
-342.371
-312.065
-291.795
-274.445
-258.699
-244.217
-228.865
-217.004
-211.443
-211.274
-216.277
-223.442
-229.532
-233.951
-236.609
-237.373
-235.98
-232.358
-226.817
-220.142
-213.604
-207.82
-202.789
-198.695
-195.725
-193.91
-193.253
-193.4
-193.643
-193.563
-192.982
-191.767
-189.919
-187.41
-184.153
-180.174
-175.592
-170.489
-164.93
-158.941
-152.495
-145.599
-138.287
-130.609
-122.635
-114.422
-106.015
-97.448
-88.741
-79.908
-70.963
-61.912
-52.755
-43.494
-34.122
-24.639
-15.049
-5.354
4.45
14.375
24.449
34.704
45.169
55.856
66.768
77.892
89.214
100.72
112.396
124.225
136.184
148.243
160.376
172.557
184.755
196.918
208.972
220.81
232.327
243.447
254.117
264.312
274.017
283.227
291.948
300.205
308.039
315.492
322.597
329.372
335.846
342.086
348.193
354.315
360.61
367.194
374.154
381.545
389.388
397.673
406.361
415.363
424.566
433.871
443.188
452.452
461.593
470.492
478.989
486.881
493.933
499.933
504.687
508.015
509.787
509.92
508.364
505.141
500.301
493.872
485.872
476.301
465.143
452.429
438.231
422.653
405.851
388.006
369.307
349.971
330.19
310.116
289.886
269.589
249.295
229.101
209.132
189.537
170.511
152.236
134.874
118.577
103.464
89.607
77.05
65.798
55.846
47.206
39.9
33.967
29.452
26.378
24.724
24.428
25.378
27.428
30.427
34.207
38.589
43.421
48.576
53.944
59.432
64.94
70.341
75.495
80.265
84.515
88.151
91.116
93.383
94.963
95.889
96.214
96.023
95.4
94.415
93.131
91.607
89.908
88.129
86.383
84.773
83.402
82.351
81.67
81.406
81.581
82.195
83.231
84.653
86.412
88.473
90.802
93.357
96.097
98.957
101.861
104.745
107.551
110.23
112.749
115.076
117.185
119.068
120.727
122.167
123.401
124.436
125.275
125.928
126.409
126.736
126.935
127.024
127.015
126.918
126.739
126.482
126.154
125.75
125.265
124.696
124.038
123.291
122.458
121.539
120.535
119.446
118.271
117.015
115.68
114.272
112.795
111.256
109.66
108.016
106.331
104.615
102.872
101.109
99.331
97.542
95.749
93.954
92.164
90.38
88.609
86.853
85.119
83.409
81.727
80.077
78.463
76.886
75.348
73.852
72.399
70.99
69.624
68.302
67.022
65.786
64.59
63.434
62.316
61.236
60.191
59.181
58.204
57.261
56.35
55.471
54.626
53.815
53.039
52.299
51.597
50.936
50.317
49.742
49.212
48.73
48.297
47.916
47.589
47.318
47.104
46.952
46.862
46.839
46.885
47.001
47.189
47.452
47.792
48.208
48.701
49.271
49.917
50.637
51.429
52.289
53.211
54.191
55.22
56.29
57.391
58.512
59.642
60.767
61.875
62.951
63.98
64.947
65.837
66.636
67.329
67.9
68.334
68.618
68.736
68.674
68.419
67.955
67.269
66.351
65.19
63.783
62.126
60.217
58.053
55.631
52.949
50.009
46.815
43.371
39.682
35.763
31.635
27.335
22.904
18.377
13.788
9.164
4.536
-0.064
-4.598
-9.027
-13.31
-17.411
-21.292
-24.91
-28.231
-31.235
-33.932
-36.384
-38.652
-40.796
-42.86
-44.853
-46.804
-48.781
-50.849
-53.088
-55.588
-58.387
-61.574
-65.337
-69.69
-74.49
-79.42
-83.832
-87.137
-88.99
-88.911
-86.383
-81.426
-74.364
-66.036
-58.109
-51.865
-48.025
-47.491
-50.816
-57.467
-66.304
-75.052
-80.022
-78.143
-66.801
-43.22
-5.58
46.912
114.107
193.572
281.213
371.608
456.984
531.652
591.598
634.572
664.331
679.98
674.799
642.815
571.825
456.496
308.823
144.888
-9.396
-126.032
-196.661
-222.492
-215.615
-198.316
-181.505
-168.904
-160.127
-148.627
-133.608
-118.101
-104.475
-96.17
-93.819
-95.437
-99.309
-103.27
-105.327
-104.805
-101.561
-95.772
-88.134
-79.365
-70.045
-60.896
-52.646
-45.63
-39.947
-35.532
-32.127
-29.554
-27.734
-26.535
-25.821
-25.516
-25.552
-25.916
-26.644
-27.717
-29.125
-30.885
-33.013
-35.565
-38.623
-42.242
-46.479
-51.376
-56.921
-63.096
-69.874
-77.191
-84.974
-93.129
-101.53
-110.086
-118.7
-127.255
-135.636
-143.702
-151.309
-158.339
-164.683
-170.231
-174.911
-178.674
-181.484
-183.352
-184.311
-184.419
-183.758
-182.401
-180.418
-177.898
-174.937
-171.647
-168.135
-164.485
-160.775
-157.093
-153.512
-150.096
-146.895
-143.926
-141.193
-138.688
-136.392
-134.288
-132.355
-130.562
-128.871
-127.23
-125.597
-123.945
-122.245
-120.466
-118.574
-116.537
-114.331
-111.953
-109.405
-106.695
-103.836
-100.843
-97.736
-94.537
-91.279
-88.007
-84.763
-81.587
-78.52
-75.599
-72.869
-70.383
-68.183
-66.293
-64.726
-63.477
-62.531
-61.862
-61.442
-61.24
-61.205
-61.28
-61.394
-61.479
-61.476
-61.333
-60.99
-60.371
-59.409
-58.056
-56.281
-54.08
-51.464
-48.45
-45.051
-41.283
-37.174
-32.759
-28.073
-23.141
-17.951
-12.474
-6.693
-0.608
5.774
12.459
19.464
26.818
34.546
42.648
51.101
59.866
68.89
78.111
87.441
96.744
105.817
114.427
122.333
129.315
135.171
139.677
142.61
143.756
142.939
140.041
135
127.789
118.411
106.913
93.397
78.053
61.164
43.057
24.098
4.645
-14.94
-34.245
-52.835
-70.289
-86.221
-100.315
-112.314
-121.984
-129.105
-133.526
-135.165
-134.04
-130.27
-124.011
-115.465
-104.86
-92.456
-78.601
-63.701
-48.172
-32.419
-16.815
-1.698
12.571
25.606
37.091
46.784
54.523
60.231
63.85
65.33
64.67
61.926
57.226
50.776
42.804
33.537
23.224
12.126
0.558
-11.107
-22.537
-33.476
-43.724
-53.147
-61.61
-68.951
-75.054
-79.857
-83.329
-85.491
-86.37
-85.976
-84.362
-81.641
-77.981
-73.635
-68.852
-63.827
-58.715
-53.635
-48.703
-44.073
-39.883
-36.216
-33.16
-30.791
-29.201
-28.54
-28.923
-30.389
-32.919
-36.408
-40.708
-45.692
-51.248
-57.255
-63.588
-70.081
-76.559
-82.892
-88.952
-94.595
-99.639
-103.828
-106.916
-108.728
-109.146
-108.125
-105.678
-101.821
-96.589
-90.078
-82.421
-73.8
-64.43
-54.495
-44.172
-33.668
-23.234
-13.182
-3.831
4.561
11.791
17.695
22.146
25.018
26.228
25.78
23.737
20.222
15.399
9.427
2.465
-5.28
-13.563
-22.104
-30.617
-38.869
-46.673
-53.849
-60.231
-65.641
-69.939
-73.055
-74.975
-75.727
-75.37
-73.971
-71.611
-68.422
-64.566
-60.217
-55.556
-50.716
-45.801
-40.916
-36.157
-31.638
-27.456
-23.67
-20.312
-17.397
-14.933
-12.925
-11.37
-10.229
-9.443
-8.946
-8.662
-8.542
-8.553
-8.662
-8.843
-9.054
-9.246
-9.383
-9.435
-9.371
-9.162
-8.766
-8.124
-7.203
-5.982
-4.451
-2.618
-0.486
1.953
4.693
7.726
11.018
14.508
18.136
21.842
25.569
29.268
32.865
36.258
39.358
42.097
44.417
46.281
47.649
48.465
48.697
48.337
47.41
45.97
44.073
41.764
39.061
35.989
32.594
28.964
25.198
21.359
17.5
13.653
9.86
6.203
2.79
-0.321
-3.129
-5.545
-7.386
-8.325
-7.868
-5.579
-1.172
5.545
14.739
26.301
39.894
54.929
70.42
85.41
99.129
111.108
121.208
129.87
138.016
146.963
158.535
174.5
196.954
227.796
268.203
318.915
377.819
440.123
501.677
557.832
608.281
658.452
707.585
752.581
783.516
778.264
725.992
621.139
465.204
283.977
100.909
-58.693
-166.088
-219.416
-224.408
-192.82
-148.594
-99.202
-49.001
-5.262
32.77
57.714
65.881
63.271
52.457
40.502
31.451
21.765
11.264
-0.769
-14.533
-26.327
-34.175
-38.087
-38.332
-36.614
-34.959
-34.026
-34.023
-35.245
-37.736
-41.495
-46.511
-52.355
-58.28
-63.838
-68.796
-73.005
-76.507
-79.294
-81.292
-82.528
-83.099
-83.089
-82.578
-81.608
-80.153
-78.217
-75.837
-73.064
-69.98
-66.668
-63.192
-59.613
-55.995
-52.389
-48.843
-45.392
-42.027
-38.727
-35.469
-32.233
-29.025
-25.848
-22.685
-19.519
-16.322
-13.048
-9.655
-6.079
-2.208
2.035
6.716
11.885
17.518
23.584
30.053
36.864
43.957
51.282
58.756
66.317
73.916
81.462
88.854
95.963
102.593
108.591
113.838
118.219
121.687
124.222
125.817
126.538
126.486
125.751
124.447
122.681
120.534
118.155
115.716
113.403
111.452
110.069
109.43
109.729
111.139
113.777
117.72
122.966
129.436
137.07
145.789
155.493
166.077
177.357
189.109
201.107
213.101
224.833
236.045
246.432
255.662
263.465
269.634
274.022
276.557
277.157
275.74
272.277
266.788
259.358
250.128
239.244
226.864
213.191
198.467
182.991
167.118
151.158
135.358
119.935
105.06
90.909
77.672
65.488
54.433
44.55
35.835
28.272
21.843
16.481
12.068
8.449
5.423
2.809
0.474
-1.705
-3.833
-6.004
-8.337
-10.916
-13.779
-16.96
-20.46
-24.262
-28.354
-32.693
-37.203
-41.81
-46.417
-50.936
-55.305
-59.457
-63.332
-66.888
-70.059
-72.794
-75.058
-76.806
-78.028
-78.753
-79.012
-78.864
-78.374
-77.587
-76.546
-75.295
-73.858
-72.283
-70.615
-68.882
-67.142
-65.464
-63.921
-62.625
-61.646
-60.985
-60.63
-60.527
-60.601
-60.816
-61.13
-61.502
-61.908
-62.302
-62.642
-62.907
-63.045
-62.98
-62.618
-61.803
-60.401
-58.352
-55.621
-52.235
-48.263
-43.753
-38.778
-33.43
-27.79
-21.966
-16.05
-10.109
-4.228
1.496
6.942
11.926
16.264
19.812
22.447
24.103
24.766
24.422
23.111
20.921
17.959
14.375
10.307
5.875
1.209
-3.568
-8.319
-12.869
-17.037
-20.659
-23.56
-25.603
-26.681
-26.689
-25.591
-23.41
-20.213
-16.128
-11.288
-5.829
0.093
6.333
12.744
19.173
25.483
31.547
37.219
42.36
46.839
50.514
53.299
55.152
56.074
56.115
55.349
53.868
51.794
49.254
46.377
43.274
40.03
36.711
33.395
30.163
27.098
24.299
21.833
19.749
18.078
16.826
15.984
15.527
15.401
15.539
15.871
16.346
16.94
17.64
18.438
19.324
20.282
21.298
22.365
23.485
24.656
25.88
27.153
28.482
29.883
31.377
32.987
34.715
36.551
38.48
40.485
42.552
44.673
46.829
48.999
51.166
53.313
55.433
57.534
59.622
61.702
63.796
65.92
68.106
70.401
72.831
75.415
78.162
81.063
84.112
87.3
90.594
93.959
97.35
100.695
103.923
106.957
109.686
112.011
113.827
115.004
115.449
115.088
113.856
111.718
108.654
104.656
99.757
94.014
87.492
80.287
72.504
64.255
55.693
46.962
38.2
29.571
21.21
13.231
5.751
-1.145
-7.404
-12.994
-17.946
-22.336
-26.243
-29.77
-33.013
-36.087
-39.157
-42.39
-45.943
-49.976
-54.596
-59.937
-66.211
-73.501
-81.718
-90.596
-99.572
-108.068
-115.679
-121.896
-126.078
-127.874
-127.25
-124.693
-121.511
-118.939
-117.732
-118.656
-122.416
-129.181
-138.492
-148.768
-156.819
-159.302
-153.517
-136.61
-105.804
-58.98
5.417
85.725
175.859
269.697
361.111
447.531
532.842
616.716
694.443
756.099
780.102
749.471
657.559
503.55
305.968
93.533
-107.694
-268.171
-371.193
-418.654
-418.149
-384.818
-333.772
-272.737
-210.345
-158.106
-125.585
-117.777
-130.75
-151.041
-165.747
-168.631
-161.027
-150.229
-141.523
-136.036
-132.367
-127.586
-120.81
-113.089
-105.538
-99.418
-95.461
-93.616
-93.815
-95.892
-99.412
-104.017
-109.399
-115.215
-121.183
-127.069
-132.641
-137.718
-142.206
-146.014
-149.044
-151.21
-152.443
-152.725
-152.084
-150.575
-148.269
-145.249
-141.622
-137.519
-133.064
-128.365
-123.516
-118.591
-113.647
-108.739
-103.907
-99.186
-94.605
-90.176
-85.902
-81.78
-77.797
-73.935
-70.167
-66.452
-62.757
-59.056
-55.329
-51.564
-47.754
-43.894
-39.984
-36.027
-32.024
-27.977
-23.884
-19.745
-15.556
-11.319
-7.033
-2.701
1.673
6.086
10.534
15.016
19.533
24.091
28.69
33.329
38.003
42.708
47.432
52.163
56.878
61.545
66.137
70.627
74.992
79.218
83.283
87.17
90.863
94.349
97.623
100.695
103.577
106.282
108.838
111.275
113.637
115.99
118.381
120.853
123.44
126.166
129.061
132.141
135.405
138.837
142.404
146.047
149.699
153.277
156.671
159.771
162.445
164.538
165.921
166.466
166.062
164.618
162.042
158.274
153.285
147.069
139.65
131.08
121.434
110.824
99.391
87.291
74.708
61.856
48.946
36.206
23.842
12.031
0.944
-9.289
-18.563
-26.796
-33.93
-39.926
-44.768
-48.471
-51.065
-52.592
-53.138
-52.827
-51.817
-50.314
-48.502
-46.537
-44.57
-42.709
-41.043
-39.655
-38.606
-37.953
-37.75
-38.047
-38.909
-40.405
-42.57
-45.398
-48.826
-52.718
-56.936
-61.36
-65.86
-70.342
-74.734
-78.953
-82.931
-86.613
-89.938
-92.83
-95.198
-96.916
-97.859
-97.939
-97.123
-95.458
-93.03
-89.932
-86.276
-82.161
-77.689
-72.982
-68.174
-63.369
-58.654
-54.123
-49.866
-46.019
-42.757
-40.225
-38.529
-37.712
-37.764
-38.662
-40.372
-42.845
-45.998
-49.7
-53.786
-58.126
-62.634
-67.236
-71.874
-76.454
-80.837
-84.906
-88.574
-91.783
-94.506
-96.711
-98.357
-99.424
-99.945
-100.007
-99.738
-99.239
-98.56
-97.737
-96.794
-95.773
-94.736
-93.728
-92.765
-91.859
-91.024
-90.288
-89.701
-89.299
-89.073
-88.983
-88.964
-88.965
-88.964
-88.951
-88.914
-88.839
-88.711
-88.533
-88.324
-88.099
-87.857
-87.589
-87.271
-86.888
-86.446
-85.96
-85.445
-84.917
-84.383
-83.841
-83.291
-82.725
-82.12
-81.455
-80.707
-79.863
-78.925
-77.899
-76.789
-75.608
-74.361
-73.055
-71.697
-70.285
-68.815
-67.301
-65.763
-64.244
-62.81
-61.509
-60.376
-59.439
-58.708
-58.181
-57.849
-57.673
-57.603
-57.604
-57.644
-57.709
-57.794
-57.854
-57.83
-57.647
-57.19
-56.369
-55.1
-53.288
-50.87
-47.822
-44.145
-39.899
-35.17
-30.024
-24.522
-18.718
-12.663
-6.452
-0.197
5.987
11.941
17.511
22.525
26.777
30.101
32.388
33.562
33.611
32.554
30.397
27.157
22.866
17.558
11.297
4.151
-3.817
-12.506
-21.794
-31.526
-41.497
-51.534
-61.502
-71.276
-80.769
-89.911
-98.622
-106.851
-114.563
-121.719
-128.281
-134.204
-139.426
-143.921
-147.684
-150.742
-153.183
-155.09
-156.541
-157.636
-158.447
-159.057
-159.59
-160.153
-160.847
-161.792
-163.071
-164.822
-167.294
-170.588
-174.649
-179.24
-183.823
-187.872
-191.046
-192.871
-192.735
-190.355
-185.833
-179.858
-173.96
-169.591
-167.676
-169.091
-174.621
-184.398
-197.65
-212.286
-224.677
-231.018
-227.853
-211.803
-179.833
-129.306
-60.404
22.943
115.768
212.174
309.19
409.177
510.531
605.936
684.127
726.247
716.988
654.212
540.791
386.656
211.531
31.526
-133.218
-257.044
-330.326
-352.641
-334.851
-302.356
-270.088
-243.934
-224.105
-202.514
-177.436
-152.059
-129.196
-113.142
-104.704
-101.568
-101.828
-103.001
-102.832
-100.627
-96.215
-89.8
-82.191
-74.202
-66.515
-59.995
-55.499
-53.403
-53.769
-56.426
-60.945
-66.949
-74.118
-82.047
-90.312
-98.57
-106.532
-114.013
-120.927
-127.146
-132.516
-136.897
-140.158
-142.228
-143.099
-142.781
-141.311
-138.76
-135.23
-130.868
-125.865
-120.413
-114.695
-108.857
-103.001
-97.243
-91.711
-86.545
-81.89
-77.86
-74.537
-71.993
-70.297
-69.49
-69.583
-70.534
-72.245
-74.588
-77.422
-80.627
-84.098
-87.713
-91.329
-94.777
-97.896
-100.543
-102.598
-103.94
-104.432
-103.958
-102.432
-99.815
-96.125
-91.412
-85.744
-79.19
-71.832
-63.776
-55.155
-46.129
-36.84
-27.411
-17.946
-8.55
0.655
9.567
18.109
26.236
33.929
41.174
47.965
54.299
60.201
65.71
70.89
75.827
80.585
85.218
89.761
94.235
98.653
103.002
107.244
111.317
115.163
118.741
122.014
124.95
127.499
129.608
131.21
132.228
132.591
132.226
131.079
129.119
126.347
122.794
118.519
113.611
108.143
102.177
95.77
88.966
81.815
74.366
66.675
58.8
50.811
42.793
34.821
26.959
19.247
11.705
4.332
-2.891
-9.978
-16.938
-23.772
-30.473
-37.029
-43.425
-49.644
-55.666
-61.482
-67.093
-72.495
-77.69
-82.672
-87.43
-91.95
-96.21
-100.189
-103.863
-107.213
-110.22
-112.863
-115.128
-116.999
-118.471
-119.546
-120.227
-120.53
-120.473
-120.075
-119.355
-118.324
-116.995
-115.384
-113.511
-111.397
-109.078
-106.602
-104.02
-101.397
-98.784
-96.222
-93.74
-91.345
-89.021
-86.737
-84.466
-82.183
-79.871
-77.512
-75.08
-72.56
-69.921
-67.123
-64.12
-60.85
-57.25
-53.273
-48.882
-44.061
-38.843
-33.289
-27.459
-21.43
-15.276
-9.071
-2.918
3.111
8.95
14.532
19.801
24.682
29.088
32.946
36.193
38.768
40.652
41.852
42.366
42.228
41.49
40.214
38.503
36.435
34.05
31.387
28.47
25.328
22.014
18.563
14.992
11.351
7.68
4.027
0.469
-2.957
-6.247
-9.405
-12.477
-15.488
-18.421
-21.264
-23.996
-26.586
-29.018
-31.252
-33.216
-34.887
-36.266
-37.377
-38.29
-39.045
-39.646
-40.1
-40.393
-40.518
-40.489
-40.314
-39.99
-39.536
-38.971
-38.338
-37.71
-37.124
-36.594
-36.109
-35.631
-35.136
-34.624
-34.089
-33.529
-32.946
-32.339
-31.719
-31.113
-30.531
-29.978
-29.445
-28.909
-28.358
-27.797
-27.237
-26.7
-26.201
-25.748
-25.353
-25.032
-24.792
-24.637
-24.561
-24.548
-24.587
-24.67
-24.79
-24.943
-25.121
-25.31
-25.501
-25.68
-25.836
-25.953
-26.01
-25.982
-25.85
-25.601
-25.222
-24.711
-24.065
-23.286
-22.383
-21.378
-20.286
-19.124
-17.899
-16.613
-15.271
-13.884
-12.459
-11.014
-9.557
-8.089
-6.613
-5.125
-3.608
-2.033
-0.351
1.512
3.619
6.025
8.772
11.882
15.374
19.259
23.536
28.2
33.238
38.625
44.35
50.391
56.697
63.204
69.805
76.359
82.735
88.806
94.454
99.597
104.152
108.058
111.284
113.796
115.573
116.592
116.793
116.116
114.51
111.939
108.412
104
98.789
92.866
86.305
79.155
71.457
63.242
54.576
45.467
35.847
25.826
15.675
5.877
-2.772
-9.541
-13.941
-15.367
-13.233
-7.524
1.532
13.006
24.963
35.793
44.216
48.778
48.757
44.68
37.452
29.447
25.06
28.299
43.213
74.626
124.335
190.238
270.196
360.026
456.148
561.714
676.626
793.027
898.914
972.672
992.013
949.324
845.624
690.504
505.951
311.808
128.836
-17.768
-114.801
-157.829
-152.167
-116.677
-67.055
-16.278
25.077
54.775
68.984
68.293
60.836
51.52
46.613
48.736
52.436
55.216
56.421
56.105
57.06
60.225
64.247
67.807
70.3
71.39
70.814
68.65
64.949
59.872
54.28
48.972
43.786
38.6
33.493
28.396
23.571
19.301
15.42
11.76
8.508
5.786
3.705
2.414
1.815
1.77
2.254
3.208
4.543
6.206
8.111
10.145
12.22
14.236
16.12
17.852
19.431
20.855
22.103
23.159
24.043
24.809
25.538
26.318
27.199
28.213
29.396
30.794
32.487
34.556
37.049
39.99
43.387
47.261
51.669
56.656
62.224
68.345
74.957
81.987
89.4
97.172
105.271
113.665
122.302
131.131
140.127
149.271
158.545
167.916
177.314
186.679
195.984
205.217
214.389
223.515
232.58
241.561
250.447
259.218
267.864
276.37
284.706
292.842
300.751
308.43
315.9
323.184
330.296
337.241
344.014
350.618
357.081
363.431
369.685
375.862
381.969
388.014
394.008
399.957
405.849
411.645
417.278
422.662
427.704
432.317
436.423
439.928
442.714
444.669
445.69
445.689
444.598
442.354
438.898
434.191
428.226
421.038
412.703
403.329
393.052
382.004
370.312
358.13
345.635
333.005
320.421
308.045
296.01
284.456
273.527
263.338
253.976
245.486
237.87
231.1
225.123
219.88
215.313
211.34
207.859
204.759
201.919
199.24
196.642
194.038
191.333
188.449
185.322
181.919
178.237
174.282
170.074
165.639
161.002
156.207
151.305
146.352
141.415
136.541
131.764
127.121
122.648
118.378
114.335
110.529
106.955
103.607
100.481
97.566
94.851
92.318
89.944
87.705
85.572
83.526
81.554
79.641
77.777
75.952
74.156
72.387
70.645
68.93
67.235
65.558
63.895
62.242
60.6
58.967
57.343
55.723
54.106
52.487
50.861
49.223
47.566
45.884
44.168
42.413
40.613
38.762
36.856
34.892
32.864
30.768
28.603
26.364
24.05
21.657
19.184
16.63
13.995
11.279
8.483
5.611
2.664
-0.353
-3.436
-6.582
-9.784
-13.038
-16.337
-19.675
-23.046
-26.443
-29.859
-33.285
-36.714
-40.139
-43.552
-46.945
-50.309
-53.638
-56.923
-60.157
-63.333
-66.443
-69.479
-72.437
-75.308
-78.089
-80.775
-83.36
-85.843
-88.222
-90.495
-92.663
-94.726
-96.687
-98.549
-100.314
-101.987
-103.574
-105.08
-106.511
-107.874
-109.177
-110.427
-111.631
-112.799
-113.937
-115.054
-116.159
-117.261
-118.369
-119.49
-120.633
-121.808
-123.023
-124.285
-125.604
-126.985
-128.435
-129.96
-131.563
-133.248
-135.016
-136.866
-138.799
-140.811
-142.9
-145.063
-147.293
-149.585
-151.934
-154.334
-156.776
-159.252
-161.75
-164.259
-166.77
-169.269
-171.747
-174.189
-176.582
-178.914
-181.176
-183.358
-185.448
-187.43
-189.286
-191.003
-192.574
-193.996
-195.265
-196.382
-197.35
-198.181
-198.9
-199.526
-200.076
-200.56
-200.982
-201.354
-201.692
-202.017
-202.348
-202.686
-203.022
-203.347
-203.648
-203.906
-204.085
-204.123
-203.943
-203.482
-202.692
-201.544
-200.011
-198.052
-195.621
-192.68
-189.209
-185.222
-180.747
-175.813
-170.462
-164.754
-158.78
-152.688
-146.631
-140.736
-135.12
-129.878
-125.113
-120.967
-117.583
-115.098
-113.621
-113.217
-113.923
-115.753
-118.704
-122.756
-127.844
-133.843
-140.625
-148.038
-155.977
-164.421
-173.189
-181.943
-190.199
-197.255
-202.48
-205.463
-205.672
-202.521
-195.891
-185.975
-173.549
-160.184
-147.168
-135.401
-125.997
-119.767
-116.613
-115.843
-115.571
-112.627
-104.067
-87.106
-58.524
-15.454
41.908
110.64
187.124
265.716
346.03
433.261
525.015
615.968
692.968
730.453
715.711
644.399
519.051
363.136
197.37
42.028
-77.785
-155.327
-191.184
-193.725
-184.596
-175.367
-170.622
-170.803
-168.014
-160.78
-152.311
-145.159
-143.864
-149.657
-160.372
-174.228
-188.955
-202.122
-212.747
-220.457
-225.092
-227.269
-227.776
-227.231
-226.421
-226.188
-226.937
-228.81
-231.816
-235.69
-240.207
-245.223
-250.516
-255.88
-261.171
-266.263
-271.057
-275.479
-279.414
-282.73
-285.335
-287.166
-288.195
-288.429
-287.875
-286.559
-284.521
-281.812
-278.484
-274.584
-270.159
-265.254
-259.924
-254.235
-248.252
-242.042
-235.66
-229.144
-222.525
-215.822
-209.047
-202.208
-195.305
-188.334
-181.295
-174.192
-167.029
-159.813
-152.546
-145.229
-137.862
-130.445
-122.977
-115.461
-107.898
-100.291
-92.646
-84.965
-77.256
-69.526
-61.779
-54.02
-46.253
-38.483
-30.712
-22.947
-15.193
-7.455
0.258
7.937
15.572
23.152
30.663
38.092
45.425
52.645
59.738
66.685
73.47
80.075
86.48
92.667
98.617
104.309
109.722
114.838
119.635
124.093
128.193
131.916
135.244
138.158
140.643
142.683
144.264
145.372
145.995
146.125
145.751
144.869
143.472
141.561
139.133
136.193
132.745
128.796
124.354
119.431
114.039
108.194
101.912
95.211
88.111
80.635
72.806
64.65
56.192
47.462
38.487
29.298
19.925
10.401
0.756
-8.977
-18.767
-28.58
-38.385
-48.15
-57.844
-67.437
-76.899
-86.202
-95.318
-104.223
-112.892
-121.302
-129.434
-137.268
-144.787
-151.975
-158.819
-165.307
-171.428
-177.175
-182.542
-187.523
-192.118
-196.326
-200.149
-203.592
-206.659
-209.36
-211.704
-213.702
-215.366
-216.711
-217.753
-218.506
-218.989
-219.22
-219.218
-219.001
-218.59
-218.004
-217.264
-216.39
-215.401
-214.317
-213.158
-211.943
-210.689
-209.417
-208.144
-206.887
-205.662
-204.487
-203.375
-202.341
-201.398
-200.556
-199.827
-199.217
-198.733
-198.381
-198.161
-198.076
-198.124
-198.305
-198.616
-199.054
-199.613
-200.291
-201.082
-201.98
-202.979
-204.069
-205.241
-206.483
-207.783
-209.128
-210.502
-211.892
-213.28
-214.651
-215.992
-217.288
-218.525
-219.684
-220.744
-221.687
-222.5
-223.173
-223.7
-224.077
-224.305
-224.389
-224.348
-224.196
-223.95
-223.619
-223.199
-222.686
-222.077
-221.37
-220.567
-219.659
-218.625
-217.438
-216.078
-214.521
-212.741
-210.704
-208.347
-205.621
-202.493
-198.94
-194.974
-190.618
-185.897
-180.844
-175.511
-169.96
-164.284
-158.584
-152.938
-147.428
-142.134
-137.147
-132.59
-128.57
-125.165
-122.434
-120.402
-119.074
-118.45
-118.511
-119.206
-120.467
-122.196
-124.282
-126.644
-129.203
-131.881
-134.594
-137.235
-139.705
-141.934
-143.866
-145.465
-146.704
-147.559
-148.019
-148.104
-147.846
-147.292
-146.498
-145.497
-144.309
-142.96
-141.469
-139.865
-138.173
-136.4
-134.544
-132.606
-130.58
-128.465
-126.259
-123.939
-121.482
-118.862
-116.051
-113.032
-109.798
-106.343
-102.665
-98.766
-94.651
-90.333
-85.83
-81.159
-76.335
-71.375
-66.296
-61.119
-55.869
-50.569
-45.244
-39.92
-34.618
-29.358
-24.165
-19.056
-14.052
-9.171
-4.429
0.155
4.565
8.782
12.785
16.556
20.08
23.345
26.339
29.053
31.477
33.597
35.409
36.911
38.101
38.982
39.556
39.828
39.817
39.551
39.067
38.403
37.592
36.658
35.634
34.549
33.441
32.351
31.309
30.34
29.469
28.719
28.109
27.651
27.329
27.079
26.814
26.447
25.894
25.106
24.049
22.672
20.897
18.648
15.856
12.464
8.476
3.832
-1.614
-7.834
-14.631
-21.572
-27.915
-32.997
-36.397
-37.58
-35.95
-31.402
-24.157
-15.089
-5.956
1.811
7.301
9.499
7.775
2.53
-5.118
-12.771
-16.599
-13.023
1.113
29.137
73.88
135.011
209.268
292.717
379.589
468.616
563.568
660.802
751.743
821.673
848.783
823.73
749.955
636.118
497.281
346.446
192.101
48.229
-67.274
-144.535
-179.612
-178.916
-158.138
-125.072
-84.861
-42.83
-4.021
20.989
25.894
13.494
-6.437
-21.236
-23.894
-15.02
-0.212
15.152
29.207
42.823
58.044
75.385
93.794
111.949
128.536
143.08
155.653
166.257
174.998
182.016
187.423
191.412
194.155
195.743
196.27
195.839
194.563
192.595
190.085
187.171
183.976
180.589
177.083
173.519
169.937
166.366
162.816
159.266
155.693
152.08
148.419
144.738
141.061
137.394
133.74
130.114
126.543
123.085
119.813
116.782
114.039
111.636
109.627
108.095
107.132
106.802
107.138
108.137
109.779
112.062
114.983
118.518
122.626
127.238
132.265
137.65
143.355
149.333
155.537
161.898
168.329
174.772
181.196
187.583
193.924
200.201
206.39
212.487
218.508
224.48
230.44
236.398
242.345
248.28
254.193
260.087
265.967
271.82
277.618
283.332
288.931
294.386
299.672
304.751
309.572
314.09
318.253
322.022
325.369
328.261
330.673
332.587
333.99
334.875
335.251
335.122
334.501
333.409
331.863
329.887
327.503
324.73
321.595
318.12
314.326
310.238
305.873
301.231
296.312
291.109
285.602
279.774
273.606
267.058
260.106
252.734
244.931
236.701
228.045
218.965
209.478
199.605
189.384
178.881
168.178
157.365
146.569
135.903
125.486
115.461
105.951
97.067
88.917
81.584
75.142
69.664
65.204
61.793
59.441
58.112
57.741
58.237
59.458
61.271
63.537
66.085
68.756
71.391
73.822
75.911
77.534
78.564
78.88
78.388
77.011
74.715
71.501
67.397
62.47
56.79
50.432
43.498
36.094
28.334
20.346
12.235
4.087
-4.006
-11.947
-19.657
-27.064
-34.122
-40.813
-47.129
-53.08
-58.68
-63.944
-68.904
-73.601
-78.081
-82.399
-86.593
-90.685
-94.702
-98.669
-102.607
-106.533
-110.451
-114.352
-118.228
-122.068
-125.863
-129.599
-133.257
-136.815
-140.247
-143.527
-146.636
-149.564
-152.301
-154.84
-157.178
-159.314
-161.251
-163
-164.567
-165.958
-167.179
-168.237
-169.141
-169.904
-170.538
-171.055
-171.467
-171.785
-172.018
-172.176
-172.265
-172.291
-172.257
-172.163
-172.011
-171.803
-171.541
-171.226
-170.86
-170.443
-169.977
-169.465
-168.906
-168.299
-167.642
-166.929
-166.156
-165.317
-164.405
-163.414
-162.337
-161.166
-159.896
-158.522
-157.04
-155.441
-153.717
-151.852
-149.835
-147.657
-145.31
-142.79
-140.098
-137.24
-134.227
-131.083
-127.83
-124.49
-121.082
-117.611
-114.076
-110.478
-106.811
-103.077
-99.27
-95.374
-91.372
-87.253
-82.993
-78.571
-73.95
-69.065
-63.854
-58.256
-52.211
-45.696
-38.71
-31.268
-23.409
-15.19
-6.686
2.002
10.762
19.493
28.094
36.47
44.521
52.104
59.076
65.293
70.602
74.892
78.091
80.153
81.089
80.951
79.83
77.871
75.245
72.117
68.64
64.938
61.126
57.353
53.767
50.525
47.81
45.77
44.531
44.196
44.805
46.344
48.748
51.881
55.564
59.612
63.848
68.143
72.401
76.513
80.385
83.907
86.943
89.374
91.083
91.948
91.901
90.918
89.021
86.31
82.938
79.075
74.903
70.56
66.146
61.752
57.458
53.342
49.506
46.04
43.035
40.602
38.827
37.752
37.365
37.59
38.289
39.313
40.521
41.764
42.901
43.795
44.315
44.327
43.744
42.442
40.202
36.956
32.777
27.883
22.801
18.05
13.966
11.079
10.064
11.034
13.761
17.607
21.057
22.943
22.678
19.198
11.555
0.078
-14.163
-29.161
-41.351
-47.557
-45.213
-30.732
-0.462
46.142
106.492
177.116
252.703
331.33
417.605
511.681
606.772
691.564
744.972
747.224
693.569
585.053
430.774
253.059
69.879
-97.742
-223.013
-296.872
-319.498
-302.058
-270.996
-242.036
-221.39
-208.948
-195.478
-178.22
-159.892
-143.356
-133.253
-130.458
-132.457
-137.129
-141.859
-144.44
-144.213
-140.969
-134.888
-126.76
-117.382
-107.405
-97.596
-88.69
-81.023
-74.692
-69.602
-65.437
-61.928
-58.886
-56.091
-53.347
-50.505
-47.419
-43.968
-40.082
-35.692
-30.736
-25.168
-18.93
-11.974
-4.298
4.066
13.055
22.593
32.614
43.062
53.877
64.979
76.268
87.633
98.972
110.199
121.216
131.905
142.116
151.693
160.525
168.54
175.702
181.993
187.386
191.853
195.377
197.961
199.615
200.35
200.159
199.026
196.974
194.059
190.391
186.097
181.276
176.006
170.342
164.33
158.018
151.464
144.721
137.849
130.937
124.086
117.439
111.161
105.391
100.252
95.825
92.161
89.319
87.363
86.361
86.39
87.537
89.857
93.389
98.137
104.052
111.058
119.028
127.785
137.145
146.904
156.87
166.876
176.76
186.35
195.467
203.914
211.472
217.961
223.232
227.168
229.7
230.785
230.42
228.655
225.573
221.288
215.925
209.597
202.42
194.531
186.071
177.199
168.096
158.906
149.743
140.709
131.872
123.281
114.968
106.933
99.152
91.588
84.191
76.902
69.653
62.369
54.984
47.438
39.672
31.655
23.383
14.867
6.148
-2.705
-11.628
-20.55
-29.4
-38.107
-46.588
-54.743
-62.458
-69.63
-76.18
-82.049
-87.194
-91.588
-95.228
-98.139
-100.378
-102.034
-103.182
-103.884
-104.193
-104.159
-103.842
-103.32
-102.682
-101.997
-101.322
-100.698
-100.162
-99.746
-99.467
-99.318
-99.268
-99.269
-99.286
-99.305
-99.323
-99.337
-99.344
-99.329
-99.282
-99.204
-99.1
-98.973
-98.826
-98.659
-98.48
-98.308
-98.172
-98.105
-98.13
-98.258
-98.496
-98.848
-99.317
-99.904
-100.604
-101.406
-102.301
-103.283
-104.344
-105.482
-106.689
-107.952
-109.26
-110.599
-111.958
-113.325
-114.693
-116.049
-117.387
-118.698
-119.978
-121.222
-122.425
-123.583
-124.689
-125.737
-126.723
-127.642
-128.491
-129.266
-129.963
-130.581
-131.12
-131.579
-131.959
-132.262
-132.488
-132.641
-132.723
-132.736
-132.684
-132.568
-132.393
-132.16
-131.873
-131.536
-131.151
-130.72
-130.248
-129.737
-129.188
-128.606
-127.99
-127.345
-126.67
-125.968
-125.242
-124.492
-123.721
-122.931
-122.123
-121.301
-120.466
-119.62
-118.764
-117.9
-117.027
-116.147
-115.26
-114.367
-113.467
-112.562
-111.65
-110.733
-109.812
-108.886
-107.957
-107.025
-106.091
-105.157
-104.224
-103.293
-102.367
-101.449
-100.539
-99.642
-98.76
-97.896
-97.051
-96.228
-95.427
-94.649
-93.894
-93.161
-92.448
-91.754
-91.077
-90.415
-89.767
-89.13
-88.503
-87.886
-87.278
-86.676
-86.08
-85.486
-84.891
-84.291
-83.683
-83.063
-82.426
-81.767
-81.08
-80.365
-79.617
-78.83
-77.996
-77.102
-76.137
-75.099
-73.985
-72.794
-71.53
-70.2
-68.82
-67.416
-66.015
-64.639
-63.307
-62.027
-60.809
-59.673
-58.636
-57.719
-56.937
-56.283
-55.749
-55.332
-55.012
-54.756
-54.503
-54.156
-53.621
-52.826
-51.702
-50.196
-48.252
-45.802
-42.787
-39.167
-34.913
-30.029
-24.523
-18.399
-11.699
-4.508
3.03
10.697
18.266
25.535
32.306
38.392
43.585
47.638
50.309
51.372
50.62
47.913
43.068
35.841
26.136
14.028
-0.169
-15.814
-32.256
-49.002
-65.462
-80.961
-95.039
-107.414
-118.373
-128.934
-140.122
-152.695
-167.275
-184.249
-203.652
-225.154
-247.304
-267.344
-282.04
-288.174
-282.975
-263.908
-228.605
-175.249
-103.247
-15.889
80.049
178.472
273.395
364.287
456.558
547.951
632.038
694.757
711.202
669.881
570.326
420.381
245.552
67.063
-98.93
-233.908
-331.597
-389.678
-408.662
-400.226
-374.253
-340.48
-310.429
-288.582
-279.449
-283.533
-293.189
-303.051
-307.51
-304.453
-298.907
-293.567
-289.503
-286.264
-280.539
-271.101
-258.573
-243.756
-227.975
-212.085
-196.404
-181.434
-167.572
-154.883
-143.293
-132.634
-122.731
-113.501
-104.888
-96.756
-88.979
-81.468
-74.139
-66.943
-59.837
-52.77
-45.749
-38.83
-32.061
-25.505
-19.215
-13.219
-7.573
-2.326
2.512
6.912
10.849
14.299
17.194
19.486
21.174
22.278
22.873
23.07
22.954
22.604
22.103
21.519
20.947
20.482
20.18
20.104
20.336
20.969
22.148
24.01
26.624
30.032
34.242
39.232
45.017
51.602
58.969
67.092
75.917
85.385
95.47
106.134
117.306
128.888
140.73
152.688
164.68
176.633
188.479
200.154
211.55
222.583
233.209
243.395
253.126
262.38
271.106
279.268
286.859
293.887
300.387
306.387
311.859
316.793
321.198
325.098
328.557
331.617
334.275
336.53
338.376
339.817
340.874
341.56
341.862
341.777
341.299
340.44
339.247
337.746
335.942
333.825
331.363
328.542
325.374
321.87
318.039
313.893
309.442
304.705
299.723
294.525
289.133
283.562
277.811
271.892
265.833
259.666
253.431
247.164
240.893
234.646
228.455
222.348
216.347
210.468
204.715
199.098
193.627
188.315
183.174
178.213
173.435
168.841
164.433
160.208
156.165
152.3
148.607
145.081
141.716
138.507
135.448
132.531
129.747
127.085
124.535
122.086
119.729
117.452
115.245
113.101
111.012
108.966
106.953
104.953
102.956
100.954
98.942
96.919
94.89
92.863
90.858
88.901
87.005
85.181
83.432
81.748
80.123
78.553
77.03
75.56
74.146
72.779
71.46
70.182
68.917
67.633
66.27
64.751
63.03
61.074
58.871
56.441
53.81
51.008
48.092
45.102
42.078
39.072
36.125
33.284
30.627
28.249
26.27
24.842
24.077
24.054
24.834
26.424
28.815
31.978
35.839
40.32
45.346
50.823
56.662
62.768
69.004
75.211
81.212
86.805
91.816
96.104
99.536
102.021
103.482
103.871
103.189
101.45
98.686
94.942
90.276
84.76
78.506
71.655
64.356
56.764
49.017
41.246
33.597
26.211
19.245
12.823
7.044
1.999
-2.246
-5.629
-8.105
-9.662
-10.323
-10.132
-9.136
-7.37
-4.849
-1.612
2.267
6.683
11.492
16.571
21.8
27.045
32.184
37.079
41.613
45.711
49.329
52.431
54.978
56.908
58.135
58.609
58.317
57.282
55.565
53.215
50.289
46.873
43.067
38.989
34.738
30.374
25.932
21.444
16.954
12.523
8.231
4.127
0.241
-3.413
-6.839
-10.033
-13.003
-15.778
-18.41
-20.964
-23.483
-25.988
-28.478
-30.956
-33.429
-35.912
-38.422
-40.961
-43.526
-46.117
-48.735
-51.382
-54.055
-56.737
-59.401
-62.021
-64.575
-67.055
-69.458
-71.784
-74.033
-76.207
-78.313
-80.366
-82.379
-84.362
-86.32
-88.261
-90.193
-92.123
-94.061
-96.019
-98.007
-100.045
-102.152
-104.342
-106.629
-109.021
-111.518
-114.113
-116.792
-119.528
-122.293
-125.06
-127.802
-130.503
-133.142
-135.699
-138.145
-140.436
-142.524
-144.374
-145.952
-147.228
-148.203
-148.898
-149.364
-149.691
-149.965
-150.258
-150.657
-151.253
-152.145
-153.447
-155.261
-157.674
-160.815
-164.855
-169.862
-175.774
-182.345
-189.114
-195.61
-201.467
-206.269
-209.474
-210.77
-210.202
-208.216
-205.838
-204.069
-203.372
-204.093
-206.7
-211.23
-217.094
-223.015
-226.562
-225.006
-216.469
-199.331
-171.646
-131.821
-78.855
-12.305
64.818
146.475
228.006
304.364
375.313
446.887
518.436
585.806
637.166
648.889
608.679
513.073
365.767
189.715
6.699
-163.835
-296.941
-381.971
-419.873
-415.39
-385.594
-346.305
-300.845
-255.124
-214.22
-179.463
-161.058
-161.771
-173.861
-192.652
-208.584
-216.227
-220.116
-222.352
-224.811
-228.455
-230.055
-227.882
-222.766
-216.161
-209.864
-205.071
-201.879
-200.04
-199.597
-200.722
-203.198
-206.507
-210.196
-213.822
-217.154
-220.164
-222.7
-224.562
-225.671
-226.022
-225.651
-224.654
-223.105
-221.029
-218.491
-215.57
-212.335
-208.881
-205.301
-201.689
-198.168
-194.876
-191.924
-189.402
-187.375
-185.856
-184.837
-184.284
-184.119
-184.272
-184.682
-185.289
-186.053
-186.934
-187.878
-188.831
-189.73
-190.496
-191.066
-191.389
-191.417
-191.133
-190.536
-189.638
-188.479
-187.095
-185.503
-183.716
-181.736
-179.555
-177.17
-174.577
-171.765
-168.742
-165.518
-162.101
-158.505
-154.738
-150.799
-146.693
-142.419
-137.972
-133.353
-128.565
-123.614
-118.517
-113.299
-107.986
-102.608
-97.184
-91.721
-86.224
-80.696
-75.125
-69.492
-63.772
-57.933
-51.963
-45.871
-39.669
-33.372
-26.992
-20.532
-14.004
-7.435
-0.849
5.719
12.219
18.591
24.742
30.547
35.888
40.643
44.716
48.046
50.573
52.239
52.996
52.796
51.601
49.385
46.119
41.769
36.343
29.877
22.458
14.216
5.27
-4.265
-14.279
-24.68
-35.372
-46.252
-57.232
-68.223
-79.116
-89.79
-100.113
-109.939
-119.164
-127.728
-135.606
-142.801
-149.31
-155.118
-160.224
-164.633
-168.349
-171.377
-173.714
-175.366
-176.388
-176.871
-176.911
-176.625
-176.105
-175.415
-174.613
-173.752
-172.886
-172.081
-171.403
-170.91
-170.673
-170.771
-171.285
-172.284
-173.79
-175.799
-178.307
-181.292
-184.729
-188.597
-192.864
-197.497
-202.476
-207.757
-213.276
-218.96
-224.718
-230.454
-236.078
-241.497
-246.637
-251.431
-255.803
-259.7
-263.096
-265.958
-268.271
-270.006
-271.112
-271.565
-271.373
-270.555
-269.144
-267.162
-264.618
-261.536
-257.951
-253.903
-249.451
-244.619
-239.414
-233.857
-227.966
-221.774
-215.351
-208.751
-202.006
-195.153
-188.233
-181.306
-174.465
-167.8
-161.381
-155.265
-149.497
-144.137
-139.257
-134.909
-131.139
-127.98
-125.432
-123.488
-122.151
-121.414
-121.249
-121.616
-122.422
-123.538
-124.866
-126.314
-127.802
-129.26
-130.605
-131.765
-132.682
-133.304
-133.601
-133.557
-133.139
-132.321
-131.09
-129.435
-127.401
-125.08
-122.541
-119.841
-117.028
-114.129
-111.178
-108.217
-105.268
-102.34
-99.44
-96.563
-93.723
-90.948
-88.253
-85.66
-83.156
-80.69
-78.232
-75.758
-73.253
-70.717
-68.144
-65.52
-62.848
-60.149
-57.439
-54.74
-52.059
-49.392
-46.739
-44.101
-41.489
-38.93
-36.445
-34.048
-31.753
-29.57
-27.511
-25.591
-23.815
-22.177
-20.671
-19.294
-18.044
-16.924
-15.935
-15.075
-14.343
-13.734
-13.246
-12.874
-12.611
-12.45
-12.38
-12.39
-12.472
-12.616
-12.814
-13.055
-13.33
-13.631
-13.949
-14.277
-14.6
-14.904
-15.177
-15.411
-15.602
-15.745
-15.842
-15.895
-15.915
-15.921
-15.927
-15.949
-15.997
-16.075
-16.192
-16.355
-16.567
-16.833
-17.148
-17.492
-17.847
-18.184
-18.468
-18.657
-18.698
-18.516
-18.06
-17.275
-16.114
-14.546
-12.527
-10.028
-7.039
-3.548
0.43
4.855
9.681
14.842
20.245
25.805
31.415
36.952
42.322
47.42
52.146
56.42
60.139
63.215
65.577
67.137
67.835
67.66
66.623
64.801
62.296
59.165
55.491
51.338
46.752
41.863
36.725
31.318
25.811
20.482
15.792
12.527
11.335
12.636
16.971
24.645
35.436
48.864
63.668
77.952
90.243
99.177
103.461
102.846
98.053
90.647
83.763
81.082
85.97
102.387
133.945
182.779
247.701
323.862
405.706
487.261
568.133
652.562
737.108
815.638
874.253
888.302
847.677
750.558
602.113
429.311
255.143
100.026
-11.79
-76.797
-99.875
-91.409
-73.252
-56.64
-44.664
-36.886
-26.431
-12.01
3.339
17.005
25.459
28.301
27.768
25.677
24.188
25.134
29.04
35.98
45.624
57.087
69.477
82.019
93.829
104.04
112.165
117.985
121.486
122.89
122.4
120.18
116.47
111.542
105.647
99.048
92
84.725
77.456
70.435
63.863
57.922
52.757
48.452
45.061
42.607
41.088
40.483
40.753
41.829
43.625
46.043
48.964
52.266
55.83
59.533
63.275
66.977
70.576
74.037
77.342
80.484
83.467
86.304
89.011
91.612
94.136
96.612
99.076
101.568
104.127
106.796
109.61
112.591
115.762
119.137
122.724
126.524
130.531
134.737
139.131
143.7
148.425
153.281
158.245
163.292
168.4
173.55
178.72
183.891
189.049
194.177
199.273
204.344
209.4
214.455
219.533
224.659
229.871
235.225
240.759
246.51
252.51
258.777
265.342
272.222
279.412
286.895
294.634
302.567
310.63
318.747
326.817
334.743
342.41
349.686
356.469
362.657
368.156
372.88
376.733
379.648
381.6
382.596
382.676
381.909
380.376
378.179
375.458
372.349
369.001
365.575
362.207
359.039
356.223
353.91
352.271
351.449
351.535
352.588
354.626
357.649
361.657
366.626
372.504
379.245
386.806
395.144
404.242
414.062
424.546
435.623
447.195
459.191
471.583
484.374
497.6
511.295
525.473
540.161
555.386
571.153
587.438
604.18
621.278
638.641
656.194
673.862
691.569
709.2
726.581
743.498
759.699
774.929
788.936
801.454
812.213
820.971
827.534
831.762
833.566
832.857
829.542
823.559
814.885
803.563
789.702
773.459
755.042
734.691
712.686
689.348
665.028
640.073
614.795
589.477
564.375
539.756
515.882
492.967
471.175
450.612
431.339
413.399
396.794
381.489
367.396
354.387
342.302
330.973
320.237
309.932
299.898
289.963
279.981
269.85
259.511
248.955
238.178
227.176
215.972
204.603
193.142
181.675
170.299
159.117
148.248
137.825
127.981
118.856
110.554
103.146
96.686
91.18
86.629
83.038
80.374
78.598
77.661
77.501
78.052
79.249
80.989
83.158
85.644
88.304
91.011
93.633
96.015
98.035
99.572
100.505
100.749
100.224
98.848
96.562
93.313
89.042
83.713
77.292
69.741
61.073
51.325
40.565
28.918
16.502
3.446
-10.101
-24.007
-38.139
-52.354
-66.534
-80.561
-94.294
-107.587
-120.278
-132.193
-143.209
-153.239
-162.227
-170.168
-177.065
-182.941
-187.853
-191.863
-195.036
-197.446
-199.151
-200.217
-200.742
-200.84
-200.651
-200.32
-199.957
-199.645
-199.452
-199.417
-199.572
-199.93
-200.476
-201.191
-202.055
-203.05
-204.163
-205.374
-206.639
-207.905
-209.109
-210.194
-211.119
-211.865
-212.422
-212.798
-213.018
-213.105
-213.095
-213.016
-212.885
-212.717
-212.525
-212.319
-212.12
-211.949
-211.824
-211.767
-211.798
-211.918
-212.118
-212.369
-212.62
-212.835
-212.999
-213.105
-213.167
-213.208
-213.252
-213.34
-213.531
-213.871
-214.405
-215.162
-216.156
-217.419
-218.995
-220.943
-223.337
-226.228
-229.631
-233.558
-238.006
-242.955
-248.373
-254.198
-260.335
-266.699
-273.222
-279.838
-286.495
-293.121
-299.631
-305.937
-311.944
-317.579
-322.782
-327.489
-331.635
-335.168
-338.057
-340.301
-341.934
-343.003
-343.548
-343.629
-343.316
-342.673
-341.787
-340.763
-339.71
-338.742
-337.982
-337.531
-337.534
-338.212
-339.696
-341.959
-344.798
-347.75
-350.312
-352.108
-352.693
-351.482
-348.156
-342.83
-336.169
-329.645
-324.842
-322.872
-324.733
-331.386
-343.12
-359.239
-377.788
-395.242
-407.645
-411.409
-403.085
-379.331
-337.29
-277.236
-202.915
-119.072
-31.884
56.747
149.858
244.031
331.616
398.997
425.107
399.608
323.301
203.214
54.596
-108.012
-272.814
-424.011
-543.557
-620.697
-652.955
-649.658
-630.814
-610.041
-593.416
-580.8
-565.98
-548.068
-530.025
-514.716
-505.892
-504.012
-506.912
-512.775
-519.228
-524.078
-526.542
-526.368
-523.728
-519.381
-514.04
-508.27
-502.813
-498.433
-495.501
-494.093
-494.042
-494.927
-496.406
-498.235
-500.147
-501.878
-503.206
-503.935
-503.928
-503.143
-501.553
-499.121
-495.826
-491.636
-486.539
-480.584
-473.864
-466.489
-458.569
-450.194
-441.444
-432.412
-423.202
-413.914
-404.637
-395.427
-386.323
-377.366
-368.602
-360.079
-351.84
-343.902
-336.261
-328.911
-321.848
-315.077
-308.601
-302.418
-296.519
-290.898
-285.557
-280.503
-275.745
-271.291
-267.138
-263.284
-259.722
-256.444
-253.446
-250.729
-248.288
-246.12
-244.226
-242.605
-241.26
-240.203
-239.443
-238.986
-238.836
-238.98
-239.406
-240.103
-241.065
-242.292
-243.769
-245.464
-247.333
-249.337
-251.436
-253.585
-255.721
-257.743
-259.544
-261.025
-262.099
-262.715
-262.832
-262.405
-261.386
-259.742
-257.485
-254.664
-251.354
-247.609
-243.452
-238.936
-234.169
-229.339
-224.681
-220.424
-216.747
-213.834
-211.893
-211.021
-211.228
-212.36
-214.032
-215.884
-217.601
-218.818
-219.303
-219.154
-218.786
-218.984
-220.734
-224.727
-231.398
-241.106
-253.821
-268.729
-283.925
-296.58
-303.713
-302.801
-292.013
-269.943
-235.533
-188.941
-132.272
-69.107
-3.542
60.376
119.561
171.494
213.536
244.174
263.741
273.842
276.975
276.019
272.898
269.067
266.335
265.813
267.694
271.635
276.528
280.953
284.241
286.099
286.128
284.317
280.854
276.004
270.421
264.865
259.72
255.17
251.32
248.098
245.463
243.398
241.75
240.335
239.035
237.755
236.429
235.028
233.478
231.688
229.603
227.19
224.437
221.364
217.998
214.375
210.544
206.565
202.499
198.403
194.328
190.318
186.415
182.661
179.094
175.747
172.637
169.78
167.186
164.861
162.816
161.053
159.568
158.358
157.408
156.711
156.26
156.045
156.056
156.296
156.771
157.505
158.53
159.855
161.475
163.374
165.508
167.83
170.287
172.801
175.313
177.768
180.111
182.303
184.306
186.063
187.513
188.578
189.165
189.213
188.682
187.543
185.804
183.484
180.625
177.301
173.575
169.497
165.111
160.445
155.523
150.39
145.091
139.682
134.236
128.808
123.442
118.182
113.044
108.032
103.135
98.313
93.535
88.785
84.056
79.352
74.685
70.057
65.474
60.943
56.46
52.024
47.637
43.297
39.014
34.806
30.697
26.727
22.931
19.334
15.956
12.813
9.914
7.266
4.874
2.734
0.844
-0.792
-2.175
-3.297
-4.159
-4.763
-5.113
-5.213
-5.071
-4.691
-4.079
-3.243
-2.187
-0.914
0.576
2.287
4.22
6.371
8.732
11.293
14.038
16.949
20.003
23.161
26.39
29.66
32.942
36.216
39.462
42.653
45.772
48.802
51.733
54.572
57.33
60.02
62.669
65.31
67.981
70.746
73.658
76.759
80.09
83.674
87.526
91.664
96.088
100.774
105.675
110.716
115.793
120.809
125.644
130.17
134.271
137.807
140.643
142.669
143.777
143.876
142.903
140.788
137.48
132.993
127.377
120.736
113.243
105.064
96.375
87.374
78.229
69.122
60.245
51.757
43.813
36.562
30.116
24.6
20.126
16.712
14.323
12.852
12.108
11.93
12.148
12.544
12.933
13.122
12.891
12.105
10.599
8.12
4.584
0.021
-5.424
-11.266
-17.014
-22.315
-26.572
-29.086
-29.65
-28.348
-25.765
-23.309
-22.079
-22.694
-26.144
-33.303
-44.025
-57.454
-71.478
-82.476
-87.426
-83.754
-68.118
-37.429
10.406
74.708
150.859
233.132
316.006
398.693
484.517
570.545
649.622
707.709
724.098
689.413
604.765
477.616
324.416
160.997
-0.196
-142.625
-249.052
-309.688
-321.408
-292.333
-240.345
-182.285
-132.107
-97.292
-80
-77.602
-82.277
-88.655
-91.709
-89.704
-87.148
-85.772
-85.917
-87.39
-87.147
-83.995
-78.678
-71.813
-64.493
-57.675
-51.699
-46.727
-42.848
-39.857
-37.374
-35.132
-32.921
-30.533
-27.828
-24.685
-20.966
-16.61
-11.624
-6.035
0.098
6.721
13.77
21.154
28.75
36.387
43.905
51.169
58.064
64.513
70.46
75.839
80.598
84.718
88.196
91.079
93.446
95.347
96.834
97.967
98.809
99.462
100.028
100.577
101.16
101.82
102.587
103.509
104.628
105.945
107.444
109.084
110.798
112.549
114.308
116.041
117.725
119.326
120.812
122.183
123.448
124.604
125.635
126.503
127.161
127.598
127.818
127.836
127.684
127.39
126.986
126.53
126.071
125.646
125.287
124.996
124.769
124.628
124.617
124.804
125.275
126.093
127.311
128.991
131.183
133.922
137.208
140.986
145.191
149.769
154.67
159.857
165.29
170.893
176.569
182.206
187.675
192.848
197.592
201.746
205.144
207.642
209.148
209.622
209.05
207.411
204.69
200.88
195.998
190.093
183.225
175.447
166.823
157.428
147.354
136.719
125.65
114.247
102.585
90.721
78.704
66.602
54.481
42.384
30.336
18.344
6.431
-5.351
-16.943
-28.297
-39.363
-50.086
-60.39
-70.151
-79.243
-87.571
-95.059
-101.663
-107.35
-112.061
-115.736
-118.323
-119.796
-120.157
-119.428
-117.615
-114.739
-110.87
-106.132
-100.717
-94.819
-88.582
-82.116
-75.505
-68.818
-62.145
-55.569
-49.15
-42.931
-36.953
-31.251
-25.889
-20.927
-16.37
-12.166
-8.21
-4.382
-0.609
3.151
6.927
10.736
14.603
18.542
22.539
26.567
30.618
34.69
38.803
42.994
47.254
51.544
55.797
59.929
63.884
67.625
71.117
74.326
77.226
79.796
82.046
83.994
85.648
87.009
88.068
88.812
89.251
89.411
89.321
89.02
88.536
87.889
87.101
86.194
85.186
84.084
82.871
81.521
80.005
78.299
76.382
74.23
71.806
69.074
66.006
62.577
58.777
54.6
50.049
45.13
39.856
34.27
28.439
22.452
16.422
10.457
4.661
-0.858
-5.992
-10.64
-14.713
-18.138
-20.859
-22.827
-24.001
-24.349
-23.848
-22.514
-20.399
-17.599
-14.243
-10.467
-6.403
-2.182
2.075
6.257
10.265
14.016
17.445
20.486
23.074
25.141
26.62
27.479
27.72
27.385
26.555
25.322
23.782
22.022
20.115
18.123
16.094
14.062
12.047
10.074
8.171
6.377
4.742
3.294
2.047
0.986
0.07
-0.752
-1.54
-2.345
-3.208
-4.158
-5.208
-6.363
-7.615
-8.956
-10.378
-11.88
-13.473
-15.164
-16.957
-18.844
-20.805
-22.809
-24.823
-26.819
-28.776
-30.678
-32.523
-34.312
-36.058
-37.787
-39.525
-41.294
-43.105
-44.956
-46.838
-48.747
-50.678
-52.633
-54.605
-56.57
-58.501
-60.375
-62.166
-63.846
-65.376
-66.687
-67.717
-68.417
-68.748
-68.707
-68.303
-67.548
-66.463
-65.083
-63.459
-61.674
-59.82
-57.967
-56.178
-54.502
-53.003
-51.777
-50.913
-50.481
-50.525
-51.056
-52.063
-53.529
-55.425
-57.689
-60.238
-62.955
-65.71
-68.41
-70.999
-73.461
-75.775
-77.895
-79.776
-81.366
-82.653
-83.668
-84.461
-85.102
-85.664
-86.215
-86.883
-87.896
-89.393
-91.361
-93.589
-95.557
-96.752
-96.832
-95.405
-92.014
-86.477
-78.945
-70.098
-61.441
-54.491
-50.298
-49.826
-53.808
-62.286
-74.565
-88.841
-101.665
-109.293
-108.619
-96.457
-69.976
-27.36
32.435
107.044
190.009
275.23
356.574
432.329
506.008
574.694
633.008
669.78
665.111
611.747
508.816
360.278
188.422
12.494
-147.724
-266.254
-335.852
-358.616
-345.09
-319.049
-293.792
-273.501
-257.036
-236.149
-209.125
-179.092
-149.445
-125.519
-109.094
-99.187
-95.706
-97.296
-101.982
-108.942
-116.991
-124.622
-131.414
-136.949
-140.27
-141.261
-140.384
-137.923
-134.678
-131.694
-129.278
-127.651
-127.229
-127.992
-129.809
-132.58
-135.819
-138.927
-141.641
-143.791
-145.253
-146.081
-146.25
-145.692
-144.49
-142.763
-140.607
-138.13
-135.378
-132.349
-129.087
-125.66
-122.137
-118.594
-115.065
-111.55
-108.057
-104.597
-101.188
-97.854
-94.597
-91.398
-88.237
-85.087
-81.933
-78.762
-75.551
-72.272
-68.896
-65.4
-61.77
-58.007
-54.107
-50.063
-45.871
-41.52
-37.006
-32.327
-27.477
-22.455
-17.255
-11.874
-6.311
-0.565
5.359
11.454
17.717
24.142
30.727
37.469
44.363
51.396
58.554
65.82
73.173
80.591
88.042
95.484
102.874
110.174
117.351
124.39
131.268
137.962
144.452
150.711
156.733
162.522
168.075
173.385
178.445
183.251
187.829
192.225
196.479
200.624
204.675
208.628
212.487
216.253
219.91
223.432
226.76
229.819
232.551
234.912
236.859
238.343
239.278
239.545
239.048
237.693
235.414
232.162
227.877
222.521
216.098
208.643
200.235
190.984
180.979
170.309
159.072
147.371
135.358
123.209
111.091
99.181
87.636
76.604
66.247
56.696
48.037
40.321
33.555
27.717
22.787
18.739
15.528
13.105
11.386
10.264
9.633
9.363
9.339
9.453
9.581
9.62
9.492
9.138
8.53
7.671
6.562
5.213
3.648
1.888
-0.021
-2.019
-4.051
-6.055
-7.987
-9.819
-11.506
-13.009
-14.297
-15.34
-16.134
-16.695
-17.034
-17.167
-17.118
-16.916
-16.616
-16.284
-15.96
-15.67
-15.413
-15.171
-14.939
-14.71
-14.472
-14.216
-13.923
-13.571
-13.155
-12.671
-12.094
-11.391
-10.502
-9.356
-7.919
-6.181
-4.151
-1.86
0.66
3.364
6.182
9.054
11.928
14.766
17.553
20.271
22.881
25.334
27.567
29.505
31.102
32.323
33.129
33.516
33.495
33.098
32.402
31.469
30.339
29.041
27.586
25.986
24.273
22.475
20.616
18.739
16.873
15.059
13.35
11.774
10.336
9.023
7.791
6.606
5.453
4.32
3.202
2.099
1.002
-0.086
-1.153
-2.196
-3.218
-4.231
-5.259
-6.316
-7.399
-8.5
-9.601
-10.685
-11.748
-12.781
-13.778
-14.735
-15.652
-16.538
-17.406
-18.269
-19.134
-20.006
-20.884
-21.771
-22.674
-23.599
-24.553
-25.542
-26.569
-27.64
-28.762
-29.937
-31.169
-32.456
-33.796
-35.186
-36.626
-38.114
-39.648
-41.224
-42.836
-44.479
-46.152
-47.847
-49.559
-51.278
-52.996
-54.703
-56.394
-58.059
-59.687
-61.264
-62.771
-64.198
-65.537
-66.785
-67.94
-69.005
-69.985
-70.895
-71.758
-72.597
-73.43
-74.27
-75.123
-76.002
-76.924
-77.91
-78.981
-80.144
-81.394
-82.721
-84.113
-85.546
-86.985
-88.372
-89.636
-90.719
-91.587
-92.223
-92.625
-92.788
-92.705
-92.373
-91.808
-91.049
-90.152
-89.179
-88.202
-87.311
-86.624
-86.291
-86.468
-87.274
-88.785
-91.037
-94.047
-97.828
-102.384
-107.702
-113.732
-120.4
-127.616
-135.282
-143.284
-151.481
-159.695
-167.711
-175.337
-182.426
-188.893
-194.72
-199.905
-204.452
-208.381
-211.711
-214.496
-216.829
-218.809
-220.538
-222.139
-223.72
-225.461
-227.626
-230.34
-233.545
-236.98
-240.108
-242.391
-243.461
-242.887
-240.103
-234.815
-227.118
-217.58
-207.438
-197.935
-189.733
-183.313
-179.246
-177.63
-177.819
-178.339
-176.448
-168.933
-153.462
-128.145
-90.778
-39.603
26.217
106.752
198.287
293.781
387.907
475.375
555.678
634.298
709.724
777.201
825.138
831.12
784.968
684.148
532.96
356.467
176.422
13.247
-108.282
-183.118
-212.628
-201.74
-167.904
-122.189
-74.057
-36.991
-17.281
-18.172
-37.066
-61.34
-80.435
-89.317
-88.52
-85.42
-85.159
-88.11
-92.832
-96.162
-96.791
-95.774
-94.194
-93.008
-92.782
-93.65
-95.674
-98.853
-102.974
-107.68
-112.693
-117.829
-122.919
-127.789
-132.269
-136.174
-139.375
-141.81
-143.414
-144.163
-144.102
-143.317
-141.932
-140.113
-138.007
-135.748
-133.484
-131.345
-129.443
-127.9
-126.819
-126.291
-126.417
-127.26
-128.836
-131.125
-134.044
-137.477
-141.309
-145.405
-149.632
-153.877
-158.018
-161.952
-165.591
-168.828
-171.543
-173.615
-174.919
-175.359
-174.892
-173.499
-171.188
-167.986
-163.916
-159.024
-153.365
-146.985
-139.914
-132.172
-123.782
-114.804
-105.348
-95.542
-85.518
-75.389
-65.245
-55.176
-45.28
-35.655
-26.379
-17.508
-9.083
-1.152
6.205
12.894
18.844
24.023
28.45
32.164
35.203
37.601
39.401
40.667
41.483
41.945
42.117
42.033
41.727
41.234
40.616
39.95
39.287
38.651
38.043
37.453
36.875
36.308
35.723
35.073
34.298
33.327
32.121
30.663
28.932
26.912
24.578
21.9
18.865
15.476
11.735
7.65
3.225
-1.538
-6.617
-11.98
-17.588
-23.402
-29.392
-35.538
-41.819
-48.213
-54.702
-61.264
-67.884
-74.552
-81.251
-87.962
-94.662
-101.33
-107.946
-114.494
-120.96
-127.325
-133.573
-139.685
-145.641
-151.424
-157.01
-162.378
-167.5
-172.353
-176.911
-181.153
-185.055
-188.596
-191.755
-194.515
-196.859
-198.771
-200.234
-201.226
-201.73
-201.735
-201.234
-200.221
-198.697
-196.664
-194.13
-191.116
-187.643
-183.729
-179.395
-174.647
-169.492
-163.941
-158.005
-151.698
-145.03
-137.993
-130.58
-122.787
-114.611
-106.047
-97.085
-87.69
-77.839
-67.518
-56.722
-45.478
-33.822
-21.79
-9.427
3.205
16.031
28.949
41.843
54.618
67.179
79.433
91.284
102.604
113.276
123.211
132.332
140.596
147.977
154.451
160.014
164.691
168.53
171.609
174.029
175.863
177.175
178.034
178.507
178.687
178.656
178.474
178.188
177.832
177.43
177.012
176.598
176.178
175.729
175.213
174.576
173.79
172.833
171.681
170.32
168.728
166.894
164.825
162.537
160.04
157.345
154.457
151.377
148.12
144.693
141.098
137.349
133.459
129.441
125.323
121.126
116.865
112.558
108.211
103.826
99.42
95.006
90.593
86.21
81.894
77.706
73.742
70.072
66.738
63.77
61.167
58.92
57.019
55.429
54.092
52.954
51.947
51.014
50.111
49.163
48.062
46.669
44.803
42.318
39.117
35.119
30.277
24.566
17.978
10.568
2.449
-6.257
-15.417
-24.896
-34.574
-44.284
-53.809
-62.91
-71.317
-78.8
-85.18
-90.289
-93.979
-96.121
-96.622
-95.466
-92.714
-88.454
-82.791
-75.849
-67.757
-58.705
-48.937
-38.71
-28.293
-17.918
-7.777
1.936
11.037
19.338
26.691
33.008
38.257
42.439
45.572
47.696
48.872
49.218
48.894
48.063
46.895
45.517
44.031
42.541
41.146
39.955
39.058
38.509
38.335
38.547
39.141
40.099
41.395
42.961
44.706
46.547
48.398
50.221
52.006
53.747
55.437
57.073
58.644
60.165
61.661
63.161
64.701
66.315
68.031
69.895
71.963
74.272
76.832
79.59
82.446
85.3
88.062
90.672
93.052
95.091
96.659
97.631
97.886
97.369
96.001
93.601
90.149
85.783
80.823
75.925
71.715
68.572
66.994
67.578
70.41
75.294
81.591
87.803
92.801
96.041
96.659
94.012
88.556
81.309
74.321
71.094
74.375
86.419
110.363
148.818
203.206
272.236
350.908
433.409
514.219
593.009
673.899
754.395
829.031
884.615
897.829
858.188
763.713
619.424
448.715
272.024
106.493
-26.765
-119.394
-169.069
-176.99
-155.954
-117.737
-73.426
-35.557
-9.734
-0.52
-7.19
-20.879
-35.366
-44.319
-45.436
-43.796
-41.709
-40.125
-39.124
-35.745
-29.012
-19.816
-8.963
2.248
12.811
22.342
30.573
37.269
42.408
46.127
48.505
49.593
49.504
48.327
46.153
43.153
39.467
35.196
30.498
25.498
20.288
14.984
9.679
4.449
-0.584
-5.315
-9.651
-13.476
-16.716
-19.325
-21.271
-22.567
-23.246
-23.342
-22.9
-21.962
-20.548
-18.694
-16.426
-13.768
-10.769
-7.477
-3.946
-0.251
3.552
7.43
11.354
15.316
19.322
23.373
27.478
31.653
35.906
40.243
44.667
49.175
53.772
58.467
63.271
68.203
73.274
78.483
83.828
89.299
94.878
100.55
106.293
112.077
117.877
123.669
129.431
135.143
140.784
146.329
151.755
157.035
162.145
167.062
171.763
176.225
180.428
184.351
187.977
191.29
194.274
196.913
199.194
201.1
202.621
203.745
204.462
204.765
204.646
204.103
203.134
201.739
199.92
197.681
195.028
191.969
188.512
184.667
180.446
175.862
170.929
165.661
160.074
154.187
148.016
141.583
134.906
128.007
120.909
113.633
106.203
98.643
90.976
83.227
75.42
67.58
59.73
51.894
44.096
36.358
28.703
21.15
13.72
6.431
-0.701
-7.659
-14.43
-20.999
-27.355
-33.488
-39.386
-45.043
-50.45
-55.602
-60.493
-65.12
-69.481
-73.575
-77.402
-80.965
-84.266
-87.311
-90.105
-92.655
-94.971
-97.063
-98.94
-100.617
-102.105
-103.419
-104.572
-105.581
-106.459
-107.223
-107.886
-108.464
-108.971
-109.42
-109.826
-110.199
-110.554
-110.901
-111.251
-111.614
-111.999
-112.415
-112.871
-113.371
-113.923
-114.531
-115.2
-115.931
-116.726
-117.586
-118.509
-119.494
-120.537
-121.633
-122.776
-123.958
-125.172
-126.409
-127.657
-128.907
-130.147
-131.366
-132.552
-133.693
-134.778
-135.795
-136.733
-137.581
-138.329
-138.968
-139.487
-139.878
-140.133
-140.246
-140.208
-140.014
-139.66
-139.14
-138.452
-137.593
-136.562
-135.358
-133.983
-132.438
-130.725
-128.851
-126.819
-124.636
-122.31
-119.85
-117.264
-114.562
-111.757
-108.858
-105.878
-102.828
-99.722
-96.571
-93.39
-90.19
-86.984
-83.785
-80.606
-77.46
-74.359
-71.315
-68.339
-65.444
-62.64
-59.938
-57.348
-54.88
-52.543
-50.345
-48.294
-46.398
-44.662
-43.092
-41.694
-40.471
-39.428
-38.567
-37.89
-37.4
-37.098
-36.984
-37.058
-37.319
-37.765
-38.394
-39.204
-40.19
-41.347
-42.67
-44.152
-45.786
-47.565
-49.481
-51.526
-53.691
-55.968
-58.349
-60.828
-63.394
-66.037
-68.748
-71.515
-74.328
-77.174
-80.041
-82.915
-85.782
-88.628
-91.442
-94.21
-96.918
-99.549
-102.082
-104.501
-106.796
-108.963
-110.996
-112.897
-114.671
-116.331
-117.901
-119.402
-120.854
-122.271
-123.657
-125.021
-126.379
-127.745
-129.137
-130.556
-131.992
-133.429
-134.845
-136.207
-137.469
-138.564
-139.408
-139.928
-140.071
-139.804
-139.113
-137.986
-136.414
-134.39
-131.925
-129.06
-125.852
-122.367
-118.683
-114.894
-111.122
-107.528
-104.282
-101.53
-99.389
-97.936
-97.226
-97.302
-98.196
-99.923
-102.471
-105.787
-109.811
-114.475
-119.697
-125.391
-131.433
-137.663
-143.942
-150.157
-156.226
-162.093
-167.692
-172.984
-177.967
-182.661
-187.12
-191.409
-195.533
-199.566
-203.677
-207.878
-212.092
-216.071
-219.265
-221.258
-221.842
-220.586
-216.969
-210.925
-202.667
-193.115
-184.092
-176.765
-171.737
-170.229
-173.087
-180.047
-190.575
-201.037
-206.327
-204.622
-193.264
-171.958
-141.176
-96.406
-38.052
34.185
120.385
214.097
317.105
426.644
531.716
622.978
677.079
673.651
607.69
478.72
305.147
115.569
-66.319
-214.815
-315.22
-366.915
-374.374
-352.012
-313.482
-268.454
-227.659
-195.113
-174.854
-167.892
-166.551
-165.637
-159.949
-147.642
-134.426
-123.566
-116.164
-111.609
-106.355
-98.96
-89.967
-80.158
-70.842
-62.795
-56.341
-52.036
-50.222
-50.914
-53.91
-58.826
-65.33
-73.161
-82.008
-91.51
-101.279
-110.955
-120.294
-129.121
-137.243
-144.5
-150.751
-155.884
-159.866
-162.704
-164.416
-165.045
-164.655
-163.315
-161.132
-158.23
-154.736
-150.793
-146.507
-141.958
-137.226
-132.365
-127.417
-122.41
-117.342
-112.191
-106.947
-101.594
-96.112
-90.493
-84.718
-78.769
-72.64
-66.321
-59.815
-53.133
-46.281
-39.267
-32.099
-24.785
-17.343
-9.79
-2.127
5.646
13.538
21.566
29.75
38.119
46.729
55.63
64.876
74.523
84.601
95.124
106.078
117.419
129.094
141.026
153.109
165.229
177.251
189.027
200.431
211.323
221.537
230.916
239.29
246.476
252.334
256.75
259.655
261.048
260.96
259.465
256.697
252.818
248.027
242.54
236.527
230.147
223.583
216.998
210.58
204.548
199.081
194.338
190.45
187.468
185.402
184.218
183.799
183.983
184.568
185.321
186.07
186.684
187.028
186.993
186.457
185.261
183.283
180.405
176.506
171.528
165.444
158.255
150.047
140.949
131.126
120.783
110.08
99.127
88.032
76.873
65.727
54.694
43.855
33.284
23.083
13.326
4.072
-4.625
-12.763
-20.373
-27.503
-34.234
-40.627
-46.712
-52.513
-58.036
-63.279
-68.245
-72.931
-77.327
-81.443
-85.291
-88.88
-92.223
-95.318
-98.151
-100.702
-102.94
-104.839
-106.384
-107.565
-108.381
-108.84
-108.952
-108.729
-108.194
-107.363
-106.247
-104.859
-103.209
-101.31
-99.177
-96.827
-94.278
-91.552
-88.667
-85.642
-82.494
-79.238
-75.889
-72.457
-68.951
-65.378
-61.746
-58.063
-54.338
-50.578
-46.792
-42.987
-39.171
-35.352
-31.537
-27.729
-23.931
-20.142
-16.36
-12.583
-8.809
-5.033
-1.249
2.546
6.355
10.179
14.019
17.878
21.763
25.684
29.649
33.658
37.71
41.804
45.936
50.095
54.265
58.416
62.523
66.567
70.544
74.455
78.305
82.094
85.823
89.493
93.116
96.708
100.279
103.833
107.377
110.929
114.528
118.23
122.082
126.107
130.304
134.652
139.13
143.707
148.339
152.968
157.517
161.911
166.097
170.033
173.678
176.976
179.847
182.19
183.926
185.007
185.411
185.135
184.185
182.583
180.378
177.648
174.496
171.008
167.248
163.266
159.11
154.845
150.556
146.338
142.265
138.391
134.758
131.397
128.336
125.581
123.115
120.897
118.871
117.005
115.285
113.7
112.238
110.879
109.587
108.33
107.091
105.845
104.575
103.271
101.925
100.553
99.188
97.86
96.599
95.41
94.291
93.25
92.297
91.441
90.704
90.098
89.634
89.339
89.233
89.311
89.556
89.913
90.315
90.717
91.083
91.391
91.626
91.747
91.713
91.494
91.047
90.334
89.315
87.926
86.128
83.93
81.364
78.506
75.452
72.269
69.017
65.752
62.525
59.408
56.474
53.769
51.343
49.25
47.527
46.209
45.292
44.704
44.352
44.131
43.9
43.517
42.829
41.681
39.961
37.597
34.487
30.454
25.4
19.371
12.627
5.632
-1.227
-7.71
-13.474
-17.928
-20.571
-21.268
-20.522
-19.411
-18.678
-18.683
-19.978
-23.399
-29.798
-38.014
-44.313
-45.008
-38.345
-27.377
-17.696
-9.696
3.569
34.923
95.289
185.608
295.663
409.019
515.896
613.012
698.245
770.145
815.334
813.57
755.309
636.205
463.767
263.868
58.759
-126.333
-263.994
-348.242
-379.106
-368.442
-340.963
-307.756
-278.302
-255.096
-232.674
-214.566
-199.466
-186.492
-177.416
-168.238
-160.314
-155.379
-152.109
-150.894
-149.244
-144.855
-138.132
-129.433
-119.71
-110.065
-100.871
-92.597
-85.894
-81.022
-77.919
-76.333
-75.859
-76.142
-76.916
-77.905
-78.796
-79.336
-79.337
-78.697
-77.39
-75.389
-72.67
-69.213
-64.996
-60.039
-54.403
-48.163
-41.422
-34.298
-26.914
-19.394
-11.859
-4.421
2.83
9.828
16.546
22.971
29.1
34.922
40.42
45.581
50.415
54.938
59.174
63.152
66.895
70.419
73.74
76.865
79.781
82.459
84.854
86.901
88.554
89.792
90.601
90.988
90.961
90.525
89.704
88.539
87.074
85.376
83.52
81.585
79.689
77.964
76.545
75.577
75.178
75.421
76.371
78.063
80.509
83.721
87.68
92.345
97.676
103.611
110.067
116.951
124.128
131.446
138.774
145.983
152.967
159.666
166.031
172.046
177.729
183.096
188.166
192.965
197.501
201.793
205.884
209.822
213.682
217.538
221.42
225.344
229.3
233.233
237.07
240.694
243.943
246.677
248.777
250.139
250.694
250.355
249.021
246.589
242.944
237.993
231.685
223.993
214.926
204.546
192.95
180.293
166.781
152.593
137.889
122.811
107.477
92.041
76.681
61.58
46.956
33.008
19.925
7.895
-2.937
-12.477
-20.657
-27.473
-32.954
-37.105
-39.931
-41.433
-41.595
-40.455
-38.084
-34.567
-30.049
-24.686
-18.653
-12.163
-5.4
1.487
8.347
15.067
21.546
27.648
33.255
38.255
42.515
45.948
48.496
50.108
50.794
50.585
49.543
47.771
45.368
42.41
38.995
35.209
31.141
26.912
22.623
18.36
14.227
10.302
6.648
3.326
0.363
-2.239
-4.486
-6.412
-8.055
-9.44
-10.607
-11.602
-12.471
-13.281
-14.081
-14.902
-15.784
-16.755
-17.834
-19.042
-20.385
-21.852
-23.435
-25.121
-26.891
-28.735
-30.633
-32.564
-34.503
-36.424
-38.306
-40.139
-41.914
-43.625
-45.271
-46.85
-48.369
-49.839
-51.269
-52.666
-54.039
-55.395
-56.742
-58.092
-59.454
-60.84
-62.258
-63.717
-65.224
-66.785
-68.404
-70.087
-71.836
-73.652
-75.536
-77.49
-79.517
-81.618
-83.795
-86.047
-88.374
-90.775
-93.25
-95.794
-98.404
-101.074
-103.8
-106.575
-109.392
-112.245
-115.125
-118.025
-120.935
-123.848
-126.752
-129.639
-132.499
-135.32
-138.094
-140.81
-143.458
-146.03
-148.515
-150.906
-153.192
-155.367
-157.423
-159.351
-161.144
-162.796
-164.301
-165.655
-166.851
-167.888
-168.76
-169.468
-170.01
-170.387
-170.599
-170.649
-170.54
-170.276
-169.863
-169.308
-168.618
-167.802
-166.871
-165.837
-164.711
-163.509
-162.245
-160.934
-159.593
-158.237
-156.881
-155.542
-154.234
-152.971
-151.77
-150.647
-149.615
-148.693
-147.896
-147.237
-146.731
-146.388
-146.217
-146.224
-146.415
-146.793
-147.369
-148.152
-149.147
-150.363
-151.802
-153.465
-155.348
-157.434
-159.697
-162.107
-164.633
-167.243
-169.914
-172.617
-175.322
-177.998
-180.604
-183.1
-185.452
-187.619
-189.57
-191.28
-192.743
-193.996
-195.108
-196.153
-197.205
-198.315
-199.537
-200.959
-202.681
-204.801
-207.423
-210.606
-214.441
-219.102
-224.662
-231.04
-237.978
-244.934
-251.332
-256.76
-260.737
-262.657
-262.187
-259.354
-254.721
-249.62
-245.389
-242.92
-243.039
-246.537
-253.69
-263.929
-275.487
-285.205
-289.667
-285.761
-270.439
-240.832
-194.324
-130.827
-53.852
31.876
120.856
210.192
302.32
396.912
487.801
564.854
610.116
606.641
549.982
441.145
288.911
114.25
-65.23
-229.061
-352.651
-428.64
-457.933
-451.101
-432.15
-414.263
-401.446
-392.555
-378.344
-355.918
-328.972
-301.614
-279.13
-263.284
-252.537
-245.727
-242.023
-241.005
-242.153
-244.393
-246.544
-248.141
-249.376
-250.483
-251.389
-251.739
-251.521
-251.244
-251.744
-253.548
-256.668
-260.92
-266.145
-272.362
-279.499
-287.196
-294.86
-301.988
-308.327
-313.763
-318.257
-321.719
-324.036
-325.198
-325.293
-324.428
-322.688
-320.139
-316.833
-312.856
-308.339
-303.405
-298.155
-292.667
-286.99
-281.173
-275.271
-269.317
-263.33
-257.319
-251.282
-245.22
-239.142
-233.042
-226.907
-220.716
-214.439
-208.055
-201.553
-194.928
-188.181
-181.319
-174.344
-167.272
-160.129
-152.944
-145.748
-138.564
-131.406
-124.291
-117.243
-110.282
-103.431
-96.703
-90.096
-83.606
-77.228
-70.957
-64.791
-58.719
-52.719
-46.761
-40.815
-34.87
-28.942
-23.034
-17.154
-11.298
-5.45
0.378
6.126
11.717
17.056
22.04
26.616
30.709
34.175
36.972
39.146
40.871
42.532
44.495
46.953
50.03
53.809
58.023
62.224
65.836
67.836
67.326
63.806
57.067
47.437
36.171
25.026
15.816
10.949
12.677
22.638
42.081
71.147
108.415
151.483
197.733
243.827
286.365
322.545
349.738
366.439
372.773
369.939
359.607
344.187
326.359
308.354
292.414
280.117
271.963
267.856
267.29
269.263
272.595
276.455
280.09
283.055
285.368
287.139
288.585
290.083
292.006
294.512
297.611
301.161
304.89
308.58
312.059
315.158
317.729
319.664
320.902
321.409
321.176
320.196
318.45
315.927
312.648
308.66
304.05
298.934
293.422
287.604
281.551
275.31
268.916
262.402
255.788
249.093
242.341
235.556
228.765
222.003
215.29
208.638
202.042
195.486
188.952
182.43
175.918
169.42
162.945
156.505
150.114
143.793
137.557
131.418
125.386
119.462
113.651
107.96
102.394
96.963
91.675
86.536
81.553
76.73
72.069
67.573
63.241
59.069
55.055
51.195
47.489
43.935
40.531
37.277
34.171
31.211
28.395
25.721
23.186
20.786
18.515
16.369
14.343
12.433
10.636
8.948
7.367
5.891
4.518
3.25
2.085
1.021
0.056
-0.816
-1.598
-2.294
-2.911
-3.455
-3.931
-4.347
-4.704
-5.006
-5.255
-5.458
-5.623
-5.762
-5.883
-5.988
-6.082
-6.168
-6.243
-6.303
-6.334
-6.312
-6.225
-6.068
-5.844
-5.564
-5.239
-4.88
-4.499
-4.111
-3.729
-3.375
-3.061
-2.795
-2.596
-2.494
-2.534
-2.779
-3.272
-4.031
-5.063
-6.356
-7.889
-9.642
-11.57
-13.617
-15.732
-17.87
-19.997
-22.098
-24.136
-26.062
-27.815
-29.307
-30.48
-31.307
-31.767
-31.861
-31.605
-31.028
-30.187
-29.171
-28.052
-26.889
-25.728
-24.595
-23.531
-22.592
-21.838
-21.341
-21.155
-21.311
-21.838
-22.757
-24.071
-25.771
-27.824
-30.163
-32.74
-35.523
-38.485
-41.614
-44.887
-48.269
-51.731
-55.25
-58.807
-62.397
-66.013
-69.64
-73.273
-76.91
-80.553
-84.221
-87.912
-91.603
-95.275
-98.898
-102.449
-105.913
-109.258
-112.435
-115.393
-118.068
-120.403
-122.358
-123.899
-125.014
-125.706
-125.991
-125.9
-125.466
-124.737
-123.792
-122.713
-121.599
-120.58
-119.751
-119.267
-119.392
-120.215
-121.68
-123.577
-125.363
-126.543
-126.879
-125.947
-123.213
-118.722
-112.809
-106.345
-101.174
-98.655
-99.42
-104.351
-114.025
-127.877
-144.799
-162.365
-176.258
-183.014
-180.174
-164.656
-133.915
-86.683
-22.444
55.516
139.757
224.159
304.352
379.461
451.5
517.713
570.005
595.113
578.945
516.343
409.817
269.209
111.863
-46.16
-186.848
-290.298
-348.031
-360.077
-337.277
-301.886
-268.104
-241.586
-221.496
-199.596
-173.553
-146.504
-121.937
-104.05
-93.66
-88.762
-88.101
-90.691
-95.26
-100.753
-105.879
-109.795
-112.549
-114.356
-115.104
-114.416
-112.261
-109.077
-105.707
-102.749
-100.267
-98.176
-96.42
-95.148
-94.469
-94.167
-93.781
-92.937
-91.475
-89.38
-86.719
-83.471
-79.566
-75.044
-70.014
-64.607
-58.947
-53.103
-47.114
-41.035
-34.929
-28.868
-22.921
-17.144
-11.581
-6.299
-1.367
3.147
7.171
10.673
13.639
16.061
17.959
19.363
20.313
20.846
20.989
20.748
20.137
19.193
17.963
16.528
14.985
13.421
11.928
10.577
9.42
8.51
7.877
7.532
7.481
7.733
8.314
9.28
10.678
12.517
14.792
17.456
20.446
23.71
27.198
30.862
34.667
38.579
42.575
46.652
50.809
55.028
59.28
63.505
67.647
71.679
75.584
79.366
83.048
86.636
90.137
93.57
96.936
100.232
103.45
106.56
109.534
112.359
115.03
117.552
119.942
122.201
124.338
126.366
128.28
130.077
131.747
133.267
134.619
135.793
136.777
137.571
138.174
138.573
138.764
138.752
138.524
138.07
137.361
136.342
134.978
133.257
131.174
128.749
126.008
122.972
119.691
116.236
112.674
109.082
105.528
102.048
98.694
95.523
92.606
90.052
87.947
86.343
85.295
84.833
84.97
85.725
87.07
88.914
91.174
93.744
96.523
99.45
102.46
105.478
108.435
111.231
113.779
116.025
117.902
119.349
120.32
120.754
120.635
120.018
118.958
117.532
115.834
113.915
111.825
109.619
107.338
105.027
102.733
100.478
98.296
96.23
94.322
92.63
91.192
89.999
89.032
88.261
87.633
87.124
86.714
86.376
86.1
85.885
85.727
85.635
85.618
85.672
85.787
85.942
86.12
86.321
86.548
86.812
87.132
87.52
87.981
88.526
89.156
89.866
90.647
91.485
92.36
93.26
94.174
95.093
96.012
96.921
97.809
98.663
99.47
100.216
100.887
101.47
101.949
102.316
102.56
102.674
102.655
102.498
102.198
101.754
101.161
100.418
99.525
98.48
97.285
95.941
94.453
92.825
91.064
89.178
87.175
85.065
82.855
80.558
78.182
75.74
73.241
70.696
68.117
65.516
62.904
60.294
57.697
55.125
52.59
50.104
47.678
45.323
43.049
40.868
38.788
36.819
34.969
33.248
31.664
30.222
28.931
27.795
26.818
26.006
25.36
24.883
24.578
24.444
24.483
24.695
25.081
25.639
26.369
27.271
28.341
29.578
30.978
32.54
34.258
36.129
38.147
40.306
42.601
45.024
47.566
50.219
52.974
55.82
58.745
61.736
64.781
67.864
70.973
74.092
77.206
80.299
83.356
86.362
89.303
92.164
94.928
97.58
100.103
102.48
104.692
106.723
108.556
110.174
111.565
112.718
113.623
114.271
114.653
114.755
114.565
114.073
113.268
112.145
110.703
108.945
106.887
104.556
101.974
99.168
96.163
92.976
89.629
86.144
82.546
78.871
75.16
71.45
67.784
64.199
60.718
57.348
54.063
50.813
47.535
44.184
40.723
37.115
33.307
29.226
24.791
19.925
14.562
8.602
1.884
-5.66
-13.952
-22.742
-31.567
-39.954
-47.557
-54.012
-58.828
-61.741
-62.888
-62.801
-62.566
-63.252
-65.41
-69.418
-75.741
-84.439
-94.839
-105.492
-113.887
-117.214
-113.349
-100.479
-76.861
-40.895
8.407
70.537
143.569
223.204
303.427
380.559
451.619
514.551
570.631
614.355
636.544
631.496
590.4
514.91
413.961
290.404
155.238
18.65
-108.934
-205.571
-260.478
-273.794
-253.64
-221.99
-194.034
-174.637
-164.027
-155.735
-146.568
-138.149
-132.386
-131.564
-135.489
-141.968
-148.69
-153.445
-155.295
-154.211
-150.441
-144.704
-137.796
-130.43
-123.469
-117.69
-113.484
-111.031
-110.304
-111.085
-113.199
-116.48
-120.712
-125.671
-131.158
-136.985
-142.985
-149.01
-154.881
-160.401
-165.382
-169.667
-173.132
-175.681
-177.262
-177.845
-177.411
-175.958
-173.497
-170.056
-165.685
-160.437
-154.366
-147.534
-140.025
-131.962
-123.485
-114.71
-105.729
-96.613
-87.411
-78.17
-68.936
-59.742
-50.609
-41.55
-32.58
-23.718
-15.003
-6.47
1.867
10.031
18.069
26.014
33.885
41.693
49.448
57.171
64.889
72.614
80.347
88.083
95.815
103.546
111.289
119.058
126.856
134.66
142.43
150.123
157.716
165.184
172.498
179.61
186.449
192.962
199.109
204.857
210.193
215.098
219.554
223.558
227.127
230.304
233.16
235.771
238.188
240.46
242.643
244.816
247.094
249.577
252.347
255.483
259.047
263.111
267.742
272.969
278.775
285.099
291.845
298.903
306.189
313.624
321.118
328.556
335.793
342.692
349.134
354.996
360.14
364.395
367.59
369.595
370.347
369.824
368.038
365.016
360.768
355.304
348.65
340.845
331.937
321.972
310.984
299.02
286.177
272.601
258.457
243.887
228.986
213.831
198.49
183.029
167.525
152.055
136.692
121.515
106.628
92.137
78.151
64.774
52.058
40.01
28.621
17.876
7.778
-1.668
-10.475
-18.659
-26.243
-33.256
-39.73
-45.719
-51.314
-56.602
-61.672
-66.613
-71.479
-76.305
-81.117
-85.929
-90.749
-95.587
-100.437
-105.288
-110.135
-114.963
-119.756
-124.481
-129.084
-133.515
-137.736
-141.705
-145.4
-148.807
-151.909
-154.707
-157.211
-159.428
-161.371
-163.056
-164.492
-165.693
-166.678
-167.468
-168.094
-168.581
-168.945
-169.204
-169.37
-169.452
-169.459
-169.394
-169.255
-169.04
-168.75
-168.385
-167.95
-167.446
-166.874
-166.236
-165.531
-164.762
-163.934
-163.05
-162.117
-161.141
-160.129
-159.09
-158.032
-156.965
-155.897
-154.835
-153.785
-152.756
-151.753
-150.785
-149.857
-148.975
-148.147
-147.38
-146.679
-146.051
-145.502
-145.036
-144.657
-144.369
-144.177
-144.081
-144.084
-144.187
-144.39
-144.691
-145.091
-145.585
-146.17
-146.841
-147.592
-148.416
-149.306
-150.254
-151.249
-152.284
-153.347
-154.429
-155.52
-156.607
-157.681
-158.729
-159.741
-160.705
-161.609
-162.441
-163.191
-163.847
-164.398
-164.834
-165.146
-165.325
-165.362
-165.25
-164.982
-164.553
-163.957
-163.191
-162.25
-161.135
-159.844
-158.377
-156.739
-154.931
-152.959
-150.829
-148.548
-146.125
-143.57
-140.891
-138.102
-135.214
-132.24
-129.195
-126.095
-122.954
-119.791
-116.624
-113.472
-110.356
-107.295
-104.31
-101.422
-98.652
-96.017
-93.536
-91.228
-89.109
-87.196
-85.505
-84.053
-82.854
-81.925
-81.276
-80.918
-80.859
-81.102
-81.646
-82.493
-83.642
-85.098
-86.865
-88.944
-91.336
-94.041
-97.055
-100.366
-103.951
-107.771
-111.79
-115.967
-120.264
-124.651
-129.089
-133.537
-137.955
-142.286
-146.475
-150.476
-154.233
-157.697
-160.833
-163.628
-166.119
-168.383
-170.497
-172.527
-174.523
-176.529
-178.644
-180.977
-183.62
-186.691
-190.257
-194.413
-199.392
-205.271
-211.91
-219.001
-225.958
-232.175
-237.291
-240.804
-241.995
-240.689
-237.153
-232.173
-227.24
-223.466
-221.673
-222.908
-228.007
-237.062
-247.734
-256.481
-260.98
-258.411
-249.184
-233.386
-203.476
-154.693
-83.871
9.706
114.537
219.88
321.769
418.896
511.512
597.523
664.256
689.357
660.595
573.601
432.208
259.713
77.832
-94.009
-230.442
-318.821
-357.243
-350.659
-318.087
-279.387
-244.679
-218.096
-197.132
-176.554
-155.972
-137.683
-124.647
-120.187
-124.732
-136.31
-151.712
-167.053
-180.161
-190.271
-197.094
-200.583
-200.434
-196.716
-190.546
-183.633
-177.119
-171.496
-166.817
-162.933
-160.027
-158.239
-157.293
-156.629
-155.773
-154.498
-152.806
-150.845
-148.634
-146.142
-143.417
-140.568
-137.756
-135.12
-132.745
-130.678
-128.966
-127.671
-126.85
-126.544
-126.757
-127.458
-128.579
-130.027
-131.726
-133.579
-135.477
-137.304
-138.912
-140.159
-140.927
-141.096
-140.555
-139.205
-136.949
-133.716
-129.487
-124.261
-118.082
-111.002
-103.053
-94.296
-84.812
-74.709
-64.136
-53.229
-42.101
-30.876
-19.689
-8.679
1.998
12.221
21.921
31.037
39.528
47.35
54.431
60.733
66.25
71.005
75.057
78.459
81.245
83.481
85.25
86.649
87.799
88.783
89.642
90.417
91.139
91.844
92.591
93.409
94.304
95.274
96.297
97.363
98.469
99.589
100.685
101.721
102.648
103.449
104.133
104.708
105.198
105.639
106.051
106.469
106.937
107.486
108.144
108.926
109.829
110.855
111.989
113.196
114.429
115.619
116.692
117.571
118.156
118.325
117.96
116.947
115.184
112.585
109.077
104.608
99.156
92.726
85.364
77.155
68.213
58.674
48.665
38.324
27.814
17.323
7.045
-2.841
-12.181
-20.835
-28.662
-35.542
-41.387
-46.155
-49.862
-52.553
-54.305
-55.208
-55.338
-54.788
-53.671
-52.112
-50.25
-48.194
-46.012
-43.779
-41.583
-39.501
-37.596
-35.883
-34.317
-32.85
-31.428
-30
-28.539
-26.998
-25.316
-23.456
-21.389
-19.128
-16.745
-14.293
-11.802
-9.319
-6.879
-4.556
-2.48
-0.746
0.566
1.38
1.646
1.293
0.237
-1.548
-4.05
-7.213
-10.911
-15.039
-19.508
-24.201
-29.019
-33.852
-38.553
-43.024
-47.187
-50.955
-54.255
-56.995
-59.059
-60.396
-61
-60.89
-60.147
-58.842
-57.043
-54.854
-52.362
-49.644
-46.783
-43.826
-40.802
-37.757
-34.739
-31.802
-29.029
-26.464
-24.127
-22.032
-20.159
-18.484
-16.979
-15.588
-14.263
-12.978
-11.713
-10.467
-9.256
-8.082
-6.946
-5.855
-4.798
-3.771
-2.782
-1.829
-0.926
-0.094
0.645
1.253
1.696
1.952
2.006
1.849
1.481
0.901
0.114
-0.872
-2.05
-3.413
-4.953
-6.664
-8.539
-10.564
-12.724
-15.001
-17.377
-19.833
-22.355
-24.923
-27.52
-30.128
-32.73
-35.311
-37.855
-40.344
-42.761
-45.086
-47.304
-49.402
-51.367
-53.184
-54.838
-56.31
-57.589
-58.672
-59.556
-60.242
-60.733
-61.039
-61.177
-61.174
-61.059
-60.852
-60.564
-60.2
-59.766
-59.273
-58.732
-58.155
-57.541
-56.886
-56.189
-55.457
-54.693
-53.892
-53.032
-52.07
-50.97
-49.722
-48.335
-46.834
-45.247
-43.602
-41.929
-40.278
-38.717
-37.309
-36.099
-35.113
-34.364
-33.883
-33.716
-33.931
-34.582
-35.688
-37.238
-39.21
-41.57
-44.28
-47.292
-50.522
-53.857
-57.217
-60.536
-63.786
-66.965
-70.069
-73.09
-76.018
-78.857
-81.618
-84.313
-86.965
-89.618
-92.325
-95.149
-98.192
-101.527
-105.24
-109.49
-114.261
-119.366
-124.473
-128.977
-132.276
-133.966
-133.509
-130.269
-124.117
-115.287
-104.566
-93.632
-83.945
-76.498
-72.489
-72.903
-77.64
-85.782
-95.162
-102.034
-102.675
-93.748
-71.644
-32.813
23.445
94.465
176.473
263.742
353.17
447.951
548.023
646.758
732.865
785.836
786.205
728.652
615.526
457.154
273.839
83.447
-95.825
-241.209
-337.237
-378.166
-367.414
-320.115
-258.323
-199.63
-153.79
-126.399
-112.23
-101.568
-90.448
-74.648
-55.919
-42.289
-36.805
-39.966
-50.135
-62.343
-73.423
-82.662
-89.59
-93.874
-95.446
-94.411
-91.271
-87.082
-83.047
-79.619
-76.976
-75.501
-75.236
-76.109
-78.012
-80.426
-82.713
-84.572
-85.856
-86.464
-86.46
-85.857
-84.621
-82.883
-80.812
-78.55
-76.251
-73.984
-71.771
-69.67
-67.75
-66.068
-64.687
-63.626
-62.868
-62.425
-62.304
-62.51
-63.044
-63.852
-64.861
-65.985
-67.12
-68.178
-69.069
-69.678
-69.907
-69.693
-68.972
-67.719
-65.914
-63.492
-60.398
-56.593
-52.041
-46.752
-40.746
-34.04
-26.678
-18.725
-10.262
-1.402
7.764
17.179
26.789
36.553
46.428
56.334
66.202
75.987
85.641
95.138
104.449
113.539
122.394
131.028
139.464
147.747
155.904
163.932
171.831
179.594
187.216
194.705
202.053
209.239
216.245
223.051
229.641
236.003
242.113
247.934
253.426
258.545
263.255
267.534
271.359
274.711
277.573
279.934
281.785
283.131
283.972
284.309
284.143
283.474
282.311
280.664
278.547
275.975
272.961
269.522
265.675
261.437
256.828
251.865
246.567
240.953
235.041
228.854
222.412
215.74
208.859
201.795
194.571
187.213
179.749
172.205
164.608
156.985
149.361
141.763
134.213
126.736
119.353
112.085
104.951
97.97
91.163
84.549
78.148
71.978
66.057
60.4
55.023
49.941
45.162
40.693
36.539
32.706
29.2
26.034
23.214
20.742
18.617
16.838
15.397
14.287
13.485
12.96
12.68
12.612
12.735
13.042
13.521
14.164
14.963
15.912
17.015
18.289
19.739
21.366
23.174
25.172
27.395
29.901
32.743
35.966
39.604
43.667
48.164
53.089
58.407
64.061
69.971
76.03
82.151
88.267
94.296
100.156
105.745
110.936
115.617
119.693
123.066
125.657
127.4
128.258
128.253
127.452
125.95
123.884
121.375
118.534
115.501
112.404
109.367
106.523
103.979
101.825
100.172
99.13
98.777
99.171
100.312
102.161
104.673
107.766
111.353
115.335
119.575
123.957
128.396
132.82
137.179
141.441
145.547
149.437
153.092
156.502
159.67
162.61
165.305
167.737
169.912
171.864
173.647
175.307
176.849
178.25
179.481
180.501
181.284
181.796
181.956
181.684
180.914
179.604
177.768
175.462
172.716
169.54
165.943
161.932
157.548
152.869
147.962
142.891
137.727
132.551
127.488
122.682
118.249
114.271
110.777
107.744
105.156
103.018
101.315
100.041
99.169
98.624
98.352
98.309
98.431
98.644
98.838
98.865
98.597
97.945
96.844
95.271
93.205
90.607
87.46
83.746
79.451
74.604
69.222
63.308
56.9
50.043
42.808
35.314
27.67
19.959
12.273
4.677
-2.769
-9.989
-16.925
-23.526
-29.727
-35.484
-40.753
-45.48
-49.643
-53.227
-56.229
-58.687
-60.655
-62.204
-63.434
-64.44
-65.291
-66.045
-66.761
-67.509
-68.388
-69.491
-70.902
-72.671
-74.864
-77.621
-81.003
-84.916
-89.088
-92.98
-96.02
-97.802
-97.905
-95.804
-91.256
-84.391
-75.792
-66.816
-58.856
-52.853
-49.751
-50.4
-54.981
-62.891
-72.473
-80.652
-84.207
-80.263
-65.619
-37.292
7.21
67.891
140.953
221.207
302.833
383.66
467.515
554.934
641.662
717.483
760.01
749.935
678.749
544.61
365.01
168.659
-18.864
-169.908
-268.902
-318.528
-325.549
-302.586
-263.076
-212.496
-158.523
-112.967
-84.522
-79.296
-94.938
-118.135
-137.027
-144.996
-141.839
-134.846
-129.231
-126.211
-125.061
-122.767
-118.17
-112.286
-106.12
-100.882
-97.326
-95.41
-95.084
-96.304
-98.757
-102.143
-106.201
-110.643
-115.258
-119.907
-124.434
-128.696
-132.612
-136.105
-139.113
-141.599
-143.511
-144.826
-145.534
-145.636
-145.192
-144.289
-143.042
-141.583
-140.011
-138.402
-136.832
-135.352
-133.995
-132.79
-131.752
-130.891
-130.246
-129.842
-129.691
-129.803
-130.15
-130.678
-131.321
-131.986
-132.591
-133.062
-133.324
-133.307
-132.96
-132.228
-131.053
-129.376
-127.109
-124.175
-120.521
-116.097
-110.877
-104.86
-98.051
-90.48
-82.198
-73.268
-63.756
-53.744
-43.313
-32.538
-21.518
-10.354
0.848
11.982
22.967
33.731
44.207
54.343
64.087
73.395
82.25
90.648
98.577
106.05
113.08
119.671
125.858
131.671
137.131
142.257
147.051
151.509
155.63
159.415
162.867
165.993
168.801
171.29
173.469
175.332
176.869
178.07
178.9
179.327
179.333
178.906
178.046
176.759
175.05
172.923
170.374
167.396
163.964
160.048
155.632
150.714
145.307
139.45
133.196
126.611
119.773
112.746
105.585
98.344
91.064
83.788
76.572
69.476
62.581
55.981
49.744
43.923
38.555
33.64
29.165
25.095
21.364
17.918
14.72
11.732
8.936
6.317
3.844
1.483
-0.804
-3.078
-5.38
-7.741
-10.187
-12.719
-15.322
-17.97
-20.606
-23.184
-25.674
-28.051
-30.305
-32.435
-34.43
-36.285
-37.998
-39.554
-40.945
-42.165
-43.205
-44.071
-44.775
-45.337
-45.787
-46.157
-46.467
-46.734
-46.969
-47.18
-47.373
-47.553
-47.719
-47.874
-48.025
-48.175
-48.334
-48.508
-48.698
-48.907
-49.134
-49.379
-49.64
-49.92
-50.218
-50.536
-50.876
-51.239
-51.63
-52.051
-52.502
-52.984
-53.494
-54.031
-54.593
-55.178
-55.783
-56.405
-57.042
-57.692
-58.353
-59.023
-59.699
-60.379
-61.062
-61.745
-62.427
-63.105
-63.778
-64.443
-65.1
-65.747
-66.381
-67.002
-67.609
-68.2
-68.774
-69.332
-69.874
-70.4
-70.912
-71.412
-71.901
-72.382
-72.858
-73.333
-73.809
-74.29
-74.779
-75.281
-75.797
-76.333
-76.891
-77.474
-78.086
-78.73
-79.408
-80.123
-80.876
-81.668
-82.5
-83.372
-84.286
-85.241
-86.237
-87.274
-88.351
-89.466
-90.619
-91.807
-93.026
-94.272
-95.541
-96.828
-98.126
-99.429
-100.729
-102.021
-103.296
-104.551
-105.778
-106.973
-108.13
-109.245
-110.314
-111.334
-112.298
-113.204
-114.045
-114.82
-115.527
-116.166
-116.74
-117.252
-117.706
-118.107
-118.462
-118.776
-119.052
-119.292
-119.492
-119.655
-119.79
-119.913
-120.04
-120.196
-120.4
-120.673
-121.041
-121.517
-122.11
-122.82
-123.641
-124.571
-125.618
-126.796
-128.125
-129.622
-131.282
-133.089
-135.014
-137.003
-139.001
-140.951
-142.781
-144.44
-145.9
-147.15
-148.191
-149.024
-149.635
-150.003
-150.108
-149.929
-149.484
-148.828
-148.041
-147.254
-146.595
-146.179
-146.147
-146.641
-147.77
-149.633
-152.321
-155.846
-160.287
-165.818
-172.438
-180.023
-188.281
-196.584
-204.34
-211.152
-216.459
-219.592
-220.403
-219.022
-216.077
-213.128
-211.348
-211.291
-213.791
-219.45
-227.786
-237.797
-247.399
-252.734
-250.65
-239.032
-214.902
-175.597
-120.069
-48.042
37.283
128.455
219.221
305.641
387.322
466.313
541.721
606.587
644.612
639.903
582.637
470.618
321.405
159.143
8.471
-103.389
-167.549
-187.012
-172.737
-147.3
-123.847
-107.323
-97.642
-86.91
-72.93
-58.084
-44.867
-37.69
-37.561
-42.217
-49.78
-57.858
-64.287
-68.408
-69.937
-68.833
-65.742
-61.411
-56.456
-51.652
-47.762
-45.114
-43.831
-43.893
-45.036
-47.055
-49.809
-53.082
-56.679
-60.456
-64.271
-68.01
-71.576
-74.831
-77.644
-79.93
-81.634
-82.76
-83.35
-83.459
-83.165
-82.545
-81.657
-80.557
-79.292
-77.901
-76.427
-74.932
-73.491
-72.196
-71.148
-70.416
-70.037
-70.008
-70.282
-70.797
-71.476
-72.251
-73.073
-73.914
-74.759
-75.621
-76.53
-77.505
-78.538
-79.591
-80.588
-81.465
-82.182
-82.721
-83.089
-83.308
-83.398
-83.369
-83.238
-82.99
-82.574
-81.905
-80.845
-79.26
-77.056
-74.174
-70.604
-66.344
-61.371
-55.652
-49.165
-41.874
-33.748
-24.753
-14.826
-3.933
7.898
20.59
33.991
47.926
62.257
76.87
91.668
106.564
121.442
136.18
150.677
164.822
178.481
191.499
203.663
214.764
224.669
233.299
240.64
246.722
251.55
255.126
257.473
258.622
258.619
257.52
255.353
252.141
247.962
242.933
237.234
231.07
224.583
217.866
210.985
203.969
196.857
189.687
182.457
175.14
167.729
160.231
152.691
145.186
137.741
130.343
122.944
115.47
107.884
100.191
92.396
84.514
76.573
68.603
60.675
52.895
45.329
38.008
30.928
24.041
17.33
10.81
4.498
-1.575
-7.391
-12.954
-18.255
-23.28
-28.03
-32.515
-36.775
-40.876
-44.854
-48.713
-52.44
-55.985
-59.319
-62.43
-65.3
-67.913
-70.258
-72.318
-74.095
-75.603
-76.845
-77.816
-78.502
-78.875
-78.923
-78.65
-78.065
-77.194
-76.056
-74.665
-73.042
-71.209
-69.187
-66.992
-64.636
-62.121
-59.453
-56.645
-53.712
-50.671
-47.539
-44.329
-41.056
-37.736
-34.384
-31.021
-27.665
-24.332
-21.039
-17.807
-14.653
-11.602
-8.673
-5.881
-3.245
-0.784
1.484
3.534
5.349
6.919
8.236
9.301
10.119
10.692
11.028
11.138
11.031
10.709
10.168
9.393
8.37
7.095
5.571
3.816
1.846
-0.336
-2.727
-5.327
-8.147
-11.196
-14.484
-18.04
-21.875
-25.976
-30.314
-34.829
-39.447
-44.114
-48.782
-53.417
-57.995
-62.476
-66.819
-70.992
-74.95
-78.647
-82.032
-85.026
-87.568
-89.633
-91.214
-92.345
-93.091
-93.492
-93.586
-93.41
-92.979
-92.323
-91.467
-90.418
-89.185
-87.777
-86.205
-84.513
-82.745
-80.921
-79.055
-77.136
-75.132
-73.03
-70.822
-68.492
-66.04
-63.466
-60.772
-57.993
-55.178
-52.387
-49.698
-47.164
-44.819
-42.698
-40.817
-39.183
-37.802
-36.656
-35.712
-34.954
-34.359
-33.899
-33.549
-33.249
-32.917
-32.444
-31.686
-30.507
-28.789
-26.441
-23.41
-19.683
-15.269
-10.211
-4.587
1.539
8.093
14.998
22.182
29.551
36.982
44.326
51.39
57.969
63.878
68.964
73.116
76.272
78.393
79.485
79.595
78.779
77.112
74.677
71.546
67.808
63.58
59.005
54.254
49.511
44.94
40.672
36.8
33.384
30.468
28.072
26.196
24.809
23.829
23.167
22.733
22.435
22.184
21.841
21.177
20.057
18.522
16.788
15.28
14.413
14.436
15.666
18.626
23.65
30.627
38.902
47.212
54.272
59.354
61.882
60.912
55.843
47.133
36.417
26.561
20.853
21.987
32.452
55.657
95.137
151.159
220.535
299.038
381.077
466.678
561.681
664.254
766.894
852.185
893.304
877.689
805.272
689.081
552.237
405.762
257.473
111.928
-25.653
-136.549
-210.648
-244.287
-240.419
-216.998
-182.593
-144.153
-111.877
-87.614
-79.425
-89.802
-109.383
-131.886
-148.009
-153.406
-153.436
-150.6
-147.112
-144.015
-138.399
-129.584
-118.68
-106.533
-94.714
-84.311
-75.369
-67.963
-62.199
-57.947
-55.098
-53.571
-53.209
-53.853
-55.415
-57.769
-60.734
-64.159
-67.854
-71.593
-75.191
-78.486
-81.355
-83.729
-85.551
-86.756
-87.309
-87.2
-86.432
-85.036
-83.053
-80.534
-77.557
-74.217
-70.626
-66.896
-63.135
-59.436
-55.859
-52.438
-49.187
-46.109
-43.207
-40.475
-37.903
-35.484
-33.205
-31.057
-29.026
-27.083
-25.193
-23.316
-21.403
-19.403
-17.293
-15.065
-12.738
-10.345
-7.904
-5.426
-2.921
-0.388
2.185
4.82
7.57
10.476
13.565
16.864
20.377
24.104
28.07
32.315
36.893
41.876
47.324
53.281
59.804
66.934
74.689
83.054
91.975
101.383
111.226
121.443
131.979
142.776
153.748
164.799
175.83
186.719
197.334
207.548
217.211
226.172
234.313
241.537
247.768
252.96
257.061
260.033
261.86
262.539
262.08
260.498
257.8
254.013
249.189
243.385
236.67
229.124
220.802
211.777
202.143
191.981
181.37
170.383
159.064
147.459
135.628
123.642
111.584
99.537
87.571
75.772
64.242
53.092
42.443
32.375
22.923
14.12
5.994
-1.422
-8.087
-13.974
-19.088
-23.446
-27.071
-29.995
-32.259
-33.935
-35.128
-35.971
-36.594
-37.089
-37.518
-37.929
-38.367
-38.879
-39.507
-40.271
-41.175
-42.221
-43.414
-44.761
-46.253
-47.865
-49.543
-51.218
-52.829
-54.34
-55.724
-56.971
-58.071
-59.017
-59.813
-60.476
-61.028
-61.487
-61.864
-62.166
-62.406
-62.603
-62.785
-62.985
-63.228
-63.527
-63.897
-64.344
-64.874
-65.487
-66.179
-66.938
-67.752
-68.612
-69.514
-70.452
-71.421
-72.412
-73.415
-74.423
-75.429
-76.425
-77.402
-78.354
-79.271
-80.148
-80.984
-81.776
-82.524
-83.224
-83.876
-84.478
-85.032
-85.538
-85.991
-86.386
-86.715
-86.979
-87.187
-87.346
-87.461
-87.537
-87.581
-87.602
-87.616
-87.629
-87.635
-87.631
-87.607
-87.564
-87.519
-87.488
-87.491
-87.534
-87.606
-87.7
-87.817
-87.942
-88.055
-88.122
-88.088
-87.932
-87.663
-87.293
-86.845
-86.324
-85.71
-84.992
-84.153
-83.194
-82.139
-81.006
-79.801
-78.562
-77.344
-76.23
-75.341
-74.742
-74.438
-74.427
-74.677
-75.171
-75.907
-76.867
-78.024
-79.335
-80.735
-82.166
-83.581
-84.89
-85.977
-86.684
-86.8
-86.173
-84.715
-82.358
-79.068
-74.809
-69.541
-63.25
-55.945
-47.644
-38.376
-28.158
-17.006
-4.972
7.864
21.367
35.347
49.65
64.156
78.757
93.367
107.883
122.202
136.24
149.921
163.164
175.877
187.939
199.228
209.649
219.116
227.592
235.078
241.558
247.017
251.446
254.832
257.189
258.542
258.907
258.317
256.83
254.521
251.506
247.895
243.775
239.24
234.352
229.158
223.718
218.074
212.254
206.287
200.191
193.964
187.616
181.13
174.46
167.559
160.364
152.829
144.94
136.688
128.079
119.143
109.906
100.399
90.661
80.729
70.638
60.453
50.26
40.144
30.199
20.503
11.116
2.094
-6.51
-14.688
-22.525
-30.031
-37.098
-43.474
-48.669
-52.203
-53.769
-53.04
-49.615
-43.392
-34.631
-24.049
-13.13
-3.409
4.067
8.324
8.56
4.677
-2.713
-12.044
-20.215
-23.625
-19.18
-4.029
24.451
68.092
127.624
202.317
287.767
376.77
462.571
539.663
606.783
664.925
712.433
744.022
747.507
710.564
626.596
494.352
326.696
144.102
-31.34
-173.807
-268.974
-314.01
-313.389
-282.676
-235.494
-183.182
-137.514
-103.522
-85.655
-83.614
-89.552
-98.779
-106.505
-110.97
-116.493
-123.861
-132.849
-142.929
-150.683
-154.446
-154.021
-149.401
-141.963
-133.492
-124.988
-116.988
-109.753
-103.236
-97.528
-92.756
-88.704
-84.866
-80.818
-76.335
-71.35
-65.976
-60.285
-54.298
-48.124
-41.929
-35.912
-30.26
-25.101
-20.517
-16.579
-13.369
-10.97
-9.454
-8.86
-9.193
-10.437
-12.544
-15.454
-19.067
-23.248
-27.848
-32.701
-37.657
-42.596
-47.411
-52.014
-56.329
-60.294
-63.858
-66.992
-69.685
-71.936
-73.758
-75.174
-76.227
-76.984
-77.52
-77.916
-78.231
-78.5
-78.747
-78.981
-79.204
-79.407
-79.572
-79.672
-79.683
-79.58
-79.338
-78.93
-78.322
-77.482
-76.377
-74.977
-73.267
-71.245
-68.919
-66.316
-63.467
-60.405
-57.169
-53.787
-50.285
-46.687
-43.015
-39.295
-35.544
-31.767
-27.963
-24.14
-20.297
-16.433
-12.537
-8.574
-4.516
-0.345
3.948
8.347
12.824
17.35
21.889
26.39
30.792
35.006
38.936
42.505
45.637
48.261
50.299
51.649
52.22
51.948
50.787
48.721
45.756
41.901
37.178
31.646
25.376
18.469
11.047
3.201
-4.982
-13.415
-22.01
-30.653
-39.241
-47.693
-55.945
-63.949
-71.667
-79.06
-86.101
-92.795
-99.157
-105.221
-111.03
-116.605
-121.954
-127.093
-132.029
-136.783
-141.368
-145.785
-150.026
-154.088
-157.974
-161.689
-165.232
-168.577
-171.691
-174.544
-177.1
-179.338
-181.237
-182.776
-183.943
-184.742
-185.192
-185.32
-185.145
-184.672
-183.896
-182.822
-181.462
-179.853
-178.036
-176.049
-173.932
-171.743
-169.549
-167.423
-165.413
-163.522
-161.721
-159.983
-158.295
-156.663
-155.095
-153.577
-152.076
-150.559
-148.992
-147.347
-145.586
-143.628
-141.378
-138.748
-135.689
-132.223
-128.417
-124.335
-120.03
-115.555
-110.974
-106.384
-101.901
-97.613
-93.598
-89.923
-86.674
-83.981
-81.984
-80.799
-80.497
-81.086
-82.529
-84.791
-87.835
-91.597
-95.994
-100.908
-106.206
-111.795
-117.604
-123.561
-129.584
-135.558
-141.363
-146.909
-152.133
-157.002
-161.504
-165.627
-169.364
-172.739
-175.792
-178.581
-181.173
-183.602
-185.886
-188.042
-190.089
-192.058
-193.979
-195.866
-197.716
-199.529
-201.3
-203.028
-204.706
-206.314
-207.821
-209.194
-210.398
-211.412
-212.224
-212.821
-213.194
-213.336
-213.242
-212.914
-212.359
-211.581
-210.58
-209.357
-207.914
-206.258
-204.396
-202.339
-200.094
-197.67
-195.074
-192.314
-189.396
-186.327
-183.11
-179.749
-176.246
-172.608
-168.838
-164.943
-160.93
-156.807
-152.583
-148.265
-143.864
-139.388
-134.848
-130.252
-125.61
-120.933
-116.229
-111.51
-106.786
-102.068
-97.367
-92.696
-88.065
-83.487
-78.972
-74.534
-70.185
-65.937
-61.803
-57.797
-53.929
-50.214
-46.662
-43.284
-40.091
-37.091
-34.294
-31.709
-29.346
-27.213
-25.317
-23.665
-22.261
-21.106
-20.198
-19.532
-19.104
-18.909
-18.949
-19.223
-19.73
-20.469
-21.436
-22.621
-24.013
-25.582
-27.289
-29.094
-30.953
-32.829
-34.692
-36.505
-38.235
-39.841
-41.271
-42.475
-43.412
-44.036
-44.307
-44.2
-43.714
-42.903
-41.858
-40.674
-39.44
-38.21
-37.049
-36.06
-35.347
-35.029
-35.235
-36.027
-37.531
-39.972
-43.399
-47.697
-52.545
-57.259
-61.188
-63.927
-64.876
-63.363
-59.251
-52.732
-44.663
-36.822
-30.596
-26.78
-26.409
-30.231
-37.875
-48.195
-58.619
-65.002
-63.633
-51.337
-24.497
20.26
83.17
161.301
250.348
343.82
440.056
543.374
651.957
758.762
848.631
896.67
888.117
821.726
706.049
560.328
402.543
244.602
98.958
-20.99
-106.643
-153.574
-166.945
-162.663
-152.104
-141.18
-130.16
-112.588
-87.574
-58.844
-30.222
-7.207
8.095
16.532
18.057
13.506
4.712
-6.758
-19.032
-30.069
-39.007
-45.471
-48.592
-48.069
-44.296
-37.777
-29.501
-20.691
-11.793
-2.942
5.528
13.616
21.45
29.135
37.13
46.022
56.041
67.294
79.854
93.64
108.633
124.818
141.986
159.835
178.048
196.297
214.308
231.856
248.678
264.511
279.141
292.395
304.167
314.384
322.952
329.763
334.722
337.782
338.967
338.382
336.185
332.565
327.742
321.949
315.444
308.498
301.337
294.151
287.107
280.353
274.058
268.423
263.627
259.82
257.125
255.599
255.252
256.071
257.995
260.933
264.783
269.411
274.704
280.572
286.916
293.651
300.687
307.895
315.159
322.378
329.446
336.306
342.94
349.323
355.457
361.357
367.03
372.505
377.816
382.968
387.96
392.779
397.394
401.793
405.969
409.889
413.515
416.791
419.628
421.967
423.772
424.997
425.615
425.585
424.848
423.381
421.185
418.268
414.657
410.372
405.423
399.855
393.749
387.18
380.241
372.982
365.41
357.545
349.414
341.051
332.52
323.863
315.101
306.271
297.421
288.605
279.904
271.358
262.962
254.732
246.679
238.852
231.345
224.227
217.545
211.337
205.616
200.395
195.699
191.514
187.8
184.497
181.519
178.813
176.359
174.122
172.065
170.13
168.228
166.293
164.284
162.16
159.892
157.453
154.813
151.972
148.957
145.803
142.567
139.28
135.953
132.602
129.24
125.887
122.574
119.315
116.11
112.965
109.883
106.869
103.932
101.066
98.253
95.472
92.7
89.922
87.135
84.336
81.524
78.702
75.875
73.05
70.246
67.474
64.745
62.068
59.451
56.903
54.441
52.077
49.823
47.691
45.689
43.825
42.106
40.537
39.118
37.85
36.73
35.756
34.926
34.235
33.682
33.262
32.97
32.8
32.745
32.799
32.95
33.19
33.507
33.887
34.319
34.79
35.285
35.793
36.301
36.796
37.265
37.696
38.076
38.392
38.633
38.785
38.837
38.776
38.592
38.276
37.821
37.22
36.47
35.565
34.505
33.29
31.919
30.391
28.705
26.861
24.858
22.698
20.382
17.913
15.296
12.537
9.645
6.633
3.509
0.282
-3.041
-6.46
-9.967
-13.552
-17.208
-20.921
-24.673
-28.441
-32.19
-35.885
-39.501
-43.017
-46.421
-49.712
-52.886
-55.945
-58.898
-61.742
-64.475
-67.097
-69.597
-71.974
-74.249
-76.449
-78.624
-80.834
-83.117
-85.507
-88.032
-90.692
-93.477
-96.358
-99.268
-102.162
-105.006
-107.764
-110.422
-112.951
-115.288
-117.371
-119.126
-120.457
-121.3
-121.587
-121.241
-120.235
-118.57
-116.286
-113.491
-110.277
-106.714
-102.888
-98.871
-94.753
-90.67
-86.737
-83.06
-79.766
-76.956
-74.746
-73.28
-72.648
-72.9
-74.049
-76.038
-78.818
-82.356
-86.591
-91.453
-96.844
-102.616
-108.65
-114.857
-121.135
-127.396
-133.534
-139.412
-144.931
-150.022
-154.637
-158.769
-162.409
-165.534
-168.157
-170.316
-172.095
-173.644
-175.088
-176.528
-178.057
-179.731
-181.629
-183.867
-186.543
-189.745
-193.549
-197.98
-203.099
-209.05
-215.849
-223.359
-231.256
-238.894
-245.619
-250.948
-254.356
-255.277
-253.455
-248.987
-242.468
-235.318
-229.071
-224.843
-223.672
-226.396
-233.108
-243.127
-254.793
-264.896
-269.63
-265.668
-249.946
-219.642
-172.875
-109.061
-29.116
62.324
157.725
249.862
332.606
403.851
463.75
510.789
540.217
539.99
498.59
408.433
266.531
87.454
-106.886
-290.264
-430.607
-514.474
-542.971
-528.986
-499.723
-471.985
-452.09
-439.756
-426.153
-408.576
-389.576
-372.018
-360.486
-355.869
-355.748
-357.991
-359.907
-359.314
-355.703
-349.031
-339.665
-328.604
-316.822
-305.17
-294.654
-286.163
-280.123
-276.7
-275.813
-277.15
-280.448
-285.453
-291.84
-299.278
-307.453
-316.061
-324.837
-333.537
-341.898
-349.689
-356.7
-362.765
-367.787
-371.7
-374.476
-376.123
-376.662
-376.146
-374.655
-372.28
-369.13
-365.334
-361.024
-356.344
-351.441
-346.429
-341.408
-336.454
-331.612
-326.915
-322.379
-318.002
-313.774
-309.683
-305.705
-301.817
-297.997
-294.209
-290.418
-286.583
-282.66
-278.615
-274.426
-270.077
-265.559
-260.869
-256.006
-250.977
-245.79
-240.45
-234.962
-229.329
-223.549
-217.627
-211.566
-205.368
-199.04
-192.588
-186.016
-179.326
-172.52
-165.592
-158.544
-151.379
-144.104
-136.73
-129.273
-121.751
-114.193
-106.638
-99.123
-91.688
-84.367
-77.184
-70.167
-63.349
-56.765
-50.455
-44.444
-38.736
-33.335
-28.238
-23.431
-18.896
-14.588
-10.427
-6.348
-2.297
1.769
5.87
10.037
14.313
18.729
23.303
28.023
32.83
37.664
42.46
47.12
51.537
55.55
58.941
61.523
63.142
63.652
62.941
60.873
57.294
52.093
45.206
36.615
26.369
14.523
1.146
-13.635
-29.658
-46.692
-64.432
-82.608
-100.979
-119.291
-137.301
-154.736
-171.282
-186.694
-200.788
-213.417
-224.488
-233.916
-241.631
-247.629
-251.961
-254.725
-256.082
-256.173
-255.13
-253.123
-250.333
-246.968
-243.272
-239.428
-235.568
-231.814
-228.256
-224.976
-222.036
-219.443
-217.159
-215.129
-213.271
-211.495
-209.702
-207.749
-205.495
-202.798
-199.513
-195.54
-190.804
-185.24
-178.813
-171.52
-163.395
-154.522
-145.019
-135.013
-124.657
-114.134
-103.667
-93.506
-83.884
-75.005
-67.048
-60.172
-54.533
-50.263
-47.45
-46.131
-46.29
-47.863
-50.762
-54.865
-60.013
-65.994
-72.538
-79.354
-86.179
-92.779
-98.948
-104.492
-109.2
-112.887
-115.424
-116.72
-116.737
-115.47
-112.929
-109.161
-104.261
-98.374
-91.708
-84.493
-76.937
-69.222
-61.509
-53.943
-46.686
-39.881
-33.61
-27.929
-22.859
-18.386
-14.503
-11.178
-8.335
-5.862
-3.595
-1.326
1.124
3.909
7.179
11.04
15.619
21.026
27.292
34.419
42.37
51.054
60.396
70.321
80.684
91.298
101.937
112.309
122.172
131.332
139.54
146.551
152.178
156.319
158.964
160.125
159.767
157.785
154.137
148.96
142.293
133.865
123.689
112.149
99.505
86.682
73.662
58.476
41.838
26.144
15.123
15.705
27.442
42.755
53.579
49.538
30.206
5.678
-15.619
-24.926
-20.297
-7.722
9.994
30.62
53.098
79.266
108.504
139.196
170.469
200.583
227.855
251.558
271.179
286.801
299.403
309.598
317.507
323.352
327.368
329.729
330.641
330.028
327.442
322.648
315.685
306.682
295.91
283.638
270.093
255.595
240.551
225.344
210.314
195.74
181.815
168.692
156.515
145.406
135.475
126.835
119.547
113.628
109.081
105.869
103.918
103.119
103.306
104.253
105.734
107.549
109.528
111.551
113.49
115.216
116.603
117.528
117.939
117.749
116.793
115.03
112.554
109.667
106.967
104.982
104.049
104.673
107.421
112.428
119.583
128.099
136.355
143.32
148.389
150.319
148.299
142.554
133.466
124.444
120.157
121.941
132.293
151.481
178.958
219.135
271.673
337.219
416.177
503.702
602.053
705.863
803.184
882.024
917.93
898.201
822.844
695.367
537.666
370.916
212.729
86.854
6.041
-26.958
-16.66
18.404
58.172
91.574
114.05
128.982
143.118
157.826
171.48
181.561
185.182
182.8
176.911
169.952
164.314
161.093
160.224
161.4
164.068
167.507
171.027
173.833
175.102
174.419
171.709
167.07
160.773
153.079
144.186
134.355
123.894
113.061
102.108
91.264
80.653
70.403
60.649
51.506
43.112
35.572
28.921
23.162
18.287
14.269
11.081
8.679
6.969
5.847
5.205
4.94
4.99
5.31
5.843
6.533
7.317
8.151
9.035
9.987
11.02
12.148
13.393
14.796
16.427
18.345
20.575
23.11
25.92
28.975
32.259
35.758
39.46
43.347
47.384
51.528
55.746
60.002
64.236
68.363
72.282
75.909
79.213
82.21
84.939
87.438
89.742
91.886
93.892
95.779
97.568
99.275
100.918
102.522
104.138
105.843
107.733
109.904
112.405
115.238
118.373
121.768
125.375
129.145
133.053
137.074
141.18
145.345
149.531
153.699
157.784
161.7
165.331
168.534
171.2
173.253
174.656
175.388
175.432
174.769
173.359
171.173
168.198
164.425
159.859
154.506
148.39
141.558
134.097
126.129
117.756
109.057
100.087
90.889
81.513
72.017
62.473
52.931
43.432
34.015
24.715
15.571
6.612
-2.155
-10.748
-19.206
-27.552
-35.791
-43.92
-51.925
-59.8
-67.543
-75.152
-82.609
-89.893
-96.986
-103.871
-110.537
-116.967
-123.131
-128.992
-134.507
-139.644
-144.379
-148.695
-152.577
-156.011
-158.986
-161.497
-163.548
-165.14
-166.279
-166.967
-167.209
-167.013
-166.392
-165.362
-163.94
-162.143
-159.986
-157.485
-154.656
-151.519
-148.09
-144.391
-140.44
-136.261
-131.877
-127.315
-122.603
-117.765
-112.829
-107.819
-102.758
-97.671
-92.584
-87.524
-82.52
-77.6
-72.785
-68.095
-63.548
-59.154
-54.918
-50.837
-46.904
-43.119
-39.485
-36.014
-32.724
-29.631
-26.752
-24.104
-21.695
-19.532
-17.626
-15.979
-14.598
-13.499
-12.704
-12.252
-12.189
-12.537
-13.303
-14.479
-16.032
-17.924
-20.107
-22.511
-25.082
-27.774
-30.536
-33.337
-36.141
-38.896
-41.544
-44.01
-46.204
-48.066
-49.554
-50.638
-51.324
-51.631
-51.596
-51.287
-50.763
-50.065
-49.233
-48.289
-47.25
-46.153
-45.036
-43.944
-42.943
-42.076
-41.377
-40.88
-40.587
-40.489
-40.564
-40.761
-41.036
-41.363
-41.72
-42.102
-42.506
-42.925
-43.351
-43.78
-44.197
-44.587
-44.943
-45.25
-45.505
-45.717
-45.896
-46.066
-46.25
-46.459
-46.701
-46.979
-47.288
-47.625
-47.984
-48.354
-48.727
-49.098
-49.463
-49.82
-50.166
-50.495
-50.802
-51.076
-51.312
-51.501
-51.638
-51.719
-51.743
-51.708
-51.616
-51.472
-51.279
-51.045
-50.773
-50.469
-50.138
-49.788
-49.426
-49.058
-48.693
-48.338
-48
-47.689
-47.414
-47.184
-47.01
-46.899
-46.861
-46.903
-47.037
-47.272
-47.615
-48.067
-48.632
-49.31
-50.108
-51.034
-52.094
-53.287
-54.611
-56.064
-57.64
-59.329
-61.111
-62.945
-64.782
-66.573
-68.274
-69.848
-71.258
-72.462
-73.409
-74.049
-74.337
-74.249
-73.767
-72.87
-71.544
-69.797
-67.671
-65.274
-62.749
-60.23
-57.84
-55.675
-53.815
-52.367
-51.446
-51.146
-51.529
-52.618
-54.403
-56.93
-60.283
-64.358
-68.896
-73.472
-77.464
-80.279
-81.411
-80.354
-76.633
-70.199
-61.288
-50.234
-37.975
-25.8
-14.852
-6.025
1.48
10.652
24.049
42.374
62.799
80.613
95.395
113.333
146.273
205.011
292.34
399.254
510.553
615.065
702.838
771.015
817.977
830.988
803.633
732.032
613.774
464.204
300.111
138.799
5.528
-84.14
-125.484
-122.479
-93.567
-59.688
-32.614
-16.357
-7.253
1.409
11.222
20.34
25.997
25.553
19.566
10.283
0.079
-8.637
-14.846
-18.464
-19.656
-19.044
-17.336
-15.139
-13.214
-12.303
-12.723
-14.547
-17.664
-21.768
-26.623
-32.025
-37.729
-43.498
-49.139
-54.485
-59.414
-63.84
-67.684
-70.883
-73.396
-75.199
-76.297
-76.715
-76.495
-75.688
-74.343
-72.51
-70.237
-67.573
-64.576
-61.31
-57.84
-54.23
-50.528
-46.773
-42.994
-39.215
-35.45
-31.702
-27.968
-24.239
-20.511
-16.784
-13.057
-9.332
-5.608
-1.881
1.852
5.595
9.351
13.123
16.915
20.731
24.573
28.441
32.338
36.262
40.219
44.211
48.241
52.317
56.447
60.643
64.917
69.274
73.718
78.245
82.849
87.522
92.249
97.003
101.757
106.486
111.165
115.781
120.316
124.751
129.059
133.21
137.179
140.961
144.561
147.987
151.258
154.403
157.467
160.528
163.663
166.939
170.404
174.091
178.021
182.23
186.754
191.615
196.82
202.334
208.093
214.028
220.046
226.028
231.828
237.246
242.07
246.118
249.227
251.251
252.063
251.513
249.449
245.758
240.356
233.21
224.34
213.783
201.61
187.939
172.921
156.76
139.701
121.967
103.785
85.388
67.008
48.909
31.383
14.684
-0.946
-15.301
-28.233
-39.618
-49.353
-57.38
-63.657
-68.168
-70.955
-72.075
-71.607
-69.677
-66.418
-62.009
-56.684
-50.675
-44.234
-37.607
-30.99
-24.564
-18.515
-13.011
-8.23
-4.363
-1.531
0.177
0.695
0.009
-1.89
-4.974
-9.156
-14.316
-20.302
-26.958
-34.159
-41.796
-49.738
-57.852
-65.992
-73.99
-81.752
-89.207
-96.29
-102.96
-109.17
-114.886
-120.115
-124.899
-129.294
-133.356
-137.128
-140.63
-143.889
-146.927
-149.754
-152.372
-154.723
-156.728
-158.313
-159.41
-159.96
-159.907
-159.182
-157.695
-155.361
-152.092
-147.798
-142.412
-135.894
-128.229
-119.443
-109.607
-98.838
-87.279
-75.089
-62.415
-49.396
-36.181
-22.913
-9.747
3.15
15.609
27.435
38.438
48.463
57.392
65.145
71.702
77.074
81.294
84.43
86.539
87.675
87.904
87.284
85.869
83.73
80.952
77.648
73.962
70.029
65.949
61.805
57.639
53.474
49.334
45.229
41.164
37.158
33.238
29.453
25.889
22.646
19.803
17.417
15.497
14.033
13.039
12.539
12.567
13.165
14.356
16.155
18.594
21.706
25.48
29.868
34.758
39.983
45.406
50.918
56.44
61.928
67.321
72.544
77.541
82.267
86.678
90.748
94.413
97.592
100.254
102.413
104.138
105.558
106.765
107.822
108.78
109.671
110.526
111.388
112.269
113.159
114.063
114.983
115.947
117.01
118.183
119.449
120.762
122.04
123.231
124.299
125.203
125.911
126.396
126.626
126.591
126.291
125.704
124.81
123.587
122.005
120.057
117.753
115.107
112.153
108.924
105.443
101.747
97.864
93.806
89.605
85.292
80.909
76.525
72.19
67.935
63.795
59.795
55.956
52.297
48.805
45.445
42.193
39.026
35.938
32.948
30.041
27.18
24.316
21.372
18.299
15.072
11.644
7.936
3.866
-0.637
-5.6
-10.98
-16.74
-22.873
-29.414
-36.418
-43.917
-51.908
-60.321
-69.144
-78.469
-88.243
-98.249
-108.023
-116.806
-123.918
-128.97
-131.515
-131.089
-127.701
-121.622
-113.811
-106.169
-100.322
-97.492
-98.87
-104.975
-115.222
-128.42
-141.991
-151.883
-154.266
-145.241
-120.924
-78.679
-19.24
53.699
135.483
219.367
303.728
391.728
479.297
560.847
623.697
643.757
610.374
520.662
377.896
206.896
29.638
-133.078
-255.136
-329.826
-359.074
-352.339
-332.005
-310.336
-291.505
-275.166
-254.155
-227.96
-200.808
-176.227
-158.946
-150.345
-149.12
-154.643
-164.981
-177.218
-189.208
-199.554
-207.639
-213.614
-217.477
-218.759
-217.607
-215.119
-212.637
-211.098
-210.842
-211.731
-213.642
-216.792
-221.298
-226.871
-232.953
-239.019
-244.757
-250.105
-255.097
-259.64
-263.578
-266.797
-269.239
-270.914
-271.837
-271.956
-271.169
-269.362
-266.432
-262.337
-257.101
-250.766
-243.383
-235.015
-225.718
-215.585
-204.758
-193.388
-181.628
-169.608
-157.441
-145.269
-133.278
-121.694
-110.745
-100.616
-91.429
-83.267
-76.197
-70.254
-65.465
-61.819
-59.258
-57.713
-57.133
-57.473
-58.699
-60.767
-63.577
-66.977
-70.819
-74.967
-79.328
-83.844
-88.469
-93.169
-97.912
-102.671
-107.436
-112.197
-116.909
-121.494
-125.853
-129.85
-133.398
-136.455
-138.978
-140.924
-142.229
-142.805
-142.567
-141.446
-139.389
-136.364
-132.356
-127.362
-121.428
-114.655
-107.194
-99.256
-91.042
-82.727
-74.493
-66.52
-59.004
-52.147
-46.142
-41.147
-37.303
-34.729
-33.51
-33.724
-35.402
-38.526
-43.029
-48.777
-55.611
-63.373
-71.9
-81.018
-90.548
-100.314
-110.151
-119.925
-129.516
-138.817
-147.746
-156.217
-164.163
-171.547
-178.347
-184.596
-190.364
-195.727
-200.762
-205.555
-210.192
-214.747
-219.291
-223.865
-228.493
-233.194
-237.972
-242.836
-247.793
-252.843
-257.987
-263.198
-268.42
-273.598
-278.675
-283.588
-288.277
-292.688
-296.776
-300.514
-303.896
-306.923
-309.603
-311.954
-313.999
-315.76
-317.258
-318.515
-319.558
-320.417
-321.123
-321.713
-322.219
-322.657
-323.031
-323.332
-323.539
-323.621
-323.535
-323.213
-322.565
-321.515
-320.007
-317.999
-315.469
-312.394
-308.744
-304.508
-299.701
-294.369
-288.598
-282.485
-276.138
-269.692
-263.308
-257.193
-251.583
-246.685
-242.664
-239.657
-237.774
-237.125
-237.824
-239.948
-243.517
-248.507
-254.843
-262.419
-271.101
-280.726
-291.102
-301.97
-313.044
-324.044
-334.706
-344.835
-354.306
-362.909
-370.342
-376.348
-380.709
-383.339
-384.351
-383.814
-381.647
-378.038
-373.506
-368.316
-362.626
-356.684
-350.008
-343.308
-339.057
-336.635
-333.949
-327.27
-309.038
-280.039
-248.352
-222.439
-214.169
-224.379
-242.202
-258.694
-264.533
-257.869
-245.846
-232.194
-218.878
-206.172
-191.416
-174.432
-156.289
-137.481
-118.972
-101.545
-85.818
-72.334
-60.95
-50.816
-41.194
-31.721
-22.264
-12.735
-2.821
7.739
18.869
30.199
41.346
52.124
62.542
72.605
82.223
91.438
100.31
108.973
117.636
126.17
134.329
142.136
149.597
156.434
162.516
167.53
171.06
173.528
175.421
176.746
177.635
178.408
179.189
180.524
183.041
186.226
189.543
192.909
196.057
198.835
201.258
202.85
203.107
202.431
201.198
199.548
197.777
195.888
193.8
191.772
190.04
188.454
186.901
185.308
183.532
181.639
179.711
177.697
175.57
173.355
171.056
168.702
166.332
163.923
161.458
158.941
156.367
153.746
151.087
148.381
145.623
142.812
139.949
137.041
134.096
131.121
128.132
125.152
122.202
119.302
116.469
113.707
111.031
108.469
106.057
103.848
101.89
100.219
98.863
97.837
97.148
96.791
96.754
97.011
97.524
98.243
99.113
100.074
101.063
102.007
102.774
103.154
103.022
102.399
101.47
100.609
100.163
100.328
101.348
103.617
107.316
112.226
117.643
122.291
124.977
125.12
122.373
116.296
106.865
94.823
81.86
70.856
64.871
66.006
76.077
97.314
131.545
179.926
241.205
310.512
382.599
452.863
520.216
589.184
662.009
737.738
809.859
858.595
864.983
816.422
706.173
551.795
383.228
230.909
128.197
85.808
93.754
133.473
176.557
206.866
222.877
229.162
236.239
248.091
262.242
275.505
283.685
286.046
284.748
281.516
278.296
276.576
276.599
278.392
281.77
286.058
290.623
294.934
298.311
300.108
299.978
297.726
293.341
287.023
278.953
269.33
258.44
246.593
234.114
221.332
208.51
195.874
183.629
171.963
161.083
151.178
142.414
134.952
128.912
124.374
121.388
119.941
119.966
121.365
123.981
127.62
132.101
137.237
142.875
148.903
155.197
161.648
168.152
174.592
180.873
186.923
192.68
198.109
203.205
207.972
212.457
216.737
220.887
224.99
229.099
233.239
237.432
241.696
246.046
250.507
255.101
259.837
264.729
269.785
275.002
280.37
285.854
291.4
296.951
302.456
307.88
313.203
318.406
323.469
328.373
333.096
337.607
341.87
345.839
349.472
352.739
355.629
358.15
360.322
362.181
363.749
365.041
366.076
366.866
367.431
367.79
367.967
368.004
367.967
367.94
367.996
368.195
368.57
369.134
369.892
370.821
371.898
373.098
374.387
375.735
377.113
378.487
379.815
381.038
382.066
382.789
383.1
382.9
382.11
380.664
378.494
375.574
371.89
367.439
362.23
356.269
349.559
342.108
333.934
325.059
315.52
305.375
294.686
283.527
271.981
260.124
248.039
235.787
223.412
210.955
198.456
185.953
173.487
161.103
148.846
136.791
125.033
113.653
102.723
92.298
82.406
73.083
64.371
56.306
48.927
42.265
36.336
31.173
26.818
23.286
20.578
18.636
17.348
16.615
16.343
16.447
16.862
17.497
18.229
18.965
19.621
20.121
20.403
20.368
19.898
18.901
17.32
15.148
12.437
9.225
5.531
1.376
-3.223
-8.205
-13.472
-18.956
-24.609
-30.389
-36.247
-42.09
-47.796
-53.266
-58.429
-63.252
-67.727
-71.828
-75.502
-78.693
-81.354
-83.486
-85.115
-86.25
-86.879
-86.981
-86.56
-85.674
-84.406
-82.837
-81.028
-79.025
-76.882
-74.682
-72.534
-70.563
-68.876
-67.539
-66.608
-66.145
-66.226
-66.946
-68.364
-70.485
-73.298
-76.777
-80.902
-85.659
-91.004
-96.856
-103.116
-109.662
-116.397
-123.252
-130.16
-137.049
-143.841
-150.439
-156.774
-162.815
-168.537
-173.924
-178.962
-183.631
-187.943
-191.933
-195.651
-199.156
-202.488
-205.668
-208.715
-211.651
-214.498
-217.282
-220.014
-222.687
-225.297
-227.833
-230.289
-232.659
-234.921
-237.044
-238.995
-240.736
-242.24
-243.485
-244.454
-245.135
-245.524
-245.617
-245.42
-244.947
-244.212
-243.238
-242.046
-240.652
-239.077
-237.331
-235.422
-233.362
-231.161
-228.833
-226.379
-223.789
-221.044
-218.13
-215.03
-211.726
-208.196
-204.394
-200.286
-195.854
-191.09
-186.014
-180.655
-175.043
-169.213
-163.212
-157.102
-150.971
-144.918
-139.02
-133.357
-128.005
-123.049
-118.604
-114.767
-111.61
-109.188
-107.525
-106.627
-106.499
-107.128
-108.472
-110.471
-113.042
-116.089
-119.544
-123.339
-127.404
-131.666
-136.023
-140.376
-144.64
-148.737
-152.603
-156.182
-159.425
-162.295
-164.784
-166.889
-168.613
-169.964
-170.929
-171.496
-171.655
-171.395
-170.741
-169.746
-168.478
-167.028
-165.477
-163.871
-162.278
-160.781
-159.459
-158.404
-157.721
-157.46
-157.733
-158.745
-160.539
-163.017
-165.909
-168.624
-170.605
-171.506
-170.825
-167.95
-162.813
-155.693
-147.37
-139.52
-133.439
-129.771
-129.501
-133.455
-141.26
-151.833
-162.875
-170.421
-171.257
-162.82
-141.671
-104.724
-50.171
20.962
103.748
191.914
279.284
365.112
453.399
541.851
625.613
691.637
715.506
685.141
596.633
453.935
281.632
102.171
-65.197
-198.22
-289.657
-338.542
-347.23
-328.988
-294.173
-252.902
-217.355
-192.907
-185.21
-194.092
-210.288
-227.42
-238.622
-241.352
-241.218
-240.785
-241.022
-241.968
-240.323
-234.875
-226.469
-215.842
-204.285
-192.86
-182.009
-172.055
-163.264
-155.636
-149.014
-143.36
-138.691
-134.993
-132.247
-130.395
-129.322
-128.942
-129.207
-130.023
-131.27
-132.825
-134.575
-136.445
-138.399
-140.408
-142.416
-144.343
-146.084
-147.533
-148.62
-149.309
-149.581
-149.441
-148.899
-147.975
-146.713
-145.16
-143.352
-141.311
-139.042
-136.543
-133.832
-130.943
-127.928
-124.848
-121.74
-118.626
-115.519
-112.422
-109.333
-106.241
-103.119
-99.937
-96.668
-93.293
-89.8
-86.184
-82.425
-78.504
-74.393
-70.064
-65.497
-60.679
-55.602
-50.263
-44.665
-38.817
-32.734
-26.439
-19.952
-13.291
-6.476
0.476
7.544
14.704
21.932
29.198
36.473
43.726
50.926
58.04
65.038
71.888
78.558
85.022
91.255
97.232
102.927
108.312
113.357
118.035
122.326
126.212
129.677
132.71
135.3
137.449
139.17
140.476
141.384
141.901
142.023
141.75
141.088
140.04
138.617
136.812
134.606
131.989
128.959
125.514
121.659
117.377
112.623
107.369
101.592
95.288
88.477
81.172
73.381
65.141
56.5
47.54
38.379
29.117
19.833
10.619
1.546
-7.286
-15.742
-23.72
-31.134
-37.909
-43.996
-49.332
-53.842
-57.512
-60.363
-62.455
-63.909
-64.821
-65.275
-65.379
-65.222
-64.904
-64.552
-64.253
-64.072
-64.087
-64.362
-64.98
-66.044
-67.598
-69.644
-72.162
-75.074
-78.313
-81.818
-85.494
-89.261
-93.055
-96.803
-100.469
-104.035
-107.465
-110.723
-113.766
-116.529
-118.979
-121.108
-122.916
-124.435
-125.703
-126.761
-127.676
-128.509
-129.3
-130.084
-130.878
-131.68
-132.502
-133.355
-134.246
-135.197
-136.221
-137.321
-138.505
-139.765
-141.087
-142.455
-143.838
-145.203
-146.528
-147.793
-148.988
-150.115
-151.175
-152.172
-153.117
-154.017
-154.884
-155.741
-156.598
-157.466
-158.356
-159.271
-160.227
-161.244
-162.338
-163.523
-164.801
-166.158
-167.58
-169.049
-170.533
-171.992
-173.38
-174.628
-175.69
-176.534
-177.13
-177.46
-177.494
-177.189
-176.517
-175.467
-174.039
-172.26
-170.166
-167.794
-165.212
-162.509
-159.78
-157.149
-154.714
-152.553
-150.753
-149.396
-148.578
-148.415
-149
-150.4
-152.669
-155.821
-159.85
-164.738
-170.419
-176.802
-183.783
-191.226
-198.999
-206.969
-214.967
-222.812
-230.296
-237.176
-243.217
-248.199
-251.901
-254.147
-254.786
-253.683
-250.745
-245.893
-239.066
-230.242
-219.426
-206.662
-192.055
-175.745
-157.926
-138.841
-118.759
-97.971
-76.78
-55.468
-34.311
-13.579
6.465
25.539
43.373
59.726
74.377
87.169
98.002
106.82
113.629
118.489
121.494
122.778
122.489
120.774
117.797
113.731
108.756
103.099
96.993
90.674
84.386
78.327
72.651
67.485
62.9
58.938
55.63
52.977
50.972
49.612
48.868
48.711
49.114
50.005
51.285
52.813
54.405
55.901
57.195
58.211
58.898
59.2
59.045
58.376
57.142
55.326
52.903
49.747
45.822
41.264
36.363
31.702
27.945
25.568
25.081
27.137
31.955
39.306
48.607
58.368
67.002
73.409
76.247
74.209
67.126
55.826
41.945
28.825
20.392
20.098
32.162
61.124
108.335
171.417
247.288
330.705
418.784
516.046
623.1
732.745
832.581
899.14
908.611
853.022
733.552
561.03
360.66
155.564
-32.357
-177.879
-268.912
-305.473
-292.8
-245.082
-179.106
-104.989
-35.349
14.137
37.924
33.572
7.555
-21.298
-42.498
-51.218
-48.132
-43.16
-41.018
-41.536
-43.914
-44.442
-41.622
-37.237
-32.557
-28.645
-26.3
-25.274
-25.267
-26.338
-28.382
-30.967
-33.788
-36.635
-39.236
-41.548
-43.54
-45.029
-45.931
-46.24
-45.927
-45.005
-43.515
-41.45
-38.842
-35.759
-32.244
-28.355
-24.146
-19.646
-14.898
-9.942
-4.81
0.462
5.844
11.316
16.853
22.429
28.029
33.638
39.251
44.877
50.521
56.18
61.86
67.555
73.253
78.932
84.552
90.066
95.448
100.685
105.774
110.744
115.623
120.449
125.278
130.148
135.092
140.141
145.311
150.62
156.101
161.796
167.761
174.07
180.765
187.87
195.394
203.307
211.567
220.111
228.842
237.676
246.545
255.385
264.148
272.794
281.261
289.486
297.402
304.919
311.968
318.491
324.435
329.774
334.502
338.625
342.18
345.199
347.696
349.681
351.152
352.102
352.533
352.444
351.835
350.72
349.109
347.012
344.445
341.41
337.905
333.923
329.446
324.458
318.959
312.95
306.443
299.456
292.008
284.123
275.832
267.163
258.143
248.801
239.162
229.255
219.115
208.776
198.276
187.652
176.942
166.18
155.404
144.644
133.934
123.303
112.78
102.39
92.163
82.125
72.303
62.722
53.408
44.382
35.667
27.28
19.239
11.558
4.248
-2.682
-9.224
-15.371
-21.12
-26.469
-31.416
-35.963
-40.113
-43.868
-47.235
-50.222
-52.837
-55.091
-56.996
-58.564
-59.808
-60.743
-61.381
-61.739
-61.831
-61.673
-61.281
-60.67
-59.857
-58.859
-57.694
-56.377
-54.923
-53.348
-51.664
-49.885
-48.022
-46.082
-44.076
-42.011
-39.897
-37.741
-35.55
-33.333
-31.095
-28.844
-26.588
-24.33
-22.072
-19.814
-17.557
-15.3
-13.041
-10.779
-8.51
-6.232
-3.946
-1.656
0.637
2.931
5.229
7.536
9.856
12.183
14.515
16.845
19.166
21.467
23.727
25.913
27.996
29.953
31.773
33.456
34.998
36.394
37.64
38.733
39.682
40.501
41.194
41.763
42.204
42.531
42.782
43.02
43.298
43.649
44.087
44.613
45.234
45.945
46.725
47.536
48.309
48.98
49.501
49.841
49.968
49.827
49.326
48.349
46.791
44.576
41.653
37.979
33.506
28.214
22.121
15.29
7.824
-0.179
-8.634
-17.465
-26.587
-35.889
-45.225
-54.428
-63.339
-71.826
-79.772
-87.068
-93.599
-99.28
-104.07
-107.969
-111.016
-113.244
-114.682
-115.359
-115.318
-114.622
-113.35
-111.592
-109.436
-106.955
-104.214
-101.273
-98.191
-95.013
-91.766
-88.46
-85.091
-81.665
-78.201
-74.716
-71.227
-67.751
-64.314
-60.945
-57.683
-54.567
-51.635
-48.937
-46.529
-44.465
-42.799
-41.575
-40.826
-40.574
-40.825
-41.572
-42.795
-44.445
-46.444
-48.706
-51.128
-53.617
-56.094
-58.462
-60.617
-62.466
-63.913
-64.89
-65.349
-65.235
-64.51
-63.158
-61.195
-58.704
-55.814
-52.645
-49.323
-45.935
-42.551
-39.301
-36.311
-33.68
-31.523
-29.87
-28.791
-28.494
-29.051
-30.331
-32.019
-33.509
-34.173
-33.622
-31.35
-26.73
-19.619
-10.267
0.403
10.816
19.651
25.635
27.577
24.745
16.983
6.63
-2.651
-8.732
-8.353
-0.962
13.347
42.01
88.217
152.868
237.148
330.029
424.507
520.521
612.361
696.379
763.108
792.413
769.784
691.155
560.287
391.459
205.4
19.131
-149.411
-280.644
-365.513
-400.682
-390.063
-349.809
-293.498
-233.685
-183.505
-147.309
-128.439
-126.03
-131.196
-138.025
-140.552
-135.461
-126.261
-114.674
-101.953
-88.645
-72.4
-52.383
-29.217
-4.25
20.406
43.254
63.712
81.566
96.73
109.12
118.628
125.48
130.014
132.527
133.302
132.484
130.23
126.79
122.447
117.431
111.957
106.257
100.536
95.028
89.962
85.482
81.686
78.641
76.375
74.897
74.192
74.199
74.824
75.972
77.541
79.443
81.607
83.935
86.318
88.644
90.799
92.695
94.269
95.447
96.158
96.349
96
95.129
93.789
92.029
89.887
87.4
84.598
81.524
78.243
74.827
71.347
67.89
64.557
61.482
58.835
56.777
55.418
54.833
55.06
56.132
58.096
60.993
64.858
69.717
75.596
