Name
Date of Birth,"Mar 27, 1959"
Recorded Date,2021-01-10 18:14:13 -0500
Classification,Sinus Rhythm
Symptoms,
Software Version,1.90
Device,"Watch4,2"
Sample Rate,510.227 hertz


Lead,Lead I
Unit,µV

485.08
590.912
517.106
471.908
511.304
565.729
634.078
743.502
883.987
1035.76
1182.504
1314.855
1428.458
1515.372
1564.979
1566.508
1514.732
1415.414
1283.546
1133.395
974.147
811.894
652.13
507.649
393.996
320.981
290.583
293.722
317.762
350.481
380.506
401.555
408.22
400.553
385.586
368.499
354.932
346.75
339.639
332.159
324.216
316.188
310.741
308.59
308.709
310.26
312.007
312.81
312.056
309.385
304.637
298.026
289.973
280.801
270.815
260.349
249.716
239.221
229.146
219.674
210.936
203.071
196.227
190.539
186.082
182.863
180.829
179.871
179.862
180.646
182.009
183.724
185.557
187.262
188.644
189.539
189.801
189.319
187.988
185.702
182.401
178.055
172.648
166.201
158.734
150.277
140.935
130.839
120.147
109.046
97.681
86.163
74.599
63.078
51.69
40.54
29.707
19.263
9.3
-0.082
-8.756
-16.587
-23.506
-29.491
-34.557
-38.75
-42.103
-44.63
-46.366
-47.358
-47.651
-47.303
-46.353
-44.838
-42.837
-40.454
-37.831
-35.12
-32.418
-29.781
-27.238
-24.795
-22.449
-20.198
-18.012
-15.839
-13.645
-11.409
-9.126
-6.807
-4.435
-1.978
0.6
3.329
6.203
9.175
12.182
15.144
17.947
20.478
22.606
24.181
25.092
25.249
24.579
23.034
20.56
17.108
12.651
7.178
0.698
-6.749
-15.109
-24.307
-34.228
-44.756
-55.773
-67.151
-78.796
-90.63
-102.584
-114.606
-126.648
-138.664
-150.627
-162.517
-174.303
-185.967
-197.488
-208.866
-220.139
-231.342
-242.509
-253.679
-264.867
-276.088
-287.359
-298.679
-310.043
-321.433
-332.82
-344.192
-355.562
-366.956
-378.422
-389.981
-401.617
-413.31
-425.035
-436.749
-448.403
-459.92
-471.192
-482.145
-492.728
-502.908
-512.684
-522.013
-530.817
-538.998
-546.429
-553.002
-558.648
-563.288
-566.852
-569.33
-570.753
-571.225
-570.915
-569.948
-568.403
-566.335
-563.768
-560.764
-557.422
-553.848
-550.167
-546.521
-543.043
-539.893
-537.234
-535.14
-533.6
-532.521
-531.726
-531.066
-530.449
-529.795
-529.036
-528.104
-526.918
-525.406
-523.504
-521.104
-518.06
-514.2
-509.356
-503.443
-496.483
-488.562
-479.838
-470.488
-460.653
-450.489
-440.163
-429.803
-419.519
-409.405
-399.531
-390.016
-381.034
-372.766
-365.38
-358.993
-353.638
-349.305
-345.946
-343.458
-341.731
-340.632
-340.004
-339.74
-339.767
-340.018
-340.447
-340.984
-341.51
-341.915
-342.098
-341.958
-341.445
-340.529
-339.195
-337.484
-335.46
-333.199
-330.8
-328.329
-325.824
-323.328
-320.859
-318.434
-316.096
-313.881
-311.83
-310.019
-308.493
-307.273
-306.373
-305.768
-305.417
-305.278
-305.284
-305.361
-305.447
-305.475
-305.395
-305.183
-304.795
-304.181
-303.273
-301.956
-300.15
-297.81
-294.898
-291.4
-287.31
-282.608
-277.317
-271.506
-265.238
-258.595
-251.645
-244.429
-237.022
-229.522
-222.052
-214.776
-207.826
-201.291
-195.259
-189.806
-185.008
-180.965
-177.731
-175.309
-173.701
-172.888
-172.858
-173.611
-175.103
-177.245
-179.917
-182.967
-186.268
-189.731
-193.267
-196.786
-200.194
-203.375
-206.233
-208.711
-210.753
-212.313
-213.352
-213.833
-213.772
-213.259
-212.433
-211.459
-210.479
-209.578
-208.844
-208.397
-208.372
-208.939
-210.234
-212.316
-215.295
-219.348
-224.542
-230.793
-237.765
-244.755
-251.09
-256.343
-260.003
-261.457
-260.37
-256.758
-251.303
-245.529
-240.728
-237.34
-235.957
-237.563
-242.407
-250.088
-257.968
-260.455
-254.297
-238.881
-214.84
-185.046
-146.587
-91.578
-15.491
84.405
202.308
323.505
439.016
544.876
638.914
722.749
789.151
817.555
790.545
697.587
538.434
335.053
116.257
-91.78
-263.372
-386.489
-458.56
-481.839
-463.884
-412.217
-338.461
-256.345
-182.439
-132.287
-110.071
-111.041
-122.801
-133.393
-139.005
-141.574
-147.07
-158.728
-174.893
-192.458
-207.18
-216.301
-219.673
-217.961
-212.491
-205.166
-197.582
-190.592
-184.714
-180.319
-177.44
-176.041
-175.979
-176.625
-177.198
-177.24
-176.456
-174.716
-172.079
-168.539
-164.077
-158.826
-152.984
-146.753
-140.354
-133.935
-127.588
-121.427
-115.568
-110.122
-105.212
-100.926
-97.329
-94.463
-92.351
-90.996
-90.383
-90.468
-91.176
-92.404
-94.022
-95.911
-97.962
-100.07
-102.144
-104.089
-105.811
-107.227
-108.261
-108.858
-108.973
-108.575
-107.646
-106.175
-104.158
-101.597
-98.496
-94.866
-90.723
-86.085
-80.97
-75.41
-69.441
-63.113
-56.492
-49.629
-42.568
-35.341
-27.971
-20.484
-12.919
-5.312
2.29
9.847
17.33
24.708
31.95
39.041
45.971
52.747
59.398
65.938
72.368
78.679
84.853
90.874
96.731
102.412
107.905
113.194
118.263
123.095
127.679
131.993
136.013
139.705
143.025
145.939
148.423
150.46
152.039
153.152
153.793
153.962
153.666
152.912
151.709
150.066
147.992
145.499
142.605
139.333
135.708
131.755
127.499
122.965
118.181
113.173
107.968
102.592
97.071
91.429
85.695
79.897
74.065
68.228
62.413
56.649
50.963
45.382
39.93
34.632
29.507
24.578
19.861
15.375
11.134
7.153
3.443
0.015
-3.125
-5.968
-8.511
-10.751
-12.686
-14.319
-15.649
-16.683
-17.424
-17.88
-18.058
-17.968
-17.619
-17.024
-16.194
-15.143
-13.885
-12.434
-10.806
-9.017
-7.081
-5.015
-2.834
-0.555
1.81
4.243
6.732
9.263
11.823
14.398
16.978
19.55
22.105
24.632
27.124
29.571
31.967
34.305
36.581
38.789
40.926
42.988
44.975
46.884
48.715
50.468
52.144
53.743
55.268
56.72
58.103
59.419
60.671
61.863
62.997
64.078
65.109
66.093
67.033
67.934
68.798
69.628
70.428
71.202
71.952
72.682
73.393
74.089
74.772
75.443
76.105
76.76
77.41
78.055
78.697
79.339
79.98
80.623
81.269
81.918
82.572
83.232
83.898
84.573
85.257
85.951
86.659
87.382
88.121
88.881
89.662
90.467
91.299
92.159
93.051
93.977
94.939
95.94
96.982
98.068
99.2
100.382
101.616
102.902
104.242
105.639
107.091
108.6
110.164
111.782
113.454
115.177
116.949
118.767
120.626
122.523
124.452
126.408
128.381
130.362
132.342
134.308
136.248
138.15
140
141.786
143.495
145.118
146.644
148.064
149.367
150.541
151.573
152.452
153.169
153.714
154.079
154.261
154.26
154.076
153.717
153.179
152.456
151.539
150.415
149.077
147.517
145.735
143.738
141.545
139.184
136.692
134.11
131.471
128.808
126.152
123.533
121.002
118.619
116.445
114.549
112.991
111.824
111.084
110.755
110.794
111.124
111.665
112.352
113.103
113.795
114.323
114.584
114.422
113.728
112.297
109.777
106.092
101.35
95.774
89.963
84.505
79.742
76.407
75.433
76.83
80.256
84.99
89.083
90.982
89.819
83.954
73.021
59.554
46.128
34.84
25.857
16.476
6.97
4.729
24.626
79.548
172.052
294.321
427.472
556.69
680.459
799.915
915.147
1018.834
1089.819
1106.421
1059.986
952.139
795.667
612.844
421.883
240.014
87.847
-23.015
-88.807
-111.741
-107.97
-91.891
-69.125
-47.079
-25.212
-3.46
10.808
18.866
21.587
18.956
16.177
12.309
6.005
-0.773
-7.669
-12.666
-14.066
-12.508
-8.752
-3.742
1.554
6.467
10.345
12.795
13.763
13.497
12.454
11.003
9.44
8.078
7.197
7.068
7.933
9.917
13.097
17.574
23.41
30.644
39.285
49.266
60.455
72.673
85.69
99.232
113.022
126.777
140.216
153.062
165.062
176.012
185.732
194.063
200.863
205.992
209.351
210.89
210.618
208.604
204.972
199.898
193.594
186.296
178.252
169.718
160.915
152.031
143.249
134.736
126.664
119.229
112.599
106.922
102.331
98.908
96.691
95.674
95.793
96.952
99.042
101.947
105.576
109.85
114.685
120.012
125.761
131.85
138.195
144.694
151.213
157.639
163.882
169.886
175.633
181.126
186.367
191.353
196.074
200.52
204.665
208.459
211.822
214.657
216.875
218.436
219.341
219.596
219.2
218.126
216.333
213.781
210.426
206.23
201.151
195.145
188.199
180.346
171.664
162.276
152.311
141.855
130.969
119.707
108.126
96.307
84.352
72.361
60.451
48.762
37.439
26.638
16.497
7.111
-1.466
-9.227
-16.184
-22.336
-27.664
-32.142
-35.758
-38.519
-40.462
-41.645
-42.144
-42.069
-41.552
-40.745
-39.81
-38.905
-38.15
-37.633
-37.429
-37.593
-38.201
-39.344
-41.085
-43.473
-46.533
-50.26
-54.652
-59.686
-65.296
-71.382
-77.82
-84.446
-91.13
-97.756
-104.203
-110.376
-116.176
-121.485
-126.222
-130.325
-133.728
-136.385
-138.239
-139.221
-139.321
-138.562
-136.99
-134.703
-131.786
-128.323
-124.425
-120.183
-115.675
-110.99
-106.181
-101.286
-96.36
-91.456
-86.632
-81.971
-77.521
-73.306
-69.346
-65.627
-62.128
-58.829
-55.681
-52.642
-49.692
-46.815
-44.012
-41.301
-38.684
-36.165
-33.749
-31.425
-29.193
-27.058
-25.018
-23.088
-21.285
-19.631
-18.161
-16.906
-15.886
-15.112
-14.59
-14.317
-14.292
-14.509
-14.959
-15.633
-16.527
-17.63
-18.939
-20.446
-22.137
-23.998
-26.009
-28.15
-30.402
-32.746
-35.165
-37.64
-40.156
-42.696
-45.249
-47.802
-50.341
-52.848
-55.305
-57.694
-59.996
-62.193
-64.264
-66.191
-67.958
-69.55
-70.954
-72.164
-73.168
-73.957
-74.518
-74.838
-74.908
-74.724
-74.28
-73.576
-72.62
-71.421
-69.999
-68.378
-66.572
-64.59
-62.436
-60.104
-57.591
-54.893
-52.004
-48.932
-45.68
-42.249
-38.65
-34.886
-30.948
-26.822
-22.474
-17.865
-12.981
-7.824
-2.409
3.218
9.006
14.894
20.801
26.667
32.441
38.07
43.514
48.729
53.649
58.196
62.272
65.757
68.564
70.631
71.913
72.422
72.187
71.26
69.734
67.675
65.126
62.134
58.727
54.931
50.803
46.412
41.856
37.281
32.818
28.578
24.651
21.071
17.837
14.93
12.285
9.859
7.64
5.615
3.792
2.196
0.821
-0.354
-1.395
-2.458
-3.716
-5.319
-7.406
-10.039
-13.246
-17.062
-21.476
-26.474
-32.096
-38.36
-45.332
-53.197
-62.019
-71.696
-81.961
-92.168
-101.516
-109.315
-114.798
-117.165
-116.001
-111.232
-103.463
-94.352
-85.826
-79.869
-77.275
-77.325
-79.513
-82.557
-88.037
-100.283
-117.99
-136.41
-143.577
-119.36
-54.313
50.107
183.6
324.044
457.758
582.648
699.253
811.337
913.669
991.008
1026.295
1004.49
921.187
780.125
593.957
385.634
179.018
0.838
-127.583
-202.069
-228.081
-219.764
-193.862
-158.841
-121.461
-89.655
-69.44
-66.412
-79.75
-99.495
-116.483
-125.452
-126.236
-125.138
-126.186
-129.157
-132.659
-133.798
-131.458
-126.834
-121.056
-115.135
-109.866
-105.64
-102.68
-101.104
-100.762
-101.32
-102.529
-104.211
-106.178
-108.236
-110.209
-111.933
-113.291
-114.225
-114.664
-114.556
-113.928
-112.85
-111.41
-109.702
-107.805
-105.787
-103.735
-101.745
-99.891
-98.231
-96.804
-95.638
-94.77
-94.226
-94.002
-94.058
-94.297
-94.605
-94.89
-95.071
-95.082
-94.865
-94.357
-93.504
-92.276
-90.662
-88.658
-86.261
-83.461
-80.257
-76.67
-72.745
-68.547
-64.139
-59.564
-54.853
-50.031
-45.117
-40.131
-35.083
-29.967
-24.773
-19.502
-14.15
-8.723
-3.22
2.37
8.057
13.846
19.739
25.729
31.805
37.95
44.145
50.358
56.564
62.741
68.867
74.928
80.902
86.756
92.457
97.97
103.269
108.343
113.177
117.744
122.031
126.026
129.728
133.149
136.277
139.069
141.483
143.477
145.025
146.125
146.78
146.984
146.727
145.992
144.774
143.091
140.948
138.329
135.207
131.543
127.336
122.642
117.517
112.014
106.177
100.022
93.562
86.834
79.877
72.717
65.372
57.843
50.138
42.312
34.448
26.635
18.928
11.336
3.856
-3.502
-10.718
-17.761
-24.599
-31.221
-37.622
-43.767
-49.611
-55.105
-60.197
-64.889
-69.226
-73.246
-76.973
-80.407
-83.535
-86.362
-88.905
-91.177
-93.187
-94.935
-96.417
-97.658
-98.702
-99.589
-100.368
-101.051
-101.619
-102.067
-102.392
-102.601
-102.709
-102.72
-102.63
-102.447
-102.189
-101.876
-101.529
-101.155
-100.747
-100.303
-99.818
-99.298
-98.764
-98.23
-97.704
-97.199
-96.721
-96.281
-95.892
-95.561
-95.283
-95.056
-94.877
-94.744
-94.661
-94.63
-94.648
-94.714
-94.824
-94.973
-95.161
-95.384
-95.636
-95.914
-96.212
-96.528
-96.86
-97.21
-97.574
-97.955
-98.349
-98.759
-99.184
-99.626
-100.084
-100.559
-101.052
-101.563
-102.092
-102.641
-103.21
-103.799
-104.41
-105.043
-105.7
-106.38
-107.085
-107.816
-108.573
-109.359
-110.173
-111.017
-111.89
-112.795
-113.729
-114.694
-115.689
-116.711
-117.76
-118.832
-119.924
-121.03
-122.145
-123.262
-124.375
-125.476
-126.558
-127.615
-128.638
-129.623
-130.562
-131.448
-132.273
-133.03
-133.709
-134.304
-134.806
-135.207
-135.499
-135.672
-135.718
-135.633
-135.408
-135.034
-134.5
-133.79
-132.895
-131.813
-130.542
-129.085
-127.446
-125.635
-123.668
-121.571
-119.367
-117.074
-114.708
-112.275
-109.792
-107.279
-104.763
-102.272
-99.82
-97.407
-95.034
-92.697
-90.382
-88.064
-85.696
-83.219
-80.592
-77.793
-74.824
-71.696
-68.415
-64.979
-61.39
-57.661
-53.828
-49.939
-46.049
-42.219
-38.529
-35.087
-32.037
-29.529
-27.674
-26.538
-26.144
-26.499
-27.611
-29.483
-32.11
-35.455
-39.457
-44.044
-49.141
-54.656
-60.475
-66.44
-72.347
-78.008
-83.282
-88.091
-92.445
-96.364
-99.868
-102.98
-105.704
-108.092
-110.25
-112.293
-114.335
-116.499
-118.874
-121.643
-125.149
-129.556
-134.798
-140.53
-145.994
-150.475
-153.533
-154.639
-153.099
-148.61
-141.366
-132.294
-123.364
-116.421
-112.572
-112.76
-117.775
-127.618
-141.201
-155.955
-167.51
-171.332
-163.523
-140.306
-98.211
-34.301
51.211
153.834
267.428
384.641
501.833
622.386
746.094
867.155
974.172
1042.526
1049.976
987.401
853.285
663.398
445.36
223.708
24.319
-129.706
-227.384
-264.349
-243.266
-181.451
-101.52
-26.201
20.345
29.408
7.151
-33.172
-70.41
-93.068
-100.974
-98.717
-96.313
-97.787
-101.746
-106.353
-108.118
-106.247
-102.269
-97.192
-92.305
-88.707
-86.521
-85.752
-86.364
-87.935
-90.191
-93.02
-96.203
-99.527
-102.812
-105.839
-108.444
-110.539
-112.001
-112.704
-112.553
-111.464
-109.461
-106.652
-103.162
-99.153
-94.771
-90.143
-85.418
-80.738
-76.24
-72.06
-68.317
-65.112
-62.541
-60.677
-59.552
-59.174
-59.474
-60.322
-61.579
-63.091
-64.704
-66.277
-67.655
-68.678
-69.21
-69.133
-68.338
-66.722
-64.196
-60.683
-56.148
-50.593
-44.062
-36.645
-28.438
-19.54
-10.07
-0.146
10.095
20.506
30.967
41.379
51.642
61.655
71.321
80.554
89.293
97.504
105.171
112.293
118.873
124.916
130.447
135.495
140.103
144.322
148.183
151.699
154.884
157.754
160.326
162.617
164.631
166.362
167.807
168.968
169.853
170.471
170.82
170.894
170.68
170.161
169.324
168.17
166.701
164.91
162.783
160.3
157.44
154.187
150.524
146.423
141.849
136.767
131.153
124.995
118.296
111.067
103.328
95.098
86.4
77.291
67.85
58.179
48.402
38.635
28.992
19.6
10.589
2.08
-5.815
-13.012
-19.45
-25.066
-29.816
-33.651
-36.529
-38.464
-39.508
-39.745
-39.303
-38.304
-36.87
-35.15
-33.283
-31.391
-29.589
-27.956
-26.549
-25.439
-24.694
-24.386
-24.595
-25.346
-26.631
-28.419
-30.63
-33.183
-35.993
-38.939
-41.919
-44.852
-47.667
-50.328
-52.814
-55.085
-57.102
-58.824
-60.191
-61.176
-61.768
-61.967
-61.803
-61.315
-60.55
-59.582
-58.477
-57.277
-56.016
-54.71
-53.36
-51.981
-50.585
-49.182
-47.795
-46.44
-45.126
-43.869
-42.668
-41.516
-40.401
-39.298
-38.184
-37.046
-35.878
-34.677
-33.45
-32.199
-30.93
-29.652
-28.37
-27.087
-25.804
-24.521
-23.237
-21.957
-20.685
-19.428
-18.194
-16.99
-15.82
-14.69
-13.601
-12.558
-11.561
-10.609
-9.703
-8.843
-8.032
-7.272
-6.565
-5.915
-5.324
-4.794
-4.329
-3.928
-3.594
-3.327
-3.126
-2.992
-2.924
-2.923
-2.987
-3.116
-3.309
-3.566
-3.884
-4.262
-4.698
-5.19
-5.734
-6.326
-6.962
-7.638
-8.348
-9.086
-9.846
-10.622
-11.406
-12.193
-12.973
-13.739
-14.481
-15.191
-15.859
-16.476
-17.032
-17.517
-17.925
-18.245
-18.471
-18.595
-18.61
-18.511
-18.29
-17.944
-17.468
-16.858
-16.112
-15.229
-14.209
-13.052
-11.761
-10.34
-8.794
-7.131
-5.36
-3.489
-1.533
0.498
2.586
4.717
6.874
9.039
11.196
13.325
15.409
17.43
19.367
21.203
22.918
24.491
25.901
27.13
28.161
28.983
29.586
29.961
30.097
29.984
29.611
28.971
28.056
26.858
25.372
23.6
21.555
19.272
16.791
14.149
11.386
8.537
5.634
2.717
-0.174
-2.997
-5.704
-8.252
-10.599
-12.691
-14.488
-15.969
-17.144
-18.093
-18.913
-19.697
-20.534
-21.478
-22.589
-23.978
-25.747
-28.004
-30.875
-34.417
-38.731
-44.061
-50.435
-57.681
-65.412
-72.812
-79.083
-83.734
-86.09
-85.381
-81.524
-74.831
-66.272
-57.944
-51.491
-47.831
-48.185
-53.36
-62.744
-74.93
-86.97
-94.043
-92.29
-78.441
-48.604
0.167
69.429
157.971
260.186
368.841
477.222
582.361
686.781
789.529
885.402
963.74
1002.5
984.586
903.374
757.993
566.069
355.228
149.906
-20.724
-137.373
-201.29
-218.989
-207.13
-185.01
-156.566
-125.714
-96.772
-70.647
-56.57
-57.732
-68.053
-83.551
-96.219
-102.26
-105.687
-107.348
-108.41
-109.53
-108.073
-103.615
-97.243
-89.677
-82.393
-76.633
-72.598
-70.367
-69.955
-70.99
-73.151
-76.216
-79.861
-83.775
-87.729
-91.482
-94.803
-97.541
-99.536
-100.622
-100.682
-99.626
-97.411
-94.041
-89.555
-84.027
-77.546
-70.236
-62.253
-53.762
-44.965
-36.065
-27.239
-18.65
-10.452
-2.774
4.268
10.569
16.049
20.642
24.285
26.954
28.654
29.424
29.352
28.544
27.135
25.269
23.062
20.627
18.074
15.496
12.986
10.659
8.636
7.061
6.107
5.911
6.574
8.164
10.707
14.21
18.655
24
30.208
37.243
45.071
53.681
63.05
73.105
83.742
94.804
106.094
117.437
128.677
139.664
150.262
160.348
169.828
178.642
186.742
194.073
200.558
206.097
210.607
214.059
216.464
217.876
218.377
218.049
216.98
215.29
213.107
210.538
207.661
204.512
201.106
197.479
193.688
189.803
185.875
181.909
177.889
173.794
169.591
165.242
160.688
155.821
150.531
144.744
138.416
131.554
124.185
116.327
107.998
99.233
90.092
80.67
71.076
61.398
51.718
42.13
32.743
23.71
15.177
7.248
0.004
-6.514
-12.283
-17.282
-21.51
-24.998
-27.807
-30.02
-31.74
-33.036
-33.969
-34.61
-35.03
-35.333
-35.61
-35.923
-36.323
-36.842
-37.503
-38.33
-39.333
-40.489
-41.765
-43.111
-44.466
-45.797
-47.08
-48.288
-49.402
-50.393
-51.239
-51.934
-52.482
-52.884
-53.147
-53.274
-53.27
-53.159
-52.969
-52.73
-52.479
-52.238
-52.024
-51.854
-51.738
-51.684
-51.701
-51.786
-51.934
-52.143
-52.413
-52.741
-53.129
-53.572
-54.064
-54.598
-55.166
-55.764
-56.387
-57.029
-57.687
-58.357
-59.04
-59.733
-60.437
-61.153
-61.877
-62.608
-63.342
-64.076
-64.806
-65.531
-66.246
-66.948
-67.636
-68.307
-68.963
-69.602
-70.224
-70.828
-71.416
-71.988
-72.543
-73.083
-73.609
-74.123
-74.625
-75.118
-75.604
-76.086
-76.566
-77.045
-77.524
-78.004
-78.485
-78.965
-79.444
-79.922
-80.396
-80.868
-81.336
-81.801
-82.263
-82.725
-83.187
-83.648
-84.109
-84.568
-85.022
-85.468
-85.902
-86.321
-86.718
-87.088
-87.425
-87.726
-87.986
-88.197
-88.354
-88.443
-88.456
-88.391
-88.244
-88.017
-87.714
-87.343
-86.917
-86.455
-85.976
-85.498
-85.036
-84.597
-84.187
-83.809
-83.468
-83.173
-82.923
-82.705
-82.502
-82.29
-82.045
-81.739
-81.334
-80.778
-80.025
-79.04
-77.799
-76.296
-74.536
-72.537
-70.321
-67.918
-65.377
-62.765
-60.157
-57.64
-55.297
-53.211
-51.481
-50.219
-49.525
-49.48
-50.146
-51.554
-53.713
-56.606
-60.187
-64.395
-69.145
-74.33
-79.838
-85.536
-91.298
-96.999
-102.493
-107.629
-112.276
-116.321
-119.667
-122.267
-124.115
-125.244
-125.743
-125.712
-125.237
-124.429
-123.428
-122.399
-121.522
-120.966
-120.879
-121.448
-122.922
-125.434
-128.934
-133.13
-137.461
-141.317
-144.207
-145.59
-144.752
-141.261
-135.289
-127.649
-119.826
-113.407
-109.381
-108.544
-112.065
-120.512
-132.974
-147.175
-159.519
-165.938
-163.098
-147.851
-116.105
-64.035
8.337
96.795
195.928
299.069
404.096
516.262
635.256
754.437
861.467
930.131
937.38
873.898
738.183
548.265
334.907
125.48
-51.554
-178.121
-252.366
-278.996
-272.759
-249.204
-218.46
-189.904
-166.399
-150.067
-142.294
-138.606
-136.304
-132.731
-126.932
-122.748
-122.102
-124.904
-129.348
-131.971
-131.298
-127.516
-121.4
-114.18
-106.553
-99.044
-92.479
-87.303
-83.628
-81.338
-80.042
-79.451
-79.385
-79.605
-79.845
-79.884
-79.533
-78.689
-77.317
-75.353
-72.779
-69.641
-66.004
-61.995
-57.742
-53.344
-48.91
-44.547
-40.348
-36.403
-32.775
-29.501
-26.622
-24.17
-22.159
-20.593
-19.419
-18.538
-17.851
-17.244
-16.614
-15.883
-14.972
-13.805
-12.331
-10.51
-8.316
-5.746
-2.789
0.568
4.321
8.459
12.949
17.728
22.745
27.951
33.303
38.773
44.336
49.968
55.664
61.426
67.249
73.138
79.087
85.082
91.116
97.173
103.237
109.297
115.344
121.37
127.372
133.342
139.265
145.126
150.903
156.579
162.144
167.588
172.893
178.049
183.051
187.909
192.656
197.32
201.909
206.415
210.813
215.081
219.198
223.14
226.871
230.328
233.455
236.194
238.506
240.351
241.678
242.415
242.459
241.715
240.113
237.617
234.205
229.861
224.579
218.352
211.215
203.247
194.52
185.11
175.091
164.53
153.518
142.178
130.659
119.115
107.695
96.513
85.675
75.287
65.442
56.241
47.743
39.962
32.911
26.595
21.013
16.168
12.042
8.577
5.702
3.329
1.359
-0.285
-1.67
-2.872
-3.957
-5.002
-6.064
-7.166
-8.326
-9.56
-10.876
-12.29
-13.808
-15.404
-17.052
-18.715
-20.339
-21.892
-23.352
-24.69
-25.886
-26.915
-27.76
-28.421
-28.905
-29.218
-29.37
-29.367
-29.214
-28.933
-28.548
-28.084
-27.574
-27.038
-26.493
-25.953
-25.432
-24.938
-24.481
-24.063
-23.681
-23.334
-23.024
-22.751
-22.517
-22.321
-22.156
-22.02
-21.906
-21.813
-21.737
-21.678
-21.631
-21.597
-21.577
-21.575
-21.592
-21.632
-21.695
-21.78
-21.889
-22.02
-22.175
-22.348
-22.537
-22.74
-22.958
-23.192
-23.444
-23.713
-23.999
-24.304
-24.63
-24.979
-25.348
-25.729
-26.114
-26.499
-26.891
-27.301
-27.737
-28.202
-28.704
-29.253
-29.864
-30.545
-31.294
-32.092
-32.92
-33.772
-34.653
-35.579
-36.563
-37.601
-38.677
-39.769
-40.861
-41.936
-42.961
-43.883
-44.644
-45.207
-45.573
-45.774
-45.84
-45.78
-45.589
-45.256
-44.786
-44.206
-43.557
-42.87
-42.182
-41.542
-41.029
-40.764
-40.863
-41.397
-42.394
-43.839
-45.728
-48.074
-50.884
-54.145
-57.813
-61.819
-66.087
-70.554
-75.137
-79.72
-84.151
-88.235
-91.796
-94.698
-96.836
-98.126
-98.469
-97.758
-95.93
-92.969
-88.905
-83.799
-77.718
-70.734
-62.959
-54.549
-45.69
-36.601
-27.479
-18.505
-9.869
-1.771
5.563
11.905
17.085
20.991
23.556
24.753
24.587
23.078
20.302
16.375
11.427
5.608
-0.939
-8.067
-15.595
-23.313
-30.981
-38.356
-45.231
-51.458
-56.919
-61.556
-65.386
-68.457
-70.859
-72.702
-74.064
-75.04
-75.776
-76.441
-77.217
-78.298
-79.834
-82.031
-85.216
-89.549
-94.956
-101.072
-107.175
-112.6
-116.912
-119.568
-119.853
-117.399
-112.348
-105.64
-99.05
-93.963
-91.359
-92.355
-97.704
-107.656
-120.399
-131.174
-136.044
-132.666
-120.479
-101.848
-73.173
-25.604
46.363
146.579
269.289
398.702
525.162
645.424
757.877
863.354
953.533
1005.053
997.487
919.998
772.766
577.516
363.387
155.002
-24.375
-160.875
-249.973
-290.33
-286.382
-250.181
-196.725
-143.319
-108.433
-99.668
-114.485
-143.108
-168.616
-182.021
-183.337
-176.718
-170.9
-169.335
-169.94
-170.416
-167.818
-161.382
-152.55
-142.426
-131.88
-121.728
-112.527
-104.611
-98.173
-93.157
-89.359
-86.723
-85.269
-84.912
-85.503
-86.875
-88.848
-91.299
-94.145
-97.244
-100.441
-103.611
-106.659
-109.546
-112.25
-114.724
-116.897
-118.674
-119.959
-120.69
-120.827
-120.348
-119.258
-117.573
-115.33
-112.595
-109.438
-105.911
-102.061
-97.901
-93.444
-88.726
-83.792
-78.71
-73.567
-68.437
-63.396
-58.527
-53.87
-49.448
-45.258
-41.252
-37.381
-33.601
-29.854
-26.105
-22.326
-18.479
-14.54
-10.484
-6.255
-1.79
2.998
8.21
13.902
20.099
26.8
33.964
41.54
49.479
57.702
66.132
74.715
83.399
92.162
100.996
109.852
118.65
127.278
135.607
143.543
151.022
157.996
164.439
170.329
175.651
180.425
184.674
188.401
191.591
194.199
196.162
197.462
198.117
198.177
197.705
196.738
195.301
193.417
191.109
188.397
185.295
181.794
177.879
173.557
168.855
163.827
158.539
153.028
147.309
141.377
135.231
128.88
122.345
115.638
108.771
101.756
94.619
87.399
80.141
72.876
65.623
58.39
51.185
44.024
36.934
29.95
23.101
16.411
9.903
3.602
-2.464
-8.271
-13.808
-19.066
-24.043
-28.732
-33.124
-37.211
-40.986
-44.447
-47.596
-50.437
-52.972
-55.208
-57.15
-58.809
-60.195
-61.319
-62.19
-62.817
-63.208
-63.375
-63.33
-63.085
-62.65
-62.039
-61.263
-60.336
-59.271
-58.082
-56.781
-55.382
-53.897
-52.34
-50.724
-49.06
-47.361
-45.638
-43.901
-42.16
-40.423
-38.699
-36.995
-35.317
-33.674
-32.069
-30.509
-28.998
-27.539
-26.135
-24.791
-23.508
-22.288
-21.134
-20.048
-19.031
-18.086
-17.215
-16.419
-15.7
-15.059
-14.497
-14.014
-13.61
-13.283
-13.032
-12.858
-12.758
-12.733
-12.779
-12.898
-13.089
-13.356
-13.698
-14.118
-14.613
-15.185
-15.833
-16.556
-17.356
-18.231
-19.175
-20.188
-21.273
-22.429
-23.662
-24.967
-26.332
-27.747
-29.205
-30.699
-32.219
-33.754
-35.286
-36.81
-38.329
-39.848
-41.374
-42.905
-44.424
-45.921
-47.381
-48.801
-50.19
-51.55
-52.868
-54.147
-55.39
-56.609
-57.826
-59.036
-60.201
-61.293
-62.282
-63.152
-63.907
-64.541
-65.044
-65.403
-65.594
-65.605
-65.44
-65.083
-64.506
-63.686
-62.582
-61.195
-59.569
-57.732
-55.714
-53.54
-51.22
-48.776
-46.249
-43.673
-41.085
-38.529
-36.032
-33.642
-31.42
-29.41
-27.662
-26.197
-24.996
-24.055
-23.366
-22.905
-22.657
-22.6
-22.691
-22.898
-23.19
-23.504
-23.793
-24.011
-24.102
-24.039
-23.812
-23.421
-22.897
-22.28
-21.613
-20.959
-20.382
-19.928
-19.657
-19.623
-19.868
-20.473
-21.487
-22.936
-24.862
-27.268
-30.141
-33.465
-37.141
-41.045
-45.08
-49.14
-53.173
-57.19
-61.078
-64.702
-68.137
-71.42
-74.686
-78.163
-81.694
-85.07
-88.429
-91.962
-95.666
-99.526
-103.034
-105.371
-106.427
-106.187
-104.329
-100.533
-94.438
-85.996
-76.329
-67.182
-59.734
-55.271
-54.987
-59.581
-70.138
-85.698
-101.95
-115.791
-124.745
-127.695
-127.147
-118.742
-92.088
-37.835
52.08
172.645
308.218
444.014
570.058
688.333
802.096
909.218
998.495
1044.321
1029.688
947.616
801.811
619.449
425.938
244.583
99.89
-4.31
-70.243
-104.815
-126.15
-142.081
-154.007
-161.507
-157.756
-142.123
-120.104
-97.283
-79.536
-69.226
-65.354
-66.544
-71.336
-78.244
-85.608
-91.514
-94.805
-95.302
-93.406
-89.891
-85.456
-80.686
-76.354
-73.301
-71.975
-72.436
-74.503
-77.786
-81.955
-86.777
-91.944
-97.119
-102.055
-106.558
-110.513
-113.896
-116.639
-118.674
-119.969
-120.495
-120.269
-119.356
-117.821
-115.738
-113.209
-110.324
-107.196
-103.964
-100.723
-97.544
-94.466
-91.481
-88.597
-85.828
-83.17
-80.625
-78.174
-75.78
-73.419
-71.068
-68.691
-66.252
-63.699
-60.954
-57.974
-54.74
-51.254
-47.548
-43.642
-39.541
-35.258
-30.808
-26.203
-21.459
-16.579
-11.555
-6.39
-1.095
4.311
9.793
15.328
20.91
26.535
32.209
37.933
43.699
49.501
55.335
61.191
67.054
72.904
78.708
84.439
90.075
95.594
100.977
106.205
111.252
116.094
120.708
125.07
129.156
132.946
136.415
139.543
142.312
144.71
146.725
148.348
149.57
150.384
150.784
150.769
150.337
149.487
148.223
146.546
144.465
141.988
139.126
135.891
132.3
128.367
124.112
119.555
114.715
109.615
104.278
98.727
92.987
87.083
81.04
74.883
68.639
62.333
55.99
49.637
43.296
36.993
30.75
24.59
18.535
12.603
6.815
1.188
-4.262
-9.519
-14.569
-19.4
-24.002
-28.365
-32.482
-36.348
-39.958
-43.309
-46.402
-49.236
-51.813
-54.137
-56.212
-58.042
-59.635
-60.999
-62.141
-63.07
-63.798
-64.336
-64.693
-64.884
-64.92
-64.814
-64.579
-64.229
-63.777
-63.236
-62.619
-61.939
-61.208
-60.439
-59.643
-58.831
-58.012
-57.197
-56.393
-55.608
-54.85
-54.122
-53.432
-52.783
-52.178
-51.621
-51.113
-50.656
-50.251
-49.897
-49.594
-49.34
-49.134
-48.974
-48.856
-48.778
-48.736
-48.726
-48.743
-48.783
-48.843
-48.916
-48.999
-49.086
-49.174
-49.257
-49.332
-49.397
-49.446
-49.479
-49.493
-49.486
-49.458
-49.408
-49.337
-49.244
-49.131
-49
-48.852
-48.689
-48.515
-48.332
-48.143
-47.953
-47.764
-47.581
-47.408
-47.248
-47.105
-46.984
-46.887
-46.818
-46.781
-46.779
-46.813
-46.887
-47.002
-47.16
-47.361
-47.605
-47.893
-48.222
-48.591
-48.998
-49.439
-49.909
-50.405
-50.921
-51.452
-51.99
-52.531
-53.066
-53.587
-54.088
-54.559
-54.993
-55.381
-55.714
-55.985
-56.184
-56.306
-56.342
-56.285
-56.131
-55.873
-55.508
-55.031
-54.441
-53.734
-52.911
-51.973
-50.921
-49.758
-48.488
-47.116
-45.651
-44.101
-42.477
-40.792
-39.061
-37.297
-35.519
-33.743
-31.988
-30.27
-28.607
-27.014
-25.508
-24.105
-22.825
-21.685
-20.703
-19.894
-19.274
-18.857
-18.652
-18.663
-18.895
-19.346
-20.019
-20.925
-22.072
-23.471
-25.133
-27.063
-29.261
-31.719
-34.418
-37.322
-40.396
-43.595
-46.878
-50.212
-53.557
-56.877
-60.128
-63.244
-66.158
-68.802
-71.104
-72.994
-74.433
-75.418
-75.983
-76.207
-76.169
-75.924
-75.556
-75.174
-74.889
-74.82
-75.071
-75.715
-76.906
-78.961
-82.068
-86.205
-91.148
-96.342
-101.203
-105.339
-108.179
-108.829
-106.79
-102.241
-95.877
-89.251
-84.175
-81.842
-83.526
-91.134
-104.003
-118.399
-131.027
-137.436
-137.491
-137.338
-136.891
-130.183
-104.489
-40.987
67.446
214.442
384.712
557
717.832
861.018
979.999
1067.841
1111.479
1096.158
1016.951
876.763
688.903
476.637
263.624
73.879
-73.107
-168.994
-215.636
-223.543
-204.742
-168.956
-123.246
-74.075
-33.036
-11.325
-14.132
-38.448
-71.308
-99.721
-117.043
-123.408
-125.016
-126.504
-128.809
-130.896
-130.199
-126.055
-119.729
-112.506
-105.828
-100.587
-96.852
-94.647
-93.891
-94.284
-95.609
-97.692
-100.343
-103.413
-106.775
-110.281
-113.787
-117.174
-120.304
-123.021
-125.177
-126.665
-127.434
-127.473
-126.807
-125.463
-123.475
-120.894
-117.78
-114.196
-110.208
-105.879
-101.274
-96.467
-91.534
-86.551
-81.591
-76.701
-71.906
-67.219
-62.636
-58.15
-53.749
-49.412
-45.117
-40.843
-36.576
-32.306
-28.022
-23.709
-19.347
-14.913
-10.388
-5.763
-1.029
3.82
8.782
13.853
19.014
24.238
29.505
34.805
40.135
45.501
50.909
56.359
61.857
67.407
73.013
78.683
84.415
90.198
96.035
101.937
107.93
114.058
120.345
126.787
133.37
140.06
146.816
153.593
160.324
166.926
173.325
179.452
185.25
190.682
195.692
200.208
204.148
207.407
209.908
211.61
212.478
212.502
211.689
210.06
207.672
204.616
200.964
196.777
192.107
186.984
181.457
175.592
169.461
163.148
156.725
150.243
143.753
137.298
130.904
124.584
118.326
112.088
105.848
99.603
93.356
87.126
80.928
74.764
68.645
62.578
56.573
50.644
44.802
39.053
33.414
27.91
22.573
17.449
12.57
7.959
3.631
-0.404
-4.142
-7.576
-10.708
-13.548
-16.1
-18.373
-20.372
-22.102
-23.57
-24.791
-25.781
-26.557
-27.139
-27.543
-27.788
-27.89
-27.866
-27.732
-27.504
-27.194
-26.815
-26.382
-25.911
-25.416
-24.912
-24.414
-23.933
-23.483
-23.075
-22.718
-22.42
-22.188
-22.026
-21.941
-21.933
-22.007
-22.162
-22.4
-22.72
-23.12
-23.599
-24.154
-24.78
-25.473
-26.228
-27.04
-27.901
-28.806
-29.748
-30.721
-31.717
-32.73
-33.753
-34.779
-35.801
-36.813
-37.809
-38.78
-39.722
-40.628
-41.493
-42.312
-43.082
-43.798
-44.459
-45.061
-45.604
-46.086
-46.508
-46.87
-47.171
-47.414
-47.599
-47.73
-47.807
-47.835
-47.815
-47.752
-47.649
-47.508
-47.335
-47.13
-46.898
-46.641
-46.361
-46.06
-45.739
-45.399
-45.042
-44.667
-44.277
-43.874
-43.456
-43.027
-42.589
-42.142
-41.688
-41.227
-40.756
-40.273
-39.775
-39.259
-38.72
-38.153
-37.55
-36.908
-36.222
-35.491
-34.709
-33.871
-32.965
-31.986
-30.932
-29.805
-28.607
-27.344
-26.02
-24.649
-23.255
-21.86
-20.485
-19.142
-17.829
-16.549
-15.306
-14.104
-12.953
-11.847
-10.766
-9.699
-8.638
-7.576
-6.501
-5.382
-4.169
-2.821
-1.313
0.36
2.184
4.145
6.213
8.343
10.488
12.573
14.524
16.294
17.819
19.028
19.91
20.419
20.48
20.051
19.044
17.363
15.047
12.176
8.626
4.277
-0.664
-6.092
-11.906
-17.578
-24.119
-32.507
-41.101
-49.318
-54.204
-52.265
-47.163
-41.338
-38.487
-43.752
-52.71
-61.66
-68.128
-67.929
-64.294
-60.515
-57.453
-57.156
-58.641
-60.603
-63.365
-66.893
-71.522
-77.511
-84.503
-91.96
-99.141
-105.347
-110.043
-112.439
-111.775
-107.978
-101.175
-92.063
-82.387
-73.666
-67.144
-64.397
-65.228
-67.088
-67.902
-65.872
-61.221
-56.538
-50.673
-36.302
-1.45
63.964
162.49
285.759
417.911
548.35
672.052
787.918
894.913
980.193
1023.172
1004.037
910.635
749.078
543.314
327.045
135.745
-5.208
-89.083
-124.764
-132.075
-132.373
-135.262
-140.781
-143.611
-136.603
-120.61
-101.565
-84.785
-74.973
-73.101
-77.258
-85.624
-96.271
-106.872
-115.448
-120.946
-122.987
-121.921
-118.595
-113.721
-107.934
-102.104
-97.068
-93.249
-90.776
-89.49
-89.031
-89.145
-89.643
-90.301
-90.91
-91.309
-91.388
-91.101
-90.463
-89.489
-88.183
-86.571
-84.688
-82.583
-80.331
-78.007
-75.687
-73.445
-71.345
-69.428
-67.73
-66.275
-65.066
-64.093
-63.312
-62.647
-62.023
-61.366
-60.606
-59.688
-58.555
-57.148
-55.425
-53.349
-50.897
-48.061
-44.836
-41.215
-37.212
-32.85
-28.175
-23.256
-18.152
-12.916
-7.594
-2.213
3.2
8.624
14.055
19.495
24.944
30.405
35.874
41.333
46.771
52.176
57.542
62.875
68.179
73.458
78.72
83.969
89.209
94.433
99.616
104.731
109.755
114.668
119.46
124.133
128.696
133.163
137.557
141.884
146.137
150.294
154.306
158.115
161.654
164.869
167.72
170.176
172.207
173.781
174.867
175.424
175.402
174.746
173.388
171.278
168.39
164.73
160.336
155.269
149.614
143.445
136.823
129.809
122.449
114.792
106.881
98.766
90.501
82.155
73.812
65.549
57.427
49.488
41.749
34.209
26.849
19.654
12.616
5.727
-1.003
-7.562
-13.931
-20.085
-26.002
-31.678
-37.116
-42.325
-47.318
-52.103
-56.688
-61.079
-65.263
-69.227
-72.952
-76.412
-79.592
-82.482
-85.07
-87.364
-89.371
-91.092
-92.53
-93.686
-94.543
-95.083
-95.268
-95.057
-94.432
-93.393
-91.956
-90.162
-88.059
-85.703
-83.166
-80.506
-77.769
-75.005
-72.246
-69.525
-66.896
-64.418
-62.167
-60.237
-58.689
-57.565
-56.892
-56.656
-56.833
-57.375
-58.204
-59.254
-60.476
-61.824
-63.271
-64.796
-66.357
-67.912
-69.413
-70.789
-71.99
-72.98
-73.724
-74.219
-74.476
-74.522
-74.411
-74.191
-73.892
-73.54
-73.146
-72.712
-72.253
-71.778
-71.295
-70.825
-70.387
-69.992
-69.66
-69.395
-69.194
-69.048
-68.935
-68.836
-68.74
-68.64
-68.537
-68.434
-68.334
-68.246
-68.178
-68.138
-68.131
-68.159
-68.222
-68.322
-68.462
-68.645
-68.877
-69.164
-69.508
-69.911
-70.373
-70.895
-71.475
-72.109
-72.79
-73.511
-74.264
-75.042
-75.838
-76.642
-77.444
-78.234
-79.001
-79.735
-80.427
-81.067
-81.642
-82.139
-82.542
-82.841
-83.03
-83.104
-83.063
-82.909
-82.646
-82.288
-81.854
-81.358
-80.816
-80.239
-79.633
-79.012
-78.391
-77.779
-77.192
-76.635
-76.105
-75.592
-75.085
-74.554
-73.975
-73.309
-72.507
-71.542
-70.394
-69.049
-67.513
-65.782
-63.861
-61.771
-59.53
-57.166
-54.732
-52.287
-49.91
-47.708
-45.78
-44.229
-43.172
-42.687
-42.828
-43.635
-45.11
-47.246
-50.029
-53.417
-57.368
-61.827
-66.713
-71.92
-77.318
-82.735
-88.012
-92.999
-97.535
-101.509
-104.862
-107.567
-109.656
-111.174
-112.144
-112.616
-112.674
-112.415
-111.97
-111.499
-111.136
-111.089
-111.665
-113.036
-115.218
-118.004
-120.825
-123.064
-124.259
-123.871
-121.243
-116.1
-108.633
-99.664
-90.979
-84.387
-81.105
-82.203
-88.555
-100.195
-116.066
-133.76
-149.074
-157.441
-154.884
-137.557
-101.971
-45.413
32.076
126.59
231.865
340.141
446.826
554.118
662.944
770.148
866.974
930.563
937.658
876.352
743.375
555.575
343.309
133.98
-46.151
-179.137
-260.617
-292.291
-278.924
-231.134
-162.675
-86.622
-23.661
7.587
1.904
-40.117
-100.904
-154.572
-187.278
-190.515
-170.616
-145.573
-125.404
-116.864
-119.349
-123.819
-126.13
-124.774
-119.939
-115.4
-112.688
-111.46
-111.663
-112.614
-113.982
-116.015
-118.662
-121.7
-125.017
-128.498
-131.991
-135.355
-138.41
-140.936
-142.8
-143.949
-144.357
-144.029
-142.987
-141.26
-138.895
-135.955
-132.499
-128.577
-124.244
-119.554
-114.571
-109.367
-104.015
-98.585
-93.131
-87.688
-82.277
-76.904
-71.566
-66.256
-60.96
-55.658
-50.335
-44.981
-39.586
-34.145
-28.653
-23.098
-17.469
-11.753
-5.936
-0.01
6.027
12.175
18.428
24.774
31.195
37.662
44.146
50.626
57.087
63.521
69.93
76.311
82.662
88.986
95.274
101.516
107.708
113.836
119.889
125.872
131.792
137.677
143.561
149.453
155.351
161.239
167.075
172.814
178.402
183.765
188.843
193.586
197.944
201.885
205.377
208.368
210.805
212.62
213.729
214.08
213.644
212.399
210.365
207.572
204.071
199.949
195.281
190.126
184.543
178.572
172.251
165.639
158.794
151.783
144.694
137.593
130.538
123.583
116.755
110.07
103.527
97.097
90.758
84.504
78.336
72.265
66.312
60.484
54.792
49.25
43.855
38.613
33.526
28.593
23.826
19.24
14.858
10.712
6.832
3.236
-0.062
-3.057
-5.748
-8.137
-10.23
-12.038
-13.572
-14.841
-15.853
-16.617
-17.143
-17.446
-17.544
-17.454
-17.198
-16.794
-16.26
-15.617
-14.879
-14.064
-13.186
-12.259
-11.294
-10.307
-9.309
-8.316
-7.341
-6.396
-5.493
-4.642
-3.856
-3.141
-2.505
-1.954
-1.493
-1.126
-0.855
-0.682
-0.609
-0.634
-0.757
-0.976
-1.288
-1.689
-2.175
-2.741
-3.381
-4.089
-4.859
-5.684
-6.557
-7.47
-8.416
-9.386
-10.374
-11.371
-12.37
-13.362
-14.341
-15.299
-16.231
-17.129
-17.988
-18.804
-19.573
-20.29
-20.952
-21.557
-22.102
-22.587
-23.01
-23.373
-23.674
-23.917
-24.102
-24.234
-24.314
-24.347
-24.335
-24.283
-24.195
-24.075
-23.93
-23.762
-23.579
-23.387
-23.192
-23
-22.817
-22.649
-22.501
-22.378
-22.283
-22.219
-22.189
-22.194
-22.235
-22.314
-22.434
-22.594
-22.796
-23.04
-23.328
-23.659
-24.032
-24.443
-24.888
-25.361
-25.857
-26.369
-26.89
-27.412
-27.927
-28.429
-28.915
-29.378
-29.811
-30.205
-30.545
-30.824
-31.036
-31.181
-31.259
-31.272
-31.224
-31.132
-31.02
-30.911
-30.82
-30.754
-30.709
-30.685
-30.682
-30.704
-30.753
-30.819
-30.887
-30.949
-31
-31.034
-31.036
-30.975
-30.799
-30.468
-29.962
-29.281
-28.441
-27.461
-26.363
-25.185
-23.978
-22.811
-21.752
-20.853
-20.153
-19.684
-19.484
-19.595
-20.077
-20.968
-22.275
-23.99
-26.08
-28.506
-31.211
-34.116
-37.114
-40.08
-42.904
-45.489
-47.769
-49.694
-51.243
-52.442
-53.321
-53.932
-54.337
-54.582
-54.75
-54.956
-55.316
-55.956
-57.03
-58.661
-61.028
-64.404
-68.856
-74.263
-80.345
-86.477
-91.98
-96.319
-98.744
-98.373
-94.923
-88.499
-79.52
-69.497
-60.168
-52.878
-49.378
-50.092
-52.994
-55.973
-57.751
-59.422
-63.711
-69.717
-69.781
-48.344
8.818
105.439
234.58
377.399
516.78
647.224
768.7
884.232
989.928
1070.494
1105.831
1078.967
984.706
827.904
625.791
404.969
190.739
10.798
-115.995
-190.137
-219.56
-221.424
-212.681
-194.369
-166.923
-132.509
-93.327
-61.746
-44.216
-36.906
-36.955
-38.096
-38.717
-44.148
-55.406
-71.567
-90.315
-107.133
-120.295
-129.506
-133.83
-133.422
-129.025
-121.813
-113.77
-106.182
-99.34
-93.449
-88.796
-85.569
-83.849
-83.276
-83.012
-82.486
-81.467
-79.842
-77.699
-75.098
-72.024
-68.612
-65.073
-61.73
-59.155
-57.71
-57.332
-57.883
-59.076
-61.575
-67.074
-75.963
-86.765
-94.317
-91.475
-74.537
-45.025
-12.799
8.237
7.718
-17.449
-58.638
-100.331
-127.416
-131.888
-115.248
-85.447
-53.617
-24.878
-2.181
11.758
18.589
15.642
4.131
-8.289
-17.618
-18.297
-9.077
4.028
17.483
28.565
36.118
42.512
48.872
55.112
61.347
67.237
72.752
78.315
84.079
89.989
96.019
102.156
108.361
114.59
120.772
126.81
132.65
138.292
143.723
148.914
153.839
158.468
162.775
166.744
170.357
173.59
176.423
178.842
180.831
182.384
183.492
184.15
184.351
184.092
183.371
182.186
180.541
178.439
175.885
172.889
169.461
165.616
161.371
156.743
151.754
146.426
140.781
134.847
128.647
122.21
115.563
108.732
101.748
94.637
87.428
80.15
72.831
65.498
58.18
50.904
43.695
36.579
29.581
22.725
16.033
9.526
3.225
-2.851
-8.685
-14.262
-19.566
-24.586
-29.313
-33.737
-37.853
-41.656
-45.146
-48.321
-51.183
-53.735
-55.982
-57.93
-59.586
-60.957
-62.055
-62.889
-63.47
-63.812
-63.927
-63.83
-63.535
-63.057
-62.412
-61.615
-60.684
-59.633
-58.479
-57.239
-55.929
-54.564
-53.16
-51.732
-50.295
-48.862
-47.446
-46.058
-44.709
-43.409
-42.166
-40.988
-39.88
-38.849
-37.899
-37.033
-36.254
-35.565
-34.965
-34.456
-34.037
-33.707
-33.462
-33.302
-33.222
-33.218
-33.287
-33.425
-33.625
-33.884
-34.197
-34.557
-34.96
-35.399
-35.869
-36.364
-36.879
-37.408
-37.945
-38.488
-39.031
-39.571
-40.106
-40.633
-41.151
-41.657
-42.151
-42.634
-43.104
-43.564
-44.013
-44.454
-44.888
-45.319
-45.748
-46.18
-46.615
-47.058
-47.511
-47.976
-48.454
-48.947
-49.455
-49.98
-50.521
-51.081
-51.659
-52.256
-52.874
-53.515
-54.179
-54.865
-55.573
-56.3
-57.043
-57.799
-58.562
-59.327
-60.086
-60.832
-61.558
-62.256
-62.92
-63.538
-64.098
-64.586
-64.99
-65.303
-65.521
-65.641
-65.665
-65.596
-65.447
-65.237
-64.979
-64.686
-64.369
-64.03
-63.676
-63.316
-62.952
-62.593
-62.238
-61.875
-61.49
-61.063
-60.562
-59.955
-59.198
-58.236
-57.031
-55.555
-53.789
-51.736
-49.394
-46.775
-43.909
-40.831
-37.59
-34.259
-30.917
-27.651
-24.579
-21.807
-19.45
-17.638
-16.471
-16.036
-16.407
-17.627
-19.733
-22.739
-26.627
-31.356
-36.856
-43.023
-49.743
-56.881
-64.271
-71.761
-79.195
-86.407
-93.257
-99.611
-105.345
-110.367
-114.597
-117.978
-120.497
-122.186
-123.134
-123.474
-123.356
-122.946
-122.409
-121.907
-121.629
-121.755
-122.454
-123.897
-126.17
-129.373
-133.701
-139.15
-145.553
-152.572
-159.5
-165.68
-170.764
-174.185
-175.176
-173.509
-169.193
-162.74
-155.691
-149.001
-142.716
-137.444
-134.03
-132.422
-132.2
-130.646
-122.204
-103.09
-72.17
-31.802
13.708
62.119
114.878
179.782
264.282
372.012
502.981
647.059
789.398
914.099
1003.006
1040.316
1015.27
925.165
774.412
578.401
362.975
152.812
-25.018
-148.993
-215.581
-227.949
-200.11
-155.293
-109.61
-77.524
-67.609
-76.168
-96.648
-118.574
-132.549
-137.801
-137.208
-136.187
-138.642
-143.158
-147.036
-147.669
-143.857
-136.592
-127.193
-116.725
-106.153
-96.332
-87.802
-80.862
-75.574
-71.734
-69.25
-68.141
-68.309
-69.593
-71.81
-74.754
-78.294
-82.341
-86.751
-91.338
-95.91
-100.31
-104.454
-108.291
-111.765
-114.803
-117.297
-119.162
-120.365
-120.896
-120.772
-120.02
-118.662
-116.741
-114.324
-111.487
-108.309
-104.845
-101.122
-97.164
-93.006
-88.695
-84.305
-79.891
-75.48
-71.094
-66.741
-62.429
-58.166
-53.945
-49.742
-45.532
-41.292
-37.007
-32.675
-28.285
-23.822
-19.262
-14.576
-9.745
-4.759
0.391
5.708
11.194
16.849
22.662
28.617
34.697
40.885
47.167
53.531
59.958
66.426
72.914
79.398
85.854
92.259
98.588
104.817
110.92
116.875
122.657
128.244
133.615
138.745
143.611
148.189
152.456
156.392
159.976
163.188
166.01
168.428
170.426
171.995
173.125
173.807
174.037
173.813
173.134
172.001
170.42
168.397
165.943
163.068
159.786
156.113
152.066
147.662
142.922
137.867
132.518
126.9
121.035
114.949
108.67
102.223
95.635
88.934
82.147
75.302
68.425
61.543
54.681
47.864
41.117
34.463
27.925
21.525
15.282
9.216
3.343
-2.322
-7.765
-12.977
-17.947
-22.669
-27.138
-31.351
-35.306
-39
-42.434
-45.607
-48.52
-51.178
-53.584
-55.742
-57.659
-59.344
-60.806
-62.059
-63.113
-63.981
-64.671
-65.196
-65.565
-65.788
-65.877
-65.84
-65.687
-65.431
-65.088
-64.679
-64.222
-63.724
-63.189
-62.613
-61.992
-61.326
-60.608
-59.826
-58.972
-58.046
-57.056
-56.029
-54.983
-53.925
-52.851
-51.745
-50.596
-49.414
-48.214
-47.015
-45.839
-44.702
-43.642
-42.722
-41.987
-41.462
-41.137
-40.956
-40.874
-40.867
-40.916
-41.018
-41.154
-41.28
-41.351
-41.338
-41.205
-40.919
-40.412
-39.571
-38.299
-36.541
-34.297
-31.633
-28.609
-25.267
-21.655
-17.829
-13.865
-9.871
-5.937
-2.117
1.533
4.953
8.049
10.676
12.699
14.032
14.64
14.542
13.763
12.317
10.241
7.6
4.486
1.021
-2.706
-6.643
-10.744
-14.955
-19.201
-23.371
-27.359
-31.092
-34.522
-37.625
-40.383
-42.769
-44.781
-46.447
-47.815
-48.95
-49.892
-50.648
-51.224
-51.624
-51.862
-51.963
-51.948
-51.822
-51.587
-51.248
-50.808
-50.276
-49.647
-48.905
-48.022
-46.968
-45.727
-44.294
-42.673
-40.867
-38.885
-36.735
-34.435
-32.008
-29.476
-26.859
-24.176
-21.445
-18.689
-15.934
-13.208
-10.539
-7.952
-5.471
-3.12
-0.922
1.103
2.934
4.552
5.943
7.094
7.993
8.633
9.006
9.102
8.912
8.427
7.639
6.542
5.13
3.401
1.36
-0.975
-3.567
-6.37
-9.337
-12.415
-15.559
-18.721
-21.849
-24.89
-27.787
-30.48
-32.92
-35.058
-36.843
-38.238
-39.224
-39.825
-40.136
-40.287
-40.421
-40.662
-41.109
-41.874
-43.082
-44.861
-47.341
-50.564
-54.527
-59.354
-65.233
-72.194
-80.187
-88.855
-97.435
-105.485
-112.683
-118.029
-120.647
-120.337
-116.584
-110.916
-105.987
-101.55
-98.244
-95.415
-89.682
-81.624
-71.877
-61.635
-57.003
-61.015
-70.847
-78.037
-64.731
-13.312
82.197
216.805
374.305
534.782
687.232
825.189
941.595
1028.857
1071.376
1052.796
968.077
818.735
618.804
395.28
174.819
-12.777
-143.834
-214.264
-231.942
-217.882
-196.551
-179.122
-168.344
-159.613
-145.919
-128.328
-110.926
-97.752
-92.845
-95.929
-104.31
-115.718
-127.098
-135.801
-140.879
-141.995
-139.383
-134.001
-126.744
-118.381
-109.955
-102.458
-96.366
-91.849
-88.787
-86.81
-85.65
-85.103
-84.922
-84.884
-84.814
-84.588
-84.164
-83.554
-82.773
-81.814
-80.644
-79.238
-77.606
-75.778
-73.817
-71.798
-69.778
-67.824
-65.999
-64.337
-62.885
-61.676
-60.697
-59.922
-59.291
-58.74
-58.255
-57.838
-57.471
-57.126
-56.756
-56.291
-55.681
-54.87
-53.783
-52.368
-50.574
-48.357
-45.716
-42.664
-39.219
-35.407
-31.215
-26.595
-21.528
-16.001
-10.012
-3.588
3.246
10.458
17.973
25.727
33.667
41.736
49.911
58.176
66.504
74.869
83.231
91.521
99.69
107.696
115.493
123.058
130.373
137.427
144.241
150.832
157.199
163.34
169.236
174.861
180.201
185.239
189.956
194.345
198.392
202.076
205.388
208.312
210.825
212.906
214.526
215.661
216.309
216.476
216.165
215.382
214.126
212.392
210.186
207.509
204.359
200.747
196.679
192.163
187.215
181.85
176.073
169.885
163.27
156.203
148.687
140.736
132.378
123.669
114.662
105.425
96.045
86.592
77.128
67.719
58.413
49.262
40.343
31.729
23.508
15.783
8.619
2.058
-3.875
-9.199
-13.952
-18.18
-21.957
-25.342
-28.364
-31.054
-33.424
-35.478
-37.253
-38.784
-40.109
-41.295
-42.383
-43.39
-44.326
-45.153
-45.813
-46.258
-46.426
-46.275
-45.809
-45.044
-44.017
-42.796
-41.422
-39.931
-38.366
-36.739
-35.068
-33.397
-31.767
-30.251
-28.948
-27.929
-27.262
-26.999
-27.146
-27.688
-28.591
-29.778
-31.188
-32.775
-34.487
-36.298
-38.188
-40.117
-42.048
-43.936
-45.71
-47.32
-48.727
-49.891
-50.806
-51.481
-51.939
-52.236
-52.419
-52.518
-52.561
-52.56
-52.52
-52.452
-52.363
-52.26
-52.16
-52.077
-52.021
-52.006
-52.037
-52.106
-52.203
-52.306
-52.392
-52.447
-52.463
-52.435
-52.366
-52.254
-52.102
-51.92
-51.713
-51.485
-51.242
-50.986
-50.721
-50.454
-50.192
-49.942
-49.714
-49.51
-49.334
-49.188
-49.076
-49.002
-48.975
-48.996
-49.065
-49.179
-49.332
-49.512
-49.705
-49.891
-50.053
-50.175
-50.251
-50.282
-50.279
-50.252
-50.215
-50.174
-50.122
-50.056
-49.976
-49.886
-49.796
-49.726
-49.705
-49.77
-49.966
-50.322
-50.854
-51.551
-52.382
-53.304
-54.262
-55.215
-56.135
-57
-57.79
-58.484
-59.06
-59.485
-59.72
-59.712
-59.397
-58.729
-57.685
-56.271
-54.526
-52.514
-50.315
-48
-45.627
-43.247
-40.902
-38.629
-36.464
-34.449
-32.625
-31.052
-29.803
-28.938
-28.504
-28.518
-28.971
-29.835
-31.061
-32.609
-34.446
-36.549
-38.902
-41.496
-44.324
-47.378
-50.644
-54.087
-57.648
-61.273
-64.908
-68.512
-72.062
-75.538
-78.924
-82.205
-85.35
-88.319
-91.069
-93.548
-95.704
-97.492
-98.891
-99.93
-100.669
-101.18
-101.524
-101.736
-101.859
-101.97
-102.169
-102.565
-103.265
-104.359
-105.992
-108.401
-111.718
-115.867
-120.518
-125.041
-128.775
-131.247
-131.957
-130.232
-125.698
-118.568
-109.753
-100.948
-93.902
-89.713
-89.198
-93.349
-102.557
-115.815
-130.658
-143.234
-149.254
-145.047
-127.318
-92.417
-36.922
39.262
132.225
236.89
346.966
458.625
573.836
691.827
805.802
905.464
972.076
985.748
938.941
832.17
675.364
490.337
296.369
111.487
-44.268
-160.196
-231.185
-258.868
-256.301
-235.209
-206.204
-179.104
-156.832
-143.881
-141.885
-145.525
-151.388
-154.975
-154.409
-154.006
-155.86
-160.076
-165.238
-167.834
-166.451
-161.634
-154.309
-145.733
-136.735
-127.869
-119.889
-113.341
-108.386
-104.939
-102.772
-101.707
-101.664
-102.531
-104.102
-106.183
-108.607
-111.24
-113.987
-116.703
-119.212
-121.393
-123.167
-124.488
-125.346
-125.708
-125.511
-124.722
-123.325
-121.324
-118.759
-115.662
-112.077
-108.082
-103.777
-99.292
-94.757
-90.256
-85.827
-81.49
-77.255
-73.135
-69.156
-65.31
-61.56
-57.868
-54.199
-50.529
-46.832
-43.057
-39.112
-34.887
-30.285
-25.246
-19.748
-13.783
-7.345
-0.444
6.893
14.603
22.592
30.781
39.11
47.534
56.008
64.466
72.818
80.964
88.826
96.345
103.477
110.188
116.446
122.237
127.568
132.473
136.995
141.165
144.997
148.498
151.676
154.551
157.15
159.498
161.612
163.502
165.168
166.607
167.8
168.719
169.334
169.609
169.519
169.048
168.175
166.885
165.163
162.982
160.322
157.166
153.483
149.259
144.501
139.236
133.519
127.427
121.018
114.342
107.44
100.345
93.107
85.776
78.397
71.027
63.724
56.552
49.603
42.953
36.637
30.67
25.026
19.657
14.536
9.649
4.978
0.523
-3.73
-7.793
-11.665
-15.353
-18.872
-22.25
-25.541
-28.791
-32.012
-35.199
-38.321
-41.329
-44.19
-46.88
-49.37
-51.646
-53.695
-55.509
-57.098
-58.472
-59.633
-60.576
-61.284
-61.742
-61.951
-61.923
-61.679
-61.249
-60.659
-59.932
-59.095
-58.172
-57.179
-56.131
-55.033
-53.886
-52.699
-51.481
-50.243
-48.999
-47.758
-46.529
-45.317
-44.128
-42.965
-41.833
-40.732
-39.665
-38.635
-37.647
-36.704
-35.815
-34.984
-34.213
-33.507
-32.867
-32.293
-31.787
-31.346
-30.969
-30.655
-30.4
-30.204
-30.065
-29.979
-29.945
-29.96
-30.02
-30.122
-30.263
-30.44
-30.649
-30.886
-31.149
-31.435
-31.74
-32.062
-32.399
-32.747
-33.104
-33.467
-33.834
-34.201
-34.568
-34.931
-35.288
-35.638
-35.98
-36.313
-36.635
-36.947
-37.247
-37.537
-37.814
-38.079
-38.333
-38.574
-38.803
-39.021
-39.228
-39.426
-39.614
-39.794
-39.966
-40.131
-40.288
-40.437
-40.578
-40.709
-40.829
-40.937
-41.031
-41.11
-41.172
-41.214
-41.234
-41.228
-41.192
-41.124
-41.018
-40.87
-40.676
-40.431
-40.133
-39.777
-39.36
-38.878
-38.328
-37.708
-37.015
-36.244
-35.395
-34.465
-33.452
-32.354
-31.173
-29.909
-28.563
-27.14
-25.643
-24.078
-22.45
-20.769
-19.042
-17.281
-15.494
-13.692
-11.887
-10.092
-8.32
-6.584
-4.899
-3.277
-1.735
-0.286
1.052
2.263
3.334
4.255
5.017
5.61
6.026
6.25
6.272
6.085
5.679
5.049
4.19
3.099
1.787
0.279
-1.389
-3.176
-5.042
-6.954
-8.875
-10.764
-12.578
-14.263
-15.773
-17.069
-18.109
-18.86
-19.293
-19.393
-19.171
-18.699
-18.086
-17.453
-16.927
-16.607
-16.566
-16.914
-17.791
-19.335
-21.68
-24.945
-29.166
-34.426
-40.902
-48.539
-57.082
-66.064
-74.644
-82.063
-87.848
-91.342
-91.774
-89.011
-83.27
-75.227
-66.568
-58.559
-51.786
-47.328
-46.054
-47.404
-50.108
-52.01
-49.309
-38.696
-17.534
17.855
71.021
142.053
227.726
323.95
424.728
527.32
635.574
749.092
860.528
958.026
1020.037
1025.707
968.974
852.188
686.552
494.402
295.062
106.343
-50.45
-160.989
-219.585
-228.51
-201.037
-158
-117.062
-88.452
-77.907
-80.863
-88.086
-94.962
-96.922
-94.608
-93.595
-95.508
-100.351
-106.347
-109.668
-108.97
-104.708
-97.633
-89.075
-79.98
-70.989
-62.979
-56.49
-51.683
-48.485
-46.641
-45.981
-46.365
-47.593
-49.397
-51.485
-53.617
-55.608
-57.33
-58.656
-59.49
-59.781
-59.532
-58.81
-57.678
-56.193
-54.399
-52.326
-50.041
-47.63
-45.181
-42.81
-40.639
-38.794
-37.408
-36.579
-36.339
-36.681
-37.537
-38.794
-40.357
-42.137
-44.041
-45.993
-47.892
-49.619
-51.082
-52.186
-52.824
-52.891
-52.253
-50.797
-48.471
-45.253
-41.177
-36.309
-30.705
-24.419
-17.524
-10.096
-2.235
5.941
14.349
22.912
31.546
40.157
48.619
56.814
64.663
72.116
79.15
85.764
91.95
97.706
103.05
108.02
112.675
117.092
121.323
125.405
129.38
133.301
137.253
141.309
145.517
149.901
154.467
159.215
164.14
169.23
174.445
179.72
184.961
190.054
194.889
199.365
203.387
206.844
209.599
211.524
212.509
212.466
211.333
209.056
205.587
200.897
194.978
187.879
179.702
170.572
160.64
150.039
138.861
127.259
115.446
103.581
91.766
80.098
68.64
57.515
46.95
37.081
27.886
19.506
12.312
6.361
1.498
-2.28
-5.417
-7.28
-5.693
-1.228
3.893
6.149
-1.014
-17.361
-36.46
-51.912
-54.581
-43.808
-28.318
-14.852
-10.648
-17.041
-27.5
-37.961
-45.666
-49.697
-52.645
-55.686
-58.693
-61.726
-64.354
-66.442
-68.327
-70.11
-71.736
-73.218
-74.577
-75.809
-76.906
-77.853
-78.608
-79.177
-79.612
-79.944
-80.182
-80.339
-80.422
-80.44
-80.41
-80.332
-80.201
-80.011
-79.762
-79.455
-79.089
-78.664
-78.176
-77.622
-76.999
-76.308
-75.549
-74.726
-73.841
-72.899
-71.907
-70.873
-69.804
-68.709
-67.593
-66.461
-65.32
-64.176
-63.035
-61.901
-60.78
-59.678
-58.605
-57.567
-56.571
-55.624
-54.731
-53.896
-53.127
-52.428
-51.805
-51.259
-50.795
-50.419
-50.143
-49.978
-49.93
-49.994
-50.165
-50.435
-50.802
-51.261
-51.802
-52.41
-53.078
-53.806
-54.607
-55.496
-56.476
-57.543
-58.681
-59.874
-61.119
-62.426
-63.804
-65.259
-66.791
-68.409
-70.135
-71.997
-74.005
-76.135
-78.34
-80.57
-82.793
-84.993
-87.161
-89.286
-91.344
-93.303
-95.135
-96.826
-98.354
-99.689
-100.78
-101.566
-102.018
-102.15
-102.005
-101.627
-101.038
-100.246
-99.255
-98.078
-96.732
-95.236
-93.594
-91.802
-89.866
-87.806
-85.659
-83.473
-81.272
-79.052
-76.787
-74.463
-72.081
-69.66
-67.225
-64.788
-62.362
-59.968
-57.635
-55.397
-53.277
-51.282
-49.41
-47.651
-45.992
-44.435
-42.982
-41.616
-40.318
-39.051
-37.766
-36.434
-35.024
-33.507
-31.864
-30.074
-28.137
-26.081
-23.937
-21.749
-19.583
-17.502
-15.575
-13.887
-12.502
-11.489
-10.932
-10.884
-11.395
-12.502
-14.215
-16.53
-19.423
-22.825
-26.658
-30.83
-35.219
-39.716
-44.22
-48.644
-52.952
-57.13
-61.137
-64.946
-68.551
-71.972
-75.28
-78.567
-81.926
-85.462
-89.335
-93.79
-98.999
-104.921
-111.276
-117.509
-122.99
-127.247
-129.783
-129.905
-127.199
-121.84
-114.657
-107.228
-101.231
-97.687
-97.35
-101.154
-109.412
-121.101
-133.782
-143.647
-146.485
-138.744
-117.256
-78.521
-19.277
60.594
157.18
265.101
377.875
491.514
608.17
728.115
845.237
949.318
1021.173
1039.503
996.045
891.778
737.44
556.35
369.054
193.281
48.059
-57.576
-120.793
-144.245
-140.594
-120.635
-94.119
-70.529
-53.236
-47.345
-53.97
-66.866
-82.143
-94.734
-102.15
-108.585
-115.657
-122.998
-129.995
-133.774
-133.106
-128.894
-122.047
-113.713
-105.036
-96.844
-89.65
-83.818
-79.427
-76.22
-74.048
-72.844
-72.475
-72.83
-73.818
-75.325
-77.283
-79.672
-82.4
-85.334
-88.339
-91.266
-94.017
-96.543
-98.81
-100.786
-102.442
-103.746
-104.649
-105.125
-105.148
-104.684
-103.725
-102.271
-100.336
-97.956
-95.176
-92.045
-88.602
-84.876
-80.882
-76.639
-72.171
-67.513
-62.711
-57.799
-52.801
-47.743
-42.64
-37.513
-32.38
-27.247
-22.113
-16.971
-11.821
-6.667
-1.513
3.645
8.829
14.072
19.406
24.849
30.403
36.057
41.811
47.673
53.652
59.754
65.979
72.323
78.798
85.428
92.217
99.145
106.165
113.195
120.173
127.055
133.804
140.397
146.799
152.958
158.833
164.386
169.574
174.356
178.67
182.427
185.575
188.098
190.006
191.355
192.18
192.494
192.314
191.653
190.527
188.964
186.979
184.575
181.773
178.6
175.099
171.343
167.373
163.204
158.841
154.26
149.45
144.417
139.167
133.702
128.038
122.187
116.168
110.015
103.748
97.38
90.926
84.385
77.77
71.108
64.42
57.737
51.094
44.516
38.025
31.648
25.395
19.273
13.31
7.524
1.932
-3.439
-8.581
-13.485
-18.136
-22.529
-26.653
-30.494
-34.054
-37.339
-40.335
-43.039
-45.439
-47.517
-49.299
-50.809
-52.062
-53.083
-53.88
-54.458
-54.838
-55.038
-55.071
-54.955
-54.698
-54.305
-53.804
-53.215
-52.565
-51.883
-51.164
-50.402
-49.603
-48.766
-47.898
-47.01
-46.099
-45.164
-44.214
-43.256
-42.3
-41.357
-40.422
-39.494
-38.57
-37.645
-36.729
-35.832
-34.955
-34.105
-33.284
-32.495
-31.746
-31.042
-30.383
-29.767
-29.193
-28.659
-28.169
-27.725
-27.329
-26.981
-26.681
-26.43
-26.229
-26.077
-25.975
-25.923
-25.92
-25.966
-26.061
-26.208
-26.408
-26.662
-26.97
-27.335
-27.756
-28.236
-28.774
-29.371
-30.025
-30.736
-31.502
-32.324
-33.199
-34.124
-35.097
-36.115
-37.177
-38.279
-39.417
-40.587
-41.787
-43.013
-44.259
-45.522
-46.798
-48.08
-49.367
-50.651
-51.929
-53.196
-54.447
-55.675
-56.876
-58.043
-59.168
-60.245
-61.268
-62.23
-63.125
-63.948
-64.694
-65.358
-65.939
-66.434
-66.84
-67.156
-67.378
-67.502
-67.525
-67.443
-67.253
-66.952
-66.534
-65.997
-65.341
-64.566
-63.671
-62.654
-61.508
-60.232
-58.831
-57.309
-55.675
-53.94
-52.117
-50.224
-48.29
-46.34
-44.398
-42.488
-40.618
-38.796
-37.036
-35.347
-33.744
-32.232
-30.8
-29.433
-28.121
-26.847
-25.596
-24.341
-23.033
-21.632
-20.114
-18.461
-16.682
-14.794
-12.814
-10.762
-8.674
-6.593
-4.589
-2.742
-1.117
0.215
1.18
1.701
1.672
1.005
-0.357
-2.448
-5.267
-8.784
-12.963
-17.749
-23.056
-28.79
-34.826
-41.018
-47.242
-53.356
-59.213
-64.676
-69.59
-73.822
-77.29
-79.953
-81.817
-82.95
-83.418
-83.292
-82.7
-81.791
-80.769
-79.864
-79.256
-79.096
-79.599
-81.063
-83.682
-87.451
-92.077
-96.999
-101.749
-106.045
-109.497
-111.428
-111.337
-109.243
-105.88
-102.657
-100.593
-99.964
-101.157
-104.965
-111.939
-120.543
-126.64
-125.509
-114.398
-95.944
-75.144
-52.41
-21.873
29.343
112.618
227.918
364.858
504.664
631.686
742.843
840.301
928.024
1003.348
1047.908
1041.837
972.48
836.998
652.503
445.43
241.006
63.353
-73.597
-164.774
-211.016
-218.85
-196.378
-155.287
-108.129
-68.707
-49.419
-53.049
-74.565
-101.618
-122.026
-131.446
-131.502
-128.878
-128.285
-129.594
-131.1
-129.97
-125.195
-117.981
-109.57
-101.149
-93.636
-87.515
-83.077
-80.479
-79.585
-80.128
-81.95
-84.905
-88.807
-93.418
-98.447
-103.626
-108.758
-113.685
-118.232
-122.216
-125.493
-127.976
-129.644
-130.505
-130.574
-129.855
-128.346
-126.089
-123.152
-119.623
-115.623
-111.256
-106.616
-101.805
-96.921
-92.05
-87.26
-82.584
-78.023
-73.577
-69.247
-65.033
-60.946
-56.977
-53.107
-49.314
-45.564
-41.83
-38.091
-34.316
-30.475
-26.543
-22.501
-18.341
-14.063
-9.667
-5.15
-0.507
4.267
9.173
14.21
19.377
24.673
30.095
35.638
41.296
47.058
52.914
58.854
64.866
70.94
77.061
83.213
89.38
95.541
101.676
107.764
113.78
119.7
125.498
131.148
136.625
141.904
146.959
151.767
156.304
160.548
164.477
168.072
171.312
174.181
176.663
178.742
180.407
181.646
182.449
182.812
182.728
182.195
181.213
179.784
177.911
175.601
172.863
169.706
166.145
162.192
157.866
153.186
148.173
142.85
137.241
131.372
125.268
118.959
112.469
105.829
99.066
92.207
85.28
78.314
71.335
64.371
57.447
50.59
43.823
37.17
30.653
24.295
18.113
12.127
6.354
0.809
-4.493
-9.54
-14.321
-18.827
-23.052
-26.989
-30.636
-33.992
-37.057
-39.835
-42.329
-44.546
-46.493
-48.177
-49.608
-50.797
-51.754
-52.492
-53.022
-53.359
-53.516
-53.507
-53.347
-53.05
-52.631
-52.104
-51.485
-50.786
-50.022
-49.203
-48.345
-47.464
-46.575
-45.694
-44.831
-43.991
-43.187
-42.439
-41.747
-41.099
-40.483
-39.884
-39.306
-38.783
-38.32
-37.884
-37.501
-37.242
-37.16
-37.317
-37.714
-38.254
-38.909
-39.775
-40.739
-41.437
-41.797
-41.916
-41.742
-41.666
-40.927
-37.292
-31.312
-24.992
-21.762
-27.968
-43.009
-60.559
-74.243
-75.018
-62.592
-45.45
-30.132
-23.79
-27.448
-34.744
-41.846
-46.053
-46.649
-46.238
-45.953
-45.722
-45.63
-45.285
-44.608
-43.953
-43.422
-42.963
-42.59
-42.323
-42.153
-42.071
-42.047
-42.027
-41.999
-41.996
-42.029
-42.1
-42.214
-42.371
-42.574
-42.833
-43.149
-43.517
-43.935
-44.401
-44.911
-45.464
-46.057
-46.687
-47.351
-48.046
-48.766
-49.507
-50.263
-51.028
-51.793
-52.551
-53.294
-54.013
-54.698
-55.34
-55.931
-56.463
-56.925
-57.307
-57.593
-57.773
-57.841
-57.793
-57.627
-57.343
-56.948
-56.451
-55.868
-55.214
-54.504
-53.748
-52.954
-52.129
-51.276
-50.403
-49.518
-48.623
-47.711
-46.767
-45.774
-44.713
-43.563
-42.296
-40.873
-39.261
-37.438
-35.387
-33.109
-30.614
-27.92
-25.055
-22.048
-18.948
-15.821
-12.744
-9.805
-7.085
-4.657
-2.604
-1.021
0.003
0.391
0.084
-0.955
-2.747
-5.296
-8.582
-12.566
-17.17
-22.294
-27.817
-33.605
-39.536
-45.496
-51.366
-57.012
-62.299
-67.102
-71.31
-74.837
-77.607
-79.577
-80.762
-81.215
-81.041
-80.36
-79.283
-77.957
-76.546
-75.197
-74.058
-73.296
-73.039
-73.499
-74.989
-77.61
-81.315
-85.893
-90.781
-95.372
-99.179
-101.485
-101.444
-98.826
-93.765
-86.777
-79.54
-73.869
-71.106
-72.938
-79.473
-88.256
-97.168
-104.736
-111.99
-122.422
-134.814
-140.676
-124.235
-69.025
29.716
162.387
308.889
448.222
570.605
679.697
781.582
877.013
957.975
1002.724
991.216
915.453
774.93
586.214
376.126
168.868
-8.605
-137.929
-215.626
-244.788
-239.236
-214.609
-181.576
-150.597
-126.066
-111.171
-107.397
-109.441
-113.53
-116.013
-115.478
-115.976
-119.446
-125.733
-133.185
-138.283
-139.558
-137.396
-132.642
-126.597
-120.136
-113.85
-108.496
-104.515
-101.99
-100.774
-100.539
-101.035
-102.093
-103.532
-105.146
-106.764
-108.268
-109.573
-110.619
-111.317
-111.581
-111.386
-110.768
-109.785
-108.504
-106.978
-105.25
-103.379
-101.421
-99.404
-97.326
-95.165
-92.905
-90.568
-88.188
-85.796
-83.405
-80.992
-78.509
-75.913
-73.171
-70.248
-67.114
-63.733
-60.084
-56.176
-52.042
-47.734
-43.285
-38.702
-33.985
-29.138
-24.171
-19.105
-13.961
-8.753
-3.501
1.766
7.015
12.222
17.378
22.499
27.61
32.74
37.907
43.121
48.401
53.767
59.23
64.796
70.465
76.238
82.14
88.212
94.489
100.983
107.681
114.55
121.556
128.656
135.798
142.915
149.913
156.707
163.228
169.423
175.242
180.621
185.472
189.689
193.185
195.903
197.811
198.892
199.134
198.541
197.142
195
192.205
188.835
184.945
180.578
175.775
170.595
165.115
159.424
153.59
147.667
141.695
135.71
129.748
123.831
117.955
112.092
106.199
100.248
94.235
88.164
82.047
75.889
69.687
63.439
57.158
50.858
44.553
38.257
31.974
25.724
19.537
13.458
7.54
1.823
-3.671
-8.926
-13.936
-18.699
-23.216
-27.489
-31.539
-35.375
-39
-42.406
-45.572
-48.48
-51.126
-53.515
-55.663
-57.587
-59.286
-60.758
-61.999
-62.99
-63.716
-64.159
-64.276
-64.047
-63.474
-62.579
-61.414
-60.048
-58.524
-56.878
-55.137
-53.32
-51.46
-49.594
-47.748
-45.965
-44.287
-42.764
-41.475
-40.48
-39.8
-39.434
-39.343
-39.463
-39.756
-40.19
-40.736
-41.377
-42.088
-42.843
-43.632
-44.44
-45.24
-45.998
-46.654
-47.158
-47.492
-47.658
-47.683
-47.612
-47.475
-47.297
-47.105
-46.917
-46.745
-46.603
-46.488
-46.395
-46.33
-46.305
-46.345
-46.473
-46.695
-47.009
-47.405
-47.859
-48.357
-48.887
-49.434
-49.99
-50.554
-51.125
-51.712
-52.33
-52.987
-53.689
-54.434
-55.217
-56.036
-56.892
-57.789
-58.734
-59.732
-60.78
-61.878
-63.023
-64.211
-65.433
-66.669
-67.889
-69.065
-70.178
-71.22
-72.193
-73.096
-73.925
-74.68
-75.357
-75.969
-76.533
-77.058
-77.543
-77.993
-78.413
-78.836
-79.316
-79.897
-80.605
-81.446
-82.411
-83.501
-84.717
-86.044
-87.451
-88.878
-90.263
-91.567
-92.763
-93.818
-94.689
-95.3
-95.538
-95.314
-94.559
-93.216
-91.247
-88.603
-85.237
-81.145
-76.363
-70.962
-65.021
-58.593
-51.725
-44.485
-36.956
-29.256
-21.54
-13.948
-6.611
0.323
6.724
12.454
17.374
21.403
24.508
26.682
27.934
28.261
27.651
26.12
23.709
20.475
16.507
11.898
6.754
1.226
-4.536
-10.381
-16.149
-21.726
-27.033
-31.999
-36.57
-40.682
-44.26
-47.248
-49.605
-51.299
-52.316
-52.664
-52.405
-51.657
-50.57
-49.297
-47.964
-46.683
-45.581
-44.802
-44.477
-44.735
-45.648
-47.309
-49.939
-53.663
-58.423
-63.954
-69.658
-74.905
-79.317
-82.467
-83.653
-82.466
-78.98
-73.879
-68.754
-65.065
-63.575
-65.028
-70.495
-80.819
-94.48
-107.258
-114.027
-109.49
-94.148
-74.56
-52.539
-27.611
7.066
68.926
165.56
297.413
459.574
631.837
795.911
934.579
1028.394
1064.838
1033.931
933.268
769.115
557.281
325
101.019
-84.638
-211.268
-277.42
-291.976
-273.158
-239.128
-197.764
-154.703
-115.56
-85.235
-70.094
-70.766
-79.466
-88.673
-93.32
-92.543
-91.392
-92.772
-95.901
-99.259
-100.121
-97.482
-92.541
-86.464
-80.262
-74.802
-70.596
-67.874
-66.704
-66.878
-67.995
-69.777
-72.084
-74.744
-77.575
-80.423
-83.105
-85.504
-87.582
-89.253
-90.447
-91.137
-91.308
-91.004
-90.322
-89.324
-88.046
-86.511
-84.693
-82.589
-80.228
-77.633
-74.845
-71.908
-68.847
-65.713
-62.561
-59.424
-56.326
-53.264
-50.198
-47.129
-44.088
-41.115
-38.273
-35.606
-33.123
-30.837
-28.744
-26.827
-25.063
-23.393
-21.732
-20.006
-18.142
-16.077
-13.768
-11.151
-8.138
-4.658
-0.637
3.988
9.258
15.211
21.863
29.201
37.186
45.748
54.801
64.253
74.006
83.96
94.025
104.108
114.121
123.993
133.648
142.998
151.946
160.404
168.31
175.625
182.333
188.427
193.898
198.749
203.003
206.69
209.831
212.435
214.487
215.963
216.868
217.231
217.097
216.5
215.442
213.92
211.934
209.497
206.637
203.363
199.656
195.5
190.887
185.828
180.365
174.532
168.324
161.737
154.769
147.446
139.841
132.013
124.002
115.836
107.532
99.127
90.691
82.286
73.958
65.752
57.697
49.844
42.282
35.073
28.256
21.836
15.77
10.037
4.638
-0.424
-5.143
-9.526
-13.598
-17.373
-20.847
-24.028
-26.929
-29.582
-32.051
-34.371
-36.553
-38.585
-40.429
-42.062
-43.481
-44.68
-45.65
-46.389
-46.889
-47.159
-47.226
-47.104
-46.802
-46.319
-45.639
-44.764
-43.71
-42.498
-41.162
-39.73
-38.221
-36.66
-35.075
-33.485
-31.909
-30.358
-28.83
-27.331
-25.871
-24.458
-23.108
-21.829
-20.627
-19.507
-18.473
-17.529
-16.677
-15.919
-15.253
-14.679
-14.197
-13.809
-13.518
-13.325
-13.23
-13.232
-13.331
-13.524
-13.808
-14.181
-14.636
-15.169
-15.776
-16.452
-17.192
-17.993
-18.851
-19.76
-20.717
-21.718
-22.76
-23.837
-24.946
-26.082
-27.241
-28.417
-29.606
-30.804
-32.006
-33.207
-34.404
-35.592
-36.768
-37.927
-39.066
-40.18
-41.267
-42.321
-43.339
-44.317
-45.252
-46.141
-46.982
-47.771
-48.506
-49.186
-49.807
-50.367
-50.863
-51.291
-51.65
-51.936
-52.145
-52.276
-52.326
-52.293
-52.175
-51.973
-51.684
-51.308
-50.845
-50.293
-49.653
-48.925
-48.108
-47.203
-46.211
-45.134
-43.974
-42.734
-41.417
-40.025
-38.565
-37.038
-35.45
-33.805
-32.108
-30.366
-28.585
-26.774
-24.94
-23.094
-21.245
-19.404
-17.584
-15.798
-14.059
-12.38
-10.777
-9.263
-7.855
-6.565
-5.408
-4.395
-3.539
-2.848
-2.335
-2.009
-1.88
-1.956
-2.249
-2.766
-3.514
-4.495
-5.707
-7.145
-8.804
-10.676
-12.765
-15.071
-17.59
-20.325
-23.275
-26.434
-29.792
-33.316
-36.955
-40.659
-44.374
-48.052
-51.659
-55.147
-58.472
-61.591
-64.447
-66.995
-69.187
-70.952
-72.232
-73.005
-73.297
-73.2
-72.843
-72.322
-71.739
-71.205
-70.789
-70.531
-70.414
-70.413
-70.607
-71.152
-72.273
-74.203
-77.158
-81.469
-87.164
-93.654
-100.08
-105.332
-109.239
-112.948
-116.833
-119.531
-116.693
-103.036
-77.615
-46.172
-20.819
-12.771
-25.826
-54.738
-87.759
-117.097
-139.195
-151.342
-149.691
-121.073
-52.242
60.046
212.295
390.153
574.875
754.717
915.11
1038.413
1111.872
1123.215
1070.873
968.054
829.112
665.477
484.925
293.484
101.792
-68.931
-196.333
-271.515
-297.211
-288.676
-264.105
-229.921
-188.586
-143.218
-100.937
-74.887
-72.748
-92.198
-121.843
-147.398
-161.117
-162.712
-157.456
-150.771
-144.404
-137.691
-128.854
-117.549
-105.048
-92.903
-82.567
-74.528
-68.653
-64.819
-62.821
-62.455
-63.521
-65.74
-68.846
-72.674
-77.072
-81.86
-86.829
-91.715
-96.27
-100.321
-103.75
-106.485
-108.475
-109.657
-109.979
-109.428
-108.04
-105.873
-102.992
-99.46
-95.353
-90.773
-85.868
-80.814
-75.756
-70.795
-66.004
-61.434
-57.146
-53.225
-49.731
-46.692
-44.102
-41.931
-40.153
-38.746
-37.667
-36.853
-36.2
-35.578
-34.883
-34.044
-32.988
-31.655
-29.959
-27.784
-25.05
-21.707
-17.728
-13.117
-7.877
-2.007
4.458
11.46
18.913
26.703
34.74
42.962
51.298
59.681
68.022
76.21
84.159
91.808
99.103
106.012
112.498
118.524
124.078
129.173
133.834
138.101
141.998
145.524
148.683
151.48
153.923
156.034
157.822
159.279
160.401
161.184
161.625
161.727
161.481
160.866
159.862
158.445
156.603
154.339
151.656
148.561
145.066
141.182
136.93
132.339
127.435
122.242
116.787
111.093
105.189
99.109
92.886
86.552
80.14
73.678
67.196
60.72
54.278
47.891
41.582
35.37
29.273
23.31
17.5
11.859
6.403
1.147
-3.898
-8.72
-13.309
-17.657
-21.761
-25.615
-29.219
-32.573
-35.677
-38.534
-41.148
-43.525
-45.67
-47.591
-49.297
-50.795
-52.096
-53.211
-54.15
-54.925
-55.545
-56.022
-56.367
-56.589
-56.697
-56.702
-56.611
-56.435
-56.181
-55.858
-55.473
-55.034
-54.547
-54.02
-53.457
-52.863
-52.243
-51.6
-50.938
-50.258
-49.562
-48.854
-48.132
-47.4
-46.656
-45.903
-45.139
-44.364
-43.579
-42.781
-41.973
-41.152
-40.32
-39.478
-38.625
-37.765
-36.898
-36.028
-35.159
-34.291
-33.43
-32.579
-31.741
-30.921
-30.124
-29.353
-28.615
-27.915
-27.259
-26.653
-26.102
-25.612
-25.189
-24.838
-24.564
-24.372
-24.266
-24.25
-24.329
-24.507
-24.787
-25.172
-25.665
-26.268
-26.982
-27.81
-28.749
-29.8
-30.959
-32.222
-33.585
-35.043
-36.591
-38.22
-39.926
-41.702
-43.542
-45.442
-47.394
-49.388
-51.415
-53.464
-55.525
-57.586
-59.634
-61.656
-63.644
-65.59
-67.495
-69.354
-71.156
-72.887
-74.529
-76.059
-77.457
-78.704
-79.773
-80.645
-81.307
-81.76
-82.014
-82.082
-81.966
-81.655
-81.133
-80.393
-79.445
-78.308
-77.004
-75.574
-74.064
-72.535
-71.066
-69.716
-68.515
-67.466
-66.548
-65.73
-65.003
-64.377
-63.853
-63.426
-63.067
-62.743
-62.41
-62.002
-61.424
-60.548
-59.234
-57.377
-54.931
-51.896
-48.308
-44.227
-39.697
-34.76
-29.477
-23.927
-18.201
-12.396
-6.634
-1.064
4.119
8.673
12.366
15.02
16.52
16.815
15.9
13.8
10.555
6.226
0.898
-5.324
-12.323
-19.973
-28.106
-36.522
-44.981
-53.205
-60.945
-68.018
-74.305
-79.748
-84.35
-88.131
-91.121
-93.407
-95.107
-96.366
-97.354
-98.236
-99.181
-100.451
-102.403
-105.269
-109.098
-113.673
-118.477
-123.066
-127.134
-130.265
-131.853
-131.469
-129.116
-125.488
-122.037
-119.886
-119.447
-120.925
-124.645
-130.903
-139.245
-147.69
-152.666
-150.878
-140.224
-118.851
-84.708
-35.219
31.813
114.773
208.17
307.317
408.131
509.831
615.115
720.163
817.104
894.136
934.295
927.341
870.006
767.353
634.008
486.102
339.922
207.223
94.796
7.285
-59.029
-105.904
-125.829
-143.528
-195.919
-230.762
-184.433
-120.598
-106.908
-109.686
-101.601
-96.759
-98.176
-102.367
-109.967
-119.08
-127.204
-132.654
-134.346
-132.501
-127.907
-121.202
-113.026
-104.34
-96.184
-89.162
-83.498
-79.096
-75.649
-72.956
-70.897
-69.298
-67.98
-66.845
-65.88
-65.144
-64.702
-64.55
-64.622
-64.84
-65.162
-65.584
-66.125
-66.801
-67.604
-68.522
-69.554
-70.693
-71.913
-73.147
-74.282
-75.192
-75.795
-76.051
-75.96
-75.541
-74.793
-73.711
-72.302
-70.595
-68.638
-66.482
-64.159
-61.689
-59.094
-56.42
-53.747
-51.156
-48.697
-46.376
-44.152
-41.977
-39.815
-37.619
-35.333
-32.87
-30.114
-26.962
-23.336
-19.184
-14.479
-9.187
-3.259
3.344
10.647
18.627
27.206
36.306
45.854
55.769
65.963
76.313
86.66
96.849
106.754
116.276
125.344
133.883
141.799
149.016
155.463
161.09
165.898
169.891
173.066
175.442
177.062
177.96
178.207
177.942
177.264
176.245
174.956
173.4
171.571
169.556
167.471
165.186
162.52
159.59
156.398
152.923
149.57
145.239
138.833
131.816
124.624
120.027
121.35
124.921
128.283
127.783
118.406
104.603
90.154
77.654
71.378
68.297
65.351
61.887
56.072
49.043
42.242
35.431
28.814
22.321
15.693
9.14
2.829
-3.278
-9.177
-14.838
-20.25
-25.407
-30.307
-34.97
-39.426
-43.66
-47.658
-51.423
-54.952
-58.244
-61.303
-64.123
-66.7
-69.034
-71.128
-72.983
-74.606
-76.001
-77.173
-78.13
-78.877
-79.424
-79.778
-79.948
-79.941
-79.766
-79.431
-78.946
-78.32
-77.563
-76.685
-75.696
-74.605
-73.422
-72.156
-70.815
-69.409
-67.944
-66.43
-64.874
-63.284
-61.666
-60.029
-58.379
-56.723
-55.067
-53.418
-51.779
-50.157
-48.555
-46.977
-45.428
-43.908
-42.423
-40.974
-39.565
-38.197
-36.874
-35.597
-34.369
-33.191
-32.065
-30.993
-29.975
-29.013
-28.109
-27.265
-26.481
-25.761
-25.105
-24.515
-23.993
-23.54
-23.157
-22.846
-22.607
-22.44
-22.348
-22.329
-22.387
-22.52
-22.73
-23.017
-23.383
-23.827
-24.351
-24.954
-25.635
-26.394
-27.231
-28.144
-29.133
-30.195
-31.328
-32.529
-33.797
-35.126
-36.513
-37.951
-39.432
-40.952
-42.501
-44.073
-45.659
-47.252
-48.845
-50.43
-52.002
-53.552
-55.072
-56.552
-57.982
-59.355
-60.66
-61.884
-63.019
-64.051
-64.971
-65.77
-66.439
-66.966
-67.339
-67.542
-67.566
-67.405
-67.058
-66.525
-65.81
-64.921
-63.874
-62.695
-61.405
-60.023
-58.568
-57.049
-55.485
-53.899
-52.311
-50.74
-49.196
-47.677
-46.175
-44.68
-43.167
-41.599
-39.933
-38.109
-36.087
-33.847
-31.373
-28.664
-25.717
-22.522
-19.087
-15.435
-11.603
-7.649
-3.646
0.331
4.172
7.742
10.91
13.539
15.533
16.844
17.435
17.287
16.393
14.743
12.362
9.304
5.633
1.436
-3.176
-8.092
-13.15
-18.156
-22.937
-27.347
-31.317
-34.854
-37.973
-40.689
-43.014
-44.986
-46.691
-48.243
-49.752
-51.338
-53.111
-55.254
-58.094
-61.817
-66.44
-71.798
-77.358
-82.478
-86.654
-89.21
-89.351
-86.861
-81.861
-74.818
-67.375
-61.417
-58.366
-59.956
-66.298
-74.96
-83.941
-91.79
-99.431
-110.012
-121.792
-126.349
-108.388
-52.111
46.264
177.425
322.431
460.658
583.429
693.707
794.082
884.586
955.894
986.924
965.573
888.202
758.049
594.025
414.254
235.819
80.343
-38.995
-116.275
-152.965
-163.188
-162.253
-158.176
-153.828
-145.677
-129.539
-108.105
-86.064
-67.367
-55.711
-51.596
-54.188
-63.424
-77.53
-93.235
-107.794
-119.457
-127.517
-132.162
-133.329
-130.353
-123.389
-113.825
-103.41
-93.431
-84.442
-76.423
-69.392
-63.772
-59.856
-57.436
-55.982
-55.017
-54.317
-53.898
-53.842
-54.067
-54.418
-54.812
-55.27
-55.858
-56.607
-57.489
-58.426
-59.349
-60.21
-60.959
-61.526
-61.829
-61.805
-61.41
-60.629
-59.46
-57.907
-55.988
-53.719
-51.119
-48.207
-44.996
-41.495
-37.728
-33.725
-29.527
-25.198
-20.792
-16.349
-11.902
-7.469
-3.061
1.308
5.639
9.949
14.253
18.572
22.918
27.292
31.702
36.157
40.669
45.25
49.899
54.599
59.345
64.129
68.948
73.807
78.702
83.623
88.563
93.507
98.442
103.364
108.257
113.106
117.913
122.682
127.44
132.225
137.047
141.902
146.777
151.627
156.412
161.076
165.547
169.767
173.685
177.252
180.437
183.21
185.517
187.305
188.501
189.017
188.798
187.813
186.039
183.494
180.212
176.246
171.685
166.607
161.073
155.141
148.852
142.241
135.365
128.282
121.057
113.776
106.507
99.302
92.217
85.273
78.481
71.835
65.298
58.842
52.453
46.125
39.864
33.685
27.59
21.588
15.687
9.885
4.185
-1.407
-6.89
-12.251
-17.471
-22.526
-27.379
-31.993
-36.347
-40.426
-44.219
-47.721
-50.923
-53.816
-56.403
-58.691
-60.688
-62.411
-63.869
-65.071
-66.039
-66.797
-67.367
-67.764
-67.994
-68.045
-67.917
-67.617
-67.161
-66.572
-65.864
-65.033
-64.08
-62.998
-61.784
-60.44
-58.95
-57.284
-55.436
-53.419
-51.27
-49.057
-46.828
-44.612
-42.432
-40.295
-38.22
-36.241
-34.384
-32.671
-31.128
-29.781
-28.675
-27.883
-27.439
-27.345
-27.575
-28.059
-28.751
-29.624
-30.653
-31.818
-33.095
-34.452
-35.869
-37.338
-38.839
-40.346
-41.816
-43.178
-44.394
-45.451
-46.359
-47.157
-47.869
-48.504
-49.074
-49.594
-50.074
-50.525
-50.947
-51.322
-51.648
-51.928
-52.177
-52.423
-52.68
-52.948
-53.222
-53.484
-53.721
-53.929
-54.097
-54.214
-54.273
-54.27
-54.209
-54.101
-53.954
-53.771
-53.551
-53.29
-52.99
-52.65
-52.274
-51.863
-51.42
-50.947
-50.445
-49.919
-49.371
-48.801
-48.206
-47.581
-46.923
-46.226
-45.488
-44.703
-43.867
-42.977
-42.031
-41.026
-39.963
-38.839
-37.653
-36.406
-35.096
-33.724
-32.291
-30.798
-29.247
-27.64
-25.978
-24.267
-22.519
-20.743
-18.951
-17.154
-15.356
-13.571
-11.825
-10.126
-8.463
-6.832
-5.223
-3.651
-2.17
-0.798
0.488
1.643
2.564
3.173
3.38
3.169
2.639
1.814
0.573
-0.96
-2.369
-3.586
-4.738
-5.773
-7.164
-8.021
-5.736
-0.963
3.974
5.081
-5.039
-25.607
-49.19
-68.286
-72.268
-60.798
-43.765
-28.76
-24.109
-30.926
-41.705
-51.924
-58.381
-60.247
-60.628
-60.937
-61.198
-61.601
-61.756
-61.65
-61.824
-62.528
-63.807
-65.778
-68.511
-72.099
-76.782
-82.624
-89.426
-96.863
-104.361
-111.315
-117.293
-121.693
-123.618
-122.61
-118.832
-112.816
-105.786
-99.11
-93.815
-91.257
-93.114
-98.632
-104.415
-107.526
-105.464
-99.765
-95.196
-90.624
-77.172
-40.424
32.242
143.149
281.214
427.695
570.169
703.147
824.656
932.779
1014.761
1048.947
1017.87
914.557
743.205
525.654
293.667
74.72
-102.832
-220.578
-280.086
-287.039
-253.788
-200.556
-138.953
-82.51
-49.002
-42.918
-63.996
-103.668
-141.678
-167.472
-178.226
-176.635
-172.94
-171.447
-171.442
-171.502
-168.292
-161.093
-151.519
-140.68
-129.795
-119.793
-110.807
-102.945
-96.266
-90.578
-85.777
-81.878
-78.904
-76.849
-75.68
-75.323
-75.676
-76.681
-78.257
-80.284
-82.625
-85.14
-87.73
-90.331
-92.911
-95.433
-97.83
-100.02
-101.896
-103.355
-104.334
-104.802
-104.743
-104.163
-103.07
-101.488
-99.462
-97.046
-94.275
-91.174
-87.752
-84.019
-80.005
-75.761
-71.35
-66.842
-62.284
-57.707
-53.135
-48.581
-44.053
-39.548
-35.047
-30.518
-25.942
-21.311
-16.62
-11.869
-7.051
-2.154
2.833
7.911
13.08
18.334
23.665
29.07
34.531
40.026
45.527
51.004
56.438
61.83
67.182
72.499
77.796
83.093
88.422
93.835
99.369
105.046
110.886
116.897
123.094
129.504
136.129
142.954
149.946
157.042
164.163
171.223
178.104
184.67
190.772
196.237
200.913
204.677
207.408
209.006
209.369
208.391
206
202.172
196.907
190.241
182.252
173.039
162.747
151.563
139.685
127.334
114.727
102.06
89.522
77.29
65.533
54.426
44.114
34.698
26.258
18.84
12.449
7.067
2.631
-0.956
-3.81
-6.059
-7.838
-9.281
-10.508
-11.625
-12.732
-13.926
-15.292
-16.894
-18.777
-20.965
-23.463
-26.263
-29.335
-32.629
-36.086
-39.639
-43.212
-46.727
-50.124
-53.354
-56.376
-59.157
-61.669
-63.889
-65.808
-67.43
-68.758
-69.802
-70.576
-71.098
-71.397
-71.501
-71.445
-71.267
-70.994
-70.647
-70.243
-69.795
-69.313
-68.809
-68.288
-67.752
-67.203
-66.648
-66.091
-65.539
-64.996
-64.46
-63.928
-63.397
-62.866
-62.336
-61.807
-61.28
-60.757
-60.239
-59.731
-59.238
-58.764
-58.308
-57.863
-57.421
-56.979
-56.545
-56.126
-55.728
-55.355
-55.011
-54.705
-54.45
-54.253
-54.108
-53.998
-53.906
-53.82
-53.741
-53.679
-53.641
-53.624
-53.615
-53.595
-53.556
-53.49
-53.382
-53.206
-52.926
-52.528
-52.026
-51.463
-50.879
-50.299
-49.73
-49.17
-48.623
-48.104
-47.635
-47.233
-46.907
-46.666
-46.533
-46.554
-46.78
-47.233
-47.892
-48.707
-49.627
-50.622
-51.677
-52.781
-53.915
-55.05
-56.164
-57.247
-58.295
-59.295
-60.219
-61.018
-61.64
-62.059
-62.281
-62.335
-62.245
-62.025
-61.677
-61.209
-60.635
-59.969
-59.216
-58.368
-57.413
-56.353
-55.198
-53.971
-52.695
-51.383
-50.034
-48.639
-47.196
-45.708
-44.182
-42.621
-41.027
-39.407
-37.774
-36.153
-34.562
-33.02
-31.539
-30.128
-28.799
-27.566
-26.446
-25.457
-24.615
-23.934
-23.429
-23.111
-22.987
-23.064
-23.343
-23.823
-24.514
-25.422
-26.554
-27.918
-29.518
-31.354
-33.419
-35.69
-38.126
-40.688
-43.33
-46.01
-48.694
-51.341
-53.909
-56.361
-58.636
-60.677
-62.437
-63.856
-64.885
-65.493
-65.674
-65.48
-65.013
-64.375
-63.669
-62.971
-62.359
-61.96
-61.901
-62.307
-63.337
-65.081
-67.669
-71.374
-76.246
-82.126
-88.675
-95.126
-100.697
-104.91
-107.064
-106.313
-102.55
-96.075
-87.764
-79.647
-73.345
-69.726
-70.066
-75.337
-84.906
-97.22
-109.507
-117.087
-115.677
-101.782
-71.26
-20.248
51.53
140.946
243.984
354.265
467.817
586.492
708.317
825.248
926.02
991.409
1002.962
955.795
852.864
704.381
529.465
344.915
166.622
15.173
-94.11
-155.36
-172.041
-160.414
-139.881
-121.952
-110.407
-102.311
-93.193
-82.947
-73.869
-68.962
-70.561
-77.736
-88.417
-100.242
-110.107
-116.53
-119.202
-118.076
-113.99
-107.945
-100.679
-93.234
-86.747
-81.774
-78.568
-77.137
-77.151
-78.363
-80.588
-83.535
-86.924
-90.538
-94.177
-97.709
-101.042
-104.048
-106.586
-108.527
-109.775
-110.289
-110.066
-109.121
-107.482
-105.176
-102.244
-98.744
-94.728
-90.254
-85.387
-80.181
-74.701
-69.021
-63.201
-57.309
-51.41
-45.55
-39.773
-34.125
-28.642
-23.366
-18.349
-13.621
-9.214
-5.156
-1.456
1.868
4.81
7.38
9.581
11.435
12.996
14.321
15.49
16.608
17.764
19.058
20.608
22.506
24.847
27.719
31.184
35.308
40.159
45.778
52.214
59.486
67.558
76.378
85.856
95.868
106.303
117.037
127.917
138.806
149.564
160.045
170.125
179.664
188.503
196.503
203.523
209.447
214.223
217.813
220.214
221.459
221.575
220.608
218.635
215.726
211.956
207.421
202.207
196.425
190.219
183.723
177.067
170.369
163.7
157.126
150.695
144.432
138.359
132.486
126.806
121.316
116.015
110.89
105.924
101.088
96.323
91.585
86.835
82.041
77.194
72.286
67.314
62.29
57.232
52.161
47.102
42.077
37.099
32.189
27.369
22.664
18.108
13.728
9.542
5.566
1.809
-1.724
-5.028
-8.106
-10.969
-13.624
-16.082
-18.352
-20.439
-22.351
-24.099
-25.692
-27.143
-28.46
-29.652
-30.725
-31.689
-32.551
-33.318
-33.996
-34.589
-35.103
-35.543
-35.917
-36.229
-36.487
-36.697
-36.864
-36.994
-37.095
-37.172
-37.23
-37.274
-37.308
-37.337
-37.364
-37.394
-37.428
-37.468
-37.517
-37.575
-37.645
-37.727
-37.822
-37.933
-38.059
-38.202
-38.364
-38.544
-38.745
-38.967
-39.21
-39.476
-39.764
-40.077
-40.414
-40.776
-41.163
-41.575
-42.012
-42.472
-42.954
-43.456
-43.977
-44.514
-45.067
-45.632
-46.208
-46.795
-47.39
-47.993
-48.603
-49.219
-49.841
-50.469
-51.1
-51.734
-52.37
-53.008
-53.645
-54.281
-54.912
-55.539
-56.157
-56.766
-57.362
-57.943
-58.506
-59.048
-59.567
-60.062
-60.53
-60.969
-61.38
-61.761
-62.111
-62.431
-62.721
-62.978
-63.204
-63.396
-63.552
-63.671
-63.747
-63.779
-63.762
-63.694
-63.57
-63.387
-63.143
-62.835
-62.463
-62.026
-61.521
-60.949
-60.307
-59.594
-58.809
-57.949
-57.013
-56
-54.907
-53.732
-52.477
-51.141
-49.725
-48.226
-46.64
-44.963
-43.201
-41.359
-39.446
-37.474
-35.459
-33.419
-31.387
-29.39
-27.457
-25.614
-23.876
-22.253
-20.758
-19.403
-18.204
-17.166
-16.279
-15.524
-14.892
-14.366
-13.931
-13.566
-13.221
-12.854
-12.433
-11.93
-11.35
-10.703
-10.005
-9.274
-8.539
-7.844
-7.26
-6.867
-6.72
-6.861
-7.315
-8.107
-9.294
-10.921
-13.012
-15.574
-18.577
-21.974
-25.718
-29.749
-33.987
-38.333
-42.656
-46.828
-50.763
-54.425
-57.837
-61.03
-64.02
-66.826
-69.46
-71.972
-74.464
-77.046
-79.831
-82.933
-86.439
-90.488
-95.343
-101.115
-107.694
-114.742
-121.56
-127.429
-131.85
-134.211
-133.741
-130.072
-123.298
-114.073
-104.018
-94.764
-87.365
-82.919
-82.447
-86.046
-92.778
-100.61
-105.858
-104.289
-92.156
-65.639
-20.819
43.82
126.436
223.979
331.278
444.801
565.467
692.461
820.936
939.334
1029.607
1072.738
1054.653
972.975
833.046
648.006
440.322
231.55
46.055
-91.752
-172.919
-199.01
-182.65
-149.192
-117.699
-98.295
-95.779
-102.6
-109.814
-114.099
-111.936
-106.227
-103.563
-105.531
-112.887
-123.804
-133.208
-139.049
-141.142
-139.566
-135.568
-130.069
-123.346
-116.197
-109.66
-104.202
-99.988
-96.975
-94.836
-93.362
-92.468
-91.944
-91.529
-91.063
-90.43
-89.591
-88.604
-87.462
-86.136
-84.63
-82.93
-81.072
-79.12
-77.124
-75.138
-73.221
-71.428
-69.826
-68.478
-67.409
-66.634
-66.157
-65.95
-66.01
-66.316
-66.803
-67.416
-68.083
-68.727
-69.288
-69.699
-69.881
-69.745
-69.216
-68.23
-66.758
-64.777
-62.254
-59.161
-55.456
-51.119
-46.183
-40.68
-34.65
-28.131
-21.162
-13.798
-6.126
1.757
9.775
17.869
25.999
34.127
42.196
50.141
57.887
65.387
72.617
79.555
86.185
92.486
98.449
104.085
109.428
114.523
119.392
124.038
128.458
132.645
136.6
140.332
143.846
147.134
150.183
152.985
155.529
157.809
159.812
161.512
162.875
163.864
164.457
164.641
164.408
163.754
162.676
161.174
159.254
156.93
154.212
151.112
147.641
143.809
139.633
135.134
130.334
125.259
119.931
114.374
108.613
102.671
96.574
90.345
84.007
77.581
71.089
64.557
58.007
51.464
44.951
38.49
32.103
25.812
19.636
13.594
7.703
1.98
-3.563
-8.91
-14.051
-18.974
-23.669
-28.129
-32.345
-36.311
-40.02
-43.469
-46.654
-49.573
-52.225
-54.61
-56.73
-58.588
-60.189
-61.538
-62.641
-63.507
-64.144
-64.559
-64.765
-64.77
-64.586
-64.225
-63.698
-63.019
-62.2
-61.254
-60.194
-59.032
-57.782
-56.455
-55.063
-53.619
-52.135
-50.621
-49.091
-47.556
-46.028
-44.52
-43.043
-41.609
-40.229
-38.913
-37.669
-36.507
-35.433
-34.455
-33.577
-32.806
-32.144
-31.595
-31.162
-30.846
-30.649
-30.571
-30.61
-30.765
-31.033
-31.412
-31.897
-32.484
-33.168
-33.946
-34.811
-35.759
-36.784
-37.88
-39.041
-40.258
-41.525
-42.831
-44.169
-45.528
-46.9
-48.276
-49.648
-51.006
-52.345
-53.656
-54.935
-56.176
-57.374
-58.523
-59.619
-60.659
-61.639
-62.556
-63.407
-64.189
-64.899
-65.539
-66.11
-66.614
-67.054
-67.432
-67.752
-68.017
-68.232
-68.397
-68.515
-68.585
-68.608
-68.588
-68.532
-68.451
-68.353
-68.24
-68.115
-67.98
-67.828
-67.651
-67.432
-67.143
-66.765
-66.289
-65.708
-65.03
-64.264
-63.412
-62.479
-61.469
-60.378
-59.215
-57.985
-56.692
-55.357
-54.015
-52.72
-51.558
-50.601
-49.895
-49.471
-49.332
-49.461
-49.839
-50.434
-51.194
-52.089
-53.075
-54.103
-55.143
-56.136
-56.998
-57.62
-57.845
-57.515
-56.52
-54.777
-52.246
-48.937
-44.869
-40.098
-34.721
-28.827
-22.517
-15.909
-9.1
-2.206
4.618
11.198
17.307
22.69
27.149
30.521
32.683
33.573
33.141
31.377
28.332
24.077
18.712
12.364
5.147
-2.817
-11.368
-20.326
-29.468
-38.533
-47.303
-55.588
-63.228
-70.094
-76.062
-81.037
-84.983
-87.931
-89.988
-91.28
-91.927
-92.041
-91.725
-91.114
-90.4
-89.776
-89.408
-89.476
-90.097
-91.471
-93.931
-97.59
-102.364
-107.906
-113.415
-118.065
-121.227
-122.068
-119.758
-114.097
-105.155
-93.961
-82.82
-73.844
-69.106
-69.595
-74.269
-81.552
-89.194
-97.511
-109.434
-123.724
-136.243
-134.194
-97.687
-18.71
102.407
253.694
411.908
566.081
711.784
845.846
966.24
1059.122
1104.325
1086.265
999.252
849.927
656.125
441.463
229.354
41.506
-105.807
-203.254
-250.539
-254.03
-223.123
-172.562
-116.509
-69.167
-43.232
-40.891
-56.723
-78.783
-95.232
-102.188
-101.513
-99.545
-100.541
-103.845
-107.35
-108.134
-105.14
-99.559
-92.662
-85.613
-79.353
-74.436
-71.166
-69.674
-69.785
-71.149
-73.517
-76.702
-80.5
-84.69
-89.051
-93.371
-97.494
-101.312
-104.687
-107.484
-109.608
-110.999
-111.647
-111.576
-110.82
-109.419
-107.421
-104.885
-101.858
-98.39
-94.537
-90.356
-85.914
-81.283
-76.534
-71.726
-66.902
-62.098
-57.344
-52.666
-48.089
-43.637
-39.326
-35.183
-31.245
-27.552
-24.137
-21.025
-18.222
-15.728
-13.529
-11.609
-9.955
-8.532
-7.283
-6.138
-5.004
-3.791
-2.418
-0.793
1.187
3.623
6.618
10.259
14.601
19.689
25.55
32.201
39.664
47.923
56.92
66.576
76.765
87.364
98.262
109.335
120.438
131.426
142.138
152.42
162.156
171.239
179.57
187.059
193.598
199.117
203.586
207.003
209.406
210.837
211.325
210.91
209.664
207.662
205.004
201.799
198.114
194.017
189.578
184.864
179.962
174.944
169.846
164.692
159.489
154.239
148.961
143.666
138.341
132.972
127.53
121.979
116.311
110.524
104.614
98.578
92.408
86.1
79.671
73.147
66.554
59.917
53.257
46.596
39.967
33.409
26.958
20.657
14.534
8.613
2.92
-2.527
-7.708
-12.61
-17.226
-21.555
-25.595
-29.344
-32.802
-35.967
-38.845
-41.443
-43.767
-45.828
-47.638
-49.205
-50.542
-51.658
-52.559
-53.26
-53.778
-54.108
-54.254
-54.221
-54.007
-53.638
-53.144
-52.522
-51.77
-50.939
-50.073
-49.208
-48.391
-47.605
-46.801
-46.024
-45.345
-44.614
-43.656
-42.59
-41.413
-40.096
-39.048
-37.192
-33.482
-29.424
-25.477
-24.405
-29.513
-37.146
-44.872
-49.061
-44.732
-36.295
-27.487
-20.869
-20.675
-23.877
-27.409
-30.588
-31.543
-31.358
-31.426
-31.481
-31.697
-31.981
-32.047
-32.078
-32.219
-32.421
-32.67
-32.983
-33.353
-33.77
-34.226
-34.695
-35.145
-35.588
-36.036
-36.483
-36.929
-37.374
-37.813
-38.246
-38.676
-39.1
-39.516
-39.927
-40.333
-40.737
-41.14
-41.547
-41.961
-42.384
-42.816
-43.255
-43.699
-44.15
-44.611
-45.09
-45.589
-46.107
-46.642
-47.196
-47.762
-48.332
-48.888
-49.401
-49.852
-50.232
-50.536
-50.771
-50.939
-51.041
-51.083
-51.073
-51.019
-50.93
-50.811
-50.653
-50.468
-50.282
-50.138
-50.101
-50.217
-50.511
-51
-51.695
-52.591
-53.679
-54.926
-56.274
-57.681
-59.113
-60.544
-61.965
-63.338
-64.598
-65.662
-66.424
-66.79
-66.689
-66.05
-64.807
-62.929
-60.415
-57.3
-53.669
-49.584
-45.09
-40.24
-35.081
-29.687
-24.168
-18.65
-13.27
-8.181
-3.531
0.53
3.85
6.322
7.882
8.499
8.192
6.969
4.821
1.767
-2.161
-6.902
-12.355
-18.4
-24.913
-31.733
-38.684
-45.589
-52.266
-58.567
-64.381
-69.609
-74.187
-78.051
-81.13
-83.387
-84.815
-85.452
-85.416
-84.845
-83.888
-82.708
-81.449
-80.272
-79.384
-78.949
-79.11
-79.993
-81.608
-84.074
-87.655
-92.368
-98.05
-104.317
-110.357
-115.486
-119.327
-121.171
-120.182
-116.173
-109.284
-100.342
-91.103
-82.969
-76.911
-74.289
-76.474
-82.097
-87.712
-89.944
-84
-70.19
-54.133
-34.891
-9.365
29.781
98.171
199.985
332.06
489.09
653.715
810.674
944.401
1033.606
1063.02
1023.089
914.592
750.074
548.374
331.544
119.431
-69.569
-217.951
-313.481
-350.049
-328.728
-264.359
-179.903
-99.05
-45.774
-28.952
-42.382
-73.383
-102.623
-119.843
-125.327
-123.037
-121.181
-122.825
-126.315
-129.842
-130.534
-127.805
-123.061
-117.368
-111.986
-107.921
-105.272
-103.948
-103.774
-104.319
-105.306
-106.564
-107.858
-108.927
-109.558
-109.594
-108.924
-107.512
-105.313
-102.279
-98.427
-93.855
-88.749
-83.311
-77.736
-72.203
-66.855
-61.85
-57.342
-53.464
-50.352
-48.101
-46.772
-46.414
-47.04
-48.607
-51.024
-54.135
-57.71
-61.535
-65.399
-69.094
-72.462
-75.345
-77.591
-79.078
-79.68
-79.29
-77.84
-75.276
-71.573
-66.764
-60.906
-54.099
-46.499
-38.249
-29.498
-20.411
-11.104
-1.684
7.741
17.083
26.247
35.131
43.661
51.778
59.434
66.616
73.32
79.562
85.393
90.861
96.031
100.987
105.789
110.489
115.141
119.783
124.462
129.235
134.141
139.206
144.45
149.873
155.467
161.214
167.075
173.013
178.964
184.838
190.541
195.963
200.993
205.539
209.499
212.764
215.236
216.822
217.438
217.031
215.555
212.978
209.282
204.441
198.466
191.407
183.34
174.389
164.679
154.326
143.455
132.213
120.745
109.212
97.768
86.532
75.615
65.12
55.147
45.815
37.211
29.382
22.341
16.063
10.51
5.657
1.465
-2.132
-5.211
-7.867
-10.204
-12.283
-14.163
-15.905
-17.567
-19.229
-20.955
-22.779
-24.712
-26.75
-28.883
-31.11
-33.422
-35.787
-38.164
-40.505
-42.749
-44.87
-46.845
-48.653
-50.272
-51.675
-52.84
-53.766
-54.458
-54.927
-55.181
-55.228
-55.075
-54.744
-54.263
-53.66
-52.967
-52.206
-51.39
-50.538
-49.662
-48.774
-47.886
-47
-46.116
-45.237
-44.364
-43.502
-42.654
-41.821
-41
-40.19
-39.39
-38.599
-37.817
-37.046
-36.285
-35.538
-34.807
-34.096
-33.409
-32.75
-32.122
-31.528
-30.972
-30.456
-29.984
-29.559
-29.183
-28.86
-28.592
-28.383
-28.235
-28.152
-28.134
-28.186
-28.308
-28.502
-28.769
-29.112
-29.53
-30.025
-30.597
-31.244
-31.967
-32.764
-33.634
-34.576
-35.588
-36.666
-37.809
-39.014
-40.278
-41.596
-42.963
-44.373
-45.82
-47.296
-48.793
-50.301
-51.811
-53.312
-54.797
-56.256
-57.68
-59.06
-60.39
-61.663
-62.872
-64.011
-65.073
-66.048
-66.93
-67.71
-68.381
-68.936
-69.366
-69.664
-69.823
-69.841
-69.715
-69.439
-69.009
-68.412
-67.644
-66.705
-65.598
-64.33
-62.909
-61.347
-59.664
-57.89
-56.057
-54.192
-52.312
-50.422
-48.526
-46.632
-44.746
-42.878
-41.025
-39.17
-37.302
-35.417
-33.505
-31.558
-29.548
-27.422
-25.139
-22.67
-20.005
-17.168
-14.181
-11.064
-7.861
-4.621
-1.416
1.653
4.511
7.103
9.366
11.249
12.679
13.551
13.787
13.329
12.132
10.186
7.485
4.026
-0.158
-5.002
-10.409
-16.242
-22.378
-28.721
-35.167
-41.618
-47.968
-54.083
-59.856
-65.19
-69.984
-74.155
-77.616
-80.293
-82.141
-83.171
-83.455
-83.113
-82.283
-81.085
-79.616
-77.982
-76.328
-74.825
-73.639
-72.944
-72.86
-73.564
-75.367
-78.406
-82.603
-87.626
-92.704
-97.045
-100.108
-101.248
-99.705
-95.253
-88.161
-79.418
-71.175
-65.441
-63.489
-66.507
-75.305
-89.552
-107.822
-127.148
-142.566
-149.045
-142.218
-117.772
-72.168
-3.09
88.868
199.261
321.228
446.382
569.457
690.192
806.985
916.628
1010.268
1069.104
1075.057
1014.579
882.993
690.882
459.742
220.177
3.462
-165.225
-269.442
-311.078
-300.703
-250.503
-179.421
-100.358
-23.823
33.71
63.464
62.653
30.941
-21.358
-78.875
-129.353
-159.863
-162.868
-143.359
-110.877
-78.375
-57.724
-51.048
-54.44
-61.469
-66.793
-69.212
-70.168
-71.801
-74.868
-78.977
-83.589
-88.181
-92.722
-97.405
-102.144
-106.745
-111.069
-114.889
-117.969
-120.134
-121.198
-121.059
-119.732
-117.275
-113.777
-109.366
-104.187
-98.369
-92.046
-85.358
-78.461
-71.555
-64.828
-58.451
-52.581
-47.336
-42.826
-39.14
-36.322
-34.371
-33.228
-32.791
-32.936
-33.56
-34.556
-35.805
-37.162
-38.446
-39.504
-40.212
-40.458
-40.139
-39.13
-37.316
-34.619
-31.006
-26.493
-21.127
-14.974
-8.095
-0.576
7.482
15.953
24.692
33.591
42.564
51.527
60.392
69.051
77.395
85.346
92.843
99.84
106.309
112.231
117.597
122.442
126.806
130.741
134.31
137.549
140.489
143.173
145.632
147.901
150.017
152.002
153.891
155.741
157.597
159.495
161.452
163.445
165.458
167.468
169.43
171.301
173.019
174.5
175.689
176.549
177.033
177.1
176.676
175.648
173.927
171.431
168.09
163.864
158.702
152.569
145.482
137.482
128.649
119.092
108.889
98.111
86.85
75.204
63.306
51.326
39.413
27.722
16.424
5.669
-4.379
-13.584
-21.871
-29.196
-35.548
-40.944
-45.388
-48.89
-51.491
-53.238
-54.198
-54.467
-54.135
-53.31
-52.135
-50.744
-49.27
-47.83
-46.495
-45.319
-44.342
-43.587
-43.072
-42.81
-42.792
-43.01
-43.458
-44.111
-44.944
-45.917
-46.962
-48.019
-49.04
-49.983
-50.828
-51.56
-52.168
-52.649
-53.014
-53.271
-53.438
-53.525
-53.536
-53.48
-53.372
-53.236
-53.102
-52.996
-52.929
-52.908
-52.941
-53.042
-53.207
-53.412
-53.632
-53.837
-54.019
-54.206
-54.397
-54.554
-54.696
-54.888
-55.179
-55.626
-56.233
-56.901
-57.603
-58.438
-59.297
-59.819
-59.942
-59.77
-59.257
-58.804
-57.651
-53.563
-47.103
-40.296
-36.599
-42.403
-57.108
-74.363
-87.762
-88.218
-75.447
-57.987
-42.421
-35.944
-39.587
-46.956
-54.197
-58.596
-59.434
-59.331
-59.424
-59.64
-60.063
-60.294
-60.251
-60.286
-60.497
-60.825
-61.278
-61.87
-62.583
-63.399
-64.28
-65.16
-66.017
-66.874
-67.732
-68.584
-69.424
-70.243
-71.038
-71.811
-72.558
-73.268
-73.933
-74.543
-75.092
-75.572
-75.978
-76.3
-76.528
-76.657
-76.679
-76.587
-76.373
-76.025
-75.53
-74.877
-74.063
-73.088
-71.955
-70.671
-69.245
-67.696
-66.049
-64.33
-62.56
-60.754
-58.918
-57.065
-55.213
-53.385
-51.608
-49.9
-48.261
-46.69
-45.184
-43.724
-42.287
-40.822
-39.256
-37.534
-35.617
-33.485
-31.146
-28.6
-25.845
-22.885
-19.725
-16.39
-12.928
-9.388
-5.818
-2.298
1.071
4.151
6.764
8.762
10.038
10.509
10.132
8.881
6.741
3.719
-0.151
-4.818
-10.212
-16.254
-22.865
-29.927
-37.281
-44.732
-52.043
-59.002
-65.442
-71.219
-76.243
-80.476
-83.925
-86.639
-88.688
-90.123
-91.012
-91.465
-91.594
-91.543
-91.484
-91.549
-91.961
-93.073
-95.072
-97.955
-101.538
-105.254
-108.489
-110.842
-111.686
-110.16
-105.899
-99.032
-90.171
-80.886
-72.875
-67.266
-65.472
-69.325
-78.172
-89.025
-99.019
-103.255
-100.649
-95.731
-87.475
-72.468
-42.546
18.453
116.813
251.062
413.784
586.486
755.236
906.484
1024.828
1099.629
1116.722
1068.207
956.06
789.822
591.186
385.193
196.048
42.588
-65.837
-128.531
-152.056
-145.905
-122.031
-91.816
-66.598
-55.772
-61.098
-78.889
-99.225
-112.035
-114.92
-110.912
-106.802
-107.933
-113.974
-121.414
-126.513
-127.538
-124.896
-119.758
-113.143
-105.512
-97.406
-89.698
-82.932
-77.298
-72.733
-68.937
-65.744
-63.12
-60.949
-59.069
-57.376
-55.841
-54.509
-53.478
-52.761
-52.317
-52.106
-52.074
-52.219
-52.581
-53.201
-54.139
-55.455
-57.181
-59.322
-61.861
-64.713
-67.748
-70.819
-73.748
-76.406
-78.709
-80.582
-81.984
-82.867
-83.165
-82.816
-81.75
-79.885
-77.175
-73.597
-69.15
-63.899
-57.947
-51.424
-44.502
-37.314
-29.954
-22.502
-15.007
-7.506
-0.048
7.329
14.588
21.668
28.525
35.127
41.443
47.484
53.281
58.884
64.371
69.806
75.222
80.643
86.074
91.505
96.931
102.338
107.703
113.021
118.284
123.481
128.608
133.646
138.563
143.326
147.884
152.193
156.219
159.931
163.307
166.331
168.988
171.269
173.173
174.693
175.821
176.551
176.873
176.783
176.281
175.369
174.052
172.339
170.239
167.764
164.924
161.734
158.206
154.353
150.19
145.731
140.994
135.996
130.759
125.304
119.653
113.828
107.852
101.749
95.542
89.254
82.908
76.525
70.128
63.738
57.376
51.063
44.819
38.662
32.612
26.685
20.898
15.265
9.802
4.52
-0.57
-5.458
-10.136
-14.596
-18.832
-22.841
-26.617
-30.158
-33.463
-36.532
-39.365
-41.965
-44.334
-46.477
-48.399
-50.104
-51.599
-52.89
-53.986
-54.892
-55.618
-56.172
-56.564
-56.801
-56.895
-56.854
-56.689
-56.409
-56.023
-55.541
-54.973
-54.326
-53.611
-52.836
-52.009
-51.14
-50.235
-49.303
-48.352
-47.388
-46.419
-45.45
-44.489
-43.539
-42.608
-41.701
-40.822
-39.975
-39.167
-38.4
-37.678
-37.005
-36.385
-35.818
-35.309
-34.859
-34.471
-34.145
-33.885
-33.69
-33.563
-33.505
-33.515
-33.595
-33.744
-33.962
-34.247
-34.6
-35.018
-35.501
-36.046
-36.653
-37.32
-38.045
-38.825
-39.659
-40.544
-41.476
-42.454
-43.474
-44.533
-45.627
-46.754
-47.91
-49.091
-50.294
-51.516
-52.752
-53.998
-55.251
-56.507
-57.761
-59.011
-60.252
-61.482
-62.697
-63.895
-65.073
-66.228
-67.357
-68.459
-69.529
-70.564
-71.562
-72.518
-73.429
-74.291
-75.103
-75.861
-76.563
-77.207
-77.791
-78.314
-78.774
-79.165
-79.485
-79.732
-79.9
-79.988
-79.991
-79.904
-79.724
-79.448
-79.074
-78.597
-78.008
-77.296
-76.451
-75.473
-74.361
-73.117
-71.749
-70.263
-68.677
-67.015
-65.302
-63.558
-61.798
-60.031
-58.27
-56.533
-54.841
-53.223
-51.695
-50.254
-48.899
-47.621
-46.399
-45.203
-43.983
-42.659
-41.172
-39.48
-37.557
-35.403
-33.01
-30.368
-27.475
-24.327
-20.945
-17.378
-13.677
-9.906
-6.156
-2.538
0.798
3.661
5.9
7.402
8.089
7.931
6.898
4.967
2.138
-1.574
-6.126
-11.444
-17.448
-24.044
-31.088
-38.414
-45.81
-53.029
-59.871
-66.197
-71.925
-77.037
-81.54
-85.428
-88.713
-91.442
-93.698
-95.608
-97.32
-98.978
-100.741
-102.836
-105.602
-109.279
-113.87
-119.102
-124.378
-129.056
-132.676
-134.73
-134.507
-131.618
-126.298
-119.442
-112.809
-108.162
-106.465
-108.462
-115.044
-126.357
-141.262
-157.213
-169.87
-174.542
-167.862
-146.636
-107.358
-47.486
34.177
135.04
248.274
367.029
484.736
598.903
711.213
817.181
910.538
979.945
1005.065
976.996
892.112
751.955
577.134
386.425
201.215
49.383
-58.383
-119.173
-140.184
-143.992
-143.868
-145.042
-147.687
-143.044
-129.217
-111.043
-93.011
-80.819
-76.676
-78.931
-85.87
-95.663
-105.976
-114.687
-120.618
-123.274
-122.873
-120.267
-116.201
-111.27
-106.358
-102.411
-99.908
-98.993
-99.504
-101.021
-103.239
-105.957
-108.914
-111.837
-114.506
-116.755
-118.494
-119.719
-120.401
-120.471
-119.896
-118.668
-116.834
-114.512
-111.815
-108.839
-105.675
-102.408
-99.11
-95.872
-92.769
-89.835
-87.084
-84.496
-82.029
-79.679
-77.444
-75.305
-73.226
-71.134
-68.965
-66.689
-64.295
-61.76
-59.045
-56.084
-52.821
-49.246
-45.374
-41.244
-36.902
-32.364
-27.628
-22.702
-17.602
-12.348
-6.947
-1.365
4.446
10.502
16.783
23.229
29.788
36.44
43.182
50.02
56.95
63.954
71.012
78.112
85.247
92.4
99.534
106.586
113.487
120.192
126.692
132.999
139.121
145.046
150.755
156.229
161.455
166.423
171.109
175.481
179.507
183.167
186.451
189.359
191.89
194.035
195.778
197.095
197.971
198.399
198.376
197.906
197
195.674
193.951
191.853
189.391
186.573
183.409
179.904
176.071
171.914
167.423
162.595
157.433
151.938
146.112
139.94
133.384
126.421
119.034
111.231
103.048
94.521
85.687
76.6
67.319
57.928
48.538
39.241
30.109
21.218
12.64
4.468
-3.171
-10.178
-16.48
-22.026
-26.803
-30.798
-34
-36.433
-38.144
-39.205
-39.72
-39.765
-39.394
-38.665
-37.633
-36.372
-34.986
-33.55
-32.118
-30.735
-29.428
-28.224
-27.151
-26.212
-25.381
-24.624
-23.885
-23.134
-22.363
-21.56
-20.719
-19.827
-18.861
-17.814
-16.695
-15.509
-14.266
-12.972
-11.631
-10.26
-8.891
-7.557
-6.297
-5.137
-4.092
-3.177
-2.402
-1.775
-1.305
-0.991
-0.826
-0.805
-0.927
-1.188
-1.588
-2.121
-2.775
-3.54
-4.405
-5.359
-6.394
-7.501
-8.67
-9.895
-11.169
-12.486
-13.844
-15.236
-16.656
-18.098
-19.554
-21.017
-22.481
-23.94
-25.388
-26.82
-28.231
-29.619
-30.981
-32.316
-33.62
-34.894
-36.136
-37.346
-38.523
-39.668
-40.78
-41.86
-42.91
-43.929
-44.92
-45.882
-46.817
-47.725
-48.606
-49.459
-50.285
-51.082
-51.849
-52.586
-53.291
-53.963
-54.602
-55.204
-55.769
-56.293
-56.775
-57.211
-57.597
-57.928
-58.201
-58.411
-58.554
-58.624
-58.617
-58.528
-58.353
-58.089
-57.73
-57.275
-56.719
-56.06
-55.297
-54.429
-53.455
-52.377
-51.197
-49.918
-48.542
-47.077
-45.526
-43.896
-42.194
-40.43
-38.612
-36.752
-34.86
-32.952
-31.041
-29.143
-27.275
-25.453
-23.694
-22.012
-20.425
-18.947
-17.592
-16.375
-15.31
-14.41
-13.692
-13.17
-12.856
-12.759
-12.883
-13.23
-13.803
-14.604
-15.634
-16.897
-18.392
-20.117
-22.076
-24.267
-26.68
-29.297
-32.072
-34.96
-37.915
-40.892
-43.85
-46.751
-49.544
-52.18
-54.609
-56.779
-58.652
-60.184
-61.319
-62.023
-62.279
-62.123
-61.673
-61.053
-60.385
-59.774
-59.283
-59.01
-59.097
-59.658
-60.799
-62.603
-65.076
-68.367
-72.754
-78.249
-84.706
-91.717
-98.442
-104.2
-108.535
-110.623
-109.635
-105.473
-98.209
-88.617
-78.698
-69.973
-63.696
-61.975
-64.802
-69.038
-72.193
-70.817
-64.701
-60.293
-58.97
-55.888
-38.564
12.768
107.663
242.297
401.975
565.423
719.45
857.334
972.765
1058.572
1097.517
1070.735
969.632
793.041
559.549
304.146
62.164
-128.228
-244.529
-290.377
-282.004
-248.163
-215.019
-191.489
-177.72
-167.424
-153.886
-138.023
-123.574
-114.276
-112.872
-118.099
-126.784
-135.702
-141.62
-143.061
-139.952
-132.686
-122.256
-109.816
-96.453
-83.438
-72.058
-63.044
-56.679
-52.969
-51.634
-52.416
-55.096
-59.354
-64.827
-71.212
-78.226
-85.601
-93.103
-100.452
-107.372
-113.654
-119.121
-123.635
-127.106
-129.472
-130.712
-130.844
-129.917
-127.99
-125.141
-121.464
-117.077
-112.12
-106.748
-101.119
-95.364
-89.585
-83.864
-78.266
-72.835
-67.603
-62.577
-57.748
-53.102
-48.627
-44.31
-40.135
-36.076
-32.097
-28.157
-24.215
-20.237
-16.2
-12.085
-7.878
-3.568
0.849
5.37
9.983
14.682
19.464
24.33
29.284
34.326
39.449
44.646
49.906
55.215
60.556
65.903
71.224
76.488
81.664
86.727
91.658
96.44
101.057
105.496
109.738
113.773
117.603
121.229
124.662
127.922
131.033
134.035
136.989
139.949
142.972
146.108
149.387
152.822
156.408
160.126
163.945
167.822
171.685
175.45
179.019
182.281
185.126
187.432
189.042
189.804
189.572
188.203
185.597
181.693
176.456
169.891
162.029
152.93
142.702
131.484
119.442
106.752
93.593
80.158
66.675
53.388
40.53
28.328
16.966
6.581
-2.707
-10.822
-17.719
-23.386
-27.86
-31.219
-33.562
-34.992
-35.625
-35.583
-35.023
-34.127
-33.059
-31.977
-31.007
-30.243
-29.774
-29.666
-29.96
-30.671
-31.789
-33.277
-35.091
-37.191
-39.525
-42.037
-44.653
-47.284
-49.856
-52.309
-54.597
-56.692
-58.565
-60.194
-61.573
-62.708
-63.614
-64.311
-64.818
-65.15
-65.327
-65.375
-65.322
-65.201
-65.038
-64.845
-64.634
-64.411
-64.18
-63.945
-63.704
-63.448
-63.171
-62.87
-62.543
-62.19
-61.808
-61.395
-60.947
-60.461
-59.938
-59.377
-58.783
-58.156
-57.502
-56.824
-56.129
-55.424
-54.715
-54.006
-53.303
-52.608
-51.927
-51.265
-50.626
-50.017
-49.441
-48.907
-48.421
-47.99
-47.62
-47.319
-47.092
-46.945
-46.884
-46.911
-47.033
-47.25
-47.568
-47.987
-48.51
-49.137
-49.866
-50.698
-51.629
-52.656
-53.773
-54.976
-56.256
-57.608
-59.024
-60.496
-62.018
-63.582
-65.18
-66.807
-68.454
-70.112
-71.771
-73.417
-75.038
-76.62
-78.149
-79.61
-80.988
-82.27
-83.444
-84.504
-85.439
-86.24
-86.894
-87.386
-87.707
-87.854
-87.822
-87.609
-87.22
-86.664
-85.959
-85.133
-84.209
-83.198
-82.111
-80.946
-79.706
-78.396
-77.018
-75.576
-74.072
-72.502
-70.868
-69.181
-67.432
-65.609
-63.682
-61.602
-59.342
-56.903
-54.291
-51.535
-48.669
-45.728
-42.76
-39.831
-36.994
-34.308
-31.824
-29.577
-27.622
-26.024
-24.861
-24.229
-24.185
-24.741
-25.887
-27.587
-29.787
-32.425
-35.417
-38.642
-42.002
-45.391
-48.709
-51.879
-54.807
-57.395
-59.542
-61.162
-62.224
-62.761
-62.845
-62.562
-61.993
-61.231
-60.433
-59.787
-59.478
-59.714
-60.631
-62.391
-65.279
-69.378
-74.594
-80.653
-86.875
-92.555
-97.249
-100.308
-100.978
-99.208
-95.266
-89.991
-85.324
-82.766
-83.086
-87.347
-96.215
-108.948
-124.11
-138.875
-148.471
-148.875
-136.942
-109.323
-63.384
1.997
86.319
186.872
297.187
409.224
516.942
614.626
698.218
767.045
815.812
837.043
825.134
772.454
679.362
552.36
398.337
231.842
67.673
-78.301
-185.966
-245.537
-257.2
-229.037
-182.387
-137.11
-104.257
-91.414
-93.975
-101.326
-108.126
-109.234
-105.259
-102.286
-102.317
-105.664
-110.801
-113.984
-113.903
-110.967
-105.849
-99.78
-93.553
-87.621
-82.64
-78.993
-76.731
-75.698
-75.572
-76.099
-77.079
-78.303
-79.547
-80.599
-81.301
-81.57
-81.355
-80.613
-79.348
-77.6
-75.447
-72.991
-70.32
-67.525
-64.7
-61.94
-59.335
-56.952
-54.828
-52.995
-51.48
-50.295
-49.442
-48.887
-48.544
-48.318
-48.111
-47.828
-47.398
-46.752
-45.817
-44.535
-42.863
-40.776
-38.267
-35.335
-31.971
-28.184
-23.993
-19.44
-14.593
-9.51
-4.244
1.163
6.683
12.288
17.951
23.659
29.407
35.193
41.022
46.892
52.795
58.728
64.694
70.701
76.764
82.888
89.07
95.303
101.575
107.869
114.169
120.448
126.675
132.821
138.854
144.748
150.478
156.015
161.333
166.401
171.192
175.68
179.842
183.655
187.098
190.151
192.799
195.027
196.824
198.181
199.087
199.537
199.524
199.045
198.101
196.693
194.823
192.499
189.729
186.524
182.896
178.861
174.435
169.637
164.488
159.009
153.225
147.161
140.843
134.298
127.553
120.636
113.577
106.402
99.139
91.817
84.464
77.106
69.772
62.486
55.274
48.161
41.168
34.319
27.631
21.123
14.812
8.711
2.836
-2.803
-8.196
-13.334
-18.211
-22.82
-27.159
-31.225
-35.019
-38.542
-41.798
-44.789
-47.522
-50.002
-52.237
-54.235
-56.002
-57.549
-58.884
-60.018
-60.959
-61.72
-62.312
-62.745
-63.03
-63.179
-63.202
-63.108
-62.908
-62.608
-62.218
-61.745
-61.196
-60.577
-59.897
-59.159
-58.37
-57.534
-56.655
-55.738
-54.785
-53.797
-52.775
-51.717
-50.632
-49.526
-48.406
-47.276
-46.133
-44.981
-43.833
-42.693
-41.546
-40.361
-39.108
-37.779
-36.403
-35.009
-33.583
-32.134
-30.742
-29.532
-28.625
-28.072
-27.808
-27.757
-27.975
-28.408
-28.679
-28.47
-27.712
-26.489
-25.23
-23.176
-17.975
-8.605
3.466
12.403
9.627
-8.606
-38.039
-66.29
-79.078
-70.07
-44.153
-15.232
3.297
5.82
-4.686
-19.249
-30.879
-37.336
-39.612
-40.733
-42.219
-43.886
-45.469
-46.658
-47.554
-48.529
-49.674
-50.926
-52.285
-53.746
-55.272
-56.801
-58.239
-59.514
-60.613
-61.555
-62.34
-62.957
-63.394
-63.647
-63.716
-63.605
-63.311
-62.825
-62.146
-61.272
-60.206
-58.952
-57.514
-55.898
-54.111
-52.161
-50.06
-47.818
-45.448
-42.966
-40.388
-37.731
-35.016
-32.262
-29.492
-26.727
-23.989
-21.3
-18.68
-16.149
-13.728
-11.436
-9.293
-7.318
-5.532
-3.954
-2.602
-1.491
-0.636
-0.041
0.287
0.344
0.127
-0.375
-1.171
-2.265
-3.665
-5.377
-7.397
-9.719
-12.316
-15.147
-18.167
-21.328
-24.581
-27.891
-31.213
-34.502
-37.709
-40.77
-43.621
-46.211
-48.476
-50.365
-51.839
-52.884
-53.564
-53.984
-54.249
-54.47
-54.724
-55.066
-55.613
-56.48
-57.722
-59.462
-61.797
-64.835
-68.856
-73.988
-80.12
-86.976
-94.09
-100.909
-106.734
-110.774
-112.229
-110.475
-106.565
-102.161
-97.606
-94.078
-90.032
-82.618
-74.622
-67.485
-64.892
-74.795
-95.742
-122.04
-143.343
-139.298
-95.551
-10.136
108.479
241.602
370.798
489.246
602.723
717.67
833.697
942.09
1018.79
1038.71
990.438
869.064
687.195
474.631
259.18
72.535
-60.871
-139.76
-171.299
-172.738
-163.33
-146.64
-123.614
-95.094
-64.397
-44.448
-43.547
-60.363
-86.603
-109.948
-123.175
-127.113
-127.021
-127.006
-128.156
-129.157
-127.524
-122.729
-115.824
-107.849
-100.042
-93.251
-87.612
-83.224
-80.078
-77.863
-76.345
-75.38
-74.804
-74.481
-74.3
-74.157
-73.982
-73.79
-73.618
-73.448
-73.235
-72.946
-72.572
-72.145
-71.734
-71.392
-71.159
-71.076
-71.168
-71.459
-71.975
-72.701
-73.591
-74.568
-75.515
-76.349
-77.026
-77.499
-77.73
-77.671
-77.261
-76.461
-75.253
-73.617
-71.536
-68.999
-65.99
-62.526
-58.647
-54.419
-49.926
-45.231
-40.369
-35.368
-30.247
-25.025
-19.725
-14.354
-8.911
-3.399
2.163
7.753
13.341
18.917
24.479
30.043
35.621
41.222
46.848
52.49
58.148
63.825
69.525
75.251
81.012
86.82
92.701
98.697
104.834
111.128
117.584
124.189
130.928
137.779
144.704
151.66
158.594
165.429
172.09
178.486
184.504
190.037
194.972
199.181
202.567
205.048
206.554
207.045
206.49
204.876
202.219
198.549
193.908
188.364
182.001
174.916
167.243
159.107
150.626
141.934
133.138
124.334
115.613
107.042
98.672
90.55
82.699
75.136
67.875
60.912
54.232
47.812
41.605
35.576
29.699
23.944
18.294
12.741
7.274
1.897
-3.373
-8.526
-13.545
-18.409
-23.106
-27.617
-31.919
-35.988
-39.797
-43.324
-46.559
-49.492
-52.121
-54.448
-56.475
-58.212
-59.677
-60.883
-61.844
-62.576
-63.091
-63.404
-63.533
-63.494
-63.306
-62.986
-62.548
-62.007
-61.379
-60.675
-59.91
-59.094
-58.237
-57.35
-56.445
-55.534
-54.626
-53.734
-52.866
-52.03
-51.236
-50.488
-49.793
-49.154
-48.573
-48.053
-47.595
-47.199
-46.866
-46.594
-46.384
-46.234
-46.14
-46.101
-46.114
-46.174
-46.278
-46.422
-46.603
-46.816
-47.058
-47.327
-47.617
-47.926
-48.25
-48.586
-48.928
-49.274
-49.62
-49.963
-50.299
-50.626
-50.942
-51.246
-51.538
-51.817
-52.085
-52.342
-52.588
-52.826
-53.057
-53.283
-53.505
-53.726
-53.948
-54.174
-54.408
-54.65
-54.904
-55.171
-55.454
-55.752
-56.066
-56.394
-56.735
-57.088
-57.453
-57.826
-58.206
-58.592
-58.983
-59.378
-59.774
-60.169
-60.558
-60.933
-61.287
-61.615
-61.907
-62.152
-62.342
-62.468
-62.521
-62.497
-62.39
-62.19
-61.887
-61.466
-60.92
-60.243
-59.433
-58.485
-57.401
-56.187
-54.858
-53.439
-51.947
-50.393
-48.781
-47.11
-45.382
-43.6
-41.766
-39.881
-37.947
-35.96
-33.923
-31.847
-29.732
-27.57
-25.339
-22.997
-20.527
-17.932
-15.226
-12.441
-9.614
-6.787
-4.017
-1.374
1.079
3.282
5.188
6.762
7.957
8.723
8.993
8.685
7.745
6.149
3.889
0.992
-2.497
-6.514
-10.967
-15.742
-20.738
-25.857
-31.017
-36.143
-41.157
-45.989
-50.558
-54.778
-58.583
-61.922
-64.779
-67.184
-69.208
-70.972
-72.615
-74.283
-76.103
-78.162
-80.541
-83.332
-86.59
-90.356
-94.707
-99.666
-105.317
-111.858
-119.274
-127.376
-135.76
-143.591
-149.966
-154.172
-155.354
-152.724
-146.01
-135.103
-120.924
-105.75
-91.805
-81.47
-75.367
-71.551
-68.616
-64.962
-62.733
-68.281
-81.268
-96.986
-101.69
-70.672
8.087
136.765
307.232
492.308
671.685
831.058
954.115
1036.412
1073.82
1061.06
1003.151
906.833
777.795
622.812
449.159
266.459
91.793
-51.692
-149.89
-199.703
-210.073
-201.531
-187.905
-175.085
-163.815
-149.337
-132.014
-115.578
-103.002
-97.744
-99.94
-107.116
-117.09
-126.946
-133.937
-136.981
-135.739
-130.469
-122.172
-111.86
-100.439
-89.032
-78.741
-70.137
-63.446
-58.642
-55.455
-53.685
-53.186
-53.728
-55.051
-56.964
-59.311
-61.981
-64.906
-67.962
-70.984
-73.86
-76.506
-78.879
-80.975
-82.776
-84.256
-85.408
-86.242
-86.772
-87.026
-87.019
-86.75
-86.226
-85.441
-84.41
-83.167
-81.725
-80.092
-78.266
-76.229
-73.976
-71.511
-68.833
-65.933
-62.807
-59.445
-55.856
-52.06
-48.084
-43.966
-39.728
-35.381
-30.934
-26.394
-21.766
-17.056
-12.265
-7.384
-2.411
2.654
7.807
13.041
18.356
23.754
29.245
34.839
40.541
46.347
52.251
58.242
64.307
70.431
76.594
82.768
88.928
95.05
101.108
107.079
112.939
118.656
124.203
129.547
134.659
139.514
144.085
148.347
152.272
155.833
159.005
161.774
164.128
166.056
167.554
168.619
169.255
169.478
169.304
168.748
167.825
166.534
164.876
162.858
160.485
157.768
154.711
151.301
147.521
143.361
138.81
133.854
128.476
122.634
116.293
109.431
102.038
94.135
85.758
76.947
67.746
58.199
48.386
38.428
28.457
18.585
8.905
-0.523
-9.605
-18.179
-26.152
-33.509
-40.237
-46.361
-51.873
-56.665
-60.71
-64.141
-66.907
-68.735
-69.649
-69.832
-69.304
-68.519
-66.84
-62.137
-54.973
-47.457
-42.995
-47.956
-61.993
-78.763
-91.947
-92.531
-79.886
-62.48
-46.839
-40.029
-43.29
-50.238
-56.942
-60.712
-60.711
-59.529
-58.357
-57.116
-55.906
-54.346
-52.347
-50.286
-48.302
-46.371
-44.543
-42.864
-41.34
-39.978
-38.762
-37.645
-36.62
-35.719
-34.949
-34.306
-33.794
-33.412
-33.163
-33.053
-33.078
-33.227
-33.492
-33.864
-34.338
-34.907
-35.565
-36.306
-37.125
-38.02
-38.986
-40.022
-41.12
-42.275
-43.479
-44.722
-45.997
-47.293
-48.6
-49.907
-51.207
-52.491
-53.754
-54.993
-56.202
-57.381
-58.525
-59.631
-60.696
-61.716
-62.686
-63.6
-64.456
-65.249
-65.985
-66.667
-67.302
-67.89
-68.429
-68.917
-69.343
-69.696
-69.957
-70.11
-70.141
-70.044
-69.824
-69.495
-69.074
-68.579
-68.021
-67.403
-66.733
-66.017
-65.263
-64.478
-63.679
-62.896
-62.173
-61.563
-61.105
-60.817
-60.7
-60.735
-60.898
-61.143
-61.429
-61.713
-61.958
-62.135
-62.224
-62.212
-62.075
-61.767
-61.222
-60.355
-59.112
-57.456
-55.373
-52.869
-49.962
-46.713
-43.2
-39.515
-35.74
-31.931
-28.13
-24.371
-20.701
-17.187
-13.919
-11
-8.515
-6.536
-5.12
-4.311
-4.134
-4.559
-5.517
-6.92
-8.697
-10.81
-13.237
-15.954
-18.931
-22.123
-25.469
-28.899
-32.335
-35.687
-38.876
-41.827
-44.495
-46.882
-49.03
-50.991
-52.787
-54.422
-55.881
-57.152
-58.224
-59.085
-59.735
-60.192
-60.519
-60.835
-61.258
-61.898
-62.834
-64.078
-65.634
-67.544
-69.87
-72.693
-76.1
-80.142
-84.917
-90.633
-97.38
-105.04
-113.23
-121.207
-128.194
-133.619
-136.875
-137.224
-134.269
-128.111
-119.52
-110.253
-102.156
-96.499
-94.394
-96.839
-104.088
-115.269
-128.07
-138.362
-141.547
-133.474
-110.115
-67.731
-3.123
83.854
189.094
306.543
428.707
551.085
675.827
802.593
925.569
1033.757
1104.004
1114.121
1054.298
923.209
736.242
520.236
300.863
104.255
-49.349
-150.236
-197.77
-199.598
-169.088
-122.867
-75.138
-38.542
-22.036
-25.766
-44.774
-68.652
-87.587
-98.574
-102.858
-105.819
-111.082
-117.813
-124.123
-127.316
-126.335
-122.302
-116.441
-109.904
-103.685
-98.379
-94.323
-91.691
-90.353
-90.008
-90.446
-91.504
-93.007
-94.766
-96.596
-98.344
-99.92
-101.271
-102.343
-103.052
-103.328
-103.161
-102.576
-101.624
-100.374
-98.885
-97.215
-95.436
-93.608
-91.78
-90
-88.286
-86.644
-85.077
-83.549
-82.039
-80.523
-78.947
-77.261
-75.419
-73.365
-71.059
-68.47
-65.563
-62.316
-58.722
-54.773
-50.486
-45.881
-40.99
-35.865
-30.547
-25.077
-19.5
-13.847
-8.141
-2.409
3.336
9.086
14.827
20.562
26.295
32.026
37.765
43.514
49.276
55.063
60.881
66.737
72.637
78.573
84.529
90.501
96.471
102.425
108.355
114.219
119.98
125.606
131.058
136.317
141.363
146.167
150.706
154.951
158.872
162.453
165.682
168.527
170.966
172.972
174.511
175.597
176.242
176.449
176.233
175.591
174.519
173.03
171.138
168.85
166.183
163.145
159.744
156.01
151.971
147.659
143.112
138.336
133.334
128.124
122.716
117.132
111.395
105.518
99.515
93.41
87.226
80.989
74.727
68.453
62.18
55.925
49.7
43.529
37.439
31.448
25.577
19.842
14.26
8.848
3.624
-1.405
-6.231
-10.85
-15.258
-19.447
-23.413
-27.152
-30.662
-33.942
-36.994
-39.819
-42.418
-44.794
-46.951
-48.895
-50.631
-52.163
-53.497
-54.637
-55.591
-56.365
-56.967
-57.405
-57.687
-57.823
-57.822
-57.693
-57.448
-57.096
-56.647
-56.109
-55.493
-54.807
-54.06
-53.258
-52.41
-51.523
-50.603
-49.658
-48.693
-47.715
-46.731
-45.744
-44.762
-43.788
-42.828
-41.885
-40.964
-40.068
-39.2
-38.365
-37.565
-36.804
-36.084
-35.407
-34.775
-34.188
-33.648
-33.154
-32.706
-32.303
-31.944
-31.629
-31.358
-31.13
-30.944
-30.801
-30.701
-30.646
-30.635
-30.667
-30.74
-30.855
-31.011
-31.206
-31.439
-31.71
-32.019
-32.368
-32.759
-33.195
-33.676
-34.203
-34.774
-35.389
-36.047
-36.746
-37.479
-38.242
-39.034
-39.857
-40.718
-41.619
-42.553
-43.515
-44.491
-45.471
-46.449
-47.41
-48.334
-49.21
-50.028
-50.793
-51.521
-52.218
-52.878
-53.492
-54.038
-54.507
-54.903
-55.229
-55.488
-55.687
-55.833
-55.951
-56.084
-56.254
-56.464
-56.698
-56.918
-57.102
-57.248
-57.354
-57.421
-57.435
-57.371
-57.207
-56.933
-56.519
-55.923
-55.077
-53.894
-52.32
-50.335
-47.94
-45.155
-41.988
-38.44
-34.52
-30.259
-25.7
-20.897
-15.895
-10.742
-5.511
-0.311
4.72
9.435
13.719
17.489
20.677
23.217
25.046
26.109
26.372
25.828
24.482
22.339
19.405
15.699
11.272
6.215
0.662
-5.248
-11.39
-17.651
-23.923
-30.09
-36.039
-41.673
-46.909
-51.687
-55.941
-59.615
-62.647
-64.987
-66.615
-67.553
-67.89
-67.77
-67.34
-66.747
-66.123
-65.574
-65.245
-65.303
-65.874
-67.08
-69.043
-71.816
-75.583
-80.643
-87.004
-94.496
-102.713
-110.816
-118.047
-123.88
-127.462
-127.907
-125.116
-119.236
-111.022
-102.496
-95.434
-91.132
-91.346
-95.9
-101.737
-106.347
-107.701
-106.104
-104.821
-102.967
-91.953
-57.271
13.256
122.918
262.561
414.028
565.31
710.19
843.763
960.142
1042.401
1071.555
1038.704
946.409
811.047
650.936
478.125
302.613
131.691
-21.909
-140.201
-213.05
-237.192
-219.944
-179.673
-132.896
-94.811
-75.952
-76.307
-90.94
-109.939
-124.053
-130.769
-131.511
-131.292
-133.357
-136.594
-138.967
-137.922
-132.492
-123.796
-113.063
-101.398
-89.823
-79.109
-69.734
-61.978
-55.814
-51.008
-47.447
-45.116
-43.954
-43.838
-44.617
-46.124
-48.223
-50.825
-53.797
-56.967
-60.165
-63.242
-66.092
-68.66
-70.914
-72.812
-74.298
-75.297
-75.73
-75.563
-74.791
-73.434
-71.539
-69.154
-66.33
-63.149
-59.709
-56.101
-52.432
-48.768
-45.12
-41.511
-37.963
-34.501
-31.179
-28.022
-24.984
-22.016
-19.124
-16.311
-13.583
-10.925
-8.226
-5.337
-2.191
1.213
5.078
9.636
14.782
20.528
26.907
33.436
41.212
51.319
62.057
72.881
80.748
81.995
80.545
78.985
81.196
92.556
108.205
124.016
137.154
142.98
144.792
145.96
147.278
150.817
155.401
159.507
163.412
166.914
170.122
173.345
176.379
179.058
181.422
183.474
185.195
186.579
187.622
188.308
188.633
188.615
188.244
187.514
186.444
185.045
183.317
181.265
178.898
176.221
173.246
169.977
166.396
162.488
158.246
153.66
148.726
143.43
137.733
131.603
125.024
117.985
110.503
102.605
94.316
85.668
76.713
67.515
58.166
48.772
39.42
30.193
21.176
12.459
4.158
-3.618
-10.793
-17.299
-23.103
-28.188
-32.539
-36.153
-39.063
-41.317
-42.992
-44.189
-44.977
-45.423
-45.592
-45.553
-45.397
-45.205
-45.037
-44.936
-44.931
-45.043
-45.292
-45.692
-46.225
-46.864
-47.565
-48.27
-48.944
-49.566
-50.11
-50.558
-50.886
-51.07
-51.106
-50.999
-50.755
-50.382
-49.884
-49.267
-48.554
-47.771
-46.948
-46.122
-45.315
-44.544
-43.826
-43.172
-42.593
-42.096
-41.683
-41.349
-41.091
-40.911
-40.808
-40.784
-40.836
-40.957
-41.144
-41.39
-41.69
-42.041
-42.438
-42.878
-43.359
-43.877
-44.431
-45.02
-45.642
-46.293
-46.97
-47.668
-48.383
-49.111
-49.847
-50.588
-51.33
-52.071
-52.809
-53.543
-54.271
-54.993
-55.707
-56.415
-57.115
-57.808
-58.494
-59.172
-59.844
-60.509
-61.167
-61.818
-62.46
-63.092
-63.712
-64.318
-64.91
-65.484
-66.04
-66.575
-67.09
-67.585
-68.06
-68.514
-68.945
-69.352
-69.733
-70.084
-70.403
-70.683
-70.919
-71.105
-71.234
-71.303
-71.304
-71.23
-71.071
-70.814
-70.45
-69.977
-69.39
-68.691
-67.884
-66.974
-65.976
-64.911
-63.795
-62.645
-61.471
-60.278
-59.079
-57.885
-56.701
-55.54
-54.402
-53.276
-52.152
-51.012
-49.826
-48.561
-47.176
-45.613
-43.839
-41.828
-39.562
-37.044
-34.273
-31.259
-28.034
-24.633
-21.099
-17.499
-13.902
-10.389
-7.072
-4.057
-1.455
0.612
2.054
2.799
2.782
1.972
0.355
-2.053
-5.204
-9.033
-13.472
-18.431
-23.806
-29.475
-35.278
-41.065
-46.698
-52.033
-56.959
-61.373
-65.183
-68.335
-70.822
-72.688
-74.03
-74.955
-75.575
-75.996
-76.314
-76.661
-77.215
-78.13
-79.559
-81.631
-84.365
-87.872
-92.34
-97.734
-103.877
-110.327
-116.246
-120.969
-124.138
-125.153
-123.361
-118.622
-110.97
-101.222
-91.318
-82.55
-75.445
-71.08
-70.332
-72.737
-77.747
-82.359
-80.053
-67.54
-43.644
-7.711
35.912
86.304
147.927
223.292
318.236
435.512
568.899
709.091
838.458
936.462
984.571
966.991
880.418
729.874
532.042
316.312
110.893
-56.33
-168.274
-227.64
-244.689
-234.996
-212.245
-180.816
-145.097
-112.636
-91.235
-87.926
-102.231
-124.216
-144.175
-155.907
-158.845
-158.854
-159.385
-160.804
-162.239
-160.774
-155.498
-147.534
-137.836
-127.72
-118.328
-109.91
-102.579
-96.413
-91.122
-86.489
-82.46
-78.916
-75.793
-73.132
-70.94
-69.229
-68.048
-67.363
-67.101
-67.201
-67.587
-68.231
-69.158
-70.387
-71.949
-73.876
-76.167
-78.79
-81.665
-84.642
-87.553
-90.245
-92.607
-94.576
-96.117
-97.192
-97.776
-97.842
-97.348
-96.261
-94.536
-92.106
-88.933
-85.021
-80.42
-75.245
-69.646
-63.755
-57.675
-51.483
-45.228
-38.956
-32.705
-26.488
-20.319
-14.212
-8.194
-2.321
3.362
8.84
14.124
19.262
24.321
29.359
34.413
39.518
44.692
49.943
55.275
60.67
66.101
71.548
77.001
82.461
87.931
93.397
98.832
104.201
109.455
114.556
119.467
124.149
128.567
132.696
136.512
140.005
143.164
145.975
148.415
150.462
152.101
153.322
154.122
154.51
154.489
154.068
153.262
152.084
150.542
148.635
146.352
143.677
140.606
137.145
133.312
129.126
124.595
119.722
114.513
108.962
103.067
96.825
90.212
83.224
75.88
68.214
60.294
52.2
43.991
35.717
27.418
19.126
10.889
2.756
-5.231
-13.017
-20.548
-27.762
-34.569
-40.902
-46.73
-52.045
-56.878
-61.285
-65.298
-68.942
-72.242
-75.212
-77.873
-80.251
-82.355
-84.202
-85.821
-87.252
-88.558
-89.794
-90.985
-92.139
-93.237
-94.245
-95.141
-95.915
-96.549
-97.039
-97.383
-97.582
-97.653
-97.613
-97.47
-97.225
-96.867
-96.384
-95.782
-95.074
-94.281
-93.433
-92.553
-91.664
-90.788
-89.944
-89.144
-88.397
-87.703
-87.057
-86.46
-85.914
-85.422
-84.992
-84.625
-84.319
-84.07
-83.873
-83.72
-83.605
-83.529
-83.485
-83.467
-83.486
-83.545
-83.649
-83.819
-84.045
-84.287
-84.527
-84.748
-84.887
-84.927
-84.866
-84.653
-84.316
-83.987
-83.748
-83.638
-83.887
-84.664
-85.747
-87.156
-88.89
-90.156
-91.789
-94.887
-97.887
-100.594
-99.392
-88.623
-70.944
-50.291
-36.227
-42.124
-67.869
-106.264
-142.172
-156.942
-146.203
-116.686
-83.11
-61.02
-55.037
-59.804
-66.81
-70.81
-72.698
-79.454
-93.824
-111.032
-124.654
-125.616
-112.824
-94.764
-78.412
-70.918
-73.6
-80.184
-86.745
-90.613
-90.894
-90.077
-89.292
-88.432
-87.622
-86.485
-84.915
-83.265
-81.646
-80.011
-78.383
-76.791
-75.225
-73.679
-72.133
-70.541
-68.898
-67.247
-65.61
-63.997
-62.422
-60.896
-59.433
-58.058
-56.788
-55.636
-54.617
-53.744
-53.032
-52.493
-52.137
-51.969
-51.991
-52.206
-52.618
-53.242
-54.088
-55.167
-56.486
-58.048
-59.85
-61.879
-64.112
-66.512
-69.039
-71.653
-74.315
-76.996
-79.663
-82.282
-84.81
-87.186
-89.345
-91.233
-92.794
-93.976
-94.759
-95.152
-95.19
-94.961
-94.543
-93.993
-93.394
-92.832
-92.414
-92.271
-92.531
-93.308
-94.774
-97.163
-100.585
-104.974
-110.028
-115.159
-119.761
-123.348
-125.373
-125.159
-122.381
-117.296
-110.757
-104.354
-99.66
-97.595
-98.908
-104.416
-114.106
-126.745
-139.925
-149.776
-152.12
-143.745
-121.711
-83.167
-26.351
49.024
141.416
246.985
359.498
471.619
575.842
665.602
738.755
795.717
836.598
858.971
852.55
806.458
713.346
571.385
396.084
209.578
36.742
-94.644
-175.321
-208.71
-207.228
-193.965
-181.478
-173.349
-168.734
-160.881
-148.897
-136.111
-125.359
-120.274
-121.355
-126.397
-133.495
-140.218
-144.307
-144.988
-142.072
-135.799
-127.021
-116.581
-105.206
-93.806
-83.305
-74.196
-66.685
-60.768
-56.235
-52.966
-50.905
-49.926
-49.859
-50.546
-51.843
-53.632
-55.831
-58.324
-60.973
-63.673
-66.346
-68.942
-71.437
-73.799
-75.968
-77.866
-79.416
-80.534
-81.167
-81.302
-80.932
-80.082
-78.784
-77.077
-75.01
-72.619
-69.928
-66.948
-63.684
-60.14
-56.342
-52.332
-48.159
-43.891
-39.576
-35.237
-30.893
-26.541
-22.174
-17.782
-13.351
-8.864
-4.314
0.297
4.961
9.657
14.377
19.12
23.895
28.724
33.626
38.609
43.679
48.835
54.078
59.42
64.874
70.45
76.166
82.041
88.106
94.409
100.985
107.853
115.022
122.478
130.196
138.144
146.28
154.558
162.908
171.244
179.465
187.464
195.132
202.366
209.053
215.064
220.288
224.631
228.024
230.422
231.8
232.146
231.468
229.788
227.159
223.654
219.367
214.408
208.881
202.88
196.511
189.884
183.103
176.255
169.411
162.62
155.923
149.356
142.942
136.697
130.616
124.682
118.867
113.132
107.451
101.807
96.183
90.559
84.928
79.283
73.634
68
62.4
56.851
51.374
45.99
40.729
35.621
30.702
26.007
21.563
17.392
13.511
9.932
6.665
3.714
1.078
-1.25
-3.279
-5.012
-6.458
-7.624
-8.521
-9.16
-9.556
-9.722
-9.671
-9.417
-8.969
-8.339
-7.539
-6.578
-5.467
-4.214
-2.828
-1.322
0.292
2.002
3.796
5.664
7.595
9.578
11.602
13.657
15.735
17.828
19.926
22.019
24.095
26.143
28.155
