Name
Date of Birth,"Mar 27, 1959"
Recorded Date,2022-07-27 13:00:57 -0500
Classification,Sinus Rhythm
Symptoms,
Software Version,1.90
Device,"Watch4,2"
Sample Rate,510.227 hertz


Lead,Lead I
Unit,µV

-11.626
-11.64
-11.743
-11.926
-12.183
-12.505
-12.885
-13.314
-13.786
-14.294
-14.831
-15.391
-15.968
-16.558
-17.155
-17.755
-18.353
-18.947
-19.531
-20.103
-20.66
-21.198
-21.714
-22.205
-22.668
-23.099
-23.496
-23.855
-24.171
-24.441
-24.661
-24.826
-24.932
-24.974
-24.946
-24.842
-24.658
-24.388
-24.024
-23.561
-22.993
-22.313
-21.515
-20.594
-19.542
-18.355
-17.027
-15.553
-13.928
-12.15
-10.213
-8.117
-5.858
-3.437
-0.853
1.892
4.795
7.854
11.064
14.418
17.91
21.531
25.272
29.121
33.066
37.095
41.192
45.342
49.529
53.735
57.941
62.13
66.281
70.375
74.392
78.311
82.112
85.775
89.278
92.603
95.73
98.641
101.318
103.743
105.901
107.777
109.358
110.632
111.588
112.217
112.513
112.468
112.08
111.346
110.267
108.844
107.081
104.983
102.558
99.814
96.764
93.418
89.791
85.898
81.756
77.383
72.797
68.02
63.07
57.971
52.744
47.411
41.996
36.52
31.007
25.478
19.956
14.462
9.016
3.64
-1.648
-6.83
-11.888
-16.806
-21.57
-26.167
-30.584
-34.811
-38.84
-42.663
-46.273
-49.667
-52.841
-55.793
-58.523
-61.033
-63.325
-65.404
-67.274
-68.939
-70.409
-71.693
-72.796
-73.722
-74.478
-75.07
-75.512
-75.822
-76.006
-76.068
-76.036
-75.935
-75.785
-75.611
-75.412
-75.171
-74.909
-74.654
-74.341
-73.888
-73.354
-72.75
-72.058
-71.451
-70.468
-68.655
-66.697
-64.816
-64.234
-66.404
-69.701
-73.062
-74.786
-72.547
-68.372
-63.928
-60.342
-59.699
-60.124
-59.74
-58.954
-57.144
-56.108
-58.043
-61.085
-64.151
-65.47
-62.538
-57.539
-52.321
-48.083
-46.839
-47.157
-47.576
-47.768
-46.844
-45.313
-43.829
-42.275
-40.748
-39.206
-37.52
-35.783
-34.071
-32.368
-30.677
-29.012
-27.376
-25.771
-24.2
-22.657
-21.133
-19.64
-18.19
-16.785
-15.432
-14.136
-12.899
-11.726
-10.625
-9.595
-8.639
-7.759
-6.956
-6.23
-5.581
-5.01
-4.513
-4.09
-3.737
-3.452
-3.231
-3.07
-2.964
-2.908
-2.897
-2.924
-2.983
-3.066
-3.167
-3.277
-3.388
-3.491
-3.577
-3.638
-3.664
-3.646
-3.574
-3.44
-3.234
-2.948
-2.572
-2.098
-1.517
-0.822
-0.006
0.938
2.016
3.232
4.589
6.093
7.743
9.542
11.49
13.588
15.832
18.223
20.754
23.422
26.221
29.143
32.178
35.315
38.541
41.842
45.201
48.604
52.032
55.466
58.886
62.271
65.601
68.855
72.008
75.039
77.923
80.637
83.162
85.479
87.571
89.42
91.01
92.324
93.354
94.095
94.535
94.663
94.465
93.93
93.064
91.874
90.359
88.517
86.374
83.956
81.303
78.458
75.442
72.266
68.972
65.616
62.159
58.543
54.856
51.138
47.403
43.87
40.107
35.669
31.243
27.052
24.232
24.128
25.008
25.586
24.133
18.376
10.079
0.785
-8.336
-15.304
-21.068
-26.435
-31.287
-36.024
-39.732
-41.548
-41.478
-39.521
-36.199
-32.284
-28.361
-25.21
-23.639
-24.328
-27.851
-34.444
-44.048
-55.832
-67.792
-77.569
-82.697
-82.371
-78.025
-70.361
-58.634
-37.869
0.304
61.721
149.178
258.439
380.141
506.399
628.767
741.486
839.344
912.385
950.447
943.312
883.815
773.531
620.904
441.325
256.173
86.626
-48.766
-137.836
-179.502
-179.975
-151.273
-107.979
-61.326
-20.738
8.226
23.409
24.501
14.769
-2.095
-20.765
-36.253
-46.825
-51.466
-52.88
-55.048
-59.361
-66.73
-75.306
-81.811
-85.162
-84.861
-81.463
-76.691
-71.38
-66.128
-61.661
-58.145
-55.667
-54.34
-54.003
-54.452
-55.557
-57.091
-58.756
-60.35
-61.736
-62.829
-63.672
-64.344
-64.874
-65.301
-65.648
-65.895
-66.016
-65.971
-65.715
-65.229
-64.513
-63.576
-62.446
-61.157
-59.733
-58.196
-56.533
-54.695
-52.645
-50.349
-47.795
-44.996
-41.982
-38.799
-35.488
-32.085
-28.615
-25.088
-21.506
-17.863
-14.154
-10.372
-6.521
-2.624
1.297
5.22
9.128
13.022
16.911
20.819
24.772
28.785
32.864
36.994
41.153
45.321
49.49
53.651
57.791
61.895
65.933
69.903
73.831
77.71
81.473
84.982
88.092
90.742
93.006
94.99
96.712
98.205
99.593
101.147
103.201
105.888
109.012
112.203
115.218
117.885
119.984
121.147
120.879
118.922
115.457
110.956
105.785
100.167
94.287
88.399
82.898
78.044
73.753
69.688
65.565
61.237
56.645
51.755
46.435
40.578
34.226
27.543
20.69
13.759
6.779
-0.263
-7.34
-14.406
-21.438
-28.433
-35.396
-42.322
-49.188
-55.953
-62.584
-69.06
-75.366
-81.495
-87.438
-93.184
-98.72
-104.039
-109.134
-114
-118.633
-123.033
-127.198
-131.128
-134.827
-138.298
-141.55
-144.588
-147.418
-150.045
-152.474
-154.714
-156.772
-158.66
-160.387
-161.963
-163.398
-164.703
-165.889
-166.966
-167.946
-168.837
-169.65
-170.394
-171.079
-171.714
-172.308
-172.868
-173.402
-173.917
-174.42
-174.915
-175.408
-175.903
-176.403
-176.911
-177.43
-177.959
-178.501
-179.054
-179.619
-180.193
-180.774
-181.359
-181.946
-182.529
-183.105
-183.67
-184.217
-184.743
-185.243
-185.71
-186.14
-186.528
-186.868
-187.155
-187.385
-187.552
-187.652
-187.682
-187.638
-187.517
-187.316
-187.035
-186.671
-186.224
-185.694
-185.08
-184.382
-183.602
-182.741
-181.8
-180.782
-179.692
-178.533
-177.31
-176.03
-174.697
-173.317
-171.895
-170.44
-168.956
-167.451
-165.931
-164.403
-162.875
-161.356
-159.854
-158.375
-156.926
-155.513
-154.141
-152.816
-151.542
-150.321
-149.155
-148.044
-146.992
-146.003
-145.072
-144.204
-143.406
-142.683
-142.042
-141.488
-140.998
-140.567
-140.204
-139.879
-139.549
-139.184
-138.73
-138.175
-137.576
-136.944
-136.236
-135.512
-134.9
-134.414
-134.039
-133.762
-133.289
-132.854
-133.452
-134.858
-136.254
-136.225
-131.433
-121.885
-111.131
-102.381
-101.076
-108.505
-119.073
-128.77
-132.729
-128.303
-120.241
-111.678
-104.733
-101.726
-100.353
-98.807
-96.894
-93.791
-90.125
-86.706
-83.469
-80.355
-77.284
-74.164
-71.034
-68.018
-65.178
-62.473
-59.896
-57.547
-55.503
-53.84
-52.673
-52.05
-52.02
-52.663
-54.004
-56.012
-58.637
-61.785
-65.365
-69.322
-73.597
-78.129
-82.871
-87.768
-92.755
-97.775
-102.74
-107.531
-112.042
-116.147
-119.732
-122.763
-125.269
-127.349
-129.159
-130.836
-132.467
-134.142
-135.939
-137.803
-139.571
-141.007
-141.803
-141.778
-140.956
-139.514
-137.703
-135.95
-134.771
-134.589
-135.833
-138.728
-143.114
-148.529
-154.375
-159.892
-164.401
-167.627
-169.386
-169.762
-169.283
-168.702
-168.937
-170.405
-172.307
-173.079
-170.738
-164.42
-155.319
-144.181
-130.691
-111.707
-79.959
-28.756
46.439
146.668
267.241
400.685
538.079
668.319
778.754
855.823
885.762
858.242
771.381
632.28
456.701
267.314
86.753
-66.784
-180.904
-252.209
-284.804
-285.098
-262.587
-227.67
-188.253
-154.099
-132.677
-125.165
-130.32
-141.245
-149.408
-152.087
-149.298
-144.354
-142.386
-144.37
-149.125
-155.014
-159.491
-161.692
-161.975
-160.384
-157.348
-153.406
-148.804
-143.877
-139.053
-134.565
-130.653
-127.675
-125.745
-124.777
-124.666
-125.211
-126.181
-127.412
-128.681
-129.688
-130.266
-130.333
-129.851
-128.858
-127.384
-125.433
-123.051
-120.308
-117.261
-113.966
-110.469
-106.799
-103.009
-99.162
-95.32
-91.551
-87.898
-84.385
-81.028
-77.829
-74.787
-71.892
-69.128
-66.469
-63.895
-61.386
-58.924
-56.495
-54.077
-51.65
-49.19
-46.677
-44.089
-41.412
-38.632
-35.738
-32.72
-29.571
-26.286
-22.862
-19.298
-15.59
-11.737
-7.739
-3.597
0.686
5.103
9.649
14.313
19.084
23.949
28.892
33.895
38.94
44.007
49.073
54.117
59.116
64.044
68.877
73.589
78.156
82.552
86.751
90.731
94.465
97.933
101.112
103.982
106.524
108.72
110.556
112.018
113.094
113.773
114.05
113.917
113.372
112.414
111.044
109.266
107.085
104.51
101.552
98.222
94.536
90.511
86.164
81.515
76.587
71.402
65.984
60.357
54.549
48.585
42.493
36.299
30.03
23.715
17.379
11.048
4.749
-1.494
-7.657
-13.717
-19.652
-25.442
-31.068
-36.511
-41.756
-46.787
-51.592
-56.159
-60.478
-64.541
-68.34
-71.873
-75.135
-78.125
-80.843
-83.29
-85.47
-87.388
-89.049
-90.46
-91.63
-92.568
-93.283
-93.788
-94.093
-94.21
-94.153
-93.932
-93.563
-93.056
-92.425
-91.683
-90.843
-89.916
-88.915
-87.851
-86.735
-85.578
-84.389
-83.178
-81.954
-80.722
-79.492
-78.269
-77.058
-75.864
-74.691
-73.541
-72.417
-71.319
-70.25
-69.208
-68.193
-67.204
-66.239
-65.296
-64.372
-63.465
-62.572
-61.69
-60.817
-59.949
-59.084
-58.218
-57.35
-56.476
-55.595
-54.706
-53.805
-52.893
-51.968
-51.03
-50.08
-49.117
-48.144
-47.161
-46.171
-45.175
-44.178
-43.182
-42.191
-41.209
-40.242
-39.295
-38.373
-37.481
-36.626
-35.813
-35.05
-34.342
-33.691
-33.103
-32.581
-32.13
-31.756
-31.461
-31.243
-31.108
-31.066
-31.127
-31.301
-31.587
-31.968
-32.439
-33.016
-33.682
-34.397
-35.128
-35.838
-36.52
-37.212
-37.92
-38.584
-39.25
-40.086
-41.116
-42.276
-43.58
-44.817
-46.356
-49.294
-53.335
-57.469
-59.967
-57.653
-50.827
-42.624
-36.214
-36.094
-42.38
-50.839
-58.206
-60.91
-58.45
-53.995
-49.448
-46.157
-44.474
-43.104
-41.492
-39.679
-37.629
-35.548
-33.487
-31.281
-28.895
-26.374
-23.729
-20.973
-18.13
-15.232
-12.318
-9.44
-6.627
-3.885
-1.228
1.322
3.746
6.022
8.131
10.061
11.797
13.323
14.624
15.693
16.529
17.132
17.507
17.653
17.557
17.211
16.604
15.731
14.59
13.185
11.527
9.633
7.534
5.26
2.838
0.295
-2.344
-5.054
-7.805
-10.547
-13.228
-15.77
-18.071
-20.083
-21.808
-23.294
-24.668
-26.048
-27.499
-29.14
-31.139
-33.506
-36.14
-38.789
-40.983
-42.444
-43.167
-43.12
-42.278
-40.79
-38.856
-36.948
-35.865
-36.045
-37.519
-40.14
-43.545
-47.513
-51.905
-56.686
-62.207
-68.186
-74.026
-78.837
-80.022
-76.708
-70.207
-61.652
-54.565
-50.602
-46.519
-39.319
-23.65
7.207
56.036
126.628
222.095
340.4
477.932
626.115
769.948
894.032
982.864
1022.391
1005.388
930.323
800.891
629.378
433.944
236.233
59.639
-77.257
-165.194
-204.723
-203.731
-175.964
-136.12
-95.563
-65.148
-49.918
-47.52
-53.636
-59.778
-58.888
-50.934
-38.438
-26.145
-18.793
-16.965
-19.157
-23.509
-28.171
-32.472
-36.511
-40.274
-43.565
-46.056
-47.604
-48.265
-48.147
-47.494
-46.523
-45.413
-44.498
-44.138
-44.465
-45.457
-46.989
-48.823
-50.746
-52.606
-54.203
-55.32
-55.844
-55.728
-54.987
-53.699
-51.928
-49.714
-47.113
-44.187
-40.988
-37.573
-33.998
-30.304
-26.546
-22.767
-18.997
-15.26
-11.569
-7.926
-4.327
-0.759
2.792
6.34
9.892
13.455
17.036
20.644
24.293
27.993
31.756
35.592
39.508
43.512
47.609
51.801
56.086
60.462
64.924
69.467
74.089
78.785
83.551
88.38
93.267
98.202
103.178
108.182
113.203
118.225
123.233
128.211
133.141
138.006
142.787
147.464
152.017
156.426
160.67
164.728
168.58
172.205
175.583
178.695
181.521
184.044
186.248
188.116
189.636
190.794
191.579
191.982
191.996
191.615
190.834
189.651
188.067
186.082
183.7
180.927
177.769
174.236
170.34
166.094
161.512
156.612
151.411
145.929
140.187
134.208
128.014
121.63
115.081
108.392
101.59
94.702
87.754
80.772
73.783
66.813
59.887
53.031
46.268
39.622
33.114
26.766
20.599
14.63
8.877
3.357
-1.916
-6.929
-11.67
-16.13
-20.298
-24.17
-27.74
-31.005
-33.963
-36.614
-38.961
-41.005
-42.753
-44.209
-45.384
-46.284
-46.92
-47.305
-47.449
-47.368
-47.073
-46.581
-45.907
-45.066
-44.074
-42.949
-41.705
-40.36
-38.931
-37.433
-35.882
-34.295
-32.686
-31.071
-29.464
-27.878
-26.326
-24.821
-23.373
-21.994
-20.691
-19.474
-18.349
-17.324
-16.404
-15.592
-14.892
-14.307
-13.838
-13.485
-13.248
-13.126
-13.117
-13.219
-13.428
-13.741
-14.153
-14.66
-15.257
-15.938
-16.697
-17.529
-18.428
-19.386
-20.399
-21.459
-22.561
-23.699
-24.866
-26.058
-27.268
-28.493
-29.727
-30.966
-32.207
-33.446
-34.681
-35.908
-37.125
-38.332
-39.526
-40.705
-41.87
-43.019
-44.151
-45.266
-46.364
-47.443
-48.503
-49.545
-50.566
-51.568
-52.55
-53.51
-54.448
-55.364
-56.256
-57.123
-57.964
-58.776
-59.557
-60.306
-61.019
-61.695
-62.33
-62.921
-63.464
-63.956
-64.393
-64.77
-65.084
-65.331
-65.506
-65.606
-65.627
-65.567
-65.423
-65.192
-64.873
-64.465
-63.968
-63.381
-62.706
-61.944
-61.097
-60.169
-59.165
-58.09
-56.949
-55.75
-54.501
-53.214
-51.897
-50.564
-49.227
-47.899
-46.596
-45.333
-44.123
-42.98
-41.918
-40.949
-40.086
-39.343
-38.732
-38.264
-37.95
-37.801
-37.825
-38.028
-38.407
-38.96
-39.684
-40.576
-41.64
-42.881
-44.295
-45.884
-47.646
-49.576
-51.666
-53.9
-56.24
-58.653
-61.109
-63.582
-66.068
-68.552
-71.005
-73.395
-75.673
-77.791
-79.721
-81.407
-82.777
-83.822
-84.574
-85.13
-85.675
-86.33
-87.167
-88.306
-89.842
-91.746
-93.892
-95.999
-97.72
-98.883
-99.413
-99.145
-97.929
-95.77
-92.867
-89.66
-86.586
-83.81
-81.374
-79.509
-78.661
-79.157
-81.028
-84.074
-88.107
-93.128
-99.303
-105.885
-110.788
-111.976
-107.49
-96.723
-80.93
-60.649
-35.353
-2.692
41.297
100.413
176.903
269.726
375.83
489.001
599.875
698.521
772.327
808.809
799.468
739.499
631.406
485.67
317.874
148.035
-3.59
-121.045
-195.437
-227.704
-225.676
-201.413
-166.883
-128.921
-92.428
-59.517
-31.123
-10.817
0.358
2.653
-2.719
-11.355
-20.87
-30.445
-39.504
-49.023
-58.567
-66.528
-71.869
-73.638
-71.81
-67.27
-60.959
-53.863
-46.942
-40.987
-36.456
-33.492
-32.031
-31.827
-32.602
-34.121
-36.065
-38.07
-39.888
-41.352
-42.386
-43.016
-43.251
-43.076
-42.5
-41.55
-40.25
-38.643
-36.755
-34.597
-32.194
-29.58
-26.798
-23.904
-20.953
-17.993
-15.058
-12.171
-9.347
-6.596
-3.923
-1.325
1.212
3.707
6.177
8.635
11.094
13.57
16.078
18.637
21.265
23.974
26.777
29.682
32.697
35.827
39.078
42.448
45.938
49.543
53.26
57.085
61.013
65.037
69.151
73.343
77.604
81.922
86.284
90.673
95.073
99.466
103.832
108.15
112.401
116.561
120.609
124.523
128.28
131.858
135.235
138.39
141.303
143.954
146.325
148.399
150.16
151.594
152.69
153.436
153.824
153.847
153.501
152.782
151.691
150.231
148.405
146.219
143.679
140.795
137.578
134.043
130.204
126.078
121.684
117.044
112.179
107.117
101.881
96.497
90.987
85.374
79.686
73.948
68.191
62.443
56.731
51.08
45.515
40.062
34.744
29.581
24.586
19.772
15.15
10.734
6.541
2.589
-1.112
-4.563
-7.774
-10.761
-13.531
-16.08
-18.398
-20.484
-22.347
-24.005
-25.459
-26.673
-27.646
-28.434
-29.16
-29.963
-30.889
-31.858
-32.752
-33.544
-34.199
-34.59
-34.447
-33.434
-31.415
-28.582
-25.31
-21.849
-18.371
-15.102
-12.416
-10.81
-10.558
-11.49
-13.141
-15.147
-17.294
-19.406
-21.24
-22.415
-22.679
-22.124
-21.107
-19.933
-18.768
-17.689
-16.751
-16.103
-15.877
-16.05
-16.478
-17.021
-17.604
-18.218
-18.894
-19.627
-20.389
-21.174
-21.997
-22.88
-23.836
-24.857
-25.918
-26.999
-28.093
-29.197
-30.314
-31.446
-32.589
-33.742
-34.901
-36.066
-37.235
-38.41
-39.59
-40.775
-41.964
-43.159
-44.361
-45.572
-46.793
-48.023
-49.259
-50.498
-51.738
-52.979
-54.219
-55.458
-56.693
-57.922
-59.145
-60.358
-61.56
-62.749
-63.921
-65.074
-66.203
-67.306
-68.379
-69.42
-70.425
-71.39
-72.31
-73.182
-74.002
-74.764
-75.464
-76.097
-76.659
-77.146
-77.552
-77.876
-78.112
-78.257
-78.308
-78.261
-78.114
-77.864
-77.507
-77.042
-76.466
-75.777
-74.975
-74.06
-73.031
-71.889
-70.635
-69.272
-67.801
-66.227
-64.551
-62.778
-60.912
-58.96
-56.928
-54.823
-52.654
-50.43
-48.165
-45.871
-43.559
-41.244
-38.939
-36.657
-34.415
-32.227
-30.107
-28.067
-26.12
-24.282
-22.566
-20.988
-19.558
-18.286
-17.18
-16.25
-15.503
-14.95
-14.59
-14.422
-14.445
-14.66
-15.074
-15.696
-16.525
-17.56
-18.796
-20.227
-21.844
-23.633
-25.561
-27.593
-29.689
-31.806
-33.914
-35.988
-38.002
-39.932
-41.743
-43.386
-44.824
-46.017
-46.926
-47.553
-47.901
-47.97
-47.836
-47.62
-47.487
-47.695
-48.471
-49.887
-51.982
-54.794
-58.25
-62.248
-66.554
-70.617
-73.868
-76.012
-76.878
-76.391
-74.633
-71.641
-67.629
-63.385
-59.888
-57.939
-58.227
-61.171
-66.986
-75.472
-85.506
-95.257
-102.257
-105.24
-104.911
-101.571
-95.039
-82.182
-55.905
-10.607
57.521
148.458
256.323
375.176
497.688
615.454
721.072
803.515
851.942
857.807
814.665
723.934
593.056
434.159
265.318
105.06
-31.033
-130.824
-190.261
-212.878
-204.042
-172.691
-129.201
-81.55
-39.885
-12.748
-2.238
-7.636
-23.603
-40.754
-53.44
-59.138
-57.203
-52.29
-49.04
-49.133
-53.985
-61.53
-67.896
-71.702
-72.153
-69.616
-65.904
-61.851
-57.813
-54.34
-51.718
-50.146
-49.826
-50.696
-52.507
-55.077
-58.218
-61.644
-65.034
-68.129
-70.762
-72.87
-74.473
-75.578
-76.173
-76.268
-75.899
-75.112
-73.95
-72.441
-70.604
-68.463
-66.065
-63.468
-60.734
-57.922
-55.07
-52.204
-49.338
-46.482
-43.639
-40.805
-37.972
-35.12
-32.238
-29.317
-26.347
-23.323
-20.234
-17.068
-13.811
-10.453
-6.987
-3.409
0.284
4.092
8.014
12.044
16.177
20.404
24.716
29.106
33.566
38.086
42.657
47.267
51.904
56.555
61.205
65.841
70.444
74.997
79.483
83.883
88.177
92.348
96.376
100.241
103.925
107.408
110.673
113.702
116.476
118.98
121.198
123.116
124.72
125.998
126.941
127.541
127.79
127.683
127.218
126.392
125.207
123.665
121.77
119.528
116.947
114.035
110.805
107.27
103.442
99.34
94.98
90.379
85.559
80.539
75.339
69.983
64.492
58.889
53.196
47.437
41.635
35.813
29.993
24.197
18.448
12.766
7.171
1.682
-3.682
-8.906
-13.972
-18.868
-23.579
-28.095
-32.405
-36.501
-40.376
-44.024
-47.441
-50.624
-53.571
-56.282
-58.759
-61.004
-63.019
-64.81
-66.381
-67.74
-68.892
-69.846
-70.61
-71.194
-71.606
-71.857
-71.958
-71.918
-71.75
-71.464
-71.07
-70.581
-70.008
-69.36
-68.648
-67.883
-67.074
-66.23
-65.359
-64.47
-63.57
-62.666
-61.765
-60.872
-59.992
-59.13
-58.291
-57.477
-56.691
-55.937
-55.216
-54.53
-53.88
-53.268
-52.694
-52.159
-51.663
-51.206
-50.788
-50.407
-50.064
-49.757
-49.486
-49.249
-49.045
-48.873
-48.733
-48.623
-48.542
-48.49
-48.466
-48.469
-48.499
-48.555
-48.638
-48.748
-48.883
-49.045
-49.234
-49.451
-49.694
-49.966
-50.265
-50.593
-50.951
-51.337
-51.752
-52.197
-52.67
-53.173
-53.705
-54.264
-54.851
-55.466
-56.106
-56.771
-57.46
-58.171
-58.902
-59.651
-60.415
-61.192
-61.978
-62.77
-63.564
-64.356
-65.143
-65.918
-66.679
-67.419
-68.135
-68.821
-69.471
-70.081
-70.645
-71.159
-71.615
-72.009
-72.336
-72.59
-72.766
-72.86
-72.866
-72.781
-72.599
-72.317
-71.931
-71.438
-70.834
-70.117
-69.285
-68.336
-67.27
-66.087
-64.789
-63.375
-61.851
-60.218
-58.481
-56.645
-54.716
-52.698
-50.599
-48.426
-46.189
-43.895
-41.556
-39.183
-36.79
-34.391
-32
-29.631
-27.301
-25.024
-22.819
-20.701
-18.686
-16.788
-15.025
-13.411
-11.964
-10.698
-9.626
-8.757
-8.101
-7.664
-7.453
-7.473
-7.721
-8.193
-8.885
-9.794
-10.924
-12.274
-13.838
-15.607
-17.573
-19.727
-22.056
-24.544
-27.159
-29.87
-32.645
-35.445
-38.245
-41.016
-43.725
-46.346
-48.841
-51.168
-53.293
-55.176
-56.788
-58.128
-59.187
-59.954
-60.478
-60.844
-61.209
-61.794
-62.749
-64.149
-66.09
-68.658
-71.874
-75.635
-79.542
-83.04
-85.745
-87.308
-87.31
-85.388
-81.201
-75.228
-69.103
-64.317
-61.453
-59.273
-55.41
-49.197
-43.147
-42.551
-52.049
-72.38
-98.751
-122.726
-138.069
-142.034
-135.535
-120.667
-94.719
-51.609
15.629
111.905
234.812
375.541
521.47
658.311
773.484
857.011
900.708
897.959
844.205
738.636
586.886
403.261
209.991
31.95
-108.738
-199.263
-240.005
-239.692
-212.643
-173.583
-131.832
-95.014
-68.036
-52.618
-50.316
-58.971
-73.131
-87.042
-94.908
-93.652
-84.789
-72.826
-63.226
-60.063
-63.877
-71.861
-79.991
-85.408
-87.256
-86.381
-84.327
-81.824
-79.054
-76.23
-73.568
-71.591
-70.714
-70.929
-72.098
-74.035
-76.522
-79.347
-82.228
-84.816
-86.897
-88.395
-89.296
-89.646
-89.472
-88.781
-87.621
-86.053
-84.128
-81.889
-79.368
-76.595
-73.621
-70.511
-67.331
-64.133
-60.947
-57.789
-54.669
-51.588
-48.539
-45.513
-42.488
-39.45
-36.389
-33.294
-30.157
-26.966
-23.706
-20.363
-16.921
-13.368
-9.695
-5.896
-1.967
2.094
6.283
10.598
15.032
19.578
24.234
28.991
33.845
38.787
43.809
48.901
54.051
59.245
64.47
69.708
74.941
80.151
85.319
90.423
95.444
100.359
105.148
109.788
114.259
118.538
122.604
126.437
130.016
133.323
136.34
139.05
141.438
143.491
145.196
146.544
147.527
148.139
148.373
148.229
147.704
146.8
145.52
143.868
141.851
139.478
136.759
133.708
130.339
126.668
122.712
118.491
114.025
109.335
104.444
99.375
94.151
88.797
83.336
77.795
72.196
66.564
60.924
55.297
49.705
44.171
38.715
33.354
28.108
22.993
18.024
13.216
8.582
4.132
-0.123
-4.175
-8.016
-11.642
-15.047
-18.23
-21.188
-23.922
-26.434
-28.725
-30.8
-32.663
-34.321
-35.779
-37.046
-38.13
-39.04
-39.785
-40.375
-40.82
-41.13
-41.314
-41.383
-41.347
-41.214
-40.995
-40.698
-40.331
-39.903
-39.421
-38.893
-38.324
-37.722
-37.091
-36.437
-35.765
-35.077
-34.378
-33.67
-32.956
-32.237
-31.515
-30.79
-30.063
-29.334
-28.604
-27.87
-27.133
-26.391
-25.643
-24.889
-24.128
-23.357
-22.577
-21.787
-20.986
-20.174
-19.351
-18.517
-17.673
-16.82
-15.959
-15.09
-14.216
-13.339
-12.461
-11.584
-10.711
-9.845
-8.988
-8.145
-7.318
-6.512
-5.731
-4.977
-4.256
-3.572
-2.929
-2.329
-1.779
-1.281
-0.838
-0.456
-0.136
0.118
0.304
0.419
0.462
0.431
0.325
0.145
-0.11
-0.439
-0.84
-1.313
-1.855
-2.463
-3.135
-3.866
-4.654
-5.492
-6.377
-7.303
-8.264
-9.253
-10.264
-11.288
-12.319
-13.348
-14.368
-15.37
-16.347
-17.29
-18.19
-19.04
-19.831
-20.555
-21.204
-21.769
-22.245
-22.623
-22.899
-23.067
-23.123
-23.062
-22.881
-22.577
-22.15
-21.597
-20.918
-20.113
-19.185
-18.137
-16.972
-15.697
-14.318
-12.843
-11.285
-9.655
-7.964
-6.227
-4.457
-2.671
-0.884
0.885
2.621
4.307
5.926
7.459
8.89
10.199
11.371
12.392
13.249
13.929
14.418
14.705
14.781
14.644
14.29
13.716
12.913
11.872
10.589
9.066
7.305
5.315
3.107
0.696
-1.885
-4.602
-7.415
-10.28
-13.166
-16.048
-18.9
-21.698
-24.405
-26.967
-29.342
-31.485
-33.354
-34.949
-36.272
-37.324
-38.188
-38.974
-39.826
-40.984
-42.638
-44.843
-47.648
-51.065
-54.978
-59.333
-63.975
-68.447
-72.34
-75.385
-77.332
-78.135
-77.907
-76.519
-73.985
-70.796
-67.503
-64.724
-63.164
-63.177
-64.889
-68.794
-74.698
-81.184
-86.634
-88.91
-87.168
-82.749
-76.393
-67.536
-51.823
-21.656
29.114
104.289
201.078
311.724
428.612
542.774
648.542
741.636
814.098
858.502
865.467
826.143
739.329
609.012
447.264
274.493
110.891
-24.374
-118.392
-170.711
-186.337
-175.555
-151.9
-123.628
-98.843
-83.945
-78.525
-81.519
-88.19
-91.132
-88.603
-81.37
-72.423
-67.006
-66.689
-70.395
-76.517
-82.766
-87.971
-92.133
-95.174
-96.924
-97.415
-96.8
-95.316
-93.283
-91.053
-88.868
-87.036
-85.995
-85.901
-86.712
-88.348
-90.592
-93.225
-96.078
-98.887
-101.369
-103.379
-104.845
-105.747
-106.134
-106.03
-105.45
-104.452
-103.098
-101.438
-99.518
-97.367
-95.017
-92.518
-89.928
-87.308
-84.704
-82.14
-79.629
-77.176
-74.78
-72.435
-70.125
-67.829
-65.529
-63.21
-60.858
-58.463
-56.011
-53.482
-50.861
-48.129
-45.272
-42.278
-39.139
-35.849
-32.404
-28.803
-25.049
-21.145
-17.096
-12.905
-8.578
-4.119
0.463
5.16
9.961
14.854
19.825
24.858
29.934
35.035
40.14
45.227
50.276
55.263
60.165
64.957
69.616
74.118
78.439
82.555
86.443
90.081
93.447
96.521
99.284
101.719
103.81
105.543
106.906
107.889
108.485
108.685
108.488
107.89
106.891
105.494
103.704
101.525
98.968
96.042
92.759
89.135
85.186
80.929
76.383
71.569
66.51
61.227
55.744
50.086
44.278
38.345
32.313
26.207
20.053
13.875
7.699
1.548
-4.556
-10.589
-16.532
-22.364
-28.067
-33.624
-39.018
-44.236
-49.265
-54.093
-58.71
-63.108
-67.279
-71.219
-74.924
-78.39
-81.618
-84.607
-87.359
-89.876
-92.164
-94.228
-96.073
-97.707
-99.139
-100.378
-101.432
-102.313
-103.031
-103.597
-104.022
-104.318
-104.496
-104.566
-104.541
-104.429
-104.243
-103.992
-103.684
-103.33
-102.937
-102.514
-102.067
-101.602
-101.127
-100.645
-100.161
-99.68
-99.204
-98.736
-98.278
-97.83
-97.393
-96.967
-96.551
-96.145
-95.745
-95.35
-94.956
-94.562
-94.163
-93.756
-93.337
-92.903
-92.449
-91.972
-91.468
-90.933
-90.363
-89.756
-89.107
-88.413
-87.673
-86.883
-86.042
-85.147
-84.196
-83.189
-82.125
-81.002
-79.821
-78.58
-77.281
-75.924
-74.51
-73.04
-71.515
-69.938
-68.309
-66.632
-64.907
-63.137
-61.325
-59.471
-57.578
-55.647
-53.68
-51.678
-49.642
-47.575
-45.476
-43.346
-41.185
-38.993
-36.771
-34.517
-32.23
-29.91
-27.555
-25.163
-22.733
-20.264
-17.754
-15.202
-12.604
-9.96
-7.267
-4.524
-1.728
1.123
4.03
6.995
10.017
13.097
16.234
19.428
22.675
25.973
29.319
32.708
36.136
39.598
43.086
46.592
50.109
53.626
57.132
60.613
64.055
67.442
70.76
73.99
77.116
80.12
82.982
85.683
88.208
90.538
92.653
94.536
96.169
97.533
98.616
99.406
99.891
100.061
99.907
99.424
98.615
97.484
96.035
94.271
92.189
89.792
87.091
84.097
80.821
77.279
73.485
69.462
65.254
60.903
56.457
51.955
47.422
42.885
38.37
33.914
29.571
25.386
21.393
17.634
14.135
10.936
8.093
5.579
3.292
1.083
-1.278
-3.985
-7.136
-10.879
-15.363
-20.569
-26.389
-32.5
-38.279
-43.186
-46.807
-48.658
-48.367
-45.804
-40.946
-34.213
-26.564
-18.98
-12.492
-8.184
-7.026
-9.789
-16.996
-28.702
-43.686
-59.501
-73.36
-82.151
-84.267
-80.441
-71.109
-55.811
-31.213
9.203
71.823
160.644
274.411
407.755
551.267
692.934
821.381
922.757
984.502
997.335
954.2
856.507
712.203
534.412
342.487
156.257
-5.504
-127.569
-202.456
-230.331
-218.949
-181.885
-134.827
-91.836
-62.713
-50.782
-52.379
-60.338
-66.691
-66.017
-58.494
-47.495
-37.432
-32.063
-31.816
-35.092
-40.097
-45.108
-49.593
-53.762
-57.613
-61.006
-63.652
-65.369
-66.203
-66.338
-65.974
-65.283
-64.479
-63.844
-63.711
-64.241
-65.398
-67.054
-69.005
-71.05
-73.036
-74.786
-76.096
-76.855
-77.034
-76.645
-75.758
-74.437
-72.72
-70.659
-68.315
-65.73
-62.955
-60.036
-57.006
-53.91
-50.783
-47.647
-44.517
-41.4
-38.289
-35.177
-32.047
-28.878
-25.654
-22.363
-18.992
-15.53
-11.965
-8.28
-4.461
-0.493
3.635
7.933
12.411
17.074
21.925
26.962
32.183
37.582
43.153
48.892
54.791
60.843
67.038
73.367
79.815
86.37
93.016
99.735
106.507
113.31
120.124
126.925
133.69
140.395
147.015
153.524
159.899
166.113
172.142
177.962
183.547
188.876
193.924
198.671
203.098
207.185
210.915
214.274
217.249
219.828
222.003
223.767
225.114
226.041
226.548
226.635
226.306
225.565
224.421
222.881
220.957
218.661
216.009
213.015
209.696
206.072
202.161
197.983
193.559
188.91
184.058
179.026
173.834
168.505
163.062
157.526
151.918
146.258
140.566
134.862
129.162
123.483
117.84
112.249
106.723
101.272
95.908
90.641
85.478
80.428
75.495
70.684
66
61.444
57.019
52.725
48.562
44.53
40.626
36.85
33.197
29.666
26.253
22.954
19.766
16.685
13.706
10.826
8.039
5.344
2.735
0.21
-2.234
-4.601
-6.891
-9.107
-11.25
-13.322
-15.322
-17.25
-19.106
-20.89
-22.601
-24.237
-25.797
-27.279
-28.682
-30.003
-31.242
-32.396
-33.464
-34.445
-35.337
-36.141
-36.856
-37.481
-38.018
-38.468
-38.831
-39.11
-39.308
-39.427
-39.471
-39.444
-39.35
-39.195
-38.985
-38.725
-38.422
-38.085
-37.719
-37.333
-36.937
-36.537
-36.144
-35.765
-35.411
-35.09
-34.811
-34.583
-34.416
-34.316
-34.293
-34.353
-34.505
-34.753
-35.103
-35.56
-36.128
-36.809
-37.606
-38.519
-39.549
-40.695
-41.955
-43.327
-44.807
-46.39
-48.072
-49.846
-51.705
-53.642
-55.647
-57.712
-59.826
-61.979
-64.16
-66.357
-68.559
-70.754
-72.929
-75.071
-77.169
-79.21
-81.181
-83.071
-84.867
-86.56
-88.137
-89.592
-90.915
-92.099
-93.139
-94.028
-94.765
-95.345
-95.768
-96.033
-96.141
-96.095
-95.898
-95.558
-95.081
-94.475
-93.751
-92.922
-92.002
-91.007
-89.952
-88.858
-87.744
-86.63
-85.538
-84.489
-83.504
-82.605
-81.811
-81.141
-80.615
-80.25
-80.062
-80.068
-80.281
-80.71
-81.363
-82.237
-83.333
-84.646
-86.175
-87.921
-89.884
-92.061
-94.45
-97.05
-99.856
-102.86
-106.04
-109.359
-112.781
-116.272
-119.807
-123.379
-126.971
-130.553
-134.085
-137.519
-140.807
-143.918
-146.795
-149.346
-151.53
-153.367
-154.968
-156.547
-158.288
-160.303
-162.715
-165.696
-169.323
-173.502
-177.949
-182.149
-185.616
-188.074
-189.244
-188.732
-186.279
-181.912
-175.965
-169.177
-162.374
-156.078
-150.922
-147.864
-147.742
-151.174
-158.467
-169.283
-183.077
-199.023
-215.076
-228.311
-235.514
-234.644
-226.028
-211.095
-190.698
-162.338
-120.024
-56.31
34.699
153.073
293.521
444.866
592.765
724.228
826.45
890.68
911.019
882.266
803.608
676.66
509.118
317.188
121.774
-54.03
-191.684
-282.57
-328.595
-337.745
-320.756
-289.003
-250.108
-212.988
-186.738
-173.445
-173.379
-181.258
-185.845
-182.986
-171.83
-154.274
-138.876
-129.658
-126.929
-130.903
-137.601
-144.322
-150.66
-155.536
-159.173
-161.836
-163.166
-163.314
-162.433
-160.725
-158.613
-156.479
-154.731
-153.774
-153.761
-154.641
-156.246
-158.3
-160.53
-162.723
-164.65
-166.086
-166.922
-167.123
-166.706
-165.749
-164.315
-162.447
-160.199
-157.632
-154.787
-151.718
-148.474
-145.096
-141.637
-138.139
-134.627
-131.12
-127.625
-124.137
-120.646
-117.138
-113.591
-109.988
-106.318
-102.571
-98.738
-94.807
-90.764
-86.595
-82.286
-77.827
-73.209
-68.426
-63.472
-58.35
-53.062
-47.615
-42.019
-36.28
-30.407
-24.409
-18.296
-12.079
-5.771
0.614
7.062
13.555
20.073
26.598
33.106
39.576
45.986
52.311
58.528
64.613
70.543
76.292
81.839
87.159
92.231
97.031
101.54
105.738
109.606
113.126
116.285
119.067
121.462
123.46
125.054
126.238
127.01
127.368
127.312
126.847
125.977
124.709
123.052
121.018
118.618
115.868
112.785
109.386
105.691
101.721
97.496
93.041
88.378
83.53
78.523
73.381
68.129
62.791
57.391
51.955
46.505
41.065
35.656
30.3
25.017
19.825
14.743
9.785
4.968
0.304
-4.194
-8.517
-12.653
-16.597
-20.341
-23.88
-27.211
-30.331
-33.239
-35.935
-38.421
-40.698
-42.77
-44.641
-46.316
-47.8
-49.1
-50.222
-51.175
-51.965
-52.6
-53.088
-53.438
-53.659
-53.757
-53.741
-53.62
-53.4
-53.089
-52.694
-52.221
-51.675
-51.064
-50.391
-49.662
-48.88
-48.05
-47.176
-46.259
-45.304
-44.312
-43.286
-42.228
-41.139
-40.021
-38.875
-37.702
-36.503
-35.281
-34.035
-32.767
-31.479
-30.172
-28.848
-27.508
-26.154
-24.79
-23.416
-22.037
-20.654
-19.272
-17.894
-16.523
-15.164
-13.822
-12.5
-11.204
-9.938
-8.707
-7.517
-6.371
-5.276
-4.236
-3.256
-2.34
-1.493
-0.719
-0.022
0.594
1.127
1.573
1.93
2.197
2.372
2.455
2.446
2.346
2.157
1.88
1.518
1.075
0.556
-0.036
-0.695
-1.414
-2.188
-3.008
-3.868
-4.759
-5.673
-6.6
-7.531
-8.456
-9.366
-10.25
-11.099
-11.903
-12.652
-13.335
-13.943
-14.468
-14.898
-15.227
-15.445
-15.545
-15.52
-15.364
-15.073
-14.643
-14.068
-13.349
-12.483
-11.47
-10.311
-9.009
-7.567
-5.989
-4.283
-2.454
-0.512
1.535
3.675
5.893
8.174
10.502
12.858
15.222
17.575
19.894
22.157
24.345
26.442
28.428
30.288
32
33.547
34.91
36.072
37.021
37.745
38.232
38.478
38.482
38.248
37.78
37.081
36.141
34.95
33.499
31.786
29.808
27.575
25.1
22.402
19.516
16.473
13.299
10.021
6.66
3.243
-0.196
-3.612
-6.955
-10.152
-13.104
-15.755
-18.096
-20.187
-22.182
-24.225
-26.406
-28.824
-31.613
-34.829
-38.413
-42.13
-45.476
-48.039
-49.722
-50.536
-50.518
-49.726
-48.209
-46.308
-44.88
-44.624
-45.618
-47.64
-50.271
-53.767
-59.197
-66.908
-76.107
-84.44
-88.977
-88.948
-85.737
-82.364
-81.938
-84.6
-88.405
-90.157
-85.768
-72.336
-45.59
-0.511
66.203
157.368
269.882
396.537
530.595
662.508
785.334
892.66
973.236
1016.531
1011.596
950.115
833.125
669.105
474.461
271.857
84.131
-68.837
-174.165
-228.661
-236.656
-209.008
-160.695
-106.452
-60.688
-33.292
-25.403
-32.617
-45.177
-52.67
-51.827
-44.133
-34.333
-28.628
-28.684
-33.022
-39.577
-45.687
-50.388
-54.042
-56.814
-58.825
-60.014
-60.322
-59.885
-58.938
-57.697
-56.319
-54.986
-53.982
-53.626
-54.045
-55.205
-56.967
-59.118
-61.471
-63.845
-66.026
-67.787
-68.994
-69.601
-69.617
-69.102
-68.108
-66.676
-64.861
-62.724
-60.32
-57.693
-54.889
-51.945
-48.908
-45.834
-42.762
-39.72
-36.725
-33.779
-30.88
-28.019
-25.182
-22.348
-19.503
-16.633
-13.727
-10.775
-7.763
-4.677
-1.504
1.769
5.155
8.663
12.301
16.071
19.975
24.012
28.178
32.468
36.877
41.399
46.029
50.76
55.584
60.489
65.466
70.502
75.581
80.688
85.805
90.912
95.991
101.021
105.98
110.847
115.6
120.217
124.674
128.95
133.021
136.868
140.468
143.802
146.851
149.596
152.023
154.115
155.86
157.246
158.264
158.905
159.163
159.034
158.515
157.607
156.311
154.631
152.571
150.14
147.347
144.202
140.719
136.911
132.796
128.39
123.712
118.781
113.619
108.247
102.688
96.963
91.098
85.114
79.035
72.885
66.687
60.462
54.234
48.022
41.849
35.734
29.695
23.751
17.918
12.213
6.65
1.242
-3.999
-9.061
-13.935
-18.612
-23.086
-27.35
-31.399
-35.23
-38.839
-42.226
-45.39
-48.332
-51.054
-53.558
-55.848
-57.928
-59.804
-61.481
-62.966
-64.265
-65.385
-66.334
-67.119
-67.748
-68.231
-68.574
-68.787
-68.878
-68.855
-68.727
-68.502
-68.189
-67.794
-67.325
-66.791
-66.198
-65.554
-64.865
-64.138
-63.38
-62.597
-61.794
-60.977
-60.151
-59.322
-58.492
-57.668
-56.852
-56.049
-55.261
-54.493
-53.746
-53.024
-52.33
-51.666
-51.033
-50.433
-49.869
-49.341
-48.85
-48.399
-47.988
-47.618
-47.289
-47.004
-46.762
-46.563
-46.409
-46.299
-46.234
-46.212
-46.234
-46.3
-46.408
-46.56
-46.754
-46.989
-47.265
-47.581
-47.936
-48.328
-48.757
-49.22
-49.717
-50.245
-50.803
-51.39
-52.002
-52.639
-53.297
-53.974
-54.667
-55.372
-56.087
-56.807
-57.529
-58.247
-58.959
-59.659
-60.342
-61.005
-61.641
-62.245
-62.811
-63.335
-63.809
-64.228
-64.585
-64.873
-65.087
-65.22
-65.266
-65.219
-65.073
-64.823
-64.461
-63.984
-63.385
-62.659
-61.801
-60.808
-59.675
-58.401
-56.984
-55.422
-53.716
-51.867
-49.875
-47.745
-45.478
-43.079
-40.553
-37.907
-35.149
-32.287
-29.332
-26.297
-23.195
-20.045
-16.861
-13.661
-10.464
-7.288
-4.153
-1.08
1.914
4.808
7.583
10.219
12.695
14.989
17.085
18.964
20.612
22.016
23.164
24.045
24.654
24.987
25.041
24.812
24.289
23.466
22.343
20.921
19.206
17.209
14.945
12.437
9.724
6.845
3.843
0.759
-2.372
-5.506
-8.599
-11.603
-14.472
-17.162
-19.63
-21.831
-23.722
-25.277
-26.526
-27.517
-28.298
-28.954
-29.604
-30.398
-31.569
-33.314
-35.657
-38.64
-42.335
-46.669
-51.545
-56.701
-61.57
-65.716
-68.934
-70.883
-71.214
-69.792
-66.915
-63.668
-61.367
-60.586
-60.05
-57.687
-52.936
-47.014
-43.826
-47.535
-58.34
-73.759
-89.291
-99.326
-100.886
-91.443
-66.33
-21.783
46.423
141.018
258.303
393.179
538.075
682.695
818.733
934.188
1015.619
1050.641
1026.994
941.302
798.921
613.703
409.25
209.772
36.76
-93.783
-177.441
-218.225
-224.193
-207.423
-178.833
-145.82
-117.058
-98.246
-90.087
-92.077
-98.351
-101.665
-100.279
-94.578
-87.791
-84.922
-86.857
-92.186
-99.304
-105.888
-110.96
-114.774
-117.257
-118.302
-118.109
-116.911
-114.926
-112.528
-110.037
-107.639
-105.7
-104.67
-104.68
-105.691
-107.6
-110.141
-113.08
-116.228
-119.284
-121.944
-124.048
-125.505
-126.303
-126.5
-126.129
-125.217
-123.83
-122.033
-119.884
-117.435
-114.724
-111.789
-108.687
-105.481
-102.237
-99.004
-95.809
-92.666
-89.582
-86.549
-83.559
-80.596
-77.634
-74.655
-71.643
-68.582
-65.46
-62.261
-58.966
-55.558
-52.019
-48.334
-44.492
-40.486
-36.311
-31.965
-27.449
-22.766
-17.923
-12.925
-7.778
-2.489
2.934
8.483
14.144
19.906
25.754
31.67
37.636
43.631
49.633
55.619
61.563
67.442
73.229
78.898
84.421
89.772
94.923
99.848
104.521
108.917
113.01
116.778
120.2
123.256
125.927
128.198
130.054
131.484
132.478
133.03
133.133
132.787
131.99
130.745
129.057
126.932
124.38
121.412
118.043
114.288
110.166
105.696
100.901
95.803
90.427
84.799
78.947
72.897
66.679
60.321
53.852
47.301
40.697
34.069
27.445
20.85
14.312
7.855
1.502
-4.723
-10.802
-16.713
-22.44
-27.967
-33.28
-38.366
-43.215
-47.817
-52.166
-56.255
-60.081
-63.642
-66.937
-69.966
-72.733
-75.24
-77.493
-79.497
-81.26
-82.79
-84.097
-85.19
-86.081
-86.779
-87.297
-87.647
-87.84
-87.89
-87.806
-87.603
-87.29
-86.88
-86.383
-85.809
-85.169
-84.471
-83.723
-82.935
-82.112
-81.261
-80.388
-79.499
-78.597
-77.687
-76.772
-75.854
-74.936
-74.019
-73.104
-72.193
-71.285
-70.379
-69.476
-68.575
-67.675
-66.773
-65.87
-64.963
-64.051
-63.132
-62.206
-61.271
-60.326
-59.37
-58.402
-57.423
-56.432
-55.43
-54.417
-53.395
-52.365
-51.329
-50.29
-49.25
-48.212
-47.18
-46.156
-45.145
-44.15
-43.176
-42.226
-41.305
-40.418
-39.569
-38.762
-38.003
-37.296
-36.644
-36.053
-35.525
-35.065
-34.675
-34.36
-34.121
-33.96
-33.881
-33.883
-33.969
-34.138
-34.389
-34.721
-35.134
-35.623
-36.186
-36.819
-37.517
-38.275
-39.088
-39.948
-40.851
-41.787
-42.749
-43.729
-44.718
-45.706
-46.684
-47.641
-48.567
-49.451
-50.282
-51.052
-51.748
-52.36
-52.88
-53.296
-53.599
-53.781
-53.832
-53.743
-53.507
-53.117
-52.569
-51.857
-50.977
-49.928
-48.709
-47.318
-45.758
-44.03
-42.138
-40.086
-37.88
-35.528
-33.038
-30.42
-27.688
-24.855
-21.937
-18.952
-15.919
-12.86
-9.796
-6.75
-3.744
-0.804
2.049
4.793
7.404
9.864
12.15
14.241
16.119
17.767
19.166
20.303
21.167
21.749
22.051
22.075
21.822
21.294
20.485
19.391
18.015
16.357
14.416
12.199
9.715
6.988
4.065
0.988
-2.202
-5.471
-8.808
-12.186
-15.566
-18.9
-22.13
-25.204
-28.091
-30.732
-33.033
-34.961
-36.551
-37.922
-39.292
-40.844
-42.677
-44.913
-47.741
-51.236
-55.298
-59.673
-63.921
-67.643
-70.654
-72.742
-73.489
-72.648
-70.354
-66.808
-62.421
-57.815
-53.19
-49.366
-48.286
-50.646
-56.229
-63.929
-70.819
-76.355
-82.079
-89.296
-99.703
-111.911
-122.477
-128.251
-125.313
-110.173
-78.104
-23.268
58.889
170.634
309.099
466.442
631.134
788.115
921.579
1017.139
1062.937
1052.438
985.014
864.949
702.181
511.919
313.595
128.522
-23.584
-129.831
-188.349
-204.727
-191.056
-162.457
-129.398
-101.515
-85.126
-79.135
-81.565
-86.754
-87.437
-82.717
-74.063
-64.945
-60.514
-61.79
-67.227
-74.972
-82.621
-88.938
-93.858
-97.222
-98.851
-98.86
-97.514
-95.124
-92.074
-88.792
-85.598
-82.89
-81.173
-80.619
-81.168
-82.703
-84.979
-87.749
-90.821
-93.907
-96.66
-98.891
-100.509
-101.48
-101.861
-101.679
-100.94
-99.697
-98.016
-95.955
-93.569
-90.9
-87.974
-84.841
-81.561
-78.196
-74.807
-71.434
-68.095
-64.801
-61.552
-58.342
-55.162
-51.996
-48.821
-45.617
-42.368
-39.059
-35.678
-32.208
-28.633
-24.933
-21.093
-17.099
-12.944
-8.621
-4.129
0.535
5.367
10.365
15.52
20.826
26.275
31.859
37.569
43.394
49.32
55.332
61.414
67.547
73.711
79.885
86.045
92.166
98.223
104.189
110.039
115.745
121.28
126.617
131.728
136.587
141.17
145.45
149.404
153.009
156.246
159.094
161.538
163.561
165.15
166.297
166.991
167.227
167.002
166.315
165.166
163.56
161.502
159
156.066
152.711
148.952
144.805
140.29
135.428
130.242
124.756
118.995
112.987
106.759
100.339
93.756
87.039
80.217
73.32
66.375
59.413
52.46
45.543
38.689
31.921
25.265
18.742
12.372
6.176
0.171
-5.627
-11.204
-16.545
-21.64
-26.48
-31.055
-35.36
-39.39
-43.142
-46.614
-49.806
-52.72
-55.359
-57.726
-59.827
-61.669
-63.259
-64.605
-65.717
-66.604
-67.276
-67.746
-68.023
-68.12
-68.049
-67.821
-67.449
-66.943
-66.317
-65.582
-64.747
-63.826
-62.827
-61.761
-60.638
-59.466
-58.256
-57.015
-55.751
-54.471
-53.183
-51.892
-50.603
-49.323
-48.054
-46.802
-45.568
-44.356
-43.168
-42.006
-40.871
-39.764
-38.686
-37.638
-36.619
-35.628
-34.666
-33.732
-32.823
-31.939
-31.079
-30.241
-29.423
-28.624
-27.843
-27.079
-26.329
-25.592
-24.866
-24.15
-23.442
-22.742
-22.046
-21.356
-20.67
-19.989
-19.312
-18.641
-17.976
-17.318
-16.67
-16.031
-15.403
-14.789
-14.189
-13.605
-13.04
-12.496
-11.977
-11.484
-11.022
-10.593
-10.201
-9.85
-9.542
-9.28
-9.068
-8.909
-8.804
-8.758
-8.773
-8.853
-8.999
-9.214
-9.498
-9.853
-10.279
-10.773
-11.334
-11.959
-12.644
-13.383
-14.172
-15.006
-15.879
-16.788
-17.726
-18.689
-19.671
-20.666
-21.668
-22.668
-23.655
-24.619
-25.547
-26.427
-27.246
-27.992
-28.654
-29.221
-29.684
-30.037
-30.27
-30.373
-30.334
-30.138
-29.773
-29.234
-28.518
-27.631
-26.584
-25.395
-24.084
-22.676
-21.187
-19.631
-18.008
-16.309
-14.527
-12.65
-10.681
-8.636
-6.529
-4.372
-2.175
0.058
2.335
4.673
7.099
9.65
12.343
15.179
18.131
21.144
24.153
27.075
29.846
32.424
34.769
36.85
38.64
40.113
41.23
41.941
42.175
41.845
40.887
39.259
36.956
34.014
30.497
26.509
22.149
17.502
12.642
7.618
2.478
-2.726
-7.929
-13.052
-17.986
-22.62
-26.831
-30.482
-33.507
-35.906
-37.777
-39.349
-40.832
-42.364
-44.119
-46.264
-48.881
-51.98
-55.321
-58.434
-60.968
-62.684
-63.381
-62.878
-60.954
-57.465
-52.708
-47.308
-41.815
-36.759
-32.53
-29.616
-28.851
-30.963
-36.311
-44.945
-56.657
-71.165
-87.581
-103.588
-116.18
-122.186
-120.162
-111.431
-97.298
-77.748
-49.137
-4.232
64.441
161.898
287.54
436.195
597.047
755.551
897.368
1005.849
1068.113
1076.752
1027.3
923.837
775.236
593.715
397.628
206.263
38.474
-89.861
-171.215
-206.611
-204.267
-177.235
-139.506
-102.519
-74.659
-60.03
-57.042
-61.365
-66.719
-67.265
-62.118
-53.337
-44.503
-39.663
-39.593
-42.875
-47.858
-52.68
-56.711
-60.238
-63.347
-66.016
-68.077
-69.431
-70.176
-70.496
-70.572
-70.547
-70.581
-70.927
-71.902
-73.623
-76.023
-78.952
-82.174
-85.469
-88.676
-91.599
-94.013
-95.798
-96.916
-97.371
-97.238
-96.583
-95.441
-93.872
-91.94
-89.695
-87.197
-84.503
-81.654
-78.706
-75.701
-72.667
-69.624
-66.581
-63.533
-60.472
-57.383
-54.241
-51.03
-47.739
-44.354
-40.866
-37.263
-33.53
-29.652
-25.617
-21.412
-17.031
-12.465
-7.71
-2.767
2.361
7.668
13.146
18.786
24.581
30.521
36.598
42.798
49.109
55.516
62.002
68.548
75.135
81.738
88.333
94.896
101.4
107.818
114.124
120.29
126.287
132.089
137.666
142.992
148.04
152.784
157.198
161.258
164.942
168.227
171.097
173.531
175.516
177.039
178.089
178.656
178.736
178.324
177.419
176.023
174.139
171.773
168.933
165.632
161.884
157.704
153.11
148.125
142.77
137.068
131.047
124.733
118.153
111.338
104.316
97.118
89.775
82.318
74.777
67.184
59.568
51.959
44.386
36.877
29.457
22.153
14.988
7.985
1.166
-5.451
-11.847
-18.006
-23.915
-29.559
-34.929
-40.016
-44.814
-49.316
-53.521
-57.426
-61.033
-64.342
-67.358
-70.084
-72.529
-74.698
-76.601
-78.246
-79.645
-80.809
-81.75
-82.48
-83.011
-83.358
-83.534
-83.551
-83.424
-83.165
-82.789
-82.308
-81.735
-81.082
-80.363
-79.588
-78.768
-77.915
-77.039
-76.148
-75.253
-74.36
-73.477
-72.612
-71.77
-70.956
-70.175
-69.432
-68.73
-68.071
-67.458
-66.893
-66.377
-65.911
-65.495
-65.129
-64.813
-64.546
-64.328
-64.157
-64.032
-63.952
-63.916
-63.92
-63.963
-64.043
-64.158
-64.305
-64.481
-64.684
-64.912
-65.161
-65.429
-65.713
-66.01
-66.319
-66.635
-66.958
-67.283
-67.611
-67.937
-68.26
-68.579
-68.892
-69.198
-69.495
-69.782
-70.059
-70.324
-70.577
-70.817
-71.045
-71.258
-71.458
-71.644
-71.816
-71.975
-72.12
-72.253
-72.373
-72.482
-72.581
-72.669
-72.749
-72.821
-72.886
-72.945
-72.999
-73.048
-73.094
-73.138
-73.178
-73.217
-73.254
-73.289
-73.32
-73.347
-73.368
-73.382
-73.385
-73.376
-73.351
-73.309
-73.245
-73.157
-73.041
-72.892
-72.708
-72.484
-72.216
-71.898
-71.527
-71.098
-70.608
-70.053
-69.429
-68.732
-67.961
-67.113
-66.186
-65.177
-64.086
-62.912
-61.655
-60.316
-58.898
-57.403
-55.837
-54.205
-52.518
-50.785
-49.016
-47.221
-45.415
-43.61
-41.823
-40.067
-38.358
-36.709
-35.136
-33.654
-32.279
-31.028
-29.912
-28.945
-28.137
-27.501
-27.05
-26.792
-26.73
-26.865
-27.197
-27.728
-28.47
-29.429
-30.605
-32
-33.609
-35.427
-37.448
-39.657
-42.019
-44.497
-47.045
-49.624
-52.21
-54.779
-57.312
-59.773
-62.115
-64.287
-66.246
-67.949
-69.366
-70.47
-71.232
-71.692
-71.957
-72.181
-72.579
-73.351
-74.632
-76.525
-79.093
-82.27
-85.919
-89.817
-93.579
-96.791
-99.065
-100.105
-99.765
-98.109
-95.302
-91.565
-87.318
-83.201
-80.012
-78.427
-78.982
-81.973
-87.423
-95.446
-105.327
-114.918
-121.736
-123.272
-118.667
-109.755
-97.916
-82.497
-59.327
-20.699
40.369
126.997
236.585
361.993
493.055
619.443
732.651
823.039
882.106
901.901
874.565
798.884
679.299
526.722
359.705
197.042
54.974
-54.799
-129.448
-171.751
-186.547
-182.269
-166.831
-146.985
-131.029
-122.353
-120.327
-122.473
-122.429
-117.143
-107.523
-95.726
-86.185
-80.967
-79.457
-80.57
-82.323
-83.721
-84.836
-85.771
-86.77
-87.938
-89.088
-89.981
-90.572
-90.888
-90.988
-90.963
-90.875
-90.782
-90.841
-91.336
-92.391
-93.965
-95.957
-98.176
-100.444
-102.657
-104.667
-106.274
-107.368
-107.916
-107.922
-107.465
-106.614
-105.401
-103.876
-102.104
-100.13
-98.011
-95.793
-93.506
-91.188
-88.87
-86.565
-84.285
-82.031
-79.791
-77.549
-75.284
-72.971
-70.59
-68.124
-65.557
-62.876
-60.066
-57.111
-53.996
-50.708
-47.236
-43.572
-39.707
-35.637
-31.362
-26.885
-22.211
-17.347
-12.301
-7.082
-1.698
3.839
9.516
15.319
21.231
27.235
33.31
39.433
45.582
51.73
57.852
63.921
69.909
75.788
81.531
87.11
92.497
97.664
102.584
107.233
111.584
115.614
119.3
122.622
125.56
128.096
130.216
131.907
133.157
133.958
134.303
134.188
133.613
132.577
131.085
129.142
126.755
123.937
120.699
117.058
113.029
108.633
103.891
98.825
93.46
87.822
81.936
75.83
69.533
63.074
56.48
49.782
43.008
36.188
29.35
22.521
15.729
9.001
2.36
-4.168
-10.561
-16.797
-22.858
-28.723
-34.377
-39.804
-44.99
-49.925
-54.597
-58.999
-63.124
-66.967
-70.525
-73.797
-76.782
-79.483
-81.901
-84.043
-85.913
-87.519
-88.869
-89.972
-90.838
-91.477
-91.902
-92.125
-92.157
-92.012
-91.703
-91.243
-90.647
-89.926
-89.096
-88.168
-87.155
-86.071
-84.927
-83.734
-82.505
-81.249
-79.977
-78.697
-77.42
-76.153
-74.903
-73.677
-72.481
-71.321
-70.201
-69.125
-68.097
-67.12
-66.194
-65.323
-64.508
-63.748
-63.044
-62.395
-61.801
-61.261
-60.773
-60.335
-59.945
-59.601
-59.3
-59.039
-58.816
-58.627
-58.469
-58.34
-58.236
-58.154
-58.091
-58.044
-58.01
-57.987
-57.972
-57.962
-57.955
-57.95
-57.943
-57.933
-57.918
-57.897
-57.869
-57.831
-57.784
-57.725
-57.654
-57.57
-57.472
-57.361
-57.236
-57.096
-56.942
-56.775
-56.594
-56.401
-56.196
-55.98
-55.755
-55.521
-55.28
-55.033
-54.783
-54.53
-54.275
-54.022
-53.771
-53.523
-53.28
-53.044
-52.815
-52.596
-52.387
-52.189
-52.004
-51.832
-51.675
-51.533
-51.407
-51.296
-51.202
-51.124
-51.062
-51.014
-50.981
-50.961
-50.953
-50.954
-50.962
-50.975
-50.99
-51.003
-51.01
-51.007
-50.989
-50.952
-50.891
-50.8
-50.674
-50.508
-50.297
-50.034
-49.715
-49.333
-48.884
-48.362
-47.762
-47.079
-46.308
-45.446
-44.49
-43.435
-42.279
-41.02
-39.657
-38.188
-36.614
-34.934
-33.152
-31.269
-29.29
-27.22
-25.065
-22.833
-20.534
-18.178
-15.78
-13.353
-10.913
-8.477
-6.063
-3.689
-1.373
0.869
3.021
5.068
6.994
8.782
10.418
11.886
13.172
14.267
15.162
15.849
16.329
16.602
16.672
16.539
16.198
15.642
14.864
13.856
12.618
11.151
9.463
7.574
5.515
3.315
1.004
-1.401
-3.885
-6.423
-8.989
-11.542
-14.028
-16.404
-18.602
-20.529
-22.142
-23.45
-24.529
-25.556
-26.685
-28.005
-29.632
-31.714
-34.297
-37.309
-40.466
-43.295
-45.462
-46.849
-47.38
-46.925
-45.354
-42.712
-39.393
-36.083
-33.294
-31.22
-29.931
-29.63
-30.761
-33.752
-38.746
-45.518
-53.9
-63.403
-72.953
-81.408
-86.922
-88.55
-87.116
-82.265
-73.013
-56.432
-25.996
22.715
92.206
183.18
291.285
412.501
541.626
670.462
790.791
890.357
957.165
981.959
958.033
886.848
773.478
627.235
463.144
296.078
143.136
20.227
-64.461
-109.424
-119.869
-107.217
-83.392
-57.34
-37.385
-27.88
-27.831
-34.996
-43.384
-46.427
-42.898
-34.132
-23.825
-16.737
-14.08
-14.911
-17.837
-21.225
-24.472
-27.515
-30.055
-31.705
-32.246
-31.716
-30.258
-28.006
-25.164
-22.02
-18.991
-16.622
-15.184
-14.66
-14.971
-15.928
-17.33
-18.985
-20.596
-21.835
-22.517
-22.573
-21.989
-20.826
-19.119
-16.889
-14.201
-11.129
-7.732
-4.065
-0.163
3.938
8.182
12.504
16.836
21.127
25.348
29.486
33.531
37.488
41.363
45.167
48.923
52.649
56.356
60.058
63.766
67.493
71.259
75.079
78.973
82.957
87.043
91.24
95.555
99.994
104.558
109.246
114.058
118.989
124.04
129.207
134.486
139.872
145.359
150.936
156.594
162.318
168.094
173.905
179.731
185.552
191.347
197.092
202.765
208.341
213.794
219.1
224.234
229.168
233.878
238.34
242.528
246.419
249.991
253.222
256.092
258.583
260.678
262.361
263.62
264.444
264.822
264.748
264.216
263.224
261.771
259.859
257.491
254.675
251.419
247.734
243.634
239.135
234.254
229.009
223.423
217.517
211.316
204.843
198.124
191.187
184.058
176.764
169.333
161.793
154.171
146.495
138.791
131.085
123.403
115.769
108.208
100.742
93.392
86.18
79.123
72.239
65.545
59.056
52.783
46.74
40.934
35.376
30.07
25.023
20.236
15.713
11.453
7.456
3.718
0.237
-2.994
-5.978
-8.724
-11.24
-13.532
-15.611
-17.487
-19.169
-20.669
-21.996
-23.163
-24.18
-25.06
-25.813
-26.452
-26.986
-27.428
-27.789
-28.078
-28.307
-28.485
-28.621
-28.724
-28.803
-28.865
-28.917
-28.967
-29.02
-29.082
-29.156
-29.248
-29.361
-29.498
-29.662
-29.855
-30.078
-30.334
-30.621
-30.941
-31.295
-31.681
-32.099
-32.548
-33.027
-33.534
-34.069
-34.629
-35.212
-35.817
-36.441
-37.082
-37.738
-38.405
-39.082
-39.766
-40.455
-41.146
-41.837
-42.526
-43.21
-43.889
-44.559
-45.221
-45.871
-46.508
-47.132
-47.741
-48.335
-48.912
-49.472
-50.014
-50.539
-51.045
-51.534
-52.004
-52.457
-52.893
-53.312
-53.715
-54.103
-54.477
-54.838
-55.188
-55.527
-55.859
-56.184
-56.505
-56.823
-57.142
-57.463
-57.789
-58.121
-58.462
-58.815
-59.18
-59.562
-59.961
-60.38
-60.82
-61.284
-61.773
-62.288
-62.831
-63.403
-64.004
-64.634
-65.294
-65.985
-66.704
-67.452
-68.228
-69.029
-69.855
-70.702
-71.569
-72.452
-73.346
-74.25
-75.157
-76.062
-76.961
-77.848
-78.716
-79.56
-80.373
-81.15
-81.882
-82.564
-83.188
-83.749
-84.238
-84.65
-84.977
-85.213
-85.352
-85.389
-85.318
-85.135
-84.836
-84.417
-83.877
-83.214
-82.427
-81.515
-80.479
-79.32
-78.042
-76.649
-75.144
-73.534
-71.829
-70.037
-68.172
-66.246
-64.272
-62.266
-60.242
-58.216
-56.206
-54.228
-52.297
-50.433
-48.653
-46.977
-45.423
-44.011
-42.756
-41.672
-40.773
-40.071
-39.575
-39.292
-39.225
-39.379
-39.757
-40.369
-41.22
-42.31
-43.637
-45.194
-46.973
-48.961
-51.14
-53.48
-55.949
-58.515
-61.148
-63.818
-66.493
-69.136
-71.711
-74.179
-76.506
-78.665
-80.626
-82.355
-83.832
-85.066
-86.075
-86.894
-87.578
-88.209
-88.928
-89.955
-91.477
-93.613
-96.482
-100.175
-104.684
-109.889
-115.429
-120.67
-125.033
-128.105
-129.385
-128.407
-124.997
-119.155
-111.819
-104.943
-99.557
-96.156
-94.494
-92.945
-92.103
-93.851
-99.739
-111.799
-128.824
-147.291
-163.182
-171.537
-168.152
-148.45
-108.666
-46.084
40.488
147.482
270.016
401.195
531.595
653.325
756.6
831.154
869.06
862.964
809.646
711.024
573.026
407.923
233.305
68.278
-68.549
-164.765
-218.761
-236.055
-227.894
-207.01
-181.472
-157.567
-139.421
-128.145
-124.16
-125.241
-127.083
-126.255
-121.691
-114.772
-108.452
-105.707
-107.054
-111.345
-117.229
-123.134
-128.378
-133.009
-136.799
-139.493
-141.094
-141.668
-141.345
-140.441
-139.23
-137.919
-136.882
-136.505
-136.927
-138.149
-140.066
-142.444
-145.075
-147.763
-150.265
-152.355
-153.908
-154.871
-155.248
-155.093
-154.449
-153.358
-151.872
-150.05
-147.938
-145.571
-142.989
-140.227
-137.334
-134.365
-131.358
-128.341
-125.326
-122.318
-119.313
-116.304
-113.277
-110.21
-107.087
-103.896
-100.623
-97.26
-93.793
-90.207
-86.487
-82.619
-78.59
-74.391
-70.014
-65.456
-60.714
-55.792
-50.693
-45.424
-39.993
-34.406
-28.671
-22.797
-16.796
-10.681
-4.465
1.835
8.201
14.614
21.05
27.486
33.898
40.261
46.548
52.732
58.786
64.683
70.395
75.894
81.153
86.146
90.847
95.231
99.274
102.954
106.25
109.144
111.618
113.657
115.249
116.384
117.053
117.25
116.973
116.221
114.994
113.299
111.141
108.529
105.477
101.997
98.107
93.827
89.177
84.181
78.864
73.253
67.375
61.26
54.939
48.443
41.803
35.052
28.223
21.349
14.462
7.594
0.777
-5.959
-12.582
-19.064
-25.378
-31.496
-37.395
-43.049
-48.437
-53.539
-58.337
-62.813
-66.954
-70.745
-74.178
-77.242
-79.932
-82.242
-84.17
-85.716
-86.879
-87.663
-88.073
-88.114
-87.794
-87.123
-86.11
-84.768
-83.11
-81.149
-78.9
-76.379
-73.602
-70.586
-67.347
-63.905
-60.275
-56.477
-52.53
-48.45
-44.256
-39.967
-35.6
-31.173
-26.702
-22.204
-17.695
-13.191
-8.707
-4.256
0.146
4.489
8.758
12.943
17.032
21.015
24.884
28.629
32.243
35.718
39.047
42.225
45.246
48.106
50.801
53.327
55.681
57.861
59.866
61.695
63.347
64.822
66.122
67.247
68.2
68.981
69.595
70.044
70.332
70.463
70.44
70.269
69.955
69.503
68.918
68.206
67.374
66.427
65.373
64.217
62.966
61.627
60.208
58.715
57.155
55.535
53.864
52.147
50.391
48.604
46.792
44.962
43.119
41.27
39.42
37.573
35.736
33.912
32.105
30.319
28.558
26.823
25.118
23.444
21.803
20.194
18.62
17.079
15.573
14.099
12.658
11.247
9.866
8.513
7.185
5.88
4.595
3.328
2.075
0.835
-0.397
-1.622
-2.843
-4.063
-5.283
-6.506
-7.732
-8.964
-10.201
-11.446
-12.696
-13.953
-15.215
-16.48
-17.746
-19.011
-20.271
-21.521
-22.758
-23.977
-25.172
-26.338
-27.468
-28.557
-29.597
-30.582
-31.504
-32.357
-33.132
-33.822
-34.42
-34.917
-35.309
-35.588
-35.748
-35.784
-35.692
-35.468
-35.108
-34.61
-33.971
-33.192
-32.272
-31.213
-30.018
-28.691
-27.238
-25.667
-23.988
-22.211
-20.35
-18.417
-16.428
-14.399
-12.349
-10.295
-8.257
-6.253
-4.304
-2.428
-0.647
1.021
2.557
3.944
5.165
6.203
7.041
7.666
8.069
8.244
8.185
7.888
7.343
6.544
5.488
4.172
2.597
0.764
-1.324
-3.653
-6.197
-8.925
-11.796
-14.774
-17.832
-20.946
-24.096
-27.252
-30.362
-33.384
-36.273
-38.983
-41.486
-43.74
-45.685
-47.354
-48.855
-50.33
-52.003
-54.033
-56.494
-59.53
-63.266
-67.638
-72.486
-77.504
-82.233
-86.408
-89.86
-92.263
-93.368
-93.207
-92.013
-90.173
-88.117
-86.102
-84.35
-83.788
-85.788
-90.538
-97.448
-105.022
-110.565
-113.629
-114.893
-114.632
-114.295
-113.58
-111.099
-105.79
-94.238
-71.232
-30.776
33.359
123.982
238.224
369.595
508.03
642.437
763.419
859.77
920.844
937.349
901.067
811.64
676.103
507.748
326.848
153.985
6.027
-104.613
-174.027
-205.757
-205.697
-183.4
-149.433
-112.018
-81.051
-63.081
-58.377
-64.793
-75.07
-81.778
-83.226
-80.184
-76.259
-75.834
-79.32
-85.371
-92.359
-98.112
-101.995
-104.332
-105.078
-104.536
-103.153
-101.143
-98.815
-96.559
-94.58
-93.101
-92.488
-92.854
-94.12
-96.189
-98.837
-101.82
-104.953
-107.985
-110.635
-112.752
-114.259
-115.128
-115.396
-115.09
-114.227
-112.862
-111.058
-108.868
-106.34
-103.513
-100.423
-97.131
-93.702
-90.208
-86.702
-83.217
-79.774
-76.385
-73.052
-69.773
-66.536
-63.32
-60.109
-56.89
-53.652
-50.387
-47.08
-43.717
-40.281
-36.758
-33.134
-29.397
-25.541
-21.559
-17.449
-13.21
-8.844
-4.355
0.253
4.976
9.811
14.752
19.795
24.93
30.148
35.441
40.795
46.195
51.625
57.068
62.504
67.913
73.274
78.565
83.762
88.843
93.783
98.559
103.147
107.523
111.664
115.549
119.154
122.46
125.447
128.098
130.395
132.326
133.876
135.036
135.797
136.152
136.097
135.63
134.75
133.459
131.76
129.661
127.169
124.296
121.053
117.457
113.524
109.273
104.725
99.902
94.827
89.524
84.021
78.341
72.514
66.565
60.524
54.417
48.272
42.117
35.978
29.88
23.849
17.909
12.081
6.386
0.846
-4.524
-9.705
-14.683
-19.444
-23.977
-28.271
-32.319
-36.113
-39.65
-42.924
-45.937
-48.687
-51.176
-53.409
-55.389
-57.124
-58.619
-59.884
-60.929
-61.763
-62.399
-62.847
-63.122
-63.236
-63.202
-63.035
-62.747
-62.352
-61.864
-61.295
-60.658
-59.965
-59.227
-58.455
-57.66
-56.85
-56.035
-55.222
-54.42
-53.634
-52.87
-52.133
-51.427
-50.756
-50.122
-49.528
-48.974
-48.462
-47.991
-47.561
-47.173
-46.823
-46.512
-46.236
-45.993
-45.78
-45.595
-45.434
-45.294
-45.171
-45.064
-44.967
-44.879
-44.796
-44.716
-44.636
-44.553
-44.465
-44.371
-44.267
-44.154
-44.028
-43.89
-43.739
-43.573
-43.392
-43.196
-42.984
-42.756
-42.511
-42.25
-41.972
-41.676
-41.363
-41.032
-40.682
-40.313
-39.926
-39.519
-39.093
-38.646
-38.178
-37.69
-37.18
-36.648
-36.094
-35.518
-34.918
-34.296
-33.651
-32.982
-32.29
-31.576
-30.838
-30.077
-29.295
-28.49
-27.665
-26.819
-25.955
-25.074
-24.178
-23.268
-22.348
-21.421
-20.489
-19.555
-18.625
-17.701
-16.788
-15.89
-15.012
-14.159
-13.335
-12.546
-11.795
-11.087
-10.426
-9.816
-9.261
-8.764
-8.327
-7.952
-7.643
-7.4
-7.225
-7.117
-7.077
-7.104
-7.197
-7.354
-7.572
-7.847
-8.175
-8.552
-8.972
-9.429
-9.915
-10.425
-10.949
-11.478
-12.005
-12.518
-13.008
-13.465
-13.877
-14.235
-14.528
-14.747
-14.882
-14.924
-14.866
-14.698
-14.415
-14.011
-13.479
-12.815
-12.017
-11.081
-10.008
-8.797
-7.452
-5.978
-4.381
-2.67
-0.854
1.056
3.047
5.104
7.212
9.354
11.513
13.671
15.81
17.911
19.953
21.916
23.783
25.536
27.158
28.634
29.946
31.08
32.03
32.788
33.349
33.706
33.843
33.753
33.431
32.873
32.078
31.046
29.778
28.287
26.598
24.743
22.761
20.683
18.53
16.323
14.078
11.826
9.615
7.484
5.473
3.621
1.954
0.513
-0.658
-1.598
-2.408
-3.243
-4.343
-5.899
-8.044
-10.96
-14.753
-19.386
-24.742
-30.469
-36.034
-40.985
-44.86
-47.145
-47.563
-46.026
-42.602
-37.821
-32.421
-27.172
-23.108
-21.261
-22.454
-27.376
-36.317
-49.074
-64.592
-80.568
-94.183
-102.44
-103.958
-99.761
-90.611
-76.102
-52.305
-11.718
52.53
144.182
261.256
396.91
540.59
680.772
806.962
906.954
971.274
991.67
960.929
879.823
751.692
585.864
399.98
212.137
43.25
-88.669
-175.802
-217.858
-221.847
-200.16
-164.791
-125.173
-90.767
-67.38
-55.459
-53.68
-55.696
-54.396
-48.459
-38.941
-29.67
-25.794
-28.133
-35.108
-44.883
-54.958
-64.103
-72.228
-78.882
-83.647
-86.541
-87.714
-87.391
-86.009
-83.99
-81.667
-79.575
-78.284
-78.005
-78.747
-80.403
-82.703
-85.393
-88.259
-91.009
-93.361
-95.166
-96.367
-96.967
-97.038
-96.632
-95.788
-94.566
-93.024
-91.205
-89.146
-86.881
-84.445
-81.889
-79.271
-76.637
-74.019
-71.439
-68.905
-66.419
-63.978
-61.567
-59.168
-56.768
-54.353
-51.914
-49.441
-46.921
-44.336
-41.672
-38.911
-36.038
-33.039
-29.904
-26.624
-23.195
-19.614
-15.882
-12
-7.97
-3.795
0.524
4.982
9.575
14.295
19.135
24.084
29.131
34.262
39.46
44.709
49.989
55.281
60.563
65.815
71.012
76.131
81.149
86.039
90.778
95.341
99.704
103.841
107.729
111.346
114.671
117.681
120.36
122.688
124.651
126.235
127.427
128.218
128.599
128.564
128.109
127.233
125.935
124.218
122.087
119.548
116.612
113.289
109.592
105.537
101.142
96.424
91.404
86.104
80.547
74.757
68.759
62.579
56.243
49.778
43.211
36.57
29.881
23.171
16.467
9.795
3.179
-3.357
-9.789
-16.095
-22.255
-28.248
-34.057
-39.663
-45.052
-50.209
-55.122
-59.78
-64.172
-68.292
-72.132
-75.689
-78.958
-81.938
-84.629
-87.032
-89.148
-90.982
-92.539
-93.824
-94.845
-95.61
-96.128
-96.409
-96.463
-96.301
-95.935
-95.378
-94.642
-93.738
-92.681
-91.483
-90.157
-88.715
-87.172
-85.538
-83.827
-82.05
-80.22
-78.347
-76.442
-74.517
-72.58
-70.642
-68.712
-66.798
-64.908
-63.05
-61.229
-59.453
-57.728
-56.057
-54.447
-52.899
-51.419
-50.008
-48.668
-47.402
-46.209
-45.091
-44.046
-43.076
-42.178
-41.351
-40.595
-39.906
-39.283
-38.723
-38.223
-37.779
-37.389
-37.049
-36.754
-36.502
-36.287
-36.106
-35.954
-35.827
-35.72
-35.63
-35.551
-35.479
-35.411
-35.341
-35.265
-35.181
-35.083
-34.971
-34.839
-34.686
-34.51
-34.309
-34.082
-33.826
-33.543
-33.231
-32.89
-32.52
-32.123
-31.699
-31.25
-30.778
-30.285
-29.773
-29.246
-28.707
-28.16
-27.608
-27.056
-26.507
-25.966
-25.438
-24.928
-24.44
-23.98
-23.552
-23.162
-22.814
-22.511
-22.259
-22.06
-21.917
-21.834
-21.811
-21.851
-21.954
-22.12
-22.351
-22.644
-22.999
-23.413
-23.884
-24.409
-24.983
-25.601
-26.259
-26.949
-27.665
-28.4
-29.145
-29.894
-30.637
-31.364
-32.068
-32.737
-33.362
-33.932
-34.437
-34.867
-35.211
-35.46
-35.606
-35.639
-35.553
-35.341
-34.997
-34.515
-33.892
-33.125
-32.212
-31.149
-29.94
-28.584
-27.085
-25.448
-23.68
-21.789
-19.786
-17.683
-15.495
-13.235
-10.921
-8.57
-6.203
-3.839
-1.497
0.801
3.036
5.185
7.228
9.144
10.915
12.523
13.952
15.185
16.207
17.006
17.58
17.925
18.039
17.918
17.552
16.935
16.067
14.947
13.576
11.956
10.092
7.999
5.711
3.268
0.709
-1.934
-4.645
-7.409
-10.203
-12.986
-15.709
-18.325
-20.793
-23.083
-25.14
-26.892
-28.329
-29.517
-30.595
-31.787
-33.296
-35.242
-37.788
-41.126
-45.252
-50.059
-55.284
-60.379
-64.896
-68.516
-70.744
-71.127
-69.562
-66.072
-60.994
-55.192
-49.307
-43.997
-40.394
-39.458
-41.881
-48.278
-58.589
-72.242
-88.307
-104.477
-117.501
-124.141
-122.709
-114.192
-100.458
-82.14
-55.626
-13.411
52.349
146.486
266.956
406.58
554.589
698.854
829.043
933.03
998.711
1015.147
972.55
869.663
714.253
522.483
318.373
126.161
-34.193
-149.877
-217.527
-241.277
-230.215
-196.513
-153.439
-112.895
-83.878
-70.32
-69.606
-75.453
-80.446
-79.294
-72.215
-62.508
-54.323
-51.202
-53.191
-58.389
-64.982
-71.162
-76.23
-80.35
-83.413
-85.257
-85.974
-85.698
-84.611
-83.072
-81.391
-79.771
-78.559
-78.108
-78.507
-79.724
-81.629
-83.969
-86.522
-89.09
-91.435
-93.331
-94.657
-95.364
-95.456
-94.991
-94.013
-92.566
-90.708
-88.504
-86.007
-83.262
-80.318
-77.216
-74.012
-70.764
-67.517
-64.296
-61.121
-57.996
-54.918
-51.882
-48.874
-45.873
-42.863
-39.832
-36.766
-33.654
-30.482
-27.233
-23.889
-20.436
-16.857
-13.142
-9.281
-5.268
-1.099
3.228
7.709
12.344
17.128
22.059
27.132
32.344
37.687
43.153
48.732
54.413
60.181
66.021
71.913
77.84
83.779
89.709
95.606
101.448
107.208
112.862
118.384
123.748
128.927
133.897
138.631
143.105
147.295
151.177
154.73
157.933
160.768
163.217
165.266
166.901
168.11
168.885
169.218
169.105
168.542
167.529
166.069
164.167
161.828
159.062
155.882
152.301
148.335
144.003
139.324
134.319
129.013
123.429
117.593
111.532
105.272
98.841
92.268
85.581
78.81
71.981
65.123
58.264
51.43
44.647
37.941
31.335
24.853
18.515
12.344
6.356
0.57
-4.999
-10.337
-15.431
-20.271
-24.849
-29.158
-33.191
-36.947
-40.422
-43.617
-46.533
-49.173
-51.541
-53.642
-55.484
-57.073
-58.419
-59.53
-60.418
-61.093
-61.567
-61.852
-61.96
-61.903
-61.695
-61.349
-60.877
-60.293
-59.608
-58.837
-57.99
-57.08
-56.118
-55.116
-54.083
-53.029
-51.963
-50.894
-49.829
-48.776
-47.741
-46.73
-45.749
-44.801
-43.891
-43.022
-42.198
-41.42
-40.69
-40.01
-39.381
-38.804
-38.279
-37.806
-37.385
-37.016
-36.696
-36.425
-36.202
-36.025
-35.891
-35.8
-35.747
-35.732
-35.752
-35.805
-35.887
-35.998
-36.134
-36.292
-36.472
-36.67
-36.885
-37.113
-37.354
-37.605
-37.863
-38.128
-38.397
-38.669
-38.941
-39.212
-39.481
-39.745
-40.004
-40.255
-40.497
-40.73
-40.952
-41.162
-41.361
-41.546
-41.719
-41.88
-42.028
-42.164
-42.288
-42.402
-42.507
-42.603
-42.693
-42.776
-42.855
-42.932
-43.008
-43.085
-43.166
-43.252
-43.345
-43.448
-43.562
-43.69
-43.833
-43.993
-44.172
-44.372
-44.593
-44.838
-45.106
-45.398
-45.715
-46.056
-46.421
-46.809
-47.219
-47.647
-48.093
-48.553
-49.023
-49.5
-49.978
-50.454
-50.921
-51.375
-51.809
-52.218
-52.594
-52.93
-53.22
-53.457
-53.633
-53.74
-53.773
-53.723
-53.584
-53.351
-53.018
-52.579
-52.029
-51.365
-50.583
-49.68
-48.655
-47.505
-46.232
-44.837
-43.321
-41.69
-39.949
-38.104
-36.164
-34.139
-32.043
-29.888
-27.69
-25.465
-23.231
-21.006
-18.807
-16.654
-14.565
-12.557
-10.648
-8.855
-7.196
-5.687
-4.346
-3.184
-2.215
-1.447
-0.884
-0.528
-0.381
-0.446
-0.729
-1.235
-1.968
-2.93
-4.125
-5.552
-7.206
-9.068
-11.103
-13.279
-15.564
-17.934
-20.377
-22.872
-25.387
-27.881
-30.302
-32.606
-34.761
-36.715
-38.386
-39.742
-40.807
-41.683
-42.567
-43.616
-44.92
-46.582
-48.748
-51.497
-54.781
-58.394
-61.946
-65.103
-67.719
-69.646
-70.623
-70.426
-68.994
-66.481
-63.33
-59.99
-56.624
-53.5
-51.168
-50.189
-51.165
-54.567
-60.438
-68.853
-79.43
-90.493
-99.929
-105.273
-105.297
-101.359
-94.293
-83.526
-65.338
-31.64
24.68
108.073
219.138
352.346
499.352
650.027
791.57
910.907
995.702
1033.81
1017.084
942.824
812.886
638.241
437.809
234.897
55.035
-82.438
-169.507
-209.325
-213.089
-194.483
-164.681
-130.36
-96.527
-68.062
-49.191
-42.638
-47.812
-58.921
-68.204
-71.07
-65.501
-54.904
-46.357
-43.313
-47.594
-58.022
-69.779
-80.277
-88.104
-92.452
-94.551
-95.177
-94.428
-92.719
-90.297
-87.45
-84.813
-82.981
-82.161
-82.377
-83.565
-85.483
-87.881
-90.536
-93.115
-95.3
-96.939
-97.964
-98.367
-98.208
-97.525
-96.344
-94.734
-92.763
-90.482
-87.936
-85.155
-82.167
-79.025
-75.787
-72.513
-69.248
-66.019
-62.839
-59.715
-56.644
-53.621
-50.634
-47.662
-44.69
-41.703
-38.689
-35.636
-32.529
-29.351
-26.083
-22.708
-19.209
-15.574
-11.794
-7.862
-3.775
0.472
4.876
9.436
14.15
19.014
24.025
29.179
34.469
39.886
45.422
51.063
56.797
62.607
68.476
74.383
80.31
86.233
92.129
97.976
103.747
109.417
114.961
120.352
125.564
130.571
135.347
139.868
144.11
148.049
151.664
154.936
157.844
160.373
162.508
164.236
165.546
166.429
166.879
166.892
166.465
165.598
164.294
162.558
160.397
157.819
154.838
151.465
147.719
143.615
139.173
134.414
129.362
124.039
118.47
112.682
106.7
100.552
94.264
87.866
81.383
74.844
68.275
61.703
55.153
48.65
42.218
35.88
29.656
23.569
17.635
11.873
6.3
0.929
-4.227
-9.157
-13.85
-18.298
-22.496
-26.438
-30.122
-33.546
-36.708
-39.612
-42.26
-44.654
-46.802
-48.709
-50.383
-51.831
-53.064
-54.091
-54.923
-55.571
-56.047
-56.362
-56.529
-56.56
-56.468
-56.266
-55.964
-55.576
-55.113
-54.588
-54.011
-53.393
-52.745
-52.075
-51.395
-50.711
-50.033
-49.368
-48.721
-48.101
-47.511
-46.958
-46.444
-45.975
-45.552
-45.18
-44.858
-44.589
-44.374
-44.212
-44.104
-44.048
-44.045
-44.091
-44.186
-44.328
-44.514
-44.74
-45.005
-45.305
-45.636
-45.996
-46.38
-46.785
-47.207
-47.644
-48.092
-48.546
-49.005
-49.466
-49.925
-50.379
-50.827
-51.266
-51.694
-52.108
-52.508
-52.892
-53.258
-53.607
-53.936
-54.247
-54.538
-54.81
-55.064
-55.3
-55.52
-55.724
-55.913
-56.091
-56.259
-56.419
-56.574
-56.727
-56.881
-57.039
-57.205
-57.38
-57.569
-57.775
-57.999
-58.246
-58.518
-58.817
-59.147
-59.509
-59.905
-60.336
-60.805
-61.311
-61.855
-62.436
-63.054
-63.708
-64.396
-65.117
-65.867
-66.644
-67.444
-68.265
-69.1
-69.946
-70.795
-71.643
-72.483
-73.305
-74.104
-74.87
-75.596
-76.273
-76.892
-77.445
-77.923
-78.316
-78.617
-78.815
-78.903
-78.873
-78.715
-78.425
-77.994
-77.419
-76.694
-75.815
-74.78
-73.586
-72.234
-70.723
-69.053
-67.228
-65.251
-63.128
-60.865
-58.47
-55.951
-53.319
-50.59
-47.779
-44.905
-41.985
-39.041
-36.095
-33.169
-30.286
-27.468
-24.735
-22.105
-19.597
-17.234
-15.037
-13.027
-11.222
-9.637
-8.285
-7.177
-6.32
-5.714
-5.354
-5.236
-5.361
-5.737
-6.376
-7.286
-8.473
-9.939
-11.677
-13.675
-15.913
-18.355
-20.973
-23.744
-26.644
-29.653
-32.747
-35.887
-39.026
-42.12
-45.098
-47.861
-50.357
-52.563
-54.537
-56.452
-58.453
-60.622
-63.068
-65.896
-69.13
-72.75
-76.503
-79.849
-82.397
-83.989
-84.55
-84.139
-82.821
-80.523
-77.584
-74.859
-72.878
-71.793
-71.661
-72.158
-73.655
-77.609
-84.087
-92.14
-100.296
-105.86
-108.726
-110.821
-113.585
-118.718
-125.471
-131.235
-133.276
-128.034
-111.348
-77.703
-22.557
57.349
162.459
287.9
428.495
576.499
721.148
851.855
953.302
1010.257
1012.219
953.127
836.74
674.561
482.492
280.649
89.382
-72.986
-191.88
-259.885
-278.185
-255.332
-205.606
-145.867
-90.948
-51.767
-33.655
-35.195
-50.73
-72.076
-90.717
-101.127
-101.477
-93.887
-83.53
-75.805
-73.996
-78.377
-86.367
-94.187
-99.444
-101.34
-100.496
-98.499
-96.137
-93.616
-91.143
-88.71
-86.599
-85.333
-85.051
-85.671
-87.105
-89.12
-91.491
-94.041
-96.479
-98.499
-99.949
-100.758
-100.91
-100.454
-99.415
-97.811
-95.705
-93.164
-90.243
-86.995
-83.456
-79.665
-75.68
-71.564
-67.384
-63.191
-59.014
-54.87
-50.769
-46.709
-42.686
-38.686
-34.689
-30.679
-26.644
-22.571
-18.452
-14.274
-10.022
-5.681
-1.236
3.325
8.01
12.826
17.777
22.862
28.079
33.425
38.891
44.473
50.162
55.952
61.835
67.802
73.841
79.94
86.084
92.257
98.442
104.618
110.765
116.859
122.88
128.801
134.599
140.249
145.726
151.003
156.056
160.86
165.389
169.621
173.533
177.102
180.308
183.133
185.559
187.572
189.158
190.306
191.008
191.256
191.046
190.377
189.248
187.662
185.624
183.141
180.223
176.881
173.129
168.985
164.467
159.594
154.39
148.877
143.082
137.031
130.75
124.269
117.616
110.821
103.913
96.922
89.877
82.807
75.741
68.707
61.731
54.838
48.054
41.402
34.902
28.575
22.439
16.511
10.805
5.334
0.111
-4.856
-9.56
-13.994
-18.154
-22.038
-25.647
-28.98
-32.041
-34.835
-37.366
-39.643
-41.672
-43.464
-45.029
-46.377
-47.521
-48.473
-49.246
-49.852
-50.305
-50.619
-50.807
-50.882
-50.857
-50.745
-50.557
-50.305
-50
-49.652
-49.27
-48.863
-48.44
-48.007
-47.571
-47.138
-46.713
-46.299
-45.901
-45.521
-45.16
-44.82
-44.502
-44.206
-43.932
-43.678
-43.444
-43.227
-43.027
-42.84
-42.665
-42.499
-42.339
-42.183
-42.028
-41.871
-41.711
-41.545
-41.37
-41.186
-40.991
-40.784
-40.564
-40.33
-40.083
-39.822
-39.548
-39.262
-38.965
-38.658
-38.343
-38.023
-37.7
-37.375
-37.052
-36.734
-36.423
-36.123
-35.836
-35.567
-35.317
-35.09
-34.89
-34.719
-34.58
-34.478
-34.413
-34.39
-34.411
-34.477
-34.591
-34.754
-34.969
-35.237
-35.557
-35.932
-36.361
-36.844
-37.382
-37.972
-38.615
-39.308
-40.05
-40.838
-41.668
-42.539
-43.446
-44.386
-45.355
-46.348
-47.36
-48.387
-49.423
-50.462
-51.498
-52.525
-53.536
-54.525
-55.484
-56.408
-57.288
-58.119
-58.892
-59.602
-60.24
-60.801
-61.277
-61.662
-61.949
-62.133
-62.207
-62.168
-62.01
-61.73
-61.325
-60.793
-60.131
-59.34
-58.418
-57.367
-56.188
-54.883
-53.455
-51.91
-50.253
-48.492
-46.634
-44.692
-42.675
-40.596
-38.468
-36.306
-34.126
-31.943
-29.775
-27.638
-25.548
-23.522
-21.575
-19.725
-17.988
-16.377
-14.905
-13.585
-12.429
-11.451
-10.659
-10.058
-9.65
-9.436
-9.417
-9.601
-9.995
-10.599
-11.414
-12.44
-13.671
-15.107
-16.734
-18.525
-20.448
-22.464
-24.537
-26.645
-28.764
-30.878
-32.955
-34.95
-36.819
-38.519
-40.008
-41.258
-42.236
-42.908
-43.308
-43.531
-43.718
-44.066
-44.749
-45.883
-47.565
-49.864
-52.725
-56.021
-59.541
-62.945
-65.897
-68.106
-69.335
-69.451
-68.492
-66.595
-63.941
-60.869
-57.858
-55.507
-54.343
-54.859
-57.393
-62.065
-69.144
-78.209
-87.668
-95.618
-99.863
-99.269
-94.861
-87.144
-75.501
-57.138
-25.822
23.922
95.695
190.525
304.576
431.363
562.68
687.352
792.738
866.999
898.003
877.594
805.44
685.208
528.66
353.892
178.501
21.907
-100.541
-182.222
-222.509
-227.125
-206.74
-172.55
-134.032
-101.156
-80.332
-71.716
-73.357
-78.311
-78.723
-73.223
-63.071
-52.031
-45.361
-44.062
-46.667
-51.721
-57.221
-62.12
-66.492
-70.087
-72.5
-73.758
-74.006
-73.294
-71.838
-69.946
-67.817
-65.854
-64.594
-64.2
-64.646
-65.862
-67.616
-69.692
-71.928
-74.075
-75.859
-77.143
-77.871
-78.039
-77.721
-76.963
-75.798
-74.28
-72.465
-70.399
-68.123
-65.674
-63.086
-60.402
-57.674
-54.938
-52.223
-49.542
-46.9
-44.293
-41.709
-39.134
-36.547
-33.932
-31.278
-28.572
-25.802
-22.955
-20.016
-16.97
-13.802
-10.499
-7.05
-3.447
0.317
4.243
8.33
12.578
16.98
21.534
26.234
31.074
36.048
41.148
46.363
51.682
57.092
62.577
68.12
73.701
79.301
84.898
90.469
95.992
101.442
106.795
112.026
117.11
122.022
126.736
131.229
135.475
139.453
143.139
146.512
149.553
152.243
154.564
156.504
158.047
159.184
159.905
160.204
160.076
159.518
158.53
157.115
155.276
153.02
150.357
147.296
143.853
140.042
135.88
131.387
126.584
121.492
116.136
110.539
104.727
98.726
92.563
86.266
79.861
73.377
66.84
60.278
53.716
47.181
40.697
34.288
27.977
21.785
15.734
9.841
4.125
-1.398
-6.714
-11.81
-16.675
-21.298
-25.673
-29.793
-33.654
-37.252
-40.587
-43.658
-46.467
-49.018
-51.313
-53.36
-55.163
-56.732
-58.074
-59.199
-60.116
-60.836
-61.37
-61.729
-61.925
-61.969
-61.872
-61.646
-61.303
-60.854
-60.31
-59.682
-58.981
-58.216
-57.397
-56.534
-55.634
-54.706
-53.757
-52.795
-51.824
-50.852
-49.883
-48.922
-47.973
-47.038
-46.122
-45.225
-44.351
-43.501
-42.675
-41.874
-41.1
-40.352
-39.63
-38.935
-38.265
-37.621
-37.002
-36.408
-35.838
-35.291
-34.767
-34.265
-33.784
-33.323
-32.883
-32.461
-32.059
-31.675
-31.308
-30.958
-30.625
-30.309
-30.008
-29.723
-29.454
-29.2
-28.962
-28.74
-28.534
-28.343
-28.169
-28.01
-27.869
-27.743
-27.634
-27.542
-27.467
-27.408
-27.365
-27.34
-27.331
-27.339
-27.362
-27.402
-27.458
-27.529
-27.616
-27.718
-27.834
-27.966
-28.112
-28.272
-28.446
-28.634
-28.834
-29.047
-29.271
-29.506
-29.75
-30.003
-30.262
-30.528
-30.797
-31.069
-31.342
-31.613
-31.88
-32.141
-32.392
-32.632
-32.857
-33.063
-33.246
-33.405
-33.534
-33.631
-33.691
-33.711
-33.687
-33.615
-33.491
-33.311
-33.07
-32.766
-32.395
-31.953
-31.438
-30.847
-30.18
-29.433
-28.606
-27.699
-26.712
-25.645
-24.5
-23.279
-21.985
-20.623
-19.196
-17.711
-16.176
-14.599
-12.991
-11.362
-9.724
-8.091
-6.476
-4.894
-3.358
-1.881
-0.477
0.843
2.063
3.171
4.152
4.993
5.68
6.202
6.547
6.706
6.671
6.438
6.006
5.374
4.537
3.485
2.208
0.701
-1.04
-3.015
-5.218
-7.64
-10.261
-13.045
-15.956
-18.954
-22.001
-25.07
-28.128
-31.137
-34.047
-36.8
-39.338
-41.614
-43.582
-45.201
-46.456
-47.358
-47.957
-48.342
-48.594
-48.782
-48.987
-49.296
-49.792
-50.54
-51.579
-52.965
-54.839
-57.338
-60.517
-64.307
-68.518
-72.972
-77.446
-81.511
-84.562
-85.949
-85.759
-84.875
-84.01
-83.454
-81.904
-77.237
-69.59
-60.828
-54.477
-54.404
-60.526
-70.326
-80.322
-86.059
-84.42
-71.266
-40.724
12.579
92.465
197.208
320.243
452.188
582.232
702.034
803.614
878.739
918.583
912.823
854.391
741.946
583.462
397.384
208.003
40.257
-87.31
-167.12
-202.597
-203.229
-181.06
-147.869
-111.73
-80.944
-61.576
-54.028
-56.711
-63.32
-66.65
-65.192
-59.976
-54.58
-53.515
-57.233
-64.136
-72.414
-79.706
-85.065
-88.572
-90.065
-89.767
-88.143
-85.506
-82.212
-78.703
-75.305
-72.357
-70.323
-69.399
-69.526
-70.596
-72.406
-74.726
-77.375
-80.101
-82.576
-84.607
-86.106
-87.034
-87.425
-87.306
-86.674
-85.569
-84.055
-82.181
-79.994
-77.53
-74.808
-71.874
-68.784
-65.598
-62.381
-59.175
-56.003
-52.881
-49.817
-46.808
-43.851
-40.933
-38.034
-35.139
-32.235
-29.309
-26.353
-23.353
-20.293
-17.158
-13.933
-10.604
-7.164
-3.607
0.073
3.876
7.804
11.853
16.018
20.295
24.68
29.166
33.75
38.422
43.173
47.993
52.87
57.789
62.737
67.695
72.646
77.57
82.448
87.258
91.98
96.591
101.069
105.392
109.537
113.482
117.205
120.685
123.901
126.834
129.465
131.777
133.753
135.38
136.644
137.535
138.043
138.161
137.885
137.21
136.135
134.662
132.794
130.535
127.893
124.877
121.498
117.769
113.706
109.325
104.645
99.686
94.468
89.015
83.348
77.493
71.474
65.316
59.046
52.688
46.269
39.814
33.349
26.898
20.486
14.137
7.873
1.716
-4.313
-10.197
-15.915
-21.452
-26.792
-31.922
-36.83
-41.505
-45.937
-50.12
-54.047
-57.713
-61.117
-64.255
-67.129
-69.739
-72.088
-74.179
-76.018
-77.611
-78.964
-80.085
-80.983
-81.668
-82.149
-82.436
-82.542
-82.476
-82.252
-81.88
-81.373
-80.742
-79.999
-79.155
-78.223
-77.212
-76.134
-74.999
-73.816
-72.595
-71.344
-70.073
-68.788
-67.497
-66.208
-64.926
-63.656
-62.405
-61.176
-59.975
-58.804
-57.668
-56.568
-55.507
-54.488
-53.512
-52.579
-51.692
-50.849
-50.051
-49.298
-48.589
-47.923
-47.3
-46.717
-46.173
-45.668
-45.199
-44.764
-44.361
-43.99
-43.647
-43.331
-43.04
-42.771
-42.522
-42.292
-42.078
-41.878
-41.69
-41.512
-41.342
-41.177
-41.017
-40.859
-40.702
-40.543
-40.381
-40.215
-40.045
-39.868
-39.684
-39.493
-39.295
-39.09
-38.878
-38.66
-38.437
-38.209
-37.977
-37.744
-37.51
-37.278
-37.05
-36.827
-36.612
-36.408
-36.217
-36.042
-35.885
-35.749
-35.635
-35.547
-35.487
-35.456
-35.456
-35.488
-35.555
-35.658
-35.796
-35.971
-36.182
-36.429
-36.71
-37.024
-37.369
-37.741
-38.137
-38.554
-38.986
-39.429
-39.878
-40.327
-40.77
-41.2
-41.609
-41.991
-42.338
-42.642
-42.894
-43.086
-43.212
-43.262
-43.23
-43.109
-42.894
-42.577
-42.153
-41.619
-40.971
-40.204
-39.316
-38.307
-37.175
-35.923
-34.551
-33.065
-31.47
-29.775
-27.989
-26.121
-24.184
-22.19
-20.154
-18.091
-16.018
-13.951
-11.907
-9.905
-7.965
-6.107
-4.35
-2.713
-1.214
0.132
1.308
2.299
3.093
3.68
4.054
4.209
4.137
3.829
3.278
2.482
1.442
0.161
-1.356
-3.101
-5.059
-7.201
-9.497
-11.915
-14.418
-16.983
-19.58
-22.18
-24.759
-27.274
-29.685
-31.964
-34.068
-35.962
-37.635
-39.06
-40.222
-41.195
-42.064
-42.97
-44.124
-45.662
-47.693
-50.377
-53.803
-57.952
-62.735
-67.832
-72.769
-77.193
-80.723
-82.911
-83.474
-82.212
-79.074
-74.471
-69.049
-63.383
-58.22
-54.495
-52.998
-54.434
-59.43
-67.379
-76.686
-86.014
-93.36
-97.736
-99.927
-98.769
-92.376
-77.266
-46.69
3.294
74.809
167.987
277.956
400.555
529.763
656.878
774.031
869.497
931.855
952.129
922.306
841.815
716.185
556.858
382.479
212.204
64.153
-47.75
-118.333
-148.754
-147.206
-127.184
-101.489
-81.239
-72.678
-74.439
-81.769
-88.247
-87.985
-80.374
-68.106
-55.145
-46.03
-42.263
-42.963
-46.572
-51.098
-55.701
-60.211
-64.403
-68.077
-70.743
-72.115
-72.328
-71.581
-70.114
-68.263
-66.303
-64.593
-63.636
-63.641
-64.594
-66.423
-68.908
-71.818
-74.968
-78.078
-80.841
-83.097
-84.767
-85.832
-86.355
-86.372
-85.904
-85.018
-83.778
-82.238
-80.448
-78.439
-76.244
-73.909
-71.49
-69.042
-66.605
-64.2
-61.836
-59.512
-57.223
-54.956
-52.697
-50.419
-48.105
-45.738
-43.303
-40.788
-38.177
-35.451
-32.593
-29.586
-26.413
-23.066
-19.535
-15.814
-11.902
-7.798
-3.504
0.974
5.632
10.466
15.468
20.633
25.949
31.407
36.992
42.69
48.483
54.353
60.278
66.236
72.202
78.152
84.061
89.901
95.645
101.267
106.739
112.032
117.12
121.977
126.575
130.89
134.897
138.574
141.9
144.856
147.422
149.585
151.33
152.646
153.524
153.957
153.941
153.474
152.555
151.188
149.379
147.134
144.465
141.383
137.905
134.047
129.829
125.271
120.397
115.23
109.797
104.124
98.238
92.169
85.944
79.594
73.147
66.632
60.079
53.516
46.971
40.47
34.039
27.703
21.486
15.409
9.493
3.758
-1.78
-7.105
-12.202
-17.06
-21.668
-26.019
-30.105
-33.922
-37.468
-40.741
-43.743
-46.476
-48.943
-51.152
-53.108
-54.82
-56.298
-57.551
-58.592
-59.433
-60.086
-60.564
-60.882
-61.054
-61.093
-61.013
-60.828
-60.553
-60.2
-59.783
-59.314
-58.806
-58.269
-57.715
-57.154
-56.595
-56.046
-55.514
-55.007
-54.53
-54.088
-53.685
-53.323
-53.006
-52.733
-52.507
-52.325
-52.188
-52.094
-52.041
-52.025
-52.045
-52.095
-52.173
-52.275
-52.397
-52.533
-52.68
-52.834
-52.99
-53.143
-53.29
-53.426
-53.548
-53.652
-53.735
-53.794
-53.827
-53.83
-53.803
-53.744
-53.652
-53.527
-53.368
-53.176
-52.951
-52.695
-52.409
-52.096
-51.758
-51.397
-51.016
-50.619
-50.209
-49.789
-49.362
-48.933
-48.505
-48.082
-47.667
-47.264
-46.877
-46.509
-46.164
-45.845
-45.556
-45.3
-45.08
-44.898
-44.757
-44.659
-44.607
-44.601
-44.644
-44.736
-44.878
-45.071
-45.314
-45.607
-45.948
-46.337
-46.77
-47.245
-47.76
-48.312
-48.896
-49.508
-50.146
-50.804
-51.477
-52.16
-52.849
-53.536
-54.217
-54.885
-55.532
-56.153
-56.74
-57.285
-57.783
-58.224
-58.603
-58.911
-59.141
-59.286
-59.339
-59.292
-59.14
-58.875
-58.492
-57.986
-57.353
-56.589
-55.691
-54.657
-53.485
-52.177
-50.731
-49.149
-47.433
-45.585
-43.61
-41.513
-39.3
-36.979
-34.559
-32.05
-29.466
-26.821
-24.129
-21.408
-18.676
-15.952
-13.255
-10.606
-8.024
-5.529
-3.139
-0.873
1.25
3.212
4.995
6.584
7.962
9.116
10.034
10.71
11.143
11.334
11.281
10.986
10.439
9.636
8.575
7.255
5.676
3.841
1.759
-0.547
-3.036
-5.669
-8.407
-11.221
-14.103
-17.03
-19.968
-22.873
-25.689
-28.363
-30.864
-33.138
-35.104
-36.736
-38.066
-39.205
-40.36
-41.705
-43.342
-45.389
-47.997
-51.227
-54.995
-59.068
-63.051
-66.594
-69.512
-71.599
-72.525
-72.055
-70.195
-67.171
-63.469
-59.612
-55.907
-52.761
-50.918
-51.154
-54.069
-59.982
-68.851
-79.949
-91.941
-103.079
-110.828
-113.832
-112.682
-107.978
-99.888
-84.771
-54.885
-2.758
76.803
181.742
303.888
433.951
561.942
682.143
790.539
879.484
940.158
960.39
928.565
841.629
705.395
535.719
356.266
189.934
53.158
-45.746
-108.216
-140.9
-149.527
-141.154
-121.969
-98.114
-79.273
-70.451
-71.859
-80.07
-86.074
-84.907
-76.919
-65.052
-55.509
-51.525
-52.619
-57.221
-62.792
-68.071
-72.894
-77.063
-80.423
-82.575
-83.296
-82.784
-81.287
-79.072
-76.502
-73.895
-71.649
-70.244
-69.846
-70.41
-71.83
-73.877
-76.316
-78.94
-81.457
-83.573
-85.139
-86.088
-86.41
-86.161
-85.371
-84.067
-82.313
-80.172
-77.697
-74.939
-71.93
-68.706
-65.321
-61.837
-58.315
-54.802
-51.324
-47.894
-44.52
-41.198
-37.923
-34.683
-31.456
-28.229
-24.989
-21.723
-18.423
-15.077
-11.67
-8.186
-4.612
-0.935
2.853
6.759
10.786
14.935
19.204
23.591
28.089
32.695
37.402
42.205
47.098
52.074
57.122
62.233
67.395
72.594
77.814
83.039
88.25
93.429
98.554
103.605
108.56
113.398
118.097
122.633
126.985
131.13
135.048
138.717
142.117
145.229
148.034
150.516
152.659
154.45
155.876
156.927
157.595
157.872
157.754
157.237
156.321
155.006
153.294
151.191
148.702
145.837
142.605
139.02
135.096
130.848
126.294
121.453
116.346
110.994
105.419
99.644
93.693
87.59
81.361
75.029
68.62
62.158
55.668
49.173
42.698
36.265
29.895
23.609
17.428
11.371
5.454
-0.304
-5.89
-11.288
-16.487
-21.474
-26.239
-30.774
-35.072
-39.127
-42.934
-46.491
-49.797
-52.85
-55.653
-58.207
-60.516
-62.584
-64.417
-66.021
-67.403
-68.571
-69.533
-70.3
-70.88
-71.283
-71.521
-71.603
-71.541
-71.345
-71.026
-70.595
-70.062
-69.44
-68.736
-67.964
-67.131
-66.247
-65.323
-64.366
-63.385
-62.387
-61.381
-60.372
-59.366
-58.37
-57.388
-56.425
-55.484
-54.571
-53.686
-52.834
-52.015
-51.232
-50.486
-49.777
-49.105
-48.47
-47.872
-47.311
-46.784
-46.291
-45.83
-45.4
-44.998
-44.622
-44.27
-43.939
-43.627
-43.332
-43.051
-42.782
-42.522
-42.269
-42.022
-41.779
-41.537
-41.295
-41.052
-40.806
-40.557
-40.304
-40.046
-39.783
-39.515
-39.242
-38.965
-38.684
-38.401
-38.115
-37.829
-37.545
-37.263
-36.986
-36.717
-36.458
-36.211
-35.979
-35.765
-35.572
-35.403
-35.26
-35.148
-35.067
-35.022
-35.015
-35.047
-35.122
-35.241
-35.405
-35.617
-35.876
-36.183
-36.538
-36.941
-37.39
-37.884
-38.422
-39.001
-39.618
-40.27
-40.954
-41.665
-42.399
-43.149
-43.91
-44.676
-45.439
-46.191
-46.926
-47.635
-48.311
-48.944
-49.527
-50.05
-50.506
-50.884
-51.177
-51.376
-51.472
-51.458
-51.326
-51.071
-50.687
-50.168
-49.51
-48.709
-47.764
-46.672
-45.432
-44.044
-42.509
-40.832
-39.015
-37.064
-34.988
-32.794
-30.494
-28.099
-25.624
-23.084
-20.494
-17.874
-15.242
-12.617
-10.02
-7.471
-4.991
-2.599
-0.317
1.837
3.845
5.687
7.346
8.804
10.047
11.062
11.845
12.389
12.691
12.749
12.554
12.104
11.399
10.436
9.214
7.736
6.008
4.045
1.88
-0.45
-2.911
-5.473
-8.117
-10.828
-13.582
-16.343
-19.064
-21.701
-24.216
-26.576
-28.724
-30.59
-32.161
-33.503
-34.769
-36.17
-37.864
-39.918
-42.426
-45.544
-49.294
-53.554
-58.019
-62.199
-65.779
-68.699
-70.833
-71.917
-71.819
-70.594
-68.652
-66.614
-64.696
-62.881
-61.261
-60.603
-62.234
-66.417
-72.489
-78.82
-82.908
-84.627
-85.005
-84.68
-85.203
-86.004
-85.171
-81.358
-71.194
-49.674
-11.32
50.321
139.444
254.497
390.423
537.533
683.151
816.071
922.732
990.407
1008.949
969.212
870.697
720.82
533.505
330.94
135.928
-31.994
-157.923
-237.045
-273.111
-273.687
-250.394
-214.514
-173.835
-136.78
-108.53
-89.475
-79.07
-72.377
-63.875
-53.004
-40.736
-30.236
-25.738
-27.523
-33.9
-43.056
-52.499
-60.96
-68.262
-73.925
-77.596
-79.383
-79.517
-78.293
-76.213
-73.719
-71.115
-68.879
-67.5
-67.118
-67.679
-69.018
-70.828
-72.841
-74.884
-76.718
-78.099
-78.914
-79.119
-78.733
-77.849
-76.532
-74.82
-72.77
-70.441
-67.877
-65.131
-62.25
-59.273
-56.251
-53.225
-50.222
-47.266
-44.366
-41.523
-38.733
-35.981
-33.248
-30.519
-27.785
-25.034
-22.257
-19.44
-16.566
-13.618
-10.579
-7.437
-4.177
-0.789
2.738
6.408
10.222
14.181
18.28
22.519
26.895
31.404
36.044
40.808
45.689
50.676
55.761
60.93
66.168
71.458
76.781
82.117
87.447
92.747
97.997
103.172
108.248
113.202
118.007
122.639
127.073
131.283
135.246
138.937
142.334
145.415
148.16
150.549
152.566
154.196
155.425
156.241
156.635
156.6
156.13
155.223
153.878
152.097
149.883
147.244
144.188
140.726
136.871
132.64
128.05
123.119
117.868
112.32
106.499
100.429
94.136
87.647
80.99
74.192
67.283
60.291
53.244
46.17
39.097
32.051
25.059
18.147
11.338
4.654
-1.881
-8.247
-14.426
-20.4
-26.153
-31.672
-36.943
-41.955
-46.701
-51.173
-55.365
-59.274
-62.898
-66.236
-69.289
-72.059
-74.551
-76.769
-78.721
-80.414
-81.856
-83.057
-84.028
-84.779
-85.322
-85.67
-85.833
-85.826
-85.661
-85.351
-84.907
-84.344
-83.673
-82.906
-82.056
-81.134
-80.15
-79.115
-78.039
-76.931
-75.798
-74.65
-73.492
-72.331
-71.173
-70.023
-68.885
-67.763
-66.66
-65.578
-64.52
-63.487
-62.48
-61.5
-60.547
-59.619
-58.719
-57.843
-56.992
-56.165
-55.361
-54.577
-53.814
-53.069
-52.342
-51.63
-50.933
-50.25
-49.579
-48.92
-48.271
-47.633
-47.006
-46.389
-45.783
-45.188
-44.605
-44.036
-43.48
-42.94
-42.416
-41.911
-41.426
-40.962
-40.522
-40.108
-39.721
-39.364
-39.039
-38.747
-38.491
-38.272
-38.092
-37.953
-37.855
-37.801
-37.792
-37.828
-37.912
-38.043
-38.223
-38.452
-38.73
-39.056
-39.429
-39.85
-40.315
-40.824
-41.373
-41.961
-42.585
-43.241
-43.925
-44.635
-45.366
-46.113
-46.872
-47.637
-48.402
-49.163
-49.914
-50.647
-51.357
-52.038
-52.684
-53.288
-53.843
-54.344
-54.784
-55.156
-55.454
-55.67
-55.799
-55.835
-55.771
-55.603
-55.327
-54.939
-54.435
-53.813
-53.071
-52.208
-51.223
-50.117
-48.891
-47.547
-46.087
-44.517
-42.841
-41.067
-39.203
-37.26
-35.248
-33.179
-31.066
-28.923
-26.765
-24.607
-22.467
-20.361
-18.304
-16.316
-14.415
-12.618
-10.944
-9.408
-8.025
-6.808
-5.772
-4.929
-4.29
-3.859
-3.638
-3.628
-3.831
-4.255
-4.901
-5.767
-6.849
-8.144
-9.643
-11.343
-13.228
-15.27
-17.437
-19.694
-22.009
-24.364
-26.743
-29.132
-31.508
-33.827
-36.054
-38.159
-40.106
-41.873
-43.427
-44.705
-45.731
-46.606
-47.464
-48.53
-49.993
-51.924
-54.46
-57.762
-61.778
-66.376
-71.271
-75.858
-79.674
-82.439
-83.701
-83.09
-80.578
-76.196
-70.301
-63.812
-57.465
-51.909
-48.127
-47.001
-49.094
-54.858
-64.366
-76.442
-89.277
-101.123
-109.49
-113.194
-112.975
-108.091
-97.268
-77.379
-41.872
13.172
89.213
184.998
294.319
411.842
531.803
647.201
751.911
835.991
888.727
900.652
863.155
774.931
641.593
475.571
297.448
128.825
-12.123
-113.134
-172.721
-196.943
-193.634
-172.719
-142.502
-108.871
-79.893
-60.773
-52.204
-52.762
-56.198
-56.678
-53.323
-47.405
-42.445
-42.021
-46.24
-53.628
-62.337
-70.2
-76.21
-80.121
-81.845
-81.703
-80.099
-77.384
-73.981
-70.379
-67.099
-64.673
-63.408
-63.319
-64.285
-66.1
-68.528
-71.342
-74.252
-76.911
-79.1
-80.732
-81.779
-82.28
-82.264
-81.732
-80.721
-79.297
-77.51
-75.405
-73.017
-70.362
-67.483
-64.437
-61.286
-58.093
-54.902
-51.732
-48.6
-45.512
-42.469
-39.468
-36.497
-33.537
-30.573
-27.593
-24.586
-21.543
-18.449
-15.289
-12.045
-8.703
-5.25
-1.678
2.02
5.848
9.808
13.899
18.117
22.459
26.918
31.49
36.169
40.948
45.821
50.776
55.802
60.888
66.02
71.181
76.353
81.52
86.659
91.751
96.775
101.707
106.526
111.209
115.733
120.074
124.21
128.119
131.779
135.169
138.269
141.061
143.527
145.651
147.42
148.822
149.846
150.483
150.729
150.577
150.027
149.077
147.73
145.988
143.859
141.349
138.469
135.23
131.647
127.735
123.511
118.994
114.206
109.167
103.9
98.429
92.778
86.971
81.036
74.996
68.877
62.705
56.506
50.303
44.12
37.981
31.908
25.922
20.043
14.289
8.679
3.229
-2.048
-7.137
-12.027
-16.707
-21.169
-25.404
-29.408
-33.174
-36.701
-39.987
-43.031
-45.835
-48.401
-50.732
-52.833
-54.709
-56.368
-57.815
-59.06
-60.111
-60.976
-61.666
-62.189
-62.556
-62.777
-62.863
-62.822
-62.665
-62.402
-62.042
-61.595
-61.068
-60.471
-59.812
-59.098
-58.336
-57.534
-56.698
-55.833
-54.945
-54.04
-53.121
-52.193
-51.26
-50.323
-49.388
-48.454
-47.526
-46.604
-45.69
-44.786
-43.892
-43.01
-42.141
-41.285
-40.443
-39.617
-38.805
-38.01
-37.232
-36.471
-35.728
-35.003
-34.299
-33.614
-32.951
-32.31
-31.69
-31.095
-30.523
-29.976
-29.454
-28.958
-28.489
-28.047
-27.634
-27.25
-26.896
-26.573
-26.281
-26.021
-25.795
-25.601
-25.441
-25.315
-25.224
-25.166
-25.142
-25.153
-25.197
-25.275
-25.387
-25.531
-25.708
-25.917
-26.157
-26.429
-26.731
-27.064
-27.426
-27.818
-28.239
-28.689
-29.167
-29.674
-30.209
-30.772
-31.361
-31.977
-32.617
-33.282
-33.97
-34.679
-35.408
-36.155
-36.918
-37.695
-38.484
-39.283
-40.089
-40.9
-41.711
-42.52
-43.323
-44.115
-44.893
-45.651
-46.385
-47.09
-47.76
-48.39
-48.974
-49.506
-49.98
-50.389
-50.728
-50.988
-51.164
-51.25
-51.239
-51.126
-50.908
-50.579
-50.134
-49.572
-48.889
-48.083
-47.153
-46.098
-44.917
-43.612
-42.186
-40.642
-38.985
-37.22
-35.356
-33.401
-31.367
-29.265
-27.109
-24.914
-22.695
-20.47
-18.255
-16.068
-13.925
-11.842
-9.836
-7.924
-6.124
-4.452
-2.924
-1.557
-0.366
0.637
1.441
2.043
2.442
2.635
2.619
2.382
1.914
1.212
0.271
-0.913
-2.335
-3.991
-5.861
-7.902
-10.079
-12.355
-14.704
-17.118
-19.581
-22.061
-24.522
-26.908
-29.166
-31.264
-33.145
-34.739
-36.038
-37.082
-37.982
-38.941
-40.102
-41.55
-43.412
-45.778
-48.621
-51.815
-55.084
-58.085
-60.66
-62.747
-64.188
-64.861
-64.769
-64.076
-63.174
-62.409
-61.824
-61.359
-61.17
-61.552
-62.719
-64.791
-67.659
-71.215
-75.752
-81.064
-85.926
-88.878
-88.098
-82.837
-74.052
-61.449
-44.184
-19.564
17.644
70.037
139.879
227.898
330.866
446.476
569.021
688.477
793.482
869.458
902.96
886.19
818.109
704.26
556.951
392.676
228.126
80.589
-36.239
-115.705
-157.302
-166.491
-152.718
-126.085
-94.543
-65.928
-46.076
-36.153
-36.109
-41.872
-47.315
-50.574
-51.319
-51.325
-54.369
-60.889
-69.382
-78.097
-84.388
-87.208
-87.064
-84.455
-80.146
-74.957
-69.433
-64.181
-59.945
-57.118
-55.767
-55.872
-57.24
-59.608
-62.762
-66.43
-70.25
-73.966
-77.403
-80.404
-82.921
-84.926
-86.373
-87.264
-87.62
-87.455
-86.803
-85.705
-84.188
-82.29
-80.06
-77.542
-74.795
-71.883
-68.862
-65.79
-62.708
-59.638
-56.596
-53.587
-50.611
-47.659
-44.717
-41.762
-38.778
-35.749
-32.663
-29.508
-26.268
-22.928
-19.475
-15.897
-12.186
-8.335
-4.34
-0.2
4.085
8.512
13.075
17.767
22.58
27.506
32.538
37.666
42.879
48.164
53.51
58.9
64.319
69.749
75.171
80.563
85.903
91.17
96.341
101.393
106.303
111.046
115.601
119.945
124.056
127.912
131.494
134.782
137.758
140.405
142.709
144.655
146.232
147.431
148.243
148.662
148.686
148.312
147.54
146.372
144.812
142.868
140.546
137.857
134.814
131.43
127.721
123.706
119.403
114.833
110.018
104.981
99.744
94.333
88.772
83.085
77.297
71.433
65.517
59.575
53.628
47.701
41.816
35.992
30.251
24.611
19.091
13.705
8.469
3.398
-1.498
-6.206
-10.718
-15.025
-19.121
-23
-26.659
-30.096
-33.31
-36.3
-39.07
-41.621
-43.959
-46.087
-48.013
-49.742
-51.282
-52.641
-53.828
-54.852
-55.721
-56.446
-57.036
-57.501
-57.851
-58.095
-58.242
-58.302
-58.284
-58.195
-58.045
-57.84
-57.589
-57.299
-56.975
-56.625
-56.255
-55.869
-55.472
-55.069
-54.664
-54.259
-53.859
-53.464
-53.078
-52.701
-52.334
-51.98
-51.637
-51.307
-50.989
-50.683
-50.388
-50.105
-49.831
-49.567
-49.311
-49.062
-48.819
-48.583
-48.351
-48.122
-47.897
-47.674
-47.453
-47.233
-47.013
-46.792
-46.57
-46.346
-46.12
-45.891
-45.659
-45.423
-45.184
-44.942
-44.696
-44.447
-44.196
-43.942
-43.687
-43.432
-43.177
-42.923
-42.673
-42.426
-42.185
-41.951
-41.725
-41.51
-41.306
-41.116
-40.941
-40.783
-40.644
-40.524
-40.426
-40.352
-40.302
-40.279
-40.284
-40.318
-40.384
-40.482
-40.614
-40.781
-40.985
-41.224
-41.501
-41.815
-42.166
-42.554
-42.978
-43.436
-43.927
-44.449
-45
-45.577
-46.177
-46.797
-47.432
-48.079
-48.733
-49.389
-50.042
-50.686
-51.315
-51.924
-52.507
-53.057
-53.569
-54.035
-54.451
-54.808
-55.101
-55.322
-55.467
-55.528
-55.499
-55.376
-55.152
-54.825
-54.391
-53.845
-53.186
-52.412
-51.521
-50.515
-49.391
-48.153
-46.802
-45.342
-43.777
-42.115
-40.362
-38.527
-36.622
-34.656
-32.643
-30.597
-28.531
-26.463
-24.409
-22.385
-20.408
-18.495
-16.664
-14.932
-13.315
-11.828
-10.486
-9.302
-8.29
-7.462
-6.828
-6.397
-6.17
-6.148
-6.329
-6.717
-7.316
-8.129
-9.152
-10.386
-11.826
-13.471
-15.312
-17.333
-19.501
-21.779
-24.131
-26.529
-28.957
-31.403
-33.846
-36.248
-38.563
-40.753
-42.778
-44.616
-46.219
-47.519
-48.511
-49.264
-49.916
-50.683
-51.74
-53.165
-55.078
-57.64
-60.838
-64.576
-68.603
-72.418
-75.66
-78.139
-79.54
-79.548
-78.099
-75.196
-71.098
-66.501
-61.865
-57.566
-54.284
-52.619
-53.089
-56.246
-62.215
-70.769
-81.215
-91.892
-100.9
-106.126
-106.733
-103.726
-96.768
-84.807
-64.112
-27.62
28.416
106.092
204.662
318.236
442.662
571.906
696.881
808.677
893.883
939.083
934.731
874.447
759.919
600.511
412.109
217.276
39.258
-101.942
-194.221
-237.779
-240.115
-214.397
-175.798
-134.439
-99.605
-76.977
-65.56
-63.584
-65.296
-64.056
-59.166
-51.817
-45.278
-44.004
-48.265
-56.265
-66.131
-75.235
-82.348
-87.399
-90.059
-90.487
-89.189
-86.531
-82.956
-79.012
-75.113
-71.667
-69.194
-67.906
-67.741
-68.574
-70.159
-72.221
-74.54
-76.828
-78.774
-80.213
-81.073
-81.339
-81.061
-80.271
-78.988
-77.268
-75.174
-72.754
-70.049
-67.09
-63.908
-60.557
-57.103
-53.612
-50.137
-46.71
-43.35
-40.069
-36.87
-33.751
-30.699
-27.694
-24.72
-21.766
-18.817
-15.864
-12.892
-9.883
-6.819
-3.682
-0.455
2.875
6.318
9.881
13.57
17.388
21.334
25.407
29.604
33.924
38.364
42.922
47.593
52.37
57.245
62.211
67.254
72.362
77.52
82.711
87.916
93.117
98.292
103.421
108.481
113.448
118.298
123.009
127.556
131.914
136.059
139.968
143.619
146.988
150.057
152.805
155.215
157.271
158.958
160.264
161.179
161.693
161.8
161.496
160.778
159.644
158.098
156.141
153.781
151.025
147.883
144.368
140.495
136.28
131.74
126.895
121.767
116.377
110.75
104.91
98.883
92.694
86.371
79.94
73.428
66.863
60.27
53.676
47.106
40.584
34.134
27.777
21.535
15.429
9.477
3.696
-1.897
-7.287
-12.462
-17.41
-22.12
-26.585
-30.796
-34.75
-38.441
-41.869
-45.031
-47.929
-50.564
-52.941
-55.064
-56.939
-58.573
-59.975
-61.153
-62.118
-62.879
-63.45
-63.839
-64.061
-64.127
-64.048
-63.838
-63.507
-63.07
-62.536
-61.918
-61.228
-60.476
-59.672
-58.828
-57.953
-57.056
-56.146
-55.23
-54.317
-53.412
-52.522
-51.653
-50.809
-49.994
-49.213
-48.468
-47.76
-47.092
-46.464
-45.877
-45.33
-44.822
-44.352
-43.919
-43.521
-43.156
-42.82
-42.513
-42.231
-41.972
-41.732
-41.509
-41.299
-41.1
-40.909
-40.723
-40.539
-40.355
-40.168
-39.977
-39.779
-39.572
-39.355
-39.127
-38.887
-38.634
-38.368
-38.088
-37.796
-37.492
-37.177
-36.852
-36.519
-36.181
-35.84
-35.498
-35.157
-34.822
-34.494
-34.176
-33.872
-33.585
-33.318
-33.075
-32.858
-32.671
-32.516
-32.398
-32.318
-32.278
-32.281
-32.328
-32.421
-32.561
-32.748
-32.982
-33.264
-33.593
-33.968
-34.388
-34.85
-35.352
-35.89
-36.462
-37.063
-37.689
-38.333
-38.99
-39.655
-40.321
-40.982
-41.632
-42.263
-42.868
-43.441
-43.974
-44.459
-44.889
-45.257
-45.556
-45.78
-45.922
-45.978
-45.943
-45.811
-45.58
-45.246
-44.808
-44.265
-43.615
-42.859
-41.997
-41.034
-39.971
-38.814
-37.568
-36.241
-34.843
-33.385
-31.878
-30.335
-28.769
-27.194
-25.627
-24.08
-22.567
-21.1
-19.693
-18.359
-17.115
-15.976
-14.954
-14.063
-13.315
-12.72
-12.291
-12.033
-11.949
-12.038
-12.306
-12.757
-13.408
-14.27
-15.348
-16.644
-18.159
-19.883
-21.81
-23.918
-26.168
-28.523
-30.942
-33.392
-35.852
-38.292
-40.673
-42.948
-45.055
-46.939
-48.562
-49.892
-50.9
-51.583
-51.957
-52.065
-51.989
-51.814
-51.626
-51.514
-51.549
-51.811
-52.373
-53.319
-54.795
-56.91
-59.69
-63.085
-66.908
-70.896
-74.798
-78.268
-80.794
-81.942
-81.47
-79.393
-76.137
-72.357
-68.746
-66.114
-65.465
-67.252
-70.836
-74.854
-77.211
-76.79
-74.606
-72.129
-69.768
-64.127
-47.704
-11.299
52.547
144.625
259.77
387.577
514.848
630.956
726.09
792.195
822.992
811.872
755.602
655.075
517.527
357.367
192.799
44.042
-74.368
-156.737
-204.12
-225.28
-227.574
-213.342
-185.846
-146.774
-101.875
-63.048
-36.959
-26.184
-28.091
-33.361
-36.978
-37.897
-37.162
-39.119
-45.161
-53.904
-63.606
-71.618
-76.53
-78.515
-78.014
-75.72
-72.353
-68.381
-64.294
-60.677
-58.046
-56.637
-56.472
-57.435
-59.267
-61.715
-64.519
-67.342
-69.882
-71.963
-73.504
-74.495
-74.972
-74.955
-74.466
-73.556
-72.281
-70.682
-68.79
-66.621
-64.199
-61.568
-58.788
-55.923
-53.02
-50.107
-47.204
-44.321
-41.465
-38.635
-35.822
-33.006
-30.173
-27.313
-24.416
-21.476
-18.479
-15.41
-12.254
-8.994
-5.618
-2.116
1.52
5.296
9.215
13.277
17.48
21.82
26.292
30.893
35.618
40.461
45.415
50.472
55.621
60.852
66.15
71.502
76.891
82.298
87.704
93.091
98.438
103.722
108.923
114.017
118.982
123.796
128.435
132.876
137.099
141.08
144.798
148.235
151.369
154.184
156.663
158.79
160.553
161.939
162.94
163.546
163.753
163.557
162.955
161.948
160.539
158.73
156.531
153.947
150.992
147.677
144.017
140.028
135.728
131.137
126.275
121.164
115.827
110.286
104.566
98.692
92.69
86.583
80.398
74.161
67.895
61.626
55.377
49.172
43.033
36.982
31.038
25.221
19.548
14.036
8.699
3.552
-1.393
-6.127
-10.64
-14.925
-18.976
-22.789
-26.361
-29.69
-32.778
-35.626
-38.235
-40.611
-42.757
-44.681
-46.389
-47.888
-49.188
-50.298
-51.228
-51.987
-52.587
-53.039
-53.353
-53.541
-53.615
-53.585
-53.462
-53.256
-52.979
-52.64
-52.249
-51.815
-51.345
-50.849
-50.334
-49.806
-49.271
-48.736
-48.204
-47.681
-47.169
-46.673
-46.195
-45.736
-45.3
-44.886
-44.495
-44.128
-43.785
-43.465
-43.167
-42.891
-42.634
-42.397
-42.177
-41.972
-41.781
-41.603
-41.435
-41.276
-41.124
-40.978
-40.835
-40.696
-40.559
-40.423
-40.287
-40.151
-40.014
-39.876
-39.737
-39.597
-39.456
-39.314
-39.172
-39.03
-38.889
-38.75
-38.613
-38.48
-38.352
-38.23
-38.115
-38.009
-37.912
-37.826
-37.752
-37.692
-37.647
-37.618
-37.607
-37.615
-37.643
-37.692
-37.763
-37.857
-37.975
-38.117
-38.285
-38.478
-38.697
-38.943
-39.216
-39.517
-39.845
-40.2
-40.583
-40.993
-41.43
-41.892
-42.38
-42.892
-43.426
-43.983
-44.561
-45.157
-45.769
-46.396
-47.035
-47.683
-48.335
-48.99
-49.642
-50.288
-50.923
-51.544
-52.146
-52.725
-53.275
-53.792
-54.271
-54.706
-55.093
-55.425
-55.698
-55.905
-56.042
-56.105
-56.089
-55.989
-55.802
-55.525
-55.155
-54.688
-54.123
-53.458
-52.691
-51.823
-50.855
-49.789
-48.628
-47.378
-46.046
-44.641
-43.172
-41.648
-40.079
-38.478
-36.857
-35.229
-33.605
-31.999
-30.425
-28.898
-27.433
-26.047
-24.754
-23.566
-22.497
-21.556
-20.756
-20.109
-19.62
-19.294
-19.136
-19.153
-19.359
-19.766
-20.376
-21.191
-22.21
-23.427
-24.835
-26.418
-28.145
-29.987
-31.908
-33.874
-35.863
-37.852
-39.816
-41.732
-43.561
-45.267
-46.819
-48.187
-49.344
-50.286
-51.017
-51.546
-51.953
-52.352
-52.901
-53.804
-55.24
-57.33
-60.145
-63.75
-68.113
-73.074
-78.343
-83.451
-87.882
-91.204
-93.131
-93.425
-91.993
-88.999
-84.777
-79.977
-75.476
-72.174
-70.862
-72.173
-76.561
-83.632
-92.153
-100.657
-107.181
-110.936
-112.866
-113.003
-110.173
-100.124
-75.017
-28.516
41.851
132.892
235.936
342.075
445.312
543.158
634.811
717.082
782.169
818.458
814.282
762.199
661.986
522.371
359.589
194.211
46.969
-66.335
-138.566
-171.889
-174.112
-156.28
-129.072
-99.675
-75.234
-60.075
-53.74
-54.618
-57.388
-56.582
-51.956
-45.137
-39.285
-37.953
-41.304
-47.764
-55.743
-63.38
-69.518
-73.768
-75.968
-76.264
-75.049
-72.756
-69.733
-66.349
-63.157
-60.717
-59.365
-59.219
-60.171
-61.988
-64.465
-67.396
-70.483
-73.384
-75.864
-77.8
-79.158
-79.978
-80.28
-80.067
-79.374
-78.259
-76.771
-74.951
-72.831
-70.427
-67.778
-64.943
-61.986
-58.973
-55.951
-52.948
-49.981
-47.063
-44.194
-41.375
-38.595
-35.836
-33.086
-30.332
-27.566
-24.78
-21.962
-19.095
-16.163
-13.151
-10.046
-6.837
-3.518
-0.082
3.473
7.15
10.948
14.864
18.894
23.038
27.292
31.653
36.117
40.678
45.326
50.055
54.853
59.708
64.606
69.531
74.467
79.396
84.298
89.154
93.943
98.645
103.237
107.698
112.005
116.138
120.075
123.793
127.274
130.497
133.443
136.095
138.437
140.454
142.133
143.463
144.433
145.037
145.266
145.119
144.591
143.684
142.398
140.736
138.705
136.312
133.568
130.483
127.072
123.349
119.333
115.042
110.496
105.716
100.725
95.544
90.199
84.713
79.112
73.419
67.661
61.861
56.044
50.235
44.456
38.729
33.078
27.521
22.078
16.768
11.608
6.612
1.795
-2.831
-7.253
-11.462
-15.45
-19.211
-22.739
-26.031
-29.085
-31.9
-34.478
-36.821
-38.934
-40.82
-42.486
-43.94
-45.19
-46.244
-47.112
-47.805
-48.334
-48.709
-48.943
-49.047
-49.033
-48.914
-48.7
-48.402
-48.033
-47.603
-47.122
-46.601
-46.047
-45.472
-44.882
-44.286
-43.69
-43.101
-42.525
-41.967
-41.43
-40.919
-40.436
-39.983
-39.562
-39.173
-38.818
-38.495
-38.205
-37.945
-37.714
-37.511
-37.332
-37.176
-37.039
-36.919
-36.813
-36.717
-36.629
-36.545
-36.463
-36.379
-36.292
-36.198
-36.095
-35.98
-35.853
-35.71
-35.55
-35.372
-35.174
-34.956
-34.717
-34.457
-34.175
-33.871
-33.547
-33.203
-32.839
-32.457
-32.057
-31.643
-31.215
-30.775
-30.326
-29.87
-29.409
-28.945
-28.481
-28.019
-27.563
-27.113
-26.674
-26.247
-25.835
-25.44
-25.066
-24.713
-24.386
-24.085
-23.813
-23.573
-23.366
-23.194
-23.059
-22.963
-22.908
-22.895
-22.925
-22.999
-23.119
-23.284
-23.494
-23.75
-24.051
-24.396
-24.784
-25.214
-25.684
-26.193
-26.737
-27.315
-27.923
-28.558
-29.216
-29.894
-30.586
-31.288
-31.995
-32.702
-33.404
-34.094
-34.767
-35.417
-36.037
-36.622
-37.164
-37.656
-38.092
-38.465
-38.769
-38.996
-39.141
-39.198
-39.163
-39.029
-38.793
-38.452
-38.002
-37.441
-36.768
-35.982
-35.082
-34.069
-32.946
-31.715
-30.381
-28.949
-27.428
-25.826
-24.153
-22.42
-20.639
-18.821
-16.979
-15.127
-13.278
-11.449
-9.653
-7.906
-6.227
-4.631
-3.136
-1.758
-0.513
0.586
1.528
2.301
2.899
3.311
3.531
3.551
3.361
2.954
2.328
1.481
0.414
-0.867
-2.352
-4.019
-5.841
-7.792
-9.844
-11.973
-14.156
-16.359
-18.549
-20.694
-22.755
-24.712
-26.546
-28.223
-29.713
-30.991
-32.05
-32.933
-33.706
-34.399
-35.069
-35.804
-36.719
-38.032
-39.937
-42.492
-45.72
-49.633
-54.153
-59.172
-64.453
-69.451
-73.56
-76.377
-77.602
-77.066
-74.777
-70.764
-65.32
-59.251
-53.592
-49.308
-47.223
-47.854
-51.544
-58.012
-65.909
-73.366
-77.904
-78.214
-74.776
-67.558
-55.927
-36.579
-3.803
47.346
120.318
214.596
326.615
449.718
573.962
688.417
779.582
835.973
849.868
817.341
742.002
629.909
490.681
337.515
183.153
44.066
-65.199
-136.199
-165.547
-160.314
-134.072
-100.517
-72.579
-57.424
-54.198
-58.417
-63.406
-62.501
-54.586
-42.359
-29.938
-22.174
-20.569
-23.842
-30.138
-37.452
-44.761
-51.671
-57.696
-62.296
-65.14
-66.278
-65.984
-64.548
-62.306
-59.672
-57.145
-55.322
-54.539
-54.812
-56.047
-58.047
-60.588
-63.456
-66.359
-68.973
-71.111
-72.701
-73.73
-74.249
-74.294
-73.881
-73.063
-71.898
-70.429
-68.693
-66.711
-64.508
-62.127
-59.625
-57.059
-54.473
-51.894
-49.335
-46.803
-44.299
-41.818
-39.347
-36.869
-34.371
-31.841
-29.27
-26.649
-23.967
-21.208
-18.357
-15.399
-12.32
-9.112
-5.765
-2.276
1.358
5.137
9.058
13.118
17.313
21.639
26.09
30.661
35.346
40.134
45.017
49.982
55.015
60.102
65.225
70.366
75.506
80.624
85.699
90.709
95.631
100.442
105.119
109.638
113.976
118.111
122.018
125.678
129.068
132.17
134.964
137.433
139.563
141.338
142.747
143.78
144.428
144.686
144.548
144.013
143.081
141.753
140.033
137.929
135.447
132.598
129.395
125.852
121.986
117.813
113.354
108.629
103.661
98.472
93.086
87.529
81.825
76
70.079
64.089
58.055
52.002
45.954
39.937
33.972
28.082
22.288
16.611
11.067
5.676
0.453
-4.588
-9.434
-14.073
-18.495
-22.692
-26.657
-30.385
-33.871
-37.115
-40.114
-42.871
-45.386
-47.664
-49.709
-51.526
-53.123
-54.506
-55.685
-56.669
-57.467
-58.09
-58.547
-58.851
-59.012
-59.041
-58.95
-58.749
-58.449
-58.061
-57.596
-57.062
-56.469
-55.827
-55.143
-54.426
-53.683
-52.921
-52.146
-51.364
-50.58
-49.798
-49.022
-48.255
-47.501
-46.76
-46.036
-45.329
-44.641
-43.971
-43.32
-42.688
-42.075
-41.48
-40.902
-40.341
-39.795
-39.264
-38.747
-38.243
-37.751
-37.27
-36.799
-36.339
-35.888
-35.446
-35.013
-34.588
-34.173
-33.767
-33.371
-32.984
-32.609
-32.245
-31.893
-31.555
-31.231
-30.922
-30.63
-30.355
-30.099
-29.862
-29.645
-29.449
-29.275
-29.124
-28.995
-28.889
-28.807
-28.749
-28.715
-28.705
-28.718
-28.754
-28.813
-28.895
-28.998
-29.122
-29.265
-29.428
-29.608
-29.805
-30.018
-30.244
-30.484
-30.737
-31
-31.273
-31.555
-31.845
-32.142
-32.446
-32.756
-33.073
-33.395
-33.723
-34.058
-34.398
-34.746
-35.1
-35.463
-35.833
-36.211
-36.599
-36.995
-37.401
-37.817
-38.244
-38.68
-39.127
-39.584
-40.052
-40.529
-41.015
-41.51
-42.011
-42.518
-43.028
-43.54
-44.05
-44.557
-45.056
-45.546
-46.021
-46.479
-46.913
-47.321
-47.696
-48.033
-48.327
-48.573
-48.766
-48.901
-48.972
-48.977
-48.909
-48.765
-48.542
-48.235
-47.844
-47.364
-46.794
-46.135
-45.386
-44.548
-43.623
-42.616
-41.53
-40.373
-39.151
-37.873
-36.551
-35.195
-33.817
-32.432
-31.052
-29.69
-28.36
-27.074
-25.845
-24.686
-23.611
-22.632
-21.762
-21.014
-20.395
-19.915
-19.575
-19.377
-19.321
-19.409
-19.647
-20.043
-20.6
-21.326
-22.226
-23.302
-24.552
-25.963
-27.507
-29.156
-30.884
-32.671
-34.513
-36.397
-38.299
-40.186
-42.016
-43.744
-45.342
-46.756
-47.907
-48.774
-49.393
-49.866
-50.39
-51.117
-52.11
-53.482
-55.375
-57.785
-60.608
-63.589
-66.279
-68.418
-69.966
-70.77
-70.614
-69.477
-67.445
-64.858
-62.345
-60.195
-58.388
-57.186
-57.023
-58.171
-60.985
-65.558
-71.558
-79.142
-88.08
-96.778
-103.365
-105.873
-103.588
-98.194
-91.041
-81.493
-65.203
-34.524
17.566
95.06
196.096
314.357
441.02
566.334
681.858
777.67
844.422
872.93
854.924
789.493
679.846
535.671
373.428
209.284
60.961
-56.7
-136.868
-178.733
-187.571
-173.308
-146.235
-114.39
-86.037
-66.996
-57.89
-58.024
-62.502
-64.702
-63.332
-59.131
-54.614
-53.942
-57.811
-64.791
-73.393
-81.436
-87.531
-91.377
-92.951
-92.564
-90.733
-87.93
-84.498
-80.806
-77.409
-74.85
-73.44
-73.282
-74.242
-76.069
-78.576
-81.57
-84.772
-87.863
-90.584
-92.786
-94.422
-95.518
-96.087
-96.13
-95.665
-94.735
-93.391
-91.679
-89.635
-87.282
-84.651
-81.793
-78.766
-75.633
-72.451
-69.259
-66.078
-62.924
-59.804
-56.717
-53.66
-50.623
-47.587
-44.539
-41.469
-38.365
-35.219
-32.019
-28.75
-25.398
-21.95
-18.397
-14.733
-10.954
-7.057
-3.044
1.085
5.326
9.672
14.118
18.659
23.289
28.001
32.787
37.638
42.542
47.488
52.464
57.453
62.441
67.409
72.34
77.214
82.013
86.715
91.302
95.751
100.043
104.157
108.073
111.77
115.231
118.435
121.366
124.008
126.346
128.366
130.056
131.405
132.406
133.051
133.334
133.254
132.807
131.995
130.819
129.284
127.396
125.161
122.59
119.694
116.486
112.981
109.195
105.146
100.852
96.334
91.613
86.709
81.646
76.446
71.132
65.728
60.256
54.741
49.204
43.668
38.155
32.686
27.282
21.96
16.74
11.638
6.67
1.85
-2.808
-7.292
-11.592
-15.699
-19.606
-23.305
-26.792
-30.064
-33.119
-35.955
-38.573
-40.976
-43.164
-45.144
-46.918
-48.494
-49.877
-51.075
-52.096
-52.949
-53.642
-54.184
-54.586
-54.858
-55.008
-55.047
-54.986
-54.833
-54.598
-54.291
-53.921
-53.496
-53.023
-52.512
-51.969
-51.4
-50.812
-50.211
-49.601
-48.987
-48.373
-47.763
-47.16
-46.565
-45.981
-45.411
-44.854
-44.313
-43.787
-43.278
-42.784
-42.308
-41.847
-41.403
-40.974
-40.559
-40.159
-39.772
-39.397
-39.034
-38.682
-38.34
-38.007
-37.684
-37.368
-37.06
-36.76
-36.467
-36.18
-35.9
-35.627
-35.361
-35.103
-34.851
-34.607
-34.371
-34.144
-33.925
-33.716
-33.515
-33.324
-33.142
-32.97
-32.806
-32.65
-32.503
-32.364
-32.231
-32.105
-31.985
-31.869
-31.759
-31.652
-31.548
-31.447
-31.347
-31.25
-31.154
-31.058
-30.964
-30.87
-30.777
-30.685
-30.593
-30.502
-30.413
-30.325
-30.24
-30.157
-30.079
-30.006
-29.94
-29.881
-29.833
-29.796
-29.773
-29.767
-29.78
-29.815
-29.873
-29.959
-30.075
-30.223
-30.406
-30.626
-30.884
-31.183
-31.523
-31.905
-32.33
-32.796
-33.305
-33.855
-34.444
-35.072
-35.735
-36.431
-37.157
-37.909
-38.684
-39.475
-40.278
-41.087
-41.896
-42.699
-43.488
-44.255
-44.994
-45.696
-46.352
-46.953
-47.491
-47.956
-48.339
-48.631
-48.823
-48.909
-48.88
-48.73
-48.453
-48.043
-47.498
-46.812
-45.984
-45.011
-43.893
-42.631
-41.226
-39.682
-38.004
-36.197
-34.27
-32.234
-30.099
-27.878
-25.585
-23.235
-20.845
-18.435
-16.021
-13.623
-11.262
-8.957
-6.73
-4.6
-2.588
-0.712
1.01
2.56
3.923
5.083
6.029
6.756
7.258
7.534
7.576
7.376
6.93
6.238
5.3
4.116
2.69
1.027
-0.857
-2.929
-5.153
-7.496
-9.93
-12.441
-15.016
-17.633
-20.255
-22.833
-25.329
-27.702
-29.927
-31.955
-33.716
-35.201
-36.474
-37.668
-38.987
-40.603
-42.597
-45.095
-48.261
-52.082
-56.454
-61.123
-65.571
-69.407
-72.397
-74.158
-74.325
-72.815
-69.64
-65.091
-59.928
-54.676
-49.808
-46.148
-44.401
-45.115
-48.806
-55.49
-64.784
-75.947
-87.313
-96.753
-101.933
-101.672
-96.548
-86.436
-70.888
-46.977
-8.691
47.274
123.327
219.498
331.198
455.237
586.036
713.789
827.248
911.285
950.543
935.575
864.394
742.23
583.265
406.81
232.058
78.731
-39.311
-117.556
-157.787
-167.797
-157.862
-136.534
-110.01
-84.738
-65.978
-55.411
-53.399
-55.799
-56.029
-52.048
-44.058
-34.818
-29.244
-28.785
-32.468
-38.854
-45.751
-51.945
-57.339
-61.696
-64.699
-66.33
-66.697
-65.968
-64.448
-62.508
-60.424
-58.578
-57.482
-57.318
-58.065
-59.654
-61.856
-64.447
-67.252
-69.996
-72.381
-74.256
-75.55
-76.248
-76.412
-76.074
-75.251
-74.003
-72.391
-70.465
-68.271
-65.839
-63.195
-60.387
-57.468
-54.492
-51.502
-48.52
-45.559
-42.623
-39.708
-36.811
-33.919
-31.015
-28.084
-25.117
-22.101
-19.029
-15.891
-12.671
-9.359
-5.94
-2.403
1.259
5.051
8.975
13.03
17.216
21.527
25.958
30.501
35.153
39.904
44.748
49.677
54.679
59.743
64.856
70.003
75.168
80.333
85.48
90.59
95.642
100.615
105.489
110.241
114.851
119.296
123.554
127.606
131.429
135.004
138.312
141.334
144.054
146.456
148.526
150.251
151.621
152.627
153.261
153.519
153.397
152.894
152.01
150.748
149.111
147.106
144.74
142.025
138.97
135.59
131.899
127.915
123.655
119.138
114.385
109.418
104.257
98.927
93.45
87.849
82.149
76.373
70.546
64.69
58.829
52.985
47.179
41.432
35.764
30.193
24.738
19.413
14.234
9.215
4.369
-0.294
-4.764
-9.031
-13.09
-16.934
-20.56
-23.963
-27.142
-30.097
-32.828
-35.338
-37.629
-39.705
-41.572
-43.235
-44.701
-45.977
-47.072
-47.995
-48.754
-49.36
-49.821
-50.149
-50.352
-50.441
-50.426
-50.316
-50.121
-49.85
-49.511
-49.113
-48.665
-48.173
-47.644
-47.087
-46.505
-45.907
-45.296
-44.677
-44.055
-43.433
-42.814
-42.202
-41.599
-41.007
-40.426
-39.859
-39.306
-38.766
-38.241
-37.729
-37.229
-36.741
-36.264
-35.796
-35.337
-34.883
-34.435
-33.991
-33.549
-33.109
-32.669
-32.228
-31.786
-31.341
-30.893
-30.442
-29.987
-29.53
-29.069
-28.606
-28.141
-27.674
-27.207
-26.74
-26.274
-25.811
-25.351
-24.897
-24.448
-24.009
-23.579
-23.161
-22.756
-22.368
-21.997
-21.646
-21.317
-21.012
-20.733
-20.481
-20.26
-20.071
-19.915
-19.795
-19.712
-19.667
-19.662
-19.698
-19.775
-19.895
-20.058
-20.264
-20.514
-20.808
-21.146
-21.528
-21.954
-22.424
-22.937
-23.494
-24.093
-24.735
-25.417
-26.14
-26.903
-27.704
-28.542
-29.416
-30.325
-31.266
-32.238
-33.239
-34.266
-35.317
-36.39
-37.48
-38.586
-39.703
-40.828
-41.959
-43.09
-44.218
-45.34
-46.451
-47.547
-48.624
-49.677
-50.702
-51.693
-52.645
-53.553
-54.411
-55.213
-55.953
-56.627
-57.227
-57.749
-58.185
-58.531
-58.78
-58.926
-58.964
-58.889
-58.695
-58.379
-57.937
-57.366
-56.663
-55.827
-54.856
-53.75
-52.508
-51.132
-49.622
-47.98
-46.209
-44.314
-42.299
-40.171
-37.937
-35.607
-33.191
-30.701
-28.149
-25.549
-22.919
-20.273
-17.629
-15.006
-12.421
-9.893
-7.44
-5.08
-2.833
-0.713
1.262
3.079
4.721
6.176
7.43
8.476
9.31
9.929
10.333
10.518
10.476
10.204
9.701
8.967
8.001
6.803
5.379
3.743
1.925
-0.04
-2.116
-4.276
-6.507
-8.798
-11.13
-13.464
-15.755
-17.957
-20.03
-21.948
-23.665
-25.108
-26.272
-27.224
-28.107
-29.146
-30.525
-32.319
-34.645
-37.652
-41.314
-45.518
-50.005
-54.249
-57.872
-60.676
-62.339
-62.572
-61.359
-58.745
-55.033
-50.961
-47.025
-43.658
-41.58
-41.367
-43.475
-48.34
-55.958
-65.983
-77.637
-89.194
-98.705
-104.043
-104.106
-99.55
-90.084
-74.853
-51.244
-13.815
41.122
116.011
211.73
324.892
450.495
580.869
704.382
808.721
881.888
913.609
898.583
836.098
729.363
586.863
421.523
250.078
91.173
-38.349
-127.682
-175.321
-186.314
-171.458
-144.018
-113.484
-88.539
-74.222
-69.093
-70.882
-74.287
-73.563
-68.571
-60.986
-54.006
-51.593
-54.136
-60.147
-67.94
-75.387
-81.369
-85.655
-87.982
-88.428
-87.343
-85.052
-81.941
-78.45
-75.01
-72.068
-70.082
-69.282
-69.616
-70.94
-73.047
-75.703
-78.694
-81.754
-84.558
-86.904
-88.712
-89.956
-90.669
-90.88
-90.587
-89.826
-88.665
-87.153
-85.338
-83.26
-80.94
-78.421
-75.766
-73.032
-70.284
-67.565
-64.893
-62.283
-59.74
-57.26
-54.839
-52.463
-50.107
-47.755
-45.391
-42.999
-40.569
-38.083
-35.521
-32.867
-30.1
-27.206
-24.175
-20.997
-17.666
-14.177
-10.528
-6.719
-2.754
1.367
5.64
10.061
14.628
19.333
24.168
29.124
34.19
39.352
44.596
49.904
55.257
60.636
66.02
71.387
76.713
81.976
87.15
92.212
97.137
101.9
106.476
110.843
114.976
118.854
122.454
125.758
128.745
131.399
133.703
135.644
137.21
138.39
139.175
139.559
139.538
139.109
138.272
137.029
135.384
133.342
130.913
128.106
124.935
121.413
117.556
113.383
108.914
104.168
99.167
93.936
88.496
82.873
77.092
71.176
65.153
59.046
52.881
46.683
40.475
34.282
28.126
22.03
16.015
10.1
4.305
-1.351
-6.853
-12.184
-17.331
-22.28
-27.02
-31.54
-35.833
-39.89
-43.707
-47.278
-50.602
-53.676
-56.501
-59.078
-61.41
-63.5
-65.352
-66.973
-68.368
-69.545
-70.511
-71.275
-71.846
-72.232
-72.444
-72.492
-72.385
-72.134
-71.749
-71.241
-70.62
-69.896
-69.079
-68.181
-67.209
-66.175
-65.088
-63.956
-62.788
-61.594
-60.379
-59.153
-57.922
-56.692
-55.469
-54.258
-53.064
-51.892
-50.746
-49.629
-48.544
-47.494
-46.482
-45.51
-44.579
-43.692
-42.848
-42.049
-41.296
-40.589
-39.928
-39.314
-38.745
-38.222
-37.744
-37.311
-36.92
-36.571
-36.263
-35.993
-35.761
-35.564
-35.401
-35.27
-35.169
-35.096
-35.05
-35.028
-35.03
-35.053
-35.095
-35.154
-35.229
-35.319
-35.421
-35.533
-35.655
-35.784
-35.919
-36.059
-36.203
-36.348
-36.494
-36.64
-36.785
-36.927
-37.067
-37.204
-37.338
-37.468
-37.594
-37.716
-37.836
-37.952
-38.067
-38.18
-38.292
-38.405
-38.52
-38.637
-38.759
-38.886
-39.021
-39.164
-39.318
-39.485
-39.666
-39.864
-40.079
-40.315
-40.572
-40.853
-41.16
-41.492
-41.853
-42.242
-42.661
-43.109
-43.588
-44.098
-44.637
-45.205
-45.802
-46.426
-47.076
-47.749
-48.443
-49.156
-49.884
-50.624
-51.371
-52.122
-52.87
-53.612
-54.342
-55.053
-55.74
-56.396
-57.015
-57.59
-58.113
-58.578
-58.978
-59.304
-59.551
-59.711
-59.779
-59.748
-59.614
-59.372
-59.016
-58.545
-57.954
-57.241
-56.405
-55.445
-54.36
-53.152
-51.823
-50.375
-48.815
-47.147
-45.381
-43.526
-41.593
-39.595
-37.544
-35.454
-33.339
-31.216
-29.1
-27.007
-24.954
-22.956
-21.034
-19.204
-17.487
-15.897
-14.452
-13.162
-12.041
-11.1
-10.347
-9.791
-9.439
-9.297
-9.38
-9.699
-10.259
-11.067
-12.123
-13.421
-14.951
-16.694
-18.618
-20.695
-22.892
-25.177
-27.524
-29.894
-32.251
-34.549
-36.741
-38.791
-40.665
-42.321
-43.716
-44.827
-45.667
-46.307
-46.835
-47.296
-47.768
-48.343
-49.185
-50.548
-52.558
-55.198
-58.469
-62.397
-66.978
-72.174
-77.638
-82.697
-86.959
-90.198
-92.124
-92.526
-91.118
-88.15
-84.957
-83.022
-82.985
-83.519
-82.254
-78.133
-72.166
-68.553
-71.334
-81.37
-97.191
-112.964
-122.401
-120.49
-100.842
-60.23
3.559
91.898
200.509
324.789
458.594
592.615
718.882
826.55
903.315
939.169
925.617
859.889
745.507
591.34
412.474
228.137
58.666
-77.464
-168.465
-213.011
-216.907
-192.064
-153.399
-111.865
-77.932
-58.557
-53.228
-59.673
-70.941
-78.643
-80.764
-77.909
-73.421
-72.415
-75.72
-81.891
-89.25
-95.271
-99.017
-100.802
-100.646
-98.935
-96.222
-92.808
-89.032
-85.312
-81.907
-79.075
-77.202
-76.428
-76.669
-77.804
-79.634
-81.93
-84.526
-87.185
-89.59
-91.547
-92.966
-93.803
-94.088
-93.842
-93.062
-91.784
-90.076
-87.993
-85.591
-82.911
-79.981
-76.85
-73.583
-70.248
-66.914
-63.63
-60.423
-57.31
-54.301
-51.395
-48.588
-45.865
-43.204
-40.587
-37.998
-35.423
-32.85
-30.262
-27.641
-24.966
-22.217
-19.38
-16.44
-13.387
-10.211
-6.907
-3.469
0.104
3.812
7.654
11.632
15.745
19.992
24.37
28.874
33.497
38.232
43.069
47.996
52.999
58.061
63.165
68.294
73.426
78.54
83.615
88.628
93.555
98.372
103.054
107.578
111.918
116.05
119.951
123.599
126.97
130.045
132.804
135.229
137.303
139.012
140.343
141.285
141.828
141.967
141.696
141.011
139.913
138.403
136.486
134.166
131.454
128.359
124.895
121.076
116.92
112.445
107.671
102.62
97.314
91.779
86.039
80.121
74.05
67.855
61.563
55.202
48.798
42.379
35.971
29.601
23.294
17.073
10.962
4.984
-0.841
-6.494
-11.956
-17.211
-22.244
-27.041
-31.59
-35.881
-39.907
-43.66
-47.134
-50.328
-53.239
-55.867
-58.214
-60.283
-62.077
-63.604
-64.87
-65.884
-66.654
-67.192
-67.508
-67.615
-67.525
-67.252
-66.808
-66.208
-65.465
-64.594
-63.609
-62.523
-61.35
-60.103
-58.796
-57.441
-56.05
-54.635
-53.206
-51.775
-50.35
-48.941
-47.557
-46.204
-44.89
-43.62
-42.401
-41.236
-40.13
-39.086
-38.105
-37.191
-36.343
-35.563
-34.85
-34.203
-33.621
-33.103
-32.645
-32.246
-31.902
-31.61
-31.367
-31.169
-31.011
-30.891
-30.804
-30.746
-30.713
-30.7
-30.704
-30.721
-30.747
-30.778
-30.81
-30.841
-30.867
-30.884
-30.891
-30.884
-30.862
-30.822
-30.762
-30.681
-30.578
-30.451
-30.3
-30.126
-29.927
-29.704
-29.459
-29.193
-28.906
-28.601
-28.28
-27.944
-27.598
-27.243
-26.882
-26.519
-26.157
-25.799
-25.45
-25.112
-24.791
-24.488
-24.209
-23.957
-23.736
-23.55
-23.401
-23.295
-23.233
-23.219
-23.257
-23.348
-23.495
-23.701
-23.967
-24.293
-24.682
-25.133
-25.645
-26.218
-26.85
-27.539
-28.281
-29.073
-29.912
-30.793
-31.71
-32.658
-33.631
-34.622
-35.624
-36.629
-37.629
-38.616
-39.581
-40.514
-41.407
-42.249
-43.032
-43.745
-44.38
-44.926
-45.374
-45.714
-45.938
-46.037
-46.004
-45.829
-45.506
-45.029
-44.394
-43.596
-42.633
-41.503
-40.204
-38.736
-37.103
-35.305
-33.347
-31.232
-28.968
-26.562
-24.023
-21.361
-18.588
-15.717
-12.764
-9.746
-6.68
-3.588
-0.488
2.597
5.645
8.635
11.545
14.355
17.045
19.596
21.987
24.2
26.218
28.025
29.606
30.949
32.043
32.885
33.474
33.813
33.904
33.747
33.335
32.664
31.735
30.549
29.107
27.418
25.493
23.357
21.056
18.631
16.119
13.549
10.932
8.292
5.672
3.117
0.687
-1.566
-3.615
-5.401
-6.851
-7.958
-8.77
-9.407
-10.078
-10.933
-12.053
-13.563
-15.593
-18.166
-21.201
-24.474
-27.623
-30.384
-32.614
-34.072
-34.463
-33.679
-31.664
-28.453
-24.427
-19.86
-15.372
-12.421
-11.667
-13.105
-15.9
-17.715
-18.508
-20.093
-24.482
-34.414
-49.083
-64.995
-78.472
-84.876
-80.19
-59.842
-19.173
45.595
135.919
247.879
375.985
512.655
648.65
776.673
885.867
963.815
998.841
979.547
902.946
774.57
607.681
423.759
244.402
88.066
-31.632
-110.648
-152.045
-161.92
-150.215
-126.732
-98.399
-73.429
-57.2
-49.857
-50.413
-53.557
-52.98
-47.751
-38.974
-29.931
-25.215
-25.745
-30.252
-37.121
-44.216
-50.368
-55.416
-59.11
-61.171
-61.628
-60.661
-58.498
-55.499
-52.105
-48.663
-45.587
-43.366
-42.151
-41.895
-42.509
-43.757
-45.4
-47.238
-48.982
-50.345
-51.188
-51.451
-51.127
-50.276
-48.927
-47.104
-44.872
-42.293
-39.42
-36.302
-32.97
-29.458
-25.822
-22.12
-18.415
-14.753
-11.161
-7.653
-4.235
-0.907
2.337
5.509
8.631
11.717
14.782
17.839
20.902
23.984
27.106
30.284
33.539
36.887
40.34
43.91
47.604
51.428
55.386
59.478
63.703
68.061
72.55
77.169
81.915
86.782
91.766
96.856
102.045
107.319
112.666
118.069
123.511
128.972
134.434
139.875
145.272
150.603
155.844
160.97
165.957
170.778
175.41
179.826
184.002
187.916
191.543
194.862
197.852
200.496
202.776
204.676
206.184
207.288
207.978
208.248
208.092
207.508
206.496
205.056
203.194
200.915
198.23
195.148
191.683
187.85
183.667
179.153
174.328
169.215
163.838
158.221
152.39
146.372
140.196
133.888
127.478
120.994
114.465
107.918
101.381
94.88
88.442
82.09
75.85
69.743
63.791
58.012
52.425
47.047
41.892
36.974
32.303
27.89
23.742
19.865
16.264
12.942
9.9
7.138
4.653
2.441
0.5
-1.179
-2.602
-3.779
-4.717
-5.43
-5.926
-6.22
-6.323
-6.248
-6.01
-5.62
-5.094
-4.444
-3.685
-2.829
-1.889
-0.879
0.19
1.307
2.458
3.636
4.828
6.025
7.219
8.402
9.565
10.703
11.807
12.873
13.896
14.87
15.791
16.657
17.464
18.21
18.893
19.511
20.064
20.551
20.972
21.327
21.617
21.843
22.005
22.106
22.146
22.128
22.052
21.921
21.737
21.501
21.217
20.886
20.511
20.094
19.637
19.144
18.615
18.055
17.465
16.848
16.208
15.546
14.867
14.172
13.465
12.749
12.025
11.298
10.569
9.841
9.116
8.397
7.684
6.981
6.289
5.608
4.941
4.289
3.652
3.03
2.425
1.835
1.261
0.701
0.155
-0.378
-0.899
-1.41
-1.913
-2.41
-2.902
-3.394
-3.886
-4.382
-4.884
-5.396
-5.92
-6.459
-7.015
-7.589
-8.185
-8.803
-9.445
-10.11
-10.8
-11.515
-12.253
-13.015
-13.797
-14.6
-15.418
-16.25
-17.091
-17.936
-18.781
-19.618
-20.442
-21.247
-22.026
-22.771
-23.475
-24.129
-24.726
-25.258
-25.715
-26.09
-26.373
-26.557
-26.633
-26.596
-26.438
-26.154
-25.739
-25.19
-24.503
-23.678
-22.714
-21.609
-20.366
-18.988
-17.477
-15.841
-14.086
-12.221
-10.258
-8.211
-6.094
-3.924
-1.717
0.508
2.731
4.93
7.086
9.177
11.183
13.083
14.854
16.473
17.92
19.176
20.226
21.051
21.639
21.972
22.04
21.842
21.375
20.639
19.632
18.342
16.767
14.91
12.772
10.359
7.68
4.741
1.562
-1.82
-5.363
-9.021
-12.753
-16.533
-20.336
-24.138
-27.899
-31.567
-35.094
-38.437
-41.552
-44.406
-46.954
-49.147
-51.021
-52.678
-54.28
-56.069
-58.235
-60.91
-64.268
-68.417
-73.32
-78.866
-84.697
-90.256
-95.083
-98.706
-100.619
-100.563
-98.442
-94.322
-88.761
-82.549
-76.525
-71.843
-69.611
-70.697
-75.84
-85.291
-98.75
-115.157
-132.185
-146.745
-155.477
-156.276
-149.152
-134.774
-113.492
-82.816
-37.602
27.959
118.529
233.703
369.311
516.574
662.478
793.996
895.637
953.535
958.357
903.89
792.401
633.012
440.474
236.097
41.991
-121.415
-238.793
-304.377
-321.094
-299.341
-254.368
-202.33
-156.66
-126.093
-114.126
-117.068
-128.372
-141.562
-149.72
-151.887
-150.033
-145.931
-144.435
-146.996
-152.696
-161.273
-169.607
-175.751
-179.5
-180.354
-179.352
-177.562
-175.249
-172.933
-170.932
-169.487
-169.08
-169.92
-171.91
-174.9
-178.664
-182.947
-187.534
-192.149
-196.455
-200.246
-203.439
-206.001
-207.964
-209.347
-210.151
-210.414
-210.206
-209.582
-208.593
-207.284
-205.679
-203.833
-201.81
-199.679
-197.507
-195.342
-193.208
-191.122
-189.093
-187.121
-185.203
-183.327
-181.472
-179.623
-177.768
-175.896
-173.997
-172.059
-170.065
-168.001
-165.852
-163.605
-161.254
-158.791
-156.213
-153.517
-150.705
-147.776
-144.736
-141.587
-138.331
-134.97
-131.508
-127.947
-124.294
-120.553
-116.732
-112.838
-108.88
-104.868
-100.814
-96.728
-92.624
-88.513
-84.408
-80.322
-76.267
-72.258
-68.306
-64.424
-60.624
-56.919
-53.318
-49.833
-46.473
