Name
Date of Birth,"Mar 27, 1959"
Recorded Date,2022-08-03 21:28:24 -0500
Classification,Sinus Rhythm
Symptoms,
Software Version,1.90
Device,"Watch4,2"
Sample Rate,510.227 hertz


Lead,Lead I
Unit,µV

9.384
10.421
11.352
12.182
12.916
13.557
14.114
14.591
14.996
15.336
15.618
15.849
16.036
16.187
16.307
16.402
16.479
16.54
16.592
16.638
16.681
16.723
16.766
16.813
16.863
16.917
16.976
17.037
17.102
17.168
17.235
17.301
17.365
17.424
17.478
17.524
17.56
17.582
17.588
17.575
17.538
17.475
17.38
17.25
17.082
16.873
16.618
16.317
15.966
15.564
15.109
14.602
14.041
13.428
12.762
12.045
11.279
10.466
9.609
8.711
7.775
6.803
5.8
4.767
3.708
2.625
1.523
0.404
-0.728
-1.869
-3.015
-4.16
-5.301
-6.43
-7.543
-8.635
-9.699
-10.731
-11.724
-12.673
-13.574
-14.42
-15.206
-15.927
-16.579
-17.156
-17.656
-18.074
-18.408
-18.655
-18.814
-18.882
-18.858
-18.74
-18.525
-18.213
-17.8
-17.286
-16.669
-15.948
-15.123
-14.195
-13.166
-12.036
-10.808
-9.487
-8.076
-6.58
-5.003
-3.354
-1.638
0.135
1.957
3.817
5.704
7.603
9.499
11.379
13.226
15.025
16.761
18.418
19.982
21.441
22.781
23.992
25.06
25.97
26.708
27.257
27.605
27.737
27.641
27.306
26.725
25.899
24.826
23.507
21.939
20.108
18.003
15.619
12.954
10.009
6.796
3.338
-0.33
-4.153
-8.073
-12.038
-16
-19.926
-23.782
-27.528
-31.115
-34.479
-37.561
-40.313
-42.695
-44.666
-46.215
-47.378
-48.233
-48.911
-49.537
-50.197
-50.973
-51.968
-53.299
-55.08
-57.436
-60.448
-64.221
-68.977
-74.817
-81.652
-89.166
-96.736
-103.658
-109.361
-113.227
-114.468
-112.672
-107.955
-101.085
-93.611
-87.068
-82.793
-81.906
-85.287
-93.44
-104.172
-113.98
-120.327
-119.145
-109.922
-92.727
-59.783
-6.024
73.444
181.403
305.247
432.883
555.04
664.323
764.113
853.066
922.678
960.47
950.031
885.587
771.376
618.084
444.216
265.547
98.015
-39.501
-137.76
-194.476
-216.331
-220.914
-219.307
-215.352
-208.442
-192.361
-166.304
-134.881
-102.805
-75.52
-56.169
-45.258
-42.671
-47.484
-58.12
-72.549
-88.92
-105.565
-120.543
-132.39
-140.34
-144.005
-143.722
-140.449
-135.027
-128.452
-122.08
-116.838
-113.224
-111.532
-111.619
-113.138
-115.804
-119.145
-122.518
-125.496
-127.828
-129.392
-130.249
-130.456
-130.017
-129.001
-127.507
-125.604
-123.356
-120.79
-117.905
-114.728
-111.322
-107.762
-104.135
-100.516
-96.954
-93.482
-90.121
-86.887
-83.787
-80.817
-77.963
-75.208
-72.535
-69.934
-67.392
-64.894
-62.418
-59.937
-57.422
-54.846
-52.188
-49.429
-46.551
-43.539
-40.378
-37.058
-33.569
-29.904
-26.055
-22.012
-17.768
-13.315
-8.65
-3.772
1.321
6.626
12.137
17.849
23.749
29.826
36.063
42.444
48.948
55.553
62.236
68.968
75.724
82.473
89.185
95.829
102.372
108.782
115.026
121.073
126.89
132.446
137.711
142.654
147.248
151.466
155.281
158.669
161.61
164.082
166.068
167.552
168.522
168.968
168.883
168.262
167.104
165.413
163.193
160.453
157.204
153.461
149.242
144.567
139.46
133.945
128.05
121.805
115.241
108.39
101.285
93.961
86.452
78.794
71.022
63.172
55.278
47.376
39.499
31.682
23.956
16.354
8.905
1.638
-5.42
-12.244
-18.811
-25.099
-31.09
-36.766
-42.114
-47.122
-51.781
-56.084
-60.027
-63.61
-66.834
-69.702
-72.221
-74.399
-76.245
-77.772
-78.992
-79.92
-80.571
-80.961
-81.109
-81.03
-80.744
-80.269
-79.623
-78.826
-77.895
-76.85
-75.709
-74.488
-73.206
-71.878
-70.52
-69.148
-67.774
-66.413
-65.075
-63.772
-62.513
-61.304
-60.154
-59.066
-58.044
-57.09
-56.204
-55.385
-54.632
-53.943
-53.312
-52.737
-52.213
-51.734
-51.296
-50.893
-50.52
-50.171
-49.84
-49.523
-49.214
-48.909
-48.604
-48.293
-47.974
-47.644
-47.299
-46.937
-46.558
-46.158
-45.738
-45.297
-44.834
-44.352
-43.852
-43.336
-42.808
-42.271
-41.731
-41.192
-40.661
-40.144
-39.645
-39.173
-38.733
-38.33
-37.971
-37.66
-37.403
-37.203
-37.065
-36.992
-36.988
-37.054
-37.192
-37.404
-37.69
-38.049
-38.481
-38.984
-39.558
-40.199
-40.906
-41.676
-42.506
-43.393
-44.332
-45.32
-46.352
-47.421
-48.522
-49.649
-50.795
-51.954
-53.119
-54.286
-55.447
-56.598
-57.734
-58.85
-59.942
-61.006
-62.039
-63.037
-63.999
-64.921
-65.802
-66.642
-67.439
-68.194
-68.907
-69.578
-70.208
-70.796
-71.342
-71.847
-72.31
-72.732
-73.112
-73.45
-73.746
-74.001
-74.214
-74.387
-74.519
-74.61
-74.659
-74.664
-74.624
-74.537
-74.401
-74.213
-73.969
-73.668
-73.306
-72.881
-72.389
-71.827
-71.192
-70.481
-69.691
-68.818
-67.863
-66.821
-65.695
-64.484
-63.19
-61.817
-60.37
-58.853
-57.274
-55.642
-53.964
-52.253
-50.517
-48.77
-47.023
-45.29
-43.583
-41.917
-40.305
-38.761
-37.301
-35.941
-34.696
-33.583
-32.617
-31.814
-31.188
-30.754
-30.517
-30.487
-30.67
-31.076
-31.722
-32.617
-33.766
-35.17
-36.829
-38.736
-40.88
-43.231
-45.744
-48.375
-51.082
-53.827
-56.588
-59.335
-62.026
-64.617
-67.05
-69.277
-71.273
-73.011
-74.454
-75.584
-76.41
-76.997
-77.464
-77.931
-78.477
-79.143
-79.969
-81.017
-82.385
-84.172
-86.437
-89.176
-92.408
-96.253
-100.782
-105.93
-111.377
-116.495
-120.666
-123.458
-124.381
-122.847
-118.499
-111.301
-101.896
-91.68
-81.805
-73.172
-67.046
-64.573
-66.245
-70.549
-73.373
-69.995
-57.681
-38.9
-17.993
3.485
28.201
68.133
136.148
238.5
375.47
532.241
686.092
813.964
892.289
910.895
871.74
784.393
664.95
523.799
368.881
209.399
58.009
-64.985
-145.668
-181.253
-182.082
-170.352
-160.627
-157.469
-157.7
-151.458
-135.723
-114.144
-90.931
-71.11
-56.881
-47.321
-41.997
-41.095
-44.189
-50.285
-58.501
-67.743
-76.737
-85.057
-92.215
-97.108
-99.366
-99.259
-97.045
-93.574
-90.002
-86.775
-84.233
-82.915
-82.906
-84.152
-86.597
-89.718
-92.843
-95.652
-97.934
-99.56
-100.604
-101.057
-100.88
-100.181
-99.091
-97.69
-96.053
-94.186
-92.061
-89.705
-87.178
-84.555
-81.928
-79.353
-76.853
-74.45
-72.152
-69.967
-67.898
-65.927
-64.025
-62.172
-60.354
-58.563
-56.796
-55.035
-53.256
-51.433
-49.534
-47.537
-45.423
-43.173
-40.77
-38.2
-35.453
-32.521
-29.402
-26.089
-22.575
-18.855
-14.924
-10.778
-6.417
-1.843
2.942
7.93
13.115
18.484
24.023
29.717
35.548
41.496
47.539
53.653
59.814
65.995
72.17
78.31
84.386
90.369
96.228
101.935
107.458
112.769
117.838
122.637
127.139
131.319
135.153
138.617
141.692
144.359
146.6
148.402
149.751
150.638
151.055
150.996
150.46
149.447
147.962
146.012
143.605
140.755
137.477
133.788
129.706
125.253
120.451
115.325
109.901
104.204
98.263
92.108
85.767
79.271
72.651
65.937
59.159
52.347
45.53
38.738
31.996
25.333
18.774
12.343
6.064
-0.042
-5.955
-11.656
-17.131
-22.364
-27.344
-32.063
-36.513
-40.689
-44.588
-48.209
-51.554
-54.623
-57.422
-59.955
-62.228
-64.251
-66.031
-67.579
-68.905
-70.022
-70.942
-71.678
-72.242
-72.648
-72.909
-73.038
-73.05
-72.956
-72.77
-72.504
-72.172
-71.784
-71.351
-70.885
-70.394
-69.886
-69.369
-68.848
-68.328
-67.813
-67.306
-66.808
-66.322
-65.846
-65.381
-64.926
-64.48
-64.042
-63.608
-63.177
-62.746
-62.313
-61.874
-61.428
-60.971
-60.502
-60.018
-59.518
-58.999
-58.46
-57.9
-57.317
-56.71
-56.078
-55.422
-54.741
-54.036
-53.308
-52.56
-51.793
-51.011
-50.217
-49.416
-48.611
-47.807
-47.01
-46.224
-45.454
-44.706
-43.984
-43.293
-42.639
-42.025
-41.455
-40.933
-40.462
-40.045
-39.684
-39.38
-39.136
-38.952
-38.828
-38.766
-38.766
-38.827
-38.949
-39.131
-39.373
-39.673
-40.029
-40.439
-40.901
-41.411
-41.967
-42.565
-43.202
-43.873
-44.574
-45.302
-46.052
-46.819
-47.6
-48.391
-49.189
-49.989
-50.788
-51.585
-52.375
-53.158
-53.931
-54.693
-55.442
-56.176
-56.895
-57.597
-58.281
-58.945
-59.588
-60.208
-60.804
-61.374
-61.916
-62.428
-62.908
-63.354
-63.765
-64.138
-64.47
-64.759
-65.003
-65.2
-65.347
-65.441
-65.481
-65.463
-65.384
-65.242
-65.033
-64.756
-64.405
-63.977
-63.47
-62.88
-62.206
-61.443
-60.59
-59.645
-58.608
-57.478
-56.257
-54.944
-53.544
-52.057
-50.489
-48.843
-47.125
-45.343
-43.504
-41.62
-39.702
-37.763
-35.817
-33.878
-31.96
-30.078
-28.245
-26.473
-24.772
-23.156
-21.637
-20.229
-18.949
-17.809
-16.822
-15.999
-15.351
-14.887
-14.616
-14.534
-14.643
-14.945
-15.448
-16.172
-17.133
-18.34
-19.794
-21.492
-23.425
-25.583
-27.939
-30.452
-33.075
-35.765
-38.486
-41.217
-43.932
-46.589
-49.127
-51.47
-53.547
-55.315
-56.744
-57.811
-58.509
-58.854
-58.893
-58.708
-58.397
-58.049
-57.749
-57.596
-57.693
-58.153
-59.145
-60.886
-63.523
-67.067
-71.344
-75.964
-80.468
-84.427
-87.349
-88.664
-87.995
-85.34
-81.267
-76.95
-73.768
-72.911
-75.27
-81.471
-91.626
-105.083
-120.075
-133.7
-142.345
-142.261
-130.347
-104.177
-61.866
-2.425
73.367
163.309
262.581
363.414
460.437
549.87
629.269
700.053
757.434
790.835
792.715
755.782
682.353
585.673
473.5
352.262
227.938
103.828
-6.442
-86.999
-131.48
-141.77
-131.287
-116.196
-104.822
-98.482
-93.551
-87.151
-79.748
-73.522
-71.189
-73.2
-78.136
-84.455
-90.087
-93.399
-93.885
-91.411
-86.337
-79.55
-71.862
-63.94
-56.525
-50.27
-45.509
-42.388
-40.856
-40.664
-41.588
-43.44
-46.003
-49.068
-52.474
-56.056
-59.649
-63.106
-66.262
-68.982
-71.193
-72.842
-73.906
-74.382
-74.288
-73.667
-72.584
-71.102
-69.272
-67.146
-64.77
-62.205
-59.522
-56.794
-54.089
-51.452
-48.91
-46.479
-44.167
-41.969
-39.872
-37.852
-35.881
-33.937
-32.007
-30.076
-28.13
-26.149
-24.112
-21.996
-19.78
-17.443
-14.969
-12.344
-9.553
-6.594
-3.465
-0.165
3.309
6.964
10.813
14.864
19.115
23.567
28.208
33.022
37.983
43.048
48.167
53.307
58.442
63.556
68.653
73.73
78.787
83.828
88.84
93.815
98.75
103.63
108.449
113.224
117.982
122.782
127.699
132.765
137.99
143.361
148.821
154.306
159.739
165.007
170.026
174.724
179.03
182.902
186.298
189.143
191.356
192.826
193.415
193.042
191.658
189.236
185.811
181.441
176.215
170.28
163.762
156.758
149.361
141.63
133.62
125.414
117.1
108.776
100.575
92.595
84.91
77.593
70.668
64.132
57.96
52.076
46.415
40.941
35.628
30.471
25.479
20.641
15.954
11.415
7.002
2.698
-1.508
-5.636
-9.684
-13.638
-17.473
-21.144
-24.609
-27.843
-30.83
-33.562
-36.041
-38.268
-40.251
-42.007
-43.545
-44.875
-46.003
-46.933
-47.671
-48.23
-48.625
-48.873
-48.994
-49.002
-48.913
-48.741
-48.494
-48.184
-47.817
-47.397
-46.926
-46.412
-45.858
-45.273
-44.663
-44.033
-43.389
-42.739
-42.087
-41.44
-40.799
-40.17
-39.554
-38.955
-38.375
-37.816
-37.279
-36.767
-36.279
-35.816
-35.379
-34.969
-34.583
-34.223
-33.888
-33.575
-33.284
-33.014
-32.763
-32.53
-32.314
-32.114
-31.929
-31.759
-31.603
-31.459
-31.328
-31.207
-31.095
-30.991
-30.892
-30.797
-30.705
-30.612
-30.518
-30.42
-30.317
-30.206
-30.087
-29.958
-29.817
-29.665
-29.499
-29.32
-29.127
-28.922
-28.704
-28.475
-28.237
-27.99
-27.737
-27.479
-27.22
-26.962
-26.706
-26.455
-26.211
-25.978
-25.756
-25.55
-25.361
-25.193
-25.048
-24.93
-24.841
-24.785
-24.765
-24.785
-24.847
-24.955
-25.112
-25.32
-25.581
-25.897
-26.27
-26.7
-27.188
-27.733
-28.334
-28.99
-29.699
-30.457
-31.262
-32.109
-32.994
-33.911
-34.857
-35.824
-36.808
-37.802
-38.801
-39.798
-40.787
-41.761
-42.714
-43.638
-44.527
-45.373
-46.168
-46.906
-47.579
-48.179
-48.7
-49.133
-49.473
-49.714
-49.85
-49.875
-49.785
-49.576
-49.244
-48.787
-48.203
-47.491
-46.652
-45.687
-44.598
-43.389
-42.062
-40.623
-39.077
-37.429
-35.688
-33.859
-31.951
-29.973
-27.933
-25.842
-23.712
-21.552
-19.376
-17.196
-15.029
-12.891
-10.797
-8.765
-6.812
-4.956
-3.216
-1.606
-0.142
1.164
2.3
3.255
4.015
4.568
4.905
5.016
4.895
4.539
3.942
3.106
2.039
0.75
-0.754
-2.469
-4.402
-6.561
-8.946
-11.554
-14.379
-17.407
-20.617
-23.978
-27.441
-30.954
-34.469
-37.941
-41.34
-44.634
-47.776
-50.713
-53.372
-55.68
-57.585
-59.032
-59.976
-60.415
-60.369
-59.9
-59.112
-58.086
-56.899
-55.656
-54.46
-53.411
-52.622
-52.184
-52.232
-53.023
-54.708
-57.27
-60.49
-63.873
-66.9
-69.139
-69.995
-68.697
-64.812
-58.417
-50.306
-42.019
-34.907
-30.188
-29.347
-33.527
-43.263
-56.828
-69.65
-78.098
-79.612
-73.669
-62.713
-43.015
-7.092
51.317
140.111
258.23
396.64
546.453
694.386
825.231
925.967
984.129
990.158
944.985
855.576
729.1
577.251
410.518
240.768
87.555
-32.569
-108.783
-138.956
-134.775
-109.947
-77.883
-51.187
-34.072
-30.236
-39.304
-53.166
-66.66
-74.634
-75.588
-75.037
-75.977
-79.338
-84.173
-86.866
-85.975
-82.015
-75.879
-68.961
-62.086
-55.654
-50.292
-46.422
-44.178
-43.477
-44.058
-45.71
-48.283
-51.622
-55.526
-59.783
-64.2
-68.615
-72.878
-76.816
-80.289
-83.2
-85.486
-87.133
-88.145
-88.537
-88.355
-87.659
-86.511
-84.969
-83.088
-80.921
-78.533
-76.002
-73.405
-70.821
-68.3
-65.877
-63.572
-61.391
-59.331
-57.377
-55.506
-53.684
-51.885
-50.089
-48.276
-46.43
-44.53
-42.553
-40.477
-38.278
-35.938
-33.441
-30.772
-27.918
-24.871
-21.622
-18.17
-14.511
-10.645
-6.569
-2.281
2.22
6.931
11.849
16.97
22.286
27.788
33.463
39.298
45.275
51.375
57.579
63.865
70.21
76.589
82.978
89.35
95.679
101.937
108.098
114.132
120.012
125.71
131.199
136.451
141.439
146.138
150.521
154.567
158.253
161.559
164.464
166.954
169.013
170.629
171.791
172.491
172.723
172.483
171.772
170.591
168.944
166.839
164.284
161.291
157.874
154.047
149.829
145.239
140.296
135.022
129.442
123.58
117.461
111.112
104.562
97.838
90.969
83.985
76.914
69.787
62.632
55.477
48.351
41.278
34.286
27.4
20.641
14.033
7.597
1.35
-4.688
-10.503
-16.081
-21.409
-26.476
-31.275
-35.799
-40.042
-44.001
-47.676
-51.064
-54.169
-56.993
-59.541
-61.82
-63.836
-65.599
-67.12
-68.41
-69.481
-70.347
-71.022
-71.519
-71.854
-72.042
-72.096
-72.032
-71.863
-71.604
-71.268
-70.868
-70.418
-69.927
-69.409
-68.872
-68.327
-67.781
-67.242
-66.717
-66.21
-65.728
-65.273
-64.848
-64.455
-64.095
-63.767
-63.471
-63.205
-62.966
-62.75
-62.553
-62.369
-62.194
-62.023
-61.848
-61.664
-61.467
-61.249
-61.007
-60.736
-60.43
-60.087
-59.702
-59.273
-58.797
-58.272
-57.697
-57.072
-56.396
-55.669
-54.895
-54.074
-53.209
-52.304
-51.363
-50.39
-49.389
-48.367
-47.33
-46.283
-45.234
-44.191
-43.16
-42.15
-41.169
-40.223
-39.321
-38.469
-37.675
-36.943
-36.279
-35.688
-35.174
-34.741
-34.391
-34.127
-33.95
-33.862
-33.863
-33.954
-34.132
-34.398
-34.748
-35.179
-35.69
-36.275
-36.931
-37.653
-38.437
-39.276
-40.166
-41.099
-42.071
-43.074
-44.102
-45.146
-46.202
-47.261
-48.318
-49.368
-50.404
-51.422
-52.417
-53.387
-54.327
-55.235
-56.108
-56.942
-57.737
-58.49
-59.199
-59.863
-60.481
-61.052
-61.574
-62.049
-62.476
-62.853
-63.182
-63.461
-63.69
-63.87
-63.998
-64.075
-64.101
-64.075
-63.997
-63.866
-63.682
-63.445
-63.153
-62.805
-62.397
-61.929
-61.397
-60.799
-60.131
-59.391
-58.576
-57.684
-56.714
-55.664
-54.534
-53.322
-52.03
-50.656
-49.203
-47.672
-46.066
-44.389
-42.645
-40.839
-38.979
-37.073
-35.13
-33.165
-31.188
-29.212
-27.252
-25.321
-23.438
-21.621
-19.886
-18.245
-16.713
-15.305
-14.038
-12.931
-11.998
-11.252
-10.701
-10.358
-10.235
-10.346
-10.7
-11.291
-12.11
-13.153
-14.425
-15.943
-17.722
-19.762
-22.055
-24.595
-27.372
-30.379
-33.596
-36.969
-40.437
-43.94
-47.417
-50.849
-54.224
-57.511
-60.667
-63.606
-66.212
-68.424
-70.21
-71.535
-72.422
-72.857
-72.765
-72.285
-71.705
-71.288
-71.358
-72.017
-73.033
-74.405
-76.449
-79.224
-82.53
-85.956
-88.611
-90.036
-90.553
-90.156
-88.388
-84.935
-79.705
-73.201
-67.098
-62.877
-61.056
-62.261
-67.176
-76.255
-89.727
-106.753
-124.476
-139.193
-147.462
-145.721
-130.53
-98.624
-46.928
26.708
120.408
228.445
344.985
463.22
579.723
697.118
813.565
922.878
1014.839
1068.088
1065.097
999.411
870.375
693.85
495.325
298.615
130.462
9.825
-58.766
-80.895
-72.604
-53.014
-36.554
-28.794
-29.281
-35.674
-42.631
-48.799
-54.366
-58.157
-63.371
-71.048
-80.153
-90.485
-98.895
-103.312
-103.927
-100.864
-95.217
-88.274
-80.655
-73.145
-66.669
-61.677
-58.356
-56.714
-56.528
-57.612
-59.82
-62.941
-66.722
-70.949
-75.471
-80.139
-84.805
-89.278
-93.344
-96.846
-99.694
-101.842
-103.272
-103.977
-103.974
-103.309
-102.058
-100.294
-98.081
-95.482
-92.555
-89.374
-86.025
-82.596
-79.172
-75.816
-72.564
-69.439
-66.451
-63.601
-60.875
-58.253
-55.702
-53.195
-50.713
-48.239
-45.757
-43.245
-40.681
-38.042
-35.306
-32.453
-29.468
-26.336
-23.044
-19.585
-15.951
-12.14
-8.15
-3.98
0.373
4.91
9.633
14.542
19.634
24.904
30.349
35.958
41.721
47.624
53.651
59.784
66.004
72.289
78.617
84.964
91.304
97.612
103.861
110.024
116.072
121.976
127.71
133.245
138.554
143.609
148.384
152.855
156.997
160.789
164.21
167.24
169.862
172.06
173.821
175.133
175.988
176.377
176.297
175.745
174.724
173.236
171.288
168.889
166.05
162.785
159.109
155.041
150.6
145.808
140.686
135.259
129.552
123.592
117.405
111.019
104.463
97.764
90.951
84.052
77.096
70.109
63.119
56.153
49.236
42.392
35.646
29.02
22.534
16.209
10.062
4.11
-1.633
-7.155
-12.446
-17.496
-22.3
-26.853
-31.151
-35.193
-38.981
-42.514
-45.798
-48.835
-51.631
-54.193
-56.529
-58.645
-60.552
-62.258
-63.773
-65.106
-66.27
-67.273
-68.127
-68.843
-69.431
-69.902
-70.268
-70.538
-70.723
-70.833
-70.876
-70.86
-70.795
-70.686
-70.539
-70.36
-70.153
-69.922
-69.668
-69.394
-69.102
-68.792
-68.464
-68.119
-67.756
-67.375
-66.975
-66.557
-66.119
-65.661
-65.183
-64.686
-64.17
-63.634
-63.08
-62.508
-61.92
-61.314
-60.694
-60.058
-59.41
-58.749
-58.077
-57.396
-56.708
-56.015
-55.319
-54.623
-53.931
-53.246
-52.57
-51.909
-51.265
-50.642
-50.045
-49.476
-48.939
-48.436
-47.97
-47.543
-47.157
-46.811
-46.505
-46.241
-46.016
-45.829
-45.678
-45.561
-45.476
-45.419
-45.387
-45.378
-45.389
-45.415
-45.454
-45.502
-45.557
-45.615
-45.672
-45.725
-45.772
-45.81
-45.834
-45.843
-45.834
-45.805
-45.754
-45.678
-45.578
-45.452
-45.3
-45.123
-44.922
-44.7
-44.457
-44.199
-43.926
-43.645
-43.359
-43.072
-42.791
-42.519
-42.262
-42.025
-41.813
-41.632
-41.486
-41.38
-41.316
-41.299
-41.333
-41.418
-41.559
-41.755
-42.009
-42.32
-42.69
-43.116
-43.598
-44.133
-44.718
-45.35
-46.022
-46.73
-47.466
-48.223
-48.994
-49.768
-50.538
-51.294
-52.025
-52.722
-53.372
-53.966
-54.493
-54.94
-55.298
-55.555
-55.701
-55.728
-55.626
-55.388
-55.006
-54.474
-53.787
-52.942
-51.935
-50.764
-49.428
-47.928
-46.267
-44.449
-42.479
-40.366
-38.119
-35.751
-33.279
-30.717
-28.083
-25.398
-22.68
-19.951
-17.232
-14.543
-11.904
-9.337
-6.864
-4.508
-2.292
-0.241
1.623
3.277
4.701
5.874
6.782
7.414
7.764
7.823
7.581
7.019
6.122
4.882
3.293
1.354
-0.927
-3.535
-6.435
-9.578
-12.907
-16.37
-19.917
-23.512
-27.114
-30.675
-34.143
-37.446
-40.521
-43.316
-45.784
-47.878
-49.578
-50.895
-51.883
-52.658
-53.327
-53.976
-54.693
-55.559
-56.679
-58.183
-60.189
-62.796
-66.127
-70.348
-75.555
-81.727
-88.619
-95.718
-102.41
-108.085
-112.08
-113.642
-112.218
-107.66
-100.461
-91.819
-83.161
-75.76
-70.774
-69.371
-72.297
-79.308
-88.642
-97.19
-101.204
-96.666
-79.688
-46.3
7.504
82.539
175.518
282.443
397.721
519.651
651.552
789.378
923.723
1036.137
1100.658
1105.619
1050.521
947.527
818.457
671.854
513.956
351.05
190.16
53.621
-41.978
-92.602
-104.289
-97.934
-89.121
-83.567
-81.466
-77.077
-69.442
-61.664
-56.514
-57.177
-63.68
-73.699
-85.336
-96.112
-103.777
-107.537
-107.16
-103.023
-96.197
-87.713
-78.482
-69.538
-61.842
-55.909
-51.959
-49.956
-49.627
-50.745
-53.108
-56.463
-60.541
-65.116
-70.003
-75.019
-80.005
-84.765
-89.077
-92.788
-95.8
-98.059
-99.554
-100.298
-100.312
-99.649
-98.386
-96.592
-94.337
-91.691
-88.719
-85.501
-82.126
-78.684
-75.264
-71.928
-68.714
-65.642
-62.719
-59.938
-57.286
-54.738
-52.263
-49.834
-47.432
-45.037
-42.637
-40.21
-37.735
-35.188
-32.548
-29.797
-26.918
-23.899
-20.727
-17.396
-13.898
-10.231
-6.395
-2.387
1.797
6.157
10.696
15.414
20.308
25.374
30.608
36
41.541
47.217
53.012
58.91
64.894
70.942
77.035
83.149
89.263
95.35
101.387
107.348
113.207
118.937
124.511
129.903
135.085
140.032
144.718
149.118
153.207
156.964
160.365
163.391
166.025
168.249
170.049
171.413
172.332
172.796
172.802
172.345
171.426
170.048
168.214
165.931
163.21
160.061
156.498
152.537
148.196
143.492
138.448
133.085
127.426
121.497
115.322
108.928
102.342
95.593
88.707
81.714
74.641
67.518
60.37
53.226
46.111
39.051
32.069
25.189
18.431
11.817
5.363
-0.911
-6.992
-12.865
-18.517
-23.939
-29.123
-34.06
-38.746
-43.176
-47.349
-51.264
-54.921
-58.322
-61.47
-64.367
-67.02
-69.434
-71.615
-73.571
-75.309
-76.839
-78.169
-79.309
-80.267
-81.054
-81.678
-82.149
-82.477
-82.669
-82.736
-82.684
-82.523
-82.259
-81.901
-81.455
-80.927
-80.324
-79.65
-78.911
-78.11
-77.253
-76.342
-75.382
-74.375
-73.325
-72.235
-71.109
-69.949
-68.76
-67.545
-66.308
-65.052
-63.781
-62.5
-61.212
-59.924
-58.639
-57.362
-56.098
-54.853
-53.632
-52.44
-51.283
-50.164
-49.089
-48.064
-47.091
-46.177
-45.326
-44.54
-43.826
-43.186
-42.624
-42.143
-41.746
-41.434
-41.21
-41.074
-41.027
-41.067
-41.195
-41.407
-41.701
-42.074
-42.522
-43.038
-43.618
-44.256
-44.944
-45.675
-46.443
-47.238
-48.055
-48.883
-49.718
-50.55
-51.373
-52.181
-52.966
-53.725
-54.45
-55.137
-55.781
-56.379
-56.927
-57.421
-57.86
-58.241
-58.563
-58.825
-59.026
-59.168
-59.251
-59.277
-59.249
-59.171
-59.046
-58.881
-58.68
-58.451
-58.199
-57.932
-57.658
-57.383
-57.115
-56.861
-56.629
-56.423
-56.251
-56.117
-56.025
-55.979
-55.981
-56.033
-56.136
-56.291
-56.496
-56.752
-57.055
-57.405
-57.799
-58.233
-58.703
-59.207
-59.738
-60.292
-60.861
-61.44
-62.019
-62.591
-63.146
-63.675
-64.166
-64.611
-64.997
-65.314
-65.55
-65.695
-65.739
-65.673
-65.487
-65.174
-64.726
-64.139
-63.406
-62.526
-61.494
-60.311
-58.978
-57.495
-55.866
-54.093
-52.183
-50.142
-47.974
-45.686
-43.285
-40.778
-38.178
-35.503
-32.771
-30
-27.212
-24.429
-21.675
-18.973
-16.346
-13.81
-11.38
-9.071
-6.904
-4.902
-3.093
-1.497
-0.125
1.013
1.916
2.578
2.995
3.175
3.126
2.851
2.345
1.583
0.533
-0.821
-2.491
-4.469
-6.725
-9.247
-12.021
-15.032
-18.288
-21.761
-25.393
-29.134
-32.901
-36.625
-40.269
-43.709
-46.757
-49.351
-51.498
-53.382
-55.406
-57.733
-60.258
-62.896
-65.534
-67.995
-70.156
-71.513
-71.123
-68.636
-64.406
-59.198
-54.131
-50.145
-47.689
-47.415
-50.492
-57.418
-67.792
-80.403
-93.316
-104.911
-114.612
-122.388
-127.746
-130.362
-130.598
-129.511
-128.939
-130.598
-133.218
-132.48
-125.241
-110.161
-89.986
-70.052
-50.064
-21.805
28.573
112.244
231.504
376.748
530.247
681.013
823.342
952.274
1064.108
1143.857
1170.842
1135.392
1035.731
881.832
696.684
500.001
310.378
148.946
27.865
-47.96
-81.5
-89.214
-88.247
-87.591
-90.309
-92.025
-87.228
-77.033
-65.387
-56.297
-53.12
-55.689
-62.008
-70.452
-79.091
-86.161
-90.439
-91.303
-88.947
-84.123
-77.812
-70.893
-64.107
-58.215
-53.897
-51.492
-51.022
-52.305
-55.005
-58.82
-63.528
-68.859
-74.545
-80.377
-86.143
-91.662
-96.785
-101.343
-105.208
-108.309
-110.598
-112.066
-112.741
-112.659
-111.882
-110.497
-108.577
-106.195
-103.428
-100.342
-97.019
-93.546
-90.004
-86.47
-82.999
-79.624
-76.366
-73.233
-70.219
-67.31
-64.485
-61.711
-58.967
-56.234
-53.492
-50.727
-47.917
-45.042
-42.079
-39.008
-35.812
-32.475
-28.984
-25.329
-21.501
-17.494
-13.307
-8.937
-4.382
0.36
5.291
10.412
15.721
21.217
26.895
32.747
38.766
44.939
51.251
57.685
64.223
70.845
77.527
84.246
90.977
97.692
104.363
110.962
117.458
123.82
130.018
136.019
141.794
147.311
152.54
157.454
162.024
166.225
170.032
173.424
176.378
178.877
180.904
182.444
183.487
184.021
184.042
183.543
182.526
180.99
178.942
176.388
173.339
169.809
165.812
161.367
156.494
151.216
145.558
139.546
133.208
126.575
119.679
112.55
105.224
97.732
90.11
82.39
74.605
66.79
58.975
51.192
43.471
35.842
28.333
20.97
13.778
6.782
0.002
-6.541
-12.829
-18.846
-24.578
-30.013
-35.141
-39.954
-44.445
-48.612
-52.451
-55.963
-59.151
-62.018
-64.57
-66.815
-68.763
-70.423
-71.808
-72.93
-73.803
-74.443
-74.862
-75.077
-75.103
-74.955
-74.649
-74.201
-73.625
-72.936
-72.149
-71.279
-70.338
-69.34
-68.298
-67.223
-66.126
-65.018
-63.909
-62.808
-61.724
-60.663
-59.633
-58.639
-57.686
-56.778
-55.917
-55.106
-54.344
-53.633
-52.972
-52.359
-51.793
-51.271
-50.791
-50.35
-49.945
-49.572
-49.229
-48.911
-48.616
-48.34
-48.08
-47.832
-47.595
-47.364
-47.138
-46.914
-46.689
-46.46
-46.227
-45.986
-45.735
-45.474
-45.201
-44.914
-44.613
-44.298
-43.969
-43.626
-43.27
-42.904
-42.528
-42.145
-41.757
-41.367
-40.979
-40.595
-40.219
-39.855
-39.505
-39.173
-38.863
-38.578
-38.321
-38.095
-37.903
-37.747
-37.631
-37.555
-37.523
-37.535
-37.595
-37.703
-37.86
-38.069
-38.329
-38.641
-39.005
-39.422
-39.891
-40.411
-40.98
-41.597
-42.261
-42.968
-43.715
-44.5
-45.319
-46.168
-47.042
-47.937
-48.848
-49.771
-50.701
-51.632
-52.56
-53.481
-54.389
-55.281
-56.152
-56.997
-57.814
-58.598
-59.346
-60.054
-60.719
-61.339
-61.91
-62.432
-62.9
-63.314
-63.672
-63.972
-64.212
-64.392
-64.51
-64.566
-64.557
-64.483
-64.345
-64.142
-63.873
-63.54
-63.143
-62.681
-62.156
-61.567
-60.915
-60.199
-59.419
-58.575
-57.667
-56.694
-55.656
-54.553
-53.384
-52.149
-50.848
-49.479
-48.043
-46.539
-44.966
-43.326
-41.62
-39.85
-38.018
-36.128
-34.184
-32.195
-30.167
-28.109
-26.03
-23.939
-21.849
-19.769
-17.712
-15.686
-13.702
-11.773
-9.91
-8.126
-6.436
-4.854
-3.395
-2.075
-0.908
0.09
0.907
1.534
1.963
2.186
2.19
1.957
1.471
0.721
-0.303
-1.605
-3.184
-5.031
-7.118
-9.399
-11.825
-14.345
-16.912
-19.49
-22.036
-24.507
-26.857
-29.025
-30.954
-32.602
-33.926
-34.894
-35.497
-35.75
-35.725
-35.554
-35.375
-35.327
-35.527
-36.073
-37.09
-38.711
-41.053
-44.244
-48.368
-53.514
-59.852
-67.441
-76.162
-85.72
-95.514
-104.818
-113.013
-119.384
-123.044
-123.412
-120.342
-114.185
-106.109
-97.473
-89.28
-82.588
-78.602
-77.92
-80.052
-83.465
-85.154
-81.3
-68.39
-42.84
-0.5
60.951
140.298
234.812
339.841
452.145
573.453
704.628
841.453
971.748
1075.431
1130.468
1121.341
1045.86
911.24
733.646
536.146
339.048
164.913
33.499
-49.644
-86.764
-92.265
-87.642
-84.138
-86.19
-91.236
-91.378
-85.702
-77.573
-70.532
-68.916
-73.309
-81.458
-91.532
-101.4
-109.186
-113.826
-114.75
-112.024
-106.356
-98.752
-90.153
-81.437
-73.453
-66.899
-62.166
-59.348
-58.33
-58.86
-60.69
-63.604
-67.354
-71.677
-76.369
-81.252
-86.153
-90.919
-95.371
-99.32
-102.644
-105.271
-107.158
-108.305
-108.728
-108.454
-107.543
-106.071
-104.111
-101.738
-99.024
-96.031
-92.839
-89.53
-86.18
-82.866
-79.634
-76.51
-73.506
-70.625
-67.857
-65.189
-62.597
-60.048
-57.52
-54.995
-52.451
-49.873
-47.234
-44.508
-41.671
-38.704
-35.587
-32.308
-28.853
-25.211
-21.379
-17.357
-13.145
-8.739
-4.13
0.696
5.742
10.997
16.441
22.058
27.833
33.749
39.78
45.891
52.053
58.256
64.507
70.816
77.175
83.561
89.93
96.24
102.467
108.608
114.665
120.623
126.47
132.2
137.834
143.403
148.909
154.301
159.487
164.373
168.9
173.035
176.765
180.07
182.912
185.241
187.019
188.225
188.837
188.811
188.07
186.526
184.144
180.963
177.079
172.585
167.542
161.988
155.956
149.496
142.67
135.534
128.124
120.466
112.601
104.596
96.554
88.585
80.754
73.073
65.51
58.044
50.676
43.416
36.277
29.253
22.338
15.545
8.909
2.465
-3.766
-9.783
-15.609
-21.263
-26.747
-32.042
-37.115
-41.941
-46.505
-50.796
-54.801
-58.501
-61.885
-64.958
-67.736
-70.24
-72.482
-74.468
-76.201
-77.686
-78.935
-79.962
-80.782
-81.409
-81.856
-82.138
-82.271
-82.275
-82.162
-81.944
-81.628
-81.221
-80.732
-80.171
-79.547
-78.867
-78.138
-77.369
-76.569
-75.745
-74.904
-74.053
-73.195
-72.334
-71.474
-70.618
-69.767
-68.923
-68.087
-67.258
-66.437
-65.624
-64.817
-64.015
-63.217
-62.422
-61.63
-60.838
-60.046
-59.253
-58.46
-57.666
-56.872
-56.079
-55.286
-54.495
-53.706
-52.921
-52.14
-51.365
-50.596
-49.833
-49.077
-48.33
-47.592
-46.865
-46.149
-45.447
-44.76
-44.09
-43.439
-42.808
-42.201
-41.619
-41.066
-40.543
-40.053
-39.6
-39.184
-38.807
-38.472
-38.179
-37.929
-37.722
-37.559
-37.439
-37.362
-37.328
-37.337
-37.387
-37.478
-37.611
-37.783
-37.995
-38.246
-38.534
-38.861
-39.224
-39.623
-40.058
-40.527
-41.03
-41.566
-42.133
-42.728
-43.352
-44
-44.672
-45.363
-46.072
-46.795
-47.532
-48.279
-49.034
-49.796
-50.562
-51.332
-52.103
-52.873
-53.642
-54.405
-55.162
-55.91
-56.645
-57.366
-58.069
-58.75
-59.406
-60.033
-60.627
-61.183
-61.698
-62.166
-62.582
-62.943
-63.243
-63.479
-63.644
-63.737
-63.751
-63.685
-63.535
-63.296
-62.965
-62.539
-62.012
-61.382
-60.645
-59.796
-58.834
-57.755
-56.557
-55.239
-53.801
-52.243
-50.563
-48.764
-46.847
-44.816
-42.676
-40.432
-38.091
-35.66
-33.148
-30.567
-27.927
-25.239
-22.515
-19.768
-17.015
-14.274
-11.567
-8.915
-6.34
-3.864
-1.51
0.706
2.766
4.653
6.357
7.863
9.153
10.213
11.024
11.569
11.842
11.836
11.555
11.018
10.235
9.218
7.973
6.491
4.763
2.784
0.542
-1.972
-4.756
-7.799
-11.06
-14.482
-18.022
-21.656
-25.394
-29.258
-33.224
-37.241
-41.218
-45.033
-48.624
-51.91
-54.738
-57.067
-58.947
-60.534
-62.234
-64.414
-67.115
-70.339
-74.045
-77.842
-81.353
-84.067
-85.038
-83.719
-80.244
-74.853
-68.01
-60.585
-53.205
-46.68
-42.28
-40.531
-41.209
-44.032
-48.683
-54.983
-63.075
-72.613
-83.018
-94.447
-107.078
-121.041
-134.334
-142.146
-141.855
-132.233
-113.793
-90.416
-58.017
-7.654
65.89
169.416
298.557
440.451
588.62
733.519
868.225
985.935
1070.25
1107.047
1085.183
1003.541
872.996
704.769
515.525
321.368
136.323
-18.473
-128.098
-187.796
-198.264
-171.999
-125.642
-72.396
-27.221
-0.635
5.235
-6.322
-24.306
-38.463
-45.697
-47.862
-51.484
-60.181
-72.314
-85.234
-95.407
-101.229
-103.243
-101.755
-97.435
-91.497
-85.31
-79.915
-75.866
-73.219
-71.818
-71.811
-73.334
-76.164
-79.785
-83.699
-87.59
-91.327
-94.901
-98.17
-100.914
-103.01
-104.436
-105.232
-105.445
-105.089
-104.143
-102.62
-100.585
-98.109
-95.263
-92.111
-88.714
-85.145
-81.485
-77.82
-74.217
-70.712
-67.358
-64.192
-61.18
-58.287
-55.483
-52.714
-49.985
-47.336
-44.703
-41.998
-39.371
-37.002
-34.743
-32.58
-30.523
-28.113
-26.499
-26.802
-27.376
-27.71
-24.798
-15.048
-2.417
10.46
19.655
19.769
15.588
11.167
9.284
14.526
23.609
33.203
42.558
49.636
55.599
61.945
68.365
75.032
81.821
88.402
94.948
101.592
108.252
114.885
121.478
127.995
134.391
140.628
146.643
152.369
157.79
162.887
167.628
171.985
175.933
179.446
182.507
185.099
187.206
188.811
189.902
190.47
190.509
190.016
188.992
187.438
185.36
182.767
179.67
176.082
172.02
167.503
162.552
157.19
151.442
145.335
138.899
132.163
125.159
117.919
110.478
102.867
95.122
87.275
79.361
71.411
63.458
55.533
47.665
39.883
32.214
24.684
17.317
10.134
3.158
-3.595
-10.106
-16.361
-22.347
-28.052
-33.468
-38.587
-43.404
-47.915
-52.119
-56.015
-59.604
-62.891
-65.879
-68.575
-70.988
-73.124
-74.995
-76.611
-77.983
-79.124
-80.046
-80.762
-81.285
-81.627
-81.801
-81.819
-81.695
-81.439
-81.062
-80.577
-79.993
-79.319
-78.566
-77.742
-76.855
-75.913
-74.922
-73.889
-72.821
-71.722
-70.598
-69.453
-68.291
-67.117
-65.934
-64.744
-63.551
-62.356
-61.161
-59.969
-58.781
-57.599
-56.425
-55.259
-54.104
-52.961
-51.833
-50.722
-49.63
-48.559
-47.513
-46.495
-45.508
-44.554
-43.638
-42.762
-41.932
-41.149
-40.418
-39.741
-39.123
-38.565
-38.071
-37.644
-37.284
-36.994
-36.775
-36.628
-36.554
-36.552
-36.622
-36.763
-36.975
-37.255
-37.601
-38.011
-38.481
-39.008
-39.588
-40.216
-40.888
-41.6
-42.344
-43.117
-43.912
-44.722
-45.543
-46.367
-47.189
-48.003
-48.803
-49.583
-50.338
-51.063
-51.754
-52.406
-53.016
-53.581
-54.099
-54.567
-54.985
-55.353
-55.669
-55.937
-56.156
-56.33
-56.461
-56.552
-56.606
-56.629
-56.624
-56.597
-56.552
-56.495
-56.431
-56.367
-56.308
-56.26
-56.228
-56.218
-56.234
-56.281
-56.363
-56.484
-56.645
-56.851
-57.102
-57.399
-57.744
-58.135
-58.571
-59.049
-59.566
-60.118
-60.7
-61.303
-61.923
-62.549
-63.174
-63.79
-64.387
-64.954
-65.481
-65.958
-66.375
-66.719
-66.981
-67.149
-67.212
-67.161
-66.987
-66.681
-66.236
-65.644
-64.902
-64.005
-62.95
-61.737
-60.363
-58.83
-57.141
-55.301
-53.314
-51.189
-48.935
-46.565
-44.094
-41.538
-38.917
-36.251
-33.559
-30.865
-28.192
-25.561
-22.993
-20.51
-18.133
-15.883
-13.784
-11.86
-10.133
-8.623
-7.348
-6.326
-5.573
-5.102
-4.915
-5.013
-5.4
-6.082
-7.075
-8.392
-10.033
-12
-14.289
-16.885
-19.771
-22.917
-26.267
-29.769
-33.37
-37.019
-40.686
-44.331
-47.899
-51.325
-54.531
-57.443
-60.015
-62.2
-63.945
-65.235
-66.077
-66.523
-66.683
-66.643
-66.472
-66.256
-66.074
-66.042
-66.312
-66.991
-68.199
-70.116
-72.82
-76.306
-80.442
-84.801
-88.823
-92.018
-93.834
-93.632
-90.998
-85.818
-78.5
-70.144
-62.193
-55.791
-51.666
-50.884
-54.401
-62.007
-72.466
-82.094
-84.835
-77.3
-57.969
-26.758
13.377
64.286
130.216
214.766
323.068
452.546
595.973
743.526
877.925
983.802
1046.743
1053.69
1003.745
901.615
755.532
580.53
389.893
198.972
29.67
-99.853
-179.579
-209.843
-205.99
-188.069
-168.017
-150.96
-134.328
-112.008
-84.497
-55.795
-30.508
-13.874
-7.546
-10.193
-20.093
-34.567
-50.764
-66.686
-80.568
-91.091
-97.598
-99.942
-98.423
-93.88
-87.501
-80.45
-73.898
-68.647
-65.136
-63.594
-63.961
-65.984
-69.307
-73.468
-77.91
-82.245
-86.22
-89.629
-92.429
-94.597
-96.101
-96.982
-97.306
-97.113
-96.441
-95.327
-93.781
-91.834
-89.541
-86.951
-84.136
-81.167
-78.106
-75.019
-71.954
-68.938
-65.996
-63.136
-60.356
-57.652
-55.01
-52.408
-49.829
-47.257
-44.673
-42.058
-39.389
-36.64
-33.791
-30.821
-27.71
-24.446
-21.011
-17.396
-13.592
-9.591
-5.39
-0.987
3.62
8.434
13.454
18.678
24.104
29.728
35.542
41.54
47.712
54.046
60.528
67.143
73.871
80.695
87.593
94.542
101.517
108.494
115.445
122.342
129.156
135.856
142.414
148.796
154.974
160.915
166.589
171.968
177.022
181.725
186.05
189.974
193.474
196.531
199.125
201.242
202.868
203.991
204.601
204.693
204.262
203.306
201.826
199.825
197.311
194.292
190.779
186.785
182.328
177.426
172.099
166.371
160.267
153.814
147.04
139.975
132.652
125.103
117.361
109.46
101.435
93.319
85.147
76.951
68.764
60.619
52.545
44.573
36.731
29.045
21.542
14.246
7.178
0.359
-6.193
-12.46
-18.428
-24.085
-29.419
-34.424
-39.092
-43.419
-47.403
-51.045
-54.347
-57.312
-59.948
-62.261
-64.263
-65.963
-67.374
-68.511
-69.388
-70.02
-70.424
-70.616
-70.613
-70.431
-70.089
-69.601
-68.985
-68.257
-67.433
-66.527
-65.555
-64.53
-63.466
-62.375
-61.268
-60.158
-59.052
-57.961
-56.892
-55.852
-54.847
-53.882
-52.962
-52.089
-51.265
-50.493
-49.771
-49.099
-48.477
-47.902
-47.372
-46.884
-46.435
-46.023
-45.643
-45.293
-44.97
-44.67
-44.39
-44.128
-43.881
-43.646
-43.422
-43.206
-42.997
-42.794
-42.595
-42.401
-42.21
-42.022
-41.838
-41.657
-41.481
-41.309
-41.142
-40.982
-40.83
-40.686
-40.553
-40.431
-40.323
-40.231
-40.155
-40.098
-40.06
-40.042
-40.045
-40.069
-40.115
-40.182
-40.271
-40.38
-40.509
-40.657
-40.822
-41.005
-41.203
-41.414
-41.637
-41.87
-42.111
-42.359
-42.612
-42.868
-43.127
-43.388
-43.648
-43.908
-44.166
-44.421
-44.674
-44.922
-45.167
-45.409
-45.646
-45.881
-46.113
-46.345
-46.578
-46.812
-47.051
-47.296
-47.548
-47.811
-48.085
-48.374
-48.679
-49.002
-49.345
-49.709
-50.095
-50.504
-50.936
-51.392
-51.869
-52.368
-52.885
-53.42
-53.969
-54.531
-55.1
-55.675
-56.251
-56.824
-57.388
-57.939
-58.471
-58.976
-59.449
-59.883
-60.269
-60.602
-60.873
-61.076
-61.202
-61.244
-61.195
-61.048
-60.794
-60.429
-59.945
-59.338
-58.603
-57.737
-56.737
-55.602
-54.332
-52.928
-51.392
-49.727
-47.936
-46.025
-43.999
-41.865
-39.631
-37.307
-34.902
-32.43
-29.907
-27.349
-24.773
-22.198
-19.643
-17.128
-14.675
-12.301
-10.025
-7.863
-5.833
-3.953
-2.246
-0.729
0.579
1.663
2.508
3.102
3.433
3.494
3.288
2.816
2.077
1.064
-0.24
-1.848
-3.767
-5.997
-8.533
-11.366
-14.482
-17.851
-21.423
-25.144
-28.961
-32.825
-36.703
-40.553
-44.32
-47.934
-51.305
-54.351
-57.009
-59.228
-60.971
-62.219
-62.973
-63.278
-63.214
-62.888
-62.421
-61.93
-61.541
-61.399
-61.629
-62.417
-64.022
-66.606
-70.219
-74.744
-79.797
-84.941
-89.797
-93.81
-96.289
-96.762
-94.963
-91.182
-86.521
-82.184
-79.255
-78.909
-82.111
-89.336
-100.623
-114.799
-128.975
-139.688
-143.22
-135.432
-112.547
-71.365
-8.839
75.318
177.087
291.417
412.145
534.592
659.758
786.99
909.732
1017.111
1089.983
1108.463
1065.2
959.898
801.568
612.933
413.701
226.806
78.834
-21.556
-73.478
-86.783
-85.91
-83.873
-85.198
-89.859
-88.932
-80.354
-68.693
-57.764
-52.408
-54.242
-61.178
-71.115
-82.035
-91.85
-98.894
-102.352
-102.066
-98.469
-92.539
-85.229
-77.326
-69.744
-63.367
-58.658
-55.788
-54.683
-55.049
-56.644
-59.275
-62.694
-66.642
-70.909
-75.324
-79.726
-83.984
-87.94
-91.419
-94.305
-96.536
-98.076
-98.925
-99.1
-98.619
-97.547
-95.985
-94.027
-91.778
-89.309
-86.648
-83.858
-81.018
-78.202
-75.523
-72.997
-70.523
-68.155
-66.071
-64.415
-63.393
-62.955
-62.697
-62.455
-62.318
-62.054
-61.272
-59.515
-56.052
-50.86
-44.746
-38.124
-31.088
-24.016
-17.272
-11.441
-7.575
-5.728
-4.899
-4.488
-4.129
-3.403
-2.162
0.04
4.118
10.16
17.458
25.543
34.013
42.595
51.354
60.112
68.405
76.145
83.558
90.801
98.056
105.37
112.581
119.637
126.577
133.375
139.975
146.317
152.31
157.914
163.144
167.997
172.464
176.526
180.145
183.294
185.955
188.112
189.755
190.873
191.457
191.502
191.002
189.959
188.378
186.265
183.626
180.473
176.815
172.671
168.065
163.024
157.576
151.747
145.565
139.06
132.263
125.206
117.922
110.442
102.8
95.029
87.162
79.232
71.272
63.313
55.386
47.521
39.745
32.086
24.57
17.221
10.061
3.111
-3.61
-10.087
-16.304
-22.25
-27.915
-33.29
-38.37
-43.151
-47.631
-51.808
-55.684
-59.262
-62.546
-65.542
-68.255
-70.693
-72.866
-74.782
-76.452
-77.886
-79.097
-80.096
-80.895
-81.506
-81.943
-82.219
-82.347
-82.339
-82.208
-81.967
-81.627
-81.201
-80.698
-80.129
-79.503
-78.828
-78.114
-77.367
-76.595
-75.802
-74.995
-74.178
-73.356
-72.533
-71.711
-70.893
-70.081
-69.278
-68.484
-67.701
-66.929
-66.169
-65.421
-64.685
-63.961
-63.25
-62.549
-61.859
-61.179
-60.507
-59.842
-59.184
-58.532
-57.884
-57.24
-56.599
-55.961
-55.327
-54.694
-54.064
-53.436
-52.81
-52.186
-51.564
-50.944
-50.327
-49.714
-49.105
-48.502
-47.904
-47.314
-46.731
-46.158
-45.594
-45.042
-44.501
-43.973
-43.459
-42.959
-42.476
-42.01
-41.562
-41.133
-40.725
-40.338
-39.972
-39.63
-39.31
-39.014
-38.742
-38.496
-38.276
-38.083
-37.917
-37.781
-37.674
-37.597
-37.551
-37.537
-37.553
-37.601
-37.68
-37.791
-37.932
-38.104
-38.307
-38.539
-38.802
-39.092
-39.411
-39.758
-40.131
-40.53
-40.954
-41.403
-41.876
-42.373
-42.893
-43.437
-44.004
-44.593
-45.204
-45.836
-46.489
-47.16
-47.848
-48.552
-49.27
-49.999
-50.739
-51.486
-52.239
-52.995
-53.751
-54.505
-55.254
-55.996
-56.727
-57.444
-58.145
-58.825
-59.482
-60.111
-60.709
-61.271
-61.791
-62.266
-62.688
-63.053
-63.355
-63.586
-63.741
-63.812
-63.793
-63.679
-63.461
-63.135
-62.695
-62.135
-61.452
-60.641
-59.7
-58.625
-57.415
-56.07
-54.59
-52.975
-51.228
-49.35
-47.347
-45.224
-42.985
-40.637
-38.189
-35.652
-33.038
-30.361
-27.636
-24.881
-22.114
-19.356
-16.625
-13.943
-11.329
-8.802
-6.382
-4.089
-1.946
0.024
1.8
3.362
4.692
5.772
6.588
7.128
7.389
7.369
7.067
6.474
5.574
4.354
2.808
0.932
-1.275
-3.801
-6.635
-9.748
-13.092
-16.624
-20.295
-24.066
-27.909
-31.791
-35.665
-39.472
-43.134
-46.571
-49.724
-52.528
-54.928
-56.901
-58.44
-59.591
-60.444
-61.06
-61.508
-61.859
-62.178
-62.58
-63.177
-64.048
-65.339
-67.262
-69.957
-73.477
-77.663
-82.02
-86.033
-89.259
-91.087
-90.835
-87.984
-82.36
-74.566
-66.061
-58.358
-52.551
-49.893
-51.845
-59.194
-71.986
-87.594
-100.359
-106.315
-103.002
-89.686
-68.38
-35.63
15.336
89.607
193.352
325.255
477.25
640.961
802.73
945.687
1053.996
1112.986
1112.685
1055.23
949.782
805.752
637.457
457.287
277.893
119.252
-3.426
-82.291
-116.622
-116.748
-95.272
-61.876
-26.678
0.687
12.998
6.037
-16.975
-45.088
-68.365
-81.913
-86.509
-88.352
-91.771
-96.695
-101.441
-103.358
-101.404
-96.694
-90.51
-83.929
-77.78
-72.573
-68.615
-66.087
-64.934
-64.917
-65.876
-67.71
-70.281
-73.422
-76.948
-80.685
-84.517
-88.343
-92.029
-95.416
-98.336
-100.675
-102.386
-103.451
-103.88
-103.696
-102.922
-101.612
-99.837
-97.663
-95.16
-92.391
-89.409
-86.281
-83.075
-79.86
-76.705
-73.656
-70.732
-67.945
-65.291
-62.758
-60.333
-57.992
-55.701
-53.432
-51.16
-48.863
-46.522
-44.114
-41.612
-38.991
-36.228
-33.301
-30.192
-26.888
-23.374
-19.641
-15.681
-11.491
-7.068
-2.413
2.475
7.596
12.948
18.527
24.326
30.335
36.544
42.941
49.507
56.226
63.075
70.031
77.07
84.164
91.287
98.407
105.495
112.518
119.445
126.241
132.873
139.309
145.515
151.457
157.106
162.429
167.397
171.984
176.162
179.909
183.202
186.023
188.355
190.184
191.498
192.288
192.55
192.279
191.475
190.14
188.278
185.899
183.013
179.633
175.776
171.458
166.702
161.53
155.967
150.04
143.776
137.205
130.358
123.267
115.964
108.482
100.855
93.116
85.298
77.435
69.557
61.697
53.884
46.146
38.512
31.007
23.654
16.477
9.497
2.731
-3.803
-10.088
-16.113
-21.866
-27.337
-32.519
-37.406
-41.996
-46.286
-50.277
-53.971
-57.37
-60.48
-63.306
-65.856
-68.139
-70.165
-71.943
-73.486
-74.805
-75.913
-76.824
-77.549
-78.103
-78.498
-78.746
-78.86
-78.852
-78.733
-78.514
-78.206
-77.818
-77.361
-76.844
-76.273
-75.657
-75.002
-74.315
-73.6
-72.861
-72.103
-71.33
-70.543
-69.746
-68.941
-68.129
-67.312
-66.49
-65.665
-64.837
-64.006
-63.172
-62.335
-61.494
-60.651
-59.804
-58.955
-58.104
-57.251
-56.398
-55.545
-54.694
-53.846
-53.002
-52.164
-51.333
-50.513
-49.706
-48.913
-48.137
-47.382
-46.65
-45.944
-45.267
-44.621
-44.009
-43.432
-42.893
-42.394
-41.937
-41.521
-41.15
-40.823
-40.542
-40.306
-40.116
-39.972
-39.873
-39.818
-39.806
-39.836
-39.906
-40.014
-40.158
-40.336
-40.546
-40.785
-41.051
-41.34
-41.651
-41.979
-42.323
-42.678
-43.043
-43.414
-43.789
-44.166
-44.542
-44.917
-45.288
-45.655
-46.017
-46.374
-46.725
-47.071
-47.413
-47.75
-48.084
-48.416
-48.748
-49.08
-49.416
-49.757
-50.105
-50.463
-50.833
-51.218
-51.619
-52.04
-52.482
-52.947
-53.438
-53.957
-54.504
-55.082
-55.691
-56.332
-57.006
-57.712
-58.449
-59.215
-60.009
-60.828
-61.668
-62.526
-63.397
-64.276
-65.158
-66.039
-66.912
-67.771
-68.609
-69.42
-70.196
-70.928
-71.61
-72.232
-72.785
-73.261
-73.653
-73.951
-74.148
-74.237
-74.209
-74.057
-73.776
-73.359
-72.8
-72.094
-71.238
-70.227
-69.062
-67.74
-66.263
-64.632
-62.849
-60.92
-58.849
-56.642
-54.306
-51.848
-49.277
-46.605
-43.842
-41.001
-38.095
-35.142
-32.159
-29.166
-26.185
-23.237
-20.344
-17.529
-14.815
-12.223
-9.773
-7.482
-5.368
-3.45
-1.746
-0.276
0.943
1.895
2.567
2.946
3.022
2.79
2.253
1.416
0.282
-1.15
-2.889
-4.948
-7.327
-10.027
-13.044
-16.36
-19.952
-23.784
-27.795
-31.921
-36.099
-40.271
-44.395
-48.429
-52.32
-56.004
-59.403
-62.439
-65.054
-67.192
-68.805
-69.883
-70.446
-70.561
-70.353
-69.933
-69.41
-68.905
-68.538
-68.445
-68.775
-69.648
-71.216
-73.7
-77.239
-81.854
-87.375
-93.306
-99.032
-103.945
-107.316
-108.359
-106.506
-101.544
-93.961
-85.11
-76.63
-70.084
-66.906
-68.242
-74.73
-86.075
-100.294
-113.799
-122.254
-120.853
-104.959
-70.501
-13.574
66.737
166.598
280.933
403.457
530.293
663.823
802.562
937.613
1054.477
1129.862
1143.72
1091.287
975.87
810.403
618.586
419.007
232.39
82.837
-22.061
-81.575
-104.199
-112.247
-117.705
-124.515
-132.324
-132.63
-122.883
-106.446
-87.423
-71.302
-60.317
-53.739
-50.591
-49.473
-49.78
-51.685
-54.537
-57.807
-61.192
-64.005
-66.195
-68.055
-69.335
-69.617
-68.936
-67.369
-65.307
-63.664
-62.816
-62.773
-63.712
-65.735
-68.847
-73.025
-77.916
-82.851
-87.392
-91.323
-94.51
-96.963
-98.658
-99.533
-99.638
-99.105
-98.055
-96.579
-94.724
-92.489
-89.898
-87.019
-83.937
-80.747
-77.534
-74.345
-71.211
-68.148
-65.169
-62.276
-59.458
-56.691
-53.943
-51.19
-48.418
-45.618
-42.779
-39.882
-36.902
-33.813
-30.592
-27.222
-23.689
-19.982
-16.09
-12.008
-7.733
-3.264
1.394
6.24
11.274
16.494
21.899
27.484
33.241
39.163
45.239
51.458
57.804
64.259
70.806
77.424
84.09
90.782
97.475
104.143
110.76
117.299
123.732
130.03
136.165
142.109
147.833
153.311
158.516
163.422
168.003
172.238
176.105
179.583
182.655
185.304
187.515
189.276
190.577
191.409
191.766
191.644
191.042
189.959
188.401
186.373
183.883
180.943
177.565
173.765
169.561
164.971
160.016
154.719
149.102
143.191
137.012
130.591
123.955
117.133
110.153
103.041
95.828
88.539
81.202
73.845
66.491
59.168
51.899
44.708
37.617
30.649
23.823
17.159
10.674
4.385
-1.693
-7.548
-13.169
-18.546
-23.672
-28.54
-33.146
-37.487
-41.562
-45.37
-48.914
-52.195
-55.217
-57.985
-60.506
-62.786
-64.833
-66.655
-68.261
-69.66
-70.861
-71.873
-72.708
-73.374
-73.883
-74.244
-74.47
-74.571
-74.558
-74.442
-74.234
-73.943
-73.579
-73.152
-72.669
-72.139
-71.569
-70.965
-70.333
-69.68
-69.009
-68.326
-67.634
-66.937
-66.237
-65.536
-64.836
-64.139
-63.445
-62.757
-62.074
-61.399
-60.732
-60.074
-59.426
-58.788
-58.161
-57.544
-56.937
-56.339
-55.749
-55.167
-54.591
-54.022
-53.458
-52.9
-52.348
-51.802
-51.262
-50.728
-50.203
-49.685
-49.177
-48.68
-48.195
-47.724
-47.268
-46.83
-46.411
-46.014
-45.639
-45.288
-44.963
-44.663
-44.389
-44.141
-43.921
-43.726
-43.559
-43.42
-43.308
-43.224
-43.169
-43.142
-43.144
-43.175
-43.232
-43.317
-43.427
-43.562
-43.719
-43.898
-44.096
-44.312
-44.543
-44.788
-45.043
-45.305
-45.573
-45.843
-46.112
-46.379
-46.64
-46.895
-47.142
-47.381
-47.61
-47.829
-48.039
-48.239
-48.428
-48.608
-48.778
-48.938
-49.089
-49.232
-49.369
-49.499
-49.626
-49.751
-49.876
-50.002
-50.133
-50.27
-50.416
-50.574
-50.746
-50.935
-51.144
-51.375
-51.633
-51.918
-52.232
-52.577
-52.953
-53.36
-53.798
-54.265
-54.758
-55.276
-55.815
-56.373
-56.947
-57.53
-58.121
-58.712
-59.298
-59.874
-60.433
-60.967
-61.468
-61.929
-62.342
-62.699
-62.991
-63.211
-63.349
-63.397
-63.347
-63.19
-62.918
-62.522
-61.995
-61.331
-60.525
-59.573
-58.471
-57.218
-55.813
-54.258
-52.554
-50.705
-48.714
-46.588
-44.334
-41.959
-39.472
-36.886
-34.211
-31.464
-28.662
-25.823
-22.967
-20.115
-17.289
-14.513
-11.808
-9.196
-6.698
-4.332
-2.118
-0.078
1.768
3.396
4.791
5.934
6.811
7.408
7.713
7.719
7.429
6.845
5.967
4.791
3.298
1.478
-0.672
-3.152
-5.954
-9.064
-12.466
-16.127
-19.99
-23.995
-28.082
-32.197
-36.304
-40.357
-44.293
-48.037
-51.492
-54.573
-57.22
-59.379
-61.009
-62.094
-62.642
-62.708
-62.393
-61.81
-61.078
-60.321
-59.671
-59.259
-59.2
-59.651
-60.835
-62.917
-65.97
-69.872
-74.218
-78.568
-82.561
-85.738
-87.507
-87.322
-84.794
-80.217
-74.746
-69.608
-65.708
-63.842
-64.813
-69.416
-78.205
-89.107
-97.303
-98.36
-89.402
-71.773
-49.086
-20.656
19.932
82.857
175.557
297.457
438.102
582.747
723.18
853.32
968.362
1063.058
1118.763
1117.357
1050.732
916.051
729.667
519.033
307.803
123.284
-15.71
-107.135
-154.307
-170.962
-175.108
-173.516
-167.906
-156.136
-133.147
-100.934
-65.868
-33.937
-10.839
0.896
1.799
-6.688
-22.181
-41.748
-62.198
-80.723
-95.552
-105.507
-110.216
-110.02
-105.595
-98.154
-89.409
-80.978
-73.899
-68.841
-66.043
-65.409
-66.794
-69.865
-74.051
-78.732
-83.449
-87.898
-91.905
-95.395
-98.287
-100.527
-102.119
-103.111
-103.547
-103.449
-102.833
-101.714
-100.122
-98.114
-95.749
-93.09
-90.204
-87.157
-84.016
-80.851
-77.715
-74.637
-71.642
-68.741
-65.931
-63.21
-60.562
-57.962
-55.389
-52.822
-50.239
-47.618
-44.936
-42.171
-39.301
-36.304
-33.164
-29.865
-26.392
-22.735
-18.885
-14.837
-10.585
-6.129
-1.469
3.398
8.47
13.747
19.225
24.898
30.761
36.805
43.019
49.39
55.901
62.534
69.27
76.087
82.961
89.869
96.784
103.678
110.524
117.293
123.955
130.48
136.837
142.996
148.928
154.603
159.992
165.069
169.805
174.178
178.162
181.737
184.882
187.579
189.812
191.566
192.832
193.599
193.861
193.614
192.857
191.592
189.823
187.558
184.806
181.579
177.892
173.762
169.208
164.25
158.911
153.216
147.191
140.863
134.261
127.414
120.352
113.107
105.708
98.187
90.576
82.904
75.204
67.503
59.832
52.219
44.692
37.275
29.994
22.872
15.93
9.187
2.662
-3.631
-9.675
-15.461
-20.977
-26.215
-31.169
-35.834
-40.207
-44.287
-48.074
-51.571
-54.782
-57.71
-60.363
-62.747
-64.871
-66.743
-68.375
-69.776
-70.958
-71.932
-72.711
-73.306
-73.73
-73.995
-74.113
-74.096
-73.956
-73.703
-73.348
-72.9
-72.368
-71.762
-71.087
-70.353
-69.564
-68.726
-67.846
-66.926
-65.971
-64.985
-63.97
-62.928
-61.861
-60.772
-59.66
-58.528
-57.376
-56.206
-55.017
-53.811
-52.589
-51.35
-50.097
-48.83
-47.55
-46.258
-44.957
-43.648
-42.333
-41.016
-39.699
-38.387
-37.082
-35.79
-34.515
-33.261
-32.034
-30.838
-29.678
-28.559
-27.486
-26.464
-25.498
-24.591
-23.748
-22.972
-22.267
-21.636
-21.08
-20.602
-20.203
-19.883
-19.643
-19.483
-19.401
-19.396
-19.467
-19.611
-19.826
-20.107
-20.451
-20.854
-21.309
-21.811
-22.355
-22.934
-23.541
-24.17
-24.814
-25.466
-26.121
-26.771
-27.41
-28.032
-28.632
-29.205
-29.747
-30.252
-30.719
-31.144
-31.525
-31.862
-32.153
-32.399
-32.601
-32.759
-32.876
-32.953
-32.992
-32.997
-32.972
-32.92
-32.846
-32.755
-32.652
-32.543
-32.434
-32.33
-32.239
-32.166
-32.118
-32.1
-32.119
-32.179
-32.287
-32.446
-32.661
-32.936
-33.274
-33.677
-34.146
-34.681
-35.283
-35.95
-36.679
-37.468
-38.314
-39.212
-40.158
-41.147
-42.173
-43.231
-44.315
-45.417
-46.531
-47.65
-48.765
-49.868
-50.95
-52.002
-53.016
-53.981
-54.889
-55.73
-56.496
-57.177
-57.765
-58.251
-58.628
-58.887
-59.023
-59.029
-58.901
-58.634
-58.225
-57.674
-56.979
-56.142
-55.162
-54.042
-52.785
-51.395
-49.877
-48.235
-46.476
-44.606
-42.634
-40.567
-38.416
-36.193
-33.909
-31.582
-29.227
-26.863
-24.507
-22.181
-19.902
-17.692
-15.568
-13.547
-11.643
-9.873
-8.252
-6.799
-5.531
-4.46
-3.601
-2.965
-2.562
-2.403
-2.493
-2.827
-3.403
-4.221
-5.289
-6.629
-8.257
-10.18
-12.4
-14.911
-17.702
-20.756
-24.037
-27.484
-31.032
-34.615
-38.178
-41.687
-45.099
-48.354
-51.377
-54.071
-56.349
-58.158
-59.46
-60.23
-60.471
-60.214
-59.54
-58.592
-57.53
-56.513
-55.693
-55.21
-55.203
-55.819
-57.255
-59.77
-63.542
-68.611
-74.81
-81.742
-88.935
-95.909
-102.049
-106.567
-108.756
-108.235
-105.31
-100.99
-96.521
-93.097
-91.708
-93.236
-98.428
-107.356
-118.583
-129.365
-136.138
-134.736
-121.412
-92.744
-44.899
23.896
111.624
215.055
329.302
450.697
581.005
719.407
858.675
985.252
1077.225
1115.441
1092.707
1012.965
889.045
735.223
563.712
385.05
212.732
65.517
-43.85
-110.532
-140.653
-152.66
-159.231
-165.252
-170.004
-166.001
-151.195
-129.354
-105.062
-83.605
-67.375
-56.229
-49.94
-48.199
-50.535
-56.126
-63.703
-72.351
-81.248
-89.429
-96.268
-101.013
-103.189
-102.999
-100.907
-97.395
-93.184
-89.168
-85.924
-83.972
-83.61
-84.723
-87.137
-90.584
-94.61
-98.667
-102.342
-105.358
-107.583
-109.051
-109.781
-109.795
-109.165
-107.988
-106.357
-104.339
-101.97
-99.265
-96.253
-93.001
-89.593
-86.117
-82.658
-79.267
-75.974
-72.803
-69.764
-66.858
-64.079
-61.408
-58.818
-56.293
-53.818
-51.381
-48.966
-46.551
-44.107
-41.605
-39.018
-36.322
-33.5
-30.532
-27.405
-24.105
-20.624
-16.954
-13.091
-9.031
-4.768
-0.295
4.39
9.288
14.398
19.718
25.244
30.968
36.882
42.974
49.229
55.631
62.162
68.802
75.528
82.316
89.141
95.975
102.788
109.552
116.235
122.806
129.232
135.482
141.523
147.323
152.851
158.078
162.974
167.512
171.666
175.412
178.728
181.594
183.992
185.906
187.322
188.23
188.62
188.485
187.824
186.633
184.917
182.68
179.929
176.675
172.931
168.713
164.04
158.931
153.41
147.501
141.229
134.625
127.717
120.536
113.113
105.483
97.677
89.73
81.675
73.545
65.373
57.191
49.031
40.923
32.897
24.981
17.203
9.589
2.163
-5.051
-12.033
-18.762
-25.222
-31.396
-37.273
-42.84
-48.088
-53.012
-57.605
-61.865
-65.792
-69.386
-72.65
-75.589
-78.208
-80.517
-82.523
-84.237
-85.671
-86.838
-87.749
-88.42
-88.863
-89.094
-89.128
-88.979
-88.662
-88.194
-87.588
-86.86
-86.025
-85.097
-84.089
-83.015
-81.887
-80.717
-79.516
-78.294
-77.059
-75.82
-74.583
-73.356
-72.144
-70.951
-69.781
-68.638
-67.523
-66.439
-65.386
-64.365
-63.376
-62.419
-61.492
-60.596
-59.729
-58.89
-58.077
-57.288
-56.521
-55.774
-55.046
-54.334
-53.636
-52.949
-52.273
-51.605
-50.944
-50.29
-49.64
-48.996
-48.356
-47.722
-47.093
-46.472
-45.86
-45.257
-44.666
-44.089
-43.527
-42.983
-42.46
-41.958
-41.48
-41.028
-40.604
-40.21
-39.846
-39.515
-39.217
-38.955
-38.728
-38.539
-38.388
-38.275
-38.201
-38.167
-38.173
-38.218
-38.302
-38.424
-38.584
-38.779
-39.008
-39.268
-39.557
-39.872
-40.209
-40.566
-40.938
-41.322
-41.714
-42.111
-42.51
-42.907
-43.3
-43.684
-44.059
-44.422
-44.77
-45.102
-45.418
-45.714
-45.991
-46.248
-46.485
-46.701
-46.895
-47.069
-47.223
-47.358
-47.474
-47.573
-47.658
-47.729
-47.79
-47.844
-47.895
-47.945
-47.999
-48.062
-48.136
-48.226
-48.337
-48.472
-48.635
-48.828
-49.054
-49.315
-49.613
-49.949
-50.322
-50.734
-51.182
-51.665
-52.181
-52.728
-53.302
-53.901
-54.52
-55.153
-55.798
-56.446
-57.092
-57.729
-58.349
-58.945
-59.508
-60.03
-60.501
-60.912
-61.252
-61.513
-61.684
-61.754
-61.715
-61.557
-61.271
-60.85
-60.286
-59.574
-58.71
-57.691
-56.513
-55.176
-53.68
-52.027
-50.219
-48.261
-46.159
-43.919
-41.55
-39.062
-36.469
-33.787
-31.033
-28.223
-25.377
-22.515
-19.662
-16.842
-14.079
-11.393
-8.805
-6.337
-4.014
-1.862
0.097
1.845
3.365
4.64
5.65
6.376
6.805
6.936
6.775
6.322
5.573
4.509
3.118
1.396
-0.652
-3.021
-5.706
-8.701
-11.99
-15.522
-19.242
-23.087
-26.989
-30.921
-34.861
-38.775
-42.624
-46.318
-49.739
-52.809
-55.477
-57.703
-59.496
-60.825
-61.592
-61.905
-62.039
-62.264
-62.918
-64.111
-65.62
-67.429
-69.841
-72.919
-76.456
-80.073
-82.936
-84.623
-85.512
-85.687
-84.724
-82.35
-78.507
-73.552
-68.888
-65.791
-64.512
-65.501
-69.52
-77.045
-88.318
-102.894
-118.622
-132.368
-141.351
-142.444
-131.974
-106.497
-62.848
1.91
87.437
189.245
302.846
422.956
546.213
674.832
807.412
935.686
1046.291
1118.061
1132.523
1084.676
978.242
825.521
645.627
454.303
268.476
108.899
-10.207
-82.024
-109.561
-109.451
-99.55
-89.942
-84.837
-81.169
-74.014
-64.497
-55.677
-50.486
-51.918
-59.507
-70.752
-83.57
-95.477
-104.3
-109.31
-110.426
-107.99
-102.975
-96.397
-89.118
-82.121
-76.328
-72.156
-69.694
-68.8
-69.075
-70.203
-71.953
-74.061
-76.28
-78.441
-80.421
-82.133
-83.547
-84.579
-85.114
-85.077
-84.415
-83.15
-81.37
-79.209
-76.852
-74.458
-72.158
-70.058
-68.236
-66.733
-65.566
-64.714
-64.106
-63.706
-63.502
-63.48
-63.643
-63.949
-64.317
-64.647
-64.813
-64.706
-64.245
-63.358
-61.99
-60.125
-57.766
-54.961
-51.805
-48.357
-44.654
-40.717
-36.546
-32.153
-27.565
-22.804
-17.894
-12.858
-7.712
-2.476
2.83
8.203
13.65
19.2
24.899
30.777
36.845
43.107
49.552
56.168
62.942
69.85
76.858
83.937
91.056
98.19
105.316
112.405
119.422
126.331
133.09
139.661
146.011
152.106
157.913
163.402
168.547
173.323
177.713
181.697
185.254
188.368
191.018
193.19
194.871
196.048
196.712
196.856
196.477
195.575
194.152
192.216
189.774
186.838
183.423
179.544
175.22
170.472
165.322
159.793
153.911
147.702
141.196
134.42
127.404
120.179
112.775
105.222
97.551
89.793
81.977
74.134
66.292
58.479
50.725
43.055
35.495
28.071
20.806
13.722
6.839
0.175
-6.254
-12.432
-18.348
-23.99
-29.351
-34.422
-39.2
-43.68
-47.862
-51.744
-55.329
-58.62
-61.621
-64.339
-66.779
-68.949
-70.86
-72.519
-73.939
-75.13
-76.103
-76.871
-77.447
-77.842
-78.071
-78.146
-78.08
-77.887
-77.578
-77.167
-76.664
-76.083
-75.434
-74.727
-73.973
-73.18
-72.358
-71.515
-70.657
-69.791
-68.922
-68.057
-67.197
-66.348
-65.512
-64.692
-63.888
-63.102
-62.334
-61.585
-60.855
-60.143
-59.447
-58.767
-58.101
-57.449
-56.807
-56.176
-55.552
-54.935
-54.323
-53.714
-53.107
-52.501
-51.894
-51.287
-50.677
-50.065
-49.449
-48.831
-48.21
-47.587
-46.963
-46.339
-45.715
-45.096
-44.481
-43.874
-43.277
-42.693
-42.125
-41.577
-41.05
-40.548
-40.074
-39.631
-39.222
-38.848
-38.513
-38.218
-37.965
-37.756
-37.592
-37.473
-37.4
-37.373
-37.391
-37.455
-37.562
-37.711
-37.901
-38.13
-38.396
-38.696
-39.029
-39.39
-39.776
-40.184
-40.61
-41.049
-41.497
-41.95
-42.402
-42.851
-43.291
-43.718
-44.129
-44.52
-44.888
-45.23
-45.544
-45.827
-46.077
-46.293
-46.476
-46.624
-46.739
-46.822
-46.875
-46.901
-46.902
-46.882
-46.844
-46.792
-46.73
-46.662
-46.592
-46.526
-46.468
-46.423
-46.397
-46.396
-46.425
-46.489
-46.593
-46.742
-46.939
-47.188
-47.491
-47.851
-48.269
-48.746
-49.282
-49.876
-50.528
-51.235
-51.994
-52.8
-53.649
-54.534
-55.446
-56.379
-57.323
-58.269
-59.206
-60.125
-61.014
-61.865
-62.665
-63.402
-64.066
-64.644
-65.124
-65.494
-65.742
-65.857
-65.828
-65.647
-65.304
-64.793
-64.108
-63.242
-62.193
-60.957
-59.533
-57.921
-56.122
-54.14
-51.979
-49.648
-47.155
-44.511
-41.728
-38.823
-35.813
-32.717
-29.557
-26.354
-23.13
-19.911
-16.72
-13.582
-10.521
-7.557
-4.715
-2.018
0.509
2.84
4.953
6.827
8.44
9.776
10.817
11.551
11.974
12.083
11.874
11.341
10.466
9.233
7.637
5.676
3.353
0.681
-2.318
-5.614
-9.15
-12.869
-16.713
-20.63
-24.582
-28.527
-32.414
-36.175
-39.725
-42.983
-45.886
-48.377
-50.404
-51.949
-53.021
-53.681
-54.04
-54.198
-54.257
-54.324
-54.506
-54.947
-55.788
-57.133
-59.124
-61.96
-65.762
-70.566
-76.191
-82.129
-87.831
-92.822
-96.522
-98.262
-97.505
-94.001
-88.234
-81.538
-75.293
-70.468
-68.012
-69.015
-74.293
-84.05
-95.473
-102.95
-101.915
-89.417
-67.005
-38.965
-3.884
43.866
113.326
214.449
346.476
500.085
661.991
816.054
951.074
1058.742
1130.469
1156.764
1127.57
1038.81
892.021
698.914
482.597
267.44
81.121
-54.618
-135.679
-168.377
-171.073
-165.259
-160.11
-157.056
-151.058
-135.146
-110.497
-82.237
-55.442
-35.149
-22.461
-16.289
-16.354
-21.551
-30.072
-40.217
-50.297
-58.811
-65.286
-69.809
-71.995
-71.664
-69.262
-65.669
-62.004
-59.652
-59.395
-60.961
-64.18
-69.032
-75.233
-82.299
-89.592
-95.966
-100.473
-103.381
-105.047
-105.587
-105.267
-104.206
-102.479
-100.65
-99.281
-98.103
-96.831
-95.357
-93.462
-91.231
-88.833
-86.147
-83.059
-79.77
-76.43
-73.14
-70.053
-67.126
-64.288
-61.572
-58.98
-56.475
-54.046
-51.662
-49.28
-46.904
-44.528
-42.128
-39.691
-37.188
-34.592
-31.886
-29.052
-26.076
-22.948
-19.658
-16.199
-12.561
-8.733
-4.706
-0.471
3.98
8.65
13.543
18.664
24.006
29.563
35.324
41.278
47.412
53.712
60.161
66.739
73.425
80.198
87.034
93.906
100.787
107.647
114.456
121.182
127.792
134.254
140.536
146.603
152.423
157.965
163.198
168.092
172.618
176.751
180.465
183.737
186.547
188.875
190.708
192.031
192.835
193.114
192.862
192.081
190.771
188.938
186.59
183.735
180.388
176.563
172.278
167.553
162.408
156.869
150.961
144.711
138.149
131.305
124.209
116.894
109.392
101.735
93.957
86.09
78.167
70.22
62.28
54.379
46.545
38.807
31.191
23.723
16.426
9.321
2.427
-4.237
-10.658
-16.82
-22.714
-28.328
-33.657
-38.693
-43.435
-47.878
-52.024
-55.874
-59.43
-62.697
-65.68
-68.386
-70.823
-72.999
-74.923
-76.606
-78.058
-79.292
-80.32
-81.153
-81.804
-82.288
-82.615
-82.801
-82.856
-82.793
-82.624
-82.361
-82.012
-81.589
-81.1
-80.554
-79.958
-79.318
-78.641
-77.931
-77.192
-76.429
-75.643
-74.838
-74.015
-73.176
-72.321
-71.453
-70.572
-69.679
-68.774
-67.858
-66.93
-65.992
-65.042
-64.08
-63.106
-62.12
-61.121
-60.108
-59.081
-58.04
-56.984
-55.913
-54.828
-53.729
-52.618
-51.495
-50.363
-49.224
-48.082
-46.94
-45.801
-44.672
-43.555
-42.457
-41.382
-40.336
-39.322
-38.346
-37.413
-36.527
-35.691
-34.911
-34.188
-33.528
-32.931
-32.402
-31.941
-31.553
-31.237
-30.996
-30.832
-30.744
-30.735
-30.804
-30.951
-31.177
-31.48
-31.859
-32.312
-32.835
-33.425
-34.078
-34.79
-35.553
-36.364
-37.214
-38.097
-39.007
-39.936
-40.877
-41.823
-42.768
-43.704
-44.626
-45.528
-46.404
-47.249
-48.058
-48.829
-49.557
-50.238
-50.872
-51.454
-51.983
-52.458
-52.878
-53.241
-53.548
-53.799
-53.994
-54.136
-54.227
-54.269
-54.266
-54.222
-54.143
-54.034
-53.899
-53.747
-53.583
-53.413
-53.244
-53.082
-52.934
-52.806
-52.702
-52.629
-52.589
-52.588
-52.628
-52.711
-52.838
-53.011
-53.228
-53.489
-53.792
-54.135
-54.513
-54.925
-55.364
-55.826
-56.306
-56.796
-57.291
-57.781
-58.259
-58.716
-59.143
-59.528
-59.863
-60.138
-60.34
-60.462
-60.492
-60.422
-60.242
-59.943
-59.518
-58.96
-58.262
-57.42
-56.429
-55.288
-53.995
-52.553
-50.963
-49.23
-47.36
-45.363
-43.248
-41.028
-38.715
-36.325
-33.875
-31.381
-28.863
-26.337
-23.823
-21.339
-18.905
-16.543
-14.274
-12.117
-10.097
-8.234
-6.551
-5.068
-3.803
-2.768
-1.975
-1.436
-1.163
-1.174
-1.484
-2.101
-3.036
-4.295
-5.876
-7.771
-9.953
-12.38
-15.005
-17.78
-20.659
-23.606
-26.58
-29.537
-32.431
-35.202
-37.795
-40.165
-42.259
-44.038
-45.476
-46.571
-47.377
-48.001
-48.556
-49.153
-49.882
-50.813
-52.045
-53.693
-55.869
-58.695
-62.254
-66.641
-72.042
-78.55
-86.083
-94.339
-102.689
-110.358
-116.7
-121.038
-122.54
-120.683
-115.431
-107.343
-97.913
-88.87
-81.487
-76.917
-76.307
-80.111
-87.673
-96.976
-104.213
-105.005
-95.431
-71.649
-29.973
32.718
116.336
216.983
329.322
446.497
566.021
689.872
813.533
928.211
1018.473
1062.391
1050.199
982.759
868.111
722.559
557.838
383.239
211.429
56.969
-65.3
-145.449
-182.901
-187.67
-171.917
-146.935
-122.827
-103.566
-92.953
-91.726
-94.629
-98.118
-97.823
-92.527
-86.91
-83.335
-82.886
-84.902
-85.698
-83.772
-79.521
-73.55
-67.151
-61.145
-55.716
-51.344
-48.618
-47.715
-48.554
-50.905
-54.394
-58.744
-63.771
-69.22
-74.784
-80.199
-85.235
-89.704
-93.511
-96.586
-98.873
-100.356
-101.032
-100.932
-100.12
-98.679
-96.689
-94.229
-91.371
-88.186
-84.761
-81.188
-77.559
-73.959
-70.447
-67.059
-63.82
-60.742
-57.829
-55.074
-52.456
-49.945
-47.517
-45.152
-42.835
-40.55
-38.274
-35.984
-33.656
-31.264
-28.791
-26.216
-23.523
-20.694
-17.717
-14.581
-11.277
-7.799
-4.14
-0.29
3.758
8.01
12.471
17.145
22.033
27.136
32.449
37.968
43.685
49.59
55.67
61.911
68.298
74.812
81.433
88.139
94.906
101.71
108.521
115.313
122.054
128.714
135.259
141.657
147.875
153.878
159.634
165.111
170.275
175.098
179.549
183.602
187.23
190.411
193.122
195.345
197.062
198.26
198.927
199.055
198.638
197.674
196.162
194.106
191.513
188.391
184.751
180.609
175.981
170.887
165.349
159.391
153.04
146.326
139.279
131.931
124.317
116.472
108.432
100.233
91.912
83.506
75.052
66.585
58.141
49.754
41.457
33.281
25.258
17.414
9.777
2.372
-4.779
-11.656
-18.24
-24.515
-30.468
-36.087
-41.363
-46.289
-50.86
-55.074
-58.93
-62.431
-65.579
-68.382
-70.845
-72.98
-74.798
-76.31
-77.531
-78.477
-79.163
-79.607
-79.825
-79.835
-79.655
-79.302
-78.795
-78.15
-77.385
-76.515
-75.557
-74.525
-73.433
-72.295
-71.124
-69.93
-68.723
-67.513
-66.308
-65.116
-63.943
-62.795
-61.675
-60.589
-59.538
-58.526
-57.553
-56.62
-55.726
-54.872
-54.055
-53.273
-52.524
-51.805
-51.114
-50.446
-49.801
-49.173
-48.561
-47.962
-47.373
-46.792
-46.217
-45.646
-45.077
-44.509
-43.942
-43.375
-42.808
-42.243
-41.679
-41.118
-40.562
-40.012
-39.47
-38.938
-38.418
-37.911
-37.421
-36.949
-36.497
-36.069
-35.666
-35.291
-34.947
-34.634
-34.356
-34.114
-33.909
-33.741
-33.612
-33.522
-33.471
-33.458
-33.485
-33.55
-33.654
-33.794
-33.971
-34.182
-34.426
-34.701
-35.004
-35.332
-35.684
-36.055
-36.444
-36.848
-37.264
-37.689
-38.122
-38.56
-39
-39.44
-39.877
-40.309
-40.735
-41.152
-41.56
-41.959
-42.346
-42.724
-43.092
-43.45
-43.8
-44.142
-44.477
-44.806
-45.129
-45.449
-45.766
-46.082
-46.399
-46.718
-47.042
-47.373
-47.712
-48.061
-48.423
-48.798
-49.187
-49.591
-50.012
-50.448
-50.901
-51.37
-51.856
-52.357
-52.872
-53.399
-53.936
-54.481
-55.029
-55.576
-56.118
-56.651
-57.167
-57.663
-58.131
-58.567
-58.963
-59.313
-59.612
-59.852
-60.026
-60.128
-60.152
-60.089
-59.935
-59.683
-59.327
-58.862
-58.284
-57.589
-56.775
-55.838
-54.777
-53.59
-52.279
-50.844
-49.286
-47.609
-45.817
-43.915
-41.91
-39.809
-37.621
-35.357
-33.029
-30.651
-28.239
-25.81
-23.382
-20.974
-18.605
-16.295
-14.063
-11.927
-9.902
-8.007
-6.256
-4.668
-3.262
-2.054
-1.059
-0.292
0.237
0.514
0.532
0.288
-0.215
-0.98
-2.009
-3.317
-4.919
-6.821
-9.026
-11.529
-14.318
-17.374
-20.667
-24.146
-27.754
-31.431
-35.119
-38.774
-42.351
-45.797
-49.045
-52.011
-54.61
-56.777
-58.461
-59.624
-60.264
-60.396
-60.077
-59.418
-58.537
-57.566
-56.647
-55.914
-55.516
-55.61
-56.339
-57.888
-60.478
-64.221
-69.113
-74.965
-81.334
-87.723
-93.642
-98.5
-101.686
-102.73
-101.392
-98.021
-93.599
-89.216
-85.932
-84.494
-85.17
-88.336
-94.168
-101.287
-107.336
-108.355
-98.672
-75.566
-38.185
12.939
74.164
145.626
229.37
326.628
440.366
567.868
704.612
845.417
977.984
1089.895
1162.027
1171.924
1109.143
971.598
773.748
545.228
314.863
110.34
-48.603
-154.147
-206.538
-213.001
-185.507
-139.934
-91.009
-53.165
-37.207
-43.452
-66.259
-93.355
-112.803
-121.18
-120.62
-118.08
-118.855
-122.874
-127.604
-129.475
-126.998
-121.017
-112.819
-103.695
-94.434
-85.478
-77.382
-70.516
-64.893
-60.402
-56.87
-54.186
-52.354
-51.291
-50.859
-50.951
-51.507
-52.54
-54.057
-55.989
-58.234
-60.7
-63.327
-66.09
-68.987
-71.974
-74.987
-77.949
-80.76
-83.364
-85.723
-87.786
-89.502
-90.794
-91.603
-91.915
-91.741
-91.091
-89.97
-88.37
-86.283
-83.741
-80.793
-77.503
-73.954
-70.197
-66.269
-62.211
-58.062
-53.868
-49.666
-45.463
-41.251
-37.024
-32.775
-28.505
-24.213
-19.875
-15.458
-10.928
-6.244
-1.382
3.674
8.937
14.417
20.117
26.035
32.16
38.468
44.94
51.557
58.302
65.156
72.092
79.08
86.092
93.094
100.057
106.951
113.746
120.412
126.922
133.248
139.364
145.248
150.874
156.216
161.248
165.944
170.281
174.235
177.784
180.909
183.59
185.813
187.566
188.837
189.62
189.91
189.702
188.997
187.797
186.106
183.931
181.28
178.164
174.597
170.594
166.172
161.35
156.15
150.594
144.706
138.512
132.038
125.311
118.36
111.214
103.902
96.456
88.904
81.277
73.606
65.919
58.246
50.615
43.053
35.585
28.235
21.027
13.98
7.115
0.449
-6.001
-12.221
-18.196
-23.916
-29.37
-34.549
-39.447
-44.058
-48.379
-52.409
-56.146
-59.593
-62.752
-65.627
-68.224
-70.548
-72.608
-74.411
-75.968
-77.288
-78.382
-79.262
-79.941
-80.429
-80.74
-80.885
-80.877
-80.727
-80.446
-80.047
-79.538
-78.93
-78.234
-77.459
-76.614
-75.709
-74.752
-73.75
-72.712
-71.644
-70.552
-69.444
-68.322
-67.194
-66.062
-64.93
-63.802
-62.681
-61.57
-60.469
-59.382
-58.309
-57.251
-56.208
-55.182
-54.172
-53.179
-52.204
-51.246
-50.308
-49.389
-48.492
-47.617
-46.765
-45.938
-45.136
-44.362
-43.617
-42.9
-42.214
-41.56
-40.939
-40.351
-39.798
-39.282
-38.802
-38.36
-37.957
-37.594
-37.27
-36.987
-36.746
-36.546
-36.39
-36.276
-36.205
-36.178
-36.195
-36.254
-36.356
-36.498
-36.681
-36.901
-37.156
-37.445
-37.764
-38.112
-38.484
-38.879
-39.294
-39.724
-40.169
-40.623
-41.086
-41.554
-42.024
-42.494
-42.961
-43.424
-43.88
-44.328
-44.764
-45.189
-45.6
-45.995
-46.373
-46.733
-47.075
-47.397
-47.699
-47.981
-48.242
-48.485
-48.709
-48.916
-49.107
-49.284
-49.451
-49.608
-49.76
-49.907
-50.054
-50.203
-50.357
-50.518
-50.689
-50.872
-51.069
-51.282
-51.513
-51.764
-52.036
-52.329
-52.645
-52.983
-53.343
-53.726
-54.13
-54.555
-54.999
-55.46
-55.937
-56.428
-56.929
-57.438
-57.951
-58.463
-58.97
-59.466
-59.945
-60.401
-60.828
-61.218
-61.565
-61.863
-62.104
-62.282
-62.388
-62.418
-62.363
-62.218
-61.977
-61.633
-61.182
-60.619
-59.94
-59.143
-58.225
-57.183
-56.019
-54.731
-53.32
-51.788
-50.137
-48.371
-46.493
-44.509
-42.426
-40.25
-37.994
-35.669
-33.289
-30.869
-28.425
-25.975
-23.536
-21.127
-18.765
-16.467
-14.249
-12.129
-10.123
-8.25
-6.53
-4.981
-3.62
-2.462
-1.523
-0.815
-0.348
-0.127
-0.153
-0.429
-0.962
-1.768
-2.863
-4.253
-5.943
-7.933
-10.212
-12.768
-15.573
-18.58
-21.739
-24.995
-28.297
-31.609
-34.888
-38.083
-41.134
-43.958
-46.481
-48.646
-50.399
-51.701
-52.544
-52.929
-52.911
-52.595
-52.076
-51.472
-50.912
-50.511
-50.424
-50.818
-51.822
-53.623
-56.45
-60.414
-65.542
-71.697
-78.454
-85.355
-91.972
-97.67
-101.746
-103.696
-103.184
-100.407
-96.308
-91.872
-87.981
-85.666
-85.812
-88.926
-95.203
-103.679
-111.73
-116.325
-114.321
-102.008
-75.814
-32.567
31.127
115.424
215.502
326.339
442.535
561.624
688.304
823.269
958.307
1077.875
1156.352
1171.015
1115.563
995.495
826.9
632.94
431.475
238.114
70.893
-55.959
-133.833
-161.614
-150.058
-119.959
-89.852
-71.402
-70.903
-81.585
-93.143
-101.061
-100.365
-93.199
-86.948
-83.858
-85.241
-90.22
-94.295
-95.254
-92.987
-87.727
-80.732
-73.183
-65.519
-58.251
-52.094
-47.561
-44.848
-43.977
-44.769
-46.896
-50.134
-54.245
-58.918
-63.904
-68.978
-73.916
-78.534
-82.664
-86.171
-88.984
-91.065
-92.399
-92.997
-92.89
-92.137
-90.824
-89.032
-86.839
-84.323
-81.55
-78.604
-75.576
-72.553
-69.618
-66.827
-64.209
-61.781
-59.549
-57.503
-55.629
-53.895
-52.263
-50.698
-49.175
-47.669
-46.156
-44.606
-42.989
-41.272
-39.425
-37.421
-35.236
-32.847
-30.235
-27.383
-24.28
-20.917
-17.29
-13.392
-9.22
-4.769
-0.039
4.973
10.263
15.83
21.668
27.769
34.121
40.711
47.52
54.525
61.702
69.021
76.447
83.95
91.495
99.048
106.575
114.038
121.401
128.633
135.695
142.55
149.155
155.458
161.415
166.994
172.17
176.927
181.259
185.159
188.621
191.655
194.258
196.421
198.123
199.322
199.977
200.068
199.588
198.552
196.978
194.859
192.186
188.95
185.121
180.678
175.594
169.814
163.31
156.102
148.237
139.821
130.98
121.807
112.378
102.753
92.979
83.132
73.29
63.519
53.906
44.544
35.536
27.033
19.152
11.942
5.416
-0.485
-5.858
-10.762
-15.239
-19.334
-23.068
-26.478
-29.601
-32.449
-35.048
-37.439
-39.684
-41.887
-44.135
-46.462
-48.872
-51.325
-53.745
-56.089
-58.325
-60.41
-62.328
-64.063
-65.605
-66.972
-68.185
-69.247
-70.147
-70.856
-71.345
-71.61
-71.665
-71.535
-71.264
-70.883
-70.419
-69.909
-69.375
-68.834
-68.297
-67.759
-67.209
-66.647
-66.075
-65.498
-64.929
-64.37
-63.821
-63.281
-62.748
-62.217
-61.685
-61.144
-60.588
-60.014
-59.421
-58.811
-58.188
-57.555
-56.912
-56.263
-55.608
-54.946
-54.28
-53.607
-52.927
-52.24
-51.546
-50.848
-50.146
-49.444
-48.742
-48.045
-47.353
-46.669
-45.996
-45.334
-44.686
-44.054
-43.439
-42.843
-42.267
-41.714
-41.184
-40.68
-40.202
-39.753
-39.333
-38.944
-38.586
-38.26
-37.966
-37.704
-37.474
-37.277
-37.112
-36.979
-36.878
-36.808
-36.767
-36.755
-36.77
-36.81
-36.874
-36.96
-37.065
-37.189
-37.331
-37.488
-37.661
-37.849
-38.049
-38.263
-38.488
-38.725
-38.972
-39.23
-39.497
-39.773
-40.058
-40.352
-40.653
-40.962
-41.278
-41.6
-41.93
-42.266
-42.61
-42.962
-43.324
-43.697
-44.084
-44.485
-44.904
-45.341
-45.8
-46.281
-46.786
-47.316
-47.872
-48.454
-49.062
-49.697
-50.357
-51.043
-51.751
-52.481
-53.231
-53.996
-54.776
-55.565
-56.362
-57.163
-57.965
-58.763
-59.555
-60.336
-61.102
-61.848
-62.569
-63.258
-63.909
-64.515
-65.067
-65.557
-65.978
-66.322
-66.582
-66.748
-66.815
-66.775
-66.622
-66.349
-65.952
-65.426
-64.765
-63.969
-63.034
-61.96
-60.749
-59.401
-57.918
-56.304
-54.563
-52.699
-50.717
-48.624
-46.425
-44.129
-41.744
-39.28
-36.748
-34.161
-31.533
-28.884
-26.231
-23.595
-20.997
-18.458
-16.001
-13.646
-11.415
-9.323
-7.389
-5.629
-4.058
-2.696
-1.559
-0.659
-0.01
0.379
0.501
0.348
-0.081
-0.78
-1.744
-2.968
-4.459
-6.231
-8.298
-10.664
-13.328
-16.284
-19.518
-23.01
-26.723
-30.598
-34.57
-38.577
-42.559
-46.476
-50.278
-53.902
-57.269
-60.283
-62.857
-64.93
-66.452
-67.392
-67.745
-67.537
-66.838
-65.762
-64.447
-63.035
-61.671
-60.508
-59.696
-59.388
-59.784
-61.145
-63.642
-67.308
-71.973
-77.202
-82.5
-87.392
-91.263
-93.36
-93.111
-90.293
-85.364
-79.529
-74.157
-70.449
-69.492
-72.277
-79.414
-90.722
-104.495
-117.436
-125.553
-124.901
-111.603
-81.763
-31.936
40.645
134.868
244.962
364.569
486.538
607.437
730.186
853.006
968.997
1065.957
1119.875
1111.641
1034.147
887.726
692.043
475.865
264.932
87.313
-40.75
-117.646
-147.607
-145.483
-126.07
-98.948
-73.439
-52.732
-39.649
-35.35
-34.691
-34.832
-32.7
-27.937
-26.271
-30.687
-41.635
-57.532
-73.927
-87.808
-98.389
-105.441
-108.934
-108.995
-105.969
-100.626
-94.188
-87.967
-82.597
-78.381
-75.766
-74.871
-75.656
-77.993
-81.371
-85.19
-89.112
-92.909
-96.36
-99.36
-101.793
-103.556
-104.681
-105.238
-105.265
-104.792
-103.829
-102.383
-100.493
-98.218
-95.62
-92.761
-89.709
-86.535
-83.311
-80.116
-77.008
-74.022
-71.178
-68.486
-65.941
-63.537
-61.26
-59.083
-56.979
-54.926
-52.896
-50.865
-48.805
-46.687
-44.48
-42.159
-39.696
-37.07
-34.259
-31.247
-28.018
-24.562
-20.87
-16.936
-12.756
-8.326
-3.642
1.296
6.489
11.932
17.622
23.551
29.709
36.083
42.656
49.408
56.317
63.36
70.508
77.735
85.01
92.3
99.574
106.796
113.932
120.946
127.802
134.463
140.894
147.06
152.926
158.46
163.631
168.411
172.774
176.694
180.15
183.123
185.595
187.552
188.982
189.875
190.225
190.029
189.286
187.998
186.172
183.817
180.945
177.569
173.707
169.379
164.606
159.411
153.822
147.864
141.568
134.965
128.087
120.968
113.64
106.139
98.499
90.753
82.936
75.079
67.215
59.375
51.587
43.882
36.285
28.824
21.521
14.401
7.484
0.788
-5.668
-11.87
-17.805
-23.462
-28.831
-33.906
-38.68
-43.151
-47.316
-51.175
-54.729
-57.982
-60.939
-63.606
-65.992
-68.107
-69.96
-71.564
-72.93
-74.071
-75
-75.731
-76.276
-76.65
-76.865
-76.937
-76.879
-76.704
-76.425
-76.056
-75.608
-75.092
-74.521
-73.903
-73.247
-72.564
-71.859
-71.141
-70.416
-69.691
-68.969
-68.255
-67.553
-66.865
-66.194
-65.538
-64.9
-64.277
-63.67
-63.076
-62.495
-61.923
-61.361
-60.804
-60.251
-59.7
-59.148
-58.592
-58.028
-57.455
-56.87
-56.27
-55.654
-55.018
-54.364
-53.688
-52.992
-52.275
-51.538
-50.781
-50.005
-49.212
-48.404
-47.582
-46.752
-45.915
-45.076
-44.24
-43.411
-42.595
-41.796
-41.019
-40.269
-39.551
-38.869
-38.226
-37.627
-37.076
-36.577
-36.133
-35.747
-35.423
-35.163
-34.97
-34.845
-34.79
-34.805
-34.891
-35.046
-35.272
-35.565
-35.925
-36.349
-36.835
-37.378
-37.975
-38.622
-39.312
-40.039
-40.798
-41.582
-42.384
-43.198
-44.017
-44.835
-45.648
-46.45
-47.235
-47.999
-48.738
-49.448
-50.124
-50.765
-51.366
-51.926
-52.443
-52.915
-53.343
-53.726
-54.064
-54.358
-54.609
-54.819
-54.988
-55.12
-55.218
-55.283
-55.321
-55.335
-55.331
-55.314
-55.288
-55.259
-55.232
-55.211
-55.201
-55.205
-55.226
-55.268
-55.331
-55.418
-55.529
-55.665
-55.825
-56.007
-56.209
-56.429
-56.661
-56.903
-57.148
-57.39
-57.624
-57.843
-58.041
-58.211
-58.345
-58.437
-58.478
-58.46
-58.376
-58.216
-57.972
-57.636
-57.2
-56.657
-55.999
-55.222
-54.318
-53.286
-52.121
-50.821
-49.384
-47.812
-46.105
-44.266
-42.301
-40.215
-38.016
-35.715
-33.323
-30.858
-28.333
-25.767
-23.179
-20.587
-18.012
-15.474
-12.99
-10.579
-8.258
-6.046
-3.962
-2.027
-0.26
1.318
2.688
3.833
4.737
5.387
5.777
5.902
5.758
5.338
4.625
3.604
2.266
0.602
-1.391
-3.705
-6.324
-9.216
-12.325
-15.596
-18.969
-22.393
-25.826
-29.226
-32.544
-35.726
-38.696
-41.387
-43.74
-45.7
-47.216
-48.272
-48.895
-49.166
-49.222
-49.19
-49.177
-49.293
-49.647
-50.354
-51.526
-53.263
-55.651
-58.842
-63.082
-68.481
-74.994
-82.385
-90.111
-97.559
-104.148
-109.077
-111.357
-110.49
-106.446
-99.589
-91.368
-83.354
-76.777
-73.636
-74.698
-78.192
-82.262
-84.195
-84.049
-86.593
-92.177
-96.673
-86.805
-42.137
44.837
172.4
327.245
486.895
644.238
795.936
935.537
1057.365
1140.677
1163.003
1117.727
1006.788
844.27
654.212
455.048
264.857
104.627
-13.179
-83.24
-109.287
-108.823
-99.648
-91.303
-87.681
-85.174
-78.698
-69.646
-61.172
-56.247
-57.824
-65.256
-75.96
-87.92
-98.731
-106.259
-109.833
-109.409
-105.342
-98.653
-90.398
-81.458
-72.843
-65.511
-59.921
-56.235
-54.412
-54.173
-55.288
-57.568
-60.752
-64.565
-68.791
-73.251
-77.781
-82.244
-86.462
-90.235
-93.423
-95.939
-97.74
-98.822
-99.199
-98.895
-97.96
-96.468
-94.49
-92.096
-89.356
-86.332
-83.1
-79.743
-76.344
-72.983
-69.717
-66.58
-63.588
-60.743
-58.038
-55.455
-52.97
-50.547
-48.159
-45.782
-43.393
-40.974
-38.501
-35.948
-33.29
-30.501
-27.562
-24.454
-21.162
-17.674
-13.981
-10.077
-5.957
-1.623
2.927
7.695
12.682
17.886
23.307
28.938
34.774
40.807
47.025
53.415
59.96
66.643
73.441
80.334
87.298
94.308
101.336
108.356
115.339
122.254
129.072
135.761
142.291
148.63
154.748
160.614
166.2
171.477
176.419
181
185.196
188.986
192.35
195.269
197.726
199.708
201.204
202.202
202.698
202.684
202.161
201.127
199.587
197.547
195.013
191.996
188.509
184.567
180.185
175.384
170.184
164.606
158.675
152.417
145.857
139.024
131.947
124.653
117.173
109.537
101.775
93.915
85.989
78.025
70.052
62.098
54.191
46.357
38.622
31.009
23.543
16.245
9.136
2.235
-4.442
-10.877
-17.056
-22.967
-28.597
-33.937
-38.979
-43.717
-48.146
-52.263
-56.067
-59.557
-62.737
-65.608
-68.176
-70.446
-72.424
-74.12
-75.541
-76.699
-77.602
-78.264
-78.696
-78.912
-78.923
-78.745
-78.391
-77.874
-77.21
-76.411
-75.493
-74.468
-73.352
-72.157
-70.897
-69.584
-68.231
-66.85
-65.452
-64.048
-62.647
-61.26
-59.893
-58.556
-57.254
-55.995
-54.783
-53.624
-52.522
-51.479
-50.499
-49.584
-48.734
-47.95
-47.232
-46.58
-45.991
-45.465
-44.998
-44.589
-44.233
-43.929
-43.672
-43.457
-43.282
-43.141
-43.029
-42.944
-42.879
-42.83
-42.793
-42.765
-42.741
-42.717
-42.69
-42.656
-42.614
-42.56
-42.492
-42.407
-42.305
-42.184
-42.043
-41.881
-41.698
-41.495
-41.271
-41.029
-40.769
-40.493
-40.202
-39.899
-39.586
-39.267
-38.943
-38.619
-38.298
-37.983
-37.678
-37.387
-37.114
-36.862
-36.634
-36.435
-36.267
-36.135
-36.04
-35.987
-35.978
-36.015
-36.101
-36.239
-36.429
-36.674
-36.974
-37.331
-37.744
-38.215
-38.742
-39.326
-39.965
-40.659
-41.407
-42.206
-43.056
-43.952
-44.894
-45.877
-46.899
-47.957
-49.046
-50.164
-51.305
-52.466
-53.643
-54.832
-56.026
-57.221
-58.412
-59.593
-60.757
-61.9
-63.015
-64.095
-65.135
-66.13
-67.073
-67.959
-68.782
-69.538
-70.22
-70.824
-71.344
-71.775
-72.111
-72.347
-72.479
-72.503
-72.413
-72.207
-71.881
-71.431
-70.853
-70.147
-69.308
-68.335
-67.225
-65.98
-64.597
-63.081
-61.432
-59.653
-57.75
-55.728
-53.593
-51.353
-49.014
-46.586
-44.075
-41.492
-38.846
-36.149
-33.412
-30.647
-27.871
-25.1
-22.354
-19.649
-17.007
-14.445
-11.983
-9.641
-7.436
-5.382
-3.493
-1.784
-0.271
1.03
2.104
2.94
3.528
3.858
3.923
3.716
3.239
2.499
1.502
0.25
-1.263
-3.054
-5.133
-7.502
-10.158
-13.095
-16.303
-19.763
-23.438
-27.261
-31.164
-35.079
-38.947
-42.721
-46.344
-49.738
-52.821
-55.496
-57.683
-59.333
-60.403
-60.855
-60.686
-59.917
-58.61
-56.918
-55.01
-53.06
-51.27
-49.807
-48.807
-48.461
-48.997
-50.567
-53.245
-56.914
-61.214
-65.837
-70.555
-75.006
-78.704
-81.193
-82.086
-81.521
-80.36
-79.341
-78.872
-79.586
-82.091
-86.873
-94.684
-103.692
-109.173
-107.659
-95.853
-74.892
-51.492
-26.475
2.958
45.228
116.677
223.049
361.969
525.06
693
852.086
990.249
1092.902
1149.416
1146.908
1078.784
948.985
769.743
563.029
352.534
160.73
5.599
-102.964
-163.016
-179.398
-161.698
-123.626
-78.556
-40.799
-21.705
-23.385
-41.902
-65.881
-84.12
-92.969
-94.015
-93.751
-96.938
-103.388
-110.613
-115.037
-115.168
-111.802
-106.163
-99.583
-92.937
-86.724
-81.555
-77.822
-75.542
-74.582
-74.712
-75.734
-77.527
-79.939
-82.755
-85.806
-88.975
-92.14
-95.189
-97.979
-100.336
-102.151
-103.372
-103.966
-103.942
-103.327
-102.149
-100.467
-98.356
-95.876
-93.09
-90.055
-86.821
-83.454
-80.028
-76.612
-73.28
-70.083
-67.048
-64.191
-61.515
-59.007
-56.651
-54.421
-52.279
-50.195
-48.145
-46.102
-44.044
-41.948
-39.784
-37.525
-35.144
-32.616
-29.921
-27.04
-23.957
-20.661
-17.141
-13.393
-9.413
-5.2
-0.752
3.933
8.856
14.013
19.401
25.013
30.843
36.878
43.107
49.512
56.074
62.774
69.586
76.487
83.45
90.445
97.442
104.411
111.317
118.129
124.813
131.334
137.658
143.754
149.586
155.125
160.34
165.203
169.685
173.764
177.415
180.619
183.356
185.612
187.372
188.625
189.362
189.576
189.263
188.422
187.055
185.165
182.761
179.851
176.447
172.566
168.224
163.441
158.239
152.642
146.677
140.37
133.752
126.851
119.701
112.332
104.778
97.072
89.246
81.333
73.365
65.373
57.389
49.441
41.559
33.769
26.099
18.572
11.213
4.043
-2.917
-9.648
-16.134
-22.359
-28.31
-33.976
-39.348
-44.417
-49.18
-53.631
-57.771
-61.6
-65.119
-68.333
-71.248
-73.871
-76.21
-78.276
-80.079
-81.63
-82.944
-84.031
-84.907
-85.585
-86.078
-86.401
-86.567
-86.59
-86.483
-86.259
-85.93
-85.509
-85.008
-84.436
-83.806
-83.126
-82.405
-81.653
-80.876
-80.08
-79.272
-78.457
-77.638
-76.818
-76
-75.185
-74.375
-73.569
-72.767
-71.969
-71.172
-70.376
-69.578
-68.776
-67.968
-67.152
-66.326
-65.488
-64.636
-63.771
-62.891
-61.996
-61.085
-60.16
-59.222
-58.271
-57.308
-56.337
-55.359
-54.376
-53.392
-52.411
-51.436
-50.471
-49.52
-48.587
-47.677
-46.794
-45.943
-45.128
-44.354
-43.624
-42.943
-42.316
-41.745
-41.233
-40.785
-40.403
-40.087
-39.839
-39.66
-39.55
-39.507
-39.53
-39.617
-39.765
-39.971
-40.232
-40.544
-40.903
-41.302
-41.739
-42.206
-42.699
-43.211
-43.738
-44.274
-44.813
-45.349
-45.88
-46.398
-46.901
-47.384
-47.844
-48.277
-48.68
-49.051
-49.388
-49.689
-49.955
-50.184
-50.379
-50.539
-50.668
-50.768
-50.842
-50.894
-50.928
-50.947
-50.957
-50.963
-50.969
-50.982
-51.005
-51.045
-51.107
-51.195
-51.315
-51.471
-51.666
-51.904
-52.187
-52.516
-52.894
-53.322
-53.798
-54.323
-54.895
-55.514
-56.175
-56.875
-57.61
-58.375
-59.163
-59.967
-60.778
-61.589
-62.391
-63.174
-63.928
-64.644
-65.312
-65.921
-66.461
-66.921
-67.293
-67.565
-67.727
-67.771
-67.688
-67.47
-67.109
-66.601
-65.939
-65.119
-64.137
-62.992
-61.682
-60.208
-58.57
-56.77
-54.812
-52.701
-50.444
-48.051
-45.53
-42.897
-40.165
-37.353
-34.481
-31.568
-28.636
-25.707
-22.802
-19.942
-17.146
-14.437
-11.836
-9.363
-7.043
-4.897
-2.948
-1.218
0.274
1.514
2.488
3.189
3.614
3.755
3.608
3.158
2.388
1.287
-0.15
-1.928
-4.043
-6.482
-9.222
-12.222
-15.429
-18.791
-22.261
-25.798
-29.371
-32.935
-36.438
-39.804
-42.958
-45.841
-48.414
-50.652
-52.518
-53.975
-55.029
-55.752
-56.255
-56.674
-57.081
-57.451
-57.922
-58.796
-60.362
-62.96
-66.741
-71.575
-77.477
-84.578
-92.466
-100.245
-106.861
-111.021
-112.034
-109.987
-104.797
-96.463
-85.991
-75.197
-66.358
-61.987
-63.354
-70.42
-83.006
-100.249
-119.676
-137.414
-148.557
-147.89
-131.339
-95.942
-39.143
40.694
141.506
257.449
381.791
506.874
629.399
750.941
867.711
972.259
1051.658
1086.222
1065.858
990.02
865.647
710.94
543.146
377.461
230.015
110.588
23.756
-32.091
-67.43
-92.453
-113.103
-130.761
-140.696
-140.215
-131.117
-116.712
-102.039
-90.024
-80.359
-72.439
-66.124
-61.084
-57.385
-55.424
-54.834
-55.391
-57.392
-60.598
-64.302
-68.188
-71.817
-74.448
-75.936
-76.255
-75.304
-73.596
-71.927
-70.696
-70.226
-70.874
-72.642
-75.447
-79.189
-83.402
-87.481
-91.079
-93.979
-96.055
-97.35
-97.883
-97.645
-96.746
-95.331
-93.5
-91.334
-88.872
-86.113
-83.106
-79.931
-76.672
-73.423
-70.246
-67.166
-64.204
-61.369
-58.66
-56.069
-53.574
-51.141
-48.746
-46.373
-44.011
-41.649
-39.269
-36.846
-34.353
-31.76
-29.044
-26.185
-23.167
-19.973
-16.593
-13.016
-9.236
-5.252
-1.059
3.348
7.972
12.816
17.882
23.164
28.658
34.36
40.262
46.354
52.625
59.06
65.642
72.355
79.178
86.088
93.058
100.056
107.051
114.013
120.91
127.712
134.388
140.902
147.226
153.332
159.191
164.77
170.034
174.936
179.444
183.538
187.205
190.442
193.244
195.604
197.522
199.013
200.077
200.711
200.891
200.573
199.734
198.367
196.482
194.112
191.268
187.944
184.131
179.817
174.989
169.648
163.767
157.294
150.221
142.574
134.424
125.9
117.096
108.075
98.891
89.571
80.166
70.754
61.4
52.159
43.102
34.294
25.838
17.879
10.501
3.731
-2.455
-8.158
-13.437
-18.317
-22.825
-26.976
-30.794
-34.322
-37.579
-40.563
-43.295
-45.807
-48.165
-50.48
-52.811
-55.169
-57.533
-59.829
-62.012
-64.065
-65.964
-67.686
-69.213
-70.531
-71.645
-72.59
-73.379
-74.015
-74.482
-74.74
-74.777
-74.603
-74.239
-73.725
-73.095
-72.366
-71.566
-70.724
-69.862
-68.995
-68.127
-67.243
-66.34
-65.422
-64.493
-63.567
-62.65
-61.743
-60.845
-59.958
-59.08
-58.21
-57.345
-56.48
-55.609
-54.734
-53.855
-52.979
-52.108
-51.244
-50.39
-49.546
-48.714
-47.895
-47.09
-46.297
-45.515
-44.745
-43.989
-43.247
-42.521
-41.814
-41.127
-40.462
-39.823
-39.213
-38.632
-38.084
-37.57
-37.093
-36.655
-36.256
-35.899
-35.586
-35.317
-35.094
-34.918
-34.79
-34.711
-34.679
-34.696
-34.76
-34.872
-35.029
-35.231
-35.475
-35.762
-36.088
-36.454
-36.856
-37.292
-37.759
-38.256
-38.778
-39.323
-39.886
-40.466
-41.058
-41.66
-42.267
-42.878
-43.489
-44.098
-44.702
-45.298
-45.885
-46.459
-47.02
-47.566
-48.095
-48.606
-49.099
-49.573
-50.028
-50.464
-50.883
-51.285
-51.672
-52.046
-52.408
-52.761
-53.109
-53.453
-53.797
-54.144
-54.498
-54.86
-55.235
-55.625
-56.032
-56.459
-56.907
-57.377
-57.871
-58.389
-58.932
-59.498
-60.087
-60.699
-61.33
-61.978
-62.641
-63.315
-63.995
-64.677
-65.356
-66.025
-66.677
-67.304
-67.9
-68.455
-68.961
-69.407
-69.785
-70.084
-70.294
-70.405
-70.408
-70.294
-70.053
-69.677
-69.158
-68.49
-67.667
-66.684
-65.537
-64.223
-62.742
-61.093
-59.277
-57.297
-55.158
-52.864
-50.424
-47.845
-45.139
-42.317
-39.396
-36.393
-33.325
-30.214
-27.082
-23.95
-20.844
-17.787
-14.802
-11.913
-9.142
-6.513
-4.051
-1.78
0.274
2.089
3.642
4.914
5.884
6.539
6.87
6.87
6.537
5.861
4.83
3.432
1.664
-0.474
-2.977
-5.833
-9.022
-12.51
-16.241
-20.161
-24.211
-28.34
-32.51
-36.677
-40.794
-44.797
-48.611
-52.17
-55.418
-58.312
-60.808
-62.873
-64.513
-65.785
-66.803
-67.678
-68.492
-69.303
-70.176
-71.214
-72.529
-74.231
-76.378
-79.043
-82.387
-86.52
-91.436
-96.923
-102.48
-107.537
-111.603
-114.101
-114.305
-111.675
-106.006
-97.771
-88.177
-78.38
-69.475
-62.794
-59.714
-61.372
-66.735
-72.028
-73.21
-67.463
-56.232
-43.403
-27.872
-3.022
43.033
122.025
235.638
376.661
532.74
691.378
843.393
978.84
1085.048
1144.708
1141.646
1071.126
937.417
756.248
552.812
348.359
165.341
25.233
-64.319
-102.164
-96.893
-72.174
-47.369
-34.206
-40.369
-57.894
-74.947
-87.031
-89.239
-84.338
-81.02
-82.016
-88.577
-99.664
-110.144
-117.211
-120.389
-119.583
-115.876
-110.386
-103.578
-96.108
-88.893
-82.667
-77.789
-74.354
-72.231
-71.176
-71.072
-71.838
-73.298
-75.256
-77.551
-80.029
-82.545
-84.988
-87.22
-89.079
-90.454
-91.29
-91.586
-91.419
-90.899
-90.097
-89.042
-87.724
-86.131
-84.287
-82.238
-80.028
-77.704
-75.304
-72.877
-70.492
-68.21
-66.049
-63.988
-61.959
-59.871
-57.676
-55.366
-52.966
-50.498
-47.965
-45.358
-42.676
-39.927
-37.112
-34.216
-31.201
-28.028
-24.678
-21.149
-17.464
-13.647
-9.702
-5.613
-1.357
3.089
7.736
12.595
17.678
23.003
28.578
34.396
40.436
46.675
53.093
59.675
66.409
73.277
80.256
87.317
94.43
101.565
108.689
115.771
122.771
129.652
136.377
142.914
149.233
155.305
161.098
166.583
171.728
176.507
180.895
184.864
188.39
191.45
194.025
196.096
197.651
198.678
199.168
199.114
198.514
197.369
195.681
193.458
190.707
187.442
183.677
179.431
174.725
169.579
164.021
158.077
151.776
145.147
138.224
131.038
123.622
116.011
108.238
100.338
92.344
84.291
76.213
68.142
60.111
52.151
44.292
36.563
28.991
21.6
14.416
7.458
0.747
-5.7
-11.868
-17.744
-23.317
-28.578
-33.522
-38.145
-42.445
-46.423
-50.083
-53.428
-56.465
-59.202
-61.649
-63.814
-65.711
-67.352
-68.749
-69.918
-70.873
-71.628
-72.2
-72.603
-72.852
-72.964
-72.952
-72.83
-72.613
-72.314
-71.944
-71.518
-71.045
-70.537
-70.004
-69.453
-68.894
-68.331
-67.772
-67.22
-66.678
-66.149
-65.635
-65.135
-64.651
-64.181
-63.725
-63.28
-62.845
-62.417
-61.994
-61.573
-61.149
-60.722
-60.288
-59.843
-59.388
-58.918
-58.433
-57.931
-57.412
-56.873
-56.315
-55.736
-55.137
-54.517
-53.876
-53.215
-52.534
-51.835
-51.12
-50.39
-49.649
-48.898
-48.14
-47.378
-46.614
-45.853
-45.096
-44.347
-43.609
-42.885
-42.177
-41.49
-40.824
-40.183
-39.567
-38.979
-38.418
-37.885
-37.38
-36.903
-36.454
-36.033
-35.639
-35.273
-34.933
-34.621
-34.335
-34.075
-33.842
-33.634
-33.451
-33.293
-33.161
-33.053
-32.971
-32.914
-32.882
-32.876
-32.897
-32.944
-33.017
-33.117
-33.243
-33.396
-33.577
-33.787
-34.026
-34.296
-34.6
-34.939
-35.314
-35.728
-36.183
-36.678
-37.216
-37.797
-38.421
-39.089
-39.799
-40.552
-41.346
-42.179
-43.049
-43.955
-44.891
-45.854
-46.84
-47.843
-48.86
-49.883
-50.908
-51.929
-52.941
-53.937
-54.912
-55.861
-56.775
-57.648
-58.474
-59.245
-59.952
-60.586
-61.141
-61.608
-61.98
-62.25
-62.411
-62.455
-62.378
-62.174
-61.837
-61.364
-60.751
-59.994
-59.092
-58.043
-56.85
-55.513
-54.035
-52.42
-50.673
-48.799
-46.806
-44.7
-42.488
-40.178
-37.78
-35.305
-32.762
-30.164
-27.524
-24.858
-22.185
-19.524
-16.894
-14.315
-11.808
-9.393
-7.092
-4.923
-2.902
-1.044
0.635
2.119
3.391
4.434
5.238
5.789
6.078
6.097
5.839
5.303
4.497
3.427
2.098
0.505
-1.366
-3.526
-5.974
-8.71
-11.724
-15.002
-18.526
-22.258
-26.136
-30.099
-34.084
-38.04
-41.931
-45.706
-49.304
-52.654
-55.667
-58.273
-60.418
-62.051
-63.141
-63.688
-63.722
-63.322
-62.603
-61.685
-60.702
-59.805
-59.128
-58.799
-58.916
-59.6
-61.066
-63.476
-66.844
-71.001
-75.583
-80.202
-84.553
-88.22
-90.499
-90.74
-88.702
-84.82
-80.003
-75.09
-70.895
-68.265
-68.431
-73.006
-80.756
-87.2
-88.753
-81.825
-68.525
-57.489
-49.172
-39.052
-15.438
43.173
144.892
287.629
461.81
642.949
812.275
953.102
1048.055
1091.892
1078.994
1010.835
897.423
744.019
563.237
369.744
179.261
17.542
-96.622
-156.86
-168.217
-151.481
-128.321
-109.733
-99.089
-91.906
-82.064
-70.156
-59.25
-52.415
-52.445
-58.586
-68.208
-79.063
-88.762
-95.443
-98.558
-98.222
-94.966
-89.819
-83.762
-77.559
-72.02
-67.861
-65.408
-64.714
-65.634
-67.832
-71.009
-74.933
-79.354
-84.033
-88.778
-93.41
-97.748
-101.638
-104.957
-107.616
-109.563
-110.783
-111.267
-111.03
-110.129
-108.637
-106.628
-104.178
-101.344
-98.183
-94.769
-91.186
-87.521
-83.866
-80.282
-76.81
-73.481
-70.312
-67.309
-64.472
-61.779
-59.196
-56.701
-54.274
-51.895
-49.552
-47.221
-44.875
-42.49
-40.039
-37.501
-34.857
-32.087
-29.173
-26.102
-22.862
-19.445
-15.846
-12.057
-8.071
-3.88
0.521
5.137
9.968
15.016
20.28
25.754
31.432
37.304
43.357
49.577
55.948
62.451
69.066
75.769
82.534
89.337
96.147
102.934
109.667
116.314
122.842
129.218
135.41
141.384
147.109
152.553
157.686
162.479
166.904
170.935
174.548
177.721
180.433
182.667
184.407
185.642
186.361
186.556
186.223
185.36
183.97
182.054
179.621
176.68
173.244
169.327
164.948
160.128
154.889
149.256
143.257
136.919
130.274
123.352
116.184
108.805
101.246
93.541
85.724
77.827
69.883
61.924
53.98
46.081
38.256
30.532
22.936
15.49
8.219
1.143
-5.718
-12.347
-18.728
-24.847
-30.693
-36.255
-41.527
-46.502
-51.177
-55.552
-59.626
-63.402
-66.885
-70.078
-72.99
-75.629
-78.003
-80.124
-82
-83.645
-85.07
-86.286
-87.307
-88.143
-88.806
-89.309
-89.663
-89.879
-89.967
-89.937
-89.801
-89.566
-89.243
-88.839
-88.363
-87.821
-87.22
-86.566
-85.865
-85.121
-84.338
-83.519
-82.667
-81.783
-80.87
-79.928
-78.958
-77.96
-76.935
-75.883
-74.803
-73.696
-72.563
-71.404
-70.22
-69.013
-67.785
-66.537
-65.273
-63.995
-62.706
-61.409
-60.11
-58.81
-57.515
-56.229
-54.956
-53.7
-52.466
-51.258
-50.08
-48.937
-47.832
-46.772
-45.758
-44.796
-43.889
-43.041
-42.256
-41.537
-40.887
-40.309
-39.804
-39.374
-39.02
-38.742
-38.54
-38.414
-38.361
-38.379
-38.467
-38.62
-38.836
-39.11
-39.438
-39.815
-40.236
-40.696
-41.19
-41.713
-42.259
-42.824
-43.404
-43.992
-44.586
-45.18
-45.771
-46.354
-46.926
-47.484
-48.023
-48.541
-49.036
-49.504
-49.946
-50.358
-50.741
-51.094
-51.416
-51.708
-51.971
-52.206
-52.414
-52.597
-52.757
-52.897
-53.02
-53.129
-53.227
-53.317
-53.403
-53.487
-53.571
-53.659
-53.751
-53.85
-53.957
-54.072
-54.197
-54.333
-54.479
-54.635
-54.8
-54.973
-55.153
-55.335
-55.518
-55.698
-55.87
-56.031
-56.177
-56.302
-56.402
-56.472
-56.505
-56.497
-56.441
-56.331
-56.16
-55.921
-55.609
-55.216
-54.738
-54.169
-53.505
-52.742
-51.877
-50.907
-49.83
-48.646
-47.354
-45.953
-44.447
-42.837
-41.127
-39.324
-37.433
-35.463
-33.426
-31.334
-29.2
-27.04
-24.868
-22.702
-20.557
-18.451
-16.397
-14.411
-12.508
-10.701
-9.01
-7.45
-6.041
-4.799
-3.741
-2.88
-2.232
-1.806
-1.604
-1.629
-1.884
-2.374
-3.115
-4.12
-5.398
-6.956
-8.798
-10.915
-13.289
-15.887
-18.658
-21.547
-24.503
-27.477
-30.437
-33.343
-36.157
-38.829
-41.294
-43.496
-45.383
-46.909
-48.03
-48.73
-49.04
-49.035
-48.839
-48.57
-48.311
-48.147
-48.18
-48.525
-49.312
-50.683
-52.72
-55.544
-59.372
-64.28
-70.186
-76.772
-83.329
-89.09
-93.451
-95.724
-95.142
-91.422
-84.737
-75.923
-66.866
-59.394
-54.78
-54.311
-58.932
-68.478
-81.7
-95.848
-106.32
-108.546
-98.47
-71.773
-24.915
44.044
133.831
239.459
354.319
472.435
591.474
710.058
822.172
916.646
977.298
989.84
949.968
863.39
742.833
601.127
448.917
296.121
154.123
36.581
-47.18
-96.446
-119.735
-129.119
-132.855
-133.255
-127.503
-114.355
-96.573
-78.745
-65.753
-59.49
-59.059
-62.912
-69.266
-76.417
-82.805
-86.865
-87.75
-85.592
-81.037
-74.981
-68.232
-61.456
-55.369
-50.641
-47.631
-46.36
-46.64
-48.152
-50.618
-53.833
-57.566
-61.583
-65.676
-69.65
-73.335
-76.591
-79.306
-81.402
-82.83
-83.573
-83.635
-83.049
-81.873
-80.183
-78.055
-75.554
-72.743
-69.682
-66.443
-63.108
-59.759
-56.473
-53.305
-50.288
-47.445
-44.786
-42.31
-40.003
-37.838
-35.781
-33.804
-31.881
-29.993
-28.118
-26.23
-24.303
-22.309
-20.221
-18.016
-15.671
-13.167
-10.484
-7.608
-4.525
-1.226
2.296
6.049
10.041
14.278
18.765
23.506
28.502
33.75
39.247
44.986
50.957
57.146
63.538
70.112
76.85
83.726
90.716
97.793
104.927
112.087
119.242
126.358
133.402
140.339
147.133
153.75
160.153
166.308
172.18
177.736
182.944
187.772
192.192
196.176
199.7
202.74
205.276
207.291
208.769
209.699
210.072
209.883
209.129
207.812
205.936
203.51
200.544
197.053
193.053
188.564
183.609
178.211
172.397
166.196
159.637
152.754
145.579
138.146
130.491
122.649
114.658
106.552
98.369
90.145
81.914
73.711
65.57
57.523
49.601
41.832
34.246
26.866
19.718
12.821
6.195
-0.143
-6.179
-11.901
-17.3
-22.37
-27.104
-31.501
-35.56
-39.283
-42.674
-45.737
-48.481
-50.913
-53.044
-54.885
-56.449
-57.75
-58.802
-59.62
-60.221
-60.621
-60.836
-60.882
-60.777
-60.538
-60.18
-59.72
-59.172
-58.552
-57.875
-57.152
-56.397
-55.622
-54.837
-54.051
-53.273
-52.511
-51.771
-51.059
-50.379
-49.736
-49.132
-48.57
-48.05
-47.574
-47.142
-46.753
-46.407
-46.102
-45.837
-45.609
-45.416
-45.255
-45.123
-45.017
-44.935
-44.872
-44.826
-44.793
-44.771
-44.757
-44.748
-44.741
-44.733
-44.723
-44.708
-44.686
-44.656
-44.616
-44.566
-44.505
-44.432
-44.348
-44.251
-44.143
-44.023
-43.891
-43.748
-43.593
-43.429
-43.254
-43.07
-42.879
-42.68
-42.477
-42.268
-42.057
-41.845
-41.632
-41.421
-41.213
-41.01
-40.814
-40.627
-40.452
-40.291
-40.146
-40.02
-39.916
-39.836
-39.782
-39.757
-39.762
-39.8
-39.872
-39.981
-40.128
-40.316
-40.546
-40.82
-41.141
-41.509
-41.927
-42.394
-42.912
-43.481
-44.101
-44.772
-45.494
-46.265
-47.085
-47.951
-48.863
-49.817
-50.81
-51.838
-52.898
-53.984
-55.09
-56.211
-57.342
-58.476
-59.606
-60.727
-61.832
-62.915
-63.969
-64.988
-65.964
-66.89
-67.758
-68.563
-69.296
-69.95
-70.517
-70.992
-71.367
-71.637
-71.795
-71.837
-71.757
-71.551
-71.213
-70.742
-70.134
-69.386
-68.499
-67.473
-66.308
-65.008
-63.575
-62.015
-60.332
-58.532
-56.621
-54.607
-52.498
-50.302
-48.029
-45.688
-43.29
-40.847
-38.371
-35.879
-33.385
-30.909
-28.466
-26.077
-23.76
-21.535
-19.421
-17.436
-15.594
-13.911
-12.402
-11.08
-9.963
-9.065
-8.397
-7.969
-7.789
-7.861
-8.194
-8.784
-9.625
-10.71
-12.034
-13.598
-15.416
-17.495
-19.837
-22.44
-25.294
-28.386
-31.699
-35.201
-38.841
-42.564
-46.315
-50.046
-53.725
-57.31
-60.746
-63.959
-66.86
-69.368
-71.424
-72.981
-74.006
-74.484
-74.429
-73.895
-72.973
-71.772
-70.41
-69.001
-67.668
-66.552
-65.773
-65.491
-65.942
-67.283
-69.556
-72.634
-76.123
-79.539
-82.5
-84.569
-85.139
-83.717
-80.099
-74.673
-68.578
-63.281
-59.887
-58.98
-61.423
-68.132
-79.031
-92.917
-106.042
-112.174
-107.706
-91.201
-62.742
-25.259
23.452
87.848
171.093
278.153
406.584
550.767
704.557
852.531
979.013
1066.541
1094.785
1057.501
957.337
803.334
617.051
418.149
224.914
59.887
-61.624
-132.028
-149.761
-127.211
-84.855
-40.238
-10.773
-5.807
-21.351
-50.153
-79.953
-99.537
-107.667
-107.626
-105.711
-107.244
-112.086
-117.341
-119.863
-118.302
-113.298
-106.189
-98.265
-90.217
-82.53
-75.862
-70.602
-66.862
-64.619
-63.686
-63.927
-65.265
-67.536
-70.509
-73.967
-77.743
-81.681
-85.638
-89.432
-92.85
-95.747
-98.036
-99.677
-100.66
-100.993
-100.687
-99.785
-98.356
-96.466
-94.185
-91.579
-88.706
-85.64
-82.463
-79.258
-76.107
-73.069
-70.17
-67.427
-64.843
-62.411
-60.117
-57.938
-55.84
-53.801
-51.801
-49.824
-47.852
-45.864
-43.832
-41.725
-39.518
-37.182
-34.695
-32.036
-29.188
-26.14
-22.89
-19.435
-15.772
-11.895
-7.789
-3.444
1.137
5.954
11.004
16.274
21.746
27.387
33.139
38.959
44.816
50.687
56.566
62.445
68.306
74.141
79.941
85.7
91.427
97.118
102.753
108.339
113.889
119.441
125.079
130.853
136.767
142.818
148.975
155.202
161.475
167.739
173.894
179.848
185.505
190.768
195.583
199.854
203.456
206.26
208.094
208.824
208.392
206.748
203.852
199.69
194.234
187.496
179.592
170.626
160.705
149.961
138.492
126.448
114.041
101.463
88.917
76.581
64.564
52.974
41.943
31.571
21.975
13.25
5.391
-1.61
-7.748
-13.07
-17.614
-21.461
-24.77
-27.666
-30.245
-32.597
-34.764
-36.789
-38.748
-40.702
-42.709
-44.844
-47.122
-49.557
-52.175
-54.961
-57.887
-60.901
-63.898
-66.792
-69.543
-72.113
-74.488
-76.662
-78.61
-80.319
-81.787
-82.994
-83.932
-84.598
-84.978
-85.08
-84.927
-84.552
-84.011
-83.354
-82.61
-81.802
-80.949
-80.061
-79.149
-78.221
-77.273
-76.307
-75.334
-74.359
-73.397
-72.453
-71.528
-70.622
-69.728
-68.84
-67.955
-67.07
-66.181
-65.291
-64.4
-63.513
-62.635
-61.773
-60.93
-60.107
-59.306
-58.526
-57.767
-57.03
-56.312
-55.614
-54.934
-54.275
-53.637
-53.02
-52.424
-51.851
-51.3
-50.77
-50.262
-49.775
-49.308
-48.862
-48.437
-48.033
-47.651
-47.292
-46.956
-46.643
-46.355
-46.091
-45.851
-45.634
-45.44
-45.266
-45.112
-44.978
-44.861
-44.761
-44.678
-44.61
-44.557
-44.518
-44.493
-44.48
-44.478
-44.487
-44.505
-44.533
-44.569
-44.613
-44.666
-44.726
-44.794
-44.87
-44.953
-45.044
-45.142
-45.247
-45.359
-45.478
-45.606
-45.742
-45.887
-46.042
-46.209
-46.389
-46.582
-46.791
-47.017
-47.262
-47.526
-47.811
-48.119
-48.45
-48.805
-49.185
-49.589
-50.018
-50.471
-50.948
-51.445
-51.963
-52.498
-53.048
-53.611
-54.183
-54.761
-55.342
-55.921
-56.494
-57.057
-57.604
-58.128
-58.624
-59.085
-59.503
-59.873
-60.187
-60.437
-60.615
-60.714
-60.726
-60.644
-60.46
-60.168
-59.76
-59.231
-58.576
-57.791
-56.872
-55.817
-54.624
-53.293
-51.825
-50.221
-48.483
-46.615
-44.621
-42.506
-40.276
-37.94
-35.506
-32.985
-30.393
-27.745
-25.057
-22.347
-19.636
-16.944
-14.291
-11.699
-9.185
-6.768
-4.467
-2.303
-0.295
1.535
3.166
4.582
5.765
6.699
7.371
7.769
7.889
7.728
7.284
6.549
5.503
4.13
2.421
0.373
-2.013
-4.724
-7.743
-11.041
-14.563
-18.253
-22.048
-25.887
-29.723
-33.507
-37.18
-40.669
-43.885
-46.736
-49.157
-51.095
-52.513
-53.409
-53.797
-53.739
-53.355
-52.766
-52.118
-51.564
-51.244
-51.317
-51.952
-53.283
-55.488
-58.776
-63.232
-68.832
-75.388
-82.443
-89.515
-96.188
-101.929
-106.131
-108.321
-108.219
-106.084
-102.796
-99.327
-96.363
-94.238
-93.296
-94.003
-96.497
-99.804
-100.651
-94.127
-76.12
-44.769
-2.714
45.684
98.629
157.167
229.339
323.97
444.471
590.109
749.879
907.309
1045.065
1144.394
1189.688
1170.179
1084.065
937.627
746.791
536.629
330.315
151.103
17.983
-64.625
-99.601
-98.339
-82.359
-67.838
-63.267
-72.924
-89.127
-101.361
-105.788
-98.962
-83.681
-67.939
-55.298
-47.986
-46.233
-47.166
-49.267
-52.172
-55.716
-60.021
-64.59
-68.841
-72.334
-74.495
-75.247
-74.683
-72.871
-70.42
-68.182
-66.601
-66.029
-66.792
-68.859
-72.158
-76.558
-81.572
-86.605
-91.256
-95.256
-98.458
-100.877
-102.506
-103.338
-103.46
-102.988
-102.026
-100.652
-98.903
-96.79
-94.35
-91.658
-88.798
-85.864
-82.938
-80.07
-77.287
-74.609
-72.042
-69.581
-67.211
-64.909
-62.643
-60.39
-58.138
-55.872
-53.578
-51.232
-48.806
-46.271
-43.601
-40.774
-37.772
-34.581
-31.186
-27.579
-23.752
-19.701
-15.427
-10.925
-6.193
-1.228
3.971
9.403
15.063
20.944
27.039
33.336
39.821
46.478
53.285
60.223
67.267
74.393
81.575
88.784
95.991
103.166
110.278
117.296
124.187
130.92
137.464
143.785
149.854
155.64
161.115
166.25
171.02
175.4
179.367
182.901
185.981
188.592
190.719
192.348
193.471
194.08
194.17
193.74
192.79
191.324
189.351
186.878
183.918
180.486
176.599
172.276
167.538
162.408
156.909
151.068
144.911
138.466
131.762
124.828
117.693
110.389
102.944
95.389
87.754
80.067
72.359
64.657
56.988
49.38
41.857
34.446
27.168
20.047
13.102
6.354
-0.181
-6.487
-12.55
-18.357
-23.9
-29.169
-34.158
-38.863
-43.28
-47.408
-51.247
-54.797
-58.063
-61.047
-63.754
-66.191
-68.365
-70.283
-71.955
-73.389
-74.597
-75.589
-76.376
-76.97
-77.384
-77.629
-77.718
-77.664
-77.48
-77.178
-76.773
-76.276
-75.7
-75.056
-74.357
-73.613
-72.833
-72.029
-71.207
-70.377
-69.544
-68.717
-67.901
-67.101
-66.322
-65.57
-64.846
-64.155
-63.499
-62.88
-62.298
-61.756
-61.253
-60.789
-60.363
-59.975
-59.624
-59.307
-59.023
-58.769
-58.543
-58.34
-58.158
-57.993
-57.842
-57.7
-57.563
-57.43
-57.295
-57.157
-57.013
-56.861
-56.697
-56.521
-56.331
-56.125
-55.902
-55.66
-55.4
-55.121
-54.822
-54.504
-54.169
-53.815
-53.446
-53.061
-52.662
-52.25
-51.829
-51.398
-50.961
-50.52
-50.077
-49.637
-49.201
-48.774
-48.358
-47.957
-47.574
-47.212
-46.875
-46.565
-46.286
-46.038
-45.826
-45.652
-45.516
-45.422
-45.372
-45.365
-45.403
-45.488
-45.618
-45.795
-46.018
-46.285
-46.598
-46.954
-47.353
-47.794
-48.275
-48.795
-49.352
-49.944
-50.568
-51.222
-51.904
-52.61
-53.338
-54.084
-54.845
-55.619
-56.4
-57.185
-57.971
-58.753
-59.527
-60.287
-61.031
-61.752
-62.448
-63.113
-63.744
-64.336
-64.886
-65.391
-65.846
-66.248
-66.593
-66.878
-67.098
-67.249
-67.329
-67.334
-67.26
-67.104
-66.861
-66.53
-66.106
-65.587
-64.969
-64.249
-63.425
-62.494
-61.455
-60.307
-59.051
-57.687
-56.216
-54.639
-52.961
-51.185
-49.314
-47.353
-45.307
-43.181
-40.982
-38.718
-36.395
-34.025
-31.617
-29.186
-26.745
-24.31
-21.897
-19.524
-17.208
-14.964
-12.807
-10.753
-8.815
-7.008
-5.349
-3.853
-2.537
-1.414
-0.501
0.19
0.651
0.878
0.876
0.645
0.188
-0.503
-1.442
-2.642
-4.113
-5.858
-7.883
-10.186
-12.754
-15.564
-18.562
-21.69
-24.91
-28.184
-31.495
-34.821
-38.093
-41.222
-44.126
-46.718
-48.94
-50.774
-52.122
-52.896
-53.206
-53.168
-52.961
-52.834
-52.768
-52.695
-52.828
-53.359
-54.18
-55.338
-56.761
-58.226
-60.185
-62.971
-66.223
-69.66
-73.24
-76.625
-79.737
-82.662
-84.517
-84.938
-84.79
-84.777
-85.469
-87.733
-91.819
-97.845
-107.073
-118.233
-126.844
-129.289
-121.347
-102.988
-80.394
-54.532
-23.128
21.413
94.93
203.665
346.844
518.331
700.842
880.802
1043.252
1168.875
1241.72
1245.23
1172.974
1031.119
835.011
610.034
380.766
171.118
3.359
-109.054
-159.766
-154.252
-111.943
-57.747
-15.707
-1.255
-14.76
-44.806
-75.396
-94.49
-99.079
-94.429
-89.716
-90.269
-96.235
-104.511
-110.222
-111.309
-108.331
-102.268
-94.567
-86.217
-77.706
-69.803
-63.306
-58.547
-55.579
-54.318
-54.548
-56.106
-58.845
-62.521
-66.842
-71.586
-76.579
-81.633
-86.581
-91.228
-95.367
-98.865
-101.648
-103.675
-104.944
-105.475
-105.301
-104.481
-103.094
-101.212
-98.913
-96.269
-93.35
-90.238
-87.019
-83.775
-80.583
-77.498
-74.549
-71.752
-69.108
-66.604
-64.225
-61.942
-59.724
-57.54
-55.369
-53.186
-50.973
-48.707
-46.361
-43.913
-41.337
-38.613
-35.725
-32.658
-29.399
-25.94
-22.273
-18.393
-14.3
-9.989
-5.457
-0.703
4.277
9.482
14.909
20.554
26.412
32.474
38.729
45.161
51.755
58.491
65.348
72.306
79.338
86.419
93.522
100.617
107.674
114.664
121.553
128.31
134.903
141.3
147.469
153.379
159
164.304
169.261
173.847
178.036
181.805
185.132
187.998
190.386
192.28
193.666
194.534
194.875
194.685
193.96
192.701
190.912
188.597
185.767
182.431
178.606
174.308
169.555
164.37
158.776
152.799
146.468
139.81
132.857
125.641
118.193
110.547
102.735
94.791
86.747
78.638
70.494
62.349
54.233
46.177
38.211
30.363
22.661
15.131
7.797
0.681
-6.195
-12.812
-19.155
-25.207
-30.955
-36.391
-41.504
-46.289
-50.742
-54.861
-58.647
-62.102
-65.231
-68.04
-70.536
-72.731
-74.633
-76.254
-77.609
-78.708
-79.568
-80.202
-80.626
-80.856
-80.906
-80.794
-80.535
-80.146
-79.643
-79.04
-78.353
-77.598
-76.787
-75.934
-75.052
-74.153
-73.247
-72.346
-71.458
-70.591
-69.752
-68.948
-68.184
-67.462
-66.786
-66.158
-65.579
-65.048
-64.566
-64.132
-63.743
-63.398
-63.095
-62.831
-62.602
-62.405
-62.236
-62.091
-61.967
-61.859
-61.763
-61.675
-61.592
-61.509
-61.422
-61.33
-61.227
-61.113
-60.983
-60.835
-60.668
-60.479
-60.266
-60.03
-59.769
-59.483
-59.172
-58.836
-58.477
-58.094
-57.69
-57.265
-56.82
-56.358
-55.879
-55.386
-54.882
-54.367
-53.845
-53.318
-52.789
-52.26
-51.735
-51.214
-50.702
-50.2
-49.711
-49.237
-48.78
-48.344
-47.929
-47.539
-47.175
-46.84
-46.535
-46.262
-46.022
-45.817
-45.649
-45.518
-45.426
-45.376
-45.367
-45.401
-45.48
-45.603
-45.773
-45.988
-46.25
-46.558
-46.912
-47.311
-47.754
-48.241
-48.771
-49.341
-49.95
-50.595
-51.275
-51.986
-52.725
-53.488
-54.273
-55.074
-55.889
-56.713
-57.542
-58.371
-59.195
-60.009
-60.808
-61.585
-62.334
-63.047
-63.718
-64.34
-64.907
-65.41
-65.844
-66.202
-66.477
-66.663
-66.754
-66.743
-66.626
-66.396
-66.049
-65.581
-64.988
-64.268
-63.42
-62.442
-61.334
-60.096
-58.731
-57.24
-55.626
-53.892
-52.043
-50.085
-48.025
-45.87
-43.632
-41.32
-38.95
-36.537
-34.096
-31.646
-29.204
-26.788
-24.418
-22.111
-19.883
-17.752
-15.732
-13.841
-12.096
-10.517
-9.122
-7.927
-6.948
-6.2
-5.695
-5.442
-5.442
-5.697
-6.207
-6.977
-8.024
-9.358
-10.986
-12.91
-15.128
-17.628
-20.388
-23.372
-26.521
-29.779
-33.088
-36.399
-39.678
-42.885
-45.977
-48.898
-51.58
-53.96
-55.992
-57.631
-58.833
-59.588
-59.929
-59.937
-59.754
-59.51
-59.296
-59.201
-59.331
-59.809
-60.765
-62.316
-64.511
-67.435
-71.283
-76.148
-81.964
-88.423
-94.879
-100.678
-105.357
-108.355
-108.9
-106.531
-101.241
-93.686
-85.405
-77.727
-71.449
-67.62
-67.49
-71.665
-78.506
-83.96
-83.227
-73.008
-54.949
-32.916
-6.226
30.242
86.039
171.342
287.058
425.684
576.883
728.423
868.016
985.257
1065.994
1093.047
1058.605
962.038
811.484
628.415
432.712
243.58
81.944
-41.775
-122.14
-159.559
-166.216
-152.79
-129.242
-106.356
-87.542
-76.87
-75.886
-79.171
-83.384
-84.491
-81.066
-77.832
-77.293
-80.197
-85.527
-89.284
-89.591
-86.73
-81.379
-74.948
-68.374
-61.985
-56.382
-52.232
-49.82
-49.129
-49.961
-51.991
-54.958
-58.71
-63.03
-67.658
-72.379
-76.99
-81.31
-85.193
-88.523
-91.21
-93.205
-94.49
-95.068
-94.973
-94.261
-93.005
-91.279
-89.143
-86.656
-83.875
-80.873
-77.728
-74.524
-71.336
-68.217
-65.2
-62.304
-59.541
-56.904
-54.382
-51.945
-49.561
-47.202
-44.847
-42.477
-40.074
-37.617
-35.083
-32.447
-29.69
-26.791
-23.735
-20.506
-17.091
-13.483
-9.674
-5.66
-1.443
2.98
7.612
12.452
17.503
22.762
28.225
33.889
39.747
45.789
52.005
58.379
64.895
71.535
78.278
85.103
91.988
98.906
105.834
112.743
119.606
126.395
133.081
139.634
146.024
152.221
158.196
163.918
169.36
174.494
179.293
183.732
187.787
191.436
194.658
197.434
199.747
201.582
202.927
203.77
204.104
203.924
203.225
202.01
200.279
198.039
195.298
192.065
188.353
184.178
179.556
174.506
169.05
163.21
157.012
150.481
143.645
136.533
129.174
121.598
113.838
105.923
97.887
89.76
81.574
73.36
65.15
56.973
48.86
40.838
32.935
25.177
17.59
10.195
3.015
-3.93
-10.623
-17.047
-23.189
-29.037
-34.579
-39.809
-44.719
-49.306
-53.568
-57.502
-61.111
-64.398
-67.365
-70.02
-72.368
-74.419
-76.181
-77.666
-78.884
-79.848
-80.572
-81.068
-81.352
-81.438
-81.34
-81.074
-80.655
-80.098
-79.417
-78.627
-77.742
-76.774
-75.738
-74.645
-73.507
-72.334
-71.136
-69.922
-68.7
-67.478
-66.263
-65.06
-63.875
-62.713
-61.578
-60.474
-59.405
-58.373
-57.38
-56.428
-55.517
-54.65
-53.825
-53.044
-52.305
-51.608
-50.953
-50.337
-49.761
-49.222
-48.719
-48.251
-47.816
-47.412
-47.038
-46.693
-46.375
-46.085
-45.821
-45.584
-45.372
-45.186
-45.025
-44.89
-44.778
-44.691
-44.627
-44.585
-44.564
-44.565
-44.585
-44.624
-44.68
-44.754
-44.843
-44.947
-45.064
-45.194
-45.335
-45.487
-45.65
-45.822
-46.004
-46.196
-46.398
-46.61
-46.832
-47.064
-47.305
-47.557
-47.817
-48.087
-48.366
-48.654
-48.95
-49.255
-49.57
-49.894
-50.229
-50.576
-50.934
-51.306
-51.691
-52.092
-52.508
-52.942
-53.394
-53.865
-54.357
-54.868
-55.401
-55.954
-56.525
-57.114
-57.719
-58.335
-58.961
-59.592
-60.225
-60.855
-61.478
-62.09
-62.685
-63.259
-63.807
-64.323
-64.802
-65.237
-65.622
-65.951
-66.217
-66.414
-66.536
-66.577
-66.53
-66.389
-66.148
-65.801
-65.342
-64.766
-64.067
-63.24
-62.283
-61.193
-59.969
-58.612
-57.122
-55.503
-53.758
-51.893
-49.912
-47.823
-45.632
-43.348
-40.981
-38.541
-36.039
-33.489
-30.905
-28.303
-25.702
-23.119
-20.571
-18.077
-15.658
-13.336
-11.135
-9.075
-7.173
-5.447
-3.916
-2.6
-1.518
-0.683
-0.101
0.221
0.274
0.05
-0.463
-1.263
-2.335
-3.664
-5.234
-7.041
-9.094
-11.392
-13.924
-16.678
-19.644
-22.814
-26.19
-29.748
-33.44
-37.205
-40.975
-44.705
-48.38
-51.991
-55.536
-58.97
-62.202
-65.137
-67.686
-69.794
-71.45
-72.606
-73.156
-73.118
-72.635
-72.029
-71.831
-72.331
-73.49
-75.222
-77.447
-80.08
-83.047
-85.762
-86.949
-85.699
-81.713
-75.114
-66.439
-56.024
-43.965
-31.172
-19.804
-12.025
-9.567
-13.356
-23.131
-38.697
-59.962
-85.724
-113.039
-137.854
-155.435
-161.444
-153.057
-127.404
-81.642
-14.138
75.253
182.944
301.7
424.503
544.468
658.323
766.993
865.96
949.336
1006.759
1020.009
981.839
889.874
746.903
573.561
388.038
210.111
65.101
-39.002
-101.236
-127.922
-138.747
-144.485
-148.35
-150.009
-142.222
-123.313
-97.298
-68.833
-43.74
-25.041
-13.412
-9.359
-12.191
-20.811
-34.044
-50.052
-67.341
-84.67
-100.249
-112.615
-121.156
-125.666
-126.458
-124.289
-119.697
-113.371
-106.529
-100.122
-94.644
-90.366
-87.167
-84.787
-83.149
-82.039
-81.009
-79.745
-78.058
-75.882
-73.405
-70.849
-68.347
-66.052
-64.094
-62.529
-61.427
-60.824
-60.672
-60.908
-61.443
-62.154
-62.985
-63.915
-64.911
-65.937
-66.902
-67.671
-68.145
-68.251
-67.934
-67.163
-65.897
-64.097
-61.777
-58.987
-55.803
-52.328
-48.619
-44.699
-40.596
-36.334
-31.948
-27.495
-23
-18.466
-13.9
-9.306
-4.691
-0.068
4.578
9.282
14.086
19.038
24.165
29.478
34.983
40.685
46.579
52.663
58.917
65.311
71.821
78.422
85.093
91.811
98.549
105.268
111.933
118.506
124.953
131.242
137.342
143.22
148.849
154.202
159.257
163.993
168.389
172.421
176.069
179.31
182.127
184.501
186.417
187.861
188.821
189.289
189.26
188.732
187.705
186.181
184.166
181.667
178.696
175.265
171.389
167.085
162.373
157.274
151.81
146.007
139.889
133.483
126.815
119.915
112.809
105.527
98.098
90.55
82.913
75.216
67.488
59.758
52.054
44.403
36.831
29.365
22.027
14.841
7.826
1.002
-5.612
-12.002
-18.154
-24.054
-29.694
-35.064
-40.157
-44.97
-49.498
-53.74
-57.697
-61.368
-64.758
-67.869
-70.707
-73.277
-75.586
-77.641
-79.452
-81.028
-82.378
-83.514
-84.446
-85.186
-85.745
-86.134
-86.366
-86.452
-86.403
-86.229
-85.943
-85.554
-85.073
-84.508
-83.87
-83.166
-82.405
-81.593
-80.737
-79.843
-78.916
-77.961
-76.983
-75.986
-74.974
-73.949
-72.916
-71.877
-70.834
-69.791
-68.749
-67.71
-66.676
-65.648
-64.627
-63.616
-62.615
-61.626
-60.651
-59.69
-58.745
-57.818
-56.91
-56.023
-55.157
-54.315
-53.498
-52.709
-51.948
-51.219
-50.523
-49.861
-49.238
-48.653
-48.109
-47.608
-47.15
-46.737
-46.37
-46.048
-45.773
-45.545
-45.363
-45.226
-45.133
-45.085
-45.078
-45.111
-45.183
-45.29
-45.43
-45.601
-45.8
-46.024
-46.269
-46.532
-46.812
-47.103
-47.405
-47.712
-48.022
-48.332
-48.639
-48.939
-49.23
-49.509
-49.773
-50.021
-50.25
-50.46
-50.648
-50.814
-50.957
-51.078
-51.177
-51.254
-51.311
-51.348
-51.368
-51.374
-51.367
-51.35
-51.327
-51.301
-51.274
-51.25
-51.232
-51.222
-51.223
-51.237
-51.265
-51.31
-51.373
-51.455
-51.557
-51.679
-51.822
-51.986
-52.168
-52.369
-52.586
-52.816
-53.056
-53.303
-53.552
-53.799
-54.038
-54.265
-54.473
-54.655
-54.804
-54.912
-54.973
-54.976
-54.914
-54.779
-54.56
-54.253
-53.848
-53.339
-52.721
-51.988
-51.136
-50.161
-49.062
-47.836
-46.482
-45.003
-43.399
-41.674
-39.832
-37.879
-35.824
-33.678
-31.452
-29.159
-26.814
-24.434
-22.035
-19.636
-17.256
-14.912
-12.624
-10.409
-8.289
-6.284
-4.415
-2.706
-1.176
0.153
1.262
2.133
2.753
3.113
3.208
3.034
2.584
1.844
0.802
-0.544
-2.2
-4.166
-6.437
-8.998
-11.823
-14.864
-18.073
-21.401
-24.804
-28.249
-31.697
-35.103
-38.414
-41.562
-44.485
-47.131
-49.448
-51.379
-52.889
-53.978
-54.691
-55.128
-55.385
-55.527
-55.623
-55.747
-55.996
-56.482
-57.304
-58.541
-60.317
-62.825
-66.217
-70.511
-75.521
-80.838
-85.946
-90.28
-93.182
-93.861
-91.668
-86.479
-78.74
-69.331
-59.574
-50.982
-45.033
-43.446
-46.396
-51.686
-56.645
-59.179
-60.389
-63.115
-66.047
-61.386
-33.667
31.088
135.038
269.7
416.522
560.041
697.952
830.843
958.037
1069.072
1140.391
1152.651
1098.666
986.495
836.251
665.002
485.233
306.035
136.989
-3.69
-100.467
-147.852
-150.598
-127.771
-100.01
-78.477
-68.668
-68.55
-71.079
-74.345
-77.461
-79.503
-84.093
-91.781
-101.066
-111.453
-119.559
-123.263
-122.858
-118.497
-111.289
-102.628
-93.209
-83.833
-75.46
-68.561
-63.317
-59.775
-57.728
-56.969
-57.345
-58.644
-60.62
-63.095
-65.929
-68.999
-72.213
-75.456
-78.632
-81.679
-84.535
-87.144
-89.427
-91.292
-92.697
-93.639
-94.144
-94.251
-93.986
-93.375
-92.464
-91.303
-89.933
-88.381
-86.631
-84.66
-82.477
-80.099
-77.575
-74.974
-72.332
-69.662
-66.979
-64.283
-61.573
-58.85
-56.09
-53.261
-50.347
-47.344
-44.265
-41.13
-37.932
-34.654
-31.266
-27.725
-24
-20.069
-15.902
-11.481
-6.794
-1.833
3.394
8.869
14.583
20.529
26.703
33.101
39.71
46.513
53.488
60.61
67.851
75.183
82.573
89.985
97.388
104.751
112.044
119.24
126.309
133.218
139.937
146.433
152.672
158.623
164.252
169.526
174.415
178.891
182.929
186.504
189.595
192.185
194.256
195.797
196.796
197.246
197.143
196.483
195.27
193.508
191.204
188.369
185.016
181.162
176.826
172.029
166.794
161.147
155.114
148.725
142.01
135.001
127.732
120.236
112.548
104.706
96.745
88.703
80.615
72.518
64.446
56.434
48.513
40.716
33.071
25.605
18.345
11.313
4.53
-1.983
-8.211
-14.14
-19.759
-25.057
-30.029
-34.67
-38.977
-42.95
-46.592
-49.905
-52.896
-55.572
-57.943
-60.019
-61.813
-63.339
-64.612
-65.647
-66.462
-67.074
-67.501
-67.762
-67.875
-67.859
-67.73
-67.508
-67.207
-66.846
-66.438
-65.998
-65.539
-65.071
-64.606
-64.153
-63.719
-63.311
-62.934
-62.594
-62.293
-62.033
-61.816
-61.642
-61.511
-61.421
-61.37
-61.355
-61.374
-61.421
-61.494
-61.586
-61.693
-61.809
-61.93
-62.049
-62.162
-62.264
-62.348
-62.411
-62.449
-62.457
-62.434
-62.376
-62.282
-62.152
-61.985
-61.782
-61.542
-61.268
-60.961
-60.623
-60.257
-59.865
-59.45
-59.015
-58.564
-58.098
-57.623
-57.14
-56.653
-56.164
-55.678
-55.195
-54.719
-54.253
-53.797
-53.355
-52.928
-52.518
-52.125
-51.751
-51.397
-51.062
-50.745
-50.448
-50.167
-49.903
-49.655
-49.42
-49.198
-48.987
-48.786
-48.595
-48.413
-48.239
-48.073
-47.914
-47.764
-47.622
-47.49
-47.369
-47.261
-47.168
-47.093
-47.038
-47.005
-46.999
-47.021
-47.074
-47.163
-47.289
-47.458
-47.67
-47.931
-48.243
-48.61
-49.034
-49.519
-50.066
-50.677
-51.354
-52.096
-52.904
-53.777
-54.713
-55.709
-56.761
-57.866
-59.019
-60.215
-61.447
-62.707
-63.989
-65.282
-66.576
-67.863
-69.13
-70.367
-71.561
-72.7
-73.774
-74.772
-75.686
-76.504
-77.213
-77.799
-78.251
-78.556
-78.703
-78.683
-78.485
-78.1
-77.524
-76.754
-75.794
-74.642
-73.298
-71.758
-70.018
-68.08
-65.958
-63.666
-61.222
-58.641
-55.939
-53.137
-50.262
-47.34
-44.389
-41.422
-38.449
-35.484
-32.552
-29.688
-26.936
-24.321
-21.848
-19.496
-17.242
-15.088
-13.072
-11.239
-9.619
-8.215
-7.002
-6.016
-5.374
-5.105
-5.089
-5.048
-4.674
-3.903
-2.998
-2.272
-1.813
-1.744
-2.402
-4.474
-8.804
-15.683
-24.569
-34.525
-44.933
-55.324
-65.103
-73.294
-78.582
-80.302
-78.917
-75.534
-70.983
-65.79
-60.398
-55.489
-52.191
-51.163
-52.104
-54.291
-57.244
-60.845
-65.27
-70.459
-75.823
-81.15
-86.795
-92.98
-99.527
-105.683
-110.206
-112.518
-112.866
-111.059
-106.598
-99.511
-90.594
-81.806
-75.793
-73.91
-76.25
-83.289
-95.604
-113.095
-132.944
-149.233
-155.876
-148.919
-129.767
-102.154
-64.987
-13.44
60.566
165.284
299.862
457.181
628.297
800.228
959.212
1089.656
1172.146
1192.261
1146.208
1042.108
896.861
726.041
542.519
355.782
177.677
28.432
-77.602
-134.64
-149.686
-145.163
-137.385
-133.635
-133.955
-129.487
-116.949
-99.632
-81.375
-67.306
-59.374
-56.077
-56.029
-58.186
-62.004
-66.765
-71.711
-76.24
-79.643
-81.971
-83.616
-84.404
-84.003
-82.546
-80.234
-77.572
-75.527
-74.476
-74.411
-75.502
-77.849
-81.412
-86.124
-91.604
-97.151
-102.31
-106.851
-110.619
-113.604
-115.786
-117.104
-117.604
-117.419
-116.665
-115.434
-113.78
-111.707
-109.249
-106.483
-103.503
-100.416
-97.321
-94.275
-91.315
-88.465
-85.736
-83.132
-80.642
-78.241
-75.895
-73.577
-71.27
-68.963
-66.643
-64.288
-61.868
-59.351
-56.706
-53.911
-50.946
-47.794
-44.437
-40.863
-37.062
-33.03
-28.765
-24.26
-19.51
-14.509
-9.252
-3.74
2.027
8.045
14.308
20.807
27.53
34.461
41.581
48.871
56.308
63.868
71.525
79.252
87.018
94.793
102.546
110.243
117.849
125.331
132.653
139.781
146.68
153.315
159.654
165.663
171.311
176.57
181.411
185.807
189.733
193.168
196.09
198.482
200.33
201.621
202.345
202.498
202.076
201.082
199.517
197.39
194.709
191.488
187.742
183.488
178.748
173.544
167.9
161.845
155.408
148.618
141.509
134.113
126.465
118.599
110.55
102.354
94.047
85.663
77.238
68.807
60.404
52.062
43.814
35.69
27.72
19.931
12.349
4.998
-2.101
-8.928
-15.465
-21.696
-27.609
-33.192
-38.437
-43.337
-47.888
-52.088
-55.938
-59.439
-62.596
-65.415
-67.905
-70.073
-71.931
-73.491
-74.766
-75.769
-76.517
-77.024
-77.309
-77.389
-77.281
-77.003
-76.574
-76.011
-75.332
-74.555
-73.697
-72.774
-71.801
-70.795
-69.768
-68.736
-67.709
-66.7
-65.719
-64.774
-63.874
-63.026
-62.234
-61.503
-60.837
-60.238
-59.708
-59.246
-58.854
-58.529
-58.27
-58.074
-57.937
-57.857
-57.827
-57.843
-57.899
-57.989
-58.107
-58.247
-58.402
-58.566
-58.731
-58.893
-59.043
-59.177
-59.287
-59.37
-59.42
-59.431
-59.401
-59.326
-59.204
-59.031
-58.806
-58.528
-58.196
-57.811
-57.371
-56.878
-56.333
-55.737
-55.092
-54.401
-53.666
-52.89
-52.077
-51.231
-50.356
-49.456
-48.536
-47.602
-46.658
-45.709
-44.763
-43.823
-42.896
-41.987
-41.102
-40.246
-39.425
-38.643
-37.905
-37.215
-36.577
-35.995
-35.472
-35.01
-34.614
-34.285
-34.025
-33.836
-33.72
-33.678
-33.711
-33.82
-34.003
-34.262
-34.596
-35.002
-35.481
-36.03
-36.646
-37.327
-38.069
-38.868
-39.72
-40.619
-41.562
-42.541
-43.552
-44.588
-45.642
-46.709
-47.78
-48.851
-49.914
-50.962
-51.989
-52.987
-53.949
-54.87
-55.74
-56.554
-57.302
-57.979
-58.577
-59.088
-59.507
-59.826
-60.039
-60.141
-60.125
-59.986
-59.721
-59.325
-58.794
-58.125
-57.316
-56.367
-55.278
-54.048
-52.68
-51.176
-49.539
-47.773
-45.884
-43.877
-41.757
-39.533
-37.212
-34.804
-32.32
-29.769
-27.166
-24.524
-21.861
-19.192
-16.537
-13.913
-11.34
-8.837
-6.424
-4.116
-1.93
0.117
2.01
3.733
5.269
6.6
7.713
8.592
9.226
9.604
9.72
9.574
9.168
8.503
7.579
6.385
4.914
3.162
1.127
-1.189
-3.777
-6.615
-9.67
-12.89
-16.219
-19.602
-22.989
-26.341
-29.614
-32.765
-35.735
-38.456
-40.865
-42.905
-44.526
-45.677
-46.337
-46.531
-46.326
-45.84
-45.192
-44.468
-43.761
-43.187
-42.876
-42.971
-43.626
-44.939
-47.043
-50.171
-54.416
-59.703
-65.748
-71.884
-77.364
-81.602
-83.901
-83.43
-79.82
-73.184
-64.219
-54.661
-46.286
-40.312
-38.009
-40.517
-47.878
-58.944
-71.332
-80.846
-82.718
-72.743
-46.689
-0.265
67.908
155.321
258.429
371.552
491.201
619.587
754.894
888.77
1005.868
1082.647
1101.193
1056.805
956.843
817.762
654.331
478.149
299.017
129.612
-10.308
-107.202
-156.996
-168.045
-161.579
-152.009
-144.656
-138.448
-125.805
-105.575
-82.706
-61.534
-46.215
-37.873
-34.887
-36.109
-40.692
-46.841
-52.168
-55.364
-56.172
-54.863
-52.229
-48.62
-43.75
-38.193
-33.322
-29.924
-28.382
-28.723
-30.451
-33.36
-37.624
-43.014
-48.974
-55.052
-60.787
-65.894
-70.393
-74.227
-77.264
-79.476
-80.866
-81.471
-81.404
-80.747
-79.532
-77.812
-75.637
-73.065
-70.193
-67.116
-63.926
-60.713
-57.533
-54.422
-51.405
-48.496
-45.7
-43.013
-40.413
-37.868
-35.358
-32.865
-30.381
-27.894
-25.38
-22.813
-20.168
-17.425
-14.565
-11.576
-8.441
-5.147
-1.684
1.954
5.772
9.769
13.952
18.325
22.892
27.657
32.622
37.784
43.144
48.698
54.44
60.361
66.452
72.698
79.084
85.595
92.213
98.916
105.685
112.497
119.327
126.151
132.942
139.673
146.315
152.84
159.217
165.417
171.409
177.164
182.651
187.843
192.712
197.231
201.376
205.122
208.448
211.333
213.76
215.712
217.175
218.138
218.593
218.533
217.956
216.861
215.25
213.129
210.505
207.389
203.793
199.732
195.223
190.285
184.94
179.211
173.124
166.705
159.983
152.989
145.752
138.304
130.678
122.906
115.019
107.05
99.031
90.993
82.967
74.982
67.067
59.25
51.557
44.014
36.642
29.464
22.5
15.766
9.279
3.052
-2.902
-8.574
-13.955
-19.04
-23.824
-28.304
-32.48
-36.354
-39.928
-43.207
-46.197
-48.907
-51.345
-53.52
-55.443
-57.126
-58.58
-59.817
-60.849
-61.691
-62.354
-62.853
-63.199
-63.406
-63.487
-63.453
-63.317
-63.091
-62.784
-62.406
-61.969
-61.479
-60.946
-60.379
-59.783
-59.167
-58.536
-57.896
-57.251
-56.606
-55.965
-55.329
-54.703
-54.088
-53.485
-52.897
-52.325
-51.77
-51.233
-50.715
-50.218
-49.743
-49.288
-48.857
-48.447
-48.061
-47.699
-47.36
-47.046
-46.758
-46.495
-46.259
-46.049
-45.866
-45.711
-45.582
-45.48
-45.404
-45.354
-45.328
-45.327
-45.35
-45.395
-45.462
-45.55
-45.657
-45.783
-45.927
-46.085
-46.257
-46.441
-46.635
-46.838
-47.048
-47.263
-47.483
-47.706
-47.932
-48.159
-48.386
-48.614
-48.842
-49.069
-49.297
-49.525
-49.756
-49.989
-50.228
-50.474
-50.73
-50.999
-51.283
-51.586
-51.912
-52.263
-52.642
-53.054
-53.501
-53.988
-54.516
-55.09
-55.711
-56.382
-57.104
-57.88
-58.708
-59.591
-60.526
-61.514
-62.551
-63.637
-64.768
-65.941
-67.151
-68.393
-69.663
-70.953
-72.258
-73.569
-74.878
-76.176
-77.455
-78.706
-79.917
-81.079
-82.181
-83.214
-84.166
-85.028
-85.79
-86.441
-86.973
-87.377
-87.645
-87.77
-87.746
-87.568
-87.232
-86.733
-86.07
-85.242
-84.247
-83.086
-81.762
-80.276
-78.633
-76.836
-74.891
-72.804
-70.584
-68.237
-65.773
-63.201
-60.533
-57.777
-54.947
-52.055
-49.112
-46.132
-43.128
-40.112
