Name
Date of Birth,"Mar 27, 1959"
Recorded Date,2022-07-25 16:01:09 -0500
Classification,Sinus Rhythm
Symptoms,
Software Version,1.90
Device,"Watch4,2"
Sample Rate,510.227 hertz


Lead,Lead I
Unit,µV

170.665
253.383
309.578
321.139
286.006
208.428
102.989
-8.99
-112.28
-191.895
-238.884
-256.027
-249.105
-226.955
-197.506
-164.002
-127.81
-92.09
-64.61
-50.607
-53.069
-69.807
-88.452
-100.972
-103.037
-93.021
-79.362
-67.46
-59.138
-56.597
-56.07
-54.97
-53.469
-50.728
-47.929
-46.135
-44.937
-44.321
-44.09
-43.898
-43.778
-43.737
-43.669
-43.539
-43.344
-43.071
-42.716
-42.279
-41.739
-41.075
-40.302
-39.442
-38.514
-37.543
-36.543
-35.531
-34.528
-33.552
-32.624
-31.749
-30.927
-30.153
-29.416
-28.704
-28.008
-27.313
-26.6
-25.852
-25.051
-24.175
-23.21
-22.134
-20.926
-19.562
-18.021
-16.284
-14.335
-12.161
-9.752
-7.104
-4.208
-1.062
2.338
6
9.925
14.11
18.549
23.228
28.126
33.217
38.47
43.852
49.337
54.901
60.526
66.207
71.935
77.703
83.497
89.286
95.044
100.748
106.378
111.924
117.389
122.78
128.115
133.415
138.681
143.903
149.052
154.072
158.901
163.471
167.729
171.655
175.231
178.438
181.247
183.623
185.505
186.829
187.519
187.479
186.649
184.989
182.489
179.182
175.121
170.37
164.974
158.945
152.278
144.987
137.101
128.662
119.75
110.452
100.882
91.199
81.527
71.972
62.616
53.493
44.62
36.015
27.708
19.757
12.248
5.239
-1.224
-7.107
-12.412
-17.157
-21.387
-25.204
-28.689
-31.904
-34.897
-37.681
-40.258
-42.643
-44.854
-46.918
-48.894
-50.822
-52.733
-54.663
-56.621
-58.602
-60.583
-62.506
-64.315
-65.979
-67.473
-68.791
-69.939
-70.913
-71.712
-72.341
-72.792
-73.058
-73.139
-73.024
-72.719
-72.237
-71.598
-70.84
-69.997
-69.096
-68.156
-67.193
-66.215
-65.234
-64.255
-63.277
-62.304
-61.341
-60.393
-59.467
-58.57
-57.703
-56.865
-56.055
-55.268
-54.504
-53.763
-53.042
-52.344
-51.671
-51.025
-50.411
-49.834
-49.296
-48.799
-48.345
-47.934
-47.568
-47.246
-46.968
-46.734
-46.544
-46.397
-46.294
-46.234
-46.216
-46.239
-46.304
-46.409
-46.553
-46.735
-46.955
-47.211
-47.502
-47.827
-48.183
-48.57
-48.986
-49.428
-49.895
-50.384
-50.893
-51.42
-51.96
-52.51
-53.067
-53.627
-54.188
-54.744
-55.292
-55.83
-56.353
-56.858
-57.342
-57.802
-58.234
-58.634
-58.998
-59.324
-59.607
-59.843
-60.029
-60.159
-60.231
-60.242
-60.186
-60.062
-59.864
-59.59
-59.236
-58.799
-58.277
-57.666
-56.964
-56.168
-55.277
-54.29
-53.206
-52.024
-50.745
-49.369
-47.897
-46.331
-44.673
-42.925
-41.089
-39.17
-37.171
-35.098
-32.956
-30.75
-28.488
-26.18
-23.835
-21.462
-19.074
-16.679
-14.291
-11.92
-9.579
-7.276
-5.022
-2.825
-0.698
1.346
3.298
5.147
6.882
8.497
9.98
11.323
12.522
13.577
14.486
15.246
15.851
16.287
16.546
16.626
16.524
16.243
15.785
15.158
14.379
13.478
12.481
11.416
10.304
9.154
7.992
6.847
5.753
4.753
3.88
3.153
2.6
2.236
2.057
2.05
2.178
2.383
2.618
2.83
2.957
2.946
2.73
2.248
1.429
0.164
-1.612
-3.891
-6.578
-9.457
-12.259
-14.741
-16.607
-17.475
-17.054
-15.247
-12.295
-8.786
-5.422
-2.839
-1.605
-2.326
-5.506
-11.173
-18.527
-26.09
-32.003
-34.174
-30.591
-19.092
2.786
36.082
79.279
130.079
185.538
244.054
308.156
378.899
452.343
520.436
568.825
583.012
557.718
493.95
398.555
284.878
164.173
48.069
-48.511
-115.955
-150.203
-153.621
-138.285
-117.07
-97.064
-81.047
-66.56
-49.605
-30.727
-12.556
1.91
9.431
9.449
3.387
-7.136
-20.124
-33.58
-46.137
-56.855
-64.884
-69.945
-72.261
-72.225
-70.565
-68.231
-66.023
-64.467
-63.958
-64.615
-66.361
-69.083
-72.519
-76.325
-80.163
-83.776
-87.021
-89.851
-92.276
-94.308
-95.966
-97.273
-98.271
-99.001
-99.478
-99.712
-99.704
-99.458
-99.003
-98.378
-97.624
-96.788
-95.897
-94.966
-94.01
-93.037
-92.051
-91.056
-90.049
-89.015
-87.949
-86.844
-85.693
-84.492
-83.23
-81.89
-80.457
-78.917
-77.257
-75.47
-73.548
-71.482
-69.265
-66.895
-64.369
-61.687
-58.849
-55.853
-52.7
-49.39
-45.927
-42.315
-38.561
-34.67
-30.652
-26.517
-22.277
-17.946
-13.54
-9.074
-4.566
-0.035
4.5
9.017
13.496
17.913
22.248
26.475
30.573
34.518
38.286
41.856
45.205
48.312
51.157
53.72
55.983
57.93
59.547
60.819
61.734
62.283
62.458
62.252
61.661
60.683
59.318
57.569
55.441
52.939
50.075
46.858
43.301
39.421
35.233
30.756
26.011
21.017
15.798
10.378
4.781
-0.967
-6.842
-12.816
-18.863
-24.958
-31.075
-37.187
-43.27
-49.299
-55.251
-61.104
-66.835
-72.424
-77.852
-83.101
-88.154
-92.996
-97.615
-101.997
-106.134
-110.016
-113.638
-116.995
-120.082
-122.899
-125.446
-127.725
-129.739
-131.492
-132.99
-134.241
-135.253
-136.036
-136.599
-136.955
-137.113
-137.088
-136.891
-136.535
-136.033
-135.399
-134.645
-133.784
-132.83
-131.794
-130.69
-129.528
-128.322
-127.08
-125.815
-124.536
-123.251
-121.969
-120.699
-119.446
-118.217
-117.017
-115.852
-114.724
-113.637
-112.594
-111.596
-110.644
-109.739
-108.881
-108.069
-107.302
-106.58
-105.9
-105.261
-104.662
-104.099
-103.572
-103.079
-102.617
-102.185
-101.78
-101.401
-101.047
-100.715
-100.404
-100.112
-99.84
-99.585
-99.348
-99.127
-98.923
-98.735
-98.564
-98.41
-98.273
-98.154
-98.054
-97.974
-97.916
-97.879
-97.866
-97.879
-97.917
-97.984
-98.078
-98.202
-98.356
-98.539
-98.753
-98.995
-99.267
-99.565
-99.89
-100.24
-100.612
-101.005
-101.416
-101.842
-102.28
-102.725
-103.175
-103.625
-104.07
-104.505
-104.925
-105.326
-105.701
-106.046
-106.355
-106.621
-106.84
-107.005
-107.111
-107.152
-107.122
-107.017
-106.832
-106.562
-106.204
-105.755
-105.213
-104.574
-103.838
-103.005
-102.075
-101.048
-99.924
-98.708
-97.401
-96.007
-94.531
-92.979
-91.357
-89.675
-87.942
-86.167
-84.362
-82.538
-80.706
-78.878
-77.067
-75.282
-73.534
-71.835
-70.196
-68.632
-67.153
-65.769
-64.491
-63.329
-62.29
-61.387
-60.623
-60.002
-59.526
-59.202
-59.037
-59.048
-59.241
-59.619
-60.183
-60.931
-61.86
-62.966
-64.232
-65.631
-67.134
-68.71
-70.338
-72
-73.67
-75.309
-76.874
-78.314
-79.594
-80.696
-81.603
-82.294
-82.766
-83.023
-83.093
-83.046
-82.946
-82.852
-82.832
-82.951
-83.269
-83.869
-84.86
-86.295
-88.182
-90.476
-93.012
-95.617
-98.163
-100.461
-102.28
-103.459
-103.868
-103.501
-102.707
-101.897
-101.329
-101.216
-101.734
-103
-105.213
-108.397
-111.128
-110.964
-106.126
-95.801
-81.764
-67.296
-52.699
-34.439
-6.155
37.889
98.477
169.982
243.369
312.816
374.9
427.214
468.315
491.071
486.783
452.861
388.616
298.059
192.894
83.34
-18.256
-96.121
-144.786
-165.398
-163.498
-151.734
-136.059
-115.374
-90.428
-61.833
-34.043
-16.144
-10.807
-15.152
-25.343
-34.776
-41.132
-46.83
-52.343
-58.492
-65.099
-69.571
-71.015
-69.771
-66.189
-61.517
-57.018
-53.094
-50.055
-48.244
-47.634
-48.152
-49.736
-52.068
-54.732
-57.509
-60.225
-62.711
-64.942
-66.877
-68.449
-69.678
-70.592
-71.192
-71.491
-71.502
-71.212
-70.633
-69.789
-68.694
-67.383
-65.894
-64.263
-62.533
-60.735
-58.889
-57.01
-55.106
-53.181
-51.236
-49.263
-47.247
-45.177
-43.041
-40.83
-38.535
-36.141
-33.634
-31
-28.226
-25.303
-22.225
-18.984
-15.573
-11.99
-8.232
-4.302
-0.202
4.064
8.496
13.087
17.835
22.73
27.766
32.932
38.22
43.617
49.11
54.684
60.32
66.002
71.71
77.424
83.123
88.783
94.382
99.896
105.301
110.572
115.686
120.618
125.344
129.84
134.085
138.057
141.734
145.096
148.125
150.804
153.118
155.052
156.594
157.735
158.467
158.784
158.681
158.158
157.215
155.853
154.079
151.898
149.321
146.359
143.026
139.336
135.309
130.964
126.323
121.407
116.241
110.849
105.259
99.497
93.589
87.564
81.45
75.275
69.067
62.854
56.663
50.52
44.453
38.484
32.638
26.937
21.402
16.051
10.904
5.975
1.28
-3.168
-7.358
-11.28
-14.927
-18.293
-21.374
-24.169
-26.677
-28.9
-30.841
-32.507
-33.902
-35.034
-35.914
-36.549
-36.952
-37.135
-37.11
-36.89
-36.491
-35.926
-35.211
-34.361
-33.39
-32.314
-31.146
-29.901
-28.593
-27.235
-25.839
-24.418
-22.984
-21.547
-20.118
-18.706
-17.321
-15.969
-14.658
-13.393
-12.179
-11.021
-9.92
-8.881
-7.903
-6.99
-6.14
-5.354
-4.631
-3.97
-3.369
-2.826
-2.337
-1.9
-1.511
-1.167
-0.864
-0.598
-0.367
-0.168
0.004
0.151
0.276
0.382
0.472
0.549
0.616
0.674
0.725
0.771
0.814
0.854
0.891
0.926
0.958
0.987
1.014
1.036
1.054
1.067
1.073
1.072
1.06
1.038
1.002
0.951
0.882
0.795
0.687
0.557
0.404
0.227
0.024
-0.204
-0.459
-0.74
-1.049
-1.385
-1.748
-2.139
-2.556
-2.999
-3.466
-3.955
-4.464
-4.991
-5.532
-6.085
-6.646
-7.212
-7.779
-8.343
-8.9
-9.444
-9.972
-10.478
-10.956
-11.402
-11.809
-12.172
-12.487
-12.75
-12.955
-13.099
-13.178
-13.188
-13.128
-12.994
-12.785
-12.499
-12.133
-11.688
-11.164
-10.562
-9.883
-9.129
-8.305
-7.417
-6.47
-5.471
-4.428
-3.348
-2.242
-1.117
0.015
1.148
2.273
3.38
4.46
5.499
6.488
7.414
8.27
9.046
9.731
10.317
10.797
11.171
11.436
11.587
11.617
11.51
11.254
10.846
10.282
9.561
8.687
7.661
6.501
5.233
3.885
2.482
1.046
-0.416
-1.879
-3.315
-4.69
-5.957
-7.082
-8.045
-8.817
-9.384
-9.748
-9.92
-9.936
-9.858
-9.732
-9.616
-9.574
-9.658
-9.937
-10.465
-11.31
-12.586
-14.36
-16.624
-19.297
-22.155
-24.919
-27.362
-29.181
-29.995
-29.548
-27.722
-24.71
-21.142
-17.723
-15.106
-13.925
-14.738
-17.927
-23.498
-30.657
-37.834
-43.137
-44.355
-39.269
-25.699
-1.257
34.891
80.915
134.086
190.858
249.387
313.068
384.034
459.981
534.161
589.34
607.136
578.316
499.845
382.411
247.696
114.323
1.84
-75.022
-114.818
-119.125
-96.475
-62.142
-26.221
1.328
14.333
15.241
7.826
-0.855
-4.292
-1.904
4.024
8.562
7.995
2.532
-5.712
-13.732
-19.823
-24.018
-26.601
-27.73
-27.487
-25.996
-23.777
-21.604
-19.912
-18.8
-18.323
-18.561
-19.557
-21.304
-23.62
-26.153
-28.682
-31.097
-33.294
-35.23
-36.857
-38.112
-39
-39.562
-39.813
-39.773
-39.456
-38.86
-37.999
-36.895
-35.565
-34.04
-32.357
-30.548
-28.658
-26.714
-24.734
-22.73
-20.711
-18.678
-16.631
-14.561
-12.455
-10.3
-8.09
-5.815
-3.469
-1.038
1.491
4.132
6.894
9.787
12.816
15.989
19.311
22.783
26.407
30.179
34.098
38.158
42.358
46.691
51.152
55.733
60.425
65.217
70.099
75.059
80.082
85.151
90.25
95.36
100.462
105.536
110.56
115.513
120.371
125.113
129.715
134.155
138.408
142.453
146.268
149.83
153.121
156.12
158.809
161.171
163.191
164.855
166.152
167.07
167.601
167.739
167.479
166.82
165.759
164.3
162.445
160.201
157.576
154.579
151.222
147.52
143.488
139.144
134.506
129.595
124.433
119.043
113.448
107.674
101.744
95.686
89.525
83.286
76.996
70.681
64.364
58.072
51.827
45.654
39.574
33.607
27.775
22.096
16.587
11.263
6.14
1.229
-3.458
-7.911
-12.122
-16.085
-19.796
-23.251
-26.449
-29.389
-32.074
-34.505
-36.689
-38.629
-40.334
-41.81
-43.067
-44.113
-44.96
-45.618
-46.098
-46.411
-46.57
-46.587
-46.473
-46.241
-45.903
-45.472
-44.958
-44.374
-43.731
-43.038
-42.307
-41.547
-40.767
-39.975
-39.179
-38.386
-37.602
-36.834
-36.086
-35.363
-34.667
-34.002
-33.369
-32.771
-32.207
-31.679
-31.185
-30.726
-30.302
-29.91
-29.55
-29.22
-28.92
-28.646
-28.398
-28.174
-27.971
-27.788
-27.623
-27.474
-27.339
-27.217
-27.107
-27.006
-26.915
-26.831
-26.755
-26.685
-26.621
-26.563
-26.511
-26.465
-26.426
-26.395
-26.373
-26.362
-26.364
-26.379
-26.411
-26.459
-26.527
-26.616
-26.728
-26.863
-27.023
-27.211
-27.426
-27.67
-27.945
-28.25
-28.587
-28.955
-29.355
-29.786
-30.249
-30.743
-31.267
-31.82
-32.402
-33.012
-33.648
-34.308
-34.99
-35.693
-36.412
-37.145
-37.888
-38.636
-39.387
-40.134
-40.875
-41.604
-42.317
-43.008
-43.674
-44.307
-44.905
-45.461
-45.97
-46.428
-46.828
-47.168
-47.442
-47.647
-47.779
-47.834
-47.808
-47.699
-47.503
-47.219
-46.845
-46.378
-45.818
-45.165
-44.419
-43.583
-42.659
-41.651
-40.563
-39.402
-38.175
-36.89
-35.553
-34.175
-32.764
-31.331
-29.885
-28.434
-26.99
-25.563
-24.165
-22.808
-21.504
-20.266
-19.105
-18.033
-17.062
-16.2
-15.456
-14.835
-14.344
-13.992
-13.795
-13.763
-13.906
-14.227
-14.732
-15.418
-16.279
-17.299
-18.452
-19.713
-21.054
-22.457
-23.908
-25.389
-26.883
-28.36
-29.788
-31.137
-32.384
-33.51
-34.498
-35.343
-36.063
-36.703
-37.339
-38.044
-38.869
-39.857
-41.053
-42.508
-44.28
-46.432
-48.997
-52.022
-55.58
-59.709
-64.392
-69.495
-74.712
-79.66
-83.967
-87.237
-89.056
-89.123
-87.298
-83.788
-79.246
-74.478
-70.289
-67.427
-66.533
-68.018
-71.853
-77.21
-82.459
-85.571
-84.169
-75.868
-58.433
-29.6
11.275
62.247
120.545
182.595
246.195
313.621
385.757
459.441
527.902
575.934
587.938
556.548
479.524
365.806
234.011
101.427
-12.217
-90.979
-132.203
-139.554
-125.647
-107.729
-94.11
-87.247
-84.321
-78.782
-69.43
-58.541
-48.745
-43.147
-42.172
-44.293
-48.25
-52.653
-56.387
-58.837
-59.674
-58.979
-57.154
-54.721
-52.133
-49.751
-47.941
-47.023
-47.136
-48.257
-50.249
-52.889
-55.989
-59.414
-62.998
-66.587
-70.053
-73.256
-76.116
-78.598
-80.666
-82.303
-83.505
-84.261
-84.583
-84.509
-84.067
-83.292
-82.222
-80.879
-79.301
-77.534
-75.623
-73.619
-71.561
-69.47
-67.365
-65.253
-63.136
-61.016
-58.888
-56.731
-54.532
-52.276
-49.952
-47.552
-45.067
-42.484
-39.789
-36.971
-34.017
-30.92
-27.679
-24.285
-20.733
-17.013
-13.116
-9.041
-4.799
-0.399
4.148
8.834
13.651
18.583
23.608
28.713
33.892
39.152
44.502
49.936
55.438
60.979
66.53
72.073
77.604
83.123
88.618
94.078
99.494
104.878
110.245
115.591
120.876
126.03
130.981
135.682
140.101
144.222
148.023
151.468
154.516
157.132
159.292
160.974
162.139
162.727
162.671
161.94
160.552
158.569
156.049
153.03
149.534
145.582
141.206
136.447
131.345
125.925
120.205
114.216
108.007
101.652
95.23
88.792
82.351
75.895
69.416
62.924
56.436
49.969
43.528
37.121
30.767
24.5
18.354
12.354
6.51
0.819
-4.724
-10.11
-15.319
-20.32
-25.087
-29.606
-33.862
-37.841
-41.527
-44.907
-47.982
-50.761
-53.256
-55.473
-57.417
-59.09
-60.497
-61.647
-62.553
-63.228
-63.686
-63.939
-64.004
-63.897
-63.636
-63.238
-62.717
-62.084
-61.353
-60.536
-59.648
-58.702
-57.711
-56.687
-55.641
-54.586
-53.534
-52.495
-51.476
-50.486
-49.532
-48.619
-47.753
-46.938
-46.175
-45.469
-44.821
-44.23
-43.698
-43.224
-42.806
-42.442
-42.132
-41.87
-41.656
-41.486
-41.355
-41.261
-41.2
-41.168
-41.161
-41.175
-41.205
-41.248
-41.3
-41.357
-41.416
-41.471
-41.522
-41.563
-41.593
-41.61
-41.612
-41.597
-41.563
-41.511
-41.44
-41.349
-41.241
-41.114
-40.972
-40.814
-40.643
-40.461
-40.27
-40.072
-39.87
-39.665
-39.462
-39.261
-39.066
-38.879
-38.703
-38.541
-38.395
-38.268
-38.162
-38.08
-38.023
-37.993
-37.992
-38.021
-38.081
-38.173
-38.296
-38.452
-38.64
-38.859
-39.108
-39.385
-39.688
-40.015
-40.361
-40.725
-41.1
-41.484
-41.872
-42.26
-42.641
-43.012
-43.366
-43.698
-44.003
-44.275
-44.506
-44.693
-44.827
-44.904
-44.919
-44.865
-44.739
-44.535
-44.25
-43.88
-43.422
-42.874
-42.234
-41.5
-40.673
-39.753
-38.742
-37.643
-36.458
-35.194
-33.857
-32.456
-31
-29.498
-27.96
-26.398
-24.823
-23.248
-21.682
-20.137
-18.624
-17.155
-15.745
-14.407
-13.156
-12.003
-10.962
-10.044
-9.261
-8.621
-8.13
-7.788
-7.603
-7.581
-7.738
-8.085
-8.628
-9.37
-10.313
-11.45
-12.775
-14.269
-15.901
-17.642
-19.462
-21.337
-23.254
-25.196
-27.135
-29.036
-30.856
-32.551
-34.097
-35.468
-36.635
-37.595
-38.359
-38.967
-39.493
-39.991
-40.501
-41.073
-41.752
-42.602
-43.702
-45.093
-46.832
-49.028
-51.725
-54.919
-58.516
-62.199
-65.612
-68.479
-70.453
-71.144
-70.32
-67.875
-64.076
-59.773
-55.837
-52.886
-51.565
-52.514
-56.144
-62.551
-70.245
-76.022
-76.866
-70.766
-58.466
-42.097
-22.039
3.652
41.067
96.036
170.523
262.766
363.472
461.502
546.266
606.47
637.506
636.482
601.646
536.279
440.786
319.799
185.652
52.762
-57.96
-129.916
-160.399
-155.866
-132.763
-108.105
-88.879
-76.038
-65.655
-52.753
-37.862
-23.668
-12.953
-8.613
-10.802
-17.81
-27.894
-38.903
-48.823
-56.769
-62.297
-64.953
-64.859
-62.451
-58.222
-53.108
-48.205
-44.078
-41.046
-39.38
-39.051
-39.971
-42.05
-44.944
-48.235
-51.674
-55.069
-58.274
-61.231
-63.864
-66.101
-67.946
-69.42
-70.533
-71.294
-71.701
-71.752
-71.462
-70.857
-69.965
-68.818
-67.451
-65.905
-64.222
-62.444
-60.601
-58.712
-56.79
-54.837
-52.853
-50.832
-48.762
-46.626
-44.412
-42.105
-39.694
-37.166
-34.508
-31.709
-28.755
-25.637
-22.348
-18.881
-15.232
-11.4
-7.384
-3.188
1.184
5.727
10.432
15.292
20.3
25.446
30.718
36.106
41.595
47.172
52.821
58.524
64.262
70.015
75.762
81.481
87.149
92.744
98.241
103.617
108.848
113.91
118.781
123.436
127.854
132.013
135.893
139.473
142.736
145.664
148.241
150.454
152.29
153.738
154.79
155.44
155.681
155.512
154.933
153.943
152.548
150.752
148.563
145.991
143.048
139.748
136.106
132.14
127.868
123.312
118.492
113.432
108.155
102.685
97.048
91.268
85.372
79.384
73.331
67.239
61.132
55.036
48.975
42.972
37.05
31.231
25.535
19.982
14.589
9.374
4.352
-0.463
-5.059
-9.426
-13.553
-17.434
-21.062
-24.434
-27.546
-30.397
-32.989
-35.323
-37.401
-39.229
-40.812
-42.157
-43.271
-44.162
-44.841
-45.316
-45.599
-45.701
-45.633
-45.406
-45.034
-44.529
-43.902
-43.166
-42.334
-41.417
-40.427
-39.376
-38.275
-37.136
-35.967
-34.78
-33.583
-32.386
-31.197
-30.022
-28.869
-27.743
-26.65
-25.594
-24.579
-23.609
-22.686
-21.814
-20.992
-20.223
-19.507
-18.845
-18.236
-17.68
-17.177
-16.725
-16.322
-15.968
-15.662
-15.401
-15.183
-15.007
-14.871
-14.772
-14.709
-14.679
-14.679
-14.709
-14.764
-14.845
-14.948
-15.072
-15.215
-15.377
-15.556
-15.751
-15.961
-16.185
-16.424
-16.678
-16.945
-17.228
-17.526
-17.84
-18.171
-18.52
-18.888
-19.275
-19.682
-20.111
-20.561
-21.034
-21.53
-22.05
-22.594
-23.162
-23.756
-24.376
-25.021
-25.692
-26.388
-27.109
-27.854
-28.624
-29.415
-30.228
-31.062
-31.914
-32.782
-33.664
-34.557
-35.458
-36.362
-37.266
-38.163
-39.05
-39.921
-40.77
-41.592
-42.381
-43.132
-43.837
-44.493
-45.093
-45.631
-46.102
-46.5
-46.82
-47.056
-47.205
-47.263
-47.225
-47.089
-46.85
-46.508
-46.061
-45.508
-44.846
-44.078
-43.203
-42.223
-41.142
-39.962
-38.69
-37.33
-35.892
-34.386
-32.821
-31.209
-29.562
-27.892
-26.212
-24.536
-22.875
-21.241
-19.647
-18.104
-16.626
-15.229
-13.925
-12.725
-11.642
-10.687
-9.871
-9.204
-8.69
-8.33
-8.13
-8.096
-8.242
-8.58
-9.114
-9.847
-10.782
-11.913
-13.233
-14.727
-16.362
-18.108
-19.933
-21.808
-23.715
-25.634
-27.531
-29.37
-31.107
-32.698
-34.12
-35.347
-36.349
-37.12
-37.677
-38.06
-38.345
-38.596
-38.861
-39.202
-39.688
-40.387
-41.373
-42.685
-44.379
-46.56
-49.302
-52.612
-56.383
-60.35
-64.222
-67.746
-70.592
-72.34
-72.618
-71.216
-68.375
-64.71
-60.794
-57.246
-54.758
-54.022
-55.813
-59.665
-63.328
-64.659
-62.318
-57.335
-52.314
-46.661
-35.328
-9.89
36.369
103.792
185.973
272.614
357.963
440.273
517.123
584.821
631.981
643.911
614.099
542.421
436.118
310.261
177.874
50.855
-56.859
-135.822
-181.774
-193.692
-177.614
-144.675
-103.393
-63.634
-35.237
-19.617
-16.296
-20.864
-23.636
-21.539
-15.328
-7.305
-3.15
-4.892
-11.133
-20.329
-30.063
-38.618
-45.557
-50.728
-54.179
-56.156
-56.947
-56.766
-55.863
-54.735
-53.92
-53.749
-54.388
-55.77
-57.69
-59.992
-62.516
-65.044
-67.329
-69.198
-70.572
-71.453
-71.892
-71.929
-71.588
-70.9
-69.911
-68.661
-67.173
-65.471
-63.573
-61.509
-59.326
-57.06
-54.738
-52.38
-49.993
-47.583
-45.152
-42.698
-40.207
-37.673
-35.09
-32.455
-29.765
-27.013
-24.188
-21.278
-18.273
-15.161
-11.931
-8.577
-5.089
-1.464
2.301
6.207
10.253
14.437
18.762
23.225
27.826
32.562
37.427
42.417
47.524
52.741
58.054
63.451
68.917
74.436
79.992
85.566
91.138
96.687
102.191
107.627
112.973
118.205
123.297
128.224
132.963
137.487
141.774
145.8
149.541
152.975
156.081
158.84
161.233
163.244
164.856
166.056
166.833
167.176
167.079
166.535
165.541
164.097
162.205
159.868
157.095
153.893
150.276
146.256
141.85
137.077
131.956
126.51
120.761
114.737
108.462
101.965
95.273
88.418
81.427
74.331
67.16
59.944
52.713
45.497
38.324
31.222
24.219
17.34
10.611
4.056
-2.303
-8.446
-14.352
-20.006
-25.391
-30.494
-35.304
-39.811
-44.007
-47.888
-51.45
-54.692
-57.614
-60.219
-62.511
-64.495
-66.181
-67.575
-68.689
-69.534
-70.122
-70.467
-70.583
-70.484
-70.186
-69.704
-69.055
-68.255
-67.32
-66.266
-65.109
-63.866
-62.551
-61.181
-59.769
-58.331
-56.878
-55.423
-53.98
-52.557
-51.166
-49.815
-48.512
-47.264
-46.077
-44.957
-43.908
-42.932
-42.032
-41.21
-40.466
-39.8
-39.212
-38.699
-38.261
-37.895
-37.598
-37.366
-37.196
-37.085
-37.027
-37.019
-37.056
-37.133
-37.246
-37.39
-37.56
-37.751
-37.959
-38.18
-38.409
-38.642
-38.876
-39.106
-39.331
-39.546
-39.75
-39.94
-40.115
-40.272
-40.411
-40.531
-40.631
-40.711
-40.771
-40.812
-40.835
-40.84
-40.829
-40.803
-40.765
-40.715
-40.656
-40.59
-40.519
-40.446
-40.373
-40.303
-40.237
-40.18
-40.133
-40.098
-40.077
-40.074
-40.089
-40.123
-40.18
-40.258
-40.36
-40.487
-40.638
-40.814
-41.015
-41.24
-41.488
-41.758
-42.049
-42.357
-42.68
-43.014
-43.357
-43.705
-44.054
-44.399
-44.736
-45.061
-45.366
-45.649
-45.903
-46.121
-46.3
-46.432
-46.512
-46.536
-46.498
-46.395
-46.221
-45.974
-45.651
-45.248
-44.764
-44.197
-43.546
-42.811
-41.992
-41.092
-40.111
-39.054
-37.925
-36.731
-35.479
-34.178
-32.836
-31.465
-30.074
-28.675
-27.28
-25.898
-24.54
-23.218
-21.942
-20.727
-19.585
-18.531
-17.575
-16.73
-16.006
-15.413
-14.959
-14.647
-14.48
-14.462
-14.6
-14.906
-15.395
-16.07
-16.938
-18
-19.25
-20.68
-22.274
-23.999
-25.826
-27.726
-29.671
-31.642
-33.62
-35.572
-37.465
-39.251
-40.886
-42.338
-43.572
-44.56
-45.306
-45.83
-46.173
-46.406
-46.579
-46.745
-46.977
-47.34
-47.893
-48.704
-49.805
-51.272
-53.255
-55.824
-58.955
-62.518
-66.209
-69.706
-72.744
-74.93
-75.772
-74.969
-72.491
-68.641
-64.098
-59.665
-56.156
-54.454
-55.475
-58.932
-63.128
-66.312
-67.043
-66.367
-66.667
-67.063
-62.681
-43.85
-1.434
65.587
150.842
241.819
327.153
404.289
474.728
539.403
595.26
630.898
632.499
593.491
513.946
400.651
268.226
130.94
2.307
-102.02
-171.961
-204.815
-201.707
-170.497
-123.743
-70.513
-20.899
13.98
31.237
30.512
16.094
-0.682
-14.218
-22.74
-26.952
-32.092
-39.707
-48.408
-56.625
-61.672
-62.71
-60.681
-56.481
-51.321
-46.354
-42.092
-38.938
-37.18
-36.77
-37.586
-39.459
-42.08
-45.082
-48.219
-51.316
-54.225
-56.891
-59.261
-61.28
-62.942
-64.265
-65.247
-65.883
-66.172
-66.109
-65.708
-64.997
-63.999
-62.742
-61.258
-59.583
-57.757
-55.827
-53.824
-51.769
-49.68
-47.563
-45.422
-43.258
-41.061
-38.815
-36.505
-34.118
-31.64
-29.061
-26.366
-23.541
-20.573
-17.449
-14.161
-10.7
-7.06
-3.235
0.776
4.974
9.355
13.916
18.65
23.552
28.615
33.831
39.19
44.681
50.291
56.007
61.815
67.697
73.634
79.606
85.593
91.572
97.521
103.415
109.23
114.941
120.522
125.948
131.193
136.232
141.04
145.591
149.863
153.833
157.479
160.782
163.721
166.281
168.446
170.204
171.542
172.453
172.928
172.963
172.556
171.707
170.418
168.694
166.541
163.968
160.987
157.611
153.855
149.737
145.275
140.49
135.404
130.039
124.422
118.576
112.527
106.304
99.932
93.44
86.854
80.203
73.513
66.81
60.122
53.472
46.886
40.387
33.997
27.736
21.625
15.68
9.919
4.355
-0.997
-6.128
-11.027
-15.686
-20.099
-24.262
-28.171
-31.824
-35.222
-38.366
-41.258
-43.902
-46.303
-48.467
-50.4
-52.11
-53.605
-54.895
-55.988
-56.895
-57.626
-58.192
-58.602
-58.868
-59.002
-59.012
-58.911
-58.709
-58.415
-58.039
-57.59
-57.078
-56.509
-55.892
-55.234
-54.542
-53.82
-53.076
-52.313
-51.536
-50.75
-49.958
-49.163
-48.368
-47.576
-46.789
-46.01
-45.24
-44.481
-43.734
-43.002
-42.285
-41.584
-40.901
-40.236
-39.591
-38.966
-38.361
-37.778
-37.217
-36.679
-36.165
-35.675
-35.21
-34.772
-34.36
-33.976
-33.622
-33.298
-33.005
-32.745
-32.518
-32.326
-32.169
-32.048
-31.964
-31.916
-31.905
-31.932
-31.996
-32.097
-32.235
-32.409
-32.62
-32.866
-33.147
-33.461
-33.808
-34.187
-34.597
-35.036
-35.504
-36
-36.521
-37.068
-37.638
-38.23
-38.842
-39.472
-40.119
-40.779
-41.451
-42.132
-42.82
-43.513
-44.208
-44.904
-45.597
-46.286
-46.968
-47.641
-48.3
-48.945
-49.57
-50.174
-50.754
-51.305
-51.825
-52.311
-52.76
-53.167
-53.529
-53.843
-54.104
-54.309
-54.453
-54.534
-54.546
-54.487
-54.354
-54.145
-53.855
-53.485
-53.031
-52.492
-51.868
-51.158
-50.361
-49.477
-48.508
-47.456
-46.322
-45.11
-43.825
-42.47
-41.054
-39.583
-38.065
-36.509
-34.924
-33.32
-31.706
-30.094
-28.494
-26.915
-25.37
-23.867
-22.421
-21.042
-19.744
-18.539
-17.437
-16.451
-15.59
-14.862
-14.272
-13.824
-13.523
-13.374
-13.389
-13.575
-13.938
-14.482
-15.208
-16.112
-17.186
-18.413
-19.766
-21.215
-22.735
-24.302
-25.9
-27.512
-29.114
-30.679
-32.17
-33.557
-34.814
-35.917
-36.837
-37.566
-38.118
-38.536
-38.891
-39.248
-39.648
-40.133
-40.755
-41.568
-42.627
-43.978
-45.638
-47.658
-50.146
-53.17
-56.71
-60.629
-64.637
-68.404
-71.624
-73.912
-74.798
-73.949
-71.288
-67.078
-61.909
-56.526
-51.802
-48.694
-48.191
-50.225
-53.281
-55.538
-55.792
-55.345
-56.731
-59.9
-60.092
-46.96
-10.745
51.362
133.941
223.551
308.215
384.116
452.465
517.61
578.781
624.88
641.127
613.715
536.718
416.835
270.088
118.981
-14.275
-114.17
-174.129
-198.681
-198.942
-184.604
-161.344
-131.089
-93.342
-52.034
-16.821
5.265
10.477
0.856
-13.739
-26.124
-33.827
-37.493
-41.596
-48.842
-57.733
-64.264
-66.207
-64.298
-61.481
-64.454
-74.582
-86.194
-94.387
-90.785
-73.082
-50.97
-31.538
-22.897
-29.422
-42.717
-56.713
-67.064
-69.826
-69.098
-67.951
-66.851
-67.231
-67.97
-67.988
-67.775
-67.302
-66.617
-65.943
-65.151
-64.129
-62.915
-61.516
-59.911
-58.127
-56.232
-54.262
-52.249
-50.225
-48.184
-46.117
-44.028
-41.905
-39.729
-37.482
-35.149
-32.712
-30.163
-27.486
-24.662
-21.676
-18.514
-15.164
-11.617
-7.867
-3.907
0.263
4.644
9.233
14.024
19.01
24.185
29.541
35.068
40.753
46.585
52.548
58.627
64.804
71.059
77.372
83.718
90.075
96.417
102.717
108.95
115.087
121.1
126.962
132.645
138.12
143.361
148.341
153.034
157.414
161.459
165.145
168.454
171.366
173.865
175.937
177.571
178.756
179.486
179.755
179.561
178.904
177.785
176.209
174.183
171.716
168.819
165.507
161.796
157.703
153.249
148.456
143.345
137.942
132.273
126.363
120.24
113.933
107.47
100.88
94.193
87.437
80.642
73.835
67.044
60.296
53.616
47.029
40.556
34.221
28.042
22.04
16.23
10.629
5.25
0.104
-4.797
-9.446
-13.837
-17.964
-21.824
-25.416
-28.741
-31.798
-34.591
-37.124
-39.402
-41.432
-43.221
-44.777
-46.11
-47.23
-48.148
-48.876
-49.426
-49.809
-50.038
-50.125
-50.082
-49.922
-49.657
-49.299
-48.858
-48.346
-47.774
-47.152
-46.489
-45.793
-45.072
-44.334
-43.586
-42.833
-42.081
-41.335
-40.599
-39.878
-39.174
-38.492
-37.833
-37.2
-36.594
-36.016
-35.468
-34.949
-34.46
-34.001
-33.572
-33.172
-32.801
-32.458
-32.142
-31.853
-31.589
-31.35
-31.134
-30.941
-30.771
-30.622
-30.495
-30.39
-30.307
-30.247
-30.209
-30.195
-30.205
-30.239
-30.299
-30.385
-30.497
-30.635
-30.802
-30.996
-31.22
-31.473
-31.756
-32.069
-32.412
-32.787
-33.192
-33.628
-34.094
-34.591
-35.119
-35.677
-36.265
-36.883
-37.53
-38.206
-38.908
-39.635
-40.386
-41.159
-41.951
-42.76
-43.583
-44.417
-45.259
-46.107
-46.958
-47.807
-48.652
-49.489
-50.315
-51.125
-51.915
-52.682
-53.421
-54.128
-54.799
-55.431
-56.02
-56.56
-57.049
-57.482
-57.854
-58.162
-58.4
-58.566
-58.653
-58.66
-58.582
-58.418
-58.165
-57.82
-57.383
-56.852
-56.226
-55.504
-54.687
-53.774
-52.767
-51.668
-50.48
-49.205
-47.85
-46.42
-44.923
-43.365
-41.755
-40.1
-38.41
-36.697
-34.973
-33.25
-31.535
-29.841
-28.18
-26.562
-25.002
-23.513
-22.101
-20.776
-19.549
-18.43
-17.435
-16.572
-15.841
-15.243
-14.778
-14.45
-14.276
-14.265
-14.42
-14.74
-15.224
-15.872
-16.69
-17.667
-18.777
-19.989
-21.263
-22.574
-23.919
-25.299
-26.715
-28.146
-29.542
-30.854
-32.045
-33.093
-34.007
-34.77
-35.34
-35.753
-36.106
-36.585
-37.479
-38.929
-40.916
-43.413
-46.356
-49.666
-53.333
-57.076
-60.296
-62.644
-63.962
-64.255
-63.807
-62.744
-60.934
-58.646
-56.534
-55.131
-55.07
-56.667
-59.706
-64.232
-70.432
-78.052
-86.601
-95.238
-102.342
-106.366
-106.028
-99.519
-85.007
-60.974
-25.629
21.383
77.798
141.127
208.544
278.179
351.882
430.077
508.381
578.479
626.508
639.221
612.208
547.406
452.114
337.99
214.739
92.725
-14.213
-95.449
-145.904
-166.403
-166.119
-154.475
-134.614
-108.209
-76.265
-42.475
-15.765
-2.505
-3.089
-12.565
-23.558
-31.271
-35.432
-39.233
-44.783
-51.993
-59.509
-64.802
-66.79
-65.95
-62.927
-58.724
-54.305
-50.268
-47.08
-45.141
-44.538
-45.175
-46.922
-49.544
-52.735
-56.181
-59.628
-62.871
-65.786
-68.329
-70.465
-72.172
-73.459
-74.34
-74.831
-74.947
-74.702
-74.101
-73.163
-71.915
-70.386
-68.619
-66.66
-64.552
-62.34
-60.055
-57.719
-55.347
-52.947
-50.521
-48.066
-45.574
-43.029
-40.422
-37.743
-34.981
-32.128
-29.17
-26.093
-22.886
-19.538
-16.041
-12.39
-8.578
-4.602
-0.463
3.838
8.297
12.909
17.668
22.568
27.6
32.758
38.033
43.416
48.897
54.466
60.108
65.81
71.559
77.335
83.121
88.895
94.633
100.313
105.913
111.411
116.784
122.008
127.058
131.913
136.553
140.956
145.098
148.95
152.482
155.674
158.515
160.998
163.117
164.865
166.234
167.227
167.851
168.106
167.986
167.47
166.538
165.18
163.403
161.225
158.665
155.73
152.416
148.718
144.64
140.19
135.37
130.167
124.563
118.561
112.202
105.558
98.7
91.682
84.538
77.291
69.972
62.623
55.296
48.037
40.879
33.859
27.029
20.461
14.24
8.41
2.971
-2.121
-6.903
-11.394
-15.595
-19.505
-23.133
-26.498
-29.616
-32.489
-35.111
-37.489
-39.65
-41.643
-43.525
-45.322
-47.027
-48.603
-50.024
-51.279
-52.365
-53.283
-54.02
-54.568
-54.933
-55.134
-55.194
-55.127
-54.932
-54.598
-54.112
-53.478
-52.712
-51.841
-50.889
-49.872
-48.804
-47.702
-46.588
-45.479
-44.381
-43.293
-42.213
-41.144
-40.092
-39.068
-38.08
-37.131
-36.223
-35.356
-34.534
-33.755
-33.021
-32.329
-31.675
-31.056
-30.473
-29.928
-29.421
-28.951
-28.517
-28.118
-27.754
-27.423
-27.123
-26.852
-26.607
-26.388
-26.192
-26.018
-25.867
-25.735
-25.624
-25.532
-25.458
-25.402
-25.364
-25.343
-25.338
-25.35
-25.378
-25.422
-25.483
-25.56
-25.654
-25.765
-25.894
-26.043
-26.211
-26.401
-26.613
-26.848
-27.108
-27.394
-27.706
-28.044
-28.409
-28.802
-29.223
-29.671
-30.145
-30.646
-31.171
-31.72
-32.29
-32.881
-33.489
-34.112
-34.747
-35.392
-36.043
-36.697
-37.35
-37.997
-38.635
-39.259
-39.866
-40.449
-41.005
-41.527
-42.011
-42.451
-42.842
-43.177
-43.452
-43.661
-43.799
-43.862
-43.846
-43.747
-43.562
-43.288
-42.923
-42.468
-41.92
-41.279
-40.547
-39.724
-38.814
-37.818
-36.742
-35.588
-34.364
-33.076
-31.733
-30.343
-28.916
-27.462
-25.992
-24.517
-23.047
-21.594
-20.167
-18.776
-17.433
-16.149
-14.938
-13.81
-12.777
-11.848
-11.033
-10.343
-9.783
-9.357
-9.067
-8.914
-8.905
-9.052
-9.363
-9.845
-10.497
-11.323
-12.315
-13.467
-14.765
-16.181
-17.686
-19.254
-20.857
-22.48
-24.104
-25.699
-27.233
-28.661
-29.941
-31.047
-31.955
-32.639
-33.095
-33.332
-33.387
-33.325
-33.203
-33.07
-32.986
-33.01
-33.214
-33.684
-34.467
-35.625
-37.273
-39.461
-42.186
-45.356
-48.675
-51.833
-54.608
-56.705
-57.756
-57.523
-55.874
-53.029
-49.764
-46.817
-44.628
-43.698
-44.584
-47.689
-53.199
-59.667
-63.923
-63.221
-55.913
-43.316
-28.245
-11.08
10.51
43.105
93.375
163.693
252.246
350.597
448.088
533.071
593.588
622.569
615.085
572.246
500.251
403.879
291.603
172.435
56.23
-42.187
-112.452
-150.778
-159.574
-147.7
-122.446
-88.789
-50.836
-13.852
13.017
23.367
15.671
-5.137
-27.652
-43.975
-51.088
-50.372
-47.762
-46.432
-46.506
-47.201
-46.366
-43.565
-40.08
-36.827
-34.586
-33.656
-33.769
-34.81
-36.838
-39.711
-43.148
-46.93
-50.835
-54.722
-58.56
-62.245
-65.648
-68.701
-71.367
-73.628
-75.495
-76.964
-78.026
-78.704
-79.022
-79.009
-78.7
-78.117
-77.292
-76.268
-75.087
-73.8
-72.442
-71.036
-69.597
-68.136
-66.655
-65.15
-63.61
-62.014
-60.346
-58.593
-56.741
-54.781
-52.698
-50.479
-48.108
-45.572
-42.861
-39.965
-36.875
-33.586
-30.093
-26.395
-22.492
-18.389
-14.088
-9.593
-4.908
-0.039
5.008
10.223
15.596
21.118
26.774
32.549
38.427
44.388
50.412
56.48
62.568
68.655
74.716
80.728
86.664
92.5
98.211
103.771
109.154
114.335
119.29
123.994
128.425
132.559
136.377
139.859
142.986
145.742
148.113
150.086
151.649
152.794
153.514
153.805
153.664
153.09
152.087
150.658
148.811
146.555
143.9
140.859
137.448
133.684
129.583
125.166
120.455
115.47
110.237
104.778
99.119
93.286
87.305
81.202
75.004
68.737
62.428
56.102
49.784
43.499
37.271
31.123
25.077
19.153
13.371
7.749
2.303
-2.95
-7.998
-12.829
-17.431
-21.797
-25.918
-29.789
-33.406
-36.765
-39.866
-42.707
-45.29
-47.618
-49.695
-51.523
-53.111
-54.464
-55.59
-56.497
-57.195
-57.694
-58.004
-58.135
-58.101
-57.911
-57.578
-57.115
-56.532
-55.843
-55.06
-54.193
-53.255
-52.257
-51.209
-50.123
-49.007
-47.871
-46.725
-45.576
-44.432
-43.302
-42.191
-41.107
-40.055
-39.041
-38.069
-37.144
-36.269
-35.448
-34.684
-33.979
-33.334
-32.751
-32.231
-31.773
-31.378
-31.044
-30.771
-30.557
-30.399
-30.297
-30.248
-30.248
-30.296
-30.389
-30.522
-30.695
-30.903
-31.144
-31.415
-31.713
-32.034
-32.377
-32.739
-33.115
-33.505
-33.905
-34.313
-34.727
-35.143
-35.561
-35.979
-36.393
-36.805
-37.211
-37.611
-38.005
-38.392
-38.772
-39.146
-39.513
-39.876
-40.233
-40.587
-40.937
-41.286
-41.634
-41.982
-42.331
-42.681
-43.032
-43.386
-43.742
-44.101
-44.462
-44.825
-45.19
-45.556
-45.921
-46.285
-46.646
-47.002
-47.351
-47.692
-48.02
-48.336
-48.634
-48.911
-49.165
-49.391
-49.585
-49.742
-49.858
-49.927
-49.945
-49.908
-49.81
-49.647
-49.416
-49.112
-48.733
-48.275
-47.737
-47.118
-46.415
-45.628
-44.759
-43.807
-42.777
-41.669
-40.489
-39.241
-37.933
-36.571
-35.163
-33.718
-32.245
-30.753
-29.253
-27.754
-26.268
-24.803
-23.372
-21.986
-20.659
-19.403
-18.231
-17.156
-16.189
-15.341
-14.623
-14.041
-13.6
-13.305
-13.164
-13.187
-13.383
-13.76
-14.321
-15.068
-16
-17.112
-18.388
-19.804
-21.335
-22.955
-24.643
-26.381
-28.149
-29.926
-31.678
-33.367
-34.96
-36.425
-37.74
-38.877
-39.822
-40.578
-41.183
-41.702
-42.197
-42.711
-43.28
-43.951
-44.782
-45.835
-47.174
-48.829
-50.841
-53.326
-56.342
-59.867
-63.812
-67.913
-71.846
-75.357
-78.114
-79.649
-79.676
-78.152
-75.223
-71.415
-67.455
-64.005
-61.807
-61.969
-64.497
-67.687
-69.868
-69.074
-65.224
-62.014
-61.308
-60.928
-54.991
-32.642
14.96
88.339
182.755
288.458
393.486
490.045
570.65
627.419
653.664
641.887
588.931
496.972
374.792
238.621
106.154
-4.156
-80.632
-122.124
-133.17
-125.314
-108.812
-89.368
-72.03
-57.692
-47.354
-41.631
-37.737
-34.191
-29.485
-23.815
-20.41
-20.851
-25.756
-34.342
-43.897
-52.791
-60.093
-65.11
-68.061
-69.118
-68.332
-66.166
-63.133
-59.718
-56.593
-54.237
-52.834
-52.471
-53.087
-54.497
-56.545
-59.018
-61.607
-64.078
-66.278
-68.105
-69.559
-70.651
-71.371
-71.731
-71.76
-71.479
-70.917
-70.097
-69.023
-67.71
-66.182
-64.47
-62.619
-60.673
-58.671
-56.642
-54.603
-52.562
-50.526
-48.494
-46.461
-44.416
-42.343
-40.228
-38.059
-35.824
-33.511
-31.106
-28.592
-25.951
-23.171
-20.237
-17.142
-13.876
-10.432
-6.806
-2.995
1.001
5.18
9.539
14.076
18.787
23.665
28.704
33.894
39.225
44.684
50.258
55.931
61.685
67.5
73.356
79.23
85.1
90.941
96.729
102.437
108.039
113.509
118.821
123.946
128.861
133.538
137.952
142.08
145.899
149.386
152.522
155.288
157.668
159.647
161.212
162.353
163.061
163.329
163.155
162.535
161.472
159.967
158.028
155.66
152.876
149.688
146.11
142.16
137.857
133.221
128.274
123.042
117.548
111.82
105.884
99.769
93.503
87.116
80.636
74.093
67.515
60.93
54.367
47.852
41.411
35.069
28.85
22.776
16.869
11.147
5.63
0.332
-4.73
-9.545
-14.1
-18.389
-22.402
-26.136
-29.585
-32.75
-35.63
-38.227
-40.545
-42.589
-44.365
-45.882
-47.148
-48.175
-48.973
-49.554
-49.931
-50.118
-50.129
-49.976
-49.675
-49.24
-48.684
-48.022
-47.268
-46.436
-45.538
-44.588
-43.598
-42.579
-41.543
-40.5
-39.458
-38.427
-37.415
-36.427
-35.471
-34.551
-33.672
-32.837
-32.048
-31.308
-30.617
-29.975
-29.383
-28.839
-28.341
-27.889
-27.479
-27.11
-26.778
-26.482
-26.218
-25.983
-25.774
-25.588
-25.423
-25.275
-25.143
-25.022
-24.912
-24.811
-24.716
-24.626
-24.541
-24.46
-24.382
-24.308
-24.237
-24.169
-24.106
-24.049
-23.999
-23.958
-23.927
-23.908
-23.905
-23.919
-23.952
-24.008
-24.088
-24.194
-24.329
-24.495
-24.694
-24.928
-25.198
-25.506
-25.853
-26.239
-26.666
-27.133
-27.64
-28.185
-28.767
-29.386
-30.037
-30.72
-31.43
-32.166
-32.923
-33.699
-34.489
-35.29
-36.095
-36.902
-37.704
-38.495
-39.271
-40.026
-40.752
-41.446
-42.101
-42.71
-43.268
-43.769
-44.207
-44.576
-44.87
-45.084
-45.212
-45.249
-45.193
-45.039
-44.785
-44.43
-43.971
-43.409
-42.742
-41.974
-41.104
-40.134
-39.068
-37.909
-36.66
-35.329
-33.92
-32.442
-30.902
-29.31
-27.675
-26.011
-24.329
-22.645
-20.972
-19.324
-17.713
-16.153
-14.655
-13.232
-11.896
-10.656
-9.522
-8.504
-7.613
-6.861
-6.256
-5.803
-5.501
-5.344
-5.33
-5.46
-5.741
-6.181
-6.788
-7.562
-8.51
-9.64
-10.956
-12.452
-14.109
-15.88
-17.731
-19.639
-21.592
-23.603
-25.657
-27.707
-29.701
-31.564
-33.245
-34.745
-36.019
-36.988
-37.644
-38.011
-38.234
-38.623
-39.341
-40.391
-41.773
-43.411
-45.224
-47.222
-49.149
-50.458
-50.855
-50.212
-48.58
-46.317
-43.642
-40.565
-37.442
-34.902
-33.477
-33.783
-36.099
-40.311
-46.422
-54.366
-63.956
-74.881
-86.217
-96.537
-103.792
-105.089
-98.896
-84.647
-62.664
-35.104
-1.14
41.557
94.951
162.01
240.828
326.203
413.123
494.13
562.292
611.866
634.185
621.506
571.006
482.169
362.269
227.119
92.288
-24.215
-107.013
-152.359
-160.888
-140.215
-105.361
-67.403
-36.817
-20.615
-16.112
-18.676
-21.674
-19.059
-11.729
-3.411
1.572
-0.016
-7.756
-19.031
-31.165
-42.309
-51.29
-57.797
-61.972
-63.802
-63.571
-61.864
-59.119
-55.926
-53.082
-51.018
-49.939
-49.957
-50.91
-52.591
-54.861
-57.471
-60.09
-62.497
-64.557
-66.198
-67.462
-68.371
-68.916
-69.111
-68.989
-68.579
-67.91
-66.996
-65.837
-64.438
-62.829
-61.047
-59.138
-57.146
-55.1
-53.017
-50.909
-48.784
-46.644
-44.489
-42.312
-40.097
-37.832
-35.507
-33.111
-30.636
-28.069
-25.392
-22.589
-19.644
-16.545
-13.284
-9.852
-6.242
-2.449
1.528
5.688
10.03
14.548
19.24
24.101
29.123
34.3
39.619
45.07
50.639
56.312
62.07
67.897
73.77
79.668
85.569
91.447
97.279
103.037
108.695
114.226
119.602
124.797
129.783
134.534
139.022
143.223
147.113
150.668
153.867
156.691
159.122
161.144
162.745
163.913
164.639
164.917
164.743
164.116
163.036
161.508
159.536
157.129
154.297
151.054
147.415
143.397
139.02
134.305
129.275
123.954
118.369
112.545
106.512
100.296
93.928
87.437
80.853
74.206
67.524
60.838
54.174
47.562
41.026
34.592
28.283
22.122
16.129
10.322
4.721
-0.662
-5.81
-10.713
-15.361
-19.745
-23.858
-27.697
-31.259
-34.542
-37.547
-40.276
-42.733
-44.924
-46.854
-48.531
-49.963
-51.161
-52.135
-52.897
-53.458
-53.832
-54.033
-54.073
-53.966
-53.727
-53.369
-52.905
-52.349
-51.713
-51.01
-50.253
-49.451
-48.616
-47.759
-46.889
-46.015
-45.144
-44.285
-43.444
-42.627
-41.839
-41.084
-40.366
-39.689
-39.054
-38.465
-37.921
-37.424
-36.974
-36.572
-36.215
-35.904
-35.635
-35.408
-35.22
-35.068
-34.95
-34.863
-34.804
-34.771
-34.76
-34.769
-34.796
-34.837
-34.89
-34.952
-35.022
-35.096
-35.174
-35.254
-35.333
-35.412
-35.488
-35.562
-35.632
-35.7
-35.763
-35.824
-35.881
-35.935
-35.988
-36.04
-36.092
-36.146
-36.203
-36.266
-36.336
-36.415
-36.506
-36.61
-36.73
-36.868
-37.025
-37.203
-37.404
-37.63
-37.881
-38.16
-38.467
-38.804
-39.17
-39.566
-39.991
-40.447
-40.931
-41.443
-41.98
-42.542
-43.125
-43.728
-44.346
-44.977
-45.616
-46.26
-46.904
-47.543
-48.172
-48.784
-49.373
-49.935
-50.461
-50.945
-51.381
-51.763
-52.084
-52.338
-52.519
-52.622
-52.641
-52.572
-52.409
-52.15
-51.79
-51.327
-50.759
-50.085
-49.304
-48.419
-47.429
-46.339
-45.152
-43.874
-42.51
-41.069
-39.559
-37.989
-36.371
-34.715
-33.034
-31.339
-29.643
-27.957
-26.294
-24.668
-23.094
-21.585
-20.155
-18.82
-17.591
-16.481
-15.501
-14.659
-13.96
-13.411
-13.019
-12.797
-12.754
-12.898
-13.235
-13.77
-14.502
-15.426
-16.527
-17.782
-19.167
-20.656
-22.228
-23.869
-25.561
-27.281
-29.001
-30.685
-32.301
-33.818
-35.206
-36.434
-37.484
-38.367
-39.118
-39.799
-40.468
-41.159
-41.904
-42.75
-43.746
-44.942
-46.39
-48.113
-50.17
-52.694
-55.758
-59.341
-63.314
-67.37
-71.14
-74.293
-76.409
-76.974
-75.69
-72.565
-67.906
-62.433
-57.096
-52.862
-50.781
-51.956
-56.153
-61.678
-66.937
-70.45
-72.805
-75.783
-77.936
-73.983
-55.33
-14.489
49.938
132.415
222.98
313.775
400.618
481.354
553.093
608.298
636.275
627.668
578.97
492.548
377.389
248.394
119.89
7.856
-75.032
-127.201
-150.699
-153.777
-147.243
-132.903
-113.082
-90.493
-65.281
-43.836
-29.637
-20.255
-15.124
-11.154
-6.854
-5.417
-7.939
-14.521
-24.403
-34.787
-43.769
-50.595
-54.994
-57.262
-57.738
-56.782
-54.896
-52.669
-50.796
-49.757
-49.705
-50.681
-52.586
-55.207
-58.364
-61.794
-65.12
-68.112
-70.658
-72.693
-74.254
-75.375
-76.044
-76.291
-76.178
-75.737
-75.004
-74.003
-72.729
-71.205
-69.472
-67.571
-65.557
-63.467
-61.32
-59.132
-56.912
-54.664
-52.397
-50.109
-47.789
-45.432
-43.032
-40.582
-38.079
-35.514
-32.873
-30.139
-27.297
-24.333
-21.238
-18.01
-14.643
-11.133
-7.471
-3.649
0.335
4.48
8.783
13.24
17.843
22.581
27.429
32.351
37.314
42.291
47.27
52.245
57.211
62.159
67.079
71.962
76.813
81.642
86.451
91.234
95.988
100.723
105.471
110.285
115.209
120.257
125.419
130.664
135.961
141.268
146.533
151.685
156.625
161.261
165.525
169.366
172.733
175.559
177.75
179.191
179.789
179.49
178.269
176.123
173.055
169.089
164.281
158.724
152.544
145.848
138.717
131.217
123.408
115.37
107.205
99.026
90.925
82.969
75.214
67.705
60.488
53.586
46.996
40.681
34.584
28.669
22.922
17.341
11.927
6.675
1.569
-3.407
-8.25
-12.956
-17.524
-21.952
-26.242
-30.387
-34.366
-38.145
-41.685
-44.959
-47.956
-50.667
-53.091
-55.226
-57.071
-58.634
-59.93
-60.972
-61.772
-62.338
-62.679
-62.805
-62.734
-62.484
-62.075
-61.523
-60.844
-60.052
-59.162
-58.186
-57.137
-56.024
-54.853
-53.635
-52.379
-51.094
-49.792
-48.481
-47.171
-45.869
-44.586
-43.327
-42.1
-40.909
-39.759
-38.653
-37.594
-36.585
-35.626
-34.72
-33.866
-33.065
-32.316
-31.62
-30.974
-30.377
-29.828
-29.326
-28.869
-28.455
-28.083
-27.751
-27.457
-27.201
-26.979
-26.792
-26.637
-26.512
-26.415
-26.346
-26.301
-26.279
-26.278
-26.297
-26.334
-26.388
-26.459
-26.546
-26.65
-26.77
-26.908
-27.063
-27.236
-27.429
-27.643
-27.879
-28.139
-28.423
-28.733
-29.071
-29.437
-29.832
-30.257
-30.711
-31.195
-31.708
-32.249
-32.819
-33.415
-34.036
-34.681
-35.348
-36.036
-36.741
-37.461
-38.194
-38.936
-39.684
-40.432
-41.177
-41.913
-42.636
-43.339
-44.016
-44.662
-45.27
-45.833
-46.344
-46.797
-47.185
-47.5
-47.736
-47.887
-47.948
-47.913
-47.778
-47.54
-47.194
-46.739
-46.173
-45.496
-44.707
-43.808
-42.8
-41.685
-40.467
-39.15
-37.74
-36.242
-34.665
-33.02
-31.315
-29.565
-27.781
-25.977
-24.167
-22.366
-20.59
-18.851
-17.162
-15.538
-13.993
-12.543
-11.203
-9.987
-8.908
-7.977
-7.207
-6.609
-6.189
-5.949
-5.891
-6.018
-6.336
-6.86
-7.597
-8.552
-9.725
-11.115
-12.717
-14.523
-16.513
-18.653
-20.91
-23.251
-25.65
-28.089
-30.54
-32.966
-35.325
-37.561
-39.634
-41.513
-43.161
-44.554
-45.687
-46.569
-47.243
-47.775
-48.214
-48.617
-49.053
-49.576
-50.252
-51.134
-52.278
-53.797
-55.789
-58.279
-61.18
-64.296
-67.37
-70.176
-72.452
-73.79
-73.767
-72.177
-69.263
-65.567
-61.693
-58.334
-56.094
-55.733
-58.41
-63.7
-69.071
-72.387
-71.427
-66.935
-63.542
-61.51
-57.035
-42.152
-5.446
57.047
141.62
240.089
342.507
442.706
535.132
612.444
663.411
674.31
639.338
560.554
447.814
318.483
185.77
60.682
-46.287
-129.296
-182.182
-201.8
-190.379
-154.565
-105.763
-57.008
-21.256
-4.383
-4.923
-16.698
-29
-36.4
-38.823
-38.176
-39.294
-43.691
-49.748
-56.022
-60.312
-61.521
-60.22
-57.062
-52.924
-48.895
-45.56
-43.141
-41.823
-41.678
-42.65
-44.67
-47.543
-50.874
-54.363
-57.841
-61.148
-64.193
-66.916
-69.23
-71.104
-72.564
-73.621
-74.283
-74.564
-74.465
-73.999
-73.201
-72.101
-70.732
-69.136
-67.356
-65.438
-63.435
-61.38
-59.297
-57.204
-55.107
-53.009
-50.908
-48.793
-46.646
-44.455
-42.206
-39.889
-37.49
-34.995
-32.389
-29.659
-26.789
-23.77
-20.593
-17.249
-13.732
-10.038
-6.166
-2.118
2.105
6.499
11.064
15.793
20.684
25.73
30.924
36.256
41.717
47.296
52.978
58.746
64.584
70.473
76.392
82.32
88.234
94.112
99.928
105.658
111.277
116.758
122.076
127.204
132.117
136.79
141.198
145.318
149.127
152.605
155.732
158.491
160.864
162.838
164.401
165.54
166.248
166.517
166.344
165.726
164.663
163.158
161.216
158.844
156.053
152.853
149.261
145.29
140.961
136.293
131.309
126.031
120.484
114.695
108.691
102.501
96.152
89.674
83.097
76.448
69.757
63.052
56.361
49.711
43.127
36.635
30.259
24.021
17.944
12.047
6.349
0.867
-4.385
-9.392
-14.143
-18.628
-22.838
-26.768
-30.414
-33.771
-36.839
-39.62
-42.116
-44.33
-46.27
-47.941
-49.354
-50.517
-51.441
-52.138
-52.621
-52.901
-52.993
-52.91
-52.666
-52.276
-51.752
-51.111
-50.365
-49.528
-48.614
-47.637
-46.608
-45.54
-44.446
-43.334
-42.218
-41.105
-40.006
-38.928
-37.88
-36.869
-35.899
-34.977
-34.107
-33.291
-32.533
-31.835
-31.196
-30.619
-30.102
-29.646
-29.249
-28.91
-28.627
-28.398
-28.222
-28.095
-28.016
-27.981
-27.989
-28.036
-28.12
-28.238
-28.388
-28.567
-28.772
-29.001
-29.252
-29.522
-29.81
-30.112
-30.428
-30.756
-31.095
-31.444
-31.803
-32.171
-32.548
-32.935
-33.332
-33.74
-34.159
-34.59
-35.034
-35.492
-35.965
-36.453
-36.956
-37.475
-38.01
-38.56
-39.125
-39.706
-40.299
-40.905
-41.522
-42.148
-42.783
-43.425
-44.07
-44.718
-45.365
-46.01
-46.648
-47.277
-47.891
-48.487
-49.059
-49.604
-50.116
-50.59
-51.02
-51.4
-51.724
-51.989
-52.186
-52.312
-52.361
-52.327
-52.207
-51.996
-51.693
-51.294
-50.796
-50.2
-49.503
-48.707
-47.813
-46.82
-45.731
-44.549
-43.277
-41.919
-40.481
-38.967
-37.386
-35.748
-34.062
-32.34
-30.594
-28.836
-27.08
-25.339
-23.628
-21.958
-20.342
-18.79
-17.317
-15.936
-14.661
-13.505
-12.48
-11.596
-10.865
-10.298
-9.901
-9.676
-9.624
-9.749
-10.055
-10.558
-11.266
-12.183
-13.311
-14.648
-16.188
-17.92
-19.822
-21.856
-23.984
-26.17
-28.384
-30.604
-32.802
-34.941
-36.981
-38.871
-40.571
-42.058
-43.298
-44.267
-44.977
-45.45
-45.747
-45.959
-46.146
-46.369
-46.712
-47.238
-48.022
-49.133
-50.61
-52.529
-55.016
-58.13
-61.835
-65.996
-70.314
-74.475
-78.196
-81.08
-82.613
-82.443
-80.538
-77.162
-72.911
-68.502
-64.57
-61.874
-61.381
-62.963
-65.032
-65.852
-63.982
-60.407
-57.621
-55.299
-48.916
-29.086
12.374
76.267
156.642
241.248
321.121
396.269
467.83
536.455
596.231
629.985
623.592
571.02
474.768
350.911
217.471
89.301
-20.809
-107.203
-166.152
-197.001
-201.448
-180.123
-140.109
-88.712
-36.237
0.782
16.425
9.25
-15.937
-41.654
-59.188
-65.099
-58.432
-49.86
-45.012
-44.51
-49.95
-56.494
-60.671
-62.625
-61.574
-58.872
-56.218
-53.894
-52.252
-51.408
-51.298
-52.001
-53.57
-55.933
-58.828
-61.949
-65.079
-67.999
-70.58
-72.785
-74.55
-75.846
-76.7
-77.128
-77.156
-76.829
-76.163
-75.163
-73.849
-72.236
-70.357
-68.261
-65.995
-63.612
-61.15
-58.63
-56.073
-53.49
-50.886
-48.266
-45.62
-42.932
-40.192
-37.393
-34.528
-31.593
-28.578
-25.467
-22.248
-18.91
-15.445
-11.847
-8.11
-4.23
-0.204
3.967
8.279
12.729
17.31
22.02
26.855
31.807
36.869
42.034
47.29
52.63
58.04
63.508
69.019
74.557
80.106
85.648
91.165
96.638
102.046
107.37
112.587
117.677
122.618
127.388
131.965
136.327
140.453
144.323
147.916
151.215
154.2
156.855
159.165
161.118
162.7
163.902
164.715
165.134
165.154
164.772
163.988
162.803
161.221
159.246
156.886
154.15
151.049
147.595
143.804
139.689
135.271
130.565
125.594
120.378
114.939
109.3
103.485
97.52
91.429
85.238
78.972
72.656
66.316
59.976
53.662
47.395
41.198
35.093
29.101
23.239
17.527
11.98
6.613
1.441
-3.524
-8.272
-12.793
-17.079
-21.124
-24.921
-28.467
-31.76
-34.797
-37.58
-40.11
-42.388
-44.418
-46.207
-47.758
-49.079
-50.179
-51.065
-51.747
-52.236
-52.541
-52.673
-52.644
-52.465
-52.148
-51.703
-51.142
-50.475
-49.715
-48.871
-47.953
-46.972
-45.936
-44.856
-43.739
-42.594
-41.43
-40.253
-39.071
-37.892
-36.721
-35.564
-34.428
-33.318
-32.239
-31.195
-30.19
-29.227
-28.31
-27.441
-26.622
-25.856
-25.143
-24.485
-23.883
-23.338
-22.849
-22.418
-22.045
-21.731
-21.474
-21.276
-21.136
-21.054
-21.03
-21.064
-21.156
-21.304
-21.508
-21.768
-22.082
-22.45
-22.87
-23.341
-23.86
-24.427
-25.038
-25.692
-26.387
-27.121
-27.891
-28.695
-29.53
-30.394
-31.285
-32.198
-33.132
-34.083
-35.048
-36.023
-37.005
-37.99
-38.973
-39.951
-40.92
-41.875
-42.813
-43.728
-44.616
-45.472
-46.293
-47.074
-47.809
-48.495
-49.127
-49.7
-50.211
-50.656
-51.031
-51.333
-51.558
-51.702
-51.764
-51.741
-51.628
-51.425
-51.128
-50.738
-50.252
-49.672
-48.995
-48.224
-47.359
-46.402
-45.355
-44.223
-43.007
-41.711
-40.34
-38.9
-37.396
-35.834
-34.223
-32.57
-30.886
-29.182
-27.468
-25.756
-24.057
-22.383
-20.746
-19.158
-17.628
-16.166
-14.782
-13.485
-12.29
-11.207
-10.244
-9.411
-8.717
-8.168
-7.774
-7.538
-7.459
-7.538
-7.775
-8.178
-8.76
-9.528
-10.484
-11.627
-12.953
-14.455
-16.125
-17.94
-19.867
-21.872
-23.921
-25.991
-28.066
-30.12
-32.119
-34.02
-35.769
-37.333
-38.691
-39.817
-40.696
-41.329
-41.734
-41.96
-42.082
-42.164
-42.267
-42.458
-42.802
-43.374
-44.231
-45.438
-47.102
-49.275
-51.965
-55.083
-58.385
-61.614
-64.584
-67.042
-68.641
-69.093
-68.206
-66.162
-63.596
-61.103
-59.012
-57.664
-57.58
-59.336
-63.331
-68.183
-70.789
-68.714
-60.803
-49.083
-37.257
-25.095
-8.633
19.314
66.452
133.766
216.326
306.237
394.375
474.193
540.336
586.637
605.123
588.151
532.788
440.516
321.075
190.819
65.427
-38.609
-110.172
-148.115
-154.638
-137.978
-109.706
-78.019
-52.242
-38.349
-36.203
-43.412
-52.645
-57.109
-55.057
-47.827
-40.472
-37.26
-38.711
-43.322
-48.387
-52.113
-54.387
-55.664
-56.268
-56.029
-54.832
-52.894
-50.628
-48.628
-47.183
-46.274
-45.975
-46.393
-47.547
-49.401
-51.758
-54.259
-56.665
-58.847
-60.704
-62.21
-63.336
-64.041
-64.333
-64.261
-63.868
-63.2
-62.28
-61.111
-59.702
-58.076
-56.266
-54.321
-52.285
-50.198
-48.088
-45.97
-43.854
-41.745
-39.643
-37.543
-35.429
-33.281
-31.085
-28.833
-26.516
-24.126
-21.649
-19.068
-16.367
-13.534
-10.56
-7.437
-4.158
-0.717
2.889
6.659
10.59
14.678
18.92
23.312
27.847
32.519
37.321
42.24
47.267
52.389
57.592
62.86
68.176
73.52
78.873
84.216
89.526
94.781
99.96
105.038
109.993
114.802
119.44
123.885
128.114
132.104
135.834
139.284
142.433
145.265
147.762
149.91
151.696
153.108
154.138
154.778
155.022
154.867
154.312
153.357
152.005
150.261
148.131
145.624
142.752
139.526
135.962
132.074
127.88
123.399
118.65
113.655
108.435
103.014
97.415
91.661
85.779
79.792
73.724
67.601
61.446
55.283
49.134
43.022
36.967
30.99
25.109
19.342
13.707
8.219
2.891
-2.263
-7.232
-12.005
-16.575
-20.933
-25.075
-28.994
-32.688
-36.153
-39.39
-42.397
-45.176
-47.73
-50.061
-52.173
-54.073
-55.766
-57.259
-58.56
-59.675
-60.614
-61.385
-61.996
-62.456
-62.773
-62.958
-63.017
-62.961
-62.797
-62.534
-62.18
-61.743
-61.231
-60.649
-60.006
-59.307
-58.56
-57.769
-56.941
-56.082
-55.197
-54.29
-53.367
-52.432
-51.489
-50.541
-49.591
-48.642
-47.696
-46.755
-45.821
-44.897
-43.982
-43.08
-42.192
-41.318
-40.461
-39.621
-38.8
-38
-37.22
-36.463
-35.73
-35.023
-34.343
-33.693
-33.073
-32.486
-31.932
-31.414
-30.933
-30.488
-30.082
-29.714
-29.386
-29.099
-28.853
-28.649
-28.489
-28.374
-28.305
-28.282
-28.307
-28.38
-28.501
-28.671
-28.89
-29.159
-29.476
-29.842
-30.257
-30.719
-31.226
-31.777
-32.371
-33.003
-33.671
-34.372
-35.101
-35.855
-36.63
-37.423
-38.23
-39.047
-39.869
-40.693
-41.514
-42.328
-43.13
-43.914
-44.675
-45.407
-46.105
-46.764
-47.379
-47.943
-48.452
-48.901
-49.285
-49.599
-49.838
-49.997
-50.072
-50.062
-49.962
-49.771
-49.489
-49.114
-48.648
-48.092
-47.448
-46.719
-45.906
-45.014
-44.045
-43.004
-41.895
-40.724
-39.497
-38.221
-36.906
-35.562
-34.2
-32.83
-31.463
-30.111
-28.785
-27.497
-26.254
-25.065
-23.941
-22.893
-21.93
-21.064
-20.301
-19.649
-19.115
-18.704
-18.422
-18.269
-18.243
-18.342
-18.567
-18.925
-19.429
-20.084
-20.895
-21.86
-22.978
-24.248
-25.663
-27.207
-28.852
-30.567
-32.325
-34.101
-35.88
-37.631
-39.316
-40.889
-42.297
-43.497
-44.466
-45.185
-45.63
-45.797
-45.691
-45.327
-44.77
-44.086
-43.34
-42.619
-41.996
-41.538
-41.368
-41.638
-42.45
-43.839
-45.704
-47.799
-49.896
-51.801
-53.262
-53.971
-53.677
-52.299
-50.154
-47.963
-46.477
-46.311
-47.962
-51.843
-58.198
-66.937
-77.135
-86.974
-94.32
-97.062
-93.167
-80.639
-57.606
-22.355
24.751
80.727
142.305
205.712
269.271
335.173
402.973
468.99
526.559
561.981
563.461
526.121
448.7
340.603
218.492
98.077
-2.914
-72.718
-110.815
-121.438
-113.476
-95.55
-71.146
-42.516
-13.635
8.949
19.647
16.077
1.626
-15.016
-28.127
-35.413
-37.751
-39.536
-42.666
-46.802
-51.148
-53.758
-53.861
-52.06
-49.06
-45.849
-43.146
-41.097
-39.754
-39.174
-39.405
-40.474
-42.262
-44.515
-46.999
-49.567
-52.143
-54.676
-57.062
-59.195
-61.015
-62.505
-63.675
-64.537
-65.075
-65.276
-65.149
-64.71
-63.988
-63.011
-61.796
-60.367
-58.758
-57.006
-55.155
-53.242
-51.285
-49.301
-47.298
-45.277
-43.237
-41.173
-39.066
-36.904
-34.676
-32.367
-29.971
-27.477
-24.871
-22.142
-19.279
-16.272
-13.114
-9.799
-6.321
-2.68
1.127
5.097
9.224
13.506
17.936
22.509
27.218
32.055
37.01
42.073
47.233
52.476
57.789
63.155
68.556
73.975
79.393
84.788
90.139
95.425
100.622
105.708
110.66
115.454
120.067
124.476
128.66
132.595
136.262
139.641
142.712
145.459
147.866
149.919
151.605
152.915
153.838
154.37
154.505
154.241
153.578
152.516
151.061
149.215
146.988
144.389
141.429
138.12
134.479
130.521
126.264
121.729
116.936
111.907
106.665
101.234
95.638
89.902
84.051
78.111
72.107
66.064
60.008
53.961
47.949
41.994
36.117
30.339
24.681
19.159
13.791
8.592
3.577
-1.243
-5.855
-10.252
-14.423
-18.363
-22.066
-25.528
-28.748
-31.723
-34.455
-36.945
-39.197
-41.214
-43.001
-44.565
-45.913
-47.053
-47.993
-48.742
-49.311
-49.709
-49.947
-50.037
-49.989
-49.815
-49.525
-49.131
-48.644
-48.074
-47.431
-46.725
-45.966
-45.163
-44.324
-43.458
-42.572
-41.673
-40.768
-39.863
-38.963
-38.074
-37.2
-36.345
-35.513
-34.705
-33.926
-33.176
-32.459
-31.775
-31.125
-30.51
-29.931
-29.387
-28.878
-28.404
-27.964
-27.557
-27.182
-26.839
-26.525
-26.239
-25.981
-25.748
-25.54
-25.355
-25.192
-25.05
-24.929
-24.826
-24.742
-24.675
-24.626
-24.594
-24.578
-24.579
-24.596
-24.63
-24.68
-24.747
-24.831
-24.933
-25.052
-25.19
-25.348
-25.524
-25.722
-25.94
-26.18
-26.443
-26.729
-27.04
-27.376
-27.737
-28.125
-28.54
-28.982
-29.452
-29.949
-30.472
-31.022
-31.597
-32.196
-32.819
-33.462
-34.125
-34.804
-35.498
-36.204
-36.918
-37.638
-38.358
-39.076
-39.786
-40.485
-41.167
-41.828
-42.464
-43.068
-43.635
-44.161
-44.639
-45.066
-45.435
-45.742
-45.98
-46.147
-46.237
-46.246
-46.172
-46.011
-45.76
-45.418
-44.984
-44.457
-43.838
-43.127
-42.326
-41.438
-40.465
-39.412
-38.283
-37.085
-35.825
-34.513
-33.158
-31.77
-30.359
-28.938
-27.519
-26.112
-24.729
-23.378
-22.071
-20.819
-19.634
-18.528
-17.512
-16.596
-15.789
-15.1
-14.539
-14.112
-13.82
-13.663
-13.646
-13.774
-14.061
-14.515
-15.139
-15.935
-16.901
-18.032
-19.324
-20.759
-22.309
-23.944
-25.636
-27.364
-29.115
-30.864
-32.581
-34.225
-35.748
-37.114
-38.301
-39.282
-40.035
-40.559
-40.864
-40.99
-41.002
-40.947
-40.873
-40.834
-40.888
-41.101
-41.526
-42.229
-43.308
-44.833
-46.831
-49.236
-51.833
-54.371
-56.635
-58.371
-59.238
-58.931
-57.265
-54.433
-51.061
-47.831
-45.244
-43.778
-44.071
-46.796
-52.349
-59.336
-64.724
-65.994
-61.618
-53.144
-43.704
-32.531
-15.899
12.534
60.042
127.302
209.71
300.908
391.647
473.265
538.604
578.539
585.136
556.486
494.169
404.016
297.232
183.745
74.577
-16.402
-80.378
-113.889
-119.73
-109.355
-94.25
-80.203
-69.236
-58.994
-46.312
-32.157
-18.8
-8.374
-3.185
-3.653
-8.612
-16.746
-26.245
-35.164
-42.537
-48.065
-51.502
-52.748
-51.972
-49.467
-45.916
-42.372
-39.445
-37.334
-36.182
-36.014
-36.804
-38.541
-41.013
-43.801
-46.634
-49.361
-51.849
-54.072
-55.992
-57.537
-58.706
-59.538
-60.051
-60.267
-60.209
-59.869
-59.259
-58.406
-57.328
-56.062
-54.651
-53.133
-51.553
-49.944
-48.324
-46.707
-45.103
-43.512
-41.933
-40.357
-38.764
-37.141
-35.479
-33.765
-31.989
-30.136
-28.186
-26.125
-23.936
-21.607
-19.128
-16.488
-13.677
-10.69
-7.523
-4.174
-0.645
3.063
6.95
11.013
15.249
19.653
24.217
28.934
33.795
38.787
43.899
49.114
54.415
59.785
65.204
70.651
76.106
81.545
86.944
92.281
97.532
102.67
107.672
112.513
117.167
121.611
125.821
129.773
133.447
136.82
139.875
142.593
144.959
146.959
148.58
149.812
150.648
151.081
151.106
150.723
149.931
148.733
147.133
145.14
142.761
140.009
136.897
133.44
129.654
125.558
121.171
116.514
111.609
106.48
101.15
95.644
89.987
84.205
78.324
72.37
66.369
60.347
54.328
48.338
42.399
36.535
30.766
25.114
19.597
14.234
9.041
4.033
-0.776
-5.374
-9.751
-13.898
-17.807
-21.473
-24.893
-28.063
-30.983
-33.652
-36.072
-38.247
-40.179
-41.874
-43.338
-44.578
-45.603
-46.422
-47.044
-47.481
-47.743
-47.842
-47.791
-47.601
-47.286
-46.857
-46.327
-45.709
-45.014
-44.256
-43.446
-42.594
-41.713
-40.813
-39.903
-38.992
-38.09
-37.203
-36.339
-35.505
-34.706
-33.948
-33.235
-32.572
-31.961
-31.406
-30.91
-30.473
-30.096
-29.781
-29.527
-29.332
-29.197
-29.118
-29.094
-29.122
-29.2
-29.324
-29.49
-29.696
-29.936
-30.208
-30.507
-30.828
-31.169
-31.524
-31.891
-32.265
-32.644
-33.023
-33.402
-33.776
-34.144
-34.504
-34.853
-35.191
-35.515
-35.825
-36.119
-36.399
-36.662
-36.911
-37.144
-37.363
-37.57
-37.764
-37.949
-38.126
-38.296
-38.464
-38.629
-38.796
-38.967
-39.145
-39.333
-39.532
-39.745
-39.976
-40.225
-40.494
-40.786
-41.1
-41.438
-41.799
-42.186
-42.596
-43.029
-43.484
-43.96
-44.456
-44.968
-45.494
-46.031
-46.576
-47.124
-47.672
-48.214
-48.747
-49.264
-49.761
-50.23
-50.668
-51.066
-51.42
-51.723
-51.968
-52.149
-52.26
-52.297
-52.253
-52.124
-51.905
-51.593
-51.184
-50.676
-50.068
-49.358
-48.546
-47.633
-46.62
-45.509
-44.305
-43.011
-41.635
-40.182
-38.662
-37.083
-35.456
-33.79
-32.097
-30.388
-28.675
-26.968
-25.278
-23.617
-21.999
-20.439
-18.949
-17.543
-16.232
-15.028
-13.943
-12.989
-12.169
-11.488
-10.953
-10.572
-10.361
-10.331
-10.488
-10.837
-11.379
-12.11
-13.023
-14.107
-15.332
-16.674
-18.107
-19.61
-21.17
-22.772
-24.388
-25.985
-27.517
-28.943
-30.24
-31.386
-32.357
-33.15
-33.772
-34.26
-34.684
-35.098
-35.54
-36.058
-36.686
-37.48
-38.525
-39.873
-41.591
-43.779
-46.471
-49.655
-53.249
-56.991
-60.553
-63.657
-65.971
-67.13
-66.91
-65.237
-62.341
-58.853
-55.57
-53.105
-51.833
-52.311
-55.043
-59.921
-66.277
-71.997
-73.58
-69.204
-58.17
-40.603
-18.526
9.328
45.977
93.479
154.706
227.739
307.459
389.344
466.31
531.721
579.474
599.966
585.44
532.726
441.713
322.172
191.181
66.338
-32.669
-94.185
-119.426
-116.054
-98.872
-81.471
-68.322
-59.63
-52.138
-42.163
-30.569
-19.724
-11.84
-9.047
-11.442
-17.665
-26.087
-34.717
-42.069
-47.581
-51.107
-52.651
-52.267
-50.191
-46.985
-43.526
-40.582
-38.524
-37.453
-37.341
-38.192
-39.989
-42.569
-45.618
-48.814
-51.957
-54.934
-57.675
-60.112
-62.166
-63.793
-65.001
-65.814
-66.245
-66.304
-66
-65.346
-64.372
-63.111
-61.596
-59.865
-57.962
-55.931
-53.822
-51.672
-49.503
-47.334
-45.174
-43.028
-40.896
-38.771
-36.635
-34.477
-32.289
-30.058
-27.776
-25.43
-23.003
-20.483
-17.857
-15.113
-12.241
-9.234
-6.084
-2.784
0.667
4.273
8.031
11.942
16.006
20.224
24.591
29.107
33.764
38.558
43.483
48.528
53.684
58.936
64.271
69.673
75.125
80.608
86.102
91.587
97.041
102.441
107.765
112.987
118.083
123.029
127.8
132.372
136.721
140.824
144.657
148.2
151.431
154.332
156.885
159.073
160.883
162.301
163.317
163.921
164.107
163.87
163.208
162.12
160.608
158.676
156.332
153.584
150.444
146.923
143.038
138.806
134.245
129.376
124.222
118.806
113.152
107.287
101.238
95.032
88.696
82.26
75.751
69.198
62.629
56.071
49.551
43.096
36.73
30.478
24.362
18.405
12.626
7.044
1.677
-3.46
-8.352
-12.987
-17.354
-21.446
-25.254
-28.773
-32.001
-34.936
-37.577
-39.926
-41.987
-43.765
-45.267
-46.499
-47.472
-48.196
-48.681
-48.941
-48.988
-48.836
-48.5
-47.994
-47.333
-46.532
-45.606
-44.569
-43.438
-42.226
-40.947
-39.615
-38.244
-36.846
-35.433
-34.018
-32.611
-31.221
-29.858
-28.53
-27.246
-26.011
-24.831
-23.711
-22.656
-21.668
-20.749
-19.902
-19.127
-18.423
-17.79
-17.226
-16.728
-16.296
-15.924
-15.61
-15.349
-15.139
-14.974
-14.851
-14.765
-14.712
-14.687
-14.687
-14.706
-14.742
-14.79
-14.846
-14.908
-14.972
-15.036
-15.098
-15.154
-15.204
-15.246
-15.279
-15.302
-15.315
-15.318
-15.312
-15.296
-15.273
-15.244
-15.212
-15.177
-15.144
-15.113
-15.089
-15.074
-15.071
-15.082
-15.11
-15.159
-15.231
-15.328
-15.453
-15.609
-15.796
-16.016
-16.272
-16.563
-16.89
-17.254
-17.654
-18.09
-18.563
-19.07
-19.61
-20.182
-20.784
-21.414
-22.068
-22.743
-23.436
-24.142
-24.858
-25.577
-26.297
-27.012
-27.716
-28.406
-29.074
-29.717
-30.329
-30.904
-31.438
-31.924
-32.36
-32.741
-33.062
-33.322
-33.516
-33.643
-33.701
-33.689
-33.607
-33.454
-33.231
-32.939
-32.581
-32.159
-31.676
-31.138
-30.549
-29.918
-29.252
-28.561
-27.854
-27.141
-26.432
-25.739
-25.071
-24.439
-23.851
-23.316
-22.844
-22.447
-22.137
-21.923
-21.817
-21.825
-21.957
-22.221
-22.623
-23.162
-23.838
-24.652
-25.61
-26.722
-27.999
-29.443
-31.057
-32.839
-34.779
-36.867
-39.084
-41.394
-43.766
-46.167
-48.569
-50.956
-53.309
-55.597
-57.786
-59.832
-61.69
-63.336
-64.74
-65.877
-66.756
-67.397
-67.852
-68.202
-68.51
-68.831
-69.239
-69.8
-70.587
-71.673
-73.089
-74.896
-77.223
-80.14
-83.644
-87.589
-91.636
-95.455
-98.802
-101.337
-102.635
-102.386
-100.46
-97.235
-93.533
-90.025
-87.308
-86.08
-86.974
-90.53
-95.984
-100.692
-102.073
-98.687
-91.747
-84.192
-75.694
-61.396
-32.949
16.863
88.281
173.938
262.527
345.792
420.52
486.516
542.839
582.841
595.354
570.501
503.698
396.224
259.073
109.162
-36.134
-155.037
-232.814
-266.008
-256.332
-219
-172.389
-129.192
-101.933
-92.447
-95.036
-103.826
-109.248
-107.112
-99.333
-89.286
-82.689
-81.828
-85.315
-91.034
-96.099
-99.384
-101.14
-101.316
-100.122
-97.804
-94.534
-90.947
-87.758
-85.232
-83.501
-82.682
-82.755
-83.682
-85.359
-87.48
-89.668
-91.667
-93.326
-94.567
-95.384
-95.766
-95.694
-95.191
-94.308
-93.105
-91.622
-89.888
-87.913
-85.71
-83.319
-80.791
-78.184
-75.556
-72.946
-70.374
-67.854
-65.394
-62.994
-60.653
-58.357
-56.082
-53.809
-51.524
-49.213
-46.867
-44.47
-41.997
-39.428
-36.741
-33.919
-30.949
-27.818
-24.514
-21.028
-17.353
-13.486
-9.426
-5.171
-0.721
3.926
8.769
13.804
19.027
24.429
30.004
35.739
41.623
47.638
53.767
59.992
66.29
72.639
79.015
85.393
91.746
98.048
104.269
110.382
116.358
122.169
127.786
133.18
138.325
143.194
147.762
152.003
155.896
159.419
162.553
165.281
167.588
169.46
170.886
171.859
172.371
172.419
172.001
171.12
169.778
167.983
165.745
163.075
159.987
156.498
152.627
148.394
143.822
138.934
133.756
128.313
122.634
116.747
110.679
104.461
98.12
91.687
85.191
78.659
72.119
65.599
59.125
52.72
46.41
40.217
34.162
28.265
22.545
17.018
11.699
6.602
1.737
-2.884
-7.256
-11.371
-15.227
-18.82
-22.15
-25.218
-28.026
-30.579
-32.88
-34.936
-36.754
-38.342
-39.709
-40.865
-41.82
-42.584
-43.168
-43.583
-43.84
-43.95
-43.924
-43.774
-43.51
-43.143
-42.683
-42.142
-41.529
-40.853
-40.124
-39.35
-38.54
-37.699
-36.836
-35.955
-35.063
-34.164
-33.263
-32.363
-31.467
-30.579
-29.701
-28.834
-27.98
-27.141
-26.318
-25.511
-24.722
-23.951
-23.2
-22.469
-21.759
-21.071
-20.406
-19.765
-19.15
-18.56
-17.996
-17.461
-16.953
-16.474
-16.026
-15.608
-15.222
-14.869
-14.55
-14.266
-14.019
-13.809
-13.638
-13.507
-13.418
-13.372
-13.371
-13.416
-13.507
-13.648
-13.838
-14.079
-14.371
-14.714
-15.11
-15.556
-16.053
-16.599
-17.194
-17.836
-18.522
-19.251
-20.02
-20.827
-21.668
-22.541
-23.442
-24.368
-25.316
-26.281
-27.259
-28.248
-29.241
-30.236
-31.227
-32.21
-33.179
-34.129
-35.054
-35.948
-36.805
-37.618
-38.383
-39.092
-39.74
-40.32
-40.828
-41.257
-41.603
-41.86
-42.025
-42.093
-42.063
-41.931
-41.695
-41.353
-40.907
-40.354
-39.697
-38.936
-38.073
-37.11
-36.05
-34.897
-33.654
-32.328
-30.924
-29.449
-27.912
-26.325
-24.697
-23.04
-21.368
-19.694
-18.032
-16.395
-14.797
-13.25
-11.765
-10.357
-9.039
-7.825
-6.727
-5.756
-4.923
-4.236
-3.706
-3.338
-3.133
-3.094
-3.221
-3.52
-4.004
-4.681
-5.558
-6.636
-7.917
-9.396
-11.069
-12.92
-14.92
-17.039
-19.246
-21.513
-23.82
-26.141
-28.44
-30.676
-32.795
-34.75
-36.504
-38.022
-39.279
-40.265
-40.989
-41.485
-41.813
-42.033
-42.208
-42.418
-42.732
-43.224
-43.958
-45.005
-46.486
-48.513
-51.128
-54.268
-57.752
-61.34
-64.803
-67.873
-70.123
-71.144
-70.717
-68.976
-66.404
-63.575
-61.113
-59.683
-60.103
-63.395
-69.253
-75.625
-80.443
-81.347
-78.589
-75.57
-72.317
-66.202
-50.596
-14.908
45.235
128.151
227.597
332.554
434.682
527.695
604.132
657.032
677.979
659.798
601.421
505.633
381.493
244.001
108.692
-6.242
-86.97
-130.929
-142.81
-136.12
-125.942
-118.661
-115.062
-111.26
-101.924
-87.037
-69.446
-52.069
-37.616
-26.781
-19.15
-14.532
-12.664
-13.104
-15.302
-18.959
-24.031
-30.288
-37.266
-44.265
-50.41
-55.301
-58.978
-61.414
-62.597
-62.657
-61.812
-60.535
-59.48
-58.974
-59.061
-59.718
-60.789
-62.14
-63.686
-65.222
-66.482
-67.327
-67.7
-67.615
-67.168
-66.413
-65.369
-64.078
-62.584
-60.927
-59.152
-57.289
-55.361
-53.392
-51.399
-49.396
-47.4
-45.413
-43.435
-41.456
-39.458
-37.426
-35.354
-33.235
-31.066
-28.838
-26.538
-24.151
-21.666
-19.07
-16.352
-13.5
-10.501
-7.348
-4.032
-0.554
3.089
6.895
10.867
15.006
19.31
23.778
28.405
33.186
38.115
43.183
48.379
53.688
59.097
64.588
70.145
75.748
81.378
87.014
92.633
98.212
103.727
109.155
114.47
119.647
124.66
129.484
134.094
138.464
142.573
146.395
149.911
153.098
155.938
158.413
160.508
162.209
163.503
164.38
164.833
164.856
164.446
163.601
162.323
160.616
158.485
155.94
152.99
149.648
145.929
141.849
137.428
132.684
127.639
122.317
116.741
110.938
104.932
98.751
92.422
85.973
79.431
72.826
66.183
59.532
52.898
46.308
39.787
33.361
27.051
20.881
14.871
9.04
3.407
-2.013
-7.204
-12.155
-16.853
-21.289
-25.456
-29.348
-32.96
-36.291
-39.34
-42.108
-44.598
-46.813
-48.758
-50.441
-51.868
-53.048
-53.992
-54.708
-55.209
-55.507
-55.615
-55.545
-55.311
-54.927
-54.407
-53.764
-53.014
-52.169
-51.244
-50.251
-49.203
-48.113
-46.992
-45.851
-44.702
-43.554
-42.416
-41.295
-40.199
-39.135
-38.107
-37.121
-36.18
-35.288
-34.448
-33.662
-32.931
-32.257
-31.64
-31.081
-30.579
-30.133
-29.742
-29.404
-29.116
-28.877
-28.684
-28.534
-28.424
-28.352
-28.314
-28.307
-28.329
-28.375
-28.444
-28.533
-28.639
-28.76
-28.895
-29.043
-29.202
-29.372
-29.553
-29.746
-29.949
-30.164
-30.39
-30.629
-30.88
-31.145
-31.422
-31.715
-32.021
-32.343
-32.681
-33.035
-33.405
-33.792
-34.195
-34.615
-35.05
-35.502
-35.968
-36.448
-36.942
-37.447
-37.962
-38.484
-39.013
-39.544
-40.074
-40.599
-41.114
-41.616
-42.099
-42.558
-42.988
-43.384
-43.739
-44.05
-44.311
-44.517
-44.663
-44.743
-44.755
-44.694
-44.556
-44.338
-44.037
-43.652
-43.181
-42.623
-41.979
-41.248
-40.432
-39.533
-38.552
-37.495
-36.363
-35.163
-33.9
-32.583
-31.222
-29.827
-28.408
-26.977
-25.546
-24.128
-22.735
-21.378
-20.065
-18.809
-17.62
-16.512
-15.496
-14.584
-13.783
-13.104
-12.555
-12.145
-11.879
-11.756
-11.777
-11.945
-12.265
-12.753
-13.418
-14.261
-15.285
-16.486
-17.86
-19.401
-21.091
-22.9
-24.799
-26.758
-28.755
-30.777
-32.798
-34.785
-36.693
-38.469
-40.073
-41.479
-42.66
-43.597
-44.29
-44.748
-45.011
-45.137
-45.175
-45.182
-45.215
-45.334
-45.622
-46.141
-46.985
-48.299
-50.154
-52.552
-55.395
-58.402
-61.263
-63.748
-65.539
-66.228
-65.559
-63.455
-60.236
-56.713
-53.766
-52.002
-51.916
-54.203
-59.28
-67.013
-76.61
-85.426
-90.483
-90.418
-83.251
-68.579
-46.279
-12.86
31.934
88.376
156.726
231.928
311.996
393.936
471.141
538.267
586.516
606.222
591.327
539.197
450.386
331.67
196.641
61.57
-52.499
-128.251
-162.077
-159.709
-137.164
-112.977
-95.273
-85.329
-79.052
-69.822
-56.583
-41.583
-27.541
-17.758
-13.426
-13.631
-17.19
-22.811
-29.417
-36.492
-43.767
-50.687
-56.408
-60.52
-62.981
-63.908
-63.694
-62.631
-60.85
-58.747
-56.968
-55.893
-55.695
-56.412
-57.841
-59.828
-62.283
-64.956
-67.535
-69.821
-71.69
-73.105
-74.127
-74.775
-75.047
-74.981
-74.617
-73.984
-73.109
-71.997
-70.647
-69.085
-67.35
-65.492
-63.555
-61.564
-59.535
-57.477
-55.392
-53.278
-51.129
-48.925
-46.654
-44.308
-41.874
-39.35
-36.729
-34
-31.148
-28.158
-25.008
-21.685
-18.185
-14.505
-10.648
-6.621
-2.432
1.895
6.331
10.849
15.421
20.032
24.685
29.372
34.089
38.829
43.581
48.347
53.146
57.989
62.881
67.831
72.845
77.95
83.199
88.633
94.275
100.127
106.157
112.333
118.626
124.988
131.362
137.665
143.784
149.628
155.13
160.214
164.816
168.842
172.165
174.686
176.335
177.065
176.87
175.745
173.688
170.732
166.938
162.395
157.23
151.541
145.395
138.87
132.035
124.984
117.836
110.688
103.606
96.649
89.855
83.263
76.916
70.821
64.963
59.305
53.795
48.398
43.109
37.919
32.821
27.803
22.841
17.927
13.073
8.284
3.57
-1.064
-5.615
-10.069
-14.394
-18.556
-22.518
-26.253
-29.748
-32.993
-35.978
-38.698
-41.15
-43.337
-45.274
-46.968
-48.429
-49.664
-50.678
-51.482
-52.093
-52.526
-52.796
-52.918
-52.904
-52.768
-52.521
-52.175
-51.74
-51.224
-50.633
-49.975
-49.259
-48.494
-47.689
-46.851
-45.988
-45.109
-44.22
-43.328
-42.439
-41.559
-40.69
-39.837
-39.003
-38.19
-37.402
-36.638
-35.9
-35.19
-34.507
-33.853
-33.226
-32.627
-32.056
-31.511
-30.994
-30.503
-30.037
-29.596
-29.18
-28.789
-28.422
-28.079
-27.759
-27.464
-27.192
-26.945
-26.722
-26.523
-26.35
-26.201
-26.078
-25.982
-25.911
-25.869
-25.854
-25.869
-25.914
-25.99
-26.099
-26.241
-26.418
-26.629
-26.876
-27.158
-27.475
-27.829
-28.218
-28.642
-29.102
-29.595
-30.121
-30.679
-31.267
-31.883
-32.524
-33.188
-33.872
-34.572
-35.285
-36.007
-36.733
-37.46
-38.183
-38.898
-39.6
-40.284
-40.946
-41.58
-42.182
-42.747
-43.269
-43.744
-44.167
-44.534
-44.84
-45.083
-45.258
-45.361
-45.39
-45.343
-45.217
-45.01
-44.723
-44.353
-43.902
-43.371
-42.761
-42.075
-41.316
-40.489
-39.597
-38.648
-37.65
-36.609
-35.535
-34.436
-33.321
-32.202
-31.087
-29.985
-28.905
-27.855
-26.845
-25.884
-24.985
-24.155
-23.405
-22.743
-22.177
-21.717
-21.369
-21.134
-21.014
-21.01
-21.128
-21.378
-21.772
-22.311
-22.997
-23.832
-24.808
-25.919
-27.151
-28.474
-29.862
-31.288
-32.728
-34.169
-35.596
-36.981
-38.293
-39.492
-40.541
-41.419
-42.107
-42.578
-42.832
-42.885
-42.775
-42.575
-42.343
-42.119
-41.959
-41.916
-42.055
-42.458
-43.168
-44.235
-45.757
-47.779
-50.302
-53.252
-56.353
-59.278
-61.781
-63.554
-64.236
-63.6
-61.517
-58.168
-54.279
-50.618
-47.714
-46.148
-46.561
-49.397
-54.806
-61.44
-66.252
-66.365
-60.019
-48.33
-33.791
-17.014
3.993
35.696
84.583
153.083
239.531
335.842
431.647
516.384
579.52
612.445
607.705
562.664
478.857
363.724
233.021
103.358
-6.864
-82.927
-123.581
-134.372
-127.045
-116.183
-105.957
-95.13
-82.882
-65.558
-45.52
-29.039
-16.282
-8.26
-4.721
-2.241
-2.022
-5.005
-10.5
-18.796
-28.389
-37.505
-45.26
-51.024
-54.774
-56.718
-57.097
-56.264
-54.527
-52.379
-50.534
-49.368
-49.039
-49.617
-50.919
-52.785
-55.11
-57.625
-60.011
-62.087
-63.74
-64.939
-65.751
-66.197
-66.272
-66.022
-65.485
-64.692
-63.676
-62.441
-60.989
-59.342
-57.538
-55.623
-53.639
-51.606
-49.539
-47.445
-45.325
-43.183
-41.014
-38.803
-36.541
-34.223
-31.841
-29.393
-26.871
-24.263
-21.557
-18.738
-15.795
-12.719
-9.501
-6.136
-2.621
1.047
4.866
8.832
12.943
17.198
21.592
26.122
30.783
35.567
40.466
45.471
50.572
55.754
61.004
66.305
71.641
76.993
82.342
87.668
92.951
98.167
103.296
108.314
113.2
117.93
122.48
126.83
130.956
134.838
138.456
141.789
144.821
147.534
149.914
151.947
153.621
154.926
155.853
156.396
156.549
156.31
155.677
154.652
153.236
151.436
149.257
146.71
143.806
140.556
136.975
133.08
128.888
124.419
119.691
114.727
109.548
104.178
98.639
92.957
87.156
81.259
75.291
69.275
63.236
57.196
51.177
45.201
39.288
33.459
27.731
22.123
16.651
11.331
6.176
1.2
-3.586
-8.172
-12.55
-16.71
-20.649
-24.361
-27.842
-31.091
-34.108
-36.891
-39.444
-41.769
-43.869
-45.75
-47.418
-48.877
-50.137
-51.204
-52.086
-52.792
-53.331
-53.711
-53.942
-54.032
-53.992
-53.829
-53.553
-53.173
-52.698
-52.136
-51.496
-50.787
-50.015
-49.188
-48.315
-47.401
-46.453
-45.479
-44.483
-43.472
-42.451
-41.424
-40.397
-39.373
-38.357
-37.351
-36.36
-35.386
-34.431
-33.499
-32.592
-31.711
-30.859
-30.037
-29.249
-28.496
-27.779
-27.101
-26.463
-25.868
-25.316
-24.81
-24.352
-23.943
-23.584
-23.278
-23.026
-22.828
-22.687
-22.603
-22.578
-22.611
-22.704
-22.856
-23.069
-23.341
-23.673
-24.064
-24.515
-25.023
-25.589
-26.21
-26.886
-27.614
-28.393
-29.22
-30.092
-31.005
-31.958
-32.944
-33.962
-35.005
-36.07
-37.15
-38.241
-39.337
-40.432
-41.52
-42.594
-43.647
-44.673
-45.665
-46.617
-47.523
-48.376
-49.169
-49.898
-50.556
-51.138
-51.638
-52.053
-52.376
-52.604
-52.733
-52.759
-52.681
-52.495
-52.201
-51.796
-51.282
-50.657
-49.925
-49.086
-48.143
-47.1
-45.961
-44.733
-43.421
-42.032
-40.575
-39.059
-37.496
-35.897
-34.273
-32.636
-30.999
-29.375
-27.776
-26.215
-24.701
-23.245
-21.859
-20.555
-19.344
-18.237
-17.246
-16.379
-15.648
-15.063
-14.628
-14.348
-14.223
-14.255
-14.45
-14.815
-15.355
-16.071
-16.962
-18.026
-19.258
-20.647
-22.173
-23.801
-25.503
-27.25
-29.017
-30.792
-32.552
-34.271
-35.921
-37.466
-38.879
-40.146
-41.239
-42.134
-42.829
-43.343
-43.722
-44.047
-44.371
-44.722
-45.143
-45.656
-46.293
-47.1
-48.098
-49.298
-50.748
-52.526
-54.664
-57.169
-59.925
-62.628
-64.959
-66.602
-67.149
-66.183
-63.513
-59.063
-53.006
-46.174
-39.486
-33.669
-29.916
-28.649
-28.808
-29.767
-30.527
-30.434
-31.52
-34.383
-36.287
-32.833
-16.684
18.786
74.417
148.075
235.928
331.056
425.637
509.761
569.516
592.567
573.792
515.095
425.546
318.635
205.514
95.505
-1.367
-75.897
-121.509
-136.111
-124.696
-100.242
-75.396
-57.932
-52.071
-52.95
-52.635
-47.442
-34.167
-15.071
3.184
16.973
23.843
23.682
19.241
12.036
2.706
-8.115
-19.921
-31.48
-41.591
-49.719
-55.7
-59.706
-61.963
-62.65
-62.3
-61.76
-61.595
-62.095
-63.325
-65.098
-67.283
-69.804
-72.437
-74.872
-76.913
-78.455
-79.495
-80.127
-80.403
-80.342
-79.987
-79.379
-78.56
-77.564
-76.413
-75.118
-73.692
-72.156
-70.527
-68.822
-67.05
-65.214
-63.308
-61.326
-59.262
-57.113
-54.88
-52.566
-50.17
-47.687
-45.115
-42.445
-39.67
-36.785
-33.782
-30.653
-27.393
-23.999
-20.469
-16.807
-13.014
-9.09
-5.037
-0.855
3.454
7.885
12.434
17.096
21.863
26.726
31.675
36.697
41.779
46.906
52.065
57.238
62.41
67.562
72.675
77.731
82.71
87.591
92.353
96.974
101.434
105.712
109.785
113.635
117.24
120.582
123.643
126.405
128.854
130.974
132.754
134.181
135.247
135.945
136.268
136.212
135.776
134.959
133.764
132.195
130.259
127.962
125.315
122.328
119.017
115.394
111.478
107.284
102.833
98.144
93.239
88.14
82.869
77.452
71.91
66.27
60.554
54.787
48.994
43.197
37.419
31.683
26.011
20.422
14.936
9.572
4.347
-0.723
-5.624
-10.342
-14.865
-19.184
-23.288
-27.17
-30.825
-34.247
-37.432
-40.38
-43.089
-45.56
-47.794
-49.795
-51.567
-53.115
-54.445
-55.563
-56.478
-57.197
-57.729
-58.085
-58.273
-58.303
-58.186
-57.932
-57.551
-57.055
-56.452
-55.754
-54.97
-54.11
-53.184
-52.201
-51.169
-50.098
-48.996
-47.869
-46.727
-45.575
-44.419
-43.267
-42.124
-40.994
-39.883
-38.795
-37.733
-36.702
-35.704
-34.743
-33.82
-32.939
-32.101
-31.309
-30.563
-29.866
-29.217
-28.619
-28.072
-27.577
-27.133
-26.742
-26.403
-26.117
-25.883
-25.7
-25.57
-25.491
-25.462
-25.483
-25.554
-25.673
-25.839
-26.051
-26.309
-26.61
-26.954
-27.339
-27.763
-28.226
-28.724
-29.257
-29.821
-30.415
-31.036
-31.681
-32.347
-33.031
-33.731
-34.443
-35.163
-35.889
-36.618
-37.345
-38.068
-38.783
-39.487
-40.175
-40.844
-41.49
-42.11
-42.698
-43.252
-43.768
-44.242
-44.669
-45.047
-45.371
-45.638
-45.844
-45.986
-46.06
-46.064
-45.994
-45.849
-45.626
-45.325
-44.943
-44.481
-43.938
-43.314
-42.609
-41.825
-40.963
-40.024
-39.011
-37.926
-36.773
-35.557
-34.281
-32.952
-31.576
-30.161
-28.715
-27.249
-25.77
-24.289
-22.816
-21.361
-19.933
-18.543
-17.198
-15.909
-14.686
-13.541
-12.484
-11.524
-10.67
-9.929
-9.312
-8.824
-8.467
-8.243
-8.154
-8.206
-8.411
-8.779
-9.313
-10.015
-10.887
-11.922
-13.115
-14.452
-15.903
-17.442
-19.041
-20.677
-22.335
-23.998
-25.638
-27.222
-28.707
-30.055
-31.246
-32.259
-33.072
-33.683
-34.104
-34.373
-34.562
-34.729
-34.921
-35.191
-35.586
-36.17
-37.019
-38.192
-39.768
-41.846
-44.471
-47.63
-51.226
-55.013
-58.696
-61.975
-64.479
-65.8
-65.642
-63.909
-60.857
-57.076
-53.266
-50.095
-48.164
-48.102
-50.401
-55.012
-61.05
-66.982
-70.86
-70.541
-64.018
-49.117
-23.471
13.815
61.299
116.78
177.189
240.462
308
379.552
450.76
514.4
558.275
570.626
547.674
490.199
403.434
298.257
184.353
73.054
-20.686
-86.953
-120.717
-123.284
-105.252
-77.335
-48.471
-26.133
-12.059
-7.286
-10.921
-18.186
-26.281
-32.317
-35.038
-37.019
-39.233
-41.834
-44.692
-46.11
-45.513
-43.453
-40.429
-37.211
-34.431
-32.355
-31.14
-30.885
-31.523
-32.868
-34.784
-37.149
-39.829
-42.726
-45.733
-48.729
-51.621
-54.318
-56.737
-58.818
-60.518
-61.809
-62.685
-63.148
-63.213
-62.916
-62.289
-61.363
-60.167
-58.725
-57.067
-55.238
-53.28
-51.243
-49.163
-47.062
-44.956
-42.857
-40.765
-38.681
-36.593
-34.483
-32.335
-30.141
-27.89
-25.577
-23.191
-20.72
-18.151
-15.472
-12.673
-9.746
-6.683
-3.476
-0.121
3.385
7.042
10.848
14.802
18.903
23.149
27.538
32.065
36.724
41.51
46.413
51.425
56.533
61.723
66.98
72.287
77.628
82.984
88.335
93.66
98.938
104.147
109.264
114.267
119.132
123.835
128.352
132.661
136.738
140.56
144.107
147.356
150.289
152.887
155.134
157.014
158.512
159.619
160.323
160.616
160.494
159.952
158.99
157.607
155.809
153.6
150.989
147.985
144.602
140.853
136.755
132.324
127.582
122.548
117.246
111.698
105.93
99.968
93.838
87.568
81.185
74.717
68.193
61.64
55.085
48.556
42.079
35.678
29.379
23.205
17.177
11.317
5.643
0.173
-5.078
-10.096
-14.868
-19.385
-23.637
-27.619
-31.326
-34.754
-37.901
-40.769
-43.359
-45.673
-47.717
-49.498
-51.022
-52.298
-53.338
-54.15
-54.748
-55.143
-55.35
-55.381
-55.25
-54.972
-54.561
-54.03
-53.395
-52.668
-51.864
-50.994
-50.073
-49.11
-48.118
-47.107
-46.085
-45.062
-44.046
-43.042
-42.058
-41.098
-40.169
-39.272
-38.413
-37.592
-36.812
-36.075
-35.379
-34.726
-34.115
-33.543
-33.011
-32.515
-32.055
-31.627
-31.228
-30.858
-30.512
-30.189
-29.885
-29.599
-29.328
-29.071
-28.825
-28.59
-28.365
-28.148
-27.941
-27.744
-27.557
-27.381
-27.217
-27.067
-26.932
-26.815
-26.717
-26.64
-26.587
-26.56
-26.562
-26.594
-26.661
-26.763
-26.904
-27.084
-27.306
-27.572
-27.882
-28.236
-28.637
-29.083
-29.574
-30.111
-30.691
-31.314
-31.978
-32.68
-33.416
-34.184
-34.979
-35.796
-36.631
-37.478
-38.33
-39.184
-40.031
-40.866
-41.682
-42.472
-43.229
-43.946
-44.616
-45.233
-45.789
-46.277
-46.692
-47.029
-47.282
-47.446
-47.517
-47.492
-47.368
-47.143
-46.815
-46.383
-45.846
-45.207
-44.466
-43.625
-42.689
-41.661
-40.549
-39.36
-38.103
-36.786
-35.42
-34.015
-32.583
-31.135
-29.68
-28.23
-26.796
-25.388
-24.021
-22.707
-21.458
-20.285
-19.2
-18.211
-17.33
-16.564
-15.916
-15.389
-14.988
-14.721
-14.602
-14.645
-14.856
-15.24
-15.801
-16.535
-17.441
-18.507
-19.711
-21.029
-22.437
-23.914
-25.448
-27.024
-28.615
-30.184
-31.685
-33.07
-34.311
-35.385
-36.268
-36.951
-37.44
-37.757
-37.953
-38.085
-38.202
-38.357
-38.602
-39
-39.623
-40.567
-41.961
-43.901
-46.416
-49.44
-52.773
-56.154
-59.317
-61.92
-63.546
-63.898
-62.849
-60.572
-57.7
-55.018
-53.286
-53.321
-55.818
-61.165
-69.437
-79.983
-91.133
-100.786
-106.611
-105.951
-96.362
-75.701
-41.91
5.181
63.121
128.786
198.075
267.964
339.664
413.311
485.91
551.85
597.607
608.739
577.911
502.299
390.434
260.877
131.305
20.721
-57.215
-101.503
-115.745
-108.697
-91.357
-68.614
-44.825
-25.254
-12.873
-11.167
-19.909
-32.702
-44.134
-50.817
-52.188
-52.27
-53.675
-56.312
-59.436
-61.096
-60.397
-58.057
-54.806
-51.312
-48.116
-45.493
-43.589
-42.533
-42.301
-42.716
-43.661
-45.055
-46.795
-48.793
-50.963
-53.202
-55.436
-57.597
-59.583
-61.313
-62.733
-63.804
-64.523
-64.891
-64.909
-64.6
-63.997
-63.133
-62.04
-60.746
-59.271
-57.648
-55.916
-54.116
-52.294
-50.482
-48.695
-46.947
-45.239
-43.566
-41.922
-40.289
-38.644
-36.968
-35.244
-33.46
-31.602
-29.656
-27.603
-25.428
-23.114
-20.646
-18.014
-15.206
-12.212
-9.027
-5.647
-2.071
1.7
5.663
9.817
14.159
18.682
23.382
28.248
33.272
38.442
43.744
49.162
54.678
60.272
65.924
71.61
77.307
82.99
88.634
94.214
99.701
105.07
110.294
115.345
120.197
124.822
129.197
133.296
137.096
140.573
143.709
146.485
148.882
150.888
152.489
153.675
154.438
154.771
154.671
154.137
153.17
151.775
149.956
147.723
145.087
142.061
138.661
134.903
130.808
126.394
121.686
116.705
111.477
106.027
100.382
94.569
88.615
82.549
76.398
70.191
63.954
57.714
51.498
45.331
39.236
33.237
27.356
21.612
16.025
10.613
5.39
0.371
-4.432
-9.008
-13.349
-17.447
-21.297
-24.896
-28.242
-31.334
-34.174
-36.762
-39.103
-41.202
-43.065
-44.698
-46.111
-47.311
-48.309
-49.115
-49.74
-50.195
-50.493
-50.644
-50.66
-50.554
-50.337
-50.02
-49.614
-49.132
-48.583
-47.977
-47.324
-46.634
-45.914
-45.172
-44.415
-43.649
-42.881
-42.115
-41.356
-40.608
-39.875
-39.16
-38.466
-37.795
-37.149
-36.529
-35.937
-35.372
-34.835
-34.326
-33.845
-33.392
-32.966
-32.567
-32.194
-31.847
-31.525
-31.228
-30.953
-30.702
-30.472
-30.263
-30.075
-29.908
-29.76
-29.633
-29.527
-29.441
-29.377
-29.334
-29.314
-29.315
-29.339
-29.386
-29.456
-29.549
-29.666
-29.807
-29.971
-30.16
-30.373
-30.611
-30.872
-31.156
-31.463
-31.791
-32.139
-32.505
-32.889
-33.289
-33.703
-34.13
-34.568
-35.016
-35.469
-35.927
-36.386
-36.842
-37.292
-37.733
-38.161
-38.571
-38.96
-39.325
-39.662
-39.967
-40.236
-40.466
-40.652
-40.792
-40.88
-40.913
-40.888
-40.801
-40.651
-40.434
-40.149
-39.795
-39.369
-38.873
-38.304
-37.665
-36.954
-36.172
-35.321
-34.404
-33.423
-32.382
-31.286
-30.141
-28.954
-27.733
-26.487
-25.226
-23.958
-22.694
-21.443
-20.217
-19.023
-17.87
-16.769
-15.727
-14.758
-13.872
-13.08
-12.392
-11.818
-11.365
-11.043
-10.858
-10.811
-10.904
-11.137
-11.518
-12.057
-12.767
-13.65
-14.71
-15.947
-17.353
-18.922
-20.637
-22.465
-24.376
-26.34
-28.329
-30.33
-32.324
-34.282
-36.17
-37.947
-39.571
-41.018
-42.268
-43.292
-44.087
-44.67
-45.081
-45.394
-45.671
-45.958
-46.314
-46.798
-47.485
-48.457
-49.758
-51.449
-53.641
-56.379
-59.67
-63.405
-67.256
-70.891
-74.049
-76.374
-77.472
-77.083
-75.052
-71.652
-67.738
-64.104
-61.28
-59.962
-60.847
-64.254
-70.315
-77.482
-82.192
-82.411
-77.033
-65.879
-51.221
-30.668
1.024
46.314
108.771
185.348
267.428
351.664
432.823
505.407
566.227
604.656
609.527
577.036
506.416
403.728
282.719
155.596
34.989
-64.434
-134.167
-170.81
-174.693
-154.155
-120.355
-82.564
-51.096
-32.269
-25.829
-29.272
-35.942
-39.739
-39.991
-38.285
-38.203
-42.167
-49.181
-57.133
-63.783
-67.913
-69.427
-68.72
-66.42
-63.163
-59.761
-56.888
-54.853
-53.808
-53.821
-54.847
-56.831
-59.603
-62.79
-66.091
-69.327
-72.352
-75.09
-77.483
-79.454
-80.973
-82.071
-82.763
-83.065
-82.994
-82.554
-81.761
-80.649
-79.246
-77.587
-75.71
-73.655
-71.468
-69.196
-66.873
-64.523
-62.163
-59.805
-57.455
-55.115
-52.778
-50.432
-48.068
-45.673
-43.238
-40.751
-38.196
-35.558
-32.825
-29.983
-27.023
-23.938
-20.721
-17.368
-13.872
-10.228
-6.428
-2.468
1.653
5.93
10.355
14.913
19.583
24.341
29.159
34.017
38.9
43.799
48.718
53.656
58.619
63.6
68.581
73.545
78.478
83.367
88.207
93.004
97.772
102.534
107.32
112.143
117
121.863
126.681
131.388
135.906
140.172
144.138
147.762
151.009
153.84
156.22
158.098
159.419
160.115
160.106
159.335
157.765
155.396
152.262
148.425
143.971
138.978
133.509
127.624
121.371
114.797
107.95
100.883
93.653
86.332
79.013
71.774
64.681
57.776
51.074
44.57
38.238
32.056
26.01
20.093
14.312
8.674
3.194
-2.115
-7.236
-12.165
-16.909
-21.477
-25.875
-30.1
-34.14
-37.975
-41.576
-44.92
-47.985
-50.756
-53.228
-55.399
-57.275
-58.865
-60.188
-61.254
-62.076
-62.663
-63.024
-63.171
-63.119
-62.885
-62.487
-61.944
-61.275
-60.498
-59.632
-58.691
-57.689
-56.638
-55.548
-54.427
-53.286
-52.133
-50.98
-49.833
-48.703
-47.597
-46.522
-45.485
-44.491
-43.544
-42.647
-41.8
-41.006
-40.264
-39.574
-38.934
-38.342
-37.797
-37.295
-36.834
-36.41
-36.019
-35.66
-35.326
-35.016
-34.725
-34.45
-34.189
-33.937
-33.694
-33.456
-33.223
-32.992
-32.763
-32.536
-32.308
-32.081
-31.853
-31.625
-31.398
-31.171
-30.946
-30.726
-30.511
-30.303
-30.106
-29.923
-29.755
-29.606
-29.478
-29.376
-29.301
-29.257
-29.246
-29.271
-29.334
-29.436
-29.58
-29.766
-29.995
-30.267
-30.581
-30.938
-31.336
-31.773
-32.247
-32.756
-33.298
-33.868
-34.463
-35.08
-35.711
-36.354
-37.002
-37.651
-38.293
-38.923
-39.534
-40.12
-40.674
-41.19
-41.659
-42.076
-42.433
-42.723
-42.941
-43.08
-43.135
-43.101
-42.973
-42.749
-42.424
-41.998
-41.468
-40.832
-40.092
-39.246
-38.298
-37.249
-36.102
-34.861
-33.534
-32.128
-30.652
-29.116
-27.531
-25.907
-24.257
-22.592
-20.923
-19.261
-17.615
-15.997
-14.42
-12.898
-11.442
-10.066
-8.78
-7.595
-6.523
-5.573
-4.751
-4.06
-3.501
-3.083
-2.816
-2.721
-2.809
-3.086
-3.555
-4.219
-5.075
-6.118
-7.33
-8.677
-10.125
-11.646
-13.217
-14.823
-16.439
-18.026
-19.537
-20.92
-22.133
-23.156
-23.967
-24.544
-24.887
-25.006
-24.933
-24.749
-24.529
-24.34
-24.266
-24.37
-24.713
-25.41
-26.597
-28.371
-30.762
-33.674
-36.877
-40.142
-43.249
-45.906
-47.76
-48.491
-47.934
-46.325
-44.303
-42.583
-41.816
-42.553
-45.234
-50.168
-57.381
-66.063
-74.522
-80.69
-82.378
-77.512
-64.188
-40.612
-5.115
42.133
98.562
161.125
226.159
291.612
358.817
427.247
492.883
549.259
584.963
589.159
558.643
493.502
398.969
288.141
172.313
65.072
-17.578
-70.728
-94.552
-95.225
-87.088
-77.35
-68.295
-60.19
-48.711
-33.568
-17.903
-4.154
4.516
6.581
2.986
-4.891
-15.21
-25.798
-35.189
-42.667
-47.739
-50.123
-49.989
-47.731
-44.053
-40.063
-36.57
-33.931
-32.38
-32.014
-32.791
-34.651
-37.372
-40.54
-43.85
-47.138
-50.275
-53.179
-55.786
-58.014
-59.833
-61.273
-62.352
-63.068
-63.426
-63.426
-63.079
-62.419
-61.474
-60.271
-58.843
-57.225
-55.457
-53.585
-51.644
-49.654
-47.634
-45.593
-43.536
-41.466
-39.379
-37.259
-35.093
-32.871
-30.576
-28.198
-25.725
-23.141
-20.434
-17.593
-14.608
-11.473
-8.185
-4.738
-1.13
2.647
6.602
10.735
15.04
19.506
24.115
28.85
33.699
38.64
43.645
48.697
53.779
58.889
64.041
69.232
74.452
79.68
84.879
90.027
95.117
100.144
105.107
110.005
114.831
119.595
124.329
129.033
133.688
138.245
142.615
146.738
150.573
154.088
157.271
160.095
162.517
164.503
166.028
167.057
167.562
167.489
166.757
165.329
163.204
160.421
157.068
153.21
148.884
144.135
138.995
133.505
127.719
121.674
115.392
108.913
102.283
95.568
88.869
82.246
75.731
69.33
63.015
56.774
50.616
44.541
38.55
32.648
26.837
21.135
15.575
10.178
4.952
-0.105
-5.015
-9.783
-14.397
-18.843
-23.092
-27.123
-30.926
-34.486
-37.786
-40.819
-43.58
-46.073
-48.316
-50.32
-52.093
-53.64
-54.963
-56.069
-56.969
-57.676
-58.2
-58.556
-58.757
-58.817
-58.753
-58.579
-58.308
-57.951
-57.514
-57.006
-56.438
-55.818
-55.155
-54.457
-53.733
-52.99
-52.237
-51.481
-50.729
-49.986
-49.256
-48.542
-47.848
-47.175
-46.526
-45.9
-45.299
-44.723
-44.173
-43.646
-43.144
-42.664
-42.206
-41.768
-41.348
-40.946
-40.559
-40.186
-39.826
-39.478
-39.141
-38.814
-38.496
-38.187
-37.887
-37.595
-37.31
-37.033
-36.764
-36.502
-36.249
-36.005
-35.772
-35.552
-35.347
-35.158
-34.988
-34.84
-34.715
-34.618
-34.55
-34.513
-34.511
-34.547
-34.621
-34.737
-34.897
-35.101
-35.351
-35.647
-35.99
-36.38
-36.815
-37.295
-37.819
-38.386
-38.992
-39.637
-40.317
-41.03
-41.771
-42.537
-43.323
-44.124
-44.935
-45.75
-46.561
-47.364
-48.151
-48.916
-49.651
-50.349
-51.002
-51.603
-52.145
-52.62
-53.02
-53.339
-53.571
-53.709
-53.748
-53.684
-53.512
-53.228
-52.831
-52.318
-51.688
-50.941
-50.076
-49.094
-47.999
-46.791
-45.477
-44.061
-42.55
-40.951
-39.275
-37.532
-35.734
-33.892
-32.02
-30.131
-28.236
-26.349
-24.485
-22.657
-20.878
-19.166
-17.536
-16.002
-14.581
-13.286
-12.128
-11.118
-10.264
-9.57
-9.042
-8.686
-8.51
-8.529
-8.75
-9.176
-9.809
-10.648
-11.689
-12.921
-14.326
-15.874
-17.54
-19.3
-21.138
-23.042
-24.997
-26.969
-28.92
-30.805
-32.594
-34.276
-35.84
-37.257
-38.505
-39.586
-40.536
-41.425
-42.322
-43.244
-44.161
-45.128
-46.281
-47.769
-49.76
-52.319
-55.373
-58.924
-63.032
-67.488
-71.851
-75.561
-77.9
-78.456
-77.209
-74.057
-68.996
-62.607
-55.768
-49.637
-45.821
-45.202
-47.989
-54.648
-64.197
-74.688
-85.085
-92.858
-96.692
-96.208
-86.669
-64.287
-25.059
33.679
105.446
183.186
260.071
330.973
400.328
470.546
539.17
600.419
637.213
633.784
583.33
483.794
348.127
198.445
54.296
-62.895
-139.634
-175.963
-175.328
-148.394
-110.482
-71.297
-40.409
-23.738
-18.669
-21.369
-25.341
-24.628
-19.588
-13.027
-9.17
-11.259
-18.79
-29.419
-40.375
-49.633
-56.493
-61.008
-63.441
-63.97
-62.911
-60.763
-58.104
-55.648
-53.909
-53.08
-53.251
-54.376
-56.295
-58.837
-61.757
-64.71
-67.44
-69.811
-71.745
-73.253
-74.359
-75.053
-75.349
-75.289
-74.907
-74.235
-73.295
-72.088
-70.625
-68.938
-67.07
-65.071
-62.995
-60.874
-58.729
-56.576
-54.425
-52.282
-50.149
-48.019
-45.879
-43.718
-41.529
-39.303
-37.034
-34.711
-32.317
-29.835
-27.249
-24.547
-21.719
-18.754
-15.644
-12.382
-8.962
-5.382
-1.642
2.259
6.323
10.55
14.938
19.486
24.187
29.036
34.026
39.147
44.387
49.732
55.168
60.676
66.238
71.836
77.448
83.051
88.624
94.143
99.584
104.922
110.133
115.19
120.069
124.744
129.191
133.385
137.303
140.923
144.224
147.186
149.79
152.022
153.864
155.305
156.334
156.942
157.121
156.868
156.181
155.059
153.507
151.529
149.134
146.331
143.134
139.556
135.615
131.327
126.713
121.793
116.59
111.127
105.429
99.521
93.431
87.185
80.811
74.336
67.789
61.196
54.585
47.982
41.415
34.908
28.485
22.171
15.988
9.957
4.098
-1.571
-7.033
-12.273
-17.278
-22.036
-26.539
-30.779
-34.749
-38.446
-41.865
-45.006
-47.869
-50.455
-52.767
-54.809
-56.587
-58.106
-59.376
-60.404
-61.201
-61.776
-62.141
-62.307
-62.288
-62.094
-61.739
-61.237
-60.6
-59.843
-58.978
-58.02
-56.98
-55.873
-54.709
-53.501
-52.259
-50.994
-49.715
-48.433
-47.154
-45.887
-44.639
-43.417
-42.226
-41.073
-39.961
-38.895
-37.879
-36.914
-36.004
-35.149
-34.351
-33.61
-32.927
-32.301
-31.731
-31.217
-30.756
-30.347
-29.987
-29.674
-29.406
-29.18
-28.992
-28.841
-28.723
-28.637
-28.578
-28.547
-28.54
-28.556
-28.592
-28.649
-28.723
-28.813
-28.92
-29.041
-29.177
-29.327
-29.49
-29.667
-29.858
-30.064
-30.284
-30.519
-30.771
-31.04
-31.327
-31.633
-31.958
-32.305
-32.673
-33.063
-33.476
-33.912
-34.371
-34.853
-35.358
-35.883
-36.428
-36.992
-37.572
-38.165
-38.77
-39.383
-40
-40.619
-41.233
-41.839
-42.432
-43.007
-43.559
-44.082
-44.569
-45.016
-45.416
-45.764
-46.052
-46.274
-46.425
-46.498
-46.488
-46.39
-46.199
-45.912
-45.524
-45.034
-44.438
-43.736
-42.927
-42.012
-40.99
-39.864
-38.637
-37.312
-35.895
-34.393
-32.811
-31.162
-29.453
-27.695
-25.901
-24.082
-22.253
-20.43
-18.626
-16.855
-15.13
-13.464
-11.872
-10.37
-8.97
-7.68
-6.511
-5.473
-4.578
-3.839
-3.262
-2.846
-2.59
-2.492
-2.558
-2.799
-3.223
-3.829
-4.619
-5.591
-6.747
-8.091
-9.613
-11.288
-13.082
-14.955
-16.882
-18.849
-20.847
-22.87
-24.886
-26.841
-28.681
-30.357
-31.839
-33.117
-34.163
-34.925
-35.418
-35.725
-36.021
-36.583
-37.564
-38.957
-40.741
-42.883
-45.353
-48.123
-50.896
-53.049
-54.146
-54.02
-52.706
-50.441
-47.313
-43.3
-38.805
-34.785
-32.227
-31.952
-34.426
-39.567
-47.385
-58.102
-71.294
-85.582
-99.245
-109.37
-112.99
-108.993
-95.522
-72.064
-39.765
2.694
54.964
116.745
189.799
272.056
360.659
450.789
532.029
594.476
628.106
624.487
582.901
505.916
400.966
281.763
161.553
56.027
-21.293
-67.25
-84.685
-84.166
-79.404
-76.505
-76.585
-76.69
-71.755
-61.475
-48.299
-34.808
-23.866
-16.415
-12.252
-11.357
-13.149
-16.867
-21.929
-27.807
-34.198
-40.829
-47.054
-52.202
-55.959
-58.278
-59.351
-59.449
-58.733
-57.478
-56.226
-55.435
-55.361
-56.114
-57.587
-59.62
-62.095
-64.786
-67.392
-69.704
-71.598
-73.024
-74.025
-74.632
-74.851
-74.729
-74.319
-73.656
-72.77
-71.668
-70.355
-68.858
-67.219
-65.488
-63.708
-61.898
-60.07
-58.229
-56.373
-54.5
-52.599
-50.651
-48.644
-46.567
-44.413
-42.182
-39.863
-37.441
-34.898
-32.207
-29.348
-26.311
-23.091
-19.689
-16.116
-12.381
-8.498
-4.488
-0.366
3.862
8.199
12.659
17.261
22.009
26.897
31.91
37.025
42.24
47.553
52.962
58.481
64.117
69.884
75.811
81.913
88.173
94.557
100.994
107.396
113.699
119.852
125.812
131.549
137.011
142.148
146.919
151.266
155.131
158.452
161.134
163.105
164.337
164.83
164.627
163.803
162.405
160.474
158.048
155.153
151.825
148.102
144.007
139.57
134.833
129.852
124.71
119.483
114.209
108.909
103.574
98.173
92.694
87.133
81.481
75.746
69.934
64.057
58.144
52.225
46.318
40.433
34.566
28.712
22.882
17.097
11.386
5.788
0.336
-4.944
-10.021
-14.871
-19.478
-23.829
-27.921
-31.759
-35.342
-38.667
-41.73
-44.524
-47.048
-49.307
-51.305
-53.048
-54.546
-55.807
-56.845
-57.671
-58.298
-58.735
-58.993
-59.079
-59.003
-58.776
-58.409
-57.913
-57.3
-56.582
-55.771
-54.882
-53.925
-52.912
-51.853
-50.759
-49.638
-48.501
-47.355
-46.209
-45.069
-43.944
-42.84
-41.763
-40.718
-39.711
-38.745
-37.823
-36.949
-36.125
-35.353
-34.632
-33.965
-33.35
-32.789
-32.278
-31.819
-31.409
-31.047
-30.73
-30.457
-30.226
-30.034
-29.878
-29.756
-29.665
-29.605
-29.572
-29.564
-29.581
-29.62
-29.679
-29.757
-29.854
-29.968
-30.098
-30.244
-30.404
-30.579
-30.769
-30.974
-31.194
-31.429
-31.68
-31.949
-32.236
-32.541
-32.867
-33.214
-33.583
-33.976
-34.393
-34.834
-35.301
-35.793
-36.31
-36.851
-37.417
-38.005
-38.615
-39.244
-39.891
-40.553
-41.228
-41.912
-42.602
-43.293
-43.982
-44.663
-45.333
-45.987
-46.618
-47.223
-47.795
-48.329
-48.819
-49.26
-49.645
-49.969
-50.225
-50.409
-50.516
-50.541
-50.478
-50.325
-50.078
-49.735
-49.295
-48.756
-48.118
-47.379
-46.543
-45.611
-44.584
-43.468
-42.266
-40.987
-39.639
-38.23
-36.77
-35.27
-33.741
-32.194
-30.64
-29.09
-27.553
-26.04
-24.563
-23.134
-21.768
-20.475
-19.268
-18.157
-17.154
-16.27
-15.514
-14.888
-14.395
-14.04
-13.834
-13.792
-13.929
-14.25
-14.761
-15.463
-16.354
-17.43
-18.678
-20.067
-21.567
-23.148
-24.782
-26.455
-28.145
-29.82
-31.434
-32.937
-34.284
-35.448
-36.409
-37.146
-37.652
-37.939
-38.04
-38.019
-37.95
-37.903
-37.947
-38.16
-38.622
-39.411
-40.641
-42.449
-44.919
-48.065
-51.781
-55.826
-59.94
-63.87
-67.277
-69.763
-70.995
-70.801
-69.401
-67.424
-65.561
-64.452
-64.659
-66.663
-70.834
-77.238
-85.092
-92.709
-98.04
-98.934
-93.241
-78.882
-53.832
-16.158
33.848
93.189
158.583
226.125
294.234
365.819
440.965
515.856
582.541
624.551
627.692
586.2
500.563
383.494
253.134
125.186
14.776
-69.566
-126.194
-156.717
-166.629
-160.637
-141.645
-112.389
-76.332
-40.479
-12.45
3.033
5.9
1.59
-3.929
-7.691
-10.208
-14.727
-23.178
-34.792
-47.246
-57.668
-64.642
-68.225
-68.893
-67.438
-64.566
-60.965
-57.538
-54.968
-53.56
-53.379
-54.305
-56.147
-58.706
-61.697
-64.742
-67.538
-69.93
-71.862
-73.354
-74.438
-75.117
-75.399
-75.324
-74.928
-74.232
-73.253
-71.994
-70.461
-68.686
-66.712
-64.586
-62.363
-60.077
-57.749
-55.397
-53.032
-50.661
-48.29
-45.917
-43.531
-41.123
-38.686
-36.213
-33.698
-31.13
-28.494
-25.771
-22.947
-20.008
-16.946
-13.752
-10.416
-6.933
-3.298
0.491
4.434
8.531
12.782
17.188
21.748
26.457
31.31
36.301
41.424
46.668
52.023
57.475
63.009
68.609
74.257
79.935
85.623
91.297
96.937
102.518
108.016
113.407
118.665
123.764
128.679
133.384
137.855
142.067
145.997
149.623
152.923
155.878
158.47
160.682
162.501
163.913
164.907
165.475
165.61
165.307
164.565
163.382
161.763
159.712
157.237
154.347
151.054
147.374
143.321
138.914
134.174
129.122
123.781
118.176
112.333
106.279
100.042
93.65
87.132
80.517
73.834
67.111
60.378
53.66
46.986
40.38
33.87
27.477
21.225
15.136
9.23
3.525
-1.961
-7.215
-12.222
-16.97
-21.451
-25.656
-29.579
-33.216
-36.564
-39.624
-42.395
-44.881
-47.085
-49.015
-50.677
-52.079
-53.231
-54.145
-54.831
-55.302
-55.57
-55.649
-55.552
-55.293
-54.886
-54.345
-53.685
-52.918
-52.06
-51.123
-50.121
-49.066
-47.971
-46.847
-45.706
-44.556
-43.408
-42.271
-41.152
-40.058
-38.996
-37.972
-36.989
-36.053
-35.166
-34.33
-33.547
-32.818
-32.144
-31.525
-30.96
-30.448
-29.988
-29.58
-29.221
-28.909
-28.644
-28.422
-28.242
-28.101
-27.997
-27.927
-27.89
-27.883
-27.904
-27.951
-28.021
-28.113
-28.227
-28.359
-28.51
-28.679
-28.864
-29.065
-29.282
-29.516
-29.765
-30.03
-30.311
-30.61
-30.925
-31.258
-31.609
-31.978
-32.365
-32.769
-33.19
-33.628
-34.081
-34.548
-35.028
-35.519
-36.02
-36.528
-37.042
-37.56
-38.078
-38.595
-39.106
-39.61
-40.101
-40.577
-41.032
-41.463
-41.865
-42.234
-42.565
-42.854
-43.095
-43.284
-43.418
-43.489
-43.496
-43.432
-43.294
-43.079
-42.784
-42.406
-41.944
-41.396
-40.762
-40.042
-39.237
-38.349
-37.379
-36.329
-35.204
-34.007
-32.742
-31.416
-30.034
-28.604
-27.136
-25.64
-24.127
-22.607
-21.092
-19.595
-18.126
-16.699
-15.322
-14.005
-12.758
-11.593
-10.524
-9.561
-8.715
-7.995
-7.41
-6.967
-6.676
-6.539
-6.553
-6.719
-7.038
-7.515
-8.164
-8.991
-9.996
-11.178
-12.534
-14.055
-15.732
-17.542
-19.454
-21.436
-23.459
-25.503
-27.554
-29.59
-31.579
-33.484
-35.254
-36.857
-38.268
-39.459
-40.416
-41.139
-41.641
-41.957
-42.145
-42.246
-42.311
-42.393
-42.542
-42.827
-43.304
-44.054
-45.196
-46.79
-48.823
-51.185
-53.615
-55.813
-57.529
-58.44
-58.169
-56.496
-53.394
-49.205
-44.696
-40.683
-37.859
-36.844
-38.2
-42.236
-48.784
-56.837
-64.533
-69.668
-70.147
-63.919
-48.821
-22.98
15.008
64.382
121.729
183.402
245.569
306.734
369.003
431.611
490.83
539.674
564.37
554.396
505.902
418.873
304.772
180.455
61.26
-35.746
-101.211
-135.709
-143.057
-131.632
-109.395
-80.246
-49.098
-21.991
-3.984
1.488
-4.086
-14.304
-23.475
-28.777
-30.726
-32.806
-37.015
-42.972
-49.394
-54.23
-56.367
-56.099
-54.004
-50.893
-47.695
-44.938
-42.877
-41.73
-41.569
-42.352
-44.033
-46.447
-49.266
-52.239
-55.213
-58.045
-60.652
-62.976
-64.94
-66.512
-67.716
-68.56
-69.047
-69.185
-68.976
-68.433
-67.586
-66.462
-65.086
-63.492
-61.717
-59.802
-57.794
-55.729
-53.629
-51.51
-49.385
-47.257
-45.131
-42.998
-40.846
-38.663
-36.44
-34.166
-31.833
-29.43
-26.944
-24.364
-21.678
-18.878
-15.955
-12.904
-9.718
-6.393
-2.926
0.683
4.432
8.321
12.348
16.513
20.811
25.239
29.792
34.464
39.248
44.135
49.115
54.176
59.304
64.485
69.703
74.942
80.182
85.405
90.59
95.716
100.763
105.708
110.528
115.202
119.708
124.022
128.123
131.991
135.602
138.938
141.979
144.707
147.105
149.158
150.85
152.169
153.105
153.649
153.793
153.533
152.863
151.784
150.296
148.402
146.107
143.418
140.344
136.898
133.091
128.94
124.462
119.675
114.598
109.255
103.667
97.859
91.855
85.68
79.361
72.925
66.398
59.809
53.184
46.55
39.933
33.361
26.858
20.449
14.157
8.005
2.014
-3.797
-9.408
-14.802
-19.964
-24.879
-29.535
-33.922
-38.031
-41.854
-45.386
-48.624
-51.565
-54.211
-56.561
-58.619
-60.39
-61.879
-63.094
-64.043
-64.736
-65.184
-65.398
-65.392
-65.179
-64.772
-64.187
-63.438
-62.541
-61.51
-60.361
-59.109
-57.769
-56.355
-54.882
-53.364
-51.815
-50.247
-48.674
-47.107
-45.558
-44.035
-42.55
-41.11
-39.724
-38.398
-37.14
-35.953
-34.843
-33.814
-32.868
-32.008
-31.235
-30.548
-29.949
-29.436
-29.007
-28.66
-28.393
-28.203
-28.087
-28.042
-28.063
-28.147
-28.289
-28.485
-28.731
-29.022
-29.354
-29.721
-30.121
-30.547
-30.997
-31.467
-31.952
-32.449
-32.956
-33.468
-33.982
-34.497
-35.01
-35.518
-36.021
-36.516
-37.003
-37.482
-37.951
-38.41
-38.86
-39.3
-39.73
-40.151
-40.563
-40.965
-41.358
-41.742
-42.118
-42.486
-42.845
-43.198
-43.542
-43.878
-44.207
-44.526
-44.836
-45.134
-45.42
-45.692
-45.948
-46.187
-46.406
-46.604
-46.777
-46.922
-47.038
-47.121
-47.167
-47.172
-47.134
-47.048
-46.911
-46.721
-46.475
-46.17
-45.804
-45.374
-44.881
-44.323
-43.697
-43.004
-42.245
-41.419
-40.527
-39.573
-38.557
-37.486
-36.364
-35.198
-33.996
-32.765
-31.514
-30.25
-28.984
-27.724
-26.477
-25.251
-24.054
-22.894
-21.785
-20.735
-19.755
-18.853
-18.037
-17.316
-16.7
-16.193
-15.796
-15.51
-15.34
-15.294
-15.389
-15.636
-16.041
-16.608
-17.337
-18.221
-19.259
-20.431
-21.706
-23.057
-24.451
-25.867
-27.294
-28.709
-30.08
-31.371
-32.53
-33.521
-34.322
-34.91
-35.274
-35.419
-35.362
-35.147
-34.844
-34.512
-34.218
-34.034
-34.021
-34.261
-34.82
-35.784
-37.29
-39.398
-42.094
-45.272
-48.654
-51.928
-54.849
-57.079
-58.218
-58.051
-56.506
-53.855
-50.878
-48.349
-46.898
-47.144
-49.511
-54.135
-60.842
-68.648
-75.594
-79.514
-78.295
-69.797
-52.176
-23.921
16.227
67.425
126.221
189.014
251.815
312.639
373.358
433.337
489.12
534.599
557.308
547.351
501.099
417.946
307.204
184.111
62.915
-38.955
-108.736
-144.056
-146.334
-124.518
-92.398
-59.032
-33.223
-20.311
-18.207
-23.747
-30.973
-34.074
-32.7
-29.125
-27.096
-29.297
-35.188
-42.511
-48.89
-53.298
-55.738
-56.336
-55.441
-53.283
-50.242
-47.174
-44.639
-42.792
-41.751
-41.548
-42.178
-43.673
-45.884
-48.428
-51.042
-53.567
-55.866
-57.901
-59.63
-60.978
-61.935
-62.538
-62.803
-62.755
-62.422
-61.799
-60.9
-59.751
-58.37
-56.794
-55.067
-53.228
-51.326
-49.395
-47.455
-45.525
-43.615
-41.728
-39.865
-38.018
-36.169
-34.307
-32.42
-30.496
-28.522
-26.484
-24.363
-22.144
-19.812
-17.355
-14.762
-12.023
-9.133
-6.086
-2.876
0.506
4.07
7.816
11.74
15.829
20.074
24.463
28.988
33.63
38.368
43.184
48.072
53.037
58.085
63.209
68.393
73.605
78.815
84.003
89.165
94.297
99.389
104.427
109.402
114.325
119.213
124.06
128.829
133.45
137.853
141.991
145.836
149.373
152.582
155.431
157.881
159.9
161.469
162.567
163.162
163.195
162.603
161.359
159.486
157.046
154.103
150.694
146.847
142.583
137.937
132.951
127.666
122.107
116.294
110.257
104.045
97.732
91.396
85.085
78.813
72.563
66.327
60.111
53.929
47.795
41.713
35.686
29.73
23.875
18.152
12.583
7.173
1.917
-3.195
-8.157
-12.95
-17.548
-21.927
-26.073
-29.975
-33.619
-36.989
-40.076
-42.879
-45.408
-47.673
-49.683
-51.44
-52.946
-54.204
-55.221
-56.01
-56.581
-56.946
-57.117
-57.107
-56.931
-56.605
-56.145
-55.562
-54.867
-54.07
-53.185
-52.222
-51.196
-50.117
-48.997
-47.847
-46.68
-45.508
-44.342
-43.19
-42.061
-40.963
-39.905
-38.891
-37.929
-37.024
-36.179
-35.399
-34.686
-34.043
-33.472
-32.973
-32.548
-32.196
-31.917
-31.71
-31.572
-31.503
-31.5
-31.56
-31.681
-31.858
-32.09
-32.37
-32.697
-33.065
-33.469
-33.906
-34.37
-34.856
-35.359
-35.876
-36.401
-36.931
-37.462
-37.989
-38.51
-39.021
-39.521
-40.006
-40.475
-40.926
-41.358
-41.769
-42.16
-42.53
-42.878
-43.204
-43.509
-43.791
-44.053
-44.293
-44.513
-44.712
-44.892
-45.052
-45.195
-45.321
-45.432
-45.527
-45.609
-45.679
-45.736
-45.782
-45.818
-45.843
-45.857
-45.86
-45.852
-45.831
-45.797
-45.748
-45.682
-45.598
-45.492
-45.363
-45.207
-45.023
-44.806
-44.554
-44.265
-43.936
-43.565
-43.15
-42.69
-42.182
-41.626
-41.021
-40.366
-39.661
-38.906
-38.101
-37.247
-36.345
-35.398
-34.408
-33.377
-32.312
-31.218
-30.101
-28.969
-27.828
-26.686
-25.552
-24.435
-23.342
-22.279
-21.254
-20.275
-19.352
-18.494
-17.71
-17.009
-16.398
-15.884
-15.474
-15.175
-14.985
-14.905
-14.935
-15.08
-15.35
-15.757
-16.304
-16.996
-17.833
-18.812
-19.926
-21.161
-22.49
-23.883
-25.314
-26.761
-28.209
-29.643
-31.034
-32.349
-33.55
-34.597
-35.469
-36.14
-36.579
-36.794
-36.805
-36.656
-36.423
-36.154
-35.882
-35.672
-35.595
-35.693
-36.025
-36.644
-37.6
-39.044
-41.081
-43.664
-46.64
-49.812
-52.939
-55.641
-57.556
-58.254
-57.227
-55.241
-53.357
-51.464
-50.24
-48.535
-44.845
-42.319
-42.796
-48.24
-60.698
-74.843
-85.566
-88.8
-79.222
-56.432
-20.462
28.015
84.971
147.617
212.48
278.353
347.834
418.622
486.331
541.98
568.979
559.083
509.464
422.345
314.408
200.482
94.895
14.224
-38.37
-64.434
-69.751
-67.946
-65.392
-63.404
-61.605
-55.331
-44.115
-31.369
-19.708
-12.008
-9.373
-11.005
-16.191
-23.973
-32.847
-41.19
-48.03
-52.957
-55.934
-57.194
-56.769
-54.756
-51.774
-48.715
-46.181
-44.468
-43.627
-43.55
-44.305
-45.947
-48.317
-51.125
-54.092
-57.034
-59.863
-62.532
-64.955
-67.046
-68.757
-70.091
-71.074
-71.719
-72.029
-72.011
-71.671
-71.033
-70.123
-68.963
-67.588
-66.032
-64.337
-62.548
-60.699
-58.81
-56.899
-54.976
-53.042
-51.096
-49.129
-47.123
-45.067
-42.951
-40.764
-38.496
-36.136
-33.667
-31.079
-28.358
-25.495
-22.481
-19.308
-15.97
-12.462
-8.784
-4.937
-0.922
3.256
7.596
12.092
16.74
21.533
26.461
31.517
36.689
41.966
47.333
52.774
58.272
63.806
69.359
74.908
80.432
85.907
91.31
96.617
101.803
106.846
111.719
116.399
120.861
125.082
129.039
132.711
136.076
139.115
141.809
144.143
146.102
147.673
148.846
149.611
149.963
149.897
149.411
148.505
147.181
145.444
143.301
140.761
137.836
134.54
130.888
126.899
122.59
117.983
113.099
107.963
102.597
97.027
91.28
85.38
79.355
73.232
67.039
60.802
54.548
48.304
42.094
35.945
29.879
23.919
18.087
12.403
6.885
1.551
-3.585
-8.508
-13.205
-17.668
-21.887
-25.855
-29.568
-33.023
-36.217
-39.152
-41.829
-44.251
-46.421
-48.345
-50.029
-51.481
-52.709
-53.722
-54.531
-55.145
-55.576
-55.836
-55.937
-55.891
-55.712
-55.41
-54.999
-54.492
-53.9
-53.235
-52.509
-51.733
-50.917
-50.072
-49.206
-48.328
-47.446
-46.566
-45.695
-44.838
-43.999
-43.182
-42.391
-41.628
-40.896
-40.196
-39.529
-38.897
-38.3
-37.738
-37.21
-36.716
-36.256
-35.827
-35.428
-35.059
-34.717
-34.4
-34.107
-33.836
-33.583
-33.348
-33.128
-32.92
-32.723
-32.536
-32.355
-32.181
-32.011
-31.846
-31.685
-31.527
-31.373
-31.223
-31.078
-30.938
-30.805
-30.679
-30.561
-30.452
-30.355
-30.27
-30.198
-30.141
-30.1
-30.076
-30.072
-30.087
-30.123
-30.181
-30.262
-30.367
-30.496
-30.65
-30.83
-31.037
-31.27
-31.531
-31.82
-32.136
-32.479
-32.847
-33.241
-33.657
-34.095
-34.552
-35.026
-35.513
-36.009
-36.513
-37.019
-37.524
-38.023
-38.512
-38.986
-39.441
-39.871
-40.271
-40.638
-40.965
-41.249
-41.484
-41.668
-41.796
-41.864
-41.868
-41.805
-41.672
-41.465
-41.184
-40.825
-40.386
-39.867
-39.268
-38.588
-37.83
-36.995
-36.087
-35.113
-34.077
-32.988
-31.851
-30.676
-29.471
-28.245
-27.007
-25.763
-24.524
-23.298
-22.096
-20.932
-19.813
-18.75
-17.752
-16.829
-15.989
-15.242
-14.589
-14.035
-13.586
-13.251
-13.047
-12.989
-13.086
-13.344
-13.764
-14.348
-15.092
-15.986
-17.004
-18.12
-19.307
-20.542
-21.813
-23.102
-24.379
-25.606
-26.733
-27.718
-28.536
-29.17
-29.604
-29.835
-29.875
-29.76
-29.558
-29.344
-29.188
-29.157
-29.318
-29.746
-30.529
-31.763
-33.567
-36.009
-39.074
-42.676
-46.624
-50.662
-54.534
-57.935
-60.497
-61.983
-62.308
-61.599
-60.338
-59.128
-58.546
-59.1
-61.067
-64.611
-69.802
-76.083
-82.29
-86.147
-84.318
-75.144
-58.029
-33.456
-4.057
31.484
76.013
129.955
195.397
268.418
341.931
414.683
482.093
540.499
587.353
609.708
596.825
543.56
446.766
318.674
179.386
47.806
-54.806
-118.278
-145.591
-143.682
-124.304
-96.836
-64.459
-30.841
-1.306
18.755
25.003
18.119
4.727
-8.47
-17.679
-22.867
-27.743
-34.621
-43.192
-51.977
-58.439
-61.413
-61.351
-58.937
-55.129
-50.851
-46.713
-43.206
-40.735
-39.426
-39.234
-40.08
-41.799
-44.147
-46.848
-49.684
-52.487
-55.142
-57.579
-59.733
-61.554
-63.027
-64.165
-64.969
-65.434
-65.562
-65.352
-64.821
-63.995
-62.897
-61.549
-59.985
-58.239
-56.355
-54.378
-52.343
-50.27
-48.178
-46.073
-43.959
-41.837
-39.699
-37.528
-35.311
-33.037
-30.693
-28.272
-25.761
-23.147
-20.419
-17.566
-14.578
-11.449
-8.172
-4.743
-1.159
2.579
6.47
10.509
14.692
19.016
23.473
28.059
32.766
37.583
42.503
47.514
52.604
57.758
62.961
68.194
73.441
78.681
83.894
89.06
94.156
99.16
104.051
108.805
113.4
117.814
122.024
126.009
129.748
133.222
136.411
139.297
141.864
144.097
145.982
147.509
148.667
149.446
149.842
149.848
149.463
148.686
147.517
145.96
144.021
141.706
139.025
135.991
132.615
128.913
124.902
120.6
116.027
111.204
106.153
100.896
95.457
89.86
84.132
78.295
72.376
66.4
60.391
54.374
48.374
42.412
36.513
30.697
24.985
19.397
13.951
8.665
3.555
-1.365
-6.081
-10.583
-14.859
-18.903
-22.705
-26.263
-29.571
-32.629
-35.435
-37.99
-40.297
-42.36
-44.183
-45.772
-47.136
-48.281
-49.217
-49.954
-50.502
-50.873
-51.076
-51.125
-51.03
-50.805
-50.46
-50.01
-49.464
-48.836
-48.137
-47.378
-46.571
-45.727
-44.854
-43.964
-43.065
-42.166
-41.273
-40.395
-39.538
-38.707
-37.906
-37.139
-36.411
-35.723
-35.078
-34.476
-33.918
-33.406
-32.937
-32.513
-32.131
-31.79
-31.49
-31.227
-31
-30.807
-30.646
-30.513
-30.408
-30.328
-30.269
-30.23
-30.209
-30.202
-30.209
-30.225
-30.25
-30.282
-30.319
-30.361
-30.406
-30.453
-30.504
-30.558
-30.615
-30.677
-30.743
-30.816
-30.897
-30.986
-31.087
-31.2
-31.327
-31.471
-31.632
-31.812
-32.013
-32.236
-32.482
-32.751
-33.044
-33.362
-33.704
-34.071
-34.463
-34.88
-35.321
-35.786
-36.274
-36.784
-37.313
-37.859
-38.421
-38.994
-39.575
-40.16
-40.744
-41.324
-41.894
-42.448
-42.982
-43.49
-43.965
-44.401
-44.793
-45.135
-45.419
-45.641
-45.796
-45.879
-45.885
-45.811
-45.653
-45.407
-45.072
-44.646
-44.126
-43.511
-42.8
-41.994
-41.092
-40.097
-39.011
-37.837
-36.581
-35.249
-33.849
-32.39
-30.881
-29.332
-27.754
-26.16
-24.56
-22.964
-21.384
-19.831
-18.316
-16.854
-15.456
-14.136
-12.904
-11.771
-10.748
-9.845
-9.069
-8.422
-7.908
-7.532
-7.303
-7.238
-7.349
-7.645
-8.132
-8.81
-9.678
-10.73
-11.95
-13.31
-14.779
-16.327
-17.93
-19.573
-21.236
-22.888
-24.491
-25.996
-27.359
-28.554
-29.552
-30.334
-30.9
-31.268
-31.479
-31.605
-31.717
-31.884
-32.175
-32.666
-33.424
-34.504
-35.988
-37.984
-40.57
-43.784
-47.546
-51.613
-55.733
-59.676
-63.115
-65.669
-66.994
-66.846
-65.398
-63.299
-61.192
-59.559
-59.026
-60.281
-63.757
-69.775
-77.024
-82.356
-84.026
-81.121
-73.787
-64.11
-49.519
-23.883
17.045
76.727
151.626
231.376
308.71
380.026
444.921
505.7
560.138
596.584
601.096
563.212
477.159
352.323
209.568
70.532
-41.002
-111.215
-141.838
-140.357
-120.012
-93.464
-65.472
-39.443
-19.538
-8.475
-9.004
-20.329
-35.632
-48.561
-55.637
-56.515
-55.142
-54.573
-55.106
-56.089
-55.869
-53.768
-50.539
-46.961
-43.703
-41.176
-39.491
-38.709
-38.869
-39.881
-41.577
-43.808
-46.469
-49.466
-52.707
-56.091
-59.5
-62.819
-65.948
-68.803
-71.321
-73.461
-75.201
-76.53
-77.445
-77.966
-78.119
-77.933
-77.438
-76.656
-75.61
-74.334
-72.866
-71.252
-69.539
-67.758
-65.927
-64.059
-62.157
-60.22
-58.244
-56.213
-54.106
-51.909
-49.61
-47.199
-44.669
-42.011
-39.21
-36.257
-33.141
-29.854
-26.392
-22.751
-18.927
-14.921
-10.737
-6.379
-1.855
2.828
7.663
12.643
17.758
22.999
28.354
33.81
39.356
44.974
50.649
56.362
62.093
67.823
73.529
79.189
84.782
90.284
95.671
100.921
106.009
110.912
115.608
120.073
124.285
128.225
131.871
135.206
138.213
140.874
143.177
145.109
146.66
147.819
148.581
148.94
148.894
148.44
147.581
146.319
144.659
142.608
140.175
137.373
134.214
130.712
126.886
122.753
118.332
113.646
108.716
103.565
98.218
92.699
87.034
81.247
75.366
69.415
63.419
57.403
51.393
45.41
39.478
33.619
27.854
22.202
16.682
11.311
6.105
1.078
-3.755
-8.384
-12.798
-16.988
-20.949
-24.673
-28.157
-31.399
-34.397
-37.151
-39.664
-41.939
-43.979
-45.791
-47.381
-48.757
-49.927
-50.9
-51.687
-52.298
-52.743
-53.033
-53.18
-53.194
-53.087
-52.869
-52.553
-52.148
-51.665
-51.116
-50.509
-49.855
-49.163
-48.441
-47.698
-46.942
-46.179
-45.418
-44.663
-43.921
-43.196
-42.493
-41.815
-41.165
-40.546
-39.96
-39.406
-38.887
-38.402
-37.951
-37.533
-37.148
-36.794
-36.47
-36.175
-35.908
-35.666
-35.448
-35.252
-35.077
-34.921
-34.783
-34.661
-34.554
-34.459
-34.376
-34.304
-34.242
-34.187
-34.14
-34.099
-34.064
-34.034
-34.01
-33.991
-33.977
-33.97
-33.97
-33.978
-33.996
-34.024
-34.064
-34.119
-34.189
-34.277
-34.383
-34.51
-34.659
-34.831
-35.028
-35.25
-35.498
-35.772
-36.073
-36.402
-36.757
-37.138
-37.545
-37.978
-38.435
-38.914
-39.415
-39.936
-40.473
-41.026
-41.589
-42.161
-42.737
-43.313
-43.885
-44.448
-44.998
-45.528
-46.033
-46.508
-46.947
-47.343
-47.692
-47.986
-48.221
-48.391
-48.49
-48.514
-48.458
-48.317
-48.089
-47.769
-47.356
-46.846
-46.239
-45.532
-44.726
-43.821
-42.818
-41.719
-40.527
-39.246
-37.882
-36.443
-34.935
-33.368
-31.751
-30.096
-28.411
-26.71
-25.001
-23.297
-21.607
-19.943
-18.319
-16.747
-15.241
-13.814
-12.476
-11.241
-10.119
-9.119
-8.246
-7.505
-6.901
-6.442
-6.143
-6.016
-6.07
-6.311
-6.743
-7.365
-8.173
-9.152
-10.277
-11.524
-12.866
-14.281
-15.755
-17.27
-18.802
-20.32
-21.78
-23.143
-24.38
-25.459
-26.358
-27.069
-27.601
-27.99
-28.3
-28.581
-28.886
-29.268
-29.774
-30.474
-31.443
-32.745
-34.466
-36.725
-39.588
-43.066
-47.052
-51.272
-55.396
-59.084
-61.925
-63.492
-63.465
-61.749
-58.657
-54.898
-51.339
-48.815
-48.063
-49.768
-54.378
-61.745
-70.792
-79.655
-85.988
-87.245
-81.022
-64.909
-36.501
5.093
58.346
120.669
188.482
259.387
334.241
412.373
489.815
558.485
604.874
617.761
593.159
534.055
450.721
353.697
249.962
145.863
46.578
-40.09
-103.943
-139.479
-145.032
-124.974
-90.256
-51.355
-18.909
-0.478
3.907
-2.184
-11.642
-18.032
-20.383
-20.334
-21.316
-25.592
-32.137
-39.121
-44.714
-47.886
-48.685
-47.547
-45.028
-41.8
-38.696
-36.251
-34.677
-34.085
-34.491
-35.873
-38.204
-41.291
-44.753
-48.319
-51.825
-55.14
-58.202
-60.942
-63.275
-65.174
-66.666
-67.767
-68.488
-68.843
-68.834
-68.476
-67.803
-66.845
-65.634
-64.209
-62.61
-60.882
-59.071
-57.208
-55.318
-53.416
-51.513
-49.614
-47.719
-45.817
-43.895
-41.94
-39.939
-37.88
-35.751
-33.536
-31.218
-28.785
-26.226
-23.533
-20.699
-17.713
-14.565
-11.243
-7.742
-4.062
-0.205
3.825
8.016
12.353
16.81
21.356
25.971
30.64
35.357
40.125
44.942
49.806
54.719
59.67
64.651
69.657
74.673
79.69
84.712
89.752
94.84
100.021
105.306
110.69
116.158
121.661
127.15
132.563
137.817
142.846
147.592
151.999
156.03
159.65
162.8
165.418
167.424
168.719
169.244
168.963
167.851
165.927
163.227
159.804
155.755
151.165
146.099
140.622
134.775
128.599
122.155
115.507
108.729
101.916
95.14
88.458
81.929
75.577
69.414
63.433
57.596
51.87
46.242
40.706
35.27
29.95
24.75
19.675
14.736
9.926
5.243
0.689
-3.74
-8.038
-12.189
-16.17
-19.948
-23.49
-26.777
-29.798
-32.544
-35.02
-37.225
-39.165
-40.854
-42.302
-43.517
-44.508
-45.282
-45.848
-46.219
-46.409
-46.437
-46.321
-46.076
-45.718
-45.261
-44.72
-44.106
-43.43
-42.699
-41.921
-41.105
-40.261
-39.397
-38.522
-37.644
-36.77
-35.908
-35.065
-34.245
-33.452
-32.69
-31.96
-31.265
-30.606
-29.984
-29.397
-28.847
-28.333
-27.854
-27.408
-26.996
-26.614
-26.263
-25.939
-25.641
-25.368
-25.118
-24.889
-24.68
-24.49
-24.317
-24.16
-24.02
-23.896
-23.787
-23.692
-23.612
-23.547
-23.496
-23.46
-23.438
-23.433
-23.444
-23.473
-23.52
-23.588
-23.677
-23.79
-23.927
-24.09
-24.279
-24.496
-24.742
-25.016
-25.319
-25.651
-26.012
-26.402
-26.82
-27.265
-27.737
-28.234
-28.754
-29.296
-29.858
-30.436
-31.029
-31.633
-32.246
-32.863
-33.481
-34.096
-34.704
-35.301
-35.882
-36.443
-36.979
-37.485
-37.956
-38.386
-38.772
-39.107
-39.388
-39.609
-39.765
-39.854
-39.871
-39.814
-39.678
-39.46
-39.159
-38.773
-38.299
-37.737
-37.087
-36.347
-35.52
-34.607
-33.611
-32.534
-31.382
-30.161
-28.876
-27.534
-26.143
-24.713
-23.25
-21.767
-20.271
-18.773
-17.282
-15.811
-14.371
-12.972
-11.628
-10.351
-9.152
-8.046
-7.042
-6.152
-5.387
-4.752
-4.253
-3.898
-3.695
-3.657
-3.792
-4.104
-4.597
-5.272
-6.125
-7.152
-8.336
-9.648
-11.064
-12.56
-14.115
-15.718
-17.354
-19.001
-20.633
-22.213
-23.713
-25.114
-26.399
-27.552
-28.561
-29.429
-30.198
-30.941
-31.731
-32.626
-33.65
-34.814
-36.16
-37.743
-39.628
-41.868
-44.464
-47.433
-50.852
-54.761
-59.119
-63.745
-68.256
-72.234
-75.381
-77.359
-77.765
-76.348
-73.04
-68.16
-62.49
-56.769
-51.652
-47.966
-46.561
-47.993
-51.526
-54.999
-56.076
-53.042
-46.608
-38.482
-27.433
-10.013
19.688
67.528
133.608
214.384
304.289
396.39
484.695
561.466
616.739
639.826
622.589
564.192
469.009
347.365
214.469
83.815
-29.455
-111.902
-159.738
-172.587
-156.21
-123.758
-83.807
-45.739
-19.553
-6.156
-5.728
-14.753
-23.554
-28.847
-30.339
-29.113
-30.435
-35.838
-43.426
-51.657
-58.102
-61.418
-62.098
-60.692
-57.734
-54.055
-50.464
-47.422
-45.264
-44.24
-44.3
-45.378
-47.433
-50.202
-53.331
-56.601
-59.83
-62.873
-65.679
-68.18
-70.302
-72.039
-73.412
-74.422
-75.079
-75.385
-75.342
-74.966
-74.287
-73.329
-72.12
-70.696
-69.092
-67.35
-65.514
-63.617
-61.676
-59.706
-57.713
-55.7
-53.665
-51.597
-49.482
-47.307
-45.06
-42.73
-40.308
-37.78
-35.135
-32.359
-29.443
-26.378
-23.156
-19.773
-16.224
-12.507
-8.623
-4.575
-0.368
3.994
8.506
13.161
17.952
22.87
27.906
33.049
38.287
43.606
48.993
54.429
59.898
65.381
70.858
76.309
81.713
87.048
92.292
97.423
102.418
107.253
111.907
116.356
120.579
124.553
128.259
131.676
134.786
137.571
140.015
142.105
143.827
145.172
146.129
146.691
146.854
146.614
145.969
144.921
143.47
141.623
139.385
136.766
133.775
130.426
126.731
122.707
118.371
113.741
108.838
103.683
98.297
92.705
86.93
80.996
74.929
68.754
62.497
56.182
49.836
43.482
37.145
30.848
24.614
18.465
12.42
6.5
0.722
-4.895
-10.337
-15.589
-20.638
-25.472
-30.083
-34.46
-38.599
-42.492
-46.137
-49.532
-52.675
-55.567
-58.21
-60.607
-62.764
-64.686
-66.379
-67.852
-69.114
-70.174
-71.042
-71.729
-72.247
-72.606
-72.819
-72.898
-72.853
-72.697
-72.442
-72.099
-71.679
-71.193
-70.651
-70.063
-69.44
-68.789
-68.118
-67.436
-66.749
-66.064
-65.385
-64.719
-64.068
-63.437
-62.827
-62.242
-61.682
-61.148
-60.641
-60.16
-59.704
-59.273
-58.865
-58.479
-58.112
-57.764
-57.431
-57.113
-56.807
-56.512
-56.225
-55.946
-55.674
-55.406
-55.144
-54.885
-54.63
-54.38
-54.135
-53.897
-53.666
-53.444
-53.234
-53.039
-52.86
-52.702
-52.568
-52.462
-52.386
-52.347
-52.347
-52.392
-52.485
-52.63
-52.831
-53.093
-53.417
-53.809
-54.269
-54.801
-55.405
-56.084
-56.838
-57.667
-58.572
-59.55
-60.601
-61.722
-62.91
-64.161
-65.471
-66.834
-68.244
-69.695
-71.181
-72.693
-74.225
-75.768
-77.313
-78.852
-80.376
-81.877
-83.344
-84.77
-86.145
-87.461
-88.711
-89.888
-90.983
-91.992
-92.909
-93.729
-94.45
-95.067
-95.579
-95.985
-96.283
-96.477
-96.568
-96.558
-96.453
-96.258
-95.984
-95.64
-95.236
-94.784
-94.296
-93.785
-93.264
-92.746
-92.241
-91.76
-91.313
-90.914
-90.575
-90.308
-90.122
-90.027
-90.032
-90.143
-90.369
-90.71
-91.163
-91.728
-92.404
-93.198
-94.121
-95.179
-96.373
-97.703
-99.163
-100.748
-102.446
-104.232
-106.073
-107.932
-109.777
-111.584
-113.331
-114.988
-116.518
-117.874
-119.007
-119.873
-120.438
-120.673
-120.563
-120.108
-119.323
-118.241
-116.915
-115.405
-113.785
-112.123
-110.479
-108.904
-107.471
-106.311
-105.543
-105.226
-105.296
-105.566
-105.804
-105.785
-105.227
-103.721
-100.878
-96.51
-90.831
-84.44
-77.996
-72.273
-68.21
-66.767
-68.875
-74.123
-80.383
-85.572
-88.261
-89.221
-90.364
-90.349
-83.739
-61.816
-17.443
50.292
135.679
228.882
323.069
414.413
499.344
572.872
623.542
639.726
616.458
555.669
467.917
364.286
251.376
135.04
20.688
-81.744
-158.953
-203.635
-215.827
-203.996
-181.71
-157.769
-135.623
-114.655
-92.007
-68.179
-45.987
-28.644
-19.002
-17.275
-22.108
-31.797
-44.186
-57.301
-69.289
-78.504
-84.26
-86.492
-85.751
-82.078
-74.512
-64.166
-53.408
-45.818
-46.61
-55.287
-66.923
-76.255
-76.353
-67.19
-54.878
-44.012
-39.909
-43.119
-49.013
-55.063
-58.985
-60.012
-60.081
-59.923
-59.445
-58.742
-57.308
-54.846
-51.814
-48.491
-44.934
-41.338
-37.766
-34.196
-30.755
-27.541
-24.445
-21.407
-18.414
-15.399
-12.374
-9.364
-6.331
-3.256
-0.145
3.012
6.224
9.495
12.852
16.32
19.907
23.624
27.473
31.455
35.578
39.848
44.266
48.829
53.533
58.373
63.336
68.406
73.554
78.742
83.938
89.123
94.281
99.407
104.498
109.545
114.546
119.496
124.393
129.239
134.028
138.748
143.402
148.001
152.579
157.19
161.866
166.607
171.405
176.227
181.032
185.777
190.397
194.809
198.942
202.728
206.117
209.081
211.569
213.515
214.838
215.432
215.222
214.172
212.262
209.49
205.883
201.478
196.35
190.613
184.361
177.672
170.61
163.216
155.548
147.685
139.71
131.721
123.802
116.008
108.395
101.007
93.868
86.987
80.341
73.877
67.559
61.372
55.313
49.392
43.615
37.976
32.475
27.109
21.878
16.787
11.837
7.027
2.367
-2.125
-6.42
-10.474
-14.254
-17.743
-20.927
-23.801
-26.362
-28.606
-30.539
-32.171
-33.511
-34.567
-35.346
-35.852
-36.095
-36.087
-35.845
-35.387
-34.732
-33.896
-32.896
-31.747
-30.466
-29.067
-27.564
-25.966
-24.287
-22.539
-20.737
-18.895
-17.028
-15.148
-13.269
-11.404
-9.564
-7.761
-6.003
-4.298
-2.653
-1.074
0.434
1.864
3.215
4.481
5.66
6.748
7.745
8.648
9.457
10.172
10.795
11.326
11.767
12.121
12.391
12.581
12.694
12.734
12.706
12.615
12.465
12.262
12.011
11.719
11.39
11.03
10.643
10.235
9.808
9.367
8.914
8.452
7.984
7.511
7.04
6.574
6.119
5.682
5.268
4.885
4.539
4.234
3.973
3.753
3.573
3.429
3.317
3.235
3.178
3.143
3.125
3.12
3.123
3.129
3.131
3.122
3.101
3.069
3.033
3.016
3.038
3.123
3.3
3.58
3.976
4.495
5.135
5.903
6.802
7.823
8.95
10.164
11.449
12.81
14.218
15.588
16.844
17.93
18.876
19.799
20.76
21.784
22.959
24.364
