Name
Date of Birth,"Mar 27, 1959"
Recorded Date,2022-09-12 19:43:52 -0500
Classification,Sinus Rhythm
Symptoms,
Software Version,1.90
Device,"Watch4,2"
Sample Rate,510.227 hertz


Lead,Lead I
Unit,µV

-34.569
-34.91
-35.348
-35.871
-36.467
-37.124
-37.83
-38.574
-39.343
-40.125
-40.908
-41.681
-42.433
-43.153
-43.831
-44.459
-45.03
-45.535
-45.97
-46.33
-46.611
-46.808
-46.921
-46.946
-46.882
-46.729
-46.487
-46.156
-45.737
-45.232
-44.642
-43.971
-43.22
-42.391
-41.485
-40.505
-39.452
-38.326
-37.129
-35.86
-34.52
-33.109
-31.627
-30.071
-28.442
-26.738
-24.955
-23.09
-21.141
-19.102
-16.97
-14.738
-12.403
-9.957
-7.397
-4.717
-1.912
1.023
4.094
7.304
10.657
14.158
17.808
21.61
25.564
29.671
33.928
38.332
42.88
47.567
52.384
57.326
62.381
67.541
72.792
78.124
83.52
88.967
94.446
99.941
105.432
110.9
116.324
121.682
126.954
132.116
137.146
142.022
146.723
151.224
155.505
159.543
163.319
166.811
170
172.869
175.4
177.577
179.388
180.819
181.861
182.504
182.741
182.568
181.98
180.978
179.56
177.729
175.491
172.851
169.817
166.401
162.615
158.472
153.989
149.183
144.072
138.676
133.017
127.115
120.994
114.678
108.19
101.555
94.799
87.947
81.023
74.054
67.063
60.076
53.117
46.208
39.372
32.63
26.003
19.512
13.173
7.005
1.025
-4.754
-10.319
-15.656
-20.757
-25.614
-30.218
-34.566
-38.654
-42.48
-46.043
-49.343
-52.384
-55.168
-57.699
-59.983
-62.027
-63.838
-65.426
-66.8
-67.969
-68.946
-69.742
-70.37
-70.84
-71.167
-71.365
-71.445
-71.423
-71.311
-71.126
-70.88
-70.587
-70.261
-69.915
-69.562
-69.214
-68.88
-68.573
-68.301
-68.073
-67.898
-67.783
-67.735
-67.759
-67.861
-68.045
-68.314
-68.672
-69.12
-69.658
-70.287
-71.007
-71.816
-72.712
-73.692
-74.753
-75.891
-77.099
-78.372
-79.704
-81.085
-82.508
-83.963
-85.441
-86.933
-88.428
-89.916
-91.387
-92.83
-94.236
-95.594
-96.894
-98.123
-99.273
-100.333
-101.293
-102.144
-102.878
-103.485
-103.957
-104.287
-104.47
-104.498
-104.365
-104.066
-103.597
-102.954
-102.137
-101.143
-99.973
-98.627
-97.11
-95.425
-93.577
-91.575
-89.423
-87.131
-84.708
-82.166
-79.514
-76.766
-73.936
-71.039
-68.094
-65.122
-62.143
-59.178
-56.247
-53.373
-50.576
-47.878
-45.292
-42.837
-40.527
-38.379
-36.415
-34.65
-33.1
-31.778
-30.696
-29.865
-29.297
-28.995
-28.955
-29.175
-29.653
-30.398
-31.43
-32.761
-34.39
-36.317
-38.532
-41.02
-43.764
-46.723
-49.835
-53.038
-56.269
-59.48
-62.638
-65.691
-68.576
-71.217
-73.52
-75.423
-76.884
-77.861
-78.332
-78.302
-77.807
-76.937
-75.823
-74.585
-73.35
-72.247
-71.403
-70.982
-71.114
-71.949
-73.703
-76.472
-80.227
-84.809
-89.794
-94.652
-98.97
-102.237
-103.755
-103.061
-100.001
-94.945
-88.976
-83.383
-79.059
-76.533
-76.725
-80.496
-87.632
-96.863
-104.527
-104.864
-94.808
-73.077
-39.661
2.675
55.655
122.85
207.079
313.112
439.278
580.629
729.585
869.623
984.175
1055.772
1067.885
1018.011
910.979
757.13
575.973
384.014
198.742
41.875
-73.836
-141.612
-162.984
-152.815
-124.523
-89.688
-59.463
-36.968
-25.668
-26.443
-32.961
-41.056
-46.191
-46.66
-46.829
-48.859
-53.308
-59.056
-62.703
-63.027
-60.53
-56.097
-51.092
-46.32
-42.198
-39.349
-38.171
-38.719
-40.842
-44.209
-48.533
-53.614
-59.258
-65.231
-71.298
-77.261
-82.94
-88.18
-92.86
-96.888
-100.196
-102.759
-104.565
-105.626
-105.989
-105.721
-104.889
-103.559
-101.785
-99.618
-97.126
-94.388
-91.488
-88.507
-85.504
-82.517
-79.574
-76.696
-73.89
-71.158
-68.484
-65.842
-63.216
-60.595
-57.972
-55.342
-52.694
-50.013
-47.289
-44.51
-41.67
-38.763
-35.784
-32.73
-29.6
-26.398
-23.128
-19.798
-16.412
-12.975
-9.491
-5.964
-2.4
1.194
4.811
8.444
12.084
15.718
19.334
22.918
26.457
29.934
33.335
36.642
39.839
42.908
45.832
48.593
51.174
53.557
55.725
57.661
59.348
60.77
61.914
62.764
63.307
63.531
63.426
62.982
62.191
61.046
59.542
57.676
55.445
52.851
49.895
46.58
42.912
38.898
34.547
29.871
24.881
19.593
14.021
8.183
2.098
-4.214
-10.733
-17.438
-24.305
-31.312
-38.435
-45.649
-52.931
-60.255
-67.597
-74.931
-82.233
-89.477
-96.639
-103.696
-110.624
-117.399
-124.001
-130.409
-136.603
-142.563
-148.273
-153.716
-158.877
-163.743
-168.301
-172.54
-176.452
-180.027
-183.262
-186.15
-188.689
-190.878
-192.716
-194.206
-195.35
-196.153
-196.62
-196.759
-196.578
-196.086
-195.296
-194.219
-192.869
-191.261
-189.411
-187.336
-185.052
-182.579
-179.934
-177.136
-174.204
-171.159
-168.02
-164.806
-161.538
-158.235
-154.917
-151.604
-148.314
-145.066
-141.877
-138.764
-135.743
-132.83
-130.039
-127.383
-124.875
-122.526
-120.347
-118.346
-116.531
-114.908
-113.481
-112.253
-111.225
-110.396
-109.765
-109.328
-109.081
-109.017
-109.131
-109.413
-109.854
-110.445
-111.172
-112.025
-112.988
-114.047
-115.185
-116.388
-117.638
-118.919
-120.213
-121.502
-122.77
-123.998
-125.169
-126.266
-127.271
-128.167
-128.938
-129.568
-130.045
-130.355
-130.487
-130.43
-130.178
-129.724
-129.064
-128.195
-127.115
-125.823
-124.321
-122.613
-120.704
-118.6
-116.311
-113.846
-111.222
-108.455
-105.563
-102.565
-99.481
-96.333
-93.145
-89.939
-86.735
-83.555
-80.421
-77.354
-74.38
-71.525
-68.814
-66.267
-63.907
-61.753
-59.823
-58.134
-56.689
-55.491
-54.547
-53.866
-53.468
-53.371
-53.582
-54.105
-54.942
-56.084
-57.519
-59.223
-61.145
-63.238
-65.456
-67.755
-70.111
-72.493
-74.849
-77.122
-79.241
-81.132
-82.752
-84.057
-84.991
-85.546
-85.738
-85.625
-85.317
-84.897
-84.426
-83.999
-83.716
-83.683
-84.034
-84.838
-86.181
-88.272
-91.228
-95.022
-99.48
-104.118
-108.399
-111.943
-114.249
-114.624
-112.625
-108.153
-101.751
-94.726
-88.286
-83.502
-81.507
-83.456
-90.487
-101.277
-111.577
-117.277
-114.071
-102.462
-88.512
-72.085
-50.076
-13.97
53.339
157.469
296.319
462.451
635.201
797.754
934.636
1028.577
1069.546
1048.593
963.16
818.651
627.192
411.564
197.567
13.817
-117.574
-190.642
-210.465
-195.504
-165.254
-132.319
-106.334
-88.443
-79.348
-79.231
-82.76
-87.011
-88.416
-85.58
-83.078
-83.288
-86.943
-93.155
-98.008
-99.651
-98.41
-94.966
-90.672
-86.42
-82.463
-79.303
-77.544
-77.428
-78.894
-81.72
-85.57
-90.171
-95.365
-100.935
-106.598
-112.135
-117.343
-122.042
-126.142
-129.565
-132.248
-134.172
-135.332
-135.736
-135.437
-134.501
-132.992
-130.981
-128.526
-125.679
-122.513
-119.105
-115.538
-111.897
-108.237
-104.596
-101.002
-97.471
-94.011
-90.623
-87.293
-83.996
-80.716
-77.44
-74.16
-70.87
-67.558
-64.211
-60.815
-57.357
-53.828
-50.222
-46.532
-42.752
-38.88
-34.917
-30.864
-26.726
-22.506
-18.206
-13.828
-9.374
-4.848
-0.255
4.4
9.109
13.866
18.659
23.478
28.309
33.138
37.952
42.734
47.47
52.142
56.733
61.226
65.602
69.843
73.931
77.846
81.57
85.085
88.372
91.414
94.193
96.693
98.899
100.797
102.373
103.616
104.515
105.062
105.249
105.071
104.525
103.608
102.32
100.663
98.642
96.262
93.531
90.459
87.058
83.341
79.322
75.019
70.45
65.633
60.591
55.344
49.916
44.332
38.616
32.794
26.894
20.941
14.963
8.988
3.043
-2.845
-8.649
-14.343
-19.901
-25.297
-30.509
-35.513
-40.287
-44.812
-49.069
-53.039
-56.708
-60.06
-63.084
-65.769
-68.105
-70.086
-71.705
-72.96
-73.85
-74.373
-74.534
-74.336
-73.785
-72.889
-71.657
-70.1
-68.231
-66.064
-63.614
-60.9
-57.938
-54.749
-51.352
-47.768
-44.019
-40.125
-36.11
-31.995
-27.803
-23.554
-19.273
-14.979
-10.693
-6.438
-2.232
1.906
5.956
9.902
13.728
17.419
20.96
24.339
27.545
30.569
33.4
36.034
38.465
40.688
42.701
44.505
46.1
47.489
48.676
49.667
50.469
51.09
51.54
51.828
51.966
51.967
51.843
51.609
51.278
50.867
50.391
49.866
49.307
48.73
48.153
47.59
47.059
46.572
46.146
45.795
45.533
45.373
45.326
45.404
45.615
45.968
46.471
47.13
47.947
48.924
50.063
51.362
52.818
54.428
56.185
58.081
60.106
62.249
64.497
66.835
69.244
71.706
74.199
76.703
79.195
81.652
84.049
86.366
88.579
90.669
92.613
94.39
95.976
97.349
98.488
99.372
99.986
100.309
100.328
100.037
99.432
98.508
97.259
95.671
93.73
91.435
88.783
85.775
82.422
78.739
74.756
70.524
66.094
61.518
56.842
52.097
47.319
42.56
37.878
33.346
29.035
24.988
21.248
17.875
14.894
12.287
9.993
7.885
5.852
3.84
1.786
-0.387
-2.76
-5.447
-8.547
-12.099
-16.208
-21.079
-26.806
-33.358
-40.529
-47.78
-54.525
-60.298
-64.449
-66.128
-64.901
-60.835
-54.388
-46.793
-39.525
-33.619
-30.493
-32.264
-38.416
-45.804
-51.846
-52.181
-47.049
-43.188
-40.348
-34.855
-16.924
33.149
123.691
254.727
420.093
599.226
775.168
929.571
1040.506
1097.052
1090.018
1021.037
903.932
748.866
570.163
381.201
193.797
29.34
-93.399
-165.407
-187.912
-177.825
-156.313
-135.437
-119.57
-105.031
-85.458
-61.248
-35.89
-13.679
0.961
7.38
6.655
0.011
-10.122
-21.482
-32.557
-41.822
-48.672
-53.14
-54.863
-53.832
-50.628
-45.975
-40.86
-36.411
-33.11
-31.096
-30.634
-31.717
-34.2
-37.901
-42.338
-46.892
-51.155
-54.894
-57.95
-60.31
-61.96
-62.85
-63.021
-62.564
-61.563
-60.09
-58.18
-55.839
-53.086
-49.982
-46.609
-43.063
-39.441
-35.805
-32.194
-28.638
-25.159
-21.771
-18.478
-15.271
-12.122
-9.014
-5.94
-2.893
0.129
3.14
6.162
9.219
12.332
15.514
18.777
22.129
25.581
29.136
32.798
36.562
40.422
44.376
48.423
52.56
56.785
61.093
65.477
69.93
74.444
79.008
83.61
88.234
92.865
97.485
102.077
106.62
111.096
115.483
119.759
123.902
127.891
131.703
135.315
138.704
141.848
144.725
147.314
149.596
151.552
153.164
154.419
155.302
155.802
155.909
155.615
154.915
153.805
152.282
150.348
148.005
145.258
142.113
138.579
134.669
130.397
125.777
120.828
115.568
110.019
104.204
98.145
91.867
85.396
78.759
71.983
65.096
58.128
51.105
44.058
37.015
30.003
23.049
16.181
9.422
2.798
-3.669
-9.957
-16.046
-21.917
-27.552
-32.936
-38.054
-42.895
-47.447
-51.702
-55.652
-59.293
-62.62
-65.633
-68.33
-70.714
-72.787
-74.553
-76.019
-77.192
-78.079
-78.692
-79.041
-79.139
-78.999
-78.635
-78.062
-77.297
-76.355
-75.254
-74.009
-72.638
-71.158
-69.585
-67.939
-66.234
-64.488
-62.717
-60.937
-59.164
-57.412
-55.696
-54.028
-52.421
-50.888
-49.437
-48.081
-46.827
-45.685
-44.661
-43.764
-42.997
-42.367
-41.877
-41.529
-41.324
-41.263
-41.344
-41.564
-41.922
-42.411
-43.027
-43.762
-44.611
-45.563
-46.611
-47.744
-48.951
-50.22
-51.538
-52.892
-54.269
-55.654
-57.032
-58.391
-59.715
-60.991
-62.206
-63.345
-64.395
-65.343
-66.175
-66.88
-67.444
-67.856
-68.105
-68.183
-68.08
-67.79
-67.308
-66.628
-65.747
-64.665
-63.383
-61.901
-60.224
-58.355
-56.303
-54.076
-51.686
-49.146
-46.471
-43.679
-40.79
-37.825
-34.807
-31.76
-28.707
-25.674
-22.686
-19.768
-16.943
-14.234
-11.664
-9.255
-7.033
-5.022
-3.244
-1.723
-0.479
0.47
1.103
1.407
1.38
1.017
0.316
-0.729
-2.133
-3.903
-6.038
-8.537
-11.396
-14.599
-18.127
-21.942
-25.981
-30.186
-34.502
-38.881
-43.295
-47.709
-52.073
-56.331
-60.419
-64.282
-67.887
-71.202
-74.17
-76.763
-79.012
-81.009
-82.899
-84.808
-86.794
-88.882
-91.11
-93.561
-96.27
-99.207
-102.342
-105.68
-109.342
-113.518
-118.29
-123.436
-128.649
-133.784
-138.331
-141.44
-142.41
-140.307
-135.613
-131.052
-127.359
-123.821
-118.396
-105.317
-84.925
-63.53
-47.173
-47.34
-68.306
-102.822
-143.487
-172.682
-172.12
-135.192
-55.575
62.52
206.658
370.884
544.576
713.806
863.741
969.822
1010.506
978.339
876.961
724.847
546.6
358.318
175.204
9.416
-131.557
-233.884
-292.092
-308.126
-283.276
-231.491
-166.105
-100.594
-55.682
-38.668
-49.686
-81.568
-114.976
-139.718
-152.543
-154.402
-154.483
-156.917
-160.974
-165.537
-167.034
-163.927
-157.77
-150.27
-142.987
-137.01
-132.473
-129.249
-127.432
-127.151
-128.243
-130.313
-133.034
-136.087
-139.301
-142.669
-146.054
-149.229
-152.007
-154.264
-155.93
-156.994
-157.444
-157.231
-156.337
-154.787
-152.632
-149.939
-146.769
-143.159
-139.15
-134.799
-130.177
-125.368
-120.458
-115.509
-110.563
-105.65
-100.788
-95.985
-91.247
-86.559
-81.9
-77.25
-72.596
-67.928
-63.242
-58.53
-53.778
-48.975
-44.11
-39.175
-34.166
-29.079
-23.912
-18.668
-13.351
-7.969
-2.534
2.947
8.464
14.008
19.569
25.14
30.708
36.264
41.795
47.289
52.73
58.104
63.393
68.579
73.645
78.571
83.338
87.926
92.316
96.488
100.422
104.099
107.501
110.609
113.406
115.876
118.003
119.774
121.177
122.2
122.836
123.077
122.918
122.358
121.393
120.026
118.259
116.097
113.544
110.611
107.304
103.637
99.622
95.274
90.61
85.648
80.407
74.909
69.175
63.228
57.092
50.792
44.352
37.798
31.157
24.455
17.718
10.973
4.246
-2.437
-9.053
-15.575
-21.982
-28.252
-34.364
-40.298
-46.036
-51.562
-56.858
-61.911
-66.708
-71.237
-75.488
-79.453
-83.123
-86.495
-89.562
-92.324
-94.779
-96.927
-98.769
-100.308
-101.55
-102.499
-103.162
-103.548
-103.666
-103.528
-103.145
-102.53
-101.696
-100.658
-99.431
-98.029
-96.47
-94.768
-92.94
-91.003
-88.973
-86.866
-84.699
-82.488
-80.249
-77.998
-75.749
-73.518
-71.318
-69.162
-67.064
-65.034
-63.085
-61.227
-59.469
-57.818
-56.283
-54.869
-53.582
-52.423
-51.396
-50.5
-49.736
-49.101
-48.594
-48.21
-47.943
-47.788
-47.737
-47.782
-47.914
-48.123
-48.397
-48.724
-49.091
-49.487
-49.899
-50.312
-50.713
-51.089
-51.426
-51.711
-51.931
-52.072
-52.122
-52.068
-51.9
-51.608
-51.182
-50.615
-49.9
-49.031
-48.005
-46.82
-45.476
-43.973
-42.313
-40.501
-38.542
-36.445
-34.218
-31.874
-29.424
-26.887
-24.278
-21.618
-18.928
-16.229
-13.544
-10.895
-8.306
-5.799
-3.396
-1.116
1.018
2.985
4.76
6.323
7.653
8.73
9.538
10.059
10.28
10.199
9.812
9.116
8.108
6.773
5.1
3.089
0.739
-1.948
-4.961
-8.281
-11.875
-15.691
-19.677
-23.781
-27.956
-32.173
-36.393
-40.568
-44.641
-48.544
-52.213
-55.604
-58.675
-61.365
-63.651
-65.558
-67.147
-68.544
-69.853
-71.123
-72.416
-73.821
-75.431
-77.358
-79.703
-82.491
-85.816
-89.895
-94.82
-100.524
-106.772
-112.987
-118.568
-123.105
-126.008
-126.44
-124.008
-118.863
-111.543
-103.386
-95.921
-90.142
-87.362
-89.578
-96.206
-103.897
-109.972
-110.591
-106.179
-103.053
-100.643
-92.689
-67.639
-8.935
88.531
217.651
365.97
519.94
671.521
814.72
939.613
1025.677
1048.649
994.324
860.552
666.099
443.254
221.489
28.976
-117.149
-213.369
-261.037
-270.072
-254.011
-222.099
-183.835
-147.725
-117.967
-100.08
-95.319
-97.823
-103.3
-106.65
-105.772
-104.592
-104.724
-106.462
-108.921
-108.989
-105.686
-99.716
-91.976
-83.842
-76.237
-69.599
-64.469
-61.151
-59.589
-59.564
-60.751
-62.859
-65.693
-69.06
-72.718
-76.427
-79.969
-83.155
-85.871
-88.029
-89.557
-90.418
-90.589
-90.076
-88.923
-87.193
-84.944
-82.234
-79.111
-75.614
-71.809
-67.767
-63.57
-59.303
-55.023
-50.767
-46.562
-42.422
-38.351
-34.347
-30.389
-26.444
-22.491
-18.512
-14.498
-10.441
-6.33
-2.148
2.118
6.481
10.948
15.526
20.216
25.022
29.94
34.964
40.084
45.286
50.558
55.891
61.271
66.687
72.125
77.571
83.009
88.423
93.797
99.11
104.343
109.475
114.485
119.352
124.055
128.574
132.887
136.975
140.819
144.401
147.702
150.705
153.396
155.759
157.78
159.449
160.754
161.686
162.238
162.405
162.183
161.57
160.568
159.178
157.405
155.256
152.737
149.859
146.635
143.076
139.198
135.018
130.553
125.823
120.849
115.652
110.254
104.678
98.948
93.086
87.116
81.061
74.947
68.795
62.629
56.473
50.348
44.277
38.281
32.38
26.594
20.941
15.439
10.103
4.95
-0.007
-4.755
-9.284
-13.583
-17.643
-21.459
-25.024
-28.333
-31.385
-34.177
-36.709
-38.982
-40.998
-42.76
-44.273
-45.541
-46.57
-47.368
-47.941
-48.3
-48.452
-48.408
-48.179
-47.775
-47.209
-46.492
-45.637
-44.657
-43.564
-42.371
-41.092
-39.74
-38.327
-36.868
-35.375
-33.86
-32.336
-30.815
-29.307
-27.823
-26.374
-24.969
-23.617
-22.326
-21.105
-19.959
-18.896
-17.921
-17.039
-16.254
-15.568
-14.985
-14.505
-14.129
-13.856
-13.686
-13.615
-13.641
-13.76
-13.969
-14.262
-14.632
-15.074
-15.58
-16.141
-16.75
-17.397
-18.071
-18.764
-19.464
-20.162
-20.847
-21.51
-22.138
-22.722
-23.252
-23.716
-24.105
-24.409
-24.618
-24.723
-24.717
-24.592
-24.343
-23.964
-23.451
-22.8
-22.01
-21.079
-20.009
-18.799
-17.453
-15.975
-14.371
-12.646
-10.811
-8.873
-6.846
-4.743
-2.58
-0.374
1.857
4.095
6.32
8.513
10.652
12.721
14.703
16.578
18.331
19.94
21.384
22.647
23.71
24.559
25.181
25.561
25.691
25.57
25.197
24.569
23.683
22.522
21.071
19.326
17.283
14.945
12.328
9.446
6.328
3.023
-0.42
-3.953
-7.53
-11.123
-14.698
-18.205
-21.586
-24.767
-27.671
-30.248
-32.447
-34.221
-35.569
-36.514
-37.114
-37.479
-37.69
-37.823
-37.984
-38.267
-38.797
-39.71
-41.073
-43.013
-45.748
-49.38
-53.917
-59.169
-64.56
-69.524
-73.674
-76.425
-77.119
-75.408
-71.146
-64.888
-58.213
-52.511
-48.624
-47.74
-51.031
-58.762
-70.767
-84.338
-93.563
-94.921
-86.473
-67.741
-41.64
-5.464
46.957
119.985
219.2
342.363
480.947
627.805
771.115
897.597
994.096
1042.312
1028.072
947.835
806.855
622.931
420.261
221.086
45.632
-92.902
-187.931
-238.73
-250.546
-231.152
-192.171
-145.588
-104.061
-78.516
-71.799
-80.85
-95.137
-103.659
-102.9
-94.895
-86.841
-84.638
-88.371
-94.787
-99.915
-102.099
-101.829
-100.142
-97.748
-94.397
-90.276
-86.524
-83.884
-82.666
-82.909
-84.209
-86.43
-89.837
-94.3
-99.332
-104.528
-109.46
-113.858
-117.736
-121.027
-123.59
-125.392
-126.425
-126.711
-126.35
-125.407
-123.901
-121.876
-119.364
-116.405
-113.08
-109.468
-105.653
-101.723
-97.732
-93.716
-89.704
-85.71
-81.745
-77.811
-73.89
-69.956
-65.992
-61.99
-57.944
-53.855
-49.706
-45.483
-41.171
-36.76
-32.244
-27.624
-22.896
-18.059
-13.12
-8.084
-2.964
2.226
7.475
12.775
18.114
23.482
28.868
34.257
39.637
44.994
50.315
55.58
60.774
65.876
70.868
75.73
80.442
84.986
89.339
93.484
97.402
101.074
104.484
107.613
110.446
112.97
115.169
117.033
118.551
119.714
120.514
120.946
121.007
120.694
120.008
118.949
117.522
115.73
113.581
111.082
108.243
105.076
101.592
97.808
93.738
89.402
84.818
80.007
74.99
69.789
64.428
58.93
53.318
47.617
41.849
36.039
30.21
24.385
18.586
12.835
7.154
1.562
-3.921
-9.278
-14.491
-19.545
-24.426
-29.119
-33.615
-37.9
-41.967
-45.805
-49.409
-52.773
-55.89
-58.76
-61.379
-63.749
-65.869
-67.743
-69.374
-70.767
-71.929
-72.867
-73.588
-74.101
-74.415
-74.54
-74.488
-74.269
-73.895
-73.378
-72.73
-71.964
-71.093
-70.127
-69.08
-67.964
-66.789
-65.567
-64.311
-63.03
-61.736
-60.44
-59.151
-57.881
-56.639
-55.432
-54.269
-53.158
-52.105
-51.115
-50.194
-49.345
-48.572
-47.878
-47.266
-46.735
-46.287
-45.921
-45.635
-45.428
-45.296
-45.235
-45.241
-45.31
-45.436
-45.615
-45.84
-46.106
-46.406
-46.734
-47.082
-47.444
-47.81
-48.171
-48.52
-48.848
-49.145
-49.404
-49.617
-49.775
-49.87
-49.894
-49.841
-49.703
-49.474
-49.145
-48.712
-48.17
-47.515
-46.744
-45.855
-44.846
-43.72
-42.476
-41.118
-39.648
-38.07
-36.389
-34.609
-32.738
-30.783
-28.753
-26.658
-24.509
-22.323
-20.116
-17.904
-15.705
-13.536
-11.418
-9.368
-7.404
-5.539
-3.789
-2.168
-0.692
0.619
1.749
2.682
3.405
3.904
4.171
4.191
3.963
3.493
2.781
1.831
0.633
-0.831
-2.578
-4.61
-6.93
-9.533
-12.407
-15.538
-18.894
-22.417
-26.051
-29.744
-33.451
-37.15
-40.803
-44.357
-47.743
-50.877
-53.686
-56.119
-58.126
-59.677
-60.772
-61.44
-61.755
-61.828
-61.772
-61.703
-61.753
-62.031
-62.653
-63.712
-65.332
-67.74
-71.122
-75.511
-80.737
-86.409
-92.073
-97.349
-101.778
-104.633
-105.235
-103.336
-99.435
-94.624
-90.072
-86.924
-86.166
-89.02
-97.077
-109.318
-121.668
-130.565
-131.758
-125.604
-118.306
-108.93
-93.115
-61.552
2.835
105.181
243.29
411.161
591.489
770.541
931.815
1052.586
1117.406
1113.219
1039.847
911.503
742.771
552.986
357.796
169.192
5.343
-120.834
-201.63
-235.474
-234.59
-212.465
-181.175
-152.405
-129.794
-115.691
-109.728
-106.072
-101.209
-91.45
-76.822
-62.811
-52.51
-48.316
-50.295
-54.75
-60.054
-65.766
-70.969
-75.996
-80.754
-84.105
-85.819
-86.251
-85.488
-84.093
-82.934
-82.272
-82.358
-83.639
-86.066
-89.454
-93.653
-98.127
-102.293
-105.875
-108.669
-110.551
-111.576
-111.737
-111.031
-109.587
-107.528
-104.944
-101.91
-98.445
-94.564
-90.331
-85.831
-81.165
-76.417
-71.632
-66.838
-62.055
-57.293
-52.562
-47.856
-43.152
-38.434
-33.695
-28.933
-24.157
-19.368
-14.554
-9.706
-4.812
0.138
5.147
10.215
15.344
20.529
25.762
31.035
36.333
41.646
46.965
52.283
57.591
62.882
68.143
73.364
78.534
83.637
88.659
93.583
98.389
103.061
107.58
111.927
116.083
120.028
123.743
127.21
130.41
133.326
135.941
138.237
140.2
141.816
143.074
143.96
144.467
144.585
144.309
143.634
142.557
141.077
139.196
136.915
134.24
131.177
127.734
123.923
119.754
115.244
110.407
105.263
99.831
94.134
88.193
82.035
75.684
69.166
62.51
55.741
48.889
41.98
35.043
28.104
21.19
14.326
7.539
0.851
-5.714
-12.134
-18.39
-24.461
-30.331
-35.982
-41.401
-46.574
-51.49
-56.138
-60.511
-64.602
-68.406
-71.92
-75.142
-78.074
-80.716
-83.074
-85.151
-86.954
-88.493
-89.775
-90.812
-91.615
-92.197
-92.57
-92.748
-92.746
-92.576
-92.254
-91.795
-91.212
-90.519
-89.732
-88.864
-87.928
-86.938
-85.908
-84.849
-83.774
-82.693
-81.619
-80.562
-79.531
-78.536
-77.585
-76.685
-75.843
-75.066
-74.358
-73.724
-73.168
-72.691
-72.296
-71.983
-71.753
-71.605
-71.538
-71.55
-71.637
-71.798
-72.029
-72.326
-72.684
-73.098
-73.564
-74.075
-74.627
-75.211
-75.823
-76.453
-77.096
-77.743
-78.387
-79.019
-79.629
-80.21
-80.753
-81.249
-81.689
-82.064
-82.367
-82.589
-82.722
-82.758
-82.691
-82.514
-82.221
-81.806
-81.264
-80.593
-79.789
-78.85
-77.774
-76.561
-75.211
-73.726
-72.108
-70.362
-68.491
-66.501
-64.401
-62.197
-59.9
-57.521
-55.073
-52.572
-50.036
-47.482
-44.93
-42.4
-39.913
-37.489
-35.15
-32.91
-30.789
-28.803
-26.971
-25.314
-23.849
-22.593
-21.562
-20.769
-20.226
-19.946
-19.935
-20.191
-20.712
-21.499
-22.558
-23.91
-25.566
-27.531
-29.803
-32.376
-35.235
-38.366
-41.736
-45.287
-48.964
-52.711
-56.481
-60.246
-63.967
-67.591
-71.048
-74.247
-77.11
-79.584
-81.624
-83.196
-84.288
-84.911
-85.125
-85.036
-84.759
-84.405
-84.079
-83.881
-83.927
-84.33
-85.236
-86.845
-89.295
-92.621
-96.704
-101.203
-105.664
-109.668
-112.73
-114.257
-113.743
-110.91
-106.063
-100.197
-94.646
-90.613
-88.869
-90.14
-95.24
-104.465
-116.849
-128.924
-135.134
-130.571
-112.514
-82.655
-44.52
1.074
55.719
127.211
223.664
346.922
494.662
654.958
810.728
945.015
1040.354
1082.462
1061.607
975.679
829.168
636.87
424.039
216.724
43.228
-76.885
-142.458
-162.611
-158.258
-150.834
-148.293
-150.753
-151.307
-141.969
-123.543
-100.82
-78.856
-62.627
-53.015
-48.787
-49.698
-54.81
-62.57
-71.651
-80.551
-87.849
-93.188
-96.579
-97.502
-95.838
-92.013
-86.577
-80.513
-74.978
-70.458
-67.143
-65.352
-65.114
-66.33
-68.882
-72.293
-75.927
-79.394
-82.409
-84.774
-86.475
-87.469
-87.701
-87.216
-86.098
-84.414
-82.239
-79.611
-76.534
-73.039
-69.175
-65.013
-60.645
-56.16
-51.635
-47.128
-42.674
-38.3
-34.026
-29.855
-25.787
-21.805
-17.888
-14.023
-10.204
-6.424
-2.675
1.059
4.799
8.562
12.363
16.213
20.12
24.089
28.127
32.235
36.409
40.645
44.936
49.277
53.664
58.093
62.559
67.054
71.57
76.098
80.628
85.15
89.648
94.109
98.514
102.848
107.091
111.226
115.233
119.092
122.784
126.288
129.587
132.66
135.488
138.053
140.338
142.326
144.001
145.35
146.36
147.019
147.318
147.25
146.809
145.991
144.793
143.214
141.257
138.925
136.221
133.154
129.732
125.967
121.87
117.459
112.748
107.758
102.507
97.017
91.31
85.41
79.34
73.125
66.79
60.361
53.863
47.323
40.765
34.216
27.699
21.239
14.859
8.582
2.429
-3.58
-9.426
-15.089
-20.553
-25.803
-30.824
-35.602
-40.127
-44.389
-48.379
-52.09
-55.519
-58.66
-61.513
-64.076
-66.352
-68.341
-70.047
-71.477
-72.636
-73.531
-74.17
-74.565
-74.724
-74.658
-74.381
-73.903
-73.238
-72.399
-71.4
-70.255
-68.977
-67.581
-66.083
-64.497
-62.837
-61.119
-59.357
-57.566
-55.759
-53.951
-52.154
-50.382
-48.648
-46.962
-45.336
-43.781
-42.307
-40.924
-39.639
-38.462
-37.397
-36.452
-35.632
-34.941
-34.381
-33.956
-33.666
-33.513
-33.496
-33.612
-33.861
-34.238
-34.738
-35.358
-36.089
-36.925
-37.858
-38.879
-39.977
-41.142
-42.364
-43.629
-44.926
-46.239
-47.557
-48.865
-50.149
-51.394
-52.586
-53.709
-54.75
-55.694
-56.529
-57.24
-57.815
-58.241
-58.508
-58.607
-58.528
-58.265
-57.811
-57.161
-56.314
-55.269
-54.025
-52.585
-50.952
-49.132
-47.131
-44.959
-42.626
-40.146
-37.532
-34.805
-31.985
-29.093
-26.153
-23.187
-20.222
-17.282
-14.392
-11.574
-8.849
-6.241
-3.775
-1.477
0.629
2.524
4.186
5.598
6.744
7.606
8.178
8.461
8.451
8.141
7.519
6.56
5.252
3.592
1.583
-0.77
-3.46
-6.47
-9.768
-13.298
-17.005
-20.839
-24.759
-28.738
-32.727
-36.655
-40.439
-43.983
-47.21
-50.076
-52.534
-54.535
-56.063
-57.113
-57.713
-57.964
-57.963
-57.794
-57.574
-57.393
-57.343
-57.604
-58.41
-59.924
-62.204
-65.104
-68.248
-71.27
-73.845
-75.54
-75.843
-74.323
-70.795
-65.735
-60.297
-55.75
-53.21
-53.577
-57.505
-65.386
-77.169
-91.476
-105.468
-115.684
-118.53
-110.703
-89.233
-51.356
5.577
81.369
171.733
271.288
374.062
477.444
584.995
697.759
809.822
908.288
971.096
978.61
925.59
817.188
668.205
499.329
325.263
159.208
17.164
-90.407
-156.177
-178.155
-166.645
-133.847
-91.813
-53.845
-26.242
-12.669
-12.78
-19.577
-28.28
-34.847
-38.681
-43.937
-51.587
-61.497
-72.417
-80.864
-85.644
-86.942
-84.78
-80.405
-75.315
-70.303
-66.191
-63.509
-62.174
-62.163
-63.611
-66.334
-69.918
-74.043
-78.343
-82.561
-86.665
-90.522
-93.909
-96.706
-98.846
-100.298
-101.097
-101.248
-100.717
-99.525
-97.719
-95.354
-92.502
-89.214
-85.532
-81.513
-77.227
-72.748
-68.16
-63.522
-58.873
-54.245
-49.656
-45.117
-40.634
-36.197
-31.786
-27.39
-22.993
-18.588
-14.17
-9.732
-5.261
-0.75
3.812
8.431
13.11
17.852
22.659
27.529
32.458
37.439
42.465
47.526
52.615
57.725
62.848
67.973
73.092
78.193
83.264
88.292
93.263
98.158
102.961
107.653
112.216
116.629
120.872
124.926
128.769
132.384
135.749
138.848
141.66
144.169
146.359
148.215
149.723
150.87
151.645
152.039
152.043
151.652
150.862
149.669
148.074
146.077
143.683
140.896
137.724
134.177
130.265
126.002
121.403
116.485
111.266
105.768
100.012
94.021
87.819
81.431
74.881
68.197
61.402
54.523
47.587
40.617
33.64
26.679
19.759
12.902
6.132
-0.53
-7.065
-13.453
-19.676
-25.717
-31.56
-37.193
-42.602
-47.777
-52.706
-57.383
-61.801
-65.954
-69.84
-73.455
-76.8
-79.876
-82.684
-85.227
-87.511
-89.541
-91.323
-92.864
-94.172
-95.255
-96.122
-96.783
-97.246
-97.523
-97.623
-97.557
-97.335
-96.969
-96.469
-95.846
-95.111
-94.275
-93.348
-92.341
-91.263
-90.126
-88.938
-87.709
-86.448
-85.162
-83.861
-82.551
-81.239
-79.932
-78.636
-77.355
-76.094
-74.858
-73.651
-72.474
-71.331
-70.224
-69.155
-68.124
-67.134
-66.183
-65.272
-64.4
-63.565
-62.766
-62
-61.263
-60.553
-59.865
-59.196
-58.541
-57.894
-57.25
-56.604
-55.95
-55.282
-54.592
-53.874
-53.121
-52.324
-51.479
-50.577
-49.613
-48.579
-47.471
-46.282
-45.007
-43.643
-42.184
-40.627
-38.969
-37.206
-35.338
-33.364
-31.284
-29.099
-26.811
-24.423
-21.941
-19.369
-16.714
-13.982
-11.181
-8.32
-5.411
-2.462
0.513
3.502
6.489
9.456
12.383
15.249
18.035
20.72
23.282
25.7
27.956
30.033
31.918
33.597
35.055
36.273
37.236
37.932
38.35
38.481
38.314
37.841
37.061
35.981
34.608
32.945
30.988
28.717
26.121
23.2
19.952
16.385
12.514
8.353
3.941
-0.662
-5.395
-10.195
-15.012
-19.816
-24.558
-29.177
-33.604
-37.744
-41.526
-44.901
-47.818
-50.251
-52.21
-53.726
-54.871
-55.757
-56.491
-57.209
-58.045
-59.098
-60.494
-62.312
-64.692
-67.932
-72.183
-77.407
-83.458
-89.909
-96.283
-102.291
-107.367
-110.597
-111.487
-110.006
-106.551
-102.301
-98.634
-96.606
-97.555
-103.404
-113.666
-125.161
-135.206
-140.101
-140.462
-142.496
-145.855
-144.658
-126.727
-74.123
19.781
150.026
304.81
468.279
630.17
781.282
909.398
997.766
1026.533
987.072
883.12
729.217
549.951
365.463
191.992
46.418
-62.175
-130.219
-160.17
-166.201
-163.114
-159.008
-157.221
-154.047
-144.322
-128.786
-110.853
-94.489
-83.508
-78.126
-76.703
-78.172
-81.469
-85.913
-90.851
-95.266
-98.306
-99.912
-100.495
-100.409
-99.73
-98.254
-96.07
-93.718
-91.97
-91.305
-91.759
-93.209
-95.587
-99.004
-103.467
-108.702
-114.176
-119.379
-124.043
-128.067
-131.439
-134.119
-136.024
-137.135
-137.524
-137.301
-136.544
-135.3
-133.569
-131.352
-128.702
-125.693
-122.418
-118.971
-115.407
-111.76
-108.053
-104.299
-100.507
-96.677
-92.792
-88.823
-84.752
-80.565
-76.259
-71.838
-67.294
-62.614
-57.781
-52.784
-47.614
-42.273
-36.76
-31.078
-25.233
-19.233
-13.094
-6.834
-0.467
5.993
12.532
19.136
25.79
32.477
39.178
45.876
52.55
59.177
65.736
72.201
78.547
84.75
90.783
96.622
102.241
107.616
112.723
117.539
122.041
126.21
130.025
133.469
136.524
139.177
141.415
143.226
144.601
145.534
146.02
146.058
145.646
144.787
143.484
141.742
139.571
136.978
133.977
130.58
126.803
122.664
118.183
113.381
108.283
102.913
97.296
91.46
85.434
79.244
72.92
66.49
59.984
53.429
46.853
40.285
33.751
27.278
20.889
14.608
8.459
2.463
-3.362
-8.996
-14.424
-19.628
-24.596
-29.315
-33.774
-37.964
-41.876
-45.506
-48.848
-51.9
-54.662
-57.133
-59.318
-61.219
-62.842
-64.195
-65.285
-66.122
-66.716
-67.079
-67.223
-67.16
-66.905
-66.47
-65.87
-65.119
-64.232
-63.224
-62.108
-60.899
-59.612
-58.259
-56.856
-55.415
-53.949
-52.472
-50.995
-49.53
-48.088
-46.68
-45.316
-44.004
-42.754
-41.572
-40.465
-39.441
-38.503
-37.655
-36.902
-36.245
-35.687
-35.228
-34.869
-34.609
-34.447
-34.382
-34.411
-34.531
-34.741
-35.034
-35.408
-35.857
-36.376
-36.958
-37.599
-38.29
-39.025
-39.798
-40.6
-41.425
-42.265
-43.111
-43.955
-44.79
-45.606
-46.396
-47.15
-47.859
-48.516
-49.112
-49.64
-50.091
-50.46
-50.737
-50.917
-50.994
-50.961
-50.812
-50.543
-50.149
-49.625
-48.971
-48.184
-47.263
-46.209
-45.022
-43.704
-42.259
-40.692
-39.005
-37.205
-35.298
-33.292
-31.195
-29.016
-26.768
-24.461
-22.113
-19.739
-17.357
-14.985
-12.64
-10.343
-8.114
-5.971
-3.929
-2.005
-0.216
1.423
2.893
4.175
5.256
6.122
6.761
7.163
7.317
7.219
6.873
6.282
5.445
4.358
3.004
1.37
-0.547
-2.749
-5.232
-7.987
-11.003
-14.251
-17.683
-21.25
-24.9
-28.589
-32.287
-35.953
-39.53
-42.951
-46.132
-48.999
-51.493
-53.563
-55.175
-56.32
-57.015
-57.314
-57.295
-57.062
-56.73
-56.417
-56.237
-56.296
-56.673
-57.52
-59.085
-61.541
-64.926
-69.107
-73.735
-78.467
-83.037
-86.987
-89.595
-90.25
-88.738
-85.429
-81.186
-77.081
-74.037
-73.01
-75.633
-82.154
-90.51
-98.239
-102.026
-102.313
-104.407
-109.096
-112.709
-102.865
-60.42
21.167
139.223
281.004
425.994
568.286
705.573
832.13
942.313
1015.864
1030.986
981.602
869.082
706.869
520.339
328.01
149.679
7.907
-90.148
-142.707
-157.409
-155.801
-149.821
-144.348
-140.348
-130.526
-113.818
-95.065
-78.129
-67.672
-65.173
-68.531
-75.619
-84.307
-92.376
-98.069
-100.501
-99.5
-95.527
-89.583
-82.597
-75.301
-68.549
-63.15
-59.515
-57.783
-57.829
-59.308
-61.935
-65.485
-69.695
-74.311
-79.119
-83.92
-88.525
-92.773
-96.533
-99.699
-102.208
-104.027
-105.135
-105.534
-105.264
-104.385
-102.959
-101.048
-98.703
-95.969
-92.913
-89.61
-86.141
-82.592
-79.019
-75.458
-71.935
-68.465
-65.052
-61.694
-58.369
-55.046
-51.704
-48.327
-44.902
-41.424
-37.877
-34.244
-30.511
-26.662
-22.69
-18.586
-14.347
-9.968
-5.451
-0.8
3.978
8.869
13.866
18.961
24.143
29.405
34.734
40.118
45.544
50.999
56.466
61.928
67.363
72.752
78.073
83.305
88.424
93.407
98.232
102.874
107.312
111.521
115.48
119.167
122.558
125.636
128.38
130.772
132.796
134.438
135.683
136.522
136.945
136.944
136.516
135.656
134.364
132.641
130.492
127.92
124.935
121.545
117.764
113.605
109.086
104.225
99.042
93.56
87.802
81.793
75.558
69.126
62.523
55.777
48.918
41.973
34.973
27.944
20.916
13.916
6.971
0.107
-6.651
-13.28
-19.755
-26.056
-32.164
-38.058
-43.722
-49.141
-54.3
-59.187
-63.792
-68.105
-72.121
-75.833
-79.238
-82.336
-85.126
-87.611
-89.796
-91.684
-93.284
-94.604
-95.652
-96.441
-96.981
-97.285
-97.366
-97.238
-96.916
-96.413
-95.745
-94.928
-93.975
-92.903
-91.728
-90.463
-89.125
-87.728
-86.287
-84.816
-83.329
-81.841
-80.363
-78.909
-77.491
-76.119
-74.804
-73.555
-72.38
-71.287
-70.281
-69.369
-68.553
-67.839
-67.227
-66.72
-66.318
-66.021
-65.828
-65.738
-65.748
-65.854
-66.054
-66.343
-66.716
-67.167
-67.69
-68.278
-68.925
-69.622
-70.362
-71.135
-71.933
-72.745
-73.562
-74.374
-75.169
-75.937
-76.666
-77.345
-77.963
-78.512
-78.98
-79.358
-79.637
-79.808
-79.865
-79.799
-79.604
-79.275
-78.805
-78.191
-77.429
-76.519
-75.459
-74.249
-72.89
-71.386
-69.739
-67.955
-66.039
-63.999
-61.84
-59.574
-57.21
-54.759
-52.235
-49.651
-47.026
-44.379
-41.73
-39.102
-36.516
-33.994
-31.561
-29.237
-27.043
-24.994
-23.107
-21.396
-19.88
-18.577
-17.5
-16.664
-16.078
-15.751
-15.691
-15.901
-16.38
-17.118
-18.108
-19.347
-20.843
-22.612
-24.668
-27.011
-29.639
-32.546
-35.719
-39.139
-42.767
-46.543
-50.406
-54.3
-58.175
-61.998
-65.719
-69.271
-72.575
-75.537
-78.075
-80.131
-81.662
-82.633
-83.05
-82.933
-82.325
-81.347
-80.127
-78.797
-77.521
-76.434
-75.65
-75.351
-75.785
-77.146
-79.532
-82.807
-86.536
-90.221
-93.417
-95.604
-96.131
-94.418
-90.242
-84.108
-77.333
-71.612
-68.34
-68.617
-73.84
-84.94
-101.651
-122.428
-142.739
-157.076
-162.164
-153.885
-130.434
-90.422
-28.408
54.728
158.225
281.227
415.593
561.334
715.173
863.216
992.395
1078.883
1099.028
1047.857
928.351
753.867
549.536
335.542
132.294
-35.532
-153.35
-217.371
-233.579
-220.36
-197.487
-172.553
-146.612
-120.582
-91.677
-64.752
-48.602
-42.122
-45.004
-54.801
-64.233
-72.986
-80.995
-86.538
-90.541
-91.81
-88.989
-82.547
-73.273
-62.833
-52.892
-44.422
-37.871
-33.262
-30.595
-29.937
-31.043
-33.411
-36.589
-40.132
-43.782
-47.455
-50.965
-54.071
-56.627
-58.548
-59.801
-60.409
-60.36
-59.619
-58.21
-56.182
-53.597
-50.535
-47.057
-43.214
-39.078
-34.728
-30.25
-25.734
-21.241
-16.81
-12.471
-8.24
-4.122
-0.119
3.789
7.626
11.412
15.166
18.901
22.628
26.362
30.119
33.916
37.766
41.681
45.667
49.732
53.88
58.111
62.425
66.816
71.279
75.807
80.396
85.042
89.739
94.481
99.26
104.067
108.893
113.725
118.55
123.351
128.111
132.813
137.439
141.97
146.385
150.665
154.789
158.737
162.489
166.022
169.317
172.354
175.113
177.576
179.724
181.543
183.015
184.127
184.867
185.224
185.188
184.751
183.908
182.654
180.987
178.908
176.419
173.525
170.232
166.549
162.488
158.063
153.289
148.183
142.764
137.053
131.071
124.843
118.392
111.745
104.927
97.966
90.889
83.725
76.502
69.247
61.987
54.751
47.565
40.454
33.445
26.561
19.826
13.263
6.892
0.732
-5.197
-10.881
-16.304
-21.455
-26.321
-30.894
-35.167
-39.133
-42.79
-46.134
-49.165
-51.884
-54.295
-56.401
-58.208
-59.725
-60.958
-61.919
-62.617
-63.065
-63.274
-63.258
-63.031
-62.606
-61.999
-61.224
-60.297
-59.233
-58.048
-56.759
-55.379
-53.924
-52.409
-50.848
-49.254
-47.641
-46.021
-44.407
-42.81
-41.24
-39.708
-38.223
-36.795
-35.43
-34.136
-32.919
-31.785
-30.737
-29.781
-28.918
-28.153
-27.487
-26.921
-26.457
-26.092
-25.828
-25.661
-25.591
-25.613
-25.723
-25.918
-26.193
-26.542
-26.96
-27.44
-27.977
-28.562
-29.189
-29.85
-30.537
-31.24
-31.95
-32.658
-33.355
-34.032
-34.678
-35.285
-35.843
-36.342
-36.773
-37.127
-37.395
-37.568
-37.636
-37.593
-37.429
-37.141
-36.72
-36.163
-35.466
-34.625
-33.64
-32.509
-31.234
-29.815
-28.254
-26.556
-24.727
-22.773
-20.701
-18.522
-16.247
-13.892
-11.471
-9.003
-6.506
-3.998
-1.5
0.968
3.386
5.736
8
10.162
12.201
14.096
15.826
17.373
18.72
19.852
20.752
21.405
21.804
21.947
21.832
21.456
20.808
19.867
18.618
17.054
15.171
12.971
10.465
7.663
4.595
1.312
-2.136
-5.698
-9.329
-13.002
-16.678
-20.306
-23.819
-27.137
-30.186
-32.915
-35.276
-37.234
-38.781
-39.932
-40.74
-41.299
-41.711
-42.08
-42.516
-43.128
-44.029
-45.329
-47.184
-49.806
-53.34
-57.824
-63.114
-68.844
-74.576
-79.867
-84.162
-86.775
-87.147
-85.038
-80.843
-75.598
-70.56
-66.965
-65.918
-68.478
-75.454
-86.838
-101.143
-115.643
-126.856
-130.802
-123.654
-101.541
-60.455
1.358
81.923
177.59
283.023
394.455
512.454
636.219
761.165
876.482
964.458
1005.844
986.45
902.833
760.487
575.846
373.39
176.321
9.791
-108.082
-175
-196.824
-190.804
-177.506
-165.951
-158.578
-151.566
-137.728
-117.039
-93.07
-69.39
-50.207
-36.707
-28.35
-25.073
-25.951
-29.848
-36.009
-43.779
-52.791
-62.603
-72.151
-80.278
-86.429
-90.529
-92.828
-93.677
-93.26
-91.96
-90.614
-89.974
-90.434
-92.094
-94.755
-98.103
-101.893
-105.818
-109.43
-112.404
-114.577
-115.881
-116.386
-116.18
-115.319
-113.875
-111.944
-109.585
-106.838
-103.748
-100.346
-96.688
-92.866
-88.945
-84.978
-81.005
-77.049
-73.126
-69.251
-65.423
-61.629
-57.863
-54.128
-50.431
-46.784
-43.191
-39.649
-36.152
-32.693
-29.268
-25.871
-22.499
-19.152
-15.831
-12.54
-9.288
-6.082
-2.93
0.166
3.204
6.183
9.102
11.957
14.747
17.47
20.123
22.701
25.199
27.61
29.929
32.151
34.271
36.283
38.181
39.96
41.614
43.137
44.523
45.765
46.857
47.792
48.565
49.171
49.605
49.861
49.937
49.829
49.535
49.052
48.378
47.513
46.455
45.205
43.763
42.131
40.313
38.31
36.127
33.77
31.245
28.558
25.717
22.73
19.605
16.352
12.98
9.5
5.922
2.256
-1.484
-5.288
-9.144
-13.039
-16.962
-20.902
-24.846
-28.784
-32.705
-36.598
-40.453
-44.258
-48.005
-51.682
-55.282
-58.794
-62.211
-65.524
-68.728
-71.815
-74.779
-77.614
-80.317
-82.882
-85.305
-87.581
-89.709
-91.686
-93.508
-95.176
-96.688
-98.044
-99.245
-100.29
-101.181
-101.92
-102.507
-102.945
-103.236
-103.383
-103.388
-103.255
-102.988
-102.592
-102.07
-101.429
-100.673
-99.807
-98.837
-97.768
-96.607
-95.358
-94.029
-92.626
-91.154
-89.623
-88.039
-86.409
-84.742
-83.045
-81.326
-79.593
-77.853
-76.113
-74.381
-72.665
-70.972
-69.308
-67.682
-66.099
-64.565
-63.087
-61.669
-60.314
-59.026
-57.808
-56.661
-55.587
-54.586
-53.66
-52.807
-52.028
-51.32
-50.682
-50.111
-49.604
-49.155
-48.759
-48.41
-48.099
-47.82
-47.564
-47.323
-47.088
-46.848
-46.594
-46.315
-46.001
-45.642
-45.227
-44.746
-44.187
-43.542
-42.803
-41.963
-41.015
-39.954
-38.776
-37.479
-36.06
-34.519
-32.857
-31.073
-29.17
-27.151
-25.02
-22.785
-20.451
-18.028
-15.528
-12.966
-10.359
-7.725
-5.082
-2.452
0.146
2.689
5.157
7.531
9.795
11.929
13.914
15.728
17.348
18.758
19.94
20.879
21.561
21.973
22.109
21.971
21.561
20.878
19.911
18.637
17.037
15.101
12.824
10.209
7.266
4.008
0.469
-3.29
-7.21
-11.229
-15.292
-19.369
-23.413
-27.362
-31.146
-34.666
-37.834
-40.591
-42.881
-44.675
-45.977
-46.818
-47.27
-47.445
-47.472
-47.507
-47.699
-48.17
-49.046
-50.415
-52.432
-55.399
-59.49
-64.692
-70.848
-77.512
-84.208
-90.619
-96.162
-99.941
-101.41
-100.469
-97.515
-93.726
-90.451
-88.764
-89.99
-95.897
-106.072
-117.525
-127.354
-131.653
-130.597
-129.728
-129.094
-123.758
-102.135
-46.212
51.533
187.023
348.095
515.587
676.563
823.457
947.497
1040.17
1088.024
1077.173
1003.199
867.899
684.109
476.278
269.722
93.642
-29.277
-95.396
-112.872
-103.564
-92.126
-89.116
-95.503
-104.229
-105.816
-98.887
-86.863
-74.155
-64.9
-59.703
-57.542
-57.603
-59.016
-61.766
-65.815
-70.75
-76.561
-82.985
-89.292
-95.204
-100.381
-104.093
-106.15
-106.596
-105.422
-103.215
-100.886
-98.881
-97.568
-97.367
-98.305
-100.371
-103.521
-107.304
-111.122
-114.584
-117.414
-119.466
-120.764
-121.297
-121.032
-120.044
-118.437
-116.306
-113.724
-110.715
-107.273
-103.419
-99.212
-94.731
-90.067
-85.3
-80.483
-75.65
-70.827
-66.031
-61.272
-56.55
-51.855
-47.169
-42.483
-37.798
-33.115
-28.434
-23.748
-19.042
-14.303
-9.52
-4.685
0.205
5.151
10.154
15.209
20.311
25.451
30.617
35.8
40.992
46.184
51.368
56.532
61.665
66.753
71.784
76.742
81.612
86.375
91.014
95.509
99.842
103.993
107.943
111.671
115.159
118.387
121.338
123.994
126.337
128.353
130.027
131.346
132.297
132.873
133.063
132.864
132.27
131.281
129.896
128.12
125.955
123.409
120.49
117.21
113.581
109.617
105.334
100.751
95.885
90.76
85.397
79.82
74.054
68.125
62.057
55.879
49.617
43.296
36.944
30.585
24.247
17.954
11.729
5.596
-0.423
-6.307
-12.038
-17.596
-22.966
-28.134
-33.086
-37.811
-42.299
-46.544
-50.537
-54.275
-57.754
-60.972
-63.928
-66.625
-69.063
-71.246
-73.18
-74.871
-76.324
-77.548
-78.551
-79.342
-79.931
-80.327
-80.541
-80.583
-80.464
-80.194
-79.784
-79.246
-78.59
-77.826
-76.966
-76.019
-74.996
-73.905
-72.755
-71.556
-70.315
-69.04
-67.739
-66.42
-65.089
-63.753
-62.42
-61.095
-59.784
-58.495
-57.232
-56.001
-54.807
-53.655
-52.551
-51.499
-50.505
-49.573
-48.707
-47.913
-47.194
-46.555
-45.998
-45.527
-45.144
-44.85
-44.648
-44.537
-44.52
-44.595
-44.762
-45.021
-45.369
-45.805
-46.324
-46.923
-47.597
-48.34
-49.146
-50.006
-50.912
-51.856
-52.826
-53.814
-54.809
-55.798
-56.769
-57.711
-58.608
-59.45
-60.22
-60.907
-61.495
-61.973
-62.327
-62.546
-62.619
-62.537
-62.29
-61.87
-61.272
-60.49
-59.52
-58.36
-57.007
-55.463
-53.731
-51.815
-49.72
-47.456
-45.035
-42.471
-39.783
-36.987
-34.105
-31.158
-28.169
-25.164
-22.164
-19.192
-16.272
-13.426
-10.681
-8.065
-5.607
-3.329
-1.258
0.584
2.177
3.499
4.536
5.283
5.733
5.875
5.694
5.162
4.257
2.968
1.291
-0.773
-3.214
-6.019
-9.155
-12.566
-16.198
-19.997
-23.916
-27.928
-31.994
-36.058
-40.046
-43.865
-47.433
-50.692
-53.594
-56.101
-58.204
-59.914
-61.285
-62.415
-63.405
-64.361
-65.389
-66.588
-68.068
-69.938
-72.357
-75.553
-79.667
-84.706
-90.486
-96.567
-102.45
-107.68
-111.684
-113.749
-113.365
-110.361
-105.236
-99.266
-93.882
-90.33
-89.715
-92.996
-100.738
-112.749
-127.325
-141.191
-150.428
-151.108
-139.401
-111.63
-64.551
4.341
93.742
198.187
311.761
427.56
542.259
658.496
774.126
883.107
974.65
1025.801
1018.861
945.841
805.375
618.134
413.018
218.25
64.848
-35.374
-86.406
-100.503
-101.153
-101.795
-104.797
-108.573
-105.069
-92.854
-77.216
-62.667
-54.164
-53.324
-58.146
-66.615
-76.767
-86.324
-93.41
-97.062
-96.951
-93.468
-87.605
-80.301
-72.319
-64.596
-58.035
-53.094
-49.981
-48.628
-48.719
-50.021
-52.338
-55.416
-59.014
-62.932
-66.974
-70.971
-74.768
-78.166
-81.001
-83.171
-84.597
-85.255
-85.139
-84.258
-82.65
-80.38
-77.51
-74.1
-70.205
-65.875
-61.18
-56.203
-51.032
-45.761
-40.456
-35.164
-29.919
-24.739
-19.633
-14.599
-9.622
-4.679
0.246
5.162
10.074
14.985
19.901
24.831
29.783
34.766
39.785
44.838
49.927
55.049
60.198
65.365
70.54
75.708
80.858
85.981
91.068
96.11
101.097
106.02
110.867
115.629
120.293
124.845
129.271
133.554
137.679
141.629
145.387
148.937
152.262
155.344
158.168
160.718
162.981
164.941
166.586
167.906
168.89
169.531
169.821
169.756
169.332
168.547
167.4
165.893
164.029
161.811
159.245
156.339
153.1
149.541
145.671
141.504
137.056
132.342
127.381
122.191
116.793
111.209
105.46
99.571
93.566
87.469
81.304
75.096
68.869
62.647
56.452
50.307
44.233
38.25
32.377
26.631
21.03
15.587
10.319
5.236
0.351
-4.327
-8.788
-13.025
-17.031
-20.803
-24.336
-27.628
-30.677
-33.484
-36.051
-38.379
-40.473
-42.336
-43.976
-45.399
-46.613
-47.627
-48.449
-49.09
-49.56
-49.868
-50.025
-50.042
-49.929
-49.695
-49.351
-48.907
-48.373
-47.757
-47.07
-46.319
-45.514
-44.664
-43.775
-42.856
-41.915
-40.96
-39.997
-39.033
-38.076
-37.132
-36.208
-35.31
-34.442
-33.611
-32.822
-32.078
-31.384
-30.744
-30.16
-29.637
-29.178
-28.783
-28.457
-28.2
-28.015
-27.901
-27.86
-27.891
-27.995
-28.17
-28.415
-28.729
-29.109
-29.551
-30.055
-30.613
-31.223
-31.878
-32.571
-33.297
-34.047
-34.812
-35.585
-36.356
-37.114
-37.852
-38.558
-39.223
-39.835
-40.385
-40.862
-41.255
-41.555
-41.751
-41.835
-41.796
-41.628
-41.324
-40.878
-40.283
-39.536
-38.634
-37.574
-36.355
-34.98
-33.448
-31.763
-29.93
-27.957
-25.851
-23.623
-21.283
-18.846
-16.327
-13.746
-11.121
-8.473
-5.823
-3.193
-0.607
1.912
4.343
6.667
8.864
10.912
12.79
14.476
15.95
17.194
18.191
18.925
19.382
19.551
19.431
19.021
18.318
17.318
16.003
14.36
12.386
10.079
7.442
4.492
1.244
-2.268
-5.99
-9.867
-13.847
-17.879
-21.934
-25.974
-29.944
-33.787
-37.426
-40.786
-43.818
-46.47
-48.693
-50.487
-51.879
-52.94
-53.794
-54.54
-55.254
-56.049
-57.027
-58.295
-59.979
-62.135
-64.845
-68.31
-72.658
-77.887
-83.821
-89.977
-95.792
-100.842
-104.592
-106.314
-105.49
-101.955
-96.202
-89.502
-83.114
-78.175
-75.915
-77.647
-84.61
-95.517
-106.051
-111.901
-108.659
-97.045
-83.572
-68.472
-48.735
-15.28
50.405
154.972
296.984
469.166
649
817.517
957.27
1048.899
1082.474
1050.643
952.797
796.513
595.118
371.891
151.854
-37.534
-173.09
-249.641
-270.423
-248.385
-205.174
-153.009
-104.308
-73.061
-61.123
-69.805
-93.867
-116.926
-131.444
-135.112
-129.376
-123.663
-121.962
-122.834
-124.764
-124.416
-120.651
-115.025
-108.657
-102.42
-97.075
-93.018
-90.486
-89.637
-90.363
-92.326
-95.276
-99.061
-103.478
-108.3
-113.31
-118.273
-122.978
-127.27
-131.016
-134.104
-136.467
-138.07
-138.896
-138.952
-138.281
-136.94
-134.991
-132.5
-129.522
-126.111
-122.341
-118.295
-114.061
-109.729
-105.361
-100.996
-96.665
-92.385
-88.163
-83.998
-79.874
-75.763
-71.646
-67.512
-63.349
-59.154
-54.913
-50.608
-46.227
-41.757
-37.188
-32.517
-27.739
-22.852
-17.859
-12.766
-7.583
-2.322
3.007
8.394
13.83
19.304
24.806
30.322
35.841
41.349
46.83
52.269
57.647
62.945
68.142
73.22
78.157
82.931
87.522
91.907
96.065
99.976
103.616
106.967
110.007
112.718
115.082
117.084
118.709
119.945
120.78
121.208
121.222
120.819
119.996
118.755
117.099
115.031
112.56
109.693
106.442
102.817
98.834
94.509
89.859
84.903
79.663
74.16
68.418
62.461
56.315
50.006
43.561
37.008
30.374
23.688
16.978
10.271
3.593
-3.027
-9.567
-16
-22.305
-28.46
-34.447
-40.245
-45.84
-51.217
-56.362
-61.265
-65.915
-70.304
-74.426
-78.276
-81.849
-85.144
-88.159
-90.895
-93.354
-95.537
-97.451
-99.101
-100.492
-101.635
-102.538
-103.211
-103.666
-103.914
-103.969
-103.844
-103.553
-103.111
-102.53
-101.827
-101.015
-100.109
-99.123
-98.07
-96.963
-95.814
-94.637
-93.442
-92.24
-91.041
-89.856
-88.693
-87.563
-86.472
-85.429
-84.441
-83.516
-82.659
-81.875
-81.171
-80.549
-80.012
-79.564
-79.206
-78.938
-78.761
-78.674
-78.676
-78.765
-78.937
-79.189
-79.516
-79.913
-80.375
-80.895
-81.467
-82.085
-82.739
-83.425
-84.134
-84.858
-85.591
-86.324
-87.049
-87.758
-88.443
-89.094
-89.702
-90.258
-90.754
-91.179
-91.526
-91.787
-91.952
-92.014
-91.965
-91.798
-91.508
-91.087
-90.531
-89.834
-88.993
-88.006
-86.87
-85.587
-84.155
-82.578
-80.858
-79
-77.008
-74.889
-72.649
-70.295
-67.836
-65.281
-62.64
-59.925
-57.148
-54.324
-51.471
-48.608
-45.754
-42.929
-40.153
-37.448
-34.834
-32.332
-29.957
-27.726
-25.653
-23.758
-22.059
-20.574
-19.319
-18.307
-17.549
-17.056
-16.838
-16.898
-17.229
-17.827
-18.691
-19.826
-21.252
-22.985
-25.027
-27.381
-30.041
-32.993
-36.223
-39.698
-43.361
-47.156
-51.026
-54.922
-58.817
-62.667
-66.415
-69.993
-73.307
-76.276
-78.845
-80.963
-82.6
-83.759
-84.459
-84.761
-84.763
-84.575
-84.32
-84.138
-84.16
-84.527
-85.367
-86.849
-89.247
-92.727
-97.299
-102.766
-108.62
-114.297
-119.34
-123.174
-125.084
-124.619
-121.678
-116.853
-111.638
-107.611
-106.072
-108.181
-114.791
-126.231
-142.032
-160.1
-176.729
-187.756
-188.768
-175.534
-144.464
-92.027
-17.18
76.549
183.996
298.886
416.984
540.622
670.417
799.844
916.281
997.032
1019.005
973.477
861.845
696.59
502.27
299.72
109.038
-47.178
-158.263
-221.947
-243.375
-240.438
-229.126
-216.108
-203.498
-187.334
-162.675
-131.203
-97.516
-66.148
-41.904
-27.131
-21.43
-23.675
-32.336
-45.54
-61.413
-78.572
-95.366
-109.645
-120.305
-127.003
-129.657
-128.921
-125.675
-120.508
-114.409
-108.752
-104.255
-101.25
-99.878
-99.791
-100.652
-102.23
-104.027
-105.47
-106.254
-106.199
-105.27
-103.596
-101.226
-98.177
-94.543
-90.408
-85.836
-80.885
-75.565
-69.886
-63.898
-57.672
-51.295
-44.841
-38.351
-31.856
-25.377
-18.927
-12.524
-6.169
0.151
6.44
12.696
18.918
25.103
31.251
37.375
43.488
49.602
55.731
61.881
68.056
74.261
80.496
86.759
93.043
99.341
105.647
111.956
118.261
124.555
130.831
137.077
143.282
149.434
155.518
161.517
167.413
173.188
178.821
184.294
189.585
194.673
199.537
204.156
208.507
212.57
216.323
219.747
222.82
225.524
227.84
229.753
231.248
232.31
232.928
233.092
232.796
232.034
230.802
229.101
226.932
224.298
221.208
217.669
213.693
209.295
204.489
199.295
193.734
187.828
181.602
175.08
168.291
161.262
154.022
146.602
139.032
131.343
123.564
115.728
107.865
100.006
92.179
84.414
76.739
69.181
61.766
54.517
47.458
40.61
33.992
27.622
21.517
15.689
10.152
4.915
-0.015
-4.631
-8.929
-12.908
-16.567
-19.909
-22.937
-25.655
-28.071
-30.191
-32.025
-33.583
-34.876
-35.916
-36.715
-37.288
-37.647
-37.809
-37.787
-37.596
-37.252
-36.771
-36.168
-35.458
-34.658
-33.781
-32.844
-31.861
-30.845
-29.81
-28.768
-27.733
-26.714
-25.723
-24.77
-23.864
-23.013
-22.224
-21.504
-20.861
-20.298
-19.821
-19.434
-19.142
-18.945
-18.849
-18.853
-18.961
-19.172
-19.487
-19.905
-20.425
-21.045
-21.762
-22.573
-23.474
-24.459
-25.524
-26.663
-27.869
-29.136
-30.455
-31.82
-33.221
-34.651
-36.1
-37.558
-39.016
-40.463
-41.89
-43.287
-44.644
-45.95
-47.194
-48.366
-49.454
-50.45
-51.34
-52.114
-52.762
-53.274
-53.64
-53.854
-53.907
-53.791
-53.502
-53.037
-52.392
-51.568
-50.562
-49.377
-48.015
-46.482
-44.783
-42.927
-40.922
-38.78
-36.515
-34.145
-31.686
-29.156
-26.576
-23.966
-21.348
-18.744
-16.175
-13.659
-11.219
-8.876
-6.656
-4.583
-2.682
-0.975
0.517
1.774
2.776
3.507
3.963
4.14
4.031
3.628
2.911
1.861
0.475
-1.252
-3.321
-5.719
-8.436
-11.445
-14.697
-18.143
-21.743
-25.457
-29.265
-33.142
-37.04
-40.906
-44.671
-48.263
-51.64
-54.753
-57.54
-59.985
-62.102
-63.943
-65.607
-67.163
-68.65
-70.132
-71.686
-73.405
-75.393
-77.705
-80.427
-83.753
-87.823
-92.662
-98.089
-103.609
-108.677
-112.857
-115.608
-116.268
-114.349
-109.691
-102.938
-95.519
-88.812
-84.096
-82.708
-85.891
-94.689
-108.131
-122.242
-132.476
-135.683
-132.511
-125.954
-115.322
-93.204
-46.973
32.565
146.098
283.817
429.394
573.976
712.368
838.091
943.608
1009.584
1015.391
954.45
829.017
653.075
450.664
240.786
42.622
-122.007
-241.743
-312.159
-336.173
-327.349
-297.111
-252.58
-202.21
-154.631
-117.983
-98.134
-93.254
-93.566
-90.505
-81.314
-68.375
-58.563
-56.581
-62.176
-72.945
-85.526
-97.344
-106.951
-113.81
-117.949
-119.429
-118.692
-116.231
-112.354
-107.783
-103.618
-100.545
-98.93
-98.883
-100.081
-102.223
-105.081
-108.227
-111.151
-113.528
-115.173
-116.037
-116.217
-115.769
-114.72
-113.144
-111.123
-108.718
-105.974
-102.909
-99.533
-95.889
-92.046
-88.083
-84.057
-80.004
-75.945
-71.89
-67.844
-63.81
-59.773
-55.712
-51.614
-47.473
-43.284
-39.045
-34.747
-30.373
-25.91
-21.343
-16.66
-11.853
-6.917
-1.849
3.347
8.666
14.1
19.636
25.266
30.98
36.767
42.617
48.517
54.451
60.405
66.362
72.302
78.206
84.051
89.814
95.473
101.005
106.386
111.592
116.599
121.384
125.922
130.192
134.171
137.837
141.17
144.15
146.76
148.985
150.809
152.22
153.209
153.766
153.887
153.568
152.806
151.604
149.964
147.891
145.394
142.483
139.17
135.47
131.399
126.975
122.22
117.155
111.804
106.191
100.343
94.287
88.05
81.66
75.147
68.54
61.867
55.157
48.439
41.74
35.089
28.51
22.029
15.67
9.456
3.407
-2.455
-8.114
-13.553
-18.757
-23.712
-28.407
-32.834
-36.984
-40.851
-44.433
-47.726
-50.73
-53.445
-55.875
-58.023
-59.895
-61.496
-62.835
-63.921
-64.763
-65.373
-65.763
-65.945
-65.932
-65.738
-65.377
-64.862
-64.208
-63.43
-62.542
-61.558
-60.493
-59.36
-58.172
-56.943
-55.685
-54.411
-53.132
-51.858
-50.6
-49.366
-48.167
-47.01
-45.902
-44.852
-43.863
-42.943
-42.096
-41.327
-40.637
-40.032
-39.511
-39.077
-38.731
-38.473
-38.301
-38.216
-38.214
-38.293
-38.45
-38.681
-38.982
-39.348
-39.773
-40.251
-40.778
-41.346
-41.949
-42.581
-43.233
-43.899
-44.572
-45.243
-45.904
-46.546
-47.16
-47.739
-48.274
-48.756
-49.177
-49.528
-49.801
-49.989
-50.084
-50.079
-49.966
-49.738
-49.389
-48.916
-48.314
-47.58
-46.712
-45.709
-44.572
-43.303
-41.903
-40.376
-38.725
-36.955
-35.073
-33.085
-31.001
-28.829
-26.58
-24.269
-21.911
-19.524
-17.126
-14.735
-12.37
-10.05
-7.796
-5.626
-3.556
-1.6
0.226
1.903
3.41
4.731
5.85
6.753
7.426
7.859
8.036
7.957
7.624
7.04
6.203
5.106
3.725
2.05
0.079
-2.188
-4.742
-7.569
-10.652
-13.951
-17.405
-20.956
-24.542
-28.118
-31.658
-35.114
-38.427
-41.535
-44.35
-46.81
-48.878
-50.508
-51.677
-52.399
-52.706
-52.677
-52.436
-52.092
-51.764
-51.589
-51.694
-52.214
-53.244
-54.907
-57.407
-60.848
-65.23
-70.375
-75.81
-81.06
-85.799
-89.543
-91.652
-91.7
-89.44
-85.243
-80.391
-75.979
-72.626
-71.248
-72.8
-77.688
-86.138
-95.835
-101.514
-100.403
-90.989
-73.17
-50.194
-18.064
30.898
100.28
194.924
309.48
431.95
559.125
684.864
803.273
909.484
982.603
1001.001
953.671
834.936
659.429
456.238
250.588
71.093
-61.242
-144.292
-181.793
-188.314
-184.429
-178.474
-172.413
-163.408
-144.447
-116.04
-83.665
-52.92
-29.486
-15.57
-10.916
-14.616
-24.585
-38.416
-53.465
-67.22
-78.462
-86.617
-91.076
-91.778
-89.114
-83.835
-77.429
-71.437
-66.597
-63.284
-61.794
-62.107
-64.158
-67.79
-72.42
-77.37
-82.206
-86.613
-90.424
-93.628
-96.168
-97.989
-99.13
-99.652
-99.617
-99.09
-98.087
-96.602
-94.652
-92.268
-89.51
-86.457
-83.187
-79.776
-76.277
-72.723
-69.143
-65.556
-61.973
-58.399
-54.821
-51.218
-47.579
-43.9
-40.176
-36.403
-32.569
-28.654
-24.644
-20.527
-16.296
-11.949
-7.483
-2.895
1.81
6.626
11.543
16.548
21.629
26.778
31.985
37.238
42.523
47.827
53.135
58.433
63.705
68.934
74.1
79.183
84.165
89.026
93.744
98.301
102.674
106.843
110.789
114.493
117.934
121.094
123.956
126.504
128.721
130.596
132.116
133.27
134.052
134.454
134.475
134.112
133.366
132.239
130.736
128.863
126.63
124.045
121.121
117.871
114.31
110.453
106.32
101.93
97.303
92.461
87.425
82.219
76.866
71.392
65.818
60.171
54.475
48.753
43.029
37.327
31.668
26.074
20.564
15.157
9.869
4.715
-0.291
-5.138
-9.816
-14.317
-18.636
-22.766
-26.706
-30.452
-34.005
-37.364
-40.533
-43.514
-46.31
-48.927
-51.371
-53.648
-55.765
-57.73
-59.553
-61.241
-62.805
-64.254
-65.598
-66.848
-68.013
-69.104
-70.13
-71.1
-72.024
-72.909
-73.761
-74.588
-75.394
-76.183
-76.959
-77.724
-78.481
-79.23
-79.973
-80.708
-81.437
-82.159
-82.874
-83.581
-84.28
-84.97
-85.65
-86.321
-86.982
-87.634
-88.277
-88.91
-89.535
-90.152
-90.761
-91.364
-91.96
-92.55
-93.137
-93.722
-94.306
-94.892
-95.482
-96.08
-96.69
-97.315
-97.96
-98.627
-99.322
-100.047
-100.806
-101.601
-102.434
-103.307
-104.22
-105.173
-106.165
-107.194
-108.256
-109.346
-110.46
-111.59
-112.73
-113.871
-115.005
-116.121
-117.21
-118.264
-119.27
-120.219
-121.1
-121.902
-122.613
-123.224
-123.722
-124.097
-124.339
-124.437
-124.382
-124.168
-123.787
-123.233
-122.503
-121.596
-120.513
-119.254
-117.825
-116.232
-114.482
-112.585
-110.551
-108.392
-106.121
-103.752
-101.299
-98.78
-96.215
-93.622
-91.022
-88.439
-85.893
-83.405
-80.996
-78.678
-76.467
-74.378
-72.428
-70.645
-69.048
-67.656
-66.484
-65.547
-64.851
-64.396
-64.16
-64.104
-64.188
-64.374
-64.63
-64.934
-65.259
-65.573
-65.835
-65.998
-66.02
-65.874
-65.526
-64.943
-64.107
-63.035
-61.813
-60.58
-59.471
-58.6
-58.032
-57.833
-58.102
-58.955
-60.498
-62.806
-65.886
-69.78
-74.655
-80.585
-87.447
-94.833
-101.99
-108.154
-112.755
-115.181
-114.714
-110.935
-103.901
-94.458
-84.262
-74.792
-67.36
-63.346
-63.618
-68.475
-76.119
-81.962
-82.51
-75.175
-59.046
-36.387
-2.918
48.539
121.49
220.937
340.852
468.172
598.704
724.874
839.924
939.577
1003.617
1011.334
952.971
824.543
641.39
431.526
219.673
30.45
-116.777
-213.215
-255.121
-244.667
-195.274
-125.365
-55.135
-6.813
10.055
-1.698
-31.516
-59.785
-75.233
-76.908
-68.656
-60.751
-58.033
-58.982
-61.501
-61.924
-58.998
-54.175
-48.518
-42.963
-38.28
-34.789
-32.694
-32.126
-32.923
-34.76
-37.418
-40.743
-44.565
-48.693
-52.937
-57.095
-60.996
-64.508
-67.517
-69.931
-71.691
-72.771
-73.159
-72.868
-71.946
-70.447
-68.429
-65.954
-63.068
-59.815
-56.259
-52.466
-48.515
-44.483
-40.424
-36.371
-32.352
-28.379
-24.459
-20.59
-16.752
-12.92
-9.075
-5.204
-1.295
2.657
6.665
10.746
14.911
19.173
23.541
28.02
32.615
37.327
42.156
47.096
52.14
57.276
62.495
67.789
73.149
78.565
84.027
89.522
95.037
100.561
106.077
111.568
117.017
122.405
127.71
132.913
137.993
142.927
147.694
152.272
156.639
160.773
164.652
168.257
171.565
174.559
177.221
179.534
181.482
183.054
184.237
185.022
185.401
185.37
184.925
184.064
182.788
181.099
179.003
176.506
173.616
170.343
166.699
162.699
158.36
153.697
148.732
143.485
137.977
132.232
126.274
120.129
113.822
107.379
100.827
94.194
87.506
80.789
74.071
67.376
60.73
54.156
47.678
41.317
35.094
29.027
23.135
17.434
11.939
6.663
1.618
-3.185
-7.739
-12.035
-16.069
-19.837
-23.335
-26.564
-29.524
-32.217
-34.646
-36.816
-38.732
-40.403
-41.836
-43.041
-44.028
-44.808
-45.393
-45.797
-46.03
-46.108
-46.044
-45.851
-45.544
-45.135
-44.639
-44.07
-43.44
-42.763
-42.05
-41.314
-40.566
-39.817
-39.077
-38.355
-37.661
-37.002
-36.385
-35.817
-35.304
-34.85
-34.462
-34.141
-33.89
-33.713
-33.609
-33.579
-33.623
-33.739
-33.926
-34.18
-34.498
-34.877
-35.311
-35.795
-36.323
-36.889
-37.486
-38.108
-38.746
-39.394
-40.043
-40.685
-41.313
-41.919
-42.493
-43.029
-43.518
-43.951
-44.322
-44.623
-44.847
-44.987
-45.036
-44.988
-44.836
-44.577
-44.205
-43.715
-43.104
-42.369
-41.508
-40.521
-39.406
-38.165
-36.8
-35.312
-33.707
-31.99
-30.166
-28.242
-26.226
-24.128
-21.955
-19.721
-17.436
-15.114
-12.771
-10.423
-8.09
-5.789
-3.54
-1.362
0.724
2.7
4.549
6.258
7.81
9.191
10.385
11.373
12.141
12.675
12.961
12.991
12.751
12.237
11.452
10.401
9.087
7.507
5.647
3.494
1.044
-1.705
-4.751
-8.08
-11.675
-15.506
-19.516
-23.648
-27.848
-32.063
-36.263
-40.414
-44.464
-48.347
-51.986
-55.301
-58.24
-60.754
-62.793
-64.353
-65.464
-66.196
-66.671
-66.987
-67.232
-67.524
-67.975
-68.688
-69.792
-71.387
-73.626
-76.808
-81.085
-86.39
-92.522
-98.976
-105.177
-110.681
-114.825
-116.666
-115.697
-112.073
-106.44
-100.228
-95.068
-92.191
-92.975
-99.112
-110.222
-123.377
-135.481
-143.348
-146.947
-148.87
-147.425
-134.475
-97.095
-25.293
82.351
216.818
363.198
513.617
663.683
806.983
933.203
1020.619
1048.895
1011.204
913.535
774.4
610.925
433.289
250.925
74.07
-78.898
-186.538
-239.353
-240.458
-204.533
-155.464
-111.479
-81.226
-69.741
-72.106
-79.158
-86.861
-90.939
-92.083
-96.183
-104.587
-116.293
-129.05
-138.893
-144.172
-145.276
-142.725
-137.147
-129.533
-121.221
-113.409
-106.935
-102.169
-98.94
-97.133
-96.955
-98.288
-100.707
-103.836
-107.277
-110.821
-114.475
-118.125
-121.529
-124.49
-126.882
-128.646
-129.799
-130.335
-130.21
-129.417
-127.983
-125.965
-123.437
-120.453
-117.061
-113.307
-109.248
-104.959
-100.517
-95.997
-91.457
-86.931
-82.438
-77.99
-73.59
-69.23
-64.896
-60.566
-56.214
-51.829
-47.397
-42.912
-38.364
-33.743
-29.038
-24.242
-19.35
-14.359
-9.273
-4.095
1.168
6.505
11.906
17.354
22.834
28.332
33.835
39.328
44.796
50.224
55.595
60.893
66.101
71.199
76.168
80.987
85.636
90.094
94.34
98.353
102.114
105.602
108.798
111.685
114.247
116.466
118.332
119.83
120.953
121.69
122.037
121.99
121.547
120.708
119.477
117.858
115.859
113.489
110.757
107.678
104.265
100.534
96.501
92.186
87.608
82.787
77.746
72.509
67.098
61.54
55.859
50.081
44.233
38.339
32.425
26.516
20.636
14.809
9.058
3.404
-2.134
-7.535
-12.784
-17.864
-22.76
-27.461
-31.956
-36.236
-40.293
-44.121
-47.716
-51.075
-54.195
-57.078
-59.722
-62.131
-64.306
-66.252
-67.974
-69.477
-70.769
-71.857
-72.75
-73.456
-73.985
-74.348
-74.554
-74.614
-74.54
-74.341
-74.028
-73.611
-73.102
-72.509
-71.842
-71.111
-70.325
-69.491
-68.618
-67.712
-66.781
-65.832
-64.869
-63.899
-62.927
-61.958
-60.998
-60.049
-59.118
-58.208
-57.323
-56.465
-55.639
-54.847
-54.091
-53.374
-52.696
-52.059
-51.464
-50.912
-50.403
-49.938
-49.516
-49.136
-48.798
-48.501
-48.242
-48.02
-47.833
-47.678
-47.553
-47.455
-47.381
-47.326
-47.288
-47.26
-47.239
-47.219
-47.193
-47.154
-47.097
-47.013
-46.896
-46.738
-46.532
-46.269
-45.944
-45.548
-45.074
-44.517
-43.868
-43.122
-42.274
-41.318
-40.252
-39.072
-37.775
-36.36
-34.827
-33.178
-31.414
-29.536
-27.55
-25.46
-23.273
-20.996
-18.636
-16.206
-13.716
-11.183
-8.624
-6.055
-3.497
-0.969
1.508
3.912
6.223
8.423
10.496
12.423
14.187
15.768
17.147
18.305
19.226
19.896
20.301
20.428
20.268
19.823
19.093
18.078
16.773
15.161
13.227
10.968
8.38
5.469
2.249
-1.26
-5.024
-8.985
-13.084
-17.261
-21.461
-25.647
-29.78
-33.804
-37.653
-41.246
-44.502
-47.37
-49.799
-51.747
-53.22
-54.244
-54.895
-55.302
-55.572
-55.805
-56.134
-56.676
-57.55
-58.889
-60.769
-63.316
-66.775
-71.269
-76.753
-82.989
-89.435
-95.548
-100.963
-105.123
-107.213
-106.704
-103.541
-98.349
-92.566
-87.406
-83.621
-82.228
-84.485
-91.163
-100.607
-108.638
-110.76
-103.801
-89.531
-72.063
-49.935
-17.346
35.283
118.234
231.549
367.365
516.366
666.834
807.051
926.641
1010.033
1039.239
1006.88
912.08
763.202
583.919
394.53
216.412
73.649
-26.92
-84.45
-106.686
-115.27
-121.527
-129.556
-139.091
-140.84
-132.408
-117.999
-102.09
-90.61
-85.725
-85.822
-89.291
-94.498
-99.896
-104.247
-106.247
-105.177
-101.241
-95.155
-87.852
-80.103
-72.538
-65.831
-60.617
-57.261
-55.798
-56.047
-57.69
-60.441
-64.085
-68.377
-73.063
-77.91
-82.692
-87.211
-91.3
-94.825
-97.688
-99.829
-101.211
-101.823
-101.682
-100.832
-99.337
-97.266
-94.68
-91.639
-88.2
-84.436
-80.429
-76.263
-72.016
-67.743
-63.479
-59.246
-55.055
-50.908
-46.796
-42.699
-38.588
-34.443
-30.249
-25.997
-21.677
-17.277
-12.785
-8.187
-3.474
1.36
6.317
11.398
16.601
21.921
27.35
32.874
38.482
44.16
49.897
55.681
61.5
67.341
73.187
79.024
84.836
90.603
96.305
101.922
107.429
112.804
118.024
123.064
127.902
132.513
136.873
140.96
144.751
148.226
151.363
154.144
156.55
158.566
160.177
161.371
162.137
162.466
162.353
161.793
160.783
159.325
157.42
155.072
152.29
149.081
145.456
141.43
137.017
132.236
127.106
121.649
115.889
109.85
103.561
97.048
90.341
83.469
76.463
69.353
62.169
54.944
47.706
40.485
33.312
26.213
19.217
12.349
5.634
-0.904
-7.245
-13.367
-19.251
-24.882
-30.243
-35.322
-40.106
-44.585
-48.752
-52.601
-56.126
-59.327
-62.201
-64.75
-66.978
-68.889
-70.489
-71.786
-72.788
-73.505
-73.95
-74.134
-74.069
-73.77
-73.252
-72.527
-71.612
-70.522
-69.273
-67.879
-66.356
-64.72
-62.985
-61.167
-59.281
-57.34
-55.358
-53.351
-51.33
-49.309
-47.3
-45.315
-43.365
-41.46
-39.611
-37.826
-36.113
-34.479
-32.932
-31.476
-30.118
-28.861
-27.71
-26.666
-25.734
-24.913
-24.206
-23.613
-23.132
-22.764
-22.506
-22.355
-22.309
-22.365
-22.517
-22.761
-23.092
-23.504
-23.989
-24.539
-25.148
-25.806
-26.503
-27.231
-27.977
-28.732
-29.485
-30.225
-30.94
-31.622
-32.259
-32.84
-33.355
-33.794
-34.148
-34.408
-34.564
-34.607
-34.531
-34.329
-33.995
-33.525
-32.915
-32.162
-31.264
-30.221
-29.036
-27.708
-26.243
-24.643
-22.916
-21.071
-19.116
-17.063
-14.924
-12.714
-10.453
-8.16
-5.854
-3.557
-1.29
0.925
3.065
5.109
7.039
8.838
10.486
11.966
13.256
14.336
15.189
15.8
16.155
16.242
16.049
15.569
14.808
13.766
12.443
10.834
8.92
6.688
4.138
1.27
-1.905
-5.371
-9.109
-13.083
-17.232
-21.499
-25.828
-30.17
-34.497
-38.771
-42.94
-46.937
-50.676
-54.085
-57.111
-59.71
-61.852
-63.53
-64.764
-65.609
-66.165
-66.537
-66.831
-67.157
-67.619
-68.329
-69.394
-70.967
-73.264
-76.422
-80.459
-85.223
-90.308
-95.227
-99.53
-102.654
-103.929
-102.899
-99.404
-93.88
-87.528
-81.771
-77.914
-77.125
-80.346
-88.051
-100.028
-114.747
-129.202
-139.52
-141.649
-131.948
-107.006
-63.867
-0.603
83.182
183.998
294.709
408.29
517.216
618.628
715.332
804.018
879.671
931.476
938.04
889.579
783.637
623.417
431.451
229.935
39.576
-113.575
-216.75
-267.691
-269.369
-237.435
-190.92
-143.772
-109.545
-95.67
-99.269
-114.1
-129.597
-136.019
-131.723
-119.956
-107.129
-98.163
-93.832
-93.021
-93.463
-94.194
-95.533
-97.385
-99.833
-102.874
-105.937
-108.448
-110.132
-110.727
-110.399
-109.874
-109.577
-109.669
-110.357
-111.755
-113.865
-116.645
-119.784
-122.73
-125.144
-126.88
-127.864
-128.125
-127.67
-126.495
-124.679
-122.36
-119.64
-116.579
-113.202
-109.51
-105.545
-101.383
-97.111
-92.797
-88.482
-84.187
-79.924
-75.7
-71.517
-67.36
-63.203
-59.027
-54.819
-50.575
-46.297
-41.981
-37.619
-33.2
-28.712
-24.144
-19.489
-14.745
-9.91
-4.989
0.011
5.081
10.206
15.375
20.575
25.795
31.023
36.248
41.454
46.627
51.753
56.814
61.79
66.663
71.412
76.017
80.458
84.714
88.765
92.591
96.172
99.489
102.525
105.261
107.681
109.77
111.514
112.901
113.919
114.56
114.816
114.68
114.151
113.226
111.907
110.196
108.097
105.619
102.77
99.56
96.004
92.114
87.907
83.4
78.612
73.565
68.279
62.777
57.083
51.221
45.217
39.096
32.883
26.603
20.283
13.946
7.617
1.32
-4.921
-11.085
-17.151
-23.098
-28.906
-34.559
-40.039
-45.331
-50.422
-55.299
-59.952
-64.371
-68.55
-72.481
-76.161
-79.585
-82.753
-85.662
-88.314
-90.71
-92.854
-94.75
-96.403
-97.819
-99.007
-99.973
-100.727
-101.278
-101.637
-101.814
-101.819
-101.664
-101.359
-100.916
-100.346
-99.662
-98.873
-97.993
-97.032
-96.001
-94.913
-93.776
-92.602
-91.402
-90.184
-88.958
-87.734
-86.521
-85.327
-84.162
-83.031
-81.944
-80.907
-79.927
-79.008
-78.157
-77.378
-76.673
-76.048
-75.503
-75.042
-74.666
-74.375
-74.17
-74.051
-74.017
-74.067
-74.199
-74.41
-74.698
-75.058
-75.487
-75.979
-76.53
-77.134
-77.784
-78.474
-79.194
-79.938
-80.694
-81.454
-82.207
-82.943
-83.651
-84.321
-84.94
-85.499
-85.987
-86.393
-86.707
-86.92
-87.02
-87.001
-86.853
-86.569
-86.143
-85.568
-84.84
-83.953
-82.906
-81.697
-80.323
-78.785
-77.084
-75.222
-73.202
-71.03
-68.712
-66.257
-63.678
-60.989
-58.205
-55.344
-52.424
-49.464
-46.487
-43.51
-40.552
-37.63
-34.762
-31.965
-29.262
-26.673
-24.218
-21.916
-19.785
-17.842
-16.103
-14.58
-13.278
-12.2
-11.351
-10.745
-10.403
-10.35
-10.598
-11.156
-12.03
-13.212
-14.69
-16.435
-18.395
-20.515
-22.743
-25.03
-27.344
-29.652
-31.906
-34.047
-35.998
-37.686
-39.063
-40.084
-40.714
-40.963
-40.866
-40.508
-40.029
-39.546
-39.172
-39.038
-39.262
-39.982
-41.34
-43.425
-46.367
-50.384
-55.571
-61.892
-69.104
-76.587
-83.716
-90.033
-94.918
-97.625
-97.712
-95.092
-90.38
-85.226
-81.131
-78.861
-79.415
-83.89
-92.481
-104.756
-117.717
-125.167
-123.388
-110.533
-86.305
-53.67
-8.987
54.084
137.961
246.349
372.385
503.506
635.577
759.899
869.469
960.32
1013.301
1010.911
945.312
811.109
622.842
409.309
197.385
17.559
-109.669
-183.333
-210.616
-206.444
-185.351
-153.287
-113.826
-72.657
-40.187
-26.063
-33.983
-58.123
-84.089
-101.695
-107.407
-103.869
-98.781
-95.446
-93.402
-91.314
-86.695
-79.353
-70.788
-61.97
-53.907
-47.334
-42.314
-38.891
-37.024
-36.404
-36.785
-38.013
-39.934
-42.388
-45.239
-48.315
-51.426
-54.416
-57.105
-59.343
-61.032
-62.099
-62.517
-62.285
-61.42
-59.963
-57.971
-55.5
-52.599
-49.313
-45.684
-41.774
-37.655
-33.406
-29.105
-24.811
-20.557
-16.368
-12.254
-8.211
-4.229
-0.285
3.651
7.601
11.582
15.606
19.681
23.821
28.039
32.351
36.767
41.298
45.947
50.719
55.612
60.623
65.743
70.96
76.26
81.629
87.055
92.523
98.02
103.53
109.037
114.524
119.972
125.362
130.673
135.881
140.963
145.895
150.65
155.206
159.536
163.616
167.422
170.929
174.115
176.957
179.435
181.528
183.219
184.491
185.329
185.721
185.656
185.127
184.127
182.655
180.709
178.293
175.409
172.066
168.273
164.041
159.384
154.317
148.858
143.029
136.849
130.345
123.541
116.464
109.144
101.61
93.893
86.023
78.034
69.957
61.824
53.668
45.521
37.415
29.381
21.448
13.647
6.003
-1.455
-8.705
-15.722
-22.487
-28.981
-35.186
-41.087
-46.672
-51.93
-56.852
-61.431
-65.661
-69.541
-73.069
-76.246
-79.076
-81.562
-83.711
-85.532
-87.034
-88.228
-89.127
-89.744
-90.096
-90.197
-90.066
-89.721
-89.18
-88.464
-87.591
-86.582
-85.458
-84.237
-82.939
-81.585
-80.193
-78.78
-77.365
-75.964
-74.594
-73.27
-72.006
-70.816
-69.712
-68.707
-67.81
-67.032
-66.381
-65.865
-65.49
-65.26
-65.182
-65.256
-65.486
-65.871
-66.411
-67.104
-67.947
-68.934
-70.061
-71.32
-72.704
-74.202
-75.807
-77.506
-79.29
-81.146
-83.062
-85.027
-87.027
-89.05
-91.082
-93.11
-95.119
-97.097
-99.028
-100.898
-102.694
-104.4
-106.003
-107.491
-108.849
-110.064
-111.124
-112.017
-112.731
-113.257
-113.583
-113.702
-113.605
-113.287
-112.744
-111.972
-110.969
-109.734
-108.268
-106.574
-104.656
-102.518
-100.165
-97.604
-94.844
-91.894
-88.766
-85.47
-82.022
-78.435
-74.73
-70.925
-67.042
-63.101
-59.126
-55.139
-51.165
-47.227
-43.346
-39.541
-35.833
-32.243
-28.794
-25.508
-22.406
-19.506
-16.828
-14.386
-12.199
-10.276
-8.618
-7.225
-6.1
-5.251
-4.695
-4.448
-4.516
-4.901
-5.605
-6.618
-7.926
-9.494
-11.266
-13.184
-15.19
-17.237
-19.291
-21.318
-23.266
-25.073
-26.669
-27.985
-28.979
-29.606
-29.818
-29.611
-29.015
-28.115
-27.045
-25.917
-24.834
-23.915
-23.267
-22.993
-23.206
-23.98
-25.422
-27.76
-31.108
-35.419
-40.567
-46.157
-51.697
-56.8
-60.847
-62.892
-62.36
-59.245
-53.829
-47.091
-40.366
-34.571
-30.962
-31.67
-36.498
-42.432
-47.084
-46.87
-42.148
-39.24
-38.081
-32.99
-12.348
41.103
133.998
261.597
412.254
570.831
727.055
871.235
991.835
1073.519
1097.978
1057.677
954.627
799.229
613.404
417.118
230.134
74.533
-38.422
-105.52
-130.046
-124.494
-99.621
-61.39
-18.175
20.031
44.537
47.757
30.722
5.275
-17.968
-32.627
-37.536
-39.286
-42.715
-48.065
-54.053
-57.559
-56.87
-52.759
-46.845
-40.634
-35.055
-30.658
-27.594
-25.896
-25.677
-26.86
-29.107
-32.18
-35.856
-39.859
-44.096
-48.446
-52.707
-56.718
-60.317
-63.364
-65.79
-67.56
-68.635
-69.001
-68.662
-67.643
-66
-63.794
-61.074
-57.889
-54.283
-50.319
-46.071
-41.621
-37.051
-32.422
-27.776
-23.141
-18.533
-13.959
-9.421
-4.908
-0.398
4.122
8.662
13.227
17.818
22.44
27.103
31.813
36.579
41.404
46.29
51.234
56.236
61.287
66.38
71.503
76.64
81.78
86.909
92.017
97.09
102.116
107.081
111.971
116.772
121.469
126.045
130.481
134.76
138.862
142.769
146.462
149.923
153.131
156.07
158.722
161.07
163.098
164.79
166.132
167.112
167.718
167.939
167.769
167.2
166.228
164.852
163.07
160.885
158.301
155.324
151.961
148.222
144.118
139.664
134.873
129.762
124.35
118.656
112.701
106.508
100.101
93.504
86.743
79.842
72.83
65.733
58.578
51.393
44.203
37.037
29.921
22.88
15.94
9.125
2.457
-4.042
-10.352
-16.454
-22.33
-27.966
-33.347
-38.461
-43.297
-47.847
-52.103
-56.059
-59.712
-63.059
-66.099
-68.833
-71.263
-73.392
-75.225
-76.768
-78.028
-79.013
-79.732
-80.197
-80.417
-80.407
-80.177
-79.743
-79.119
-78.319
-77.358
-76.252
-75.016
-73.666
-72.217
-70.685
-69.085
-67.431
-65.739
-64.023
-62.295
-60.569
-58.858
-57.174
-55.527
-53.928
-52.388
-50.917
-49.522
-48.214
-46.998
-45.883
-44.876
-43.981
-43.205
-42.55
-42.022
-41.622
-41.354
-41.216
-41.212
-41.338
-41.595
-41.98
-42.489
-43.119
-43.864
-44.72
-45.68
-46.737
-47.883
-49.112
-50.415
-51.783
-53.207
-54.678
-56.185
-57.718
-59.266
-60.818
-62.362
-63.887
-65.379
-66.828
-68.222
-69.547
-70.792
-71.945
-72.994
-73.929
-74.738
-75.41
-75.937
-76.309
-76.52
-76.564
-76.435
-76.129
-75.645
-74.982
-74.14
-73.121
-71.927
-70.562
-69.032
-67.343
-65.503
-63.521
-61.408
-59.177
-56.846
-54.432
-51.955
-49.434
-46.892
-44.35
-41.832
-39.358
-36.948
-34.618
-32.389
-30.281
-28.315
-26.514
-24.896
-23.478
-22.276
-21.304
-20.576
-20.099
-19.87
-19.891
-20.162
-20.692
-21.505
-22.62
-24.044
-25.783
-27.832
-30.18
-32.815
-35.704
-38.789
-42.011
-45.309
-48.629
-51.939
-55.191
-58.325
-61.267
-63.921
-66.203
-68.052
-69.415
-70.262
-70.596
-70.445
-69.874
-68.99
-67.914
-66.791
-65.79
-65.054
-64.725
-64.909
-65.761
-67.57
-70.524
-74.632
-79.677
-85.144
-90.529
-95.506
-99.577
-101.97
-102.158
-100.001
-96.106
-91.946
-88.77
-87.507
-89.28
-95.173
-105.844
-119.805
-132.831
-140.375
-139.135
-130.057
-116.535
-96.956
-65.225
-11.249
75.084
193.684
336.679
493.63
652.242
801.573
930.081
1021.269
1059.435
1037.275
957.925
834.187
681.652
513.878
341.341
176.411
36.691
-65.52
-124.973
-147.597
-152.31
-152.563
-154.475
-158.392
-157.087
-148.308
-134.875
-120.003
-108.238
-101.346
-98.395
-98.209
-99.256
-100.406
-101.333
-102.003
-102.566
-103.059
-103.224
-103.142
-103.087
-103.237
-103.607
-103.872
-103.731
-103.339
-103.256
-103.813
-105.08
-107.007
-109.486
-112.61
-116.443
-120.709
-124.882
-128.537
-131.431
-133.491
-134.77
-135.236
-134.832
-133.602
-131.656
-129.124
-126.113
-122.671
-118.805
-114.555
-109.992
-105.209
-100.312
-95.367
-90.412
-85.472
-80.56
-75.685
-70.851
-66.043
-61.233
-56.404
-51.542
-46.644
-41.711
-36.739
-31.717
-26.634
-21.477
-16.236
-10.908
-5.494
0.006
5.586
11.239
16.954
22.717
28.516
34.341
40.181
46.027
51.867
57.688
63.476
69.216
74.89
80.479
85.961
91.316
96.52
101.549
106.381
110.992
115.359
119.457
123.266
126.763
129.926
132.737
135.174
137.223
138.866
140.09
140.882
141.233
141.134
140.58
139.567
138.093
136.159
133.766
130.921
127.628
123.898
119.741
115.172
110.205
104.86
99.157
93.12
86.773
80.144
73.262
66.157
58.861
51.404
43.821
36.146
28.41
20.649
12.895
5.182
-2.458
-9.994
-17.395
-24.634
-31.682
-38.514
-45.105
-51.433
-57.478
-63.22
-68.641
-73.726
-78.461
-82.835
-86.839
-90.464
-93.705
-96.561
-99.029
-101.113
-102.814
-104.141
-105.099
-105.7
-105.953
-105.873
-105.474
-104.773
-103.786
-102.533
-101.032
-99.305
-97.371
-95.251
-92.967
-90.54
-87.991
-85.34
-82.609
-79.818
-76.987
-74.137
-71.285
-68.452
-65.654
-62.91
-60.235
-57.646
-55.155
-52.776
-50.523
-48.404
-46.432
-44.614
-42.958
-41.47
-40.156
-39.019
-38.062
-37.285
-36.69
-36.275
-36.037
-35.974
-36.081
-36.354
-36.787
-37.373
-38.104
-38.974
-39.972
-41.089
-42.314
-43.636
-45.044
-46.526
-48.069
-49.662
-51.29
-52.94
-54.601
-56.257
-57.894
-59.499
-61.058
-62.555
-63.978
-65.313
-66.546
-67.664
-68.655
-69.506
-70.208
-70.748
-71.117
-71.306
-71.304
-71.105
-70.703
-70.092
-69.269
-68.23
-66.974
-65.504
-63.821
-61.93
-59.835
-57.541
-55.059
-52.397
-49.566
-46.579
-43.45
-40.195
-36.834
-33.389
-29.881
-26.336
-22.778
-19.232
-15.725
-12.284
-8.93
-5.688
-2.582
0.364
3.121
5.663
7.968
10.013
11.777
13.241
14.388
15.206
15.692
15.846
15.663
15.134
14.239
12.965
11.308
9.266
6.844
4.049
0.894
-2.596
-6.371
-10.383
-14.586
-18.938
-23.414
-27.978
-32.574
-37.132
-41.566
-45.796
-49.767
-53.424
-56.712
-59.6
-62.084
-64.189
-65.974
-67.504
-68.839
-70.056
-71.241
-72.474
-73.827
-75.436
-77.504
-80.214
-83.63
-87.587
-91.729
-95.684
-99.136
-101.67
-102.687
-101.604
-98.183
-92.991
-87.184
-81.914
-78.304
-77.463
-80.563
-88.831
-101.581
-115.231
-125.794
-130.48
-130.114
-127.964
-123.574
-109.56
-72.765
-2.75
102.768
235.298
378.523
521.854
658.701
782.937
888.31
959.436
980.616
945.727
858.072
730.754
577.863
411.363
241.585
81.462
-49.301
-137.215
-177.866
-179.092
-162.238
-142.665
-127.433
-117.093
-104.733
-88.744
-72.456
-59.015
-52.365
-53.072
-58.73
-67.274
-76.405
-84.078
-89.12
-90.949
-89.706
-86.145
-81.212
-75.733
-70.397
-65.856
-62.652
-61.037
-60.985
-62.281
-64.602
-67.666
-71.269
-75.202
-79.241
-83.199
-86.885
-90.123
-92.814
-94.882
-96.271
-96.964
-96.951
-96.239
-94.876
-92.928
-90.458
-87.532
-84.201
-80.509
-76.521
-72.311
-67.962
-63.561
-59.17
-54.828
-50.568
-46.411
-42.366
-38.437
-34.61
-30.861
-27.171
-23.529
-19.926
-16.358
-12.815
-9.281
-5.743
-2.188
1.394
5.01
8.666
12.369
16.119
19.915
23.752
27.623
31.522
35.445
39.387
43.341
47.303
51.265
55.218
59.155
63.067
66.94
70.763
74.522
78.202
81.789
85.267
88.622
91.837
94.897
97.785
100.487
102.985
105.264
107.31
109.107
110.641
111.901
112.874
113.551
113.923
113.983
113.727
113.15
112.253
111.033
109.494
107.638
105.472
103.002
100.237
97.186
93.862
90.277
86.448
82.389
78.118
73.652
69.011
64.214
59.28
54.232
49.089
43.874
38.608
33.314
28.012
22.726
17.476
12.282
7.164
2.142
-2.767
-7.547
-12.183
-16.661
-20.968
-25.094
-29.029
-32.764
-36.294
-39.614
-42.72
-45.609
-48.282
-50.739
-52.981
-55.012
-56.836
-58.456
-59.879
-61.112
-62.161
-63.036
-63.745
-64.299
-64.708
-64.984
-65.14
-65.187
-65.138
-65.007
-64.807
-64.551
-64.251
-63.921
-63.573
-63.219
-62.87
-62.537
-62.231
-61.962
-61.738
-61.567
-61.456
-61.413
-61.443
-61.552
-61.744
-62.024
-62.395
-62.861
-63.424
-64.086
-64.849
-65.711
-66.674
-67.735
-68.892
-70.142
-71.481
-72.904
-74.404
-75.976
-77.611
-79.301
-81.037
-82.81
-84.608
-86.423
-88.241
-90.053
-91.847
-93.612
-95.336
-97.006
-98.612
-100.142
-101.583
-102.924
-104.15
-105.25
-106.212
-107.023
-107.671
-108.144
-108.431
-108.522
-108.406
-108.074
-107.519
-106.734
-105.711
-104.447
-102.939
-101.185
-99.186
-96.942
-94.458
-91.738
-88.79
-85.621
-82.241
-78.66
-74.89
-70.946
-66.841
-62.592
-58.215
-53.731
-49.159
-44.525
-39.855
-35.175
-30.513
-25.898
-21.36
-16.928
-12.633
-8.497
-4.546
-0.804
2.706
5.956
8.923
11.587
13.929
15.932
17.581
18.86
19.763
20.293
20.451
20.24
19.654
18.674
17.29
15.501
13.306
10.713
7.735
4.389
0.714
-3.227
-7.372
-11.655
-16.022
-20.437
-24.845
-29.18
-33.368
-37.31
-40.93
-44.172
-46.974
-49.295
-51.131
-52.503
-53.484
-54.193
-54.731
-55.225
-55.797
-56.541
-57.583
-59.013
-60.95
-63.638
-67.224
-71.721
-77.051
-82.9
-88.83
-94.49
-99.347
-102.575
-103.577
-102.128
-98.411
-93.258
-87.885
-83.461
-81.153
-82.644
-88.278
-95.948
-103.197
-106.802
-105.577
-103.563
-103.18
-101.58
-90.854
-55.597
17.919
131.754
280.679
451.296
624.94
789.016
928.742
1028.213
1078.299
1068.276
997.676
876.193
711.604
520.399
319.725
125.189
-39.879
-158.945
-225.5
-239.657
-215.18
-171.057
-122.05
-82.918
-61.697
-57.024
-65.488
-77.884
-85.066
-85.192
-79.48
-72.655
-69.186
-68.669
-68.283
-65.508
-59.708
-52.035
-44.684
-39.173
-35.355
-33.437
-34.064
-36.812
-41.13
-46.44
-51.452
-55.543
-59.113
-61.925
-63.573
-64.529
-64.982
-65
-65.101
-65.369
-65.475
-65.6
-65.958
-66.143
-65.991
-65.458
-64.297
-62.57
-60.43
-57.746
-54.431
-50.688
-46.652
-42.443
-38.244
-34.051
-29.843
-25.694
-21.638
-17.659
-13.743
-9.847
-5.912
-1.941
2.06
6.097
10.169
14.293
18.489
22.764
27.128
31.586
36.145
40.813
45.593
50.484
55.481
60.573
65.75
71.003
76.324
81.704
87.134
92.599
98.083
103.571
109.046
114.491
119.885
125.208
130.436
135.546
140.516
145.321
149.938
154.343
158.511
162.419
166.043
169.361
172.352
174.994
177.27
179.161
180.653
181.732
182.385
182.603
182.38
181.71
180.591
179.023
177.009
174.552
171.66
168.343
164.612
160.481
155.966
151.085
145.858
140.307
134.456
128.33
121.956
115.362
108.576
101.628
94.548
87.367
80.115
72.823
65.52
58.237
51.002
43.843
36.785
29.855
23.076
16.47
10.057
3.856
-2.116
-7.845
-13.316
-18.52
-23.446
-28.087
-32.438
-36.493
-40.252
-43.713
-46.879
-49.751
-52.335
-54.637
-56.664
-58.424
-59.928
-61.186
-62.212
-63.018
-63.617
-64.024
-64.253
-64.32
-64.238
-64.024
-63.691
-63.253
-62.725
-62.12
-61.45
-60.727
-59.963
-59.169
-58.355
-57.53
-56.704
-55.884
-55.079
-54.295
-53.539
-52.817
-52.133
-51.493
-50.899
-50.355
-49.863
-49.426
-49.043
-48.717
-48.447
-48.231
-48.069
-47.96
-47.899
-47.884
-47.913
-47.981
-48.086
-48.222
-48.388
-48.578
-48.789
-49.019
-49.263
-49.517
-49.777
-50.04
-50.302
-50.557
-50.801
-51.028
-51.234
-51.412
-51.558
-51.667
-51.732
-51.748
-51.709
-51.609
-51.444
-51.207
-50.893
-50.499
-50.019
-49.45
-48.791
-48.04
-47.193
-46.25
-45.212
-44.079
-42.852
-41.533
-40.122
-38.622
-37.038
-35.373
-33.632
-31.821
-29.948
-28.021
-26.055
-24.062
-22.057
-20.055
-18.072
-16.126
-14.233
-12.41
-10.67
-9.026
-7.491
-6.082
-4.819
-3.716
-2.788
-2.048
-1.508
-1.177
-1.069
-1.188
-1.528
-2.09
-2.874
-3.891
-5.168
-6.721
-8.556
-10.677
-13.077
-15.747
-18.675
-21.825
-25.143
-28.575
-32.066
-35.574
-39.082
-42.547
-45.913
-49.113
-52.053
-54.662
-56.901
-58.723
-60.109
-61.072
-61.641
-61.894
-61.953
-61.924
-61.928
-62.093
-62.536
-63.403
-64.825
-66.967
-70.095
-74.338
-79.671
-85.892
-92.477
-98.833
-104.494
-108.845
-111.149
-111.031
-108.428
-103.919
-99.031
-95.282
-93.869
-95.92
-102.178
-112.752
-127.128
-143.303
-157.488
-165.597
-163.71
-147.918
-115.029
-62.6
11.278
104.882
212.09
326.424
440.592
550.383
658.21
763.087
859.801
938.52
978.065
960.656
878.901
732.535
540.301
330.399
127.9
-39.544
-157.431
-227.956
-256.281
-258.962
-251.258
-236.054
-219.002
-199.526
-175.71
-154.127
-134.34
-115.996
-100.506
-84.747
-71.272
-63.071
-60.031
-62.839
-69.126
-76.545
-84.512
-91.85
-98.042
-102.67
-105.094
-105.406
-104.126
-101.662
-98.608
-95.757
-93.602
-92.598
-93.027
-94.746
-97.501
-100.983
-104.733
-108.26
-111.258
-113.516
-114.941
-115.586
-115.481
-114.672
-113.262
-111.348
-109.009
-106.292
-103.218
-99.803
-96.098
-92.18
-88.134
-84.029
-79.901
-75.774
-71.658
-67.559
-63.48
-59.407
-55.312
-51.179
-47
-42.771
-38.493
-34.161
-29.761
-25.279
-20.7
-16.011
-11.205
-6.28
-1.231
3.938
9.22
14.608
20.087
25.646
31.277
36.969
42.712
48.496
54.305
60.125
65.943
71.74
77.497
83.194
88.809
94.322
99.711
104.953
110.027
114.911
119.582
124.019
128.2
132.106
135.717
139.012
141.974
144.587
146.836
148.706
150.187
151.267
151.94
152.198
152.04
151.463
150.467
149.055
147.231
145.002
142.376
139.364
135.976
132.229
128.137
123.718
118.993
113.981
108.705
103.188
97.453
91.527
85.433
79.199
72.85
66.412
59.912
53.377
46.831
40.299
33.808
27.379
21.035
14.799
8.689
2.724
-3.077
-8.7
-14.129
-19.351
-24.354
-29.129
-33.667
-37.96
-42.002
-45.789
-49.318
-52.587
-55.596
-58.346
-60.838
-63.076
-65.063
-66.805
-68.308
-69.579
-70.626
-71.458
-72.083
-72.512
-72.755
-72.823
-72.726
-72.476
-72.083
-71.558
-70.913
-70.158
-69.304
-68.361
-67.34
-66.251
-65.103
-63.905
-62.667
-61.398
-60.104
-58.796
-57.48
-56.164
-54.856
-53.562
-52.29
-51.045
-49.835
-48.665
-47.54
-46.466
-45.446
-44.485
-43.586
-42.753
-41.987
-41.291
-40.666
-40.114
-39.636
-39.231
-38.898
-38.638
-38.448
-38.328
-38.274
-38.284
-38.356
-38.484
-38.667
-38.897
-39.171
-39.483
-39.826
-40.193
-40.576
-40.969
-41.362
-41.746
-42.111
-42.449
-42.748
-43.001
-43.195
-43.321
-43.37
-43.332
-43.198
-42.961
-42.612
-42.144
-41.552
-40.83
-39.975
-38.985
-37.856
-36.59
-35.187
-33.649
-31.98
-30.185
-28.272
-26.249
-24.129
-21.923
-19.646
-17.314
-14.945
-12.555
-10.163
-7.787
-5.447
-3.162
-0.953
1.158
3.146
4.988
6.661
8.143
9.413
10.451
11.241
11.773
12.037
12.027
11.73
11.126
10.203
8.951
7.368
5.456
3.222
0.681
-2.139
-5.195
-8.442
-11.839
-15.352
-18.959
-22.635
-26.342
-30.03
-33.633
-37.093
-40.365
-43.414
-46.202
-48.705
-50.93
-52.923
-54.783
-56.592
-58.397
-60.231
-62.128
-64.153
-66.401
-68.977
-71.955
-75.434
-79.562
-84.393
-89.886
-95.809
-101.663
-106.883
-110.945
-113.282
-113.298
-110.639
-105.3
-97.87
-89.547
-81.619
-75.193
-71.25
-70.753
-74.31
-81.655
-91.125
-99.904
-104.714
-102.178
-89.052
-61.861
-17.048
46.703
127.049
219.864
319.663
423.076
531.342
644.673
759.626
866.473
948.51
986.486
965.234
879.146
730.641
535.821
321.763
116.77
-48.443
-155.46
-205.402
-208.928
-185.322
-151.733
-115.038
-80.111
-52.461
-37.004
-38.267
-54.95
-77.542
-96.66
-107.209
-109.068
-107.741
-107.403
-108.285
-109.139
-107.654
-103.013
-96.385
-89.052
-82.064
-76.085
-71.403
-68.181
-66.488
-66.206
-67.075
-68.862
-71.411
-74.57
-78.182
-82.104
-86.157
-90.167
-93.979
-97.414
-100.33
-102.644
-104.294
-105.255
-105.524
-105.118
-104.076
-102.458
-100.32
-97.709
-94.673
-91.257
-87.523
-83.545
-79.398
-75.157
-70.877
-66.591
-62.32
-58.077
-53.862
-49.669
-45.479
-41.269
-37.022
-32.73
-28.385
-23.984
-19.52
-14.983
-10.368
-5.669
-0.884
3.987
8.941
13.972
19.071
24.227
29.428
34.657
39.899
45.143
50.374
55.578
60.743
65.853
70.894
75.849
80.703
85.438
90.036
94.479
98.748
102.825
106.692
110.332
113.727
116.86
119.716
122.28
124.538
126.477
128.088
129.359
130.283
130.853
131.063
130.91
130.393
129.51
128.262
126.654
124.688
122.372
119.713
116.72
113.405
109.78
105.859
101.658
97.191
92.478
87.537
82.389
77.053
71.551
65.905
60.137
54.271
48.329
42.333
36.305
30.269
24.245
18.254
12.316
6.45
0.676
-4.99
-10.53
-15.928
-21.171
-26.243
-31.133
-35.828
-40.319
-44.596
-48.652
-52.481
-56.077
-59.437
-62.557
-65.438
-68.078
-70.479
-72.643
-74.573
-76.273
-77.75
-79.008
-80.055
-80.899
-81.547
-82.01
-82.295
-82.412
-82.372
-82.183
-81.857
-81.403
-80.832
-80.155
-79.383
-78.527
-77.598
-76.607
-75.566
-74.485
-73.376
-72.249
-71.114
-69.981
-68.861
-67.762
-66.693
-65.663
-64.678
-63.747
-62.876
-62.069
-61.334
-60.672
-60.09
-59.589
-59.173
-58.843
-58.602
-58.449
-58.386
-58.412
-58.527
-58.729
-59.016
-59.386
-59.836
-60.361
-60.957
-61.617
-62.337
-63.108
-63.924
-64.776
-65.654
-66.549
-67.451
-68.349
-69.233
-70.093
-70.917
-71.695
-72.417
-73.071
-73.648
-74.137
-74.53
-74.817
-74.989
-75.038
-74.957
-74.739
-74.378
-73.869
-73.206
-72.388
-71.412
-70.275
-68.979
-67.523
-65.91
-64.144
-62.229
-60.174
-57.985
-55.674
-53.255
-50.742
-48.153
-45.504
-42.816
-40.107
-37.398
-34.71
-32.062
-29.47
-26.954
-24.533
-22.226
-20.056
-18.04
-16.198
-14.545
-13.099
-11.874
-10.882
-10.128
-9.615
-9.348
-9.334
-9.592
-10.138
-10.979
-12.122
-13.566
-15.302
-17.318
-19.588
-22.063
-24.692
-27.424
-30.21
-33.017
-35.806
-38.529
-41.126
-43.52
-45.639
-47.433
-48.852
-49.855
-50.43
-50.588
-50.392
-49.959
-49.391
-48.795
-48.28
-47.951
-47.948
-48.409
-49.431
-51.137
-53.697
-57.221
-61.761
-67.18
-73.048
-78.894
-84.284
-88.693
-91.516
-92.171
-90.275
-86.115
-80.705
-75.162
-70.328
-66.974
-66.093
-68.762
-75.584
-84.306
-90.126
-88.827
-77.692
-58.767
-36.317
-8.97
28.882
86.636
174.467
293.026
435.596
593.035
752.317
899.832
1022.24
1102.055
1122.853
1079.009
973.092
816.722
630.953
433.597
241.893
75.384
-54.34
-139.784
-179.918
-186.775
-172.551
-148.267
-124.849
-104.764
-90.078
-81.559
-73.784
-63.523
-47.851
-26.439
-5.476
10.03
17.446
16.833
11.539
3.357
-7.34
-20.241
-34.786
-48.947
-60.94
-70.208
-76.676
-80.545
-82.042
-81.296
-79.026
-76.667
-75.208
-75.055
-76.308
-78.666
-81.84
-85.654
-89.722
-93.471
-96.546
-98.78
-100.123
-100.717
-100.672
-100.024
-98.858
-97.264
-95.291
-92.983
-90.371
-87.465
-84.312
-80.983
-77.527
-73.987
-70.394
-66.758
-63.089
-59.389
-55.646
-51.844
-47.974
-44.039
-40.043
-35.992
-31.883
-27.711
-23.47
-19.152
-14.752
-10.263
-5.682
-1.009
3.752
8.59
13.496
18.456
23.46
28.499
33.56
38.634
43.707
48.768
53.801
58.793
63.726
68.582
73.342
77.986
82.495
86.849
91.029
95.015
98.789
102.33
105.623
108.648
111.388
113.828
115.952
117.745
119.196
120.292
121.023
121.381
121.359
120.953
120.159
118.976
117.406
115.45
113.115
110.406
107.333
103.906
100.139
96.044
91.64
86.944
81.975
76.755
71.305
65.65
59.812
53.817
47.69
41.455
35.138
28.764
22.358
15.945
9.55
3.196
-3.094
-9.297
-15.392
-21.359
-27.177
-32.829
-38.298
-43.567
-48.623
-53.452
-58.042
-62.384
-66.47
-70.291
-73.843
-77.123
-80.129
-82.86
-85.318
-87.506
-89.428
-91.09
-92.497
-93.658
-94.581
-95.276
-95.752
-96.021
-96.094
-95.983
-95.701
-95.26
-94.673
-93.953
-93.113
-92.168
-91.13
-90.012
-88.829
-87.593
-86.318
-85.017
-83.704
-82.389
-81.086
-79.806
-78.558
-77.353
-76.2
-75.108
-74.083
-73.132
-72.261
-71.475
-70.777
-70.172
-69.66
-69.244
-68.924
-68.7
-68.571
-68.536
-68.592
-68.736
-68.965
-69.274
-69.659
-70.115
-70.635
-71.212
-71.839
-72.509
-73.211
-73.939
-74.682
-75.43
-76.174
-76.903
-77.606
-78.274
-78.895
-79.458
-79.952
-80.367
-80.693
-80.92
-81.039
-81.041
-80.917
-80.66
-80.263
-79.721
-79.026
-78.174
-77.161
-75.983
-74.639
-73.127
-71.447
-69.599
-67.586
-65.411
-63.079
-60.595
-57.964
-55.195
-52.296
-49.276
-46.146
-42.92
-39.61
-36.232
-32.806
-29.352
-25.891
-22.445
-19.036
-15.688
-12.422
-9.26
-6.218
-3.315
-0.568
2.004
4.381
6.544
8.48
10.171
11.607
12.775
13.664
14.27
14.596
14.642
14.405
13.874
13.026
11.843
10.32
8.453
6.243
3.698
0.831
-2.328
-5.722
-9.291
-12.979
-16.735
-20.523
-24.296
-27.985
-31.51
-34.777
-37.7
-40.227
-42.316
-43.925
-45.046
-45.689
-45.896
-45.79
-45.514
-45.2
-45.009
-45.084
-45.552
-46.611
-48.52
-51.459
-55.508
-60.565
-66.262
-72.199
-78.007
-83.156
-87.003
-89.041
-88.983
-87.107
-84.46
-82.241
-81.559
-83.585
-89.298
-99.183
-113.206
-130.1
-146.942
-160.18
-166.026
-160.295
-139.11
-99.297
-37.992
44.863
145.223
258.252
377.942
499.489
623.042
746.588
863.006
962.088
1026.674
1039.766
995.707
894.127
742.402
560.33
365.552
180.213
31.064
-71.654
-125.82
-140.705
-139.846
-136.012
-133.427
-131.161
-120.134
-98.726
-72
-44.724
-23.137
-9.957
-4.312
-5.856
-13.575
-25.405
-39.329
-53.383
-65.693
-75.554
-82.857
-87.013
-87.865
-85.984
-82.181
-77.637
-73.652
-70.765
-69.161
-69.187
-70.874
-74.086
-78.634
-83.977
-89.467
-94.712
-99.437
-103.446
-106.706
-109.169
-110.778
-111.577
-111.636
-111.016
-109.783
-107.964
-105.563
-102.607
-99.141
-95.235
-90.977
-86.453
-81.742
-76.902
-71.973
-66.99
-61.976
-56.948
-51.916
-46.872
-41.803
-36.708
-31.588
-26.445
-21.282
-16.091
-10.857
-5.573
-0.233
5.164
10.617
16.124
21.682
27.285
32.921
38.579
44.244
49.907
55.557
61.185
66.778
72.327
77.816
83.235
88.57
93.807
98.932
103.926
108.775
113.46
117.966
122.276
126.372
130.237
133.856
137.211
140.287
143.068
145.54
147.689
149.501
150.968
152.077
152.822
153.195
153.192
152.811
152.049
150.908
149.389
147.497
145.238
142.619
139.648
136.338
132.702
128.751
124.504
119.978
115.19
110.162
104.914
99.468
93.848
88.075
82.176
76.174
70.093
63.959
57.796
51.629
45.481
39.375
33.334
27.379
21.53
15.804
10.221
4.797
-0.454
-5.519
-10.384
-15.038
-19.474
-23.681
-27.654
-31.389
-34.881
-38.128
-41.129
-43.885
-46.397
-48.668
-50.701
-52.5
-54.073
-55.425
-56.564
-57.499
-58.239
-58.794
-59.175
-59.391
-59.453
-59.373
-59.16
-58.825
-58.379
-57.833
-57.196
-56.478
-55.69
-54.842
-53.942
-53
-52.025
-51.025
-50.009
-48.983
-47.956
-46.935
-45.927
-44.938
-43.975
-43.045
-42.154
-41.306
-40.507
-39.762
-39.074
-38.447
-37.883
-37.387
-36.96
-36.604
-36.323
-36.117
-35.987
-35.936
-35.963
-36.069
-36.253
-36.514
-36.851
-37.262
-37.744
-38.294
-38.909
-39.586
-40.32
-41.106
-41.939
-42.812
-43.719
-44.651
-45.6
-46.557
-47.513
-48.458
-49.383
-50.278
-51.133
-51.939
-52.686
-53.363
-53.961
-54.47
-54.881
-55.184
-55.37
-55.433
-55.365
-55.162
-54.818
-54.329
-53.693
-52.907
-51.971
-50.885
-49.651
-48.271
-46.749
-45.093
-43.309
-41.41
-39.405
-37.309
-35.138
-32.908
-30.64
-28.356
-26.08
-23.838
-21.653
-19.549
-17.548
-15.671
-13.938
-12.37
-10.982
-9.788
-8.802
-8.038
-7.515
-7.246
-7.24
-7.493
-7.996
-8.738
-9.719
-10.944
-12.423
-14.164
-16.163
-18.426
-20.967
-23.794
-26.904
-30.267
-33.813
-37.483
-41.237
-45.051
-48.942
-52.898
-56.847
-60.713
-64.383
-67.755
-70.814
-73.493
-75.643
-77.245
-78.352
-79.154
-80.144
-81.713
-83.938
-86.877
-90.481
-94.447
-98.617
-102.579
-105.343
-106.087
-104.389
-100.07
-93.555
-85.684
-76.908
-67.964
-60.245
-55.13
-54.042
-58.01
-67.059
-80.617
-98.293
-119.393
-142.602
-166.035
-186.674
-201.257
-207.03
-201.666
-182.674
-147.323
-93.259
-18.649
74.598
180.625
293.791
408.177
521.671
638.833
759.546
877.216
979.048
1039.313
1036.058
960.959
814.477
615.493
392.257
169.443
-27.024
-177.09
-272.151
-309.698
-295.375
-245.995
-179.869
-115.037
-70.306
-51.389
-54.897
-72.048
-86.123
-89.191
-82.035
-68.888
-59.628
-58.673
-64.36
-74.537
-85.104
-93.533
-99.89
-103.934
-105.657
-105.477
-103.685
-100.664
-97.134
-93.916
-91.509
-90.378
-90.827
-92.765
-96.011
-100.329
-105.288
-110.359
-115.156
-119.394
-122.904
-125.686
-127.74
-129.053
-129.663
-129.645
-129.063
-127.967
-126.386
-124.32
-121.783
-118.834
-115.541
-111.989
-108.261
-104.408
-100.46
-96.444
-92.371
-88.249
-84.077
-79.841
-75.517
-71.096
-66.572
-61.943
-57.208
-52.358
-47.379
-42.259
-36.99
-31.568
-25.994
-20.271
-14.405
-8.404
-2.282
3.946
10.261
16.647
23.088
29.569
36.072
42.58
49.074
55.533
61.937
68.266
74.495
80.601
86.559
92.344
97.932
103.299
108.42
113.271
117.828
122.071
125.978
129.531
132.71
135.499
137.885
139.855
141.397
142.504
143.169
143.388
143.16
142.484
141.364
139.805
137.813
135.398
132.571
129.344
125.733
121.753
117.423
112.762
107.791
102.535
97.016
91.261
85.296
79.149
72.847
66.419
59.893
53.298
46.66
40.007
33.365
26.761
20.22
13.764
7.416
1.197
-4.872
-10.773
-16.491
-22.01
-27.317
-32.401
-37.25
-41.858
-46.216
-50.319
-54.163
-57.744
-61.062
-64.115
-66.904
-69.432
-71.701
-73.718
-75.488
-77.017
-78.315
-79.389
-80.25
-80.907
-81.371
-81.653
-81.765
-81.718
-81.526
-81.199
-80.75
-80.192
-79.536
-78.795
-77.98
-77.102
-76.171
-75.198
-74.191
-73.161
-72.116
-71.065
-70.017
-68.979
-67.961
-66.969
-66.01
-65.092
-64.221
-63.402
-62.64
-61.94
-61.304
-60.737
-60.241
-59.817
-59.466
-59.188
-58.983
-58.849
-58.783
-58.781
-58.838
-58.951
-59.111
-59.313
-59.55
-59.814
-60.099
-60.396
-60.698
-60.996
-61.28
-61.543
-61.773
-61.961
-62.096
-62.166
-62.16
-62.068
-61.878
-61.579
-61.161
-60.612
-59.924
-59.088
-58.094
-56.934
-55.602
-54.093
-52.402
-50.528
-48.47
-46.227
-43.803
-41.203
-38.433
-35.501
-32.417
-29.191
-25.836
-22.366
-18.794
-15.138
-11.412
-7.634
-3.822
0.001
3.808
7.57
11.259
14.845
18.297
21.586
24.683
27.564
30.209
32.602
34.724
36.556
38.077
39.267
40.109
40.594
40.718
40.482
39.901
38.987
37.762
36.242
34.437
32.349
29.966
27.275
24.271
20.952
17.328
13.429
9.286
4.934
0.411
-4.275
-9.112
-14.065
-19.092
-24.117
-29.04
-33.796
-38.273
-42.303
-45.83
-48.867
-51.508
-54.055
-56.744
-59.56
-62.524
-65.621
-68.543
-70.985
-72.493
-72.249
-69.796
-65.291
-59.002
-51.377
-43.191
-35.013
-27.55
-21.944
-18.748
-17.784
-18.803
-21.591
-26.028
-32.406
-40.722
-50.663
-62.583
-76.875
-93.652
-111.05
-124.725
-131.875
-130.874
-121.683
-106.858
-82.008
-38.793
27.367
121.83
239.795
368.877
503.741
637.696
765.392
882.013
972.145
1015.964
997.314
909.011
755.081
554.13
334.368
121.637
-57.511
-184.426
-257.99
-281.301
-264.457
-225.151
-172.745
-119.302
-80.544
-60.339
-60.355
-74.602
-86.174
-87.545
-78.073
-61.775
-49.437
-45.811
-49.845
-59.482
-70.729
-81.394
-90.931
-98.483
-103.757
-106.699
-107.373
-106.158
-103.391
-99.551
-95.533
-92.15
-89.904
-89.02
-89.337
-90.567
-92.482
-94.714
-96.786
-98.362
-99.231
-99.313
-98.683
-97.402
-95.503
-93.067
-90.185
-86.914
-83.308
-79.386
-75.159
-70.676
-66.007
-61.237
-56.44
-51.657
-46.916
-42.237
-37.63
-33.101
-28.644
-24.237
-19.868
-15.534
-11.229
-6.956
-2.708
1.531
5.776
10.045
14.353
18.71
23.124
27.602
32.147
36.757
41.429
46.154
50.926
55.743
60.599
65.489
70.405
75.338
80.279
85.216
90.135
95.02
99.854
104.618
109.294
113.861
118.3
122.589
126.708
130.633
134.346
137.823
141.044
143.989
146.636
148.966
150.963
152.609
153.889
154.791
155.303
155.416
155.122
154.418
153.298
151.763
149.812
147.45
144.681
141.514
137.956
134.021
129.722
125.076
120.101
114.817
109.246
103.411
97.336
91.047
84.569
77.931
71.159
64.282
57.329
50.328
43.308
36.297
29.322
22.409
15.586
8.875
2.299
-4.118
-10.356
-16.396
-22.22
-27.812
-33.154
-38.235
-43.041
-47.563
-51.791
-55.718
-59.34
-62.652
-65.653
-68.342
-70.719
-72.787
-74.549
-76.011
-77.177
-78.056
-78.656
-78.987
-79.06
-78.886
-78.477
-77.846
-77.006
-75.972
-74.757
-73.374
-71.839
-70.165
-68.367
-66.462
-64.463
-62.387
-60.248
-58.063
-55.846
-53.612
-51.376
-49.152
-46.955
-44.797
-42.692
-40.654
-38.694
-36.824
-35.056
-33.4
-31.866
-30.463
-29.199
-28.08
-27.113
-26.303
-25.653
-25.168
-24.849
-24.698
-24.714
-24.899
-25.248
-25.761
-26.431
-27.254
-28.222
-29.328
-30.564
-31.918
-33.38
-34.937
-36.578
-38.288
-40.052
-41.855
-43.682
-45.514
-47.336
-49.13
-50.879
-52.567
-54.175
-55.687
-57.088
-58.361
-59.492
-60.466
-61.27
-61.891
-62.318
-62.542
-62.555
-62.348
-61.917
-61.258
-60.37
-59.253
-57.91
-56.344
-54.562
-52.57
-50.38
-48.004
-45.455
-42.748
-39.902
-36.939
-33.882
-30.756
-27.585
-24.396
-21.216
-18.073
-14.994
-12
-9.116
-6.365
-3.772
-1.364
0.835
2.804
4.521
5.971
7.136
7.999
8.554
8.8
8.737
8.364
7.671
6.639
5.258
3.529
1.456
-0.949
-3.669
-6.684
-9.956
-13.424
-17.032
-20.727
-24.469
-28.235
-31.983
-35.656
-39.184
-42.474
-45.458
-48.094
-50.329
-52.132
-53.496
-54.434
-55.009
-55.32
-55.442
-55.454
-55.433
-55.448
-55.604
-55.998
-56.774
-58.146
-60.237
-63.057
-66.454
-70.046
-73.364
-75.973
-77.318
-76.72
-73.715
-68.179
-60.641
-52.314
-44.57
-38.683
-35.77
-36.861
-42.714
-53.264
-66.91
-80.766
-91.292
-94.567
-86.903
-64.627
-23.855
37.059
115.937
208.95
310.878
418.503
533.127
654.305
777.138
889.863
974.087
1011.415
989.248
905.594
766.641
587.22
389.172
194.231
26.496
-96.211
-168.936
-194.7
-188.009
-164.878
-136.425
-112.391
-95.215
-85.814
-83.595
-82.379
-78.111
-68.648
-55.171
-42.811
-35.638
-33.105
-31.847
-32.301
-35.043
-43.371
-61.645
-84.253
-105.873
-122.614
-129.605
-130.125
-127.7
-123.328
-119.584
-116.52
-113.717
-112.077
-111.704
-112.561
-114.681
-117.668
-120.961
-124.043
-126.539
-128.217
-129.01
-129.02
-128.324
-126.982
-125.109
-122.792
-120.075
-117.001
-113.577
-109.797
-105.698
-101.344
-96.809
-92.161
-87.441
-82.671
-77.868
-73.043
-68.202
-63.337
-58.432
-53.478
-48.476
-43.428
-38.34
-33.209
-28.022
-22.769
-17.437
-12.011
-6.485
-0.853
4.888
10.735
16.682
22.721
28.839
35.026
41.273
47.568
53.9
60.257
66.623
72.984
79.322
85.62
91.857
98.012
104.063
109.987
115.762
121.365
126.773
131.962
136.909
141.59
145.983
150.065
153.813
157.206
160.224
162.849
165.062
166.849
168.196
169.092
169.529
169.501
169.005
168.04
166.609
164.715
162.365
159.569
156.339
152.688
148.631
144.187
139.376
134.22
128.741
122.966
116.919
110.628
104.121
97.427
90.575
83.594
76.515
69.368
62.183
54.991
47.822
40.704
33.666
26.736
19.939
13.299
6.84
0.583
-5.453
-11.251
-16.796
-22.072
-27.069
-31.777
-36.188
-40.295
-44.095
-47.584
-50.762
-53.63
-56.189
-58.444
-60.399
-62.061
-63.437
-64.535
-65.365
-65.938
-66.266
-66.36
-66.235
-65.905
-65.384
-64.688
-63.833
-62.836
-61.711
-60.477
-59.147
-57.739
-56.269
-54.751
-53.201
-51.633
-50.061
-48.498
-46.958
-45.453
-43.995
-42.593
-41.259
-40.003
-38.832
-37.757
-36.783
-35.919
-35.169
-34.541
-34.037
-33.663
-33.42
-33.31
-33.334
-33.493
-33.783
-34.204
-34.752
-35.421
-36.207
-37.104
-38.105
-39.201
-40.383
-41.643
-42.97
-44.354
-45.783
-47.247
-48.734
-50.23
-51.724
-53.203
-54.654
-56.064
-57.418
-58.704
-59.908
-61.017
-62.02
-62.903
-63.653
-64.26
-64.714
-65.003
-65.12
-65.056
-64.803
-64.357
-63.712
-62.868
-61.823
-60.575
-59.129
-57.486
-55.654
-53.638
-51.446
-49.088
-46.575
-43.918
-41.133
-38.232
-35.234
-32.155
-29.016
-25.84
-22.652
-19.475
-16.337
-13.262
-10.277
-7.41
-4.683
-2.119
0.261
2.439
4.389
6.091
7.523
8.67
9.517
10.05
10.258
10.13
9.666
8.874
7.757
6.315
4.543
2.42
-0.062
-2.9
-6.092
-9.63
-13.501
-17.687
-22.15
-26.829
-31.666
-36.605
-41.6
-46.624
-51.623
-56.527
-61.25
-65.693
-69.774
-73.441
-76.643
-79.325
-81.475
-83.091
-84.21
-84.943
-85.391
-85.65
-85.847
-86.082
-86.47
-87.208
-88.543
-90.675
-93.703
-97.499
-101.699
-105.898
-109.672
-112.496
-113.752
-112.858
-109.557
-104.336
-98.42
-93.325
-90.529
-91.292
-96.665
-107.424
-123.622
-143.679
-164.347
-181.447
-190.482
-187.103
-167.21
-127.021
-63.353
22.981
126.644
241.594
360.491
479.785
602.717
727.632
847.847
951.522
1014.081
1015.426
947.827
810.613
622.531
412.642
206.525
32.838
-90.113
-161.743
-188.613
-189.133
-183.955
-180.939
-181.267
-179.657
-168.289
-147.504
-121.921
-96.209
-75.385
-61.276
-53.366
-51.665
-55.507
-63.544
-74.389
-86.78
-99.493
-111.36
-121.589
-129.266
-133.794
-135.354
-134.507
-131.881
-128.315
-124.785
-121.903
-120.197
-120.021
-121.294
-123.8
-127.254
-131.162
-134.936
-138.214
-140.758
-142.438
-143.307
-143.385
-142.678
-141.273
-139.276
-136.759
-133.778
-130.353
-126.474
-122.181
-117.545
-112.646
-107.585
-102.425
-97.199
-91.94
-86.668
-81.397
-76.136
-70.88
-65.611
-60.322
-55.015
-49.693
-44.362
-39.019
-33.653
-28.252
-22.803
-17.299
-11.739
-6.121
-0.448
5.276
11.044
16.844
22.662
28.487
34.308
40.117
45.901
51.65
57.349
62.984
68.541
74.003
79.354
84.575
89.647
94.55
99.266
103.775
108.058
112.096
115.87
119.362
122.554
125.43
127.974
130.17
132.005
133.466
134.545
135.23
135.517
135.398
134.873
133.94
132.6
130.857
128.717
126.187
123.276
119.996
116.359
112.382
108.081
103.473
98.579
93.421
88.02
82.402
76.59
70.61
64.488
58.249
51.921
45.529
39.1
32.66
26.233
19.846
13.522
7.283
1.153
-4.848
-10.702
-16.389
-21.893
-27.2
-32.296
-37.169
-41.809
-46.208
-50.358
-54.255
-57.894
-61.274
-64.394
-67.255
-69.86
-72.212
-74.315
-76.177
-77.802
-79.2
-80.378
-81.345
-82.113
-82.69
-83.087
-83.317
-83.388
-83.314
-83.105
-82.773
-82.328
-81.781
-81.144
-80.426
-79.637
-78.788
-77.888
-76.945
-75.969
-74.968
-73.949
-72.919
-71.884
-70.85
-69.822
-68.804
-67.801
-66.815
-65.85
-64.909
-63.993
-63.104
-62.243
-61.412
-60.61
-59.839
-59.098
-58.386
-57.705
-57.053
-56.431
-55.837
-55.272
-54.734
-54.222
-53.735
-53.272
-52.829
-52.405
-51.997
-51.603
-51.219
-50.842
-50.469
-50.098
-49.724
-49.345
-48.956
-48.555
-48.135
-47.695
-47.229
-46.734
-46.205
-45.64
-45.033
-44.382
-43.682
-42.93
-42.121
-41.253
-40.319
-39.317
-38.243
-37.093
-35.865
-34.556
-33.165
-31.69
-30.132
-28.492
-26.771
-24.972
-23.097
-21.152
-19.142
-17.071
-14.948
-12.782
-10.581
-8.358
-6.127
-3.902
-1.697
0.471
2.586
4.63
6.588
8.443
10.18
11.784
13.238
14.527
15.632
16.536
17.222
17.674
17.879
17.822
17.492
16.884
15.994
14.822
13.36
11.598
9.524
7.134
4.427
1.405
-1.923
-5.543
-9.426
-13.528
-17.799
-22.187
-26.647
-31.139
-35.621
-40.051
-44.369
-48.501
-52.38
-55.951
-59.171
-62
-64.418
-66.431
-68.088
-69.507
-70.825
-72.15
-73.582
-75.22
-77.144
-79.465
-82.341
-85.802
-89.847
-94.607
-100.101
-106.287
-113.129
-120.242
-127.025
-133.198
-138.592
-142.469
-144.179
-143.558
-140.305
-135.912
-133.789
-134.393
-136.673
-138.924
-134.517
-121.185
-103.16
-83.894
-72.763
-77.364
-92.953
-110.706
-115.466
-86.308
-11.203
112.81
282.824
483.55
693.595
890.922
1049.052
1144.569
1163.95
1104.014
974.747
798.081
597.739
395.115
208.844
50.472
-69.848
-146.1
-181.041
-181.608
-163.69
-143.305
-128.377
-123.726
-124.35
-122.158
-114.992
-100.534
-82.016
-66.544
-56.955
-55.615
-61.872
-71.23
-80.691
-88.316
-93.154
-95.844
-96.64
-95.017
-91.006
-85.172
-78.515
-72.404
-67.59
-64.196
-62.289
-61.963
-63.232
-65.992
-69.857
-74.155
-78.402
-82.322
-85.704
-88.461
-90.51
-91.747
-92.166
-91.836
-90.818
-89.173
-86.951
-84.166
-80.85
-77.063
-72.864
-68.341
-63.586
-58.682
-53.714
-48.739
-43.798
-38.922
-34.131
-29.432
-24.824
-20.294
-15.822
-11.399
-7.019
-2.676
1.639
5.941
10.247
14.571
18.924
23.313
27.743
32.219
36.742
41.31
45.919
50.561
55.23
59.919
64.623
69.337
74.055
78.769
83.471
88.153
92.806
97.418
101.978
106.472
110.883
115.198
119.399
123.47
127.392
131.148
134.718
138.086
141.231
144.137
146.784
149.156
151.236
153.01
154.463
155.583
156.359
156.78
156.841
156.533
155.854
154.801
153.372
151.568
149.392
146.849
143.943
140.683
137.078
133.138
128.878
124.311
119.455
114.326
108.944
103.33
97.507
91.497
85.326
79.017
72.596
66.09
59.526
52.928
46.324
39.739
33.198
26.723
20.339
14.067
7.928
1.94
-3.878
-9.509
-14.94
-20.155
-25.142
-29.89
-34.391
-38.634
-42.614
-46.325
-49.763
-52.924
-55.808
-58.415
-60.746
-62.805
-64.594
-66.122
-67.394
-68.419
-69.208
-69.77
-70.118
-70.264
-70.221
-70.003
-69.624
-69.096
-68.435
-67.655
-66.767
-65.788
-64.728
-63.602
-62.421
-61.198
-59.944
-58.67
-57.387
-56.106
-54.835
-53.585
-52.364
-51.181
-50.045
-48.963
-47.942
-46.989
-46.108
-45.304
-44.582
-43.943
-43.391
-42.925
-42.546
-42.253
-42.045
-41.92
-41.874
-41.904
-42.005
-42.174
-42.404
-42.691
-43.029
-43.411
-43.832
-44.285
-44.764
-45.262
-45.772
-46.287
-46.8
-47.304
-47.791
-48.252
-48.678
-49.062
-49.395
-49.668
-49.873
-50.003
-50.05
-50.005
-49.863
-49.618
-49.265
-48.798
-48.213
-47.507
-46.679
-45.728
-44.654
-43.458
-42.143
-40.711
-39.167
-37.516
-35.764
-33.918
-31.984
-29.972
-27.89
-25.749
-23.56
-21.334
-19.087
-16.834
-14.593
-12.383
-10.222
-8.132
-6.132
-4.243
-2.485
-0.874
0.574
1.841
2.914
3.772
4.4
4.786
4.918
4.784
4.379
3.694
2.727
1.487
-0.02
-1.791
-3.825
-6.136
-8.731
-11.611
-14.776
-18.216
-21.922
-25.878
-30.053
-34.396
-38.855
-43.376
-47.917
-52.444
-56.917
-61.28
-65.465
-69.388
-72.972
-76.161
-78.896
-81.137
-82.869
-84.105
-84.9
-85.34
-85.517
-85.538
-85.52
-85.571
-85.807
-86.319
-87.233
-88.766
-91.097
-94.283
-98.196
-102.502
-106.805
-110.767
-113.973
-115.765
-115.518
-112.997
-108.651
-103.484
-98.617
-95.152
-94.038
-96.499
-104.101
-116.032
-128.65
-138.465
-141.133
-136.588
-130.38
-122.064
-108.3
-80.646
-22.651
71.764
201.913
362.156
534.883
705.74
858.039
971.187
1032.938
1031.433
965.766
846.811
684.425
496.189
299.039
107.731
-55.932
-176.332
-246.603
-266.135
-247.923
-210.216
-167.28
-133.604
-116.739
-114.679
-123.269
-132.936
-134.809
-127.595
-114.155
-100.854
-92.926
-91.382
-94.42
-98.916
-103.411
-107.762
-111.749
-115.594
-119.014
-121.19
-122.077
-121.835
-120.44
-118.349
-116.261
-114.523
-113.478
-113.499
-114.55
-116.513
-119.293
-122.467
-125.5
-128.088
-130.011
-131.136
-131.506
-131.128
-129.989
-128.187
-125.842
-123.037
-119.846
-116.295
-112.382
-108.153
-103.68
-99.044
-94.337
-89.617
-84.916
-80.262
-75.668
-71.143
-66.69
-62.293
-57.93
-53.587
-49.257
-44.939
-40.635
-36.334
-32.022
-27.685
-23.306
-18.873
-14.381
-9.824
-5.199
-0.508
4.248
9.06
13.921
18.822
23.76
28.726
33.716
38.721
43.733
48.74
53.733
58.697
63.62
68.486
73.279
77.983
82.581
87.056
91.389
95.564
99.562
103.366
106.958
110.319
113.432
116.28
118.848
121.12
123.084
124.726
126.035
127.004
127.624
127.889
127.798
127.347
126.537
125.37
123.849
121.98
119.77
117.228
114.364
111.189
107.718
103.965
99.946
95.678
91.18
86.47
81.568
76.496
71.273
65.924
60.468
54.93
49.331
43.695
38.045
32.402
26.789
21.226
15.735
10.334
5.042
-0.124
-5.146
-10.011
-14.705
-19.214
-23.528
-27.636
-31.53
-35.201
-38.644
-41.852
-44.821
-47.547
-50.028
-52.263
-54.249
-55.989
-57.482
-58.731
-59.739
-60.509
-61.047
-61.359
-61.45
-61.327
-61
-60.477
-59.767
-58.879
-57.825
-56.614
-55.257
-53.766
-52.151
-50.423
-48.594
-46.674
-44.676
-42.609
-40.486
-38.315
-36.11
-33.879
-31.633
-29.384
-27.14
-24.911
-22.709
-20.541
-18.418
-16.347
-14.337
-12.396
-10.531
-8.748
-7.053
-5.45
-3.944
-2.538
-1.234
-0.033
1.063
2.055
2.945
3.733
4.421
5.015
5.516
5.931
6.265
6.523
6.713
6.841
6.916
6.946
6.94
6.907
6.854
6.793
6.734
6.685
6.658
6.662
6.707
6.803
6.961
7.188
7.494
7.886
8.371
8.955
9.645
10.444
11.356
12.381
13.522
14.777
16.148
17.629
19.216
20.903
22.682
24.546
26.483
28.479
30.52
32.588
34.667
36.739
38.787
40.792
42.734
44.595
46.354
47.996
49.501
50.848
52.016
52.984
53.735
54.252
54.525
54.539
54.285
53.758
52.956
51.87
50.498
48.828
46.85
44.564
41.97
39.072
35.884
32.426
28.725
24.827
20.774
16.598
12.336
8.011
3.653
-0.678
-4.937
-9.082
-13.069
-16.89
-20.511
-23.846
-26.872
-29.613
-32.125
-34.552
-36.951
-39.251
-41.55
-44.085
-47.101
-50.924
-55.609
-60.913
-66.884
-73.748
-81.363
-89.239
-96.468
-101.808
-104.735
-105.399
-103.552
-98.851
-91.458
-82.276
-73.391
-67.411
-65.715
-68.833
-77.55
-92.15
-112.377
-135.449
-155.131
-166.741
-167.391
-156.426
-136.505
-103.595
-50.226
27.264
133.239
261.083
397.358
536.115
668.846
790.336
896.598
970.704
994.77
953.595
838.722
659.681
438.657
206.934
-3.418
-169.071
-276.911
-330.346
-340.464
-318.641
-280.103
-232.961
-185.271
-150.234
-131.499
-129.925
-140.022
-146.355
-142.099
-126.933
-104.844
-86.213
-75.526
-71.853
-74.022
-79.142
-85.835
-94.307
-103.398
-111.738
-118.701
-123.847
-126.957
-128.149
-127.456
-125.151
-122.299
-119.909
-118.411
-117.984
-118.47
-119.517
-120.976
-122.608
-123.911
-124.556
-124.382
-123.302
-121.438
-118.933
-115.829
-112.213
-108.188
-103.795
-99.1
-94.16
-89
-83.687
-78.283
-72.825
-67.356
-61.902
-56.469
-51.067
-45.69
-40.313
-34.924
-29.516
-24.088
-18.649
-13.199
-7.728
-2.228
3.312
8.899
14.541
20.247
26.022
31.87
37.788
43.768
49.801
55.879
61.996
68.147
74.326
80.526
86.738
92.953
99.162
105.354
111.513
117.625
123.672
129.637
135.503
141.252
146.865
152.322
157.602
162.687
167.556
172.187
176.561
180.656
184.451
187.928
191.068
193.852
196.265
198.29
199.913
201.124
201.911
202.266
202.182
201.654
200.68
199.26
197.393
195.084
192.337
189.159
185.56
181.548
177.139
172.345
167.184
161.673
155.831
149.68
143.243
136.542
129.603
122.452
115.116
107.622
99.998
92.272
84.473
76.629
68.769
60.92
53.11
45.365
37.71
30.171
22.769
15.528
8.467
1.608
-5.034
-11.44
-17.595
-23.484
-29.096
-34.419
-39.443
-44.159
-48.561
-52.644
-56.405
-59.843
-62.958
-65.75
-68.225
-70.387
-72.242
-73.798
-75.064
-76.051
-76.77
-77.233
-77.454
-77.447
-77.227
-76.808
-76.206
-75.438
-74.517
-73.461
-72.284
-71.001
-69.628
-68.181
-66.673
-65.121
-63.539
-61.94
-60.34
-58.75
-57.185
-55.654
-54.169
-52.739
-51.374
-50.081
-48.867
-47.738
-46.699
-45.753
-44.904
-44.154
-43.501
-42.947
-42.49
-42.126
-41.853
-41.667
-41.564
-41.538
-41.584
-41.696
-41.869
-42.096
-42.369
-42.682
-43.025
-43.392
-43.773
-44.159
-44.542
-44.911
-45.257
-45.572
-45.846
-46.073
-46.243
-46.35
-46.384
-46.34
-46.211
-45.991
-45.676
-45.259
-44.739
-44.112
-43.376
-42.532
-41.579
-40.517
-39.348
-38.073
-36.697
-35.222
-33.654
-31.996
-30.255
-28.44
-26.557
-24.617
-22.631
-20.61
-18.569
-16.524
-14.491
-12.488
-10.532
-8.639
-6.83
-5.121
-3.526
-2.062
-0.741
0.421
1.409
2.203
2.791
3.158
3.292
3.182
2.816
2.186
1.295
0.144
-1.267
-2.944
-4.902
-7.158
-9.713
-12.57
-15.724
-19.162
-22.864
-26.799
-30.908
-35.134
-39.424
-43.726
-48.014
-52.255
-56.399
-60.386
-64.142
-67.594
-70.702
-73.43
-75.737
-77.624
-79.119
-80.3
-81.306
-82.253
-83.234
-84.35
-85.692
-87.376
-89.553
-92.316
-95.787
-100.159
-105.51
-111.836
-118.99
-126.471
-133.667
-140.049
-144.938
-147.609
-147.611
-144.735
-139.375
-132.817
-126.562
-121.814
-119.666
-121.274
-127.252
-137.35
-150.225
-161.504
-166.226
-161.698
-144.244
-113.125
-68.099
-4.189
77.754
177.001
293.035
417.494
549.202
685.042
812.69
921.625
991.967
1003.348
951.369
837.746
673.802
482.592
283.407
96.523
-55.553
-163.017
-224.125
-243.806
-235.647
-209.121
-168.992
-122.249
-77.409
-43.615
-28.929
-33.004
-46.603
-61.329
-71.797
-77.456
-83.512
-92.552
-103.708
-115.239
-123.654
-126.921
-125.585
-120.599
-113.449
-105.986
-99.239
-93.691
-89.787
-87.709
-87.404
-88.806
-91.59
-95.118
-98.951
-102.836
-106.553
-109.987
-112.993
-115.393
-117.118
-118.189
-118.622
-118.421
-117.571
-116.053
-113.891
-111.142
-107.863
-104.112
-99.934
-95.384
-90.529
-85.446
-80.215
-74.9
-69.539
-64.164
-58.796
-53.446
-48.124
-42.824
-37.528
-32.224
-26.901
-21.549
-16.166
-10.743
-5.271
0.256
5.846
11.501
17.223
23.009
28.857
34.76
40.709
46.692
52.694
58.701
64.699
70.675
76.612
82.497
88.314
94.045
99.676
105.188
110.562
115.778
120.816
125.656
130.277
134.659
138.781
142.625
146.172
149.404
152.305
154.857
157.046
158.859
160.284
161.311
161.931
162.137
161.926
161.294
160.241
158.771
156.887
154.595
151.904
148.824
145.366
141.546
137.378
132.879
128.068
122.964
117.589
111.966
106.117
100.067
93.84
87.462
80.956
74.35
67.666
60.931
54.168
47.401
40.653
33.946
27.301
20.739
14.278
7.935
1.726
-4.334
-10.234
-15.961
-21.508
-26.865
-32.027
-36.989
-41.747
-46.299
-50.646
-54.787
-58.724
-62.461
-66
-69.348
-72.508
-75.489
-78.296
-80.936
-83.418
-85.748
-87.935
-89.987
-91.913
-93.72
-95.416
-97.01
-98.51
-99.921
-101.252
-102.509
-103.696
-104.82
-105.885
-106.896
-107.854
-108.764
-109.627
-110.445
-111.22
-111.951
-112.639
-113.283
-113.882
-114.436
-114.942
-115.399
-115.805
-116.156
-116.452
-116.69
-116.867
-116.981
-117.03
-117.011
-116.923
-116.764
-116.531
-116.224
-115.841
-115.38
-114.841
-114.223
-113.525
-112.748
-111.89
-110.953
-109.936
-108.841
-107.667
-106.415
-105.087
-103.683
-102.204
-100.651
-99.026
-97.329
-95.563
-93.727
-91.823
-89.853
-87.818
-85.72
-83.559
-81.336
-79.052
-76.707
-74.304
-71.842
-69.321
-66.743
-64.107
-61.416
-58.67
-55.87
-53.017
-50.113
-47.161
-44.163
-41.123
-38.044
-34.931
-31.79
-28.628
-25.451
-22.269
-19.091
-15.93
-12.799
-9.709
-6.677
-3.718
-0.848
1.917
4.561
7.068
9.423
11.609
13.611
15.411
16.991
18.334
19.422
20.238
20.767
20.994
20.908
20.5
19.766
18.702
17.298
15.541
13.418
10.924
8.056
4.819
1.22
-2.722
-6.978
-11.499
-16.237
-21.141
-26.168
-31.284
-36.456
-41.644
-46.793
-51.833
-56.697
-61.331
-65.697
-69.756
-73.485
-76.886
-80.01
-82.965
-85.866
-88.799
-91.83
-95.008
-98.407
-102.137
-106.314
-111.009
-116.306
-122.329
-129.145
-136.77
-145.034
-153.471
-161.508
-168.603
-174.173
-177.575
-178.298
-176.061
-171.174
-164.709
-157.897
-151.705
-147.106
-145.328
-147.497
-154.154
-163.118
-169.544
-168.874
-158.281
-139.956
-118.012
-92.392
-58.442
-4.159
82.328
204.778
359.524
530.801
699.751
849.45
962.207
1029.842
1045.575
1003.591
907.949
759.957
567.695
352.158
133.593
-59.662
-200.15
-280.627
-301.692
-274.721
-223.686
-162.972
-106.286
-69.038
-52.295
-55.58
-73.446
-90.568
-101.279
-105.319
-104.488
-106.527
-113.49
-122.823
-132.51
-139.186
-141.346
-139.621
-134.689
-127.791
-120.537
-114.02
-108.797
-105.124
-103.025
-102.565
-103.8
-106.533
-110.246
-114.416
-118.737
-123.021
-127.18
-131.073
-134.465
-137.21
-139.27
-140.653
-141.371
-141.414
-140.749
-139.378
-137.352
-134.734
-131.589
-127.978
-123.946
-119.554
-114.878
-109.995
-104.986
-99.912
-94.808
-89.702
-84.609
-79.538
-74.489
-69.454
-64.416
-59.358
-54.269
-49.138
-43.962
-38.732
-33.441
-28.081
-22.646
-17.131
-11.536
-5.865
-0.122
5.687
11.551
17.458
23.394
29.345
35.298
41.239
47.154
53.03
58.852
64.606
70.274
75.842
81.29
86.6
91.754
96.73
101.511
106.076
110.405
114.479
118.28
121.788
124.988
127.86
130.391
132.564
134.369
135.792
136.824
137.457
137.684
137.5
136.904
135.894
134.473
132.643
130.41
127.782
124.768
121.379
117.628
113.53
109.099
104.353
99.312
93.994
88.422
82.618
76.605
70.407
64.049
57.556
50.953
44.266
37.521
30.742
23.956
17.186
10.458
3.794
-2.781
-9.247
-15.582
-21.765
-27.779
-33.606
-39.23
-44.637
-49.814
-54.75
-59.434
-63.858
-68.015
-71.899
-75.505
-78.83
-81.873
-84.631
-87.106
-89.298
-91.211
-92.847
-94.211
-95.308
-96.145
-96.727
-97.063
-97.161
-97.031
-96.681
-96.123
-95.369
-94.429
-93.316
-92.042
-90.622
-89.067
-87.391
-85.607
-83.728
-81.767
-79.737
-77.649
-75.517
-73.352
-71.166
-68.969
-66.773
-64.589
-62.426
-60.294
-58.204
-56.164
-54.184
-52.272
-50.436
-48.685
-47.024
-45.462
-44.003
-42.653
-41.415
-40.294
-39.291
-38.407
-37.642
-36.995
-36.465
-36.047
-35.739
-35.536
-35.432
-35.422
-35.498
-35.654
-35.883
-36.177
-36.529
-36.932
-37.376
-37.854
-38.357
-38.878
-39.406
-39.931
-40.444
-40.935
-41.395
-41.813
-42.18
-42.486
-42.721
-42.879
-42.952
-42.931
-42.813
-42.591
-42.262
-41.824
-41.276
-40.619
-39.854
-38.984
-38.015
-36.953
-35.803
-34.573
-33.27
-31.901
-30.476
-29.003
-27.49
-25.947
-24.385
-22.817
-21.257
-19.723
-18.23
-16.794
-15.434
-14.167
-13.008
-11.972
-11.067
-10.302
-9.691
-9.241
-8.961
-8.858
-8.934
-9.188
-9.623
-10.237
-11.022
-11.969
-13.061
-14.289
-15.649
-17.143
-18.784
-20.577
-22.52
-24.613
-26.855
-29.243
-31.764
-34.387
-37.059
-39.728
-42.345
-44.862
-47.234
-49.391
-51.254
-52.738
-53.749
-54.223
-54.114
-53.373
-51.974
-49.912
-47.184
-43.859
-40.071
-35.959
-31.715
-27.536
-23.573
-20.055
-17.295
-15.516
-14.84
-15.174
-16.109
-17.201
-18.141
-18.557
-17.967
-16.002
-12.555
-8.189
-4.247
-2.326
-3.625
-8.796
-18.682
-33.984
-54.293
-77.942
-100.64
-115.755
-119.26
-109.15
-84.824
-48.826
0.92
68.686
156.772
268.859
401.896
548.268
700.836
846.951
972.805
1064.746
1104.649
1079.325
985.724
827.486
622.988
400.697
186.452
7.163
-119.639
-192.758
-215.453
-200.82
-167.489
-128.072
-97.016
-83.255
-85.576
-100.101
-115.989
-123.046
-118.988
-105.726
-90.175
-78.412
-71.553
-68.349
-66.297
-64.347
-63.145
-63.554
-66.039
-69.907
-74.41
-79.112
-83.291
-86.429
-88.264
-88.565
-87.688
-86.485
-85.422
-84.779
-84.894
-85.784
-87.354
-89.499
-91.827
-93.828
-95.237
-95.909
-95.748
-94.813
-93.158
-90.813
-87.9
-84.543
-80.815
-76.767
-72.437
-67.846
-63.056
-58.158
-53.213
-48.273
-43.372
-38.52
-33.729
-29.003
-24.326
-19.676
-15.033
-10.389
-5.737
-1.081
3.583
8.264
12.972
17.72
22.521
27.383
32.314
37.319
42.398
47.546
52.756
58.017
63.321
68.662
74.031
79.421
84.826
90.234
95.636
101.022
106.378
111.69
116.941
122.113
127.189
132.153
136.986
141.67
146.185
150.513
154.637
158.537
162.195
165.594
168.715
171.542
174.061
176.256
178.115
179.626
180.779
181.567
181.982
182.02
181.68
180.959
179.859
178.384
176.537
174.328
171.763
168.853
165.611
162.051
158.189
154.041
149.626
144.964
140.075
134.98
129.703
124.266
118.692
113.004
107.227
101.384
95.498
89.593
83.692
77.816
71.986
66.224
60.547
54.976
49.526
44.215
39.055
34.062
29.246
24.618
20.188
15.961
11.945
8.144
4.562
1.199
-1.942
-4.862
-7.564
-10.048
-12.32
-14.383
-16.243
-17.906
-19.378
-20.668
-21.782
-22.729
-23.517
-24.154
-24.65
-25.012
-25.249
-25.37
-25.383
-25.296
-25.119
-24.859
-24.523
-24.121
-23.658
-23.142
-22.58
-21.978
-21.341
-20.675
-19.985
-19.276
-18.553
-17.82
-17.081
-16.34
-15.601
-14.867
-14.142
-13.427
-12.726
-12.042
-11.377
-10.733
-10.113
-9.52
-8.956
-8.425
-7.929
-7.47
-7.05
-6.67
-6.333
-6.039
-5.788
-5.582
-5.419
-5.3
-5.225
-5.192
-5.201
-5.25
-5.336
-5.459
-5.613
-5.796
-6.004
-6.231
-6.473
-6.724
-6.979
-7.232
-7.477
-7.708
-7.917
-8.099
-8.245
-8.349
-8.402
-8.396
-8.325
-8.181
-7.957
-7.648
-7.249
-6.756
-6.164
-5.472
-4.678
-3.782
-2.783
-1.681
-0.479
0.822
2.215
3.697
5.26
6.895
8.591
10.335
12.111
13.905
15.699
17.477
19.221
20.913
22.538
24.082
25.53
26.867
28.076
29.138
30.039
30.763
31.299
31.636
31.763
31.668
31.351
30.814
30.058
29.079
27.863
26.388
24.641
22.618
20.322
17.759
14.936
11.871
8.599
5.179
1.671
-1.869
-5.396
-8.879
-12.268
-15.496
-18.483
-21.136
-23.384
-25.187
-26.516
-27.342
-27.672
-27.53
-26.974
-26.147
-25.193
-24.252
-23.481
-23.014
-22.956
-23.48
-24.818
-27.11
-30.409
-34.582
-39.224
-43.934
-48.418
-52.308
-55.107
-56.395
-55.9
-53.873
-51.33
-49.423
-48.927
-50.251
-53.891
-60.354
-69.626
-80.818
-90.538
-93.468
-86.918
-69.806
-42.532
-8.634
35.017
94.296
170.709
268.325
382.448
502.535
626.607
747.732
856.915
946.589
997.144
991.34
925.798
803.514
638.238
451.655
259.954
79.455
-69.417
-173.939
-229.143
-239.427
-223.469
-200.278
-179.481
-163.94
-149.097
-128.968
-104.193
-78.296
-55.293
-39.603
-32.549
-33.076
-39.842
-50.954
-64.341
-78.707
-92.963
-105.546
-115.296
-121.775
-124.821
-124.803
-122.57
-118.719
-113.916
-109.262
-105.502
-102.962
-101.827
-101.899
-102.821
-104.372
-106.164
-107.629
-108.419
-108.334
-107.276
-105.333
-102.566
-98.971
-94.624
-89.621
-84.031
-77.924
-71.333
-64.262
-56.754
-48.88
-40.722
-32.378
-23.913
-15.368
-6.779
1.827
10.427
18.998
27.537
36.046
44.52
52.95
61.325
69.629
77.859
86.019
94.108
102.131
110.088
117.973
125.78
133.503
141.132
148.656
156.061
163.332
170.456
177.423
184.222
190.842
197.273
203.503
209.519
215.31
220.865
226.168
231.207
235.968
240.439
244.607
248.46
251.985
255.173
258.012
260.494
262.608
264.347
265.703
266.668
267.239
267.41
267.179
266.544
265.505
264.063
262.222
259.986
257.361
254.356
250.979
247.24
243.153
238.731
233.987
228.939
223.603
217.998
212.142
206.057
199.764
193.284
186.64
179.853
172.946
165.942
158.862
151.728
144.563
137.386
130.218
123.08
115.991
108.968
102.03
95.192
88.47
81.877
75.427
69.13
62.997
57.036
51.256
45.663
40.263
35.061
30.058
25.258
20.661
16.268
12.077
8.085
4.29
0.687
-2.728
-5.96
-9.016
-11.9
-14.621
-17.184
-19.596
-21.866
-24.001
-26.008
-27.897
-29.674
-31.348
-32.926
-34.416
-35.825
-37.159
-38.425
-39.63
-40.78
-41.881
-42.94
-43.963
-44.956
-45.927
-46.88
-47.823
-48.762
-49.7
-50.644
-51.599
-52.567
-53.554
-54.564
-55.601
-56.669
-57.773
-58.915
-60.1
-61.331
-62.61
-63.941
-65.324
-66.762
-68.256
-69.809
-71.422
-73.098
-74.837
-76.641
-78.512
-80.448
-82.45
-84.516
-86.643
-88.825
-91.058
-93.336
-95.65
-97.992
-100.353
-102.726
-105.1
-107.47
-109.825
-112.157
-114.457
-116.714
-118.915
-121.046
-123.089
-125.026
-126.841
-128.517
-130.041
-131.398
-132.575
-133.56
-134.344
-134.918
-135.268
-135.378
-135.224
-134.785
-134.059
-133.045
-131.754
-130.211
-128.432
-126.439
-124.268
-121.943
-119.48
-116.883
-114.13
-111.2
-108.092
-104.817
-101.41
-97.902
-94.292
-90.578
-86.752
-82.785
-78.659
-74.344
-69.775
-64.919
-59.786
-54.422
-48.928
-43.424
-37.984
-32.665
-27.511
-22.559
-17.891
-13.58
-9.68
-6.269
-3.419
-1.215
0.21
0.78
0.512
-0.54
-2.248
-4.454
-7.059
-9.964
-13.057
-16.243
-19.393
-22.402
-25.218
-27.766
-29.973
-31.779
-33.103
-33.924
-34.321
-34.389
-34.276
-34.189
-34.3
-34.783
-35.79
-37.485
-40.091
-43.744
-48.445
-53.998
-59.953
-65.858
-71.383
-76.072
-79.285
-80.527
-79.557
-76.809
-73.504
-70.803
-69.419
-70.234
-74.37
-82.498
-94.833
-108.959
-119.66
-123.92
-120.057
-108.01
-90.617
-63.424
-18.505
47.923
141.179
256.4
381.504
512.423
641.3
759.493
861.181
928.945
944.56
901.59
797.112
639.055
450.147
249.582
60.789
-88.857
-189.885
-240.473
-250.031
-243.092
-233.464
-226.437
-222.248
-212.147
-194.148
-173.015
-153.091
-139.75
-134.896
-136.554
-142.583
-150.792
-158.979
-165.399
-169.15
-170.058
-168.497
-165.334
-161.397
-157.312
-153.862
-151.836
-151.597
-153.208
-156.493
-161.049
-166.552
-172.773
-179.425
-186.204
-192.867
-199.182
-204.97
-210.153
-214.658
-218.424
-221.428
-223.652
-225.103
-225.833
-225.909
-225.395
-224.361
-222.866
-220.968
-218.743
-216.27
-213.636
-210.924
-208.192
-205.476
-202.807
-200.204
-197.677
-195.229
-192.846
-190.505
-188.189
-185.887
-183.591
-181.296
-178.992
-176.661
-174.293
-171.874
-169.394
-166.849
-164.23
-161.532
-158.753
-155.893
-152.954
-149.941
-146.857
-143.703
-140.478
-137.185
-133.826
-130.403
-126.919
-123.378
-119.784
-116.143
-112.465
-108.758
-105.031
-101.294
-97.558
-93.833
-90.131
-86.464
-82.842
-79.278
-75.782
-72.367
-69.045
-65.827
