Name
Date of Birth,"Mar 27, 1959"
Recorded Date,2022-09-01 20:46:10 -0500
Classification,Sinus Rhythm
Symptoms,
Software Version,1.90
Device,"Watch4,2"
Sample Rate,510.227 hertz


Lead,Lead I
Unit,µV

-109.616
-121.371
-132.309
-142.185
-150.688
-157.515
-162.446
-165.295
-165.952
-164.398
-160.634
-154.732
-146.837
-137.075
-125.598
-112.595
-98.218
-82.652
-66.136
-48.907
-31.3
-13.703
3.586
20.293
36.21
51.229
65.25
78.221
90.154
101.014
110.759
119.394
126.905
133.345
138.866
143.589
147.696
151.424
154.961
158.546
162.301
166.088
169.59
172.442
174.428
175.701
176.519
176.854
176.735
176.422
176.479
177.666
180.156
183.179
185.574
186.581
185.685
182.349
175.659
164.396
148.034
127.247
103.521
78.102
51.814
25.399
-0.138
-23.413
-43.348
-59.763
-73.29
-84.492
-93.603
-100.712
-105.89
-109.504
-111.967
-113.32
-113.272
-111.58
-108.178
-103.205
-96.987
-89.783
-81.826
-73.42
-64.865
-56.434
-48.343
-40.705
-33.557
-26.919
-20.785
-15.141
-9.987
-5.307
-1.082
2.728
6.197
9.425
12.53
15.617
18.758
21.999
25.365
28.861
32.477
36.179
39.907
43.603
47.215
50.699
54.018
57.127
59.968
62.475
64.576
66.213
67.347
67.947
67.995
67.479
66.395
64.756
62.595
59.94
56.815
53.236
49.204
44.728
39.829
34.531
28.864
22.86
16.551
9.982
3.217
-3.684
-10.66
-17.657
-24.639
-31.556
-38.342
-44.919
-51.188
-57.057
-62.453
-67.31
-71.581
-75.245
-78.299
-80.77
-82.715
-84.2
-85.309
-86.156
-86.848
-87.487
-88.186
-89.115
-90.546
-92.704
-95.641
-99.157
-102.844
-106.273
-109.062
-110.731
-110.615
-108.183
-103.397
-97.03
-90.434
-84.857
-81.626
-82.129
-87.394
-98.312
-113.553
-128.485
-139.976
-145.966
-145.805
-142.587
-132.026
-103.567
-48.29
43.397
168.988
313.103
461.209
597.593
712.282
803.863
869.057
904.941
909.983
882.665
824.554
738.725
625.763
485.907
324.157
152.703
-7.11
-133.019
-212.773
-247.938
-253.382
-245.296
-232.754
-217.721
-196.47
-168.036
-136.435
-106.703
-84.004
-71.132
-68.426
-74.966
-88.524
-105.974
-123.742
-139.417
-152.049
-161.032
-165.869
-166.568
-163.55
-158.129
-152.465
-147.905
-144.909
-143.759
-144.511
-147.137
-151.625
-157.518
-163.923
-170.24
-176.123
-181.329
-185.837
-189.581
-192.426
-194.37
-195.49
-195.839
-195.486
-194.478
-192.801
-190.485
-187.585
-184.156
-180.287
-176.067
-171.571
-166.885
-162.064
-157.146
-152.166
-147.147
-142.102
-137.039
-131.947
-126.808
-121.618
-116.373
-111.068
-105.701
-100.253
-94.711
-89.064
-83.304
-77.426
-71.43
-65.312
-59.072
-52.714
-46.244
-39.67
-33.004
-26.251
-19.417
-12.511
-5.539
1.488
8.561
15.668
22.8
29.943
37.082
44.199
51.278
58.299
65.244
72.094
78.827
85.424
91.865
98.128
104.195
110.046
115.661
121.021
126.108
130.904
135.395
139.563
143.397
146.882
150.008
152.766
155.148
157.147
158.757
159.976
160.8
161.23
161.267
160.914
160.176
159.059
157.572
155.728
153.538
151.017
148.181
145.048
141.635
137.963
134.051
129.922
125.596
121.095
116.443
111.662
106.774
101.803
96.77
91.697
86.604
81.512
76.439
71.404
66.425
61.517
56.696
51.978
47.375
42.9
38.565
34.379
30.352
26.491
22.801
19.288
15.955
12.802
9.831
7.04
4.428
1.99
-0.278
-2.38
-4.325
-6.118
-7.77
-9.287
-10.681
-11.96
-13.135
-14.215
-15.211
-16.131
-16.986
-17.785
-18.537
-19.252
-19.936
-20.6
-21.252
-21.899
-22.548
-23.208
-23.884
-24.581
-25.307
-26.064
-26.857
-27.689
-28.562
-29.478
-30.438
-31.443
-32.49
-33.579
-34.708
-35.873
-37.072
-38.3
-39.553
-40.826
-42.116
-43.417
-44.725
-46.036
-47.347
-48.653
-49.952
-51.239
-52.513
-53.77
-55.009
-56.227
-57.423
-58.596
-59.744
-60.867
-61.965
-63.039
-64.088
-65.115
-66.121
-67.108
-68.08
-69.041
-69.995
-70.946
-71.9
-72.864
-73.843
-74.844
-75.874
-76.94
-78.048
-79.206
-80.419
-81.694
-83.036
-84.449
-85.939
-87.507
-89.158
-90.893
-92.714
-94.622
-96.617
-98.698
-100.865
-103.115
-105.445
-107.854
-110.335
-112.885
-115.497
-118.165
-120.881
-123.636
-126.421
-129.226
-132.04
-134.851
-137.649
-140.419
-143.15
-145.828
-148.44
-150.973
-153.415
-155.751
-157.971
-160.063
-162.016
-163.821
-165.468
-166.951
-168.262
-169.396
-170.348
-171.115
-171.694
-172.085
-172.288
-172.305
-172.14
-171.798
-171.287
-170.616
-169.796
-168.841
-167.765
-166.586
-165.322
-163.992
-162.616
-161.215
-159.81
-158.421
-157.07
-155.778
-154.568
-153.462
-152.482
-151.653
-150.997
-150.534
-150.287
-150.269
-150.493
-150.967
-151.701
-152.705
-153.994
-155.581
-157.473
-159.677
-162.196
-165.027
-168.161
-171.565
-175.193
-178.995
-182.921
-186.924
-190.972
-195.025
-199.038
-202.965
-206.742
-210.317
-213.651
-216.697
-219.413
-221.77
-223.765
-225.456
-226.963
-228.402
-229.876
-231.456
-233.195
-235.193
-237.568
-240.439
-243.929
-248.097
-253.011
-258.853
-265.699
-273.439
-281.747
-289.906
-297.077
-302.628
-305.897
-306.117
-302.947
-296.484
-287.422
-277.484
-268.511
-261.831
-258.747
-260.346
-266.665
-276.677
-288.004
-296.441
-297.586
-287.41
-261.693
-216.704
-149.849
-62.186
41.275
154.326
269.63
384.884
502.893
619.314
726.628
810.069
844.089
816.818
725.857
576.892
395.832
204.641
23.817
-122.635
-228.13
-291.494
-318.444
-327.81
-329.533
-327.847
-324.354
-312.92
-293.603
-271.903
-251.921
-238.599
-233.741
-235.502
-242.065
-251.528
-261.421
-269.601
-274.896
-276.812
-275.669
-272.443
-267.965
-262.901
-258.138
-254.544
-252.577
-252.414
-253.903
-256.644
-260.326
-264.701
-269.497
-274.455
-279.359
-284.02
-288.271
-291.985
-295.055
-297.397
-298.963
-299.735
-299.706
-298.893
-297.352
-295.156
-292.378
-289.092
-285.356
-281.221
-276.756
-272.036
-267.142
-262.156
-257.136
-252.119
-247.138
-242.211
-237.349
-232.556
-227.817
-223.108
-218.415
-213.726
-209.033
-204.334
-199.618
-194.87
-190.079
-185.236
-180.33
-175.357
-170.311
-165.187
-159.985
-154.706
-149.356
-143.941
-138.466
-132.935
-127.354
-121.727
-116.06
-110.362
-104.639
-98.9
-93.155
-87.416
-81.695
-76.008
-70.367
-64.789
-59.288
-53.881
-48.585
-43.416
-38.391
-33.527
-28.842
-24.352
-20.075
-16.027
-12.223
-8.679
-5.409
-2.427
0.256
2.627
4.679
6.403
7.791
8.839
9.543
9.902
9.913
9.579
8.902
7.886
6.535
4.859
2.864
0.562
-2.036
-4.918
-8.068
-11.472
-15.114
-18.976
-23.04
-27.288
-31.701
-36.259
-40.941
-45.728
-50.599
-55.533
-60.509
-65.507
-70.508
-75.49
-80.436
-85.326
-90.144
-94.871
-99.492
-103.991
-108.354
-112.568
-116.62
-120.498
-124.192
-127.693
-130.993
-134.083
-136.96
-139.618
-142.054
-144.266
-146.252
-148.014
-149.553
-150.869
-151.968
-152.852
-153.528
-154
-154.275
-154.362
-154.268
-154.003
-153.575
-152.994
-152.271
-151.415
-150.438
-149.35
-148.16
-146.881
-145.521
-144.092
-142.603
-141.064
-139.485
-137.875
-136.242
-134.595
-132.94
-131.284
-129.634
-127.995
-126.372
-124.769
-123.19
-121.638
-120.115
-118.625
-117.168
-115.747
-114.36
-113.008
-111.692
-110.409
-109.159
-107.94
-106.751
-105.59
-104.455
-103.344
-102.255
-101.186
-100.136
-99.103
-98.086
-97.083
-96.093
-95.116
-94.151
-93.198
-92.259
-91.334
-90.425
-89.532
-88.66
-87.809
-86.982
-86.182
-85.413
-84.676
-83.975
-83.313
-82.693
-82.119
-81.593
-81.12
-80.7
-80.338
-80.036
-79.796
-79.62
-79.508
-79.462
-79.482
-79.568
-79.719
-79.933
-80.209
-80.544
-80.934
-81.376
-81.864
-82.392
-82.955
-83.543
-84.151
-84.769
-85.389
-86.002
-86.599
-87.17
-87.705
-88.196
-88.631
-89.002
-89.298
-89.51
-89.63
-89.648
-89.557
-89.349
-89.017
-88.556
-87.959
-87.225
-86.348
-85.328
-84.164
-82.855
-81.405
-79.815
-78.091
-76.239
-74.269
-72.191
-70.018
-67.764
-65.444
-63.075
-60.672
-58.254
-55.837
-53.436
-51.069
-48.752
-46.504
-44.346
-42.299
-40.38
-38.609
-37.001
-35.573
-34.339
-33.308
-32.485
-31.875
-31.49
-31.346
-31.463
-31.851
-32.517
-33.461
-34.678
-36.155
-37.868
-39.778
-41.844
-44.023
-46.279
-48.586
-50.915
-53.233
-55.492
-57.622
-59.557
-61.243
-62.644
-63.726
-64.477
-64.912
-65.083
-65.087
-65.018
-64.948
-64.944
-65.075
-65.442
-66.16
-67.357
-69.153
-71.678
-75.13
-79.58
-84.919
-90.849
-96.838
-102.303
-106.806
-109.932
-111.064
-109.865
-106.535
-101.735
-96.759
-92.911
-90.822
-90.701
-92.976
-98.08
-105.314
-112.724
-117.616
-115.377
-102.246
-77.789
-39.944
10.682
70.307
140.079
218.734
306.107
407.577
522.268
645.563
767.24
867.623
928.095
936.235
889.323
796.377
670.597
522.358
360.817
194.049
34.862
-96.106
-185.277
-229.093
-236.508
-228.759
-219.504
-212.578
-205.413
-189.726
-163.481
-130.846
-96.703
-66.652
-43.856
-28.959
-21.986
-22.185
-28.316
-38.718
-51.796
-66.021
-79.423
-90.341
-97.808
-101.249
-100.793
-97.248
-91.369
-84.139
-76.985
-70.913
-66.476
-64.021
-63.445
-64.406
-66.61
-69.54
-72.49
-75.031
-76.937
-78.1
-78.61
-78.531
-77.869
-76.71
-75.17
-73.315
-71.192
-68.815
-66.158
-63.249
-60.154
-56.946
-53.712
-50.505
-47.348
-44.259
-41.248
-38.317
-35.466
-32.676
-29.925
-27.198
-24.485
-21.779
-19.074
-16.353
-13.594
-10.772
-7.863
-4.847
-1.71
1.561
4.974
8.535
12.248
16.112
20.125
24.285
28.592
33.044
37.639
42.373
47.238
52.227
57.331
62.537
67.833
73.203
78.63
84.098
89.587
95.079
100.552
105.986
111.358
116.645
121.825
126.874
131.768
136.485
141.001
145.294
149.343
153.127
156.625
159.82
162.696
165.236
167.429
169.26
170.722
171.805
172.504
172.814
172.734
172.263
171.404
170.159
168.536
166.542
164.187
161.483
158.443
155.082
151.417
147.465
143.244
138.776
134.08
129.179
124.094
118.85
113.469
107.975
102.391
96.742
91.052
85.343
79.639
73.961
68.332
62.772
57.301
51.938
46.7
41.604
36.664
31.895
27.308
22.916
18.726
14.748
10.988
7.452
4.143
1.064
-1.783
-4.398
-6.783
-8.939
-10.87
-12.579
-14.072
-15.354
-16.432
-17.314
-18.007
-18.521
-18.866
-19.051
-19.086
-18.983
-18.753
-18.405
-17.952
-17.404
-16.771
-16.064
-15.293
-14.468
-13.598
-12.692
-11.758
-10.805
-9.839
-8.868
-7.896
-6.93
-5.975
-5.034
-4.112
-3.213
-2.338
-1.492
-0.676
0.107
0.857
1.572
2.251
2.894
3.501
4.074
4.612
5.116
5.587
6.027
6.436
6.815
7.164
7.485
7.779
8.046
8.287
8.502
8.692
8.857
8.997
9.111
9.198
9.258
9.289
9.29
9.26
9.197
9.101
8.971
8.805
8.602
8.362
8.084
7.767
7.41
7.012
6.573
6.092
5.57
5.009
4.407
3.769
3.095
2.389
1.652
0.89
0.104
-0.701
-1.522
-2.353
-3.189
-4.025
-4.856
-5.674
-6.472
-7.243
-7.979
-8.674
-9.318
-9.906
-10.43
-10.883
-11.257
-11.547
-11.744
-11.844
-11.84
-11.725
-11.495
-11.146
-10.673
-10.076
-9.352
-8.502
-7.526
-6.426
-5.205
-3.867
-2.416
-0.857
0.804
2.559
4.4
6.318
8.3
10.334
12.404
14.492
16.58
18.652
20.686
22.665
24.568
26.379
28.081
29.661
31.102
32.388
33.5
34.423
35.141
35.643
35.917
35.953
35.742
35.28
34.569
33.612
32.407
30.949
29.218
27.202
24.897
22.304
19.432
16.295
12.908
9.304
5.538
1.665
-2.254
-6.167
-10.035
-13.812
-17.436
-20.835
-23.917
-26.604
-28.846
-30.604
-31.861
-32.618
-32.894
-32.747
-32.273
-31.598
-30.863
-30.214
-29.796
-29.752
-30.213
-31.365
-33.462
-36.636
-40.871
-45.964
-51.467
-56.951
-62.101
-66.461
-69.415
-70.547
-69.704
-67.289
-64.398
-62.05
-60.911
-61.565
-64.51
-69.932
-77.543
-85.869
-92.085
-93.122
-86.2
-68.585
-37.658
8.96
73.317
154.155
246.633
345.832
446.367
547.142
651.311
755.668
852.963
928.25
959.721
938.625
864.935
748.84
612.362
467.191
323.385
191.534
74.609
-17.422
-79.712
-118.583
-138.67
-148.908
-154.655
-152.73
-142.852
-125.669
-103.471
-81.767
-63.161
-48.055
-36.923
-29.195
-24.545
-23.405
-25.208
-29.096
-34.805
-41.719
-48.843
-55.687
-61.666
-65.869
-68.133
-68.589
-67.263
-64.813
-62.207
-59.923
-58.381
-58.062
-58.992
-61.102
-64.293
-68.059
-71.764
-75.061
-77.715
-79.592
-80.743
-81.178
-80.895
-80.013
-78.671
-76.965
-74.962
-72.68
-70.104
-67.27
-64.244
-61.103
-57.929
-54.776
-51.669
-48.629
-45.668
-42.788
-39.984
-37.239
-34.527
-31.833
-29.147
-26.465
-23.786
-21.097
-18.384
-15.625
-12.801
-9.895
-6.899
-3.801
-0.595
2.721
6.152
9.693
13.343
17.097
20.956
24.919
28.982
33.143
37.395
41.731
46.143
50.62
55.151
59.722
64.318
68.925
73.527
78.105
82.642
87.119
91.518
95.817
99.999
104.041
107.924
111.629
115.136
118.426
121.481
124.285
126.821
129.074
131.03
132.676
134.004
135.002
135.664
135.983
135.957
135.583
134.86
133.79
132.375
130.622
128.535
126.124
123.398
120.369
117.049
113.452
109.595
105.493
101.164
96.627
91.901
87.005
81.959
76.785
71.502
66.132
60.695
55.213
49.706
44.193
38.695
33.232
27.82
22.478
17.222
12.067
7.029
2.121
-2.646
-7.259
-11.708
-15.983
-20.078
-23.984
-27.695
-31.207
-34.516
-37.619
-40.515
-43.203
-45.684
-47.959
-50.03
-51.899
-53.572
-55.051
-56.341
-57.45
-58.383
-59.146
-59.749
-60.198
-60.501
-60.669
-60.707
-60.627
-60.436
-60.142
-59.755
-59.283
-58.734
-58.117
-57.44
-56.711
-55.939
-55.131
-54.294
-53.435
-52.562
-51.68
-50.796
-49.915
-49.043
-48.185
-47.347
-46.532
-45.745
-44.99
-44.271
-43.589
-42.948
-42.351
-41.798
-41.291
-40.831
-40.42
-40.058
-39.747
-39.486
-39.275
-39.117
-39.009
-38.953
-38.947
-38.992
-39.086
-39.229
-39.421
-39.66
-39.946
-40.278
-40.655
-41.076
-41.539
-42.045
-42.591
-43.176
-43.798
-44.456
-45.149
-45.875
-46.632
-47.42
-48.237
-49.081
-49.951
-50.844
-51.758
-52.69
-53.638
-54.598
-55.566
-56.54
-57.515
-58.487
-59.453
-60.408
-61.347
-62.266
-63.159
-64.02
-64.844
-65.625
-66.356
-67.031
-67.643
-68.188
-68.657
-69.046
-69.346
-69.553
-69.66
-69.66
-69.546
-69.313
-68.956
-68.468
-67.846
-67.087
-66.186
-65.143
-63.956
-62.624
-61.149
-59.532
-57.775
-55.881
-53.854
-51.701
-49.428
-47.043
-44.555
-41.976
-39.319
-36.599
-33.832
-31.035
-28.226
-25.424
-22.647
-19.915
-17.245
-14.656
-12.165
-9.791
-7.553
-5.472
-3.569
-1.861
-0.368
0.894
1.908
2.662
3.149
3.364
3.301
2.952
2.299
1.329
0.033
-1.594
-3.552
-5.831
-8.416
-11.272
-14.347
-17.586
-20.931
-24.327
-27.734
-31.104
-34.388
-37.525
-40.44
-43.066
-45.348
-47.243
-48.71
-49.734
-50.341
-50.605
-50.66
-50.641
-50.659
-50.827
-51.261
-52.096
-53.469
-55.497
-58.244
-61.805
-66.355
-71.968
-78.594
-85.976
-93.583
-100.898
-107.511
-112.827
-116.054
-116.665
-114.474
-109.89
-104.043
-97.73
-91.449
-86.254
-83.409
-83.64
-85.6
-85.451
-78.728
-63.045
-41.512
-18.877
3.809
30.227
72.937
145.366
253.327
396.36
561.009
726.455
871.821
974.919
1023.285
1015.163
956.071
858.696
733.411
587.944
430.658
274.093
137.579
36.765
-21.241
-43.216
-49.191
-53.728
-63.372
-76.942
-85.014
-84.715
-79.486
-73.103
-70.731
-74.062
-81.248
-90.696
-100.9
-110.027
-116.6
-119.874
-119.557
-116.031
-110.236
-102.966
-94.874
-86.852
-79.765
-74.104
-70.136
-67.83
-66.926
-67.254
-68.665
-70.943
-73.862
-77.205
-80.793
-84.498
-88.202
-91.761
-95.007
-97.775
-99.952
-101.485
-102.346
-102.543
-102.096
-101.036
-99.42
-97.32
-94.804
-91.94
-88.792
-85.417
-81.883
-78.26
-74.615
-71.016
-67.51
-64.117
-60.85
-57.706
-54.676
-51.747
-48.898
-46.098
-43.325
-40.559
-37.784
-34.985
-32.145
-29.247
-26.271
-23.201
-20.024
-16.728
-13.307
-9.753
-6.064
-2.238
1.724
5.817
10.038
14.384
18.85
23.433
28.124
32.916
37.798
42.759
47.785
52.861
57.97
63.092
68.207
73.294
78.332
83.299
88.172
92.928
97.544
101.997
106.266
110.328
114.162
117.748
121.066
124.098
126.827
129.236
131.311
133.04
134.411
135.415
136.044
136.293
136.159
135.639
134.734
133.446
131.78
129.74
127.336
124.577
121.476
118.046
114.303
110.264
105.947
101.371
96.559
91.53
86.308
80.915
75.372
69.705
63.936
58.087
52.183
46.245
40.296
34.359
28.454
22.602
16.823
11.135
5.555
0.101
-5.213
-10.372
-15.362
-20.173
-24.794
-29.215
-33.427
-37.425
-41.202
-44.755
-48.081
-51.179
-54.049
-56.692
-59.111
-61.308
-63.289
-65.058
-66.622
-67.988
-69.162
-70.153
-70.97
-71.621
-72.117
-72.468
-72.682
-72.772
-72.747
-72.616
-72.39
-72.079
-71.691
-71.237
-70.725
-70.163
-69.562
-68.928
-68.27
-67.595
-66.912
-66.225
-65.541
-64.865
-64.202
-63.556
-62.93
-62.328
-61.752
-61.205
-60.687
-60.202
-59.748
-59.326
-58.937
-58.579
-58.25
-57.951
-57.68
-57.435
-57.216
-57.021
-56.851
-56.705
-56.584
-56.486
-56.412
-56.36
-56.331
-56.324
-56.339
-56.374
-56.43
-56.506
-56.603
-56.722
-56.863
-57.028
-57.218
-57.432
-57.672
-57.939
-58.236
-58.562
-58.919
-59.31
-59.737
-60.202
-60.708
-61.256
-61.847
-62.481
-63.158
-63.876
-64.632
-65.421
-66.238
-67.08
-67.943
-68.823
-69.715
-70.617
-71.525
-72.44
-73.358
-74.274
-75.181
-76.069
-76.929
-77.752
-78.525
-79.236
-79.873
-80.426
-80.885
-81.247
-81.505
-81.649
-81.665
-81.531
-81.236
-80.775
-80.146
-79.346
-78.383
-77.27
-76.034
-74.721
-73.36
-71.968
-70.548
-69.089
-67.581
-66.019
-64.395
-62.696
-60.914
-59.029
-57.035
-54.941
-52.727
-50.364
-47.797
-44.933
-41.721
-38.15
-34.223
-29.979
-25.469
-20.748
-15.906
-11.059
-6.304
-1.733
2.583
6.603
10.255
13.443
16.059
17.952
19.015
19.187
18.415
16.677
13.996
10.41
6.016
0.968
-4.611
-10.605
-16.899
-23.412
-30.029
-36.621
-43.063
-49.202
-54.895
-60.021
-64.444
-68.051
-70.786
-72.627
-73.609
-73.837
-73.406
-72.415
-70.993
-69.264
-67.374
-65.495
-63.795
-62.446
-61.616
-61.522
-62.461
-64.635
-68.077
-72.586
-77.66
-82.727
-87.315
-90.85
-92.634
-92.174
-89.321
-84.626
-79.474
-75.367
-73.528
-74.989
-80.564
-90.642
-104.902
-121.482
-136.885
-147.041
-147.971
-135.845
-107.086
-58.553
12.276
104.042
210.896
326.615
444.394
561.333
681.217
802.99
919.729
1018.855
1075.979
1071.637
999.537
861.275
675.799
470.239
267.302
91.737
-39.998
-123.978
-160.782
-162.031
-142.41
-113.346
-86.745
-67.627
-58.835
-60.464
-66.132
-71.705
-73.054
-69.211
-65.503
-64.733
-67.914
-74.105
-79.009
-80.588
-79.043
-74.939
-69.704
-64.28
-58.93
-54.243
-50.914
-49.245
-49.245
-50.736
-53.388
-56.944
-61.248
-66.074
-71.143
-76.235
-81.147
-85.705
-89.774
-93.238
-96.006
-98.029
-99.288
-99.786
-99.552
-98.637
-97.111
-95.044
-92.504
-89.551
-86.247
-82.664
-78.887
-74.997
-71.075
-67.176
-63.337
-59.585
-55.936
-52.393
-48.952
-45.596
-42.298
-39.042
-35.813
-32.601
-29.397
-26.186
-22.953
-19.684
-16.363
-12.982
-9.53
-6.002
-2.391
1.305
5.085
8.948
12.889
16.905
20.994
25.155
29.383
33.676
38.029
42.435
46.889
51.382
55.904
60.444
64.987
69.521
74.031
78.501
82.913
87.251
91.498
95.633
99.64
103.499
107.191
110.698
114.001
117.083
119.926
122.514
124.833
126.868
128.606
130.036
131.148
131.935
132.388
132.502
132.275
131.704
130.789
129.531
127.933
126
123.739
121.158
118.267
115.078
111.604
107.859
103.859
99.621
95.162
90.502
85.66
80.657
75.513
70.249
64.887
59.449
53.954
48.425
42.882
37.344
31.831
26.362
20.955
15.626
10.391
5.267
0.266
-4.597
-9.312
-13.867
-18.253
-22.46
-26.483
-30.314
-33.949
-37.385
-40.618
-43.647
-46.471
-49.092
-51.511
-53.73
-55.754
-57.587
-59.233
-60.7
-61.993
-63.119
-64.085
-64.899
-65.568
-66.1
-66.503
-66.784
-66.952
-67.015
-66.98
-66.855
-66.649
-66.368
-66.019
-65.61
-65.147
-64.637
-64.085
-63.497
-62.879
-62.235
-61.571
-60.889
-60.195
-59.491
-58.781
-58.066
-57.349
-56.633
-55.918
-55.206
-54.498
-53.796
-53.101
-52.414
-51.737
-51.071
-50.417
-49.776
-49.151
-48.543
-47.953
-47.382
-46.833
-46.306
-45.803
-45.327
-44.878
-44.458
-44.069
-43.714
-43.392
-43.108
-42.861
-42.655
-42.491
-42.372
-42.301
-42.278
-42.307
-42.39
-42.528
-42.724
-42.98
-43.295
-43.672
-44.11
-44.609
-45.168
-45.786
-46.462
-47.191
-47.972
-48.801
-49.675
-50.587
-51.535
-52.511
-53.511
-54.529
-55.558
-56.593
-57.625
-58.649
-59.656
-60.639
-61.589
-62.498
-63.357
-64.155
-64.885
-65.537
-66.101
-66.568
-66.929
-67.175
-67.297
-67.289
-67.142
-66.849
-66.404
-65.804
-65.044
-64.122
-63.036
-61.786
-60.373
-58.8
-57.069
-55.185
-53.153
-50.979
-48.67
-46.236
-43.684
-41.026
-38.274
-35.442
-32.545
-29.602
-26.63
-23.651
-20.685
-17.752
-14.876
-12.076
-9.372
-6.782
-4.326
-2.022
0.109
2.045
3.77
5.266
6.519
7.515
8.243
8.693
8.866
8.764
8.384
7.723
6.762
5.49
3.903
2.002
-0.209
-2.713
-5.495
-8.524
-11.747
-15.11
-18.558
-22.043
-25.531
-28.985
-32.347
-35.546
-38.495
-41.113
-43.356
-45.178
-46.538
-47.433
-47.877
-47.931
-47.708
-47.303
-46.806
-46.323
-45.959
-45.839
-46.115
-46.919
-48.426
-50.87
-54.338
-58.753
-63.872
-69.202
-74.241
-78.589
-81.708
-82.877
-81.674
-78.196
-73.106
-67.672
-63.105
-60.015
-58.9
-60.602
-65.552
-73.026
-81.043
-86.375
-85.534
-75.912
-55.085
-19.932
32.649
103.01
187.809
282.386
381.325
482.932
590.925
704.62
816.797
914.943
978.461
989.993
945.565
847.5
706.517
542.624
370.799
208.427
76.528
-17.195
-70.17
-88.534
-91.507
-90.311
-89.756
-90.942
-87.219
-77.155
-64.689
-53.193
-46.946
-47.407
-52.793
-61.187
-70.636
-79.186
-85.312
-88.24
-87.838
-84.509
-79.158
-72.696
-65.848
-59.423
-54.184
-50.514
-48.551
-48.215
-49.218
-51.313
-54.303
-57.943
-61.992
-66.271
-70.603
-74.824
-78.792
-82.333
-85.314
-87.658
-89.312
-90.254
-90.487
-90.032
-88.935
-87.267
-85.095
-82.478
-79.474
-76.138
-72.539
-68.757
-64.87
-60.956
-57.072
-53.251
-49.521
-45.892
-42.367
-38.937
-35.583
-32.279
-29.005
-25.748
-22.497
-19.241
-15.966
-12.657
-9.3
-5.881
-2.389
1.184
4.845
8.6
12.448
16.391
20.424
24.541
28.741
33.019
37.372
41.796
46.288
50.84
55.446
60.099
64.789
69.503
74.228
78.951
83.653
88.32
92.934
97.475
101.927
106.268
110.482
114.548
118.448
122.162
125.672
128.962
132.013
134.809
137.336
139.578
141.523
143.16
144.478
145.468
146.124
146.438
146.407
146.028
145.299
144.221
142.796
141.026
138.917
136.477
133.715
130.641
127.268
123.61
119.682
115.502
111.086
106.453
101.623
96.616
91.451
86.151
80.736
75.227
69.646
64.013
58.35
52.676
47.012
41.377
35.789
30.266
24.825
19.483
14.253
9.152
4.193
-0.612
-5.251
-9.714
-13.991
-18.074
-21.956
-25.633
-29.1
-32.354
-35.394
-38.219
-40.83
-43.228
-45.417
-47.4
-49.181
-50.766
-52.16
-53.37
-54.403
-55.265
-55.965
-56.511
-56.911
-57.173
-57.305
-57.317
-57.215
-57.009
-56.708
-56.32
-55.853
-55.317
-54.718
-54.066
-53.368
-52.63
-51.861
-51.066
-50.251
-49.422
-48.583
-47.739
-46.895
-46.054
-45.218
-44.393
-43.579
-42.779
-41.997
-41.232
-40.488
-39.766
-39.068
-38.395
-37.749
-37.131
-36.543
-35.988
-35.465
-34.978
-34.527
-34.113
-33.737
-33.402
-33.107
-32.854
-32.644
-32.478
-32.357
-32.284
-32.259
-32.284
-32.36
-32.488
-32.671
-32.908
-33.201
-33.551
-33.958
-34.423
-34.947
-35.529
-36.168
-36.864
-37.617
-38.422
-39.28
-40.186
-41.137
-42.13
-43.161
-44.225
-45.318
-46.434
-47.569
-48.717
-49.872
-51.029
-52.18
-53.319
-54.439
-55.532
-56.592
-57.609
-58.577
-59.488
-60.333
-61.106
-61.798
-62.402
-62.912
-63.321
-63.621
-63.807
-63.873
-63.815
-63.627
-63.306
-62.849
-62.253
-61.518
-60.644
-59.629
-58.476
-57.185
-55.76
-54.205
-52.522
-50.718
-48.799
-46.772
-44.646
-42.431
-40.137
-37.775
-35.362
-32.911
-30.438
-27.961
-25.496
-23.063
-20.678
-18.361
-16.128
-13.995
-11.981
-10.1
-8.37
-6.807
-5.429
-4.251
-3.291
-2.561
-2.077
-1.848
-1.879
-2.175
-2.739
-3.576
-4.697
-6.111
-7.82
-9.828
-12.134
-14.731
-17.607
-20.731
-24.057
-27.535
-31.117
-34.756
-38.416
-42.054
-45.626
-49.085
-52.37
-55.427
-58.217
-60.694
-62.823
-64.581
-65.967
-67.041
-67.914
-68.699
-69.501
-70.398
-71.461
-72.8
-74.544
-76.817
-79.731
-83.341
-87.724
-93.057
-99.403
-106.66
-114.512
-122.3
-129.363
-135.229
-139.296
-140.822
-139.435
-135.131
-128.494
-121.062
-114.119
-108.419
-105.223
-105.632
-109.73
-117.072
-124.544
-127.479
-123.596
-109.867
-85.574
-50.279
1.395
69.589
155.388
259.67
375.212
502.03
636.764
766.234
879.267
955.147
973.368
930.672
829.879
683.254
513.805
337.692
172.012
36.862
-60.493
-117.098
-138.666
-143.913
-143.443
-142.21
-141.446
-134.4
-120.61
-104.796
-90.488
-82.299
-81.646
-86.451
-94.843
-104.865
-114.127
-120.805
-123.972
-123.275
-119.163
-112.63
-104.568
-95.798
-87.283
-79.876
-74.035
-69.946
-67.512
-66.45
-66.554
-67.64
-69.496
-71.909
-74.704
-77.743
-80.892
-84.035
-87.016
-89.657
-91.833
-93.465
-94.509
-94.96
-94.83
-94.137
-92.926
-91.258
-89.183
-86.752
-84.015
-81.015
-77.81
-74.47
-71.061
-67.653
-64.295
-61.016
-57.829
-54.738
-51.731
-48.795
-45.907
-43.036
-40.159
-37.257
-34.315
-31.322
-28.262
-25.12
-21.88
-18.527
-15.051
-11.444
-7.703
-3.823
0.192
4.341
8.615
13.007
17.506
22.107
26.8
31.578
36.431
41.349
46.319
51.33
56.368
61.417
66.46
71.479
76.454
81.367
86.196
90.921
95.521
99.976
104.263
108.363
112.256
115.922
119.343
122.501
125.38
127.965
130.242
132.198
133.823
135.108
136.045
136.628
136.854
136.719
136.224
135.368
134.154
132.586
130.668
128.406
125.81
122.888
119.653
116.115
112.291
108.194
103.841
99.251
94.441
89.431
84.241
78.891
73.403
67.799
62.1
56.328
50.504
44.651
38.789
32.939
27.12
21.353
15.656
10.045
4.539
-0.848
-6.1
-11.203
-16.145
-20.913
-25.496
-29.884
-34.068
-38.04
-41.791
-45.317
-48.612
-51.673
-54.495
-57.079
-59.422
-61.526
-63.393
-65.025
-66.426
-67.602
-68.558
-69.302
-69.84
-70.182
-70.336
-70.312
-70.12
-69.769
-69.271
-68.636
-67.873
-66.995
-66.01
-64.931
-63.766
-62.528
-61.225
-59.869
-58.47
-57.037
-55.581
-54.113
-52.641
-51.175
-49.724
-48.297
-46.902
-45.547
-44.239
-42.984
-41.789
-40.657
-39.593
-38.601
-37.684
-36.844
-36.083
-35.401
-34.801
-34.281
-33.843
-33.485
-33.207
-33.009
-32.89
-32.849
-32.884
-32.995
-33.178
-33.433
-33.757
-34.147
-34.6
-35.111
-35.678
-36.296
-36.961
-37.669
-38.415
-39.194
-40.001
-40.833
-41.685
-42.552
-43.431
-44.318
-45.209
-46.102
-46.992
-47.878
-48.756
-49.624
-50.478
-51.316
-52.135
-52.931
-53.7
-54.441
-55.148
-55.818
-56.449
-57.036
-57.577
-58.068
-58.507
-58.89
-59.215
-59.478
-59.679
-59.813
-59.88
-59.877
-59.803
-59.656
-59.433
-59.134
-58.756
-58.297
-57.755
-57.128
-56.413
-55.609
-54.714
-53.726
-52.646
-51.471
-50.203
-48.842
-47.39
-45.85
-44.223
-42.514
-40.726
-38.865
-36.936
-34.946
-32.902
-30.814
-28.69
-26.544
-24.385
-22.228
-20.086
-17.972
-15.901
-13.886
-11.939
-10.074
-8.304
-6.642
-5.101
-3.697
-2.445
-1.361
-0.457
0.254
0.76
1.052
1.125
0.977
0.608
0.01
-0.828
-1.914
-3.256
-4.856
-6.711
-8.815
-11.153
-13.698
-16.408
-19.241
-22.149
-25.093
-28.041
-30.959
-33.812
-36.548
-39.103
-41.422
-43.456
-45.168
-46.527
-47.511
-48.13
-48.441
-48.547
-48.553
-48.538
-48.573
-48.731
-49.119
-49.866
-51.099
-52.888
-55.329
-58.588
-62.742
-67.785
-73.525
-79.425
-84.933
-89.62
-92.922
-94.197
-93.052
-89.287
-83.299
-76.421
-69.846
-64.315
-60.962
-61.012
-64.95
-72.896
-82.451
-88.144
-86.865
-76.938
-58.167
-33.486
0.235
49.444
118.787
214.395
334.382
470.921
617.84
763.267
893.229
994.152
1047.228
1038.209
964.267
829.086
648.203
446.518
247.567
77.097
-45.63
-115.613
-136.397
-123.739
-95.537
-64.858
-42.828
-32.089
-33.682
-46.436
-62.954
-78.662
-89.253
-93.456
-95.949
-99.22
-104.04
-109.421
-112.058
-110.646
-105.657
-98.053
-89.328
-80.459
-71.983
-64.563
-58.63
-54.343
-51.675
-50.427
-50.425
-51.521
-53.544
-56.289
-59.538
-63.132
-66.925
-70.755
-74.429
-77.74
-80.535
-82.724
-84.269
-85.149
-85.36
-84.919
-83.867
-82.275
-80.212
-77.737
-74.911
-71.789
-68.444
-64.959
-61.417
-57.896
-54.452
-51.116
-47.906
-44.828
-41.878
-39.041
-36.295
-33.608
-30.956
-28.319
-25.681
-23.027
-20.338
-17.594
-14.775
-11.863
-8.843
-5.705
-2.438
0.964
4.504
8.183
11.999
15.949
20.028
24.233
28.562
33.009
37.569
42.233
46.992
51.835
56.751
61.723
66.735
71.768
76.803
81.82
86.797
91.713
96.543
101.266
105.858
110.297
114.559
118.622
122.465
126.067
129.408
132.47
135.235
137.687
139.813
141.599
143.035
144.111
144.819
145.155
145.115
144.698
143.905
142.737
141.199
139.297
137.041
134.439
131.504
128.25
124.692
120.846
116.731
112.367
107.773
102.971
97.983
92.83
87.537
82.125
76.616
71.035
65.401
59.737
54.065
48.403
42.773
37.192
31.678
26.248
20.918
15.702
10.614
5.665
0.868
-3.77
-8.237
-12.527
-16.634
-20.55
-24.273
-27.797
-31.121
-34.244
-37.164
-39.883
-42.402
-44.724
-46.852
-48.79
-50.542
-52.112
-53.508
-54.733
-55.793
-56.695
-57.446
-58.05
-58.515
-58.847
-59.054
-59.141
-59.115
-58.982
-58.749
-58.422
-58.008
-57.512
-56.942
-56.303
-55.603
-54.849
-54.045
-53.2
-52.32
-51.41
-50.477
-49.527
-48.564
-47.595
-46.623
-45.655
-44.694
-43.745
-42.813
-41.902
-41.015
-40.158
-39.334
-38.546
-37.798
-37.093
-36.435
-35.827
-35.272
-34.772
-34.33
-33.948
-33.628
-33.372
-33.18
-33.053
-32.991
-32.994
-33.06
-33.189
-33.379
-33.628
-33.936
-34.3
-34.719
-35.19
-35.712
-36.283
-36.901
-37.562
-38.266
-39.009
-39.789
-40.604
-41.451
-42.328
-43.232
-44.16
-45.11
-46.077
-47.059
-48.051
-49.05
-50.053
-51.056
-52.055
-53.047
-54.03
-54.999
-55.954
-56.89
-57.804
-58.695
-59.559
-60.393
-61.193
-61.956
-62.677
-63.352
-63.977
-64.548
-65.06
-65.509
-65.889
-66.196
-66.424
-66.568
-66.623
-66.583
-66.445
-66.203
-65.853
-65.394
-64.821
-64.134
-63.33
-62.407
-61.367
-60.207
-58.93
-57.534
-56.023
-54.398
-52.663
-50.823
-48.882
-46.848
-44.73
-42.538
-40.287
-37.988
-35.655
-33.306
-30.956
-28.622
-26.322
-24.07
-21.883
-19.776
-17.767
-15.875
-14.119
-12.517
-11.086
-9.843
-8.8
-7.974
-7.374
-7.003
-6.866
-6.965
-7.311
-7.923
-8.818
-10.005
-11.489
-13.27
-15.338
-17.682
-20.273
-23.063
-26.005
-29.048
-32.149
-35.278
-38.403
-41.479
-44.451
-47.244
-49.791
-52.04
-53.947
-55.473
-56.613
-57.385
-57.854
-58.131
-58.309
-58.486
-58.769
-59.263
-60.09
-61.355
-63.124
-65.515
-68.72
-72.865
-77.967
-83.817
-89.961
-95.976
-101.518
-106.09
-109.045
-109.785
-108.016
-104.234
-99.505
-94.72
-90.663
-88.235
-88.477
-92.505
-99.499
-105.666
-107.009
-101.331
-90.665
-79.7
-68.97
-51.129
-12.275
59.015
165.65
298.803
441.536
582.882
716.077
835.765
936.309
1002.308
1018.476
978.726
886.777
756.965
603.769
439.215
273.645
118.829
-7.072
-91.832
-132.773
-138.279
-128.131
-116.053
-107.691
-102.726
-95.187
-84.418
-73.464
-65.042
-62.561
-66.19
-73.66
-83.201
-92.46
-99.201
-102.639
-102.561
-99.258
-93.719
-86.909
-79.581
-72.632
-66.953
-62.981
-60.897
-60.641
-61.889
-64.371
-67.875
-72.129
-76.868
-81.876
-86.945
-91.893
-96.569
-100.793
-104.418
-107.35
-109.525
-110.921
-111.546
-111.421
-110.596
-109.139
-107.12
-104.602
-101.646
-98.313
-94.676
-90.817
-86.821
-82.771
-78.727
-74.73
-70.81
-66.98
-63.243
-59.594
-56.014
-52.481
-48.976
-45.488
-42.007
-38.526
-35.032
-31.512
-27.952
-24.337
-20.658
-16.906
-13.074
-9.157
-5.154
-1.064
3.108
7.357
11.68
16.072
20.531
25.054
29.635
34.269
38.949
43.669
48.42
53.191
57.97
62.744
67.5
72.224
76.901
81.515
86.05
90.492
94.822
99.025
103.083
106.98
110.697
114.218
117.525
120.602
123.433
126.004
128.299
130.307
132.017
133.418
134.502
135.263
135.695
135.795
135.559
134.987
134.081
132.841
131.272
129.38
127.172
124.655
121.84
118.738
115.361
111.722
107.834
103.715
99.378
94.841
90.123
85.241
80.215
75.065
69.812
64.476
59.079
53.641
48.182
42.723
37.283
31.881
26.535
21.263
16.08
11.003
6.047
1.226
-3.448
-7.963
-12.307
-16.471
-20.446
-24.225
-27.799
-31.165
-34.316
-37.25
-39.963
-42.453
-44.719
-46.763
-48.586
-50.191
-51.581
-52.763
-53.742
-54.526
-55.122
-55.539
-55.787
-55.874
-55.812
-55.61
-55.279
-54.829
-54.272
-53.618
-52.877
-52.061
-51.181
-50.245
-49.264
-48.248
-47.206
-46.147
-45.08
-44.013
-42.954
-41.912
-40.893
-39.904
-38.952
-38.041
-37.178
-36.366
-35.607
-34.906
-34.263
-33.679
-33.154
-32.689
-32.283
-31.934
-31.641
-31.402
-31.215
-31.078
-30.988
-30.942
-30.938
-30.973
-31.045
-31.151
-31.29
-31.458
-31.654
-31.876
-32.123
-32.392
-32.683
-32.992
-33.32
-33.663
-34.022
-34.396
-34.784
-35.185
-35.601
-36.032
-36.478
-36.941
-37.422
-37.923
-38.446
-38.992
-39.564
-40.162
-40.789
-41.447
-42.136
-42.856
-43.61
-44.396
-45.214
-46.062
-46.94
-47.844
-48.772
-49.72
-50.686
-51.664
-52.651
-53.641
-54.629
-55.609
-56.576
-57.523
-58.441
-59.325
-60.165
-60.955
-61.685
-62.346
-62.931
-63.429
-63.832
-64.131
-64.317
-64.381
-64.315
-64.111
-63.763
-63.263
-62.608
-61.793
-60.813
-59.669
-58.358
-56.882
-55.242
-53.441
-51.484
-49.376
-47.125
-44.738
-42.226
-39.601
-36.875
-34.066
-31.188
-28.26
-25.303
-22.336
-19.381
-16.459
-13.592
-10.801
-8.107
-5.532
-3.099
-0.828
1.257
3.135
4.784
6.183
7.314
8.162
8.717
8.972
8.921
8.556
7.865
6.841
5.48
3.777
1.733
-0.647
-3.351
-6.35
-9.598
-13.048
-16.649
-20.354
-24.127
-27.922
-31.692
-35.385
-38.936
-42.285
-45.388
-48.194
-50.657
-52.74
-54.431
-55.782
-56.896
-57.885
-58.843
-59.832
-60.912
-62.197
-63.8
-65.828
-68.38
-71.476
-75.189
-79.734
-85.198
-91.479
-98.319
-105.118
-111.232
-116.25
-119.563
-120.325
-118.14
-113.077
-105.594
-96.926
-88.467
-81.204
-76.475
-76.137
-79.37
-82.665
-83.217
-77.198
-65.718
-56.228
-49.139
-40.013
-17.675
37.929
134.986
270.972
435.432
605.722
765.387
900.447
997.242
1050.649
1051.822
998.704
896.698
750.061
575.511
390.313
212.237
65.324
-40.715
-104.59
-133.339
-146.77
-155.963
-164.298
-170.681
-166.682
-150.455
-126.66
-100.838
-79.554
-65.263
-56.881
-53.476
-54.332
-58.941
-66.367
-74.512
-81.312
-86.014
-88.728
-89.875
-89.565
-87.428
-83.552
-78.876
-74.647
-71.635
-70.038
-69.676
-70.395
-72.371
-75.682
-80.042
-84.889
-89.668
-94.041
-97.872
-101.14
-103.776
-105.684
-106.831
-107.268
-107.098
-106.413
-105.282
-103.727
-101.766
-99.445
-96.821
-93.974
-90.989
-87.938
-84.889
-81.886
-78.958
-76.126
-73.404
-70.794
-68.284
-65.855
-63.478
-61.138
-58.826
-56.531
-54.239
-51.927
-49.574
-47.16
-44.669
-42.09
-39.41
-36.619
-33.709
-30.675
-27.517
-24.234
-20.829
-17.304
-13.658
-9.892
-6.011
-2.019
2.078
6.273
10.559
14.926
19.362
23.853
28.385
32.942
37.508
42.066
46.595
51.079
55.498
59.832
64.063
68.169
72.131
75.932
79.552
82.972
86.177
89.149
91.872
94.332
96.516
98.413
100.014
101.309
102.292
102.958
103.304
103.329
103.033
102.417
101.484
100.239
98.689
96.842
94.708
92.297
89.622
86.695
83.533
80.15
76.56
72.781
68.827
64.716
60.46
56.074
51.57
46.96
42.255
37.468
32.607
27.683
22.707
17.692
12.649
7.59
2.523
-2.547
-7.612
-12.666
-17.702
-22.713
-27.692
-32.636
-37.534
-42.373
-47.142
-51.833
-56.446
-60.998
-65.5
-69.955
-74.365
-78.725
-83.028
-87.265
-91.412
-95.425
-99.259
-102.869
-106.22
-109.293
-112.063
-114.487
-116.509
-118.05
-119.045
-119.457
-119.259
-118.438
-117.003
-114.981
-112.439
-109.489
-106.261
-102.886
-99.499
-96.229
-93.214
-90.585
-88.534
-87.32
-87.111
-87.943
-89.655
-91.827
-94.007
-95.808
-96.714
-96.086
-93.415
-88.446
-81.607
-74.089
-67.183
-62.004
-59.45
-60.197
-64.753
-73.131
-83.905
-94.133
-100.213
-98.447
-85.479
-58.263
-13.741
50.911
134.863
233.258
340.907
451.606
564.2
683.021
804.875
921.068
1015.232
1062.738
1051.192
980.91
860.238
707.545
538.84
365.349
201.965
64.802
-35.666
-94.231
-117.018
-121.321
-118.863
-115.205
-111.064
-100.754
-83.878
-65.085
-48.38
-38.054
-35.398
-38.634
-45.876
-55.15
-64.293
-71.454
-75.68
-76.796
-75.218
-71.866
-67.572
-62.98
-58.9
-56.132
-55.067
-55.791
-58.141
-61.735
-66.269
-71.522
-77.226
-83.114
-88.962
-94.558
-99.732
-104.356
-108.319
-111.54
-113.97
-115.585
-116.385
-116.403
-115.694
-114.33
-112.385
-109.925
-107.012
-103.706
-100.078
-96.212
-92.191
-88.096
-83.986
-79.9
-75.871
-71.918
-68.05
-64.266
-60.55
-56.881
-53.244
-49.629
-46.03
-42.441
-38.854
-35.255
-31.636
-27.984
-24.295
-20.561
-16.78
-12.949
-9.067
-5.14
-1.173
2.827
6.851
10.896
14.956
19.025
23.097
27.165
31.221
35.258
39.265
43.233
47.148
50.998
54.769
58.446
62.014
65.459
68.766
71.917
74.9
77.698
80.296
82.68
84.835
86.747
88.405
89.795
90.909
91.735
92.266
92.496
92.422
92.039
91.348
90.349
89.045
87.44
85.54
83.352
80.884
78.147
75.154
71.917
68.452
64.776
60.907
56.864
52.666
48.335
43.892
39.359
34.757
30.11
25.438
20.765
16.111
11.5
6.95
2.484
-1.881
-6.126
-10.233
-14.188
-17.976
-21.585
-25.004
-28.223
-31.235
-34.034
-36.614
-38.973
-41.108
-43.02
-44.709
-46.178
-47.432
-48.477
-49.32
-49.968
-50.432
-50.721
-50.848
-50.823
-50.658
-50.367
-49.962
-49.455
-48.862
-48.195
-47.466
-46.691
-45.88
-45.047
-44.204
-43.361
-42.528
-41.716
-40.932
-40.186
-39.483
-38.831
-38.234
-37.698
-37.227
-36.823
-36.488
-36.223
-36.028
-35.901
-35.842
-35.848
-35.915
-36.039
-36.217
-36.443
-36.715
-37.026
-37.373
-37.75
-38.152
-38.574
-39.013
-39.462
-39.919
-40.378
-40.837
-41.291
-41.739
-42.177
-42.603
-43.016
-43.413
-43.793
-44.155
-44.496
-44.818
-45.119
-45.4
-45.66
-45.901
-46.124
-46.331
-46.524
-46.705
-46.875
-47.037
-47.193
-47.345
-47.494
-47.643
-47.791
-47.941
-48.093
-48.247
-48.405
-48.565
-48.728
-48.892
-49.057
-49.221
-49.382
-49.54
-49.692
-49.837
-49.974
-50.102
-50.22
-50.326
-50.42
-50.5
-50.566
-50.616
-50.649
-50.665
-50.661
-50.638
-50.594
-50.528
-50.442
-50.334
-50.205
-50.056
-49.886
-49.698
-49.493
-49.272
-49.038
-48.791
-48.537
-48.276
-48.012
-47.749
-47.49
-47.237
-46.994
-46.763
-46.547
-46.349
-46.169
-46.01
-45.873
-45.76
-45.671
-45.607
-45.57
-45.56
-45.577
-45.622
-45.693
-45.792
-45.917
-46.068
-46.243
-46.442
-46.663
-46.904
-47.164
-47.44
-47.732
-48.035
-48.349
-48.669
-48.994
-49.321
-49.647
-49.97
-50.287
-50.596
-50.896
-51.185
-51.462
-51.725
-51.975
-52.211
-52.432
-52.638
-52.83
-53.006
-53.169
-53.317
-53.452
-53.574
-53.683
-53.781
-53.868
-53.945
-54.011
-54.069
-54.117
-54.158
-54.19
-54.214
-54.23
-54.237
-54.236
-54.225
-54.203
-54.168
-54.119
-54.053
-53.968
-53.861
-53.729
-53.568
-53.374
-53.143
-52.87
-52.55
-52.18
-51.753
-51.265
-50.711
-50.087
-49.389
-48.611
-47.751
-46.804
-45.769
-44.642
-43.421
-42.105
-40.694
-39.188
-37.588
-35.897
-34.118
-32.255
-30.316
-28.31
-26.245
-24.132
-21.983
-19.811
-17.628
-15.45
-13.288
-11.156
-9.069
-7.04
-5.086
-3.224
-1.47
0.158
1.645
2.975
4.133
5.109
5.896
6.487
6.879
7.061
7.018
6.736
6.205
5.417
4.37
3.066
1.514
-0.262
-2.226
-4.337
-6.557
-8.849
-11.19
-13.549
-15.892
-18.174
-20.331
-22.308
-24.06
-25.543
-26.718
-27.564
-28.089
-28.34
-28.423
-28.431
-28.434
-28.504
-28.709
-29.147
-29.962
-31.271
-33.153
-35.721
-39.132
-43.48
-48.782
-54.804
-61.005
-66.841
-71.846
-75.483
-77.162
-76.419
-73.083
-67.698
-61.568
-55.931
-51.556
-49.363
-50.505
-55.606
-64.739
-75.304
-81.814
-81.18
-71.925
-54.16
-31.134
1.359
51.308
122.403
220.477
341.079
472.205
609.787
744.52
866.24
967.618
1030.571
1039.727
991.919
888.974
742.336
570.814
389.095
213.203
63.408
-46.254
-109.081
-127.915
-119.708
-103.501
-90.001
-83.419
-80.303
-74.624
-66.514
-58.545
-53.361
-53.846
-59.563
-68.132
-77.648
-85.987
-91.379
-93.302
-91.837
-87.415
-81
-73.592
-65.954
-58.89
-53.157
-49.104
-46.832
-46.275
-47.154
-49.201
-52.211
-55.931
-60.107
-64.566
-69.126
-73.611
-77.867
-81.711
-84.996
-87.642
-89.594
-90.826
-91.339
-91.15
-90.303
-88.871
-86.922
-84.518
-81.719
-78.581
-75.177
-71.589
-67.903
-64.203
-60.55
-56.982
-53.528
-50.202
-47.008
-43.944
-40.99
-38.122
-35.322
-32.578
-29.879
-27.216
-24.577
-21.942
-19.296
-16.622
-13.906
-11.136
-8.302
-5.394
-2.406
0.664
3.819
7.058
10.384
13.798
17.305
20.908
24.609
28.409
32.31
36.31
40.408
44.599
48.879
53.24
57.674
62.174
66.73
71.331
75.966
80.623
85.289
89.949
94.588
99.188
103.732
108.204
112.584
116.855
120.997
124.994
128.827
132.479
135.933
139.173
142.184
144.949
147.456
149.692
151.643
153.3
154.653
155.695
156.418
156.818
156.891
156.637
156.053
155.142
153.904
152.344
150.467
148.279
145.788
143.004
139.939
136.604
133.015
129.185
125.132
120.873
116.424
111.804
107.031
102.124
97.103
91.986
86.793
81.543
76.256
70.95
65.644
60.356
55.102
49.9
44.764
39.71
34.752
29.903
25.177
20.583
16.135
11.84
7.709
3.749
-0.035
-3.637
-7.053
-10.282
-13.321
-16.171
-18.833
-21.308
-23.6
-25.71
-27.643
-29.404
-30.997
-32.429
-33.704
-34.83
-35.814
-36.662
-37.382
-37.98
-38.464
-38.841
-39.118
-39.301
-39.398
-39.415
-39.36
-39.24
-39.06
-38.829
-38.552
-38.235
-37.884
-37.504
-37.101
-36.678
-36.239
-35.788
-35.328
-34.864
-34.397
-33.93
-33.468
-33.011
-32.564
-32.128
-31.706
-31.3
-30.912
-30.545
-30.2
-29.88
-29.588
-29.325
-29.094
-28.898
-28.739
-28.618
-28.539
-28.502
-28.51
-28.564
-28.666
-28.817
-29.017
-29.269
-29.573
-29.931
-30.344
-30.812
-31.336
-31.916
-32.552
-33.245
-33.992
-34.794
-35.648
-36.555
-37.512
-38.517
-39.569
-40.665
-41.804
-42.981
-44.194
-45.44
-46.715
-48.015
-49.336
-50.674
-52.024
-53.382
-54.745
-56.106
-57.462
-58.809
-60.14
-61.452
-62.738
-63.995
-65.216
-66.399
-67.537
-68.626
-69.661
-70.639
-71.554
-72.403
-73.181
-73.882
-74.503
-75.039
-75.486
-75.839
-76.095
-76.25
-76.3
-76.242
-76.073
-75.79
-75.39
-74.872
-74.232
-73.47
-72.585
-71.576
-70.444
-69.188
-67.812
-66.316
-64.703
-62.977
-61.142
-59.2
-57.158
-55.022
-52.799
-50.496
-48.123
-45.69
-43.21
-40.697
-38.166
-35.632
-33.111
-30.621
-28.181
-25.806
-23.513
-21.318
-19.235
-17.281
-15.472
-13.825
-12.356
-11.083
-10.02
-9.182
-8.581
-8.228
-8.125
-8.274
-8.676
-9.335
-10.265
-11.476
-12.975
-14.766
-16.849
-19.217
-21.854
-24.731
-27.798
-31.001
-34.288
-37.612
-40.937
-44.228
-47.444
-50.538
-53.444
-56.103
-58.466
-60.484
-62.112
-63.333
-64.168
-64.685
-65.006
-65.249
-65.511
-65.888
-66.472
-67.354
-68.614
-70.328
-72.57
-75.473
-79.251
-84.013
-89.744
-96.265
-103.138
-109.834
-115.794
-120.255
-122.275
-121.3
-117.203
-110.227
-101.597
-92.814
-85.172
-80.666
-80.082
-81.871
-84.549
-85.908
-86.769
-92.312
-102.734
-113.806
-111.913
-76.001
1.765
119.972
265.839
416.679
564.71
707.063
838.259
954.327
1037.176
1065.34
1031.192
935.14
789.116
614.66
428.782
247.36
88.542
-35.353
-117.637
-158.643
-170.911
-169.838
-164.525
-159.22
-151.816
-137.951
-119.1
-99.483
-83.03
-73.41
-70.873
-73.46
-79.498
-86.902
-93.567
-97.952
-99.215
-97.326
-92.907
-86.91
-80.147
-73.327
-67.23
-62.561
-59.679
-58.624
-59.198
-61.038
-63.836
-67.365
-71.368
-75.599
-79.847
-83.915
-87.641
-90.901
-93.595
-95.649
-97.024
-97.701
-97.685
-97.015
-95.75
-93.966
-91.74
-89.139
-86.226
-83.061
-79.717
-76.271
-72.8
-69.378
-66.053
-62.857
-59.811
-56.925
-54.198
-51.618
-49.162
-46.799
-44.505
-42.262
-40.053
-37.863
-35.674
-33.463
-31.214
-28.906
-26.526
-24.061
-21.499
-18.829
-16.047
-13.147
-10.128
-6.991
-3.735
-0.359
3.137
6.752
10.483
14.326
18.276
22.325
26.464
30.683
34.968
39.305
43.679
48.072
52.469
56.85
61.196
65.488
69.707
73.832
77.843
81.72
85.443
88.994
92.353
95.501
98.422
101.098
103.515
105.656
107.51
109.064
110.308
111.233
111.833
112.102
112.038
111.638
110.903
109.835
108.439
106.721
104.687
102.348
99.714
96.798
93.614
90.177
86.504
82.61
78.515
74.237
69.795
65.208
60.496
55.68
50.78
45.816
40.809
35.778
30.744
25.727
20.745
15.818
10.962
6.194
1.531
-3.013
-7.425
-11.691
-15.799
-19.741
-23.505
-27.085
-30.473
-33.664
-36.654
-39.44
-42.019
-44.393
-46.561
-48.524
-50.286
-51.85
-53.219
-54.398
-55.394
-56.212
-56.86
-57.345
-57.676
-57.862
-57.913
-57.838
-57.647
-57.35
-56.957
-56.478
-55.923
-55.302
-54.624
-53.899
-53.136
-52.343
-51.529
-50.701
-49.867
-49.033
-48.205
-47.388
-46.586
-45.804
-45.045
-44.312
-43.607
-42.933
-42.292
-41.684
-41.111
-40.573
-40.07
-39.6
-39.163
-38.757
-38.381
-38.032
-37.709
-37.41
-37.133
-36.876
-36.637
-36.413
-36.204
-36.008
-35.822
-35.645
-35.478
-35.318
-35.166
-35.022
-34.887
-34.763
-34.649
-34.549
-34.464
-34.395
-34.344
-34.314
-34.306
-34.323
-34.367
-34.44
-34.546
-34.685
-34.862
-35.078
-35.336
-35.637
-35.983
-36.376
-36.816
-37.304
-37.842
-38.428
-39.062
-39.744
-40.472
-41.244
-42.057
-42.908
-43.791
-44.702
-45.635
-46.585
-47.545
-48.507
-49.466
-50.413
-51.342
-52.244
-53.112
-53.938
-54.712
-55.427
-56.074
-56.644
-57.131
-57.527
-57.823
-58.012
-58.088
-58.044
-57.873
-57.57
-57.128
-56.544
-55.813
-54.932
-53.899
-52.713
-51.376
-49.887
-48.252
-46.473
-44.557
-42.508
-40.335
-38.045
-35.648
-33.153
-30.571
-27.915
-25.2
-22.441
-19.657
-16.865
-14.084
-11.335
-8.636
-6.009
-3.47
-1.036
1.276
3.452
5.472
7.319
8.973
10.419
11.643
12.631
13.372
13.854
14.074
14.034
13.737
13.185
12.37
11.276
9.89
8.207
6.223
3.943
1.377
-1.464
-4.551
-7.835
-11.266
-14.791
-18.365
-21.96
-25.535
-29.042
-32.408
-35.546
-38.378
-40.84
-42.881
-44.465
-45.57
-46.196
-46.389
-46.224
-45.802
-45.242
-44.658
-44.181
-43.952
-44.092
-44.801
-46.345
-48.899
-52.523
-57.064
-62.096
-67.159
-71.861
-75.662
-77.907
-78.091
-75.987
-72.096
-67.711
-64.261
-62.981
-64.867
-70.755
-81.159
-95.912
-113.344
-130.129
-142.145
-145.284
-135.85
-110.213
-65.045
2.037
90.021
194.083
308.358
427.485
550.568
678.069
804.38
917.508
997.695
1027.065
1001.255
927.031
820.597
695.507
555.621
403.833
245.618
96.732
-21.402
-96.203
-127.625
-130.077
-121.514
-112.104
-104.376
-94.257
-79.189
-61.819
-46.229
-36.645
-34.612
-38.681
-46.707
-56.395
-65.584
-72.505
-76.193
-76.49
-73.837
-69.145
-63.352
-57.228
-51.606
-47.291
-44.676
-43.859
-44.714
-46.902
-50.136
-54.2
-58.82
-63.733
-68.745
-73.668
-78.35
-82.678
-86.501
-89.704
-92.223
-94.015
-95.074
-95.423
-95.094
-94.14
-92.637
-90.65
-88.246
-85.489
-82.436
-79.156
-75.726
-72.217
-68.7
-65.227
-61.828
-58.527
-55.333
-52.243
-49.25
-46.334
-43.472
-40.645
-37.838
-35.04
-32.238
-29.419
-26.565
-23.659
-20.686
-17.633
-14.488
-11.243
-7.889
-4.421
-0.838
2.861
6.674
10.6
14.639
18.79
23.052
27.42
31.891
36.458
41.114
45.849
50.653
55.512
60.412
65.339
70.275
75.204
80.108
84.969
89.767
94.482
99.094
103.581
107.922
112.095
116.078
119.851
123.393
126.685
129.706
132.44
134.87
136.982
138.761
140.196
141.276
141.994
142.343
142.318
141.918
141.143
139.993
138.473
136.589
134.349
131.762
128.838
125.591
122.034
118.183
114.054
109.665
105.036
100.186
95.137
89.911
84.53
79.018
73.399
67.697
61.934
56.135
50.324
44.523
38.754
33.039
27.4
21.854
16.422
11.12
5.965
0.969
-3.852
-8.489
-12.931
-17.169
-21.196
-25.005
-28.593
-31.954
-35.087
-37.991
-40.666
-43.113
-45.335
-47.335
-49.119
-50.693
-52.063
-53.237
-54.225
-55.035
-55.677
-56.162
-56.501
-56.705
-56.787
-56.757
-56.628
-56.411
-56.118
-55.759
-55.344
-54.885
-54.388
-53.864
-53.321
-52.764
-52.202
-51.641
-51.086
-50.543
-50.015
-49.507
-49.022
-48.563
-48.131
-47.727
-47.353
-47.01
-46.696
-46.412
-46.156
-45.928
-45.726
-45.547
-45.391
-45.253
-45.131
-45.023
-44.926
-44.837
-44.753
-44.672
-44.593
-44.513
-44.432
-44.349
-44.264
-44.177
-44.087
-43.997
-43.907
-43.818
-43.733
-43.653
-43.582
-43.523
-43.479
-43.452
-43.448
-43.468
-43.517
-43.597
-43.711
-43.863
-44.054
-44.288
-44.568
-44.894
-45.27
-45.697
-46.175
-46.706
-47.289
-47.923
-48.607
-49.339
-50.116
-50.935
-51.793
-52.684
-53.605
-54.549
-55.51
-56.481
-57.455
-58.422
-59.374
-60.301
-61.194
-62.041
-62.833
-63.56
-64.212
-64.78
-65.253
-65.622
-65.879
-66.016
-66.023
-65.894
-65.622
-65.202
-64.627
-63.896
-63.005
-61.952
-60.738
-59.363
-57.829
-56.139
-54.298
-52.309
-50.179
-47.916
-45.529
-43.027
-40.424
-37.733
-34.973
-32.161
-29.319
-26.467
-23.628
-20.823
-18.075
-15.406
-12.833
-10.375
-8.05
-5.876
-3.874
-2.064
-0.461
0.917
2.059
2.952
3.585
3.954
4.061
3.907
3.494
2.812
1.842
0.571
-1.009
-2.903
-5.107
-7.61
-10.398
-13.44
-16.682
-20.071
-23.551
-27.074
-30.607
-34.106
-37.513
-40.76
-43.756
-46.423
-48.701
-50.54
-51.908
-52.797
-53.227
-53.254
-52.971
-52.486
-51.917
-51.393
-51.043
-51.006
-51.415
-52.452
-54.37
-57.335
-61.364
-66.265
-71.591
-76.821
-81.477
-84.973
-86.575
-85.744
-82.387
-77.112
-71.231
-66.264
-63.527
-64.149
-69.232
-79.431
-94.312
-111.829
-128.576
-140.418
-142.989
-132.214
-104.025
-54.425
17.739
109.448
216.423
332.855
454.676
583.114
715.885
844.557
956.312
1031.004
1050.918
1010.885
913.276
768.354
594.08
405.812
220.711
60.127
-61.7
-136.023
-162.38
-154.12
-125.293
-88.982
-58.391
-38.151
-31.641
-38.971
-52.323
-66.419
-76.271
-79.897
-82.056
-85.208
-90.051
-95.773
-98.928
-98.206
-94.169
-87.694
-80.274
-72.922
-66.133
-60.562
-56.633
-54.418
-53.826
-54.613
-56.566
-59.529
-63.334
-67.76
-72.585
-77.634
-82.748
-87.782
-92.568
-96.92
-100.701
-103.829
-106.263
-107.998
-109.046
-109.428
-109.185
-108.38
-107.069
-105.311
-103.166
-100.69
-97.953
-95.03
-91.995
-88.919
-85.854
-82.83
-79.863
-76.957
-74.107
-71.302
-68.524
-65.749
-62.96
-60.144
-57.289
-54.388
-51.428
-48.398
-45.284
-42.077
-38.767
-35.35
-31.823
-28.185
-24.439
-20.587
-16.636
-12.594
-8.467
-4.261
0.019
4.367
8.777
13.24
17.748
22.291
26.859
31.439
36.017
40.577
45.104
49.582
53.992
58.319
62.544
66.65
70.617
74.429
78.066
81.512
84.748
87.757
90.523
93.029
95.261
97.204
98.847
100.177
101.185
101.861
102.199
102.193
101.837
101.13
100.07
98.657
96.893
94.782
92.33
89.545
86.436
83.015
79.295
75.289
71.015
66.489
61.729
56.754
51.586
46.245
40.754
35.135
29.411
23.608
17.748
11.855
5.955
0.069
-5.778
-11.564
-17.267
-22.866
-28.34
-33.669
-38.834
-43.819
-48.606
-53.181
-57.53
-61.641
-65.503
-69.108
-72.449
-75.52
-78.317
-80.839
-83.083
-85.051
-86.744
-88.167
-89.325
-90.223
-90.87
-91.274
-91.446
-91.397
-91.139
-90.685
-90.048
-89.242
-88.281
-87.181
-85.954
-84.617
-83.185
-81.673
-80.095
-78.467
-76.801
-75.112
-73.413
-71.715
-70.029
-68.365
-66.734
-65.143
-63.599
-62.109
-60.68
-59.315
-58.018
-56.792
-55.639
-54.559
-53.552
-52.618
-51.755
-50.959
-50.23
-49.562
-48.953
-48.398
-47.894
-47.435
-47.017
-46.635
-46.285
-45.961
-45.658
-45.373
-45.101
-44.838
-44.581
-44.328
-44.077
-43.826
-43.575
-43.323
-43.072
-42.821
-42.572
-42.328
-42.091
-41.865
-41.654
-41.461
-41.292
-41.152
-41.046
-40.979
-40.956
-40.983
-41.065
-41.205
-41.408
-41.679
-42.02
-42.434
-42.924
-43.491
-44.136
-44.858
-45.657
-46.531
-47.476
-48.488
-49.563
-50.695
-51.877
-53.102
-54.36
-55.643
-56.939
-58.239
-59.529
-60.796
-62.028
-63.212
-64.331
-65.373
-66.323
-67.165
-67.887
-68.474
-68.912
-69.19
-69.294
-69.214
-68.94
-68.465
-67.779
-66.879
-65.759
-64.418
-62.855
-61.072
-59.072
-56.859
-54.441
-51.826
-49.024
-46.048
-42.912
-39.631
-36.225
-32.714
-29.122
-25.472
-21.79
-18.103
-14.44
-10.827
-7.292
-3.861
-0.56
2.585
5.548
8.302
10.822
13.082
15.06
16.736
18.091
19.112
19.793
20.129
20.118
19.755
19.028
17.93
16.455
14.6
12.364
9.758
6.799
3.519
-0.032
-3.806
-7.75
-11.816
-15.966
-20.154
-24.33
-28.433
-32.39
-36.132
-39.593
-42.711
-45.416
-47.673
-49.495
-50.933
-52.09
-53.05
-53.861
-54.591
-55.337
-56.208
-57.315
-58.763
-60.608
-62.974
-66.129
-70.192
-75.103
-80.613
-86.137
-91.071
-94.944
-97.103
-96.689
-93.363
-87.348
-79.299
-70.682
-63.066
-57.749
-56.459
-60.95
-70.213
-80.751
-89.246
-92.351
-91.121
-89.766
-86.371
-73.196
-37.487
34.058
144.635
286.879
447.262
612.059
770.143
910
1019.402
1081.724
1080.478
1010.747
875.853
690.987
483.615
278.601
101.992
-26.169
-104.595
-137.487
-138.825
-126.681
-104.687
-78.27
-52.672
-28.538
-16.857
-21.107
-34.307
-52.823
-68.12
-76.183
-82.353
-88.237
-94.51
-101.24
-105.021
-104.668
-101.232
-95.622
-89.215
-83.195
-78.13
-74.361
-72.154
-71.485
-72.072
-73.728
-76.284
-79.518
-83.253
-87.318
-91.544
-95.804
-99.987
-103.93
-107.446
-110.397
-112.692
-114.29
-115.181
-115.364
-114.854
-113.688
-111.93
-109.645
-106.889
-103.722
-100.194
-96.374
-92.341
-88.179
-83.97
-79.776
-75.638
-71.581
-67.62
-63.759
-59.996
-56.318
-52.703
-49.135
-45.603
-42.099
-38.618
-35.146
-31.671
-28.178
-24.656
-21.094
-17.483
-13.819
-10.095
-6.312
-2.47
1.429
5.379
9.378
13.423
17.513
21.645
25.817
30.024
34.262
38.527
42.812
47.107
51.404
55.692
59.958
64.191
68.375
72.498
76.543
80.496
84.34
88.059
91.637
95.058
98.306
101.366
104.223
106.863
109.273
111.44
113.354
115.003
116.38
117.476
118.286
118.805
119.029
118.958
118.591
117.929
116.974
115.73
114.202
112.396
110.32
107.983
105.395
102.567
99.511
96.243
92.777
89.126
85.306
81.333
77.223
72.99
68.647
64.208
59.685
55.091
50.436
45.731
40.988
36.217
31.429
26.636
21.849
17.077
12.328
7.607
2.918
-1.733
-6.343
-10.91
-15.429
-19.897
-24.302
-28.636
-32.89
-37.062
-41.16
-45.192
-49.16
-53.067
-56.914
-60.695
-64.398
-67.994
-71.438
-74.682
-77.681
-80.397
-82.805
-84.878
-86.585
-87.887
-88.734
-89.087
-88.92
-88.208
-86.924
-85.071
-82.698
-79.899
-76.831
-73.64
-70.438
-67.342
-64.489
-62.013
-60.05
-58.72
-58.071
-58.2
-59.311
-61.483
-64.653
-68.605
-72.809
-76.697
-79.841
-81.609
-81.144
-77.995
-72.143
-63.956
-54.552
-45.189
-36.725
-30.425
-28.096
-29.185
-30.767
-30.307
-23.883
-11.882
-0.555
9.838
22.527
46.51
99.438
188.954
314.443
468.897
633.044
791.529
928.767
1027.664
1080.161
1077.378
1019.421
914.747
769.2
597.499
413.657
233.929
83.551
-24.003
-83.694
-102.497
-103.452
-100.988
-101.333
-104.595
-101.304
-89.281
-73.025
-56.56
-45.522
-41.928
-43.85
-49.636
-57.542
-65.356
-71.269
-74.321
-74.168
-71.241
-66.558
-60.933
-54.963
-49.471
-45.282
-42.845
-42.346
-43.655
-46.382
-50.226
-54.953
-60.283
-65.942
-71.682
-77.269
-82.507
-87.245
-91.356
-94.744
-97.352
-99.152
-100.134
-100.317
-99.752
-98.509
-96.66
-94.278
-91.428
-88.171
-84.585
-80.758
-76.783
-72.751
-68.727
-64.753
-60.864
-57.08
-53.41
-49.857
-46.405
-43.031
-39.718
-36.456
-33.239
-30.062
-26.914
-23.782
-20.652
-17.513
-14.354
-11.171
-7.955
-4.704
-1.415
1.91
5.268
8.654
12.063
15.495
18.947
22.418
25.905
29.403
32.909
36.416
39.919
43.406
46.869
50.294
53.67
56.984
60.22
63.366
66.406
69.326
72.109
74.742
77.208
79.493
81.581
83.459
85.114
86.532
87.701
88.612
89.253
89.618
89.698
89.488
88.983
88.18
87.079
85.679
83.983
81.993
79.717
77.161
74.334
71.248
67.916
64.351
60.571
56.591
52.432
48.113
43.654
39.076
34.403
29.655
24.857
20.029
15.195
10.377
5.596
0.874
-3.771
-8.318
-12.748
-17.044
-21.19
-25.17
-28.971
-32.578
-35.982
-39.173
-42.142
-44.883
-47.392
-49.664
-51.698
-53.493
-55.053
-56.379
-57.475
-58.349
-59.007
-59.457
-59.711
-59.778
-59.671
-59.402
-58.984
-58.431
-57.756
-56.973
-56.097
-55.14
-54.119
-53.045
-51.934
-50.799
-49.652
-48.507
-47.376
-46.27
-45.2
-44.178
-43.211
-42.309
-41.48
-40.73
-40.065
-39.492
-39.013
-38.632
-38.352
-38.174
-38.097
-38.122
-38.247
-38.469
-38.787
-39.196
-39.694
-40.275
-40.936
-41.672
-42.477
-43.348
-44.277
-45.26
-46.29
-47.363
-48.471
-49.608
-50.769
-51.946
-53.134
-54.326
-55.517
-56.7
-57.87
-59.02
-60.146
-61.243
-62.306
-63.33
-64.313
-65.25
-66.138
-66.976
-67.76
-68.49
-69.162
-69.778
-70.334
-70.83
-71.265
-71.639
-71.95
-72.199
-72.385
-72.507
-72.566
-72.562
-72.495
-72.366
-72.177
-71.927
-71.62
-71.257
-70.84
-70.371
-69.853
-69.289
-68.682
-68.034
-67.349
-66.629
-65.877
-65.097
-64.291
-63.462
-62.613
-61.745
-60.862
-59.965
-59.058
-58.142
-57.221
-56.296
-55.37
-54.447
-53.529
-52.619
-51.719
-50.834
-49.965
-49.115
-48.288
-47.484
-46.706
-45.957
-45.237
-44.548
-43.892
-43.27
-42.682
-42.129
-41.611
-41.13
-40.685
-40.276
-39.904
-39.569
-39.271
-39.009
-38.786
-38.6
-38.453
-38.344
-38.275
-38.245
-38.255
-38.304
-38.393
-38.52
-38.686
-38.889
-39.13
-39.405
-39.716
-40.061
-40.438
-40.846
-41.284
-41.75
-42.242
-42.759
-43.299
-43.859
-44.439
-45.036
-45.647
-46.272
-46.907
-47.55
-48.198
-48.849
-49.499
-50.144
-50.78
-51.402
-52.007
-52.588
-53.14
-53.657
-54.134
-54.565
-54.944
-55.265
-55.521
-55.708
-55.819
-55.849
-55.791
-55.641
-55.393
-55.042
-54.585
-54.018
-53.338
-52.541
-51.626
-50.59
-49.433
-48.154
-46.754
-45.231
-43.589
-41.83
-39.957
-37.975
-35.888
-33.705
-31.433
-29.085
-26.673
-24.211
-21.715
-19.2
-16.684
-14.185
-11.72
-9.306
-6.957
-4.69
-2.521
-0.469
1.448
3.213
4.81
6.224
7.443
8.455
9.249
9.824
10.178
10.308
10.205
9.853
9.232
8.333
7.148
5.674
3.92
1.894
-0.382
-2.869
-5.525
-8.305
-11.168
-14.084
-17.019
-19.928
-22.75
-25.408
-27.822
-29.933
-31.686
-33.042
-33.994
-34.549
-34.754
-34.695
-34.442
-34.087
-33.739
-33.504
-33.515
-33.916
-34.827
-36.437
-39.005
-42.661
-47.377
-52.906
-58.708
-64.237
-69.061
-72.608
-74.183
-73.354
-70.112
-65.172
-59.984
-55.989
-54.237
-55.61
-60.963
-70.698
-84.24
-99.413
-112.72
-120.296
-118.284
-103.089
-71.139
-18.848
54.531
145.38
249.058
360.009
475.104
597.311
726.223
854.272
968.689
1047.797
1070.796
1030.996
929.919
778.926
601.346
415.739
241.413
100.158
-1.394
-62.196
-89.212
-102.163
-111.527
-120.657
-128.884
-127.588
-114.268
-93.115
-69.07
-48.229
-33.511
-24.34
-19.818
-19.474
-23.283
-30.562
-39.83
-49.579
-58.397
-65.741
-71.828
-76.364
-78.69
-78.793
-77.087
-74.368
-71.889
-70.272
-69.526
-69.816
-71.362
-74.202
-78.305
-83.303
-88.451
-93.269
-97.533
-101.086
-103.916
-105.991
-107.231
-107.664
-107.418
-106.596
-105.286
-103.54
-101.345
-98.723
-95.73
-92.433
-88.928
-85.297
-81.606
-77.906
-74.23
-70.602
-67.043
-63.56
-60.149
-56.798
-53.488
-50.209
-46.961
-43.741
-40.541
-37.349
-34.143
-30.906
-27.624
-24.287
-20.886
-17.411
-13.855
-10.213
-6.483
-2.664
1.244
5.242
9.335
13.524
17.812
22.199
26.684
31.265
35.941
40.707
45.558
50.485
55.481
60.534
65.634
70.769
75.925
81.087
86.239
91.366
96.45
101.472
106.413
111.256
115.979
120.562
124.987
129.233
133.281
137.112
140.709
144.053
147.13
149.923
152.418
154.602
156.463
157.991
159.177
160.012
160.49
160.608
160.363
159.754
158.782
157.451
155.764
153.729
151.353
148.646
145.62
142.287
138.661
134.759
130.596
126.192
121.565
116.736
111.725
106.553
101.242
95.813
90.289
84.69
79.037
73.353
67.657
61.97
56.31
50.698
45.15
39.685
34.317
29.064
23.939
18.954
14.123
9.455
4.96
0.647
-3.478
-7.408
-11.141
-14.673
-18.002
-21.128
-24.052
-26.776
-29.303
-31.637
-33.783
-35.746
-37.534
-39.152
-40.608
-41.908
-43.061
-44.074
-44.955
-45.71
-46.348
-46.877
-47.303
-47.634
-47.878
-48.041
-48.131
-48.154
-48.117
-48.026
-47.887
-47.706
-47.488
-47.238
-46.961
-46.66
-46.34
-46.003
-45.653
-45.292
-44.922
-44.545
-44.162
-43.775
-43.386
-42.995
-42.603
-42.214
-41.828
-41.447
-41.073
-40.71
-40.358
-40.021
-39.702
-39.402
-39.124
-38.871
-38.644
-38.447
-38.28
-38.147
-38.047
-37.984
-37.958
-37.97
-38.022
-38.114
-38.247
-38.422
-38.64
-38.901
-39.206
-39.556
-39.951
-40.391
-40.876
-41.407
-41.981
-42.598
-43.256
-43.954
-44.688
-45.456
-46.256
-47.083
-47.934
-48.807
-49.697
-50.6
-51.514
-52.433
-53.355
-54.275
-55.19
-56.097
-56.99
-57.868
-58.727
-59.563
-60.373
-61.152
-61.898
-62.605
-63.271
-63.889
-64.456
-64.967
-65.417
-65.801
-66.115
-66.355
-66.517
-66.597
-66.592
-66.496
-66.309
-66.025
-65.641
-65.156
-64.565
-63.866
-63.057
-62.137
-61.105
-59.959
-58.7
-57.328
-55.845
-54.251
-52.549
-50.742
-48.835
-46.833
-44.743
-42.572
-40.328
-38.023
-35.67
-33.284
-30.878
-28.47
-26.078
-23.718
-21.41
-19.172
-17.02
-14.971
-13.041
-11.247
-9.608
-8.145
-6.875
-5.814
-4.978
-4.383
-4.04
-3.96
-4.145
-4.597
-5.317
-6.311
-7.594
-9.182
-11.079
-13.291
-15.816
-18.645
-21.764
-25.149
-28.755
-32.537
-36.45
-40.451
-44.512
-48.6
-52.67
-56.668
-60.515
-64.135
-67.466
-70.45
-73.038
-75.211
-76.967
-78.343
-79.421
-80.267
-80.955
-81.567
-82.178
-82.896
-83.837
-85.106
-86.869
-89.356
-92.719
-96.993
-102.006
-107.301
-112.366
-116.706
-119.707
-120.681
-119.076
-114.722
-108.21
-100.839
-94.135
-89.511
-88.137
-91.111
-99.301
-112.633
-129.303
-146.104
-158.995
-163.494
-155.495
-130.872
-85.045
-16.091
73.069
177.874
292.373
412.881
543.198
684.733
830.241
965.176
1063.862
1100.297
1064.464
957.82
793.658
597.737
391.559
196.243
34.977
-81.596
-148.652
-169.246
-160.045
-134.259
-103.277
-78.709
-63.262
-60.502
-71.123
-87.655
-105.221
-118.553
-125.474
-130.643
-136.446
-143.649
-151.348
-156.037
-156.39
-152.861
-146.257
-138.004
-129.05
-119.951
-111.457
-104.05
-97.89
-92.954
-89.089
-86.228
-84.343
-83.345
-83.074
-83.351
-84.076
-85.237
-86.852
-88.878
-91.2
-93.665
-96.156
-98.62
-101.004
-103.248
-105.262
-106.919
-108.149
-108.94
-109.301
-109.247
-108.772
-107.829
-106.372
-104.395
-101.919
-98.986
-95.627
-91.847
-87.672
-83.148
-78.361
-73.415
-68.38
-63.286
-58.15
-52.99
-47.834
-42.726
-37.703
-32.774
-27.944
-23.218
-18.603
-14.113
-9.748
-5.487
-1.292
2.88
7.057
11.249
15.461
19.698
23.962
28.259
32.584
36.921
41.259
45.591
49.91
54.213
58.489
62.721
66.889
70.971
74.951
78.811
82.535
86.109
89.516
92.744
95.783
98.626
101.262
103.682
105.871
107.819
109.515
110.949
112.111
112.991
113.581
113.876
113.871
113.564
112.954
112.039
110.822
109.304
107.49
105.384
102.993
100.325
97.389
94.197
90.761
87.094
83.212
79.13
74.864
70.431
65.85
61.139
56.314
51.396
46.403
41.355
36.269
31.167
26.066
20.985
15.942
10.957
6.045
1.223
-3.494
-8.091
-12.554
-16.872
-21.032
-25.025
-28.84
-32.471
-35.908
-39.147
-42.183
-45.011
-47.631
-50.04
-52.239
-54.228
-56.01
-57.586
-58.962
-60.141
-61.129
-61.931
-62.554
-63.004
-63.289
-63.417
-63.395
-63.231
-62.935
-62.514
-61.978
-61.334
-60.593
-59.761
-58.848
-57.861
-56.81
-55.701
-54.544
-53.344
-52.11
-50.847
-49.564
-48.266
-46.958
-45.648
-44.339
-43.037
-41.747
-40.474
-39.22
-37.99
-36.788
-35.617
-34.48
-33.381
-32.323
-31.309
-30.341
-29.423
-28.557
-27.745
-26.989
-26.293
-25.657
-25.084
-24.575
-24.132
-23.757
-23.451
-23.215
-23.049
-22.956
-22.934
-22.985
-23.108
-23.301
-23.566
-23.9
-24.303
-24.772
-25.306
-25.903
-26.561
-27.275
-28.043
-28.862
-29.727
-30.634
-31.578
-32.555
-33.56
-34.588
-35.632
-36.688
-37.749
-38.81
-39.864
-40.905
-41.926
-42.921
-43.883
-44.806
-45.683
-46.508
-47.275
-47.978
-48.611
-49.17
-49.648
-50.04
-50.342
-50.548
-50.656
-50.66
-50.559
-50.349
-50.028
-49.595
-49.047
-48.384
-47.604
-46.708
-45.696
-44.567
-43.322
-41.964
-40.493
-38.913
-37.227
-35.437
-33.551
-31.571
-29.505
-27.358
-25.137
-22.849
-20.503
-18.107
-15.671
-13.206
-10.723
-8.237
-5.761
-3.311
-0.901
1.454
3.736
5.932
8.029
10.013
11.873
13.596
15.168
16.576
17.804
18.84
19.671
20.285
20.673
20.827
20.747
20.43
19.879
19.09
18.053
16.759
15.201
13.375
11.279
8.92
6.313
3.486
0.479
-2.66
-5.887
-9.158
-12.437
-15.686
-18.865
-21.924
-24.798
-27.428
-29.758
-31.738
-33.324
-34.495
-35.262
-35.681
-35.857
-35.89
-35.856
-35.842
-35.944
-36.289
-37.032
-38.313
-40.215
-42.86
-46.463
-51.136
-56.881
-63.467
-70.274
-76.68
-82.237
-86.366
-88.386
-87.893
-84.724
-79.377
-73.423
-68.288
-64.78
-64.042
-67.264
-74.713
-86.204
-99.056
-107.244
-106.998
-96.327
-74.607
-44.482
-3.437
54.253
132.715
237.651
367.587
516.23
677.205
835.547
974.547
1075.726
1118.189
1094.61
1008.354
871.363
705.63
528.982
356.269
204.12
83.445
0.843
-42.921
-59.674
-64.69
-67.478
-72.682
-77.357
-75.591
-67.722
-57.391
-48.523
-45.063
-47.39
-53.558
-62.083
-71.269
-79.314
-84.825
-86.97
-85.624
-81.381
-75.236
-68.07
-60.609
-53.66
-48.003
-44.08
-42.061
-41.86
-43.182
-45.77
-49.418
-53.876
-58.887
-64.239
-69.721
-75.139
-80.324
-85.078
-89.245
-92.725
-95.446
-97.378
-98.518
-98.879
-98.508
-97.473
-95.842
-93.677
-91.041
-87.992
-84.604
-80.963
-77.153
-73.262
-69.349
-65.455
-61.607
-57.819
-54.094
-50.426
-46.796
-43.178
-39.555
-35.915
-32.248
-28.55
-24.808
-21.011
-17.147
-13.206
-9.178
-5.06
-0.847
3.46
7.861
12.349
16.916
21.553
26.25
31.001
35.797
40.631
45.494
50.377
55.269
60.159
65.035
69.883
74.685
79.426
84.088
88.654
93.105
97.424
101.593
105.594
109.41
113.023
116.416
119.572
122.474
125.108
127.456
129.507
131.245
132.66
133.742
134.483
134.875
134.914
134.598
133.924
132.894
131.51
129.776
127.697
125.282
122.541
119.483
116.124
112.477
108.559
104.388
99.982
95.361
90.544
85.552
80.407
75.13
69.742
64.266
58.725
53.14
47.534
41.929
36.346
30.808
25.333
19.941
14.649
9.474
4.431
-0.465
-5.203
-9.771
-14.159
-18.36
-22.367
-26.175
-29.779
-33.18
-36.375
-39.365
-42.153
-44.74
-47.132
-49.331
-51.343
-53.174
-54.829
-56.316
-57.641
-58.813
-59.84
-60.73
-61.493
-62.136
-62.671
-63.104
-63.446
-63.705
-63.889
-64.006
-64.063
-64.066
-64.022
-63.937
-63.815
-63.661
-63.478
-63.269
-63.037
-62.783
-62.507
-62.211
-61.895
-61.56
-61.205
-60.831
-60.438
-60.027
-59.598
-59.152
-58.69
-58.211
-57.717
-57.209
-56.687
-56.154
-55.609
-55.055
-54.494
-53.927
-53.358
-52.788
-52.221
-51.66
-51.108
-50.57
-50.05
-49.551
-49.079
-48.639
-48.236
-47.876
-47.564
-47.304
-47.103
-46.964
-46.892
-46.891
-46.963
-47.112
-47.338
-47.645
-48.031
-48.499
-49.046
-49.673
-50.376
-51.155
-52.005
-52.923
-53.906
-54.947
-56.042
-57.185
-58.369
-59.586
-60.83
-62.091
-63.361
-64.63
-65.889
-67.128
-68.337
-69.505
-70.621
-71.676
-72.66
-73.561
-74.372
-75.081
-75.679
-76.157
-76.509
-76.725
-76.801
-76.729
-76.504
-76.122
-75.58
-74.876
-74.007
-72.973
-71.774
-70.41
-68.883
-67.198
-65.359
-63.37
-61.24
-58.975
-56.586
-54.082
-51.474
-48.775
-45.995
-43.15
-40.252
-37.316
-34.358
-31.394
-28.442
-25.523
-22.656
-19.864
-17.167
-14.587
-12.143
-9.856
-7.742
-5.815
-4.088
-2.574
-1.285
-0.236
0.564
1.107
1.386
1.397
1.137
0.605
-0.194
-1.247
-2.545
-4.084
-5.863
-7.896
-10.189
-12.739
-15.539
-18.581
-21.852
-25.332
-28.985
-32.755
-36.582
-40.41
-44.188
-47.879
-51.43
-54.775
-57.833
-60.514
-62.741
-64.465
-65.65
-66.265
-66.309
-65.796
-64.767
-63.337
-61.636
-59.801
-57.988
-56.327
-54.945
-54.039
-53.868
-54.627
-56.388
-59.001
-62.08
-65.228
-68.081
-70.185
-70.954
-69.842
-66.656
-61.886
-56.661
-52.297
-49.959
-50.588
-55.119
-64.294
-77.998
-94.562
-111.051
-123.824
-128.876
-122.453
-100.707
-59.372
3.267
84.306
179.443
283.305
392.915
512.582
644.078
780.523
907.749
1000.615
1033.69
997.199
892.818
733.813
545.116
347.432
161.07
7.859
-100.846
-159.304
-172.354
-156.691
-128.154
-101.286
-82.665
-71.936
-68.443
-67.394
-67.218
-67.908
-67.596
-69.246
-73.813
-80.005
-87.731
-93.843
-96.188
-95.145
-90.902
-84.535
-77.376
-69.971
-62.972
-57.201
-52.998
-50.423
-49.4
-49.644
-50.91
-53.039
-55.827
-59.03
-62.463
-65.963
-69.375
-72.573
-75.4
-77.728
-79.475
-80.59
-81.063
-80.901
-80.127
-78.787
-76.943
-74.656
-71.983
-68.98
-65.698
-62.203
-58.566
-54.861
-51.159
-47.509
-43.944
-40.485
-37.139
-33.904
-30.77
-27.715
-24.711
-21.739
-18.781
-15.824
-12.856
-9.861
-6.822
-3.725
-0.555
2.701
6.049
9.499
13.053
16.713
20.48
24.348
28.313
32.371
36.517
40.748
45.058
49.442
53.891
58.398
62.952
67.542
72.154
76.774
81.386
85.973
90.517
95
99.404
103.71
107.898
111.948
115.843
119.561
123.086
126.398
129.48
132.316
134.891
137.19
139.2
140.909
142.305
143.381
144.127
144.537
144.607
144.331
143.709
142.741
141.427
139.771
137.778
135.455
132.809
129.851
126.593
123.047
119.229
115.153
110.836
106.296
101.551
96.621
91.525
86.282
80.914
75.441
69.883
64.261
58.594
52.902
47.205
41.523
35.873
30.274
24.744
19.3
13.958
8.735
3.646
-1.296
-6.077
-10.685
-15.11
-19.341
-23.369
-27.188
-30.792
-34.174
-37.332
-40.261
-42.962
-45.433
-47.674
-49.687
-51.474
-53.038
-54.383
-55.514
-56.435
-57.152
-57.671
-57.999
-58.144
-58.112
-57.912
-57.553
-57.044
-56.393
-55.612
-54.711
-53.701
-52.591
-51.393
-50.118
-48.777
-47.38
-45.937
-44.458
-42.953
-41.431
-39.902
-38.374
-36.855
-35.353
-33.876
-32.43
-31.022
-29.659
-28.346
-27.087
-25.89
-24.757
-23.694
-22.706
-21.796
-20.968
-20.226
-19.572
-19.01
-18.54
-18.164
-17.882
-17.696
-17.604
-17.606
-17.702
-17.89
-18.169
-18.538
-18.996
-19.541
-20.17
-20.882
-21.674
-22.543
-23.487
-24.504
-25.589
-26.742
-27.959
-29.236
-30.572
-31.962
-33.403
-34.89
-36.419
-37.983
-39.579
-41.2
-42.842
-44.497
-46.16
-47.827
-49.491
-51.147
-52.788
-54.41
-56.005
-57.567
-59.089
-60.565
-61.988
-63.35
-64.646
-65.869
-67.013
-68.071
-69.038
-69.906
-70.67
-71.324
-71.861
-72.275
-72.562
-72.716
-72.733
-72.61
-72.346
-71.938
-71.387
-70.691
-69.852
-68.871
-67.75
-66.492
-65.1
-63.58
-61.937
-60.179
-58.314
-56.351
-54.303
-52.183
-50.006
-47.788
-45.545
-43.294
-41.054
-38.842
-36.677
-34.573
-32.549
-30.619
-28.803
-27.119
-25.588
-24.228
-23.055
-22.086
-21.333
-20.812
-20.531
-20.495
-20.706
-21.168
-21.893
-22.9
-24.207
-25.822
-27.751
-29.991
-32.529
-35.351
-38.428
-41.712
-45.155
-48.71
-52.335
-56.002
-59.677
-63.316
-66.86
-70.234
-73.365
-76.199
-78.694
-80.817
-82.572
-83.98
-85.101
-86.04
-86.881
-87.718
-88.654
-89.785
-91.235
-93.134
-95.58
-98.73
-102.799
-107.876
-113.93
-120.735
-127.77
-134.521
-140.57
-145.364
-148.299
-149.003
-147.379
-143.948
-139.945
-136.542
-134.581
-134.775
-137.66
-143.435
-151.749
-160.951
-168.032
-169.763
-163.202
-145.51
-114.023
-66.307
-0.285
82.422
176.383
276.603
377.716
478.969
584.806
692.243
792.761
871.179
904.94
883.27
808.033
688.78
543.382
386.809
228.719
81.403
-40.532
-127.175
-173.69
-186.072
-181.658
-172.86
-165.892
-161.314
-153.022
-139.791
-124.945
-111.608
-103.566
-101.62
-103.861
-108.69
-114.352
-119.109
-121.791
-121.783
-119.146
-114.517
-108.768
-102.639
-96.721
-91.643
-87.996
-86.08
-85.904
-87.271
-89.833
-93.285
-97.404
-101.944
-106.637
-111.252
-115.565
-119.385
-122.612
-125.17
-126.998
-128.073
-128.381
-127.928
-126.767
-124.97
-122.605
-119.747
-116.458
-112.798
-108.844
-104.68
-100.392
-96.068
-91.766
-87.523
-83.369
-79.321
-75.386
-71.565
-67.84
-64.186
-60.583
-57.017
-53.475
-49.949
-46.425
-42.883
-39.308
-35.683
-31.996
-28.237
-24.396
-20.465
-16.438
-12.314
-8.093
-3.778
0.63
5.13
9.721
14.402
19.169
24.017
28.942
33.936
38.992
44.097
49.239
54.404
59.576
64.739
69.875
74.965
79.991
84.932
89.768
94.479
99.043
103.439
107.647
111.645
115.413
118.931
122.18
125.143
127.803
130.145
132.156
133.824
135.14
136.095
136.685
136.905
136.754
136.23
135.335
134.074
132.45
130.473
128.152
125.499
122.526
119.249
115.685
111.852
107.768
103.455
98.934
94.226
89.354
84.342
79.214
73.993
68.703
63.368
58.011
52.655
47.322
42.032
36.804
31.658
26.61
21.675
16.869
12.203
7.691
3.342
-0.833
-4.827
-8.633
-12.246
-15.66
-18.874
-21.887
-24.697
-27.306
-29.717
-31.933
-33.958
-35.799
-37.46
-38.95
-40.276
-41.446
-42.471
-43.36
-44.121
-44.766
-45.304
-45.744
-46.095
-46.367
-46.565
-46.7
-46.776
-46.801
-46.781
-46.721
-46.628
-46.505
-46.358
-46.191
-46.008
-45.811
-45.605
-45.391
-45.172
-44.948
-44.721
-44.49
-44.257
-44.019
-43.778
-43.531
-43.276
-43.012
-42.737
-42.447
-42.141
-41.816
-41.471
-41.104
-40.714
-40.301
-39.864
-39.406
-38.926
-38.426
-37.909
-37.377
-36.832
-36.277
-35.715
-35.148
-34.582
-34.018
-33.461
-32.914
-32.382
-31.87
-31.38
-30.919
-30.491
-30.101
-29.753
-29.454
-29.207
-29.02
-28.896
-28.842
-28.861
-28.957
-29.135
-29.397
-29.745
-30.18
-30.7
-31.306
-31.995
-32.764
-33.608
-34.523
-35.503
-36.542
-37.633
-38.768
-39.939
-41.137
-42.353
-43.577
-44.798
-46.007
-47.191
-48.339
-49.44
-50.48
-51.448
-52.332
-53.119
-53.796
-54.351
-54.772
-55.047
-55.166
-55.118
-54.894
-54.486
-53.888
-53.095
-52.103
-50.911
-49.519
-47.927
-46.14
-44.163
-42.001
-39.663
-37.158
-34.497
-31.693
-28.759
-25.71
-22.564
-19.34
-16.06
-12.747
-9.424
-6.117
-2.853
0.343
3.443
6.422
9.257
11.926
14.406
16.674
18.705
20.477
21.97
23.166
24.052
24.613
24.84
24.728
24.281
23.503
22.398
20.961
19.179
17.042
14.55
11.708
8.528
5.026
1.224
-2.843
-7.119
-11.549
-16.077
-20.655
-25.251
-29.823
-34.314
-38.648
-42.731
-46.478
-49.824
-52.713
-55.107
-56.988
-58.358
-59.253
-59.745
-59.914
-59.846
-59.641
-59.4
-59.237
-59.268
-59.666
-60.684
-62.497
-65.135
-68.42
-71.887
-75.003
-77.309
-78.254
-77.175
-73.631
-67.557
-59.607
-51.289
-44.292
-40.069
-39.848
-44.596
-54.787
-70.049
-88.398
-106.15
-118.915
-122.314
-112.175
-84.726
-36.74
34.136
126.193
233.692
350.656
470.054
588.963
709.122
825.474
928.955
1005.506
1034.93
1008.405
928.361
803.358
649.651
482.001
311.5
152.898
23.305
-66.701
-113.375
-124.315
-118.303
-108.268
-100.071
-94.015
-84.215
-69.868
-54.777
-42.318
-36.124
-36.761
-42.099
-50.281
-59.332
-67.322
-72.886
-75.318
-74.654
-71.531
-66.9
-61.588
-56.26
-51.628
-48.324
-46.664
-46.681
-48.194
-50.868
-54.418
-58.631
-63.271
-68.106
-72.937
-77.57
-81.841
-85.61
-88.766
-91.229
-92.951
-93.911
-94.11
-93.575
-92.357
-90.526
-88.151
-85.296
-82.018
-78.376
-74.438
-70.284
-65.995
-61.65
-57.305
-52.999
-48.759
-44.6
-40.53
-36.542
-32.621
-28.743
-24.889
-21.046
-17.206
-13.36
-9.496
-5.597
-1.653
2.352
6.427
10.579
14.814
19.136
23.548
28.047
32.629
37.288
42.02
46.821
51.687
56.615
61.599
66.632
71.707
76.817
81.952
87.101
92.25
97.384
102.49
107.551
112.549
117.467
122.286
126.987
131.551
135.957
140.186
144.216
148.03
151.606
154.928
157.976
160.735
163.187
165.32
167.119
168.574
169.673
170.408
170.773
170.761
170.369
169.596
168.441
166.906
164.995
162.712
160.066
157.066
153.722
150.049
146.06
141.771
137.201
132.369
127.294
121.999
116.506
110.839
105.021
99.076
93.031
86.908
80.733
74.531
68.326
62.14
55.999
49.923
43.935
38.056
32.305
26.7
21.26
15.999
10.932
6.074
1.434
-2.976
-7.148
-11.075
-14.752
-18.174
-21.34
-24.249
-26.902
-29.302
-31.453
-33.361
-35.032
-36.474
-37.696
-38.709
-39.522
-40.147
-40.596
-40.883
-41.019
-41.02
-40.898
-40.668
-40.344
-39.94
-39.469
-38.945
-38.381
-37.79
-37.183
-36.571
-35.966
-35.377
-34.813
-34.282
-33.792
-33.348
-32.955
-32.618
-32.339
-32.12
-31.963
-31.868
-31.835
-31.862
-31.948
-32.09
-32.287
-32.533
-32.826
-33.162
-33.535
-33.941
-34.376
-34.833
-35.307
-35.794
-36.287
-36.783
-37.275
-37.761
-38.235
-38.693
-39.132
-39.55
-39.945
-40.314
-40.658
-40.976
-41.269
-41.539
-41.787
-42.017
-42.23
-42.429
-42.62
-42.803
-42.985
-43.167
-43.356
-43.553
-43.764
-43.992
-44.241
-44.514
-44.816
-45.149
-45.515
-45.918
-46.361
-46.843
-47.368
-47.936
-48.548
-49.204
-49.903
-50.643
-51.422
-52.236
-53.081
-53.951
-54.839
-55.739
-56.644
-57.544
-58.432
-59.3
-60.139
-60.939
-61.693
-62.392
-63.026
-63.588
-64.068
-64.459
-64.753
-64.942
-65.02
-64.981
-64.819
-64.529
-64.107
-63.549
-62.852
-62.014
-61.032
-59.905
-58.634
-57.223
-55.674
-53.994
-52.19
-50.272
-48.253
-46.148
-43.972
-41.74
-39.47
-37.177
-34.881
-32.602
-30.36
-28.173
-26.059
-24.037
-22.129
-20.357
-18.74
-17.296
-16.04
-14.985
-14.146
-13.538
-13.173
-13.06
-13.204
-13.609
-14.285
-15.246
-16.495
-18.039
-19.874
-21.985
-24.357
-26.967
-29.776
-32.751
-35.849
-39.025
-42.242
-45.449
-48.615
-51.72
-54.729
-57.619
-60.347
-62.833
-65.022
-66.904
-68.492
-69.88
-71.15
-72.256
-73.314
-74.593
-76.333
-78.877
-82.328
-86.374
-90.917
-96.18
-102.113
-108.443
-114.714
-119.908
-123.509
-125.918
-127.19
-126.95
-124.99
-121.125
-115.762
-110.631
-106.967
-104.709
-104.105
-105.704
-110.167
-118.539
-129.511
-138.277
-140.716
-135.193
-124.004
-112.007
-99.477
-78.621
-35.713
39.904
150.632
287.757
434.578
581.115
721.195
848.221
956.492
1030.093
1050.909
1012.626
915.831
770.272
594.29
403.514
214.838
49.762
-75.455
-152.336
-180.997
-172.955
-143.517
-103.954
-64.491
-35.243
-22.414
-29.865
-55.074
-86.304
-113.303
-130.109
-135.903
-136.971
-137.726
-138.987
-140.221
-138.711
-133.484
-125.81
-116.943
-108.36
-101.138
-95.458
-91.39
-88.984
-88.031
-88.357
-89.84
-92.281
-95.495
-99.326
-103.594
-108.135
-112.805
-117.422
-121.778
-125.667
-128.932
-131.486
-133.295
-134.349
-134.657
-134.236
-133.125
-131.389
-129.093
-126.301
-123.08
-119.491
-115.608
-111.518
-107.304
-103.052
-98.822
-94.644
-90.538
-86.509
-82.554
-78.664
-74.826
-71.012
-67.204
-63.389
-59.554
-55.693
-51.791
-47.833
-43.804
-39.691
-35.483
-31.173
-26.759
-22.238
-17.611
-12.882
-8.057
-3.144
1.851
6.922
12.062
17.265
22.523
27.827
33.166
38.53
43.905
49.277
54.629
59.944
65.203
70.387
75.478
80.454
85.295
89.98
94.487
98.796
102.884
106.731
110.316
113.62
116.624
119.311
121.664
123.668
125.311
126.581
127.468
127.965
128.065
127.764
127.061
125.954
124.446
122.54
120.244
117.563
114.51
111.094
107.331
103.234
98.823
94.114
89.128
83.886
78.411
72.726
66.857
60.828
54.666
48.397
42.049
35.648
29.22
22.793
16.391
10.04
3.764
-2.414
-8.471
-14.387
-20.141
-25.716
-31.095
-36.261
-41.203
-45.907
-50.364
-54.564
-58.502
-62.172
-65.569
-68.692
-71.54
-74.113
-76.414
-78.445
-80.212
-81.721
-82.979
-83.997
-84.783
-85.349
-85.707
-85.869
-85.848
-85.658
-85.313
-84.827
-84.214
-83.488
-82.665
-81.757
-80.78
-79.746
-78.668
-77.558
-76.427
-75.286
-74.145
-73.011
-71.894
-70.799
-69.735
-68.705
-67.716
-66.771
-65.874
-65.027
-64.232
-63.489
-62.8
-62.162
-61.575
-61.036
-60.542
-60.092
-59.681
-59.305
-58.961
-58.643
-58.348
-58.071
-57.805
-57.547
-57.29
-57.031
-56.765
-56.488
-56.196
-55.885
-55.555
-55.202
-54.825
-54.423
-53.995
-53.541
-53.06
-52.554
-52.024
-51.47
-50.894
-50.299
-49.687
-49.062
-48.427
-47.784
-47.138
-46.493
-45.85
-45.215
-44.592
-43.982
-43.392
-42.824
-42.283
-41.771
-41.294
-40.853
-40.451
-40.092
-39.776
-39.504
-39.277
-39.096
-38.959
-38.865
-38.814
-38.802
-38.827
-38.888
-38.979
-39.097
-39.237
-39.393
-39.562
-39.736
-39.908
-40.074
-40.226
-40.357
-40.463
-40.535
-40.568
-40.554
-40.488
-40.361
-40.169
-39.903
-39.559
-39.129
-38.608
-37.993
-37.278
-36.461
-35.538
-34.508
-33.369
-32.121
-30.764
-29.3
-27.729
-26.058
-24.288
-22.427
-20.48
-18.456
-16.363
-14.214
-12.02
-9.796
-7.555
-5.313
-3.086
-0.89
1.26
3.347
5.359
7.28
9.097
10.793
12.352
13.758
14.996
16.051
16.91
17.561
17.996
18.211
18.205
17.976
17.518
16.818
15.865
14.65
13.166
11.412
9.391
7.119
4.622
1.944
-0.872
-3.783
-6.75
-9.745
-12.734
-15.679
-18.53
-21.225
-23.706
-25.919
-27.817
-29.346
-30.488
-31.271
-31.757
-32.066
-32.295
-32.506
-32.775
-33.201
-33.888
-34.947
-36.485
-38.543
-41.242
-44.844
-49.444
-54.978
-61.2
-67.515
-73.336
-78.284
-81.74
-82.848
-81.292
-77.248
-71.302
-64.907
-59.53
-56.079
-55.913
-60.859
-69.926
-79.627
-87.167
-88.111
-82.856
-77.997
-72.483
-61.856
-36.836
20.689
117.101
249.733
412.64
587.465
756.818
903.744
1005.524
1048.73
1029.291
952.073
834.131
689.918
527.905
357.154
185.906
29.98
-88.612
-157.373
-172.82
-144.318
-94.058
-41.34
-3.183
10.049
0.89
-23.534
-51.028
-70.677
-80.14
-81.463
-80.646
-82.143
-85.414
-88.48
-88.639
-84.766
-77.949
-69.514
-60.694
-52.417
-45.242
-39.523
-35.44
-32.955
-31.847
-31.943
-33.123
-35.231
-38.08
-41.482
-45.245
-49.202
-53.21
-57.079
-60.596
-63.604
-65.993
-67.706
-68.736
-69.081
-68.753
-67.793
-66.257
-64.206
-61.698
-58.79
-55.537
-52.011
-48.29
-44.46
-40.601
-36.774
-33.017
-29.35
-25.783
-22.312
-18.929
-15.615
-12.343
-9.095
-5.855
-2.611
0.644
3.923
7.242
10.616
14.058
17.579
21.187
24.888
28.686
32.58
36.571
40.653
44.822
49.072
53.399
57.801
62.272
66.807
71.399
76.039
80.719
85.427
90.15
94.873
99.579
104.252
108.873
113.423
117.885
122.239
126.465
130.545
134.459
138.189
141.716
145.023
148.093
150.909
153.455
155.718
157.683
159.338
160.672
161.675
162.339
162.656
162.622
162.231
161.483
160.376
158.913
157.096
154.93
152.423
149.584
146.426
142.96
139.201
135.166
130.872
126.338
121.582
116.625
111.488
106.19
100.755
95.201
89.553
83.829
78.052
72.243
66.421
60.606
54.819
49.076
43.396
37.797
32.294
26.903
21.638
16.514
11.541
6.731
2.094
-2.361
-6.63
-10.705
-14.583
-18.262
-21.74
-25.018
-28.096
-30.976
-33.662
-36.157
-38.466
-40.593
-42.544
-44.326
-45.944
-47.405
-48.716
-49.885
-50.917
-51.819
-52.599
-53.264
-53.82
-54.274
-54.633
-54.903
-55.092
-55.204
-55.248
-55.227
-55.148
-55.015
-54.832
-54.603
-54.331
-54.02
-53.67
-53.284
-52.865
-52.412
-51.927
-51.412
-50.866
-50.29
-49.685
-49.052
-48.389
-47.7
-46.983
-46.241
-45.474
-44.684
-43.874
-43.044
-42.197
-41.336
-40.463
-39.58
-38.69
-37.797
-36.902
-36.01
-35.125
-34.249
-33.387
-32.543
-31.723
-30.929
-30.166
-29.44
-28.754
-28.113
-27.522
-26.984
-26.505
-26.087
-25.737
-25.456
-25.249
-25.119
-25.068
-25.1
-25.215
-25.415
-25.701
-26.074
-26.532
-27.077
-27.706
-28.418
-29.212
-30.084
-31.033
-32.054
-33.143
-34.296
-35.507
-36.771
-38.083
-39.435
-40.823
-42.239
-43.676
-45.128
-46.588
-48.047
-49.499
-50.936
-52.35
-53.732
-55.074
-56.369
-57.608
-58.783
-59.886
-60.912
-61.852
-62.699
-63.447
-64.09
-64.621
-65.036
-65.33
-65.498
-65.537
-65.444
-65.218
-64.858
-64.363
-63.733
-62.97
-62.076
-61.054
-59.907
-58.64
-57.256
-55.764
-54.169
-52.479
-50.703
-48.851
-46.935
-44.967
-42.964
-40.94
-38.911
-36.896
-34.911
-32.975
-31.105
-29.315
-27.621
-26.035
-24.574
-23.254
-22.092
-21.102
-20.299
-19.694
-19.298
-19.122
-19.171
-19.445
-19.941
-20.659
-21.604
-22.792
-24.238
-25.951
-27.934
-30.186
-32.697
-35.454
-38.432
-41.586
-44.867
-48.227
-51.622
-55.025
-58.402
-61.711
-64.887
-67.853
-70.532
-72.867
-74.807
-76.308
-77.363
-77.983
-78.228
-78.198
-77.976
-77.657
-77.348
-77.163
-77.246
-77.734
-78.726
-80.385
-82.963
-86.589
-91.255
-96.722
-102.394
-107.744
-112.432
-115.966
-117.686
-117.192
-114.482
-110.266
-106.266
-103.932
-103.773
-106.495
-113.019
-123.476
-137.417
-151.758
-160.006
-158.4
-145.677
-122.198
-91.818
-51.332
6.532
85.144
189.281
313.406
444.787
577.784
702.581
810.317
896.601
947.261
949.768
901.698
801.273
655.701
483.75
300.62
126.976
-11.876
-106.649
-154.914
-164.847
-159.477
-151.861
-147.134
-146.021
-140.433
-128.348
-113.882
-100.557
-92.994
-92.75
-97.857
-106.268
-115.902
-124.693
-131.07
-134.225
-134.023
-130.896
-125.76
-119.531
-112.928
-106.746
-101.743
-98.295
-96.52
-96.318
-97.379
-99.44
-102.3
-105.721
-109.468
-113.375
-117.277
-121.02
-124.479
-127.498
-129.953
-131.776
-132.92
-133.364
-133.116
-132.198
-130.656
-128.559
-125.969
-122.942
-119.528
-115.778
-111.751
-107.52
-103.156
-98.731
-94.294
-89.878
-85.505
-81.187
-76.925
-72.709
-68.523
-64.339
-60.141
-55.914
-51.65
-47.338
-42.968
-38.526
-34
-29.379
-24.655
-19.823
-14.88
-9.823
-4.658
0.612
5.977
11.427
16.952
22.541
28.185
33.875
39.598
45.342
51.094
56.842
62.57
68.263
73.902
79.47
84.947
90.317
95.558
100.651
105.578
110.318
114.852
119.162
123.228
127.031
130.556
133.783
136.699
139.289
141.539
143.439
144.979
146.151
146.949
147.371
147.413
147.076
146.36
145.27
143.81
141.987
139.809
137.285
134.427
131.246
127.756
123.973
119.913
115.593
111.03
106.243
101.253
96.078
90.739
85.258
79.656
73.954
68.174
62.338
56.467
50.582
44.703
38.851
33.044
27.3
21.637
16.071
10.616
5.286
0.095
-4.947
-9.828
-14.54
-19.074
-23.422
-27.579
-31.54
-35.299
-38.854
-42.202
-45.342
-48.273
-50.995
-53.51
-55.819
-57.925
-59.833
-61.546
-63.07
-64.411
-65.575
-66.569
-67.401
-68.078
-68.61
-69.005
-69.271
-69.418
-69.453
-69.386
-69.225
-68.979
-68.655
-68.263
-67.809
-67.3
-66.746
-66.152
-65.525
-64.873
-64.201
-63.515
-62.822
-62.126
-61.432
-60.744
-60.067
-59.405
-58.76
-58.134
-57.531
-56.951
-56.395
-55.865
-55.361
-54.881
-54.427
-53.996
-53.587
-53.199
-52.831
-52.481
-52.146
-51.825
-51.516
-51.216
-50.925
-50.64
-50.358
-50.078
-49.797
-49.515
-49.229
-48.937
-48.639
-48.333
-48.018
-47.695
-47.362
-47.02
-46.669
-46.311
-45.946
-45.577
-45.205
-44.833
-44.464
-44.1
-43.745
-43.401
-43.073
-42.765
-42.479
-42.219
-41.989
-41.792
-41.632
-41.512
-41.435
-41.404
-41.421
-41.489
-41.609
-41.783
-42.012
-42.296
-42.635
-43.028
-43.474
-43.971
-44.516
-45.104
-45.732
-46.393
-47.082
-47.791
-48.512
-49.236
-49.954
-50.657
-51.334
-51.975
-52.57
-53.108
-53.577
-53.967
-54.267
-54.467
-54.555
-54.521
-54.355
-54.05
-53.596
-52.986
-52.213
-51.272
-50.158
-48.867
-47.397
-45.746
-43.916
-41.909
-39.728
-37.379
-34.87
-32.212
-29.415
-26.497
-23.472
-20.358
-17.177
-13.95
-10.699
-7.448
-4.219
-1.037
2.076
5.096
7.999
10.761
13.358
15.767
17.964
19.924
21.625
23.047
24.174
24.995
25.501
25.682
25.53
25.03
24.172
22.951
21.364
19.41
17.095
14.434
11.461
8.23
4.794
1.207
-2.484
-6.243
-10.03
-13.798
-17.492
-21.046
-24.406
-27.528
-30.369
-32.879
-35.017
-36.795
-38.299
-39.663
-41.016
-42.456
-44.01
-45.718
-47.671
-49.892
-52.366
-55.113
-58.135
-61.53
-65.553
-70.318
-75.711
-81.635
-87.89
-93.784
-98.401
-100.954
-100.36
-96.98
-93.051
-88.687
-83.3
-75.252
-59.63
-37.202
-13.695
4.662
7.294
-10.94
-45.326
-86.64
-117.253
-116.293
-72.396
15.115
136.627
272.006
407.555
541.984
673.817
802.869
918.569
995.174
1017.471
982.067
896.466
783.29
656.854
519.919
378.126
236.303
104.323
-0.135
-70.489
-111.175
-128.927
-135.112
-135.081
-126.749
-111.2
-90.642
-69.133
-52.649
-43.546
-41.614
-45.802
-53.958
-64.049
-74.163
-82.173
-86.826
-87.916
-85.849
-81.489
-75.754
-69.433
-63.386
-58.468
-55.143
-53.52
-53.47
-54.68
-56.872
-59.843
-63.355
-67.166
-71.108
-75.025
-78.773
-82.23
-85.246
-87.694
-89.503
-90.628
-91.052
-90.784
-89.857
-88.323
-86.257
-83.726
-80.791
-77.506
-73.922
-70.105
-66.13
-62.071
-58.004
-53.982
-50.041
-46.207
-42.493
-38.901
-35.422
-32.037
-28.719
-25.449
-22.214
-19
-15.797
-12.59
-9.362
-6.1
-2.787
0.588
4.036
7.564
11.18
14.885
18.68
22.564
26.531
30.579
34.707
38.91
43.187
47.534
51.944
56.412
60.931
65.49
70.08
74.687
79.296
83.893
88.462
92.985
97.444
101.821
106.095
110.248
114.259
118.107
121.773
125.235
128.475
131.474
134.213
136.677
138.847
140.712
142.256
143.469
144.34
144.86
145.022
144.821
144.254
143.318
142.014
140.342
138.307
135.914
133.17
130.086
126.672
122.941
118.908
114.589
110.003
105.168
100.105
94.835
89.381
83.764
78.01
72.141
66.181
60.156
54.089
48.004
41.925
35.874
29.873
23.945
18.109
12.387
6.795
1.353
-3.923
-9.019
-13.921
-18.615
-23.091
-27.339
-31.351
-35.12
-38.642
-41.913
-44.932
-47.698
-50.213
-52.479
-54.499
-56.279
-57.826
-59.146
-60.248
-61.141
-61.835
-62.339
-62.666
-62.826
-62.832
-62.696
-62.431
-62.048
-61.562
-60.983
-60.326
-59.602
-58.824
-58.002
-57.149
-56.275
-55.39
-54.505
-53.627
-52.766
-51.927
-51.119
-50.345
-49.612
-48.923
-48.282
-47.69
-47.151
-46.666
-46.234
-45.857
-45.533
-45.262
-45.043
-44.874
-44.753
-44.677
-44.644
-44.651
-44.694
-44.77
-44.875
-45.006
-45.159
-45.331
-45.517
-45.714
-45.919
-46.129
-46.342
-46.555
-46.767
-46.976
-47.182
-47.384
-47.582
-47.777
-47.968
-48.159
-48.349
-48.542
-48.738
-48.94
-49.15
-49.372
-49.608
-49.861
-50.134
-50.43
-50.752
-51.102
-51.485
-51.903
-52.359
-52.856
-53.397
-53.985
-54.621
-55.309
-56.048
-56.84
-57.685
-58.582
-59.531
-60.529
-61.574
-62.663
-63.793
-64.958
-66.155
-67.378
-68.621
-69.877
-71.139
-72.399
-73.65
-74.882
-76.087
-77.256
-78.379
-79.447
-80.45
-81.379
-82.224
-82.975
-83.621
-84.153
-84.561
-84.836
-84.97
-84.953
-84.777
-84.438
-83.927
-83.243
-82.379
-81.334
-80.106
-78.694
-77.099
-75.322
-73.367
-71.239
-68.944
-66.488
-63.881
-61.134
-58.258
-55.267
-52.177
-49.005
-45.769
-42.49
-39.189
-35.888
-32.608
-29.373
-26.204
-23.124
-20.153
-17.314
-14.629
-12.122
-9.816
-7.733
-5.893
-4.315
-3.015
-2.009
-1.303
-0.905
-0.819
-1.053
-1.623
-2.541
-3.815
-5.445
-7.43
-9.76
-12.417
-15.369
-18.568
-21.966
-25.512
-29.163
-32.889
-36.653
-40.419
-44.132
-47.721
-51.121
-54.279
-57.154
-59.709
-61.92
-63.798
-65.396
-66.82
-68.174
-69.532
-70.952
-72.492
-74.234
-76.288
-78.774
-81.787
-85.445
-89.92
-95.29
-101.518
-108.361
-115.297
-121.704
-126.993
-130.532
-131.619
-129.818
-125.091
-118.021
-109.897
-102.155
-96.024
-92.581
-92.874
-97.528
-106.184
-117.006
-126.87
-132.162
-129.118
-114.163
-83.654
-33.822
35.978
122.407
221.583
328.156
440.789
563.197
691.731
817.441
922.438
981.24
982.459
925.612
822.615
694.997
551.05
396.827
238.267
81.913
-50.211
-141.813
-188.679
-196.273
-185.257
-171.047
-159.561
-151.583
-141.597
-128.737
-116.113
-106.351
-102.675
-105.212
-111.717
-120.369
-128.72
-134.536
-136.991
-135.845
-131.468
-124.896
-117.114
-108.914
-101.192
-94.788
-90.129
-87.379
-86.45
-87.016
-88.785
-91.518
-94.945
-98.8
-102.886
-107.015
-111.005
-114.709
-117.951
-120.594
-122.562
-123.806
-124.306
-124.068
-123.123
-121.526
-119.355
-116.686
-113.584
-110.112
-106.329
-102.309
-98.134
-93.888
-89.649
-85.471
-81.387
-77.422
-73.586
-69.876
-66.281
-62.777
-59.334
-55.93
-52.549
-49.176
-45.798
-42.398
-38.958
-35.459
-31.887
-28.228
-24.472
-20.608
-16.632
-12.541
-8.334
-4.014
0.414
4.946
9.58
14.31
19.132
24.04
29.027
34.082
39.196
44.355
49.546
54.752
59.953
65.131
70.267
75.338
80.324
85.203
89.952
94.55
98.975
103.204
107.217
110.992
114.511
117.754
120.704
123.345
125.661
127.639
129.269
130.541
131.448
131.985
132.148
131.937
131.352
130.398
129.08
127.405
125.382
123.023
120.341
117.353
114.075
110.526
106.727
102.698
98.461
94.041
89.459
84.739
79.904
74.979
69.985
64.945
59.877
54.8
49.731
44.687
39.683
34.731
29.844
25.032
20.309
15.686
11.17
6.769
2.486
-1.679
-5.724
-9.65
-13.458
-17.15
-20.729
-24.198
-27.554
-30.795
-33.923
-36.947
-39.887
-42.763
-45.59
-48.377
-51.132
-53.852
-56.532
-59.16
-61.7
-64.115
-66.372
-68.437
-70.298
-71.937
-73.326
-74.424
-75.17
-75.502
-75.381
-74.779
-73.678
-72.096
-70.06
-67.641
-64.962
-62.135
-59.283
-56.537
-54.007
-51.826
-50.138
-49.059
-48.772
-49.518
-51.41
-54.448
-58.452
-62.944
-67.457
-71.58
-74.72
-76.224
-75.619
-72.659
-67.763
-62.053
-56.629
-52.378
-50.055
-50.222
-53.232
-59.031
-66.255
-72.172
-73.589
-67.367
-50.642
-20.698
25.015
88.918
170.695
266.181
370.465
478.114
586.874
699.501
815.09
926.832
1021.204
1076.884
1077.93
1020.421
910.178
762.76
594.997
419.623
249.553
98.768
-20.733
-101.276
-144.063
-160.36
-161.967
-155.966
-144.345
-123.908
-94.25
-59.736
-25.55
2.513
21.422
31.244
32.235
25.472
13.211
-2.109
-18.173
-32.757
-44.86
-54.202
-60.041
-62.151
-61.125
-57.815
-53.479
-49.548
-46.629
-44.928
-44.842
-46.423
-49.526
-53.975
-59.191
-64.452
-69.36
-73.664
-77.183
-79.929
-81.877
-82.978
-83.311
-82.993
-82.11
-80.745
-78.933
-76.67
-73.989
-70.942
-67.6
-64.05
-60.369
-56.621
-52.855
-49.101
-45.386
-41.729
-38.135
-34.601
-31.115
-27.66
-24.228
-20.817
-17.422
-14.035
-10.643
-7.225
-3.769
-0.262
3.304
6.934
10.634
14.406
18.252
22.169
26.151
30.193
34.29
38.437
42.628
46.857
51.115
55.39
59.671
63.947
68.203
72.426
76.598
80.702
84.721
88.638
92.433
96.088
99.584
102.903
106.027
108.938
111.619
114.053
116.224
118.119
119.723
121.025
122.012
122.677
123.01
123.007
122.663
121.977
120.949
119.581
117.879
115.849
113.501
110.844
107.891
104.658
101.159
97.414
93.441
89.261
84.896
80.368
75.702
70.919
66.046
61.106
56.124
51.124
46.128
41.162
36.247
31.405
26.658
22.025
17.527
13.18
9.001
5.006
1.207
-2.383
-5.755
-8.902
-11.816
-14.493
-16.932
-19.132
-21.093
-22.819
-24.313
-25.582
-26.633
-27.474
-28.114
-28.564
-28.836
-28.941
-28.893
-28.704
-28.388
-27.96
-27.433
-26.821
-26.138
-25.398
-24.616
-23.805
-22.979
-22.15
-21.332
-20.537
-19.775
-19.058
-18.395
-17.795
-17.266
-16.814
-16.444
-16.161
-15.969
-15.869
-15.863
-15.951
-16.134
-16.41
-16.777
-17.232
-17.773
-18.396
-19.097
-19.87
-20.713
-21.619
-22.584
-23.602
-24.669
-25.778
-26.924
-28.102
-29.304
-30.526
-31.761
-33.003
-34.245
-35.483
-36.711
-37.923
-39.114
-40.281
-41.419
-42.526
-43.597
-44.632
-45.627
-46.581
-47.493
-48.362
-49.187
-49.969
-50.707
-51.401
-52.052
-52.659
-53.224
-53.747
-54.226
-54.664
-55.06
-55.413
-55.725
-55.995
-56.225
-56.414
-56.564
-56.676
-56.751
-56.791
-56.796
-56.769
-56.709
-56.62
-56.501
-56.354
-56.181
-55.98
-55.754
-55.503
-55.227
-54.927
-54.602
-54.254
-53.881
-53.485
-53.065
-52.622
-52.157
-51.67
-51.163
-50.637
-50.093
-49.534
-48.96
-48.375
-47.779
-47.175
-46.564
-45.947
-45.327
-44.704
-44.079
-43.454
-42.829
-42.204
-41.582
-40.961
-40.343
-39.729
-39.119
-38.514
-37.915
-37.322
-36.736
-36.159
-35.592
-35.035
-34.491
-33.959
-33.442
-32.939
-32.451
-31.978
-31.52
-31.077
-30.65
-30.237
-29.838
-29.452
-29.08
-28.721
-28.374
-28.04
-27.719
-27.411
-27.116
-26.836
-26.57
-26.321
-26.09
-25.877
-25.684
-25.513
-25.364
-25.238
-25.137
-25.06
-25.008
-24.981
-24.981
-25.005
-25.056
-25.132
-25.232
-25.358
-25.509
-25.685
-25.885
-26.109
-26.356
-26.628
-26.923
-27.241
-27.582
-27.944
-28.327
-28.729
-29.147
-29.579
-30.022
-30.471
-30.923
-31.374
-31.818
-32.251
-32.669
-33.066
-33.438
-33.78
-34.087
-34.355
-34.579
-34.754
-34.877
-34.944
-34.951
-34.895
-34.773
-34.582
-34.32
-33.985
-33.574
-33.086
-32.518
-31.87
-31.142
-30.333
-29.445
-28.481
-27.443
-26.34
-25.179
-23.968
-22.718
-21.441
-20.149
-18.856
-17.574
-16.314
-15.088
-13.91
-12.791
-11.745
-10.787
-9.931
-9.192
-8.587
-8.13
-7.835
-7.713
-7.769
-8.009
-8.44
-9.071
-9.918
-10.998
-12.319
-13.894
-15.729
-17.826
-20.175
-22.748
-25.496
-28.369
-31.313
-34.282
-37.239
-40.142
-42.945
-45.6
-48.045
-50.226
-52.105
-53.635
-54.786
-55.544
-55.925
-56.017
-55.964
-55.912
-56
-56.337
-57.018
-58.181
-59.977
-62.548
-66.044
-70.543
-76.142
-83.042
-91.286
-100.717
-110.971
-121.297
-130.859
-139.023
-145.036
-148.035
-147.665
-144.001
-137.653
-130.215
-123.239
-117.819
-115.204
-116.416
-121.363
-128.89
-136.732
-141.051
-137.68
-122.716
-91.917
-41.49
29.168
117.377
219.789
332.291
453.98
585.971
722.664
850.864
950.214
1000.289
991.473
929.293
831.407
714.838
591.49
464.118
329.083
191.945
61.749
-49.496
-128.802
-178.049
-202.672
-209.019
-206.289
-195.343
-178.018
-159.157
-140.99
-127.445
-121.143
-121.307
-127.319
-138.076
-150.814
-163.061
-172.996
-179.312
-181.843
-181.195
-177.819
-172.157
-165.445
-158.9
-153.408
-149.652
-147.69
-147.282
-148.375
-150.916
-154.533
-158.851
-163.536
-168.255
-172.882
-177.33
-181.404
-184.9
-187.702
-189.736
-190.976
-191.448
-191.145
-190.075
-188.287
-185.849
-182.839
-179.334
-175.402
-171.104
-166.516
-161.723
-156.812
-151.871
-146.965
-142.137
-137.418
-132.823
-128.36
-124.025
-119.807
-115.684
-111.638
-107.657
-103.729
-99.848
-96.001
-92.176
-88.357
-84.531
-80.685
-76.812
-72.904
-68.954
-64.957
-60.913
-56.82
-52.68
-48.494
-44.259
-39.974
-35.637
-31.248
-26.806
-22.312
-17.769
-13.178
-8.546
-3.879
0.815
5.525
10.243
14.956
19.651
24.316
28.937
33.498
37.985
42.382
46.673
50.841
54.872
58.749
62.455
65.975
69.294
72.397
75.268
77.896
80.265
82.366
84.185
85.714
86.943
87.865
88.473
88.762
88.728
88.369
87.685
86.676
85.345
83.697
81.738
79.474
76.916
74.072
70.956
67.578
63.953
60.096
56.023
51.749
47.292
42.671
37.904
33.01
28.01
22.923
17.77
12.571
7.347
2.119
-3.094
-8.272
-13.395
-18.445
-23.403
-28.252
-32.976
-37.558
-41.985
-46.242
-50.318
-54.201
-57.881
-61.351
-64.602
-67.629
-70.426
-72.99
-75.32
-77.412
-79.268
-80.889
-82.276
-83.434
-84.367
-85.08
-85.581
-85.878
-85.977
-85.89
-85.625
-85.192
-84.604
-83.87
-83.003
-82.013
-80.913
-79.714
-78.426
-77.063
-75.633
-74.148
-72.617
-71.049
-69.454
-67.84
-66.214
-64.584
-62.956
-61.337
-59.733
-58.147
-56.586
-55.051
-53.547
-52.076
-50.639
-49.239
-47.877
-46.552
-45.264
-44.014
-42.8
-41.621
-40.476
-39.362
-38.279
-37.223
-36.193
-35.188
-34.204
-33.241
-32.298
-31.372
-30.464
-29.573
-28.697
-27.838
-26.995
-26.168
-25.358
-24.564
-23.789
-23.033
-22.297
-21.582
-20.89
-20.222
-19.58
-18.965
-18.379
-17.822
-17.298
-16.806
-16.349
-15.929
-15.547
-15.205
-14.905
-14.648
-14.437
-14.272
-14.154
-14.084
-14.062
-14.09
-14.166
-14.292
-14.466
-14.687
-14.956
-15.271
-15.63
-16.031
-16.473
-16.951
-17.465
-18.009
-18.582
-19.18
-19.799
-20.436
-21.087
-21.748
-22.416
-23.085
-23.751
-24.408
-25.052
-25.676
-26.273
-26.837
-27.361
-27.837
-28.26
-28.622
-28.916
-29.134
-29.268
-29.311
-29.255
-29.092
-28.816
-28.419
-27.895
-27.239
-26.445
-25.511
-24.433
-23.207
-21.831
-20.302
-18.619
-16.782
-14.791
-12.648
-10.355
-7.917
-5.34
-2.63
0.202
3.146
6.19
9.322
12.526
15.783
19.07
22.367
25.649
28.897
32.088
35.197
38.202
41.089
43.84
46.438
48.867
51.102
53.119
54.905
56.434
57.673
58.607
59.22
59.508
59.486
59.151
58.473
57.487
56.291
54.939
53.465
51.88
50.139
48.239
46.28
44.145
41.373
37.838
33.761
29.144
24.379
18.937
10.707
0.259
-10.051
-16.278
-11.313
5.577
29.189
51.228
58.418
45.58
15.714
-22.814
-54.533
-70.39
-67.393
-48.895
-26.958
-9.93
-3.306
-7.85
-16.539
-24.722
-30.019
-32.02
-33.922
-37.192
-41.147
-45.174
-49.13
-53.528
-59.115
-66.013
-73.618
-81.373
-89.122
-96.113
-100.067
-97.882
-86.5
-63.456
-26.723
25.428
94.562
181.454
282.974
392.697
504.871
613.411
716.871
819.397
917.969
1006.632
1073.225
1094.792
1060.486
967.437
820.203
642.795
455.923
278.935
134.055
26.567
-43.643
-82.195
-106.102
-123.52
-136.428
-143.853
-138.275
-118.894
-91.131
-60.776
-34.431
-15.088
-2.223
4.326
4.395
-1.13
-10.625
-21.678
-31.715
-39.587
-45.264
-48.577
-48.991
-46.464
-41.497
-35.281
-29.495
-25.013
-21.988
-20.521
-20.734
-22.671
-26.278
-31.133
-36.432
-41.63
-46.448
-50.676
-54.26
-57.134
-59.186
-60.416
-60.927
-60.799
-60.103
-58.898
-57.183
-54.983
-52.36
-49.369
-46.098
-42.635
-39.055
-35.434
-31.826
-28.265
-24.779
-21.386
-18.089
-14.884
-11.758
-8.687
-5.665
-2.683
0.266
3.192
6.115
9.053
12.021
15.031
18.093
21.212
24.396
27.649
30.971
34.359
37.81
41.316
44.876
48.485
52.14
55.836
59.567
63.326
67.107
70.9
74.699
78.49
82.264
86.006
89.702
93.34
96.903
100.375
103.741
106.983
110.085
113.031
115.803
118.383
120.757
122.907
124.819
126.476
127.866
128.975
129.791
130.305
130.507
130.391
129.949
129.179
128.078
126.644
124.879
122.784
120.363
117.621
114.566
111.204
107.546
103.604
99.391
94.919
90.206
85.268
80.121
74.786
69.281
63.626
57.841
51.948
45.967
39.919
33.826
27.708
21.586
15.481
9.411
3.396
-2.546
-8.4
-14.149
-19.778
-25.275
-30.626
-35.821
-40.85
-45.703
-50.373
-54.852
-59.135
-63.218
-67.098
-70.771
-74.238
-77.498
-80.553
-83.405
-86.058
-88.516
-90.783
-92.866
-94.771
-96.504
-98.072
-99.484
-100.746
-101.867
-102.854
-103.715
-104.458
-105.091
-105.619
-106.049
-106.388
-106.64
-106.812
-106.908
-106.932
-106.89
-106.784
-106.619
-106.398
-106.125
-105.801
-105.43
-105.014
-104.553
-104.049
-103.503
-102.914
-102.284
-101.612
-100.898
-100.143
-99.345
-98.505
-97.623
-96.699
-95.734
-94.727
-93.681
-92.596
-91.475
-90.32
-89.133
-87.92
-86.683
-85.426
-84.155
-82.873
-81.585
-80.297
-79.012
-77.736
-76.473
-75.227
-74.003
-72.807
-71.642
-70.513
-69.425
-68.383
-67.389
-66.45
-65.567
-64.746
-63.989
-63.299
-62.679
-62.131
-61.658
-61.259
-60.936
-60.689
-60.516
-60.417
-60.388
-60.428
-60.532
-60.697
-60.917
-61.189
-61.506
-61.863
-62.255
-62.677
-63.123
-63.586
-64.061
-64.543
-65.025
-65.503
-65.969
-66.418
-66.845
-67.243
-67.607
-67.929
-68.205
-68.428
-68.592
-68.691
-68.72
-68.673
-68.545
-68.331
-68.027
-67.628
-67.131
-66.534
-65.834
-65.028
-64.115
-63.094
-61.966
-60.729
-59.385
-57.933
-56.374
-54.71
-52.942
-51.074
-49.106
-47.042
-44.886
-42.643
-40.318
-37.919
-35.452
-32.927
-30.356
-27.75
-25.121
-22.483
-19.85
-17.238
-14.66
-12.131
-9.665
-7.276
-4.978
-2.787
-0.718
1.214
2.993
4.603
6.03
7.26
8.284
9.095
9.688
10.058
10.196
10.087
9.719
9.089
8.19
7.021
5.587
3.897
1.981
-0.114
-2.345
-4.666
-7.042
-9.446
-11.848
-14.213
-16.497
-18.643
-20.604
-22.348
-23.845
-25.069
-26
-26.648
-27.086
-27.436
-27.819
-28.336
-29.034
-29.953
-31.178
-32.805
-34.949
-37.725
-41.174
-45.361
-50.441
-56.449
-63.262
-70.559
-77.635
-83.705
-88.187
-90.455
-89.822
-86.049
-79.303
-70.237
-60.447
-51.61
-44.887
-41.538
-42.645
-48.117
-56.8
-66.587
-73.727
-74.001
-63.761
-38.909
4.631
67.718
147.518
240.261
340.267
444.1
554.455
670.326
784.101
883.713
948.583
959.655
912.17
809.252
662.359
493.826
321.215
162.565
39.235
-41.953
-80.911
-86.57
-80.454
-74.994
-74.878
-79.498
-80.514
-75.585
-67.927
-60.617
-57.75
-60.224
-65.874
-73.05
-80.174
-85.763
-88.864
-88.901
-85.834
-80.227
-73.011
-65.045
-56.987
-49.501
-43.194
-38.412
-35.293
-33.765
-33.586
-34.515
-36.355
-38.88
-41.862
-45.132
-48.514
-51.836
-54.947
-57.676
-59.886
-61.504
-62.481
-62.791
-62.431
-61.417
-59.79
-57.62
-54.976
-51.916
-48.502
-44.786
-40.839
-36.737
-32.56
-28.381
-24.253
-20.206
-16.263
-12.434
-8.721
-5.115
-1.597
1.857
5.268
8.649
12.011
15.363
18.72
22.096
25.506
28.961
32.471
36.044
39.685
43.397
47.179
51.03
54.945
58.917
62.941
67.012
71.125
75.276
79.457
83.663
87.883
92.111
96.335
100.543
104.721
108.855
112.93
116.931
120.842
124.646
128.329
131.873
135.263
138.484
141.519
144.353
146.973
149.364
151.513
153.407
155.035
156.387
157.454
158.228
158.703
158.873
158.734
158.283
157.521
156.445
155.058
153.363
151.363
149.063
146.472
143.598
140.451
137.042
133.383
129.487
125.369
121.044
116.525
111.829
106.972
101.97
96.839
91.596
86.258
80.842
75.363
69.84
64.287
58.719
53.153
47.602
42.081
36.602
31.178
25.822
20.545
15.358
10.271
5.293
0.433
-4.303
-8.908
-13.377
-17.705
-21.89
-25.929
-29.818
-33.558
-37.146
-40.582
-43.867
-47
-49.984
-52.82
-55.509
-58.054
-60.458
-62.723
-64.853
-66.85
-68.718
-70.459
-72.077
-73.576
-74.958
-76.228
-77.389
-78.444
-79.398
-80.254
-81.015
-81.685
-82.265
-82.758
-83.166
-83.492
-83.737
-83.903
-83.992
-84.005
-83.944
-83.811
-83.608
-83.335
-82.995
-82.589
-82.118
-81.585
-80.99
-80.338
-79.629
-78.867
-78.054
-77.194
-76.29
-75.345
-74.363
-73.347
-72.301
-71.228
-70.134
-69.021
-67.895
-66.761
-65.623
-64.487
-63.358
-62.241
-61.141
-60.064
-59.014
-57.997
-57.018
-56.082
-55.193
-54.356
-53.577
-52.859
-52.207
-51.623
-51.111
-50.675
-50.315
-50.035
-49.835
-49.716
-49.68
-49.725
-49.853
-50.061
-50.347
-50.711
-51.148
-51.656
-52.229
-52.864
-53.556
-54.298
-55.085
-55.912
-56.771
-57.657
-58.561
-59.477
-60.396
-61.311
-62.213
-63.093
-63.941
-64.75
-65.51
-66.213
-66.85
-67.412
-67.89
-68.276
-68.562
-68.739
-68.8
-68.737
-68.544
-68.215
-67.745
-67.131
-66.368
-65.456
-64.392
-63.175
-61.808
-60.291
-58.625
-56.814
-54.862
-52.775
-50.558
-48.22
-45.769
-43.217
-40.575
-37.859
-35.084
-32.265
-29.421
-26.568
-23.726
-20.914
-18.148
-15.446
-12.825
-10.302
-7.898
-5.63
-3.519
-1.582
0.163
1.702
3.021
4.107
4.956
5.563
5.925
6.033
5.87
5.423
4.682
3.641
2.302
0.671
-1.231
-3.377
-5.718
-8.204
-10.784
-13.41
-16.048
-18.655
-21.188
-23.59
-25.791
-27.723
-29.33
-30.567
-31.396
-31.808
-31.835
-31.547
-31.064
-30.504
-29.96
-29.53
-29.329
-29.485
-30.14
-31.435
-33.469
-36.38
-40.375
-45.536
-51.779
-58.799
-65.983
-72.696
-78.439
-82.638
-84.576
-83.828
-80.369
-74.759
-68.369
-62.512
-57.979
-55.469
-55.704
-58.909
-64.439
-70.388
-73.382
-69.921
-56.978
-31.554
9.261
68.235
145.412
236.655
336.427
438.844
541.414
648.025
759.73
870.05
966.633
1027.66
1032.242
974.2
855.65
688.618
497.642
302.669
124.84
-11.979
-101.098
-143.603
-150.371
-145.14
-140.423
-139.825
-141.734
-137.11
-124.157
-107.505
-91.412
-80.667
-76.56
-77.097
-80.651
-85.617
-90.244
-93.098
-93.345
-90.897
-86.29
-80.425
-74.054
-67.718
-62.094
-57.923
-55.613
-55.242
-56.633
-59.391
-63.173
-67.745
-72.833
-78.122
-83.348
-88.247
-92.606
-96.326
-99.33
-101.55
-102.961
-103.545
-103.303
-102.295
-100.601
-98.293
-95.456
-92.158
-88.466
-84.465
-80.248
-75.908
-71.541
-67.211
-62.957
-58.81
-54.79
-50.905
-47.158
-43.529
-39.99
-36.52
-33.102
-29.724
-26.376
-23.04
-19.699
-16.333
-12.926
-9.465
-5.94
-2.343
1.335
5.099
8.949
12.885
16.902
20.998
25.173
29.426
33.754
38.156
42.625
47.158
51.748
56.386
61.062
65.764
70.476
75.183
79.87
84.519
89.11
93.623
98.039
102.337
106.494
110.489
114.301
117.906
121.285
124.415
127.277
129.851
132.12
134.066
135.674
136.931
137.824
138.345
138.483
138.234
137.591
136.554
135.121
133.293
131.074
128.47
125.487
122.136
118.429
114.38
110.004
105.319
100.344
95.101
89.611
83.897
77.984
71.896
65.66
59.301
52.846
46.32
39.749
33.158
26.573
20.017
13.513
7.082
0.745
-5.479
-11.573
-17.519
-23.304
-28.914
-34.337
-39.563
-44.583
-49.388
-53.974
-58.336
-62.472
-66.38
-70.06
-73.515
-76.748
-79.764
-82.568
-85.167
-87.569
-89.783
-91.817
-93.682
-95.386
-96.942
-98.358
-99.646
-100.815
-101.875
-102.836
-103.706
-104.493
-105.205
-105.85
-106.432
-106.958
-107.432
-107.86
-108.244
-108.589
-108.897
-109.169
-109.408
-109.614
-109.787
-109.927
-110.033
-110.102
-110.134
-110.126
-110.076
-109.98
-109.836
-109.642
-109.395
-109.093
-108.735
-108.32
-107.845
-107.312
-106.721
-106.072
-105.367
-104.609
-103.8
-102.945
-102.048
-101.113
-100.146
-99.152
-98.137
-97.106
-96.066
-95.023
-93.984
-92.954
-91.942
-90.954
-89.998
-89.081
-88.211
-87.395
-86.64
-85.954
-85.342
-84.811
-84.366
-84.011
-83.75
-83.586
-83.52
-83.554
-83.688
-83.921
-84.251
-84.677
-85.195
-85.8
-86.489
-87.255
-88.092
-88.995
-89.956
-90.969
-92.025
-93.119
-94.242
-95.385
-96.541
-97.701
-98.854
-99.99
-101.099
-102.17
-103.192
-104.153
-105.042
-105.846
-106.557
-107.166
-107.664
-108.045
-108.304
-108.435
-108.436
-108.303
-108.033
-107.62
-107.058
-106.341
-105.466
-104.428
-103.228
-101.865
-100.34
-98.656
-96.821
-94.841
-92.72
-90.461
-88.059
-85.516
-82.847
-80.069
-77.21
-74.306
-71.391
-68.499
-65.677
-62.955
-60.356
-57.893
-55.554
-53.326
-51.213
-49.223
-47.387
-45.733
-44.265
-42.982
-41.873
-40.903
-40.042
-39.258
-38.484
-37.685
-36.862
-36.029
-35.255
-34.629
-34.199
-33.996
-34.023
-34.253
-34.685
-35.325
-36.168
-37.245
-38.583
-40.215
-42.217
-44.627
-47.429
-50.585
-53.992
-57.503
-61.027
-64.506
-67.901
-71.25
-74.598
-77.974
-81.432
-84.988
-88.615
-92.279
-95.922
-99.488
-102.996
-106.507
-110.111
-113.983
-118.297
-123.1
-128.351
-133.787
-138.772
-142.584
-144.547
-143.919
-140.095
-132.819
-121.97
-108.154
-93.241
-79.33
-68.385
-60.974
-55.705
-51.398
-48.255
-50.094
-61.584
-81.958
-102.672
-105.434
-70.867
9.757
130.399
270.834
409.433
533.652
643.304
746.394
844.917
930.857
986.999
994.479
946.653
850.559
724.374
588.359
455.692
331.981
216.686
110.285
16.714
-59.446
-114.191
-146.893
-160.23
-157.556
-142.247
-118.251
-90.09
-62.104
-37.558
-18.539
-5.7
0.826
0.481
-6.331
-17.872
-32.027
-46.666
-59.922
-71.066
-79.757
-85.129
-86.897
-85.53
-81.782
-76.906
-72.249
-68.401
-65.648
-64.43
-64.85
-66.82
-70.176
-74.35
-78.645
-82.665
-86.138
-88.878
-90.877
-92.095
-92.481
-92.107
-91.073
-89.453
-87.324
-84.717
-81.629
-78.092
-74.157
-69.898
-65.409
-60.773
-56.068
-51.351
-46.659
-42.025
-37.474
-33.016
-28.654
-24.379
-20.174
-16.033
-11.955
-7.934
-3.965
-0.033
3.883
7.798
11.727
15.681
19.666
23.692
27.765
31.889
36.065
40.293
44.569
48.895
53.273
57.701
62.182
66.712
71.29
75.91
80.568
85.259
89.972
94.698
99.423
104.135
108.818
113.456
118.032
122.528
126.924
131.202
135.342
139.323
143.126
146.73
150.117
153.267
156.162
158.783
161.115
163.141
164.848
166.221
167.249
167.921
168.228
168.162
167.719
166.894
165.685
164.092
162.117
159.763
157.038
153.949
150.507
146.726
142.62
138.207
133.504
128.532
123.313
117.87
112.227
106.408
100.438
94.344
88.152
81.887
75.576
69.245
62.921
56.627
50.389
44.232
38.178
32.249
26.468
20.852
15.422
10.193
5.182
0.402
-4.133
-8.414
-12.431
-16.178
-19.649
-22.841
-25.753
-28.385
-30.741
-32.824
-34.639
-36.195
-37.5
-38.564
-39.396
-40.01
-40.416
-40.628
-40.66
-40.525
-40.238
-39.815
-39.268
-38.615
-37.868
-37.043
-36.153
-35.212
-34.232
-33.226
-32.204
-31.177
-30.156
-29.148
-28.163
-27.208
-26.288
-25.41
-24.576
-23.79
-23.053
-22.367
-21.731
-21.145
-20.608
-20.116
-19.668
-19.262
-18.893
-18.559
-18.255
-17.978
-17.723
-17.487
-17.266
-17.055
-16.851
-16.65
-16.45
-16.25
-16.046
-15.839
-15.627
-15.411
-15.191
-14.968
-14.744
-14.519
-14.297
-14.081
-13.873
-13.678
-13.501
-13.345
-13.217
-13.121
-13.062
-13.047
-13.079
-13.163
-13.305
-13.508
-13.777
-14.115
-14.526
-15.013
-15.578
-16.223
-16.948
-17.753
-18.637
-19.598
-20.632
-21.735
-22.902
-24.126
-25.4
-26.718
-28.071
-29.45
-30.845
-32.246
-33.642
-35.021
-36.371
-37.68
-38.933
-40.119
-41.225
-42.238
-43.145
-43.935
-44.596
-45.116
-45.485
-45.692
-45.727
-45.58
-45.245
-44.715
-43.984
-43.048
-41.906
-40.556
-39.001
-37.242
-35.286
-33.138
-30.804
-28.296
-25.622
-22.797
-19.833
-16.746
-13.554
-10.276
-6.933
-3.549
-0.148
3.246
6.606
9.906
13.119
16.219
19.183
21.986
24.604
27.016
29.196
31.121
32.769
34.117
35.148
35.842
36.185
36.165
35.78
35.026
33.904
32.41
30.534
28.269
25.616
22.574
19.151
15.361
11.229
6.792
2.11
-2.757
-7.747
-12.802
-17.875
-22.914
-27.864
-32.662
-37.233
-41.51
-45.435
-48.956
-52.02
-54.602
-56.718
-58.425
-59.833
-61.052
-62.167
-63.269
-64.46
-65.857
-67.585
-69.773
-72.506
-75.889
-80.095
-85.2
-91.149
-97.692
-104.279
-110.276
-115.142
-118.269
-118.939
-116.741
-111.655
-104.198
-95.714
-87.635
-80.997
-76.817
-76.055
-78.956
-84.817
-91.71
-96.165
-94.469
-83.198
-58.821
-18.011
41.952
120.404
212.751
313.619
416.978
521.737
632.102
744.811
850.309
931.691
964.694
938.263
856.17
730.07
578.861
417.768
255.499
104.142
-19.575
-103.962
-143.404
-144.51
-127.598
-107.945
-93.828
-86.766
-80.047
-71.613
-63.419
-57.519
-57.57
-63.948
-74.201
-86.296
-97.676
-106.21
-111.284
-112.765
-110.987
-106.928
-101.567
-95.723
-90.28
-86.001
-83.228
-82.081
-82.484
-84.154
-86.852
-90.373
-94.482
-98.964
-103.652
-108.385
-113.011
-117.388
-121.341
-124.734
-127.484
-129.532
-130.864
-131.484
-131.41
-130.687
-129.379
-127.546
-125.242
-122.52
-119.427
-116.029
-112.399
-108.617
-104.761
-100.89
-97.041
-93.24
-89.5
-85.819
-82.191
-78.595
-75.003
-71.395
-67.754
-64.068
-60.326
-56.515
-52.619
-48.626
-44.519
-40.291
-35.932
-31.441
-26.811
-22.044
-17.14
-12.102
-6.936
-1.647
3.76
9.281
14.911
20.641
26.457
32.343
38.284
44.264
50.265
56.267
62.25
68.189
74.062
79.851
85.53
91.073
96.447
101.61
106.532
111.193
115.578
119.684
123.503
127.023
130.241
133.164
135.787
138.099
140.07
141.65
142.808
143.528
143.808
143.669
143.114
142.123
140.677
138.754
136.331
133.397
129.917
125.832
121.126
115.815
109.96
103.676
97.046
90.126
82.962
75.578
68.016
60.348
52.633
44.921
37.277
29.762
22.47
15.542
9.054
3.034
-2.54
-7.759
-12.682
-17.326
-21.717
-25.865
-29.79
-33.527
-37.091
-40.473
-43.688
-46.761
-49.748
-52.746
-55.805
-58.93
-62.096
-65.229
-68.278
-71.224
-74.037
-76.691
-79.165
-81.436
-83.506
-85.401
-87.129
-88.686
-90.053
-91.188
-92.073
-92.714
-93.127
-93.345
-93.394
-93.287
-93.047
-92.697
-92.255
-91.733
-91.132
-90.439
-89.649
-88.765
-87.793
-86.746
-85.631
-84.449
-83.201
-81.888
-80.512
-79.073
-77.571
-76.003
-74.369
-72.673
-70.918
-69.114
-67.268
-65.385
-63.469
-61.526
-59.56
-57.578
-55.581
-53.574
-51.561
-49.547
-47.535
-45.534
-43.547
-41.58
-39.638
-37.726
-35.85
-34.015
-32.226
-30.488
-28.805
-27.184
-25.627
-24.14
-22.726
-21.389
-20.132
-18.955
-17.861
-16.851
-15.927
-15.09
-14.341
-13.682
-13.112
-12.633
-12.244
-11.945
-11.737
-11.617
-11.585
-11.638
-11.776
-11.995
-12.293
-12.668
-13.116
-13.634
-14.217
-14.861
-15.558
-16.303
-17.087
-17.902
-18.741
-19.592
-20.447
-21.3
-22.142
-22.968
-23.771
-24.545
-25.283
-25.979
-26.627
-27.219
-27.742
-28.185
-28.537
-28.791
-28.938
-28.972
-28.887
-28.676
-28.336
-27.869
-27.272
-26.543
-25.674
-24.65
-23.465
-22.131
-20.661
-19.081
-17.416
-15.686
-13.918
-12.153
-10.416
-8.725
-7.08
-5.456
-3.845
-2.254
-0.702
0.771
2.144
3.421
4.604
5.706
6.739
7.71
8.652
9.626
10.659
11.747
12.844
13.846
14.674
15.283
15.643
15.751
15.588
15.116
14.313
13.177
11.708
9.908
7.743
5.127
2.025
-1.545
-5.51
-9.714
-14.017
-18.322
-22.543
-26.617
-30.476
-34.051
-37.32
-40.324
-43.127
-45.775
-48.254
-50.497
-52.484
-54.273
-55.977
-57.769
-59.795
-62.2
-65.198
-68.913
-73.311
-78.157
-82.96
-87.125
-90.162
-91.579
-90.731
-87.272
-81.419
-73.923
-66.188
-59.72
-55.455
-54.154
-56.861
-64.081
-74.985
-87.421
-97.93
-102.663
-98.524
-82.614
-51.422
-1.653
66.318
148.313
239.71
334.949
433.673
540.455
651.792
759.122
847.719
895.835
893.021
839.086
740.017
612.112
470.334
327.676
199.377
95.238
19.643
-29.332
-62.12
-88.838
-114.081
-137.066
-151.992
-154.944
-147.352
-133.191
-117.276
-102.475
-89.13
-77.124
-66.667
-58.092
-51.379
-46.462
-43.502
-42.568
-43.83
-47.067
-51.292
-55.79
-60.291
-64.323
-67.312
-68.939
-68.987
-67.763
-66.206
-64.88
-63.98
-63.755
-64.371
-65.886
-68.282
-71.205
-74.019
-76.342
-78.02
-78.981
-79.255
-78.849
-77.75
-76.054
-73.927
-71.489
-68.807
-65.909
-62.786
-59.473
-56.044
-52.58
-49.143
-45.769
-42.474
-39.264
-36.145
-33.116
-30.163
-27.256
-24.374
-21.501
-18.627
-15.75
-12.862
-9.949
-6.993
-3.976
-0.875
2.322
5.63
9.057
12.609
16.291
20.104
24.044
28.11
32.301
36.616
41.053
45.609
50.28
55.056
59.931
64.892
69.926
75.016
80.146
85.298
90.453
95.592
100.694
105.738
110.703
115.566
120.304
124.894
129.313
133.536
137.542
141.308
144.812
148.032
150.95
153.547
155.805
157.709
159.246
160.403
161.17
161.54
161.506
161.065
160.215
158.957
157.294
155.232
152.778
149.941
146.735
143.172
139.267
135.037
130.502
125.68
120.594
115.265
109.718
103.975
98.063
92.008
85.834
79.568
73.237
66.865
60.478
54.102
47.759
41.474
35.268
29.165
23.183
17.342
11.659
6.152
0.834
-4.281
-9.182
-13.858
-18.302
-22.505
-26.464
-30.173
-33.631
-36.837
-39.79
-42.494
-44.952
-47.168
-49.15
-50.903
-52.436
-53.758
-54.879
-55.808
-56.556
-57.135
-57.556
-57.829
-57.967
-57.981
-57.883
-57.684
-57.396
-57.031
-56.598
-56.108
-55.572
-55
-54.399
-53.78
-53.15
-52.518
-51.89
-51.272
-50.672
-50.093
-49.54
-49.017
-48.525
-48.068
-47.647
-47.262
-46.914
-46.603
-46.328
-46.089
-45.886
-45.718
-45.583
-45.482
-45.413
-45.375
-45.368
-45.391
-45.443
-45.524
-45.632
-45.768
-45.931
-46.119
-46.333
-46.571
-46.834
-47.119
-47.427
-47.759
-48.113
-48.49
-48.892
-49.319
-49.772
-50.255
-50.767
-51.312
-51.892
-52.507
-53.162
-53.856
-54.592
-55.37
-56.192
-57.057
-57.966
-58.917
-59.909
-60.939
-62.005
-63.105
-64.234
-65.389
-66.566
-67.76
-68.967
-70.182
-71.401
-72.618
-73.828
-75.024
-76.199
-77.348
-78.462
-79.533
-80.553
-81.513
-82.404
-83.216
-83.941
-84.57
-85.093
-85.501
-85.786
-85.941
-85.958
-85.83
-85.552
-85.12
-84.531
-83.784
-82.877
-81.812
-80.589
-79.211
-77.683
-76.01
-74.197
-72.252
-70.182
-67.996
-65.704
-63.318
-60.849
-58.311
-55.721
-53.097
-50.46
-47.831
-45.232
-42.687
-40.22
-37.854
-35.614
-33.516
-31.579
-29.822
-28.261
-26.92
-25.814
-24.96
-24.37
-24.058
-24.032
-24.302
-24.868
-25.721
-26.854
-28.263
-29.95
-31.933
-34.221
-36.817
-39.724
-42.935
-46.435
-50.208
-54.214
-58.394
-62.69
-67.04
-71.389
-75.707
-79.944
-84.039
-87.926
-91.502
-94.677
-97.406
-99.639
-101.344
-102.54
-103.232
-103.452
-103.322
-102.963
-102.436
-101.819
-101.161
-100.53
-100.099
-100.127
-100.881
-102.452
-105.027
-108.73
-113.067
-117.514
-121.621
-124.184
-125.535
-126.52
-125.369
-121.842
-114.09
-100.086
-85.82
-76.208
-76.145
-89.66
-109.566
-130.207
-149.949
-166.613
-182.103
-191.231
-177.388
-126.934
-34.894
93.191
237.32
381.458
523.063
659.73
790.558
904.095
973.376
982.78
929.77
825.513
697.723
561.23
416.92
266.751
108.581
-44.74
-165.353
-238.86
-260.303
-238.249
-198.266
-157.148
-122.536
-97.917
-78.019
-60.66
-48.729
-44.954
-52.016
-69.426
-93.462
-119.265
-142.744
-161.907
-175.534
-182.668
-183.33
-178.069
-168.299
-156.55
-144.706
-133.638
-124.024
-116.227
-110.398
-106.732
-104.955
-104.302
-104.259
-104.561
-105.077
-105.883
-106.982
-108.279
-109.77
-111.469
-113.369
-115.474
-117.706
-119.938
-122.066
-123.969
-125.585
-126.909
-127.927
-128.647
-129.079
-129.199
-129.002
-128.48
-127.6
-126.363
-124.773
-122.808
-120.49
-117.854
-114.945
-111.847
-108.622
-105.283
-101.848
-98.318
-94.683
-90.958
-87.146
-83.239
-79.255
-75.202
-71.085
-66.921
-62.706
-58.423
-54.05
-49.544
-44.871
-40.014
-34.964
-29.717
-24.282
-18.662
-12.87
-6.929
-0.856
5.336
11.629
18.011
24.463
30.958
37.468
43.96
50.399
56.753
62.988
69.074
74.981
80.682
86.152
91.37
96.314
100.962
105.295
109.289
112.924
116.184
119.05
121.508
123.544
125.148
126.314
127.036
127.314
127.147
126.539
125.494
124.021
122.128
119.828
117.135
114.066
110.64
106.877
102.801
98.437
93.812
88.952
83.886
78.643
73.253
67.743
62.142
56.479
50.782
45.078
39.393
33.756
28.19
22.721
17.371
12.165
7.121
2.259
-2.405
-6.854
-11.077
-15.061
-18.796
-22.275
-25.49
-28.439
-31.117
-33.524
-35.662
-37.533
-39.144
-40.499
-41.609
-42.483
-43.131
-43.565
-43.798
-43.842
-43.711
-43.418
-42.976
-42.399
-41.701
-40.895
-39.995
-39.015
-37.968
-36.866
-35.723
-34.548
-33.353
-32.149
-30.944
-29.748
-28.567
-27.411
-26.284
-25.194
-24.145
-23.141
-22.186
-21.282
-20.429
-19.626
-18.874
-18.17
-17.51
-16.894
-16.315
-15.773
-15.262
-14.781
-14.324
-13.889
-13.472
-13.069
-12.678
-12.294
-11.915
-11.538
-11.16
-10.78
-10.397
-10.01
-9.619
-9.223
-8.822
-8.418
-8.009
-7.596
-7.179
-6.758
-6.335
-5.911
-5.489
-5.072
-4.663
-4.267
-3.886
-3.527
-3.192
-2.885
-2.611
-2.372
-2.17
-2.01
-1.895
-1.826
-1.807
-1.84
-1.925
-2.065
-2.258
-2.504
-2.799
-3.141
-3.525
-3.947
-4.401
-4.881
-5.383
-5.904
-6.438
-6.984
-7.536
-8.09
-8.642
-9.186
-9.714
-10.217
-10.682
-11.097
-11.451
-11.733
-11.934
-12.046
-12.059
-11.966
-11.764
-11.446
-11.004
-10.429
-9.702
-8.809
-7.751
-6.533
-5.167
-3.678
-2.083
-0.403
1.33
3.094
4.88
6.687
8.535
10.45
12.438
14.49
16.581
18.686
20.802
22.93
25.074
27.26
29.507
31.843
34.325
36.988
39.822
42.795
45.82
48.789
51.631
54.288
56.722
58.908
60.798
62.347
63.524
64.276
64.543
64.245
63.26
61.499
58.936
55.58
51.515
46.869
41.746
36.251
30.494
24.559
18.545
12.535
6.595
0.802
-4.74
-9.903
-14.525
-18.469
-21.657
-24.031
-25.616
-26.512
-26.832
-26.74
-26.402
-25.93
-25.452
-25.113
-25.036
-25.343
-26.162
-27.561
-29.689
-32.814
-37.047
-42.327
-48.415
-54.748
-60.752
-66.025
-69.953
-71.643
-70.604
-66.835
-60.708
-53.358
-46.043
-39.515
-34.928
-34.171
-36.779
-39.683
-40.255
-34.622
-23.314
-13.005
-4.216
7.824
34.132
92.141
188.964
319.854
472.912
632.814
789.114
934.047
1058.948
1147.004
1176.481
1134.19
1014.511
830.401
612.909
391.64
199.338
60.248
-23.62
-57.897
-59.888
-53.016
-46.727
-43.707
-41.753
-33.209
-17.917
-0.702
13.858
20.754
18.495
8.935
-4.907
-19.829
-33.349
-43.66
-49.889
-51.969
-49.971
-44.402
-36.681
-28.147
-19.926
-13.089
-8.008
-4.694
-3.269
-3.691
-5.585
-8.628
-12.502
-16.834
-21.501
-26.433
-31.432
-36.331
-40.978
-45.188
-48.859
-51.946
-54.381
-56.133
-57.208
-57.613
-57.397
-56.629
-55.362
-53.654
-51.56
-49.131
-46.434
-43.546
-40.54
-37.492
-34.454
-31.456
-28.516
-25.64
-22.823
-20.057
-17.319
-14.582
-11.826
-9.033
-6.191
-3.293
-0.324
2.729
5.88
9.142
12.523
16.03
19.666
23.433
27.33
31.355
35.502
39.762
44.13
48.6
53.165
57.821
62.561
67.374
72.252
77.185
82.16
87.164
92.18
97.191
102.18
107.128
112.014
116.82
121.524
126.105
130.543
134.817
138.905
142.789
146.447
149.862
153.016
155.89
158.469
160.737
162.68
164.286
165.543
166.441
166.972
167.129
166.907
166.303
165.314
163.941
162.187
160.054
157.548
154.677
151.45
147.88
143.979
139.762
135.246
130.448
125.388
120.086
114.563
108.841
102.942
96.889
90.704
84.412
78.035
71.596
65.12
58.629
52.144
45.69
39.286
32.954
26.712
20.58
14.575
8.714
3.011
-2.519
-7.864
-13.011
-17.952
-22.677
-27.18
-31.454
-35.496
-39.303
-42.875
-46.21
-49.311
-52.18
-54.82
-57.237
-59.435
-61.42
-63.199
-64.78
-66.171
-67.38
-68.418
-69.293
-70.016
-70.598
-71.047
-71.375
-71.592
-71.708
-71.732
-71.673
-71.541
-71.345
-71.092
-70.791
-70.449
-70.073
-69.67
-69.244
-68.802
-68.347
-67.882
-67.412
-66.94
-66.467
-65.996
-65.53
-65.07
-64.617
-64.174
-63.742
-63.32
-62.91
-62.512
-62.127
-61.753
-61.392
-61.044
-60.708
-60.387
-60.079
-59.786
-59.51
-59.251
-59.011
-58.791
-58.592
-58.416
-58.266
-58.144
-58.052
-57.993
-57.971
-57.987
-58.046
-58.151
-58.303
-58.506
-58.761
-59.07
-59.435
-59.856
-60.335
-60.874
-61.471
-62.128
-62.844
-63.62
-64.453
-65.343
-66.286
-67.279
-68.32
-69.403
-70.524
-71.676
-72.856
-74.055
-75.269
-76.489
-77.707
-78.915
-80.105
-81.266
-82.388
-83.462
-84.476
-85.42
-86.285
-87.059
-87.734
-88.3
-88.749
-89.072
-89.261
-89.306
-89.201
-88.939
-88.512
-87.915
-87.144
-86.194
-85.063
-83.751
-82.257
-80.584
-78.733
-76.708
-74.514
-72.155
-69.639
-66.975
-64.172
-61.241
-58.196
-55.05
-51.822
-48.531
-45.198
-41.844
-38.488
-35.152
-31.861
-28.639
-25.51
-22.495
-19.614
-16.888
-14.339
-11.99
-9.866
-7.982
-6.355
-4.996
-3.919
-3.14
-2.67
-2.513
-2.666
-3.12
-3.876
-4.945
-6.337
-8.056
-10.099
-12.453
-15.106
-18.045
-21.246
-24.673
-28.277
-32.001
-35.791
-39.599
-43.394
-47.159
-50.857
-54.442
-57.844
-60.966
-63.738
-66.122
-68.105
-69.727
-71.003
-71.872
-72.439
-72.986
-73.778
-75.154
-77.218
-79.693
-82.546
-86.094
-90.378
-95.126
-99.816
-103.41
-105.328
-105.918
-105.237
-102.849
-98.448
-92.033
-84.428
-77.67
-73.584
-72.801
-75.622
-82.477
-93.916
-110.093
-129.584
-148.958
-163.748
-170.006
-164.916
-145.541
-108.262
-50.363
29.175
127.54
237.611
353.864
472.669
590.992
707.522
813.222
893.383
936.852
933.684
885.036
802.025
690.915
558.36
410.6
253.571
105.001
-15.049
-94.895
-133.082
-143.311
-142.533
-140.468
-139.709
-135.464
-124.992
-110.948
-97.309
-88.747
-87.089
-90.943
-98.479
-107.779
-116.726
-123.504
-127.113
-127.215
-124.223
-119.117
-112.789
-105.943
-99.421
-94.06
-90.312
-88.378
-88.166
-89.339
-91.64
-94.863
-98.762
-103.096
-107.654
-112.234
-116.66
-120.788
-124.45
-127.509
-129.88
-131.5
-132.353
-132.449
-131.815
-130.506
-128.592
-126.144
-123.226
-119.898
-116.221
-112.269
-108.125
-103.871
-99.588
-95.334
-91.147
-87.058
-83.079
-79.212
-75.45
-71.776
-68.165
-64.598
-61.064
-57.55
-54.048
-50.543
-47.019
-43.463
-39.861
-36.201
-32.477
-28.682
-24.814
-20.871
-16.857
-12.774
-8.628
-4.422
-0.157
4.165
8.539
12.963
17.43
21.934
26.464
31.01
35.556
40.086
44.584
49.034
53.417
57.716
61.912
65.986
69.924
73.706
77.31
80.713
83.891
86.822
89.483
91.851
93.905
95.626
96.998
98.011
98.66
98.938
98.834
98.337
97.431
96.106
94.361
92.197
89.619
86.644
83.296
79.616
75.662
71.481
67.104
62.557
57.85
52.995
48.004
42.888
37.66
32.336
26.931
21.464
15.954
10.395
4.76
-1.007
-7.005
-13.304
-19.951
-26.976
-34.368
-42.092
-50.101
-58.321
-66.657
-75.038
-83.394
-91.655
-99.76
-107.605
-115.058
-121.947
-128.046
-133.144
-137.055
-139.624
-140.757
-140.421
-138.613
-135.384
-130.824
-124.995
-117.973
-109.861
-100.762
-90.837
-80.292
-69.372
