Name
Date of Birth,"Mar 27, 1959"
Recorded Date,2022-08-03 21:27:49 -0500
Classification,Sinus Rhythm
Symptoms,
Software Version,1.90
Device,"Watch4,2"
Sample Rate,510.227 hertz


Lead,Lead I
Unit,µV

-38.493
-39.755
-40.82
-41.705
-42.424
-42.992
-43.427
-43.744
-43.957
-44.083
-44.138
-44.136
-44.091
-44.016
-43.926
-43.833
-43.749
-43.682
-43.638
-43.625
-43.646
-43.707
-43.816
-43.969
-44.16
-44.399
-44.697
-45.055
-45.483
-45.963
-46.467
-47.002
-47.58
-48.146
-48.655
-49.071
-49.339
-49.481
-49.549
-49.492
-49.228
-48.918
-48.755
-48.598
-48.445
-48.318
-47.754
-47.947
-50.06
-52.396
-54.435
-53.074
-44.607
-33.115
-21.316
-13.264
-14.53
-20.176
-26.015
-29.18
-24.933
-16.662
-7.803
0.876
7.279
12.61
18.421
24.405
30.746
37.327
43.815
50.4
57.228
64.225
71.357
78.62
85.986
93.417
100.879
108.317
115.665
122.91
130.038
137.012
143.807
150.392
156.735
162.814
168.606
174.08
179.211
183.974
188.345
192.304
195.831
198.908
201.521
203.654
205.297
206.439
207.074
207.195
206.801
205.888
204.46
202.519
200.072
197.127
193.694
189.787
185.421
180.612
175.38
169.745
163.729
157.357
150.654
143.646
136.361
128.829
121.078
113.139
105.043
96.821
88.505
80.125
71.712
63.295
54.904
46.568
38.313
30.168
22.156
14.303
6.632
-0.836
-8.08
-15.081
-21.823
-28.291
-34.471
-40.352
-45.925
-51.18
-56.113
-60.719
-64.996
-68.942
-72.559
-75.85
-78.82
-81.473
-83.818
-85.865
-87.622
-89.101
-90.315
-91.276
-91.998
-92.493
-92.778
-92.865
-92.771
-92.511
-92.099
-91.551
-90.881
-90.106
-89.238
-88.293
-87.284
-86.224
-85.126
-84.001
-82.862
-81.718
-80.579
-79.455
-78.353
-77.28
-76.243
-75.247
-74.296
-73.392
-72.538
-71.736
-70.985
-70.286
-69.639
-69.04
-68.49
-67.986
-67.524
-67.103
-66.719
-66.369
-66.047
-65.752
-65.478
-65.222
-64.98
-64.747
-64.52
-64.294
-64.066
-63.832
-63.588
-63.33
-63.055
-62.759
-62.44
-62.095
-61.723
-61.322
-60.891
-60.43
-59.939
-59.417
-58.865
-58.285
-57.677
-57.043
-56.383
-55.701
-54.997
-54.274
-53.535
-52.781
-52.015
-51.24
-50.456
-49.667
-48.875
-48.082
-47.291
-46.503
-45.722
-44.95
-44.191
-43.448
-42.723
-42.021
-41.344
-40.694
-40.076
-39.491
-38.942
-38.432
-37.964
-37.539
-37.16
-36.831
-36.553
-36.328
-36.159
-36.048
-35.997
-36.006
-36.079
-36.215
-36.418
-36.687
-37.026
-37.434
-37.914
-38.466
-39.09
-39.786
-40.552
-41.388
-42.289
-43.254
-44.276
-45.353
-46.478
-47.646
-48.851
-50.086
-51.342
-52.612
-53.888
-55.158
-56.414
-57.644
-58.837
-59.982
-61.067
-62.081
-63.012
-63.85
-64.583
-65.198
-65.686
-66.034
-66.232
-66.268
-66.133
-65.819
-65.317
-64.623
-63.732
-62.641
-61.351
-59.866
-58.19
-56.328
-54.289
-52.083
-49.723
-47.221
-44.592
-41.851
-39.016
-36.106
-33.142
-30.147
-27.145
-24.16
-21.217
-18.344
-15.568
-12.918
-10.418
-8.088
-5.951
-4.031
-2.353
-0.948
0.159
0.95
1.409
1.521
1.28
0.684
-0.25
-1.481
-2.97
-4.676
-6.561
-8.596
-10.746
-12.964
-15.206
-17.417
-19.549
-21.568
-23.436
-25.11
-26.578
-27.839
-28.936
-29.989
-31.118
-32.441
-34.067
-36.059
-38.487
-41.467
-45.096
-49.45
-54.587
-60.51
-67.274
-75.052
-83.878
-93.581
-103.797
-113.876
-123.146
-131.051
-136.902
-139.804
-139.145
-134.876
-127.425
-117.797
-107.32
-97.201
-88.692
-83.399
-81.011
-78.7
-73.954
-64.69
-52.544
-41.86
-31.474
-13.55
26.797
103.181
216.43
356.273
503.218
640.633
765.254
877.605
977.779
1060.747
1109.645
1107.942
1050.308
938.284
782.57
603.488
417.289
242.783
103.005
6.841
-43.614
-56.687
-54.977
-51.734
-52.332
-56.802
-56.607
-49.568
-39.507
-29.853
-25.149
-26.649
-32.25
-40.264
-48.977
-56.577
-61.698
-63.522
-61.906
-57.407
-51.037
-43.724
-36.178
-29.17
-23.463
-19.495
-17.431
-17.185
-18.446
-20.921
-24.391
-28.598
-33.279
-38.238
-43.277
-48.203
-52.857
-57.052
-60.636
-63.528
-65.671
-67.037
-67.63
-67.475
-66.626
-65.169
-63.185
-60.744
-57.915
-54.758
-51.351
-47.781
-44.136
-40.5
-36.932
-33.467
-30.129
-26.929
-23.865
-20.925
-18.081
-15.298
-12.545
-9.8
-7.042
-4.251
-1.401
1.532
4.576
7.754
11.087
14.593
18.288
22.187
26.298
30.629
35.183
39.961
44.966
50.199
55.662
61.355
67.276
73.422
79.785
86.359
93.131
100.089
107.213
114.485
121.883
129.382
136.958
144.582
152.224
159.852
167.436
174.941
182.332
189.574
196.635
203.477
210.068
216.374
222.363
228.002
233.263
238.117
242.538
246.501
249.983
252.964
255.426
257.354
258.735
259.56
259.822
259.515
258.639
257.197
255.194
252.638
249.54
245.916
241.782
237.159
232.068
226.536
220.588
214.254
207.564
200.55
193.244
185.682
177.897
169.925
161.8
153.559
145.235
136.865
128.481
120.116
111.803
103.571
95.45
87.468
79.649
72.019
64.598
57.408
50.464
43.784
37.379
31.261
25.438
19.916
14.7
9.791
5.188
0.89
-3.107
-6.809
-10.222
-13.356
-16.22
-18.825
-21.183
-23.309
-25.214
-26.915
-28.426
-29.761
-30.937
-31.969
-32.87
-33.656
-34.34
-34.935
-35.453
-35.907
-36.306
-36.66
-36.977
-37.265
-37.529
-37.773
-38.002
-38.218
-38.422
-38.615
-38.797
-38.968
-39.125
-39.267
-39.392
-39.498
-39.58
-39.637
-39.662
-39.653
-39.605
-39.514
-39.375
-39.184
-38.938
-38.633
-38.266
-37.835
-37.337
-36.773
-36.141
-35.442
-34.677
-33.848
-32.958
-32.013
-31.016
-29.974
-28.894
-27.783
-26.648
-25.499
-24.341
-23.185
-22.037
-20.906
-19.798
-18.723
-17.686
-16.695
-15.757
-14.879
-14.067
-13.325
-12.661
-12.078
-11.58
-11.171
-10.853
-10.629
-10.5
-10.467
-10.53
-10.687
-10.938
-11.28
-11.709
-12.219
-12.806
-13.464
-14.184
-14.96
-15.784
-16.648
-17.543
-18.463
-19.399
-20.344
-21.291
-22.233
-23.163
-24.075
-24.964
-25.824
-26.651
-27.44
-28.187
-28.891
-29.547
-30.155
-30.712
-31.218
-31.672
-32.073
-32.421
-32.718
-32.964
-33.161
-33.312
-33.417
-33.482
-33.51
-33.504
-33.468
-33.406
-33.323
-33.221
-33.106
-32.979
-32.843
-32.701
-32.554
-32.404
-32.251
-32.094
-31.932
-31.764
-31.587
-31.398
-31.194
-30.971
-30.722
-30.444
-30.131
-29.776
-29.375
-28.92
-28.406
-27.826
-27.176
-26.449
-25.64
-24.744
-23.756
-22.672
-21.49
-20.207
-18.82
-17.328
-15.733
-14.034
-12.234
-10.336
-8.345
-6.271
-4.122
-1.913
0.344
2.634
4.939
7.241
9.52
11.759
13.94
16.046
18.058
19.955
21.716
23.317
24.739
25.962
26.97
27.745
28.273
28.541
28.548
28.292
27.767
26.959
25.845
24.404
22.628
20.51
18.052
15.262
12.151
8.746
5.096
1.253
-2.731
-6.81
-10.953
-15.121
-19.256
-23.282
-27.103
-30.627
-33.784
-36.518
-38.789
-40.574
-41.871
-42.72
-43.196
-43.399
-43.445
-43.445
-43.522
-43.814
-44.446
-45.611
-47.586
-50.547
-54.535
-59.411
-64.74
-70.023
-74.85
-78.656
-80.725
-80.606
-78.122
-73.655
-68.456
-63.937
-61.255
-61.573
-65.851
-74.368
-86.839
-101.873
-116.301
-126.221
-127.718
-116.797
-89.68
-43.447
24.039
113.783
222.723
344.334
472.266
599.135
720.8
839.458
952.908
1055.072
1136.294
1176.152
1158.761
1078.865
936.446
747.672
537.683
329.951
152.522
24.935
-50.093
-78.726
-79.812
-74.572
-72.161
-74.472
-76.88
-72.817
-62.968
-51.623
-42.962
-40.516
-44.259
-52.085
-62.151
-72.356
-80.867
-86.446
-88.473
-87.17
-83.288
-77.798
-71.609
-65.498
-60.236
-56.499
-54.61
-54.574
-56.203
-59.166
-63.159
-67.959
-73.302
-78.928
-84.644
-90.246
-95.562
-100.452
-104.75
-108.336
-111.145
-113.138
-114.313
-114.704
-114.353
-113.328
-111.72
-109.604
-107.058
-104.157
-100.968
-97.573
-94.056
-90.497
-86.974
-83.54
-80.225
-77.049
-74.019
-71.123
-68.349
-65.669
-63.051
-60.469
-57.9
-55.323
-52.719
-50.066
-47.339
-44.514
-41.569
-38.481
-35.235
-31.814
-28.204
-24.394
-20.377
-16.146
-11.699
-7.032
-2.141
2.977
8.324
13.899
19.699
25.719
31.953
38.388
45.013
51.81
58.761
65.844
73.036
80.312
87.645
95.005
102.363
109.688
116.945
124.102
131.125
137.98
144.631
151.044
157.187
163.026
168.528
173.665
178.406
182.725
186.596
189.996
192.903
195.299
197.166
198.491
199.263
199.473
199.117
198.193
196.701
194.647
192.039
188.886
185.203
181.007
176.316
171.154
165.544
159.514
153.092
146.308
139.196
131.789
124.122
116.229
108.148
99.912
91.56
83.126
74.645
66.153
57.682
49.266
40.935
32.722
24.653
16.756
9.056
1.577
-5.66
-12.636
-19.335
-25.741
-31.843
-37.63
-43.094
-48.231
-53.036
-57.51
-61.654
-65.47
-68.965
-72.146
-75.021
-77.603
-79.901
-81.928
-83.699
-85.228
-86.53
-87.619
-88.511
-89.222
-89.768
-90.163
-90.424
-90.563
-90.596
-90.535
-90.394
-90.185
-89.917
-89.602
-89.248
-88.864
-88.459
-88.037
-87.605
-87.169
-86.73
-86.294
-85.861
-85.433
-85.009
-84.591
-84.176
-83.763
-83.351
-82.937
-82.52
-82.096
-81.662
-81.217
-80.758
-80.283
-79.788
-79.274
-78.738
-78.179
-77.597
-76.993
-76.367
-75.72
-75.055
-74.372
-73.675
-72.967
-72.25
-71.528
-70.805
-70.083
-69.367
-68.661
-67.968
-67.292
-66.638
-66.008
-65.407
-64.837
-64.302
-63.804
-63.346
-62.93
-62.558
-62.232
-61.954
-61.724
-61.543
-61.411
-61.328
-61.293
-61.305
-61.362
-61.462
-61.601
-61.777
-61.986
-62.225
-62.49
-62.776
-63.081
-63.401
-63.73
-64.066
-64.406
-64.746
-65.083
-65.415
-65.741
-66.058
-66.365
-66.663
-66.949
-67.224
-67.489
-67.743
-67.987
-68.221
-68.447
-68.664
-68.876
-69.082
-69.284
-69.485
-69.686
-69.889
-70.096
-70.311
-70.534
-70.768
-71.016
-71.28
-71.561
-71.861
-72.182
-72.524
-72.888
-73.273
-73.679
-74.105
-74.548
-75.006
-75.475
-75.953
-76.434
-76.914
-77.387
-77.849
-78.294
-78.714
-79.104
-79.458
-79.767
-80.028
-80.231
-80.372
-80.442
-80.436
-80.347
-80.168
-79.893
-79.515
-79.028
-78.426
-77.704
-76.858
-75.882
-74.773
-73.53
-72.149
-70.63
-68.975
-67.184
-65.259
-63.206
-61.03
-58.736
-56.332
-53.829
-51.236
-48.568
-45.84
-43.066
-40.265
-37.455
-34.653
-31.88
-29.154
-26.493
-23.914
-21.434
-19.073
-16.848
-14.779
-12.888
-11.194
-9.714
-8.467
-7.468
-6.728
-6.255
-6.053
-6.125
-6.477
-7.125
-8.08
-9.349
-10.94
-12.852
-15.076
-17.597
-20.381
-23.382
-26.552
-29.84
-33.2
-36.596
-39.989
-43.335
-46.582
-49.658
-52.496
-55.038
-57.227
-59.012
-60.369
-61.307
-61.878
-62.185
-62.32
-62.352
-62.36
-62.427
-62.671
-63.231
-64.245
-65.817
-68.089
-71.287
-75.527
-80.782
-86.774
-92.876
-98.406
-102.785
-105.375
-105.463
-102.642
-96.883
-88.857
-80.193
-72.542
-67.215
-65.391
-67.914
-75.017
-86.115
-98.964
-109.65
-114.02
-107.775
-86.698
-47.371
13.439
96.183
196.513
309.065
428.048
550.478
679.55
814.737
947.517
1062.754
1136.771
1149.697
1097.11
984.191
825.777
644.145
455.369
276.3
126.399
13.338
-59.643
-98.136
-120.639
-137.267
-151.575
-162.676
-161.921
-147.433
-123.705
-95.808
-69.897
-49.063
-33.566
-23.725
-19.862
-21.708
-28.342
-38.098
-49.528
-61.49
-72.756
-82.479
-89.704
-93.756
-94.782
-93.378
-90.207
-86.149
-82.253
-79.153
-77.393
-77.343
-78.915
-81.926
-86.105
-90.924
-95.76
-100.185
-103.907
-106.794
-108.892
-110.21
-110.758
-110.623
-109.914
-108.739
-107.176
-105.255
-102.983
-100.389
-97.54
-94.521
-91.427
-88.334
-85.29
-82.324
-79.451
-76.685
-74.027
-71.464
-68.975
-66.529
-64.106
-61.691
-59.269
-56.823
-54.327
-51.748
-49.057
-46.223
-43.224
-40.039
-36.65
-33.04
-29.196
-25.108
-20.771
-16.179
-11.329
-6.215
-0.833
4.817
10.735
16.915
23.351
30.032
36.947
44.079
51.408
58.914
66.572
74.356
82.236
90.183
98.164
106.146
114.093
121.97
129.738
137.361
144.801
152.019
158.979
165.644
171.976
177.942
183.508
188.642
193.316
197.501
201.173
204.309
206.889
208.898
210.32
211.144
211.365
210.976
209.979
208.375
206.173
203.381
200.014
196.087
191.622
186.64
181.167
175.23
168.859
162.086
154.946
147.473
139.704
131.678
123.432
115.006
106.438
97.769
89.036
80.279
71.533
62.837
54.224
45.73
37.386
29.224
21.271
13.554
6.099
-1.074
-7.945
-14.496
-20.715
-26.588
-32.106
-37.264
-42.058
-46.485
-50.547
-54.247
-57.591
-60.587
-63.243
-65.571
-67.585
-69.298
-70.725
-71.884
-72.791
-73.465
-73.924
-74.186
-74.272
-74.201
-73.991
-73.662
-73.232
-72.719
-72.141
-71.515
-70.855
-70.178
-69.495
-68.821
-68.166
-67.54
-66.953
-66.411
-65.921
-65.488
-65.116
-64.805
-64.558
-64.375
-64.254
-64.193
-64.19
-64.241
-64.343
-64.49
-64.678
-64.901
-65.154
-65.43
-65.724
-66.029
-66.338
-66.647
-66.948
-67.236
-67.506
-67.753
-67.971
-68.156
-68.304
-68.412
-68.477
-68.495
-68.465
-68.385
-68.255
-68.075
-67.844
-67.564
-67.236
-66.863
-66.445
-65.986
-65.487
-64.953
-64.385
-63.788
-63.163
-62.515
-61.846
-61.16
-60.461
-59.751
-59.034
-58.312
-57.589
-56.866
-56.147
-55.434
-54.73
-54.036
-53.355
-52.69
-52.043
-51.415
-50.808
-50.225
-49.667
-49.135
-48.631
-48.156
-47.711
-47.297
-46.917
-46.57
-46.258
-45.982
-45.743
-45.543
-45.382
-45.26
-45.18
-45.141
-45.145
-45.194
-45.287
-45.427
-45.613
-45.847
-46.13
-46.461
-46.841
-47.27
-47.747
-48.271
-48.841
-49.455
-50.111
-50.806
-51.538
-52.303
-53.096
-53.913
-54.75
-55.6
-56.458
-57.318
-58.175
-59.02
-59.85
-60.655
-61.431
-62.169
-62.864
-63.507
-64.091
-64.607
-65.049
-65.409
-65.68
-65.854
-65.925
-65.887
-65.732
-65.455
-65.052
-64.518
-63.848
-63.04
-62.092
-61.002
-59.772
-58.402
-56.894
-55.253
-53.483
-51.59
-49.581
-47.462
-45.241
-42.927
-40.531
-38.061
-35.529
-32.947
-30.329
-27.691
-25.051
-22.427
-19.836
-17.299
-14.834
-12.462
-10.2
-8.064
-6.067
-4.224
-2.549
-1.059
0.231
1.307
2.157
2.77
3.139
3.254
3.113
2.722
2.086
1.213
0.098
-1.271
-2.908
-4.816
-6.994
-9.438
-12.131
-15.053
-18.169
-21.417
-24.732
-28.053
-31.32
-34.497
-37.542
-40.4
-43.002
-45.263
-47.101
-48.463
-49.301
-49.577
-49.306
-48.526
-47.33
-45.871
-44.28
-42.691
-41.27
-40.151
-39.468
-39.365
-39.931
-41.327
-43.847
-47.617
-52.569
-58.495
-64.866
-71.137
-76.943
-81.63
-84.227
-84.15
-81.37
-76.343
-70.301
-64.613
-60.098
-57.796
-59.51
-64.918
-70.979
-74.953
-72.903
-64.886
-56.924
-49.37
-37.326
-9.477
51.533
152.177
287.397
444.773
606.723
763.551
910.107
1037.933
1136.089
1185.792
1168.993
1080.522
925.872
724.046
502.082
285.071
95.5
-51.829
-150.223
-200.677
-209.995
-186.449
-142.27
-90.429
-45.208
-20.027
-19.115
-38.001
-63.808
-83.903
-93.272
-93.214
-91.065
-91.754
-94.905
-98.589
-99.475
-96.254
-90.215
-82.694
-74.918
-67.886
-62.17
-58.098
-55.875
-55.382
-56.268
-58.292
-61.277
-65.023
-69.324
-73.972
-78.735
-83.428
-87.903
-91.971
-95.476
-98.316
-100.419
-101.77
-102.385
-102.289
-101.536
-100.197
-98.343
-96.04
-93.351
-90.334
-87.067
-83.636
-80.134
-76.649
-73.247
-69.969
-66.843
-63.878
-61.073
-58.415
-55.876
-53.421
-51.023
-48.659
-46.31
-43.957
-41.579
-39.147
-36.638
-34.024
-31.284
-28.398
-25.347
-22.117
-18.694
-15.072
-11.243
-7.207
-2.959
1.506
6.19
11.098
16.229
21.583
27.156
32.944
38.938
45.128
51.499
58.034
64.715
71.52
78.427
85.412
92.447
99.506
106.56
113.579
120.531
127.384
134.107
140.665
147.026
153.158
159.029
164.606
169.859
174.761
179.283
183.4
187.087
190.323
193.087
195.361
197.131
198.382
199.106
199.295
198.943
198.051
196.621
194.656
192.166
189.16
185.652
181.658
177.196
172.287
166.953
161.22
155.114
148.664
141.899
134.852
127.555
120.04
112.342
104.494
96.53
88.483
80.388
72.276
64.18
56.13
48.158
40.291
32.557
24.982
17.589
10.401
3.438
-3.282
-9.744
-15.934
-21.839
-27.451
-32.76
-37.763
-42.454
-46.833
-50.899
-54.655
-58.105
-61.254
-64.109
-66.679
-68.973
-71.002
-72.777
-74.311
-75.616
-76.705
-77.591
-78.288
-78.811
-79.172
-79.384
-79.462
-79.417
-79.262
-79.007
-78.665
-78.244
-77.755
-77.206
-76.605
-75.958
-75.273
-74.556
-73.81
-73.042
-72.253
-71.448
-70.628
-69.795
-68.95
-68.094
-67.228
-66.352
-65.465
-64.567
-63.659
-62.741
-61.812
-60.872
-59.923
-58.964
-57.997
-57.023
-56.043
-55.06
-54.075
-53.092
-52.113
-51.141
-50.18
-49.233
-48.304
-47.398
-46.517
-45.666
-44.848
-44.068
-43.33
-42.637
-41.992
-41.4
-40.863
-40.385
-39.967
-39.613
-39.324
-39.102
-38.948
-38.862
-38.843
-38.893
-39.008
-39.187
-39.428
-39.728
-40.083
-40.489
-40.943
-41.44
-41.974
-42.541
-43.135
-43.752
-44.386
-45.031
-45.684
-46.338
-46.99
-47.634
-48.268
-48.887
-49.488
-50.068
-50.624
-51.154
-51.656
-52.128
-52.568
-52.976
-53.351
-53.693
-54.003
-54.282
-54.532
-54.755
-54.953
-55.129
-55.286
-55.428
-55.559
-55.683
-55.804
-55.927
-56.054
-56.192
-56.343
-56.512
-56.701
-56.914
-57.151
-57.416
-57.709
-58.03
-58.379
-58.757
-59.161
-59.592
-60.046
-60.523
-61.019
-61.531
-62.056
-62.59
-63.126
-63.662
-64.189
-64.703
-65.197
-65.664
-66.096
-66.487
-66.828
-67.111
-67.328
-67.47
-67.53
-67.498
-67.367
-67.129
-66.778
-66.308
-65.713
-64.991
-64.138
-63.151
-62.03
-60.775
-59.386
-57.866
-56.217
-54.443
-52.549
-50.542
-48.43
-46.22
-43.927
-41.564
-39.144
-36.685
-34.204
-31.719
-29.25
-26.816
-24.433
-22.118
-19.89
-17.765
-15.764
-13.907
-12.216
-10.706
-9.397
-8.301
-7.432
-6.8
-6.409
-6.259
-6.352
-6.694
-7.3
-8.191
-9.379
-10.874
-12.68
-14.789
-17.188
-19.855
-22.751
-25.828
-29.039
-32.336
-35.684
-39.049
-42.388
-45.64
-48.723
-51.544
-54.023
-56.094
-57.704
-58.838
-59.497
-59.722
-59.593
-59.185
-58.596
-57.943
-57.342
-56.931
-56.863
-57.272
-58.366
-60.467
-63.762
-68.261
-73.73
-79.548
-85.055
-89.729
-92.894
-93.756
-91.878
-87.247
-80.668
-74.036
-69.283
-67.904
-71.222
-80.138
-94.766
-114.311
-136.141
-155.625
-167.732
-167.355
-149.672
-110.871
-47.705
40.229
149.081
273.552
406.819
544.971
688.185
831.162
964.614
1072.018
1131.388
1134.008
1080.547
981.959
856.823
710.906
548.6
376.064
202.479
52.428
-55.243
-114.469
-131.705
-129.626
-125.052
-123.804
-124.395
-118.246
-102.979
-83.039
-63.426
-49.073
-41.383
-39
-41.201
-47.358
-56.143
-65.505
-73.334
-78.678
-81.617
-82.695
-82.116
-79.515
-75.04
-69.737
-64.955
-61.593
-59.916
-59.743
-60.91
-63.592
-67.849
-73.34
-79.443
-85.552
-91.276
-96.44
-100.993
-104.83
-107.824
-109.938
-111.218
-111.756
-111.649
-110.959
-109.715
-107.944
-105.705
-103.065
-100.119
-96.968
-93.702
-90.409
-87.149
-83.96
-80.873
-77.902
-75.051
-72.31
-69.656
-67.057
-64.49
-61.942
-59.398
-56.841
-54.241
-51.57
-48.8
-45.907
-42.872
-39.677
-36.305
-32.739
-28.969
-24.988
-20.791
-16.378
-11.742
-6.88
-1.788
3.536
9.09
14.872
20.877
27.099
33.528
40.15
46.951
53.912
61.011
68.228
75.537
82.912
90.325
97.748
105.148
112.496
119.758
126.901
133.891
140.695
147.278
153.607
159.65
165.374
170.749
175.744
180.332
184.488
188.187
191.407
194.128
196.334
198.01
199.145
199.729
199.757
199.226
198.137
196.495
194.305
191.578
188.327
184.567
180.316
175.596
170.427
164.836
158.848
152.491
145.797
138.795
131.517
123.997
116.268
108.364
100.319
92.167
83.943
75.679
67.408
59.162
50.973
42.87
34.882
27.036
19.356
11.866
4.588
-2.46
-9.26
-15.797
-22.057
-28.03
-33.707
-39.081
-44.147
-48.902
-53.345
-57.476
-61.299
-64.815
-68.031
-70.952
-73.585
-75.94
-78.024
-79.849
-81.424
-82.763
-83.876
-84.776
-85.477
-85.992
-86.333
-86.515
-86.55
-86.452
-86.233
-85.905
-85.481
-84.97
-84.385
-83.735
-83.028
-82.275
-81.482
-80.656
-79.804
-78.931
-78.043
-77.144
-76.238
-75.329
-74.42
-73.515
-72.616
-71.727
-70.85
-69.987
-69.141
-68.313
-67.505
-66.719
-65.957
-65.218
-64.504
-63.816
-63.155
-62.521
-61.914
-61.334
-60.782
-60.257
-59.76
-59.29
-58.847
-58.431
-58.043
-57.682
-57.35
-57.047
-56.772
-56.527
-56.311
-56.124
-55.966
-55.836
-55.732
-55.654
-55.599
-55.565
-55.551
-55.554
-55.569
-55.596
-55.63
-55.667
-55.705
-55.74
-55.769
-55.79
-55.798
-55.792
-55.77
-55.731
-55.671
-55.591
-55.489
-55.363
-55.214
-55.04
-54.84
-54.615
-54.364
-54.088
-53.786
-53.461
-53.112
-52.742
-52.352
-51.946
-51.526
-51.095
-50.658
-50.217
-49.779
-49.348
-48.93
-48.529
-48.152
-47.803
-47.49
-47.216
-46.986
-46.806
-46.678
-46.606
-46.593
-46.642
-46.754
-46.933
-47.177
-47.489
-47.869
-48.316
-48.83
-49.408
-50.05
-50.751
-51.51
-52.321
-53.181
-54.084
-55.024
-55.994
-56.989
-58
-59.019
-60.036
-61.042
-62.027
-62.981
-63.892
-64.748
-65.541
-66.257
-66.888
-67.423
-67.852
-68.167
-68.358
-68.417
-68.336
-68.109
-67.729
-67.19
-66.487
-65.616
-64.575
-63.363
-61.979
-60.423
-58.697
-56.804
-54.75
-52.54
-50.18
-47.679
-45.045
-42.29
-39.425
-36.465
-33.425
-30.322
-27.177
-24.011
-20.848
-17.71
-14.621
-11.606
-8.687
-5.888
-3.228
-0.726
1.599
3.729
5.64
7.312
8.728
9.873
10.731
11.291
11.54
11.472
11.09
10.398
9.395
8.076
6.419
4.411
2.05
-0.66
-3.71
-7.084
-10.762
-14.706
-18.852
-23.132
-27.477
-31.83
-36.153
-40.4
-44.502
-48.371
-51.903
-55.008
-57.631
-59.732
-61.272
-62.237
-62.641
-62.547
-62.072
-61.355
-60.53
-59.723
-59.075
-58.733
-58.844
-59.626
-61.35
-64.179
-68.128
-73.004
-78.365
-83.742
-88.722
-92.716
-94.996
-95.014
-92.529
-88.013
-82.702
-77.888
-74.644
-73.885
-76.345
-82.461
-92.136
-103.774
-114.149
-119.461
-115.884
-99.892
-68.26
-18.012
53.516
145.65
253.309
370.614
491.094
611.778
735.618
861.639
982.048
1083.331
1143.602
1144.718
1083.187
963.174
798.024
610.032
415.776
234.212
87.957
-14.876
-72.084
-91.295
-94.317
-93.564
-94.124
-97.011
-94.868
-86.249
-75.483
-66.047
-62.294
-65.528
-73.622
-84.445
-95.851
-105.708
-112.449
-115.314
-114.229
-109.749
-102.905
-94.719
-86.076
-77.909
-71.055
-65.956
-62.751
-61.341
-61.442
-62.794
-65.184
-68.359
-72.054
-76.074
-80.259
-84.441
-88.478
-92.2
-95.421
-98.029
-99.958
-101.17
-101.665
-101.475
-100.638
-99.225
-97.325
-95.009
-92.354
-89.432
-86.308
-83.061
-79.775
-76.526
-73.389
-70.414
-67.627
-65.042
-62.657
-60.455
-58.413
-56.498
-54.671
-52.896
-51.145
-49.387
-47.596
-45.742
-43.794
-41.72
-39.492
-37.082
-34.468
-31.631
-28.551
-25.217
-21.617
-17.741
-13.587
-9.147
-4.419
0.603
5.918
11.527
17.423
23.602
30.052
36.761
43.711
50.883
58.253
65.795
73.48
81.279
89.158
97.083
105.019
112.926
120.769
128.506
136.101
143.513
150.704
157.637
164.273
170.577
176.515
182.054
187.163
191.812
195.975
199.628
202.749
205.319
207.321
208.743
209.575
209.81
209.444
208.477
206.914
204.762
202.031
198.736
194.893
190.524
185.65
180.3
174.5
168.28
161.674
154.714
147.436
139.875
132.068
124.053
115.866
107.546
99.128
90.651
82.15
73.661
65.217
56.852
48.597
40.483
32.536
24.785
17.254
9.964
2.937
-3.809
-10.26
-16.403
-22.226
-27.722
-32.887
-37.717
-42.211
-46.373
-50.205
-53.713
-56.906
-59.791
-62.381
-64.686
-66.719
-68.495
-70.027
-71.332
-72.424
-73.319
-74.034
-74.584
-74.986
-75.255
-75.406
-75.455
-75.415
-75.3
-75.124
-74.898
-74.634
-74.342
-74.03
-73.708
-73.381
-73.054
-72.732
-72.418
-72.113
-71.817
-71.531
-71.254
-70.982
-70.714
-70.446
-70.176
-69.898
-69.61
-69.306
-68.983
-68.636
-68.262
-67.856
-67.416
-66.937
-66.417
-65.854
-65.245
-64.589
-63.884
-63.129
-62.325
-61.472
-60.57
-59.621
-58.628
-57.593
-56.521
-55.414
-54.28
-53.122
-51.948
-50.763
-49.575
-48.39
-47.216
-46.06
-44.93
-43.831
-42.771
-41.756
-40.793
-39.886
-39.04
-38.262
-37.553
-36.918
-36.36
-35.881
-35.482
-35.166
-34.933
-34.783
-34.717
-34.733
-34.83
-35.008
-35.263
-35.594
-35.997
-36.469
-37.006
-37.603
-38.256
-38.959
-39.708
-40.496
-41.319
-42.17
-43.044
-43.935
-44.839
-45.751
-46.665
-47.577
-48.484
-49.381
-50.267
-51.137
-51.99
-52.825
-53.639
-54.432
-55.202
-55.95
-56.674
-57.375
-58.054
-58.709
-59.342
-59.953
-60.543
-61.113
-61.663
-62.195
-62.709
-63.208
-63.69
-64.159
-64.614
-65.057
-65.487
-65.906
-66.314
-66.71
-67.094
-67.464
-67.82
-68.159
-68.479
-68.776
-69.047
-69.287
-69.492
-69.657
-69.778
-69.847
-69.861
-69.813
-69.697
-69.507
-69.237
-68.882
-68.436
-67.891
-67.245
-66.491
-65.626
-64.644
-63.543
-62.319
-60.97
-59.495
-57.891
-56.159
-54.299
-52.312
-50.202
-47.974
-45.631
-43.182
-40.635
-38.002
-35.296
-32.53
-29.721
-26.884
-24.039
-21.203
-18.395
-15.632
-12.935
-10.322
-7.814
-5.431
-3.195
-1.125
0.755
2.426
3.868
5.062
5.994
6.654
7.032
7.119
6.904
6.37
5.504
4.302
2.756
0.866
-1.361
-3.913
-6.755
-9.838
-13.114
-16.534
-20.05
-23.629
-27.227
-30.797
-34.291
-37.642
-40.795
-43.703
-46.313
-48.586
-50.502
-52.059
-53.316
-54.381
-55.367
-56.384
-57.514
-58.82
-60.397
-62.351
-64.8
-67.864
-71.578
-75.99
-81.235
-87.359
-94.302
-101.809
-109.242
-115.913
-121.332
-124.959
-126.169
-124.544
-119.829
-112.368
-103.469
-94.424
-86.047
-79.208
-74.88
-73.771
-76.203
-79.824
-79.308
-70.011
-49.383
-19.977
12.975
48.294
89.984
149.594
238.822
362.009
515.586
684.558
850.893
995.41
1099.208
1151.177
1141.761
1071.314
948.853
781.772
586.31
378.188
173.01
-2.464
-127.831
-191.485
-192.024
-150.227
-94.503
-49.03
-30.518
-38.601
-60.743
-83.094
-95.578
-96.107
-90.256
-85.767
-86.581
-92.48
-100.39
-105.874
-107.108
-104.575
-99.141
-92.169
-84.678
-77.157
-70.321
-64.911
-61.201
-59.218
-58.873
-59.928
-62.177
-65.465
-69.532
-74.099
-78.977
-83.979
-88.926
-93.649
-97.941
-101.644
-104.673
-106.976
-108.537
-109.365
-109.478
-108.921
-107.769
-106.09
-103.952
-101.421
-98.553
-95.427
-92.129
-88.745
-85.365
-82.048
-78.829
-75.73
-72.759
-69.911
-67.173
-64.52
-61.916
-59.336
-56.756
-54.159
-51.528
-48.841
-46.072
-43.197
-40.192
-37.036
-33.711
-30.202
-26.495
-22.582
-18.456
-14.114
-9.556
-4.78
0.214
5.43
10.866
16.521
22.391
28.472
34.755
41.231
47.886
54.705
61.67
68.76
75.954
83.23
90.561
97.924
105.289
112.629
119.914
127.113
134.195
141.128
147.88
154.417
160.709
166.722
172.427
177.793
182.793
187.399
191.586
195.331
198.612
201.41
203.707
205.489
206.743
207.46
207.634
207.259
206.336
204.866
202.855
200.309
197.238
193.656
189.576
185.018
179.999
174.542
168.671
162.41
155.789
148.836
141.582
134.058
126.299
118.337
110.206
101.942
93.578
85.148
76.687
68.227
59.802
51.442
43.179
35.04
27.054
19.247
11.642
4.261
-2.875
-9.747
-16.341
-22.641
-28.635
-34.312
-39.663
-44.682
-49.365
-53.708
-57.711
-61.374
-64.7
-67.695
-70.364
-72.715
-74.756
-76.5
-77.956
-79.138
-80.06
-80.735
-81.179
-81.407
-81.435
-81.28
-80.958
-80.483
-79.873
-79.142
-78.304
-77.374
-76.366
-75.292
-74.165
-72.996
-71.796
-70.576
-69.344
-68.111
-66.884
-65.67
-64.477
-63.309
-62.172
-61.071
-60.008
-58.988
-58.012
-57.083
-56.201
-55.368
-54.582
-53.843
-53.151
-52.502
-51.896
-51.329
-50.799
-50.303
-49.84
-49.405
-48.998
-48.615
-48.255
-47.915
-47.595
-47.291
-47.002
-46.728
-46.466
-46.217
-45.979
-45.752
-45.535
-45.329
-45.132
-44.946
-44.768
-44.6
-44.44
-44.289
-44.147
-44.013
-43.889
-43.774
-43.67
-43.577
-43.496
-43.429
-43.377
-43.341
-43.321
-43.318
-43.334
-43.369
-43.423
-43.497
-43.592
-43.707
-43.842
-43.998
-44.172
-44.365
-44.576
-44.803
-45.045
-45.301
-45.569
-45.85
-46.142
-46.445
-46.757
-47.078
-47.409
-47.747
-48.093
-48.447
-48.806
-49.172
-49.544
-49.92
-50.3
-50.684
-51.071
-51.461
-51.853
-52.246
-52.641
-53.037
-53.432
-53.828
-54.223
-54.619
-55.013
-55.408
-55.801
-56.194
-56.587
-56.978
-57.367
-57.753
-58.135
-58.511
-58.879
-59.238
-59.583
-59.913
-60.224
-60.513
-60.775
-61.006
-61.201
-61.356
-61.466
-61.526
-61.531
-61.475
-61.355
-61.163
-60.896
-60.549
-60.116
-59.592
-58.974
-58.255
-57.434
-56.506
-55.468
-54.319
-53.056
-51.679
-50.188
-48.585
-46.871
-45.048
-43.121
-41.097
-38.98
-36.781
-34.506
-32.169
-29.781
-27.359
-24.919
-22.477
-20.051
-17.661
-15.327
-13.067
-10.899
-8.839
-6.906
-5.115
-3.486
-2.036
-0.786
0.248
1.049
1.603
1.896
1.92
1.672
1.153
0.362
-0.704
-2.057
-3.707
-5.659
-7.917
-10.477
-13.33
-16.453
-19.812
-23.35
-27.013
-30.744
-34.493
-38.223
-41.893
-45.458
-48.861
-52.028
-54.892
-57.391
-59.472
-61.079
-62.188
-62.821
-63.043
-62.976
-62.733
-62.391
-62.034
-61.764
-61.696
-61.962
-62.708
-64.031
-66.07
-69.078
-73.163
-78.253
-84.054
-89.878
-94.957
-98.692
-100.382
-99.167
-94.667
-87.044
-77.083
-66.661
-57.717
-51.544
-49.451
-52.684
-61.354
-74.266
-88.947
-100.949
-105.177
-97.235
-72.68
-26.79
42.256
131.942
238.481
355.82
479.729
613.143
756.414
901.761
1034.643
1130.083
1163.131
1124.875
1018.388
857.219
664.43
458.938
258.857
86.435
-42.308
-119.349
-147.285
-144.286
-131.316
-120.637
-116.939
-115.835
-110.523
-101.299
-91.151
-83.56
-82.263
-86.906
-95.01
-104.687
-113.34
-118.744
-120.255
-117.773
-111.755
-103.379
-93.747
-83.7
-74.235
-66.279
-60.277
-56.421
-54.643
-54.605
-56.027
-58.678
-62.275
-66.543
-71.259
-76.196
-81.146
-85.924
-90.316
-94.154
-97.332
-99.775
-101.461
-102.391
-102.589
-102.111
-101.033
-99.433
-97.38
-94.939
-92.175
-89.169
-86.012
-82.797
-79.616
-76.529
-73.576
-70.781
-68.15
-65.677
-63.342
-61.116
-58.957
-56.834
-54.72
-52.592
-50.43
-48.207
-45.896
-43.468
-40.897
-38.159
-35.236
-32.108
-28.761
-25.185
-21.372
-17.318
-13.023
-8.486
-3.705
1.321
6.59
12.101
17.847
23.821
30.015
36.415
43.007
49.773
56.69
63.738
70.892
78.126
85.413
92.724
100.029
107.298
114.499
121.599
128.565
135.365
141.965
148.331
154.431
160.234
165.708
170.824
175.555
179.874
183.758
187.185
190.135
192.592
194.54
195.969
196.868
197.231
197.053
196.335
195.077
193.286
190.968
188.133
184.795
180.968
176.671
171.923
166.745
161.162
155.198
148.882
142.242
135.309
128.113
120.687
113.063
105.275
97.356
89.339
81.257
73.14
65.022
56.931
48.897
40.949
33.112
25.411
17.872
10.514
3.36
-3.572
-10.266
-16.707
-22.88
-28.775
-34.382
-39.692
-44.699
-49.4
-53.79
-57.87
-61.64
-65.103
-68.264
-71.128
-73.704
-75.999
-78.023
-79.787
-81.302
-82.581
-83.636
-84.479
-85.123
-85.582
-85.869
-85.997
-85.979
-85.826
-85.553
-85.17
-84.689
-84.121
-83.476
-82.766
-81.999
-81.184
-80.332
-79.449
-78.544
-77.625
-76.696
-75.764
-74.834
-73.908
-72.991
-72.084
-71.189
-70.307
-69.438
-68.583
-67.741
-66.912
-66.096
-65.29
-64.495
-63.71
-62.933
-62.163
-61.399
-60.641
-59.888
-59.14
-58.397
-57.658
-56.923
-56.194
-55.47
-54.75
-54.035
-53.325
-52.62
-51.92
-51.226
-50.538
-49.859
-49.189
-48.53
-47.885
-47.257
-46.647
-46.058
-45.493
-44.954
-44.444
-43.966
-43.52
-43.111
-42.739
-42.407
-42.115
-41.866
-41.66
-41.497
-41.377
-41.299
-41.264
-41.27
-41.315
-41.4
-41.524
-41.685
-41.882
-42.115
-42.382
-42.683
-43.015
-43.377
-43.767
-44.181
-44.619
-45.076
-45.551
-46.041
-46.543
-47.054
-47.573
-48.097
-48.622
-49.147
-49.669
-50.187
-50.7
-51.204
-51.702
-52.191
-52.672
-53.147
-53.615
-54.078
-54.537
-54.992
-55.445
-55.895
-56.345
-56.793
-57.241
-57.69
-58.138
-58.588
-59.039
-59.49
-59.942
-60.394
-60.846
-61.297
-61.745
-62.19
-62.629
-63.062
-63.486
-63.9
-64.301
-64.687
-65.053
-65.396
-65.711
-65.993
-66.235
-66.431
-66.574
-66.657
-66.674
-66.618
-66.481
-66.257
-65.94
-65.523
-65.001
-64.367
-63.618
-62.748
-61.754
-60.634
-59.386
-58.01
-56.504
-54.871
-53.112
-51.231
-49.23
-47.114
-44.888
-42.558
-40.132
-37.619
-35.027
-32.37
-29.661
-26.917
-24.158
-21.401
-18.669
-15.983
-13.364
-10.835
-8.416
-6.125
-3.981
-2.001
-0.204
1.388
2.756
3.884
4.758
5.364
5.694
5.737
5.49
4.958
4.144
3.05
1.669
-0.02
-2.03
-4.364
-7.021
-9.99
-13.254
-16.794
-20.571
-24.525
-28.597
-32.725
-36.856
-40.957
-44.981
-48.864
-52.526
-55.862
-58.779
-61.214
-63.116
-64.455
-65.225
-65.444
-65.166
-64.492
-63.54
-62.434
-61.306
-60.285
-59.502
-59.095
-59.262
-60.288
-62.348
-65.444
-69.353
-73.582
-77.61
-81.011
-83.238
-83.568
-81.504
-76.976
-70.628
-63.877
-58.188
-54.673
-54.24
-57.689
-65.415
-76.94
-90.176
-101.652
-107.487
-103.738
-86.812
-53.376
0.036
74.57
167.08
273.031
386.951
504.955
629.16
759.913
890.622
1010.231
1098.938
1135.179
1110.329
1022.686
879.958
704.469
515.051
332.879
182.734
72.684
4.833
-27.634
-45.866
-61.197
-77.659
-94.862
-103.407
-100.525
-90.323
-77.63
-68.689
-66.006
-68.282
-73.999
-81.579
-89.576
-96.687
-101.402
-102.801
-100.916
-96.335
-89.972
-82.668
-75.108
-68.059
-62.311
-58.318
-56.192
-55.821
-56.907
-59.171
-62.412
-66.371
-70.769
-75.396
-80.042
-84.527
-88.706
-92.401
-95.475
-97.85
-99.475
-100.335
-100.452
-99.853
-98.597
-96.774
-94.46
-91.736
-88.676
-85.348
-81.833
-78.218
-74.589
-71.027
-67.59
-64.31
-61.208
-58.292
-55.553
-52.976
-50.534
-48.187
-45.906
-43.664
-41.439
-39.207
-36.943
-34.617
-32.202
-29.671
-27.001
-24.171
-21.163
-17.96
-14.551
-10.925
-7.078
-3.005
1.297
5.835
10.61
15.625
20.879
26.371
32.095
38.044
44.208
50.574
57.124
63.838
70.696
77.674
84.745
91.882
99.056
106.235
113.388
120.482
127.483
134.357
141.069
147.586
153.874
159.9
165.632
171.039
176.092
180.763
185.027
188.86
192.239
195.144
197.559
199.469
200.86
201.723
202.051
201.839
201.087
199.795
197.969
195.617
192.748
189.377
185.519
181.192
176.418
171.22
165.623
159.654
153.341
146.714
139.803
132.642
125.262
117.695
109.974
102.132
94.201
86.214
78.2
70.191
62.216
54.304
46.482
38.775
31.209
23.806
16.588
9.575
2.785
-3.765
-10.06
-16.087
-21.836
-27.297
-32.463
-37.33
-41.895
-46.155
-50.113
-53.77
-57.13
-60.199
-62.985
-65.494
-67.737
-69.722
-71.463
-72.968
-74.253
-75.327
-76.205
-76.9
-77.424
-77.791
-78.013
-78.102
-78.072
-77.935
-77.702
-77.386
-76.997
-76.547
-76.047
-75.505
-74.931
-74.334
-73.721
-73.1
-72.475
-71.852
-71.236
-70.628
-70.033
-69.452
-68.889
-68.34
-67.804
-67.279
-66.761
-66.251
-65.749
-65.248
-64.738
-64.228
-63.727
-63.238
-62.773
-62.317
-61.844
-61.369
-60.911
-60.42
-59.861
-59.204
-58.405
-57.499
-56.553
-55.529
-54.356
-53.218
-52.335
-51.576
-50.956
-50.519
-49.798
-50.061
-52.541
-55.485
-58.364
-57.955
-50.397
-39.974
-29.542
-23.348
-27.231
-36.036
-45.396
-52.318
-51.854
-47.549
-42.991
-38.98
-37.705
-37.897
-37.923
-38.095
-38.204
-38.356
-38.882
-39.56
-40.216
-40.903
-41.628
-42.366
-43.117
-43.887
-44.677
-45.511
-46.421
-47.383
-48.376
-49.398
-50.44
-51.496
-52.56
-53.62
-54.666
-55.691
-56.692
-57.662
-58.596
-59.489
-60.335
-61.13
-61.872
-62.558
-63.186
-63.755
-64.264
-64.714
-65.104
-65.437
-65.714
-65.938
-66.113
-66.241
-66.326
-66.374
-66.388
-66.373
-66.335
-66.277
-66.205
-66.123
-66.036
-65.948
-65.863
-65.784
-65.716
-65.66
-65.619
-65.594
-65.586
-65.594
-65.617
-65.654
-65.7
-65.751
-65.803
-65.849
-65.885
-65.902
-65.893
-65.851
-65.765
-65.628
-65.43
-65.162
-64.814
-64.375
-63.838
-63.193
-62.432
-61.55
-60.539
-59.394
-58.11
-56.685
-55.116
-53.404
-51.546
-49.546
-47.406
-45.132
-42.73
-40.208
-37.578
-34.852
-32.048
-29.185
-26.281
-23.36
-20.442
-17.554
-14.717
-11.957
-9.294
-6.75
-4.346
-2.105
-0.054
1.784
3.388
4.738
5.815
6.604
7.088
7.258
7.112
6.65
5.868
4.757
3.292
1.458
-0.749
-3.329
-6.273
-9.566
-13.188
-17.101
-21.24
-25.541
-29.935
-34.367
-38.798
-43.18
-47.449
-51.522
-55.293
-58.67
-61.592
-64.007
-65.876
-67.188
-67.956
-68.24
-68.151
-67.818
-67.367
-66.929
-66.632
-66.597
-66.923
-67.784
-69.424
-72.012
-75.606
-80.03
-84.826
-89.556
-93.885
-97.3
-99.12
-98.735
-95.749
-90.561
-84.448
-78.598
-73.795
-70.946
-71.049
-74.764
-82.537
-92.079
-98.106
-97.498
-88.358
-70.485
-47.091
-14.089
37.039
110.972
213.662
340.787
479.756
624.65
767.564
902.166
1023.636
1117.545
1166.932
1158.572
1086.632
955.243
779.891
583.448
387.567
215.224
82.889
-7.28
-59.529
-86.918
-105.487
-121.333
-135.421
-144.851
-144.363
-134.574
-119.343
-102.656
-88.614
-78.705
-72.61
-69.52
-68.133
-67.549
-67.435
-67.725
-68.574
-69.831
-70.971
-71.923
-72.883
-73.988
-75.237
-76.275
-76.755
-76.877
-77.299
-78.409
-80.298
-82.911
-86.114
-89.996
-94.614
-99.667
-104.586
-108.908
-112.381
-114.934
-116.635
-117.467
-117.384
-116.447
-114.788
-112.562
-109.891
-106.843
-103.438
-99.726
-95.796
-91.754
-87.713
-83.75
-79.907
-76.213
-72.68
-69.318
-66.126
-63.086
-60.168
-57.347
-54.605
-51.929
-49.311
-46.736
-44.183
-41.626
-39.034
-36.382
-33.65
-30.821
-27.876
-24.803
-21.589
-18.224
-14.704
-11.019
-7.16
-3.116
1.122
5.562
10.211
15.071
20.145
25.431
30.925
36.619
42.503
48.565
54.792
61.167
67.671
74.284
80.983
87.745
94.542
101.348
108.134
114.868
121.52
128.059
134.453
140.668
146.674
152.437
157.927
163.115
167.969
172.462
176.568
180.26
183.515
186.311
188.63
190.453
191.768
192.561
192.825
192.553
191.745
190.399
188.521
186.116
183.193
179.766
175.848
171.458
166.615
161.34
155.659
149.597
143.182
136.443
129.411
122.117
114.594
106.875
98.992
90.98
82.872
74.702
66.504
58.31
50.152
42.062
34.071
26.207
18.498
10.97
3.647
-3.448
-10.296
-16.877
-23.177
-29.182
-34.879
-40.26
-45.317
-50.046
-54.442
-58.506
-62.237
-65.638
-68.713
-71.469
-73.911
-76.049
-77.891
-79.448
-80.732
-81.754
-82.529
-83.068
-83.388
-83.501
-83.425
-83.175
-82.765
-82.213
-81.533
-80.74
-79.85
-78.877
-77.834
-76.735
-75.591
-74.414
-73.215
-72.003
-70.787
-69.576
-68.375
-67.191
-66.03
-64.897
-63.795
-62.728
-61.699
-60.71
-59.763
-58.86
-58.003
-57.191
-56.426
-55.706
-55.032
-54.402
-53.814
-53.267
-52.759
-52.286
-51.846
-51.436
-51.053
-50.693
-50.354
-50.033
-49.726
-49.431
-49.145
-48.866
-48.592
-48.322
-48.053
-47.785
-47.516
-47.247
-46.975
-46.701
-46.423
-46.142
-45.856
-45.566
-45.271
-44.97
-44.662
-44.349
-44.03
-43.706
-43.376
-43.042
-42.706
-42.368
-42.03
-41.694
-41.362
-41.037
-40.721
-40.417
-40.126
-39.852
-39.597
-39.363
-39.152
-38.965
-38.806
-38.674
-38.572
-38.5
-38.46
-38.453
-38.479
-38.54
-38.636
-38.769
-38.939
-39.147
-39.394
-39.68
-40.007
-40.373
-40.78
-41.226
-41.711
-42.235
-42.796
-43.392
-44.021
-44.681
-45.369
-46.083
-46.819
-47.575
-48.347
-49.132
-49.929
-50.733
-51.543
-52.355
-53.167
-53.976
-54.781
-55.577
-56.362
-57.133
-57.888
-58.622
-59.333
-60.017
-60.67
-61.287
-61.866
-62.402
-62.89
-63.327
-63.708
-64.029
-64.287
-64.478
-64.598
-64.644
-64.614
-64.506
-64.316
-64.043
-63.684
-63.236
-62.697
-62.064
-61.335
-60.508
-59.579
-58.548
-57.413
-56.173
-54.827
-53.376
-51.82
-50.161
-48.401
-46.543
-44.59
-42.548
-40.423
-38.222
-35.953
-33.626
-31.253
-28.847
-26.424
-23.995
-21.578
-19.183
-16.828
-14.529
-12.304
-10.171
-8.147
-6.248
-4.491
-2.895
-1.481
-0.264
0.741
1.529
2.09
2.413
2.489
2.305
1.863
1.165
0.215
-0.987
-2.444
-4.156
-6.113
-8.3
-10.699
-13.292
-16.059
-18.975
-22.007
-25.117
-28.258
-31.382
-34.457
-37.456
-40.357
-43.153
-45.807
-48.263
-50.465
-52.347
-53.879
-55.099
-56.018
-56.613
-56.954
-57.172
-57.563
-58.626
-60.639
-63.577
-67.355
-71.86
-76.954
-82.472
-87.753
-91.501
-92.755
-91.143
-86.752
-80.022
-71.202
-60.45
-48.665
-37.802
-29.949
-26.678
-28.498
-35.073
-46.528
-62.829
-83.038
-105.165
-124.238
-135.028
-135.636
-123.332
-97.908
-60.006
-2.63
76.85
177.707
299.715
431.502
565.005
699.828
831.555
956.706
1065.202
1134.729
1145.056
1087.317
963.731
789.524
588.861
381.64
186.593
24.06
-94.432
-164.219
-189.153
-186.502
-173.315
-158.426
-145.78
-132.141
-113.252
-91.882
-71.762
-55.782
-47.292
-46.162
-50.51
-59.38
-70.282
-79.86
-86.712
-90.46
-91.068
-89.416
-86.031
-80.703
-74.244
-68.271
-63.657
-60.883
-60.07
-60.734
-62.703
-66.192
-70.961
-76.446
-82.209
-87.8
-92.942
-97.616
-101.712
-105.057
-107.585
-109.289
-110.196
-110.393
-109.945
-108.88
-107.25
-105.105
-102.507
-99.534
-96.269
-92.8
-89.216
-85.602
-82.019
-78.508
-75.099
-71.81
-68.645
-65.595
-62.641
-59.754
-56.913
-54.105
-51.314
-48.524
-45.711
-42.85
-39.917
-36.892
-33.758
-30.496
-27.093
-23.535
-19.813
-15.922
-11.86
-7.624
-3.213
1.379
6.153
11.111
16.253
21.578
27.082
32.764
38.615
44.628
50.79
57.088
63.508
70.033
76.645
83.324
90.048
96.794
103.538
110.255
116.915
123.492
129.955
136.275
142.423
148.367
154.079
159.529
164.689
169.534
174.036
178.172
181.919
185.256
188.164
190.626
192.626
194.151
195.189
195.732
195.774
195.311
194.341
192.865
190.888
188.414
185.452
182.014
178.111
173.76
168.978
163.785
158.203
152.258
145.974
139.38
132.505
125.379
118.033
110.499
102.808
94.993
87.084
79.113
71.111
63.107
55.131
47.212
39.375
31.648
24.054
16.618
9.36
2.301
-4.54
-11.145
-17.5
-23.59
-29.403
-34.928
-40.156
-45.08
-49.696
-54
-57.991
-61.67
-65.04
-68.105
-70.87
-73.344
-75.534
-77.452
-79.107
-80.51
-81.674
-82.611
-83.333
-83.854
-84.186
-84.341
-84.332
-84.173
-83.874
-83.447
-82.905
-82.258
-81.517
-80.693
-79.795
-78.833
-77.818
-76.757
-75.66
-74.534
-73.387
-72.227
-71.057
-69.886
-68.715
-67.551
-66.395
-65.251
-64.12
-63.004
-61.905
-60.823
-59.759
-58.714
-57.688
-56.681
-55.695
-54.73
-53.787
-52.867
-51.969
-51.097
-50.251
-49.432
-48.641
-47.88
-47.15
-46.452
-45.787
-45.155
-44.558
-43.995
-43.467
-42.975
-42.519
-42.098
-41.715
-41.368
-41.059
-40.787
-40.554
-40.36
-40.205
-40.089
-40.013
-39.975
-39.976
-40.015
-40.091
-40.202
-40.348
-40.527
-40.737
-40.975
-41.239
-41.527
-41.835
-42.162
-42.505
-42.861
-43.228
-43.603
-43.984
-44.369
-44.756
-45.144
-45.53
-45.914
-46.293
-46.666
-47.033
-47.391
-47.74
-48.079
-48.407
-48.724
-49.03
-49.323
-49.605
-49.876
-50.136
-50.387
-50.629
-50.864
-51.094
-51.32
-51.546
-51.773
-52.004
-52.241
-52.487
-52.743
-53.014
-53.3
-53.604
-53.927
-54.272
-54.639
-55.03
-55.446
-55.887
-56.354
-56.846
-57.364
-57.906
-58.471
-59.059
-59.667
-60.292
-60.933
-61.587
-62.249
-62.917
-63.586
-64.25
-64.905
-65.544
-66.161
-66.748
-67.298
-67.803
-68.256
-68.649
-68.973
-69.221
-69.385
-69.457
-69.43
-69.296
-69.049
-68.682
-68.189
-67.565
-66.806
-65.908
-64.868
-63.685
-62.358
-60.887
-59.274
-57.52
-55.63
-53.605
-51.453
-49.179
-46.792
-44.301
-41.717
-39.052
-36.322
-33.547
-30.743
-27.931
-25.133
-22.369
-19.662
-17.035
-14.505
-12.091
-9.811
-7.685
-5.733
-3.976
-2.432
-1.118
-0.052
0.754
1.285
1.533
1.498
1.18
0.581
-0.305
-1.493
-2.997
-4.824
-6.977
-9.454
-12.243
-15.326
-18.669
-22.215
-25.902
-29.667
-33.453
-37.216
-40.911
-44.479
-47.851
-50.944
-53.675
-55.982
-57.808
-59.103
-59.861
-60.104
-59.906
-59.39
-58.666
-57.86
-57.107
-56.525
-56.248
-56.403
-57.084
-58.462
-60.794
-64.189
-68.677
-74.141
-80.134
-86.2
-91.912
-96.523
-99.175
-99.366
-96.773
-91.53
-84.789
-77.84
-71.775
-68.339
-68.199
-69.852
-72.063
-73.048
-72.43
-74.364
-80.582
-87.375
-84.997
-56.057
13.066
124.219
269.1
431.292
595.286
753.294
901.205
1031.128
1131.034
1185.991
1180.527
1112.354
988.048
815.776
614.22
401.503
197.572
31.381
-80.086
-133.364
-137.197
-116.798
-94.418
-79.78
-74.769
-72.964
-67.875
-60.455
-53.889
-51.338
-55.272
-64.525
-76.316
-88.341
-98.329
-104.649
-106.879
-105.271
-100.494
-93.656
-85.876
-78.029
-70.948
-65.353
-61.56
-59.614
-59.395
-60.603
-62.944
-66.189
-70.08
-74.367
-78.881
-83.448
-87.886
-92.032
-95.696
-98.733
-101.069
-102.661
-103.492
-103.571
-102.93
-101.626
-99.746
-97.368
-94.564
-91.403
-87.949
-84.282
-80.493
-76.675
-72.916
-69.279
-65.804
-62.515
-59.424
-56.529
-53.818
-51.265
-48.834
-46.497
-44.229
-42.011
-39.82
-37.631
-35.413
-33.139
-30.779
-28.309
-25.704
-22.944
-20.009
-16.886
-13.561
-10.026
-6.276
-2.302
1.901
6.34
11.02
15.944
21.112
26.523
32.173
38.055
44.158
50.469
56.973
63.649
70.479
77.438
84.501
91.642
98.83
106.036
113.226
120.367
127.422
134.357
141.135
147.719
154.074
160.163
165.952
171.408
176.499
181.194
185.466
189.288
192.636
195.488
197.824
199.629
200.889
201.592
201.732
201.304
200.308
198.745
196.622
193.946
190.73
186.988
182.738
177.998
172.793
167.148
161.09
154.649
147.857
140.748
133.356
125.718
117.869
109.848
101.691
93.435
85.116
76.771
68.436
60.144
51.929
43.823
35.856
28.057
20.452
13.065
5.92
-0.965
-7.571
-13.882
-19.886
-25.572
-30.93
-35.954
-40.64
-44.985
-48.991
-52.659
-55.994
-59.002
-61.692
-64.074
-66.16
-67.961
-69.493
-70.768
-71.803
-72.613
-73.215
-73.625
-73.859
-73.934
-73.868
-73.674
-73.37
-72.97
-72.487
-71.935
-71.327
-70.673
-69.984
-69.269
-68.537
-67.797
-67.054
-66.316
-65.587
-64.871
-64.173
-63.494
-62.837
-62.201
-61.588
-60.995
-60.424
-59.871
-59.336
-58.816
-58.31
-57.816
-57.33
-56.852
-56.378
-55.906
-55.435
-54.963
-54.489
-54.012
-53.531
-53.048
-52.561
-52.071
-51.58
-51.089
-50.601
-50.116
-49.636
-49.163
-48.699
-48.245
-47.805
-47.379
-46.968
-46.575
-46.201
-45.849
-45.52
-45.219
-44.944
-44.696
-44.473
-44.275
-44.1
-43.948
-43.818
-43.706
-43.611
-43.534
-43.476
-43.438
-43.418
-43.412
-43.413
-43.414
-43.414
-43.417
-43.426
-43.443
-43.467
-43.499
-43.542
-43.602
-43.679
-43.767
-43.859
-43.943
-44.017
-44.087
-44.163
-44.262
-44.38
-44.494
-44.579
-44.603
-44.561
-44.49
-44.402
-44.293
-44.165
-43.982
-43.778
-43.693
-43.689
-43.58
-43.208
-42.34
-40.999
-39.569
-38.196
-36.759
-35.474
-34.726
-34.966
-36.926
-40.614
-45.161
-50.108
-55.336
-60.434
-65.003
-68.424
-69.588
-68.414
-65.94
-62.786
-59.324
-55.985
-52.918
-50.581
-49.925
-51.056
-53.238
-55.989
-58.901
-61.7
-64.468
-67.044
-68.962
-70.148
-70.864
-71.299
-71.668
-72.053
-72.313
-72.421
-72.451
-72.403
-72.251
-71.961
-71.47
-70.763
-69.884
-68.861
-67.71
-66.44
-65.034
-63.489
-61.808
-59.995
-58.056
-55.997
-53.821
-51.534
-49.14
-46.647
-44.064
-41.4
-38.664
-35.867
-33.019
-30.134
-27.235
-24.344
-21.482
-18.67
-15.926
-13.27
-10.719
-8.293
-6.011
-3.894
-1.961
-0.233
1.273
2.54
3.553
4.299
4.767
4.955
4.862
4.486
3.819
2.844
1.546
-0.083
-2.048
-4.347
-6.968
-9.896
-13.102
-16.537
-20.15
-23.888
-27.697
-31.541
-35.379
-39.161
-42.825
-46.285
-49.452
-52.258
-54.643
-56.559
-57.996
-58.963
-59.508
-59.734
-59.734
-59.611
-59.484
-59.468
-59.692
-60.268
-61.3
-62.954
-65.476
-69.041
-73.686
-79.197
-85.119
-91.013
-96.448
-100.84
-103.48
-103.715
-101.215
-96.501
-90.689
-84.737
-79.778
-77.022
-77.273
-81.517
-89.108
-96.183
-100.041
-99.104
-92.913
-84.328
-69.574
-38.495
18.713
110.944
233.756
372.022
511.863
642.241
764.754
885.698
1001.458
1101.324
1163.601
1165.125
1099.531
972.067
797.034
597.912
393.918
201.566
41.874
-70.234
-130.298
-141.373
-120.633
-92.617
-70.432
-60.933
-64.444
-69.776
-73.124
-74.392
-71.735
-70.945
-74.46
-80.662
-89.699
-98.268
-103.248
-104.458
-101.886
-96.278
-89.044
-81.039
-72.913
-65.542
-59.682
-55.679
-53.62
-53.423
-54.798
-57.477
-61.271
-65.886
-71.029
-76.5
-82.084
-87.582
-92.824
-97.599
-101.744
-105.17
-107.819
-109.668
-110.729
-111.017
-110.583
-109.508
-107.868
-105.737
-103.189
-100.288
-97.118
-93.772
-90.342
-86.92
-83.57
-80.328
-77.22
-74.254
-71.426
-68.726
-66.127
-63.595
-61.103
-58.629
-56.154
-53.66
-51.125
-48.523
-45.828
-43.017
-40.066
-36.959
-33.679
-30.212
-26.548
-22.681
-18.604
-14.318
-9.818
-5.102
-0.166
4.993
10.375
15.976
21.794
27.823
34.054
40.474
47.07
53.823
60.714
67.725
74.83
82.007
89.23
96.47
103.7
110.89
118.007
125.021
131.897
138.604
145.108
151.376
157.375
163.074
168.442
173.449
178.068
182.271
186.034
189.333
192.148
194.461
196.255
197.517
198.238
198.41
198.029
197.094
195.607
193.574
191.003
187.903
184.29
180.179
175.589
170.541
165.059
159.169
152.898
146.275
139.332
132.102
124.617
116.911
109.021
100.979
92.823
84.587
76.306
68.015
59.747
51.534
43.41
35.403
27.542
19.853
12.362
5.09
-1.942
-8.716
-15.216
-21.429
-27.343
-32.949
-38.24
-43.212
-47.861
-52.188
-56.193
-59.881
-63.256
-66.326
-69.099
-71.585
-73.793
-75.737
-77.428
-78.88
-80.107
-81.123
-81.943
-82.581
-83.054
-83.375
-83.559
-83.62
-83.571
-83.426
-83.197
-82.893
-82.527
-82.105
-81.638
-81.132
-80.593
-80.028
-79.44
-78.833
-78.21
-77.574
-76.924
-76.262
-75.588
-74.901
-74.201
-73.486
-72.756
-72.009
-71.245
-70.463
-69.662
-68.841
-68.001
-67.14
-66.259
-65.359
-64.44
-63.502
-62.548
-61.579
-60.598
-59.608
-58.612
-57.614
-56.619
-55.63
-54.652
-53.69
-52.749
-51.835
-50.952
-50.106
-49.302
-48.546
-47.843
-47.196
-46.611
-46.092
-45.64
-45.259
-44.95
-44.714
-44.551
-44.461
-44.443
-44.495
-44.616
-44.803
-45.052
-45.36
-45.723
-46.137
-46.595
-47.093
-47.625
-48.185
-48.766
-49.363
-49.969
-50.578
-51.184
-51.782
-52.366
-52.929
-53.467
-53.974
-54.446
-54.879
-55.269
-55.613
-55.909
-56.156
-56.353
-56.501
-56.6
-56.652
-56.659
-56.624
-56.55
-56.441
-56.301
-56.134
-55.945
-55.741
-55.526
-55.307
-55.09
-54.881
-54.686
-54.511
-54.361
-54.243
-54.16
-54.118
-54.121
-54.173
-54.278
-54.44
-54.661
-54.944
-55.29
-55.699
-56.172
-56.707
-57.302
-57.955
-58.662
-59.418
-60.219
-61.06
-61.934
-62.834
-63.754
-64.684
-65.617
-66.543
-67.451
-68.331
-69.172
-69.964
-70.698
-71.361
-71.945
-72.441
-72.837
-73.126
-73.299
-73.347
-73.262
-73.037
-72.665
-72.139
-71.456
-70.611
-69.602
-68.426
-67.084
-65.577
-63.907
-62.076
-60.089
-57.951
-55.668
-53.25
-50.707
-48.048
-45.289
-42.444
-39.531
-36.57
-33.583
-30.589
-27.612
-24.675
-21.8
-19.011
-16.326
-13.764
-11.346
-9.09
-7.018
-5.15
-3.507
-2.104
-0.96
-0.088
0.499
0.791
0.789
0.494
-0.095
-0.981
-2.177
-3.697
-5.545
-7.723
-10.229
-13.048
-16.162
-19.538
-23.121
-26.855
-30.682
-34.552
-38.427
-42.269
-46.03
-49.653
-53.057
-56.168
-58.924
-61.27
-63.155
-64.562
-65.497
-66.019
-66.236
-66.24
-66.126
-65.991
-65.932
-66.082
-66.564
-67.469
-68.945
-71.195
-74.366
-78.528
-83.511
-88.808
-93.875
-98.203
-101.145
-101.999
-100.184
-95.392
-88.147
-79.89
-72.144
-66.123
-63.18
-64.662
-71.338
-83.5
-98.468
-110.467
-115.845
-111.93
-97.772
-75.933
-41.658
13.456
93.871
205.41
342.687
492.406
646.752
794.528
928.198
1041.007
1118.424
1149.086
1123.02
1038.849
905.772
732.507
534.766
329.754
133.111
-32.319
-149.98
-215.907
-231.566
-207.816
-161.838
-105.342
-51.875
-17.624
-7.607
-21.927
-52.922
-82.956
-102.803
-110.133
-107.36
-103.086
-100.747
-99.534
-98.233
-94.243
-87.258
-78.918
-70.339
-62.663
-56.734
-52.65
-50.443
-50.041
-51.108
-53.372
-56.636
-60.7
-65.357
-70.419
-75.673
-80.898
-85.905
-90.492
-94.49
-97.786
-100.302
-102.012
-102.919
-103.053
-102.47
-101.242
-99.444
-97.144
-94.406
-91.294
-87.89
-84.287
-80.58
-76.862
-73.202
-69.642
-66.214
-62.929
-59.785
-56.773
-53.864
-51.027
-48.236
-45.47
-42.712
-39.947
-37.155
-34.312
-31.395
-28.383
-25.255
-21.996
-18.591
-15.027
-11.297
-7.394
-3.316
0.937
5.368
9.98
14.776
19.758
24.927
30.282
35.821
41.541
47.435
53.494
59.707
66.06
72.538
79.124
85.798
92.54
99.328
106.138
112.944
119.721
126.442
133.078
139.601
145.982
152.191
158.201
163.981
169.504
174.743
179.67
184.262
188.494
192.343
195.788
198.809
201.388
203.509
205.158
206.321
206.989
207.154
206.81
205.956
204.59
202.716
200.339
197.465
194.105
190.273
185.983
181.253
176.102
170.552
164.628
158.353
151.756
144.864
137.706
130.311
122.711
114.936
107.016
98.984
90.869
82.702
74.515
66.335
58.194
50.119
42.139
34.279
26.566
19.025
11.679
4.549
-2.345
-8.982
-15.349
-21.428
-27.209
-32.681
-37.835
-42.666
-47.17
-51.345
-55.191
-58.712
-61.91
-64.792
-67.363
-69.633
-71.611
-73.308
-74.733
-75.901
-76.822
-77.512
-77.982
-78.248
-78.324
-78.225
-77.966
-77.561
-77.028
-76.38
-75.634
-74.804
-73.905
-72.952
-71.958
-70.937
-69.899
-68.857
-67.819
-66.795
-65.791
-64.814
-63.869
-62.96
-62.089
-61.26
-60.472
-59.728
-59.025
-58.365
-57.745
-57.165
-56.622
-56.114
-55.639
-55.195
-54.778
-54.386
-54.015
-53.662
-53.322
-52.992
-52.667
-52.343
-52.014
-51.676
-51.324
-50.955
-50.564
-50.148
-49.704
-49.229
-48.724
-48.186
-47.616
-47.014
-46.381
-45.719
-45.031
-44.318
-43.583
-42.829
-42.059
-41.276
-40.482
-39.682
-38.877
-38.071
-37.266
-36.466
-35.674
-34.893
-34.125
-33.376
-32.648
-31.946
-31.275
-30.638
-30.042
-29.49
-28.987
-28.537
-28.145
-27.813
-27.546
-27.344
-27.211
-27.147
-27.153
-27.229
-27.375
-27.59
-27.874
-28.224
-28.64
-29.121
-29.665
-30.269
-30.933
-31.654
-32.432
-33.263
-34.146
-35.08
-36.06
-37.084
-38.149
-39.25
-40.384
-41.544
-42.724
-43.919
-45.12
-46.323
-47.518
-48.699
-49.859
-50.99
-52.086
-53.142
-54.151
-55.107
-56.006
-56.842
-57.611
-58.308
-58.929
-59.469
-59.924
-60.29
-60.563
-60.739
-60.813
-60.783
-60.643
-60.391
-60.024
-59.538
-58.931
-58.202
-57.351
-56.377
-55.282
-54.07
-52.741
-51.301
-49.754
-48.107
-46.367
-44.541
-42.636
-40.659
-38.621
-36.531
-34.395
-32.223
-30.022
-27.802
-25.58
-23.369
-21.188
-19.05
-16.974
-14.973
-13.068
-11.274
-9.601
-8.059
-6.653
-5.394
-4.298
-3.383
-2.663
-2.148
-1.841
-1.738
-1.841
-2.149
-2.65
-3.334
-4.19
-5.218
-6.434
-7.861
-9.515
-11.4
-13.511
-15.826
-18.316
-20.952
-23.701
-26.546
-29.476
-32.462
-35.456
-38.391
-41.193
-43.797
-46.148
-48.146
-49.643
-50.586
-51.071
-51.372
-51.824
-52.576
-53.497
-54.43
-55.429
-56.51
-57.489
-57.81
-56.729
-54.095
-50.619
-47.324
-44.83
-43.402
-43.17
-44.709
-49.027
-56.358
-65.686
-75.349
-84.021
-91.32
-97.709
-103.32
-107.462
-109.817
-111.053
-112.504
-115.499
-118.654
-117.724
-109.212
-91.675
-68.354
-44.486
-19.754
12.382
64.995
149.212
263.752
397.868
532.856
653.773
759.985
853.826
937.99
1008.419
1043.912
1024.356
937.98
781.091
573.222
345.172
127.242
-47.254
-161.803
-217.805
-224.15
-201.51
-166.318
-127.781
-95.323
-71.671
-60.606
-63.4
-72.865
-83.73
-90.049
-89.679
-87.895
-87.366
-89.167
-92.547
-93.814
-91.731
-86.969
-80.413
-73.52
-67.147
-61.622
-57.506
-55.155
-54.563
-55.541
-57.751
-60.903
-64.802
-69.247
-74.002
-78.811
-83.452
-87.751
-91.566
-94.784
-97.326
-99.141
-100.209
-100.543
-100.181
-99.179
-97.613
-95.559
-93.083
-90.251
-87.129
-83.793
-80.328
-76.82
-73.348
-69.965
-66.708
-63.6
-60.651
-57.861
-55.22
-52.702
-50.277
-47.922
-45.615
-43.339
-41.077
-38.805
-36.501
-34.139
-31.698
-29.158
-26.499
-23.706
-20.762
-17.655
-14.376
-10.916
-7.271
-3.432
0.606
4.851
9.307
13.976
18.859
23.956
29.263
34.773
40.478
46.367
52.424
58.634
64.979
71.437
77.987
84.604
91.262
97.934
104.59
111.201
117.736
124.164
130.453
136.571
142.487
148.169
153.585
158.705
163.5
167.941
172.001
175.656
178.882
181.657
183.964
185.786
187.109
187.922
188.217
187.989
187.234
185.953
184.15
181.831
179.005
175.685
171.885
167.623
162.919
157.796
152.276
146.387
140.156
133.611
126.784
119.705
112.406
104.92
97.279
89.517
81.668
73.763
65.835
57.917
50.038
42.228
34.515
26.927
19.488
12.223
5.153
-1.7
-8.318
-14.684
-20.784
-26.604
-32.133
-37.364
-42.29
-46.906
-51.211
-55.204
-58.887
-62.261
-65.332
-68.104
-70.586
-72.785
-74.71
-76.372
-77.78
-78.949
-79.888
-80.612
-81.132
-81.463
-81.616
-81.605
-81.443
-81.142
-80.715
-80.174
-79.53
-78.796
-77.983
-77.101
-76.16
-75.172
-74.143
-73.083
-71.998
-70.896
-69.783
-68.664
-67.543
-66.427
-65.317
-64.219
-63.135
-62.068
-61.021
-59.995
-58.993
-58.015
-57.064
-56.14
-55.246
-54.38
-53.547
-52.745
-51.977
-51.244
-50.546
-49.884
-49.259
-48.671
-48.121
-47.607
-47.131
-46.692
-46.29
-45.924
-45.595
-45.303
-45.047
-44.826
-44.64
-44.489
-44.371
-44.284
-44.229
-44.203
-44.205
-44.235
-44.289
-44.367
-44.468
-44.589
-44.728
-44.884
-45.054
-45.237
-45.429
-45.629
-45.835
-46.046
-46.26
-46.476
-46.694
-46.912
-47.131
-47.349
-47.568
-47.788
-48.008
-48.228
-48.451
-48.677
-48.908
-49.145
-49.39
-49.645
-49.911
-50.191
-50.487
-50.8
-51.132
-51.485
-51.859
-52.257
-52.679
-53.127
-53.602
-54.104
-54.632
-55.188
-55.769
-56.375
-57.003
-57.651
-58.316
-58.994
-59.682
-60.376
-61.071
-61.762
-62.443
-63.109
-63.755
-64.371
-64.952
-65.49
-65.977
-66.406
-66.769
-67.06
-67.271
-67.394
-67.424
-67.353
-67.177
-66.889
-66.483
-65.955
-65.301
-64.519
-63.607
-62.562
-61.385
-60.077
-58.641
-57.08
-55.398
-53.6
-51.692
-49.682
-47.578
-45.389
-43.127
-40.801
-38.427
-36.02
-33.598
-31.18
-28.784
-26.43
-24.137
-21.925
-19.813
-17.815
-15.945
-14.218
-12.649
-11.256
-10.055
-9.06
-8.282
-7.733
-7.42
-7.352
-7.53
-7.945
-8.593
-9.469
-10.576
-11.931
-13.548
-15.429
-17.574
-19.977
-22.622
-25.492
-28.556
-31.757
-35.043
-38.361
-41.667
-44.94
-48.146
-51.236
-54.146
-56.79
-59.087
-60.981
-62.421
-63.375
-63.838
-63.83
-63.403
-62.652
-61.674
-60.573
-59.468
-58.469
-57.699
-57.274
-57.353
-58.2
-59.996
-62.781
-66.384
-70.32
-74.004
-76.937
-78.535
-78.077
-75.127
-69.622
-62.198
-54.499
-48.365
-45.361
-46.859
-53.841
-66.598
-84.552
-105.481
-125.312
-139.401
-142.937
-131.346
-100.87
-48.17
27.286
121.794
230.126
345.651
465.518
592.057
722.393
848.745
953.895
1012.636
1012.378
951.67
841.654
704.433
552.016
392.941
236.696
91.889
-25.722
-104.516
-145.411
-158.619
-158.056
-153.549
-147.445
-136.301
-119.19
-99.464
-81.295
-69.251
-65.025
-67.116
-73.634
-82.587
-91.555
-98.462
-102.165
-102.196
-98.975
-93.546
-86.804
-79.509
-72.577
-66.872
-62.882
-60.813
-60.538
-61.695
-63.994
-67.19
-71.019
-75.226
-79.59
-83.914
-88.012
-91.723
-94.918
-97.493
-99.387
-100.574
-101.04
-100.793
-99.886
-98.39
-96.381
-93.938
-91.121
-87.986
-84.607
-81.069
-77.461
-73.878
-70.384
-67.018
-63.812
-60.784
-57.939
-55.275
-52.768
-50.383
-48.095
-45.879
-43.718
-41.597
-39.491
-37.374
-35.218
-32.998
-30.691
-28.277
-25.735
-23.047
-20.197
-17.173
-13.966
-10.569
-6.974
-3.171
0.847
5.089
9.56
14.264
19.201
24.373
29.776
35.403
41.244
47.286
53.513
59.91
66.456
73.129
79.904
86.756
93.657
100.578
107.488
114.355
121.145
127.827
134.365
140.726
146.877
152.783
158.412
163.733
168.714
173.327
177.544
181.338
184.685
187.563
189.952
191.834
193.196
194.023
194.309
194.046
193.234
191.872
189.964
187.519
184.546
181.059
177.074
172.609
167.687
162.332
156.568
150.424
143.93
137.117
130.017
122.664
115.093
107.336
99.431
91.411
83.311
75.165
67.009
58.875
50.795
42.801
34.923
27.19
19.63
12.267
5.126
-1.773
-8.409
-14.767
-20.83
-26.587
-32.028
-37.144
-41.931
-46.384
-50.503
-54.288
-57.742
-60.87
-63.679
-66.175
-68.369
-70.27
-71.891
-73.243
-74.341
-75.197
-75.826
-76.244
-76.465
-76.506
-76.381
-76.107
-75.699
-75.173
-74.544
-73.827
-73.035
-72.182
-71.281
-70.343
-69.379
-68.4
-67.415
-66.431
-65.457
-64.498
-63.56
-62.647
-61.763
-60.911
-60.091
-59.307
-58.558
-57.846
-57.169
-56.527
-55.92
-55.346
-54.804
-54.292
-53.808
-53.35
-52.915
-52.501
-52.106
-51.727
-51.362
-51.008
-50.664
-50.327
-49.995
-49.667
-49.342
-49.019
-48.696
-48.374
-48.052
-47.73
-47.409
-47.09
-46.774
-46.463
-46.158
-45.861
-45.572
-45.295
-45.031
-44.782
-44.548
-44.332
-44.136
-43.961
-43.809
-43.682
-43.58
-43.505
-43.459
-43.442
-43.454
-43.498
-43.572
-43.679
-43.817
-43.987
-44.189
-44.422
-44.687
-44.981
-45.305
-45.656
-46.034
-46.435
-46.859
-47.304
-47.766
-48.245
-48.737
-49.241
-49.755
-50.276
-50.802
-51.331
-51.86
-52.389
-52.915
-53.435
-53.95
-54.457
-54.954
-55.441
-55.916
-56.377
-56.825
-57.256
-57.67
-58.066
-58.443
-58.799
-59.134
-59.446
-59.735
-60
-60.24
-60.454
-60.639
-60.794
-60.918
-61.009
-61.064
-61.081
-61.06
-60.996
-60.888
-60.733
-60.528
-60.271
-59.957
-59.582
-59.144
-58.639
-58.063
-57.412
-56.685
-55.876
-54.985
-54.007
-52.943
-51.789
-50.544
-49.207
-47.778
-46.257
-44.645
-42.945
-41.161
-39.297
-37.36
-35.359
-33.304
-31.204
-29.071
-26.917
-24.755
-22.597
-20.454
-18.34
-16.266
-14.246
-12.296
-10.431
-8.666
-7.02
-5.51
-4.152
-2.962
-1.954
-1.135
-0.513
-0.096
0.104
0.069
-0.217
-0.764
-1.582
-2.675
-4.041
-5.672
-7.535
-9.582
-11.762
-14.023
-16.317
-18.612
-20.866
-23.034
-25.07
-26.91
-28.502
-29.808
-30.789
-31.415
-31.672
-31.576
-31.212
-30.726
-30.262
-29.955
-29.907
-30.203
-30.975
-32.379
-34.54
-37.577
-41.539
-46.488
-52.608
-59.973
-68.433
-77.608
-86.811
-95.317
-102.593
-108.009
-110.719
-110.218
-106.487
-100.137
-92.543
-84.841
-77.93
-73.033
-71.212
-73.005
-76.802
-78.403
-74.726
-63.81
-45.557
-22.769
9.022
57.933
128.187
225.853
346.309
477.02
614.127
750.925
879.417
994.032
1076.54
1105.837
1073.17
976.151
824.203
640.44
444.797
257.566
101.751
-10.543
-75.374
-98.071
-97.531
-91.213
-87.673
-89.368
-91.018
-87.255
-79.603
-71.31
-65.788
-66.107
-71.646
-80.228
-90.238
-99.377
-105.609
-108.277
-107.225
-102.844
-96.169
-88.142
-79.54
-71.304
-64.329
-59.072
-55.717
-54.197
-54.212
-55.521
-57.92
-61.162
-64.989
-69.183
-73.569
-77.978
-82.271
-86.28
-89.817
-92.753
-95.007
-96.539
-97.349
-97.461
-96.906
-95.744
-94.053
-91.901
-89.359
-86.494
-83.368
-80.056
-76.637
-73.19
-69.792
-66.496
-63.334
-60.323
-57.466
-54.753
-52.169
-49.689
-47.28
-44.916
-42.575
-40.236
-37.882
-35.493
-33.044
-30.512
-27.875
-25.115
-22.213
-19.157
-15.934
-12.534
-8.952
-5.181
-1.221
2.931
7.279
11.825
16.571
21.516
26.658
31.992
37.512
43.21
49.073
55.087
61.236
67.502
73.863
80.3
86.787
93.301
99.815
106.301
112.732
119.079
125.313
131.404
137.322
143.039
148.526
153.753
158.695
163.324
167.616
171.547
175.094
178.237
180.957
183.237
185.062
186.42
187.3
187.694
187.598
187.007
185.923
184.348
182.286
179.747
176.739
173.276
169.374
165.048
160.319
155.208
149.738
143.933
137.82
131.425
124.777
117.905
110.839
103.608
96.242
88.771
81.226
73.635
66.029
58.434
50.88
43.391
35.996
28.717
21.578
14.6
7.805
1.211
-5.166
-11.309
-17.205
-22.842
-28.209
-33.3
-38.106
-42.623
-46.849
-50.781
-54.422
-57.772
-60.835
-63.617
-66.124
-68.363
-70.342
-72.072
-73.561
-74.822
-75.865
-76.702
-77.346
-77.808
-78.101
-78.238
-78.232
-78.094
-77.837
-77.473
-77.015
-76.473
-75.858
-75.183
-74.456
-73.688
-72.889
-72.066
-71.228
-70.384
-69.538
-68.699
-67.871
-67.059
-66.267
-65.498
-64.755
-64.04
-63.355
-62.701
-62.077
-61.486
-60.926
-60.396
-59.898
-59.428
-58.988
-58.574
-58.187
-57.823
-57.483
-57.163
-56.862
-56.578
-56.309
-56.052
-55.805
-55.565
-55.33
-55.096
-54.862
-54.625
-54.382
-54.13
-53.867
-53.591
-53.3
-52.992
-52.666
-52.321
-51.955
-51.568
-51.16
-50.731
-50.279
-49.806
-49.312
-48.798
-48.263
-47.71
-47.138
-46.55
-45.947
-45.33
-44.702
-44.065
-43.422
-42.775
-42.128
-41.484
-40.846
-40.22
-39.609
-39.018
-38.451
-37.914
-37.411
-36.946
-36.526
-36.153
-35.833
-35.569
-35.367
-35.228
-35.156
-35.155
-35.226
-35.371
-35.593
-35.892
-36.27
-36.727
-37.262
-37.876
-38.567
-39.333
-40.174
-41.085
-42.063
-43.104
-44.205
-45.358
-46.559
-47.8
-49.075
-50.375
-51.693
-53.02
-54.346
-55.663
-56.961
-58.229
-59.458
-60.637
-61.755
-62.804
-63.772
-64.65
-65.429
-66.101
-66.657
-67.088
-67.387
-67.548
-67.563
-67.428
-67.137
-66.685
-66.07
-65.288
-64.34
-63.224
-61.943
-60.497
-58.891
-57.129
-55.218
-53.164
-50.975
-48.659
-46.229
-43.694
-41.068
-38.365
-35.601
-32.796
-29.969
-27.14
-24.33
-21.563
-18.859
-16.242
-13.731
-11.345
-9.101
-7.017
-5.112
-3.405
-1.916
-0.66
0.35
1.101
1.581
1.781
1.696
1.33
0.686
-0.234
-1.438
-2.941
-4.754
-6.883
-9.325
-12.073
-15.117
-18.442
-22.018
-25.796
-29.721
-33.735
-37.789
-41.845
-45.858
-49.768
-53.496
-56.945
-60.028
-62.678
-64.842
-66.483
-67.576
-68.118
-68.141
-67.713
-66.933
-65.929
-64.819
-63.739
-62.837
-62.232
-62.135
-62.833
-64.494
-67.164
-70.673
-74.566
-78.416
-81.911
-84.575
-85.821
-85.228
-82.581
-78.399
-73.982
-70.583
-69.194
-70.585
-75.27
-83.525
-95.203
-108.697
-120.82
-127.937
-126.414
-112.973
-84.706
-38.854
27.213
112.913
213.339
323.005
435.92
549.666
668.06
790.938
911.046
1015.282
1081.648
1091.155
1039.243
928.839
772.434
592.617
406.782
234.591
98.574
5.582
-43.908
-58.714
-60.7
-61.381
-64.512
-70.036
-70.221
-63.569
-54.506
-46.605
-44.074
-48.171
-56.896
-68.223
-80.21
-90.873
-98.641
-102.782
-103.22
-100.424
-95.341
-88.892
-81.862
-75.142
-69.575
-65.599
-63.363
-62.791
-63.606
-65.588
-68.556
-72.282
-76.519
-81.066
-85.755
-90.431
-94.96
-99.179
-102.906
-106.012
-108.421
-110.092
-111.025
-111.242
-110.775
-109.68
-108.034
-105.905
-103.362
-100.476
-97.306
-93.928
-90.421
-86.863
-83.333
-79.888
-76.561
-73.372
-70.327
-67.419
-64.636
-61.956
-59.35
-56.794
-54.266
-51.748
-49.225
-46.676
-44.08
-41.415
-38.657
-35.788
-32.791
-29.65
-26.351
-22.885
-19.241
-15.414
-11.399
-7.192
-2.787
1.82
6.632
11.652
16.878
22.307
27.936
33.755
39.756
45.925
52.246
58.703
65.274
71.94
78.677
85.46
92.262
99.056
105.813
112.504
119.098
125.564
131.871
137.987
143.88
149.521
154.876
159.918
164.616
168.943
172.872
176.38
179.443
182.04
184.155
185.77
186.874
187.455
187.506
187.024
186.006
184.454
182.373
179.772
176.66
173.052
168.963
164.412
159.421
154.012
148.212
142.047
135.546
128.739
121.659
114.337
106.808
99.106
91.265
83.321
75.309
67.264
59.218
51.207
43.262
35.415
27.694
20.128
12.744
5.565
-1.386
-8.09
-14.527
-20.683
-26.544
-32.099
-37.34
-42.259
-46.854
-51.122
-55.064
-58.683
-61.981
-64.966
-67.645
-70.026
-72.122
-73.943
-75.503
-76.815
-77.895
-78.758
-79.42
-79.898
-80.209
-80.368
-80.392
-80.298
-80.1
-79.815
-79.454
-79.033
-78.564
-78.058
-77.526
-76.978
-76.423
-75.867
-75.317
-74.78
-74.258
-73.756
-73.275
-72.817
-72.382
-71.971
-71.583
-71.216
-70.868
-70.538
-70.223
-69.92
-69.624
-69.334
-69.045
-68.752
-68.453
-68.144
-67.822
-67.483
-67.124
-66.743
-66.339
-65.909
-65.452
-64.967
-64.455
-63.913
-63.344
-62.747
-62.124
-61.475
-60.804
-60.112
-59.402
-58.677
-57.939
-57.191
-56.436
-55.677
-54.916
-54.156
-53.4
-52.65
-51.909
-51.179
-50.462
-49.761
-49.079
-48.416
-47.775
-47.157
-46.563
-45.996
-45.455
-44.943
-44.459
-44.005
-43.581
-43.188
-42.827
-42.499
-42.203
-41.939
-41.709
-41.511
-41.347
-41.215
-41.116
-41.05
-41.018
-41.02
-41.057
-41.129
-41.238
-41.384
-41.568
-41.791
-42.055
-42.36
-42.706
-43.094
-43.525
-44
-44.517
-45.078
-45.682
-46.328
-47.015
-47.742
-48.506
-49.305
-50.137
-50.998
-51.885
-52.796
-53.725
-54.67
-55.624
-56.586
-57.549
-58.509
-59.459
-60.396
-61.312
-62.201
-63.057
-63.873
-64.64
-65.352
-66.002
-66.581
-67.083
-67.501
-67.826
-68.053
-68.174
-68.183
-68.076
-67.846
-67.489
-67
-66.376
-65.616
-64.718
-63.68
-62.503
-61.187
-59.733
-58.145
-56.426
-54.578
-52.606
-50.516
-48.314
-46.006
-43.602
-41.111
-38.543
-35.912
-33.235
-30.526
-27.804
-25.087
-22.394
-19.744
-17.158
-14.651
-12.241
-9.944
-7.777
-5.758
-3.905
-2.238
-0.774
0.472
1.483
2.246
2.751
2.995
2.975
2.692
2.14
1.304
0.169
-1.274
-3.033
-5.11
-7.5
-10.187
-13.141
-16.31
-19.638
-23.067
-26.543
-30.027
-33.474
-36.838
-40.059
-43.061
-45.771
-48.129
-50.079
-51.573
-52.59
-53.148
-53.313
-53.218
-52.987
-52.726
-52.547
-52.564
-52.927
-53.8
-55.339
-57.678
-60.974
-65.469
-71.287
-78.366
-86.395
-94.717
-102.598
-109.411
-114.487
-116.997
-116.435
-112.843
-106.89
-100.211
-94.526
-90.93
-90.38
-93.778
-101.324
-112.114
-123.806
-132.205
-132.744
-121.565
-94.917
-49.349
18.116
107.792
215.684
335.745
460.904
587.337
717.201
849.986
978.527
1089.291
1159.683
1169.83
1114.413
997.607
832.988
641.575
440.122
244.879
76.681
-50.408
-130.969
-164.764
-164.459
-145.89
-114.658
-78.949
-45.619
-16.084
-0.115
-0.759
-11.771
-30.417
-49.155
-63.292
-75.976
-87.688
-98.734
-109.024
-115.262
-115.764
-111.086
-102.559
-92.559
-82.978
-74.665
-68.039
-63.348
-60.848
-60.577
-62.238
-65.265
-69.101
-73.393
-77.968
-82.739
-87.531
-92.133
-96.366
-100.092
-103.249
-105.795
-107.68
-108.857
-109.315
-109.075
-108.198
-106.773
-104.87
-102.554
-99.892
-96.94
-93.775
-90.481
-87.141
-83.835
-80.62
-77.528
-74.579
-71.779
-69.126
-66.605
-64.191
-61.846
-59.538
-57.243
-54.94
-52.609
-50.231
-47.777
-45.224
-42.546
-39.724
-36.739
-33.575
-30.217
-26.655
-22.88
-18.886
-14.672
-10.236
-5.575
-0.686
4.43
9.771
15.334
21.11
27.093
33.269
39.625
46.142
52.801
59.579
66.452
73.395
80.38
87.378
94.36
101.293
108.147
114.888
121.483
127.9
134.106
140.068
145.755
151.136
156.181
160.863
165.153
169.029
172.466
175.445
177.946
179.955
181.458
182.446
182.91
182.847
182.255
181.136
179.495
177.341
174.683
171.536
167.916
163.842
159.335
154.418
149.118
143.461
137.477
131.195
124.647
117.865
110.883
103.734
96.451
89.069
81.62
74.139
66.656
59.204
51.814
44.514
37.331
30.293
23.423
16.744
10.275
4.035
-1.959
-7.696
-13.161
-18.347
-23.246
-27.853
-32.165
-36.181
-39.902
-43.331
-46.472
-49.332
-51.919
-54.241
-56.31
-58.137
-59.734
-61.114
-62.292
-63.282
-64.098
-64.756
-65.271
-65.657
-65.93
-66.104
-66.193
-66.209
-66.165
-66.072
-65.941
-65.78
-65.599
-65.404
-65.202
-64.999
-64.798
-64.604
-64.418
-64.244
-64.08
-63.928
-63.788
-63.657
-63.534
-63.416
-63.302
-63.188
-63.071
-62.948
-62.815
-62.668
-62.503
-62.317
-62.106
-61.865
-61.593
-61.285
-60.94
-60.556
-60.131
-59.665
-59.158
-58.611
-58.025
-57.402
-56.744
-56.054
-55.334
-54.59
-53.824
-53.04
-52.243
-51.437
-50.626
-49.816
-49.01
-48.213
-47.429
-46.662
-45.915
-45.192
-44.497
-43.833
-43.204
-42.611
-42.06
-41.551
-41.088
-40.672
-40.305
-39.987
-39.72
-39.502
-39.333
-39.212
-39.137
-39.106
-39.118
-39.168
-39.255
-39.375
-39.525
-39.703
-39.904
-40.127
-40.367
-40.622
-40.89
-41.169
-41.456
-41.75
-42.05
-42.354
-42.661
-42.97
-43.28
-43.591
-43.9
-44.207
-44.513
-44.815
-45.115
-45.413
-45.708
-46.003
-46.297
-46.593
-46.892
-47.195
-47.505
-47.823
-48.151
-48.491
-48.845
-49.213
-49.597
-49.997
-50.414
-50.847
-51.296
-51.759
-52.234
-52.72
-53.214
-53.712
-54.212
-54.71
-55.203
-55.685
-56.152
-56.601
-57.024
-57.418
-57.776
-58.093
-58.362
-58.576
-58.729
-58.813
-58.821
-58.745
-58.578
-58.313
-57.942
-57.458
-56.857
-56.131
-55.277
-54.291
-53.169
-51.911
-50.514
-48.979
-47.309
-45.504
-43.569
-41.51
-39.331
-37.04
-34.646
-32.159
-29.592
-26.959
-24.276
-21.559
-18.827
-16.1
-13.397
-10.741
-8.149
-5.642
-3.24
-0.963
1.169
3.133
4.906
6.468
7.799
8.88
9.696
10.232
10.483
10.442
10.106
9.47
8.517
7.236
5.614
3.645
1.327
-1.333
-4.318
-7.6
-11.131
-14.86
-18.732
-22.696
-26.71
-30.731
-34.712
-38.591
-42.288
-45.725
-48.827
-51.533
-53.782
-55.544
-56.835
-57.707
-58.27
-58.635
-58.883
-59.106
-59.422
-59.943
-60.778
-62.064
-63.9
-66.444
-69.996
-74.674
-80.373
-86.843
-93.516
-99.727
-104.958
-108.502
-109.372
-107.116
-101.95
-94.476
-86.061
-78.417
-72.851
-70.535
-73.081
-79.93
-87.589
-94.188
-97.694
-96.719
-93.791
-84.361
-56.954
-2.899
85.113
204.428
340.257
481.302
622.693
763.208
901.982
1029.752
1125.826
1166.808
1140.862
1048.41
900.683
718.878
520.307
320.534
141.482
2.12
-82.643
-106.196
-83.226
-40.936
-5.841
2.851
-16.539
-50.263
-81.727
-99.819
-101.969
-94.704
-87.916
-86.804
-92.218
-101.656
-110.235
-115.348
-116.726
-114.69
-110.353
-104.648
-98.012
-91.126
-84.783
-79.574
-75.84
-73.663
-72.931
-73.45
-74.98
-77.24
-79.938
-82.814
-85.728
-88.626
-91.399
-93.925
-96.055
-97.608
-98.498
-98.716
-98.252
-97.133
-95.43
-93.217
-90.647
-87.934
-85.213
-82.571
-80.036
-77.555
-75.126
-72.791
-70.582
-68.543
-66.69
-64.994
-63.448
-62.051
-60.768
-59.549
-58.301
-56.88
-55.202
-53.235
-50.983
-48.508
-45.842
-42.984
-39.946
-36.739
-33.369
-29.848
-26.166
-22.285
-18.192
-13.891
-9.402
-4.772
-0.024
4.845
9.85
15.022
20.384
25.94
31.704
37.689
43.897
50.323
56.945
63.726
70.633
77.64
84.725
91.869
99.047
106.225
113.37
120.447
127.421
134.255
140.913
147.354
153.542
159.441
165.025
170.266
175.14
179.62
183.681
187.3
190.456
193.13
195.302
196.955
198.076
198.654
198.682
198.157
197.079
195.449
193.275
190.565
187.333
183.592
179.361
174.661
169.514
163.944
157.98
151.649
144.981
138.008
130.762
123.277
115.586
107.723
99.722
91.617
83.444
75.235
67.024
58.843
50.726
42.703
34.804
27.06
19.496
12.14
5.015
-1.857
-8.456
-14.765
-20.768
-26.453
-31.809
-36.829
-41.508
-45.842
-49.83
-53.474
-56.776
-59.744
-62.383
-64.702
-66.711
-68.422
-69.847
-71
-71.896
-72.55
-72.978
-73.198
-73.226
-73.08
-72.778
-72.339
-71.78
-71.119
-70.374
-69.562
-68.698
-67.8
-66.882
-65.959
-65.043
-64.146
-63.28
-62.453
-61.673
-60.948
-60.282
-59.68
-59.144
-58.678
-58.28
-57.951
-57.689
-57.493
-57.359
-57.284
-57.263
-57.291
-57.363
-57.474
-57.616
-57.784
-57.97
-58.17
-58.374
-58.578
-58.775
-58.958
-59.121
-59.259
-59.365
-59.435
-59.464
-59.448
-59.385
-59.271
-59.106
-58.886
-58.614
-58.288
-57.91
-57.481
-57.004
-56.481
-55.917
-55.316
-54.681
-54.017
-53.331
-52.627
-51.91
-51.188
-50.464
-49.745
-49.036
-48.342
-47.669
-47.021
-46.403
-45.819
-45.273
-44.77
-44.311
-43.901
-43.541
-43.235
-42.983
-42.788
-42.65
-42.569
-42.546
-42.581
-42.671
-42.817
-43.015
-43.265
-43.563
-43.907
-44.293
-44.717
-45.176
-45.666
-46.183
-46.724
-47.283
-47.858
-48.444
-49.04
-49.641
-50.245
-50.849
-51.452
-52.051
-52.645
-53.232
-53.811
-54.38
-54.938
-55.483
-56.015
-56.532
-57.032
-57.515
-57.98
-58.424
-58.847
-59.248
-59.626
-59.978
-60.304
-60.603
-60.872
-61.11
-61.316
-61.487
-61.622
-61.719
-61.774
-61.786
-61.75
-61.664
-61.524
-61.325
-61.063
-60.733
-60.33
-59.85
-59.288
-58.641
-57.905
-57.077
-56.154
-55.136
-54.02
-52.808
-51.499
-50.094
-48.596
-47.009
-45.335
-43.581
-41.753
-39.859
-37.909
-35.915
-33.888
-31.843
-29.793
-27.753
-25.738
-23.764
-21.844
-19.99
-18.219
-16.545
-14.985
-13.559
-12.283
-11.172
-10.243
-9.507
-8.978
-8.665
-8.569
-8.691
-9.034
-9.606
-10.423
-11.5
-12.845
-14.46
-16.346
-18.489
-20.876
-23.481
-26.254
-29.151
-32.125
-35.131
-38.143
-41.127
-44.036
-46.811
-49.376
-51.657
-53.603
-55.164
-56.299
-57.003
-57.289
-57.212
-56.872
-56.345
-55.718
-55.097
-54.581
-54.306
-54.414
-55.014
-56.276
-58.431
-61.584
-65.712
-70.591
-75.7
-80.515
-84.589
-87.339
-88.102
-86.454
-82.353
-76.451
-70.071
-64.548
-60.923
-60.086
-62.918
-69.931
-80.684
-93.207
-104.27
-110.224
-107.428
-92.474
-61.796
-11.699
58.917
146.879
247.587
355.509
467.605
587.008
713.943
841.192
955.068
1032.789
1053.173
1009.333
904.896
753.168
574.898
386.323
203.314
44.614
-75.868
-148.279
-173.017
-163.13
-135.659
-107.596
-87.825
-77.865
-76.234
-77.098
-78.359
-79.658
-79.681
-81.683
-86.563
-93.025
-100.842
-106.895
-109.12
-107.895
-103.429
-96.812
-89.4
-81.782
-74.62
-68.729
-64.456
-61.868
-60.899
-61.272
-62.719
-65.062
-68.083
-71.521
-75.197
-78.951
-82.62
-86.067
-89.13
-91.672
-93.622
-94.941
-95.617
-95.659
-95.097
-93.983
-92.393
-90.4
-88.066
-85.453
-82.617
-79.625
-76.556
-73.487
-70.495
-67.632
-64.928
-62.4
-60.054
-57.884
-55.873
-53.991
-52.202
-50.473
-48.778
-47.094
-45.397
-43.659
-41.851
-39.943
-37.908
-35.72
-33.356
-30.797
-28.023
-25.02
-21.778
-18.289
-14.547
-10.547
-6.285
-1.757
3.039
8.102
13.428
19.013
24.849
30.925
37.228
43.74
50.442
57.314
64.331
71.467
78.695
85.986
93.308
100.629
107.917
115.136
122.253
129.23
136.035
142.631
148.985
155.062
160.83
166.257
171.314
175.973
180.206
183.992
187.306
190.132
192.451
194.25
195.517
196.243
196.424
196.055
195.137
193.673
191.668
189.132
186.076
182.514
178.463
173.942
168.974
163.581
157.789
151.625
145.119
138.301
131.202
123.853
116.288
108.54
100.642
92.628
84.531
76.382
68.215
60.06
51.948
43.907
35.966
28.15
20.486
12.997
5.705
-1.368
-8.204
-14.786
-21.097
-27.125
-32.857
-38.284
-43.398
-48.194
-52.667
-56.816
-60.641
-64.144
-67.327
-70.197
-72.758
-75.018
-76.987
-78.673
-80.088
-81.242
-82.147
-82.816
-83.26
-83.492
-83.526
-83.374
-83.05
-82.565
-81.935
-81.171
-80.287
-79.295
-78.21
-77.043
-75.806
-74.513
-73.174
-71.8
-70.401
-68.987
-67.567
-66.148
-64.737
-63.341
-61.966
-60.615
-59.293
-58.003
-56.748
-55.532
-54.355
-53.219
-52.127
-51.08
-50.078
-49.124
-48.218
-47.361
-46.554
-45.798
-45.093
-44.438
-43.835
-43.28
-42.774
-42.315
-41.901
-41.529
-41.198
-40.904
-40.644
-40.417
-40.219
-40.049
-39.904
-39.782
-39.683
-39.604
-39.544
-39.503
-39.479
-39.471
-39.479
-39.502
-39.537
-39.585
-39.642
-39.708
-39.782
-39.86
-39.94
-40.022
-40.102
-40.179
-40.252
-40.32
-40.382
-40.438
-40.489
-40.535
-40.578
-40.62
-40.662
-40.706
-40.754
-40.808
-40.871
-40.943
-41.026
-41.122
-41.233
-41.359
-41.503
-41.664
-41.846
-42.047
-42.271
-42.518
-42.79
-43.089
-43.416
-43.773
-44.161
-44.584
-45.041
-45.535
-46.066
-46.633
-47.237
-47.875
-48.547
-49.248
-49.975
-50.725
-51.492
-52.272
-53.06
-53.85
-54.635
-55.411
-56.171
-56.908
-57.616
-58.288
-58.916
-59.494
-60.015
-60.472
-60.858
-61.166
-61.388
-61.518
-61.548
-61.471
-61.281
-60.97
-60.531
-59.959
-59.249
-58.399
-57.405
-56.265
-54.98
-53.55
-51.979
-50.27
-48.427
-46.457
-44.366
-42.163
-39.858
-37.461
-34.984
-32.442
-29.85
-27.227
-24.591
-21.961
-19.358
-16.802
-14.314
-11.916
-9.624
-7.458
-5.434
-3.57
-1.889
-0.411
0.845
1.862
2.624
3.117
3.326
3.242
2.866
2.198
1.238
-0.017
-1.583
-3.476
-5.696
-8.241
-11.108
-14.277
-17.728
-21.427
-25.311
-29.319
-33.39
-37.467
-41.512
-45.485
-49.326
-52.965
-56.318
-59.3
-61.863
-63.961
-65.541
-66.601
-67.166
-67.308
-67.164
-66.847
-66.451
-66.094
-65.902
-66.005
-66.555
-67.641
-69.392
-72.036
-75.695
-80.365
-85.834
-91.583
-97.071
-101.869
-105.376
-106.83
-105.667
-101.65
-95.335
-88.02
-80.833
-74.766
-70.939
-70.457
-74.331
-81.571
-88.301
-90.273
-84.63
-72.375
-56.703
-36.73
-5.266
49.648
136.611
255.724
397.488
546.968
696.156
839.564
969.743
1078.007
1144.847
1151.021
1091.751
969.211
796.277
597.134
390.36
197.178
42.811
-64.563
-125.157
-147.258
-152.185
-149.698
-138.257
-118.813
-90.592
-59.207
-39.38
-36.306
-45.566
-61.425
-73.97
-79.1
-81.325
-82.655
-84.182
-86.119
-85.611
-81.855
-76.057
-69.135
-62.321
-56.649
-52.531
-50.212
-49.843
-51.253
-54.052
-57.943
-62.689
-68.026
-73.738
-79.61
-85.384
-90.853
-95.85
-100.227
-103.886
-106.765
-108.827
-110.066
-110.507
-110.203
-109.227
-107.656
-105.559
-103.004
-100.054
-96.79
-93.304
-89.69
-86.041
-82.424
-78.88
-75.439
-72.116
-68.914
-65.826
-62.829
-59.891
-56.986
-54.097
-51.206
-48.301
-45.363
-42.366
-39.291
-36.115
-32.821
-29.394
-25.821
-22.09
-18.194
-14.129
-9.892
-5.485
-0.907
3.844
8.77
13.87
19.145
24.591
30.204
35.979
41.907
47.977
54.174
60.484
66.889
73.37
79.906
86.475
93.053
99.615
106.135
112.586
118.941
125.172
131.25
137.146
142.833
148.282
153.466
158.36
162.938
167.175
171.049
174.539
177.626
180.29
182.517
184.291
185.6
186.435
186.787
186.651
186.024
184.906
183.299
181.209
178.642
175.609
172.123
168.198
163.851
159.103
153.974
148.486
142.666
136.538
130.13
123.47
116.586
109.508
102.266
94.889
87.408
79.851
72.249
64.629
57.02
49.449
41.942
34.526
27.223
20.059
13.054
6.229
-0.397
-6.806
-12.982
-18.911
-24.582
-29.984
-35.108
-39.949
-44.502
-48.764
-52.735
-56.416
-59.809
-62.919
-65.75
-68.309
-70.605
-72.645
-74.44
-76
-77.336
-78.46
-79.382
-80.117
-80.674
-81.068
-81.309
-81.412
-81.387
-81.247
-81.004
-80.67
-80.257
-79.776
-79.238
-78.653
-78.029
-77.376
-76.702
-76.013
-75.316
-74.615
-73.917
-73.224
-72.54
-71.868
-71.21
-70.566
-69.937
-69.324
-68.727
-68.145
-67.576
-67.021
-66.479
-65.947
-65.426
-64.914
-64.41
-63.913
-63.421
-62.933
-62.447
-61.961
-61.474
-60.985
-60.491
-59.991
-59.486
-58.972
-58.451
-57.922
-57.384
-56.838
-56.283
-55.72
-55.15
-54.573
-53.989
-53.401
-52.81
-52.217
-51.623
-51.031
-50.443
-49.858
-49.279
-48.707
-48.144
-47.589
-47.045
-46.512
-45.993
-45.487
-44.998
-44.526
-44.073
-43.641
-43.23
-42.842
-42.479
-42.142
-41.831
-41.548
-41.294
-41.071
-40.879
-40.721
-40.597
-40.509
-40.456
-40.441
-40.463
-40.523
-40.622
-40.76
-40.938
-41.156
-41.415
-41.716
-42.058
-42.443
-42.87
-43.339
-43.85
-44.401
-44.993
-45.623
-46.29
-46.994
-47.732
-48.503
-49.304
-50.134
-50.989
-51.866
-52.761
-53.672
-54.593
-55.521
-56.45
-57.376
-58.293
-59.198
-60.084
-60.946
-61.779
-62.576
-63.33
-64.036
-64.686
-65.274
-65.792
-66.233
-66.592
-66.863
-67.038
-67.111
-67.079
-66.934
-66.673
-66.29
-65.78
-65.14
-64.366
-63.456
-62.407
-61.22
-59.893
-58.428
-56.826
-55.091
-53.225
-51.233
-49.119
-46.89
-44.554
-42.118
-39.591
-36.984
-34.311
-31.587
-28.829
-26.054
-23.282
-20.532
-17.824
-15.179
-12.615
-10.15
-7.8
-5.582
-3.513
-1.612
0.1
1.607
2.891
3.939
4.735
5.269
5.53
5.518
5.234
4.676
3.838
2.702
1.251
-0.522
-2.619
-5.039
-7.767
-10.786
-14.062
-17.539
-21.158
-24.858
-28.581
-32.288
-35.934
-39.461
-42.799
-45.859
-48.557
-50.835
-52.641
-53.934
-54.713
-54.998
-54.857
-54.418
-53.796
-53.117
-52.526
-52.154
-52.161
-52.726
-53.979
-56.087
-59.288
-63.681
-69.232
-75.731
-82.641
-89.361
-95.431
-100.271
-103.155
-103.587
-101.406
-97.064
-91.805
-87.039
-83.688
-82.274
-83.66
-88.61
-96.748
-106.502
-113.801
-112.411
-98.942
-72.035
-31.806
18.524
80.284
156.864
251.073
368.076
506.276
660.533
823.274
977.26
1104.956
1187.558
1205.971
1155.956
1043.039
879.976
689.25
489.841
297.63
130.042
-0.222
-85.839
-126.169
-130.588
-116.533
-100.366
-92.071
-96.658
-109.094
-120.231
-125.528
-120.486
-106.69
-91.233
-77.308
-67.596
-62.392
-58.298
-54.43
-51.434
-49.641
-50.12
-53.035
-57.129
-61.788
-66.715
-71.084
-74.376
-76.353
-76.785
-76.089
-75.224
-74.693
-74.779
-75.872
-77.999
-81.052
-84.915
-89.1
-92.994
-96.282
-98.772
-100.359
-101.114
-101.087
-100.309
-98.933
-97.109
-94.933
-92.48
-89.783
-86.86
-83.777
-80.621
-77.479
-74.424
-71.494
-68.709
-66.076
-63.593
-61.246
-59.009
-56.847
-54.732
-52.646
-50.571
-48.5
-46.415
-44.291
-42.104
-39.825
-37.424
-34.881
-32.175
-29.29
-26.212
-22.932
-19.442
-15.739
-11.818
-7.673
-3.299
1.31
6.156
11.237
16.552
22.094
27.856
33.824
39.984
46.32
52.812
59.44
66.179
73.007
79.896
86.819
93.747
100.651
107.498
114.258
120.899
127.387
133.691
139.779
145.62
151.181
156.434
161.351
165.903
170.066
173.816
177.131
179.991
182.379
184.28
185.683
186.577
186.957
186.817
186.158
184.981
183.293
181.101
178.415
175.249
171.618
167.541
163.038
158.13
152.842
147.199
141.228
134.958
128.419
121.639
114.651
107.485
100.172
92.745
85.235
77.673
70.089
62.514
54.977
47.505
40.127
32.866
25.747
18.793
12.023
5.456
-0.89
-7.002
-12.866
-18.47
-23.807
-28.868
-33.649
-38.146
-42.358
-46.286
-49.931
-53.296
-56.388
-59.211
-61.773
-64.083
-66.15
-67.985
-69.597
-70.999
-72.204
-73.224
-74.071
-74.759
-75.302
-75.711
-75.999
-76.18
-76.264
-76.262
-76.186
-76.046
-75.85
-75.608
-75.328
-75.017
-74.681
-74.325
-73.956
-73.576
-73.188
-72.795
-72.4
-72.001
-71.602
-71.201
-70.798
-70.392
-69.983
-69.568
-69.146
-68.714
-68.271
-67.814
-67.34
-66.847
-66.334
-65.797
-65.235
-64.646
-64.03
-63.386
-62.713
-62.01
-61.279
-60.519
-59.731
-58.918
-58.081
-57.222
-56.343
-55.448
-54.54
-53.622
-52.699
-51.773
-50.849
-49.931
-49.024
-48.131
-47.258
-46.409
-45.587
-44.799
-44.047
-43.336
-42.669
-42.051
-41.485
-40.972
-40.517
-40.121
-39.787
-39.515
-39.307
-39.164
-39.086
-39.073
-39.125
-39.239
-39.415
-39.652
-39.947
-40.298
-40.702
-41.157
-41.659
-42.207
-42.796
-43.423
-44.084
-44.776
-45.494
-46.235
-46.994
-47.768
-48.554
-49.348
-50.145
-50.945
-51.743
-52.537
-53.324
-54.101
-54.867
-55.62
-56.357
-57.077
-57.779
-58.463
-59.127
-59.771
-60.396
-61.001
-61.586
-62.15
-62.695
-63.219
-63.723
-64.206
-64.669
-65.111
-65.532
-65.934
-66.314
-66.673
-67.011
-67.326
-67.616
-67.88
-68.115
-68.318
-68.486
-68.616
-68.704
-68.747
-68.741
-68.681
-68.564
-68.384
-68.136
-67.816
-67.417
-66.935
-66.362
-65.696
-64.931
-64.064
-63.089
-62.005
-60.808
-59.495
-58.065
-56.518
-54.851
-53.064
-51.161
-49.142
-47.011
-44.774
-42.437
-40.008
-37.499
-34.922
-32.29
-29.618
-26.923
-24.222
-21.533
-18.873
-16.261
-13.714
-11.252
-8.893
-6.656
-4.563
-2.634
-0.89
0.647
1.958
3.026
3.834
4.375
4.64
4.621
4.309
3.686
2.739
1.462
-0.154
-2.112
-4.408
-7.031
-9.946
-13.103
-16.449
-19.931
-23.5
-27.121
-30.748
-34.331
-37.821
-41.151
-44.259
-47.1
-49.618
-51.767
-53.52
-54.875
-55.901
-56.72
-57.45
-58.203
-59.054
-60.067
-61.355
-63.045
-65.261
-68.139
-71.747
-76.181
-81.662
-88.26
-95.835
-104.028
-112.068
-119.101
-124.514
-127.604
-127.507
-123.85
-116.743
-106.905
-96.151
-86.33
-78.664
-74.414
-74.761
-79.811
-88.479
-98.434
-105.442
-104.722
-92.154
-63.526
-14.4
57.026
148.549
256.566
375.106
499.507
631.667
771.451
911.747
1040.674
1136.402
1174.985
1146.601
1049.501
892.647
700.946
495.93
301.111
142.753
29.017
-39.005
-69.656
-85.06
-96.642
-108.123
-118.839
-119.846
-109.465
-92.8
-75.204
-62.965
-58.375
-59.873
-65.721
-74.083
-83.1
-91.129
-96.532
-98.375
-96.771
-92.413
-86.254
-79.185
-71.984
-65.481
-60.455
-57.326
-56.136
-56.708
-58.715
-61.86
-65.924
-70.641
-75.735
-80.999
-86.226
-91.239
-95.896
-100.027
-103.5
-106.246
-108.213
-109.393
-109.812
-109.508
-108.542
-107.001
-104.96
-102.493
-99.675
-96.572
-93.266
-89.844
-86.388
-82.976
-79.664
-76.484
-73.457
-70.588
-67.868
-65.281
-62.802
-60.394
-58.03
-55.686
-53.339
-50.97
-48.554
-46.064
-43.473
-40.758
-37.895
-34.866
-31.653
-28.242
-24.621
-20.781
-16.716
-12.424
-7.899
-3.138
1.861
7.102
12.582
18.299
24.247
30.42
36.805
43.39
50.157
57.087
64.159
71.349
78.632
85.981
93.365
100.756
108.121
115.427
122.641
129.728
136.653
143.383
149.881
156.115
162.051
167.656
172.9
177.754
182.189
186.181
189.705
192.742
195.272
197.28
198.753
199.68
200.054
199.872
199.131
197.833
195.984
193.592
190.667
187.224
183.278
178.848
173.956
168.624
162.879
156.748
150.259
143.443
136.333
128.96
121.36
113.566
105.614
97.538
89.374
81.157
72.92
64.696
56.518
48.417
40.423
32.564
24.866
17.354
10.053
2.982
-3.838
-10.39
-16.659
-22.631
-28.295
-33.642
-38.663
-43.355
-47.713
-51.736
-55.423
-58.778
-61.803
-64.504
-66.888
-68.963
-70.739
-72.228
-73.442
-74.394
-75.099
-75.57
-75.824
-75.876
-75.743
-75.439
-74.982
-74.387
-73.669
-72.845
-71.928
-70.934
-69.877
-68.769
-67.624
-66.453
-65.268
-64.079
-62.897
-61.73
-60.587
-59.475
-58.402
-57.372
-56.392
-55.466
-54.596
-53.786
-53.037
-52.35
-51.724
-51.16
-50.655
-50.207
-49.815
-49.474
-49.183
-48.937
-48.733
-48.566
-48.433
-48.328
-48.249
-48.19
-48.148
-48.119
-48.098
-48.083
-48.069
-48.053
-48.034
-48.006
-47.969
-47.918
-47.853
-47.77
-47.669
-47.548
-47.407
-47.245
-47.061
-46.857
-46.634
-46.392
-46.133
-45.859
-45.571
-45.271
-44.963
-44.648
-44.328
-44.007
-43.687
-43.371
-43.062
-42.762
-42.473
-42.199
-41.942
-41.704
-41.486
-41.292
-41.123
-40.982
-40.87
-40.79
-40.743
-40.732
-40.757
-40.821
-40.923
-41.066
-41.248
-41.471
-41.734
-42.038
-42.382
-42.766
-43.19
-43.653
-44.154
-44.693
-45.27
-45.882
-46.53
-47.211
-47.926
-48.673
-49.451
-50.258
-51.095
-51.958
-52.846
-53.756
-54.686
-55.633
-56.594
-57.563
-58.538
-59.514
-60.486
-61.452
-62.405
-63.342
-64.257
-65.146
-66.003
-66.824
-67.602
-68.33
-69.004
-69.616
-70.162
-70.634
-71.026
-71.331
-71.544
-71.658
-71.666
-71.562
-71.339
-70.992
-70.516
-69.905
-69.157
-68.269
-67.239
-66.064
-64.746
-63.286
-61.687
-59.951
-58.083
-56.087
-53.97
-51.741
-49.408
-46.98
-44.467
-41.88
-39.234
-36.55
-33.845
-31.142
-28.461
-25.823
-23.251
-20.766
-18.386
-16.129
-14.009
-12.039
-10.24
-8.631
-7.236
-6.076
-5.165
-4.512
-4.121
-3.991
-4.115
-4.489
-5.109
-5.976
-7.107
-8.517
-10.222
-12.235
-14.559
-17.179
-20.069
-23.176
-26.439
-29.817
-33.29
-36.856
-40.504
-44.177
-47.789
-51.252
-54.479
-57.422
-60.002
-62.064
-63.554
-64.592
-65.488
-66.626
-68.2
-70.088
-72.11
-74.317
-76.704
-79.024
-80.644
-80.829
-79.482
-77.277
-75.156
-73.516
-72.364
-71.869
-72.701
-75.674
-80.72
-86.708
-92.054
-96.231
-99.74
-102.918
-105.839
-108.392
-110.853
-114.531
-119.559
-122.937
-121.264
-112.632
-99.545
-87.371
-76.178
-58.348
-17.871
59.53
174.598
316.804
465.741
604.355
730.429
845.948
951.57
1041.136
1094.915
1092.869
1027.805
903.269
733.316
539.877
341.097
152.396
-8.1
-127.283
-199.652
-223.609
-206.62
-164.706
-110.771
-60.467
-31.411
-28.049
-49.107
-84.726
-115.132
-130.566
-129.866
-117.794
-105.118
-96.215
-90.072
-85.133
-79.035
-72.246
-66.52
-62.001
-58.861
-57.284
-57.091
-58.311
-60.546
-62.7
-64.345
-65.947
-67.842
-70.242
-73.193
-76.373
-79.672
-83.317
-87.19
-90.878
-94.078
-96.5
-98.027
-98.782
-98.812
-98.093
-96.689
-94.698
-92.218
-89.376
-86.248
-82.869
-79.308
-75.642
-71.96
-68.342
-64.838
-61.472
-58.26
-55.201
-52.284
-49.488
-46.78
-44.137
-41.538
-38.967
-36.41
-33.849
-31.262
-28.631
-25.934
-23.146
-20.248
-17.221
-14.051
-10.727
-7.244
-3.594
0.225
4.217
8.388
12.742
17.283
22.015
26.939
32.056
37.363
42.855
48.523
54.359
60.349
66.479
72.735
79.097
85.546
92.061
98.619
105.195
111.764
118.297
124.767
131.144
137.398
143.501
149.422
155.131
160.599
165.797
170.698
175.274
179.501
183.353
186.808
189.846
192.448
194.596
196.276
197.475
198.184
198.395
198.103
197.305
196.002
194.196
191.892
189.098
185.825
182.085
177.893
173.268
168.228
162.796
156.996
150.853
144.393
137.646
130.639
123.404
115.971
108.371
100.636
92.799
84.889
76.94
68.982
61.045
53.159
45.352
37.651
30.082
22.671
15.439
8.41
1.604
-4.962
-11.268
-17.301
-23.046
-28.493
-33.632
-38.454
-42.956
-47.133
-50.983
-54.506
-57.704
-60.581
-63.14
-65.389
-67.333
-68.984
-70.349
-71.441
-72.272
-72.854
-73.201
-73.327
-73.247
-72.975
-72.526
-71.915
-71.157
-70.266
-69.257
-68.145
-66.945
-65.669
-64.333
-62.949
-61.529
-60.085
-58.628
-57.17
-55.718
-54.282
-52.87
-51.489
-50.145
-48.846
-47.595
-46.399
-45.26
-44.181
-43.166
-42.217
-41.333
-40.516
-39.766
-39.082
-38.464
-37.91
-37.42
-36.991
-36.622
-36.31
-36.053
-35.848
-35.693
-35.583
-35.517
-35.49
-35.5
-35.544
-35.619
-35.722
-35.85
-36.001
-36.173
-36.363
-36.568
-36.787
-37.017
-37.257
-37.503
-37.754
-38.009
-38.265
-38.522
-38.779
-39.035
-39.288
-39.539
-39.785
-40.028
-40.265
-40.497
-40.724
-40.946
-41.162
-41.374
-41.581
-41.785
-41.985
-42.183
-42.379
-42.574
-42.768
-42.962
-43.156
-43.351
-43.547
-43.747
-43.949
-44.156
-44.368
-44.587
-44.814
-45.049
-45.294
-45.548
-45.813
-46.089
-46.377
-46.677
-46.989
-47.315
-47.654
-48.006
-48.373
-48.752
-49.144
-49.548
-49.963
-50.388
-50.822
-51.262
-51.708
-52.157
-52.609
-53.061
-53.511
-53.957
-54.395
-54.823
-55.237
-55.633
-56.008
-56.355
-56.672
-56.953
-57.193
-57.39
-57.537
-57.63
-57.665
-57.637
-57.542
-57.375
-57.132
-56.808
-56.399
-55.903
-55.317
-54.637
-53.863
-52.993
-52.025
-50.959
-49.795
-48.534
-47.176
-45.723
-44.177
-42.543
-40.825
-39.029
-37.163
-35.235
-33.257
-31.242
-29.204
-27.156
-25.114
-23.095
-21.115
-19.189
-17.332
-15.557
-13.878
-12.31
-10.868
-9.567
-8.425
-7.456
-6.674
-6.092
-5.724
-5.577
-5.656
-5.964
-6.504
-7.283
-8.317
-9.624
-11.214
-13.094
-15.265
-17.719
-20.436
-23.382
-26.504
-29.746
-33.048
-36.356
-39.626
-42.814
-45.874
-48.746
-51.356
-53.633
-55.517
-56.962
-57.932
-58.422
-58.47
-58.159
-57.629
-57.023
-56.462
-56.068
-55.976
-56.329
-57.281
-58.989
-61.564
-65.15
-69.964
-76.079
-83.402
-91.61
-100.051
-108.026
-114.968
-120.22
-122.993
-122.837
-119.717
-114.206
-107.746
-101.735
-97.046
-94.471
-94.751
-98.033
-103.561
-109.279
-111.558
-106.634
-91.257
-62.239
-16.614
48.264
132.452
231.817
340.323
451.422
561.542
673.502
788.609
901.102
999.691
1063.366
1070.231
1013.01
892.839
721.067
523.487
321.132
136.116
-6.053
-98.388
-141.722
-146.856
-139.04
-131.913
-130.003
-132.481
-129.778
-119.525
-105.971
-92.96
-85.362
-84.457
-87.983
-94.109
-101.008
-106.848
-110.309
-110.66
-107.866
-102.538
-95.708
-88.253
-80.824
-74.159
-68.966
-65.635
-64.269
-64.72
-66.627
-69.675
-73.628
-78.214
-83.161
-88.228
-93.183
-97.825
-101.993
-105.56
-108.434
-110.561
-111.918
-112.501
-112.339
-111.489
-110.027
-108.034
-105.585
-102.752
-99.6
-96.211
-92.675
-89.083
-85.522
-82.053
-78.714
-75.53
-72.514
-69.666
-66.977
-64.423
-61.968
-59.586
-57.254
-54.954
-52.668
-50.372
-48.04
-45.647
-43.167
-40.578
-37.862
-35
-31.976
-28.777
-25.392
-21.814
-18.04
-14.062
-9.873
-5.469
-0.843
4.006
9.08
14.377
19.896
25.629
31.569
37.704
44.02
50.5
57.128
63.883
70.744
77.688
84.689
91.722
98.758
105.769
112.724
119.593
126.344
132.947
139.367
145.576
151.539
157.228
162.613
167.663
172.353
176.656
180.548
184.005
187.008
189.539
191.58
193.119
194.145
194.65
194.628
194.078
193
191.398
189.278
186.647
183.519
179.906
175.826
171.297
166.339
160.976
155.233
149.136
142.713
135.993
129.008
121.788
114.366
106.774
99.045
91.212
83.308
75.366
67.418
59.496
51.632
43.853
36.189
28.667
21.313
14.149
7.199
0.481
-5.985
-12.184
-18.101
-23.724
-29.044
-34.053
-38.745
-43.116
-47.166
-50.895
-54.304
-57.399
-60.185
-62.669
-64.859
-66.765
-68.397
-69.769
-70.892
-71.78
-72.448
-72.91
-73.181
-73.278
-73.215
-73.009
-72.674
-72.226
-71.679
-71.048
-70.345
-69.586
-68.78
-67.941
-67.079
-66.203
-65.322
-64.444
-63.575
-62.721
-61.886
-61.074
-60.287
-59.527
-58.795
-58.092
-57.417
-56.772
-56.154
-55.562
-54.995
-54.45
-53.925
-53.418
-52.927
-52.447
-51.978
-51.515
-51.057
-50.601
-50.144
-49.686
-49.223
-48.754
-48.278
-47.794
-47.3
-46.798
-46.285
-45.765
-45.238
-44.705
-44.169
-43.633
-43.099
-42.571
-42.052
-41.544
-41.051
-40.576
-40.122
-39.691
-39.288
-38.913
-38.57
-38.262
-37.989
-37.754
-37.559
-37.405
-37.292
-37.223
-37.198
-37.216
-37.28
-37.389
-37.543
-37.743
-37.988
-38.277
-38.611
-38.987
-39.404
-39.86
-40.353
-40.881
-41.441
-42.03
-42.646
-43.286
-43.948
-44.629
-45.328
-46.041
-46.768
-47.506
-48.254
-49.01
-49.774
-50.543
-51.317
-52.095
-52.876
-53.659
-54.443
-55.227
-56.01
-56.789
-57.563
-58.331
-59.089
-59.837
-60.57
-61.288
-61.987
-62.666
-63.321
-63.951
-64.554
-65.126
-65.665
-66.167
-66.63
-67.051
-67.425
-67.748
-68.017
-68.225
-68.37
-68.445
-68.447
-68.369
-68.207
-67.956
-67.61
-67.165
-66.618
-65.962
-65.197
-64.318
-63.323
-62.213
-60.986
-59.642
-58.184
-56.612
-54.93
-53.141
-51.249
-49.258
-47.175
-45.005
-42.756
-40.437
-38.055
-35.622
-33.148
-30.649
-28.14
-25.638
-23.159
-20.723
-18.349
-16.059
-13.87
-11.801
-9.868
-8.089
-6.48
-5.059
-3.843
-2.85
-2.092
-1.584
-1.337
-1.361
-1.661
-2.238
-3.087
-4.207
-5.6
-7.276
-9.247
-11.518
-14.091
-16.964
-20.126
-23.561
-27.237
-31.103
-35.105
-39.185
-43.288
-47.371
-51.388
-55.289
-59.006
-62.455
-65.553
-68.233
-70.43
-72.097
-73.22
-73.811
-73.931
-73.688
-73.182
-72.529
-71.862
-71.303
-70.982
-71.019
-71.523
-72.673
-74.731
-77.88
-82.142
-87.346
-93.097
-98.956
-104.46
-108.95
-111.579
-111.638
-108.927
-103.88
-97.387
-90.645
-84.996
-81.794
-82.588
-87.457
-94.162
-99.804
-102.218
-102.744
-104.444
-106.58
-101.784
-74.246
-9.408
95.851
233.8
385.556
534.394
676.25
811.009
938.593
1050.697
1126.802
1148.527
1107.84
1010.142
871.109
704.872
523.673
338.341
163.315
21.422
-72.124
-113.792
-113.946
-97.09
-80.479
-71.425
-69.543
-66.858
-61.284
-55.426
-51.984
-54.832
-64.113
-77.054
-91.397
-104.36
-113.643
-118.608
-119.121
-115.571
-109.052
-100.636
-91.293
-82.153
-74.192
-67.904
-63.51
-60.958
-59.984
-60.393
-61.998
-64.557
-67.832
-71.611
-75.727
-80.052
-84.458
-88.779
-92.821
-96.393
-99.366
-101.678
-103.294
-104.219
-104.468
-104.068
-103.074
-101.56
-99.592
-97.24
-94.569
-91.636
-88.514
-85.28
-82.01
-78.783
-75.647
-72.627
-69.733
-66.962
-64.302
-61.738
-59.242
-56.78
-54.323
-51.849
-49.334
-46.762
-44.112
-41.358
-38.478
-35.449
-32.253
-28.875
-25.304
-21.529
-17.545
-13.347
-8.934
-4.31
0.524
5.568
10.818
16.27
21.921
27.761
33.782
39.972
46.317
52.802
59.409
66.116
72.902
79.744
86.617
93.496
100.353
107.162
113.893
120.518
127.008
133.333
139.466
145.377
151.037
156.42
161.499
166.248
170.644
174.665
178.289
181.497
184.273
186.602
188.47
189.867
190.785
191.216
191.158
190.609
189.569
188.043
186.036
183.558
180.618
177.23
173.408
169.17
164.536
159.525
154.159
148.464
142.463
136.184
129.653
122.899
115.95
108.837
101.587
94.231
86.799
79.318
71.818
64.327
56.872
49.479
42.175
34.982
27.925
21.024
14.301
7.774
1.46
-4.625
-10.468
-16.057
-21.381
-26.432
-31.202
-35.688
-39.885
-43.793
-47.41
-50.74
-53.785
-56.551
-59.044
-61.271
-63.241
-64.963
-66.449
-67.709
-68.755
-69.6
-70.257
-70.738
-71.056
-71.226
-71.261
-71.173
-70.976
-70.682
-70.303
-69.852
-69.339
-68.775
-68.17
-67.533
-66.874
-66.199
-65.517
-64.833
-64.154
-63.484
-62.828
-62.187
-61.564
-60.961
-60.379
-59.817
-59.276
-58.755
-58.253
-57.767
-57.297
-56.841
-56.396
-55.96
-55.531
-55.107
-54.686
-54.266
-53.845
-53.421
-52.993
-52.561
-52.122
-51.678
-51.227
-50.769
-50.304
-49.833
-49.356
-48.874
-48.388
-47.9
-47.412
-46.926
-46.443
-45.967
-45.501
-45.046
-44.607
-44.185
-43.784
-43.405
-43.053
-42.729
-42.435
-42.174
-41.948
-41.757
-41.603
-41.486
-41.409
-41.37
-41.369
-41.407
-41.483
-41.596
-41.746
-41.931
-42.151
-42.405
-42.691
-43.009
-43.356
-43.732
-44.136
-44.565
-45.018
-45.493
-45.99
-46.506
-47.041
-47.593
-48.16
-48.743
-49.339
-49.949
-50.572
-51.207
-51.855
-52.515
-53.188
-53.873
-54.572
-55.285
-56.013
-56.755
-57.514
-58.289
-59.08
-59.887
-60.71
-61.549
-62.402
-63.267
-64.143
-65.028
-65.919
-66.814
-67.707
-68.597
-69.479
-70.349
-71.201
-72.031
-72.833
-73.601
-74.328
-75.009
-75.635
-76.199
-76.695
-77.115
-77.451
-77.697
-77.844
-77.886
-77.814
-77.623
-77.306
-76.855
-76.267
-75.535
-74.655
-73.626
-72.445
-71.11
-69.621
-67.981
-66.191
-64.255
-62.178
-59.964
-57.622
-55.159
-52.584
-49.908
-47.143
-44.304
-41.407
-38.47
-35.512
-32.554
-29.616
-26.722
-23.892
-21.149
-18.513
-16
-13.63
-11.421
-9.394
-7.568
-5.963
-4.595
-3.48
-2.632
-2.062
-1.779
-1.784
-2.075
-2.65
-3.514
-4.679
-6.159
-7.961
-10.09
-12.543
-15.308
-18.368
-21.693
-25.229
-28.92
-32.707
-36.532
-40.351
-44.121
-47.789
-51.287
-54.532
-57.435
-59.925
-61.938
-63.421
-64.361
-64.768
-64.702
-64.274
-63.583
-62.742
-61.885
-61.15
-60.684
-60.632
-61.091
-62.223
-64.304
-67.519
-71.902
-77.254
-83.048
-88.758
-93.985
-98.12
-100.349
-100.059
-97.024
-91.837
-85.94
-80.618
-76.938
-76.215
-79.775
-88.549
-101.191
-113.365
-120.176
-118.121
-108.328
-94.515
-75.678
-45.487
7.984
96.672
222.253
377.578
549.846
724.629
890.49
1035.737
1146.351
1205.861
1200.634
1126.869
989.737
806.896
603.661
403.667
232.31
106.22
26.824
-11.818
-26.955
-37.304
-49.803
-65.441
-79.562
-85.433
-83.792
-79.092
-75.356
-76.216
-82.019
-90.856
-101.02
-110.825
-118.612
-123.057
-123.603
-120.332
-113.848
-105.173
-95.263
-84.955
-75.174
-66.784
-60.258
-55.771
-53.273
-52.507
-53.258
-55.334
-58.477
-62.403
-66.864
-71.652
-76.563
-81.424
-86.027
-90.152
-93.643
-96.406
-98.39
-99.586
-100.009
-99.689
-98.686
-97.086
-94.974
-92.432
-89.544
-86.382
-83.035
-79.597
-76.156
-72.799
-69.583
-66.543
-63.693
-61.036
-58.56
-56.246
-54.067
-51.983
-49.962
-47.979
-46.009
-44.028
-42.011
-39.928
-37.751
-35.452
-33.006
-30.393
-27.595
-24.594
-21.379
-17.939
-14.265
-10.355
-6.202
-1.8
2.856
7.768
12.938
18.364
24.039
29.958
36.11
42.479
49.048
55.796
62.703
69.742
76.888
84.114
91.39
98.686
105.971
113.212
120.377
127.431
134.342
141.074
147.595
153.87
159.868
165.557
170.907
175.887
180.47
184.631
188.345
191.589
194.344
196.592
198.32
199.514
200.168
200.275
199.833
198.845
197.315
195.251
192.663
189.565
185.973
181.905
177.381
172.423
167.056
161.305
155.197
148.761
142.026
135.024
127.783
120.338
112.718
104.958
97.087
89.14
81.148
73.142
65.153
57.211
49.346
41.586
33.956
26.482
19.186
12.09
5.213
-1.429
-7.82
-13.948
-19.8
-25.369
-30.647
-35.627
-40.307
-44.684
-48.757
-52.527
-55.996
-59.168
-62.046
-64.637
-66.947
-68.984
-70.755
-72.271
-73.541
-74.576
-75.388
-75.989
-76.391
-76.609
-76.654
-76.541
-76.283
-75.892
-75.382
-74.764
-74.05
-73.253
-72.382
-71.448
-70.461
-69.43
-68.364
-67.269
-66.155
-65.027
-63.893
-62.757
-61.626
-60.505
-59.399
-58.312
-57.249
-56.214
-55.21
-54.24
-53.307
-52.412
-51.558
-50.744
-49.972
-49.241
-48.551
-47.902
-47.293
-46.724
-46.193
-45.699
-45.241
-44.819
-44.43
-44.074
-43.75
-43.456
-43.193
-42.958
-42.753
-42.575
-42.424
-42.3
-42.2
-42.125
-42.072
-42.04
-42.028
-42.034
-42.055
-42.091
-42.14
-42.201
-42.272
-42.352
-42.441
-42.538
-42.641
-42.751
-42.868
-42.989
-43.117
-43.249
-43.388
-43.531
-43.679
-43.833
-43.991
-44.154
-44.321
-44.492
-44.665
-44.841
-45.019
-45.199
-45.38
-45.564
-45.749
-45.938
-46.131
-46.329
-46.533
-46.744
-46.965
-47.195
-47.437
-47.692
-47.961
-48.246
-48.547
-48.866
-49.203
-49.559
-49.935
-50.331
-50.747
-51.184
-51.642
-52.121
-52.621
-53.141
-53.682
-54.243
-54.825
-55.426
-56.046
-56.684
-57.339
-58.008
-58.689
-59.379
-60.076
-60.774
-61.47
-62.159
-62.835
-63.493
-64.127
-64.729
-65.294
-65.816
-66.287
-66.7
-67.049
-67.326
-67.526
-67.642
-67.666
-67.594
-67.419
-67.135
-66.737
-66.221
-65.581
-64.814
-63.916
-62.884
-61.716
-60.412
-58.97
-57.391
-55.678
-53.833
-51.862
-49.77
-47.565
-45.256
-42.856
-40.378
-37.836
-35.248
-32.63
-30.002
-27.383
-24.792
-22.246
-19.765
-17.366
-15.067
-12.889
-10.85
-8.971
-7.272
-5.769
-4.48
-3.42
-2.603
-2.035
-1.724
-1.675
-1.896
-2.405
-3.214
-4.334
-5.772
-7.53
-9.603
-11.975
-14.618
-17.487
-20.535
-23.714
-26.979
-30.291
-33.611
-36.895
-40.086
-43.114
-45.913
-48.419
-50.581
-52.354
-53.715
-54.68
-55.309
-55.707
-55.984
-56.224
-56.507
-56.928
-57.597
-58.651
-60.227
-62.393
-65.269
-69.055
-73.836
-79.603
-86.111
-92.736
-98.849
-103.975
-107.485
-108.675
-107.136
-102.68
-95.816
-88.078
-80.839
-74.962
-71.648
-72.12
-76.755
-85.484
-95.71
-101.635
-99.734
-87.99
-65.784
-35.754
4.959
62.454
140.975
246.004
375.586
521.807
677.729
830.871
966.367
1069.444
1121.241
1108.289
1029.086
889.349
705.816
503.183
302.367
126.15
-7.571
-96.484
-142.01
-155.453
-153.467
-139.807
-119.805
-98.54
-76.072
-62.216
-61.286
-67.854
-79.172
-88.035
-90.967
-92.918
-95.758
-100.266
-105.847
-108.89
-108.122
-104.268
-98.243
-91.426
-84.728
-78.6
-73.647
-70.297
-68.618
-68.457
-69.525
-71.561
-74.388
-77.819
-81.631
-85.624
-89.617
-93.464
-97.036
-100.169
-102.737
-104.664
-105.907
-106.461
-106.349
-105.597
-104.258
-102.409
-100.122
-97.463
-94.501
-91.292
-87.908
-84.431
-80.942
-77.52
-74.223
-71.083
-68.121
-65.345
-62.749
-60.321
-58.036
-55.858
-53.76
-51.719
-49.713
-47.722
-45.722
-43.684
-41.581
-39.387
-37.076
-34.628
-32.022
-29.241
-26.272
-23.103
-19.725
-16.133
-12.322
-8.283
-4.012
0.496
5.245
10.233
15.461
20.925
26.617
32.528
38.645
44.953
51.433
58.067
64.831
71.702
78.654
85.659
92.688
99.711
106.696
113.611
120.423
127.097
133.602
139.903
145.968
151.765
157.264
162.436
167.252
171.687
175.716
179.316
182.468
185.152
187.353
189.057
190.253
190.934
191.093
190.729
189.842
188.436
186.518
184.097
181.186
177.798
173.952
169.666
164.962
159.864
154.397
148.589
142.468
136.064
129.407
122.528
115.46
108.235
100.883
93.438
85.931
78.392
70.852
63.341
55.886
48.516
41.257
34.134
27.171
20.389
13.808
7.447
1.321
-4.554
-10.166
-15.506
-20.564
-25.336
-29.816
-34.002
-37.894
-41.492
-44.801
-47.825
-50.569
-53.04
-55.249
-57.203
-58.913
-60.389
-61.645
-62.69
-63.539
-64.202
-64.694
-65.026
-65.212
-65.265
-65.197
-65.02
-64.748
-64.392
-63.963
-63.471
-62.927
-62.341
-61.719
-61.07
-60.401
-59.718
-59.025
-58.327
-57.627
-56.928
-56.231
-55.537
-54.847
-54.16
-53.477
-52.795
-52.115
-51.435
-50.753
-50.07
-49.384
-48.694
-47.999
-47.299
-46.594
-45.882
-45.163
-44.438
-43.707
-42.969
-42.224
-41.475
-40.721
-39.965
-39.211
-38.458
-37.706
-36.958
-36.214
-35.479
-34.761
-34.058
-33.366
-32.703
-32.083
-31.517
-31.023
-30.591
-30.204
-29.882
-29.646
-29.454
-29.275
-29.082
-28.835
-28.567
-28.347
-28.133
-27.858
-27.697
-27.857
-28.21
-28.765
-29.557
-30.13
-31.701
-35.452
-39.684
-43.877
-44.91
-39.046
-30.411
-21.751
-17.159
-22.261
-32.07
-42.36
-50.233
-50.904
-47.787
-44.339
-41.328
-40.861
-41.709
-42.294
-42.914
-43.366
-43.755
-44.401
-45.093
-45.667
-46.177
-46.637
-47.03
-47.362
-47.646
-47.892
-48.131
-48.402
-48.692
-48.987
-49.296
-49.617
-49.954
-50.308
-50.676
-51.054
-51.443
-51.844
-52.255
-52.675
-53.1
-53.526
-53.951
-54.369
-54.775
-55.164
-55.53
-55.865
-56.163
-56.415
-56.614
-56.751
-56.818
-56.804
-56.703
-56.506
-56.205
-55.793
-55.263
-54.609
-53.828
-52.916
-51.87
-50.688
-49.371
-47.918
-46.332
-44.617
-42.776
-40.818
-38.751
-36.586
-34.338
-32.021
-29.652
-27.251
-24.836
-22.424
-20.034
-17.683
-15.391
-13.178
-11.066
-9.075
-7.227
-5.547
-4.058
-2.782
-1.735
-0.932
-0.379
-0.077
-0.032
-0.249
-0.741
-1.524
-2.607
-3.99
-5.674
-7.659
-9.936
-12.481
-15.25
-18.185
-21.231
-24.346
-27.498
-30.662
-33.802
-36.865
-39.78
-42.479
-44.916
-47.067
-48.928
-50.462
-51.636
-52.455
-52.983
-53.354
-53.726
-54.157
-54.606
-55.125
-55.921
-57.385
-59.974
-63.884
-69.018
-75.308
-82.805
-91.385
-100.436
-108.553
-113.979
-115.55
-112.909
-106.17
-95.503
-81.215
-64.695
-49.002
-37.767
-34.127
-38.356
-47.761
-60.417
-74.402
-91.384
-116.053
-145.739
-173.169
-182.669
-151.636
-71.552
54.988
213.983
381.266
546.465
706.276
856.477
992.305
1094.73
1143.044
1128.616
1053.735
933.115
783.268
615.899
439.869
266.175
111.936
-8.655
-87.352
-127.116
-144.301
-151.241
-154.198
-154.268
-145.131
-125.981
-102.027
-78.415
-60.62
-50.935
-48.334
-51.674
-59.979
-71.29
-82.784
-92.189
-98.316
-100.874
-100.377
-97.307
-91.593
-83.929
-75.913
-68.776
-63.283
-59.725
-57.822
-57.414
-58.708
-61.56
-65.429
-69.862
-74.439
-78.887
-83.192
-87.248
-90.811
-93.752
-96.028
-97.623
-98.595
-98.987
-98.782
-98.012
-96.736
-95.013
-92.927
-90.551
-87.938
-85.159
-82.284
-79.383
-76.527
-73.763
-71.119
-68.611
-66.241
-64
-61.876
-59.845
-57.88
-55.955
-54.045
-52.126
-50.176
-48.168
-46.076
-43.873
-41.537
-39.048
-36.388
-33.541
-30.494
-27.239
-23.773
-20.093
-16.192
-12.058
-7.676
-3.041
1.836
6.937
12.246
17.748
23.427
29.257
35.202
41.235
47.345
53.539
59.829
66.208
72.651
79.113
85.55
91.941
98.279
104.569
110.795
116.942
123.007
129.007
134.978
140.916
146.771
152.444
157.835
162.883
167.55
171.822
175.675
179.066
181.943
184.261
186
187.131
187.608
187.348
186.259
184.304
181.518
178
173.844
169.111
163.84
158.06
151.822
145.188
138.214
130.936
123.377
115.58
107.613
99.581
91.597
83.726
75.981
68.33
60.75
53.243
45.822
38.498
31.268
24.128
17.093
10.2
3.487
-3.021
-9.325
-15.443
-21.396
-27.185
-32.787
-38.167
-43.298
-48.164
-52.752
-57.045
-61.025
-64.678
-68.006
-71.028
-73.762
-76.22
-78.408
-80.327
-81.982
-83.385
-84.55
-85.492
-86.226
-86.765
-87.126
-87.327
-87.386
-87.321
-87.142
-86.86
-86.481
-86.018
-85.479
-84.876
-84.217
-83.511
-82.765
-81.991
-81.198
-80.392
-79.581
-78.768
-77.96
-77.159
-76.369
-75.592
-74.831
-74.085
-73.356
-72.643
-71.948
-71.268
-70.604
-69.954
-69.317
-68.692
-68.077
-67.472
-66.876
-66.287
-65.705
-65.129
-64.561
-63.999
-63.444
-62.896
-62.356
-61.824
-61.299
-60.783
-60.274
-59.772
-59.279
-58.794
-58.317
-57.848
-57.389
-56.939
-56.499
-56.069
-55.65
-55.242
-54.846
-54.461
-54.09
-53.73
-53.384
-53.051
-52.731
-52.423
-52.127
-51.842
-51.566
-51.3
-51.041
-50.789
-50.541
-50.297
-50.056
-49.816
-49.577
-49.339
-49.1
-48.862
-48.623
-48.386
-48.15
-47.917
-47.688
-47.464
-47.248
-47.04
-46.843
-46.66
-46.492
-46.341
-46.21
-46.101
-46.016
-45.957
-45.926
-45.925
-45.957
-46.022
-46.122
-46.26
-46.435
-46.65
-46.906
-47.202
-47.538
-47.914
-48.329
-48.78
-49.266
-49.783
-50.328
-50.897
-51.485
-52.087
-52.698
-53.311
-53.921
-54.519
-55.1
-55.654
-56.176
-56.656
-57.086
-57.459
-57.766
-58
-58.153
-58.219
-58.191
-58.062
-57.826
-57.478
-57.013
-56.426
-55.713
-54.871
-53.897
-52.791
-51.552
-50.181
-48.679
-47.05
-45.297
-43.425
-41.441
-39.35
-37.16
-34.879
-32.518
-30.087
-27.597
-25.062
-22.495
-19.911
-17.329
-14.767
-12.243
-9.778
-7.391
-5.102
-2.93
-0.894
0.992
2.713
4.255
5.604
6.745
7.662
8.344
8.779
8.957
8.871
8.514
7.884
6.987
5.829
4.417
2.75
0.818
-1.389
-3.869
-6.62
-9.636
-12.896
-16.377
-20.04
-23.823
-27.661
-31.49
-35.251
-38.901
-42.394
-45.672
-48.668
-51.3
-53.493
-55.194
-56.356
-56.94
-56.947
-56.405
-55.393
-54.042
-52.472
-50.808
-49.194
-47.767
-46.688
-46.126
-46.219
-47.146
-49.136
-52.301
-56.618
-61.868
-67.543
-73.073
-77.921
-81.413
-82.781
-81.489
-77.411
-71.079
-63.707
-56.641
-51.01
-47.836
-48.115
-52.409
-60.275
-69.756
-77.663
-80.26
-73.667
-54.216
-18.303
37.628
114.521
209.321
317.84
434.553
555.31
681.045
810.226
935.416
1045.013
1120.076
1141.938
1103.932
1007.661
862.549
686.728
496.507
308.198
142.576
14.26
-71.405
-115.046
-128.929
-127.31
-113.58
-93.07
-70.851
-49.24
-39.715
-45.73
-59.977
-77.883
-90.679
-94.709
-95.877
-96.358
-97.156
-98.537
-97.287
-92.459
-85.281
-76.699
-68
-60.264
-53.984
-49.475
-46.986
-46.428
-47.443
-49.764
-53.178
-57.448
-62.372
-67.748
-73.317
-78.858
-84.191
-89.1
-93.421
-97.046
-99.891
-101.929
-103.168
-103.633
-103.384
-102.499
-101.053
-99.114
-96.746
-94.013
-90.996
-87.786
-84.477
-81.161
-77.902
-74.742
-71.708
-68.811
-66.046
-63.4
-60.845
-58.343
-55.867
-53.396
-50.908
-48.39
-45.819
-43.171
-40.424
-37.555
-34.545
-31.378
-28.041
-24.521
-20.81
-16.904
-12.801
-8.502
-4.005
0.692
5.588
10.686
15.983
21.477
27.162
33.033
39.08
45.292
51.654
58.15
64.761
71.468
78.248
85.078
91.935
98.792
105.622
112.4
119.095
125.681
132.128
138.407
144.489
150.346
155.95
161.272
166.285
170.964
175.283
179.22
182.75
185.855
188.513
190.709
192.427
193.654
194.379
194.593
194.291
193.469
192.128
190.27
187.899
185.025
181.657
177.809
173.496
168.736
163.548
157.954
151.978
145.645
138.98
132.013
124.771
117.286
109.588
101.708
93.678
85.531
77.299
69.015
60.71
52.418
44.169
35.993
27.921
19.981
12.202
4.608
-2.776
-9.927
-16.823
-23.447
-29.78
-35.81
-41.522
-46.908
-51.96
-56.671
-61.039
-65.061
-68.739
-72.075
-75.073
-77.738
-80.078
-82.102
-83.821
-85.245
-86.389
-87.264
-87.886
-88.271
-88.434
-88.391
-88.161
-87.759
-87.203
-86.51
-85.699
-84.785
-83.786
-82.718
-81.597
-80.438
-79.254
-78.059
-76.864
-75.681
-74.518
-73.383
-72.285
-71.229
-70.22
-69.263
-68.359
-67.511
-66.721
-65.988
-65.312
-64.692
-64.126
-63.612
-63.147
-62.728
-62.353
-62.017
-61.718
-61.451
-61.212
-60.998
-60.803
-60.624
-60.456
-60.295
-60.138
-59.979
-59.815
-59.644
-59.462
-59.269
-59.061
-58.838
-58.599
-58.344
-58.074
-57.79
-57.492
-57.182
-56.864
-56.538
-56.208
-55.877
-55.548
-55.223
-54.905
-54.597
-54.301
-54.02
-53.755
-53.509
-53.283
-53.079
-52.899
-52.745
-52.618
-52.519
-52.451
-52.414
-52.41
-52.439
-52.504
-52.603
-52.739
-52.91
-53.116
-53.358
-53.634
-53.944
-54.285
-54.655
-55.054
-55.477
-55.923
-56.388
-56.869
-57.365
-57.872
-58.387
-58.909
-59.435
-59.963
-60.493
-61.021
-61.548
-62.07
-62.588
-63.099
-63.603
-64.097
-64.581
-65.052
-65.51
-65.952
-66.377
-66.783
-67.168
-67.529
-67.865
-68.174
-68.454
-68.703
-68.92
-69.104
-69.254
-69.369
-69.45
-69.495
-69.504
-69.477
-69.411
-69.306
-69.16
-68.971
-68.736
-68.454
-68.122
-67.739
-67.3
-66.804
-66.247
-65.628
-64.943
-64.19
-63.367
-62.47
-61.499
-60.453
-59.331
-58.133
-56.859
-55.51
-54.087
-52.593
-51.029
-49.396
-47.698
-45.935
-44.112
-42.232
-40.299
-38.318
-36.296
-34.241
-32.165
-30.077
-27.991
-25.919
-23.875
-21.874
-19.931
-18.057
-16.265
-14.568
-12.978
-11.509
-10.176
-8.995
-7.98
-7.143
-6.497
-6.053
-5.821
-5.801
-5.995
-6.4
-7.02
-7.87
-8.962
-10.305
-11.907
-13.773
-15.899
-18.275
-20.876
-23.655
-26.561
-29.537
-32.533
-35.508
-38.421
-41.227
-43.864
-46.256
-48.334
-50.042
-51.328
-52.144
-52.456
-52.285
-51.724
-50.923
-50.027
-49.151
-48.393
-47.872
-47.768
-48.201
-49.202
-50.807
-53.106
-56.347
-60.761
-66.362
-72.854
-79.838
-87.18
-94.526
-101.03
-105.759
-107.742
-107.524
-107.782
-109.415
-111.472
-111.133
-102.918
-87.651
-70.734
-57.244
-54.976
-64.656
-81.657
-102.082
-115.42
-108.74
-69.282
13.469
139.571
298.274
472.171
646.952
814.171
965.856
1094.086
1184.107
1216.452
1182.634
1083.809
930.536
744.872
546.63
353.615
186.221
56.883
-30.644
-77.37
-95.232
-97.174
-85.833
-66.89
-45.682
-25.075
-17.131
-25.318
-42.542
-64.421
-82.077
-91.644
-98.564
-104.543
-110.2
-115.569
-117.37
-114.561
-108.364
-99.809
-90.328
-81.255
-73.302
-66.924
-62.463
-59.911
-58.976
-59.478
-61.266
-64.114
-67.842
-72.252
-77.116
-82.282
-87.598
-92.864
-97.863
-102.382
-106.258
-109.408
-111.796
-113.411
-114.272
-114.406
-113.869
-112.737
-111.078
-108.962
-106.463
-103.646
-100.595
-97.398
-94.142
-90.913
-87.771
-84.745
-81.85
-79.09
-76.45
-73.915
-71.46
-69.05
-66.658
-64.261
-61.838
-59.371
-56.839
-54.218
-51.483
-48.611
-45.582
-42.381
-38.994
-35.411
-31.624
-27.626
-23.416
-18.992
-14.354
-9.5
-4.427
0.865
6.376
12.1
18.032
24.167
30.493
36.996
43.662
50.47
57.4
64.431
71.537
78.693
85.873
93.046
100.184
107.255
114.229
121.073
127.756
134.245
140.509
146.515
152.235
157.638
162.697
167.385
171.677
175.55
178.982
181.953
184.445
186.443
187.933
188.905
189.349
189.26
188.637
187.48
185.792
183.579
180.853
177.624
173.907
169.719
165.081
160.015
154.544
148.696
142.497
135.979
129.171
122.107
114.818
107.339
99.703
91.943
84.093
76.185
68.253
60.328
52.442
44.625
36.906
29.313
21.874
14.615
7.557
0.725
-5.863
-12.189
-18.235
-23.989
-29.438
-34.573
-39.386
-43.871
-48.025
-51.847
-55.337
-58.5
-61.339
-63.861
-66.076
-67.992
-69.621
-70.975
-72.067
-72.91
-73.519
-73.909
-74.095
-74.092
-73.915
-73.58
-73.103
-72.499
-71.784
-70.972
-70.077
-69.114
-68.096
-67.035
-65.944
-64.835
-63.717
-62.601
-61.495
-60.408
-59.346
-58.315
-57.321
-56.367
-55.456
-54.589
-53.768
-52.991
-52.26
-51.572
-50.924
-50.316
-49.745
-49.206
-48.699
-48.218
-47.762
-47.327
-46.91
-46.507
-46.116
-45.733
-45.356
-44.981
-44.606
-44.229
-43.846
-43.455
-43.056
-42.644
-42.219
-41.78
-41.325
-40.853
-40.365
-39.859
-39.337
-38.8
-38.249
-37.686
-37.114
-36.534
-35.95
-35.364
-34.78
-34.2
-33.626
-33.063
-32.511
-31.974
-31.453
-30.95
-30.467
-30.005
-29.567
-29.152
-28.763
-28.4
-28.065
-27.757
-27.478
-27.229
-27.009
-26.821
-26.664
-26.538
-26.445
-26.385
-26.358
-26.363
-26.4
-26.468
-26.566
-26.694
-26.849
-27.03
-27.236
-27.466
-27.719
-27.995
-28.292
-28.611
-28.952
-29.315
-29.7
-30.108
-30.539
-30.994
-31.475
-31.982
-32.516
-33.08
-33.674
-34.299
-34.955
-35.642
-36.36
-37.11
-37.888
-38.696
-39.53
-40.39
-41.273
-42.179
-43.104
-44.047
-45.004
-45.973
-46.95
-47.929
-48.908
-49.878
-50.835
-51.771
-52.679
-53.553
-54.385
-55.165
-55.886
-56.538
-57.112
-57.599
-57.99
-58.273
-58.441
-58.485
-58.397
-58.171
-57.799
-57.276
-56.599
-55.764
-54.769
-53.614
-52.298
-50.821
-49.186
-47.398
-45.46
-43.379
-41.163
-38.822
-36.371
-33.825
-31.2
-28.516
-25.792
-23.05
-20.311
-17.597
-14.927
-12.321
-9.799
-7.382
-5.092
-2.955
-0.992
0.775
2.328
3.648
4.717
5.522
6.061
6.333
6.333
6.053
5.472
4.571
3.339
1.771
-0.137
-2.375
-4.93
-7.773
-10.85
-14.105
-17.482
-20.932
-24.423
-27.921
-31.37
-34.7
-37.827
-40.663
-43.149
-45.227
-46.839
-47.972
-48.647
-48.928
-48.931
-48.752
-48.471
-48.199
-48.046
-48.118
-48.55
-49.452
-50.991
-53.47
-57.05
-61.67
-67.102
-72.809
-78.195
-82.779
-85.894
-86.615
-84.438
-79.549
-72.715
-65.47
-59.508
-56.109
-56.574
-62.398
-73.092
-85.618
-96.459
-102.003
-102.226
-99.957
-93.914
-76.939
-35.127
43.859
160.893
305.919
459.199
604.46
737.58
857.792
964.805
1052.429
1102.909
1099.957
1038.288
919.782
756.511
569.601
375.39
192.685
43.444
-64.593
-129.143
-156.461
-165.923
-167.713
-165.245
-159.295
-143.48
-117.52
-86.973
-56.707
-32.655
-17.931
-12.439
-15.555
-25.83
-41.004
-58.605
-76.274
-91.843
-103.915
-111.706
-114.825
-113.422
-108.194
-100.212
-90.748
-81.184
-72.441
-65.08
-59.471
-55.647
-53.496
-52.8
-53.137
-53.968
-54.92
-55.743
-56.294
-56.577
-56.644
-56.59
-56.542
-56.62
-56.904
-57.425
-58.179
-59.132
-60.218
-61.347
-62.456
-63.516
-64.52
-65.498
-66.452
-67.36
-68.172
-68.801
-69.174
-69.244
-68.959
-68.277
-67.182
-65.668
-63.777
-61.601
-59.2
-56.604
-53.829
-50.861
-47.701
-44.365
-40.861
-37.203
-33.401
-29.458
-25.385
-21.196
-16.888
-12.452
-7.854
-3.041
2.023
7.355
12.968
18.856
25.016
31.443
38.12
45.022
52.122
59.397
66.823
74.381
82.045
89.781
97.553
105.318
113.037
120.672
128.186
135.542
142.705
149.64
156.319
162.714
168.798
174.544
179.924
184.911
189.479
193.606
197.269
200.45
203.129
205.293
206.93
208.032
208.594
208.611
208.082
207.011
205.403
203.264
200.605
197.438
193.778
189.643
185.05
180.023
174.584
168.758
162.573
156.056
149.237
142.145
134.812
127.269
119.547
111.677
103.692
95.623
87.501
79.357
71.222
63.125
55.096
47.161
39.347
31.678
24.178
16.869
9.771
2.903
-3.719
-10.079
-16.164
-21.963
-27.466
-32.665
-37.555
-42.131
-46.392
-50.338
-53.97
-57.291
-60.306
-63.021
-65.444
-67.583
-69.447
-71.046
-72.393
-73.499
-74.376
-75.037
-75.496
-75.767
-75.863
-75.798
-75.588
-75.246
-74.785
-74.221
-73.566
-72.833
-72.035
-71.185
-70.293
-69.371
-68.428
-67.475
-66.519
-65.569
-64.63
-63.709
-62.812
-61.942
-61.104
-60.3
-59.533
-58.805
-58.117
-57.471
-56.866
-56.304
-55.783
-55.303
-54.863
-54.461
-54.096
-53.765
-53.466
-53.196
-52.954
-52.734
-52.536
-52.355
-52.189
-52.035
-51.89
-51.751
-51.618
-51.487
-51.357
-51.226
-51.095
-50.962
-50.826
-50.687
-50.545
-50.401
-50.253
-50.102
-49.947
-49.79
-49.63
-49.468
-49.303
-49.137
-48.97
-48.804
-48.639
-48.477
-48.32
-48.17
-48.028
-47.897
-47.78
-47.678
-47.594
-47.53
-47.488
-47.472
-47.481
-47.518
-47.585
-47.682
-47.809
-47.968
-48.158
-48.381
-48.635
-48.922
-49.241
-49.592
-49.977
-50.395
-50.846
-51.331
-51.85
-52.403
-52.989
-53.608
-54.259
-54.942
-55.654
-56.394
-57.161
-57.952
-58.764
-59.595
-60.441
-61.299
-62.165
-63.036
-63.907
-64.776
-65.638
-66.49
-67.328
-68.15
-68.953
-69.732
-70.485
-71.208
-71.897
-72.549
-73.159
-73.723
-74.234
-74.689
-75.081
-75.407
-75.66
-75.836
-75.929
-75.934
-75.847
-75.663
-75.379
-74.99
-74.492
-73.884
-73.162
-72.327
-71.377
-70.313
-69.135
-67.844
-66.443
-64.933
-63.318
-61.601
-59.783
-57.87
-55.867
-53.779
-51.614
-49.381
-47.091
-44.756
-42.393
-40.015
-37.64
-35.285
-32.966
-30.701
-28.506
-26.395
-24.382
-22.484
-20.716
-19.094
-17.632
-16.343
-15.237
-14.325
-13.616
-13.119
-12.838
-12.77
-12.92
-13.294
-13.907
-14.781
-15.932
-17.361
-19.074
-21.075
-23.358
-25.915
-28.716
-31.705
-34.826
-38.024
-41.245
-44.447
-47.571
-50.534
-53.252
-55.63
-57.596
-59.121
-60.167
-60.69
-60.671
-60.108
-59.066
-57.717
-56.233
-54.787
-53.565
-52.709
-52.429
-53.038
-54.714
-57.503
-61.312
-65.802
-70.676
-75.821
-80.928
-85.535
-89.412
-92.387
-94.595
-96.823
-99.7
-103.453
-108.57
-115.355
-123.436
-132.59
-142.294
-150.817
-156.346
-156.009
-145.193
-120.579
-81.211
-30.257
26.599
85.645
146.932
219.174
312.558
431.76
577.203
735.423
884.954
1006.388
1078.543
1088.459
1036.913
928.701
775.904
598.18
410.268
229.508
76.434
-40.214
-115.851
-154.62
-173.983
-184.433
-190.99
-194.532
-188.2
-171.278
-148.468
-124.543
-105.193
-92.112
-84.068
-80.418
-79.856
-80.64
-81.475
-81.014
-78.907
-76.328
-73.998
-71.757
-69.735
-68.213
-67.498
-68.161
-70.105
-72.355
-74.535
-76.948
-79.712
-82.962
-86.668
-90.442
-94.18
-98.113
-102.135
-105.898
-109.15
-111.624
-113.228
-114.085
-114.243
-113.687
-112.49
-110.759
-108.607
-106.164
-103.509
-100.675
-97.72
-94.713
-91.73
-88.839
-86.077
-83.464
-81.008
-78.707
-76.553
-74.52
-72.576
-70.693
-68.847
-67.019
-65.191
-63.341
-61.446
-59.483
-57.429
-55.255
-52.941
-50.465
-47.808
-44.956
-41.899
-38.626
-35.133
-31.411
-27.453
-23.253
-18.806
-14.109
-9.162
-3.965
1.478
7.158
13.065
19.185
25.501
31.996
38.648
45.436
52.336
59.321
66.364
73.436
80.507
87.545
94.517
101.389
108.127
114.696
121.062
127.191
133.049
138.604
143.824
148.68
153.144
157.189
160.791
163.927
166.578
168.726
170.358
171.461
172.027
172.05
171.529
170.463
168.858
166.719
164.054
160.877
157.201
153.043
148.421
143.358
137.875
131.999
125.757
119.177
112.289
105.125
97.717
90.097
82.298
74.352
66.293
58.153
49.964
41.757
33.562
25.409
17.327
9.341
1.478
-6.24
-13.791
-21.153
-28.31
-35.244
-41.94
-48.385
-54.567
-60.476
-66.105
-71.446
-76.495
-81.248
-85.705
-89.867
-93.734
-97.312
-100.604
-103.618
-106.36
-108.839
-111.064
-113.044
-114.79
-116.313
-117.623
-118.733
-119.652
-120.394
-120.969
-121.388
-121.662
-121.801
-121.816
-121.715
-121.509
-121.207
-120.818
-120.35
-119.813
-119.215
-118.563
-117.866
-117.129
-116.361
-115.567
-114.752
-113.921
-113.077
-112.226
-111.369
-110.51
-109.651
-108.794
-107.94
-107.092
-106.249
-105.414
-104.588
-103.771
-102.964
-102.168
-101.384
-100.614
-99.859
-99.121
-98.399
-97.697
-97.013
-96.35
-95.708
-95.085
-94.484
-93.902
-93.34
-92.796
-92.27
-91.762
-91.27
-90.795
-90.335
-89.89
-89.46
-89.044
-88.643
-88.256
-87.884
-87.526
-87.182
-86.852
-86.536
-86.235
-85.947
-85.672
-85.41
-85.159
-84.92
-84.69
-84.47
-84.258
-84.053
-83.855
-83.664
-83.48
-83.303
-83.133
-82.971
-82.818
-82.675
-82.543
-82.423
-82.316
-82.223
-82.145
-82.083
-82.037
-82.007
-81.994
-81.998
-82.019
-82.057
-82.112
-82.183
-82.271
-82.375
-82.494
-82.629
-82.78
-82.946
-83.126
-83.322
-83.531
-83.756
-83.993
-84.244
-84.508
-84.782
-85.065
-85.357
-85.653
-85.953
-86.254
-86.553
-86.848
-87.137
-87.417
-87.687
-87.943
-88.185
-88.41
-88.616
-88.8
-88.962
-89.099
-89.207
-89.286
-89.333
-89.345
-89.32
-89.255
-89.149
-88.997
-88.797
-88.545
-88.238
-87.873
-87.446
-86.954
-86.395
-85.765
-85.062
-84.284
-83.43
-82.498
-81.486
-80.394
-79.221
-77.966
-76.628
-75.208
-73.707
-72.126
-70.466
-68.73
-66.922
-65.048
-63.116
-61.134
-59.109
-57.054
-54.979
-52.897
-50.82
-48.759
-46.724
-44.728
-42.784
-40.905
-39.105
-37.4
-35.805
-34.335
-33.002
-31.821
-30.802
-29.95
-29.27
-28.767
-28.449
-28.335
-28.442
-28.786
-29.378
-30.228
-31.337
-32.698
-34.289
-36.071
-38.001
-40.034
-42.125
-44.241
-46.347
-48.4
-50.353
-52.136
-53.68
-54.925
-55.818
-56.313
-56.398
-56.091
-55.45
-54.597
-53.663
-52.759
-52.014
-51.546
-51.482
-51.985
-53.22
-55.322
-58.453
-62.816
-68.511
-75.501
-83.539
-92.063
-100.393
-107.892
-113.882
-117.602
-118.521
-116.545
-112.178
-106.661
-101.571
-98.127
-97.155
-99.662
-106.361
-116.899
-129.772
-140.918
-143.864
-133.339
-106.357
-63.411
-8.924
53.655
125.462
213.673
328.708
478.082
659.711
856.981
1043.059
1188.575
1268.67
1270.988
1197.524
1059.317
874.558
664.953
451
253.652
90.881
-25.304
-90.856
-110.337
-94.837
-60.817
-23.018
4.992
13.848
4.11
-19.388
-46.28
-66.497
-77.766
-82.095
-85.172
-91.419
-100.374
-109.326
-115.07
-116.262
-113.6
-108.392
-101.947
-95.074
-88.413
-82.702
-78.342
-75.418
-73.81
-73.214
-73.442
-74.394
-75.912
-77.838
-80.038
-82.397
-84.841
-87.273
-89.543
-91.502
-92.998
-93.935
-94.316
-94.17
-93.57
-92.655
-91.535
-90.292
-88.995
-87.64
-86.185
-84.628
-82.969
-81.226
-79.451
-77.677
-75.941
-74.282
-72.697
-71.16
-69.612
-67.944
-66.061
-63.911
-61.459
-58.723
-55.762
-52.606
-49.281
-45.816
-42.213
-38.475
-34.599
-30.559
-26.332
-21.911
-17.305
-12.545
-7.664
-2.671
2.436
7.676
13.084
18.685
24.5
30.554
36.861
43.424
50.244
57.299
64.562
72.011
79.626
87.388
95.283
103.285
111.366
119.495
127.637
135.757
143.817
151.778
159.6
167.247
174.684
181.881
188.81
195.442
201.749
207.702
213.276
218.443
223.179
227.461
231.264
234.569
237.36
239.62
241.339
242.508
243.12
243.172
242.663
241.596
239.978
237.815
235.119
231.904
228.186
223.985
219.321
214.218
208.7
202.795
196.531
189.936
183.042
175.878
168.477
160.869
153.088
145.164
137.131
129.019
120.861
112.689
104.533
96.423
88.389
80.459
72.657
65.01
57.542
