Name
Date of Birth,"Mar 27, 1959"
Recorded Date,2022-08-27 21:00:15 -0500
Classification,Sinus Rhythm
Symptoms,
Software Version,1.90
Device,"Watch4,2"
Sample Rate,510.227 hertz


Lead,Lead I
Unit,µV

-169.108
-227.833
-271.076
-290.329
-284.171
-252.368
-193.526
-111.57
-10.524
103.202
220.293
337.573
453.38
565.702
671.796
760.712
818.084
830.812
789.165
693.366
551.396
377.646
192.992
18.275
-126.445
-226.171
-277.762
-284.912
-259.244
-217.864
-173.257
-137.584
-118.727
-115.027
-123.514
-136.845
-146.116
-150.043
-149.896
-148.664
-151.077
-157.303
-164.844
-171.76
-175.831
-176.179
-173.5
-168.47
-161.815
-154.561
-147.686
-141.738
-137.081
-133.981
-132.395
-132.261
-133.488
-135.724
-138.541
-141.651
-144.826
-147.842
-150.519
-152.712
-154.364
-155.596
-156.586
-157.367
-157.803
-157.756
-157.202
-156.117
-154.379
-151.635
-147.432
-141.661
-134.67
-126.921
-118.698
-110.341
-102.166
-94.671
-88.761
-84.163
-80.035
-76.603
-73.626
-72.383
-74.526
-77.616
-79.731
-78.446
-71.018
-60.437
-49.243
-39.121
-32.595
-27.999
-23.774
-19.7
-14.678
-9.146
-3.728
1.818
7.392
12.999
18.8
24.719
30.667
36.643
42.614
48.542
54.427
60.296
66.161
72.035
77.923
83.796
89.628
95.411
101.128
106.765
112.309
117.739
123.034
128.179
133.156
137.947
142.535
146.899
151.019
154.878
158.461
161.757
164.756
167.446
169.815
171.854
173.554
174.907
175.906
176.547
176.823
176.734
176.277
175.453
174.267
172.72
170.818
168.568
165.977
163.055
159.812
156.26
152.413
148.285
143.89
139.245
134.368
129.277
123.989
118.525
112.905
107.147
101.273
95.302
89.256
83.154
77.017
70.865
64.716
58.591
52.508
46.485
40.54
34.69
28.951
23.338
17.865
12.547
7.395
2.42
-2.366
-6.954
-11.336
-15.505
-19.453
-23.177
-26.671
-29.932
-32.96
-35.752
-38.308
-40.631
-42.722
-44.583
-46.22
-47.636
-48.836
-49.827
-50.614
-51.206
-51.608
-51.831
-51.88
-51.766
-51.495
-51.078
-50.523
-49.839
-49.035
-48.119
-47.101
-45.989
-44.792
-43.521
-42.182
-40.786
-39.341
-37.856
-36.341
-34.802
-33.249
-31.691
-30.134
-28.587
-27.058
-25.553
-24.081
-22.647
-21.259
-19.923
-18.645
-17.43
-16.284
-15.213
-14.221
-13.312
-12.493
-11.766
-11.138
-10.611
-10.191
-9.88
-9.682
-9.6
-9.637
-9.794
-10.074
-10.476
-11.001
-11.649
-12.419
-13.309
-14.316
-15.438
-16.669
-18.004
-19.439
-20.966
-22.578
-24.267
-26.026
-27.844
-29.713
-31.624
-33.567
-35.531
-37.507
-39.484
-41.45
-43.393
-45.303
-47.167
-48.972
-50.706
-52.359
-53.917
-55.37
-56.706
-57.915
-58.987
-59.913
-60.683
-61.29
-61.728
-61.99
-62.072
-61.973
-61.691
-61.227
-60.581
-59.758
-58.761
-57.596
-56.27
-54.791
-53.167
-51.409
-49.528
-47.535
-45.445
-43.272
-41.032
-38.743
-36.424
-34.096
-31.782
-29.506
-27.292
-25.163
-23.14
-21.246
-19.498
-17.915
-16.515
-15.314
-14.327
-13.568
-13.052
-12.794
-12.804
-13.089
-13.645
-14.465
-15.539
-16.861
-18.43
-20.252
-22.331
-24.667
-27.262
-30.12
-33.236
-36.599
-40.177
-43.909
-47.74
-51.62
-55.513
-59.41
-63.278
-67.056
-70.667
-74.012
-77.006
-79.611
-81.768
-83.378
-84.425
-84.937
-85.054
-85.088
-85.235
-85.549
-86.073
-86.808
-87.69
-88.736
-89.819
-90.538
-90.778
-90.607
-90.086
-89.523
-89.157
-88.929
-88.91
-89.402
-90.37
-91.833
-93.964
-96.517
-99.603
-103.798
-109.414
-116.761
-125.475
-133.708
-139.515
-141.171
-138.553
-133.357
-125.562
-113.27
-89.978
-46.364
22.793
119.616
239.221
372.33
512.629
652.988
787.201
906.976
998.173
1046.117
1038.762
972.683
853.62
694.886
515.523
333.667
167.318
32.514
-62.321
-116.101
-135.266
-134.339
-128.124
-124.566
-127.144
-132.34
-132.591
-125.612
-111.471
-93.173
-77.31
-67.443
-64.697
-68.51
-76.2
-85.708
-95.688
-105.261
-113.834
-120.368
-124.214
-125.164
-123.211
-118.951
-113.171
-106.438
-99.68
-93.98
-90.012
-88.543
-90.194
-94.927
-102.494
-112.397
-123.565
-134.821
-145.142
-153.335
-158.216
-159.642
-158.463
-154.733
-148.548
-139.161
-123.846
-103.946
-84.024
-68.54
-63.565
-69.429
-80.268
-91.253
-97.484
-97.635
-95.066
-91.64
-88.312
-85.392
-81.782
-77.409
-72.804
-68.17
-63.775
-59.735
-56.065
-52.827
-49.958
-47.218
-44.378
-41.349
-38.158
-34.869
-31.503
-28.023
-24.391
-20.618
-16.738
-12.763
-8.682
-4.456
-0.051
4.548
9.341
14.32
19.485
24.836
30.374
36.094
41.985
48.03
54.209
60.501
66.887
73.344
79.847
86.368
92.878
99.348
105.75
112.06
118.251
124.294
130.16
135.819
141.245
146.411
151.291
155.861
160.096
163.976
167.479
170.588
173.287
175.562
177.401
178.793
179.731
180.21
180.227
179.782
178.879
177.521
175.717
173.476
170.81
167.733
164.262
160.414
156.21
151.67
146.818
141.678
136.276
130.637
124.789
118.76
112.578
106.271
99.868
93.398
86.887
80.363
73.853
67.383
60.978
54.66
48.453
42.378
36.454
30.7
25.132
19.767
14.617
9.695
5.011
0.574
-3.609
-7.533
-11.193
-14.588
-17.717
-20.581
-23.181
-25.523
-27.609
-29.448
-31.046
-32.411
-33.553
-34.482
-35.208
-35.743
-36.098
-36.286
-36.318
-36.206
-35.963
-35.601
-35.13
-34.564
-33.913
-33.189
-32.401
-31.561
-30.678
-29.76
-28.818
-27.859
-26.891
-25.921
-24.955
-24
-23.062
-22.144
-21.253
-20.391
-19.563
-18.77
-18.016
-17.303
-16.632
-16.005
-15.422
-14.885
-14.395
-13.951
-13.555
-13.207
-12.908
-12.658
-12.457
-12.306
-12.205
-12.155
-12.157
-12.211
-12.318
-12.479
-12.693
-12.963
-13.288
-13.669
-14.106
-14.599
-15.148
-15.753
-16.414
-17.13
-17.899
-18.721
-19.595
-20.516
-21.485
-22.497
-23.549
-24.637
-25.757
-26.905
-28.075
-29.261
-30.459
-31.662
-32.862
-34.053
-35.227
-36.376
-37.491
-38.564
-39.585
-40.546
-41.438
-42.251
-42.977
-43.607
-44.132
-44.545
-44.837
-45.001
-45.029
-44.916
-44.655
-44.242
-43.674
-42.948
-42.063
-41.018
-39.816
-38.457
-36.946
-35.287
-33.483
-31.543
-29.475
-27.286
-24.988
-22.593
-20.114
-17.569
-14.977
-12.357
-9.729
-7.112
-4.529
-2.002
0.444
2.791
5.019
7.108
9.038
10.787
12.332
13.658
14.749
15.592
16.175
16.486
16.513
16.257
15.717
14.897
13.795
12.402
10.707
8.708
6.408
3.813
0.937
-2.208
-5.599
-9.193
-12.942
-16.793
-20.688
-24.583
-28.43
-32.183
-35.793
-39.201
-42.34
-45.14
-47.535
-49.475
-50.946
-51.971
-52.578
-52.792
-52.696
-52.464
-52.354
-52.64
-53.484
-54.865
-56.767
-59.354
-62.711
-66.706
-70.892
-74.554
-77.173
-78.687
-79.116
-78.145
-75.506
-71.248
-66.004
-61.095
-57.783
-56.746
-58.331
-63.199
-71.371
-81.633
-91.97
-99.124
-101.076
-98.332
-91.537
-80.471
-61.264
-26.514
31.408
118.279
233.992
373.786
528.939
687.251
836.416
961.622
1048.998
1087.094
1067.95
993.223
869.853
710.928
534.543
356.672
193.953
60.691
-35.448
-91.368
-109.901
-101.302
-77.905
-51.529
-34.066
-29.766
-36.423
-48.967
-57.887
-58.306
-51.263
-40.285
-31.949
-29.552
-32.393
-38.668
-45.554
-51.855
-57.738
-63.029
-67.56
-70.92
-72.773
-73.366
-73.041
-71.957
-70.324
-68.431
-66.686
-65.673
-65.71
-66.768
-68.735
-71.438
-74.673
-78.262
-81.926
-85.27
-88.055
-90.18
-91.604
-92.381
-92.551
-92.118
-91.133
-89.68
-87.82
-85.616
-83.113
-80.336
-77.334
-74.175
-70.923
-67.653
-64.412
-61.226
-58.114
-55.081
-52.124
-49.242
-46.419
-43.636
-40.876
-38.125
-35.37
-32.6
-29.802
-26.959
-24.052
-21.062
-17.973
-14.775
-11.456
-8.01
-4.43
-0.712
3.147
7.146
11.285
15.564
19.983
24.543
29.239
34.067
39.021
44.094
49.277
54.558
59.923
65.358
70.846
76.368
81.906
87.441
92.949
98.41
103.801
109.098
114.278
119.317
124.19
128.875
133.347
137.583
141.561
145.258
148.655
151.732
154.47
156.854
158.869
160.501
161.739
162.574
162.997
163.004
162.589
161.753
160.495
158.818
156.726
154.228
151.333
148.05
144.394
140.379
136.022
131.339
126.351
121.077
115.539
109.76
103.764
97.574
91.216
84.714
78.096
71.385
64.608
57.789
50.954
44.126
37.329
30.585
23.916
17.343
10.885
4.561
-1.611
-7.615
-13.437
-19.064
-24.482
-29.683
-34.657
-39.396
-43.894
-48.146
-52.149
-55.901
-59.399
-62.645
-65.641
-68.387
-70.889
-73.151
-75.179
-76.978
-78.557
-79.923
-81.083
-82.047
-82.823
-83.421
-83.849
-84.116
-84.232
-84.206
-84.048
-83.766
-83.37
-82.869
-82.27
-81.582
-80.814
-79.972
-79.064
-78.097
-77.079
-76.015
-74.912
-73.777
-72.616
-71.433
-70.236
-69.027
-67.814
-66.6
-65.389
-64.187
-62.996
-61.823
-60.67
-59.542
-58.443
-57.377
-56.348
-55.36
-54.417
-53.523
-52.682
-51.897
-51.172
-50.511
-49.916
-49.392
-48.941
-48.567
-48.272
-48.059
-47.928
-47.882
-47.922
-48.049
-48.262
-48.561
-48.946
-49.415
-49.966
-50.599
-51.309
-52.093
-52.947
-53.867
-54.847
-55.882
-56.965
-58.089
-59.248
-60.433
-61.637
-62.851
-64.068
-65.278
-66.471
-67.64
-68.773
-69.862
-70.897
-71.866
-72.762
-73.575
-74.295
-74.915
-75.425
-75.818
-76.086
-76.224
-76.223
-76.08
-75.788
-75.344
-74.744
-73.987
-73.072
-71.998
-70.767
-69.38
-67.84
-66.152
-64.319
-62.348
-60.244
-58.016
-55.672
-53.223
-50.679
-48.053
-45.359
-42.613
-39.832
-37.033
-34.234
-31.456
-28.72
-26.048
-23.463
-20.983
-18.629
-16.418
-14.371
-12.505
-10.835
-9.376
-8.139
-7.137
-6.384
-5.89
-5.663
-5.7
-5.997
-6.549
-7.354
-8.418
-9.745
-11.334
-13.181
-15.285
-17.64
-20.243
-23.077
-26.102
-29.267
-32.523
-35.826
-39.155
-42.496
-45.821
-49.082
-52.211
-55.136
-57.793
-60.141
-62.129
-63.685
-64.811
-65.584
-66.176
-66.854
-67.868
-69.372
-71.479
-74.282
-77.665
-81.417
-85.284
-88.797
-91.552
-93.263
-93.631
-92.553
-90.346
-87.445
-84.208
-81.209
-78.875
-77.685
-78.443
-81.569
-86.856
-93.971
-102.643
-112.465
-123.305
-133.832
-140.807
-141.466
-133.299
-115.86
-92.009
-63.485
-30.651
8.959
62.707
137.9
239.849
369.728
520.831
680.868
833.583
960.504
1045.35
1075.262
1043.003
949.808
804.429
623.096
427.623
239.625
77.581
-45.568
-126.246
-167.494
-175.737
-162.254
-137.433
-109.842
-89.198
-78.437
-75.975
-78.482
-78.023
-71.326
-60.351
-48.323
-40.747
-39.876
-44.122
-51.302
-59.065
-66.189
-72.411
-77.402
-80.698
-82.08
-81.787
-80.271
-77.868
-74.885
-71.658
-68.639
-66.504
-65.641
-66.032
-67.544
-69.951
-73.02
-76.567
-80.296
-83.779
-86.743
-89.07
-90.714
-91.733
-92.17
-92.021
-91.333
-90.189
-88.652
-86.78
-84.62
-82.188
-79.534
-76.723
-73.822
-70.904
-68.02
-65.193
-62.44
-59.768
-57.173
-54.65
-52.184
-49.751
-47.334
-44.917
-42.485
-40.026
-37.524
-34.958
-32.308
-29.552
-26.672
-23.656
-20.491
-17.169
-13.683
-10.027
-6.2
-2.2
1.974
6.322
10.845
15.544
20.414
25.453
30.654
36.01
41.509
47.141
52.889
58.739
64.672
70.67
76.71
82.772
88.832
94.867
100.85
106.756
112.559
118.232
123.748
129.08
134.202
139.088
143.711
148.048
152.074
155.768
159.109
162.076
164.651
166.819
168.565
169.877
170.743
171.158
171.113
170.607
169.639
168.21
166.324
163.989
161.214
158.009
154.389
150.37
145.968
141.204
136.098
130.673
124.954
118.965
112.733
106.285
99.65
92.855
85.93
78.904
71.805
64.663
57.506
50.362
43.259
36.223
29.281
22.456
15.773
9.253
2.916
-3.218
-9.132
-14.812
-20.243
-25.414
-30.315
-34.939
-39.279
-43.332
-47.094
-50.566
-53.749
-56.644
-59.257
-61.591
-63.655
-65.456
-67.003
-68.307
-69.377
-70.225
-70.865
-71.309
-71.571
-71.664
-71.602
-71.399
-71.071
-70.63
-70.091
-69.468
-68.772
-68.018
-67.216
-66.378
-65.514
-64.634
-63.747
-62.861
-61.981
-61.115
-60.268
-59.444
-58.646
-57.877
-57.141
-56.438
-55.77
-55.137
-54.54
-53.979
-53.452
-52.959
-52.498
-52.068
-51.667
-51.294
-50.946
-50.622
-50.318
-50.033
-49.765
-49.512
-49.271
-49.042
-48.822
-48.611
-48.408
-48.212
-48.024
-47.844
-47.673
-47.513
-47.364
-47.23
-47.111
-47.011
-46.931
-46.875
-46.843
-46.839
-46.865
-46.923
-47.015
-47.142
-47.305
-47.506
-47.745
-48.023
-48.339
-48.693
-49.084
-49.51
-49.971
-50.465
-50.988
-51.539
-52.114
-52.71
-53.321
-53.944
-54.572
-55.199
-55.818
-56.424
-57.007
-57.562
-58.079
-58.551
-58.969
-59.326
-59.614
-59.824
-59.948
-59.979
-59.91
-59.734
-59.445
-59.039
-58.51
-57.856
-57.074
-56.163
-55.122
-53.951
-52.649
-51.221
-49.667
-47.993
-46.205
-44.308
-42.313
-40.231
-38.074
-35.858
-33.596
-31.305
-29.002
-26.704
-24.43
-22.198
-20.029
-17.941
-15.957
-14.096
-12.381
-10.831
-9.464
-8.294
-7.334
-6.596
-6.092
-5.829
-5.812
-6.045
-6.532
-7.28
-8.293
-9.569
-11.103
-12.885
-14.902
-17.14
-19.578
-22.186
-24.931
-27.781
-30.702
-33.658
-36.617
-39.544
-42.399
-45.148
-47.758
-50.197
-52.437
-54.442
-56.182
-57.651
-58.868
-59.856
-60.682
-61.462
-62.36
-63.628
-65.519
-68.2
-71.764
-76.274
-81.626
-87.537
-93.565
-98.982
-102.989
-104.958
-104.47
-101.259
-95.403
-87.331
-77.702
-67.759
-59.051
-52.882
-50.377
-52.415
-59.25
-70.828
-86.085
-101.904
-114.691
-120.935
-119.054
-110.749
-97.453
-78.579
-49.572
-2.315
70.558
172.522
300.933
448.995
606.086
759.069
894.761
997.444
1052.787
1051.103
986.94
863.566
692.862
493.182
289.738
108.066
-33.179
-124.768
-171.536
-185.903
-179.035
-161.743
-138.2
-111.294
-89.143
-75.26
-71.707
-76.93
-81.65
-81.251
-75.417
-66.08
-59.093
-56.832
-58.249
-61.913
-65.547
-68.16
-69.768
-70.129
-69.352
-67.69
-65.375
-62.772
-60.098
-57.471
-55.242
-53.893
-53.707
-54.721
-56.79
-59.659
-63.106
-66.959
-70.943
-74.683
-77.925
-80.536
-82.474
-83.787
-84.507
-84.638
-84.22
-83.333
-82.045
-80.419
-78.509
-76.345
-73.98
-71.488
-68.938
-66.4
-63.924
-61.53
-59.23
-57.028
-54.916
-52.882
-50.909
-48.968
-47.041
-45.108
-43.152
-41.157
-39.104
-36.969
-34.732
-32.369
-29.862
-27.196
-24.36
-21.344
-18.143
-14.75
-11.165
-7.385
-3.411
0.759
5.126
9.687
14.442
19.385
24.51
29.808
35.268
40.877
46.619
52.476
58.43
64.46
70.544
76.658
82.778
88.878
94.931
100.911
106.789
112.538
118.128
123.533
128.725
133.676
138.36
142.751
146.827
150.562
153.937
156.932
159.527
161.707
163.456
164.763
165.617
166.009
165.935
165.39
164.374
162.889
160.94
158.532
155.676
152.383
148.667
144.543
140.03
135.148
129.918
124.363
118.507
112.376
105.997
99.398
92.605
85.65
78.559
71.362
64.089
56.767
49.427
42.094
34.798
27.564
20.419
13.387
6.491
-0.247
-6.806
-13.166
-19.31
-25.223
-30.89
-36.299
-41.438
-46.299
-50.876
-55.161
-59.153
-62.849
-66.248
-69.352
-72.163
-74.685
-76.925
-78.887
-80.58
-82.012
-83.193
-84.133
-84.843
-85.334
-85.619
-85.71
-85.621
-85.365
-84.954
-84.403
-83.724
-82.93
-82.034
-81.049
-79.986
-78.858
-77.676
-76.449
-75.189
-73.905
-72.605
-71.297
-69.99
-68.688
-67.399
-66.129
-64.882
-63.662
-62.474
-61.322
-60.208
-59.135
-58.106
-57.122
-56.185
-55.296
-54.456
-53.666
-52.925
-52.234
-51.594
-51.004
-50.464
-49.974
-49.534
-49.143
-48.802
-48.509
-48.265
-48.069
-47.922
-47.823
-47.772
-47.771
-47.818
-47.916
-48.063
-48.261
-48.509
-48.808
-49.158
-49.558
-50.007
-50.506
-51.053
-51.647
-52.288
-52.973
-53.701
-54.47
-55.277
-56.119
-56.994
-57.897
-58.825
-59.774
-60.738
-61.714
-62.696
-63.679
-64.657
-65.625
-66.576
-67.504
-68.402
-69.262
-70.077
-70.84
-71.541
-72.174
-72.73
-73.203
-73.584
-73.867
-74.045
-74.11
-74.057
-73.88
-73.573
-73.13
-72.547
-71.821
-70.949
-69.929
-68.76
-67.441
-65.975
-64.363
-62.609
-60.715
-58.687
-56.53
-54.25
-51.856
-49.356
-46.761
-44.082
-41.333
-38.53
-35.691
-32.834
-29.977
-27.14
-24.343
-21.608
-18.957
-16.41
-13.987
-11.709
-9.596
-7.669
-5.949
-4.455
-3.202
-2.201
-1.467
-1.009
-0.839
-0.961
-1.377
-2.085
-3.087
-4.387
-5.991
-7.899
-10.109
-12.614
-15.403
-18.464
-21.777
-25.312
-29.029
-32.883
-36.826
-40.81
-44.787
-48.713
-52.54
-56.22
-59.699
-62.915
-65.801
-68.297
-70.363
-72.005
-73.234
-74.055
-74.536
-74.791
-75.036
-75.593
-76.671
-78.308
-80.538
-83.413
-86.919
-91.015
-95.321
-99.037
-101.628
-102.874
-102.664
-101.025
-97.9
-93.174
-87.454
-82.088
-78.107
-76.408
-77.623
-81.825
-89.582
-100.654
-112.543
-122.393
-127.446
-126.554
-122.227
-115.513
-103.331
-79.36
-33.104
43.282
149.384
279.973
425.292
573.542
717.368
848.764
956.579
1031.572
1062.535
1041.981
972.521
859.629
714.052
550.331
381.398
222.237
86.819
-15.454
-81.875
-116.104
-125.064
-118.777
-103.565
-84.464
-68.838
-58.573
-54.754
-56.572
-57.282
-54.356
-48.371
-40.844
-36.506
-37.24
-41.842
-48.92
-56.541
-63.61
-69.928
-75.182
-78.982
-81.199
-82.05
-81.867
-80.893
-79.397
-77.696
-76.201
-75.514
-75.948
-77.452
-79.899
-83.074
-86.747
-90.735
-94.751
-98.399
-101.441
-103.776
-105.373
-106.296
-106.59
-106.258
-105.356
-103.965
-102.151
-99.979
-97.499
-94.736
-91.744
-88.588
-85.335
-82.058
-78.805
-75.601
-72.462
-69.393
-66.392
-63.457
-60.574
-57.723
-54.888
-52.055
-49.21
-46.342
-43.437
-40.476
-37.439
-34.307
-31.063
-27.695
-24.193
-20.548
-16.754
-12.806
-8.702
-4.441
-0.024
4.55
9.28
14.167
19.206
24.392
29.719
35.178
40.759
46.449
52.233
58.095
64.017
69.979
75.96
81.938
87.89
93.792
99.619
105.344
110.942
116.386
121.65
126.707
131.531
136.097
140.379
144.354
147.999
151.293
154.217
156.753
158.885
160.598
161.88
162.722
163.116
163.057
162.54
161.567
160.137
158.255
155.929
153.166
149.979
146.381
142.387
138.015
133.285
128.217
122.835
117.163
111.226
105.05
98.663
92.093
85.368
78.518
71.572
64.558
57.506
50.445
43.401
36.402
29.474
22.642
15.93
9.361
2.955
-3.266
-9.286
-15.087
-20.655
-25.976
-31.04
-35.836
-40.358
-44.599
-48.555
-52.225
-55.608
-58.704
-61.518
-64.053
-66.314
-68.309
-70.046
-71.533
-72.783
-73.804
-74.611
-75.214
-75.628
-75.864
-75.938
-75.863
-75.651
-75.318
-74.875
-74.337
-73.716
-73.024
-72.273
-71.475
-70.638
-69.774
-68.892
-67.998
-67.102
-66.208
-65.324
-64.452
-63.598
-62.765
-61.954
-61.168
-60.407
-59.671
-58.961
-58.276
-57.613
-56.972
-56.351
-55.747
-55.158
-54.581
-54.014
-53.455
-52.9
-52.348
-51.796
-51.242
-50.686
-50.125
-49.559
-48.988
-48.41
-47.826
-47.238
-46.645
-46.051
-45.456
-44.864
-44.277
-43.699
-43.134
-42.585
-42.057
-41.555
-41.083
-40.645
-40.247
-39.893
-39.589
-39.338
-39.145
-39.015
-38.951
-38.956
-39.035
-39.19
-39.422
-39.734
-40.126
-40.599
-41.153
-41.786
-42.498
-43.285
-44.145
-45.074
-46.068
-47.12
-48.225
-49.376
-50.566
-51.786
-53.028
-54.281
-55.536
-56.783
-58.01
-59.207
-60.364
-61.468
-62.508
-63.474
-64.355
-65.139
-65.815
-66.373
-66.804
-67.096
-67.242
-67.232
-67.059
-66.717
-66.199
-65.501
-64.619
-63.55
-62.294
-60.849
-59.217
-57.402
-55.406
-53.237
-50.9
-48.406
-45.765
-42.991
-40.1
-37.106
-34.029
-30.888
-27.704
-24.498
-21.29
-18.1
-14.95
-11.864
-8.866
-5.982
-3.237
-0.656
1.733
3.906
5.839
7.51
8.903
10.01
10.818
11.317
11.495
11.332
10.82
9.956
8.741
7.18
5.285
3.073
0.574
-2.165
-5.098
-8.185
-11.391
-14.694
-18.064
-21.46
-24.832
-28.12
-31.276
-34.274
-37.096
-39.721
-42.141
-44.35
-46.375
-48.286
-50.171
-52.09
-54.054
-56.102
-58.332
-60.918
-64.139
-68.243
-73.338
-79.479
-86.744
-94.979
-103.828
-112.694
-120.51
-126.167
-128.87
-127.995
-123.115
-114.401
-102.393
-88.052
-73.355
-60.541
-51.478
-47.939
-50.442
-57.578
-67.541
-77.758
-86.531
-94.712
-102.498
-108.515
-106.891
-86.723
-36.967
50.002
173.664
326.316
495.145
665.412
824.421
957.902
1053.706
1102.233
1095.349
1034.112
924.246
775.543
603.82
424.644
254.632
109.395
-0.733
-72.745
-110.002
-119.458
-111.841
-94.403
-73.357
-57.269
-48.6
-48.796
-56.316
-62.725
-64.229
-60.374
-52.877
-47.779
-47.583
-51.28
-57.437
-63.658
-68.951
-73.642
-77.477
-80.086
-81.388
-81.487
-80.745
-79.478
-77.796
-75.802
-73.896
-72.679
-72.487
-73.347
-75.107
-77.528
-80.425
-83.656
-86.945
-89.898
-92.252
-93.879
-94.746
-94.919
-94.442
-93.32
-91.603
-89.377
-86.717
-83.693
-80.364
-76.761
-72.942
-68.982
-64.955
-60.941
-56.998
-53.154
-49.43
-45.836
-42.369
-39.026
-35.794
-32.652
-29.581
-26.567
-23.595
-20.651
-17.72
-14.779
-11.808
-8.782
-5.684
-2.497
0.792
4.196
7.722
11.38
15.174
19.108
23.184
27.408
31.782
36.309
40.989
45.82
50.798
55.918
61.173
66.551
72.04
77.624
83.289
89.014
94.781
100.568
106.353
112.11
117.816
123.445
128.97
134.363
139.598
144.647
149.484
154.081
158.413
162.455
166.184
169.576
172.61
175.268
177.532
179.385
180.814
181.808
182.356
182.451
182.089
181.266
179.983
178.242
176.049
173.41
170.335
166.836
162.928
158.627
153.95
148.919
143.553
137.877
131.916
125.694
119.238
112.576
105.737
98.747
91.637
84.435
77.168
69.866
62.555
55.262
48.014
40.835
33.749
26.779
19.947
13.271
6.772
0.465
-5.633
-11.509
-17.151
-22.549
-27.693
-32.577
-37.195
-41.543
-45.62
-49.424
-52.957
-56.221
-59.219
-61.957
-64.442
-66.679
-68.679
-70.45
-72.002
-73.346
-74.492
-75.453
-76.239
-76.864
-77.338
-77.674
-77.884
-77.979
-77.97
-77.867
-77.683
-77.425
-77.105
-76.73
-76.309
-75.85
-75.359
-74.844
-74.311
-73.764
-73.208
-72.647
-72.085
-71.524
-70.967
-70.414
-69.869
-69.33
-68.798
-68.273
-67.754
-67.241
-66.733
-66.228
-65.725
-65.223
-64.721
-64.218
-63.712
-63.203
-62.69
-62.173
-61.652
-61.128
-60.6
-60.069
-59.538
-59.007
-58.478
-57.953
-57.435
-56.925
-56.428
-55.945
-55.481
-55.038
-54.619
-54.229
-53.872
-53.55
-53.268
-53.03
-52.839
-52.699
-52.613
-52.585
-52.617
-52.713
-52.875
-53.104
-53.403
-53.772
-54.211
-54.722
-55.303
-55.953
-56.67
-57.452
-58.295
-59.196
-60.15
-61.152
-62.197
-63.278
-64.39
-65.524
-66.675
-67.833
-68.992
-70.142
-71.275
-72.382
-73.454
-74.48
-75.452
-76.36
-77.194
-77.945
-78.605
-79.164
-79.614
-79.946
-80.154
-80.229
-80.166
-79.957
-79.598
-79.084
-78.412
-77.58
-76.587
-75.432
-74.118
-72.646
-71.02
-69.245
-67.325
-65.265
-63.074
-60.76
-58.332
-55.802
-53.181
-50.484
-47.728
-44.932
-42.113
-39.29
-36.483
-33.713
-31
-28.366
-25.832
-23.415
-21.137
-19.017
-17.078
-15.338
-13.815
-12.52
-11.468
-10.667
-10.128
-9.861
-9.864
-10.137
-10.677
-11.484
-12.566
-13.928
-15.565
-17.473
-19.643
-22.063
-24.72
-27.593
-30.642
-33.827
-37.101
-40.414
-43.732
-47.017
-50.234
-53.348
-56.31
-59.068
-61.575
-63.786
-65.656
-67.169
-68.316
-69.092
-69.569
-69.877
-70.215
-70.859
-72.059
-73.983
-76.722
-80.365
-84.879
-90.046
-95.459
-100.45
-104.277
-106.346
-106.318
-103.943
-99.173
-92.357
-84.144
-75.658
-68.34
-63.628
-62.676
-66.334
-75.223
-88.617
-104.369
-119.951
-132.093
-139.242
-142.554
-142.143
-136.699
-121.218
-86.545
-24.83
68.043
189.986
333.472
487.793
641.235
782.935
900.19
981.799
1018.097
1001.638
933.375
818.199
666.285
493.632
316.601
153.676
20.498
-74.148
-129.449
-151.754
-149.229
-131.645
-105.251
-75.646
-51.754
-37.22
-34.284
-41.573
-50.624
-57.592
-61.711
-63.688
-68.175
-76.468
-86.519
-96.365
-103.418
-106.429
-105.937
-102.625
-97.276
-90.816
-84.176
-78.223
-73.553
-70.509
-69.142
-69.346
-71.006
-73.89
-77.635
-81.853
-86.213
-90.459
-94.41
-97.926
-100.887
-103.215
-104.876
-105.88
-106.241
-105.974
-105.106
-103.673
-101.72
-99.304
-96.483
-93.317
-89.879
-86.244
-82.493
-78.707
-74.943
-71.243
-67.636
-64.136
-60.75
-57.475
-54.299
-51.199
-48.156
-45.157
-42.185
-39.226
-36.264
-33.279
-30.252
-27.167
-24.006
-20.757
-17.407
-13.945
-10.364
-6.657
-2.82
1.147
5.247
9.484
13.859
18.373
23.029
27.824
32.758
37.826
43.024
48.344
53.777
59.311
64.931
70.625
76.374
82.161
87.967
93.77
99.551
105.285
110.95
116.522
121.975
127.285
132.427
137.375
142.105
146.592
150.813
154.744
158.365
161.656
164.598
167.172
169.364
171.159
172.545
173.511
174.048
174.15
173.812
173.031
171.808
170.146
168.048
165.522
162.575
159.22
155.469
151.336
146.837
141.991
136.818
131.338
125.575
119.552
113.293
106.825
100.174
93.366
86.428
79.387
72.271
65.104
57.914
50.726
43.566
36.456
29.422
22.484
15.666
8.986
2.465
-3.881
-10.035
-15.981
-21.707
-27.2
-32.45
-37.448
-42.186
-46.657
-50.857
-54.784
-58.434
-61.809
-64.91
-67.738
-70.298
-72.595
-74.635
-76.425
-77.971
-79.284
-80.371
-81.243
-81.909
-82.38
-82.666
-82.778
-82.728
-82.526
-82.184
-81.712
-81.121
-80.423
-79.627
-78.745
-77.785
-76.758
-75.672
-74.538
-73.364
-72.157
-70.925
-69.677
-68.417
-67.153
-65.889
-64.631
-63.382
-62.148
-60.931
-59.735
-58.562
-57.415
-56.295
-55.206
-54.147
-53.121
-52.129
-51.172
-50.249
-49.363
-48.514
-47.702
-46.928
-46.192
-45.495
-44.837
-44.219
-43.641
-43.104
-42.607
-42.151
-41.737
-41.366
-41.037
-40.752
-40.511
-40.316
-40.168
-40.068
-40.017
-40.017
-40.069
-40.174
-40.332
-40.546
-40.817
-41.143
-41.528
-41.97
-42.47
-43.028
-43.645
-44.318
-45.047
-45.83
-46.666
-47.552
-48.485
-49.462
-50.478
-51.531
-52.615
-53.725
-54.857
-56.004
-57.159
-58.317
-59.47
-60.61
-61.728
-62.816
-63.864
-64.864
-65.806
-66.681
-67.48
-68.193
-68.81
-69.323
-69.723
-70.001
-70.148
-70.157
-70.02
-69.731
-69.283
-68.674
-67.9
-66.956
-65.843
-64.559
-63.106
-61.485
-59.698
-57.751
-55.647
-53.396
-51.005
-48.486
-45.849
-43.109
-40.279
-37.378
-34.426
-31.443
-28.451
-25.474
-22.536
-19.665
-16.885
-14.22
-11.692
-9.321
-7.128
-5.132
-3.354
-1.811
-0.521
0.501
1.246
1.703
1.868
1.748
1.35
0.682
-0.25
-1.451
-2.926
-4.673
-6.695
-8.991
-11.555
-14.372
-17.412
-20.628
-23.979
-27.432
-30.971
-34.585
-38.249
-41.927
-45.572
-49.119
-52.514
-55.686
-58.514
-60.943
-63.007
-64.814
-66.598
-68.577
-70.829
-73.489
-76.75
-80.56
-84.707
-88.761
-91.988
-93.929
-94.488
-93.435
-90.498
-85.755
-79.462
-72.306
-65.466
-59.563
-54.739
-51.475
-50.364
-51.734
-55.993
-63.077
-72.279
-83.664
-96.789
-109.414
-119.157
-123.545
-121.842
-116.612
-109.611
-99.704
-81.139
-44.184
19.586
114.477
238.025
382.919
538.843
693.354
834.55
948.248
1020.812
1041.656
1003.468
908.287
765.946
591.331
404.301
223.42
63.385
-62.926
-148.811
-193.651
-199.709
-177.973
-142.941
-107.352
-84.324
-77.202
-81.18
-89.291
-91.15
-82.553
-66.016
-46.212
-30.022
-20.618
-17.384
-18.79
-22.439
-27.467
-34.102
-41.902
-50.345
-58.633
-65.693
-71.144
-75.002
-77.159
-77.749
-77.179
-75.856
-74.397
-73.501
-73.434
-74.213
-75.79
-77.941
-80.415
-83.019
-85.466
-87.445
-88.823
-89.553
-89.659
-89.244
-88.379
-87.106
-85.49
-83.598
-81.481
-79.192
-76.775
-74.263
-71.703
-69.135
-66.585
-64.078
-61.62
-59.209
-56.837
-54.485
-52.133
-49.768
-47.377
-44.949
-42.474
-39.936
-37.318
-34.604
-31.775
-28.816
-25.71
-22.444
-19.004
-15.384
-11.579
-7.586
-3.405
0.967
5.529
10.284
15.229
20.364
25.682
31.18
36.849
42.68
48.66
54.775
61.007
67.34
73.752
80.225
86.734
93.256
99.766
106.239
112.646
118.96
125.154
131.198
137.064
142.724
148.15
153.316
158.194
162.76
166.99
170.862
174.355
177.45
180.13
182.38
184.187
185.538
186.426
186.844
186.786
186.25
185.237
183.749
181.792
179.372
176.499
173.185
169.443
165.291
160.746
155.827
150.557
144.958
139.055
132.874
126.441
119.784
112.931
105.91
98.751
91.482
84.131
76.728
69.3
61.874
54.477
47.136
39.873
32.715
25.683
18.8
12.085
5.558
-0.764
-6.863
-12.727
-18.34
-23.693
-28.774
-33.576
-38.092
-42.318
-46.249
-49.884
-53.224
-56.269
-59.024
-61.492
-63.679
-65.591
-67.237
-68.625
-69.765
-70.667
-71.343
-71.804
-72.062
-72.129
-72.019
-71.745
-71.319
-70.756
-70.068
-69.27
-68.373
-67.392
-66.339
-65.227
-64.068
-62.874
-61.658
-60.428
-59.197
-57.973
-56.764
-55.58
-54.428
-53.313
-52.243
-51.221
-50.251
-49.339
-48.485
-47.692
-46.963
-46.296
-45.693
-45.153
-44.675
-44.259
-43.9
-43.599
-43.351
-43.155
-43.006
-42.901
-42.837
-42.808
-42.812
-42.843
-42.898
-42.972
-43.061
-43.16
-43.267
-43.377
-43.487
-43.595
-43.697
-43.791
-43.876
-43.951
-44.014
-44.065
-44.104
-44.133
-44.151
-44.16
-44.162
-44.16
-44.155
-44.152
-44.152
-44.16
-44.179
-44.213
-44.265
-44.34
-44.442
-44.574
-44.74
-44.944
-45.188
-45.476
-45.809
-46.19
-46.619
-47.099
-47.628
-48.208
-48.836
-49.511
-50.232
-50.994
-51.795
-52.628
-53.489
-54.372
-55.268
-56.171
-57.072
-57.961
-58.83
-59.669
-60.466
-61.212
-61.894
-62.501
-63.023
-63.448
-63.764
-63.963
-64.033
-63.967
-63.754
-63.388
-62.861
-62.169
-61.306
-60.268
-59.053
-57.661
-56.093
-54.351
-52.438
-50.359
-48.122
-45.734
-43.209
-40.562
-37.809
-34.968
-32.062
-29.112
-26.145
-23.186
-20.257
-17.38
-14.576
-11.868
-9.28
-6.836
-4.559
-2.471
-0.589
1.072
2.495
3.671
4.597
5.274
5.705
5.89
5.816
5.465
4.823
3.88
2.629
1.074
-0.777
-2.909
-5.296
-7.909
-10.728
-13.725
-16.876
-20.154
-23.526
-26.947
-30.359
-33.669
-36.742
-39.506
-41.954
-44.161
-46.299
-48.509
-50.851
-53.42
-56.392
-59.832
-63.644
-67.5
-70.755
-72.922
-73.938
-73.838
-72.619
-70.292
-66.92
-62.931
-59.339
-57.006
-56.092
-56.478
-57.998
-60.791
-65.371
-71.872
-79.871
-88.949
-99.068
-110.596
-123.088
-134.174
-140.826
-140.179
-131.757
-118.317
-101.509
-80.269
-49.146
1.054
77.909
184.673
318.471
472.021
634.63
793.361
935.057
1044.082
1106.667
1113.862
1061.364
953.862
802.264
621.52
431.262
250.736
98.079
-13.029
-78.707
-101.889
-94.495
-72.973
-50.038
-36.688
-35.705
-42.384
-51.441
-55.568
-51.963
-43.487
-34.319
-29.802
-31.969
-39.423
-49.919
-60.456
-69.524
-76.731
-81.361
-83.315
-82.841
-80.176
-76.007
-71.11
-65.915
-60.955
-56.974
-54.368
-53.275
-53.7
-55.354
-57.927
-61.246
-65.037
-68.918
-72.622
-75.923
-78.648
-80.775
-82.287
-83.148
-83.375
-83
-82.052
-80.591
-78.677
-76.351
-73.671
-70.699
-67.495
-64.132
-60.685
-57.221
-53.805
-50.482
-47.277
-44.209
-41.284
-38.499
-35.851
-33.322
-30.888
-28.53
-26.23
-23.968
-21.73
-19.492
-17.233
-14.932
-12.569
-10.126
-7.589
-4.946
-2.184
0.707
3.734
6.903
10.218
13.682
17.3
21.074
25.007
29.099
33.346
37.745
42.291
46.976
51.789
56.717
61.746
66.859
72.037
77.261
82.509
87.758
92.984
98.163
103.268
108.273
113.15
117.872
122.412
126.743
130.837
134.669
138.214
141.446
144.344
146.886
149.051
150.822
152.182
153.117
153.614
153.664
153.259
152.394
151.065
149.274
147.022
144.314
141.159
137.567
133.549
129.122
124.301
119.106
113.558
107.679
101.494
95.027
88.307
81.36
74.217
66.906
59.458
51.903
44.272
36.594
28.9
21.22
13.582
6.015
-1.455
-8.801
-15.999
-23.025
-29.857
-36.476
-42.862
-49
-54.873
-60.469
-65.777
-70.788
-75.494
-79.89
-83.973
-87.74
-91.191
-94.329
-97.155
-99.676
-101.896
-103.823
-105.467
-106.836
-107.941
-108.795
-109.409
-109.796
-109.971
-109.946
-109.736
-109.356
-108.818
-108.138
-107.329
-106.406
-105.38
-104.265
-103.074
-101.817
-100.507
-99.152
-97.764
-96.35
-94.918
-93.477
-92.032
-90.59
-89.156
-87.734
-86.33
-84.946
-83.585
-82.249
-80.941
-79.661
-78.411
-77.191
-76.001
-74.841
-73.711
-72.61
-71.537
-70.493
-69.476
-68.486
-67.522
-66.584
-65.671
-64.784
-63.923
-63.087
-62.279
-61.497
-60.745
-60.023
-59.334
-58.678
-58.058
-57.475
-56.932
-56.43
-55.972
-55.559
-55.194
-54.878
-54.612
-54.4
-54.243
-54.143
-54.1
-54.116
-54.192
-54.329
-54.528
-54.788
-55.109
-55.492
-55.934
-56.436
-56.995
-57.609
-58.275
-58.991
-59.751
-60.552
-61.388
-62.254
-63.145
-64.053
-64.974
-65.9
-66.825
-67.742
-68.645
-69.527
-70.379
-71.196
-71.969
-72.691
-73.354
-73.951
-74.474
-74.917
-75.272
-75.532
-75.691
-75.743
-75.681
-75.499
-75.193
-74.756
-74.185
-73.477
-72.63
-71.642
-70.513
-69.243
-67.834
-66.289
-64.612
-62.807
-60.878
-58.831
-56.673
-54.412
-52.056
-49.614
-47.098
-44.519
-41.894
-39.237
-36.567
-33.9
-31.254
-28.648
-26.101
-23.633
-21.263
-19.009
-16.889
-14.92
-13.122
-11.516
-10.118
-8.943
-8.004
-7.31
-6.872
-6.697
-6.788
-7.147
-7.775
-8.672
-9.848
-11.312
-13.067
-15.113
-17.448
-20.058
-22.929
-26.035
-29.338
-32.795
-36.358
-39.981
-43.622
-47.23
-50.757
-54.15
-57.349
-60.3
-62.948
-65.232
-67.096
-68.512
-69.487
-70.082
-70.369
-70.395
-70.266
-70.155
-70.311
-71.007
-72.378
-74.429
-77.191
-80.782
-85.231
-90.344
-95.559
-100.123
-103.544
-105.611
-106.16
-104.927
-101.699
-96.661
-90.737
-85.383
-81.943
-81.335
-84.24
-90.603
-99.389
-109.177
-117.349
-122.356
-125.021
-124.965
-121.272
-109.482
-79.889
-25.54
58.083
171.41
307.9
461.891
626.099
789.013
937.226
1052.438
1116.353
1117.791
1055.41
937.262
779.196
600.124
416.293
243.804
96.162
-17.582
-90.41
-121.981
-118.769
-92.173
-57.357
-29.26
-18.474
-26.945
-49.678
-76.799
-97.28
-106.652
-105.623
-98.169
-90.287
-84.288
-79.863
-76.206
-71.815
-66.798
-62.466
-59.689
-59.087
-60.632
-63.509
-66.963
-70.511
-73.686
-76.168
-77.85
-78.707
-78.984
-79.246
-79.927
-81.222
-83.189
-85.706
-88.563
-91.569
-94.472
-96.945
-98.771
-99.856
-100.179
-99.813
-98.845
-97.338
-95.37
-93.03
-90.384
-87.488
-84.402
-81.172
-77.861
-74.544
-71.271
-68.079
-64.987
-61.998
-59.106
-56.297
-53.549
-50.831
-48.12
-45.401
-42.66
-39.885
-37.058
-34.161
-31.172
-28.07
-24.837
-21.455
-17.909
-14.188
-10.286
-6.198
-1.923
2.539
7.187
12.022
17.044
22.251
27.641
33.209
38.947
44.846
50.896
57.08
63.381
69.779
76.254
82.783
89.34
95.901
102.438
108.924
115.33
121.627
127.785
133.775
139.567
145.131
150.439
155.463
160.176
164.552
168.568
172.202
175.431
178.238
180.607
182.521
183.968
184.938
185.423
185.418
184.918
183.923
182.436
180.462
178.009
175.087
171.711
167.894
163.656
159.016
153.997
148.622
142.916
136.908
130.623
124.093
117.346
110.414
103.327
96.116
88.812
81.446
74.048
66.647
59.273
51.953
44.714
37.581
30.58
23.732
17.061
10.585
4.322
-1.709
-7.496
-13.026
-18.287
-23.273
-27.975
-32.391
-36.516
-40.351
-43.896
-47.154
-50.129
-52.828
-55.257
-57.425
-59.342
-61.018
-62.466
-63.696
-64.723
-65.559
-66.218
-66.713
-67.059
-67.268
-67.356
-67.334
-67.216
-67.015
-66.744
-66.413
-66.034
-65.616
-65.171
-64.705
-64.227
-63.744
-63.262
-62.786
-62.32
-61.867
-61.43
-61.011
-60.611
-60.23
-59.868
-59.524
-59.196
-58.882
-58.581
-58.289
-58.003
-57.72
-57.438
-57.153
-56.862
-56.562
-56.249
-55.922
-55.577
-55.212
-54.825
-54.414
-53.978
-53.516
-53.028
-52.514
-51.974
-51.408
-50.819
-50.208
-49.578
-48.93
-48.268
-47.595
-46.914
-46.23
-45.546
-44.867
-44.197
-43.54
-42.902
-42.287
-41.699
-41.145
-40.627
-40.151
-39.722
-39.342
-39.017
-38.75
-38.545
-38.404
-38.331
-38.327
-38.396
-38.537
-38.752
-39.042
-39.406
-39.842
-40.351
-40.929
-41.573
-42.282
-43.05
-43.875
-44.751
-45.673
-46.636
-47.633
-48.659
-49.705
-50.764
-51.827
-52.888
-53.935
-54.961
-55.957
-56.914
-57.82
-58.668
-59.448
-60.149
-60.762
-61.278
-61.688
-61.981
-62.151
-62.189
-62.09
-61.845
-61.452
-60.904
-60.2
-59.337
-58.314
-57.131
-55.788
-54.289
-52.636
-50.834
-48.889
-46.81
-44.606
-42.289
-39.873
-37.375
-34.81
-32.196
-29.553
-26.898
-24.252
-21.636
-19.069
-16.573
-14.167
-11.873
-9.716
-7.717
-5.897
-4.275
-2.869
-1.693
-0.762
-0.084
0.334
0.483
0.355
-0.06
-0.775
-1.795
-3.125
-4.769
-6.718
-8.962
-11.477
-14.226
-17.173
-20.278
-23.5
-26.808
-30.158
-33.495
-36.765
-39.911
-42.878
-45.634
-48.122
-50.268
-52.043
-53.451
-54.537
-55.415
-56.137
-56.693
-57.192
-57.827
-58.775
-60.236
-62.257
-64.731
-67.753
-71.561
-76.104
-81.059
-85.987
-90.347
-93.792
-96.188
-97.159
-96.023
-93.173
-90.232
-87.829
-86.334
-84.896
-80.426
-74.227
-70.201
-70.651
-78.994
-92.644
-104.67
-112.147
-111.763
-101.931
-81.808
-45.304
15.003
104.973
226.181
374.452
538.873
704.221
854.997
973.855
1048.456
1071.903
1040.744
960.094
836.432
678.854
502.01
320.457
152.145
14.68
-82.055
-135.451
-150.324
-138.477
-113.024
-84.158
-61.587
-50.779
-50.865
-59.26
-69.229
-73.412
-70.474
-62.061
-52.337
-46.464
-45.639
-48.607
-53.635
-58.924
-63.871
-68.501
-72.614
-75.809
-77.857
-78.865
-79.022
-78.482
-77.441
-76.124
-74.895
-74.326
-74.698
-75.971
-78.059
-80.752
-83.839
-87.153
-90.407
-93.247
-95.473
-97.005
-97.823
-97.997
-97.566
-96.549
-95.014
-93.045
-90.709
-88.073
-85.18
-82.069
-78.8
-75.444
-72.074
-68.747
-65.498
-62.342
-59.289
-56.34
-53.49
-50.726
-48.025
-45.369
-42.745
-40.136
-37.531
-34.913
-32.26
-29.552
-26.765
-23.879
-20.878
-17.745
-14.47
-11.041
-7.453
-3.7
0.222
4.314
8.581
13.025
17.647
22.448
27.425
32.574
37.889
43.361
48.98
54.732
60.602
66.571
72.622
78.732
84.881
91.045
97.197
103.313
109.366
115.327
121.168
126.86
132.375
137.684
142.758
147.571
152.095
156.305
160.177
163.688
166.818
169.548
171.859
173.737
175.168
176.142
176.651
176.687
176.246
175.328
173.934
172.068
169.735
166.946
163.71
160.042
155.956
151.472
146.608
141.386
135.829
129.961
123.809
117.399
110.759
103.919
96.908
89.754
82.489
75.14
67.739
60.313
52.89
45.498
38.164
30.913
23.768
16.754
9.892
3.202
-3.298
-9.589
-15.656
-21.485
-27.063
-32.381
-37.429
-42.2
-46.689
-50.891
-54.804
-58.428
-61.764
-64.814
-67.583
-70.075
-72.298
-74.258
-75.965
-77.428
-78.658
-79.666
-80.464
-81.063
-81.475
-81.714
-81.791
-81.72
-81.511
-81.178
-80.733
-80.187
-79.551
-78.837
-78.055
-77.215
-76.327
-75.4
-74.442
-73.461
-72.465
-71.46
-70.452
-69.448
-68.451
-67.466
-66.497
-65.547
-64.616
-63.709
-62.824
-61.964
-61.129
-60.317
-59.53
-58.767
-58.026
-57.308
-56.612
-55.936
-55.281
-54.645
-54.028
-53.43
-52.851
-52.29
-51.747
-51.224
-50.72
-50.237
-49.774
-49.334
-48.916
-48.522
-48.154
-47.813
-47.501
-47.219
-46.971
-46.759
-46.584
-46.45
-46.36
-46.315
-46.319
-46.374
-46.483
-46.649
-46.872
-47.156
-47.502
-47.911
-48.385
-48.922
-49.524
-50.188
-50.915
-51.702
-52.546
-53.445
-54.395
-55.392
-56.432
-57.509
-58.619
-59.755
-60.911
-62.08
-63.254
-64.426
-65.587
-66.728
-67.84
-68.914
-69.94
-70.909
-71.811
-72.637
-73.376
-74.02
-74.559
-74.982
-75.282
-75.45
-75.478
-75.359
-75.087
-74.656
-74.064
-73.306
-72.381
-71.287
-70.024
-68.594
-66.998
-65.24
-63.325
-61.259
-59.049
-56.705
-54.239
-51.665
-48.998
-46.254
-43.45
-40.605
-37.738
-34.87
-32.024
-29.22
-26.481
-23.829
-21.287
-18.878
-16.625
-14.549
-12.669
-11.001
-9.563
-8.372
-7.443
-6.784
-6.402
-6.299
-6.48
-6.952
-7.72
-8.784
-10.143
-11.793
-13.725
-15.931
-18.393
-21.082
-23.962
-26.992
-30.125
-33.33
-36.574
-39.827
-43.065
-46.243
-49.315
-52.237
-54.958
-57.426
-59.618
-61.511
-63.086
-64.423
-65.639
-66.897
-68.437
-70.453
-73.071
-76.362
-80.359
-84.949
-89.922
-94.969
-99.62
-103.424
-105.967
-107.041
-106.59
-104.566
-101.15
-96.713
-91.615
-87.145
-84.693
-84.198
-86.106
-89.273
-92.069
-96.166
-101.508
-108.609
-117.968
-125.665
-130.165
-129.407
-120.2
-101.145
-66.608
-11.663
66.646
170.144
294.31
433.682
580.677
724.436
854.874
958.116
1020.717
1033.014
988.23
888.304
741.686
562.01
368.663
181.361
19.498
-101.1
-172.932
-195.961
-179.408
-139.859
-94.621
-59.567
-44.272
-47.958
-63.826
-81.132
-89.793
-87.34
-76.639
-63.753
-55.106
-52.264
-53.837
-57.7
-61.479
-64.635
-67.319
-69.002
-69.543
-68.997
-67.394
-65.123
-62.514
-59.644
-56.854
-54.794
-53.852
-54.164
-55.705
-58.202
-61.399
-65.13
-69.097
-72.89
-76.236
-78.971
-81.024
-82.45
-83.281
-83.522
-83.225
-82.462
-81.294
-79.781
-77.968
-75.879
-73.567
-71.102
-68.559
-66.015
-63.522
-61.106
-58.782
-56.555
-54.419
-52.362
-50.36
-48.385
-46.414
-44.427
-42.406
-40.333
-38.187
-35.942
-33.574
-31.057
-28.37
-25.495
-22.418
-19.126
-15.612
-11.869
-7.892
-3.683
0.761
5.441
10.357
15.507
20.889
26.497
32.323
38.357
44.586
50.995
57.565
64.276
71.106
78.03
85.022
92.056
99.102
106.13
113.11
120.01
126.798
133.442
139.909
146.166
152.183
157.928
163.371
168.483
173.236
177.605
181.565
185.093
188.17
190.776
192.897
194.517
195.626
196.214
196.276
195.808
194.81
193.284
191.236
188.673
185.607
182.051
178.021
173.535
168.615
163.283
157.564
151.484
145.07
138.352
131.361
124.127
116.683
109.06
101.292
93.411
85.449
77.438
69.411
61.397
53.427
45.531
37.735
30.068
22.555
15.22
8.085
1.171
-5.503
-11.919
-18.063
-23.921
-29.481
-34.735
-39.675
-44.295
-48.593
-52.567
-56.216
-59.544
-62.553
-65.25
-67.641
-69.733
-71.537
-73.062
-74.32
-75.322
-76.083
-76.615
-76.932
-77.048
-76.978
-76.737
-76.339
-75.799
-75.133
-74.353
-73.475
-72.512
-71.478
-70.385
-69.247
-68.075
-66.879
-65.671
-64.46
-63.254
-62.062
-60.891
-59.748
-58.637
-57.564
-56.533
-55.547
-54.609
-53.72
-52.883
-52.098
-51.365
-50.684
-50.056
-49.478
-48.951
-48.473
-48.043
-47.66
-47.321
-47.025
-46.77
-46.555
-46.378
-46.236
-46.128
-46.053
-46.008
-45.992
-46.004
-46.042
-46.106
-46.194
-46.305
-46.44
-46.597
-46.775
-46.976
-47.2
-47.446
-47.716
-48.009
-48.327
-48.671
-49.04
-49.437
-49.86
-50.311
-50.791
-51.298
-51.832
-52.395
-52.984
-53.6
-54.241
-54.906
-55.593
-56.3
-57.025
-57.767
-58.52
-59.284
-60.054
-60.827
-61.599
-62.367
-63.126
-63.872
-64.599
-65.303
-65.976
-66.615
-67.211
-67.758
-68.25
-68.68
-69.042
-69.328
-69.533
-69.649
-69.671
-69.592
-69.407
-69.109
-68.694
-68.157
-67.495
-66.704
-65.782
-64.727
-63.54
-62.22
-60.768
-59.186
-57.476
-55.642
-53.687
-51.618
-49.439
-47.159
-44.787
-42.335
-39.817
-37.246
-34.64
-32.013
-29.385
-26.775
-24.202
-21.686
-19.248
-16.907
-14.684
-12.602
-10.682
-8.946
-7.412
-6.097
-5.016
-4.183
-3.612
-3.314
-3.292
-3.549
-4.084
-4.899
-6.002
-7.397
-9.079
-11.041
-13.277
-15.775
-18.523
-21.501
-24.671
-27.993
-31.426
-34.921
-38.448
-41.972
-45.458
-48.877
-52.178
-55.311
-58.241
-60.92
-63.304
-65.38
-67.113
-68.483
-69.578
-70.506
-71.447
-72.686
-74.41
-76.756
-79.91
-83.962
-88.858
-94.469
-100.352
-105.812
-110.315
-113.326
-114.285
-112.924
-109.115
-102.859
-94.773
-85.917
-77.293
-70.082
-65.612
-64.836
-68.494
-77.346
-90.457
-105.04
-118.356
-127.162
-130.214
-129.771
-126.723
-119.433
-102.111
-64.407
2.863
104.124
237.191
394.566
564.471
733.118
886.351
1007.383
1082.836
1104.107
1068.304
982.492
855.99
699.868
527.171
350.166
184.65
46.111
-54.765
-115.569
-143.191
-147.536
-138.903
-122.905
-101.243
-78.486
-58.969
-46.201
-42.723
-45.036
-47.582
-48.051
-45.785
-42.734
-42.549
-46.056
-52.428
-60.59
-68.566
-75.032
-79.583
-82.064
-82.733
-82.059
-80.424
-78.109
-75.491
-73.156
-71.699
-71.471
-72.553
-74.786
-77.916
-81.712
-85.931
-90.23
-94.206
-97.587
-100.243
-102.148
-103.349
-103.879
-103.746
-102.993
-101.701
-99.938
-97.763
-95.227
-92.356
-89.205
-85.853
-82.377
-78.862
-75.367
-71.921
-68.547
-65.258
-62.058
-58.944
-55.906
-52.924
-49.979
-47.06
-44.154
-41.25
-38.331
-35.378
-32.367
-29.278
-26.092
-22.795
-19.374
-15.818
-12.121
-8.275
-4.276
-0.125
4.182
8.648
13.274
18.061
23.011
28.12
33.385
38.8
44.357
50.047
55.856
61.771
67.774
73.848
79.973
86.127
92.289
98.434
104.537
110.572
116.512
122.33
127.997
133.486
138.768
143.815
148.6
153.096
157.277
161.12
164.601
167.7
170.396
172.67
174.508
175.895
176.818
177.269
177.239
176.723
175.72
174.228
172.252
169.797
166.871
163.485
159.651
155.387
150.708
145.636
140.191
134.397
128.28
121.866
115.184
108.263
101.135
93.83
86.38
78.817
71.174
63.483
55.774
48.081
40.432
32.858
25.387
18.048
10.865
3.865
-2.931
-9.499
-15.82
-21.877
-27.653
-33.134
-38.309
-43.167
-47.701
-51.905
-55.775
-59.308
-62.506
-65.369
-67.902
-70.111
-72.002
-73.586
-74.873
-75.875
-76.605
-77.078
-77.31
-77.317
-77.116
-76.723
-76.157
-75.436
-74.578
-73.6
-72.521
-71.358
-70.128
-68.848
-67.533
-66.199
-64.86
-63.53
-62.22
-60.942
-59.708
-58.526
-57.406
-56.356
-55.382
-54.49
-53.684
-52.969
-52.346
-51.816
-51.38
-51.036
-50.783
-50.617
-50.536
-50.534
-50.608
-50.75
-50.956
-51.219
-51.532
-51.888
-52.281
-52.703
-53.147
-53.606
-54.075
-54.546
-55.015
-55.475
-55.922
-56.352
-56.76
-57.142
-57.495
-57.816
-58.103
-58.353
-58.564
-58.737
-58.87
-58.964
-59.02
-59.04
-59.026
-58.981
-58.908
-58.81
-58.692
-58.558
-58.412
-58.26
-58.106
-57.956
-57.814
-57.686
-57.577
-57.49
-57.431
-57.402
-57.406
-57.446
-57.523
-57.639
-57.793
-57.987
-58.22
-58.493
-58.803
-59.15
-59.531
-59.944
-60.385
-60.85
-61.334
-61.832
-62.337
-62.841
-63.339
-63.822
-64.282
-64.712
-65.102
-65.443
-65.727
-65.945
-66.087
-66.144
-66.108
-65.971
-65.724
-65.363
-64.882
-64.276
-63.542
-62.678
-61.682
-60.554
-59.295
-57.905
-56.386
-54.742
-52.977
-51.097
-49.108
-47.021
-44.846
-42.597
-40.291
-37.944
-35.574
-33.2
-30.842
-28.521
-26.255
-24.063
-21.961
-19.969
-18.104
-16.389
-14.842
-13.481
-12.322
-11.38
-10.671
-10.205
-9.99
-10.026
-10.314
-10.857
-11.666
-12.758
-14.149
-15.848
-17.858
-20.18
-22.809
-25.734
-28.926
-32.336
-35.907
-39.586
-43.322
-47.076
-50.801
-54.435
-57.901
-61.114
-63.992
-66.476
-68.52
-70.078
-71.128
-71.677
-71.769
-71.503
-71.006
-70.408
-69.841
-69.436
-69.312
-69.614
-70.548
-72.3
-74.994
-78.614
-82.965
-87.814
-92.901
-97.883
-102.265
-105.474
-107.043
-106.952
-105.671
-103.764
-101.974
-101.156
-102.141
-106.093
-113.194
-121.431
-128.132
-130.527
-127.544
-122.071
-116.202
-107.722
-90.026
-50.575
22.091
130.057
268.032
423.439
579.959
727.933
860.107
968.237
1046.62
1083.955
1069.383
1001.522
882.443
723.826
544.964
363.055
196.445
60.211
-38.465
-97.988
-122.414
-121.032
-105.084
-83.642
-65.622
-57.439
-59.143
-68.843
-80.832
-87.647
-87.197
-80.459
-71.087
-64.178
-61.335
-61.742
-63.871
-66.033
-68.064
-70.429
-73.144
-76.043
-78.618
-80.577
-82.072
-83.142
-83.723
-83.855
-83.664
-83.495
-83.882
-85.061
-86.983
-89.544
-92.533
-95.737
-98.974
-101.98
-104.439
-106.167
-107.1
-107.233
-106.648
-105.415
-103.583
-101.222
-98.417
-95.238
-91.752
-88.025
-84.114
-80.088
-76.029
-71.995
-68.032
-64.17
-60.423
-56.795
-53.279
-49.861
-46.521
-43.244
-40.018
-36.833
-33.679
-30.541
-27.403
-24.248
-21.058
-17.814
-14.503
-11.108
-7.619
-4.028
-0.328
3.484
7.412
11.458
15.627
19.924
24.35
28.909
33.601
38.424
43.375
48.45
53.64
58.936
64.324
69.791
75.323
80.902
86.509
92.126
97.732
103.304
108.82
114.256
119.588
124.793
129.845
134.719
139.392
143.839
148.037
151.963
155.595
158.914
161.9
164.535
166.803
168.69
170.182
171.269
171.943
172.195
172.022
171.421
170.392
168.939
167.064
164.777
162.085
158.999
155.534
151.703
147.525
143.016
138.196
133.088
127.711
122.091
116.251
110.215
104.009
97.658
91.188
84.624
77.991
71.316
64.621
57.933
51.272
44.663
38.126
31.683
25.352
19.151
13.097
7.205
1.49
-4.036
-9.362
-14.479
-19.379
-24.054
-28.5
-32.713
-36.691
-40.433
-43.938
-47.208
-50.246
-53.054
-55.638
-58.002
-60.154
-62.099
-63.844
-65.399
-66.771
-67.969
-69.002
-69.88
-70.611
-71.204
-71.67
-72.017
-72.255
-72.391
-72.435
-72.394
-72.278
-72.092
-71.844
-71.541
-71.19
-70.796
-70.365
-69.901
-69.41
-68.897
-68.363
-67.814
-67.253
-66.681
-66.103
-65.518
-64.931
-64.341
-63.751
-63.16
-62.571
-61.983
-61.397
-60.813
-60.23
-59.65
-59.072
-58.496
-57.922
-57.35
-56.78
-56.212
-55.645
-55.08
-54.518
-53.958
-53.401
-52.846
-52.296
-51.749
-51.207
-50.671
-50.142
-49.62
-49.106
-48.603
-48.11
-47.63
-47.164
-46.714
-46.281
-45.868
-45.477
-45.11
-44.769
-44.455
-44.172
-43.922
-43.706
-43.527
-43.387
-43.287
-43.23
-43.217
-43.249
-43.329
-43.456
-43.632
-43.856
-44.128
-44.448
-44.815
-45.228
-45.685
-46.183
-46.721
-47.295
-47.902
-48.538
-49.199
-49.879
-50.572
-51.273
-51.974
-52.669
-53.349
-54.007
-54.636
-55.226
-55.771
-56.261
-56.688
-57.043
-57.318
-57.504
-57.592
-57.576
-57.447
-57.199
-56.826
-56.322
-55.684
-54.907
-53.99
-52.929
-51.726
-50.379
-48.891
-47.264
-45.502
-43.611
-41.599
-39.473
-37.245
-34.93
-32.541
-30.096
-27.612
-25.107
-22.603
-20.119
-17.675
-15.289
-12.98
-10.769
-8.674
-6.719
-4.923
-3.306
-1.887
-0.684
0.286
1.009
1.472
1.672
1.604
1.263
0.639
-0.285
-1.525
-3.084
-4.968
-7.173
-9.691
-12.51
-15.602
-18.919
-22.412
-26.029
-29.726
-33.468
-37.212
-40.907
-44.489
-47.878
-51.004
-53.809
-56.246
-58.276
-59.88
-61.065
-61.881
-62.422
-62.787
-63.084
-63.416
-63.883
-64.597
-65.652
-67.167
-69.297
-72.169
-75.86
-80.325
-85.371
-90.74
-96.148
-101.195
-105.344
-108.043
-108.82
-107.627
-104.858
-100.962
-96.58
-92.537
-89.709
-89.271
-91.619
-95.163
-97.399
-95.698
-89.147
-80.048
-70.867
-61.393
-46.29
-15.455
42.186
134.202
260.443
414.636
583.99
751.984
902.578
1018.183
1086.265
1099.467
1054.93
958.73
818.657
646.345
458.057
269.523
99.91
-34.046
-124.195
-169.031
-175.574
-157.552
-127.536
-96.373
-73.953
-62.582
-60.682
-64.819
-66.828
-63.353
-55.938
-47.278
-42.785
-44.61
-51.191
-60.46
-69.739
-77.596
-83.611
-87.328
-88.772
-88.185
-85.95
-82.714
-78.965
-75.057
-71.561
-69.097
-68.011
-68.408
-70.134
-72.871
-76.373
-80.42
-84.693
-88.808
-92.455
-95.451
-97.734
-99.334
-100.272
-100.555
-100.209
-99.294
-97.881
-96.036
-93.811
-91.243
-88.378
-85.285
-82.04
-78.722
-75.405
-72.137
-68.947
-65.853
-62.864
-59.978
-57.19
-54.486
-51.842
-49.239
-46.662
-44.095
-41.522
-38.926
-36.283
-33.569
-30.764
-27.848
-24.808
-21.629
-18.302
-14.816
-11.164
-7.342
-3.347
0.825
5.178
9.714
14.437
19.346
24.44
29.714
35.163
40.779
46.552
52.468
58.514
64.67
70.92
77.243
83.617
90.018
96.423
102.804
109.135
115.388
121.534
127.545
133.391
139.042
144.469
149.644
154.538
159.125
163.378
167.274
170.789
173.901
176.592
178.842
180.637
181.962
182.807
183.163
183.023
182.383
181.245
179.608
177.48
174.866
171.777
168.225
164.225
159.794
154.952
149.719
144.118
138.174
131.913
125.364
118.555
111.516
104.278
96.872
89.33
81.682
73.961
66.198
58.424
50.668
42.959
35.327
27.798
20.398
13.151
6.08
-0.794
-7.452
-13.877
-20.054
-25.969
-31.611
-36.971
-42.041
-46.817
-51.293
-55.468
-59.343
-62.918
-66.198
-69.186
-71.89
-74.317
-76.475
-78.375
-80.027
-81.444
-82.637
-83.619
-84.404
-85.005
-85.436
-85.711
-85.844
-85.848
-85.736
-85.52
-85.213
-84.827
-84.371
-83.857
-83.293
-82.687
-82.048
-81.382
-80.696
-79.994
-79.282
-78.563
-77.841
-77.118
-76.397
-75.68
-74.966
-74.258
-73.554
-72.856
-72.162
-71.471
-70.782
-70.095
-69.407
-68.717
-68.024
-67.327
-66.624
-65.915
-65.198
-64.473
-63.741
-63.001
-62.253
-61.499
-60.741
-59.978
-59.215
-58.452
-57.693
-56.94
-56.196
-55.465
-54.749
-54.052
-53.377
-52.726
-52.104
-51.512
-50.955
-50.436
-49.957
-49.521
-49.132
-48.792
-48.504
-48.269
-48.09
-47.969
-47.906
-47.903
-47.961
-48.08
-48.26
-48.5
-48.801
-49.159
-49.574
-50.043
-50.563
-51.13
-51.741
-52.391
-53.075
-53.79
-54.53
-55.29
-56.065
-56.849
-57.636
-58.419
-59.193
-59.95
-60.683
-61.384
-62.046
-62.662
-63.225
-63.726
-64.159
-64.516
-64.79
-64.974
-65.061
-65.045
-64.917
-64.674
-64.309
-63.818
-63.197
-62.444
-61.556
-60.533
-59.374
-58.08
-56.652
-55.092
-53.402
-51.587
-49.651
-47.602
-45.445
-43.19
-40.849
-38.434
-35.961
-33.444
-30.902
-28.349
-25.805
-23.288
-20.82
-18.419
-16.104
-13.893
-11.805
-9.863
-8.085
-6.491
-5.097
-3.916
-2.961
-2.243
-1.775
-1.565
-1.614
-1.924
-2.496
-3.338
-4.459
-5.862
-7.547
-9.512
-11.744
-14.229
-16.946
-19.864
-22.94
-26.135
-29.4
-32.689
-35.966
-39.19
-42.324
-45.335
-48.171
-50.777
-53.096
-55.065
-56.665
-57.926
-58.883
-59.571
-60.069
-60.489
-61.049
-62.081
-63.777
-66.167
-69.228
-72.917
-77.245
-82.188
-87.388
-92.113
-95.737
-97.903
-98.519
-97.634
-95.062
-90.617
-84.709
-78.403
-72.935
-69.44
-68.617
-70.794
-76.74
-86.346
-97.52
-107.458
-112.759
-112.11
-108.047
-102.485
-94.411
-77.819
-41.588
24.369
124.326
254.771
406.203
565.65
720.281
859.413
970.707
1041.888
1061.77
1020.73
917.949
762.733
572.667
372.582
187.175
34.048
-77.035
-145.89
-179.541
-184.845
-169.605
-141.645
-107.09
-75.664
-55.169
-47.255
-50.843
-58.834
-63.411
-63.164
-59.117
-54.78
-54.701
-59.361
-67.067
-76.011
-83.772
-88.838
-91.191
-91.117
-89.018
-85.546
-81.249
-76.461
-71.768
-67.993
-65.544
-64.582
-65.145
-66.946
-69.711
-73.282
-77.325
-81.419
-85.275
-88.655
-91.428
-93.616
-95.214
-96.201
-96.608
-96.469
-95.826
-94.743
-93.263
-91.412
-89.233
-86.775
-84.101
-81.285
-78.393
-75.488
-72.611
-69.787
-67.03
-64.345
-61.728
-59.171
-56.659
-54.165
-51.671
-49.16
-46.613
-44.015
-41.347
-38.584
-35.707
-32.696
-29.536
-26.214
-22.722
-19.049
-15.191
-11.143
-6.905
-2.478
2.139
6.943
11.934
17.109
22.463
27.989
33.679
39.524
45.512
51.628
57.857
64.181
70.58
77.033
83.518
90.012
96.49
102.927
109.295
115.567
121.717
127.715
133.534
139.146
144.523
149.64
154.469
158.986
163.167
166.99
170.433
173.478
176.108
178.306
180.059
181.355
182.185
182.542
182.422
181.82
180.739
179.179
177.146
174.647
171.692
168.292
164.461
160.216
155.574
150.555
145.18
139.474
133.461
127.166
120.617
113.841
106.868
99.727
92.447
85.059
77.592
70.075
62.539
55.012
47.522
40.097
32.762
25.544
18.465
11.548
4.815
-1.715
-8.024
-14.095
-19.914
-25.468
-30.745
-35.737
-40.435
-44.834
-48.93
-52.72
-56.205
-59.385
-62.262
-64.842
-67.129
-69.13
-70.855
-72.312
-73.512
-74.467
-75.19
-75.693
-75.991
-76.098
-76.028
-75.797
-75.419
-74.909
-74.282
-73.553
-72.735
-71.842
-70.887
-69.884
-68.844
-67.779
-66.7
-65.616
-64.537
-63.471
-62.426
-61.409
-60.425
-59.481
-58.58
-57.727
-56.924
-56.173
-55.476
-54.834
-54.246
-53.711
-53.228
-52.794
-52.407
-52.064
-51.761
-51.495
-51.262
-51.057
-50.877
-50.718
-50.576
-50.446
-50.325
-50.209
-50.096
-49.982
-49.864
-49.74
-49.609
-49.469
-49.319
-49.157
-48.984
-48.798
-48.6
-48.39
-48.168
-47.937
-47.697
-47.45
-47.198
-46.944
-46.691
-46.443
-46.203
-45.974
-45.76
-45.565
-45.394
-45.249
-45.135
-45.057
-45.016
-45.017
-45.063
-45.157
-45.3
-45.494
-45.74
-46.04
-46.391
-46.795
-47.25
-47.754
-48.305
-48.901
-49.539
-50.215
-50.926
-51.666
-52.432
-53.215
-54.012
-54.814
-55.613
-56.402
-57.173
-57.917
-58.626
-59.29
-59.9
-60.447
-60.921
-61.313
-61.615
-61.816
-61.909
-61.885
-61.737
-61.459
-61.047
-60.494
-59.799
-58.958
-57.969
-56.832
-55.547
-54.116
-52.54
-50.824
-48.974
-46.996
-44.897
-42.688
-40.381
-37.988
-35.525
-33.009
-30.458
-27.893
-25.336
-22.809
-20.336
-17.936
-15.631
-13.439
-11.382
-9.477
-7.746
-6.205
-4.871
-3.763
-2.896
-2.285
-1.937
-1.851
-2.023
-2.447
-3.127
-4.071
-5.29
-6.787
-8.567
-10.631
-12.977
-15.6
-18.476
-21.553
-24.781
-28.108
-31.5
-34.949
-38.434
-41.922
-45.357
-48.657
-51.742
-54.551
-57.015
-59.044
-60.62
-61.79
-62.69
-63.564
-64.628
-66.04
-67.917
-70.349
-73.239
-76.322
-79.284
-81.765
-83.5
-84.366
-84.254
-83.034
-80.894
-78.362
-75.886
-73.833
-72.411
-71.627
-71.74
-73.321
-76.506
-81.13
-87.201
-94.63
-103.575
-113.47
-121.869
-125.93
-123.163
-113.311
-98.996
-81.577
-59.744
-27.867
23.125
99.812
204.313
333.029
478.039
630.294
779.427
913.183
1017.16
1075.892
1077.507
1019.393
907.444
755.713
582.98
404.915
236.692
91.557
-21.714
-95.493
-128.363
-126.644
-101.673
-68.516
-41.559
-30.036
-35.044
-51.474
-70.204
-81.878
-83.516
-77.156
-67.875
-61.805
-60.828
-63.76
-68.797
-73.889
-78.487
-82.882
-86.708
-89.479
-90.996
-91.244
-90.453
-88.862
-86.547
-83.67
-80.747
-78.46
-77.2
-77.057
-77.922
-79.586
-81.902
-84.724
-87.766
-90.63
-93.014
-94.758
-95.819
-96.24
-96.055
-95.27
-93.919
-92.073
-89.807
-87.188
-84.271
-81.092
-77.692
-74.136
-70.493
-66.837
-63.234
-59.727
-56.337
-53.08
-49.956
-46.962
-44.093
-41.333
-38.66
-36.053
-33.495
-30.97
-28.463
-25.955
-23.423
-20.842
-18.191
-15.45
-12.605
-9.641
-6.548
-3.314
0.069
3.607
7.304
11.164
15.193
19.393
23.767
28.317
33.039
37.93
42.984
48.194
53.549
59.037
64.641
70.345
76.13
81.975
87.86
93.759
99.65
105.505
111.298
117.002
122.588
128.03
133.299
138.366
143.204
147.788
152.09
156.087
159.755
163.071
166.017
168.571
170.719
172.444
173.733
174.576
174.963
174.889
174.35
173.344
171.873
169.94
167.553
164.72
161.453
157.764
153.67
149.188
144.339
139.143
133.623
127.805
121.714
115.377
108.822
102.077
95.17
88.132
80.99
73.775
66.514
59.235
51.966
44.735
37.566
30.486
23.517
16.683
10.004
3.502
-2.807
-8.905
-14.778
-20.411
-25.795
-30.918
-35.772
-40.353
-44.654
-48.673
-52.41
-55.864
-59.038
-61.936
-64.563
-66.926
-69.03
-70.887
-72.503
-73.891
-75.06
-76.021
-76.787
-77.37
-77.781
-78.033
-78.139
-78.111
-77.96
-77.7
-77.341
-76.895
-76.373
-75.785
-75.142
-74.452
-73.725
-72.969
-72.191
-71.398
-70.598
-69.794
-68.992
-68.196
-67.41
-66.635
-65.875
-65.13
-64.402
-63.691
-62.998
-62.321
-61.66
-61.016
-60.386
-59.769
-59.165
-58.572
-57.989
-57.415
-56.848
-56.288
-55.733
-55.184
-54.639
-54.098
-53.561
-53.028
-52.498
-51.974
-51.454
-50.94
-50.433
-49.935
-49.446
-48.97
-48.507
-48.06
-47.632
-47.226
-46.843
-46.488
-46.163
-45.871
-45.615
-45.399
-45.226
-45.098
-45.018
-44.989
-45.014
-45.094
-45.231
-45.427
-45.683
-46
-46.379
-46.819
-47.321
-47.883
-48.504
-49.183
-49.917
-50.703
-51.539
-52.42
-53.342
-54.302
-55.293
-56.312
-57.351
-58.406
-59.468
-60.532
-61.591
-62.635
-63.656
-64.647
-65.598
-66.501
-67.346
-68.124
-68.826
-69.444
-69.969
-70.391
-70.702
-70.894
-70.958
-70.889
-70.678
-70.319
-69.809
-69.142
-68.316
-67.327
-66.176
-64.861
-63.383
-61.743
-59.943
-57.986
-55.877
-53.623
-51.23
-48.706
-46.062
-43.309
-40.464
-37.543
-34.561
-31.539
-28.494
-25.448
-22.422
-19.441
-16.524
-13.691
-10.965
-8.366
-5.917
-3.641
-1.557
0.317
1.967
3.377
4.533
5.42
6.03
6.36
6.409
6.171
5.633
4.78
3.604
2.102
0.276
-1.866
-4.315
-7.055
-10.05
-13.257
-16.626
-20.104
-23.645
-27.209
-30.754
-34.238
-37.602
-40.775
-43.682
-46.251
-48.435
-50.214
-51.607
-52.636
-53.328
-53.771
-54.146
-54.713
-55.734
-57.359
-59.55
-62.277
-65.694
-69.896
-74.79
-79.975
-84.782
-88.744
-91.821
-94.035
-95.068
-94.581
-92.44
-89.075
-85.621
-83.177
-82.402
-83.736
-87.887
-94.986
-104.102
-113.608
-120.542
-123.311
-122.972
-119.868
-113.691
-100.588
-71.583
-19.374
61.562
172.639
308.136
461.835
624.04
781.9
923.291
1032.247
1095.37
1104.663
1055.549
952.287
805.114
627.87
439.884
260.785
106.462
-10.89
-87.162
-126.146
-133.362
-118.236
-91.544
-61.4
-38.27
-29.072
-33.542
-48.651
-65.86
-76.462
-78.421
-73.199
-65.19
-59.55
-57.619
-58.482
-60.859
-63.48
-66.248
-69.511
-73.358
-77.599
-81.678
-85.29
-88.294
-90.476
-91.797
-92.37
-92.335
-92.09
-92.177
-92.82
-94.08
-95.949
-98.252
-100.812
-103.459
-105.927
-107.909
-109.241
-109.858
-109.758
-109.022
-107.709
-105.866
-103.57
-100.906
-97.95
-94.76
-91.396
-87.903
-84.34
-80.78
-77.276
-73.868
-70.578
-67.417
-64.382
-61.468
-58.663
-55.944
-53.294
-50.699
-48.145
-45.619
-43.103
-40.577
-38.019
-35.407
-32.719
-29.934
-27.034
-24.004
-20.83
-17.504
-14.017
-10.363
-6.535
-2.526
1.67
6.058
10.642
15.423
20.4
25.57
30.928
36.465
42.169
48.027
54.022
60.136
66.351
72.643
78.99
85.365
91.743
98.096
104.393
110.605
116.702
122.652
128.424
133.988
139.313
144.371
149.132
153.57
157.658
161.373
164.691
167.592
170.057
172.068
173.611
174.674
175.247
175.322
174.895
173.964
172.53
170.598
168.174
165.268
161.89
158.057
153.784
149.091
143.999
138.531
132.713
126.572
120.135
113.431
106.492
99.347
92.028
84.566
76.992
69.338
61.635
53.912
46.201
38.529
30.925
23.416
16.029
8.787
1.715
-5.167
-11.839
-18.281
-24.478
-30.415
-36.079
-41.459
-46.545
-51.331
-55.812
-59.985
-63.847
-67.4
-70.646
-73.588
-76.231
-78.582
-80.649
-82.439
-83.963
-85.231
-86.252
-87.04
-87.605
-87.96
-88.118
-88.09
-87.891
-87.531
-87.024
-86.382
-85.618
-84.743
-83.769
-82.707
-81.569
-80.363
-79.101
-77.791
-76.442
-75.062
-73.658
-72.237
-70.804
-69.364
-67.922
-66.482
-65.046
-63.619
-62.202
-60.797
-59.407
-58.032
-56.675
-55.336
-54.017
-52.719
-51.443
-50.189
-48.961
-47.758
-46.582
-45.435
-44.318
-43.234
-42.183
-41.168
-40.19
-39.251
-38.354
-37.5
-36.693
-35.934
-35.226
-34.573
-33.977
-33.441
-32.969
-32.564
-32.23
-31.968
-31.783
-31.678
-31.655
-31.716
-31.865
-32.103
-32.432
-32.853
-33.367
-33.975
-34.674
-35.466
-36.348
-37.318
-38.375
-39.514
-40.734
-42.029
-43.395
-44.829
-46.324
-47.874
-49.472
-51.113
-52.788
-54.49
-56.21
-57.938
-59.668
-61.388
-63.09
-64.764
-66.4
-67.988
-69.518
-70.978
-72.36
-73.652
-74.845
-75.928
-76.892
-77.729
-78.43
-78.987
-79.394
-79.644
-79.731
-79.651
-79.398
-78.969
-78.362
-77.574
-76.604
-75.455
-74.126
-72.62
-70.942
-69.096
-67.089
-64.926
-62.616
-60.166
-57.587
-54.89
-52.085
-49.187
-46.209
-43.167
-40.082
-36.973
-33.859
-30.761
-27.7
-24.698
-21.776
-18.956
-16.26
-13.706
-11.314
-9.102
-7.09
-5.298
-3.742
-2.434
-1.385
-0.604
-0.099
0.121
0.053
-0.302
-0.941
-1.863
-3.074
-4.578
-6.378
-8.469
-10.842
-13.484
-16.378
-19.501
-22.819
-26.286
-29.856
-33.475
-37.093
-40.666
-44.149
-47.495
-50.658
-53.581
-56.2
-58.461
-60.309
-61.718
-62.716
-63.327
-63.578
-63.571
-63.447
-63.434
-63.886
-65.018
-66.854
-69.44
-72.809
-76.915
-81.703
-86.766
-91.243
-94.552
-96.459
-96.813
-95.642
-92.961
-88.675
-83.35
-78.439
-75.134
-74.16
-76.063
-80.956
-88.896
-100.295
-113.738
-125.129
-130.755
-127.294
-114.068
-95.217
-72.773
-44.94
-6.427
54.06
144.678
265.664
412.374
571.781
728.995
872.559
988.731
1065.387
1091.903
1057.866
962.163
813.456
627.975
429.09
239.346
75.457
-50.997
-136.066
-181.736
-191.677
-174.845
-142.311
-104.775
-75.282
-59.677
-56.792
-62.177
-65.747
-62.446
-53.831
-43.507
-37.875
-39.742
-47.634
-59.177
-71.249
-82.062
-90.878
-97.007
-100.399
-101.238
-99.875
-96.971
-93.049
-88.552
-84.223
-80.833
-78.824
-78.354
-79.287
-81.313
-84.199
-87.722
-91.539
-95.238
-98.493
-101.117
-103.059
-104.357
-105.035
-105.095
-104.558
-103.48
-101.928
-99.957
-97.61
-94.914
-91.902
-88.637
-85.189
-81.635
-78.046
-74.47
-70.935
-67.459
-64.051
-60.711
-57.435
-54.21
-51.012
-47.823
-44.625
-41.402
-38.142
-34.824
-31.426
-27.925
-24.3
-20.532
-16.609
-12.52
-8.255
-3.806
0.831
5.657
10.671
15.874
21.264
26.84
32.601
38.541
44.654
50.93
57.361
63.933
70.63
77.436
84.331
91.292
98.296
105.318
112.332
119.31
126.223
133.042
139.734
146.271
152.619
158.748
164.627
170.226
175.514
180.464
185.048
189.241
193.019
196.359
199.243
201.653
203.572
204.987
205.888
206.266
206.114
205.43
204.213
202.465
200.191
197.4
194.101
190.309
186.04
181.311
176.143
170.559
164.583
158.242
151.565
144.58
137.319
129.813
122.096
114.199
106.158
98.005
89.774
81.498
73.208
64.938
56.717
48.576
40.543
32.645
24.91
17.361
10.021
2.912
-3.947
-10.539
-16.848
-22.861
-28.566
-33.954
-39.017
-43.75
-48.148
-52.211
-55.939
-59.334
-62.4
-65.142
-67.568
-69.686
-71.506
-73.04
-74.299
-75.297
-76.048
-76.567
-76.868
-76.967
-76.88
-76.624
-76.216
-75.67
-75.004
-74.233
-73.374
-72.442
-71.451
-70.417
-69.351
-68.268
-67.18
-66.099
-65.034
-63.997
-62.995
-62.038
-61.131
-60.282
-59.496
-58.775
-58.125
-57.548
-57.044
-56.615
-56.261
-55.981
-55.773
-55.636
-55.566
-55.562
-55.618
-55.731
-55.897
-56.11
-56.365
-56.658
-56.982
-57.333
-57.704
-58.092
-58.49
-58.893
-59.296
-59.696
-60.087
-60.466
-60.829
-61.173
-61.494
-61.791
-62.063
-62.306
-62.522
-62.708
-62.867
-62.997
-63.1
-63.177
-63.231
-63.262
-63.275
-63.27
-63.252
-63.223
-63.188
-63.149
-63.11
-63.075
-63.048
-63.032
-63.031
-63.046
-63.082
-63.14
-63.223
-63.332
-63.467
-63.631
-63.822
-64.04
-64.284
-64.552
-64.842
-65.151
-65.475
-65.81
-66.151
-66.491
-66.826
-67.147
-67.448
-67.722
-67.962
-68.158
-68.305
-68.392
-68.412
-68.356
-68.217
-67.985
-67.654
-67.215
-66.662
-65.988
-65.19
-64.262
-63.2
-62.003
-60.668
-59.196
-57.587
-55.843
-53.967
-51.963
-49.839
-47.6
-45.256
-42.819
-40.299
-37.713
-35.078
-32.412
-29.733
-27.061
-24.414
-21.814
-19.283
-16.841
-14.505
-12.296
-10.231
-8.334
-6.626
-5.125
-3.847
-2.807
-2.017
-1.49
-1.239
-1.264
-1.569
-2.156
-3.026
-4.194
-5.669
-7.451
-9.541
-11.93
-14.602
-17.544
-20.727
-24.105
-27.632
-31.259
-34.936
-38.631
-42.298
-45.888
-49.352
-52.626
-55.654
-58.393
-60.783
-62.778
-64.362
-65.547
-66.397
-66.99
-67.353
-67.595
-67.899
-68.43
-69.393
-70.876
-72.8
-75.256
-78.446
-82.299
-86.563
-90.813
-94.37
-96.899
-98.402
-98.501
-96.729
-93.016
-87.606
-81.31
-75.554
-71.354
-69.219
-70.035
-74.025
-80.217
-87.284
-92.803
-95.277
-95.454
-93.535
-88.66
-75.663
-45.693
8.333
91.16
200.148
327.611
466.431
607.453
743.261
864.274
955.883
1004.483
998.293
934.423
819.653
666.044
490.724
310.085
140.117
-2.641
-106.487
-166.44
-184.584
-171.62
-142.192
-107.565
-77.933
-59.359
-50.715
-50.734
-54.58
-55.506
-52.826
-47.323
-41.407
-39.627
-42.551
-48.579
-56.406
-63.808
-69.59
-73.779
-76.098
-76.626
-75.882
-74.249
-71.997
-69.462
-66.95
-64.785
-63.499
-63.395
-64.413
-66.418
-69.215
-72.57
-76.308
-80.174
-83.78
-86.881
-89.369
-91.195
-92.402
-93.025
-93.053
-92.526
-91.519
-90.089
-88.293
-86.175
-83.752
-81.074
-78.204
-75.21
-72.161
-69.108
-66.074
-63.077
-60.123
-57.208
-54.327
-51.464
-48.597
-45.706
-42.776
-39.792
-36.743
-33.611
-30.377
-27.022
-23.524
-19.869
-16.044
-12.038
-7.844
-3.458
1.124
5.901
10.87
16.03
21.378
26.911
32.624
38.512
44.565
50.773
57.125
63.606
70.2
76.888
83.649
90.462
97.304
104.148
110.97
117.741
124.435
131.023
137.475
143.762
149.855
155.725
161.342
166.679
171.708
176.403
180.738
184.691
188.239
191.363
194.044
196.267
198.018
199.287
200.063
200.342
200.118
199.391
198.161
196.433
194.212
191.509
188.335
184.704
180.632
176.138
171.242
165.968
160.339
154.381
148.121
141.587
134.808
127.814
120.637
113.306
105.854
98.31
90.706
83.073
75.439
67.833
60.283
52.816
45.457
38.23
31.157
24.259
17.555
11.063
4.798
-1.226
-6.997
-12.504
-17.74
-22.698
-27.373
-31.763
-35.867
-39.684
-43.217
-46.47
-49.447
-52.155
-54.601
-56.794
-58.744
-60.461
-61.955
-63.24
-64.326
-65.228
-65.956
-66.525
-66.947
-67.234
-67.399
-67.454
-67.411
-67.281
-67.073
-66.8
-66.469
-66.09
-65.672
-65.221
-64.746
-64.251
-63.744
-63.228
-62.709
-62.189
-61.672
-61.16
-60.656
-60.161
-59.676
-59.201
-58.737
-58.283
-57.838
-57.403
-56.975
-56.554
-56.139
-55.728
-55.32
-54.914
-54.508
-54.103
-53.698
-53.291
-52.884
-52.475
-52.065
-51.656
-51.246
-50.837
-50.431
-50.028
-49.629
-49.237
-48.853
-48.479
-48.117
-47.769
-47.438
-47.126
-46.835
-46.568
-46.327
-46.115
-45.934
-45.787
-45.676
-45.603
-45.571
-45.583
-45.639
-45.742
-45.893
-46.094
-46.346
-46.649
-47.003
-47.409
-47.867
-48.376
-48.935
-49.543
-50.199
-50.901
-51.648
-52.436
-53.264
-54.127
-55.023
-55.947
-56.896
-57.864
-58.847
-59.84
-60.837
-61.834
-62.825
-63.803
-64.761
-65.695
-66.596
-67.458
-68.273
-69.034
-69.733
-70.362
-70.916
-71.386
-71.766
-72.048
-72.228
-72.297
-72.25
-72.082
-71.786
-71.359
-70.794
-70.09
-69.245
-68.255
-67.121
-65.843
-64.421
-62.858
-61.156
-59.319
-57.35
-55.256
-53.042
-50.717
-48.289
-45.769
-43.169
-40.502
-37.785
-35.034
-32.269
-29.509
-26.776
-24.091
-21.477
-18.957
-16.552
-14.282
-12.166
-10.224
-8.473
-6.932
-5.616
-4.539
-3.716
-3.16
-2.878
-2.875
-3.145
-3.684
-4.485
-5.548
-6.876
-8.472
-10.337
-12.469
-14.872
-17.542
-20.47
-23.63
-26.971
-30.441
-33.998
-37.606
-41.254
-44.913
-48.538
-52.072
-55.451
-58.609
-61.507
-64.076
-66.199
-67.859
-69.108
-70.083
-71.063
-72.269
-73.803
-75.845
-78.583
-81.946
-85.782
-89.767
-93.241
-95.797
-97.24
-97.132
-95.213
-91.726
-86.83
-80.896
-74.947
-69.481
-65.37
-64.718
-68.142
-75.088
-84.276
-92.333
-98.122
-103.365
-109.978
-120.618
-134.993
-149.523
-159.506
-159.236
-143.704
-108.081
-49.413
33.698
141.048
268.54
411.929
564.152
715.15
854.382
967.172
1041.334
1068.306
1042.975
969.44
853.794
704.582
535.281
358.722
191.267
51.12
-50.201
-108.725
-128.344
-121.525
-102.357
-80.368
-63.538
-55.862
-55.755
-61.752
-69.543
-73.375
-72.461
-67.889
-62.506
-60.556
-62.871
-68.393
-75.735
-82.906
-89.086
-93.973
-97.051
-98.366
-98.144
-96.636
-94.285
-91.403
-88.24
-85.308
-83.212
-82.284
-82.624
-84.12
-86.527
-89.652
-93.305
-97.182
-100.904
-104.166
-106.796
-108.737
-110.013
-110.646
-110.645
-110.039
-108.896
-107.29
-105.284
-102.93
-100.264
-97.328
-94.188
-90.918
-87.595
-84.29
-81.051
-77.905
-74.87
-71.952
-69.147
-66.449
-63.841
-61.296
-58.794
-56.316
-53.843
-51.359
-48.845
-46.275
-43.626
-40.872
-37.996
-34.98
-31.811
-28.475
-24.963
-21.267
-17.381
-13.303
-9.031
-4.562
0.107
4.976
10.043
15.304
20.754
26.385
32.186
38.145
44.246
50.471
56.8
63.212
69.682
76.186
82.696
89.185
95.622
101.979
108.224
114.325
120.252
125.972
131.454
136.669
141.586
146.177
150.416
154.277
157.737
160.774
163.37
165.507
167.169
168.346
169.027
169.204
168.873
168.032
166.681
164.826
162.472
159.63
156.311
152.53
148.304
143.655
138.602
133.172
127.388
121.281
114.878
108.211
101.312
94.214
86.949
79.553
72.057
64.496
56.904
49.311
41.751
34.252
26.846
19.56
12.42
5.452
-1.321
-7.876
-14.195
-20.259
-26.052
-31.56
-36.772
-41.678
-46.27
-50.542
-54.492
-58.117
-61.418
-64.398
-67.061
-69.414
-71.463
-73.219
-74.693
-75.897
-76.844
-77.548
-78.025
-78.291
-78.36
-78.25
-77.977
-77.557
-77.006
-76.341
-75.577
-74.729
-73.813
-72.842
-71.83
-70.79
-69.733
-68.672
-67.616
-66.574
-65.556
-64.569
-63.619
-62.713
-61.855
-61.049
-60.298
-59.605
-58.969
-58.391
-57.871
-57.406
-56.996
-56.638
-56.328
-56.063
-55.839
-55.652
-55.498
-55.372
-55.271
-55.19
-55.125
-55.071
-55.025
-54.981
-54.938
-54.891
-54.836
-54.772
-54.696
-54.605
-54.497
-54.372
-54.228
-54.065
-53.883
-53.681
-53.462
-53.225
-52.973
-52.708
-52.433
-52.149
-51.86
-51.57
-51.282
-51
-50.727
-50.468
-50.226
-50.005
-49.809
-49.643
-49.509
-49.412
-49.355
-49.341
-49.375
-49.459
-49.595
-49.786
-50.035
-50.343
-50.711
-51.139
-51.628
-52.177
-52.784
-53.447
-54.165
-54.932
-55.746
-56.601
-57.493
-58.415
-59.362
-60.327
-61.302
-62.279
-63.251
-64.21
-65.146
-66.05
-66.912
-67.725
-68.477
-69.159
-69.761
-70.273
-70.686
-70.99
-71.174
-71.23
-71.148
-70.92
-70.539
-69.998
-69.291
-68.413
-67.36
-66.13
-64.722
-63.135
-61.371
-59.432
-57.321
-55.044
-52.608
-50.021
-47.292
-44.432
-41.452
-38.365
-35.189
-31.941
-28.643
-25.314
-21.978
-18.66
-15.387
-12.185
-9.078
-6.087
-3.234
-0.538
1.975
4.284
6.367
8.206
9.783
11.085
12.101
12.824
13.255
13.4
13.266
12.858
12.169
11.187
9.903
8.308
6.401
4.186
1.676
-1.113
-4.147
-7.4
-10.847
-14.461
-18.216
-22.085
-26.029
-30.006
-33.957
-37.79
-41.374
-44.624
-47.527
-50.155
-52.683
-55.265
-57.97
-60.892
-64.193
-67.933
-72.002
-76.058
-79.432
-81.582
-82.395
-81.884
-80.061
-77.014
-72.893
-68.204
-64.05
-61.396
-60.502
-61.323
-63.68
-67.575
-73.377
-81.071
-90.067
-99.837
-110.236
-121.546
-133.418
-143.642
-149.205
-147.367
-137.822
-123.656
-107.223
-87.825
-59.748
-12.849
61.577
167.077
300.171
452.133
611.385
765.836
904.137
1012.804
1079.049
1092.986
1048.766
949.933
808.122
639.153
461.788
293.108
144.956
26.851
-55.843
-102.964
-115.767
-102.337
-75.047
-45.575
-26.904
-23.764
-32.78
-47.563
-57.684
-58.409
-51.805
-42.282
-36.327
-36.565
-41.505
-48.991
-56.706
-63.744
-70.249
-75.845
-79.973
-82.413
-83.251
-82.875
-81.648
-79.747
-77.395
-75.118
-73.609
-73.264
-74.148
-76.105
-78.894
-82.346
-86.304
-90.482
-94.484
-97.997
-100.859
-103.024
-104.53
-105.407
-105.653
-105.292
-104.386
-103.01
-101.225
-99.083
-96.616
-93.861
-90.879
-87.736
-84.504
-81.251
-78.018
-74.827
-71.694
-68.622
-65.608
-62.65
-59.732
-56.832
-53.929
-51.008
-48.053
-45.05
-41.981
-38.824
-35.556
-32.156
-28.607
-24.897
-21.013
-16.947
-12.691
-8.238
-3.587
1.263
6.312
11.559
17.006
22.648
28.483
34.502
40.697
47.059
53.573
60.224
66.995
73.865
80.813
87.815
94.845
101.878
108.885
115.838
122.706
129.459
136.065
142.495
148.715
154.694
160.403
165.81
170.887
175.607
179.942
183.867
187.362
190.403
192.974
195.057
196.639
197.707
198.254
198.274
197.761
196.717
195.143
193.045
190.43
187.31
183.698
179.611
175.066
170.085
164.692
158.911
152.768
146.293
139.514
132.464
125.175
117.678
110.009
102.201
94.287
86.303
78.282
70.256
62.258
54.32
46.471
38.742
31.158
23.747
16.533
9.539
2.784
-3.71
-9.929
-15.857
-21.482
-26.794
-31.783
-36.445
-40.775
-44.771
-48.432
-51.761
-54.761
-57.437
-59.795
-61.845
-63.595
-65.057
-66.242
-67.164
-67.837
-68.276
-68.496
-68.513
-68.342
-68.001
-67.505
-66.871
-66.114
-65.252
-64.298
-63.268
-62.177
-61.038
-59.864
-58.667
-57.46
-56.251
-55.051
-53.87
-52.714
-51.591
-50.507
-49.469
-48.481
-47.548
-46.672
-45.857
-45.105
-44.418
-43.796
-43.24
-42.75
-42.324
-41.963
-41.664
-41.426
-41.246
-41.123
-41.054
-41.036
-41.066
-41.142
-41.261
-41.419
-41.614
-41.843
-42.105
-42.396
-42.715
-43.059
-43.426
-43.816
-44.226
-44.655
-45.1
-45.562
-46.037
-46.525
-47.025
-47.535
-48.054
-48.58
-49.112
-49.649
-50.19
-50.733
-51.279
-51.825
-52.372
-52.919
-53.464
-54.01
-54.553
-55.096
-55.637
-56.176
-56.713
-57.248
-57.78
-58.309
-58.835
-59.358
-59.875
-60.388
-60.895
-61.396
-61.888
-62.372
-62.846
-63.309
-63.76
-64.197
-64.619
-65.025
-65.414
-65.783
-66.132
-66.457
-66.758
-67.031
-67.273
-67.481
-67.65
-67.778
-67.86
-67.891
-67.867
-67.783
-67.635
-67.417
-67.125
-66.753
-66.297
-65.751
-65.111
-64.371
-63.528
-62.578
-61.517
-60.344
-59.056
-57.651
-56.129
-54.489
-52.732
-50.857
-48.867
-46.764
-44.552
-42.234
-39.818
-37.31
-34.718
-32.056
-29.335
-26.57
-23.775
-20.967
-18.16
-15.374
-12.627
-9.937
-7.322
-4.801
-2.393
-0.117
2.006
3.954
5.712
7.262
8.592
9.687
10.535
11.126
11.454
11.513
11.298
10.799
10.005
8.91
7.51
5.804
3.802
1.514
-1.04
-3.827
-6.815
-9.964
-13.232
-16.584
-19.974
-23.359
-26.697
-29.94
-33.049
-35.979
-38.671
-41.067
-43.137
-44.88
-46.349
-47.615
-48.695
-49.659
-50.664
-51.932
-53.726
-56.198
-59.308
-63.019
-67.451
-72.658
-78.504
-84.555
-90.102
-94.627
-98.011
-100.207
-100.897
-99.762
-96.783
-92.533
-88.184
-84.924
-83.507
-84.359
-88.254
-95.312
-104.281
-113.232
-119.284
-121.264
-120.644
-118.11
-112.682
-98.137
-64.562
-4.947
84.805
200.984
335.256
481.534
631.187
775.866
904.331
998.755
1043.156
1026.805
949.029
820.008
656.209
476.625
298.024
135.777
3.177
-91.506
-144.866
-159.949
-147.831
-122.103
-95.322
-78.858
-75.71
-82.752
-94.604
-102.06
-100.96
-92.39
-79.35
-68.055
-61.479
-59.071
-59.564
-60.517
-61.066
-61.919
-63.358
-65.417
-67.795
-69.767
-71.084
-71.908
-72.2
-71.894
-71.066
-69.869
-68.678
-68.036
-68.177
-69.078
-70.668
-72.774
-75.207
-77.791
-80.27
-82.338
-83.822
-84.662
-84.858
-84.48
-83.588
-82.222
-80.447
-78.342
-75.972
-73.391
-70.653
-67.803
-64.898
-62.007
-59.181
-56.453
-53.842
-51.354
-48.983
-46.721
-44.547
-42.436
-40.367
-38.324
-36.29
-34.251
-32.187
-30.076
-27.894
-25.619
-23.23
-20.705
-18.027
-15.181
-12.155
-8.942
-5.536
-1.932
1.874
5.886
10.107
14.541
19.187
24.043
29.105
34.369
39.824
45.46
51.26
57.209
63.288
69.476
75.751
82.09
88.467
94.855
101.227
107.555
113.809
119.959
125.975
131.825
137.481
142.911
148.086
152.978
157.56
161.805
165.689
169.188
172.281
174.949
177.174
178.941
180.237
181.052
181.378
181.21
180.545
179.384
177.731
175.592
172.975
169.892
166.358
162.388
158.001
153.217
148.059
142.551
136.718
130.587
124.186
117.544
110.691
103.658
96.475
89.173
81.783
74.336
66.861
59.389
51.948
44.567
37.273
30.092
23.049
16.167
9.467
2.971
-3.305
-9.344
-15.131
-20.654
-25.903
-30.868
-35.544
-39.926
-44.01
-47.796
-51.284
-54.476
-57.375
-59.986
-62.317
-64.374
-66.167
-67.704
-68.996
-70.055
-70.892
-71.52
-71.952
-72.202
-72.282
-72.206
-71.989
-71.644
-71.185
-70.625
-69.978
-69.256
-68.47
-67.634
-66.757
-65.85
-64.923
-63.984
-63.041
-62.102
-61.174
-60.264
-59.375
-58.514
-57.684
-56.889
-56.133
-55.417
-54.744
-54.115
-53.532
-52.995
-52.505
-52.063
-51.667
-51.318
-51.015
-50.757
-50.542
-50.369
-50.237
-50.144
-50.089
-50.069
-50.084
-50.132
-50.212
-50.322
-50.462
-50.63
-50.825
-51.047
-51.296
-51.57
-51.869
-52.193
-52.542
-52.915
-53.313
-53.734
-54.178
-54.646
-55.136
-55.65
-56.185
-56.743
-57.323
-57.924
-58.548
-59.192
-59.858
-60.544
-61.252
-61.98
-62.728
-63.495
-64.282
-65.087
-65.909
-66.747
-67.6
-68.464
-69.34
-70.223
-71.11
-72
-72.889
-73.772
-74.647
-75.509
-76.354
-77.179
-77.978
-78.746
-79.48
-80.174
-80.823
-81.42
-81.96
-82.438
-82.847
-83.182
-83.436
-83.603
-83.677
-83.653
-83.523
-83.283
-82.926
-82.447
-81.84
-81.102
-80.229
-79.217
-78.064
-76.769
-75.331
-73.751
-72.029
-70.168
-68.17
-66.04
-63.783
-61.404
-58.91
-56.311
-53.615
-50.833
-47.979
-45.068
-42.114
-39.134
-36.146
-33.169
-30.221
-27.322
-24.489
-21.742
-19.1
-16.581
-14.206
-11.995
-9.969
-8.146
-6.545
-5.182
-4.075
-3.234
-2.668
-2.383
-2.383
-2.677
-3.276
-4.191
-5.426
-6.985
-8.867
-11.067
-13.569
-16.351
-19.372
-22.591
-25.965
-29.453
-33.022
-36.634
-40.244
-43.803
-47.248
-50.519
-53.569
-56.349
-58.814
-60.939
-62.725
-64.209
-65.476
-66.609
-67.674
-68.747
-69.904
-71.239
-72.861
-74.871
-77.339
-80.355
-84.056
-88.529
-93.763
-99.617
-105.752
-111.762
-117.264
-121.799
-124.781
-125.761
-124.574
-121.368
-116.719
-111.403
-106.165
-101.853
-99.612
-99.784
-101.23
-102.132
-100.047
-94.066
-86.101
-77.748
-68.431
-53.135
-22.554
32.367
116.847
229.105
362.03
505.204
647.149
777.623
884.478
956.022
981.16
951.419
867.364
735.315
569.063
387.481
207.927
48.092
-78.553
-165.185
-210.39
-219.007
-200.501
-166.453
-127.4
-94.112
-74.195
-68.291
-74.151
-84.233
-89.545
-87.631
-79.244
-68.199
-60.224
-56.975
-57.43
-60.223
-63.423
-66.314
-69.282
-72.416
-75.527
-78.263
-80.378
-81.771
-82.423
-82.448
-81.931
-81.005
-80.046
-79.5
-79.581
-80.33
-81.667
-83.387
-85.31
-87.304
-89.155
-90.608
-91.522
-91.84
-91.575
-90.816
-89.635
-88.071
-86.186
-84.049
-81.717
-79.25
-76.702
-74.113
-71.534
-69.009
-66.565
-64.227
-62.005
-59.895
-57.885
-55.958
-54.085
-52.247
-50.426
-48.605
-46.769
-44.896
-42.963
-40.95
-38.831
-36.585
-34.191
-31.628
-28.878
-25.926
-22.762
-19.376
-15.762
-11.915
-7.826
-3.49
1.096
5.935
11.026
16.367
21.954
27.779
33.832
40.099
46.564
53.209
60.015
66.958
74.015
81.159
88.363
95.599
102.834
110.039
117.179
124.221
131.133
137.878
144.425
150.738
156.784
162.533
167.952
173.012
177.684
181.943
185.764
189.124
192.002
194.382
196.248
197.586
198.388
198.646
198.356
197.517
196.133
194.207
191.749
188.77
185.282
181.303
176.853
171.952
166.625
160.897
154.797
148.354
141.6
134.566
127.287
119.797
112.13
104.321
96.406
88.42
80.398
72.373
64.38
56.45
48.616
40.907
33.352
25.979
18.813
11.878
5.195
-1.216
-7.337
-13.153
-18.652
-23.822
-28.655
-33.145
-37.288
-41.082
-44.528
-47.628
-50.386
-52.809
-54.905
-56.682
-58.153
-59.328
-60.221
-60.846
-61.218
-61.352
-61.265
-60.972
-60.49
-59.837
-59.027
-58.079
-57.007
-55.829
-54.56
-53.214
-51.806
-50.35
-48.858
-47.342
-45.814
-44.284
-42.76
-41.251
-39.764
-38.304
-36.878
-35.489
-34.141
-32.837
-31.577
-30.365
-29.199
-28.081
-27.01
-25.985
-25.005
-24.069
-23.176
-22.324
-21.511
-20.737
-19.999
-19.296
-18.628
-17.992
-17.389
-16.816
-16.274
-15.762
-15.28
-14.828
-14.408
-14.02
-13.665
-13.345
-13.062
-12.817
-12.613
-12.452
-12.338
-12.271
-12.256
-12.293
-12.387
-12.539
-12.752
-13.027
-13.367
-13.774
-14.247
-14.788
-15.397
-16.074
-16.818
-17.629
-18.505
-19.445
-20.446
-21.506
-22.622
-23.79
-25.007
-26.267
-27.566
-28.898
-30.257
-31.638
-33.032
-34.434
-35.836
-37.233
-38.615
-39.976
-41.307
-42.602
-43.853
-45.051
-46.188
-47.258
-48.251
-49.163
-49.986
-50.714
-51.34
-51.859
-52.266
-52.556
-52.725
-52.767
-52.681
-52.462
-52.109
-51.621
-50.997
-50.239
-49.347
-48.324
-47.174
-45.899
-44.505
-42.996
-41.377
-39.657
-37.843
-35.943
-33.969
-31.931
-29.841
-27.716
-25.568
-23.414
-21.27
-19.154
-17.082
-15.075
-13.15
-11.324
-9.613
-8.034
-6.603
-5.337
-4.247
-3.343
-2.637
-2.135
-1.848
-1.784
-1.946
-2.326
-2.921
-3.722
-4.729
-5.947
-7.375
-9.01
-10.846
-12.879
-15.107
-17.525
-20.117
-22.844
-25.66
-28.523
-31.401
-34.282
-37.161
-40.014
-42.804
-45.482
-47.989
-50.285
-52.345
-54.105
-55.497
-56.522
-57.244
-57.851
-58.639
-59.839
-61.618
-64.151
-67.516
-71.637
-76.34
-81.173
-85.461
-88.628
-90.116
-89.431
-86.417
-81.18
-74.054
-65.864
-57.65
-50.455
-45.591
-44.206
-47.043
-54.617
-66.868
-83.144
-102.094
-121.08
-136.709
-145.695
-146.567
-140.475
-129.08
-112.784
-87.941
-47.273
16.217
106.466
221.423
354.423
495.339
632.687
755.265
849.866
906.06
915.737
873.934
783.869
651.291
487.513
309.408
134.173
-18.822
-135.702
-210.919
-246.045
-249.538
-230.474
-197.604
-158.544
-120.438
-89.891
-69.57
-58.576
-51.811
-44.202
-34.704
-25.124
-19.673
-20.997
-28.371
-39.533
-51.411
-61.865
-70.07
-75.535
-78.26
-78.548
-76.776
-73.56
-69.546
-65.293
-61.398
-58.464
-56.81
-56.455
-57.26
-58.937
-61.193
-63.783
-66.403
-68.727
-70.564
-71.841
-72.553
-72.764
-72.517
-71.832
-70.757
-69.36
-67.689
-65.789
-63.689
-61.415
-59.014
-56.546
-54.074
-51.647
-49.293
-47.029
-44.861
-42.794
-40.824
-38.94
-37.122
-35.354
-33.621
-31.908
-30.204
-28.488
-26.738
-24.931
-23.044
-21.054
-18.944
-16.696
-14.295
-11.73
-8.991
-6.071
-2.965
0.334
3.829
7.527
11.431
15.543
19.861
24.385
29.11
34.031
39.138
44.42
49.865
55.457
61.18
67.016
72.944
78.943
84.99
91.06
97.129
103.168
109.151
115.048
120.832
126.473
131.942
137.211
142.252
147.037
151.542
155.74
159.609
163.126
166.271
169.025
171.37
173.293
174.779
175.818
176.401
176.522
176.179
175.369
174.094
172.359
170.17
167.535
164.464
160.972
157.073
152.783
148.123
143.112
137.774
132.132
126.211
120.037
113.638
107.04
100.273
93.365
86.343
79.237
72.076
64.886
57.696
50.533
43.422
36.391
29.461
22.658
16.003
9.515
3.215
-2.881
-8.757
-14.398
-19.791
-24.926
-29.793
-34.386
-38.697
-42.722
-46.46
-49.909
-53.07
-55.944
-58.536
-60.851
-62.893
-64.671
-66.192
-67.465
-68.5
-69.308
-69.899
-70.287
-70.484
-70.501
-70.353
-70.052
-69.611
-69.044
-68.363
-67.581
-66.711
-65.764
-64.753
-63.689
-62.582
-61.443
-60.281
-59.106
-57.926
-56.748
-55.579
-54.426
-53.294
-52.188
-51.113
-50.073
-49.07
-48.107
-47.187
-46.31
-45.479
-44.693
-43.952
-43.257
-42.607
-42.002
-41.439
-40.918
-40.438
-39.997
-39.594
-39.228
-38.898
-38.602
-38.339
-38.108
-37.909
-37.741
-37.604
-37.497
-37.42
-37.375
-37.361
-37.379
-37.431
-37.516
-37.637
-37.795
-37.991
-38.226
-38.503
-38.824
-39.189
-39.6
-40.06
-40.57
-41.131
-41.744
-42.41
-43.131
-43.906
-44.735
-45.619
-46.556
-47.544
-48.582
-49.668
-50.798
-51.969
-53.176
-54.416
-55.682
-56.97
-58.273
-59.585
-60.898
-62.206
-63.5
-64.771
-66.012
-67.214
-68.366
-69.46
-70.487
-71.438
-72.303
-73.074
-73.741
-74.296
-74.731
-75.038
-75.209
-75.237
-75.118
-74.845
-74.414
-73.823
-73.07
-72.153
-71.073
-69.83
-68.427
-66.869
-65.158
-63.302
-61.307
-59.183
-56.939
-54.587
-52.141
-49.614
-47.023
-44.383
-41.714
-39.035
-36.368
-33.736
-31.161
-28.665
-26.27
-23.995
-21.861
-19.888
-18.094
-16.497
-15.112
-13.955
-13.043
-12.394
-12.02
-11.926
-12.113
-12.575
-13.308
-14.312
-15.592
-17.151
-18.988
-21.1
-23.485
-26.14
-29.053
-32.201
-35.539
-39.009
-42.564
-46.166
-49.798
-53.457
-57.114
-60.714
-64.187
-67.451
-70.447
-73.149
-75.5
-77.426
-78.929
-80.081
-81.078
-82.217
-83.658
-85.401
-87.422
-89.681
-92.101
-94.589
-96.879
-98.53
-99.382
-99.55
-99.242
-98.693
-97.993
-97.192
-96.494
-96.054
-95.79
-95.547
-94.918
-94.358
-94.775
-95.855
-97.776
-99.463
-98.916
-97.123
-94.236
-90.821
-89.666
-89.98
-90.097
-87.345
-73.153
-39.739
17.876
103.607
213.12
339.107
476.201
615.191
747.923
863.769
946.199
981.389
959.805
880.84
753.823
593.271
416.341
238.508
74.638
-60.805
-157.365
-209.104
-216.715
-191.525
-149.425
-106.245
-77.719
-68.592
-74.653
-88.353
-96.937
-94.177
-81.873
-64.581
-50.151
-42.693
-41.361
-44.091
-48.312
-53.101
-58.707
-64.972
-71.391
-77.041
-81.346
-84.371
-86.129
-86.585
-85.869
-84.242
-82.291
-80.819
-80.225
-80.543
-81.716
-83.555
-85.867
-88.47
-91.055
-93.242
-94.816
-95.704
-95.906
-95.511
-94.585
-93.16
-91.301
-89.085
-86.57
-83.807
-80.841
-77.709
-74.464
-71.175
-67.893
-64.658
-61.497
-58.42
-55.43
-52.521
-49.679
-46.886
-44.129
-41.399
-38.686
-35.979
-33.266
-30.528
-27.749
-24.909
-21.989
-18.972
-15.842
-12.587
-9.198
-5.669
-1.996
1.824
5.795
9.922
14.207
18.654
23.264
28.037
32.971
38.064
43.309
48.698
54.219
59.862
65.61
71.449
77.36
83.322
89.316
95.317
101.301
107.244
113.117
118.893
124.544
130.041
135.356
140.461
145.328
149.928
154.237
158.23
161.882
165.171
168.076
170.58
172.664
174.313
175.515
176.258
176.533
176.335
175.66
174.505
172.874
170.77
168.2
165.173
161.702
157.8
153.485
148.776
143.694
138.262
132.505
126.45
120.125
113.559
106.783
99.826
92.721
85.499
78.19
70.827
63.44
56.059
48.714
41.432
34.241
27.167
20.235
13.468
6.888
0.515
-5.633
-11.54
-17.192
-22.575
-27.679
-32.497
-37.021
-41.247
-45.173
-48.798
-52.123
-55.153
-57.892
-60.346
-62.524
-64.436
-66.091
-67.503
-68.682
-69.644
-70.402
-70.97
-71.364
-71.598
-71.688
-71.649
-71.496
-71.243
-70.905
-70.495
-70.026
-69.51
-68.959
-68.385
-67.796
-67.202
-66.61
-66.029
-65.465
-64.922
-64.406
-63.92
-63.467
-63.049
-62.666
-62.32
-62.008
-61.731
-61.487
-61.273
-61.085
-60.922
-60.78
-60.654
-60.54
-60.434
-60.332
-60.229
-60.122
-60.005
-59.875
-59.728
-59.563
-59.374
-59.162
-58.923
-58.658
-58.364
-58.043
-57.693
-57.317
-56.914
-56.486
-56.036
-55.565
-55.076
-54.571
-54.054
-53.529
-52.998
-52.467
-51.938
-51.417
-50.906
-50.411
-49.936
-49.485
-49.062
-48.672
-48.318
-48.005
-47.737
-47.515
-47.345
-47.226
-47.161
-47.151
-47.195
-47.292
-47.442
-47.642
-47.891
-48.184
-48.519
-48.891
-49.297
-49.731
-50.188
-50.663
-51.149
-51.64
-52.129
-52.608
-53.071
-53.51
-53.917
-54.286
-54.609
-54.877
-55.085
-55.222
-55.284
-55.261
-55.147
-54.936
-54.621
-54.198
-53.663
-53.013
-52.247
-51.363
-50.362
-49.246
-48.017
-46.68
-45.237
-43.694
-42.058
-40.335
-38.534
-36.665
-34.738
-32.765
-30.764
-28.75
-26.739
-24.749
-22.796
-20.9
-19.079
-17.353
-15.739
-14.254
-12.915
-11.739
-10.747
-9.955
-9.38
-9.032
-8.921
-9.053
-9.437
-10.079
-10.978
-12.132
-13.534
-15.184
-17.087
-19.247
-21.665
-24.335
-27.246
-30.382
-33.726
-37.251
-40.917
-44.678
-48.484
-52.281
-56.021
-59.66
-63.148
-66.437
-69.48
-72.216
-74.582
-76.522
-77.979
-78.927
-79.399
-79.421
-79.019
-78.29
-77.375
-76.516
-76.08
-76.288
-77.172
-78.775
-81.154
-84.287
-88.082
-92.052
-95.247
-96.997
-97.027
-95.192
-91.487
-85.925
-78.577
-70.337
-62.96
-57.891
-56.193
-58.522
-64.933
-75.626
-89.897
-104.786
-116.513
-121.126
-116.318
-103.673
-84.336
-57.223
-19.021
38.75
123.196
235.883
375.08
530.979
689.803
838.683
961.575
1045.731
1082.234
1064.559
995.228
881.063
732.755
565.512
394.216
235.004
102.147
5.007
-54.313
-81.099
-83.25
-70.913
-51.315
-29.29
-12.37
-5.466
-11.145
-29.274
-52.584
-72.873
-85.847
-90.171
-88.923
-86.708
-84.751
-82.635
-79.666
-75.101
-69.836
-65.307
-62.078
-60.255
-59.869
-60.849
-63.041
-66.105
-69.385
-72.34
-74.925
-77.447
-80.111
-82.954
-85.912
-88.875
-91.876
-94.937
-97.873
-100.39
-102.252
-103.333
-103.627
-103.207
-102.107
-100.354
-98.021
-95.204
-92.006
-88.519
-84.802
-80.906
-76.892
-72.829
-68.79
-64.836
-60.999
-57.298
-53.738
-50.314
-47.014
-43.82
-40.708
-37.659
-34.654
-31.678
-28.717
-25.757
-22.779
-19.768
-16.701
-13.561
-10.329
-6.993
-3.539
0.04
3.753
7.606
11.602
15.746
20.043
24.496
29.109
33.885
38.821
43.917
49.168
54.566
60.102
65.763
71.535
77.401
83.342
89.34
95.37
101.411
107.438
113.425
119.346
125.173
130.878
136.434
141.812
146.985
151.924
156.603
160.995
165.076
168.82
172.207
175.214
177.822
180.014
181.775
183.089
183.948
184.341
184.262
183.708
182.676
181.17
179.193
176.751
173.856
170.518
166.751
162.574
158.004
153.063
147.772
142.156
136.241
130.053
123.621
116.971
110.135
103.142
96.021
88.803
81.517
74.193
66.86
59.547
52.28
45.087
37.993
31.022
24.198
17.541
11.071
4.807
-1.235
-7.04
-12.595
-17.89
-22.915
-27.664
-32.132
-36.314
-40.21
-43.82
-47.146
-50.191
-52.961
-55.462
-57.701
-59.687
-61.429
-62.94
-64.228
-65.308
-66.191
-66.89
-67.419
-67.791
-68.018
-68.116
-68.096
-67.972
-67.756
-67.461
-67.097
-66.678
-66.212
-65.711
-65.183
-64.636
-64.079
-63.519
-62.96
-62.409
-61.869
-61.344
-60.838
-60.351
-59.885
-59.441
-59.019
-58.618
-58.238
-57.877
-57.534
-57.206
-56.892
-56.588
-56.294
-56.005
-55.72
-55.437
-55.153
-54.866
-54.575
-54.277
-53.973
-53.66
-53.338
-53.007
-52.667
-52.318
-51.96
-51.596
-51.226
-50.852
-50.476
-50.102
-49.732
-49.369
-49.017
-48.68
-48.36
-48.062
-47.789
-47.546
-47.337
-47.164
-47.031
-46.942
-46.9
-46.907
-46.966
-47.079
-47.245
-47.467
-47.744
-48.075
-48.46
-48.897
-49.382
-49.914
-50.488
-51.101
-51.747
-52.423
-53.12
-53.834
-54.558
-55.283
-56.002
-56.706
-57.386
-58.033
-58.638
-59.192
-59.686
-60.11
-60.455
-60.711
-60.871
-60.925
-60.865
-60.684
-60.374
-59.93
-59.347
-58.621
-57.749
-56.73
-55.562
-54.246
-52.784
-51.179
-49.434
-47.554
-45.546
-43.419
-41.18
-38.842
-36.416
-33.917
-31.36
-28.764
-26.148
-23.533
-20.94
-18.394
-15.918
-13.537
-11.274
-9.152
-7.193
-5.418
-3.846
-2.497
-1.387
-0.534
0.046
0.342
0.346
0.053
-0.534
-1.409
-2.565
-3.996
-5.702
-7.68
-9.926
-12.438
-15.214
-18.247
-21.526
-25.026
-28.701
-32.507
-36.401
-40.351
-44.346
-48.359
-52.349
-56.265
-60.042
-63.617
-66.95
-69.971
-72.566
-74.692
-76.388
-77.782
-79.128
-80.629
-82.371
-84.462
-87.082
-90.265
-93.85
-97.501
-100.642
-102.79
-103.802
-103.52
-101.58
-97.854
-92.626
-86.264
-79.417
-72.908
-66.877
-62.101
-60.842
-63.811
-70.482
-79.494
-86.31
-89.253
-91.23
-94.63
-104.086
-121.366
-140.468
-155.415
-158.201
-138.889
-93.941
-21.221
80.125
203.516
343.736
496.234
650.838
799.775
931.441
1028.417
1080.609
1080.367
1026.255
927.417
790.866
626.071
445.33
260.062
89.469
-47.45
-137.83
-175.596
-170.459
-140.48
-104.684
-80.361
-72.652
-77.637
-87.31
-91.32
-85.732
-72.653
-57.181
-46.319
-43.123
-46.821
-55.188
-64.949
-74.579
-83.837
-92.154
-99.118
-104.157
-106.866
-107.571
-106.799
-104.902
-102.271
-99.384
-96.786
-95.14
-94.812
-95.756
-97.808
-100.746
-104.316
-108.288
-112.338
-116.043
-119.142
-121.532
-123.179
-124.134
-124.44
-124.097
-123.157
-121.703
-119.798
-117.503
-114.862
-111.902
-108.676
-105.256
-101.714
-98.128
-94.552
-91.012
-87.532
-84.12
-80.778
-77.502
-74.283
-71.099
-67.935
-64.778
-61.614
-58.433
-55.221
-51.958
-48.624
-45.2
-41.669
-38.019
-34.241
-30.326
-26.268
-22.062
-17.706
-13.201
-8.545
-3.739
1.22
6.331
11.591
16.998
22.545
28.226
34.031
39.948
45.966
52.067
58.235
64.451
70.696
76.948
83.185
89.382
95.515
101.559
107.487
113.273
118.89
124.312
129.512
134.465
139.145
143.529
147.592
151.313
154.671
157.647
160.223
162.382
164.111
165.397
166.229
166.6
166.504
165.936
164.895
163.383
161.403
158.961
156.067
152.73
148.964
144.784
140.208
135.255
129.946
124.305
118.356
112.124
105.637
98.922
92.008
84.925
77.701
70.366
62.951
55.484
47.996
40.515
33.07
25.687
18.394
11.215
4.177
-2.699
-9.391
-15.878
-22.141
-28.163
-33.93
-39.426
-44.642
-49.566
-54.191
-58.51
-62.521
-66.221
-69.608
-72.686
-75.457
-77.924
-80.096
-81.978
-83.58
-84.912
-85.984
-86.809
-87.398
-87.766
-87.926
-87.891
-87.678
-87.299
-86.77
-86.105
-85.318
-84.424
-83.436
-82.369
-81.235
-80.046
-78.816
-77.555
-76.274
-74.983
-73.692
-72.407
-71.138
-69.89
-68.669
-67.481
-66.329
-65.217
-64.147
-63.123
-62.145
-61.215
-60.332
-59.497
-58.709
-57.967
-57.27
-56.618
-56.009
-55.441
-54.914
-54.428
-53.979
-53.569
-53.195
-52.858
-52.556
-52.288
-52.055
-51.856
-51.691
-51.56
-51.464
-51.403
-51.378
-51.39
-51.44
-51.528
-51.657
-51.826
-52.037
-52.291
-52.589
-52.931
-53.318
-53.752
-54.231
-54.756
-55.327
-55.943
-56.6
-57.298
-58.033
-58.802
-59.601
-60.425
-61.27
-62.13
-62.999
-63.872
-64.742
-65.603
-66.446
-67.264
-68.049
-68.792
-69.485
-70.12
-70.687
-71.177
-71.584
-71.897
-72.109
-72.213
-72.199
-72.062
-71.793
-71.386
-70.835
-70.135
-69.282
-68.274
-67.107
-65.781
-64.297
-62.655
-60.857
-58.908
-56.812
-54.575
-52.202
-49.704
-47.089
-44.367
-41.55
-38.651
-35.684
-32.668
-29.622
-26.565
-23.521
-20.511
-17.562
-14.698
-11.942
-9.316
-6.838
-4.525
-2.395
-0.469
1.235
2.7
3.911
4.855
5.523
5.905
6.002
5.82
5.369
4.66
3.693
2.461
0.953
-0.84
-2.921
-5.293
-7.951
-10.879
-14.053
-17.433
-20.98
-24.666
-28.467
-32.354
-36.301
-40.264
-44.176
-47.976
-51.566
-54.814
-57.668
-60.128
-62.273
-64.303
-66.38
-68.589
-71.085
-74.061
-77.503
-81.256
-84.898
-87.723
-89.347
-89.71
-88.751
-86.416
-82.804
-78.212
-73.457
-69.771
-67.82
-67.734
-69.497
-73.084
-78.742
-86.584
-96.019
-106.139
-116.513
-127.039
-137.974
-148.518
-155.746
-156.868
-149.699
-134.359
-114.141
-91.006
-63.93
-27.947
25.341
103.314
209.05
340
489.738
648.162
802.133
936.881
1035.179
1081.439
1067.263
993.142
868.143
708.348
531.578
354.573
193.759
61.559
-34.371
-92.553
-118.363
-120.446
-109.427
-93.4
-78.492
-69.269
-65.48
-65.511
-65.744
-62.117
-54.71
-45.911
-39.464
-38.167
-41.809
-48.509
-55.875
-62.684
-68.732
-73.808
-77.755
-80.173
-80.837
-80.125
-78.483
-76.159
-73.419
-70.57
-68.001
-66.294
-65.76
-66.341
-67.906
-70.271
-73.221
-76.584
-80.087
-83.338
-86.091
-88.249
-89.771
-90.709
-91.106
-90.958
-90.315
-89.258
-87.849
-86.147
-84.198
-82.022
-79.666
-77.192
-74.666
-72.158
-69.717
-67.362
-65.11
-62.961
-60.909
-58.944
-57.046
-55.187
-53.341
-51.488
-49.605
-47.676
-45.678
-43.585
-41.372
-39.011
-36.481
-33.763
-30.84
-27.7
-24.332
-20.727
-16.881
-12.792
-8.458
-3.88
0.944
6.012
11.319
16.859
22.622
28.599
34.774
41.132
47.653
54.316
61.097
67.971
74.911
81.888
88.873
95.834
102.739
109.556
116.251
122.79
129.14
135.268
141.14
146.725
151.993
156.913
161.46
165.606
169.329
172.608
175.423
177.76
179.603
180.941
181.767
182.074
181.86
181.124
179.87
178.102
175.83
173.065
169.82
166.112
161.959
157.383
152.404
147.049
141.343
135.313
128.988
122.399
115.577
108.553
101.358
94.026
86.589
79.076
71.521
63.952
56.399
48.89
41.452
34.11
26.888
19.808
12.892
6.159
-0.375
-6.694
-12.784
-18.633
-24.232
-29.572
-34.647
-39.452
-43.984
-48.241
-52.223
-55.931
-59.369
-62.54
-65.45
-68.106
-70.515
-72.687
-74.63
-76.354
-77.871
-79.19
-80.322
-81.279
-82.071
-82.709
-83.204
-83.565
-83.803
-83.927
-83.945
-83.868
-83.702
-83.454
-83.133
-82.743
-82.292
-81.784
-81.224
-80.617
-79.968
-79.28
-78.556
-77.801
-77.015
-76.203
-75.365
-74.504
-73.62
-72.715
-71.79
-70.846
-69.884
-68.906
-67.912
-66.904
-65.883
-64.852
-63.812
-62.765
-61.715
-60.663
-59.613
-58.568
-57.532
-56.508
-55.5
-54.512
-53.547
-52.61
-51.703
-50.83
-49.995
-49.199
-48.446
-47.739
-47.079
-46.469
-45.911
-45.407
-44.957
-44.562
-44.223
-43.939
-43.71
-43.534
-43.41
-43.335
-43.306
-43.32
-43.372
-43.459
-43.573
-43.71
-43.863
-44.025
-44.188
-44.344
-44.484
-44.6
-44.684
-44.726
-44.719
-44.654
-44.523
-44.318
-44.032
-43.656
-43.185
-42.61
-41.927
-41.128
-40.21
-39.168
-37.999
-36.701
-35.272
-33.712
-32.022
-30.203
-28.26
-26.194
-24.013
-21.721
-19.327
-16.839
-14.27
-11.63
-8.935
-6.201
-3.447
-0.692
2.044
4.739
7.373
9.926
12.375
14.699
16.879
18.89
20.714
22.328
23.71
24.839
25.699
26.272
26.55
26.521
26.179
25.519
24.538
23.232
21.598
19.629
17.32
14.676
11.7
8.403
4.804
0.927
-3.197
-7.521
-12.003
-16.6
-21.268
-25.967
-30.643
-35.242
-39.705
-43.971
-47.996
-51.744
-55.163
-58.209
-60.855
-63.088
-64.971
-66.582
-67.936
-69.122
-70.28
-71.596
-73.405
-75.989
-79.396
-83.685
-88.956
-95.037
-101.656
-108.318
-113.99
-117.765
-119.223
-117.961
-113.713
-106.744
-97.5
-86.887
-76.704
-68.745
-64.237
-64.21
-69.497
-79.418
-91.865
-104.295
-113.068
-116.369
-115.562
-110.897
-100.796
-79.993
-39.218
29.436
129.783
259.479
411.728
576.388
740.76
892.306
1015.411
1094.985
1119.987
1083.075
986.555
840.787
661.02
467.834
281.646
119.638
-4.445
-84.97
-124.484
-129.631
-111.901
-83.153
-51.615
-25.926
-11.02
-6.475
-11.174
-19.676
-25.898
-29.188
-30.086
-30.931
-35.479
-43.887
-54.532
-65.917
-75.747
-82.577
-86.489
-87.827
-87.092
-85.031
-82.215
-78.975
-75.876
-73.683
-72.767
-73.256
-75.155
-78.162
-81.999
-86.524
-91.441
-96.364
-101.016
-105.154
-108.635
-111.472
-113.661
-115.18
-116.047
-116.286
-115.936
-115.065
-113.725
-111.951
-109.792
-107.296
-104.529
-101.572
-98.501
-95.392
-92.297
-89.248
-86.266
-83.363
-80.541
-77.801
-75.127
-72.495
-69.884
-67.279
-64.661
-62.019
-59.33
-56.571
-53.718
-50.75
-47.648
-44.398
-40.986
-37.399
-33.627
-29.665
-25.506
-21.15
-16.594
-11.836
-6.874
-1.708
3.661
9.229
14.99
20.937
27.06
33.346
39.78
46.344
53.018
59.781
66.609
73.476
80.356
87.222
94.043
100.792
107.436
113.945
120.287
126.433
132.351
138.012
143.385
148.444
153.161
157.511
161.471
165.019
168.135
170.802
173.003
174.725
175.958
176.692
176.922
176.643
175.855
174.561
172.765
170.474
167.7
164.454
160.754
156.616
152.06
147.108
141.785
136.115
130.126
123.845
117.302
110.527
103.551
96.404
89.117
81.722
74.249
66.729
59.19
51.663
44.174
36.75
29.418
22.203
15.127
8.212
1.479
-5.053
-11.367
-17.447
-23.281
-28.855
-34.161
-39.19
-43.935
-48.393
-52.56
-56.436
-60.022
-63.32
-66.334
-69.069
-71.531
-73.728
-75.67
-77.364
-78.821
-80.052
-81.068
-81.88
-82.501
-82.941
-83.213
-83.329
-83.301
-83.141
-82.86
-82.471
-81.983
-81.408
-80.757
-80.04
-79.267
-78.447
-77.589
-76.702
-75.792
-74.867
-73.933
-72.996
-72.061
-71.132
-70.214
-69.31
-68.422
-67.554
-66.708
-65.885
-65.087
-64.316
-63.572
-62.857
-62.172
-61.517
-60.893
-60.3
-59.74
-59.213
-58.718
-58.258
-57.831
-57.438
-57.08
-56.755
-56.464
-56.207
-55.982
-55.791
-55.631
-55.503
-55.405
-55.339
-55.302
-55.294
-55.315
-55.363
-55.436
-55.535
-55.656
-55.798
-55.958
-56.135
-56.325
-56.526
-56.734
-56.946
-57.159
-57.368
-57.57
-57.76
-57.935
-58.089
-58.217
-58.316
-58.379
-58.403
-58.383
-58.315
-58.194
-58.017
-57.779
-57.476
-57.106
-56.664
-56.147
-55.552
-54.876
-54.119
-53.278
-52.353
-51.345
-50.254
-49.081
-47.829
-46.501
-45.101
-43.633
-42.101
-40.512
-38.872
-37.189
-35.47
-33.725
-31.964
-30.201
-28.447
-26.716
-25.023
-23.383
-21.811
-20.321
-18.929
-17.646
-16.484
-15.457
-14.574
-13.85
-13.297
-12.926
-12.746
-12.766
-12.994
-13.437
-14.098
-14.973
-16.059
-17.354
-18.857
-20.579
-22.527
-24.705
-27.111
-29.743
-32.59
-35.641
-38.87
-42.235
-45.688
-49.18
-52.666
-56.112
-59.478
-62.719
-65.778
-68.585
-71.076
-73.198
-74.907
-76.168
-76.964
-77.304
-77.236
-76.846
-76.233
-75.507
-74.788
-74.19
-73.835
-73.827
-74.287
-75.376
-77.243
-79.968
-83.508
-87.674
-92.193
-96.775
-101.044
-104.484
-106.576
-106.925
-105.539
-102.882
-99.536
-96.265
-93.966
-93.472
-95.822
-101.037
-107.046
-111.326
-111.293
-106.075
-98.577
-90.515
-79.512
-59.316
-18.56
52.188
153.383
279.369
419.154
559.481
692.178
809.644
901.438
957.422
965.751
918.203
816.629
670.635
496.544
315.003
145.124
1.465
-105.493
-172.605
-202.834
-200.676
-176.173
-140.189
-102.425
-74.977
-62.032
-61.62
-68.856
-73.109
-69.492
-59.349
-45.899
-35.643
-31.486
-32.194
-36.123
-41.086
-46.007
-50.916
-55.551
-59.406
-62.18
-63.881
-64.671
-64.693
-64.107
-63.128
-62.142
-61.787
-62.415
-64.03
-66.535
-69.707
-73.313
-77.174
-81.025
-84.519
-87.449
-89.739
-91.366
-92.401
-92.899
-92.881
-92.404
-91.538
-90.336
-88.845
-87.11
-85.166
-83.067
-80.881
-78.658
-76.435
-74.233
-72.059
-69.914
-67.794
-65.681
-63.555
-61.398
-59.199
-56.947
-54.633
-52.243
-49.76
-47.166
-44.444
-41.577
-38.551
-35.354
-31.976
-28.41
-24.654
-20.708
-16.573
-12.25
-7.738
-3.038
1.847
6.916
12.164
17.584
23.169
28.91
34.794
40.806
46.93
53.149
59.445
65.796
72.182
78.579
84.963
91.31
97.594
103.79
109.869
115.806
121.572
127.141
132.485
137.579
142.396
146.912
151.102
154.945
158.418
161.503
164.182
166.437
168.255
169.624
170.532
170.972
170.938
170.425
169.433
167.963
166.019
163.608
160.738
157.42
153.668
149.497
144.925
139.971
134.657
129.005
123.041
116.789
110.277
103.534
96.588
89.47
82.209
74.835
67.38
59.873
52.344
44.823
37.339
29.92
22.593
15.385
8.319
1.421
-5.287
-11.786
-18.055
-24.077
-29.837
-35.32
-40.515
-45.412
-50.004
-54.283
-58.246
-61.891
-65.218
-68.228
-70.924
-73.312
-75.397
-77.188
-78.695
-79.927
-80.896
-81.615
-82.098
-82.357
-82.408
-82.266
-81.945
-81.46
-80.827
-80.062
-79.179
-78.193
-77.119
-75.972
-74.765
-73.511
-72.222
-70.912
-69.589
-68.266
-66.95
-65.652
-64.377
-63.134
-61.927
-60.762
-59.643
-58.573
-57.555
-56.589
-55.677
-54.82
-54.016
-53.266
-52.567
-51.92
-51.322
-50.771
-50.267
-49.806
-49.387
-49.007
-48.666
-48.361
-48.09
-47.851
-47.643
-47.464
-47.312
-47.187
-47.087
-47.011
-46.959
-46.93
-46.924
-46.941
-46.98
-47.041
-47.126
-47.233
-47.364
-47.519
-47.699
-47.903
-48.133
-48.389
-48.671
-48.977
-49.309
-49.664
-50.041
-50.438
-50.854
-51.284
-51.728
-52.18
-52.638
-53.097
-53.555
-54.006
-54.445
-54.868
-55.271
-55.647
-55.991
-56.298
-56.563
-56.778
-56.94
-57.043
-57.081
-57.05
-56.943
-56.757
-56.487
-56.128
-55.676
-55.127
-54.479
-53.727
-52.871
-51.909
-50.841
-49.669
-48.393
-47.015
-45.54
-43.97
-42.31
-40.565
-38.741
-36.844
-34.883
-32.865
-30.8
-28.698
-26.573
-24.437
-22.306
-20.192
-18.112
-16.082
-14.117
-12.237
-10.458
-8.796
-7.267
-5.885
-4.666
-3.625
-2.777
-2.131
-1.696
-1.481
-1.493
-1.742
-2.23
-2.955
-3.909
-5.086
-6.481
-8.098
-9.938
-11.996
-14.267
-16.743
-19.415
-22.274
-25.301
-28.459
-31.705
-34.986
-38.26
-41.496
-44.674
-47.775
-50.764
-53.587
-56.186
-58.505
-60.494
-62.123
-63.354
-64.14
-64.521
-64.609
-64.587
-64.727
-65.25
-66.287
-67.938
-70.26
-73.158
-76.469
-79.891
-82.895
-84.994
-85.766
-84.895
-82.278
-78.049
-72.434
-65.825
-58.964
-52.704
-48.02
-45.936
-47.199
-52.138
-60.985
-73.08
-86.43
-98.931
-107.92
-112.04
-112.261
-108.713
-100.267
-82.531
-47.9
10.157
95.27
205.935
336.545
478.547
621.413
754.102
863.187
937.28
967.923
950.215
887.594
785.297
651.77
501.017
346.228
205.037
94.324
20.028
-18.827
-33.138
-38.901
-44.291
-51.643
-57.939
-57.337
-49.574
-38.006
-26.781
-20.02
-18.673
-21.927
-29.148
-39.017
-50.132
-61.136
-70.368
-76.962
-80.951
-82.433
-81.511
-78.59
-74.19
-69.129
-64.511
-60.95
-58.598
-57.555
-57.832
-59.375
-62.118
-65.783
-69.909
-74.199
-78.462
-82.538
-86.327
-89.679
-92.453
-94.598
-96.123
-97.041
-97.371
-97.12
-96.294
-94.936
-93.103
-90.854
-88.25
-85.346
-82.199
-78.877
-75.447
-71.98
-68.526
-65.117
-61.772
-58.504
-55.313
-52.196
-49.144
-46.135
-43.153
-40.184
-37.212
-34.225
-31.21
-28.152
-25.035
-21.844
-18.566
-15.192
-11.714
-8.123
-4.416
-0.588
3.36
7.429
11.618
15.927
20.356
24.903
29.568
34.346
39.233
44.222
49.304
54.47
59.706
64.998
70.33
75.685
81.044
86.388
91.695
96.946
102.117
107.185
112.128
116.922
121.543
125.969
130.177
134.145
137.85
141.273
144.394
147.193
149.654
151.761
153.499
154.854
155.815
156.372
156.517
156.246
155.553
154.438
152.902
150.949
148.583
145.814
142.652
139.11
135.201
130.944
126.356
121.457
116.27
110.818
105.124
99.215
93.117
86.856
80.46
73.956
67.373
60.739
54.081
47.426
40.803
34.237
27.754
21.381
15.14
9.054
3.146
-2.566
-8.061
-13.324
-18.34
-23.095
-27.577
-31.778
-35.69
-39.308
-42.628
-45.649
-48.371
-50.797
-52.93
-54.777
-56.344
-57.641
-58.677
-59.464
-60.014
-60.339
-60.455
-60.376
-60.118
-59.696
-59.127
-58.428
-57.616
-56.707
-55.718
-54.666
-53.566
-52.433
-51.283
-50.129
-48.986
-47.865
-46.778
-45.735
-44.747
-43.82
-42.964
-42.182
-41.481
-40.863
-40.331
-39.888
-39.532
-39.264
-39.082
-38.984
-38.966
-39.025
-39.157
-39.355
-39.614
-39.929
-40.291
-40.694
-41.132
-41.597
-42.081
-42.578
-43.081
-43.583
-44.078
-44.558
-45.019
-45.454
-45.858
-46.228
-46.558
-46.847
-47.09
-47.285
-47.432
-47.529
-47.576
-47.572
-47.52
-47.42
-47.274
-47.085
-46.856
-46.59
-46.291
-45.964
-45.613
-45.244
-44.86
-44.468
-44.072
-43.678
-43.29
-42.913
-42.553
-42.212
-41.897
-41.609
-41.352
-41.13
-40.944
-40.796
-40.688
-40.621
-40.595
-40.609
-40.664
-40.758
-40.89
-41.056
-41.255
-41.484
-41.736
-42.009
-42.297
-42.594
-42.894
-43.191
-43.479
-43.751
-43.998
-44.215
-44.394
-44.529
-44.611
-44.634
-44.592
-44.479
-44.29
-44.021
-43.667
-43.226
-42.695
-42.072
-41.357
-40.55
-39.651
-38.662
-37.585
-36.425
-35.186
-33.876
-32.5
-31.068
-29.59
-28.08
-26.55
-25.015
-23.493
-22
-20.556
-19.181
-17.891
-16.703
-15.632
-14.693
-13.902
-13.273
-12.818
-12.55
-12.48
-12.621
-12.979
-13.56
-14.357
-15.362
-16.568
-17.968
-19.566
-21.364
-23.362
-25.561
-27.962
-30.562
-33.355
-36.322
-39.414
-42.59
-45.806
-49.028
-52.252
-55.461
-58.622
-61.697
-64.622
-67.328
-69.773
-71.878
-73.546
-74.761
-75.565
-76.091
-76.592
-77.258
-78.218
-79.646
-81.658
-84.181
-86.987
-89.641
-91.632
-92.675
-92.586
-91.1
-88.047
-83.504
-77.885
-71.953
-66.364
-61.444
-57.503
-55.026
-54.585
-56.717
-61.562
-68.778
-78.355
-89.79
-101.263
-110.639
-115.319
-114.341
-109.931
-104.063
-96.358
-81.923
-51.342
4.851
92.028
208.61
347.696
498.289
647.87
785.437
898.299
974.648
1005.148
982.373
906.953
787.025
635.883
472.081
314.078
175.99
67.421
-8.285
-54.81
-77.571
-82.685
-77.632
-67.032
-55.856
-49.33
-48.194
-51.292
-54.958
-54.87
-50.528
-44.176
-39.749
-39.899
-44.521
-52.132
-60.451
-68.205
-75.136
-80.691
-84.474
-86.4
-86.412
-84.826
-82.22
-78.924
-75.336
-72.157
-69.898
-68.824
-69.057
-70.442
-72.722
-75.74
-79.228
-82.79
-86.128
-89.003
-91.274
-92.945
-94.027
-94.515
-94.441
-93.855
-92.804
-91.35
-89.536
-87.389
-84.95
-82.267
-79.401
-76.426
-73.412
-70.424
-67.507
-64.691
-61.992
-59.419
-56.971
-54.642
-52.42
-50.281
-48.207
-46.185
-44.196
-42.226
-40.258
-38.265
-36.227
-34.121
-31.93
-29.639
-27.232
-24.698
-22.026
-19.207
-16.235
-13.107
-9.819
-6.365
-2.742
1.053
5.021
9.159
13.466
17.938
22.567
27.345
32.261
37.299
42.446
47.683
52.993
58.355
63.747
69.146
74.53
79.873
85.15
90.336
95.404
100.327
105.08
109.636
113.971
118.059
121.878
125.404
128.618
131.498
134.028
136.191
137.971
139.357
140.338
140.904
141.05
140.77
140.063
138.93
137.374
135.4
133.016
130.233
127.063
123.52
119.62
115.38
110.822
105.964
100.832
95.447
89.836
84.024
78.039
71.907
65.656
59.314
52.909
46.467
40.016
33.583
27.192
20.871
14.642
8.529
2.555
-3.26
-8.896
-14.336
-19.563
-24.563
-29.323
-33.831
-38.079
-42.058
-45.762
-49.188
-52.332
-55.193
-57.773
-60.074
-62.099
-63.854
-65.345
-66.581
-67.571
-68.324
-68.852
-69.167
-69.28
-69.204
-68.954
-68.543
-67.984
-67.292
-66.481
-65.565
-64.558
-63.473
-62.324
-61.123
-59.883
-58.615
-57.331
-56.04
-54.752
-53.476
-52.221
-50.994
-49.801
-48.648
-47.54
-46.482
-45.477
-44.527
-43.635
-42.801
-42.026
-41.31
-40.652
-40.052
-39.509
-39.02
-38.583
-38.197
-37.858
-37.564
-37.312
-37.101
-36.926
-36.785
-36.676
-36.596
-36.542
-36.514
-36.508
-36.523
-36.558
-36.611
-36.682
-36.769
-36.874
-36.995
-37.132
-37.288
-37.461
-37.654
-37.867
-38.103
-38.361
-38.646
-38.957
-39.298
-39.67
-40.075
-40.514
-40.99
-41.504
-42.056
-42.647
-43.279
-43.952
-44.665
-45.418
-46.21
-47.041
-47.909
-48.812
-49.748
-50.713
-51.704
-52.718
-53.749
-54.794
-55.847
-56.902
-57.955
-58.999
-60.027
-61.034
-62.01
-62.95
-63.846
-64.689
-65.471
-66.185
-66.822
-67.374
-67.835
-68.197
-68.453
-68.597
-68.622
-68.523
-68.295
-67.933
-67.433
-66.793
-66.008
-65.08
-64.007
-62.789
-61.428
-59.925
-58.285
-56.51
-54.607
-52.582
-50.441
-48.192
-45.845
-43.411
-40.9
-38.325
-35.7
-33.04
-30.364
-27.69
-25.039
-22.433
-19.893
-17.439
-15.092
-12.87
-10.789
-8.864
-7.108
-5.538
-4.168
-3.011
-2.083
-1.397
-0.961
-0.781
-0.857
-1.178
-1.738
-2.531
-3.558
-4.827
-6.348
-8.121
-10.151
-12.44
-14.983
-17.764
-20.746
-23.874
-27.101
-30.389
-33.723
-37.093
-40.469
-43.794
-46.992
-49.971
-52.67
-55.037
-56.985
-58.479
-59.545
-60.275
-60.904
-61.687
-62.707
-64.018
-65.654
-67.443
-69.218
-70.799
-71.78
-71.889
-71.206
-69.777
-67.746
-65.627
-63.747
-62.334
-61.831
-62.335
-63.579
-65.572
-68.275
-71.266
-74.566
-78.363
-82.618
-87.792
-93.885
-99.526
-103.122
-102.953
-98.158
-89.655
-78.073
-62.887
-40.424
-4.408
51.414
132.349
238.804
367.325
510.57
656.635
792.541
902.768
973.596
995.557
963.953
883.024
761.248
610.959
447.077
282.826
133.019
11.306
-72.851
-114.76
-118.788
-97.374
-66.087
-39.378
-25.984
-26.14
-34.074
-42.564
-46.348
-44.911
-42.131
-42.762
-49.077
-60.492
-74.154
-86.329
-95.232
-100.556
-102.233
-100.825
-96.931
-91.054
-84.238
-77.706
-72.105
-67.787
-65.024
-63.801
-64.04
-65.643
-68.243
-71.362
-74.729
-78.16
-81.484
-84.617
-87.421
-89.723
-91.463
-92.633
-93.209
-93.194
-92.587
-91.378
-89.607
-87.343
-84.646
-81.586
-78.224
-74.61
-70.808
-66.889
-62.918
-58.964
-55.076
-51.282
-47.604
-44.054
-40.634
-37.34
-34.16
-31.072
-28.056
-25.097
-22.179
-19.291
-16.42
-13.548
-10.662
-7.746
-4.785
-1.769
1.311
4.466
7.702
11.026
14.443
17.953
21.56
25.266
29.075
32.989
37.009
41.136
45.366
49.698
54.127
58.646
63.247
67.919
72.649
77.426
82.233
87.056
91.877
96.678
101.44
106.145
110.771
115.299
119.707
123.975
128.081
132.005
135.727
139.225
142.482
145.477
148.193
150.613
152.722
154.505
155.95
157.044
157.779
158.146
158.139
157.753
156.986
155.837
154.309
152.405
150.131
147.494
144.506
141.176
137.52
133.55
129.284
124.74
119.936
114.892
109.629
104.17
98.536
92.751
86.839
80.824
74.729
68.578
62.396
56.204
50.028
43.888
37.806
31.804
25.9
20.115
14.465
8.967
3.638
-1.511
-6.466
-11.215
-15.751
-20.065
-24.15
-28.002
-31.618
-34.996
-38.136
-41.037
-43.704
-46.138
-48.345
-50.33
-52.1
-53.662
-55.025
-56.197
-57.188
-58.009
-58.668
-59.178
-59.548
-59.789
-59.913
-59.929
-59.849
-59.682
-59.44
-59.132
-58.768
-58.357
-57.907
-57.427
-56.924
-56.404
-55.875
-55.341
-54.808
-54.28
-53.761
-53.254
-52.761
-52.285
-51.828
-51.389
-50.97
-50.571
-50.191
-49.829
-49.486
-49.158
-48.846
-48.548
-48.263
-47.988
-47.722
-47.464
-47.212
-46.965
-46.722
-46.48
-46.238
-45.996
-45.753
-45.507
-45.259
-45.008
-44.754
-44.496
-44.237
-43.976
-43.714
-43.452
-43.191
-42.933
-42.68
-42.434
-42.197
-41.972
-41.761
-41.567
-41.394
-41.244
-41.121
-41.028
-40.968
-40.944
-40.959
-41.016
-41.118
-41.267
-41.465
-41.715
-42.019
-42.378
-42.794
-43.267
-43.797
-44.384
-45.028
-45.728
-46.482
-47.287
-48.142
-49.044
-49.989
-50.974
-51.994
-53.045
-54.12
-55.215
-56.321
-57.431
-58.538
-59.632
-60.704
-61.746
-62.747
-63.698
-64.588
-65.409
-66.149
-66.799
-67.349
-67.79
-68.112
-68.307
-68.366
-68.284
-68.053
-67.668
-67.123
-66.416
-65.543
-64.504
-63.297
-61.924
-60.385
-58.683
-56.823
-54.811
-52.651
-50.354
-47.928
-45.387
-42.748
-40.029
-37.251
-34.434
-31.6
-28.773
-25.974
-23.223
-20.54
-17.942
-15.448
-13.078
-10.854
-8.797
-6.928
-5.264
-3.817
-2.598
-1.612
-0.859
-0.339
-0.054
-0.011
-0.228
-0.72
-1.505
-2.593
-3.994
-5.706
-7.714
-9.993
-12.505
-15.217
-18.109
-21.163
-24.349
-27.628
-30.936
-34.186
-37.311
-40.229
-42.833
-45.09
-46.998
-48.609
-50.122
-51.738
-53.536
-55.603
-57.983
-60.514
-63.042
-65.351
-66.967
-67.595
-67.27
-66.105
-64.406
-62.736
-61.512
-61.169
-62.412
-65.649
-70.807
-77.535
-85.146
-92.88
-100.831
-109.601
-119.244
-129.256
-137.155
-139.686
-135.156
-123.432
-108.175
-94.062
-83.909
-78.871
-74.964
-65.629
-43.359
-0.147
68.661
164.79
285.574
424.853
574.325
722.084
854.307
955.438
1009.611
1005.992
942.181
823.634
664.462
484.149
302.193
138.018
6.129
-86.319
-139.932
-161.888
-160.854
-146.922
-126.215
-103.373
-85.723
-74.982
-71.675
-74.049
-74.232
-69.41
-60.468
-49.567
-42.314
-40.945
-44.258
-50.812
-58.541
-66.297
-73.853
-80.735
-86.295
-90.156
-92.329
-93.013
-92.411
-90.81
-88.575
-86.211
-84.421
-83.603
-83.782
-84.901
-86.769
-89.15
-91.84
-94.52
-96.811
-98.505
-99.527
-99.86
-99.571
-98.713
-97.308
-95.43
-93.162
-90.563
-87.687
-84.57
-81.242
-77.762
-74.201
-70.627
-67.096
-63.644
-60.291
-57.051
-53.931
-50.93
-48.039
-45.242
-42.526
-39.883
-37.303
-34.775
-32.285
-29.814
-27.342
-24.85
-22.316
-19.725
-17.062
-14.313
-11.468
-8.519
-5.458
-2.279
1.024
4.459
8.031
11.747
15.611
19.626
23.792
28.109
32.575
37.183
41.929
46.801
51.791
56.887
62.073
67.333
72.652
78.008
83.381
88.749
94.088
99.373
104.579
109.68
114.649
119.46
124.087
128.503
132.683
136.602
140.237
143.565
146.564
149.214
151.497
153.396
154.897
155.987
156.656
156.894
156.694
156.054
154.971
153.445
151.48
149.08
146.253
143.009
139.361
135.321
130.908
126.139
121.035
115.619
109.914
103.945
97.739
91.323
84.726
77.977
71.105
64.14
57.112
50.05
42.984
35.941
28.95
22.038
15.229
8.549
2.021
-4.333
-10.492
-16.438
-22.153
-27.62
-32.826
-37.758
-42.406
-46.76
-50.815
-54.564
-58.006
-61.139
-63.963
-66.482
-68.698
-70.619
-72.25
-73.601
-74.682
-75.504
-76.079
-76.421
-76.543
-76.461
-76.189
-75.743
-75.137
-74.388
-73.511
-72.52
-71.431
-70.259
-69.016
-67.718
-66.378
-65.008
-63.62
-62.227
-60.838
-59.464
-58.113
-56.795
-55.515
-54.282
-53.1
-51.974
-50.908
-49.906
-48.97
-48.101
-47.3
-46.567
-45.902
-45.303
-44.768
-44.295
-43.882
-43.525
-43.223
-42.973
-42.771
-42.615
-42.502
-42.428
-42.392
-42.391
-42.421
-42.482
-42.569
-42.683
-42.821
-42.982
-43.164
-43.368
-43.593
-43.838
-44.103
-44.39
-44.697
-45.026
-45.377
-45.753
-46.153
-46.58
-47.035
-47.52
-48.038
-48.588
-49.174
-49.796
-50.456
-51.153
-51.89
-52.667
-53.483
-54.339
-55.233
-56.166
-57.136
-58.142
-59.18
-60.248
-61.344
-62.462
-63.599
-64.75
-65.909
-67.07
-68.227
-69.374
-70.504
-71.61
-72.682
-73.715
-74.699
-75.625
-76.484
-77.267
-77.966
-78.57
-79.072
-79.463
-79.735
-79.88
-79.889
-79.757
-79.475
-79.038
-78.439
-77.672
-76.734
-75.62
-74.329
-72.858
-71.208
-69.38
-67.374
-65.195
-62.846
-60.332
-57.661
-54.84
-51.879
-48.788
-45.581
-42.27
-38.871
-35.401
-31.877
-28.321
-24.753
-21.195
-17.672
-14.208
-10.828
-7.558
-4.42
-1.436
1.373
3.986
6.384
8.546
10.456
12.095
13.446
14.493
15.224
15.63
15.716
15.486
14.946
14.098
12.937
11.456
9.657
7.537
5.098
2.346
-0.709
-4.041
-7.595
-11.32
-15.166
-19.096
-23.101
-27.162
-31.241
-35.289
-39.227
-42.979
-46.49
-49.687
-52.475
-54.834
-56.808
-58.529
-60.235
-62.126
-64.322
-66.92
-69.989
-73.431
-76.99
-80.345
-83.111
-85.049
-86.096
-86.227
-85.398
-83.808
-81.913
-80.118
-78.782
-78.044
-77.78
-78.032
-79.154
-81.25
-84.282
-88.425
-93.763
-100.68
-109.062
-117.021
-121.901
-121.115
-113.972
-102.822
-89.953
-75.124
-53.2
-14.431
50.816
147.905
274.934
424.113
583.183
738.242
876.274
982.439
1043.971
1051.961
1001.221
895.815
746.72
568.678
380.715
201.463
45.601
-75.018
-154.702
-195.38
-201.272
-180.992
-145.988
-105.108
-68.736
-44.187
-32.068
-31.25
-35.952
-39.522
-40.613
-39.501
-38.806
-42.52
-50.68
-61.466
-72.693
-81.243
-85.931
-87.22
-85.502
-81.554
-76.235
-70.103
-63.925
-58.714
-55.011
-52.957
-52.576
-53.636
-55.851
-59.01
-62.759
-66.615
-70.243
-73.409
-75.973
-77.94
-79.306
-80.041
-80.16
-79.704
-78.719
-77.263
-75.385
-73.107
-70.471
-67.527
-64.341
-60.996
-57.57
-54.138
-50.751
-47.444
-44.241
-41.156
-38.194
-35.351
-32.614
-29.957
-27.363
-24.814
-22.295
-19.79
-17.279
-14.737
-12.141
-9.47
-6.704
-3.83
-0.831
2.305
5.588
9.028
12.629
16.395
20.33
24.439
28.726
33.194
37.844
42.675
47.684
52.869
58.224
63.739
69.403
75.204
81.127
87.154
93.268
99.449
105.675
111.923
118.17
124.39
130.558
136.647
142.63
148.479
154.166
159.664
164.945
169.983
174.75
179.223
183.375
187.186
190.632
193.693
196.351
198.589
200.39
201.743
202.637
203.062
203.012
202.484
201.477
199.992
198.033
195.608
192.723
189.391
185.625
181.44
176.853
171.885
166.556
160.889
154.909
148.642
142.114
135.355
128.392
121.255
113.974
106.579
99.1
91.569
84.014
76.465
68.953
61.505
54.15
46.913
39.821
32.897
26.164
19.643
13.354
7.313
1.538
-3.959
-9.166
-14.071
-18.668
-22.95
-26.912
-30.554
-33.874
-36.874
-39.558
-41.931
-43.998
-45.768
-47.251
-48.455
-49.394
-50.08
-50.526
-50.747
-50.757
-50.574
-50.211
-49.687
-49.017
-48.219
-47.308
-46.301
-45.213
-44.061
-42.859
-41.622
-40.363
-39.096
-37.832
-36.583
-35.36
-34.17
-33.024
-31.928
-30.888
-29.91
-28.999
-28.157
-27.389
-26.695
-26.077
-25.536
-25.072
-24.684
-24.371
-24.131
-23.962
-23.862
-23.826
-23.853
-23.938
-24.078
-24.27
-24.509
-24.791
-25.115
-25.475
-25.868
-26.292
-26.743
-27.219
-27.717
-28.236
-28.773
-29.327
-29.898
-30.483
-31.084
-31.7
-32.33
-32.975
-33.636
-34.312
-35.004
-35.712
-36.437
-37.179
-37.938
-38.715
-39.509
-40.321
-41.151
-41.999
-42.863
-43.744
-44.64
-45.55
-46.471
-47.403
-48.342
-49.286
-50.231
-51.175
-52.113
-53.041
-53.955
-54.849
-55.719
-56.559
-57.362
-58.123
-58.835
-59.491
-60.084
-60.608
-61.056
-61.421
-61.698
-61.88
-61.96
-61.934
-61.796
-61.54
-61.162
-60.658
-60.024
-59.255
-58.35
-57.307
-56.124
-54.803
-53.342
-51.744
-50.01
-48.145
-46.152
-44.035
-41.8
-39.455
-37.007
-34.466
-31.842
-29.147
-26.396
-23.602
-20.785
-17.961
-15.149
-12.366
-9.632
-6.965
-4.385
-1.911
0.439
2.644
4.688
6.55
8.21
9.651
10.856
11.812
12.508
12.935
13.084
12.951
12.53
11.818
10.813
9.508
7.898
5.986
3.774
1.272
-1.504
-4.533
-7.788
-11.226
-14.81
-18.499
-22.256
-26.045
-29.821
-33.539
-37.154
-40.619
-43.907
-46.988
-49.82
-52.362
-54.582
-56.485
-58.14
-59.626
-60.972
-62.26
-63.599
-65.189
-67.357
-70.292
-73.993
-78.445
-83.632
-89.469
-95.836
-102.26
-107.823
-111.867
-114.071
-114.244
-112.386
-108.481
-102.539
-95.292
-88.247
-82.626
-79.396
-79.255
-82.356
-89.182
-99.283
-109.885
-117.708
-119.452
-113.89
-104.162
-92.234
-76.706
-52.553
-8.253
65.643
171.097
304.805
454.029
602.733
738.694
849.677
927.311
966.143
958.862
901.392
793.619
640.52
456.533
263.433
84.897
-58.484
-155.046
-207.183
-224.956
-220.139
-205.296
-185.31
-162.576
-142.511
-125.854
-114.11
-107.588
-100.285
-90.015
-77.269
-63.186
-52.377
-47.037
-46.347
-49.14
-53.643
-58.93
-64.791
-70.926
-76.863
-81.834
-85.505
-87.97
-89.205
-89.324
-88.599
-87.234
-85.722
-84.743
-84.555
-85.168
-86.518
-88.368
-90.492
-92.759
-94.918
-96.657
-97.825
-98.364
-98.283
-97.695
-96.675
-95.258
-93.508
-91.495
-89.273
-86.905
-84.439
-81.911
-79.368
-76.851
-74.386
-71.997
-69.694
-67.474
-65.329
-63.24
-61.186
-59.149
-57.119
-55.082
-53.029
-50.941
-48.802
-46.593
-44.296
-41.894
-39.37
-36.709
-33.896
-30.924
-27.783
-24.473
-20.988
-17.327
-13.486
-9.461
-5.251
-0.857
3.72
8.477
13.408
18.505
23.76
29.158
34.685
40.326
46.063
51.877
57.749
63.656
69.576
75.485
81.358
87.171
92.896
98.506
103.976
109.278
114.386
119.272
123.911
128.277
132.348
136.099
139.509
142.557
145.225
147.496
149.353
150.784
151.776
152.32
152.409
152.036
151.201
149.902
148.142
145.925
143.257
140.147
136.608
132.65
128.29
123.544
118.431
112.971
107.185
101.097
94.73
88.111
81.266
74.221
67.004
59.642
52.165
44.6
36.975
29.318
21.657
14.019
6.43
-1.083
-8.497
-15.786
-22.928
-29.901
-36.686
-43.263
-49.614
-55.725
-61.58
-67.167
-72.476
-77.497
-82.222
-86.646
-90.764
-94.573
-98.073
-101.264
-104.148
-106.73
-109.012
-111.003
-112.708
-114.137
-115.299
-116.204
-116.863
-117.289
-117.493
-117.489
-117.292
-116.914
-116.371
-115.677
-114.847
-113.896
-112.838
-111.689
-110.462
-109.172
-107.831
-106.454
-105.052
-103.638
-102.224
-100.819
-99.435
-98.08
-96.762
-95.489
-94.269
-93.106
-92.007
-90.975
-90.014
-89.128
-88.318
-87.586
-86.933
-86.36
-85.865
-85.449
-85.109
-84.844
-84.652
-84.529
-84.473
-84.48
-84.548
-84.671
-84.847
-85.071
-85.339
-85.648
-85.992
-86.369
-86.773
-87.203
-87.654
-88.122
-88.606
-89.103
-89.61
-90.126
-90.65
-91.18
-91.715
-92.256
-92.8
-93.35
-93.905
-94.465
-95.031
-95.604
-96.185
-96.776
-97.377
-97.989
-98.614
-99.252
-99.904
-100.571
-101.252
-101.948
-102.66
-103.386
-104.126
-104.881
-105.648
-106.426
-107.215
-108.01
-108.81
-109.611
-110.41
-111.202
-111.983
-112.746
-113.488
-114.202
-114.882
-115.523
-116.116
-116.657
-117.137
-117.55
-117.889
-118.147
-118.318
-118.397
-118.376
-118.253
-118.023
-117.683
-117.229
-116.66
-115.974
-115.171
-114.249
-113.211
-112.057
-110.791
-109.417
-107.94
-106.367
-104.707
-102.97
-101.166
-99.308
-97.411
-95.49
-93.562
-91.644
-89.757
-87.916
-86.138
-84.439
-82.837
-81.346
-79.982
-78.757
-77.683
-76.773
-76.041
-75.497
-75.15
-74.996
-75.034
-75.258
-75.667
-76.267
-77.066
-78.065
-79.268
-80.675
-82.287
-84.103
-86.112
-88.277
-90.553
-92.893
-95.259
-97.633
-100.006
-102.357
-104.643
-106.806
-108.778
-110.499
-111.924
-113.001
-113.657
-113.896
-113.798
-113.531
-113.346
-113.477
-114.076
-115.252
-117.095
-119.497
-122.233
-125.057
-127.567
-129.421
-130.368
-130.165
-128.685
-126.171
-123.032
-119.569
-116.202
-113.293
-111.34
-111.095
-113.092
-117.56
-124.511
-133.926
-145.966
-159.786
-172.535
-181.165
-182.862
-177.119
-167.718
-156.702
-141.745
-116.679
-70.094
7.159
115.085
248.153
395.653
543.472
681.821
800.949
888.63
935.741
933.45
877.228
771.804
626.085
453.707
271.831
96.961
-54.376
-168.486
-238.382
-263.843
-252.493
-218.605
-177.504
-143.371
-125.844
-125.415
-136.855
-151.057
-158.148
-154.823
-142.978
-127.651
-115.217
-108.103
-105.597
-106.034
-107.465
-109.577
-112.765
-116.857
-121.455
-125.773
-129.243
-131.855
-133.546
-134.207
-133.905
-132.838
-131.47
-130.468
-130.164
-130.562
-131.589
-133.056
-134.764
-136.575
-138.244
-139.452
-140.028
-139.912
-139.11
-137.721
-135.822
-133.447
-130.661
-127.539
-124.14
-120.53
-116.771
-112.908
-109.004
-105.11
-101.261
-97.488
-93.805
-90.214
-86.712
-83.281
-79.897
-76.546
-73.215
-69.895
-66.577
-63.246
-59.882
-56.466
-52.98
-49.406
-45.726
-41.923
-37.984
-33.897
-29.657
-25.259
-20.702
-15.983
-11.098
-6.044
-0.819
4.579
10.147
15.883
21.784
27.844
34.051
40.395
46.861
53.434
60.095
66.827
73.608
80.416
87.228
94.019
100.765
107.437
114.01
120.454
126.742
132.846
138.739
144.391
149.778
154.872
159.65
164.088
168.165
171.861
175.156
178.035
180.483
182.486
184.035
185.119
185.733
185.873
185.537
184.727
183.446
181.701
179.499
176.851
173.772
170.275
166.379
162.101
157.464
152.49
147.202
141.628
135.793
129.725
123.454
117.007
110.416
103.709
96.916
90.066
83.188
76.311
69.462
62.669
55.958
49.354
42.882
36.564
30.422
24.477
18.747
13.25
8.002
3.016
-1.693
-6.117
-10.244
-14.067
-17.58
-20.778
-23.659
-26.222
-28.468
-30.398
-32.016
-33.328
-34.34
-35.059
-35.494
-35.654
-35.549
-35.19
-34.588
-33.755
-32.703
-31.445
-29.994
-28.363
-26.565
-24.612
-22.519
-20.296
-17.958
-15.516
-12.983
-10.372
-7.694
-4.963
-2.19
0.613
3.434
6.263
9.089
11.904
14.698
17.465
20.197
22.889
25.534
28.128
30.667
33.146
35.56
37.908
40.188
42.396
44.533
46.596
48.587
50.504
52.348
54.12
55.821
57.45
59.008
60.499
61.924
63.287
64.593
65.848
67.059
68.236
69.386
70.518
71.64
72.759
73.881
75.014
76.161
77.326
78.513
79.727
80.976
82.268
83.612
85.013
86.48
88.02
89.639
91.342
93.127
94.987
96.921
98.926
101.004
103.16
105.391
107.684
110.028
112.413
114.816
117.213
119.565
121.818
123.934
125.891
127.676
129.292
130.738
132.007
133.103
134.041
134.834
135.508
136.068
136.506
136.838
137.096
137.335
137.64
138.059
138.603
139.277
140.079
141.005
142.049
143.166
144.264
145.258
146.07
146.666
147.049
147.19
147.023
146.433
145.315
143.653
141.43
138.566
134.875
130.075
123.961
116.501
107.654
97.316
