Name
Date of Birth,"Mar 27, 1959"
Recorded Date,2019-05-01 03:37:39 -0500
Classification,Atrial Fibrillation
Symptoms,
Software Version,1.2
Device,"Watch4,2"
Sample Rate,510.227 hertz


Lead,Lead I
Unit,µV

7.067
5.354
2.96
-0.143
-3.952
-8.414
-13.437
-18.939
-24.825
-30.98
-37.312
-43.741
-50.189
-56.604
-62.932
-69.107
-75.058
-80.702
-85.97
-90.823
-95.243
-99.231
-102.815
-106.028
-108.919
-111.561
-114.006
-116.291
-118.443
-120.466
-122.368
-124.164
-125.871
-127.506
-129.089
-130.63
-132.137
-133.619
-135.072
-136.486
-137.843
-139.111
-140.269
-141.306
-142.217
-143.005
-143.676
-144.233
-144.682
-145.036
-145.301
-145.484
-145.588
-145.614
-145.564
-145.445
-145.264
-145.03
-144.752
-144.435
-144.082
-143.698
-143.284
-142.842
-142.37
-141.864
-141.322
-140.742
-140.123
-139.464
-138.765
-138.024
-137.24
-136.414
-135.544
-134.628
-133.666
-132.655
-131.592
-130.476
-129.305
-128.077
-126.793
-125.45
-124.049
-122.59
-121.074
-119.504
-117.881
-116.207
-114.486
-112.72
-110.916
-109.076
-107.207
-105.315
-103.406
-101.487
-99.567
-97.652
-95.75
-93.87
-92.019
-90.205
-88.435
-86.715
-85.054
-83.459
-81.935
-80.489
-79.129
-77.859
-76.686
-75.613
-74.647
-73.791
-73.047
-72.42
-71.91
-71.518
-71.246
-71.093
-71.058
-71.139
-71.333
-71.638
-72.049
-72.562
-73.17
-73.868
-74.647
-75.502
-76.423
-77.403
-78.432
-79.502
-80.603
-81.727
-82.863
-84.004
-85.139
-86.261
-87.359
-88.425
-89.451
-90.429
-91.351
-92.21
-93
-93.714
-94.347
-94.893
-95.349
-95.71
-95.974
-96.138
-96.2
-96.159
-96.014
-95.766
-95.415
-94.963
-94.413
-93.767
-93.03
-92.206
-91.299
-90.316
-89.262
-88.144
-86.968
-85.74
-84.468
-83.158
-81.817
-80.452
-79.07
-77.678
-76.283
-74.89
-73.505
-72.135
-70.783
-69.455
-68.155
-66.887
-65.654
-64.46
-63.307
-62.198
-61.135
-60.12
-59.152
-58.234
-57.365
-56.545
-55.775
-55.053
-54.379
-53.75
-53.166
-52.626
-52.126
-51.667
-51.247
-50.864
-50.521
-50.217
-49.955
-49.735
-49.558
-49.425
-49.337
-49.296
-49.3
-49.348
-49.44
-49.575
-49.759
-50.002
-50.304
-50.671
-51.106
-51.603
-52.167
-52.798
-53.489
-54.241
-55.055
-55.926
-56.868
-57.887
-58.985
-60.163
-61.392
-62.629
-63.843
-64.993
-66.034
-66.934
-67.645
-68.118
-68.333
-68.253
-67.836
-67.059
-65.869
-64.224
-62.106
-59.52
-56.526
-53.234
-49.748
-46.173
-42.61
-39.159
-35.97
-33.209
-30.996
-29.477
-28.744
-28.916
-30.241
-32.781
-36.396
-40.77
-45.235
-49.131
-52.066
-53.457
-52.552
-49.202
-43.564
-36.35
-29.252
-23.472
-19.518
-18.244
-20.313
-25.237
-31.893
-37.796
-38.797
-31.759
-14.193
17.008
64.423
129.634
211.604
305.55
405.439
505.531
604.429
704.798
803.957
896.773
971.643
1007.575
994.117
926.578
806.886
655.721
491.648
334.25
207.141
117.203
65.307
45.075
37.63
32.963
27.539
21.125
21.085
28.933
40.408
51.823
58.481
58.505
53.385
44.695
33.97
23.155
14.045
7.608
4.281
3.903
5.688
8.932
13.082
17.312
20.774
23.026
23.864
23.371
21.886
19.634
16.774
13.51
10.022
6.455
2.935
-0.456
-3.653
-6.557
-9.065
-11.078
-12.528
-13.413
-13.758
-13.626
-13.116
-12.314
-11.291
-10.106
-8.777
-7.3
-5.696
-3.984
-2.197
-0.381
1.427
3.188
4.864
6.443
7.932
9.356
10.775
12.237
13.77
15.388
17.078
18.805
20.549
22.293
24.02
25.726
27.409
29.067
30.717
32.369
34.027
35.688
37.338
38.963
40.564
42.15
43.74
45.366
47.049
48.813
50.682
52.669
54.79
57.055
59.467
62.03
64.746
67.612
70.631
73.801
77.109
80.538
84.06
87.64
91.253
94.879
98.5
102.112
105.707
109.28
112.829
116.344
119.818
123.244
126.61
129.905
133.134
136.306
139.446
142.59
145.75
148.923
152.095
155.228
158.28
161.201
163.921
166.388
168.555
170.377
171.828
172.883
173.497
173.624
173.201
172.151
170.432
168.018
164.896
161.087
156.627
151.568
145.997
139.992
133.61
126.913
119.94
112.73
105.345
97.844
90.295
82.784
75.375
68.124
61.084
54.281
47.722
41.407
35.303
29.389
23.668
18.139
12.805
7.677
2.746
-1.992
-6.535
-10.899
-15.103
-19.155
-23.065
-26.817
-30.379
-33.72
-36.81
-39.626
-42.173
-44.443
-46.423
-48.107
-49.482
-50.541
-51.287
-51.706
-51.766
-51.46
-50.798
-49.82
-48.601
-47.197
-45.648
-43.989
-42.238
-40.425
-38.597
-36.789
-35.032
-33.363
-31.813
-30.438
-29.317
-28.493
-27.98
-27.758
-27.766
-27.965
-28.336
-28.859
-29.522
-30.305
-31.178
-32.124
-33.141
-34.211
-35.31
-36.394
-37.396
-38.277
-39.027
-39.653
-40.196
-40.679
-41.108
-41.497
-41.856
-42.194
-42.521
-42.833
-43.111
-43.349
-43.55
-43.725
-43.901
-44.091
-44.294
-44.502
-44.698
-44.871
-45.016
-45.125
-45.189
-45.204
-45.169
-45.091
-44.988
-44.87
-44.746
-44.619
-44.493
-44.372
-44.264
-44.178
-44.122
-44.104
-44.132
-44.215
-44.363
-44.582
-44.878
-45.254
-45.708
-46.241
-46.853
-47.544
-48.313
-49.157
-50.073
-51.059
-52.112
-53.228
-54.402
-55.626
-56.893
-58.195
-59.524
-60.871
-62.227
-63.581
-64.924
-66.247
-67.54
-68.794
-69.999
-71.146
-72.227
-73.234
-74.16
-74.998
-75.741
-76.386
-76.929
-77.37
-77.709
-77.946
-78.085
-78.13
-78.085
-77.957
-77.75
-77.469
-77.121
-76.712
-76.249
-75.743
-75.203
-74.641
-74.069
-73.497
-72.937
-72.399
-71.887
-71.407
-70.962
-70.558
-70.207
-69.922
-69.716
-69.603
-69.592
-69.688
-69.89
-70.184
-70.543
-70.939
-71.336
-71.701
-72.009
-72.232
-72.34
-72.304
-72.076
-71.603
-70.838
-69.732
-68.245
-66.349
-64.044
-61.372
-58.413
-55.264
-52.021
-48.763
-45.577
-42.579
-39.889
-37.639
-35.981
-35.026
-34.936
-35.945
-38.107
-41.3
-45.227
-49.297
-52.944
-55.823
-57.409
-57.035
-54.566
-50.214
-44.691
-39.432
-35.39
-32.778
-32.026
-33.614
-37.094
-41.416
-44.459
-42.766
-33.679
-15.683
12.912
53.969
108.574
177.054
258.366
347.658
438.573
526.798
607.493
680.547
751.237
817.541
874.941
912.736
909.298
855.615
751.201
601.408
430.105
257.288
99.623
-21.091
-97.93
-132.272
-129.636
-108.264
-84.824
-66.789
-58.978
-59.999
-62.797
-65.573
-67.47
-67.074
-68.507
-73.172
-80.051
-89.077
-97.007
-101.583
-102.963
-101.176
-97.115
-91.898
-85.975
-79.948
-74.598
-70.292
-67.13
-65.057
-63.84
-63.298
-63.353
-63.92
-64.894
-66.225
-67.878
-69.825
-72.049
-74.502
-77.12
-79.847
-82.646
-85.495
-88.381
-91.299
-94.246
-97.203
-100.135
-102.974
-105.616
-107.964
-109.95
-111.528
-112.678
-113.389
-113.651
-113.465
-112.84
-111.789
-110.325
-108.453
-106.177
-103.518
-100.514
-97.227
-93.742
-90.137
-86.463
-82.764
-79.064
-75.385
-71.743
-68.143
-64.573
-61.022
-57.482
-53.948
-50.421
-46.892
-43.346
-39.757
-36.095
-32.337
-28.471
-24.488
-20.386
-16.165
-11.83
-7.391
-2.869
1.719
6.357
11.032
15.731
20.439
25.138
29.809
34.432
38.988
43.46
47.828
52.076
56.185
60.138
63.921
67.52
70.92
74.106
77.062
79.774
82.228
84.41
86.31
87.915
89.217
90.207
90.88
91.231
91.257
90.956
90.328
89.373
88.095
86.496
84.581
82.358
79.833
77.015
73.914
70.541
66.909
63.03
58.919
54.59
50.06
45.345
40.462
35.429
30.265
24.987
19.615
14.168
8.664
3.123
-2.437
-7.998
-13.542
-19.051
-24.51
-29.902
-35.212
-40.426
-45.529
-50.509
-55.353
-60.05
-64.588
-68.959
-73.153
-77.162
-80.98
-84.601
-88.02
-91.232
-94.236
-97.027
-99.606
-101.972
-104.124
-106.064
-107.794
-109.318
-110.637
-111.756
-112.681
-113.416
-113.967
-114.339
-114.539
-114.575
-114.452
-114.177
-113.76
-113.207
-112.526
-111.726
-110.816
-109.803
-108.697
-107.505
-106.236
-104.897
-103.498
-102.047
-100.55
-99.016
-97.453
-95.868
-94.269
-92.663
-91.057
-89.459
-87.875
-86.311
-84.774
-83.27
-81.803
-80.381
-79.007
-77.688
-76.427
-75.228
-74.096
-73.033
-72.043
-71.128
-70.29
-69.531
-68.853
-68.256
-67.741
-67.309
-66.961
-66.696
-66.514
-66.415
-66.399
-66.464
-66.608
-66.831
-67.129
-67.501
-67.943
-68.452
-69.025
-69.657
-70.344
-71.081
-71.865
-72.688
-73.547
-74.437
-75.351
-76.285
-77.233
-78.191
-79.154
-80.116
-81.073
-82.02
-82.952
-83.865
-84.752
-85.611
-86.435
-87.221
-87.962
-88.655
-89.294
-89.875
-90.394
-90.846
-91.226
-91.532
-91.761
-91.909
-91.975
-91.958
-91.856
-91.67
-91.401
-91.05
-90.618
-90.107
-89.521
-88.862
-88.133
-87.339
-86.484
-85.573
-84.614
-83.614
-82.582
-81.527
-80.459
-79.39
-78.33
-77.29
-76.28
-75.31
-74.389
-73.527
-72.735
-72.026
-71.412
-70.905
-70.515
-70.25
-70.12
-70.131
-70.282
-70.574
-71.005
-71.575
-72.295
-73.174
-74.219
-75.434
-76.82
-78.37
-80.071
-81.902
-83.824
-85.798
-87.78
-89.729
-91.613
-93.395
-95.039
-96.5
-97.711
-98.606
-99.133
-99.239
-98.886
-98.058
-96.767
-95.057
-93.023
-90.754
-88.332
-85.855
-83.426
-81.175
-79.245
-77.765
-76.864
-76.708
-77.522
-79.433
-82.38
-86.085
-90.035
-93.694
-96.631
-98.356
-98.17
-95.582
-90.639
-83.959
-76.804
-70.457
-65.607
-62.786
-62.85
-66.282
-72.41
-79.251
-83.634
-82.108
-71.743
-49.832
-13.124
41.842
115.201
203.001
300.898
403.792
510.062
624.366
746.025
866.505
972.504
1042.069
1056.258
1011.278
910.75
766.302
598.915
424.776
261.164
129.688
39.727
-6.327
-16.233
-11.073
-4.004
-1.294
-3.025
-1.139
5.541
13.818
20.82
21.794
15.915
5.731
-7.068
-20.191
-30.999
-38.514
-42.31
-42.204
-39.057
-33.871
-27.351
-20.478
-14.337
-9.476
-6.191
-4.582
-4.364
-5.316
-7.295
-10.036
-13.295
-16.88
-20.599
-24.322
-27.959
-31.371
-34.404
-36.92
-38.783
-39.927
-40.327
-39.978
-38.905
-37.144
-34.742
-31.771
-28.301
-24.404
-20.152
-15.615
-10.863
-5.973
-1.02
3.925
8.794
13.543
18.145
22.584
26.854
30.957
34.895
38.679
42.322
45.834
49.222
52.494
55.653
58.707
61.665
64.537
67.336
70.07
72.75
75.385
77.983
80.553
83.105
85.644
88.177
90.71
93.246
95.793
98.361
100.958
103.599
106.29
109.036
111.84
114.699
117.605
120.546
123.499
126.438
129.347
132.213
135.028
137.796
140.517
143.19
145.82
148.399
150.921
153.385
155.781
158.105
160.364
162.572
164.761
166.972
169.22
171.511
173.835
176.158
178.445
180.649
182.705
184.565
186.186
187.528
188.565
189.274
189.61
189.53
188.97
187.854
186.137
183.79
180.801
177.188
172.987
168.247
163.056
157.485
151.593
145.434
139.048
132.467
125.744
118.932
112.091
105.301
98.621
92.1
85.783
79.689
73.824
68.179
62.718
57.411
52.244
47.21
42.313
37.563
32.962
28.514
24.225
20.087
16.097
12.254
8.553
4.997
1.6
-1.621
-4.639
-7.429
-9.974
-12.265
-14.297
-16.074
-17.597
-18.872
-19.911
-20.723
-21.318
-21.702
-21.884
-21.872
-21.679
-21.32
-20.813
-20.176
-19.426
-18.58
-17.655
-16.667
-15.631
-14.562
-13.47
-12.37
-11.274
-10.196
-9.148
-8.145
-7.198
-6.319
-5.52
-4.809
-4.197
-3.691
-3.296
-3.019
-2.864
-2.835
-2.933
-3.16
-3.517
-4.003
-4.617
-5.357
-6.219
-7.199
-8.291
-9.491
-10.79
-12.18
-13.652
-15.198
-16.807
-18.467
-20.169
-21.901
-23.651
-25.408
-27.161
-28.897
-30.605
-32.275
-33.895
-35.454
-36.943
-38.352
-39.673
-40.897
-42.018
-43.029
-43.924
-44.698
-45.348
-45.87
-46.261
-46.521
-46.647
-46.641
-46.503
-46.236
-45.842
-45.326
-44.693
-43.949
-43.101
-42.157
-41.124
-40.011
-38.829
-37.586
-36.292
-34.958
-33.595
-32.211
-30.82
-29.429
-28.051
-26.695
-25.371
-24.089
-22.857
-21.684
-20.578
-19.546
-18.595
-17.732
-16.963
-16.292
-15.723
-15.261
-14.908
-14.667
-14.537
-14.52
-14.614
-14.819
-15.13
-15.546
-16.062
-16.674
-17.377
-18.165
-19.032
-19.971
-20.976
-22.039
-23.153
-24.31
-25.502
-26.721
-27.958
-29.207
-30.459
-31.706
-32.942
-34.158
-35.349
-36.507
-37.627
-38.702
-39.728
-40.698
-41.61
-42.46
-43.244
-43.96
-44.607
-45.183
-45.689
-46.124
-46.49
-46.788
-47.019
-47.186
-47.291
-47.338
-47.329
-47.269
-47.162
-47.013
-46.825
-46.603
-46.354
-46.08
-45.789
-45.483
-45.169
-44.851
-44.534
-44.222
-43.919
-43.629
-43.357
-43.105
-42.876
-42.673
-42.498
-42.351
-42.234
-42.147
-42.09
-42.062
-42.064
-42.092
-42.146
-42.224
-42.324
-42.442
-42.576
-42.724
-42.882
-43.046
-43.214
-43.381
-43.544
-43.7
-43.845
-43.975
-44.086
-44.176
-44.241
-44.277
-44.283
-44.256
-44.193
-44.092
-43.952
-43.771
-43.55
-43.288
-42.985
-42.641
-42.259
-41.84
-41.386
-40.899
-40.382
-39.838
-39.269
-38.681
-38.075
-37.457
-36.828
-36.194
-35.559
-34.925
-34.298
-33.681
-33.078
-32.493
-31.929
-31.391
-30.882
-30.406
-29.965
-29.563
-29.203
-28.886
-28.615
-28.393
-28.219
-28.096
-28.024
-28.002
-28.032
-28.111
-28.24
-28.416
-28.638
-28.904
-29.212
-29.559
-29.943
-30.362
-30.812
-31.292
-31.799
-32.33
-32.882
-33.452
-34.039
-34.639
-35.249
-35.866
-36.488
-37.113
-37.736
-38.357
-38.971
-39.578
-40.173
-40.756
-41.323
-41.874
-42.406
-42.917
-43.408
-43.875
-44.32
-44.741
-45.137
-45.51
-45.858
-46.181
-46.48
-46.753
-47.002
-47.224
-47.421
-47.591
-47.735
-47.851
-47.94
-48
-48.033
-48.036
-48.011
-47.958
-47.875
-47.763
-47.621
-47.452
-47.254
-47.028
-46.774
-46.494
-46.189
-45.859
-45.504
-45.127
-44.727
-44.307
-43.866
-43.406
-42.928
-42.433
-41.924
-41.401
-40.868
-40.326
-39.778
-39.226
-38.674
-38.125
-37.581
-37.046
-36.523
-36.015
-35.527
-35.06
-34.619
-34.207
-33.828
-33.485
-33.181
-32.919
-32.703
-32.535
-32.418
-32.354
-32.345
-32.393
-32.499
-32.665
-32.891
-33.18
-33.53
-33.943
-34.417
-34.952
-35.547
-36.2
-36.91
-37.674
-38.489
-39.353
-40.261
-41.21
-42.197
-43.216
-44.263
-45.333
-46.421
-47.521
-48.626
-49.731
-50.828
-51.908
-52.966
-53.991
-54.978
-55.918
-56.805
-57.632
-58.393
-59.084
-59.701
-60.241
-60.7
-61.075
-61.365
-61.567
-61.679
-61.698
-61.623
-61.457
-61.199
-60.852
-60.421
-59.911
-59.328
-58.676
-57.956
-57.172
-56.33
-55.44
-54.514
-53.567
-52.619
-51.695
-50.825
-50.037
-49.359
-48.814
-48.418
-48.18
-48.105
-48.197
-48.465
-48.917
-49.55
-50.353
-51.302
-52.37
-53.522
-54.704
-55.839
-56.843
-57.63
-58.121
-58.255
-57.986
-57.28
-56.106
-54.434
-52.235
-49.502
-46.254
-42.529
-38.375
-33.864
-29.113
-24.28
-19.569
-15.174
-11.258
-7.993
-5.545
-4.076
-3.754
-4.716
-7.052
-10.881
-16.353
-23.469
-32.049
-41.683
-51.705
-61.456
-70.407
-77.936
-83.234
-85.75
-85.482
-83.052
-79.701
-76.599
-74.31
-73.293
-74.408
-78.119
-83.714
-89.167
-91.298
-86.776
-72.931
-47.262
-6.541
52.576
130.209
222.414
324.46
431.002
540.224
656.464
779.033
899.471
1004.291
1071.598
1082.8
1033.99
929.297
780.572
607.022
424.187
248.193
99.35
-7.936
-65.702
-77.261
-57.94
-25.419
3.491
21.782
29.047
26.031
19.456
12.001
4.016
-1.965
-8.73
-17.549
-26.732
-35.823
-42.389
-44.686
-43.207
-38.468
-31.472
-23.344
-14.896
-7.029
-0.366
4.824
8.514
10.881
12.043
12.09
11.198
9.556
7.345
4.7
1.662
-1.754
-5.458
-9.32
-13.197
-16.948
-20.489
-23.767
-26.714
-29.264
-31.37
-33.025
-34.251
-35.091
-35.57
-35.698
-35.469
-34.895
-34.015
-32.876
-31.533
-30.032
-28.413
-26.715
-24.997
-23.319
-21.724
-20.231
-18.839
-17.541
-16.337
-15.239
-14.256
-13.384
-12.611
-11.923
-11.308
-10.753
-10.242
-9.747
-9.229
-8.645
-7.961
-7.155
-6.209
-5.106
-3.831
-2.366
-0.698
1.178
3.269
5.582
8.125
10.907
13.932
17.195
20.691
24.411
28.346
32.486
36.82
41.337
46.02
50.857
55.832
60.931
66.136
71.426
76.779
82.17
87.575
92.969
98.325
103.615
108.811
113.886
118.814
123.566
128.118
132.441
136.511
140.303
143.793
146.958
149.778
152.233
154.305
155.979
157.243
158.084
158.493
158.464
157.993
157.076
155.715
153.909
151.665
148.987
145.884
142.368
138.452
134.149
129.478
124.457
119.108
113.451
107.512
101.316
94.888
88.258
81.452
74.5
67.432
60.279
53.071
45.837
38.609
31.415
24.285
17.245
10.324
3.546
-3.064
-9.483
-15.691
-21.666
-27.391
-32.851
-38.029
-42.914
-47.495
-51.763
-55.712
-59.336
-62.633
-65.602
-68.244
-70.562
-72.562
-74.249
-75.633
-76.725
-77.535
-78.078
-78.368
-78.42
-78.253
-77.882
-77.327
-76.605
-75.736
-74.739
-73.631
-72.432
-71.16
-69.832
-68.466
-67.078
-65.684
-64.299
-62.938
-61.613
-60.338
-59.124
-57.981
-56.919
-55.945
-55.068
-54.294
-53.626
-53.069
-52.624
-52.293
-52.076
-51.972
-51.977
-52.09
-52.306
-52.621
-53.028
-53.522
-54.097
-54.745
-55.46
-56.235
-57.063
-57.936
-58.848
-59.793
-60.764
-61.756
-62.761
-63.774
-64.791
-65.805
-66.811
-67.806
-68.784
-69.741
-70.674
-71.58
-72.455
-73.298
-74.106
-74.877
-75.612
-76.308
-76.966
-77.584
-78.164
-78.704
-79.207
-79.672
-80.101
-80.494
-80.852
-81.177
-81.468
-81.725
-81.95
-82.141
-82.298
-82.42
-82.508
-82.56
-82.577
-82.558
-82.502
-82.41
-82.283
-82.119
-81.92
-81.686
-81.419
-81.119
-80.788
-80.429
-80.045
-79.64
-79.217
-78.783
-78.343
-77.902
-77.468
-77.047
-76.649
-76.279
-75.946
-75.657
-75.418
-75.239
-75.126
-75.088
-75.132
-75.267
-75.503
-75.848
-76.312
-76.9
-77.614
-78.455
-79.423
-80.521
-81.751
-83.118
-84.62
-86.258
-88.032
-89.939
-91.972
-94.112
-96.323
-98.566
-100.8
-102.987
-105.095
-107.09
-108.935
-110.59
-112.018
-113.174
-114.02
-114.523
-114.637
-114.337
-113.613
-112.486
-111.042
-109.374
-107.578
-105.746
-103.935
-102.216
-100.701
-99.486
-98.67
-98.381
-98.678
-99.677
-101.615
-104.516
-108.218
-112.389
-116.306
-119.253
-120.766
-120.138
-116.532
-109.791
-100.168
-88.487
-76.645
-66.189
-58.035
-53.615
-54.149
-59.304
-67.789
-77.082
-82.808
-80.89
-67.894
-39.371
9.091
77.613
162.779
260.966
366.047
477.014
598.943
727.666
852.991
957.978
1016.87
1016.183
956.584
846.954
705.353
547.592
384.505
229.34
97.784
1.985
-51.553
-68.512
-66.739
-59.829
-55.125
-52.815
-45.476
-31.964
-16.226
-2.075
5.548
5.554
0.23
-8.801
-19.746
-30.367
-39.043
-44.776
-47.127
-46.584
-44.096
-40.388
-36.112
-32.057
-28.907
-27.053
-26.64
-27.528
-29.436
-32.163
-35.535
-39.351
-43.402
-47.506
-51.531
-55.378
-58.976
-62.239
-65.07
-67.423
-69.312
-70.769
-71.822
-72.491
-72.765
-72.631
-72.114
-71.237
-70.03
-68.532
-66.769
-64.78
-62.62
-60.335
-57.962
-55.51
-52.952
-50.257
-47.416
-44.427
-41.313
-38.106
-34.821
-31.47
-28.071
-24.633
-21.164
-17.668
-14.129
-10.533
-6.874
-3.156
0.603
4.387
8.192
12.018
15.877
19.784
23.75
27.785
31.902
36.112
40.416
44.817
49.307
53.873
58.507
63.202
67.954
72.757
77.602
82.476
87.368
92.26
97.138
101.982
106.772
111.489
116.113
120.624
125.005
129.239
133.307
137.192
140.875
144.338
147.564
150.534
153.232
155.641
157.747
159.536
160.996
162.116
162.886
163.3
163.349
163.031
162.34
161.275
159.836
158.024
155.841
153.293
150.384
147.123
143.518
139.581
135.322
130.756
125.899
120.766
115.375
109.745
103.895
97.846
91.618
85.233
78.711
72.075
65.347
58.547
51.697
44.819
37.933
31.06
24.218
17.426
10.703
4.065
-2.47
-8.888
-15.173
-21.311
-27.289
-33.095
-38.718
-44.147
-49.373
-54.389
-59.187
-63.761
-68.108
-72.225
-76.11
-79.762
-83.181
-86.369
-89.326
-92.058
-94.566
-96.854
-98.929
-100.794
-102.455
-103.919
-105.192
-106.279
-107.189
-107.927
-108.501
-108.917
-109.184
-109.309
-109.299
-109.162
-108.906
-108.54
-108.071
-107.509
-106.862
-106.137
-105.343
-104.487
-103.578
-102.623
-101.628
-100.599
-99.545
-98.471
-97.383
-96.286
-95.187
-94.09
-93
-91.921
-90.858
-89.814
-88.793
-87.799
-86.835
-85.904
-85.009
-84.152
-83.336
-82.563
-81.832
-81.147
-80.505
-79.908
-79.354
-78.842
-78.372
-77.942
-77.548
-77.19
-76.867
-76.576
-76.317
-76.087
-75.884
-75.708
-75.558
-75.433
-75.333
-75.257
-75.205
-75.181
-75.187
-75.226
-75.302
-75.417
-75.574
-75.773
-76.018
-76.312
-76.652
-77.038
-77.468
-77.946
-78.485
-79.091
-79.77
-80.526
-81.359
-82.271
-83.27
-84.354
-85.524
-86.777
-88.108
-89.523
-91.033
-92.64
-94.34
-96.111
-97.899
-99.658
-101.345
-102.909
-104.302
-105.47
-106.344
-106.882
-107.055
-106.825
-106.165
-105.036
-103.392
-101.222
-98.552
-95.449
-92.037
-88.436
-84.74
-81.087
-77.633
-74.557
-72.07
-70.319
-69.365
-69.327
-70.404
-72.705
-76.221
-80.683
-85.481
-90.056
-94.036
-96.938
-98.107
-97.07
-93.671
-88.403
-82.713
-77.847
-74.224
-72.501
-73.625
-77.803
-84.762
-91.813
-92.953
-84.885
-66.651
-38.614
-4.552
38.736
98.267
176.782
278.888
399.241
526.321
657.822
785.875
902.641
1002.414
1063.21
1066.464
1005.129
876.059
697.076
497.328
301.949
139.534
28.439
-31.081
-46.211
-35.927
-21.91
-13.347
-12.767
-15.794
-14.844
-9.884
-3.915
-0.069
-2.006
-9.569
-20.349
-32.542
-43.82
-52.179
-57.054
-58.325
-56.267
-51.803
-45.83
-39.077
-32.469
-26.882
-22.753
-20.276
-19.419
-19.921
-21.58
-24.236
-27.662
-31.624
-35.922
-40.378
-44.855
-49.241
-53.394
-57.157
-60.386
-62.975
-64.875
-66.071
-66.574
-66.408
-65.604
-64.216
-62.31
-59.95
-57.207
-54.145
-50.828
-47.324
-43.707
-40.047
-36.409
-32.841
-29.37
-26.009
-22.761
-19.622
-16.586
-13.639
-10.759
-7.933
-5.147
-2.39
0.348
3.078
5.815
8.572
11.361
14.194
17.077
20.017
23.018
26.083
29.214
32.412
35.675
39.004
42.4
45.862
49.393
52.991
56.655
60.381
64.165
68.003
71.886
75.806
79.752
83.711
87.672
91.62
95.54
99.416
103.232
106.97
110.614
114.145
117.545
120.797
123.884
126.789
129.495
131.987
134.249
136.268
138.03
139.523
140.736
141.658
142.281
142.597
142.599
142.284
141.647
140.686
139.401
137.794
135.867
133.626
131.077
128.228
125.089
121.673
117.991
114.059
109.892
105.506
100.919
96.148
91.213
86.131
80.922
75.604
70.198
64.721
59.193
53.632
48.056
42.483
36.929
31.411
25.945
20.545
15.226
10
4.881
-0.121
-4.996
-9.733
-14.326
-18.766
-23.049
-27.17
-31.127
-34.916
-38.537
-41.992
-45.282
-48.408
-51.374
-54.185
-56.843
-59.355
-61.725
-63.959
-66.062
-68.04
-69.9
-71.647
-73.287
-74.826
-76.271
-77.625
-78.896
-80.086
-81.201
-82.244
-83.22
-84.131
-84.981
-85.772
-86.507
-87.188
-87.814
-88.389
-88.91
-89.378
-89.792
-90.151
-90.451
-90.692
-90.872
-90.988
-91.039
-91.022
-90.936
-90.78
-90.55
-90.248
-89.87
-89.416
-88.887
-88.281
-87.601
-86.847
-86.022
-85.129
-84.171
-83.154
-82.08
-80.956
-79.787
-78.579
-77.337
-76.069
-74.781
-73.481
-72.179
-70.882
-69.601
-68.344
-67.121
-65.943
-64.817
-63.754
-62.762
-61.85
-61.025
-60.296
-59.67
-59.155
-58.758
-58.485
-58.342
-58.333
-58.462
-58.729
-59.137
-59.684
-60.369
-61.186
-62.134
-63.209
-64.404
-65.715
-67.135
-68.657
-70.277
-71.985
-73.773
-75.628
-77.54
-79.494
-81.476
-83.471
-85.463
-87.439
-89.382
-91.279
-93.118
-94.889
-96.58
-98.177
-99.666
-101.03
-102.257
-103.34
-104.271
-105.049
-105.678
-106.166
-106.533
-106.801
-106.984
-107.092
-107.13
-107.091
-106.974
-106.776
-106.491
-106.125
-105.678
-105.152
-104.554
-103.889
-103.15
-102.326
-101.387
-100.291
-99.018
-97.563
-95.93
-94.153
-92.268
-90.322
-88.38
-86.491
-84.704
-83.059
-81.579
-80.271
-79.146
-78.213
-77.501
-77.053
-76.889
-77.007
-77.391
-77.988
-78.735
-79.55
-80.327
-80.97
-81.389
-81.518
-81.327
-80.832
-80.097
-79.195
-78.19
-77.126
-76.029
-74.963
-74.036
-73.363
-73.082
-73.342
-74.238
-75.943
-78.716
-82.59
-87.419
-92.816
-97.992
-102.236
-105.076
-105.828
-103.769
-98.751
-90.92
-81.143
-71.298
-62.827
-56.654
-53.936
-55.332
-60.261
-67.552
-74.601
-76.873
-70.284
-51.273
-15.54
39.03
110.782
197.471
295.075
400.369
516.162
643.226
775.136
897.665
987.271
1022.791
996.146
913.579
791.671
646.824
491.986
336.192
189.702
69.765
-11.423
-49.74
-52.025
-38.017
-22.24
-11.753
-7.286
-2.232
5.015
12.143
16.924
15.694
8.094
-3.459
-17.069
-30.271
-40.815
-47.976
-51.529
-51.655
-49.211
-45.073
-39.966
-34.795
-30.454
-27.394
-25.802
-25.66
-26.704
-28.733
-31.608
-35.122
-39.064
-43.265
-47.57
-51.864
-56.074
-60.09
-63.788
-67.05
-69.764
-71.872
-73.358
-74.226
-74.499
-74.209
-73.393
-72.105
-70.406
-68.362
-66.035
-63.485
-60.77
-57.949
-55.083
-52.232
-49.449
-46.766
-44.201
-41.759
-39.439
-37.235
-35.139
-33.137
-31.209
-29.34
-27.515
-25.723
-23.952
-22.187
-20.413
-18.613
-16.77
-14.873
-12.908
-10.866
-8.736
-6.51
-4.18
-1.74
0.815
3.493
6.299
9.24
12.321
15.548
18.924
22.449
26.124
29.947
33.913
38.015
42.245
46.592
51.043
55.585
60.205
64.886
69.612
74.367
79.134
83.893
88.625
93.309
97.925
102.447
106.853
111.116
115.212
119.119
122.812
126.272
129.477
132.407
135.044
137.373
139.374
141.03
142.317
143.219
143.725
143.83
143.535
142.849
141.779
140.335
138.534
136.389
133.908
131.093
127.936
124.426
120.567
116.367
111.85
107.038
101.942
96.568
90.924
85.005
78.811
72.339
65.568
58.493
51.134
43.526
35.736
27.843
19.905
11.972
4.081
-3.735
-11.431
-18.959
-26.279
-33.34
-40.089
-46.468
-52.391
-57.794
-62.649
-66.951
-70.734
-74.054
-76.948
-79.443
-81.567
-83.336
-84.777
-85.916
-86.766
-87.347
-87.69
-87.836
-87.853
-87.796
-87.693
-87.557
-87.373
-87.108
-86.748
-86.283
-85.7
-84.998
-84.179
-83.246
-82.219
-81.119
-79.958
-78.738
-77.452
-76.093
-74.668
-73.192
-71.689
-70.189
-68.718
-67.299
-65.957
-64.712
-63.578
-62.566
-61.676
-60.905
-60.255
-59.728
-59.328
-59.06
-58.925
-58.921
-59.045
-59.291
-59.655
-60.129
-60.704
-61.369
-62.118
-62.943
-63.835
-64.792
-65.804
-66.863
-67.963
-69.092
-70.242
-71.403
-72.562
-73.71
-74.835
-75.927
-76.975
-77.972
-78.909
-79.778
-80.572
-81.285
-81.912
-82.448
-82.888
-83.229
-83.467
-83.601
-83.628
-83.548
-83.36
-83.066
-82.668
-82.167
-81.568
-80.873
-80.088
-79.218
-78.268
-77.244
-76.153
-75.002
-73.8
-72.555
-71.277
-69.976
-68.663
-67.347
-66.039
-64.747
-63.481
-62.249
-61.057
-59.912
-58.821
-57.79
-56.826
-55.934
-55.12
-54.39
-53.749
-53.204
-52.758
-52.414
-52.173
-52.034
-51.999
-52.067
-52.236
-52.503
-52.866
-53.323
-53.875
-54.521
-55.26
-56.087
-56.993
-57.974
-59.03
-60.16
-61.365
-62.647
-64.005
-65.449
-66.995
-68.655
-70.442
-72.361
-74.403
-76.561
-78.829
-81.196
-83.653
-86.178
-88.736
-91.298
-93.845
-96.348
-98.784
-101.116
-103.28
-105.225
-106.898
-108.248
-109.247
-109.861
-110.061
-109.838
-109.188
-108.127
-106.696
-104.917
-102.793
-100.338
-97.562
-94.488
-91.184
-87.705
-84.128
-80.576
-77.158
-73.984
-71.157
-68.712
-66.686
-65.138
-64.103
-63.64
-63.861
-64.793
-66.526
-69.286
-73.03
-77.533
-82.385
-86.727
-89.738
-90.919
-89.552
-84.831
-76.765
-65.817
-53.042
-40.696
-30.578
-23.71
-21.576
-25.248
-34.001
-46.1
-58.526
-66.238
-64.698
-50.191
-18.071
35.808
111.52
205.723
314.183
430.035
549.532
674.434
800.506
918.07
1015.089
1072.145
1073.679
1017.821
907.209
751.689
572.173
386.231
213.585
77.859
-12.525
-57.614
-66.242
-59.097
-48.405
-39.203
-32.175
-21.718
-7.844
5.681
15.778
18.521
13.46
3.098
-10.434
-24.353
-35.914
-44.003
-48.164
-48.398
-45.501
-40.339
-33.637
-26.415
-19.767
-14.262
-10.169
-7.499
-5.956
-5.341
-5.532
-6.336
-7.57
-9.088
-10.75
-12.473
-14.232
-15.974
-17.653
-19.214
-20.582
-21.726
-22.634
-23.314
-23.799
-24.096
-24.204
-24.112
-23.792
-23.24
-22.479
-21.525
-20.392
-19.088
-17.595
-15.917
-14.076
-12.08
-9.935
-7.636
-5.166
-2.531
0.241
3.118
6.055
9.019
12
14.983
17.953
20.895
23.787
26.619
29.396
32.121
34.8
37.434
40.021
42.575
45.118
47.68
50.292
52.978
55.75
58.619
61.597
64.692
67.917
71.28
74.776
78.399
82.144
86.006
89.975
94.032
98.148
102.281
106.401
110.483
114.513
118.482
122.382
126.202
129.935
133.576
137.122
140.575
143.929
147.172
150.304
153.334
156.29
159.216
162.137
165.053
167.955
170.819
173.612
176.301
178.838
181.156
183.201
184.922
186.279
187.256
187.813
187.903
187.462
186.409
184.688
182.279
179.169
175.366
170.897
165.799
160.137
154.01
147.499
140.673
133.589
126.284
118.81
111.235
103.632
96.086
88.665
81.417
74.388
67.616
61.119
54.906
48.959
43.234
37.704
32.355
27.183
22.198
17.401
12.786
8.35
4.087
-0.006
-3.929
-7.682
-11.273
-14.696
-17.942
-20.992
-23.814
-26.39
-28.708
-30.764
-32.558
-34.094
-35.374
-36.406
-37.203
-37.777
-38.138
-38.296
-38.259
-38.037
-37.644
-37.098
-36.415
-35.612
-34.706
-33.71
-32.64
-31.508
-30.327
-29.108
-27.859
-26.589
-25.308
-24.026
-22.752
-21.497
-20.267
-19.07
-17.915
-16.807
-15.752
-14.755
-13.819
-12.947
-12.141
-11.402
-10.733
-10.133
-9.603
-9.142
-8.748
-8.422
-8.16
-7.96
-7.821
-7.739
-7.71
-7.731
-7.799
-7.909
-8.058
-8.242
-8.457
-8.7
-8.966
-9.253
-9.557
-9.875
-10.204
-10.541
-10.884
-11.23
-11.578
-11.927
-12.275
-12.622
-12.967
-13.311
-13.653
-13.994
-14.334
-14.675
-15.017
-15.361
-15.708
-16.061
-16.419
-16.785
-17.161
-17.548
-17.948
-18.362
-18.793
-19.242
-19.711
-20.201
-20.714
-21.25
-21.811
-22.398
-23.01
-23.647
-24.31
-24.998
-25.71
-26.445
-27.201
-27.976
-28.769
-29.577
-30.397
-31.228
-32.066
-32.908
-33.752
-34.595
-35.434
-36.267
-37.09
-37.901
-38.697
-39.476
-40.236
-40.973
-41.686
-42.373
-43.031
-43.658
-44.253
-44.813
-45.338
-45.825
-46.274
-46.685
-47.055
-47.386
-47.677
-47.928
-48.14
-48.313
-48.449
-48.547
-48.609
-48.637
-48.631
-48.593
-48.524
-48.425
-48.298
-48.142
-47.959
-47.75
-47.516
-47.256
-46.971
-46.661
-46.327
-45.97
-45.589
-45.186
-44.76
-44.314
-43.847
-43.361
-42.857
-42.336
-41.8
-41.25
-40.688
-40.114
-39.531
-38.941
-38.346
-37.747
-37.147
-36.548
-35.952
-35.361
-34.78
-34.209
-33.652
-33.112
-32.592
-32.097
-31.628
-31.191
-30.789
-30.425
-30.104
-29.828
-29.6
-29.424
-29.301
-29.232
-29.221
-29.266
-29.37
-29.53
-29.748
-30.021
-30.348
-30.726
-31.154
-31.627
-32.142
-32.695
-33.282
-33.898
-34.539
-35.199
-35.874
-36.558
-37.245
-37.93
-38.606
-39.269
-39.911
-40.526
-41.108
-41.652
-42.152
-42.601
-42.996
-43.332
-43.605
-43.812
-43.95
-44.019
-44.016
-43.941
-43.796
-43.58
-43.297
-42.948
-42.539
-42.072
-41.552
-40.985
-40.376
-39.731
-39.055
-38.356
-37.639
-36.91
-36.175
-35.443
-34.717
-34.007
-33.316
-32.653
-32.023
-31.432
-30.886
-30.39
-29.947
-29.563
-29.241
-28.983
-28.792
-28.669
-28.615
-28.629
-28.711
-28.859
-29.07
-29.34
-29.666
-30.043
-30.466
-30.929
-31.425
-31.95
-32.496
-33.057
-33.627
-34.199
-34.768
-35.327
-35.871
-36.393
-36.889
-37.352
-37.779
-38.163
-38.502
-38.791
-39.026
-39.205
-39.326
-39.387
-39.386
-39.323
-39.198
-39.012
-38.766
-38.462
-38.104
-37.694
-37.237
-36.739
-36.203
-35.637
-35.046
-34.436
-33.814
-33.186
-32.557
-31.936
-31.326
-30.735
-30.168
-29.631
-29.128
-28.665
-28.246
-27.875
-27.557
-27.294
-27.091
-26.949
-26.872
-26.86
-26.917
-27.042
-27.237
-27.501
-27.834
-28.235
-28.702
-29.233
-29.825
-30.474
-31.177
-31.929
-32.725
-33.561
-34.43
-35.329
-36.25
-37.189
-38.141
-39.099
-40.058
-41.013
-41.96
-42.892
-43.806
-44.696
-45.559
-46.391
-47.187
-47.945
-48.66
-49.33
-49.952
-50.523
-51.041
-51.503
-51.908
-52.254
-52.541
-52.768
-52.936
-53.045
-53.097
-53.092
-53.034
-52.923
-52.763
-52.557
-52.308
-52.019
-51.695
-51.34
-50.958
-50.552
-50.128
-49.689
-49.24
-48.784
-48.326
-47.868
-47.416
-46.973
-46.542
-46.128
-45.735
-45.365
-45.022
-44.71
-44.432
-44.189
-43.985
-43.821
-43.699
-43.62
-43.585
-43.594
-43.647
-43.745
-43.885
-44.068
-44.289
-44.548
-44.84
-45.163
-45.513
-45.885
-46.276
-46.682
-47.098
-47.521
-47.946
-48.368
-48.784
-49.19
-49.582
-49.955
-50.308
-50.635
-50.935
-51.206
-51.445
-51.651
-51.825
-51.967
-52.078
-52.161
-52.219
-52.255
-52.275
-52.282
-52.283
-52.28
-52.28
-52.287
-52.306
-52.344
-52.407
-52.505
-52.644
-52.832
-53.074
-53.375
-53.736
-54.158
-54.642
-55.186
-55.796
-56.477
-57.234
-58.076
-59.007
-60.029
-61.14
-62.323
-63.555
-64.809
-66.057
-67.27
-68.427
-69.5
-70.461
-71.283
-71.925
-72.347
-72.509
-72.36
-71.863
-70.99
-69.733
-68.134
-66.262
-64.194
-62.009
-59.765
-57.524
-55.391
-53.487
-51.936
-50.877
-50.401
-50.644
-51.85
-54.118
-57.374
-61.335
-65.363
-68.801
-71.214
-72.072
-70.733
-66.946
-60.828
-53.097
-45.428
-39.402
-36.015
-36.188
-40.619
-49.258
-61.224
-74.337
-84.638
-87.999
-81.016
-60.297
-22.836
33.464
109.648
203.192
307.488
415.867
521.238
620.694
716.54
805.435
882.407
936.402
946.304
902.272
800.909
645.763
460.943
268.292
89.598
-49.036
-140.779
-186.412
-194.11
-185.384
-172.081
-158.707
-146.18
-128.013
-103.55
-77.522
-53.892
-37.226
-28.787
-26.493
-28.398
-32.377
-36.232
-38.33
-37.743
-34.273
-28.384
-20.977
-12.869
-4.763
2.513
8.182
11.818
13.325
12.878
10.845
7.562
3.303
-1.609
-6.83
-12.073
-17.109
-21.766
-25.945
-29.56
-32.524
-34.774
-36.261
-36.946
-36.834
-35.957
-34.36
-32.116
-29.311
-26.046
-22.445
-18.635
-14.724
-10.81
-6.966
-3.241
0.319
3.682
6.828
9.733
12.39
14.798
16.962
18.895
20.615
22.148
23.533
24.811
26.014
27.173
28.308
29.435
30.569
31.721
32.897
34.104
35.351
36.646
38
39.423
40.927
42.522
44.216
46.018
47.937
49.984
52.167
54.495
56.976
59.616
62.421
65.398
68.549
71.881
75.398
79.101
82.988
87.049
91.272
95.636
100.118
104.689
109.321
113.989
118.672
123.358
128.04
132.715
137.379
142.022
146.622
151.16
155.62
159.987
164.253
168.418
172.493
176.492
180.439
184.344
188.201
191.989
195.663
199.171
202.449
205.445
208.122
210.447
212.392
213.931
215.035
215.669
215.789
215.343
214.269
212.522
210.078
206.938
203.133
198.718
193.766
188.343
182.505
176.303
169.779
162.974
155.928
148.686
141.297
133.822
126.338
118.911
111.596
104.428
97.422
90.574
83.863
77.273
70.793
64.417
58.152
52.005
45.988
40.112
34.393
28.835
23.431
18.176
13.067
8.107
3.307
-1.314
-5.731
-9.921
-13.867
-17.552
-20.969
-24.114
-26.99
-29.6
-31.956
-34.065
-35.933
-37.564
-38.963
-40.137
-41.096
-41.852
-42.416
-42.802
-43.024
-43.095
-43.028
-42.834
-42.522
-42.102
-41.58
-40.964
-40.262
-39.481
-38.63
-37.717
-36.75
-35.738
-34.689
-33.61
-32.508
-31.389
-30.259
-29.124
-27.989
-26.859
-25.738
-24.63
-23.539
-22.468
-21.421
-20.399
-19.405
-18.442
-17.511
-16.614
-15.752
-14.928
-14.142
-13.397
-12.693
-12.032
-11.415
-10.844
-10.319
-9.843
-9.416
-9.038
-8.712
-8.437
-8.213
-8.041
-7.921
-7.852
-7.834
-7.866
-7.947
-8.077
-8.254
-8.478
-8.746
-9.058
-9.413
-9.809
-10.244
-10.717
-11.226
-11.77
-12.347
-12.956
-13.595
-14.261
-14.955
-15.672
-16.413
-17.174
-17.953
-18.75
-19.56
-20.383
-21.216
-22.056
-22.901
-23.749
-24.599
-25.447
-26.294
-27.135
-27.971
-28.8
-29.62
-30.43
-31.228
-32.013
-32.785
-33.541
-34.28
-35.002
-35.704
-36.386
-37.046
-37.682
-38.293
-38.876
-39.429
-39.951
-40.44
-40.893
-41.31
-41.688
-42.026
-42.324
-42.579
-42.792
-42.961
-43.086
-43.166
-43.202
-43.193
-43.139
-43.041
-42.9
-42.715
-42.489
-42.222
-41.916
-41.572
-41.192
-40.777
-40.33
-39.855
-39.352
-38.827
-38.283
-37.724
-37.155
-36.58
-36.004
-35.434
-34.873
-34.328
-33.803
-33.303
-32.835
-32.402
-32.01
-31.664
-31.367
-31.123
-30.936
-30.81
-30.747
-30.749
-30.819
-30.957
-31.166
-31.445
-31.795
-32.217
-32.709
-33.27
-33.9
-34.595
-35.353
-36.171
-37.044
-37.967
-38.936
-39.945
-40.987
-42.056
-43.144
-44.245
-45.35
-46.453
-47.545
-48.618
-49.665
-50.678
-51.65
-52.573
-53.441
-54.247
-54.985
-55.649
-56.235
-56.738
-57.153
-57.476
-57.705
-57.837
-57.87
-57.803
-57.634
-57.363
-56.992
-56.522
-55.956
-55.296
-54.546
-53.711
-52.797
-51.809
-50.754
-49.639
-48.472
-47.261
-46.014
-44.739
-43.447
-42.145
-40.842
-39.549
-38.273
-37.023
-35.809
-34.638
-33.519
-32.458
-31.464
-30.544
-29.703
-28.948
-28.284
-27.716
-27.248
-26.884
-26.626
-26.476
-26.436
-26.505
-26.682
-26.967
-27.357
-27.849
-28.439
-29.122
-29.892
-30.745
-31.673
-32.67
-33.728
-34.84
-35.996
-37.189
-38.41
-39.65
-40.9
-42.151
-43.395
-44.623
-45.826
-46.995
-48.124
-49.203
-50.226
-51.185
-52.073
-52.885
-53.616
-54.259
-54.812
-55.27
-55.631
-55.893
-56.056
-56.119
-56.082
-55.947
-55.715
-55.389
-54.972
-54.469
-53.882
-53.218
-52.483
-51.681
-50.819
-49.905
-48.944
-47.944
-46.913
-45.858
-44.785
-43.702
-42.618
-41.538
-40.47
-39.422
-38.401
-37.412
-36.463
-35.559
-34.707
-33.91
-33.175
-32.505
-31.903
-31.374
-30.92
-30.544
-30.247
-30.032
-29.899
-29.848
-29.879
-29.992
-30.184
-30.455
-30.802
-31.222
-31.713
-32.272
-32.895
-33.579
-34.319
-35.112
-35.953
-36.838
-37.763
-38.72
-39.707
-40.717
-41.744
-42.784
-43.831
-44.88
-45.925
-46.959
-47.977
-48.974
-49.942
-50.876
-51.768
-52.614
-53.408
-54.143
-54.815
-55.42
-55.951
-56.407
-56.782
-57.074
-57.28
-57.398
-57.426
-57.363
-57.208
-56.962
-56.626
-56.2
-55.689
-55.096
-54.426
-53.685
-52.88
-52.019
-51.111
-50.166
-49.195
-48.206
-47.21
-46.219
-45.241
-44.29
-43.378
-42.518
-41.723
-41.008
-40.384
-39.863
-39.456
-39.167
-39.002
-38.965
-39.06
-39.298
-39.689
-40.241
-40.964
-41.867
-42.951
-44.214
-45.639
-47.201
-48.869
-50.611
-52.397
-54.201
-55.992
-57.74
-59.406
-60.947
-62.309
-63.441
-64.292
-64.813
-64.968
-64.749
-64.191
-63.36
-62.338
-61.202
-60.006
-58.818
-57.738
-56.883
-56.386
-56.378
-56.96
-58.282
-60.569
-63.928
-68.276
-73.297
-78.382
-82.903
-86.407
-88.383
-88.181
-85.442
-80.309
-73.539
-66.6
-60.952
-57.417
-56.632
-59.418
-65.998
-75.453
-85.629
-92.942
-93.467
-84.281
-62.661
-25.278
30.52
105.932
198.756
302.919
412.003
519.54
623.499
725.752
822.114
907.534
970.903
991.077
958.732
869.6
724.831
547.224
358.048
179.688
41.159
-48.216
-88.586
-89.035
-73.612
-56.795
-44.813
-38.478
-29.91
-17.284
-3.582
8.232
13.308
10.582
2.489
-8.923
-20.858
-30.671
-37.438
-40.752
-40.587
-37.719
-33.002
-27.167
-21.218
-16.182
-12.57
-10.6
-10.259
-11.238
-13.302
-16.284
-19.926
-23.965
-28.195
-32.439
-36.574
-40.525
-44.181
-47.407
-50.085
-52.126
-53.495
-54.192
-54.242
-53.68
-52.543
-50.887
-48.778
-46.279
-43.456
-40.373
-37.089
-33.668
-30.177
-26.681
-23.241
-19.905
-16.696
-13.631
-10.714
-7.94
-5.306
-2.801
-0.412
1.874
4.066
6.174
8.205
10.168
12.076
13.941
15.777
17.593
19.399
21.202
23.011
24.832
26.671
28.534
30.425
32.353
34.323
36.345
38.427
40.575
42.796
45.098
47.484
49.96
52.528
55.191
57.947
60.797
63.74
66.772
69.889
73.086
76.356
79.693
83.087
86.53
90.01
93.518
97.04
100.565
104.08
107.571
111.024
114.425
117.759
121.011
124.166
127.208
130.122
132.892
135.503
137.94
140.188
142.234
144.063
145.664
147.023
148.131
148.976
149.551
149.847
149.857
149.577
149.001
148.128
146.954
145.481
143.708
141.638
139.274
136.619
133.68
130.464
126.977
123.229
119.23
114.991
110.525
105.845
100.965
95.9
90.667
85.282
79.763
74.127
68.393
62.579
56.705
50.788
44.848
38.903
32.973
27.073
21.223
15.439
9.737
4.133
-1.358
-6.723
-11.949
-17.022
-21.932
-26.669
-31.223
-35.586
-39.751
-43.711
-47.461
-50.999
-54.32
-57.424
-60.31
-62.979
-65.432
-67.672
-69.703
-71.529
-73.155
-74.587
-75.831
-76.895
-77.785
-78.51
-79.078
-79.496
-79.774
-79.92
-79.942
-79.849
-79.649
-79.351
-78.964
-78.494
-77.95
-77.34
-76.671
-75.95
-75.185
-74.381
-73.545
-72.683
-71.8
-70.901
-69.991
-69.076
-68.158
-67.242
-66.332
-65.431
-64.543
-63.669
-62.815
-61.982
-61.173
-60.392
-59.642
-58.925
-58.244
-57.604
-57.006
-56.453
-55.95
-55.498
-55.1
-54.76
-54.48
-54.261
-54.108
-54.02
-54.002
-54.054
-54.178
-54.375
-54.646
-54.991
-55.41
-55.903
-56.467
-57.103
-57.807
-58.578
-59.413
-60.308
-61.259
-62.261
-63.309
-64.397
-65.518
-66.664
-67.829
-69.004
-70.179
-71.347
-72.497
-73.621
-74.709
-75.754
-76.748
-77.684
-78.554
-79.354
-80.077
-80.719
-81.275
-81.741
-82.112
-82.385
-82.559
-82.637
-82.621
-82.515
-82.323
-82.05
-81.704
-81.293
-80.823
-80.297
-79.716
-79.085
-78.418
-77.737
-77.064
-76.424
-75.831
-75.306
-74.87
-74.539
-74.325
-74.23
-74.246
-74.371
-74.611
-74.982
-75.51
-76.198
-77.027
-77.956
-78.934
-79.909
-80.834
-81.654
-82.296
-82.706
-82.846
-82.701
-82.283
-81.591
-80.607
-79.3
-77.641
-75.633
-73.332
-70.856
-68.335
-65.907
-63.699
-61.821
-60.431
-59.689
-59.727
-60.647
-62.523
-65.369
-69.268
-74.436
-80.857
-88.313
-96.372
-104.199
-111.007
-116.307
-119.406
-119.465
-116.335
-110.285
-102.126
-93.785
-86.78
-81.871
-80.265
-82.87
-89.03
-97.259
-104.976
-107.787
-101.841
-84.064
-50.433
2.733
75.498
164.538
265.408
371.609
480.106
594.274
713.017
828.67
929.05
992.994
1001.437
949.942
842.253
690.209
514.691
333.139
161.454
19.11
-79.846
-129.402
-131.317
-98.176
-51.099
-8.211
19.917
27.405
19.838
7.551
-4.007
-9.501
-9.776
-10.851
-14.606
-21.499
-29.905
-35.948
-38.333
-37.476
-34.067
-29.405
-24.354
-19.44
-15.433
-12.826
-11.736
-12.05
-13.486
-15.814
-18.887
-22.56
-26.632
-30.899
-35.2
-39.408
-43.439
-47.188
-50.533
-53.369
-55.619
-57.247
-58.267
-58.726
-58.68
-58.205
-57.354
-56.147
-54.614
-52.79
-50.719
-48.458
-46.06
-43.565
-41.019
-38.466
-35.942
-33.473
-31.056
-28.663
-26.261
-23.806
-21.278
-18.687
-16.037
-13.328
-10.56
-7.723
-4.813
-1.836
1.215
4.355
7.6
10.969
14.467
18.09
21.831
25.681
29.639
33.72
37.931
42.276
46.758
51.376
56.134
61.042
66.105
71.317
76.665
82.128
87.689
93.322
99.008
104.719
110.423
116.089
121.694
127.224
132.673
138.039
143.306
148.451
153.445
158.26
162.882
167.301
171.508
175.508
179.301
182.897
186.321
189.585
192.677
195.571
198.212
200.537
202.504
204.081
205.247
205.992
206.29
206.115
205.453
204.276
202.555
200.258
197.326
193.72
189.44
184.508
178.986
172.955
166.477
159.605
152.393
144.882
137.121
129.159
121.032
112.78
104.454
96.113
87.84
79.708
71.757
64.009
56.462
49.093
41.894
34.863
27.992
21.282
14.736
8.36
2.17
-3.813
-9.584
-15.143
-20.504
-25.681
-30.675
-35.478
-40.078
-44.452
-48.587
-52.472
-56.091
-59.438
-62.512
-65.314
-67.855
-70.15
-72.21
-74.044
-75.658
-77.058
-78.253
-79.255
-80.074
-80.724
-81.218
-81.57
-81.794
-81.905
-81.914
-81.832
-81.668
-81.428
-81.121
-80.754
-80.334
-79.87
-79.369
-78.839
-78.286
-77.72
-77.145
-76.569
-75.996
-75.43
-74.874
-74.333
-73.809
-73.302
-72.816
-72.351
-71.907
-71.486
-71.088
-70.711
-70.357
-70.024
-69.711
-69.419
-69.145
-68.889
-68.65
-68.427
-68.22
-68.029
-67.852
-67.689
-67.541
-67.407
-67.287
-67.18
-67.086
-67.003
-66.933
-66.874
-66.826
-66.79
-66.766
-66.754
-66.754
-66.768
-66.797
-66.841
-66.901
-66.979
-67.076
-67.192
-67.33
-67.49
-67.674
-67.882
-68.118
-68.38
-68.67
-68.989
-69.337
-69.714
-70.121
-70.558
-71.024
-71.519
-72.043
-72.595
-73.174
-73.781
-74.414
-75.071
-75.752
-76.455
-77.178
-77.921
-78.68
-79.455
-80.243
-81.042
-81.85
-82.665
-83.484
-84.305
-85.125
-85.942
-86.753
-87.556
-88.349
-89.128
-89.892
-90.638
-91.364
-92.069
-92.751
-93.408
-94.038
-94.64
-95.213
-95.754
-96.264
-96.742
-97.186
-97.596
-97.973
-98.315
-98.623
-98.896
-99.136
-99.34
-99.511
-99.646
-99.748
-99.816
-99.849
-99.849
-99.816
-99.75
-99.652
-99.521
-99.359
-99.166
-98.943
-98.688
-98.403
-98.088
-97.742
-97.366
-96.959
-96.522
-96.054
-95.556
-95.027
-94.466
-93.874
-93.249
-92.59
-91.897
-91.169
-90.406
-89.608
-88.774
-87.906
-87.002
-86.065
-85.096
-84.096
-83.068
-82.013
-80.932
-79.83
-78.709
-77.572
-76.423
-75.266
-74.106
-72.949
-71.805
-70.679
-69.58
-68.518
-67.502
-66.541
-65.643
-64.816
-64.065
-63.398
-62.82
-62.34
-61.965
-61.705
-61.568
-61.558
-61.683
-61.948
-62.352
-62.894
-63.569
-64.37
-65.3
-66.367
-67.58
-68.943
-70.463
-72.138
-73.962
-75.919
-77.981
-80.107
-82.25
-84.363
-86.402
-88.332
-90.116
-91.715
-93.076
-94.132
-94.821
-95.085
-94.877
-94.153
-92.9
-91.145
-88.953
-86.431
-83.688
-80.815
-77.915
-75.121
-72.571
-70.414
-68.817
-67.892
-67.801
-68.804
-70.967
-74.183
-78.155
-82.253
-85.889
-88.706
-90.132
-89.437
-86.452
-81.343
-74.861
-68.653
-63.818
-60.741
-60.12
-62.55
-67.606
-74.209
-79.866
-80.493
-73.086
-55.295
-24.237
22.587
87.053
168.171
260.752
358.849
457.212
555.637
658.892
764.894
865.748
946.036
982.816
965.037
893.688
777.313
633.172
476.556
318.69
174.241
60.012
-14.2
-45.897
-44.259
-29.515
-15.056
-6.599
-3.612
0.857
8.257
15.864
21.078
20.392
13.545
2.893
-9.682
-21.869
-31.597
-38.198
-41.459
-41.599
-39.466
-35.885
-31.563
-27.369
-24.106
-22.178
-21.748
-22.751
-24.918
-28.041
-31.947
-36.414
-41.225
-46.187
-51.146
-55.99
-60.62
-64.921
-68.761
-72.015
-74.6
-76.482
-77.651
-78.122
-77.926
-77.093
-75.68
-73.748
-71.357
-68.575
-65.462
-62.079
-58.493
-54.773
-50.985
-47.194
-43.448
-39.776
-36.196
-32.719
-29.344
-26.074
-22.899
-19.807
-16.791
-13.844
-10.961
-8.139
-5.371
-2.65
0.031
2.68
5.304
7.909
10.502
13.089
15.677
18.272
20.878
23.503
26.155
28.839
31.561
34.328
37.148
40.03
42.989
46.032
49.162
52.379
55.682
59.065
62.521
66.03
69.565
73.098
76.609
80.088
83.533
86.936
90.293
93.593
96.83
100.008
103.135
106.213
109.238
112.209
115.133
118.038
120.969
123.961
127.029
130.164
133.342
136.539
139.726
142.862
145.89
148.731
151.314
153.584
155.501
157.027
158.111
158.679
158.64
157.922
156.486
154.316
151.414
147.783
143.447
138.454
132.881
126.835
120.406
113.664
106.662
99.455
92.106
84.703
77.338
70.087
63.004
56.135
49.516
43.185
37.163
31.447
26.007
20.797
15.786
10.961
6.32
1.863
-2.417
-6.537
-10.512
-14.342
-18.028
-21.572
-24.977
-28.25
-31.39
-34.385
-37.213
-39.848
-42.274
-44.486
-46.483
-48.269
-49.845
-51.218
-52.396
-53.396
-54.233
-54.92
-55.468
-55.885
-56.184
-56.381
-56.493
-56.539
-56.533
-56.489
-56.42
-56.337
-56.252
-56.175
-56.11
-56.064
-56.041
-56.047
-56.087
-56.166
-56.286
-56.451
-56.664
-56.925
-57.237
-57.598
-58.01
-58.468
-58.973
-59.521
-60.11
-60.736
-61.396
-62.085
-62.799
-63.534
-64.285
-65.047
-65.816
-66.587
-67.355
-68.116
-68.866
-69.599
-70.312
-70.999
-71.658
-72.284
-72.874
-73.425
-73.934
-74.4
-74.821
-75.195
-75.52
-75.796
-76.021
-76.194
-76.313
-76.378
-76.389
-76.344
-76.242
-76.084
-75.87
-75.602
-75.281
-74.91
-74.491
-74.028
-73.524
-72.984
-72.412
-71.809
-71.18
-70.527
-69.857
-69.174
-68.486
-67.803
-67.131
-66.48
-65.861
-65.281
-64.748
-64.265
-63.832
-63.45
-63.128
-62.877
-62.712
-62.658
-62.732
-62.951
-63.339
-63.905
-64.654
-65.582
-66.674
-67.915
-69.303
-70.837
-72.523
-74.372
-76.372
-78.502
-80.728
-82.98
-85.19
-87.288
-89.183
-90.811
-92.127
-93.098
-93.72
-94.001
-93.926
-93.479
-92.643
-91.384
-89.708
-87.639
-85.238
-82.644
-80.008
-77.489
-75.264
-73.456
-72.174
-71.549
-71.661
-72.563
-74.335
-76.984
-80.565
-85.26
-91.015
-97.596
-104.615
-111.3
-116.951
-121.14
-123.195
-122.346
-118.446
-111.669
-102.696
-93.161
-84.219
-76.392
-70.684
-67.862
-67.447
-68.317
-68.397
-64.168
-52.625
-31.388
2.858
53.367
119.826
198.901
286.98
378.567
473.146
576.392
686.613
796.304
890.696
945.415
945.638
889.918
785.873
650.951
501.838
350.59
210.102
94.337
13.11
-29.782
-41.159
-37.572
-30.982
-27.47
-26.497
-21.473
-11.987
-1.164
8.06
11.411
8.327
1.048
-9.051
-19.961
-29.224
-35.844
-39.338
-39.486
-37.057
-32.883
-27.503
-21.749
-16.556
-12.394
-9.505
-7.938
-7.401
-7.682
-8.663
-10.153
-11.987
-14.06
-16.278
-18.596
-21.015
-23.509
-26.02
-28.48
-30.839
-33.079
-35.206
-37.234
-39.182
-41.058
-42.87
-44.617
-46.274
-47.801
-49.162
-50.327
-51.27
-51.964
-52.393
-52.552
-52.438
-52.044
-51.363
-50.383
-49.093
-47.494
-45.592
-43.404
-40.965
-38.324
-35.524
-32.601
-29.587
-26.506
-23.38
-20.223
-17.041
-13.827
-10.575
-7.283
-3.942
-0.549
2.908
6.445
10.083
13.85
17.772
21.86
26.122
30.561
35.172
39.947
44.868
49.903
55.02
60.191
65.388
70.588
75.771
80.908
85.973
90.942
95.788
100.492
105.051
109.46
113.722
117.857
121.883
125.828
129.732
133.61
137.474
141.333
145.183
149.023
152.851
156.646
160.393
164.072
167.639
171.044
174.223
177.079
179.52
181.452
182.763
183.379
183.228
182.237
180.352
177.523
173.705
168.883
163.044
156.169
148.279
139.412
129.636
119.069
107.826
96.03
83.824
71.325
58.663
45.982
33.415
21.098
9.161
-2.294
-13.159
-23.318
-32.686
-41.203
-48.836
-55.602
-61.52
-66.613
-70.925
-74.494
-77.38
-79.66
-81.419
-82.747
-83.728
-84.435
-84.941
-85.332
-85.676
-86.027
-86.419
-86.856
-87.346
-87.893
-88.497
-89.151
-89.834
-90.515
-91.156
-91.714
-92.155
-92.454
-92.588
-92.532
-92.271
-91.797
-91.113
-90.239
-89.189
-87.977
-86.622
-85.141
-83.56
-81.911
-80.226
-78.54
-76.884
-75.281
-73.753
-72.321
-70.998
-69.797
-68.722
-67.775
-66.957
-66.269
-65.714
-65.292
-65.001
-64.839
-64.799
-64.879
-65.071
-65.37
-65.771
-66.268
-66.854
-67.523
-68.269
-69.087
-69.968
-70.906
-71.894
-72.922
-73.984
-75.071
-76.176
-77.293
-78.416
-79.538
-80.65
-81.746
-82.82
-83.866
-84.88
-85.857
-86.794
-87.688
-88.542
-89.358
-90.136
-90.875
-91.573
-92.221
-92.817
-93.367
-93.872
-94.34
-94.783
-95.214
-95.656
-96.138
-96.677
-97.281
-97.951
-98.676
-99.457
-100.296
-101.189
-102.135
-103.132
-104.166
-105.226
-106.292
-107.313
-108.229
-108.957
-109.397
-109.478
-109.148
-108.364
-107.105
-105.34
-103.048
-100.238
-96.924
-93.123
-88.856
-84.159
-79.11
-73.853
-68.552
-63.384
-58.524
-54.119
-50.35
-47.395
-45.394
-44.498
-44.767
-46.266
-49.184
-53.518
-59.058
-65.434
-71.952
-77.897
-82.818
-86.035
-86.655
-84.492
-79.821
-73.458
-67.071
-61.836
-58.59
-58.607
-62.834
-71.113
-80.788
-88.04
-90.097
-83.664
-68.78
-44.919
-4.082
56.34
137.163
239.928
353.003
470.666
594.252
714.727
826.302
916.953
963.39
955.474
893.122
783.068
642.632
487.627
329.269
181.332
59.751
-25.008
-68.438
-76.796
-68.049
-55.763
-47.364
-44.033
-39.734
-33.095
-26.379
-21.918
-23.492
-31.517
-43.57
-57.696
-71.394
-82.358
-89.795
-93.396
-93.217
-90.012
-84.593
-77.641
-70.05
-62.753
-56.263
-50.831
-46.5
-43.053
-40.326
-38.232
-36.615
-35.319
-34.233
-33.26
-32.368
-31.6
-30.97
-30.472
-30.084
-29.745
-29.412
-29.079
-28.757
-28.472
-28.249
-28.096
-28.027
-28.065
-28.231
-28.538
-28.963
-29.45
-29.939
-30.378
-30.736
-31.01
-31.193
-31.265
-31.206
-30.998
-30.63
-30.107
-29.424
-28.569
-27.537
-26.33
-24.98
-23.538
-22.05
-20.55
-19.058
-17.579
-16.115
-14.669
-13.232
-11.784
-10.305
-8.767
-7.15
-5.446
-3.641
-1.715
0.361
2.625
5.106
7.817
10.768
13.962
17.394
21.06
24.94
28.999
33.207
37.532
41.947
46.438
50.99
55.581
60.19
64.789
69.362
73.905
78.422
82.913
87.382
91.833
96.275
100.739
105.245
109.809
114.437
119.11
123.802
128.494
133.165
137.793
142.341
146.748
150.931
154.814
158.322
161.384
163.924
165.843
167.041
167.433
166.955
165.578
163.286
160.062
155.885
150.739
144.638
137.63
129.807
121.262
112.082
102.36
92.202
81.748
71.148
60.557
50.094
39.846
29.896
20.324
11.228
2.708
-5.17
-12.376
-18.915
-24.802
-30.049
-34.666
-38.695
-42.206
-45.289
-48.05
-50.557
-52.852
-54.981
-56.991
-58.94
-60.903
-62.921
-65.015
-67.189
-69.442
-71.777
-74.199
-76.69
-79.208
-81.699
-84.101
-86.375
-88.503
-90.465
-92.243
-93.815
-95.152
-96.244
-97.096
-97.711
-98.093
-98.245
-98.168
-97.876
-97.396
-96.757
-95.994
-95.129
-94.178
-93.154
-92.071
-90.941
-89.775
-88.579
-87.352
-86.098
-84.822
-83.529
-82.229
-80.923
-79.612
-78.297
-76.977
-75.656
-74.337
-73.022
-71.716
-70.424
-69.152
-67.905
-66.693
-65.521
-64.394
-63.317
-62.294
-61.329
-60.425
-59.587
-58.818
-58.12
-57.498
-56.954
-56.493
-56.116
-55.828
-55.631
-55.527
-55.517
-55.604
-55.789
-56.073
-56.455
-56.936
-57.515
-58.19
-58.96
-59.822
-60.774
-61.812
-62.933
-64.131
-65.402
-66.741
-68.142
-69.601
-71.109
-72.661
-74.249
-75.867
-77.507
-79.162
-80.824
-82.484
-84.135
-85.768
-87.374
-88.945
-90.47
-91.942
-93.351
-94.688
-95.944
-97.112
-98.184
-99.153
-100.011
-100.753
-101.372
-101.865
-102.226
-102.451
-102.538
-102.486
-102.292
-101.957
-101.482
-100.869
-100.123
-99.25
-98.256
-97.149
-95.939
-94.635
-93.249
-91.793
-90.277
-88.714
-87.114
-85.491
-83.858
-82.227
-80.614
-79.034
-77.504
-76.036
-74.648
-73.35
-72.15
-71.057
-70.078
-69.221
-68.499
-67.924
-67.507
-67.261
-67.198
-67.323
-67.637
-68.123
-68.752
-69.491
-70.306
-71.159
-72.024
-72.866
-73.651
-74.345
-74.904
-75.28
-75.435
-75.322
-74.895
-74.124
-73.006
-71.581
-69.939
-68.177
-66.392
-64.663
-63.07
-61.723
-60.75
-60.276
-60.427
-61.293
-62.986
-65.716
-69.595
-74.551
-80.295
-86.204
-91.561
-95.807
-98.334
-98.392
-95.575
-89.929
-82.104
-73.681
-66.348
-61.283
-59.568
-62.163
-69.201
-79.749
-91.524
-100.52
-102.397
-93.255
-69.311
-27.122
35.984
119.416
218.943
329.11
443.056
557.744
674.495
788.582
891.601
970.407
1005.855
989.202
921.874
810.281
667.761
507.352
340.752
184.859
59.54
-22.898
-59.7
-61.037
-47.909
-34.523
-26.759
-23.494
-17.628
-7.883
2.856
11.586
14.469
11.13
3.826
-5.673
-15.085
-22.239
-26.379
-27.234
-24.971
-20.47
-14.613
-8.118
-1.87
3.254
6.805
8.594
8.656
7.281
4.705
1.12
-3.224
-8.064
-13.184
-18.41
-23.587
-28.6
-33.305
-37.543
-41.202
-44.211
-46.541
-48.194
-49.189
-49.557
-49.346
-48.625
-47.456
-45.904
-44.033
-41.901
-39.579
-37.14
-34.655
-32.192
-29.802
-27.514
-25.348
-23.311
-21.398
-19.602
-17.906
-16.288
-14.733
-13.224
-11.75
-10.298
-8.853
-7.398
-5.913
-4.383
-2.791
-1.124
0.631
2.485
4.447
6.525
8.726
11.055
13.518
16.123
18.876
21.784
24.852
28.083
31.481
35.046
38.778
42.674
46.729
50.937
55.288
59.775
64.384
69.104
73.92
78.815
83.773
88.775
93.801
98.831
103.841
108.81
113.714
118.529
123.231
127.795
132.196
136.412
140.417
144.189
147.705
150.943
153.884
156.507
158.795
160.732
162.302
163.494
164.295
164.698
164.694
164.281
163.455
162.215
160.563
158.504
156.043
153.187
149.946
146.332
142.359
138.041
133.396
128.441
123.197
117.684
111.926
105.945
99.767
93.415
86.917
80.297
73.584
66.803
59.981
53.143
46.317
39.527
32.797
26.151
19.612
13.2
6.937
0.841
-5.07
-10.78
-16.275
-21.539
-26.563
-31.335
-35.846
-40.089
-44.058
-47.748
-51.157
-54.281
-57.122
-59.68
-61.958
-63.959
-65.689
-67.153
-68.36
-69.318
-70.036
-70.525
-70.796
-70.86
-70.73
-70.417
-69.934
-69.293
-68.509
-67.592
-66.557
-65.415
-64.179
-62.862
-61.474
-60.029
-58.537
-57.009
-55.456
-53.889
-52.317
-50.752
-49.202
-47.678
-46.188
-44.74
-43.343
-42.004
-40.729
-39.526
-38.398
-37.351
-36.389
-35.515
-34.733
-34.045
-33.452
-32.956
-32.559
-32.26
-32.06
-31.959
-31.956
-32.05
-32.24
-32.524
-32.902
-33.37
-33.927
-34.57
-35.296
-36.1
-36.98
-37.929
-38.944
-40.018
-41.146
-42.322
-43.539
-44.79
-46.07
-47.372
-48.689
-50.016
-51.345
-52.672
-53.989
-55.292
-56.575
-57.833
-59.061
-60.255
-61.412
-62.526
-63.596
-64.617
-65.586
-66.501
-67.36
-68.16
-68.898
-69.575
-70.188
-70.738
-71.224
-71.648
-72.01
-72.312
-72.557
-72.747
-72.884
-72.973
-73.017
-73.019
-72.984
-72.915
-72.818
-72.695
-72.551
-72.391
-72.217
-72.032
-71.839
-71.642
-71.441
-71.24
-71.039
-70.84
-70.645
-70.455
-70.271
-70.093
-69.923
-69.761
-69.606
-69.458
-69.316
-69.179
-69.046
-68.916
-68.788
-68.658
-68.526
-68.39
-68.247
-68.095
-67.931
-67.755
-67.564
-67.357
-67.135
-66.896
-66.643
-66.378
-66.105
-65.828
-65.552
-65.283
-65.028
-64.794
-64.589
-64.418
-64.29
-64.212
-64.192
-64.239
-64.361
-64.564
-64.858
-65.251
-65.754
-66.375
-67.123
-67.999
-69.008
-70.154
-71.44
-72.875
-74.464
-76.205
-78.101
-80.148
-82.344
-84.679
-87.136
-89.68
-92.269
-94.858
-97.404
-99.871
-102.218
-104.4
-106.37
-108.076
-109.473
-110.524
-111.192
-111.443
-111.259
-110.633
-109.587
-108.19
-106.551
-104.779
-102.988
-101.272
-99.697
-98.352
-97.367
-96.857
-96.921
-97.654
-99.087
-101.294
-104.454
-108.536
-113.283
-118.246
-122.7
-125.964
-127.595
-126.945
-123.187
-116.085
-105.875
-93.344
-80.014
-67.004
-55.184
-45.817
-39.947
-37.684
-36.651
-33.464
-25.975
-11.187
10.684
39.851
84.382
146.905
228.189
330.358
442.483
559.231
682.326
803.144
915.945
1008.679
1057.921
1052.492
991.006
879.924
737.078
578.612
416.234
263.31
134.044
38.618
-17.803
-40.729
-46.321
-46.388
-46.938
-47.933
-42.86
-31.209
-17.186
-4.545
2.26
2.308
-2.284
-10.084
-19.532
-28.552
-35.56
-39.614
-40.373
-38.382
-34.63
-29.877
-24.787
-20.17
-16.763
-14.99
-14.995
-16.619
-19.527
-23.447
-28.159
-33.423
-38.991
-44.653
-50.222
-55.55
-60.524
-65.014
-68.885
-72.05
-74.455
-76.083
-76.957
-77.114
-76.599
-75.481
-73.834
-71.727
-69.232
-66.418
-63.353
-60.111
-56.768
-53.393
-50.052
-46.791
-43.642
-40.624
-37.743
-34.995
-32.375
-29.869
-27.459
-25.135
-22.884
-20.696
-18.563
-16.472
-14.409
-12.36
-10.311
-8.25
-6.165
-4.047
-1.887
0.322
2.589
4.919
7.317
9.791
12.347
14.995
17.74
20.591
23.551
26.627
29.821
33.136
36.572
40.127
43.798
47.581
51.469
55.457
59.533
63.689
67.911
72.188
76.503
80.842
85.188
89.523
93.827
98.082
102.266
106.359
110.34
114.187
117.88
121.397
124.718
127.822
130.691
133.306
135.648
137.701
139.449
140.878
141.974
142.726
143.123
143.158
142.825
142.118
141.035
139.577
137.744
135.54
132.969
130.04
126.761
123.143
119.198
114.942
110.39
105.56
100.471
95.144
89.601
83.863
77.954
71.899
65.722
59.446
53.098
46.701
40.281
33.863
27.469
21.125
14.853
8.676
2.614
-3.312
-9.083
-14.682
-20.094
-25.302
-30.295
-35.062
-39.592
-43.878
-47.914
-51.695
-55.22
-58.487
-61.498
-64.256
-66.766
-69.033
-71.067
-72.876
-74.47
-75.86
-77.058
-78.078
-78.932
-79.635
-80.202
-80.646
-80.984
-81.23
-81.398
-81.505
-81.563
-81.588
-81.591
-81.586
-81.585
-81.598
-81.636
-81.706
-81.819
-81.979
-82.192
-82.464
-82.796
-83.19
-83.646
-84.164
-84.74
-85.372
-86.056
-86.786
-87.556
-88.36
-89.191
-90.04
-90.899
-91.759
-92.612
-93.448
-94.258
-95.033
-95.763
-96.441
-97.056
-97.602
-98.07
-98.453
-98.744
-98.936
-99.025
-99.005
-98.874
-98.628
-98.266
-97.787
-97.193
-96.485
-95.668
-94.744
-93.72
-92.601
-91.395
-90.11
-88.754
-87.338
-85.871
-84.365
-82.831
-81.285
-79.74
-78.212
-76.716
-75.268
-73.883
-72.578
-71.365
-70.257
-69.266
-68.401
-67.675
-67.099
-66.683
-66.438
-66.371
-66.488
-66.794
-67.289
-67.97
-68.832
-69.868
-71.07
-72.443
-73.988
-75.711
-77.613
-79.692
-81.942
-84.344
-86.875
-89.497
-92.168
-94.84
-97.466
-100.003
-102.406
-104.632
-106.63
-108.331
-109.663
-110.557
-110.946
-110.776
-110.019
-108.683
-106.808
-104.481
-101.794
-98.825
-95.684
-92.506
-89.441
-86.671
-84.357
-82.605
-81.59
-81.597
-82.761
-85.062
-88.228
-91.593
-94.563
-96.809
-97.825
-96.899
-93.687
-88.22
-81.183
-74.403
-69.344
-66.426
-66.45
-70.469
-78.387
-89.49
-100.673
-105.232
-99.17
-81.219
-51.519
-13.344
35.121
99.066
182.66
291.163
422.167
568.953
724.132
872.168
997.912
1085.589
1116.967
1086.664
997.443
858.036
687.933
504.527
325.038
170.254
53.772
-17.93
-47.387
-50.299
-43.579
-36.85
-33.89
-30.822
-22.547
-10.515
1.909
11.15
13.654
9.684
1.44
-9.417
-20.427
-29.215
-34.907
-37.161
-36.139
-32.776
-27.961
-22.4
-17.048
-12.871
-10.355
-9.699
-10.849
-13.472
-17.308
-22.15
-27.719
-33.728
-39.939
-46.158
-52.227
-58.028
-63.418
-68.237
-72.373
-75.755
-78.355
-80.176
-81.243
-81.59
-81.27
-80.354
-78.911
-77.008
-74.716
-72.098
-69.227
-66.18
-63.031
-59.848
-56.683
-53.569
-50.526
-47.564
-44.681
-41.871
-39.122
-36.415
-33.739
-31.082
-28.437
-25.794
-23.143
-20.472
-17.767
-15.017
-12.211
-9.341
-6.4
-3.382
-0.281
2.904
6.178
9.54
12.995
16.546
20.196
23.95
27.809
31.773
35.842
40.015
44.288
48.655
53.111
57.647
62.255
66.927
71.653
76.42
81.218
86.032
90.847
95.646
100.408
105.112
109.737
114.263
118.668
122.932
127.032
130.947
134.66
138.151
141.397
144.377
147.064
149.432
151.467
153.156
154.491
155.474
156.1
156.372
156.298
155.88
155.117
154.003
152.518
150.644
148.374
145.709
142.664
139.252
135.475
131.334
126.828
121.945
116.68
111.024
104.95
98.45
91.539
84.252
76.652
68.82
60.812
52.678
44.458
36.186
27.91
19.682
11.544
3.553
-4.234
-11.752
-18.91
-25.638
-31.902
-37.691
-43.035
-47.986
-52.573
-56.82
-60.75
-64.374
-67.712
-70.786
-73.604
-76.18
-78.543
-80.727
-82.796
-84.803
-86.772
-88.709
-90.597
-92.399
-94.096
-95.675
-97.119
-98.426
-99.593
-100.622
-101.53
-102.336
-103.048
-103.667
-104.183
-104.584
-104.875
-105.068
-105.183
-105.246
-105.279
-105.3
-105.331
-105.385
-105.472
-105.596
-105.755
-105.938
-106.144
-106.369
-106.613
-106.877
-107.158
-107.45
-107.747
-108.041
-108.324
-108.585
-108.815
-109.004
-109.143
-109.225
-109.245
-109.2
-109.085
-108.896
-108.629
-108.28
-107.846
-107.325
-106.714
-106.01
-105.213
-104.324
-103.346
-102.281
-101.133
-99.908
-98.611
-97.25
-95.831
-94.362
-92.852
-91.308
-89.741
-88.158
-86.571
-84.987
-83.418
-81.872
-80.36
-78.891
-77.474
-76.119
-74.834
-73.627
-72.507
-71.482
-70.558
-69.743
-69.045
-68.47
-68.025
-67.717
-67.552
-67.536
-67.674
-67.97
-68.428
-69.047
-69.828
-70.771
-71.872
-73.13
-74.54
-76.1
-77.808
-79.662
-81.657
-83.786
-86.039
-88.405
-90.872
-93.427
-96.061
-98.767
-101.534
-104.355
-107.228
-110.144
-113.095
-116.059
-118.994
-121.858
-124.606
-127.192
-129.578
-131.724
-133.586
-135.12
-136.285
-137.035
-137.329
-137.125
-136.368
-135.024
-133.073
-130.539
-127.519
-124.123
-120.468
-116.665
-112.785
-108.935
-105.276
-101.937
-99.044
-96.742
-95.089
-94.259
-94.59
-96.141
-98.74
-102.017
-105.185
-107.506
-108.519
-107.448
-103.356
-96.072
-85.936
-73.921
-61.922
-51.67
-44.467
-41.701
-44.646
-51.864
-59.475
-64.813
-64.619
-57.54
-46.156
-25.011
15.447
80.5
177.71
303.509
444.808
596.42
749.612
894.37
1021.767
1111.854
1147.146
1121.406
1037.66
910.153
754.412
583.162
407.732
240.966
101.006
0.787
-55.311
-74.276
-74.889
-70.591
-67.242
-64.77
-56.993
-43.36
-28.353
-16.061
-10.743
-13.223
-21.284
-32.985
-46.234
-58.79
-68.909
-75.582
-78.568
-78.334
-75.795
-71.771
-66.977
-62.272
-58.435
-55.871
-54.677
-54.693
-55.586
-57.094
-59.009
-61.086
-63.093
-64.85
-66.232
-67.178
-67.657
-67.644
-67.121
-66.089
-64.597
-62.718
-60.526
-58.11
-55.554
-52.942
-50.37
-47.922
-45.656
-43.624
-41.866
-40.397
-39.231
-38.349
-37.696
-37.22
-36.851
-36.523
-36.189
-35.795
-35.29
-34.637
-33.8
-32.751
-31.486
-29.998
-28.281
-26.346
-24.208
-21.903
-19.488
-17.01
-14.509
-12.019
-9.554
-7.126
-4.744
-2.403
-0.091
2.206
4.507
6.826
9.172
11.564
14.016
16.55
19.197
21.981
24.921
28.04
31.344
34.832
38.499
42.328
46.293
50.373
54.541
58.763
63.016
67.28
71.539
75.794
80.031
84.233
88.377
92.427
96.36
100.166
103.832
107.348
110.712
113.919
116.978
119.917
122.747
125.464
128.05
130.456
132.644
134.595
136.283
137.692
138.797
139.555
139.931
139.903
139.444
138.525
137.104
135.112
132.502
129.253
125.355
120.833
115.714
110.018
103.781
97.056
89.908
82.421
74.688
66.769
58.735
50.659
42.616
34.71
27.031
19.648
12.628
6.027
-0.12
-5.775
-10.918
-15.569
-19.754
-23.522
-26.941
-30.055
-32.9
-35.52
-37.947
-40.225
-42.404
-44.52
-46.61
-48.721
-50.887
-53.137
-55.494
-57.952
-60.495
-63.094
-65.7
-68.279
-70.81
-73.272
-75.657
-77.959
-80.169
-82.281
-84.296
-86.201
-87.986
-89.645
-91.171
-92.567
-93.847
-95.024
-96.127
-97.179
-98.193
-99.179
-100.143
-101.082
-101.996
-102.88
-103.726
-104.527
-105.28
-105.981
-106.628
-107.218
-107.743
-108.195
-108.565
-108.842
-109.018
-109.086
-109.04
-108.877
-108.594
-108.19
-107.666
-107.025
-106.267
-105.394
-104.407
-103.307
-102.097
-100.782
-99.364
-97.85
-96.246
-94.56
-92.802
-90.984
-89.118
-87.215
-85.291
-83.36
-81.437
-79.537
-77.677
-75.869
-74.129
-72.471
-70.906
-69.448
-68.108
-66.898
-65.832
-64.922
-64.177
-63.606
-63.212
-62.997
-62.962
-63.108
-63.436
-63.949
-64.648
-65.533
-66.61
-67.879
-69.337
-70.968
-72.737
-74.604
-76.528
-78.464
-80.372
-82.214
-83.943
-85.515
-86.886
-88.007
-88.836
-89.329
-89.432
-89.103
-88.315
-87.085
-85.498
-83.658
-81.676
-79.656
-77.662
-75.789
-74.182
-72.96
-72.243
-72.136
-72.661
-73.955
-76.308
-79.775
-84.216
-89.249
-94.095
-98.081
-100.782
-101.457
-99.24
-93.918
-85.718
-75.607
-65.453
-56.745
-50.644
-48.745
-52.316
-59.913
-68.07
-72.869
-70.141
-60.67
-48.086
-30.35
-1.274
49.174
132.287
249.13
391.408
548.77
708.981
859.277
987.954
1078.748
1112.681
1081.494
986.171
836.333
653.453
457.155
265.976
102.735
-18.07
-90.161
-114.036
-106.324
-84.295
-56.377
-32.254
-11.484
7.983
19.79
26.118
28.009
24.646
21.316
17.032
10.226
2.916
-4.682
-10.514
-12.7
-11.84
-8.728
-4.414
0.038
3.928
6.579
7.57
6.781
4.358
0.664
-4.025
-9.49
-15.483
-21.78
-28.158
-34.41
-40.393
-45.996
-51.082
-55.546
-59.313
-62.333
-64.605
-66.149
-66.993
-67.184
-66.781
-65.84
-64.421
-62.58
-60.375
-57.875
-55.151
-52.274
-49.313
-46.315
-43.316
-40.338
-37.392
-34.476
-31.587
-28.709
-25.825
-22.922
-19.991
-17.023
-14.011
-10.944
-7.809
-4.595
-1.288
2.119
5.636
9.269
13.022
16.899
20.9
25.025
29.272
33.641
38.132
42.746
47.481
52.336
57.31
62.398
67.595
72.897
78.293
83.774
89.328
94.943
100.604
106.294
111.999
117.698
123.373
129.004
134.569
140.047
145.413
150.645
155.718
160.608
165.291
169.743
173.94
177.859
181.477
184.773
187.727
190.32
192.534
194.352
195.76
196.744
197.293
197.398
197.052
196.249
194.987
193.264
191.084
188.449
185.367
181.846
177.896
173.531
168.766
163.616
158.101
152.242
146.061
139.582
132.83
125.832
118.615
111.21
103.644
95.948
88.151
80.285
72.38
64.465
56.57
48.724
40.957
33.296
25.767
18.396
11.208
4.226
-2.529
-9.037
-15.28
-21.241
-26.905
-32.26
-37.294
-41.998
-46.366
-50.39
-54.07
-57.402
-60.387
-63.029
-65.331
-67.301
-68.945
-70.274
-71.299
-72.032
-72.487
-72.679
-72.623
-72.337
-71.838
-71.143
-70.273
-69.246
-68.081
-66.798
-65.416
-63.956
-62.434
-60.871
-59.285
-57.693
-56.112
-54.559
-53.05
-51.599
-50.222
-48.929
-47.734
-46.647
-45.678
-44.834
-44.122
-43.548
-43.116
-42.828
-42.686
-42.69
-42.84
-43.133
-43.566
-44.135
-44.834
-45.657
-46.596
-47.643
-48.79
-50.026
-51.341
-52.726
-54.169
-55.659
-57.184
-58.734
-60.296
-61.858
-63.409
-64.937
-66.43
-67.878
-69.27
-70.595
-71.845
-73.01
-74.083
-75.055
-75.922
-76.677
-77.315
-77.832
-78.226
-78.494
-78.636
-78.65
-78.539
-78.304
-77.948
-77.474
-76.887
-76.192
-75.395
-74.503
-73.522
-72.459
-71.324
-70.125
-68.87
-67.57
-66.234
-64.873
-63.496
-62.114
-60.737
-59.376
-58.04
-56.74
-55.485
-54.283
-53.145
-52.079
-51.092
-50.192
-49.387
-48.682
-48.084
-47.596
-47.224
-46.97
-46.838
-46.829
-46.944
-47.184
-47.549
-48.037
-48.647
-49.378
-50.226
-51.187
-52.258
-53.433
-54.708
-56.075
-57.529
-59.062
-60.667
-62.336
-64.061
-65.832
-67.642
-69.482
-71.341
-73.21
-75.08
-76.942
-78.786
-80.602
-82.382
-84.117
-85.798
-87.417
-88.967
-90.44
-91.83
-93.131
-94.336
-95.44
-96.438
-97.327
-98.101
-98.757
-99.293
-99.708
-99.999
-100.167
-100.211
-100.133
-99.933
-99.615
-99.181
-98.634
-97.979
-97.22
-96.363
-95.415
-94.381
-93.268
-92.083
-90.835
-89.53
-88.177
-86.784
-85.356
-83.903
-82.432
-80.95
-79.464
-77.982
-76.512
-75.059
-73.631
-72.235
-70.877
-69.563
-68.299
-67.089
-65.94
-64.855
-63.839
-62.893
-62.023
-61.231
-60.521
-59.895
-59.356
-58.905
-58.544
-58.276
-58.102
-58.024
-58.042
-58.158
-58.373
-58.692
-59.115
-59.643
-60.276
-61.012
-61.852
-62.795
-63.842
-64.986
-66.223
-67.546
-68.954
-70.452
-72.041
-73.711
-75.458
-77.273
-79.153
-81.106
-83.134
-85.221
-87.361
-89.537
-91.743
-93.976
-96.217
-98.434
-100.582
-102.6
-104.437
-106.06
-107.424
-108.474
-109.155
-109.382
-109.102
-108.303
-106.959
-105.053
-102.57
-99.507
-95.932
-91.957
-87.712
-83.331
-78.908
-74.542
-70.402
-66.657
-63.463
-61.021
-59.421
-58.768
-59.344
-61.19
-64.112
-67.821
-71.669
-74.964
-77.309
-78.031
-76.178
-71.605
-64.694
-56.089
-47.255
-39.554
-33.849
-31.391
-33.696
-39.472
-44.809
-47.606
-45.679
-38.826
-31.034
-17.752
12.439
67.427
154.639
270.633
398.828
527.814
652.485
770.728
882.709
981.739
1049.437
1064.633
1016.74
904.015
735.529
535.221
325.885
130.725
-23.998
-126.721
-176.839
-181.783
-158.993
-121.944
-78.186
-34.706
1.009
20.869
19.702
0.061
-27.071
-50.296
-63.308
-66.394
-65.505
-65.022
-65.828
-66.799
-65.44
-61.106
-54.976
-48.248
-42.19
-37.604
-34.559
-33.076
-33.098
-34.323
-36.502
-39.438
-42.92
-46.768
-50.833
-54.962
-58.99
-62.797
-66.253
-69.206
-71.551
-73.22
-74.182
-74.448
-74.049
-73.023
-71.419
-69.309
-66.754
-63.818
-60.57
-57.071
-53.393
-49.612
-45.806
-42.045
-38.384
-34.86
-31.495
-28.298
-25.27
-22.407
-19.698
-17.127
-14.679
-12.346
-10.117
-7.981
-5.925
-3.934
-1.991
-0.079
1.815
3.703
5.596
7.499
9.421
11.366
13.34
15.348
17.397
19.498
21.661
23.898
26.217
28.631
31.149
33.777
36.52
39.382
42.366
45.482
48.733
52.118
55.633
59.273
63.027
66.884
70.828
74.831
78.863
82.895
86.898
90.857
94.758
98.586
102.323
105.954
109.47
112.879
116.2
119.443
122.618
125.735
128.808
131.879
134.99
138.169
141.437
144.796
148.234
151.751
155.349
159.003
162.668
166.262
169.678
172.835
175.654
178.055
179.953
181.232
181.781
181.523
180.399
178.369
175.402
171.454
166.474
160.467
153.483
145.613
136.989
127.723
117.922
107.713
97.239
86.657
76.113
65.717
55.547
45.686
36.22
27.254
18.904
11.228
4.242
-2.07
-7.756
-12.862
-17.43
-21.535
-25.278
-28.749
-32.021
-35.138
-38.11
-40.966
-43.748
-46.507
-49.304
-52.169
-55.107
-58.114
-61.174
-64.261
-67.349
-70.383
-73.287
-76.008
-78.508
-80.769
-82.793
-84.574
-86.099
-87.355
-88.333
-89.028
-89.444
-89.584
-89.451
-89.058
-88.425
-87.582
-86.574
-85.434
-84.184
-82.844
-81.424
-79.936
-78.393
-76.806
-75.178
-73.518
-71.834
-70.137
-68.441
-66.755
-65.086
-63.439
-61.815
-60.219
-58.656
-57.134
-55.658
-54.237
-52.878
-51.592
-50.391
-49.285
-48.28
-47.384
-46.6
-45.935
-45.392
-44.976
-44.689
-44.535
-44.521
-44.65
-44.929
-45.358
-45.937
-46.663
-47.534
-48.55
-49.711
-51.018
-52.471
-54.07
-55.816
-57.706
-59.735
-61.885
-64.122
-66.411
-68.713
-70.995
-73.224
-75.372
-77.402
-79.279
-80.968
-82.424
-83.611
-84.496
-85.034
-85.201
-84.991
-84.427
-83.595
-82.594
-81.523
-80.477
-79.517
-78.719
-78.201
-78.071
-78.437
-79.432
-81.119
-83.612
-87.151
-91.759
-97.263
-103.322
-109.204
-114.193
-117.858
-119.546
-118.464
-114.477
-107.835
-99.324
-90.78
-83.662
-78.73
-77.178
-80.016
-86.808
-96.258
-105.944
-111.673
-109.617
-96.679
-69.002
-22.708
42.711
124.34
218.346
318.683
422.012
531.573
647.152
761.891
865.203
936.819
955.308
913.594
811.713
658.907
479.272
293.509
122.842
-8.344
-92.414
-130.403
-132.662
-121.833
-110.334
-102.757
-98.278
-88.774
-73.78
-57.388
-42.945
-35.278
-35.168
-40.051
-48.28
-57.582
-65.25
-70.217
-71.975
-70.33
-66.137
-60.352
-53.633
-46.892
-41.145
-36.89
-34.369
-33.614
-34.29
-36.124
-38.925
-42.406
-46.292
-50.375
-54.474
-58.449
-62.209
-65.631
-68.572
-70.939
-72.668
-73.738
-74.159
-73.956
-73.164
-71.834
-70.034
-67.831
-65.286
-62.459
-59.409
-56.195
-52.886
-49.546
-46.234
-42.993
-39.851
-36.823
-33.911
-31.113
-28.418
-25.81
-23.269
-20.777
-18.321
-15.885
-13.457
-11.021
-8.557
-6.046
-3.47
-0.813
1.939
4.798
7.778
10.889
14.146
17.555
21.12
24.84
28.716
32.74
36.906
41.199
45.599
50.086
54.642
59.252
63.903
68.584
73.283
77.987
82.676
87.34
91.98
96.599
101.205
105.809
110.419
115.055
119.743
124.507
129.355
134.286
139.281
144.31
149.34
154.339
159.273
164.088
168.722
173.099
177.138
180.77
183.927
186.533
188.499
189.74
190.187
189.794
188.54
186.416
183.418
179.54
174.785
169.184
162.782
155.645
147.846
139.433
130.454
120.981
111.096
100.899
90.485
79.928
69.292
58.647
48.069
37.654
27.5
17.671
8.22
-0.814
-9.397
-17.457
-24.933
-31.787
-37.997
-43.562
-48.49
-52.776
-56.415
-59.435
-61.879
-63.815
-65.329
-66.475
-67.301
-67.853
-68.176
-68.341
-68.417
-68.448
-68.469
-68.504
-68.574
-68.705
-68.926
-69.232
-69.61
-70.031
-70.453
-70.857
-71.231
-71.563
-71.845
-72.061
-72.197
-72.254
-72.245
-72.178
-72.065
-71.91
-71.716
-71.504
-71.296
-71.118
-70.999
-70.958
-71.008
-71.159
-71.42
-71.796
-72.29
-72.895
-73.6
-74.396
-75.275
-76.227
-77.245
-78.317
-79.429
-80.567
-81.717
-82.866
-84.003
-85.115
-86.191
-87.222
-88.197
-89.111
-89.957
-90.728
-91.418
-92.021
-92.53
-92.941
-93.25
-93.451
-93.543
-93.524
-93.391
-93.146
-92.791
-92.327
-91.758
-91.089
-90.324
-89.47
-88.534
-87.523
-86.445
-85.307
-84.119
-82.888
-81.624
-80.336
-79.032
-77.722
-76.414
-75.117
-73.839
-72.588
-71.371
-70.196
-69.068
-67.994
-66.978
-66.026
-65.143
-64.331
-63.594
-62.933
-62.352
-61.85
-61.428
-61.084
-60.818
-60.626
-60.508
-60.459
-60.478
-60.561
-60.706
-60.91
-61.171
-61.488
-61.859
-62.282
-62.757
-63.282
-63.858
-64.484
-65.159
-65.883
-66.655
-67.476
-68.348
-69.27
-70.244
-71.27
-72.35
-73.487
-74.684
-75.942
-77.259
-78.635
-80.068
-81.559
-83.112
-84.727
-86.404
-88.14
-89.933
-91.776
-93.663
-95.578
-97.491
-99.366
-101.164
-102.848
-104.391
-105.758
-106.916
-107.829
-108.454
-108.759
-108.715
-108.292
-107.47
-106.234
-104.584
-102.546
-100.186
-97.606
-94.916
-92.235
-89.66
-87.264
-85.128
-83.356
-82.056
-81.32
-81.229
-81.792
-83.06
-85.184
-88.143
-91.753
-95.627
-99.073
-101.469
-102.432
-101.341
-97.409
-90.412
-80.448
-68.204
-55.264
-42.606
-30.819
-21.401
-15.795
-14.228
-15.047
-14.155
-6.629
9.853
32.563
58.193
86.602
120.61
170.848
248.107
355.673
492.459
647.139
801.771
937.617
1035.785
1081.451
1064.777
985.654
849.978
669.825
467.585
265.612
89.035
-39.195
-112.719
-135.976
-126.135
-106.736
-90.163
-80.834
-75.276
-65.517
-51.24
-35.687
-22.547
-16.521
-18.008
-24.613
-34.444
-44.751
-53.009
-58.372
-60.481
-59.424
-56.043
-51.168
-45.453
-39.783
-35.059
-31.685
-29.783
-29.269
-29.797
-31.097
-32.978
-35.188
-37.476
-39.681
-41.704
-43.47
-44.948
-46.079
-46.779
-47.034
-46.887
-46.397
-45.642
-44.689
-43.582
-42.382
-41.164
-39.974
-38.836
-37.754
-36.693
-35.65
-34.649
-33.704
-32.835
-32.025
-31.221
-30.38
-29.471
-28.463
-27.335
-26.063
-24.609
-22.966
-21.151
-19.193
-17.143
-15.027
-12.851
-10.622
-8.345
-6.032
-3.708
-1.381
0.954
3.301
5.666
8.05
10.453
12.886
15.377
17.955
20.654
23.495
26.489
29.645
32.975
36.49
40.195
44.084
48.143
52.358
56.711
61.188
65.768
70.417
75.097
79.773
84.411
88.99
93.491
97.894
102.176
106.316
110.298
114.126
117.813
121.363
124.782
128.078
131.261
134.37
137.442
140.502
143.566
146.629
149.677
152.704
155.704
158.657
161.53
164.259
166.759
168.962
170.806
172.226
173.158
173.495
173.132
171.986
169.994
167.12
163.346
158.647
152.989
146.379
138.855
130.49
121.402
111.689
101.445
90.77
79.781
68.629
57.483
46.499
35.795
25.48
15.648
6.4
-2.143
-9.905
-16.847
-22.961
-28.28
-32.831
-36.631
-39.711
-42.131
-43.97
-45.334
-46.329
-47.027
-47.492
-47.792
-47.995
-48.191
-48.446
-48.793
-49.249
-49.814
-50.485
-51.272
-52.175
-53.168
-54.22
-55.283
-56.306
-57.262
-58.133
-58.896
-59.532
-60.013
-60.321
-60.456
-60.427
-60.245
-59.921
-59.461
-58.875
-58.185
-57.418
-56.602
-55.768
-54.937
-54.123
-53.344
-52.611
-51.936
-51.328
-50.79
-50.318
-49.914
-49.577
-49.309
-49.112
-48.982
-48.915
-48.905
-48.949
-49.041
-49.18
-49.362
-49.585
-49.846
-50.144
-50.48
-50.852
-51.259
-51.7
-52.171
-52.668
-53.189
-53.731
-54.29
-54.863
-55.446
-56.035
-56.63
-57.226
-57.821
-58.413
-58.999
-59.577
-60.145
-60.701
-61.244
-61.771
-62.282
-62.775
-63.25
-63.705
-64.139
-64.551
-64.94
-65.304
-65.644
-65.957
-66.243
-66.503
-66.735
-66.941
-67.12
-67.272
-67.398
-67.498
-67.573
-67.624
-67.652
-67.658
-67.642
-67.607
-67.554
-67.483
-67.396
-67.295
-67.18
-67.053
-66.914
-66.766
-66.61
-66.447
-66.28
-66.11
-65.94
-65.772
-65.608
-65.45
-65.301
-65.161
-65.034
-64.921
-64.823
-64.742
-64.679
-64.638
-64.618
-64.623
-64.652
-64.707
-64.788
-64.897
-65.032
-65.194
-65.383
-65.598
-65.838
-66.104
-66.394
-66.707
-67.041
-67.395
-67.766
-68.152
-68.55
-68.955
-69.364
-69.774
-70.181
-70.58
-70.968
-71.342
-71.697
-72.032
-72.345
-72.634
-72.895
-73.128
-73.332
-73.507
-73.652
-73.766
-73.848
-73.902
-73.93
-73.936
-73.926
-73.903
-73.872
-73.837
-73.805
-73.782
-73.771
-73.772
-73.784
-73.813
-73.875
-73.985
-74.157
-74.401
-74.724
-75.137
-75.653
-76.281
-77.023
-77.872
-78.818
-79.862
-81.012
-82.283
-83.682
-85.19
-86.766
-88.361
-89.93
-91.427
-92.805
-93.999
-94.934
-95.558
-95.835
-95.754
-95.311
-94.476
-93.21
-91.481
-89.289
-86.692
-83.793
-80.709
-77.546
-74.402
-71.407
-68.745
-66.62
-65.211
-64.648
-64.988
-66.322
-68.864
-72.706
-77.755
-83.692
-89.861
-95.596
-100.431
-103.81
-104.982
-103.518
-99.385
-93.145
-86.289
-80.265
-75.944
-74.169
-75.769
-80.863
-88.651
-96.997
-102.093
-100.033
-87.428
-60.879
-17.094
46.775
130.204
228.568
336.153
446.382
557.91
675.171
795.365
909.676
1001.532
1046.078
1030.731
956.516
832.724
677.425
506.646
332.499
170.398
38.066
-51.151
-90.915
-87.653
-58.305
-20.153
11.71
30.494
34.891
26.963
14.373
2.142
-5.792
-8.271
-9.997
-13.501
-19.363
-26.558
-31.607
-33.013
-31.211
-27.066
-21.969
-16.84
-12.137
-8.495
-6.347
-5.811
-6.797
-9.04
-12.318
-16.458
-21.285
-26.575
-32.091
-37.655
-43.116
-48.344
-53.197
-57.516
-61.185
-64.139
-66.357
-67.843
-68.62
-68.717
-68.181
-67.081
-65.48
-63.443
-61.038
-58.328
-55.387
-52.293
-49.121
-45.942
-42.809
-39.756
-36.801
-33.956
-31.22
-28.59
-26.053
-23.595
-21.204
-18.87
-16.585
-14.343
-12.133
-9.941
-7.754
-5.561
-3.349
-1.109
1.165
3.481
5.843
8.256
10.724
13.247
15.832
18.483
21.207
24.009
26.896
29.871
32.938
36.099
39.354
42.703
46.141
49.663
53.263
56.935
60.67
64.459
68.293
72.162
76.055
79.961
83.867
87.759
91.62
95.432
99.178
102.839
106.394
109.825
113.113
116.239
119.189
121.947
124.498
126.825
128.909
130.729
132.268
133.514
134.455
135.086
135.404
135.413
135.129
134.567
133.738
132.647
131.295
129.671
127.771
125.589
123.117
120.36
117.321
113.998
110.4
106.531
102.382
97.941
93.177
88.052
82.552
76.678
70.444
63.891
57.062
50.011
42.812
35.524
28.199
20.89
13.634
6.469
-0.549
-7.358
-13.881
-20.023
-25.723
-30.937
-35.634
-39.817
-43.505
-46.732
-49.566
-52.065
-54.269
-56.219
-57.936
-59.438
-60.763
-61.947
-63.039
-64.103
-65.185
-66.32
-67.54
-68.852
-70.249
-71.709
-73.186
-74.637
-76.039
-77.374
-78.637
-79.832
-80.95
-81.989
-82.948
-83.814
-84.579
-85.238
-85.783
-86.215
-86.546
-86.791
-86.978
-87.133
-87.271
-87.405
-87.539
-87.673
-87.808
-87.94
-88.061
-88.167
-88.255
-88.321
-88.365
-88.385
-88.374
-88.326
-88.233
-88.084
-87.873
-87.594
-87.241
-86.811
-86.3
-85.709
-85.037
-84.286
-83.456
-82.547
-81.559
-80.492
-79.348
-78.129
-76.837
-75.477
-74.054
-72.574
-71.046
-69.481
-67.889
-66.283
-64.675
-63.08
-61.511
-59.983
-58.51
-57.104
-55.778
-54.546
-53.42
-52.414
-51.542
-50.817
-50.253
-49.859
-49.648
-49.627
-49.799
-50.166
-50.73
-51.492
-52.462
-53.646
-55.048
-56.673
-58.523
-60.594
-62.875
-65.341
-67.949
-70.656
-73.415
-76.181
-78.915
-81.573
-84.109
-86.477
-88.616
-90.468
-91.983
-93.106
-93.787
-93.997
-93.733
-93.041
-92.017
-90.77
-89.403
-88.002
-86.656
-85.483
-84.621
-84.218
-84.403
-85.247
-86.86
-89.446
-93.1
-97.76
-103.136
-108.571
-113.41
-117.234
-119.503
-119.512
-116.859
-111.477
-103.895
-95.651
-88.093
-81.739
-77.437
-76.262
-78.332
-83.19
-88.153
-87.317
-77.157
-56.474
-25.49
12.497
59.315
120.385
200.058
303.712
429.115
567.726
711.045
846.108
960.056
1043.224
1083.306
1070.709
1003.77
883.575
719.844
533.014
344.66
179.305
58.037
-12.368
-36.981
-30.58
-12.283
2.733
8.807
6.127
-2.933
-12.353
-20.409
-27.086
-31.163
-36.267
-43.75
-52.746
-63.246
-72.031
-76.959
-78.277
-76.057
-71.304
-65.221
-58.262
-51.12
-44.733
-39.541
-35.712
-33.248
-31.901
-31.488
-31.9
-32.946
-34.38
-35.997
-37.63
-39.16
-40.525
-41.628
-42.383
-42.736
-42.649
-42.156
-41.312
-40.161
-38.769
-37.198
-35.518
-33.817
-32.179
-30.664
-29.333
-28.233
-27.391
-26.835
-26.557
-26.511
-26.653
-26.915
-27.231
-27.556
-27.84
-28.032
-28.094
-27.985
-27.673
-27.145
-26.383
-25.37
-24.103
-22.58
-20.822
-18.873
-16.767
-14.535
-12.198
-9.766
-7.242
-4.632
-1.926
0.893
3.841
6.933
10.18
13.583
17.143
20.864
24.749
28.801
33.023
37.407
41.947
46.636
51.457
56.395
61.428
66.526
71.668
76.844
82.049
87.284
92.563
97.895
103.3
108.81
114.438
120.19
126.064
132.041
138.107
144.238
150.395
156.539
162.616
168.552
174.266
179.669
184.643
189.08
192.868
195.878
198.019
199.215
199.4
198.538
196.601
193.574
189.473
184.326
178.175
171.087
163.144
154.442
145.114
135.284
125.072
114.611
104.008
93.355
82.745
72.247
61.918
51.812
41.963
32.394
23.13
14.178
5.533
-2.815
-10.904
-18.76
-26.401
-33.845
-41.1
-48.165
-55.041
-61.717
-68.173
-74.391
-80.352
-86.033
-91.418
-96.489
-101.221
-105.591
-109.571
-113.138
-116.281
-118.993
-121.27
-123.118
-124.54
-125.55
-126.167
-126.411
-126.299
-125.852
-125.089
-124.031
-122.701
-121.124
-119.325
-117.33
-115.162
-112.844
-110.4
-107.852
-105.224
-102.535
-99.806
-97.055
-94.304
-91.571
-88.877
-86.239
-83.675
-81.201
-78.831
-76.579
-74.456
-72.474
-70.639
-68.96
-67.443
-66.093
-64.913
-63.906
-63.072
-62.411
-61.921
-61.6
-61.445
-61.45
-61.611
-61.921
-62.373
-62.96
-63.675
-64.508
-65.451
-66.492
-67.624
-68.834
-70.112
-71.448
-72.831
-74.251
-75.697
-77.16
-78.63
-80.098
-81.555
-82.993
-84.404
-85.78
-87.114
-88.399
-89.629
-90.798
-91.902
-92.935
-93.894
-94.775
-95.575
-96.291
-96.921
-97.463
-97.916
-98.278
-98.549
-98.73
-98.82
-98.822
-98.736
-98.565
-98.312
-97.979
-97.569
-97.085
-96.532
-95.912
-95.23
-94.49
-93.697
-92.857
-91.976
-91.06
-90.118
-89.159
-88.192
-87.227
-86.275
-85.348
-84.456
-83.609
-82.819
-82.094
-81.443
-80.878
-80.406
-80.039
-79.787
-79.66
-79.666
-79.813
-80.106
-80.549
-81.141
-81.883
-82.773
-83.816
-85.017
-86.383
-87.92
-89.631
-91.514
-93.562
-95.757
-98.067
-100.456
-102.885
-105.308
-107.686
-109.979
-112.145
-114.142
-115.916
-117.404
-118.545
-119.28
-119.558
-119.347
-118.637
-117.457
-115.874
-113.98
-111.873
-109.641
-107.388
-105.229
-103.306
-101.765
-100.748
-100.392
-100.866
-102.406
-105.148
-109.017
-113.713
-118.676
-123.299
-127.088
-129.498
-129.753
-127.296
-122.164
-114.997
-107.14
-100.036
-94.486
-91.1
-90.829
-94.206
-100.53
-107.757
-112.429
-110.608
-99.143
-75.142
-35.192
24.141
103.401
199.034
306.107
418.579
533.632
654.779
782.231
909.196
1024.082
1105.89
1133.304
1098.922
1001.659
849.815
666.403
471.038
286.906
141.569
44.308
-4.052
-14.115
-11.716
-10.813
-15.98
-26.116
-30.619
-26.794
-19.032
-11.223
-8.68
-13.016
-21.97
-33.593
-46.046
-57.246
-65.645
-70.506
-71.609
-69.441
-64.995
-59.104
-52.432
-45.824
-40.099
-35.7
-32.828
-31.394
-31.092
-31.713
-33.091
-35.018
-37.295
-39.755
-42.265
-44.751
-47.17
-49.453
-51.532
-53.36
-54.894
-56.129
-57.084
-57.789
-58.288
-58.622
-58.838
-58.983
-59.092
-59.188
-59.276
-59.339
-59.365
-59.347
-59.273
-59.121
-58.873
-58.503
-57.983
-57.295
-56.417
-55.329
-54.017
-52.465
-50.672
-48.648
-46.416
-44.015
-41.475
-38.816
-36.06
-33.223
-30.319
-27.359
-24.344
-21.266
-18.116
-14.888
-11.575
-8.171
-4.664
-1.037
2.727
6.653
10.757
15.047
19.531
24.209
29.079
34.134
39.361
44.739
50.246
55.862
61.565
67.333
73.142
78.964
84.771
90.533
96.222
101.808
107.263
112.559
117.668
122.561
127.215
131.603
135.703
139.49
142.94
146.031
148.741
151.051
152.945
154.404
155.417
155.972
156.061
155.68
154.824
153.494
151.692
149.424
146.697
143.522
139.91
135.878
131.442
126.621
121.437
115.913
110.074
103.945
97.554
90.929
84.101
77.099
69.955
62.7
55.368
47.989
40.596
33.222
25.898
18.654
11.521
4.527
-2.3
-8.933
-15.348
-21.523
-27.437
-33.071
-38.407
-43.433
-48.135
-52.503
-56.53
-60.211
-63.543
-66.524
-69.156
-71.443
-73.389
-75.004
-76.294
-77.272
-77.95
-78.342
-78.465
-78.335
-77.972
-77.395
-76.624
-75.681
-74.588
-73.367
-72.041
-70.631
-69.161
-67.652
-66.127
-64.607
-63.111
-61.66
-60.272
-58.964
-57.751
-56.647
-55.665
-54.816
-54.108
-53.549
-53.144
-52.897
-52.812
-52.889
-53.13
-53.534
-54.098
-54.819
-55.693
-56.713
-57.871
-59.157
-60.557
-62.059
-63.649
-65.312
-67.035
-68.803
-70.603
-72.42
-74.244
-76.062
-77.861
-79.627
-81.342
-82.992
-84.571
-86.075
-87.507
-88.876
-90.189
-91.453
-92.684
-93.888
-95.068
-96.223
-97.335
-98.389
-99.38
-100.31
-101.192
-102.04
-102.853
-103.627
-104.351
-105.002
-105.562
-106.01
-106.313
-106.453
-106.434
-106.272
-106.018
-105.729
-105.44
-105.161
-104.876
-104.557
-104.194
-103.779
-103.307
-102.783
-102.208
-101.588
-100.952
-100.308
-99.633
-98.893
-98.002
-96.876
-95.467
-93.781
-91.891
-89.897
-87.888
-85.939
-84.102
-82.442
-81.059
-80.043
-79.467
-79.432
-79.989
-81.262
-83.527
-86.832
-91.017
-95.707
-100.088
-103.374
-105.075
-104.474
-100.767
-93.922
-84.267
-72.69
-61.264
-51.603
-44.621
-41.745
-43.916
-50.304
-59.433
-68.699
-73.173
-68.583
-51.488
-17
37.449
110.428
200.39
303.981
418.178
543.604
677.431
811.819
932.38
1021.677
1067.374
1060.426
1002.683
899.991
755.029
582.123
397.071
219.986
80.246
-9.481
-49.256
-50.546
-38.772
-28.893
-25.073
-25.353
-20.833
-9.37
4.791
17.34
23.606
22.542
16.318
6.904
-3.66
-13.444
-21.018
-25.552
-26.934
-25.632
-22.503
-18.353
-13.87
-9.832
-6.973
-5.682
-6.042
-7.913
-10.987
-14.999
-19.754
-25.009
-30.513
-36.067
-41.498
-46.675
-51.505
-55.871
-59.65
-62.76
-65.15
-66.808
-67.758
-68.032
-67.672
-66.739
-65.301
-63.424
-61.181
-58.637
-55.857
-52.911
-49.866
-46.788
-43.736
-40.755
-37.872
-35.103
-32.453
-29.919
-27.494
-25.165
-22.916
-20.734
-18.607
-16.525
-14.477
-12.451
-10.434
-8.411
-6.368
-4.294
-2.178
-0.011
2.217
4.512
6.881
9.33
11.863
14.486
17.206
20.029
22.962
26.007
29.17
32.452
35.854
39.375
43.013
46.763
50.619
54.573
58.617
62.739
66.928
71.17
75.45
79.752
84.058
88.35
92.607
96.811
100.938
104.969
108.881
112.651
116.259
119.68
122.895
125.882
128.62
131.089
133.271
135.148
136.703
137.922
138.79
139.296
139.43
139.184
138.55
137.526
136.107
134.296
132.093
129.502
126.53
123.184
119.475
115.415
111.017
106.297
101.272
95.961
90.384
84.564
78.521
72.281
65.867
59.305
52.621
45.841
38.992
32.099
25.19
18.29
11.424
4.619
-2.102
-8.716
-15.199
-21.531
-27.691
-33.661
-39.424
-44.962
-50.264
-55.315
-60.105
-64.625
-68.867
-72.826
-76.497
-79.879
-82.97
-85.772
-88.287
-90.52
-92.475
-94.16
-95.583
-96.753
-97.682
-98.379
-98.858
-99.132
-99.214
-99.118
-98.86
-98.452
-97.912
-97.253
-96.49
-95.638
-94.712
-93.725
-92.691
-91.623
-90.533
-89.433
-88.333
-87.245
-86.177
-85.137
-84.135
-83.175
-82.265
-81.408
-80.61
-79.873
-79.2
-78.593
-78.052
-77.577
-77.168
-76.823
-76.541
-76.318
-76.152
-76.039
-75.975
-75.955
-75.976
-76.031
-76.117
-76.228
-76.36
-76.506
-76.661
-76.822
-76.982
-77.138
-77.284
-77.418
-77.535
-77.632
-77.707
-77.757
-77.78
-77.776
-77.743
-77.679
-77.585
-77.461
-77.307
-77.124
-76.912
-76.675
-76.413
-76.129
-75.827
-75.509
-75.179
-74.84
-74.497
-74.153
-73.812
-73.48
-73.16
-72.856
-72.575
-72.321
-72.098
-71.912
-71.766
-71.663
-71.607
-71.6
-71.644
-71.739
-71.886
-72.086
-72.338
-72.642
-73
-73.409
-73.87
-74.383
-74.947
-75.56
-76.218
-76.915
-77.648
-78.408
-79.191
-79.988
-80.791
-81.593
-82.386
-83.166
-83.928
-84.665
-85.367
-86.021
-86.618
-87.155
-87.632
-88.048
-88.406
-88.713
-88.982
-89.238
-89.504
-89.794
-90.112
-90.453
-90.815
-91.196
-91.597
-92.019
-92.449
-92.873
-93.281
-93.668
-94.026
-94.341
-94.575
-94.673
-94.587
-94.291
-93.786
-93.093
-92.234
-91.236
-90.134
-88.976
-87.83
-86.752
-85.771
-84.895
-84.125
-83.474
-82.979
-82.7
-82.677
-82.917
-83.397
-84.068
-84.876
-85.758
-86.636
-87.404
-87.958
-88.24
-88.239
-88.006
-87.596
-87.038
-86.364
-85.619
-84.884
-84.291
-83.977
-84.05
-84.676
-86.098
-88.465
-91.828
-96.014
-100.51
-104.767
-108.32
-110.591
-110.944
-108.989
-104.64
-98.496
-91.97
-86.483
-83.154
-82.971
-86.72
-94.703
-106.492
-120.156
-132.136
-138.463
-135.387
-119.2
-86.409
-34.09
40.073
134.726
244.102
362.091
482.157
600.79
720.26
838.804
948.253
1036.245
1082.82
1071.579
1000.321
873.149
702.115
509.359
312.672
133.401
-3.656
-90.479
-125.57
-119.865
-96.232
-66.008
-39.42
-19.607
-2.888
6.373
10.173
10.259
5.717
1.25
-4.068
-11.662
-19.533
-27.476
-33.369
-35.294
-33.889
-29.917
-24.453
-18.682
-13.348
-9.165
-6.632
-5.898
-6.836
-9.12
-12.487
-16.72
-21.591
-26.881
-32.365
-37.867
-43.248
-48.399
-53.188
-57.472
-61.15
-64.157
-66.475
-68.117
-69.114
-69.506
-69.348
-68.71
-67.656
-66.246
-64.545
-62.613
-60.519
-58.333
-56.124
-53.956
-51.873
-49.905
-48.066
-46.357
-44.77
-43.29
-41.9
-40.572
-39.288
-38.03
-36.781
-35.525
-34.245
-32.919
-31.529
-30.055
-28.479
-26.785
-24.96
-22.99
-20.866
-18.579
-16.122
-13.487
-10.67
-7.662
-4.458
-1.051
2.563
6.385
10.418
14.659
19.105
23.75
28.587
33.604
38.789
44.128
49.605
55.202
60.9
66.678
72.513
78.383
84.264
90.129
95.952
101.707
107.367
112.904
118.291
123.499
128.503
133.276
137.791
142.025
145.952
149.549
152.796
155.67
158.155
160.232
161.887
163.108
163.882
164.204
164.067
163.468
162.407
160.885
158.907
156.48
153.613
150.316
146.602
142.487
137.986
133.119
127.906
122.367
116.527
110.409
104.038
97.441
90.645
83.676
76.564
69.336
62.021
54.649
47.246
39.843
32.466
25.143
17.901
10.764
3.757
-3.098
-9.778
-16.266
-22.542
-28.59
-34.397
-39.949
-45.235
-50.246
-54.974
-59.414
-63.559
-67.408
-70.958
-74.209
-77.163
-79.823
-82.192
-84.276
-86.081
-87.614
-88.884
-89.899
-90.67
-91.208
-91.523
-91.627
-91.534
-91.257
-90.807
-90.199
-89.446
-88.561
-87.556
-86.445
-85.239
-83.949
-82.587
-81.165
-79.693
-78.182
-76.642
-75.084
-73.519
-71.958
-70.412
-68.892
-67.409
-65.974
-64.597
-63.289
-62.058
-60.911
-59.857
-58.901
-58.052
-57.314
-56.695
-56.203
-55.842
-55.619
-55.537
-55.598
-55.8
-56.141
-56.616
-57.224
-57.97
-58.858
-59.89
-61.072
-62.404
-63.883
-65.501
-67.237
-69.055
-70.922
-72.797
-74.643
-76.435
-78.139
-79.723
-81.156
-82.385
-83.36
-84.04
-84.373
-84.323
-83.867
-82.996
-81.758
-80.24
-78.534
-76.733
-74.909
-73.126
-71.495
-70.121
-69.106
-68.595
-68.672
-69.464
-71.221
-73.993
-77.652
-81.932
-86.212
-89.863
-92.501
-93.507
-92.091
-88.115
-81.796
-73.857
-65.986
-59.465
-54.936
-53.481
-56.097
-62.464
-71.381
-80.546
-86.019
-84.214
-72.227
-46.443
-3.007
58.762
136.032
225.229
320.944
420.765
528.93
645.829
764.283
871.934
947.025
968.67
931.033
837.881
701.299
541.728
375.677
217.425
85.22
-7.82
-56.737
-64.856
-48.005
-24.962
-6.849
2.657
6.916
11.162
16.124
19.993
20.143
14.37
3.67
-9.819
-23.904
-35.843
-44.365
-49.257
-50.48
-48.767
-45.057
-40.07
-34.753
-30.113
-26.64
-24.567
-23.95
-24.548
-26.182
-28.723
-31.94
-35.621
-39.609
-43.753
-47.959
-52.164
-56.247
-60.078
-63.531
-66.48
-68.861
-70.648
-71.828
-72.412
-72.422
-71.889
-70.868
-69.412
-67.578
-65.421
-62.994
-60.348
-57.543
-54.638
-51.687
-48.746
-45.846
-43.003
-40.225
-37.51
-34.853
-32.245
-29.67
-27.11
-24.549
-21.974
-19.373
-16.736
-14.05
-11.301
-8.476
-5.562
-2.549
0.57
3.802
7.152
10.625
14.223
17.949
21.801
25.779
29.884
34.113
38.465
42.933
47.511
52.188
56.958
61.807
66.722
71.689
76.691
81.712
86.737
91.745
96.717
101.63
106.46
111.183
115.774
120.207
124.456
128.496
132.302
135.85
139.123
142.098
144.756
147.072
149.022
150.585
151.75
152.504
152.836
152.746
152.234
151.315
150.011
148.341
146.315
143.938
141.207
138.124
134.695
130.923
126.813
122.371
117.598
112.503
107.103
101.401
95.395
89.063
82.367
75.289
67.84
60.041
51.931
43.561
34.979
26.255
17.475
8.713
0.042
-8.48
-16.813
-24.898
-32.662
-40.019
-46.862
-53.113
-58.727
-63.673
-67.938
-71.532
-74.476
-76.821
-78.656
-80.047
-81.052
-81.716
-82.063
-82.135
-81.991
-81.694
-81.323
-80.941
-80.587
-80.302
-80.116
-80.042
-80.081
-80.208
-80.369
-80.532
-80.677
-80.796
-80.895
-80.974
-81.023
-81.038
-81.012
-80.941
-80.826
-80.664
-80.45
-80.191
-79.899
-79.595
-79.316
-79.083
-78.912
-78.81
-78.779
-78.821
-78.935
-79.118
-79.358
-79.649
-79.983
-80.354
-80.761
-81.196
-81.65
-82.113
-82.572
-83.016
-83.436
-83.824
-84.174
-84.478
-84.733
-84.935
-85.086
-85.183
-85.225
-85.211
-85.14
-85.01
-84.821
-84.574
-84.268
-83.904
-83.485
-83.013
-82.492
-81.926
-81.318
-80.675
-80.001
-79.303
-78.585
-77.855
-77.118
-76.38
-75.648
-74.927
-74.223
-73.541
-72.888
-72.266
-71.682
-71.138
-70.638
-70.185
-69.781
-69.427
-69.125
-68.876
-68.681
-68.54
-68.452
-68.419
-68.439
-68.512
-68.638
-68.815
-69.041
-69.315
-69.635
-69.998
-70.402
-70.842
-71.316
-71.821
-72.351
-72.904
-73.476
-74.061
-74.657
-75.258
-75.861
-76.461
-77.056
-77.641
-78.214
-78.77
-79.308
-79.825
-80.32
-80.789
-81.232
-81.647
-82.033
-82.388
-82.711
-83
-83.254
-83.472
-83.652
-83.792
-83.893
-83.951
-83.968
-83.941
-83.872
-83.761
-83.606
-83.409
-83.17
-82.89
-82.57
-82.213
-81.818
-81.387
-80.923
-80.426
-79.9
-79.344
-78.76
-78.148
-77.511
-76.848
-76.161
-75.449
-74.713
-73.954
-73.172
-72.37
-71.548
-70.708
-69.852
-68.983
-68.106
-67.222
-66.337
-65.453
-64.575
-63.708
-62.859
-62.031
-61.231
-60.464
-59.738
-59.06
-58.439
-57.881
-57.393
-56.977
-56.64
-56.389
-56.229
-56.163
-56.195
-56.325
-56.56
-56.914
-57.397
-58.011
-58.759
-59.639
-60.651
-61.802
-63.1
-64.541
-66.122
-67.837
-69.684
-71.67
-73.788
-76.027
-78.35
-80.702
-83.031
-85.294
-87.446
-89.438
-91.215
-92.702
-93.834
-94.569
-94.869
-94.701
-94.019
-92.789
-91.013
-88.727
-86.018
-82.99
-79.726
-76.325
-72.921
-69.681
-66.8
-64.483
-62.879
-62.156
-62.57
-64.244
-67.131
-70.952
-75.103
-78.97
-82.089
-83.917
-83.732
-81.115
-76.182
-69.698
-63.285
-58.527
-56.285
-57.239
-62.192
-71.327
-83.664
-96.838
-106.683
-108.677
-99.583
-76.333
-35.582
25.264
107.739
209.491
323.491
442.725
560.972
676.838
794.011
909.401
1014.41
1093.484
1123.969
1095.159
1008.985
875.354
712.754
537.831
362.637
202.6
75.924
-6.783
-42.726
-41.508
-24.947
-7.686
3.819
9.617
16.658
26.228
35.368
41.415
40.813
33.391
21.668
7.674
-6.025
-17.105
-24.774
-28.796
-29.457
-27.716
-24.465
-20.439
-16.55
-13.661
-12.189
-12.277
-13.793
-16.356
-19.673
-23.507
-27.588
-31.674
-35.564
-39.1
-42.175
-44.722
-46.665
-47.938
-48.497
-48.32
-47.438
-45.908
-43.824
-41.319
-38.52
-35.551
-32.529
-29.542
-26.668
-23.98
-21.537
-19.374
-17.513
-15.945
-14.64
-13.577
-12.72
-12.025
-11.435
-10.864
-10.235
-9.489
-8.574
-7.458
-6.117
-4.528
-2.675
-0.569
1.771
4.311
7
9.81
12.719
15.704
18.744
21.812
24.884
27.953
31.02
34.088
37.164
40.249
43.347
46.476
49.657
52.913
56.274
59.755
63.365
67.114
71.003
75.034
79.204
83.502
87.91
92.412
96.992
101.634
106.319
111.027
115.733
120.414
125.045
129.605
134.072
138.423
142.64
146.702
150.589
154.28
157.757
160.998
163.982
166.689
169.098
171.19
172.948
174.359
175.412
176.098
176.407
176.33
175.854
174.972
173.685
171.993
169.9
167.416
164.556
161.347
157.825
154.023
149.964
145.668
141.143
136.4
131.453
126.313
120.992
115.498
109.834
104.016
98.066
91.998
85.815
79.5
73.009
66.319
59.424
52.331
45.065
37.651
30.122
22.537
14.974
7.518
0.251
-6.769
-13.508
-19.924
-25.964
-31.547
-36.566
-40.941
-44.613
-47.536
-49.678
-51.012
-51.533
-51.294
-50.394
-48.947
-47.069
-44.843
-42.324
-39.573
-36.656
-33.665
-30.703
-27.852
-25.187
-22.783
-20.712
-19.059
-17.876
-17.158
-16.848
-16.87
-17.137
-17.598
-18.223
-18.978
-19.835
-20.76
-21.719
-22.696
-23.672
-24.619
-25.495
-26.245
-26.829
-27.247
-27.53
-27.725
-27.888
-28.055
-28.25
-28.498
-28.814
-29.207
-29.676
-30.209
-30.791
-31.42
-32.103
-32.856
-33.691
-34.604
-35.58
-36.599
-37.63
-38.65
-39.641
-40.579
-41.449
-42.24
-42.948
-43.576
-44.131
-44.614
-45.023
-45.354
-45.604
-45.771
-45.858
-45.867
-45.804
-45.675
-45.488
-45.254
-44.981
-44.678
-44.354
-44.013
-43.66
-43.303
-42.947
-42.598
-42.264
-41.953
-41.671
-41.426
-41.226
-41.077
-40.988
-40.962
-41.005
-41.12
-41.312
-41.582
-41.932
-42.365
-42.881
-43.48
-44.161
-44.923
-45.765
-46.683
-47.674
-48.732
-49.852
-51.029
-52.254
-53.523
-54.826
-56.156
-57.507
-58.87
-60.238
-61.603
-62.958
-64.295
-65.607
-66.886
-68.125
-69.317
-70.457
-71.536
-72.551
-73.496
-74.367
-75.159
-75.868
-76.493
-77.03
-77.477
-77.835
-78.102
-78.279
-78.367
-78.369
-78.288
-78.128
-77.892
-77.587
-77.216
-76.786
-76.303
-75.772
-75.201
-74.595
-73.961
-73.304
-72.633
-71.951
-71.265
-70.582
-69.906
-69.243
-68.598
-67.975
-67.379
-66.814
-66.285
-65.795
-65.349
-64.949
-64.598
-64.298
-64.051
-63.858
-63.719
-63.634
-63.602
-63.622
-63.692
-63.809
-63.971
-64.175
-64.417
-64.694
-65.004
-65.341
-65.702
-66.084
-66.482
-66.892
-67.313
-67.739
-68.169
-68.598
-69.025
-69.446
-69.861
-70.265
-70.657
-71.034
-71.392
-71.731
-72.049
-72.343
-72.612
-72.855
-73.072
-73.262
-73.428
-73.568
-73.683
-73.775
-73.844
-73.892
-73.921
-73.93
-73.921
-73.896
-73.858
-73.809
-73.753
-73.693
-73.633
-73.58
-73.538
-73.513
-73.506
-73.521
-73.56
-73.627
-73.727
-73.863
-74.038
-74.256
-74.525
-74.854
-75.25
-75.717
-76.254
-76.857
-77.523
-78.256
-79.061
-79.944
-80.913
-81.976
-83.152
-84.466
-85.941
-87.585
-89.39
-91.34
-93.42
-95.626
-97.951
-100.389
-102.92
-105.517
-108.154
-110.802
-113.416
-115.926
-118.235
-120.222
-121.776
-122.824
-123.31
-123.202
-122.463
-121.053
-118.951
-116.154
-112.689
-108.58
-103.86
-98.589
-92.871
-86.877
-80.806
-74.869
-69.267
-64.192
-59.841
-56.377
-53.939
-52.623
-52.524
-53.808
-56.555
-60.655
-65.758
-71.273
-76.587
-81.152
-84.335
-85.285
-83.36
-78.5
-71.433
-63.569
-56.143
-50.272
-47.219
-47.979
-53.315
-61.521
-67.651
-68.284
-61.423
-47.064
-28.861
-2.748
41.764
112.083
214.744
344.54
484.281
621.788
749.506
863.612
963.883
1043.741
1088.071
1082.279
1020.503
903.334
740.186
551.609
356.038
176.431
39.038
-47.446
-81.975
-76.774
-56.147
-32.06
-14.089
-4.08
3.251
4.717
2.281
-2.631
-11.298
-19.444
-27.811
-37.723
-47.378
-56.636
-63.591
-66.514
-65.981
-62.71
-57.73
-52.126
-46.601
-41.878
-38.43
-36.398
-35.672
-35.936
-36.955
-38.563
-40.552
-42.712
-44.827
-46.711
-48.259
-49.422
-50.115
-50.256
-49.786
-48.679
-47.006
-44.892
-42.451
-39.794
-37.011
-34.188
-31.425
-28.826
-26.48
-24.453
-22.79
-21.52
-20.678
-20.282
-20.32
-20.746
-21.454
-22.323
-23.254
-24.165
-24.99
-25.672
-26.149
-26.365
-26.29
-25.908
-25.213
-24.2
-22.856
-21.18
-19.192
-16.933
-14.471
-11.866
-9.162
-6.388
-3.564
-0.704
2.179
5.081
8.018
11.007
14.064
17.198
20.412
23.712
27.108
30.616
34.259
38.05
41.997
46.106
50.374
54.795
59.356
64.036
68.803
73.62
78.445
83.234
87.955
92.577
97.075
101.437
105.645
109.685
113.548
117.214
120.67
123.906
126.907
129.66
132.167
134.439
136.51
138.428
140.216
141.89
143.454
144.89
146.188
147.325
148.256
148.953
149.381
149.505
149.311
148.786
147.898
146.604
144.827
142.47
139.471
135.783
131.373
126.234
120.351
113.739
106.459
98.572
90.145
81.255
71.955
62.3
52.377
42.286
32.16
22.164
12.424
3.052
-5.841
-14.167
-21.826
-28.748
-34.918
-40.333
-45.001
-48.944
-52.163
-54.671
-56.517
-57.761
-58.488
-58.815
-58.828
-58.604
-58.227
-57.771
-57.321
-56.949
-56.685
-56.546
-56.545
-56.69
-56.996
-57.475
-58.112
-58.884
-59.76
-60.692
-61.65
-62.615
-63.562
-64.47
-65.315
-66.077
-66.754
-67.356
-67.889
-68.361
-68.775
-69.135
-69.457
-69.76
-70.066
-70.396
-70.767
-71.186
-71.663
-72.203
-72.809
-73.484
-74.223
-75.015
-75.854
-76.731
-77.64
-78.575
-79.524
-80.475
-81.414
-82.33
-83.209
-84.04
-84.813
-85.517
-86.145
-86.691
-87.149
-87.519
-87.798
-87.984
-88.077
-88.074
-87.976
-87.78
-87.486
-87.094
-86.606
-86.024
-85.352
-84.595
-83.76
-82.86
-81.906
-80.907
-79.872
-78.805
-77.713
-76.612
-75.514
-74.436
-73.394
-72.411
-71.515
-70.746
-70.14
-69.721
-69.504
-69.486
-69.667
-70.05
-70.633
-71.422
-72.405
-73.569
-74.904
-76.406
-78.061
-79.842
-81.682
-83.484
-85.158
-86.632
-87.856
-88.802
-89.438
-89.733
-89.671
-89.242
-88.458
-87.33
-85.844
-83.977
-81.729
-79.14
-76.328
-73.474
-70.754
-68.309
-66.248
-64.668
-63.701
-63.48
-64.114
-65.68
-68.195
-71.722
-76.458
-82.497
-89.727
-97.784
-105.939
-113.395
-119.561
-123.805
-125.322
-123.654
-118.825
-111.509
-103.351
-96.053
-90.71
-88.279
-89.656
-94.984
-103.365
-112.487
-118.344
-116.704
-103.831
-76.157
-30.32
36.578
123.973
227.376
341.457
459.671
579.952
705.301
831.238
948.172
1040.592
1086.042
1074.451
1008.076
895.354
752.065
591.392
423.025
261.609
125.959
29.935
-20.073
-31.28
-24.18
-14.164
-9.514
-10.774
-10.318
-6.137
-0.492
3.993
2.845
-4.731
-16.337
-30.102
-43.517
-54.133
-61.157
-64.31
-63.636
-59.987
-54.299
-47.33
-40.102
-33.704
-28.699
-25.361
-23.738
-23.563
-24.618
-26.742
-29.661
-33.073
-36.738
-40.441
-44.044
-47.48
-50.643
-53.418
-55.684
-57.314
-58.247
-58.472
-57.999
-56.868
-55.14
-52.895
-50.249
-47.342
-44.297
-41.219
-38.182
-35.227
-32.385
-29.668
-27.092
-24.682
-22.443
-20.367
-18.445
-16.653
-14.962
-13.335
-11.716
-10.03
-8.218
-6.233
-4.049
-1.662
0.92
3.671
6.572
9.609
12.773
16.062
19.475
23.012
26.674
30.465
34.383
38.416
42.554
46.783
51.095
55.494
59.985
64.577
69.27
74.049
78.897
83.798
88.741
93.717
98.714
103.71
108.688
113.632
118.54
123.416
128.253
133.038
137.758
142.408
147.001
151.57
156.136
160.701
165.246
169.738
174.149
178.445
182.581
186.498
190.114
193.352
196.155
198.479
200.284
201.515
202.097
201.937
200.965
199.144
196.46
192.919
188.527
183.312
177.322
170.641
163.38
155.633
147.477
138.972
130.179
121.171
112.042
102.896
93.813
84.858
76.084
67.535
59.257
51.28
43.608
36.22
29.078
22.159
15.459
8.983
2.737
-3.281
-9.079
-14.667
-20.042
-25.197
-30.13
-34.84
-39.329
-43.594
-47.621
-51.384
-54.856
-58.021
-60.872
-63.41
-65.638
-67.56
-69.182
-70.517
-71.581
-72.394
-72.971
-73.324
-73.467
-73.416
-73.189
-72.808
-72.294
-71.666
-70.942
-70.137
-69.269
-68.352
-67.399
-66.42
-65.424
-64.42
-63.417
-62.425
-61.453
-60.508
-59.597
-58.727
-57.903
-57.13
-56.41
-55.747
-55.141
-54.591
-54.099
-53.663
-53.281
-52.952
-52.673
-52.442
-52.255
-52.11
-52.002
-51.929
-51.885
-51.869
-51.875
-51.901
-51.942
-51.997
-52.061
-52.134
-52.211
-52.292
-52.373
-52.454
-52.532
-52.605
-52.673
-52.734
-52.787
-52.83
-52.864
-52.888
-52.903
-52.907
-52.902
-52.887
-52.863
-52.831
-52.791
-52.744
-52.69
-52.63
-52.565
-52.496
-52.424
-52.349
-52.273
-52.195
-52.118
-52.041
-51.965
-51.891
-51.819
-51.75
-51.685
-51.623
-51.566
-51.515
-51.47
-51.433
-51.403
-51.384
-51.375
-51.377
-51.393
-51.424
-51.471
-51.536
-51.62
-51.725
-51.853
-52.006
-52.185
-52.392
-52.628
-52.894
-53.192
-53.523
-53.888
-54.288
-54.722
-55.193
-55.699
-56.242
-56.821
-57.434
-58.083
-58.765
-59.48
-60.226
-61.001
-61.803
-62.628
-63.476
-64.341
-65.221
-66.111
-67.009
-67.908
-68.805
-69.696
-70.574
-71.436
-72.276
-73.089
-73.87
-74.616
-75.321
-75.981
-76.593
-77.151
-77.654
-78.098
-78.48
-78.799
-79.051
-79.236
-79.353
-79.4
-79.379
-79.288
-79.129
-78.904
-78.613
-78.259
-77.845
-77.374
-76.849
-76.275
-75.655
-74.995
-74.299
-73.572
-72.821
-72.05
-71.265
-70.473
-69.677
-68.884
-68.098
-67.326
-66.571
-65.837
-65.129
-64.449
-63.802
-63.19
-62.615
-62.079
-61.584
-61.131
-60.72
-60.353
-60.029
-59.747
-59.508
-59.309
-59.151
-59.03
-58.944
-58.893
-58.873
-58.881
-58.915
-58.971
-59.047
-59.141
-59.247
-59.365
-59.491
-59.623
-59.757
-59.892
-60.025
-60.156
-60.282
-60.403
-60.519
-60.628
-60.731
-60.828
-60.919
-61.005
-61.086
-61.164
-61.238
-61.31
-61.381
-61.453
-61.526
-61.602
-61.681
-61.765
-61.856
-61.955
-62.063
-62.18
-62.309
-62.451
-62.607
-62.779
-62.967
-63.173
-63.401
-63.654
-63.934
-64.245
-64.591
-64.976
-65.402
-65.874
-66.39
-66.953
-67.56
-68.211
-68.906
-69.645
-70.43
-71.262
-72.14
-73.062
-74.029
-75.037
-76.078
-77.144
-78.225
-79.317
-80.423
-81.549
-82.698
-83.876
-85.084
-86.319
-87.569
-88.813
-90.019
-91.15
-92.168
-93.041
-93.745
-94.254
-94.548
-94.592
-94.341
-93.747
-92.764
-91.356
-89.487
-87.147
-84.363
-81.194
-77.744
-74.119
-70.404
-66.686
-63.071
-59.681
-56.643
-54.102
-52.164
-50.98
-50.796
-51.736
-53.757
-56.594
-59.642
-62.227
-63.822
-63.824
-61.513
-56.543
-49.056
-39.847
-30.664
-23.298
-18.994
-18.866
-23.835
-34.008
-48.382
-64.478
-78.077
-84.655
-80.113
-60.511
-22.429
36.928
117.347
214.491
322.528
434.649
546.84
660.617
774.436
880.772
967.699
1015.941
1009.228
944.559
826.484
666.416
482.505
290.426
105.931
-49.809
-160.072
-216.88
-219.18
-179.449
-119.12
-56.587
-9.333
11.878
9.368
-9.469
-32.239
-47.554
-53.11
-51.567
-49.054
-49.987
-53.68
-57.795
-59.498
-57.682
-53.358
-47.737
-41.868
-36.496
-32.057
-28.796
-26.806
-25.936
-25.875
-26.406
-27.38
-28.641
-30.028
-31.401
-32.643
-33.702
-34.567
-35.193
-35.53
-35.585
-35.381
-34.977
-34.45
-33.859
-33.257
-32.698
-32.234
-31.903
-31.722
-31.687
-31.775
-31.955
-32.207
-32.517
-32.861
-33.194
-33.463
-33.62
-33.618
-33.426
-33.016
-32.362
-31.446
-30.26
-28.819
-27.146
-25.282
-23.272
-21.153
-18.951
-16.691
-14.4
-12.1
-9.808
-7.532
-5.266
-3.004
-0.743
1.526
3.814
6.138
8.521
10.99
13.574
16.295
19.168
22.203
25.409
28.794
32.364
36.118
40.044
44.124
48.342
52.687
57.142
61.691
66.312
70.974
75.66
80.36
85.066
89.773
94.466
99.118
103.705
108.205
112.605
116.903
121.09
125.145
129.059
132.825
136.442
139.923
143.25
146.377
149.266
151.875
154.181
156.18
157.86
159.207
160.203
160.822
161.051
160.892
160.33
159.339
157.894
155.954
153.522
150.643
147.354
143.688
139.672
135.313
130.631
125.66
120.425
114.953
109.264
103.367
97.292
91.087
84.795
78.473
72.146
65.804
59.451
53.093
46.741
40.415
34.13
27.884
21.692
15.575
9.556
3.659
-2.101
-7.725
-13.21
-18.556
-23.754
-28.78
-33.616
-38.25
-42.67
-46.868
-50.833
-54.552
-58.019
-61.238
-64.214
-66.952
-69.455
-71.721
-73.752
-75.553
-77.13
-78.491
-79.643
-80.596
-81.358
-81.941
-82.356
-82.615
-82.729
-82.708
-82.561
-82.297
-81.926
-81.46
-80.908
-80.28
-79.585
-78.835
-78.039
-77.208
-76.352
-75.479
-74.598
-73.717
-72.844
-71.986
-71.15
-70.34
-69.563
-68.824
-68.126
-67.474
-66.871
-66.318
-65.819
-65.373
-64.981
-64.644
-64.36
-64.127
-63.946
-63.813
-63.726
-63.685
-63.687
-63.728
-63.807
-63.922
-64.069
-64.246
-64.449
-64.675
-64.922
-65.186
-65.466
-65.758
-66.061
-66.373
-66.694
-67.024
-67.364
-67.715
-68.078
-68.458
-68.857
-69.279
-69.727
-70.205
-70.717
-71.266
-71.857
-72.494
-73.179
-73.919
-74.719
-75.587
-76.525
-77.538
-78.624
-79.781
-81.008
-82.303
-83.669
-85.107
-86.616
-88.196
-89.852
-91.581
-93.381
-95.234
-97.105
-98.957
-100.753
-102.455
-104.033
-105.453
-106.674
-107.657
-108.359
-108.737
-108.757
-108.38
-107.559
-106.262
-104.473
-102.218
-99.598
-96.713
-93.669
-90.561
-87.444
-84.407
-81.595
-79.12
-77.09
-75.623
-74.746
-74.599
-75.473
-77.398
-80.197
-83.513
-86.613
-88.83
-89.762
-88.725
-84.903
-78.17
-68.847
-57.805
-46.68
-36.985
-29.904
-26.622
-28.205
-33.129
-37.484
-38.94
-34.946
-24.978
-12.482
7.439
44.006
102.626
191.336
306.466
434.832
571.163
706.623
832.552
941.994
1016.832
1041.603
1011.029
928.543
808.499
665.805
512.63
359.051
216.462
100.477
20.676
-19.161
-26.469
-17.317
-1.071
12.756
21.543
27.364
25.742
19.148
9.658
-2.905
-13.802
-24.144
-35.623
-46.752
-57.583
-66.186
-70.785
-71.913
-70.207
-66.577
-62.01
-57.11
-52.526
-48.779
-46.101
-44.479
-43.724
-43.699
-44.324
-45.515
-47.157
-49.107
-51.24
-53.46
-55.711
-57.932
-60.046
-61.993
-63.728
-65.205
-66.406
-67.336
-67.983
-68.347
-68.421
-68.169
-67.588
-66.7
-65.53
-64.119
-62.51
-60.719
-58.769
-56.675
-54.431
-52.044
-49.517
-46.835
-44.003
-41.034
-37.946
-34.785
-31.583
-28.348
-25.091
-21.806
-18.486
-15.134
-11.748
-8.319
-4.852
-1.35
2.191
5.762
9.371
13.028
16.75
20.564
24.494
28.554
32.752
37.092
41.574
46.197
50.954
55.833
60.826
65.921
71.109
76.378
81.715
87.102
92.516
97.934
103.331
108.681
113.96
119.141
124.201
129.116
133.861
138.416
142.757
146.863
150.709
154.273
157.532
160.465
163.05
165.269
167.105
168.541
169.564
170.164
170.331
170.057
169.339
168.172
166.557
164.495
161.99
159.049
155.679
151.891
147.7
143.118
138.163
132.853
127.209
121.251
115.003
108.487
101.73
94.756
87.594
80.269
72.81
65.246
57.606
49.918
42.212
34.515
26.857
19.265
11.764
4.381
-2.86
-9.937
-16.829
-23.515
-29.977
-36.2
-42.167
-47.866
-53.286
-58.417
-63.252
-67.783
-72.008
-75.922
-79.526
-82.82
-85.805
-88.485
-90.866
-92.953
-94.754
-96.279
-97.536
-98.537
-99.294
-99.82
-100.131
-100.24
-100.164
-99.918
-99.518
-98.983
-98.328
-97.571
-96.726
-95.812
-94.843
-93.834
-92.802
-91.76
-90.722
-89.703
-88.718
-87.779
-86.901
-86.097
-85.38
-84.76
-84.25
-83.857
-83.588
-83.451
-83.45
-83.59
-83.875
-84.307
-84.891
-85.629
-86.52
-87.563
-88.754
-90.083
-91.542
-93.118
-94.803
-96.593
-98.485
-100.473
-102.553
-104.722
-106.969
-109.281
-111.629
-113.97
-116.264
-118.467
-120.535
-122.437
-124.135
-125.587
-126.756
-127.588
-128.032
-128.048
-127.59
-126.618
-125.112
-123.074
-120.563
-117.678
-114.526
-111.205
-107.796
-104.385
-101.095
-98.066
-95.434
-93.357
-91.933
-91.287
-91.661
-93.109
-95.506
-98.545
-101.559
-103.874
-105.071
-104.561
-101.618
-96.127
-88.323
-78.943
-69.711
-61.955
-56.352
-53.987
-55.703
-61.022
-68.729
-76.323
-79.563
-75.07
-60.05
-30.702
16.153
82.156
165.807
261.406
362.094
461.354
558.295
656.557
752.934
842.017
910.347
932.982
898.642
803.127
650.041
467.156
279.061
109.311
-15.816
-93.115
-125.851
-124.843
-111.262
-93.787
-79.986
-72.062
-65.966
-65.425
-68.548
-73.738
-82.027
-89.145
-95.956
-103.942
-111.558
-118.91
-124.224
-125.772
-124.036
-119.624
-113.506
-106.742
-100.013
-93.983
-89.105
-85.561
-83.33
-82.211
-82.065
-82.765
-84.129
-85.963
-88.063
-90.262
-92.453
-94.547
-96.421
-97.938
-98.982
-99.494
-99.486
-98.978
-97.972
-96.454
-94.415
-91.888
-88.93
-85.604
-81.965
-78.06
-73.939
-69.673
-65.348
-61.035
-56.787
-52.614
-48.498
-44.427
-40.409
-36.463
-32.599
-28.813
-25.092
-21.438
-17.875
-14.426
-11.108
-7.915
-4.825
-1.826
1.078
3.871
6.53
9.034
11.367
13.51
15.435
17.122
18.565
19.782
20.821
21.735
22.578
23.39
24.2
25.038
25.936
26.924
28.024
29.267
30.698
32.364
34.328
36.631
39.285
42.282
45.595
49.174
52.954
56.872
60.866
64.883
68.881
72.826
76.702
80.473
84.087
87.492
90.633
93.466
95.976
98.147
99.956
101.417
102.566
103.439
104.078
104.503
104.706
104.674
104.385
103.821
102.976
101.836
100.38
98.59
96.44
93.917
91.035
87.773
84.079
79.917
75.259
70.106
64.497
58.473
52.082
45.39
38.469
31.399
24.269
17.156
10.126
3.236
-3.471
-9.928
-16.038
-21.728
-26.946
-31.661
-35.872
-39.589
-42.821
-45.611
-48.027
-50.13
-51.981
-53.625
-55.086
-56.396
-57.584
-58.693
-59.782
-60.896
-62.058
-63.289
-64.595
-65.971
-67.411
-68.88
-70.321
-71.691
-72.958
-74.104
-75.126
-76.018
-76.767
-77.364
-77.798
-78.064
-78.16
-78.088
-77.847
-77.446
-76.9
-76.234
-75.489
-74.693
-73.867
-73.029
-72.186
-71.35
-70.531
-69.736
-68.968
-68.229
-67.524
-66.861
-66.247
-65.688
-65.184
-64.735
-64.338
-63.991
-63.694
-63.446
-63.248
-63.101
-63.004
-62.962
-62.977
-63.053
-63.188
-63.384
-63.638
-63.947
-64.31
-64.722
-65.181
-65.682
-66.221
-66.795
-67.4
-68.032
-68.688
-69.363
-70.053
-70.754
-71.463
-72.175
-72.886
-73.593
-74.292
-74.98
-75.653
-76.308
-76.942
-77.551
-78.132
-78.682
-79.196
-79.673
-80.107
-80.496
-80.837
-81.128
-81.367
-81.552
-81.682
-81.759
-81.782
-81.753
-81.673
-81.544
-81.368
-81.149
-80.889
-80.591
-80.258
-79.895
-79.503
-79.088
-78.651
-78.2
-77.739
-77.276
-76.818
-76.373
-75.949
-75.556
-75.201
-74.894
-74.641
-74.445
-74.314
-74.252
-74.268
-74.369
-74.56
-74.846
-75.228
-75.708
-76.287
-76.963
-77.725
-78.566
-79.478
-80.459
-81.519
-82.666
-83.905
-85.239
-86.665
-88.173
-89.753
-91.385
-93.032
-94.656
-96.216
-97.674
-98.999
-100.16
-101.114
-101.804
-102.151
-102.084
-101.543
-100.477
-98.856
-96.685
-93.976
-90.788
-87.209
-83.312
-79.205
-75.024
-70.898
-66.994
-63.484
-60.5
-58.253
-57.042
-57.003
-58.091
-60.042
-62.266
-64.218
-65.598
-65.963
-64.639
-61.264
-55.981
-49.576
-43.633
-39.653
-38.116
-39.286
-44.133
-52.934
-64.634
-77.309
-85.994
-85.521
-74.531
-50.728
-13.561
36.733
104.343
188.015
286.37
398.372
516.76
642.349
772.533
896.549
1005.863
1078.02
1090.254
1035.054
909.497
729.15
524.656
321.806
148.453
25.193
-46.212
-70.931
-65.026
-50.437
-37.832
-31.754
-30.021
-25.155
-16.729
-7.548
-0.585
-0.101
-6.306
-16.589
-28.9
-40.524
-49.143
-54.115
-55.247
-52.748
-47.545
-40.59
-32.705
-24.92
-18.203
-13.024
-9.585
-7.863
-7.585
-8.542
-10.565
-13.412
-16.836
-20.635
-24.631
-28.688
-32.703
-36.537
-40.033
-43.05
-45.484
-47.291
-48.461
-49.012
-48.97
-48.371
-47.27
-45.737
-43.837
-41.641
-39.215
-36.622
-33.934
-31.222
-28.558
-26.006
-23.613
-21.403
-19.388
-17.567
-15.933
-14.474
-13.172
-12.003
-10.947
-9.985
-9.1
-8.277
-7.496
-6.737
-5.979
-5.2
-4.382
-3.509
-2.567
-1.541
-0.422
0.803
2.142
3.602
5.192
6.922
8.801
10.837
13.037
15.408
17.955
20.681
23.588
26.676
29.942
33.383
36.992
40.763
44.686
48.75
52.943
57.25
61.656
66.144
70.696
75.292
79.912
84.535
89.139
93.702
98.202
102.616
106.923
111.1
115.126
118.979
122.64
126.089
129.305
132.272
134.97
137.385
139.5
141.301
142.776
143.913
144.702
145.135
145.206
144.91
144.244
143.207
141.8
140.027
137.891
135.399
132.561
129.384
125.883
122.068
117.955
113.559
108.898
103.988
98.848
93.498
87.957
82.246
76.385
70.396
64.3
58.119
51.873
45.586
39.279
32.973
26.69
20.451
14.277
8.187
2.203
-3.659
-9.38
-14.944
-20.335
-25.54
-30.545
-35.34
-39.914
-44.258
-48.365
-52.229
-55.847
-59.214
-62.329
-65.191
-67.802
-70.161
-72.274
-74.143
-75.772
-77.168
-78.335
-79.282
-80.016
-80.544
-80.877
-81.023
-80.992
-80.795
-80.444
-79.949
-79.322
-78.575
-77.719
-76.766
-75.727
-74.614
-73.437
-72.208
-70.936
-69.631
-68.304
-66.962
-65.614
-64.268
-62.931
-61.609
-60.307
-59.032
-57.787
-56.577
-55.405
-54.276
-53.192
-52.156
-51.172
-50.241
-49.366
-48.547
-47.788
-47.088
-46.448
-45.869
-45.352
-44.897
-44.504
-44.175
-43.91
-43.707
-43.569
-43.495
-43.485
-43.539
-43.655
-43.833
-44.072
-44.374
-44.735
-45.158
-45.64
-46.182
-46.785
-47.447
-48.168
-48.947
-49.781
-50.67
-51.611
-52.602
-53.641
-54.723
-55.846
-57.006
-58.2
-59.423
-60.671
-61.938
-63.217
-64.502
-65.786
-67.062
-68.321
-69.555
-70.758
-71.923
-73.044
-74.115
-75.13
-76.087
-76.982
-77.813
-78.575
-79.266
-79.879
-80.413
-80.865
-81.234
-81.519
-81.72
-81.842
-81.888
-81.868
-81.79
-81.656
-81.472
-81.235
-80.949
-80.626
-80.274
-79.906
-79.54
-79.2
-78.914
-78.723
-78.655
-78.724
-78.938
-79.293
-79.788
-80.427
-81.214
-82.145
-83.221
-84.433
-85.771
-87.229
-88.766
-90.318
-91.8
-93.101
-94.135
-94.848
-95.19
-95.13
-94.646
-93.71
-92.312
-90.473
-88.196
-85.486
-82.357
-78.833
-75.014
-71.061
-67.16
-63.519
-60.299
-57.634
-55.687
-54.616
-54.555
-55.628
-57.869
-61.309
-66.097
-72.261
-79.643
-87.885
-96.255
-103.969
-110.445
-115.009
-116.872
-115.632
-111.304
-104.499
-96.764
-89.599
-83.956
-80.768
-80.811
-84.07
-89.624
-95.286
-97.298
-91.849
-75.598
-45.189
2.309
69.135
154.718
254.772
363.681
474.97
585.322
696.954
808.831
915.801
1008.065
1064.876
1068.409
1011.043
891.511
725.5
538.471
353.074
194.451
79.183
8.258
-23.126
-29.765
-29.606
-29.991
-32.977
-35.523
-31.538
-21.553
-9.697
0.259
4.64
2.948
-3.009
-11.685
-21.342
-30.196
-36.832
-40.451
-40.946
-38.737
-34.592
-29.205
-23.184
-17.279
-12.232
-8.441
-6.015
-4.841
-4.633
-5.18
-6.359
-8
-9.94
-12.052
-14.234
-16.438
-18.665
-20.879
-23.016
-25.015
-26.826
-28.433
-29.852
-31.101
-32.203
-33.17
-34.004
-34.702
-35.246
-35.62
-35.817
-35.818
-35.603
-35.162
-34.495
-33.614
-32.532
-31.255
-29.779
-28.103
-26.226
-24.162
-21.929
-19.554
-17.075
-14.528
-11.937
-9.331
-6.735
-4.166
-1.635
0.854
3.31
5.736
8.136
10.517
12.885
15.254
17.645
20.079
22.584
25.183
27.893
30.727
33.697
36.807
40.059
43.449
46.968
50.611
54.376
58.259
62.252
66.342
70.511
74.732
78.979
83.218
87.416
91.544
95.577
99.499
103.305
106.991
110.558
113.998
117.292
120.425
123.387
126.169
128.766
131.185
133.431
135.523
137.493
139.363
141.145
142.836
144.411
145.834
147.065
148.073
148.833
149.317
149.488
149.309
148.75
147.779
146.367
144.476
142.039
139.007
135.348
131.048
126.123
120.609
114.542
107.963
100.928
93.5
85.764
77.817
69.732
61.579
53.422
45.329
37.401
29.726
22.376
15.412
8.873
2.79
-2.799
-7.867
-12.42
-16.476
-20.08
-23.3
-26.172
-28.726
-30.988
-32.982
-34.751
-36.335
-37.758
-39.042
-40.21
-41.285
-42.309
-43.314
-44.305
-45.277
-46.203
-47.043
-47.777
-48.394
-48.885
-49.245
-49.473
-49.566
-49.536
-49.4
-49.165
-48.833
-48.396
-47.848
-47.195
-46.453
-45.645
-44.798
-43.936
-43.075
-42.236
-41.434
-40.678
-39.977
-39.328
-38.729
-38.179
-37.682
-37.241
-36.865
-36.554
-36.31
-36.13
-36.011
-35.95
-35.944
-35.986
-36.071
-36.195
-36.355
-36.551
-36.781
-37.045
-37.341
-37.668
-38.023
-38.404
-38.807
-39.231
-39.672
-40.126
-40.593
-41.071
-41.559
-42.056
-42.562
-43.075
-43.596
-44.124
-44.658
-45.197
-45.74
-46.286
-46.833
-47.381
-47.928
-48.472
-49.013
-49.548
-50.075
-50.593
-51.1
-51.593
-52.069
-52.527
-52.963
-53.375
-53.761
-54.118
-54.444
-54.738
-54.997
-55.22
-55.404
-55.55
-55.654
-55.716
-55.734
-55.708
-55.636
-55.52
-55.358
-55.152
-54.902
-54.611
-54.279
-53.911
-53.508
-53.074
-52.614
-52.131
-51.63
-51.116
-50.595
-50.071
-49.552
-49.042
-48.547
-48.073
-47.627
-47.212
-46.834
-46.499
-46.211
-45.974
-45.792
-45.668
-45.606
-45.609
-45.678
-45.815
-46.022
-46.3
-46.647
-47.064
-47.55
-48.102
-48.718
-49.395
-50.13
-50.918
-51.753
-52.631
-53.546
-54.491
-55.459
-56.443
-57.436
-58.43
-59.418
-60.392
-61.345
-62.27
-63.159
-64.006
-64.806
-65.55
-66.236
-66.857
-67.408
-67.887
-68.289
-68.613
-68.854
-69.013
-69.088
-69.078
-68.984
-68.806
-68.547
-68.208
-67.791
-67.301
-66.741
-66.115
-65.429
-64.688
-63.898
-63.066
-62.197
-61.3
-60.381
-59.447
-58.506
-57.564
-56.629
-55.707
-54.806
-53.932
-53.09
-52.286
-51.526
-50.813
-50.154
-49.55
-49.006
-48.524
-48.107
-47.756
-47.472
-47.257
-47.109
-47.03
-47.019
-47.074
-47.193
-47.375
-47.618
-47.918
-48.272
-48.678
-49.13
-49.625
-50.159
-50.726
-51.323
-51.944
-52.584
-53.238
-53.903
-54.572
-55.242
-55.907
-56.565
-57.21
-57.84
-58.452
-59.041
-59.606
-60.145
-60.654
-61.133
-61.581
-61.996
-62.377
-62.725
-63.038
-63.315
-63.558
-63.765
-63.937
-64.072
-64.171
-64.235
-64.263
-64.257
-64.216
-64.142
-64.036
-63.9
-63.735
-63.543
-63.325
-63.084
-62.823
-62.543
-62.248
-61.94
-61.623
-61.301
-60.978
-60.66
-60.351
-60.058
-59.786
-59.543
-59.332
-59.161
-59.032
-58.952
-58.923
-58.95
-59.039
-59.193
-59.421
-59.729
-60.122
-60.604
-61.179
-61.842
-62.593
-63.428
-64.343
-65.343
-66.429
-67.603
-68.87
-70.233
-71.692
-73.243
-74.863
-76.518
-78.174
-79.792
-81.339
-82.785
-84.099
-85.242
-86.179
-86.862
-87.246
-87.294
-86.954
-86.179
-84.932
-83.206
-81.058
-78.579
-75.872
-73.026
-70.099
-67.174
-64.383
-61.858
-59.721
-58.104
-57.077
-56.785
-57.527
-59.417
-62.347
-66.048
-69.883
-73.153
-75.365
-75.837
-73.671
-68.568
-60.806
-51.038
-40.77
-31.802
-25.591
-23.621
-27.483
-36.182
-45.984
-54.951
-60.647
-61.511
-60.075
-50.584
-22.255
31.219
118.22
236.807
374.69
526.262
682.959
834.445
971.277
1073.071
1121.463
1109.302
1038.814
925.842
786.596
630.32
465.948
301.391
151.87
38.915
-26.077
-43.675
-27.798
-1.326
20.739
33.25
38.012
41.129
44.564
46.683
45.09
37.42
24.454
8.59
-7.566
-21.108
-30.747
-36.319
-37.931
-36.349
-32.493
-27.156
-21.375
-16.218
-12.22
-9.587
-8.313
-8.144
-8.885
-10.398
-12.441
-14.756
-17.147
-19.458
-21.595
-23.518
-25.158
-26.424
-27.261
-27.643
-27.582
-27.152
-26.421
-25.449
-24.309
-23.07
-21.804
-20.597
-19.522
-18.628
-17.96
-17.549
-17.408
-17.546
-17.939
-18.524
-19.235
-19.987
-20.7
-21.32
-21.788
-22.053
-22.073
-21.811
-21.239
-20.352
-19.142
-17.603
-15.744
-13.577
-11.138
-8.485
-5.667
-2.728
0.295
3.383
6.519
9.685
12.879
16.104
19.365
22.675
26.041
29.465
32.953
36.516
40.169
43.937
47.833
51.865
56.035
60.339
64.769
69.317
73.965
78.691
83.471
88.284
93.109
97.926
102.716
107.456
112.121
116.688
121.134
125.437
129.576
133.532
137.283
140.812
144.102
147.14
149.909
152.396
154.586
156.466
158.023
159.249
160.132
160.666
160.843
160.66
160.116
159.211
157.946
156.326
154.355
152.04
149.39
146.416
143.127
139.538
135.661
131.511
127.106
122.462
117.595
112.525
107.269
101.847
96.278
90.582
84.777
78.884
72.924
66.914
60.877
54.83
48.794
42.787
36.827
30.932
25.12
19.404
13.801
8.324
2.986
-2.202
-7.231
-12.09
-16.771
-21.269
-25.578
-29.693
-33.612
-37.332
-40.852
-44.173
-47.296
-50.221
-52.953
-55.492
-57.844
-60.013
-62.004
-63.821
-65.472
-66.961
-68.297
-69.487
-70.537
-71.456
-72.252
-72.932
-73.504
-73.977
-74.358
-74.654
-74.874
-75.023
-75.109
-75.139
-75.118
-75.052
-74.946
-74.805
-74.634
-74.437
-74.217
-73.978
-73.724
-73.457
-73.18
-72.897
-72.61
-72.32
-72.032
-71.747
-71.467
-71.195
-70.932
-70.681
-70.444
-70.223
-70.02
-69.835
-69.672
-69.532
-69.416
-69.327
-69.267
-69.237
-69.239
-69.275
-69.348
-69.458
-69.608
-69.8
-70.034
-70.313
-70.637
-71.008
-71.425
-71.891
-72.404
-72.966
-73.576
-74.233
-74.937
-75.685
-76.477
-77.309
-78.179
-79.083
-80.019
-80.982
-81.969
-82.974
-83.995
-85.025
-86.06
-87.094
-88.123
-89.14
-90.139
-91.115
-92.061
-92.974
-93.847
-94.677
-95.458
-96.186
-96.859
-97.473
-98.026
-98.516
-98.94
-99.297
-99.588
-99.811
-99.969
-100.061
-100.092
-100.068
-99.994
-99.878
-99.73
-99.557
-99.371
-99.181
-98.999
-98.832
-98.687
-98.573
-98.499
-98.475
-98.513
-98.622
-98.812
-99.09
-99.462
-99.936
-100.514
-101.191
-101.964
-102.828
-103.788
-104.855
-106.042
-107.358
-108.811
-110.403
-112.128
-113.978
-115.933
-117.957
-120.013
-122.055
-124.046
-125.958
-127.76
-129.412
-130.862
-132.036
-132.861
-133.279
-133.229
-132.672
-131.598
-130.012
-127.957
-125.514
-122.753
-119.77
-116.683
-113.611
-110.701
-108.103
-105.954
-104.458
-103.9
-104.437
-106.06
-108.539
-111.34
-113.933
-115.921
-116.809
-115.93
-112.883
-107.788
-101.415
-95.35
-91.18
-89.779
-91.775
-97.889
-108.276
-121.986
-136.743
-148.551
-153.005
-146.934
-127.437
-91.427
-36.554
38.555
131.768
236.744
347.169
457.323
565.429
673.826
778.749
872.179
941.094
967.096
942.267
868.505
753.195
610.526
453.517
292.85
143.684
24.042
-55.175
-91.182
-93.254
-81.624
-69.849
-63.69
-62.539
-59.612
-53.501
-46.852
-42.27
-43.195
-49.891
-60.085
-71.957
-83.239
-91.884
-97.241
-99.122
-97.763
-94.036
-88.776
-82.704
-76.721
-71.66
-67.935
-65.693
-64.824
-65.023
-66.076
-67.806
-69.999
-72.446
-74.958
-77.409
-79.732
-81.867
-83.731
-85.21
-86.178
-86.576
-86.413
-85.735
-84.644
-83.225
-81.536
-79.651
-77.641
-75.552
-73.434
-71.298
-69.122
-66.909
-64.68
-62.462
-60.305
-58.223
-56.194
-54.182
-52.13
-49.986
-47.723
-45.306
-42.7
-39.896
-36.892
-33.716
-30.424
-27.053
-23.619
-20.132
-16.585
-12.983
-9.341
-5.669
-1.982
1.709
5.394
9.062
12.695
16.291
19.854
23.398
26.954
30.539
34.162
37.833
41.549
45.31
49.112
52.943
56.789
60.634
64.466
68.271
72.039
75.754
79.403
82.974
86.449
89.809
93.036
96.107
99.002
101.709
104.216
106.513
108.597
110.468
112.135
113.619
114.938
116.104
117.117
117.971
118.658
119.173
119.509
119.657
119.6
119.319
118.802
118.049
117.053
115.794
114.23
112.301
109.951
107.147
103.868
100.104
95.858
91.149
86.018
80.533
74.783
68.851
62.805
56.701
50.594
