Name
Date of Birth,"Mar 27, 1959"
Recorded Date,2019-05-01 03:04:20 -0500
Classification,Atrial Fibrillation
Symptoms,
Software Version,1.2
Device,"Watch4,2"
Sample Rate,510.227 hertz


Lead,Lead I
Unit,µV

-114.226
-128.168
-141.877
-155.159
-167.806
-179.588
-190.322
-199.876
-208.148
-215.089
-220.671
-224.878
-227.75
-229.362
-229.82
-229.265
-227.819
-225.582
-222.677
-219.233
-215.403
-211.371
-207.278
-203.218
-199.271
-195.489
-191.918
-188.599
-185.544
-182.725
-180.097
-177.599
-175.18
-172.792
-170.373
-167.841
-165.093
-162.026
-158.57
-154.69
-150.366
-145.588
-140.354
-134.675
-128.587
-122.152
-115.457
-108.591
-101.642
-94.723
-87.942
-81.418
-75.28
-69.62
-64.496
-59.947
-55.989
-52.632
-49.881
-47.708
-46.068
-44.899
-44.108
-43.602
-43.286
-43.03
-42.717
-42.245
-41.521
-40.53
-39.299
-37.867
-36.285
-34.585
-32.813
-31.065
-29.454
-28.101
-27.147
-26.662
-26.751
-27.636
-29.394
-31.96
-35.133
-38.357
-41.042
-42.851
-43.336
-41.897
-38.34
-32.726
-25.449
-17.798
-11.029
-5.684
-2.444
-2.239
-4.988
-9.788
-15.438
-17.924
-12.912
0.92
26.363
64.247
112.32
171.957
242.715
323.651
416.999
521.917
635.349
748.72
847.334
914.508
933.178
897.147
809.405
678.463
523.568
362.682
212.957
94.72
17.614
-15.884
-10.099
19.791
61.41
104.5
139.802
164.841
176.29
174.523
166.323
156.02
148.805
146.805
145.988
144.73
142.502
139.425
138.111
139.437
142.651
147.064
151.593
155.394
158.142
159.655
159.814
158.734
156.681
153.849
150.415
146.569
142.461
138.237
134.052
130.021
126.224
122.767
119.739
117.201
115.202
113.752
112.842
112.455
112.556
113.107
114.07
115.408
117.087
119.074
121.333
123.832
126.539
129.417
132.437
135.576
138.806
142.113
145.488
148.923
152.427
156.008
159.661
163.389
167.187
171.042
174.94
178.848
182.718
186.527
190.256
193.897
197.465
200.969
204.418
207.842
211.253
214.666
218.112
221.599
225.139
228.761
232.493
236.391
240.541
244.995
249.783
254.93
260.424
266.257
272.425
278.88
285.578
292.47
299.487
306.579
313.7
320.778
327.736
334.469
340.831
346.71
352.016
356.661
360.591
363.747
366.059
367.509
368.094
367.821
366.722
364.815
362.107
358.639
354.457
349.633
344.274
338.462
332.255
325.717
318.885
311.802
304.525
297.066
289.417
281.566
273.479
265.145
256.572
247.749
238.668
229.309
219.645
209.676
199.425
188.919
178.21
167.35
156.396
145.444
134.601
123.971
113.675
103.804
94.428
85.623
77.451
69.966
63.219
57.227
51.99
47.504
43.736
40.645
38.176
36.237
34.736
33.588
32.699
31.998
31.425
30.919
30.437
29.942
29.405
28.81
28.153
27.424
26.628
25.781
24.904
24.041
23.229
22.492
21.857
21.336
20.936
20.664
20.513
20.468
20.516
20.638
20.817
21.037
21.28
21.525
21.748
21.918
22.012
22.013
21.908
21.687
21.343
20.872
20.275
19.558
18.727
17.786
16.741
15.594
14.352
13.022
11.61
10.127
8.579
6.976
5.326
3.636
1.915
0.171
-1.587
-3.352
-5.115
-6.869
-8.604
-10.309
-11.975
-13.594
-15.157
-16.656
-18.083
-19.432
-20.697
-21.874
-22.958
-23.947
-24.837
-25.626
-26.312
-26.895
-27.374
-27.749
-28.02
-28.189
-28.258
-28.231
-28.115
-27.913
-27.635
-27.287
-26.879
-26.421
-25.923
-25.395
-24.845
-24.284
-23.721
-23.167
-22.635
-22.134
-21.678
-21.276
-20.939
-20.676
-20.495
-20.398
-20.389
-20.468
-20.64
-20.915
-21.303
-21.815
-22.458
-23.24
-24.162
-25.218
-26.396
-27.67
-29.01
-30.384
-31.758
-33.108
-34.404
-35.616
-36.711
-37.641
-38.358
-38.82
-38.987
-38.822
-38.312
-37.471
-36.341
-35.001
-33.536
-32.021
-30.546
-29.214
-28.135
-27.431
-27.219
-27.593
-28.678
-30.653
-33.613
-37.531
-42.208
-47.19
-51.986
-56.185
-59.307
-60.77
-60.209
-57.578
-53.307
-48.536
-44.461
-41.891
-41.574
-44.191
-49.935
-58.289
-67.709
-75.162
-77.28
-71.294
-54.394
-23.858
22.413
85.784
164.33
252.2
343.571
432.375
517.13
601.707
683.702
758.568
815.179
831.632
797.707
709.457
569.302
401.414
228.462
73.034
-38.195
-100.162
-117.936
-103.716
-81.21
-62.424
-50.169
-43.26
-34.287
-21.863
-9.271
0.619
4.241
1.243
-6.03
-15.587
-25.097
-32.57
-37.32
-39.092
-38.064
-34.978
-30.595
-25.595
-20.763
-16.822
-14.128
-12.802
-12.772
-13.78
-15.617
-18.112
-21.061
-24.267
-27.573
-30.86
-34.027
-36.997
-39.673
-41.946
-43.742
-45.019
-45.761
-45.978
-45.692
-44.933
-43.739
-42.163
-40.25
-38.043
-35.589
-32.933
-30.125
-27.221
-24.274
-21.334
-18.437
-15.608
-12.859
-10.192
-7.6
-5.071
-2.592
-0.144
2.286
4.708
7.134
9.571
12.029
14.517
17.05
19.639
22.301
25.049
27.886
30.814
33.829
36.92
40.078
43.293
46.548
49.834
53.146
56.485
59.863
63.29
66.769
70.294
73.852
77.426
81.013
84.607
88.208
91.82
95.449
99.098
102.788
106.526
110.297
114.073
117.8
121.412
124.864
128.115
131.134
133.896
136.365
138.502
140.275
141.645
142.568
142.998
142.867
142.125
140.752
138.751
136.156
133.021
129.383
125.272
120.723
115.756
110.405
104.7
98.665
92.328
85.728
78.911
71.947
64.898
57.799
50.673
43.521
36.331
29.103
21.844
14.555
7.25
-0.057
-7.347
-14.593
-21.763
-28.836
-35.798
-42.643
-49.368
-55.957
-62.388
-68.633
-74.658
-80.436
-85.943
-91.152
-96.044
-100.605
-104.824
-108.7
-112.237
-115.433
-118.29
-120.805
-122.978
-124.813
-126.315
-127.491
-128.353
-128.91
-129.174
-129.161
-128.884
-128.359
-127.597
-126.613
-125.419
-124.029
-122.457
-120.718
-118.827
-116.801
-114.655
-112.407
-110.073
-107.668
-105.208
-102.707
-100.181
-97.641
-95.102
-92.576
-90.074
-87.609
-85.192
-82.836
-80.55
-78.345
-76.231
-74.219
-72.315
-70.526
-68.861
-67.323
-65.92
-64.655
-63.534
-62.563
-61.747
-61.087
-60.586
-60.244
-60.057
-60.021
-60.133
-60.386
-60.779
-61.313
-61.984
-62.795
-63.744
-64.825
-66.03
-67.339
-68.725
-70.163
-71.625
-73.083
-74.517
-75.902
-77.213
-78.425
-79.504
-80.411
-81.113
-81.566
-81.738
-81.609
-81.171
-80.461
-79.536
-78.463
-77.304
-76.109
-74.922
-73.824
-72.903
-72.254
-71.983
-72.162
-72.895
-74.369
-76.665
-79.723
-83.317
-86.94
-90.063
-92.332
-93.333
-92.566
-89.819
-85.173
-79.183
-73.16
-68.359
-65.561
-65.447
-68.537
-74.83
-83.699
-93.5
-101.166
-103.44
-97.673
-81.287
-51.942
-7.855
52.085
125.97
208.239
293.245
375.271
452.974
530.395
606.247
676.29
729.537
745.23
712.915
630.245
501.704
348.131
188.401
38.706
-80.831
-161.086
-200.777
-203.87
-185.904
-162.31
-140.278
-122.352
-105.617
-85.464
-62.741
-40.892
-23.071
-12.415
-9.858
-14.341
-24.253
-37.56
-51.963
-65.477
-77.099
-86.237
-92.285
-95.153
-95.135
-92.746
-89.113
-85.486
-82.449
-80.328
-79.409
-79.67
-81.038
-83.413
-86.363
-89.36
-92.135
-94.507
-96.361
-97.729
-98.598
-98.934
-98.802
-98.292
-97.473
-96.427
-95.212
-93.843
-92.36
-90.799
-89.186
-87.559
-85.923
-84.278
-82.629
-80.963
-79.278
-77.578
-75.864
-74.132
-72.375
-70.563
-68.668
-66.683
-64.587
-62.361
-59.988
-57.433
-54.694
-51.786
-48.726
-45.547
-42.27
-38.901
-35.439
-31.883
-28.211
-24.418
-20.488
-16.38
-12.085
-7.598
-2.93
1.875
6.793
11.82
16.957
22.224
27.647
33.232
38.972
44.85
50.822
56.841
62.842
68.731
74.427
79.852
84.947
89.692
94.064
98.025
101.533
104.522
106.912
108.641
109.665
109.948
109.48
108.262
106.313
103.688
100.452
96.683
92.442
87.76
82.662
77.182
71.361
65.254
58.932
52.452
45.861
39.206
32.521
25.842
19.188
12.559
5.934
-0.714
-7.401
-14.124
-20.87
-27.626
-34.381
-41.131
-47.87
-54.584
-61.255
-67.872
-74.418
-80.883
-87.249
-93.487
-99.563
-105.436
-111.077
-116.463
-121.577
-126.406
-130.937
-135.16
-139.07
-142.667
-145.953
-148.928
-151.592
-153.945
-155.99
-157.734
-159.188
-160.362
-161.268
-161.914
-162.312
-162.474
-162.411
-162.134
-161.654
-160.98
-160.123
-159.096
-157.912
-156.584
-155.125
-153.549
-151.868
-150.096
-148.247
-146.333
-144.367
-142.361
-140.325
-138.272
-136.212
-134.154
-132.11
-130.088
-128.097
-126.145
-124.239
-122.387
-120.595
-118.869
-117.214
-115.636
-114.137
-112.722
-111.393
-110.154
-109.005
-107.949
-106.985
-106.114
-105.336
-104.649
-104.052
-103.543
-103.119
-102.777
-102.514
-102.326
-102.208
-102.156
-102.164
-102.226
-102.338
-102.492
-102.682
-102.902
-103.143
-103.401
-103.666
-103.933
-104.194
-104.442
-104.67
-104.87
-105.036
-105.161
-105.239
-105.262
-105.226
-105.123
-104.95
-104.701
-104.372
-103.958
-103.456
-102.861
-102.172
-101.386
-100.501
-99.517
-98.433
-97.249
-95.968
-94.59
-93.121
-91.562
-89.919
-88.196
-86.398
-84.532
-82.604
-80.62
-78.588
-76.514
-74.408
-72.278
-70.132
-67.979
-65.829
-63.691
-61.574
-59.487
-57.44
-55.441
-53.5
-51.626
-49.827
-48.114
-46.493
-44.974
-43.563
-42.269
-41.095
-40.049
-39.133
-38.352
-37.705
-37.195
-36.821
-36.582
-36.478
-36.508
-36.668
-36.956
-37.371
-37.909
-38.567
-39.339
-40.218
-41.195
-42.262
-43.41
-44.628
-45.906
-47.234
-48.601
-50
-51.424
-52.864
-54.31
-55.751
-57.174
-58.569
-59.929
-61.25
-62.528
-63.767
-64.97
-66.151
-67.325
-68.498
-69.676
-70.855
-72.023
-73.172
-74.295
-75.379
-76.424
-77.425
-78.372
-79.261
-80.082
-80.816
-81.442
-81.922
-82.215
-82.295
-82.152
-81.785
-81.215
-80.463
-79.549
-78.498
-77.322
-76.025
-74.619
-73.105
-71.483
-69.768
-67.974
-66.127
-64.273
-62.438
-60.631
-58.854
-57.085
-55.302
-53.507
-51.724
-49.99
-48.364
-46.888
-45.582
-44.505
-43.734
-43.33
-43.344
-43.802
-44.693
-46.069
-48.098
-50.815
-54.084
-57.667
-61.086
-63.833
-65.552
-65.753
-63.748
-59.271
-52.572
-44.095
-34.844
-26.171
-19.184
-14.994
-15.034
-18.661
-22.77
-26.14
-27.686
-26.966
-26.976
-23.723
-6.964
30.467
95.302
185.934
289.509
396.664
502.474
602.701
694.946
771.405
816.639
817.481
769.693
676.055
545.317
390.785
224.38
60.256
-81.746
-185.567
-242.942
-254.663
-232.094
-189.177
-136.363
-82.654
-36.659
-4.821
8.864
6.332
-3.652
-13.396
-19.002
-20.964
-24.223
-31.444
-41.744
-53.113
-62.384
-67.642
-69.052
-67.257
-63.235
-58.288
-53.48
-49.408
-46.466
-44.908
-44.726
-45.866
-48.226
-51.383
-54.794
-58.109
-61.077
-63.543
-65.506
-66.922
-67.731
-67.963
-67.682
-66.939
-65.79
-64.257
-62.336
-60.049
-57.435
-54.537
-51.42
-48.144
-44.765
-41.34
-37.909
-34.505
-31.158
-27.887
-24.702
-21.605
-18.59
-15.648
-12.776
-9.968
-7.218
-4.515
-1.843
0.814
3.464
6.119
8.787
11.481
14.214
16.996
19.829
22.714
25.65
28.63
31.653
34.709
37.781
40.853
43.908
46.939
49.95
52.942
55.911
58.854
61.763
64.643
67.509
70.372
73.237
76.112
79
81.924
84.922
88.02
91.236
94.569
97.993
101.486
105.029
108.588
112.124
115.58
118.875
121.946
124.743
127.216
129.317
130.982
132.119
132.661
132.562
131.794
130.354
128.244
125.462
122.033
118.002
113.432
108.415
103.022
97.304
91.316
85.112
78.761
72.352
65.954
59.617
53.381
47.276
41.33
35.575
30.022
24.661
19.472
14.419
9.482
4.66
-0.051
-4.653
-9.154
-13.569
-17.902
-22.142
-26.283
-30.316
-34.233
-38.032
-41.7
-45.213
-48.546
-51.672
-54.569
-57.228
-59.64
-61.796
-63.692
-65.322
-66.687
-67.797
-68.655
-69.267
-69.636
-69.766
-69.663
-69.338
-68.803
-68.068
-67.144
-66.04
-64.767
-63.336
-61.755
-60.036
-58.187
-56.216
-54.134
-51.953
-49.686
-47.346
-44.946
-42.501
-40.025
-37.532
-35.037
-32.554
-30.094
-27.67
-25.295
-22.981
-20.74
-18.584
-16.523
-14.57
-12.737
-11.033
-9.466
-8.044
-6.768
-5.642
-4.673
-3.865
-3.224
-2.752
-2.45
-2.318
-2.354
-2.555
-2.908
-3.388
-3.967
-4.617
-5.313
-6.037
-6.768
-7.481
-8.15
-8.741
-9.229
-9.592
-9.81
-9.864
-9.737
-9.421
-8.938
-8.355
-7.738
-7.158
-6.669
-6.299
-6.091
-6.113
-6.427
-7.101
-8.204
-9.753
-11.8
-14.477
-17.782
-21.595
-25.673
-29.504
-32.582
-34.569
-34.992
-33.292
-29.363
-23.375
-15.836
-8.003
-0.951
4.653
7.753
7.412
3.774
-2.373
-9.469
-14.62
-15.086
-8.52
8.277
38.545
82.84
139.074
204.422
274.406
347.339
426.807
512.507
598.496
674.444
722.031
725.321
680.804
591.887
469.043
329.478
186.674
53.244
-55.346
-130.102
-168.047
-170.885
-147.776
-108.882
-61.529
-13.627
25.728
49.559
54.146
42.124
23.771
8.694
1.964
3.496
7.944
11.312
12.737
12.932
14.036
16.809
20.425
24.062
26.844
28.282
28.455
27.445
25.351
22.414
18.865
14.904
10.713
6.449
2.227
-1.823
-5.56
-8.909
-11.816
-14.231
-16.134
-17.512
-18.35
-18.657
-18.455
-17.748
-16.571
-14.976
-13.006
-10.709
-8.137
-5.337
-2.362
0.74
3.942
7.229
10.596
14.044
17.571
21.175
24.86
28.625
32.475
36.423
40.478
44.644
48.932
53.345
57.887
62.568
67.384
72.326
77.382
82.541
87.788
93.115
98.507
103.952
109.437
114.948
120.47
125.99
131.492
136.958
142.372
147.71
152.953
158.082
163.077
167.92
172.592
177.073
181.344
185.39
189.192
192.731
195.986
198.934
201.551
203.826
205.746
207.305
208.502
209.337
209.808
209.923
209.684
209.09
208.134
206.799
205.069
202.936
200.402
197.476
194.17
190.485
186.421
181.975
177.138
171.904
166.263
160.194
153.687
146.757
139.431
131.766
123.829
115.671
107.335
98.855
90.262
81.598
72.908
64.232
55.618
47.119
38.792
30.716
22.958
15.547
8.497
1.787
-4.623
-10.756
-16.625
-22.244
-27.615
-32.751
-37.662
-42.346
-46.811
-51.069
-55.144
-59.082
-62.919
-66.666
-70.322
-73.86
-77.242
-80.442
-83.44
-86.216
-88.758
-91.059
-93.112
-94.928
-96.517
-97.882
-99.02
-99.919
-100.569
-100.971
-101.136
-101.082
-100.835
-100.418
-99.849
-99.154
-98.352
-97.457
-96.485
-95.441
-94.328
-93.155
-91.933
-90.674
-89.393
-88.1
-86.804
-85.515
-84.24
-82.985
-81.757
-80.56
-79.398
-78.277
-77.202
-76.179
-75.217
-74.32
-73.493
-72.741
-72.066
-71.471
-70.957
-70.525
-70.173
-69.902
-69.71
-69.596
-69.559
-69.596
-69.705
-69.883
-70.126
-70.431
-70.793
-71.206
-71.666
-72.167
-72.703
-73.268
-73.856
-74.46
-75.075
-75.694
-76.311
-76.922
-77.519
-78.098
-78.654
-79.181
-79.676
-80.132
-80.548
-80.918
-81.24
-81.511
-81.729
-81.891
-81.996
-82.042
-82.029
-81.955
-81.819
-81.623
-81.365
-81.047
-80.67
-80.236
-79.745
-79.201
-78.606
-77.963
-77.276
-76.546
-75.779
-74.977
-74.143
-73.282
-72.397
-71.491
-70.568
-69.63
-68.681
-67.725
-66.764
-65.801
-64.839
-63.88
-62.928
-61.985
-61.052
-60.134
-59.231
-58.345
-57.48
-56.636
-55.815
-55.019
-54.25
-53.509
-52.796
-52.112
-51.458
-50.832
-50.236
-49.667
-49.126
-48.611
-48.122
-47.657
-47.215
-46.796
-46.396
-46.016
-45.653
-45.306
-44.972
-44.649
-44.336
-44.03
-43.731
-43.435
-43.14
-42.846
-42.549
-42.248
-41.941
-41.626
-41.3
-40.961
-40.609
-40.241
-39.857
-39.457
-39.041
-38.61
-38.166
-37.713
-37.253
-36.79
-36.328
-35.872
-35.424
-34.988
-34.567
-34.164
-33.782
-33.425
-33.098
-32.805
-32.551
-32.343
-32.184
-32.079
-32.031
-32.037
-32.099
-32.214
-32.385
-32.621
-32.929
-33.312
-33.778
-34.328
-34.96
-35.669
-36.433
-37.222
-38.002
-38.743
-39.413
-39.996
-40.468
-40.804
-40.975
-40.942
-40.669
-40.131
-39.303
-38.162
-36.701
-34.937
-32.931
-30.783
-28.597
-26.462
-24.443
-22.602
-21.03
-19.829
-19.099
-18.948
-19.43
-20.62
-22.67
-25.597
-29.279
-33.442
-37.53
-40.991
-43.484
-44.547
-43.63
-40.627
-35.67
-29.3
-22.789
-17.079
-12.606
-10.095
-10.13
-12.433
-16.288
-19.939
-20.352
-15.264
-2.784
19.662
54.268
102.635
164.169
234.689
309.224
383.483
457.359
534.62
613.545
687.536
743.312
761.839
734.539
662.71
553.454
421.323
279.447
137.448
9.4
-89.538
-152.476
-176.123
-166.184
-137.974
-98.785
-56.171
-18.132
14.401
34.723
40.515
37.203
26.785
15.129
5.676
-4.441
-14.963
-26.068
-37.8
-47.011
-52.042
-53.026
-50.315
-45.506
-40.582
-36.316
-33.004
-30.993
-30.363
-31.143
-33.375
-36.724
-40.541
-44.456
-48.27
-51.82
-55.092
-58.004
-60.419
-62.316
-63.737
-64.715
-65.283
-65.451
-65.196
-64.531
-63.497
-62.131
-60.485
-58.6
-56.517
-54.283
-51.948
-49.562
-47.169
-44.798
-42.473
-40.206
-38.004
-35.867
-33.795
-31.777
-29.807
-27.876
-25.971
-24.084
-22.207
-20.331
-18.447
-16.546
-14.619
-12.661
-10.666
-8.63
-6.549
-4.423
-2.25
-0.031
2.234
4.544
6.898
9.297
11.738
14.219
16.739
19.295
21.881
24.492
27.122
29.763
32.406
35.042
37.661
40.251
42.8
45.297
47.729
50.084
52.346
54.504
56.543
58.451
60.215
61.822
63.26
64.517
65.584
66.45
67.108
67.548
67.764
67.75
67.501
67.014
66.286
65.314
64.1
62.643
60.945
59.011
56.844
54.451
51.839
49.017
45.993
42.778
39.385
35.824
32.109
28.254
24.273
20.18
15.99
11.719
7.382
2.993
-1.432
-5.879
-10.334
-14.783
-19.213
-23.61
-27.963
-32.26
-36.49
-40.643
-44.708
-48.678
-52.544
-56.298
-59.934
-63.447
-66.832
-70.084
-73.202
-76.182
-79.024
-81.728
-84.294
-86.724
-89.019
-91.182
-93.218
-95.129
-96.919
-98.594
-100.158
-101.616
-102.973
-104.234
-105.406
-106.493
-107.502
-108.437
-109.304
-110.109
-110.857
-111.553
-112.202
-112.808
-113.376
-113.911
-114.415
-114.895
-115.351
-115.789
-116.211
-116.618
-117.012
-117.396
-117.769
-118.132
-118.485
-118.827
-119.158
-119.477
-119.782
-120.074
-120.35
-120.608
-120.847
-121.065
-121.258
-121.423
-121.558
-121.658
-121.719
-121.737
-121.708
-121.629
-121.497
-121.307
-121.058
-120.746
-120.369
-119.925
-119.409
-118.817
-118.145
-117.388
-116.543
-115.605
-114.572
-113.441
-112.212
-110.885
-109.462
-107.944
-106.331
-104.623
-102.817
-100.913
-98.915
-96.828
-94.664
-92.438
-90.169
-87.878
-85.59
-83.324
-81.096
-78.913
-76.776
-74.686
-72.641
-70.648
-68.718
-66.863
-65.091
-63.41
-61.822
-60.322
-58.897
-57.525
-56.178
-54.84
-53.504
-52.183
-50.91
-49.724
-48.672
-47.792
-47.112
-46.654
-46.434
-46.462
-46.733
-47.253
-48.03
-49.084
-50.448
-52.136
-54.144
-56.442
-58.976
-61.673
-64.453
-67.239
-69.962
-72.569
-75.026
-77.329
-79.518
-81.639
-83.735
-85.837
-87.941
-90.065
-92.263
-94.607
-97.193
-100.122
-103.469
-107.33
-111.863
-117.115
-122.994
-129.243
-135.334
-140.725
-145.018
-147.763
-148.451
-146.852
-143.004
-137.353
-131.054
-125.251
-120.714
-118.244
-118.455
-121.365
-126.439
-132.218
-135.846
-134.335
-125.159
-105.541
-73.095
-26.214
36.145
111.889
195.355
281.059
363.174
439.55
513.261
582.41
642.872
685.406
691.776
653.075
567.372
438.756
287.488
133.116
-7.662
-115.901
-183.664
-210.015
-195.665
-150.564
-88.83
-23.523
29.123
57.985
62.859
49.645
31.281
19.863
18.976
26.546
36.054
42.385
45.113
45.896
47.384
50.686
55.036
59.465
63.052
65.268
65.96
65.056
62.588
58.787
53.968
48.396
42.286
35.841
29.264
22.755
16.513
10.647
5.216
0.29
-4.063
-7.764
-10.754
-13.023
-14.591
-15.497
-15.793
-15.541
-14.817
-13.707
-12.286
-10.625
-8.784
-6.804
-4.715
-2.544
-0.307
1.972
4.277
6.605
8.957
11.345
13.785
16.296
18.905
21.64
24.522
27.569
30.792
34.197
37.79
41.571
45.532
49.665
53.961
58.406
62.985
67.68
72.462
77.306
82.185
87.075
91.957
96.813
101.63
106.393
111.083
115.694
120.228
124.691
129.094
133.449
137.769
142.073
146.392
150.75
155.16
159.629
164.148
168.704
173.274
177.832
182.345
186.766
191.032
195.071
198.801
202.143
205.021
207.354
209.052
210.038
210.248
209.638
208.181
205.866
202.695
198.683
193.856
188.265
181.976
175.073
167.655
159.817
151.644
143.229
134.672
126.06
117.473
108.977
100.62
92.442
84.478
76.755
69.289
62.084
55.13
48.407
41.887
35.546
29.371
23.347
17.459
11.697
6.056
0.539
-4.842
-10.075
-15.151
-20.057
-24.781
-29.307
-33.615
-37.682
-41.487
-45.013
-48.249
-51.189
-53.83
-56.172
-58.218
-59.978
-61.464
-62.691
-63.669
-64.411
-64.929
-65.237
-65.351
-65.289
-65.067
-64.703
-64.213
-63.613
-62.919
-62.147
-61.309
-60.421
-59.491
-58.534
-57.564
-56.594
-55.64
-54.717
-53.834
-53.004
-52.239
-51.547
-50.934
-50.405
-49.955
-49.588
-49.311
-49.133
-49.065
-49.116
-49.289
-49.585
-50.013
-50.57
-51.256
-52.064
-52.977
-53.982
-55.075
-56.256
-57.527
-58.879
-60.274
-61.666
-63.003
-64.231
-65.305
-66.177
-66.779
-67.068
-67.007
-66.575
-65.785
-64.634
-63.111
-61.202
-58.905
-56.257
-53.341
-50.269
-47.144
-44.067
-41.135
-38.479
-36.252
-34.584
-33.59
-33.323
-33.821
-35.207
-37.508
-40.63
-44.358
-48.22
-51.707
-54.449
-55.958
-55.636
-53.306
-49.066
-43.371
-37.438
-32.29
-28.534
-27.131
-28.909
-33.697
-40.737
-48.264
-53.116
-52.669
-44.678
-26.046
5.957
52.978
114.24
185.635
262.049
338.373
413.883
491.429
568.176
639.72
695.293
714.938
690.037
616.981
497.247
351.635
198.77
57.856
-46.279
-107.006
-125.974
-112.151
-87.366
-64.244
-47.624
-37.834
-27.596
-14.746
-1.544
9.719
15.21
14.19
8.782
0.796
-7.494
-14.166
-18.619
-20.598
-20.192
-18.033
-14.792
-11.047
-7.469
-4.679
-2.942
-2.337
-2.791
-4.044
-5.872
-8.092
-10.503
-12.943
-15.32
-17.556
-19.581
-21.344
-22.766
-23.781
-24.363
-24.505
-24.217
-23.52
-22.444
-21.042
-19.389
-17.567
-15.628
-13.591
-11.449
-9.203
-6.876
-4.5
-2.112
0.274
2.655
5.032
7.406
9.776
12.158
14.583
17.102
19.764
22.594
25.592
28.736
32.012
35.422
38.968
42.647
46.449
50.358
54.363
58.463
62.647
66.896
71.18
75.461
79.706
83.898
88.031
92.111
96.138
100.105
104.011
107.866
111.685
115.486
119.279
123.073
126.879
130.725
134.634
138.624
142.705
146.868
151.093
155.353
159.612
163.832
167.967
171.955
175.722
179.192
182.295
184.973
187.171
188.813
189.83
190.163
189.759
188.59
186.64
183.905
180.389
176.108
171.094
165.401
159.101
152.273
144.982
137.272
129.176
120.755
112.079
103.219
94.247
85.226
76.211
67.269
58.471
49.875
41.522
33.433
25.605
18.041
10.763
3.814
-2.745
-8.877
-14.568
-19.808
-24.594
-28.929
-32.823
-36.312
-39.459
-42.309
-44.892
-47.224
-49.303
-51.135
-52.749
-54.181
-55.482
-56.69
-57.829
-58.922
-59.993
-61.052
-62.102
-63.123
-64.07
-64.916
-65.648
-66.26
-66.764
-67.161
-67.448
-67.624
-67.686
-67.635
-67.474
-67.205
-66.829
-66.351
-65.785
-65.154
-64.492
-63.823
-63.165
-62.53
-61.925
-61.358
-60.837
-60.364
-59.936
-59.553
-59.214
-58.921
-58.677
-58.481
-58.331
-58.223
-58.149
-58.105
-58.087
-58.091
-58.114
-58.152
-58.203
-58.266
-58.34
-58.424
-58.517
-58.617
-58.72
-58.823
-58.924
-59.021
-59.111
-59.191
-59.26
-59.315
-59.357
-59.384
-59.395
-59.391
-59.37
-59.334
-59.281
-59.213
-59.13
-59.032
-58.92
-58.794
-58.654
-58.502
-58.338
-58.162
-57.976
-57.78
-57.576
-57.364
-57.147
-56.926
-56.702
-56.477
-56.253
-56.033
-55.818
-55.61
-55.413
-55.227
-55.056
-54.901
-54.764
-54.647
-54.552
-54.481
-54.435
-54.415
-54.425
-54.464
-54.535
-54.64
-54.78
-54.956
-55.172
-55.427
-55.725
-56.066
-56.453
-56.885
-57.364
-57.891
-58.466
-59.089
-59.759
-60.476
-61.239
-62.045
-62.895
-63.785
-64.714
-65.68
-66.679
-67.71
-68.769
-69.854
-70.96
-72.084
-73.224
-74.374
-75.53
-76.689
-77.845
-78.995
-80.133
-81.254
-82.354
-83.425
-84.464
-85.464
-86.419
-87.325
-88.175
-88.965
-89.69
-90.345
-90.927
-91.432
-91.857
-92.199
-92.457
-92.629
-92.714
-92.71
-92.619
-92.441
-92.177
-91.83
-91.401
-90.895
-90.315
-89.667
-88.959
-88.197
-87.389
-86.544
-85.671
-84.78
-83.883
-82.986
-82.101
-81.236
-80.402
-79.609
-78.869
-78.193
-77.592
-77.076
-76.654
-76.335
-76.125
-76.028
-76.044
-76.176
-76.428
-76.808
-77.327
-77.992
-78.806
-79.772
-80.886
-82.141
-83.521
-84.997
-86.542
-88.123
-89.713
-91.29
-92.833
-94.312
-95.698
-96.945
-98.005
-98.84
-99.414
-99.693
-99.666
-99.341
-98.749
-97.962
-97.047
-96.057
-95.061
-94.127
-93.333
-92.774
-92.538
-92.699
-93.373
-94.706
-96.774
-99.543
-102.816
-106.206
-109.316
-111.81
-113.308
-113.32
-111.519
-107.932
-103.001
-97.676
-92.931
-89.306
-87.243
-87.366
-89.965
-94.636
-100.156
-104.123
-103.846
-97.46
-83.089
-58.377
-21.379
29.413
93.289
165.921
242.615
319.406
394.574
470.353
546.52
617.855
675.591
705.427
694.645
639.905
542.107
409.011
258.364
105.822
-30.293
-129.844
-187.864
-204.73
-185.801
-146.697
-97.187
-46.013
-5.556
18.798
25.02
15.183
-0.777
-14.66
-23.204
-26.5
-28.591
-32.49
-38.402
-44.996
-49.844
-51.747
-50.676
-47.414
-43.657
-40.487
-38.278
-37.252
-37.265
-38.195
-40.248
-43.346
-47.083
-51.153
-55.264
-59.219
-63.02
-66.61
-69.828
-72.585
-74.851
-76.609
-77.901
-78.748
-79.132
-79.063
-78.562
-77.659
-76.399
-74.819
-72.949
-70.83
-68.503
-66.012
-63.408
-60.724
-57.988
-55.218
-52.422
-49.6
-46.751
-43.867
-40.936
-37.952
-34.901
-31.777
-28.572
-25.281
-21.895
-18.409
-14.814
-11.106
-7.28
-3.333
0.735
4.923
9.228
13.647
18.172
22.797
27.516
32.32
37.203
42.154
47.163
52.219
57.312
62.43
67.558
72.685
77.794
82.87
87.898
92.86
97.738
102.512
107.16
111.663
115.998
120.145
124.085
127.798
131.265
134.467
137.39
140.018
142.335
144.323
145.964
147.242
148.148
148.677
148.831
148.616
148.037
147.102
145.826
144.22
142.291
140.039
137.459
134.544
131.295
127.724
123.849
119.693
115.264
110.571
105.621
100.412
94.946
89.221
83.221
76.944
70.41
63.649
56.721
49.694
42.617
35.534
28.477
21.474
14.564
7.787
1.177
-5.223
-11.369
-17.212
-22.679
-27.718
-32.305
-36.439
-40.15
-43.487
-46.483
-49.162
-51.548
-53.658
-55.514
-57.14
-58.546
-59.751
-60.782
-61.673
-62.482
-63.255
-64.016
-64.773
-65.511
-66.202
-66.83
-67.386
-67.853
-68.229
-68.511
-68.698
-68.803
-68.839
-68.81
-68.714
-68.539
-68.274
-67.919
-67.483
-66.978
-66.427
-65.845
-65.246
-64.648
-64.062
-63.495
-62.952
-62.43
-61.924
-61.431
-60.951
-60.486
-60.038
-59.608
-59.193
-58.792
-58.401
-58.017
-57.636
-57.254
-56.867
-56.472
-56.067
-55.653
-55.231
-54.802
-54.366
-53.924
-53.475
-53.019
-52.557
-52.088
-51.611
-51.125
-50.632
-50.13
-49.621
-49.105
-48.584
-48.057
-47.527
-46.994
-46.46
-45.927
-45.395
-44.867
-44.342
-43.823
-43.311
-42.806
-42.309
-41.821
-41.342
-40.873
-40.414
-39.965
-39.524
-39.093
-38.67
-38.254
-37.846
-37.443
-37.047
-36.657
-36.272
-35.893
-35.52
-35.153
-34.792
-34.437
-34.09
-33.751
-33.42
-33.097
-32.784
-32.481
-32.188
-31.907
-31.638
-31.382
-31.14
-30.913
-30.702
-30.509
-30.335
-30.181
-30.049
-29.939
-29.854
-29.794
-29.761
-29.755
-29.779
-29.833
-29.919
-30.036
-30.185
-30.368
-30.583
-30.831
-31.112
-31.425
-31.77
-32.146
-32.552
-32.988
-33.453
-33.947
-34.471
-35.026
-35.613
-36.232
-36.886
-37.574
-38.299
-39.06
-39.856
-40.686
-41.549
-42.446
-43.377
-44.342
-45.341
-46.375
-47.442
-48.542
-49.671
-50.824
-51.995
-53.177
-54.365
-55.563
-56.774
-58
-59.243
-60.503
-61.776
-63.055
-64.328
-65.572
-66.764
-67.879
-68.895
-69.797
-70.569
-71.196
-71.654
-71.905
-71.912
-71.641
-71.064
-70.155
-68.905
-67.322
-65.435
-63.31
-61.009
-58.583
-56.097
-53.611
-51.206
-48.98
-47.028
-45.445
-44.358
-43.935
-44.274
-45.351
-46.994
-48.835
-50.469
-51.568
-51.788
-50.659
-47.907
-43.64
-38.329
-33.007
-28.792
-26.294
-25.956
-28.34
-33.598
-41.171
-49.769
-56.881
-59.474
-55.378
-42.828
-19.698
15.824
64.798
127.563
200.826
278.085
354.679
426.394
493.537
561.747
629.618
691.56
735.294
739.634
695.553
602.781
468.63
317.458
168.25
37.045
-58.581
-119.235
-147.926
-149.623
-138.107
-115.255
-83.355
-49.573
-15.927
8.351
18.584
20.569
17.796
16.218
17.956
17.758
13.79
5.89
-4.811
-14.519
-21.689
-26.259
-27.769
-26.604
-23.323
-18.545
-13.438
-8.796
-4.801
-1.553
0.798
2.157
2.499
2.034
1.246
0.486
-0.109
-0.478
-0.615
-0.525
-0.209
0.278
0.812
1.305
1.719
2.04
2.279
2.454
2.576
2.673
2.788
2.942
3.136
3.377
3.665
4.026
4.518
5.184
6.055
7.161
8.519
10.149
12.074
14.291
16.776
19.499
22.414
25.493
28.728
32.107
35.617
39.244
42.959
46.75
50.612
54.538
58.523
62.558
66.633
70.747
74.912
79.14
83.448
87.842
92.319
96.874
101.5
106.19
110.931
115.706
120.491
125.265
130.006
134.696
139.313
143.834
148.232
152.48
156.552
160.422
164.067
167.464
170.589
173.423
175.948
178.146
180.004
181.508
182.644
183.402
183.77
183.741
183.308
182.466
181.213
179.548
177.473
174.992
172.111
168.84
165.188
161.168
156.795
152.084
147.054
141.725
136.118
130.256
124.162
117.862
111.383
104.749
97.99
91.132
84.203
77.231
70.243
63.267
56.329
49.454
42.669
35.997
29.461
23.084
16.886
10.886
5.102
-0.451
-5.757
-10.803
-15.58
-20.076
-24.286
-28.202
-31.821
-35.14
-38.158
-40.877
-43.299
-45.428
-47.27
-48.833
-50.124
-51.154
-51.933
-52.473
-52.788
-52.89
-52.793
-52.513
-52.065
-51.464
-50.726
-49.865
-48.899
-47.841
-46.707
-45.511
-44.268
-42.991
-41.693
-40.387
-39.085
-37.798
-36.537
-35.311
-34.13
-33.002
-31.935
-30.936
-30.009
-29.161
-28.395
-27.714
-27.122
-26.619
-26.206
-25.884
-25.652
-25.509
-25.452
-25.48
-25.589
-25.776
-26.036
-26.367
-26.763
-27.219
-27.732
-28.296
-28.906
-29.557
-30.243
-30.96
-31.703
-32.465
-33.242
-34.028
-34.819
-35.608
-36.391
-37.162
-37.917
-38.652
-39.361
-40.041
-40.687
-41.296
-41.864
-42.389
-42.868
-43.298
-43.677
-44.004
-44.277
-44.496
-44.659
-44.768
-44.821
-44.82
-44.766
-44.658
-44.5
-44.292
-44.036
-43.736
-43.393
-43.01
-42.59
-42.138
-41.656
-41.15
-40.623
-40.081
-39.528
-38.97
-38.411
-37.857
-37.314
-36.787
-36.28
-35.799
-35.349
-34.934
-34.559
-34.23
-33.948
-33.719
-33.545
-33.429
-33.374
-33.38
-33.449
-33.583
-33.78
-34.042
-34.368
-34.758
-35.209
-35.721
-36.292
-36.919
-37.6
-38.331
-39.108
-39.929
-40.788
-41.682
-42.607
-43.558
-44.532
-45.525
-46.535
-47.56
-48.598
-49.647
-50.705
-51.772
-52.846
-53.925
-55.009
-56.094
-57.181
-58.269
-59.359
-60.454
-61.555
-62.663
-63.779
-64.906
-66.043
-67.187
-68.336
-69.487
-70.641
-71.803
-72.981
-74.18
-75.408
-76.666
-77.953
-79.265
-80.589
-81.902
-83.183
-84.403
-85.541
-86.578
-87.493
-88.266
-88.872
-89.275
-89.435
-89.32
-88.898
-88.146
-87.057
-85.645
-83.947
-82.034
-79.976
-77.838
-75.698
-73.639
-71.754
-70.156
-68.949
-68.22
-68.088
-68.711
-70.17
-72.454
-75.391
-78.601
-81.69
-84.317
-86.08
-86.519
-85.323
-82.399
-78.106
-73.342
-69.013
-65.822
-64.369
-65.144
-68.4
-73.96
-80.658
-86.256
-88.223
-84.143
-71.687
-48.671
-12.96
37.371
101.432
175.194
254.317
333.872
412.972
495.799
581.548
664.744
733.164
766.581
753.042
691.626
589.26
461.593
323.832
186.989
63.577
-32.719
-94.297
-119.374
-115.447
-99.447
-82.928
-71.223
-64.472
-57.037
-47.644
-38.44
-31.498
-29.796
-33.53
-40.62
-49.362
-57.714
-63.967
-67.6
-68.479
-66.833
-63.395
-58.908
-54.025
-49.46
-45.838
-43.448
-42.371
-42.531
-43.697
-45.674
-48.301
-51.383
-54.732
-58.198
-61.657
-65.004
-68.156
-71.006
-73.443
-75.392
-76.807
-77.674
-78.002
-77.811
-77.125
-75.982
-74.432
-72.519
-70.291
-67.793
-65.07
-62.173
-59.156
-56.072
-52.97
-49.884
-46.837
-43.838
-40.891
-37.991
-35.13
-32.295
-29.473
-26.649
-23.816
-20.965
-18.09
-15.18
-12.226
-9.218
-6.147
-3.006
0.212
3.511
6.894
10.361
13.912
17.545
21.256
25.043
28.902
32.83
36.823
40.876
44.984
49.141
53.34
57.574
61.834
66.111
70.393
74.668
78.92
83.134
87.292
91.377
95.369
99.251
103.003
106.606
110.045
113.303
116.364
119.209
121.819
124.172
126.252
128.044
129.536
130.719
131.59
132.149
132.405
132.372
132.053
131.453
130.567
129.387
127.904
126.114
124.006
121.585
118.851
115.803
112.448
108.789
104.821
100.532
95.898
90.887
85.489
79.708
73.556
67.073
60.297
53.279
46.085
38.769
31.379
23.965
16.561
9.201
1.94
-5.169
-12.055
-18.634
-24.848
-30.659
-36.034
-40.973
-45.488
-49.605
-53.379
-56.855
-60.066
-63.041
-65.794
-68.336
-70.695
-72.9
-74.985
-77.004
-78.991
-80.972
-82.972
-84.992
-87.022
-89.041
-91.003
-92.87
-94.618
-96.227
-97.692
-99.011
-100.178
-101.187
-102.036
-102.714
-103.211
-103.524
-103.644
-103.574
-103.324
-102.908
-102.353
-101.685
-100.919
-100.071
-99.148
-98.158
-97.105
-95.994
-94.823
-93.597
-92.319
-90.995
-89.633
-88.239
-86.817
-85.371
-83.901
-82.409
-80.896
-79.368
-77.825
-76.274
-74.719
-73.165
-71.621
-70.092
-68.586
-67.106
-65.657
-64.243
-62.869
-61.538
-60.252
-59.017
-57.834
-56.707
-55.641
-54.639
-53.704
-52.838
-52.045
-51.325
-50.681
-50.113
-49.622
-49.208
-48.871
-48.609
-48.423
-48.31
-48.269
-48.298
-48.394
-48.555
-48.779
-49.063
-49.404
-49.799
-50.244
-50.738
-51.277
-51.858
-52.479
-53.137
-53.828
-54.551
-55.303
-56.08
-56.879
-57.698
-58.535
-59.388
-60.256
-61.139
-62.036
-62.948
-63.876
-64.821
-65.784
-66.765
-67.765
-68.783
-69.82
-70.878
-71.956
-73.055
-74.178
-75.325
-76.498
-77.697
-78.919
-80.162
-81.419
-82.687
-83.961
-85.243
-86.534
-87.833
-89.14
-90.455
-91.774
-93.088
-94.379
-95.618
-96.775
-97.817
-98.714
-99.443
-99.979
-100.294
-100.362
-100.148
-99.619
-98.751
-97.518
-95.896
-93.877
-91.472
-88.729
-85.736
-82.593
-79.394
-76.221
-73.153
-70.285
-67.727
-65.592
-63.973
-62.917
-62.486
-62.82
-63.986
-65.942
-68.482
-71.118
-73.352
-74.863
-75.228
-73.861
-70.409
-64.78
-57.304
-49.157
-41.402
-34.437
-29.117
-26.612
-27.253
-30.976
-35.768
-36.739
-31.274
-18.691
0.662
24.044
53.759
94.901
151.641
229.185
325.577
435.931
555.188
670.513
769.455
837.537
856.896
822.029
734.44
601.073
440.935
271.51
110.191
-22.131
-114.353
-163.322
-172.567
-154.82
-122.08
-82.431
-43.493
-12.262
5.487
6.232
-7.661
-27.294
-44.202
-53.7
-55.799
-55.225
-55.292
-56.467
-57.866
-57.38
-54.34
-49.673
-44.351
-39.424
-35.607
-32.991
-31.574
-31.307
-31.944
-33.275
-35.153
-37.407
-39.886
-42.47
-45.041
-47.476
-49.693
-51.603
-53.098
-54.105
-54.572
-54.477
-53.827
-52.643
-50.95
-48.774
-46.145
-43.093
-39.648
-35.852
-31.758
-27.421
-22.901
-18.254
-13.534
-8.791
-4.077
0.575
5.143
9.61
13.967
18.186
22.227
26.056
29.65
33.005
36.145
39.088
41.851
44.465
46.96
49.386
51.809
54.272
56.797
59.412
62.141
65.038
68.187
71.649
75.463
79.647
84.183
89.063
94.289
99.838
105.67
111.732
117.952
124.295
130.769
137.361
144.045
150.768
157.429
163.953
170.288
176.388
182.229
187.773
192.96
197.763
202.178
206.196
209.821
213.004
215.64
217.654
218.992
219.627
219.575
218.834
217.386
215.223
212.335
208.726
204.418
199.403
193.649
187.14
179.864
171.862
163.243
154.089
144.471
134.452
124.068
113.38
102.471
91.413
80.272
69.124
58.041
47.131
36.535
26.377
16.775
7.803
-0.519
-8.161
-15.09
-21.282
-26.711
-31.376
-35.303
-38.512
-41.02
-42.868
-44.106
-44.821
-45.139
-45.168
-45.012
-44.752
-44.434
-44.111
-43.832
-43.631
-43.536
-43.561
-43.701
-43.96
-44.345
-44.846
-45.445
-46.102
-46.753
-47.349
-47.851
-48.228
-48.464
-48.549
-48.469
-48.227
-47.834
-47.304
-46.656
-45.903
-45.053
-44.122
-43.128
-42.098
-41.063
-40.048
-39.069
-38.141
-37.272
-36.469
-35.737
-35.074
-34.471
-33.924
-33.425
-32.971
-32.56
-32.188
-31.85
-31.54
-31.252
-30.982
-30.726
-30.482
-30.246
-30.016
-29.79
-29.567
-29.349
-29.134
-28.921
-28.709
-28.497
-28.281
-28.062
-27.837
-27.605
-27.363
-27.111
-26.848
-26.574
-26.288
-25.99
-25.679
-25.356
-25.021
-24.675
-24.316
-23.946
-23.564
-23.171
-22.767
-22.352
-21.926
-21.489
-21.042
-20.585
-20.118
-19.643
-19.159
-18.668
-18.17
-17.667
-17.158
-16.647
-16.133
-15.619
-15.106
-14.598
-14.095
-13.601
-13.117
-12.646
-12.191
-11.753
-11.335
-10.94
-10.57
-10.227
-9.913
-9.632
-9.386
-9.176
-9.005
-8.874
-8.785
-8.739
-8.737
-8.779
-8.866
-8.998
-9.173
-9.392
-9.653
-9.956
-10.297
-10.675
-11.088
-11.531
-12.001
-12.496
-13.009
-13.537
-14.075
-14.618
-15.161
-15.698
-16.224
-16.734
-17.221
-17.681
-18.107
-18.494
-18.837
-19.131
-19.37
-19.55
-19.668
-19.719
-19.702
-19.612
-19.449
-19.21
-18.894
-18.502
-18.033
-17.487
-16.866
-16.171
-15.407
-14.574
-13.678
-12.722
-11.711
-10.651
-9.547
-8.405
-7.231
-6.032
-4.814
-3.586
-2.354
-1.126
0.091
1.289
2.461
3.599
4.697
5.747
6.743
7.679
8.55
9.35
10.074
10.719
11.279
11.753
12.137
12.428
12.626
12.73
12.738
12.651
12.47
12.197
11.832
11.379
10.841
10.22
9.52
8.746
7.903
6.995
6.027
5.006
3.938
2.828
1.682
0.509
-0.687
-1.899
-3.121
-4.345
-5.567
-6.78
-7.978
-9.155
-10.306
-11.425
-12.507
-13.548
-14.542
-15.486
-16.374
-17.204
-17.971
-18.674
-19.308
-19.871
-20.361
-20.776
-21.115
-21.376
-21.558
-21.661
-21.684
-21.629
-21.495
-21.284
-20.996
-20.634
-20.199
-19.692
-19.117
-18.474
-17.767
-16.999
-16.172
-15.289
-14.353
-13.369
-12.339
-11.268
-10.159
-9.017
-7.845
-6.648
-5.431
-4.198
-2.954
-1.704
-0.452
0.795
2.034
3.26
4.467
5.65
6.806
7.929
9.016
10.061
11.062
12.013
12.912
13.756
14.539
15.26
15.916
16.504
17.021
17.467
17.837
18.133
18.351
18.492
18.555
18.54
18.448
18.279
18.034
17.715
17.323
16.862
16.335
15.743
15.091
14.383
13.622
12.813
11.961
11.07
10.145
9.191
8.213
7.217
6.208
5.191
4.172
3.156
2.149
1.155
0.181
-0.77
-1.691
-2.578
-3.427
-4.233
-4.992
-5.7
-6.355
-6.952
-7.489
-7.965
-8.376
-8.721
-9
-9.21
-9.354
-9.429
-9.437
-9.379
-9.257
-9.071
-8.824
-8.518
-8.157
-7.743
-7.279
-6.769
-6.217
-5.626
-5.001
-4.345
-3.664
-2.961
-2.241
-1.509
-0.768
-0.024
0.719
1.458
2.188
2.905
3.606
4.286
4.942
5.572
6.172
6.739
7.271
7.766
8.222
8.637
9.011
9.342
9.631
9.876
10.078
10.238
10.356
10.433
10.469
10.467
10.428
10.353
10.245
10.107
9.939
9.745
9.527
9.288
9.03
8.756
8.468
8.169
7.861
7.547
7.23
6.913
6.597
6.286
5.981
5.685
5.399
5.126
4.867
4.623
4.396
4.186
3.994
3.821
3.668
3.534
3.421
3.327
3.252
3.196
3.157
3.135
3.129
3.137
3.157
3.189
3.229
3.277
3.331
3.388
3.447
3.504
3.558
3.606
3.645
3.673
3.688
3.686
3.665
3.624
3.558
3.468
3.349
3.201
3.02
2.805
2.554
2.266
1.939
1.57
1.161
0.708
0.213
-0.326
-0.909
-1.536
-2.207
-2.922
-3.679
-4.479
-5.32
-6.202
-7.122
-8.079
-9.072
-10.099
-11.158
-12.246
-13.363
-14.505
-15.67
-16.857
-18.063
-19.286
-20.523
-21.773
-23.032
-24.298
-25.568
-26.841
-28.113
-29.383
-30.648
-31.905
-33.153
-34.39
-35.613
-36.82
-38.009
-39.18
-40.329
-41.455
-42.558
-43.636
-44.687
-45.71
-46.705
-47.67
-48.603
-49.504
-50.37
-51.201
-51.996
-52.752
-53.47
-54.146
-54.781
-55.374
-55.923
-56.428
-56.889
-57.305
-57.676
-58.002
-58.285
-58.526
-58.725
-58.885
-59.007
-59.096
-59.154
-59.186
-59.196
-59.189
-59.169
-59.14
-59.108
-59.075
-59.046
-59.024
-59.013
-59.018
-59.043
-59.094
-59.178
-59.297
-59.458
-59.662
-59.909
-60.198
-60.53
-60.903
-61.323
-61.794
-62.318
-62.898
-63.537
-64.236
-64.991
-65.786
-66.597
-67.4
-68.172
-68.893
-69.55
-70.127
-70.603
-70.957
-71.161
-71.188
-71.02
-70.632
-70.001
-69.111
-67.969
-66.626
-65.156
-63.64
-62.142
-60.692
-59.336
-58.142
-57.19
-56.576
-56.391
-56.684
-57.538
-59.12
-61.48
-64.546
-68.076
-71.508
-74.254
-75.882
-75.881
-73.714
-69.244
-62.647
-54.534
-46.373
-39.625
-35.354
-34.796
-38.865
-47.382
-59.494
-73.501
-85.899
-92.854
-91.055
-76.28
-45.86
-0.29
59.815
132.613
215.963
311.069
416.176
523.36
620.51
689.125
714.392
693.771
631.809
541.926
435.989
314.839
182.271
43.613
-89.493
-192.607
-253.268
-271.564
-255.193
-225.74
-194.316
-160.997
-129.101
-95.334
-62.34
-39.349
-25.225
-19.454
-20.732
-23.422
-28.631
-37.305
-47.71
-59.652
-70.954
-79.555
-85.046
-87.162
-86.368
-83.512
-79.575
-75.672
-72.429
-70.19
-69.253
-69.598
-71.145
-73.763
-76.99
-80.302
-83.374
-85.995
-88.064
-89.612
-90.63
-91.096
-91.065
-90.615
-89.806
-88.687
-87.268
-85.541
-83.52
-81.24
-78.746
-76.096
-73.339
-70.515
-67.652
-64.771
-61.887
-59.011
-56.151
-53.308
-50.473
-47.639
-44.802
-41.961
-39.112
-36.249
-33.361
-30.433
-27.455
-24.419
-21.321
-18.157
-14.926
-11.621
-8.241
-4.782
-1.245
2.372
6.072
9.861
13.742
17.716
21.782
25.938
30.182
34.516
38.942
43.459
48.058
52.733
57.473
62.265
67.096
71.944
76.777
81.567
86.285
90.911
95.435
99.842
104.12
108.255
112.232
116.047
119.708
123.218
126.578
129.795
132.872
135.828
138.699
141.508
144.275
147.008
149.693
152.314
154.857
157.293
159.594
161.713
163.579
165.126
166.3
167.037
167.288
166.992
166.07
164.464
162.13
159.03
155.159
150.517
145.108
138.959
132.105
124.596
116.526
107.991
99.089
89.922
80.572
71.126
61.684
52.331
43.14
34.181
25.506
17.155
9.177
1.602
-5.539
-12.224
-18.47
-24.312
-29.792
-34.953
-39.819
-44.406
-48.737
-52.831
-56.698
-60.348
-63.777
-66.981
-69.966
-72.738
-75.31
-77.698
-79.893
-81.868
-83.588
-85.024
-86.162
-86.996
-87.52
-87.729
-87.627
-87.222
-86.533
-85.584
-84.386
-82.948
-81.275
-79.368
-77.244
-74.927
-72.447
-69.833
-67.109
-64.296
-61.417
-58.495
-55.553
-52.604
-49.657
-46.722
-43.812
-40.942
-38.13
-35.391
-32.737
-30.18
-27.728
-25.388
-23.169
-21.076
-19.112
-17.28
-15.58
-14.015
-12.59
-11.306
-10.162
-9.159
-8.292
-7.56
-6.96
-6.488
-6.136
-5.9
-5.773
-5.749
-5.821
-5.983
-6.227
-6.547
-6.934
-7.381
-7.88
-8.423
-9.002
-9.608
-10.234
-10.871
-11.512
-12.149
-12.776
-13.385
-13.969
-14.524
-15.043
-15.523
-15.957
-16.344
-16.679
-16.961
-17.188
-17.357
-17.469
-17.523
-17.52
-17.461
-17.346
-17.179
-16.96
-16.694
-16.383
-16.031
-15.642
-15.22
-14.77
-14.297
-13.805
-13.301
-12.789
-12.277
-11.77
-11.275
-10.798
-10.347
-9.927
-9.547
-9.212
-8.927
-8.7
-8.536
-8.438
-8.413
-8.463
-8.593
-8.805
-9.102
-9.487
-9.96
-10.523
-11.176
-11.918
-12.748
-13.665
-14.666
-15.747
-16.906
-18.139
-19.442
-20.809
-22.237
-23.718
-25.247
-26.817
-28.421
-30.052
-31.702
-33.363
-35.027
-36.688
-38.338
-39.969
-41.576
-43.151
-44.691
-46.191
-47.646
-49.055
-50.414
-51.722
-52.978
-54.18
-55.329
-56.423
-57.462
-58.447
-59.378
-60.259
-61.091
-61.879
-62.626
-63.337
-64.014
-64.66
-65.276
-65.862
-66.419
-66.949
-67.462
-67.965
-68.464
-68.966
-69.476
-69.995
-70.522
-71.042
-71.531
-71.966
-72.325
-72.588
-72.742
-72.769
-72.65
-72.363
-71.878
-71.169
-70.214
-68.993
-67.486
-65.689
-63.619
-61.336
-58.926
-56.482
-54.083
-51.782
-49.642
-47.755
-46.215
-45.13
-44.595
-44.659
-45.397
-46.953
-49.359
-52.52
-56.174
-59.781
-62.808
-64.899
-65.632
-64.544
-61.449
-56.397
-49.866
-43.033
-36.973
-32.353
-29.845
-29.926
-32.527
-37.109
-42.267
-45.308
-43.478
-34.504
-15.979
14.185
57.415
114.689
184.171
260.534
338.533
412.551
481.107
548.166
612.534
670.434
711.547
715.768
672.972
580.349
441.781
278.107
108.903
-47.416
-169.491
-248.727
-283.246
-278.185
-248.091
-205.531
-161.659
-122.425
-89.281
-63.379
-41.59
-22.948
-7.851
4.362
10.482
9.631
3.705
-5.905
-15.613
-23.035
-27.82
-29.064
-26.755
-21.625
-14.337
-6.259
1.083
6.979
11.084
13.073
12.934
10.779
6.798
1.574
-4.18
-10.022
-15.643
-20.851
-25.597
-29.783
-33.291
-36.099
-38.228
-39.691
-40.513
-40.689
-40.195
-39.053
-37.309
-35.044
-32.361
-29.364
-26.156
-22.813
-19.391
-15.942
-12.513
-9.137
-5.838
-2.618
0.532
3.619
6.646
9.624
12.569
15.51
18.485
21.533
24.694
28.004
31.486
35.158
39.03
43.108
47.389
51.862
56.507
61.297
66.213
71.236
76.35
81.549
86.815
92.13
97.474
102.82
108.151
113.464
118.759
124.038
129.313
134.606
139.953
145.415
151.032
156.832
162.825
169
175.346
181.853
188.505
195.281
202.142
209.026
215.87
222.611
229.158
235.41
241.235
246.47
250.977
254.65
257.406
259.191
259.959
259.666
258.293
255.837
252.319
247.779
242.267
235.83
228.551
220.532
211.91
202.856
193.516
184.004
174.423
164.852
155.364
146.031
136.904
128.011
119.377
111.013
102.935
95.16
87.684
80.486
73.528
66.749
60.111
53.59
47.173
40.854
34.635
28.513
22.504
16.633
10.922
5.39
0.052
-5.083
-10
-14.678
-19.092
-23.216
-27.031
-30.531
-33.71
-36.568
-39.109
-41.341
-43.277
-44.937
-46.339
-47.499
-48.431
-49.148
-49.665
-50
-50.17
-50.191
-50.079
-49.849
-49.515
-49.092
-48.592
-48.028
-47.409
-46.744
-46.042
-45.314
-44.567
-43.811
-43.052
-42.298
-41.553
-40.824
-40.114
-39.426
-38.761
-38.12
-37.504
-36.911
-36.341
-35.793
-35.264
-34.751
-34.253
-33.766
-33.288
-32.815
-32.344
-31.871
-31.395
-30.913
-30.421
-29.917
-29.399
-28.865
-28.314
-27.742
-27.15
-26.536
-25.899
-25.238
-24.555
-23.849
-23.122
-22.374
-21.608
-20.826
-20.031
-19.225
-18.411
-17.593
-16.774
-15.959
-15.149
-14.35
-13.565
-12.798
-12.051
-11.33
-10.637
-9.975
-9.346
-8.754
-8.199
-7.685
-7.212
-6.782
-6.396
-6.054
-5.758
-5.507
-5.301
-5.141
-5.025
-4.951
-4.92
-4.928
-4.974
-5.056
-5.171
-5.317
-5.492
-5.692
-5.916
-6.16
-6.422
-6.7
-6.99
-7.291
-7.6
-7.915
-8.233
-8.555
-8.877
-9.2
-9.522
-9.842
-10.161
-10.478
-10.792
-11.105
-11.414
-11.722
-12.028
-12.333
-12.638
-12.945
-13.253
-13.565
-13.882
-14.206
-14.537
-14.877
-15.228
-15.59
-15.964
-16.351
-16.753
-17.169
-17.6
-18.047
-18.51
-18.987
-19.479
-19.985
-20.503
-21.032
-21.57
-22.115
-22.666
-23.221
-23.776
-24.331
-24.884
-25.43
-25.97
-26.498
-27.014
-27.514
-27.996
-28.457
-28.893
-29.303
-29.684
-30.034
-30.35
-30.632
-30.877
-31.083
-31.251
-31.378
-31.464
-31.509
-31.514
-31.479
-31.405
-31.294
-31.147
-30.967
-30.756
-30.516
-30.251
-29.963
-29.656
-29.331
-28.993
-28.645
-28.29
-27.932
-27.575
-27.222
-26.877
-26.544
-26.227
-25.929
-25.654
-25.406
-25.188
-25.002
-24.852
-24.741
-24.67
-24.642
-24.657
-24.718
-24.825
-24.978
-25.177
-25.42
-25.708
-26.039
-26.41
-26.821
-27.268
-27.749
-28.262
-28.805
-29.374
-29.966
-30.579
-31.209
-31.852
-32.506
-33.166
-33.829
-34.491
-35.149
-35.798
-36.435
-37.056
-37.658
-38.237
-38.791
-39.316
-39.81
-40.27
-40.696
-41.085
-41.436
-41.749
-42.023
-42.259
-42.457
-42.619
-42.744
-42.834
-42.891
-42.917
-42.913
-42.881
-42.822
-42.741
-42.637
-42.515
-42.376
-42.224
-42.061
-41.89
-41.714
-41.537
-41.361
-41.191
-41.028
-40.876
-40.738
-40.616
-40.515
-40.435
-40.38
-40.351
-40.351
-40.381
-40.441
-40.534
-40.66
-40.818
-41.011
-41.236
-41.495
-41.788
-42.114
-42.472
-42.863
-43.286
-43.741
-44.227
-44.743
-45.288
-45.862
-46.462
-47.089
-47.74
-48.415
-49.111
-49.828
-50.564
-51.316
-52.085
-52.867
-53.662
-54.467
-55.281
-56.101
-56.927
-57.756
-58.587
-59.418
-60.248
-61.077
-61.901
-62.721
-63.534
-64.34
-65.135
-65.92
-66.691
-67.447
-68.187
-68.907
-69.607
-70.284
-70.936
-71.562
-72.16
-72.727
-73.262
-73.762
-74.227
-74.653
-75.04
-75.385
-75.688
-75.948
-76.164
-76.335
-76.461
-76.542
-76.577
-76.568
-76.515
-76.418
-76.277
-76.096
-75.875
-75.617
-75.325
-75
-74.647
-74.27
-73.875
-73.467
-73.053
-72.638
-72.229
-71.834
-71.458
-71.106
-70.784
-70.495
-70.244
-70.037
-69.879
-69.775
-69.731
-69.75
-69.835
-69.991
-70.217
-70.512
-70.872
-71.293
-71.775
-72.327
-72.953
-73.656
-74.438
-75.295
-76.223
-77.209
-78.234
-79.265
-80.271
-81.216
-82.073
-82.822
-83.442
-83.906
-84.181
-84.222
-83.989
-83.455
-82.595
-81.386
-79.83
-77.954
-75.814
-73.502
-71.109
-68.704
-66.358
-64.155
-62.176
-60.518
-59.291
-58.568
-58.448
-59.082
-60.494
-62.61
-65.234
-67.916
-70.221
-71.833
-72.289
-71.077
-68.071
-63.341
-57.36
-51.257
-45.844
-41.537
-39.014
-38.814
-40.766
-44.341
-48.043
-49.08
-45.236
-34.857
-15.738
14.077
55.809
110.462
175.892
246.448
317.757
385.249
448.185
510.967
571.999
627.369
667.43
673.106
635.754
551.909
423.232
270.327
111.932
-31.596
-134.165
-189.419
-200.258
-177.661
-145.434
-115.996
-92.634
-74.623
-54.566
-31.008
-7.089
14.338
29.159
35.936
35.695
29.785
20.892
11.853
4.008
-2.013
-6.041
-8.158
-8.082
-5.798
-2.139
1.591
4.505
6.235
6.785
6.331
4.774
2.032
-1.635
-5.727
-9.786
-13.535
-16.886
-19.881
-22.487
-24.63
-26.304
-27.548
-28.44
-29.049
-29.409
-29.515
-29.372
-29.004
-28.443
-27.737
-26.933
-26.067
-25.171
-24.265
-23.359
-22.461
-21.571
-20.689
-19.803
-18.898
-17.953
-16.956
-15.897
-14.766
-13.551
-12.234
-10.795
-9.219
-7.493
-5.608
-3.555
-1.325
1.089
3.691
6.483
9.465
12.637
15.997
19.547
23.284
27.205
31.305
35.577
40.014
44.606
49.345
54.217
59.208
64.304
69.488
74.743
80.052
85.395
90.752
96.102
101.424
106.697
111.898
117.005
121.993
126.841
131.525
136.023
140.313
144.373
148.182
151.721
154.971
157.914
160.533
162.815
164.744
166.311
167.503
168.314
168.736
168.765
168.399
167.636
166.479
164.931
162.998
160.686
158.004
154.964
151.577
147.858
143.821
139.484
134.865
129.983
124.86
119.515
113.973
108.256
102.388
96.392
90.294
84.118
77.888
71.628
65.363
59.117
52.912
46.771
40.715
34.766
28.942
23.261
17.742
12.398
7.246
2.297
-2.436
-6.944
-11.217
-15.249
-19.034
-22.567
-25.846
-28.87
-31.639
-34.155
-36.42
-38.44
-40.218
-41.762
-43.08
-44.18
-45.071
-45.764
-46.27
-46.6
-46.767
-46.784
-46.662
-46.415
-46.055
-45.596
-45.049
-44.428
-43.744
-43.009
-42.234
-41.43
-40.607
-39.775
-38.944
-38.121
-37.314
-36.532
-35.779
-35.061
-34.384
-33.752
-33.167
-32.633
-32.152
-31.724
-31.351
-31.033
-30.769
-30.557
-30.397
-30.286
-30.22
-30.199
-30.218
-30.274
-30.364
-30.485
-30.632
-30.804
-30.996
-31.205
-31.428
-31.661
-31.901
-32.146
-32.392
-32.638
-32.879
-33.115
-33.343
-33.561
-33.767
-33.961
-34.14
-34.304
-34.452
-34.583
-34.698
-34.796
-34.877
-34.943
-34.993
-35.029
-35.051
-35.06
-35.058
-35.044
-35.021
-34.989
-34.949
-34.901
-34.847
-34.785
-34.718
-34.645
-34.566
-34.481
-34.392
-34.297
-34.196
-34.09
-33.979
-33.861
-33.739
-33.61
-33.475
-33.333
-33.184
-33.027
-32.862
-32.688
-32.505
-32.31
-32.105
-31.886
-31.655
-31.409
-31.147
-30.869
-30.574
-30.262
-29.932
-29.584
-29.22
-28.838
-28.441
-28.03
-27.606
-27.171
-26.727
-26.277
-25.824
-25.372
-24.923
-24.481
-24.05
-23.636
-23.244
-22.881
-22.551
-22.263
-22.023
-21.84
-21.719
-21.666
-21.689
-21.791
-21.978
-22.256
-22.63
-23.106
-23.689
-24.384
-25.193
-26.119
-27.163
-28.321
-29.589
-30.96
-32.43
-34
-35.671
-37.442
-39.314
-41.284
-43.346
-45.491
-47.701
-49.95
-52.211
-54.457
-56.662
-58.807
-60.87
-62.832
-64.665
-66.33
-67.789
-69.004
-69.94
-70.562
-70.85
-70.805
-70.454
-69.851
-69.051
-68.093
-67.018
-65.88
-64.749
-63.702
-62.828
-62.197
-61.912
-62.149
-63.023
-64.525
-66.488
-68.51
-70.115
-70.92
-70.514
-68.359
-64.142
-57.941
-50.324
-42.579
-36.149
-32.079
-31.278
-34.647
-42.545
-54.403
-68.529
-81.804
-90.604
-91.607
-81.657
-57.649
-16.846
40.668
111.799
192.638
277.859
365.637
458.073
551.05
636.633
702.447
730.824
714.542
656.258
562.545
444.878
312.676
173.201
39.645
-69.649
-141.215
-169.31
-161.212
-136.794
-111.152
-92.146
-80.3
-68.578
-54.65
-40.237
-27.636
-20.759
-20.304
-24.207
-30.732
-37.598
-42.805
-45.743
-46.204
-44.317
-40.813
-36.4
-31.634
-27.205
-23.758
-21.579
-20.754
-21.2
-22.63
-24.819
-27.596
-30.755
-34.105
-37.488
-40.756
-43.798
-46.533
-48.89
-50.812
-52.264
-53.225
-53.7
-53.712
-53.304
-52.53
-51.434
-50.055
-48.423
-46.567
-44.531
-42.362
-40.103
-37.793
-35.462
-33.134
-30.84
-28.603
-26.429
-24.311
-22.222
-20.133
-18.027
-15.905
-13.769
-11.614
-9.432
-7.218
-4.979
-2.734
-0.479
1.809
4.18
6.682
9.342
12.171
15.164
18.321
21.647
25.155
28.845
32.703
36.725
40.915
45.299
49.913
54.762
59.815
65.015
70.306
75.652
81.04
86.461
91.902
97.361
102.836
108.345
113.921
119.572
125.286
131.03
136.752
142.421
148.025
153.553
158.996
164.328
169.502
174.467
179.165
183.512
187.427
190.818
193.574
195.613
196.868
197.285
196.843
195.526
193.323
190.244
186.299
181.499
175.882
169.498
162.411
154.716
146.496
137.83
128.822
119.576
110.201
100.805
91.461
82.22
73.124
64.206
55.498
47.043
38.863
30.965
23.349
16.004
8.942
2.189
-4.257
-10.42
-16.342
-22.067
-27.608
-32.96
-38.115
-43.071
-47.829
-52.392
-56.751
-60.887
-64.787
-68.445
-71.877
-75.112
-78.159
-81.005
-83.621
-85.984
-88.09
-89.945
-91.556
-92.92
-94.037
-94.913
-95.57
-96.031
-96.313
-96.424
-96.363
-96.128
-95.725
-95.174
-94.499
-93.721
-92.857
-91.92
-90.924
-89.891
-88.837
-87.77
-86.694
-85.609
-84.523
-83.442
-82.376
-81.332
-80.314
-79.324
-78.364
-77.435
-76.539
-75.675
-74.841
-74.034
-73.253
-72.498
-71.768
-71.064
-70.385
-69.731
-69.101
-68.495
-67.914
-67.359
-66.829
-66.325
-65.849
-65.404
-64.991
-64.614
-64.276
-63.981
-63.73
-63.527
-63.376
-63.281
-63.245
-63.272
-63.366
-63.534
-63.78
-64.109
-64.524
-65.026
-65.616
-66.293
-67.06
-67.919
-68.874
-69.926
-71.078
-72.331
-73.684
-75.134
-76.668
-78.259
-79.878
-81.497
-83.087
-84.624
-86.085
-87.441
-88.663
-89.721
-90.581
-91.216
-91.6
-91.701
-91.501
-90.992
-90.195
-89.18
-88.023
-86.806
-85.603
-84.463
-83.449
-82.651
-82.156
-82.048
-82.42
-83.318
-84.816
-87.073
-90.111
-93.809
-97.902
-101.849
-105.117
-107.359
-108.101
-106.765
-103.198
-97.531
-90.304
-82.804
-76.074
-70.69
-67.515
-67.306
-69.875
-74.444
-79.244
-81.184
-77.691
-66.566
-44.869
-9.974
39.747
103.335
176.598
254.747
332.885
410.571
491.156
571.408
646.011
703.717
724.393
699.725
628.213
512.648
371.467
221.44
77.716
-38.465
-115.283
-150.029
-146.8
-122.102
-93.925
-71.949
-59.358
-52.803
-46.499
-39.225
-32.6
-28.884
-30.164
-35.788
-43.716
-51.874
-58.221
-61.907
-62.879
-61.349
-57.926
-53.319
-48.177
-43.247
-39.223
-36.429
-34.968
-34.78
-35.653
-37.408
-39.886
-42.883
-46.197
-49.671
-53.179
-56.616
-59.899
-62.926
-65.586
-67.802
-69.526
-70.735
-71.432
-71.631
-71.352
-70.625
-69.492
-67.992
-66.165
-64.053
-61.694
-59.133
-56.421
-53.605
-50.729
-47.824
-44.907
-41.987
-39.062
-36.127
-33.17
-30.176
-27.128
-24.009
-20.81
-17.522
-14.133
-10.632
-7.004
-3.233
0.691
4.773
9.014
13.41
17.954
22.637
27.44
32.34
37.316
42.352
47.435
52.56
57.713
62.876
68.031
73.16
78.251
83.303
88.313
93.279
98.211
103.126
108.047
113.012
118.041
123.136
128.291
133.486
138.708
143.952
149.201
154.428
159.601
164.678
169.609
174.353
178.842
182.987
186.696
189.856
192.38
194.212
195.304
195.622
195.133
193.792
191.572
188.47
184.489
179.639
173.942
167.407
160.08
152.05
143.405
134.262
124.726
114.873
104.783
94.544
84.241
73.979
63.863
53.963
44.353
35.108
26.292
17.991
10.259
3.106
-3.461
-9.454
-14.89
-19.769
-24.103
-27.926
-31.278
-34.217
-36.816
-39.12
-41.175
-43.033
-44.741
-46.363
-47.95
-49.522
-51.095
-52.677
-54.273
-55.893
-57.546
-59.214
-60.876
-62.504
-64.056
-65.507
-66.843
-68.042
-69.091
-69.971
-70.668
-71.182
-71.523
-71.701
-71.723
-71.598
-71.332
-70.947
-70.465
-69.909
-69.311
-68.691
-68.064
-67.447
-66.851
-66.287
-65.763
-65.283
-64.842
-64.442
-64.082
-63.762
-63.484
-63.245
-63.04
-62.865
-62.715
-62.586
-62.475
-62.378
-62.292
-62.213
-62.139
-62.07
-62.003
-61.937
-61.87
-61.799
-61.72
-61.631
-61.528
-61.409
-61.27
-61.111
-60.928
-60.721
-60.489
-60.231
-59.949
-59.642
-59.311
-58.957
-58.582
-58.188
-57.777
-57.352
-56.914
-56.466
-56.012
-55.553
-55.093
-54.636
-54.184
-53.741
-53.311
-52.899
-52.507
-52.14
-51.801
-51.494
-51.223
-50.99
-50.799
-50.653
-50.555
-50.507
-50.512
-50.57
-50.683
-50.851
-51.075
-51.352
-51.682
-52.064
-52.494
-52.969
-53.488
-54.047
-54.642
-55.272
-55.934
-56.625
-57.344
-58.086
-58.85
-59.632
-60.43
-61.238
-62.053
-62.87
-63.686
-64.5
-65.309
-66.113
-66.911
-67.702
-68.488
-69.266
-70.035
-70.79
-71.524
-72.233
-72.921
-73.591
-74.25
-74.914
-75.591
-76.29
-77.023
-77.795
-78.606
-79.45
-80.319
-81.203
-82.099
-83.01
-83.946
-84.912
-85.894
-86.87
-87.803
-88.641
-89.336
-89.833
-90.071
-90
-89.591
-88.824
-87.694
-86.211
-84.372
-82.169
-79.588
-76.633
-73.347
-69.799
-66.089
-62.333
-58.636
-55.13
-51.979
-49.34
-47.347
-46.108
-45.67
-46.089
-47.498
-49.955
-53.392
-57.596
-62.12
-66.489
-70.338
-73.228
-74.578
-74.004
-71.428
-67.213
-62.396
-58.045
-54.859
-53.518
-54.724
-58.72
-65.034
-72.214
-77.578
-78.226
-71.54
-54.913
-25.75
18.316
77.105
147.483
225.629
306.727
389.76
477.997
568.949
655.808
725.619
759.007
746.877
690.298
597.506
482.964
355.959
223.386
94.361
-17.998
-97.354
-135.03
-133.447
-106.483
-73.733
-47.449
-31.45
-23.17
-16.706
-10.127
-4.635
-2.077
-4.33
-10.796
-19.458
-28.243
-35.132
-39.285
-40.716
-39.743
-37.054
-33.388
-29.374
-25.706
-22.995
-21.506
-21.298
-22.27
-24.183
-26.842
-30.071
-33.678
-37.483
-41.35
-45.16
-48.811
-52.217
-55.274
-57.898
-60.039
-61.664
-62.769
-63.365
-63.472
-63.127
-62.371
-61.246
-59.79
-58.039
-56.028
-53.801
-51.408
-48.899
-46.324
-43.719
-41.111
-38.515
-35.939
-33.381
-30.832
-28.278
-25.701
-23.087
-20.424
-17.7
-14.908
-12.039
-9.083
-6.028
-2.863
0.428
3.853
7.416
11.12
14.96
18.931
23.027
27.23
31.518
35.871
40.267
44.695
49.155
53.639
58.141
62.655
67.169
71.682
76.205
80.742
85.292
89.859
94.44
99.051
103.727
108.488
113.349
118.305
123.329
128.394
133.476
138.536
143.53
148.395
153.045
157.412
161.444
165.084
168.284
170.973
173.061
174.474
175.164
175.096
174.267
172.673
170.312
167.209
163.408
158.976
154.007
148.572
142.727
136.528
130.032
123.31
116.453
109.534
102.607
95.72
88.906
82.198
75.635
69.23
62.978
56.86
50.845
44.916
39.074
33.319
27.653
22.072
16.564
11.129
5.779
0.524
-4.625
-9.661
-14.581
-19.369
-24.002
-28.454
-32.696
-36.709
-40.481
-44.006
-47.276
-50.289
-53.041
-55.539
-57.791
-59.807
-61.594
-63.159
-64.508
-65.652
-66.604
-67.378
-67.987
-68.444
-68.761
-68.951
-69.024
-68.992
-68.864
-68.648
-68.351
-67.981
-67.548
-67.058
-66.521
-65.945
-65.336
-64.702
-64.049
-63.384
-62.711
-62.035
-61.359
-60.686
-60.018
-59.359
-58.708
-58.069
-57.44
-56.823
-56.219
-55.627
-55.046
-54.478
-53.921
-53.375
-52.84
-52.315
-51.8
-51.294
-50.797
-50.309
-49.83
-49.359
-48.897
-48.444
-47.999
-47.562
-47.135
-46.717
-46.308
-45.91
-45.523
-45.148
-44.787
-44.44
-44.109
-43.794
-43.498
-43.222
-42.967
-42.734
-42.523
-42.337
-42.174
-42.037
-41.924
-41.836
-41.772
-41.733
-41.717
-41.725
-41.755
-41.808
-41.881
-41.975
-42.087
-42.218
-42.366
-42.53
-42.708
-42.899
-43.101
-43.314
-43.534
-43.761
-43.994
-44.229
-44.467
-44.704
-44.941
-45.174
-45.404
-45.628
-45.847
-46.061
-46.269
-46.471
-46.669
-46.863
-47.054
-47.243
-47.432
-47.622
-47.813
-48.006
-48.203
-48.406
-48.613
-48.828
-49.05
-49.28
-49.519
-49.767
-50.025
-50.293
-50.571
-50.859
-51.158
-51.467
-51.787
-52.118
-52.46
-52.812
-53.176
-53.55
-53.933
-54.326
-54.725
-55.131
-55.541
-55.954
-56.369
-56.783
-57.197
-57.612
-58.027
-58.445
-58.865
-59.291
-59.725
-60.167
-60.617
-61.078
-61.547
-62.026
-62.516
-63.018
-63.537
-64.072
-64.626
-65.2
-65.793
-66.405
-67.03
-67.664
-68.301
-68.941
-69.589
-70.251
-70.932
-71.638
-72.369
-73.125
-73.895
-74.665
-75.408
-76.095
-76.698
-77.189
-77.55
-77.757
-77.791
-77.619
-77.204
-76.506
-75.49
-74.129
-72.4
-70.302
-67.864
-65.142
-62.224
-59.2
-56.141
-53.132
-50.27
-47.663
-45.427
-43.677
-42.496
-41.997
-42.365
-43.673
-45.856
-48.68
-51.657
-54.282
-56.191
-56.939
-55.966
-52.995
-48.093
-41.785
-35.306
-29.824
-26.041
-24.668
-26.369
-31.217
-38.571
-46.772
-52.847
-53.764
-46.842
-29.264
1.594
47.955
109.623
183.06
263.629
346.022
428.276
514.115
603.76
692.641
770.719
816.763
813.173
753.463
637.564
481.057
307.79
138.119
-4.666
-104.115
-158.587
-172.495
-160.353
-140.399
-120.35
-102.72
-85.359
-62.998
-36.626
-10.224
12.653
27.885
33.96
31.928
23.38
10.828
-2.847
-15.473
-25.858
-33.319
-37.297
-37.735
-34.969
-29.701
-23.281
-17.079
-11.786
-7.777
-5.337
-4.465
-5.109
-7.134
-10.054
-13.304
-16.55
-19.572
-22.24
-24.533
-26.39
-27.75
-28.645
-29.141
-29.285
-29.121
-28.66
-27.894
-26.844
-25.54
-24.023
-22.335
-20.512
-18.578
-16.556
-14.478
-12.37
-10.261
-8.168
-6.099
-4.053
-2.026
-0.024
1.948
3.888
5.798
7.683
9.542
11.356
13.089
14.712
16.219
17.619
18.939
20.204
21.438
22.668
23.933
25.289
26.784
28.452
30.307
32.359
34.638
37.192
40.09
43.386
47.102
51.241
55.791
60.737
66.059
71.727
77.684
83.856
90.194
96.665
103.259
109.972
116.774
123.607
130.404
137.105
143.669
150.059
156.232
162.138
167.738
172.993
177.885
182.402
186.495
190.109
193.186
195.656
197.476
198.623
199.069
198.789
197.758
195.957
193.387
190.068
186.013
181.246
175.796
169.701
163.027
155.838
148.183
140.113
131.676
122.922
113.911
104.719
95.408
86.05
76.72
67.469
58.354
49.419
40.687
32.174
23.889
15.85
8.097
0.684
-6.352
-12.982
-19.19
-24.979
-30.352
-35.327
-39.953
-44.261
-48.281
-52.032
-55.513
-58.72
-61.657
-64.334
-66.774
-69.019
-71.098
-73.033
-74.846
-76.545
-78.13
-79.588
-80.883
-81.985
-82.875
-83.543
-83.992
-84.233
-84.268
-84.103
-83.746
-83.193
-82.448
-81.515
-80.394
-79.096
-77.635
-76.035
-74.328
-72.547
-70.717
-68.859
-66.988
-65.117
-63.259
-61.424
-59.616
-57.841
-56.108
-54.424
-52.798
-51.238
-49.748
-48.33
-46.984
-45.71
-44.507
-43.375
-42.313
-41.321
-40.399
-39.547
-38.768
-38.061
-37.425
-36.861
-36.364
-35.932
-35.562
-35.25
-34.993
-34.786
-34.625
-34.508
-34.429
-34.385
-34.371
-34.385
-34.42
-34.474
-34.541
-34.616
-34.696
-34.774
-34.848
-34.912
-34.962
-34.995
-35.005
-34.99
-34.947
-34.871
-34.762
-34.616
-34.432
-34.207
-33.941
-33.633
-33.284
-32.891
-32.458
-31.983
-31.468
-30.914
-30.323
-29.696
-29.036
-28.343
-27.622
-26.874
-26.102
-25.311
-24.505
-23.687
-22.863
-22.037
-21.215
-20.402
-19.605
-18.829
-18.079
-17.362
-16.684
-16.051
-15.468
-14.94
-14.47
-14.065
-13.725
-13.455
-13.256
-13.129
-13.076
-13.098
-13.196
-13.369
-13.62
-13.948
-14.353
-14.837
-15.398
-16.035
-16.744
-17.522
-18.363
-19.262
-20.213
-21.21
-22.242
-23.304
-24.391
-25.496
-26.612
-27.73
-28.837
-29.923
-30.987
-32.025
-33.038
-34.028
-34.996
-35.952
-36.916
-37.901
-38.923
-39.987
-41.086
-42.218
-43.382
-44.576
-45.802
-47.052
-48.302
-49.539
-50.75
-51.919
-53.033
-54.056
-54.936
-55.635
-56.123
-56.393
-56.458
-56.331
-56.022
-55.556
-54.961
-54.279
-53.569
-52.859
-52.162
-51.496
-50.873
-50.334
-49.942
-49.732
-49.722
-49.912
-50.27
-50.773
-51.397
-52.089
-52.794
-53.451
-54.004
-54.463
-54.87
-55.267
-55.698
-56.167
-56.674
-57.262
-57.999
-58.96
-60.231
-61.86
-63.917
-66.574
-69.913
-73.875
-78.239
-82.497
-86.101
-88.65
-89.679
-88.613
-85.155
-79.345
-71.675
-63.367
-55.67
-49.421
-45.454
-44.554
-46.925
-52.009
-58.219
-62.648
-62.161
-53.876
-34.823
-2.191
46.449
111.11
188.535
274.281
362.854
451.552
543.075
637.002
728.586
808.667
857.306
856.958
800.713
687.064
529.574
352.329
176.565
26.406
-79.594
-140.279
-161.563
-156.332
-142.694
-125.991
-104.896
-80.521
-50.213
-18.74
4.906
21.175
29.723
32.201
33.544
31.501
25.235
16.362
4.647
-7.02
-16.377
-23.483
-27.546
-28.51
-27.191
-24.077
-19.993
-16.119
-12.972
-10.754
-9.826
-10.246
-11.895
-14.645
-18.087
-21.67
-25.098
-28.203
-30.842
-33.017
-34.742
-36.018
-36.926
-37.553
-37.924
-38.025
-37.837
-37.329
-36.499
-35.37
-33.966
-32.319
-30.468
-28.452
-26.302
-24.031
-21.629
-19.06
-16.306
-13.359
-10.23
-6.948
-3.534
0.004
3.656
7.412
11.272
15.233
19.304
23.505
27.846
32.331
36.955
41.7
46.549
51.495
56.535
61.671
66.897
72.2
77.56
82.965
88.403
93.862
99.328
104.775
110.177
115.512
120.76
125.911
130.963
135.911
140.753
145.497
150.164
154.78
159.384
163.993
168.611
173.233
177.848
182.449
187.037
191.596
196.105
200.534
204.845
208.998
212.949
216.623
219.924
222.75
224.99
226.557
227.392
227.448
226.685
225.06
222.533
219.079
214.695
209.383
203.146
195.995
187.954
179.091
169.51
159.326
148.662
137.631
126.327
114.843
103.284
91.755
80.366
69.223
58.415
48.028
38.158
28.896
20.315
12.452
5.31
-1.123
-6.864
-11.932
-16.344
-20.129
-23.332
-26.006
-28.211
-30.022
-31.502
-32.71
-33.719
-34.6
-35.413
-36.2
-36.983
-37.773
-38.58
-39.412
-40.275
-41.169
-42.078
-42.987
-43.872
-44.702
-45.45
-46.1
-46.631
-47.026
-47.276
-47.375
-47.329
-47.156
-46.868
-46.479
-46.004
-45.461
-44.871
-44.256
-43.642
-43.056
-42.521
-42.053
-41.669
-41.379
-41.191
-41.111
-41.14
-41.272
-41.504
-41.831
-42.25
-42.755
-43.342
-44
-44.723
-45.5
-46.323
-47.184
-48.074
-48.987
-49.915
-50.851
-51.789
-52.724
-53.651
-54.565
-55.458
-56.325
-57.159
-57.958
-58.715
-59.427
-60.091
-60.703
-61.263
-61.768
-62.22
-62.618
-62.963
-63.255
-63.496
-63.688
-63.834
-63.937
-63.999
-64.025
-64.017
-63.979
-63.916
-63.831
-63.728
-63.611
-63.484
-63.352
-63.217
-63.086
-62.961
-62.846
-62.744
-62.66
-62.597
-62.555
-62.539
-62.55
-62.589
-62.658
-62.757
-62.887
-63.049
-63.24
-63.462
-63.713
-63.992
-64.298
-64.628
-64.982
-65.357
-65.752
-66.164
-66.592
-67.034
-67.488
-67.952
-68.424
-68.901
-69.383
-69.866
-70.348
-70.827
-71.302
-71.77
-72.23
-72.68
-73.12
-73.549
-73.966
-74.371
-74.764
-75.145
-75.514
-75.874
-76.225
-76.569
-76.909
-77.246
-77.583
-77.925
-78.277
-78.642
-79.026
-79.435
-79.874
-80.349
-80.864
-81.425
-82.034
-82.694
-83.407
-84.176
-85.007
-85.902
-86.865
-87.898
-89.002
-90.178
-91.425
-92.739
-94.114
-95.544
-97.024
-98.557
-100.146
-101.794
-103.505
-105.277
-107.107
-108.983
-110.888
-112.798
-114.684
-116.518
-118.272
-119.924
-121.451
-122.832
-124.034
-125.018
-125.742
-126.163
-126.244
-125.951
-125.27
-124.22
-122.838
-121.193
-119.352
-117.364
-115.291
-113.223
-111.258
-109.51
-108.098
-107.106
-106.657
-106.965
-108.126
-110.1
-112.674
-115.328
-117.541
-118.964
-119.179
-117.689
-114.309
-109.144
-102.803
-96.716
-92.225
-90.159
-91.251
-95.999
-104.28
-115.375
-127.505
-137.322
-141.357
-136.768
-120.741
-90.898
-45.591
16.28
92.801
178.217
266.82
352.858
434.418
514.419
590.467
656.177
699.796
704.277
662.447
576.657
454.014
307.528
149.706
-8.893
-152.416
-262.159
-327.314
-344.242
-318.777
-267.81
-204.982
-141.378
-89.115
-53.241
-36.436
-37.332
-46.152
-55.385
-61.186
-63.012
-66.006
-73.155
-83.641
-95.774
-106.127
-112.403
-114.749
-113.848
-110.784
-106.939
-103.34
-100.518
-98.864
-98.675
-99.934
-102.555
-106.396
-110.977
-115.746
-120.366
-124.58
-128.262
-131.428
-134.045
-136.073
-137.554
-138.549
-139.115
-139.306
-139.13
-138.573
-137.649
-136.384
-134.824
-133.027
-131.043
-128.917
-126.679
-124.347
-121.939
-119.465
-116.93
-114.333
-111.663
-108.903
-106.046
-103.089
-100.023
-96.843
-93.535
-90.082
-86.472
-82.696
-78.747
-74.623
-70.321
-65.838
-61.176
-56.34
-51.336
-46.171
-40.852
-35.385
-29.778
-24.04
-18.181
-12.215
-6.153
-0.009
6.202
12.464
18.759
25.068
31.372
37.651
43.884
50.05
56.126
62.089
67.918
73.589
79.079
84.367
89.429
94.245
98.793
103.053
107.008
110.639
113.93
116.866
119.434
121.623
123.422
124.824
125.823
126.413
126.593
126.361
125.72
124.671
123.22
121.375
119.143
116.535
113.564
110.244
106.591
102.622
98.355
93.81
89.009
83.973
78.724
73.287
67.685
61.943
56.085
50.135
44.118
38.057
31.976
25.898
19.845
13.838
7.898
2.044
-3.706
-9.334
-14.824
-20.161
-25.332
-30.323
-35.124
-39.725
-44.116
-48.29
-52.242
-55.966
-59.458
-62.715
-65.738
-68.525
-71.078
-73.399
-75.491
-77.357
-79.004
-80.435
-81.657
-82.676
-83.499
-84.132
-84.584
-84.861
-84.97
-84.918
-84.713
-84.361
-83.87
-83.246
-82.495
-81.624
-80.639
-79.545
-78.346
-77.049
-75.659
-74.179
-72.614
-70.969
-69.248
-67.455
-65.594
-63.668
-61.682
-59.638
-57.54
-55.39
-53.193
-50.951
-48.668
-46.348
-43.996
-41.616
-39.213
-36.793
-34.363
-31.928
-29.495
-27.069
-24.658
-22.269
-19.909
-17.585
-15.305
-13.078
-10.913
-8.82
-6.813
-4.901
-3.094
-1.404
0.162
1.595
2.884
4.022
5.004
5.823
6.472
6.94
7.213
7.283
7.15
6.814
6.281
5.558
4.648
3.558
2.302
0.886
-0.685
-2.417
-4.328
-6.424
-8.703
-11.159
-13.77
-16.526
-19.43
-22.482
-25.689
-29.058
-32.59
-36.298
-40.212
-44.337
-48.664
-53.159
-57.761
-62.422
-67.113
-71.809
-76.497
-81.157
-85.75
-90.247
-94.619
-98.832
-102.853
-106.63
-110.082
-113.161
-115.848
-118.154
-120.134
-121.823
-123.236
-124.391
-125.294
-125.954
-126.388
-126.595
-126.554
-126.253
-125.686
-124.865
-123.833
-122.604
-121.162
-119.471
-117.458
-115.06
-112.245
-108.972
-105.212
-100.968
-96.25
-91.102
-85.606
-79.824
-73.824
-67.698
-61.522
-55.395
-49.439
-43.746
-38.465
-33.809
-29.88
-26.679
-24.075
-21.692
-19.168
-16.264
-12.626
-7.81
-1.606
5.949
14.367
22.509
29.319
34.141
36.364
35.458
31.302
24.364
16.086
9.192
6.577
10.6
23.61
47.891
85.355
137.33
202.167
274.788
350.207
423.204
492.971
563.786
633.943
699.065
748.303
760.893
726.644
643.329
514.894
361.453
201.902
51.953
-69.425
-151.407
-190.318
-187.549
-153.668
-106.279
-61.23
-28.563
-14.427
-14.543
-19.426
-23.891
-22.918
-16.891
-11.478
-8.577
-8.624
-10.492
-10.764
-8.233
-3.341
3.339
10.704
18.002
24.851
30.681
35.109
38.038
39.541
39.836
39.099
37.479
35.155
32.339
29.271
26.168
23.188
20.448
18.052
16.07
14.552
13.542
13.055
13.1
13.692
14.817
16.455
18.583
21.156
24.117
27.392
30.877
34.473
38.103
41.707
45.253
48.721
52.091
55.359
58.526
61.593
64.568
67.46
70.27
73.009
75.7
78.368
81.052
83.792
86.619
89.561
92.643
95.882
99.286
102.859
106.597
110.49
114.532
118.71
123.008
127.41
131.899
136.463
141.094
145.779
150.501
155.238
159.96
164.649
169.3
173.91
178.479
183.015
187.531
192.056
196.64
201.315
206.098
210.987
215.956
220.984
226.059
231.167
236.295
241.414
246.475
251.431
256.24
260.845
265.167
269.096
272.483
275.204
277.176
278.337
278.656
278.098
276.622
274.193
270.793
266.417
261.07
254.75
247.445
239.168
229.967
219.946
209.252
198.014
186.33
174.281
161.939
149.392
136.735
124.058
111.443
98.97
86.736
74.865
63.489
52.725
42.645
33.273
24.603
16.631
9.37
2.83
-2.987
-8.101
-12.539
-16.322
-19.475
-22.037
-24.078
-25.705
-27.025
-28.137
-29.113
-29.991
-30.804
-31.582
-32.351
-33.134
-33.942
-34.773
-35.627
-36.516
-37.44
-38.396
-39.353
-40.26
-41.074
-41.763
-42.304
-42.693
-42.925
-43.001
-42.928
-42.724
-42.411
-42.011
-41.545
-41.024
-40.465
-39.888
-39.319
-38.792
-38.333
-37.961
-37.69
-37.53
-37.489
-37.573
-37.779
-38.1
-38.527
-39.054
-39.674
-40.383
-41.174
-42.038
-42.967
-43.95
-44.978
-46.042
-47.135
-48.248
-49.372
-50.5
-51.624
-52.738
-53.836
-54.91
-55.952
-56.955
-57.91
-58.812
-59.654
-60.429
-61.132
-61.758
-62.303
-62.766
-63.143
-63.432
-63.634
-63.748
-63.776
-63.717
-63.575
-63.352
-63.05
-62.672
-62.223
-61.706
-61.125
-60.485
-59.789
-59.044
-58.253
-57.423
-56.558
-55.666
-54.751
-53.819
-52.878
-51.932
-50.989
-50.054
-49.132
-48.231
-47.354
-46.508
-45.697
-44.925
-44.197
-43.515
-42.883
-42.302
-41.776
-41.305
-40.891
-40.534
-40.236
-39.995
-39.813
-39.688
-39.62
-39.607
-39.65
-39.745
-39.892
-40.089
-40.332
-40.621
-40.952
-41.323
-41.729
-42.169
-42.638
-43.132
-43.649
-44.184
-44.732
-45.291
-45.856
-46.423
-46.989
-47.55
-48.104
-48.647
-49.176
-49.69
-50.187
-50.664
-51.12
-51.554
-51.965
-52.353
-52.716
-53.055
-53.37
-53.661
-53.927
-54.17
-54.39
-54.588
-54.764
-54.919
-55.056
-55.174
-55.276
-55.364
-55.441
-55.507
-55.567
-55.622
-55.676
-55.73
-55.788
-55.852
-55.925
-56.007
-56.102
-56.21
-56.333
-56.471
-56.625
-56.794
-56.98
-57.18
-57.394
-57.622
-57.861
-58.109
-58.366
-58.629
-58.897
-59.168
-59.439
-59.711
-59.979
-60.243
-60.501
-60.75
-60.988
-61.213
-61.423
-61.615
-61.787
-61.938
-62.063
-62.164
-62.239
-62.29
-62.317
-62.323
-62.308
-62.277
-62.231
-62.173
-62.106
-62.028
-61.943
-61.851
-61.759
-61.669
-61.585
-61.511
-61.449
-61.402
-61.372
-61.359
-61.36
-61.371
-61.391
-61.425
-61.484
-61.576
-61.711
-61.892
-62.124
-62.404
-62.727
-63.08
-63.441
-63.786
-64.093
-64.342
-64.523
-64.621
-64.612
-64.466
-64.143
-63.608
-62.837
-61.806
-60.502
-58.946
-57.166
-55.217
-53.177
-51.102
-49.055
-47.126
-45.391
-43.942
-42.894
-42.318
-42.327
-43.104
-44.682
-46.992
-49.852
-52.821
-55.488
-57.605
-58.749
-58.454
-56.683
-53.583
-49.698
-46.234
-44.045
-43.556
-45.418
-50.033
-57.004
-65.568
-74.06
-79.651
-80.05
-73.352
-57.337
-30.358
8.308
58.678
119.283
186.877
258.031
328.868
394.508
450.09
490.909
512.437
512.531
492.232
453.198
398.317
327.891
238.193
130.355
10.207
-107.767
-200.509
-254.174
-265.484
-242.604
-205.445
-167.48
-134.505
-107.736
-81.958
-55.325
-29.849
-7.607
7.885
14.927
14.685
9.288
1.595
-5.975
-12.315
-17.037
-19.759
-19.923
-17.429
-12.805
-7.167
-1.918
2.166
4.924
6.268
6.051
4.231
0.898
-3.535
-8.343
-13.045
-17.462
-21.51
-25.193
-28.467
-31.217
-33.389
-35.046
-36.245
-37.018
-37.378
-37.284
-36.736
-35.791
-34.532
-33.068
-31.484
-29.822
-28.104
-26.348
-24.573
-22.804
-21.065
-19.355
-17.664
-15.983
-14.311
-12.652
-11
-9.335
-7.619
-5.808
-3.873
-1.794
0.437
2.828
5.388
8.122
11.031
14.105
17.338
20.724
24.263
27.953
31.789
35.762
39.858
44.063
48.365
52.75
57.205
61.715
66.264
70.838
75.424
80.009
84.578
89.114
93.601
98.018
102.349
106.575
110.677
114.635
118.43
122.045
125.463
128.668
131.644
134.377
136.854
139.063
140.993
142.635
143.98
145.021
145.753
146.171
146.274
146.06
145.531
144.689
143.538
142.083
140.332
138.293
135.975
133.388
130.545
127.458
124.141
120.609
116.879
112.967
108.892
104.672
100.325
95.87
91.326
86.711
82.044
77.342
72.622
67.901
63.195
58.52
53.891
49.321
44.823
40.409
36.091
31.877
27.778
23.799
19.948
16.23
12.65
9.211
5.915
2.765
-0.24
-3.1
-5.816
-8.391
-10.828
-13.131
-15.306
-17.358
-19.293
-21.118
-22.84
-24.464
-25.999
-27.451
-28.826
-30.132
-31.374
-32.56
-33.694
-34.783
-35.831
-36.844
-37.825
-38.777
-39.704
-40.609
-41.492
-42.356
-43.202
-44.029
-44.839
-45.631
-46.405
-47.159
-47.89
-48.598
-49.28
-49.931
-50.549
-51.129
-51.668
-52.161
-52.604
-52.994
-53.325
-53.595
-53.8
-53.936
-54.001
-53.991
-53.905
-53.74
-53.495
-53.17
-52.763
-52.276
-51.709
-51.064
-50.341
-49.544
-48.675
-47.736
-46.731
-45.664
-44.538
-43.359
-42.131
-40.859
-39.55
-38.21
-36.845
-35.462
-34.069
-32.672
-31.28
-29.898
-28.536
-27.199
-25.896
-24.632
-23.416
-22.254
-21.151
-20.114
-19.149
-18.259
-17.451
-16.726
-16.09
-15.546
-15.094
-14.739
-14.48
-14.321
-14.261
-14.3
-14.439
-14.676
-15.01
-15.439
-15.961
-16.572
-17.269
-18.048
-18.904
-19.833
-20.827
-21.882
-22.991
-24.147
-25.343
-26.573
-27.829
-29.103
-30.388
-31.677
-32.962
-34.235
-35.49
-36.718
-37.914
-39.071
-40.181
-41.24
-42.241
-43.179
-44.048
-44.843
-45.562
-46.199
-46.752
-47.218
-47.596
-47.883
-48.08
-48.187
-48.204
-48.135
-47.982
-47.749
-47.441
-47.064
-46.625
-46.128
-45.582
-44.994
-44.37
-43.716
-43.04
-42.347
-41.645
-40.943
-40.248
-39.57
-38.917
-38.297
-37.719
-37.187
-36.704
-36.274
-35.9
-35.588
-35.348
-35.188
-35.114
-35.133
-35.249
-35.461
-35.764
-36.141
-36.566
-37.015
-37.465
-37.895
-38.296
-38.65
-38.939
-39.142
-39.228
-39.175
-38.964
-38.574
-37.987
-37.199
-36.23
-35.138
-34.003
-32.904
-31.896
-31.018
-30.312
-29.837
-29.658
-29.851
-30.484
-31.577
-33.194
-35.438
-38.297
-41.666
-45.261
-48.576
-51.176
-52.761
-52.972
-51.535
-48.462
-43.938
-38.635
-33.663
-29.825
-27.715
-27.859
-30.244
-34.345
-39.298
-43.278
-43.797
-38.764
-26.116
-3.965
28.405
70.949
122.991
182.104
244.702
307.157
364.87
412.666
446.545
462.88
459.863
439.309
403.473
353.676
289.065
207.623
111.516
10.4
-79.071
-140.584
-165.319
-156.7
-127.098
-89.551
-56.075
-30.56
-12.866
-4.363
-0.434
0.813
-0.415
-0.159
-0.259
-1.966
-3.656
-6.16
-8.149
-8.079
-6.612
-4.091
-1.002
1.77
3.769
4.897
5.043
4.24
2.74
0.721
-1.699
-4.34
-7.048
-9.734
-12.276
-14.582
-16.638
-18.413
-19.874
-21.012
-21.815
-22.279
-22.436
-22.32
-21.959
-21.382
-20.616
-19.681
-18.607
-17.423
-16.163
-14.862
-13.543
-12.223
-10.912
-9.617
-8.342
-7.085
-5.835
-4.577
-3.296
-1.983
-0.627
0.778
2.241
3.773
5.386
7.088
8.888
10.792
12.805
14.934
17.181
19.548
22.035
24.638
27.356
30.186
33.126
36.172
39.321
42.566
45.901
49.32
52.815
56.376
59.994
63.656
67.352
71.069
74.793
78.509
82.203
85.86
89.462
92.993
96.438
99.777
102.995
106.075
108.998
111.749
114.311
116.669
118.808
120.715
122.376
123.78
124.917
125.778
126.355
126.641
126.632
126.325
125.716
124.806
123.594
122.084
120.277
118.181
115.799
113.141
110.215
107.03
103.6
99.935
96.05
91.958
87.675
83.217
78.6
73.843
68.963
63.977
58.905
53.764
48.573
43.349
38.11
32.873
27.654
22.469
17.333
12.261
7.265
2.358
-2.447
-7.141
-11.712
-16.153
-20.455
-24.61
-28.613
-32.458
-36.141
-39.657
-43.005
-46.182
-49.187
-52.02
-54.682
-57.174
-59.498
-61.657
-63.654
-65.494
-67.18
-68.718
-70.111
-71.367
-72.488
-73.482
-74.353
-75.107
-75.749
-76.283
-76.714
-77.048
-77.288
-77.438
-77.503
-77.485
-77.388
-77.216
-76.97
-76.655
-76.273
-75.825
-75.316
-74.746
-74.118
-73.434
-72.695
-71.903
-71.058
-70.163
-69.219
-68.225
-67.184
-66.096
-64.963
-63.785
-62.564
-61.301
-59.997
-58.654
-57.274
-55.86
-54.413
-52.937
-51.435
-49.91
-48.366
-46.808
-45.238
-43.662
-42.084
-40.508
-38.939
-37.382
-35.841
-34.321
-32.826
-31.362
-29.932
-28.543
-27.197
-25.901
-24.657
-23.471
-22.346
-21.286
-20.295
-19.376
-18.533
-17.769
-17.086
-16.488
-15.974
-15.548
-15.21
-14.961
-14.799
-14.725
-14.737
-14.834
-15.013
-15.273
-15.61
-16.021
-16.504
-17.053
-17.666
-18.336
-19.061
-19.835
-20.652
-21.508
-22.398
-23.316
-24.256
-25.213
-26.182
-27.156
-28.13
-29.098
-30.055
-30.994
-31.909
-32.796
-33.65
-34.465
-35.237
-35.962
-36.637
-37.258
-37.822
-38.327
-38.77
-39.15
-39.466
-39.717
-39.902
-40.022
-40.076
-40.066
-39.993
-39.858
-39.663
-39.411
-39.103
-38.744
-38.334
-37.879
-37.38
-36.843
-36.271
-35.669
-35.042
-34.393
-33.729
-33.054
-32.373
-31.692
-31.014
-30.345
-29.69
-29.053
-28.438
-27.849
-27.292
-26.769
-26.284
-25.84
-25.441
-25.089
-24.786
-24.534
-24.334
-24.188
-24.097
-24.06
-24.079
-24.153
-24.282
-24.465
-24.701
-24.988
-25.324
-25.707
-26.134
-26.603
-27.109
-27.65
-28.222
-28.821
-29.444
-30.086
-30.743
-31.41
-32.084
-32.76
-33.433
-34.099
-34.754
-35.392
-36.011
-36.605
-37.171
-37.706
-38.205
-38.667
-39.087
-39.464
-39.794
-40.076
-40.309
-40.49
-40.619
-40.695
-40.719
-40.689
-40.607
-40.473
-40.289
-40.055
-39.774
-39.447
-39.076
-38.664
-38.215
-37.73
-37.213
-36.669
-36.1
-35.51
-34.905
-34.288
-33.662
-33.034
-32.406
-31.784
-31.173
-30.575
-29.996
-29.44
-28.909
-28.408
-27.939
-27.506
-27.11
-26.755
-26.441
-26.172
-25.948
-25.77
-25.639
-25.556
-25.521
-25.533
-25.592
-25.696
-25.845
-26.035
-26.267
-26.536
-26.839
-27.173
-27.536
-27.926
-28.338
-28.77
-29.219
-29.682
-30.156
-30.639
-31.127
-31.617
-32.104
-32.587
-33.065
-33.537
-34.004
-34.464
-34.919
-35.367
-35.812
-36.255
-36.693
-37.122
-37.536
-37.934
-38.323
-38.715
-39.116
-39.535
-39.976
-40.446
-40.955
-41.506
-42.097
-42.719
-43.363
-44.023
-44.702
-45.414
-46.17
-46.965
-47.779
-48.569
-49.3
-49.935
-50.434
-50.755
-50.845
-50.669
-50.214
-49.483
-48.481
-47.213
-45.665
-43.812
-41.649
-39.185
-36.472
-33.619
-30.723
-27.893
-25.241
-22.852
-20.846
-19.338
-18.396
-18.091
-18.476
-19.552
-21.393
-24.117
-27.689
-31.984
-36.672
-41.13
-44.831
-47.34
-48.119
-46.794
-43.289
-37.758
-30.992
-24.262
-18.566
-14.795
-13.728
-15.412
-19.285
-24.18
-27.717
-26.997
-19.42
-2.317
26.628
68.473
123.234
189.667
264.422
343.166
421.363
493.518
553.744
596.986
618.887
617.634
595.369
554.874
498.177
424.738
332.786
225.543
113.337
14.184
-54.327
-84.819
-81.527
-59.345
-34.32
-15.172
-3.497
4.392
11.961
19.434
24.966
26.022
22.162
14.805
5.979
-1.863
-7.529
-10.881
-11.904
-11.048
-8.94
-6.074
-3.143
-0.897
0.338
0.472
-0.475
-2.279
-4.761
-7.796
-11.188
-14.748
-18.348
-21.872
-25.236
-28.381
-31.213
-33.653
-35.653
-37.177
-38.224
-38.807
-38.942
-38.663
-38.009
-37.021
-35.74
-34.201
-32.435
-30.484
-28.392
-26.206
-23.976
-21.738
-19.519
-17.338
-15.206
-13.126
-11.095
-9.105
-7.141
-5.193
-3.253
-1.314
0.63
2.586
4.567
6.581
8.641
10.756
12.934
15.184
17.512
19.924
22.424
25.014
27.694
30.467
33.334
36.297
39.355
42.51
45.759
49.102
52.534
56.052
59.65
63.319
67.053
70.84
74.669
78.53
82.409
86.291
90.161
94.005
97.805
101.545
105.206
108.772
112.223
115.542
118.71
121.71
124.524
127.134
129.525
131.681
133.588
135.233
136.604
137.689
138.481
138.97
139.15
139.016
138.565
137.796
136.707
135.302
133.582
131.555
129.227
126.606
123.702
120.527
117.095
113.419
109.514
105.398
101.089
96.603
91.962
87.183
82.289
77.299
72.234
67.115
61.962
56.794
51.632
46.494
41.399
36.364
31.406
26.54
21.782
17.144
12.64
8.282
4.078
0.039
-3.828
-7.518
-11.024
-14.344
-17.474
-20.414
-23.163
-25.724
-28.098
-30.289
-32.302
-34.142
-35.816
-37.331
-38.694
-39.915
-41.001
-41.962
-42.806
-43.544
-44.183
-44.734
-45.204
-45.603
-45.938
-46.217
-46.449
-46.639
-46.794
-46.921
-47.024
-47.109
-47.18
-47.241
-47.294
-47.343
-47.39
-47.436
-47.482
-47.528
-47.573
-47.618
-47.661
-47.7
-47.732
-47.755
-47.767
-47.764
-47.743
-47.702
-47.637
-47.546
-47.425
-47.273
-47.087
-46.866
-46.607
-46.311
-45.976
-45.602
-45.189
-44.737
-44.249
-43.723
-43.163
-42.569
-41.943
-41.288
-40.606
-39.899
-39.171
-38.424
-37.662
-36.888
-36.107
-35.322
-34.537
-33.756
-32.983
-32.224
-31.48
-30.758
-30.06
-29.389
-28.751
-28.146
-27.579
-27.05
-26.563
-26.119
-25.718
-25.361
-25.05
-24.782
-24.56
-24.382
-24.247
-24.154
-24.104
-24.094
-24.124
-24.193
-24.299
-24.44
-24.616
-24.825
-25.065
-25.334
-25.631
-25.953
-26.299
-26.667
-27.053
-27.457
-27.876
-28.308
-28.752
-29.204
-29.664
-30.13
-30.6
-31.074
-31.55
-32.028
-32.507
-32.985
-33.463
-33.939
-34.413
-34.884
-35.35
-35.811
-36.266
-36.712
-37.149
-37.574
-37.985
-38.382
-38.761
-39.12
-39.458
-39.772
-40.061
-40.322
-40.555
-40.756
-40.926
-41.063
-41.165
-41.231
-41.26
-41.251
-41.203
-41.115
-40.987
-40.819
-40.609
-40.358
-40.066
-39.733
-39.36
-38.949
-38.5
-38.016
-37.5
-36.954
-36.381
-35.785
-35.171
-34.543
-33.907
-33.266
-32.626
-31.992
-31.37
-30.765
-30.182
-29.627
-29.104
-28.618
-28.173
-27.775
-27.428
-27.136
-26.902
-26.73
-26.624
-26.585
-26.618
-26.723
-26.903
-27.16
-27.493
-27.903
-28.391
-28.955
-29.593
-30.303
-31.083
-31.929
-32.837
-33.802
-34.819
-35.882
-36.987
-38.126
-39.293
-40.482
-41.685
-42.897
-44.111
-45.319
-46.515
-47.693
-48.847
-49.969
-51.055
-52.099
-53.096
-54.039
-54.926
-55.75
-56.508
-57.197
-57.813
-58.354
-58.817
-59.2
-59.504
-59.728
-59.871
-59.936
-59.923
-59.834
-59.672
-59.44
-59.141
-58.778
-58.356
-57.879
-57.352
-56.778
-56.163
-55.513
-54.83
-54.122
-53.391
-52.642
-51.88
-51.109
-50.332
-49.554
-48.778
-48.007
-47.245
-46.495
-45.758
-45.037
-44.334
-43.65
-42.985
-42.34
-41.716
-41.111
-40.525
-39.958
-39.409
-38.877
-38.36
-37.857
-37.367
-36.889
-36.42
-35.959
-35.505
-35.057
-34.614
-34.176
-33.741
-33.313
-32.892
-32.482
-32.085
-31.704
-31.343
-31.005
-30.696
-30.416
-30.169
-29.958
-29.784
-29.652
-29.566
-29.532
-29.553
-29.634
-29.777
-29.985
-30.261
-30.601
-31.005
-31.47
-31.996
-32.59
-33.257
-34.005
-34.837
-35.754
-36.753
-37.825
-38.955
-40.118
-41.288
-42.436
-43.535
-44.561
-45.491
-46.302
-46.959
-47.422
-47.649
-47.601
-47.249
-46.565
-45.541
-44.197
-42.572
-40.734
-38.751
-36.679
-34.583
-32.551
-30.675
-29.058
-27.805
-26.989
-26.716
-27.167
-28.403
-30.363
-32.833
-35.372
-37.549
-39.081
-39.601
-38.613
-35.891
-31.509
-25.972
-20.425
-15.887
-12.906
-12.017
-13.77
-18.226
-24.797
-31.942
-36.935
-37.051
-29.962
-13.354
15.046
57.302
113.137
179.534
252.832
328.468
405.357
486.307
568.726
646.458
708.474
737.721
725.92
673.585
585.932
474.69
350.843
223.426
105.371
11.792
-47.949
-71.423
-66.351
-49.464
-32.253
-19.802
-11.767
-2.639
8.668
19.913
28.803
32.276
30.035
23.967
15.643
7.044
-0.043
-4.973
-7.498
-7.737
-6.338
-3.947
-1.084
1.623
3.587
4.554
4.464
3.443
1.772
-0.341
-2.741
-5.264
-7.766
-10.141
-12.314
-14.241
-15.897
-17.229
-18.193
-18.758
-18.926
-18.737
-18.26
-17.592
-16.82
-16.011
-15.222
-14.49
-13.831
-13.258
-12.762
-12.314
-11.901
-11.521
-11.172
-10.857
-10.561
-10.246
-9.863
-9.346
-8.638
-7.696
-6.485
-4.978
-3.169
-1.059
1.331
3.955
6.785
9.804
13.001
16.378
19.93
23.641
27.499
31.489
35.594
39.805
44.108
48.489
52.943
57.468
62.073
66.776
71.584
76.496
81.508
86.606
91.776
97.003
102.269
107.547
112.816
118.052
123.233
128.341
133.351
138.239
142.978
147.539
151.896
156.025
159.903
163.505
166.814
169.809
172.475
174.799
176.769
178.373
179.601
180.442
180.89
180.938
180.584
179.824
178.658
177.088
175.12
172.759
170.015
166.9
163.424
159.604
155.456
150.996
146.243
141.219
135.943
130.439
124.728
118.835
112.785
106.6
100.306
93.928
87.488
81.012
74.521
68.039
61.586
55.185
48.856
42.617
36.488
30.486
24.627
18.927
13.4
8.057
2.909
-2.034
-6.764
-11.275
-15.562
-19.621
-23.451
-27.05
-30.419
-33.56
-36.475
-39.169
-41.648
-43.917
-45.982
-47.853
-49.537
-51.042
-52.378
-53.555
-54.581
-55.467
-56.223
-56.86
-57.386
-57.813
-58.151
-58.41
-58.599
-58.728
-58.806
-58.841
-58.842
-58.816
-58.771
-58.712
-58.648
-58.582
-58.52
-58.465
-58.423
-58.394
-58.382
-58.389
-58.414
-58.458
-58.522
-58.605
-58.707
-58.825
-58.96
-59.108
-59.269
-59.441
-59.62
-59.804
-59.99
-60.177
-60.36
-60.537
-60.705
-60.861
-61.002
-61.126
-61.229
-61.308
-61.362
-61.388
-61.383
-61.345
-61.273
-61.166
-61.022
-60.841
-60.623
-60.367
-60.075
-59.748
-59.386
-58.99
-58.563
-58.105
-57.619
-57.107
-56.572
-56.014
-55.438
-54.847
-54.241
-53.626
-53.003
-52.377
-51.749
-51.123
-50.502
-49.89
-49.29
-48.706
-48.14
-47.596
-47.078
-46.589
-46.132
-45.709
-45.323
-44.977
-44.671
-44.409
-44.19
-44.017
-43.89
-43.809
-43.776
-43.791
-43.852
-43.961
-44.117
-44.319
-44.567
-44.859
-45.195
-45.573
-45.993
-46.452
-46.949
-47.483
-48.052
-48.653
-49.283
-49.942
-50.625
-51.329
-52.052
-52.792
-53.543
-54.304
-55.072
-55.844
-56.616
-57.387
-58.153
-58.913
-59.663
-60.402
-61.127
-61.836
-62.527
-63.199
-63.849
-64.475
-65.076
-65.649
-66.194
-66.708
-67.189
-67.636
-68.048
-68.423
-68.759
-69.057
-69.314
-69.53
-69.705
-69.838
-69.929
-69.977
-69.984
-69.949
-69.872
-69.754
-69.595
-69.394
-69.153
-68.871
-68.549
-68.186
-67.784
-67.343
-66.864
-66.346
-65.792
-65.202
-64.578
-63.921
-63.234
-62.518
-61.777
-61.012
-60.227
-59.426
-58.611
-57.786
-56.957
-56.127
-55.303
-54.49
-53.696
-52.926
-52.187
-51.487
-50.832
-50.229
-49.681
-49.194
-48.774
-48.425
-48.153
-47.965
-47.866
-47.862
-47.956
-48.153
-48.454
-48.858
-49.364
-49.967
-50.666
-51.466
-52.373
-53.391
-54.524
-55.772
-57.132
-58.596
-60.147
-61.762
-63.409
-65.058
-66.678
-68.245
-69.737
-71.128
-72.389
-73.476
-74.342
-74.947
-75.253
-75.227
-74.856
-74.149
-73.134
-71.88
-70.459
-68.937
-67.393
-65.907
-64.565
-63.471
-62.725
-62.42
-62.688
-63.697
-65.542
-68.205
-71.494
-75.026
-78.389
-81.217
-83.108
-83.533
-82.116
-78.881
-74.302
-69.379
-65.197
-62.397
-61.458
-63.068
-67.575
-74.495
-82.463
-88.89
-90.746
-85.918
-72.386
-47.568
-9.354
43.748
110.794
186.98
266.972
346.176
422.932
500.588
580.066
658.139
726.68
767.215
762.922
704.774
590.043
434.088
262.055
98.266
-31.226
-113.878
-151.524
-151.419
-129.515
-98.5
-65.621
-38.271
-18.485
-9.008
-10.396
-16.803
-24.139
-27.801
-26.37
-24.175
-23.414
-25.068
-28.518
-30.783
-30.815
-29.003
-25.916
-22.6
-19.623
-17.162
-15.626
-15.276
-16.101
-17.96
-20.591
-23.775
-27.378
-31.261
-35.249
-39.162
-42.848
-46.203
-49.154
-51.644
-53.627
-55.072
-55.969
-56.327
-56.177
-55.557
-54.515
-53.097
-51.345
-49.302
-47.012
-44.523
-41.888
-39.158
-36.377
-33.579
-30.785
-28.008
-25.257
-22.53
-19.823
-17.122
-14.409
-11.674
-8.905
-6.095
-3.235
-0.314
2.678
5.753
8.92
12.188
15.563
19.052
22.658
26.385
30.233
34.199
38.282
42.478
46.784
51.195
55.708
60.316
65.012
69.789
74.639
79.554
84.522
89.532
94.573
99.629
104.685
109.723
114.724
119.667
124.531
129.294
133.934
138.429
142.757
146.898
150.831
154.535
157.988
161.168
164.048
166.608
168.828
170.696
172.201
173.34
174.112
174.523
174.579
174.284
173.638
172.637
171.269
169.525
167.395
164.878
161.982
158.715
155.086
151.1
146.764
142.073
137.02
131.593
125.775
119.562
112.966
106.015
98.757
91.25
83.563
75.755
67.874
59.966
52.074
44.24
36.51
28.936
21.577
14.499
7.78
1.48
-4.356
-9.709
-14.584
-19.006
-23.018
-26.653
-29.941
-32.905
-35.562
-37.928
-40.02
-41.86
-43.475
-44.901
-46.192
-47.392
-48.536
-49.644
-50.717
-51.743
-52.698
-53.562
-54.319
-54.963
-55.495
-55.921
-56.25
-56.494
-56.665
-56.77
-56.804
-56.766
-56.657
-56.482
-56.257
-56.002
-55.743
-55.503
-55.304
-55.164
-55.094
-55.101
-55.188
-55.355
-55.597
-55.91
-56.294
-56.747
-57.269
-57.854
-58.499
-59.193
-59.927
-60.691
-61.472
-62.26
-63.042
-63.809
-64.55
-65.258
-65.926
-66.546
-67.11
-67.611
-68.04
-68.391
-68.656
-68.828
-68.901
-68.871
-68.732
-68.481
-68.117
-67.639
-67.046
-66.338
-65.517
-64.587
-63.549
-62.408
-61.168
-59.836
-58.417
-56.918
-55.347
-53.712
-52.023
-50.287
-48.515
-46.716
-44.9
-43.077
-41.257
-39.448
-37.661
-35.904
-34.186
-32.516
-30.903
-29.354
-27.877
-26.479
-25.166
-23.945
-22.821
-21.798
-20.878
-20.066
-19.362
-18.769
-18.285
-17.912
-17.648
-17.491
-17.44
-17.493
-17.645
-17.892
-18.229
-18.651
-19.152
-19.726
-20.366
-21.066
-21.818
-22.617
-23.454
-24.325
-25.221
-26.136
-27.062
-27.992
-28.919
-29.835
-30.734
-31.608
-32.45
-33.255
-34.018
-34.734
-35.4
-36.014
-36.575
-37.081
-37.534
-37.932
-38.275
-38.561
-38.79
-38.965
-39.085
-39.155
-39.178
-39.158
-39.102
-39.02
-38.917
-38.798
-38.664
-38.513
-38.347
-38.172
-37.994
-37.822
-37.669
-37.551
-37.49
-37.51
-37.625
-37.84
-38.153
-38.55
-39.025
-39.573
-40.19
-40.877
-41.632
-42.448
-43.319
-44.227
-45.135
-45.99
-46.718
-47.239
-47.496
-47.449
-47.072
-46.359
-45.301
-43.89
-42.138
-40.042
-37.605
-34.827
-31.719
-28.322
-24.726
-21.054
-17.448
-14.046
-10.964
-8.324
-6.248
-4.833
-4.17
-4.296
-5.249
-7.154
-10.052
-13.852
-18.313
-22.924
-27.128
-30.506
-32.575
-32.744
-30.717
-26.546
-20.768
-14.678
-9.563
-6.281
-5.644
-8.324
-14.382
-23.14
-32.83
-40.371
-42.574
-36.548
-19.388
11.424
58.017
120.11
193.909
274.643
357.272
439.985
526.341
616.623
704.775
778.958
819.693
811.638
752.585
648.125
510.994
358.595
203.925
60.567
-54.408
-131.452
-166.412
-162.053
-131.986
-87.342
-37.867
6.363
41.54
62.971
69.836
68.742
63.665
58.711
55.568
50.136
41.29
29.794
16.642
4.89
-3.837
-9.295
-11.501
-11.229
-9.593
-7.823
-6.717
-6.605
-7.655
-9.887
-13.289
-17.85
-23.276
-28.983
-34.582
-39.839
-44.598
-48.873
-52.632
-55.792
-58.362
-60.406
-61.967
-63.102
-63.839
-64.161
-64.079
-63.627
-62.834
-61.755
-60.441
-58.933
-57.281
-55.515
-53.661
-51.74
-49.767
-47.751
-45.697
-43.601
-41.455
-39.26
-37.014
-34.713
-32.355
-29.926
-27.416
-24.817
-22.118
-19.314
-16.398
-13.362
-10.203
-6.916
-3.498
0.056
3.752
7.593
11.578
15.702
19.961
24.345
28.843
33.44
38.112
42.84
47.611
52.412
57.234
62.063
66.878
71.66
76.39
81.054
85.649
90.172
94.621
99.006
103.346
107.668
112.009
116.389
120.806
125.253
129.715
134.182
138.651
143.108
147.531
151.892
156.155
160.284
164.236
167.942
171.31
174.24
176.625
178.38
179.452
179.797
179.375
178.146
176.065
173.107
169.262
164.526
158.896
152.373
144.974
136.755
127.812
118.25
108.182
97.713
86.927
75.91
64.759
53.576
42.465
31.529
20.855
10.528
0.644
-8.706
-17.447
-25.536
-32.969
-39.75
-45.892
-51.409
-56.314
-60.631
-64.401
-67.673
-70.505
-72.964
-75.108
-76.993
-78.684
-80.247
-81.735
-83.187
-84.62
-86.042
-87.459
-88.875
-90.288
-91.694
-93.071
-94.395
-95.638
-96.761
-97.734
-98.534
-99.136
-99.521
-99.675
-99.588
-99.264
-98.714
-97.948
-96.979
-95.819
-94.485
-92.999
-91.385
-89.671
-87.887
-86.061
-84.212
-82.361
-80.525
-78.718
-76.95
-75.232
-73.564
-71.952
-70.401
-68.914
-67.497
-66.153
-64.882
-63.684
-62.558
-61.505
-60.525
-59.617
-58.782
-58.021
-57.333
-56.72
-56.184
-55.725
-55.343
-55.036
-54.803
-54.64
-54.546
-54.518
-54.552
-54.645
-54.793
-54.994
-55.244
-55.538
-55.874
-56.247
-56.652
-57.085
-57.542
-58.017
-58.506
-59.005
-59.509
-60.013
-60.514
-61.008
-61.49
-61.957
-62.404
-62.829
-63.228
-63.598
-63.936
-64.239
-64.504
-64.73
-64.915
-65.057
-65.155
-65.207
-65.213
-65.172
-65.084
-64.948
-64.766
-64.537
-64.263
-63.945
-63.585
-63.185
-62.748
-62.275
-61.771
-61.239
-60.681
-60.102
-59.505
-58.894
-58.274
-57.647
-57.018
-56.391
-55.77
-55.158
-54.559
-53.978
-53.416
-52.879
-52.368
-51.888
-51.441
-51.03
-50.658
-50.326
-50.038
-49.795
-49.598
-49.449
-49.349
-49.297
-49.295
-49.342
-49.437
-49.58
-49.77
-50.004
-50.281
-50.599
-50.954
-51.345
-51.769
-52.221
-52.699
-53.2
-53.719
-54.255
-54.802
-55.358
-55.918
-56.48
-57.04
-57.593
-58.137
-58.668
-59.183
-59.678
-60.151
-60.599
-61.018
-61.406
-61.761
-62.081
-62.362
-62.603
-62.803
-62.959
-63.07
-63.135
-63.155
-63.127
-63.053
-62.932
-62.765
-62.552
-62.293
-61.988
-61.639
-61.246
-60.81
-60.332
-59.812
-59.253
-58.654
-58.018
-57.345
-56.637
-55.895
-55.119
-54.31
-53.47
-52.6
-51.701
-50.774
-49.821
-48.844
-47.845
-46.826
-45.79
-44.738
-43.673
-42.598
-41.515
-40.427
-39.337
-38.249
-37.167
-36.097
-35.042
-34.011
-33.008
-32.041
-31.116
-30.241
-29.423
-28.668
-27.981
-27.368
-26.836
-26.39
-26.037
-25.784
-25.639
-25.606
-25.693
-25.903
-26.241
-26.707
-27.302
-28.025
-28.874
-29.855
-30.973
-32.23
-33.629
-35.17
-36.847
-38.654
-40.571
-42.571
-44.624
-46.694
-48.75
-50.762
-52.701
-54.535
-56.232
-57.749
-59.042
-60.073
-60.807
-61.219
-61.294
-61.034
-60.474
-59.685
-58.75
-57.76
-56.786
-55.903
-55.202
-54.788
-54.782
-55.28
-56.34
-58.042
-60.509
-63.795
-67.855
-72.455
-77.135
-81.468
-85.178
-87.908
-89.158
-88.512
-85.824
-81.463
-76.372
-71.345
-66.525
-62.265
-59.496
-58.796
-60.307
-62.038
-59.508
-50.723
-35.733
-16.158
4.076
28.543
64.672
116.704
190.717
282.673
381.712
484.882
585.402
676.413
754.944
806.103
813.225
770.751
675.403
534.03
369.386
200.874
49.336
-61.411
-126.814
-151.843
-146.501
-130.717
-112.893
-90.568
-63.888
-32.416
-1.481
16.636
18.569
9.036
-5.907
-16.877
-20.737
-21.42
-20.662
-20.373
-21.071
-20.316
-17.679
-13.971
-9.702
-5.999
-3.672
-2.696
-3.054
-4.699
-7.301
-10.593
-14.395
-18.494
-22.703
-26.905
-30.957
-34.715
-38.092
-41.022
-43.445
-45.332
-46.662
-47.434
-47.674
-47.426
-46.743
-45.673
-44.259
-42.544
-40.565
-38.373
-36.023
-33.566
-31.056
-28.531
-26.015
-23.526
-21.077
-18.667
-16.292
-13.937
-11.582
-9.213
-6.821
-4.394
-1.927
0.594
3.179
5.841
8.591
11.44
14.395
17.464
20.655
23.971
27.415
30.988
34.689
38.517
42.471
46.551
50.754
55.074
59.507
64.045
68.683
73.409
78.215
83.089
88.018
92.989
97.99
103.005
108.018
113.011
117.964
122.856
127.667
132.375
136.957
141.388
145.644
149.706
153.55
157.155
160.496
163.547
166.286
168.694
170.757
172.462
173.802
174.77
175.365
175.598
175.478
175.014
174.216
173.082
171.612
169.808
167.674
165.217
162.437
159.325
155.866
152.053
147.875
143.325
138.389
133.032
127.232
120.974
114.253
107.089
99.513
91.552
83.245
74.639
65.796
56.802
47.754
38.73
29.809
21.069
12.591
4.48
-3.167
-10.279
-16.795
-22.685
-27.929
-32.513
-36.432
-39.712
-42.393
-44.541
-46.24
-47.552
-48.533
-49.241
-49.734
-50.093
-50.389
-50.673
-50.986
-51.353
-51.794
-52.33
-52.976
-53.72
-54.541
-55.405
-56.264
-57.092
-57.871
-58.583
-59.213
-59.741
-60.149
-60.434
-60.603
-60.661
-60.614
-60.468
-60.227
-59.909
-59.536
-59.135
-58.733
-58.352
-58.004
-57.702
-57.455
-57.272
-57.157
-57.11
-57.126
-57.2
-57.332
-57.52
-57.762
-58.053
-58.387
-58.756
-59.152
-59.569
-60
-60.438
-60.877
-61.312
-61.738
-62.152
-62.55
-62.929
-63.285
-63.612
-63.907
-64.165
-64.381
-64.553
-64.678
-64.752
-64.774
-64.744
-64.663
-64.531
-64.35
-64.122
-63.85
-63.537
-63.189
-62.808
-62.398
-61.965
-61.512
-61.044
-60.569
-60.089
-59.613
-59.146
-58.697
-58.273
-57.882
-57.53
-57.22
-56.954
-56.737
-56.572
-56.466
-56.426
-56.456
-56.559
-56.74
-57.002
-57.343
-57.753
-58.209
-58.686
-59.157
-59.598
-59.993
-60.322
-60.564
-60.693
-60.683
-60.504
-60.136
-59.558
-58.748
-57.696
-56.396
-54.878
-53.218
-51.501
-49.815
-48.234
-46.799
-45.565
-44.618
-44.044
-43.935
-44.389
-45.446
-47.176
-49.738
-53.141
-57.257
-61.797
-66.157
-69.748
-72.177
-72.927
-71.412
-67.521
-61.438
-53.787
-46.027
-39.372
-34.552
-32.617
-34.406
-39.65
-47.437
-55.775
-61.145
-60.575
-51.522
-30.592
5.113
57.162
124.578
202.963
286.655
369.905
451.392
533.258
612.179
683.734
737.183
752.548
721.38
640.043
509.982
352.716
187.797
35.44
-78.304
-146.271
-170.373
-159.987
-137.112
-114.376
-96.284
-82.859
-67.487
-48.939
-29.953
-13.218
-2.948
0.024
-2.579
-9.413
-17.649
-24.712
-29.823
-32.488
-32.676
-31.081
-28
-23.573
-18.856
-14.867
-12.041
-10.713
-10.793
-11.902
-14.01
-17.129
-20.904
-25.023
-29.241
-33.274
-37.052
-40.564
-43.693
-46.355
-48.53
-50.193
-51.366
-52.1
-52.405
-52.306
-51.837
-51.022
-49.903
-48.521
-46.92
-45.147
-43.251
-41.273
-39.245
-37.186
-35.108
-33.018
-30.911
-28.773
-26.585
-24.326
-21.978
-19.527
-16.954
-14.236
-11.354
-8.291
-5.034
-1.575
2.092
5.969
10.05
14.324
18.774
23.389
28.157
33.074
38.131
43.318
48.617
54.005
59.47
65.01
70.624
76.314
82.091
87.966
93.971
100.151
106.54
113.152
119.985
127.016
134.224
141.592
149.097
156.717
164.411
172.118
179.775
187.317
194.657
201.702
208.33
214.387
219.75
224.332
228.065
230.923
232.874
233.889
233.953
233.059
231.218
228.456
224.804
220.292
214.972
208.908
202.193
194.951
187.279
179.242
170.889
162.234
153.298
144.114
134.701
125.078
115.266
105.288
95.179
84.982
74.738
64.486
54.262
44.088
34.004
24.063
14.333
4.902
-4.151
-12.76
-20.862
-28.398
-35.326
-41.617
-47.259
-52.256
-56.624
-60.392
-63.597
-66.292
-68.526
-70.354
-71.834
-73.036
-74.022
-74.848
-75.563
-76.205
-76.806
-77.388
-77.968
-78.554
-79.14
-79.716
-80.257
-80.732
-81.115
-81.391
-81.542
-81.555
-81.42
-81.131
-80.692
-80.115
-79.414
-78.601
-77.692
-76.703
-75.655
-74.573
-73.486
-72.424
-71.413
-70.471
-69.615
-68.858
-68.21
-67.678
-67.263
-66.962
-66.771
-66.688
-66.711
-66.837
-67.062
-67.378
-67.779
-68.258
-68.807
-69.42
-70.09
-70.81
-71.576
-72.379
-73.216
-74.08
-74.968
-75.872
-76.785
-77.701
-78.613
-79.515
-80.398
-81.257
-82.085
-82.876
-83.624
-84.326
-84.978
-85.574
-86.112
-86.589
-87.004
-87.353
-87.636
-87.852
-87.999
-88.078
-88.088
-88.029
-87.901
-87.706
-87.443
-87.114
-86.72
-86.262
-85.742
-85.162
-84.524
-83.831
-83.084
-82.288
-81.445
-80.558
-79.632
-78.67
-77.677
-76.657
-75.615
-74.556
-73.483
-72.403
-71.318
-70.235
-69.158
-68.09
-67.038
-66.005
-64.997
-64.016
-63.069
-62.158
-61.289
-60.465
-59.689
-58.966
-58.298
-57.69
-57.144
-56.664
-56.252
-55.91
-55.642
-55.447
-55.329
-55.287
-55.321
-55.431
-55.616
-55.875
-56.205
-56.604
-57.069
-57.597
-58.183
-58.824
-59.515
-60.25
-61.024
-61.832
-62.667
-63.525
-64.398
-65.281
-66.168
-67.054
-67.932
-68.797
-69.642
-70.463
-71.254
-72.01
-72.726
-73.397
-74.019
-74.588
-75.104
-75.564
-75.968
-76.318
-76.614
-76.859
-77.056
-77.208
-77.318
-77.389
-77.423
-77.423
-77.392
-77.337
-77.263
-77.174
-77.076
-76.975
-76.873
-76.775
-76.683
-76.595
-76.511
-76.433
-76.367
-76.323
-76.312
-76.341
-76.418
-76.546
-76.723
-76.94
-77.179
-77.418
-77.63
-77.791
-77.878
-77.872
-77.752
-77.49
-77.046
-76.382
-75.459
-74.244
-72.712
-70.85
-68.673
-66.223
-63.571
-60.797
-57.975
-55.183
-52.519
-50.091
-48.01
-46.396
-45.345
-44.977
-45.481
-46.955
-49.367
-52.528
-56.007
-59.322
-62.098
-63.885
-64.114
-62.447
-58.888
-53.902
-48.643
-44.307
-41.701
-41.564
-44.61
-51.081
-60.454
-71.129
-80.198
-84.466
-80.999
-66.938
-39.593
3.567
62.91
135.47
216.846
301.692
386.849
474.367
564.703
652.946
729.902
778.413
781.29
732.89
634.504
495.477
335.124
170.038
16.976
-104.647
-186.358
-225.914
-226.812
-202.751
-163.971
-119.082
-77.41
-42.911
-20.676
-11.294
-8.546
-8.227
-5.429
0.347
3.64
2.469
-3.686
-13.788
-23.603
-31.292
-36.724
-39.281
-39.309
-37.403
-33.813
-29.351
-25.152
-21.663
-19.067
-17.713
-17.637
-18.76
-21.027
-24.035
-27.221
-30.282
-33.027
-35.313
-37.153
-38.529
-39.395
-39.808
-39.852
-39.583
-39.056
-38.287
-37.267
-36.011
-34.551
-32.935
-31.223
-29.469
-27.718
-26.001
-24.336
-22.738
-21.214
-19.761
-18.371
-17.03
-15.717
-14.422
-13.136
-11.85
-10.551
-9.222
-7.84
-6.385
-4.838
-3.182
-1.404
0.512
2.579
4.809
7.211
9.789
12.546
15.489
18.627
21.968
25.52
29.281
33.247
37.413
41.77
46.307
51.006
55.839
60.778
65.794
70.867
75.988
81.141
86.31
91.477
96.617
101.721
106.788
111.816
116.795
121.72
126.582
131.391
136.174
140.953
145.736
150.511
155.244
159.901
164.456
168.878
173.128
177.145
180.849
184.176
187.083
189.526
191.461
192.815
193.491
193.413
192.532
190.831
188.318
185.004
180.892
176.001
170.377
164.095
157.25
149.913
142.128
133.937
125.401
116.625
107.729
98.815
89.952
81.188
72.56
64.113
55.894
47.938
40.249
32.809
25.597
18.621
11.909
5.496
-0.612
-6.451
-12.059
-17.46
-22.654
-27.632
-32.389
-36.936
-41.282
-45.423
-49.338
-52.997
-56.384
-59.504
-62.374
-65.016
-67.432
-69.598
-71.496
-73.124
-74.486
-75.595
-76.456
-77.062
-77.418
-77.542
-77.454
-77.181
-76.739
-76.132
-75.366
-74.447
-73.388
-72.216
-70.952
-69.61
-68.205
-66.75
-65.262
-63.76
-62.258
-60.761
-59.276
-57.808
-56.366
-54.959
-53.597
-52.286
-51.03
-49.832
-48.693
-47.618
-46.607
-45.661
-44.78
-43.964
-43.212
-42.526
-41.906
-41.353
-40.867
-40.446
-40.09
-39.795
-39.562
-39.39
-39.279
-39.229
-39.238
-39.302
-39.422
-39.596
-39.824
-40.107
-40.438
-40.809
-41.217
-41.664
-42.157
-42.701
-43.293
-43.931
-44.614
-45.351
-46.148
-47.012
-47.939
-48.916
-49.94
-51.009
-52.129
-53.308
-54.531
-55.763
-56.964
-58.098
-59.136
-60.05
-60.795
-61.311
-61.544
-61.451
-61.02
-60.251
-59.139
-57.684
-55.888
-53.767
-51.369
-48.766
-46.054
-43.343
-40.754
-38.426
-36.518
-35.17
-34.559
-34.888
-36.231
-38.562
-41.709
-45.295
-48.989
-52.576
-55.724
-58.013
-59.207
-59.24
-58.515
-57.998
-58.494
-60.5
-64.448
-70.63
-79.099
-89.617
-100.952
-110.761
-116.661
-116.458
-107.97
-89.26
-58.517
-13.847
44.307
112.308
186.228
261.781
336.772
414.398
496.232
578.09
651.473
699.711
705.255
662.075
571.586
442.856
294.35
141.73
-0.021
-112.299
-184.902
-215.876
-210.052
-183.334
-151.91
-123.973
-102.811
-86.478
-70.705
-55.102
-41.584
-32.377
-29.797
-34.004
-42.896
-53.349
-62.657
-69.54
-73.574
-74.897
-73.738
-69.967
-64.147
-57.688
-51.702
-46.854
-43.446
-41.294
-40.294
-40.664
-42.296
-44.74
-47.63
-50.621
-53.515
-56.339
-59.04
-61.448
-63.475
-65.092
-66.29
-67.121
-67.609
-67.729
-67.488
-66.908
-66.019
-64.866
-63.489
-61.914
-60.181
-58.326
-56.391
-54.419
-52.437
-50.465
-48.515
-46.585
-44.668
-42.752
-40.822
-38.859
-36.846
-34.762
-32.591
-30.316
-27.922
-25.394
-22.719
-19.882
-16.872
-13.676
-10.283
-6.69
-2.895
1.098
5.281
9.644
14.174
18.854
23.658
28.567
33.563
38.627
43.746
48.899
54.067
59.232
64.369
69.463
74.509
79.503
84.444
89.348
94.225
99.093
103.981
108.901
113.862
118.868
123.91
128.984
134.083
139.187
144.281
149.338
154.308
159.136
163.751
168.055
171.956
175.358
178.156
180.265
181.608
182.107
181.707
180.357
178.016
174.659
170.266
164.827
158.37
150.942
142.62
133.52
123.759
113.456
102.745
91.752
80.607
69.447
58.401
47.583
37.101
27.054
17.543
8.66
0.465
-7.005
-13.745
-19.781
-25.143
-29.864
-33.989
-37.574
-40.681
-43.388
-45.773
-47.9
-49.827
-51.615
-53.326
-55.02
-56.742
-58.517
-60.352
-62.24
-64.173
-66.145
-68.14
-70.134
-72.096
-73.988
-75.767
-77.406
-78.885
-80.182
-81.275
-82.149
-82.792
-83.205
-83.401
-83.393
-83.192
-82.813
-82.27
-81.588
-80.79
-79.905
-78.961
-77.982
-76.983
-75.984
-74.997
-74.034
-73.106
-72.216
-71.364
-70.551
-69.781
-69.053
-68.369
-67.727
-67.125
-66.559
-66.025
-65.521
-65.044
-64.593
-64.165
-63.76
-63.376
-63.015
-62.675
-62.358
-62.06
-61.782
-61.52
-61.273
-61.039
-60.817
-60.606
-60.406
-60.219
-60.045
-59.888
-59.751
-59.637
-59.55
-59.493
-59.468
-59.478
-59.525
-59.612
-59.742
-59.921
-60.151
-60.439
-60.787
-61.199
-61.678
-62.224
-62.835
-63.506
-64.237
-65.026
-65.88
-66.807
-67.811
-68.896
-70.064
-71.313
-72.634
-74.007
-75.402
-76.79
-78.137
-79.413
-80.596
-81.659
-82.576
-83.314
-83.831
-84.09
-84.058
-83.706
-83.008
-81.965
-80.606
-78.986
-77.2
-75.336
-73.466
-71.677
-70.063
-68.729
-67.785
-67.339
-67.462
-68.25
-69.865
-72.363
-75.673
-79.58
-83.623
-87.307
-90.251
-91.982
-91.892
-89.709
-85.501
-79.675
-73.357
-67.654
-63.261
-61.064
-61.963
-66.054
-72.663
-80.36
-86.401
-87.711
-81.618
-64.986
-34.368
11.485
70.869
141.294
218.605
300.52
390.306
488.377
588.856
680.728
744.394
761.074
724.743
637.761
510.367
360.593
203.273
52.853
-72.4
-160.268
-205.713
-211.036
-190.188
-159.37
-128.064
-100.736
-75.985
-49.655
-22.19
3.359
23.477
34.238
34.942
27.37
13.954
-2.287
-18.934
-34.209
-46.763
-55.633
-60.372
-61.117
-58.535
-53.646
-47.553
-41.401
-35.976
-31.792
-29.191
-28.191
-28.644
-30.288
-32.707
-35.411
-38.081
-40.521
-42.612
-44.369
-45.814
-46.973
-47.928
-48.749
-49.464
-50.055
-50.473
-50.661
-50.593
-50.267
-49.695
-48.9
-47.905
-46.736
-45.423
-43.974
-42.381
-40.617
-38.65
-36.468
-34.068
-31.468
-28.695
-25.767
-22.698
-19.502
-16.181
-12.732
-9.154
-5.435
-1.564
2.46
6.633
10.945
15.379
19.925
24.576
29.33
34.191
39.157
44.218
49.359
54.562
59.805
65.074
70.359
75.643
80.91
86.149
91.344
96.494
101.604
106.674
111.694
116.66
121.564
126.415
131.24
136.053
140.862
145.662
150.426
155.132
159.757
164.262
168.601
172.713
176.521
179.968
183.016
185.621
187.745
189.333
190.313
190.629
190.24
189.112
187.228
184.582
181.174
177.034
172.223
166.813
160.889
154.518
147.743
140.611
133.171
125.475
117.582
109.55
101.437
93.31
85.254
77.333
69.603
62.091
54.791
47.698
40.805
34.111
27.632
21.388
15.397
9.691
4.314
-0.707
-5.359
-9.657
-13.648
-17.365
-20.827
-24.041
-27
-29.7
-32.14
-34.318
-36.23
-37.884
-39.295
-40.497
-41.543
-42.47
-43.297
-44.026
-44.63
-45.096
-45.424
-45.612
-45.663
-45.581
-45.373
-45.052
-44.644
-44.167
-43.631
-43.036
-42.372
-41.636
-40.84
-39.997
-39.133
-38.27
-37.42
-36.602
-35.835
-35.133
-34.506
-33.958
-33.486
-33.086
-32.761
-32.511
-32.342
-32.253
-32.241
-32.304
-32.436
-32.633
-32.888
-33.196
-33.546
-33.932
-34.347
-34.785
-35.243
-35.714
-36.194
-36.676
-37.156
-37.628
-38.086
-38.524
-38.935
-39.313
-39.652
-39.948
-40.195
-40.39
-40.529
-40.608
-40.626
-40.58
-40.471
-40.298
-40.06
-39.759
-39.396
-38.973
-38.492
-37.956
-37.367
-36.729
-36.046
-35.323
-34.563
-33.771
-32.952
-32.11
-31.25
-30.378
-29.497
-28.612
-27.729
-26.853
-25.989
-25.141
-24.317
-23.519
-22.754
-22.025
-21.337
-20.693
-20.097
-19.551
-19.058
-18.621
-18.239
-17.916
-17.651
-17.445
-17.297
-17.208
-17.176
-17.2
-17.279
-17.41
-17.591
-17.819
-18.093
-18.408
-18.763
-19.153
-19.576
-20.027
-20.504
-21.002
-21.516
-22.044
-22.58
-23.12
-23.66
-24.195
-24.721
-25.234
-25.73
-26.205
-26.656
-27.079
-27.472
-27.832
-28.156
-28.444
-28.692
-28.9
-29.068
-29.194
-29.278
-29.321
-29.323
-29.285
-29.208
-29.092
-28.941
-28.754
-28.535
-28.285
-28.007
-27.704
-27.379
-27.034
-26.674
-26.302
-25.922
-25.538
-25.154
-24.775
-24.404
-24.047
-23.707
-23.389
-23.096
-22.832
-22.602
-22.408
-22.254
-22.142
-22.076
-22.057
-22.089
-22.171
-22.308
-22.498
-22.744
-23.046
-23.406
-23.822
-24.295
-24.824
-25.41
-26.051
-26.746
-27.493
-28.291
-29.138
-30.031
-30.967
-31.943
-32.956
-34.003
-35.079
-36.181
-37.303
-38.443
-39.596
-40.757
-41.922
-43.086
-44.246
-45.396
-46.533
-47.653
-48.751
-49.823
-50.866
-51.876
-52.849
-53.781
-54.671
-55.513
-56.306
-57.046
-57.732
-58.36
-58.928
-59.434
-59.876
-60.254
-60.565
-60.81
-60.987
-61.096
-61.138
-61.113
-61.022
-60.867
-60.648
-60.368
-60.029
-59.632
-59.181
-58.678
-58.125
-57.527
-56.887
-56.208
-55.493
-54.748
-53.976
-53.181
-52.367
-51.538
-50.699
-49.855
-49.011
-48.17
-47.338
-46.521
-45.722
-44.947
-44.201
-43.489
-42.814
-42.182
-41.597
-41.061
-40.579
-40.155
-39.79
-39.488
-39.252
-39.082
-38.982
-38.952
-38.993
-39.105
-39.288
-39.54
-39.862
-40.251
-40.706
-41.225
-41.805
-42.443
-43.136
-43.881
-44.672
-45.506
-46.377
-47.279
-48.205
-49.151
-50.108
-51.072
-52.033
-52.987
-53.925
-54.842
-55.73
-56.581
-57.391
-58.151
-58.857
-59.502
-60.081
-60.591
-61.027
-61.388
-61.67
-61.875
-62.002
-62.05
-62.022
-61.921
-61.747
-61.505
-61.197
-60.826
-60.398
-59.916
-59.387
-58.817
-58.212
-57.579
-56.927
-56.265
-55.601
-54.942
-54.294
-53.662
-53.051
-52.468
-51.925
-51.428
-50.986
-50.603
-50.286
-50.038
-49.862
-49.748
-49.674
-49.618
-49.557
-49.469
-49.341
-49.152
-48.882
-48.507
-48
-47.337
-46.503
-45.478
-44.245
-42.797
-41.132
-39.285
-37.333
-35.356
-33.441
-31.662
-30.062
-28.705
-27.674
-27.054
-26.933
-27.389
-28.451
-30.177
-32.69
-36.006
-40.026
-44.479
-48.828
-52.531
-55.162
-56.256
-55.294
-52.002
-46.424
-39.008
-30.879
-23.256
-17.033
-13.153
-12.451
-15.081
-20.436
-27.074
-32.286
-33.025
-26.484
-9.446
21.076
67.114
128.291
201.19
281.137
362.461
442.596
523.463
603.75
679.623
742.791
774.654
760.34
693.386
572.135
412.398
239.095
74.361
-57.07
-141.842
-182.624
-185.794
-163.077
-126.223
-80.36
-31.864
9.717
36.892
45.536
37.794
23.153
10.542
3.844
2.413
2.137
0.036
-4.18
-9.015
-12.11
-12.426
-9.962
-5.5
-0.698
3.384
6.378
8.05
8.556
8.038
6.298
3.43
-0.141
-4.092
-8.111
-11.984
-15.714
-19.248
-22.43
-25.178
-27.465
-29.276
-30.659
-31.642
-32.208
-32.369
-32.144
-31.565
-30.682
-29.537
-28.166
-26.612
-24.916
-23.12
-21.268
-19.389
-17.504
-15.624
-13.749
-11.874
-9.99
-8.087
-6.151
-4.172
-2.136
-0.032
2.146
4.41
6.768
9.23
11.807
14.509
17.342
20.313
23.426
26.683
30.083
33.625
37.303
41.114
45.056
49.128
53.332
57.665
62.122
66.695
71.373
76.139
80.975
85.849
90.73
95.594
100.419
105.19
109.901
114.543
119.105
123.585
127.965
132.236
136.387
140.403
144.274
148
151.587
155.06
158.448
161.761
165
168.155
171.193
174.083
176.782
179.233
181.395
183.23
184.705
185.798
186.492
186.752
186.54
185.806
184.486
182.546
179.967
176.741
172.891
168.453
163.477
158.044
152.224
146.074
139.65
132.99
126.13
119.123
112.022
104.887
97.792
90.795
83.943
77.282
70.833
64.606
58.597
52.778
47.124
41.626
36.279
31.087
26.063
21.206
16.519
12.009
7.666
3.489
-0.527
-4.386
-8.088
-11.623
-14.978
-18.131
-21.062
-23.759
-26.216
-28.433
-30.413
-32.16
-33.683
-34.995
-36.106
-37.025
-37.762
-38.324
-38.721
-38.965
-39.069
-39.05
-38.924
-38.704
-38.404
-38.039
-37.62
-37.157
-36.662
-36.14
-35.6
-35.05
-34.497
-33.95
-33.417
-32.903
-32.416
-31.961
-31.544
-31.17
-30.84
-30.558
-30.326
-30.143
-30.011
-29.929
-29.895
-29.91
-29.971
-30.075
-30.221
-30.405
-30.624
-30.874
-31.151
-31.45
-31.767
-32.096
-32.434
-32.774
-33.113
-33.446
-33.767
-34.074
-34.362
-34.626
-34.863
-35.069
-35.24
-35.374
-35.467
-35.516
-35.52
-35.477
-35.386
-35.245
-35.054
-34.814
-34.524
-34.185
-33.798
-33.364
-32.884
-32.361
-31.796
-31.193
-30.554
-29.883
-29.183
-28.46
-27.718
-26.96
-26.193
-25.421
-24.65
-23.883
-23.127
-22.387
-21.667
-20.972
-20.308
-19.679
-19.09
-18.546
-18.05
-17.607
-17.22
-16.892
-16.627
-16.427
-16.294
-16.23
-16.238
-16.318
-16.47
-16.697
-16.997
-17.37
-17.816
-18.332
-18.917
-19.567
-20.28
-21.052
-21.879
-22.755
-23.677
-24.639
-25.637
-26.664
-27.715
-28.785
-29.868
-30.957
-32.047
-33.132
-34.207
-35.267
-36.306
-37.321
-38.307
-39.261
-40.18
-41.061
-41.904
-42.708
-43.472
-44.198
-44.887
-45.54
-46.161
-46.751
-47.314
-47.851
-48.367
-48.863
-49.345
-49.818
-50.286
-50.757
-51.237
-51.731
-52.247
-52.788
-53.357
-53.955
-54.585
-55.252
-55.964
-56.731
-57.558
-58.45
-59.412
-60.443
-61.538
-62.68
-63.842
-64.996
-66.115
-67.176
-68.162
-69.054
-69.83
-70.462
-70.92
-71.172
-71.196
-70.971
-70.479
-69.712
-68.692
-67.478
-66.162
-64.843
-63.605
-62.503
-61.601
-60.981
-60.734
-60.962
-61.759
-63.156
-65.207
-68.039
-71.673
-76.02
-80.832
-85.557
-89.633
-92.706
-94.374
-94.143
-91.805
-87.395
-81.32
-74.767
-68.935
-64.396
-61.752
-61.825
-64.679
-69.681
-75.773
-79.199
-76.114
-65.505
-44.882
-14.254
25.128
76.413
138.237
209.599
290.25
374.496
462.489
550.992
631.181
695.72
726.218
707.596
636.283
511.427
349.488
175.977
11.965
-118.411
-201.433
-238.94
-236.909
-207.704
-164.691
-114.819
-65.045
-24.275
0.852
6.653
-4.316
-21.766
-35.923
-41.763
-39.663
-35.049
-31.87
-30.872
-31.07
-30.139
-27.302
-23.397
-19.276
-15.892
-13.825
-13.029
-13.442
-14.959
-17.283
-20.175
-23.46
-26.958
-30.513
-34.008
-37.307
-40.285
-42.896
-45.104
-46.876
-48.198
-49.062
-49.472
-49.464
-49.084
-48.373
-47.37
-46.111
-44.626
-42.954
-41.139
-39.232
-37.286
-35.337
-33.415
-31.531
-29.69
-27.893
-26.129
-24.39
-22.66
-20.919
-19.15
-17.348
-15.5
-13.605
-11.659
-9.633
-7.499
-5.234
-2.806
-0.206
2.569
5.529
8.675
12.011
15.542
19.255
23.13
27.167
31.356
35.705
40.235
44.925
49.75
54.694
59.73
64.853
70.074
75.384
80.773
86.236
91.763
97.368
103.081
108.907
114.841
120.86
126.913
132.979
139.041
145.06
150.994
156.778
162.318
167.552
172.43
176.89
180.88
184.325
187.125
189.211
190.533
191.06
190.794
189.722
187.836
185.16
181.741
177.653
173.001
167.859
162.278
156.315
150.017
143.448
136.695
129.812
122.847
115.841
108.816
101.805
94.843
87.931
81.047
74.141
67.145
60.025
52.78
45.408
37.937
30.386
22.779
15.167
7.603
0.13
-7.206
-14.377
-21.36
-28.104
-34.543
-40.6
-46.18
-51.222
-55.692
-59.564
-62.843
-65.546
-67.706
-69.391
-70.667
-71.581
-72.179
-72.49
-72.538
-72.368
-72.027
-71.57
-71.066
-70.564
-70.106
-69.729
-69.451
-69.278
-69.2
-69.183
-69.198
-69.228
-69.265
-69.31
-69.368
-69.439
-69.519
-69.613
-69.711
-69.807
-69.898
-69.976
-70.039
-70.094
-70.151
-70.232
-70.354
-70.527
-70.757
-71.045
-71.387
-71.78
-72.219
-72.691
-73.189
-73.707
-74.238
-74.779
-75.323
-75.862
-76.389
-76.893
-77.365
-77.795
-78.176
-78.502
-78.767
-78.967
-79.1
-79.164
-79.159
-79.084
-78.938
-78.719
-78.428
-78.065
-77.63
-77.123
-76.547
-75.903
-75.195
-74.427
-73.602
-72.725
-71.801
-70.835
-69.832
-68.798
-67.738
-66.659
-65.567
-64.467
-63.366
-62.27
-61.184
-60.116
-59.069
-58.051
-57.065
-56.118
-55.212
-54.353
-53.545
-52.79
-52.093
-51.457
-50.884
-50.377
-49.938
-49.569
-49.272
-49.048
-48.896
-48.817
-48.809
-48.873
-49.006
-49.207
-49.473
-49.801
-50.188
-50.631
-51.125
-51.664
-52.245
-52.862
-53.508
-54.179
-54.867
-55.568
-56.274
-56.98
-57.68
-58.366
-59.034
-59.676
-60.287
-60.861
-61.393
-61.877
-62.31
-62.687
-63.004
-63.26
-63.453
-63.582
-63.648
-63.652
-63.594
-63.478
-63.307
-63.082
-62.806
-62.484
-62.118
-61.713
-61.275
-60.81
-60.325
-59.828
-59.326
-58.826
-58.335
-57.856
-57.393
-56.95
-56.532
-56.148
-55.808
-55.52
-55.294
-55.137
-55.055
-55.047
-55.103
-55.204
-55.33
-55.457
-55.564
-55.636
-55.654
-55.601
-55.457
-55.196
-54.788
-54.211
-53.439
-52.447
-51.227
-49.787
-48.17
-46.452
-44.715
-43.039
-41.488
-40.123
-39.024
-38.281
-37.98
-38.208
-39.026
-40.507
-42.798
-45.974
-49.964
-54.543
-59.246
-63.55
-67.051
-69.314
-69.783
-68.119
-64.324
-58.843
-52.779
-47.327
-43.308
-41.472
-42.568
-46.907
-54.074
-62.641
-69.964
-73.076
-69.204
-55.616
-29.646
11.264
67.371
135.613
211.854
291.14
371.194
455.227
543.656
630.856
706.649
752.473
751.156
698.655
596.948
455.709
295.277
131.59
-17.134
-128.157
-194.252
-215.765
-201.999
-175.26
-147.895
-124.023
-103.756
-80.236
-52.498
-24.376
0.831
18.825
28.003
29.184
23.655
13.88
2.601
-8.093
-16.964
-23.671
-28.052
-29.713
-28.657
-25.399
-21.001
-16.828
-13.624
-11.536
-10.626
-10.989
-12.664
-15.6
-19.442
-23.564
-27.553
-31.22
-34.481
-37.348
-39.794
-41.756
-43.248
-44.357
-45.163
-45.726
-46.069
-46.172
-46.04
-45.696
-45.179
-44.546
-43.843
-43.109
-42.369
-41.634
-40.915
-40.216
-39.536
-38.866
-38.187
-37.475
-36.711
-35.884
-34.981
-33.99
-32.889
-31.652
-30.258
-28.689
-26.929
-24.965
-22.785
-20.378
-17.735
-14.85
-11.722
-8.349
-4.731
-0.867
3.243
7.595
12.183
16.999
22.032
27.272
32.705
38.315
44.086
49.998
56.033
62.169
68.386
74.66
80.967
87.279
93.569
99.807
105.961
112
117.892
123.607
129.113
134.381
139.382
144.09
148.478
152.521
156.191
159.46
162.306
164.709
166.655
168.134
169.144
169.687
169.771
169.405
168.597
167.353
165.673
163.553
160.991
157.984
154.537
150.666
146.387
141.716
136.666
131.251
125.474
119.335
112.829
105.947
98.692
91.082
83.15
74.949
66.541
57.998
49.381
40.739
32.121
23.57
15.128
6.841
-1.24
-9.058
-16.547
-23.634
-30.259
-36.383
-41.99
-47.088
-51.705
-55.886
-59.672
-63.092
-66.174
-68.938
-71.404
-73.592
-75.526
-77.235
-78.76
-80.155
-81.464
-82.725
-83.957
-85.164
-86.332
-87.436
-88.455
-89.373
-90.179
-90.871
-91.452
-91.928
-92.305
-92.592
-92.79
-92.889
-92.885
-92.77
-92.546
-92.223
-91.814
-91.34
-90.82
-90.271
-89.707
-89.135
-88.56
-87.983
-87.403
-86.813
-86.213
-85.601
-84.978
-84.345
-83.703
-83.051
-82.385
-81.704
-81.003
-80.28
-79.535
-78.769
-77.982
-77.181
-76.369
-75.555
-74.746
-73.949
-73.168
-72.411
-71.68
-70.982
-70.323
-69.71
-69.15
-68.651
-68.219
-67.861
-67.584
-67.392
-67.286
-67.266
-67.332
-67.488
-67.745
-68.112
-68.596
-69.205
-69.941
-70.806
-71.791
-72.88
-74.049
-75.267
-76.506
-77.738
-78.943
-80.096
-81.174
-82.138
-82.943
-83.549
-83.915
-84.007
-83.794
-83.263
-82.433
-81.348
-80.081
-78.704
-77.274
-75.851
-74.523
-73.377
-72.507
-72.03
-72.017
-72.576
-73.899
-76.024
-78.867
-82.227
-85.637
-88.638
-90.949
-92.113
-91.546
-89.149
-85.1
-79.932
-74.923
-71.024
-68.659
-68.626
-71.664
-77.492
-85.202
-93.052
-97.996
-97.356
-89.022
-70.18
-37.879
8.463
66.885
134.635
207.408
283.353
365.576
453.902
542.66
622.343
676.341
689.585
658.223
584.364
476.14
348.261
212.669
81.79
-28.076
-106.251
-146.813
-150.129
-127.224
-89.736
-49.059
-15.871
5.867
12.833
6.375
-5.778
-18.686
-27.117
-29.364
-30.084
-31.356
-33.958
-37.847
-40.301
-40.309
-38.522
-35.525
-32.306
-29.625
-27.74
-26.809
-26.962
-28.125
-30.071
-32.641
-35.698
-39.085
-42.681
-46.37
-50.006
-53.489
-56.751
-59.696
-62.246
-64.351
-65.97
-67.095
-67.739
-67.916
-67.652
-66.982
-65.939
-64.557
-62.867
-60.904
-58.705
-56.315
-53.781
-51.15
-48.455
-45.723
-42.971
-40.205
-37.426
-34.63
-31.803
-28.931
-26.003
-23.009
-19.94
-16.791
-13.555
-10.225
-6.794
-3.253
0.407
4.195
8.119
12.177
16.368
20.689
25.128
29.673
34.302
38.988
43.71
48.452
53.207
57.972
62.743
67.516
72.287
77.052
81.807
86.552
91.281
95.982
100.651
105.292
109.919
114.566
119.248
123.96
128.685
133.394
138.05
142.616
147.043
151.264
155.219
158.848
162.1
164.947
167.353
169.271
170.644
171.394
171.47
170.851
169.529
167.508
164.798
161.41
157.38
152.781
147.681
142.144
136.228
129.962
123.379
116.528
109.465
102.26
94.966
87.606
80.198
72.769
65.357
58.013
50.768
43.612
36.538
29.545
22.641
15.859
9.23
2.774
-3.494
-9.557
-15.387
-20.934
-26.144
-30.994
-35.484
-39.638
-43.472
-46.972
-50.124
-52.921
-55.364
-57.472
-59.257
-60.723
-61.876
-62.732
-63.319
-63.686
-63.881
-63.929
-63.835
-63.586
-63.174
-62.609
-61.903
-61.066
-60.103
-59.019
-57.827
-56.551
-55.215
-53.835
-52.416
-50.957
-49.456
-47.923
-46.376
-44.841
-43.34
-41.89
-40.505
-39.201
-37.995
-36.9
-35.92
-35.054
-34.298
-33.652
-33.117
-32.697
-32.392
-32.201
-32.117
-32.136
-32.25
-32.455
-32.741
-33.1
-33.521
-33.994
-34.513
-35.072
-35.661
-36.275
-36.904
-37.539
-38.173
-38.796
-39.398
-39.971
-40.506
-40.994
-41.43
-41.808
-42.125
-42.376
-42.563
-42.682
-42.733
-42.715
-42.626
-42.468
-42.243
-41.952
-41.599
-41.188
-40.724
-40.217
-39.676
-39.108
-38.518
-37.91
-37.285
-36.649
-36.01
-35.377
-34.761
-34.178
-33.643
-33.183
-32.822
-32.574
-32.447
-32.441
-32.551
-32.778
-33.124
-33.584
-34.161
-34.855
-35.656
-36.555
-37.534
-38.55
-39.553
-40.474
-41.235
-41.789
-42.097
-42.129
-41.875
-41.315
-40.434
-39.245
-37.749
-35.945
-33.858
-31.516
-28.971
-26.331
-23.71
-21.228
-19.035
-17.263
-16.034
-15.478
-15.683
-16.717
-18.669
-21.634
-25.646
-30.626
-36.327
-42.344
-48.251
-53.676
-58.199
-61.252
-62.4
-61.636
-59.422
-56.673
-54.387
-53.161
-53.455
-56.052
-61.429
-69.098
-77.608
-84.561
-87.212
-83.34
-70.898
-47.15
-9.334
42.93
106.911
178.68
253.597
329.9
411.237
498.626
587.106
667.252
721.324
731.545
692.236
604.27
476.89
330.772
182.397
48.759
-51.791
-115.206
-141.182
-137.421
-120.329
-97.476
-76.787
-60.977
-47.276
-39.333
-35.337
-33.799
-35.684
-37.385
-39.856
-44.512
-49.953
-56.108
-61.26
-63.767
-63.954
-62.278
-59.498
-56.416
-53.501
-51.246
-49.961
-49.728
-50.445
-51.843
-53.728
-55.956
-58.361
-60.801
-63.144
-65.29
-67.205
-68.868
-70.223
-71.234
-71.885
-72.195
-72.242
-72.102
-71.842
-71.523
-71.188
-70.877
-70.631
-70.459
-70.357
-70.303
-70.257
-70.203
-70.142
-70.062
-69.942
-69.745
-69.399
-68.849
-68.055
-66.976
-65.586
-63.863
-61.785
-59.355
-56.597
-53.543
-50.241
-46.72
-42.99
-39.067
-34.967
-30.708
-26.322
-21.826
-17.224
-12.524
-7.74
-2.888
2.016
6.961
11.952
16.987
22.064
27.173
32.295
37.415
42.524
47.614
52.668
57.669
62.588
67.408
72.13
76.756
81.289
85.731
90.079
94.342
98.546
102.71
106.843
110.939
114.977
118.934
122.794
126.539
130.147
133.582
136.785
139.694
142.257
144.419
146.119
147.284
147.812
147.626
146.676
144.936
142.404
139.082
134.969
130.073
124.419
118.049
111.028
103.42
95.28
86.68
77.708
68.477
59.13
49.787
40.535
31.443
22.559
13.939
5.64
-2.295
-9.834
-16.958
-23.651
-29.889
-35.645
-40.915
-45.717
-50.096
-54.124
-57.851
-61.307
-64.512
-67.478
-70.223
-72.766
-75.117
-77.275
-79.249
-81.049
-82.703
-84.242
-85.674
-86.997
-88.188
-89.212
-90.049
-90.691
-91.133
-91.375
-91.42
-91.269
-90.937
-90.442
-89.794
-88.997
-88.047
-86.938
-85.677
-84.28
-82.768
-81.172
-79.515
-77.817
-76.097
-74.37
-72.646
-70.94
-69.26
-67.614
-66.017
-64.491
-63.059
-61.745
-60.568
-59.537
-58.653
-57.908
-57.293
-56.796
-56.411
-56.139
-55.981
-55.934
-55.988
-56.132
-56.345
-56.598
-56.863
-57.104
-57.29
-57.407
-57.455
-57.452
-57.42
-57.385
-57.346
-57.291
-57.21
-57.094
-56.941
-56.753
-56.534
-56.295
-56.05
-55.829
-55.654
-55.533
-55.449
-55.37
-55.26
-55.099
-54.927
-54.793
-54.751
-54.848
-55.094
-55.522
-56.188
-57.143
-58.437
-60.104
-62.125
-64.531
-67.452
-70.884
-74.713
-78.681
-82.232
-84.859
-86.258
-86.011
-83.635
-79.09
-72.585
-64.728
-56.876
-50.095
-44.949
-42.282
-42.729
-45.945
-51.061
-56.268
-58.441
-55.1
-44.219
-22.98
10.992
59.016
120.107
189.997
263.445
335.435
405.536
477.215
548.681
616.355
669.643
688.032
661.774
586.146
462.86
314.54
161.364
23.573
-75.309
-133.101
-153.205
-143.466
-122.15
-94.527
-64.513
-38.282
-15.164
-2.088
-2.096
-9.148
-20.219
-28.879
-31.773
-33.211
-34.797
-37.386
-41.244
-43.678
-43.719
-42.067
-39.285
-36.336
-33.951
-32.324
-31.533
-31.621
-32.421
-33.623
-35.008
-36.403
-37.632
-38.572
-39.106
-39.105
-38.5
-37.275
-35.404
-32.899
-29.813
