Name
Date of Birth,"Mar 27, 1959"
Recorded Date,2021-03-18 00:14:57 -0500
Classification,Sinus Rhythm
Symptoms,
Software Version,1.90
Device,"Watch4,2"
Sample Rate,510.227 hertz


Lead,Lead I
Unit,µV

28.468
32.259
35.966
39.577
43.081
46.469
49.728
52.849
55.823
58.64
61.291
63.77
66.069
68.182
70.104
71.83
73.356
74.68
75.798
76.71
77.414
77.909
78.196
78.275
78.147
77.814
77.276
76.535
75.595
74.457
73.125
71.601
69.89
67.996
65.923
63.677
61.264
58.688
55.956
53.074
50.049
46.886
43.593
40.175
36.638
32.99
29.235
25.379
21.429
17.39
13.267
9.065
4.791
0.449
-3.954
-8.412
-12.919
-17.467
-22.048
-26.655
-31.278
-35.908
-40.535
-45.15
-49.74
-54.296
-58.806
-63.258
-67.642
-71.944
-76.152
-80.254
-84.237
-88.088
-91.794
-95.34
-98.715
-101.905
-104.895
-107.672
-110.223
-112.533
-114.588
-116.375
-117.881
-119.093
-119.999
-120.587
-120.848
-120.773
-120.354
-119.585
-118.461
-116.978
-115.135
-112.931
-110.367
-107.444
-104.168
-100.543
-96.576
-92.276
-87.654
-82.721
-77.491
-71.978
-66.2
-60.172
-53.915
-47.449
-40.794
-33.974
-27.013
-19.938
-12.775
-5.551
1.704
8.961
16.191
23.362
30.446
37.412
44.23
50.87
57.305
63.504
69.44
75.086
80.416
85.402
90.019
94.244
98.054
101.428
104.347
106.793
108.753
110.216
111.171
111.613
111.539
110.945
109.829
108.194
106.044
103.384
100.227
96.584
92.474
87.919
82.944
77.576
71.84
65.755
59.343
52.63
45.642
38.411
30.974
23.378
15.674
7.93
0.207
-7.43
-14.923
-22.225
-29.286
-36.053
-42.471
-48.472
-53.996
-58.995
-63.423
-67.241
-70.438
-73.036
-75.084
-76.673
-77.883
-78.766
-79.387
-79.825
-80.169
-80.531
-81.018
-81.71
-82.714
-84.201
-86.238
-88.756
-91.516
-94.007
-95.694
-96.167
-94.952
-91.515
-85.667
-77.581
-67.882
-57.894
-48.911
-41.817
-37.524
-36.76
-39.431
-44.628
-50.439
-53.777
-51.472
-40.418
-17.542
19.541
72.312
139.228
217.07
303.311
393.242
484.151
573.092
649.535
705.385
732.719
723.797
683.544
617.994
533.517
440.241
341.312
239.897
141.169
48.437
-32.692
-97.667
-145.25
-175.686
-191.253
-195.098
-189.73
-178.016
-163.147
-147.894
-134.388
-123.581
-115.107
-108.168
-102.495
-97.669
-92.883
-87.339
-80.385
-71.898
-62.672
-53.73
-45.24
-37.286
-30.206
-24.265
-19.886
-17.315
-16.135
-15.757
-16.212
-17.528
-19.586
-22.336
-25.43
-28.504
-31.525
-34.501
-37.216
-39.492
-41.179
-42.084
-42.188
-41.525
-40.074
-37.854
-34.942
-31.421
-27.407
-23.053
-18.501
-13.874
-9.286
-4.822
-0.544
3.498
7.262
10.719
13.847
16.635
19.088
21.214
23.021
24.524
25.747
26.733
27.538
28.21
28.786
29.294
29.75
30.18
30.614
31.053
31.5
31.956
32.421
32.919
33.489
34.126
34.823
35.629
36.58
37.707
39.057
40.607
42.306
44.199
46.353
48.583
50.669
52.727
54.735
56.634
58.853
60.149
59.318
58.062
56.91
58.991
68.039
79.894
91.762
99.515
97.507
90.73
83.425
78.499
80.747
86.76
93.105
99.019
102.375
104.361
106.478
108.369
110.204
111.854
112.995
113.818
114.455
114.825
114.896
114.663
114.099
113.143
111.714
109.746
107.21
104.162
100.711
96.921
92.834
88.496
83.936
79.199
74.342
69.397
64.381
59.326
54.271
49.278
44.438
39.806
35.402
31.224
27.23
23.396
19.72
16.189
12.793
9.524
6.371
3.34
0.453
-2.281
-4.865
-7.315
-9.662
-11.925
-14.104
-16.194
-18.177
-20.042
-21.787
-23.406
-24.89
-26.236
-27.445
-28.527
-29.502
-30.383
-31.179
-31.896
-32.533
-33.094
-33.589
-34.022
-34.403
-34.738
-35.035
-35.299
-35.542
-35.769
-35.985
-36.192
-36.388
-36.575
-36.752
-36.918
-37.075
-37.219
-37.349
-37.465
-37.563
-37.644
-37.704
-37.74
-37.749
-37.727
-37.671
-37.577
-37.442
-37.264
-37.04
-36.768
-36.447
-36.075
-35.653
-35.181
-34.659
-34.089
-33.473
-32.812
-32.108
-31.363
-30.58
-29.759
-28.903
-28.013
-27.092
-26.141
-25.163
-24.161
-23.138
-22.098
-21.046
-19.983
-18.916
-17.848
-16.781
-15.716
-14.652
-13.589
-12.526
-11.462
-10.398
-9.334
-8.268
-7.2
-6.132
-5.065
-3.995
-2.918
-1.822
-0.698
0.453
1.629
2.823
4.019
5.209
6.379
7.51
8.59
9.616
10.59
11.532
12.463
13.393
14.324
15.243
16.141
17.023
17.901
18.787
19.707
20.684
21.745
22.939
24.297
25.82
27.492
29.26
31.053
32.83
34.557
36.213
37.786
39.244
40.554
41.692
42.619
43.294
43.667
43.659
43.212
42.311
40.969
39.244
37.222
34.959
32.502
29.899
27.18
24.385
21.556
18.715
15.892
13.127
10.474
8.011
5.807
3.893
2.277
0.938
-0.17
-1.074
-1.793
-2.354
-2.768
-3.047
-3.198
-3.212
-3.079
-2.803
-2.395
-1.884
-1.298
-0.65
0.059
0.833
1.689
2.635
3.675
4.818
6.065
7.411
8.846
10.351
11.9
13.476
15.061
16.645
18.215
19.76
21.263
22.709
24.083
25.369
26.551
27.611
28.531
29.295
29.889
30.303
30.529
30.56
30.388
30.009
29.424
28.632
27.635
26.435
25.032
23.432
21.637
19.657
17.499
15.173
12.694
10.076
7.336
4.497
1.576
-1.41
-4.45
-7.539
-10.673
-13.842
-17.032
-20.227
-23.406
-26.547
-29.618
-32.578
-35.385
-38
-40.386
-42.515
-44.36
-45.894
-47.09
-47.905
-48.297
-48.25
-47.768
-46.862
-45.559
-43.88
-41.85
-39.547
-37.076
-34.548
-32.086
-29.796
-27.742
-26.023
-24.802
-24.138
-24.01
-24.268
-24.524
-24.442
-23.829
-22.377
-19.7
-15.762
-10.692
-4.969
0.229
4.006
5.852
4.908
0.552
-6.9
-16.697
-27.202
-35.354
-38.706
-35.437
-22.615
2.219
39.717
89.945
150.055
213.61
276.943
337.457
392.424
442.719
484.722
510.887
514.349
485.433
419.573
320.317
197.727
71.528
-36.185
-109.263
-141.559
-141.068
-124.914
-107.794
-97.838
-94.784
-91.926
-85.7
-76.717
-67.447
-61.754
-60.959
-63.478
-67.46
-71.412
-74.07
-74.905
-73.873
-71.202
-67.464
-63.647
-60.67
-58.612
-57.567
-57.705
-58.873
-60.913
-63.612
-66.375
-68.655
-70.613
-72.378
-73.919
-75.339
-76.518
-77.331
-77.945
-78.505
-78.862
-78.906
-78.573
-77.768
-76.586
-75.131
-73.401
-71.411
-69.216
-66.862
-64.421
-61.977
-59.563
-57.201
-54.914
-52.714
-50.619
-48.648
-46.801
-45.073
-43.446
-41.905
-40.442
-39.048
-37.715
-36.432
-35.184
-33.954
-32.73
-31.498
-30.246
-28.966
-27.641
-26.257
-24.805
-23.272
-21.653
-19.939
-18.119
-16.183
-14.12
-11.922
-9.581
-7.088
-4.439
-1.626
1.354
4.501
7.814
11.292
14.929
18.722
22.662
26.741
30.948
35.271
39.697
44.211
48.796
53.436
58.111
62.803
67.491
72.154
76.771
81.322
85.783
90.135
94.356
98.423
102.316
106.013
109.494
112.738
115.724
118.435
120.85
122.953
124.731
126.168
127.255
127.98
128.338
128.322
127.928
127.155
126.002
124.471
122.566
120.292
117.657
114.669
111.339
107.68
103.704
99.426
94.862
90.026
84.937
79.612
74.068
68.326
62.406
56.329
50.12
43.8
37.395
30.93
24.432
17.924
11.431
4.975
-1.421
-7.737
-13.954
-20.056
-26.026
-31.847
-37.503
-42.978
-48.254
-53.318
-58.156
-62.754
-67.1
-71.184
-75
-78.546
-81.818
-84.812
-87.52
-89.932
-92.044
-93.858
-95.38
-96.615
-97.578
-98.29
-98.782
-99.1
-99.277
-99.336
-99.292
-99.146
-98.901
-98.561
-98.126
-97.594
-96.967
-96.236
-95.401
-94.469
-93.426
-92.249
-90.892
-89.28
-87.37
-85.146
-82.608
-79.782
-76.71
-73.434
-70.023
-66.563
-63.126
-59.78
-56.577
-53.545
-50.74
-48.234
-46.114
-44.502
-43.483
-43.103
-43.392
-44.353
-45.959
-48.17
-50.902
-54.039
-57.487
-61.168
-65.024
-69.023
-73.112
-77.222
-81.278
-85.187
-88.874
-92.291
-95.396
-98.159
-100.581
-102.675
-104.493
-106.116
-107.605
-108.998
-110.326
-111.594
-112.819
-114.025
-115.231
-116.46
-117.729
-119.053
-120.446
-121.925
-123.488
-125.127
-126.817
-128.516
-130.197
-131.843
-133.441
-134.987
-136.477
-137.905
-139.274
-140.588
-141.851
-143.062
-144.219
-145.314
-146.346
-147.316
-148.226
-149.081
-149.882
-150.629
-151.321
-151.955
-152.526
-153.029
-153.457
-153.799
-154.047
-154.194
-154.235
-154.164
-153.977
-153.667
-153.232
-152.668
-151.972
-151.141
-150.173
-149.065
-147.816
-146.424
-144.889
-143.21
-141.386
-139.417
-137.303
-135.043
-132.638
-130.089
-127.399
-124.57
-121.608
-118.517
-115.303
-111.976
-108.543
-105.013
-101.393
-97.69
-93.908
-90.054
-86.133
-82.151
-78.111
-74.018
-69.875
-65.692
-61.475
-57.23
-52.959
-48.659
-44.332
-39.984
-35.625
-31.266
-26.922
-22.605
-18.342
-14.166
-10.11
-6.205
-2.467
1.106
4.513
7.75
10.818
13.712
16.441
19.035
21.512
23.885
26.173
28.392
30.583
32.817
35.149
37.621
40.25
43.02
45.914
48.912
51.976
55.052
58.065
60.908
63.498
65.777
67.68
69.145
70.086
70.384
69.941
68.687
66.57
63.57
59.678
54.896
49.265
42.865
35.806
28.233
20.277
12.047
3.656
-4.79
-13.171
-21.348
-29.196
-36.608
-43.48
-49.72
-55.254
-60.028
-64.033
-67.311
-69.934
-72.013
-73.665
-75.003
-76.157
-77.256
-78.424
-79.803
-81.529
-83.711
-86.514
-90.131
-94.599
-99.846
-105.666
-111.685
-117.64
-123.34
-128.41
-132.469
-135.403
-137.338
-138.821
-140.59
-142.805
-145.319
-148.068
-150.822
-153.178
-154.318
-152.578
-146.255
-134.58
-117.202
-93.894
-64.506
-28.624
13.501
60.444
111.005
164.368
219.431
275.323
328.989
376.102
414.807
442.68
459.819
468.255
464.429
445.865
408.526
344.713
255.648
146.827
29.666
-74.62
-151.308
-194.046
-205.802
-201.872
-194.962
-190.777
-189.51
-184.671
-172.345
-154
-132.501
-112.038
-95.525
-83.156
-74.82
-70.854
-71.184
-75.153
-82.127
-91.043
-100.381
-109.385
-117.463
-123.549
-127.001
-127.72
-125.952
-122.431
-118.224
-114.231
-109.603
-103.673
-98.159
-93.489
-92.624
-98.718
-107.118
-114.835
-117.68
-110.042
-96.85
-82.246
-69.079
-62.196
-58.491
-54.78
-50.487
-43.674
-35.621
-28.016
-20.736
-14.125
-8.232
-2.857
1.716
5.239
7.7
9.09
9.425
8.802
7.386
5.357
2.915
0.271
-2.427
-5.025
-7.353
-9.281
-10.69
-11.466
-11.508
-10.703
-8.928
-6.111
-2.229
2.704
8.612
15.387
22.919
31.069
39.717
48.761
58.112
67.707
77.502
87.447
97.485
107.552
117.559
127.445
137.172
146.712
156.074
165.289
174.393
183.447
192.498
201.568
210.664
219.774
228.868
237.921
246.905
255.791
264.565
273.21
281.701
290.015
298.113
305.949
313.467
320.602
327.292
333.489
339.155
344.257
348.777
352.695
356.001
358.689
360.749
362.169
362.939
363.046
362.484
361.253
359.355
356.801
353.607
349.792
345.376
340.387
334.846
328.778
322.207
315.149
307.63
299.678
291.329
282.626
273.618
264.362
254.917
245.345
235.7
226.028
216.37
206.751
197.196
187.725
178.367
169.162
160.154
151.383
142.88
134.663
126.735
119.084
111.683
104.494
97.484
90.626
83.915
77.377
71.054
65.009
59.282
53.894
48.857
44.179
39.88
35.996
32.577
29.686
27.412
25.872
25.185
25.461
26.763
29.096
32.42
36.652
41.718
47.554
54.092
61.258
68.957
77.073
85.48
94.035
102.549
110.794
118.521
125.484
131.501
136.453
140.274
142.955
144.496
144.906
144.211
142.448
139.672
135.954
131.373
126.03
120.067
113.657
106.995
100.268
93.615
87.123
80.834
74.744
68.822
63.032
57.335
51.694
46.074
40.437
34.744
28.941
22.979
16.816
10.412
3.755
-3.131
-10.184
-17.292
-24.295
-31.008
-37.253
-42.865
-47.703
-51.631
-54.51
-56.205
-56.588
-55.572
-53.125
-49.236
-43.935
-37.291
-29.408
-20.456
-10.665
-0.283
10.457
21.328
32.128
42.636
52.608
61.814
70.034
77.101
82.907
87.361
90.406
92.023
92.226
91.09
88.749
85.335
80.971
75.791
69.915
63.501
56.742
49.809
42.861
36.026
29.394
23.049
17.065
11.485
6.327
1.579
-2.803
-6.854
-10.596
-14.067
-17.304
-20.369
-23.347
-26.3
-29.276
-32.312
-35.426
-38.635
-41.953
-45.378
-48.887
-52.457
-56.054
-59.652
-63.235
-66.775
-70.244
-73.605
-76.816
-79.845
-82.674
-85.284
-87.664
-89.806
-91.702
-93.356
-94.779
-95.98
-96.966
-97.746
-98.323
-98.708
-98.91
-98.941
-98.811
-98.533
-98.114
-97.563
-96.89
-96.104
-95.21
-94.218
-93.13
-91.953
-90.695
-89.363
-87.965
-86.512
-85.01
-83.469
-81.901
-80.316
-78.722
-77.13
-75.549
-73.989
-72.458
-70.966
-69.52
-68.128
-66.799
-65.538
-64.355
-63.256
-62.248
-61.34
-60.54
-59.855
-59.292
-58.857
-58.556
-58.392
-58.37
-58.488
-58.751
-59.159
-59.712
-60.411
-61.254
-62.235
-63.35
-64.594
-65.955
-67.425
-68.99
-70.64
-72.364
-74.156
-76.015
-77.942
-79.937
-81.992
-84.105
-86.27
-88.48
-90.726
-92.991
-95.245
-97.463
-99.617
-101.68
-103.624
-105.41
-106.993
-108.325
-109.354
-110.043
-110.374
-110.328
-109.894
-109.06
-107.814
-106.186
-104.256
-102.124
-99.906
-97.716
-95.654
-93.884
-92.647
-92.08
-92.189
-92.827
-93.646
-94.36
-94.849
-94.916
-94.217
-92.638
-90.416
-88.208
-87.205
-88.443
-92.368
-99.333
-109.795
-123.688
-140.165
-157.494
-172.834
-183.29
-186.789
-181.339
-164.782
-135.621
-93.44
-39.25
24.194
93.318
164.637
234
296.416
346.918
381.138
395.971
389.875
362.6
314.908
249.14
169.392
80.802
-11.164
-101.197
-184.18
-255.631
-312.066
-351.494
-373.894
-380.568
-373.366
-354.889
-328.74
-298.872
-269.221
-243.045
-222.033
-207.019
-198.726
-197.098
-201.068
-208.967
-218.457
-227.274
-234.268
-238.76
-239.998
-237.697
-232.016
-223.442
-213.121
-202.353
-191.775
-181.748
-172.613
-164.425
-157.188
-150.853
-145.014
-139.162
-133.054
-126.562
-119.647
-112.444
-105.043
-97.52
-90.066
-82.859
-76.031
-69.703
-63.939
-58.762
-54.215
-50.324
-47.101
-44.569
-42.717
-41.514
-40.913
-40.814
-41.117
-41.724
-42.515
-43.396
-44.284
-45.093
-45.761
-46.243
-46.497
-46.503
-46.249
-45.712
-44.895
-43.809
-42.479
-40.958
-39.29
-37.505
-35.639
-33.712
-31.733
-29.715
-27.656
-25.537
-23.346
-21.064
-18.667
-16.145
-13.476
-10.636
-7.599
-4.331
-0.808
2.985
7.058
11.413
16.05
20.963
26.138
31.553
37.186
43.018
49.023
55.181
61.469
67.858
74.321
80.827
87.346
93.85
100.311
106.7
112.99
119.153
125.164
130.998
136.633
142.043
147.203
152.091
156.683
160.958
164.895
168.477
171.685
174.505
176.926
178.936
180.527
181.694
182.433
182.74
182.616
182.063
181.086
179.689
177.88
175.67
173.07
170.093
166.754
163.07
159.057
154.737
150.127
145.25
140.128
134.784
129.24
123.522
117.655
111.663
105.572
99.408
93.195
86.96
80.727
74.519
68.361
62.275
56.282
50.404
44.66
39.069
33.648
28.414
23.381
18.564
13.975
9.625
5.523
1.677
-1.907
-5.222
-8.267
-11.038
-13.534
-15.757
-17.706
-19.386
-20.8
-21.953
-22.852
-23.504
-23.918
-24.102
-24.066
-23.821
-23.379
-22.749
-21.945
-20.977
-19.859
-18.603
-17.221
-15.726
-14.131
-12.448
-10.69
-8.87
-6.998
-5.088
-3.15
-1.196
0.765
2.722
4.666
6.587
8.478
10.329
12.135
13.888
15.583
17.214
18.778
20.27
21.689
23.033
24.299
25.487
26.597
27.628
28.581
29.456
30.255
30.98
31.632
32.215
32.731
33.183
33.576
33.913
34.198
34.436
34.631
34.788
34.914
35.012
35.088
35.15
35.201
35.249
35.3
35.358
35.428
35.515
35.624
35.757
35.918
36.11
36.335
36.595
36.892
37.229
37.605
38.023
38.482
38.983
39.526
40.11
40.734
41.396
42.096
42.832
43.602
44.402
45.231
46.083
46.955
47.842
48.737
49.634
50.527
51.407
52.267
53.101
53.901
54.661
55.373
56.033
56.633
57.169
57.635
58.026
58.337
58.563
58.7
58.743
58.69
58.536
58.278
57.913
57.439
56.853
56.152
55.334
54.396
53.338
52.157
50.856
49.435
47.896
46.243
44.482
42.619
40.662
38.619
36.499
34.308
32.056
29.751
27.401
25.012
22.591
20.143
17.678
15.205
12.734
10.275
7.839
5.437
3.08
0.782
-1.446
-3.596
-5.66
-7.629
-9.492
-11.236
-12.843
-14.299
-15.6
-16.74
-17.717
-18.532
-19.196
-19.725
-20.153
-20.501
-20.779
-20.991
-21.129
-21.187
-21.162
-21.049
-20.842
-20.533
-20.108
-19.56
-18.89
-18.083
-17.112
-15.933
-14.476
-12.701
-10.601
-8.182
-5.475
-2.523
0.629
3.914
7.247
10.553
13.766
16.831
19.716
22.362
24.699
26.635
28.056
28.881
29.066
28.585
27.439
25.653
23.269
20.36
17.032
13.364
9.415
5.233
0.845
-3.704
-8.352
-13.024
-17.625
-22.065
-26.263
-30.147
-33.658
-36.76
-39.435
-41.681
-43.519
-44.951
-45.96
-46.536
-46.664
-46.329
-45.533
-44.293
-42.628
-40.615
-38.376
-36.031
-33.727
-31.594
-29.72
-28.26
-27.41
-27.261
-27.83
-28.976
-30.373
-31.803
-33.149
-34.159
-34.505
-33.948
-32.37
-30.193
-28.313
-27.4
-27.935
-30.285
-34.703
-41.47
-50.552
-60.777
-70.065
-76.265
-77.087
-70.604
-55.099
-28.487
10.806
62.805
126.202
198.724
276.815
356.697
434.271
503.907
559.717
597.093
612.115
603.471
573.699
523.74
454.297
366.101
257.542
136.218
16.67
-86.463
-157.711
-196.715
-213.552
-215.663
-211.445
-198.691
-173.274
-142.46
-114.229
-100.529
-107.29
-125.872
-147.359
-162.361
-166.822
-166.218
-164.073
-162.689
-162.984
-162.266
-159.73
-156.183
-152.076
-148.491
-146.109
-144.757
-144.367
-144.879
-145.981
-147.386
-148.888
-150.275
-151.399
-152.216
-152.636
-152.539
-151.865
-150.549
-148.581
-146.019
-142.914
-139.316
-135.307
-130.977
-126.455
-121.918
-117.505
-113.325
-109.463
-105.962
-102.873
-100.257
-98.138
-96.515
-95.346
-94.542
-94.034
-93.774
-93.697
-93.743
-93.822
-93.811
-93.621
-93.195
-92.487
-91.472
-90.125
-88.413
-86.337
-83.922
-81.211
-78.27
-75.14
-71.84
-68.392
-64.816
-61.137
-57.396
-53.612
-49.788
-45.926
-42.027
-38.092
-34.131
-30.135
-26.082
-21.948
-17.704
-13.333
-8.834
-4.202
0.56
5.45
10.462
15.585
20.796
26.078
31.417
36.795
42.201
47.615
53.014
58.376
63.675
68.892
74.004
78.992
83.836
88.516
93.016
97.32
101.416
105.287
108.92
112.299
115.409
118.236
120.769
122.995
124.904
126.486
127.735
128.646
129.215
129.44
129.32
128.857
128.053
126.91
125.435
123.633
121.512
119.081
116.351
113.333
110.041
106.487
102.689
98.66
94.42
89.984
85.373
80.605
75.699
70.677
65.561
60.37
55.128
49.855
44.575
39.308
34.076
28.901
23.801
18.798
13.909
9.152
4.545
0.103
-4.159
-8.228
-12.091
-15.737
-19.156
-22.34
-25.281
-27.973
-30.412
-32.595
-34.52
-36.186
-37.595
-38.749
-39.652
-40.308
-40.724
-40.908
-40.868
-40.613
-40.154
-39.502
-38.67
-37.668
-36.512
-35.214
-33.788
-32.249
-30.611
-28.887
-27.092
-25.24
-23.344
-21.417
-19.473
-17.523
-15.58
-13.654
-11.757
-9.899
-8.089
-6.336
-4.649
-3.033
-1.496
-0.043
1.322
2.594
3.771
4.85
5.831
6.712
7.494
8.176
8.762
9.252
9.649
9.956
10.178
10.317
10.379
10.368
10.289
10.146
9.945
9.69
9.386
9.039
8.653
8.234
7.786
7.314
6.823
6.317
5.801
5.278
4.751
4.225
3.702
3.184
2.675
2.175
1.687
1.213
0.752
0.306
-0.125
-0.541
-0.942
-1.33
-1.705
-2.069
-2.425
-2.773
-3.116
-3.456
-3.797
-4.141
-4.49
-4.849
-5.22
-5.607
-6.013
-6.443
-6.9
-7.388
-7.912
-8.474
-9.079
-9.73
-10.431
-11.185
-11.997
-12.87
-13.806
-14.809
-15.883
-17.03
-18.253
-19.554
-20.935
-22.398
-23.945
-25.576
-27.292
-29.094
-30.981
-32.953
-35.009
-37.149
-39.37
-41.671
-44.048
-46.499
-49.02
-51.606
-54.253
-56.956
-59.71
-62.509
-65.346
-68.216
-71.112
-74.026
-76.951
-79.878
-82.8
-85.709
-88.595
-91.45
-94.264
-97.029
-99.735
-102.374
-104.936
-107.412
-109.793
-112.071
-114.237
-116.282
-118.198
-119.977
-121.612
-123.095
-124.421
-125.584
-126.578
-127.4
-128.046
-128.512
-128.796
-128.896
-128.812
-128.542
-128.088
-127.45
-126.632
-125.636
-124.466
-123.128
-121.625
-119.966
-118.158
-116.208
-114.125
-111.918
-109.598
-107.175
-104.663
-102.072
-99.418
-96.713
-93.975
-91.218
-88.46
-85.717
-83.007
-80.345
-77.749
-75.234
-72.814
-70.504
-68.316
-66.262
-64.355
-62.607
-61.028
-59.632
-58.427
-57.422
-56.626
-56.045
-55.679
-55.527
-55.59
-55.866
-56.364
-57.086
-58.029
-59.191
-60.566
-62.141
-63.901
-65.812
-67.826
-69.895
-71.969
-74.005
-75.969
-77.827
-79.534
-81.05
-82.323
-83.311
-83.991
-84.339
-84.328
-83.95
-83.226
-82.221
-81.052
-79.836
-78.665
-77.61
-76.738
-76.139
-75.912
-76.159
-76.973
-78.39
-80.457
-83.277
-86.864
-91.113
-95.739
-100.167
-103.773
-106.068
-106.521
-104.624
-100.194
-93.263
-84.366
-74.731
-65.524
-57.678
-52.107
-49.303
-48.961
-50.26
-51.363
-49.285
-41.035
-23.756
5.223
47.641
103.81
172.884
252.478
338.365
425.291
507.28
578.119
632.163
665.242
674.462
658.055
616.4
552.217
470.121
376.054
276.55
177.413
84.041
2.259
-63.281
-110.265
-138.539
-149.808
-146.894
-132.352
-108.954
-80.988
-53.034
-28.484
-9.169
4.58
13.223
16.846
15.469
10.368
3.748
-2.364
-6.816
-9.439
-10.56
-10.177
-7.914
-3.91
0.974
5.628
9.287
11.742
13.141
13.592
12.944
11.138
8.419
5.272
2.15
-0.686
-3.149
-5.245
-6.92
-8.097
-8.756
-8.95
-8.761
-8.264
-7.503
-6.486
-5.227
-3.759
-2.124
-0.383
1.406
3.193
4.932
6.591
8.153
9.603
10.933
12.144
13.244
14.25
15.183
16.056
16.876
17.656
18.407
19.151
19.907
20.694
21.528
22.422
23.389
24.443
25.595
26.854
28.229
29.726
31.35
33.11
35.013
37.068
39.281
41.656
44.198
46.912
49.799
52.862
56.1
59.511
63.092
66.841
70.751
74.815
79.027
83.376
87.853
92.445
97.139
101.922
106.778
111.69
116.643
121.617
126.594
131.554
136.477
141.343
146.131
150.819
155.386
159.812
164.074
168.153
172.028
175.679
179.087
182.235
185.104
187.677
189.94
191.878
193.477
194.727
195.617
196.137
196.281
196.043
195.419
194.406
193.004
191.214
189.038
186.481
183.549
180.25
176.594
172.593
168.259
163.608
158.656
153.42
147.919
142.174
136.206
130.036
123.688
117.183
110.545
103.8
96.97
90.081
83.157
76.223
69.302
62.42
55.598
48.86
42.228
35.722
29.362
23.168
17.155
11.342
5.743
0.372
-4.759
-9.641
-14.264
-18.622
-22.71
-26.525
-30.066
-33.334
-36.33
-39.058
-41.523
-43.732
-45.691
-47.409
-48.897
-50.164
-51.224
-52.089
-52.772
-53.289
-53.653
-53.881
-53.988
-53.99
-53.903
-53.742
-53.523
-53.262
-52.974
-52.676
-52.38
-52.102
-51.855
-51.651
-51.502
-51.417
-51.405
-51.474
-51.631
-51.881
-52.228
-52.676
-53.227
-53.882
-54.642
-55.507
-56.473
-57.539
-58.7
-59.952
-61.288
-62.703
-64.189
-65.738
-67.341
-68.991
-70.678
-72.391
-74.121
-75.856
-77.586
-79.299
-80.983
-82.628
-84.221
-85.753
-87.213
-88.591
-89.878
-91.066
-92.146
-93.11
-93.953
-94.667
-95.246
-95.686
-95.983
-96.132
-96.131
-95.979
-95.674
-95.217
-94.609
-93.851
-92.945
-91.894
-90.703
-89.375
-87.916
-86.333
-84.632
-82.82
-80.908
-78.904
-76.817
-74.658
-72.438
-70.166
-67.854
-65.512
-63.151
-60.781
-58.413
-56.058
-53.727
-51.429
-49.175
-46.976
-44.84
-42.777
-40.795
-38.902
-37.106
-35.413
-33.83
-32.361
-31.012
-29.788
-28.69
-27.721
-26.884
-26.178
-25.603
-25.157
-24.838
-24.643
-24.566
-24.604
-24.75
-24.999
-25.343
-25.776
-26.29
-26.877
-27.527
-28.232
-28.982
-29.767
-30.577
-31.401
-32.23
-33.052
-33.857
-34.634
-35.374
-36.067
-36.702
-37.27
-37.763
-38.171
-38.487
-38.704
-38.814
-38.812
-38.693
-38.452
-38.087
-37.593
-36.971
-36.219
-35.336
-34.324
-33.182
-31.915
-30.523
-29.012
-27.384
-25.644
-23.799
-21.854
-19.818
-17.698
-15.501
-13.238
-10.917
-8.548
-6.143
-3.712
-1.265
1.186
3.629
6.053
8.446
10.795
13.089
15.315
17.459
19.51
21.456
23.283
24.981
26.538
27.942
29.187
30.263
31.162
31.879
32.407
32.74
32.875
32.809
32.536
32.054
31.36
30.454
29.342
28.027
26.516
24.812
22.916
20.829
18.561
16.121
13.513
10.751
7.848
4.828
1.736
-1.382
-4.482
-7.524
-10.476
-13.302
-15.956
-18.394
-20.569
-22.443
-24
-25.222
-26.076
-26.549
-26.655
-26.445
-26.032
-25.526
-25.013
-24.576
-24.285
-24.218
-24.467
-25.095
-26.167
-27.745
-29.86
-32.583
-36.004
-40.104
-44.804
-49.873
-54.799
-59.028
-62.04
-63.264
-62.353
-59.144
-53.413
-45.494
-36.514
-27.728
-20.59
-15.201
-9.585
-2.337
6.313
13.079
13.498
7.578
2.168
10.021
42.374
103.283
188.313
287.004
390.713
492.263
582.989
651.461
684.151
672.836
620.29
540.428
449.882
359.849
274.053
189.76
105.696
25.787
-43.788
-97.024
-131.415
-148.051
-149.298
-137.929
-117.123
-91.108
-64.567
-41.108
-22.846
-10.545
-4.417
-4.788
-11.202
-21.915
-34.417
-46.29
-56.116
-63.503
-68.23
-69.849
-68.261
-63.928
-57.91
-51.578
-45.726
-40.548
-36.152
-32.705
-30.316
-28.996
-28.462
-28.171
-27.802
-27.267
-26.52
-25.563
-24.374
-22.906
-21.225
-19.511
-17.898
-16.481
-15.318
-14.4
-13.747
-13.399
-13.36
-13.62
-14.143
-14.86
-15.732
-16.754
-17.902
-19.148
-20.441
-21.69
-22.824
-23.797
-24.56
-25.087
-25.351
-25.322
-24.999
-24.408
-23.588
-22.6
-21.482
-20.247
-18.913
-17.492
-16.004
-14.481
-12.939
-11.378
-9.798
-8.202
-6.59
-4.967
-3.322
-1.63
0.14
2.022
4.042
6.211
8.539
11.035
13.703
16.546
19.56
22.73
26.048
29.503
33.09
36.8
40.623
44.54
48.534
52.586
56.679
60.797
64.921
69.034
73.121
77.165
81.154
85.074
88.911
92.65
96.276
99.772
103.122
106.311
109.323
112.142
114.754
117.146
119.305
121.22
122.88
124.277
125.402
126.248
126.808
127.078
127.052
126.729
126.107
125.186
123.966
122.45
120.642
118.547
116.17
113.52
110.604
107.431
104.011
100.355
96.475
92.383
88.094
83.622
78.983
74.191
69.265
64.222
59.079
53.853
48.564
43.227
37.863
32.488
27.12
21.777
16.475
11.231
6.062
0.983
-3.991
-8.846
-13.569
-18.147
-22.569
-26.826
-30.909
-34.809
-38.519
-42.035
-45.351
-48.464
-51.371
-54.072
-56.566
-58.855
-60.94
-62.824
-64.514
-66.012
-67.327
-68.465
-69.434
-70.242
-70.9
-71.416
-71.802
-72.068
-72.225
-72.286
-72.263
-72.167
-72.011
-71.808
-71.568
-71.305
-71.028
-70.751
-70.482
-70.232
-70.01
-69.825
-69.685
-69.599
-69.571
-69.609
-69.718
-69.902
-70.163
-70.505
-70.929
-71.434
-72.022
-72.689
-73.435
-74.256
-75.149
-76.108
-77.129
-78.205
-79.33
-80.496
-81.695
-82.918
-84.155
-85.398
-86.637
-87.86
-89.059
-90.223
-91.341
-92.404
-93.401
-94.323
-95.16
-95.901
-96.539
-97.065
-97.47
-97.746
-97.887
-97.887
-97.74
-97.441
-96.987
-96.374
-95.6
-94.665
-93.566
-92.305
-90.883
-89.301
-87.562
-85.671
-83.633
-81.452
-79.135
-76.69
-74.124
-71.445
-68.664
-65.788
-62.828
-59.795
-56.7
-53.554
-50.368
-47.155
-43.928
-40.699
-37.481
-34.287
-31.129
-28.02
-24.972
-21.998
-19.108
-16.314
-13.627
-11.057
-8.613
-6.306
-4.142
-2.131
-0.278
1.409
2.926
4.268
5.431
6.413
7.211
7.824
8.252
8.494
8.552
8.428
8.124
7.644
6.992
6.175
5.199
4.072
2.802
1.398
-0.13
-1.771
-3.515
-5.349
-7.263
-9.245
-11.283
-13.363
-15.475
-17.605
-19.741
-21.872
-23.984
-26.068
-28.11
-30.102
-32.033
-33.893
-35.673
-37.363
-38.957
-40.447
-41.824
-43.085
-44.222
-45.232
-46.112
-46.86
-47.475
-47.958
-48.311
-48.536
-48.639
-48.625
-48.5
-48.272
-47.949
-47.54
-47.055
-46.506
-45.903
-45.258
-44.585
-43.896
-43.206
-42.53
-41.883
-41.28
-40.735
-40.264
-39.881
-39.6
-39.432
-39.389
-39.479
-39.713
-40.102
-40.656
-41.382
-42.286
-43.372
-44.641
-46.096
-47.732
-49.54
-51.509
-53.63
-55.896
-58.308
-60.865
-63.56
-66.383
-69.322
-72.358
-75.472
-78.635
-81.807
-84.951
-88.028
-91.007
-93.868
-96.586
-99.128
-101.453
-103.503
-105.229
-106.596
-107.565
-108.107
-108.226
-107.931
-107.263
-106.292
-105.062
-103.625
-102.05
-100.403
-98.766
-97.235
-95.886
-94.842
-94.286
-94.32
-94.917
-95.901
-96.882
-97.451
-97.308
-96.09
-93.295
-88.619
-82.171
-74.56
-66.938
-60.538
-56.116
-54.234
-55.721
-61.037
-69.634
-79.934
-89.273
-94.576
-93.309
-83.195
-61.248
-24.501
26.979
90.087
161.041
234.956
311.968
397.236
488.605
579.19
654.147
690.642
678.821
619.417
522.378
406.606
282.089
155.042
32.673
-77.141
-160.697
-208.815
-223.249
-214.87
-198.374
-183.447
-171.767
-159.375
-143.653
-125.957
-109.498
-98.09
-92.925
-92.651
-95.679
-100.278
-104.904
-108.398
-110.034
-109.631
-107.494
-104.242
-100.424
-96.465
-92.867
-90.13
-88.496
-87.981
-88.415
-89.458
-90.822
-92.284
-93.573
-94.448
-94.721
-94.24
-92.972
-90.957
-88.247
-84.893
-80.939
-76.421
-71.405
-65.986
-60.249
-54.301
-48.256
-42.232
-36.374
-30.815
-25.661
-20.988
-16.816
-13.121
-9.85
-6.952
-4.386
-2.116
-0.106
1.689
3.306
4.788
6.177
7.531
8.928
10.442
12.13
14.023
16.125
18.413
20.847
23.393
26.024
28.721
31.475
34.283
37.147
40.075
43.079
46.156
49.294
52.481
55.704
58.966
62.278
65.657
69.13
72.72
76.447
80.325
84.358
88.546
92.882
97.354
101.943
106.635
111.417
116.278
121.206
126.185
131.197
136.222
141.236
146.215
151.133
155.966
160.69
165.282
169.723
173.993
178.075
181.952
185.609
189.029
192.195
195.092
197.707
200.025
202.036
203.73
205.098
206.136
206.84
207.207
207.237
206.932
206.294
205.327
204.038
202.432
200.519
198.307
195.809
193.035
189.999
186.716
183.2
179.468
175.536
171.422
167.142
162.714
158.157
153.489
148.726
143.888
138.992
134.055
129.096
124.131
119.176
114.247
109.359
104.525
99.759
95.071
90.474
85.976
81.586
77.314
73.167
69.15
65.27
61.531
57.937
54.49
51.194
48.049
45.054
42.211
39.517
36.971
34.571
32.314
30.198
28.217
26.369
24.648
23.05
21.57
20.203
18.942
17.783
16.721
15.75
14.866
14.063
13.338
12.684
12.099
11.576
11.111
10.7
10.337
10.019
9.741
9.499
9.289
9.106
8.948
8.81
8.689
8.582
8.483
8.391
8.302
8.212
8.119
8.02
7.913
7.794
7.662
7.516
7.351
7.167
6.961
6.731
6.474
6.188
5.871
5.521
5.137
4.719
4.264
3.773
3.246
2.682
2.083
1.448
0.779
0.078
-0.655
-1.417
-2.205
-3.017
-3.849
-4.698
-5.559
-6.43
-7.308
-8.187
-9.066
-9.94
-10.807
-11.662
-12.502
-13.325
-14.124
-14.898
-15.642
-16.353
-17.027
-17.663
-18.257
-18.807
-19.313
-19.772
-20.184
-20.548
-20.864
-21.133
-21.356
-21.533
-21.668
-21.762
-21.82
-21.846
-21.844
-21.818
-21.774
-21.717
-21.652
-21.583
-21.515
-21.455
-21.406
-21.373
-21.363
-21.38
-21.429
-21.515
-21.642
-21.816
-22.04
-22.317
-22.651
-23.044
-23.499
-24.017
-24.599
-25.248
-25.963
-26.744
-27.591
-28.502
-29.475
-30.507
-31.593
-32.73
-33.912
-35.134
-36.39
-37.674
-38.98
-40.302
-41.632
-42.965
-44.292
-45.607
-46.902
-48.171
-49.404
-50.596
-51.739
-52.827
-53.852
-54.809
-55.693
-56.496
-57.214
-57.842
-58.374
-58.805
-59.132
-59.35
-59.456
-59.448
-59.325
-59.085
-58.728
-58.254
-57.665
-56.962
-56.147
-55.222
-54.19
-53.055
-51.82
-50.491
-49.073
-47.571
-45.992
-44.343
-42.631
-40.864
-39.049
-37.195
-35.309
-33.402
-31.482
-29.559
-27.645
-25.748
-23.882
-22.058
-20.291
-18.592
-16.975
-15.454
-14.039
-12.743
-11.579
-10.556
-9.682
-8.968
-8.42
-8.049
-7.865
-7.875
-8.087
-8.505
-9.134
-9.978
-11.04
-12.315
-13.8
-15.492
-17.389
-19.497
-21.82
-24.355
-27.097
-30.037
-33.161
-36.45
-39.876
-43.398
-46.976
-50.569
-54.141
-57.668
-61.122
-64.467
-67.658
-70.643
-73.373
-75.818
-77.954
-79.752
-81.206
-82.341
-83.204
-83.884
-84.466
-84.998
-85.538
-86.155
-86.919
-87.93
-89.285
-91.039
-93.28
-96.126
-99.595
-103.628
-108.032
-112.379
-116.252
-119.329
-121.203
-121.438
-119.844
-116.441
-111.613
-106.317
-101.408
-97.385
-94.821
-94.235
-95.665
-98.681
-102.088
-103.48
-100.456
-91.215
-73.628
-45.605
-5.719
47.095
111.11
181.014
251.795
318.692
381.555
445.518
511.978
579.258
634.803
656.31
627.022
535.271
389.259
216.277
47.618
-79.978
-149.176
-163.039
-136.017
-100.941
-77.911
-73.489
-88.425
-105.168
-114.246
-115.328
-106.997
-98.009
-93.721
-93.196
-97.238
-103.12
-107.787
-110.755
-111.339
-109.466
-105.859
-100.979
-95.225
-89.139
-83.276
-78.121
-73.987
-71.035
-69.219
-68.381
-68.405
-69.14
-70.422
-72.102
-74.055
-76.177
-78.368
-80.537
-82.572
-84.355
-85.81
-86.892
-87.567
-87.827
-87.682
-87.145
-86.252
-85.054
-83.592
-81.905
-80.035
-78.015
-75.894
-73.72
-71.541
-69.406
-67.346
-65.377
-63.512
-61.749
-60.081
-58.497
-56.977
-55.497
-54.038
-52.585
-51.119
-49.626
-48.091
-46.494
-44.817
-43.042
-41.153
-39.137
-36.981
-34.674
-32.209
-29.579
-26.777
-23.802
-20.649
-17.315
-13.794
-10.085
-6.183
-2.089
2.196
6.672
11.334
16.177
21.192
26.372
31.705
37.178
42.78
48.494
54.306
60.197
66.151
72.148
78.167
84.187
90.188
96.148
102.043
107.852
113.552
119.123
124.542
129.788
134.841
139.682
144.29
148.648
152.738
156.542
160.045
163.233
166.092
168.611
170.778
172.586
174.027
175.096
175.789
176.105
176.042
175.602
174.788
173.604
172.056
170.152
167.9
165.311
162.397
159.17
155.646
151.838
147.762
143.436
138.876
134.1
129.126
123.974
118.662
113.21
107.637
101.964
96.211
90.398
84.543
78.667
72.789
66.928
61.1
55.325
49.618
43.995
38.472
33.062
27.78
22.636
17.643
12.81
8.146
3.66
-0.643
-4.757
-8.677
-12.401
-15.925
-19.248
-22.37
-25.292
-28.014
-30.54
-32.872
-35.014
-36.971
-38.749
-40.354
-41.793
-43.074
-44.204
-45.193
-46.049
-46.781
-47.399
-47.912
-48.33
-48.663
-48.92
-49.11
-49.243
-49.328
-49.373
-49.387
-49.376
-49.347
-49.308
-49.263
-49.219
-49.179
-49.147
-49.128
-49.124
-49.137
-49.169
-49.222
-49.295
-49.388
-49.501
-49.632
-49.78
-49.942
-50.115
-50.297
-50.484
-50.671
-50.856
-51.033
-51.198
-51.346
-51.473
-51.575
-51.645
-51.681
-51.678
-51.633
-51.542
-51.403
-51.214
-50.972
-50.677
-50.327
-49.923
-49.464
-48.951
-48.386
-47.769
-47.104
-46.393
-45.638
-44.844
-44.014
-43.152
-42.263
-41.352
-40.424
-39.484
-38.537
-37.589
-36.645
-35.712
-34.795
-33.9
-33.033
-32.199
-31.404
-30.651
-29.946
-29.293
-28.694
-28.154
-27.673
-27.256
-26.902
-26.613
-26.39
-26.231
-26.138
-26.109
-26.141
-26.233
-26.383
-26.587
-26.843
-27.148
-27.497
-27.888
-28.317
-28.779
-29.271
-29.79
-30.33
-30.888
-31.458
-32.038
-32.622
-33.207
-33.788
-34.363
-34.926
-35.476
-36.01
-36.524
-37.016
-37.485
-37.927
-38.343
-38.729
-39.086
-39.412
-39.707
-39.972
-40.206
-40.41
-40.585
-40.73
-40.845
-40.932
-40.989
-41.017
-41.014
-40.98
-40.914
-40.816
-40.684
-40.518
-40.316
-40.078
-39.801
-39.484
-39.125
-38.722
-38.273
-37.775
-37.225
-36.622
-35.962
-35.244
-34.466
-33.624
-32.716
-31.741
-30.695
-29.576
-28.382
-27.11
-25.759
-24.327
-22.814
-21.22
-19.547
-17.795
-15.967
-14.067
-12.098
-10.065
-7.973
-5.827
-3.635
-1.403
0.861
3.149
5.449
7.753
10.048
12.319
14.554
16.738
18.856
20.893
22.834
24.666
26.374
27.948
29.376
30.648
31.749
32.666
33.387
33.899
34.195
34.265
34.103
33.703
33.062
32.187
31.079
29.741
28.166
26.34
24.254
21.906
19.301
16.447
13.359
10.053
6.559
2.922
-0.812
-4.599
-8.402
-12.2
-15.963
-19.647
-23.195
-26.537
-29.614
-32.384
-34.819
-36.903
-38.635
-40.034
-41.143
-42.035
-42.799
-43.524
-44.302
-45.217
-46.356
-47.808
-49.707
-52.246
-55.535
-59.537
-64.062
-68.737
-73.179
-77.111
-80.2
-81.951
-82.053
-80.585
-78.039
-75.454
-73.896
-73.898
-75.795
-79.987
-86.439
-94.421
-102.474
-108.097
-108.49
-101.641
-85.856
-59.36
-21.092
29.186
90.779
161.4
237.86
317.054
395.359
468.46
532.143
582.058
614.218
625.975
616.822
588.463
543.339
483.564
407.834
313.48
203.161
86.507
-18.565
-93.09
-128.471
-128.816
-108.834
-84.48
-64.75
-50.684
-38.113
-24.418
-10.064
2.67
10.552
12.803
10.721
5.879
0.479
-3.749
-6.256
-6.865
-5.78
-3.633
-0.982
1.689
3.768
4.707
4.27
2.425
-0.688
-4.776
-9.597
-14.972
-20.7
-26.574
-32.427
-38.102
-43.471
-48.475
-53.063
-57.189
-60.833
-63.978
-66.628
-68.818
-70.598
-72.01
-73.099
-73.902
-74.448
-74.779
-74.944
-74.989
-74.965
-74.903
-74.823
-74.74
-74.663
-74.595
-74.532
-74.461
-74.359
-74.212
-74.007
-73.735
-73.387
-72.955
-72.423
-71.782
-71.02
-70.128
-69.099
-67.926
-66.601
-65.119
-63.477
-61.672
-59.703
-57.568
-55.264
-52.788
-50.139
-47.313
-44.31
-41.13
-37.773
-34.239
-30.531
-26.652
-22.607
-18.4
-14.038
-9.526
-4.873
-0.086
4.826
9.852
14.982
20.204
25.506
30.874
36.295
41.753
47.233
52.719
58.193
63.638
69.036
74.369
79.618
84.765
89.793
94.681
99.414
103.973
108.342
112.505
116.445
120.148
123.6
126.787
129.697
132.318
134.641
136.655
138.353
139.727
140.77
141.477
141.846
141.872
141.554
140.893
139.889
138.545
136.866
134.857
132.524
129.877
126.925
123.68
120.153
116.358
112.31
108.023
103.514
98.799
93.896
88.821
83.595
78.234
72.757
67.184
61.533
55.822
50.072
44.3
38.525
32.764
27.037
21.359
15.749
10.223
4.797
-0.513
-5.694
-10.731
-15.612
-20.325
-24.86
-29.209
-33.362
-37.314
-41.059
-44.593
-47.912
-51.015
-53.901
-56.57
-59.023
-61.263
-63.293
-65.118
-66.742
-68.17
-69.407
-70.457
-71.329
-72.03
-72.571
-72.959
-73.204
-73.315
-73.303
-73.179
-72.954
-72.637
-72.236
-71.755
-71.205
-70.597
-69.943
-69.256
-68.542
-67.8
-67.035
-66.25
-65.45
-64.64
-63.819
-62.985
-62.139
-61.285
-60.432
-59.596
-58.781
-57.985
-57.207
-56.425
-55.641
-54.896
-54.221
-53.655
-53.21
-52.838
-52.506
-52.239
-52.059
-51.964
-51.874
-51.622
-51.185
-50.753
-50.56
-50.798
-51.371
-52.103
-53.066
-54.212
-55.411
-56.402
-56.198
-55.296
-54.818
-53.715
-52.036
-46.896
-34.791
-20.283
-6.992
-0.263
-6.222
-19.16
-33.807
-46.441
-51.761
-53.016
-53.06
-51.69
-50.508
-48.419
-44.713
-40.544
-36.046
-31.49
-27.489
-24.256
-22.099
-21.257
-21.226
-21.467
-21.79
-22.091
-22.402
-22.757
-22.972
-22.861
-22.568
-22.261
-22.016
-21.918
-21.893
-21.852
-21.832
-21.872
-21.963
-22.101
-22.264
-22.418
-22.581
-22.775
-23.005
-23.284
-23.607
-23.962
-24.355
-24.785
-25.256
-25.773
-26.335
-26.934
-27.565
-28.222
-28.9
-29.598
-30.311
-31.031
-31.753
-32.469
-33.178
-33.876
-34.56
-35.224
-35.862
-36.468
-37.035
-37.557
-38.031
-38.448
-38.803
-39.09
-39.302
-39.434
-39.481
-39.436
-39.293
-39.047
-38.691
-38.221
-37.634
-36.924
-36.089
-35.126
-34.033
-32.81
-31.455
-29.969
-28.352
-26.605
-24.731
-22.732
-20.611
-18.374
-16.027
-13.574
-11.023
-8.383
-5.662
-2.87
-0.016
2.889
5.833
8.804
11.789
14.776
17.748
20.692
23.59
26.427
29.186
31.85
34.402
36.826
39.105
41.224
43.171
44.931
46.491
47.84
48.966
49.859
50.508
50.904
51.039
50.905
50.494
49.806
48.841
47.602
46.094
44.317
42.273
39.963
37.396
34.582
31.531
28.254
24.77
21.109
17.32
13.451
9.548
5.653
1.797
-1.986
-5.658
-9.176
-12.497
-15.584
-18.416
-20.971
-23.222
-25.15
-26.749
-28.058
-29.171
-30.181
-31.177
-32.219
-33.33
-34.56
-35.988
-37.69
-39.752
-42.235
-45.133
-48.488
-52.425
-56.936
-61.893
-66.94
-71.396
-74.639
-76.247
-75.761
-72.767
-67.208
-59.263
-49.715
-40.124
-31.855
-25.911
-23.178
-23.955
-27.714
-33.403
-38.762
-40.281
-34.68
-18.974
9.505
52.119
108.856
178.625
258.228
342.639
426.514
503.808
568.156
614.274
637.932
637.271
614.051
571.126
510.758
432.709
335.376
221.639
101.271
-8.398
-89.533
-133.545
-143.804
-134.365
-120.391
-110.415
-105.222
-99.749
-90.531
-77.882
-64.41
-54.192
-48.744
-47.093
-48.253
-51.015
-54.586
-58.998
-63.79
-68.01
-71.472
-74.411
-76.93
-79.273
-81.442
-83.003
-84.048
-85.215
-86.776
-88.805
-91.312
-94.058
-97
-100.363
-104.057
-107.711
-111.045
-113.82
-115.926
-117.455
-118.428
-118.773
-118.5
-117.675
-116.374
-114.708
-112.74
-110.478
-107.945
-105.18
-102.236
-99.187
-96.098
-93.011
-89.955
-86.951
-84.014
-81.161
-78.396
-75.72
-73.122
-70.597
-68.14
-65.754
-63.439
-61.195
-59.014
-56.883
-54.792
-52.731
-50.692
-48.669
-46.653
-44.638
-42.615
-40.579
-38.523
-36.441
-34.322
-32.156
-29.929
-27.632
-25.253
-22.782
-20.208
-17.523
-14.719
-11.788
-8.724
-5.523
-2.181
1.304
4.934
8.708
12.625
16.681
20.87
25.188
29.626
34.175
38.825
43.564
48.382
53.264
58.195
63.162
68.147
73.134
78.105
83.042
87.926
92.737
97.456
102.062
106.536
110.858
115.007
118.966
122.716
126.239
129.519
132.541
135.291
137.755
139.924
141.788
143.34
144.573
145.484
146.07
146.33
146.264
145.875
145.167
144.143
142.811
141.177
139.251
137.043
134.565
131.829
128.85
125.641
122.22
118.603
114.808
110.854
106.758
102.542
98.224
93.825
89.365
84.864
80.341
75.815
71.304
66.826
62.395
58.028
53.737
49.536
45.436
41.448
37.58
33.841
30.239
26.779
23.468
20.308
17.304
14.458
11.77
9.241
6.87
4.656
2.597
0.688
-1.073
-2.693
-4.176
-5.529
-6.76
-7.877
-8.887
-9.799
-10.623
-11.366
-12.038
-12.647
-13.201
-13.708
-14.175
-14.608
-15.014
-15.398
-15.768
-16.127
-16.48
-16.833
-17.189
-17.551
-17.923
-18.309
-18.71
-19.129
-19.569
-20.031
-20.517
-21.028
-21.564
-22.127
-22.716
-23.33
-23.969
-24.629
-25.31
-26.008
-26.72
-27.444
-28.176
-28.913
-29.652
-30.389
-31.121
-31.847
-32.561
-33.263
-33.949
-34.616
-35.263
-35.885
-36.482
-37.05
-37.587
-38.091
-38.559
-38.99
-39.38
-39.728
-40.032
-40.288
-40.495
-40.652
-40.757
-40.809
-40.807
-40.752
-40.644
-40.484
-40.273
-40.014
-39.709
-39.359
-38.968
-38.539
-38.074
-37.577
-37.051
-36.499
-35.925
-35.333
-34.726
-34.109
-33.486
-32.86
-32.237
-31.62
-31.014
-30.423
-29.852
-29.305
-28.788
-28.306
-27.862
-27.462
-27.109
-26.809
-26.565
-26.379
-26.255
-26.194
-26.197
-26.266
-26.4
-26.6
-26.865
-27.194
-27.585
-28.036
-28.547
-29.113
-29.734
-30.404
-31.122
-31.882
-32.682
-33.516
-34.381
-35.271
-36.181
-37.107
-38.042
-38.98
-39.916
-40.843
-41.753
-42.64
-43.496
-44.314
-45.087
-45.808
-46.472
-47.071
-47.601
-48.057
-48.435
-48.73
-48.939
-49.059
-49.086
-49.019
-48.855
-48.592
-48.229
-47.765
-47.199
-46.531
-45.762
-44.891
-43.919
-42.849
-41.681
-40.418
-39.064
-37.621
-36.094
-34.489
-32.811
-31.066
-29.26
-27.403
-25.501
-23.563
-21.599
-19.616
-17.625
-15.635
-13.655
-11.695
-9.761
-7.861
-6.007
-4.209
-2.482
-0.841
0.7
2.129
3.43
4.591
5.6
6.448
7.132
7.65
8
8.178
8.172
7.978
7.596
7.035
6.304
5.418
4.386
3.217
1.929
0.534
-0.961
-2.554
-4.26
-6.093
-8.065
-10.174
-12.412
-14.76
-17.206
-19.763
-22.473
-25.363
-28.421
-31.602
-34.814
-37.976
-41.103
-44.111
-46.762
-48.937
-50.587
-51.801
-53.026
-54.594
-56.362
-58.395
-61.04
-63.964
-66.719
-68.938
-69.141
-67.348
-65.981
-64.595
-61.569
-54.567
-37.486
-11.736
13.692
30.379
27.587
4.145
-29.501
-64.125
-90.536
-106.027
-115.87
-122.987
-128.963
-133.452
-133.768
-129.434
-120.817
-107.937
-91.327
-71.101
-47.183
-19.45
13.004
51.087
95.453
146.323
202.771
263.646
326.348
385.806
438.435
481.735
514.526
538.995
553.094
551.288
527.841
475.56
392.32
280.941
149.964
13.107
-113.052
-208.198
-260.485
-265.804
-228.043
-166.317
-99.785
-46.393
-20.6
-21.265
-39.258
-60.449
-71.928
-70.917
-61.52
-52.165
-48.415
-49.826
-53.963
-57.498
-58.849
-58.644
-57.35
-54.964
-51.837
-48.683
-45.997
-44.16
-43.228
-42.867
-43.03
-44.007
-45.769
-47.979
-50.33
-52.466
-54.195
-55.59
-56.634
-57.233
-57.371
-57.055
-56.321
-55.271
-53.967
-52.419
-50.651
-48.684
-46.543
-44.288
-41.975
-39.657
-37.391
-35.212
-33.143
-31.205
-29.408
-27.76
-26.262
-24.9
-23.653
-22.509
-21.458
-20.493
-19.607
-18.78
-17.994
-17.229
-16.467
-15.693
-14.893
-14.05
-13.148
-12.173
-11.114
-9.96
-8.703
-7.331
-5.832
-4.194
-2.405
-0.456
1.662
3.958
6.44
9.115
11.985
15.054
18.321
21.785
25.445
29.294
33.328
37.538
41.915
46.449
51.127
55.935
60.858
65.881
70.983
76.148
81.354
86.581
91.806
97.007
102.162
107.247
112.239
117.115
121.852
126.426
130.815
134.997
138.949
142.651
146.083
149.226
152.064
154.58
156.761
158.595
160.073
161.184
161.924
162.287
162.27
161.871
161.092
159.933
158.401
156.5
154.238
151.625
148.671
145.391
141.796
137.904
133.729
129.29
124.604
119.692
114.573
109.268
103.8
98.19
92.46
86.634
80.733
74.781
68.798
62.807
56.826
50.876
44.975
39.141
33.391
27.74
22.204
16.796
11.529
6.414
1.46
-3.323
-7.928
-12.348
-16.579
-20.616
-24.457
-28.1
-31.543
-34.787
-37.832
-40.681
-43.337
-45.803
-48.085
-50.188
-52.117
-53.881
-55.485
-56.937
-58.244
-59.413
-60.453
-61.368
-62.168
-62.859
-63.447
-63.939
-64.342
-64.661
-64.902
-65.07
-65.172
-65.21
-65.189
-65.113
-64.987
-64.813
-64.595
-64.336
-64.039
-63.707
-63.342
-62.946
-62.521
-62.068
-61.589
-61.084
-60.554
-60
-59.422
-58.821
-58.197
-57.552
-56.886
-56.201
-55.496
-54.774
-54.036
-53.283
-52.516
-51.737
-50.949
-50.153
-49.351
-48.545
-47.739
-46.934
-46.131
-45.334
-44.544
-43.762
-42.991
-42.232
-41.487
-40.756
-40.043
-39.349
-38.675
-38.023
-37.395
-36.792
-36.215
-35.666
-35.145
-34.654
-34.194
-33.764
-33.366
-33.001
-32.668
-32.368
-32.101
-31.866
-31.663
-31.492
-31.351
-31.241
-31.16
-31.109
-31.086
-31.091
-31.124
-31.186
-31.275
-31.393
-31.538
-31.71
-31.911
-32.138
-32.393
-32.675
-32.985
-33.322
-33.686
-34.078
-34.497
-34.943
-35.416
-35.915
-36.44
-36.991
-37.566
-38.166
-38.79
-39.438
-40.108
-40.801
-41.515
-42.25
-43.003
-43.774
-44.56
-45.359
-46.169
-46.987
-47.81
-48.634
-49.457
-50.274
-51.082
-51.875
-52.651
-53.403
-54.127
-54.818
-55.471
-56.082
-56.644
-57.154
-57.607
-57.997
-58.321
-58.574
-58.75
-58.846
-58.857
-58.779
-58.609
-58.343
-57.979
-57.514
-56.946
-56.274
-55.498
-54.618
-53.633
-52.546
-51.357
-50.07
-48.69
-47.219
-45.663
-44.029
-42.323
-40.554
-38.731
-36.862
-34.956
-33.025
-31.078
-29.129
-27.187
-25.265
-23.377
-21.536
-19.758
-18.058
-16.451
-14.953
-13.579
-12.343
-11.26
-10.342
-9.597
-9.035
-8.665
-8.497
-8.539
-8.797
-9.276
-9.979
-10.909
-12.067
-13.449
-15.049
-16.855
-18.859
-21.055
-23.442
-26.018
-28.777
-31.711
-34.81
-38.056
-41.431
-44.907
-48.444
-52.001
-55.536
-59.009
-62.393
-65.65
-68.739
-71.612
-74.215
-76.499
-78.43
-79.964
-81.07
-81.749
-82.016
-81.917
-81.519
-80.862
-79.998
-79.004
-77.963
-76.962
-76.084
-75.388
-74.975
-75.016
-75.61
-76.743
-78.251
-79.783
-81.004
-81.623
-81.224
-79.292
-75.534
-70.012
-63.274
-56.291
-49.851
-44.836
-42.475
-43.672
-48.88
-56.585
-63.024
-65.99
-64.214
-58.111
-50.777
-39.314
-17.353
21.107
85.655
178.28
291.842
416.722
534.3
623.985
673.681
677.118
638.436
572.537
492.659
407.479
321.58
234.268
146.49
63.158
-9.171
-65.327
-105.141
-128.895
-137.361
-131.191
-107.23
-70.145
-31.357
-1.014
8.857
-2.62
-24.763
-48.527
-63.785
-68.529
-69.446
-68.374
-67.501
-64.679
-53.816
-38.54
-22.443
-10.407
-9.337
-14.613
-21.681
-27.453
-26.927
-23.412
-20.266
-18.082
-18.846
-21.21
-23.516
-25.991
-28.289
-30.364
-32.432
-34.202
-35.456
-36.237
-36.54
-36.345
-35.689
-34.625
-33.204
-31.502
-29.591
-27.487
-25.225
-22.862
-20.458
-18.074
-15.754
-13.523
-11.396
-9.381
-7.482
-5.693
-4
-2.38
-0.817
0.704
2.193
3.658
5.114
6.578
8.064
9.587
11.162
12.8
14.51
16.304
18.188
20.167
22.245
24.425
26.71
29.105
31.616
34.247
37.001
39.882
42.89
46.028
49.294
52.686
56.2
59.832
63.576
67.425
71.373
75.41
79.528
83.717
87.964
92.258
96.585
100.932
105.284
109.625
113.941
118.215
122.432
126.576
130.629
134.577
138.404
142.092
145.626
148.991
152.17
155.15
157.916
160.455
162.755
164.804
166.593
168.112
169.354
170.311
170.979
171.353
171.428
171.204
170.678
169.851
168.725
167.303
165.588
163.587
161.306
158.753
155.938
152.869
149.559
146.017
142.257
138.293
134.138
129.807
125.316
120.681
115.919
111.046
106.08
101.037
95.933
90.786
85.612
80.426
75.245
70.083
64.957
59.879
54.865
49.929
45.082
40.336
35.704
31.195
26.818
22.582
18.494
14.56
10.786
7.176
3.734
0.463
-2.636
-5.562
-8.314
-10.895
-13.306
-15.551
-17.632
-19.555
-21.323
-22.941
-24.415
-25.75
-26.953
-28.027
-28.981
-29.82
-30.55
-31.179
-31.714
-32.16
-32.526
-32.817
-33.04
-33.203
-33.31
-33.369
-33.384
-33.361
-33.306
-33.222
-33.116
-32.989
-32.848
-32.694
-32.53
-32.36
-32.184
-32.005
-31.823
-31.641
-31.459
-31.279
-31.1
-30.926
-30.756
-30.593
-30.437
-30.291
-30.154
-30.028
-29.915
-29.815
-29.729
-29.658
-29.603
-29.565
-29.544
-29.542
-29.56
-29.598
-29.658
-29.739
-29.844
-29.972
-30.126
-30.306
-30.513
-30.748
-31.013
-31.309
-31.636
-31.997
-32.391
-32.819
-33.28
-33.775
-34.302
-34.86
-35.448
-36.064
-36.704
-37.368
-38.053
-38.755
-39.472
-40.202
-40.941
-41.686
-42.434
-43.181
-43.925
-44.661
-45.387
-46.099
-46.795
-47.47
-48.122
-48.748
-49.345
-49.91
-50.441
-50.934
-51.388
-51.801
-52.172
-52.498
-52.78
-53.018
-53.212
-53.364
-53.473
-53.544
-53.576
-53.574
-53.539
-53.474
-53.382
-53.266
-53.132
-52.981
-52.819
-52.647
-52.47
-52.292
-52.116
-51.945
-51.785
-51.637
-51.504
-51.391
-51.302
-51.238
-51.203
-51.196
-51.217
-51.268
-51.351
-51.467
-51.618
-51.805
-52.026
-52.281
-52.569
-52.891
-53.241
-53.614
-54.001
-54.398
-54.801
-55.21
-55.625
-56.042
-56.451
-56.84
-57.197
-57.513
-57.779
-57.986
-58.125
-58.19
-58.172
-58.071
-57.892
-57.635
-57.305
-56.889
-56.357
-55.703
-54.965
-54.217
-53.541
-52.971
-52.47
-51.991
-51.547
-51.147
-50.754
-50.218
-49.323
-48.002
-46.446
-45.016
-43.957
-43.402
-43.532
-44.449
-46.171
-48.486
-50.647
-52.768
-56.56
-63.027
-71.076
-75.268
-66.922
-41.873
-5.007
29.348
44.629
32.77
-0.845
-39.87
-68.923
-80.94
-78.417
-70.738
-64.649
-62.199
-62.7
-63.511
-63.576
-63.416
-63.403
-63.983
-65.376
-67.4
-69.85
-72.43
-74.777
-76.688
-78.146
-79.258
-80.084
-80.617
-80.856
-80.818
-80.597
-80.328
-80.096
-79.943
-79.899
-79.992
-80.283
-80.875
-81.854
-83.287
-85.235
-87.691
-90.694
-94.351
-98.632
-103.39
-108.321
-112.873
-116.551
-119.033
-119.878
-118.581
-114.963
-109.063
-101.363
-92.968
-84.747
-77.245
-71.216
-67.268
-65.353
-64.927
-64.557
-61.816
-54.453
-40.452
-17.345
17.334
63.615
118.998
180.384
243.352
307.977
379.683
457.934
537.044
603.859
636.542
622.81
562.503
463.079
340.512
209.933
81.5
-32.876
-119.67
-172.063
-188.971
-178.041
-156.522
-136.158
-122.063
-114.533
-107.989
-100.286
-92.856
-87.433
-86.564
-90.302
-96.76
-103.962
-109.575
-112.333
-111.95
-108.525
-102.932
-96.045
-88.388
-80.887
-74.61
-70.289
-68.688
-69.798
-72.626
-76.569
-81.379
-86.484
-91.341
-95.271
-97.159
-96.824
-95.121
-92.504
-89.215
-85.595
-81.745
-78.079
-75.47
-74.05
-73.2
-72.536
-71.747
-70.635
-69.32
-67.702
-65.416
-62.451
-59.105
-55.616
-52.226
-49.044
-45.972
-42.997
-40.19
-37.554
-35.053
-32.641
-30.247
-27.847
-25.472
-23.137
-20.845
-18.586
-16.33
-14.054
-11.743
-9.386
-6.97
-4.485
-1.919
0.738
3.494
6.354
9.325
12.415
15.634
18.992
22.497
26.155
29.965
33.927
38.037
42.293
46.692
51.229
55.894
60.681
65.578
70.575
75.66
80.818
86.036
91.296
96.583
101.878
107.164
112.424
117.638
122.789
127.856
132.821
137.664
142.368
146.912
151.278
155.45
159.409
163.14
166.626
169.853
172.807
175.476
177.847
179.912
181.661
183.087
184.186
184.952
185.384
185.482
185.245
184.677
183.78
182.56
181.023
179.176
177.028
174.588
171.867
168.876
165.628
162.135
158.411
154.471
150.329
146.002
141.504
136.853
132.064
127.156
122.145
117.048
111.883
106.667
101.417
96.149
90.88
85.625
80.399
75.216
70.091
65.035
60.059
55.176
50.395
45.726
41.175
36.752
32.462
28.312
24.307
20.451
16.749
13.202
9.813
6.584
3.516
0.608
-2.141
-4.731
-7.164
-9.444
-11.574
-13.558
-15.401
-17.107
-18.684
-20.137
-21.472
-22.696
-23.815
-24.837
-25.767
-26.613
-27.381
-28.076
-28.705
-29.273
-29.787
-30.251
-30.671
-31.051
-31.397
-31.712
-32.001
-32.267
-32.513
-32.744
-32.962
-33.169
-33.368
-33.56
-33.746
-33.928
-34.105
-34.278
-34.446
-34.607
-34.76
-34.903
-35.034
-35.151
-35.251
-35.331
-35.39
-35.424
-35.432
-35.411
-35.358
-35.271
-35.149
-34.99
-34.791
-34.551
-34.27
-33.946
-33.58
-33.17
-32.717
-32.222
-31.684
-31.105
-30.486
-29.829
-29.135
-28.407
-27.647
-26.86
-26.048
-25.216
-24.368
-23.509
-22.643
-21.776
-20.913
-20.058
-19.218
-18.395
-17.597
-16.828
-16.092
-15.395
-14.741
-14.135
-13.58
-13.08
-12.638
-12.256
-11.938
-11.685
-11.499
-11.38
-11.33
-11.349
-11.438
-11.596
-11.822
-12.115
-12.474
-12.896
-13.379
-13.919
-14.515
-15.162
-15.858
-16.597
-17.377
-18.194
-19.042
-19.919
-20.819
-21.737
-22.67
-23.612
-24.559
-25.507
-26.451
-27.386
-28.31
-29.219
-30.108
-30.975
-31.816
-32.628
-33.409
-34.155
-34.864
-35.533
-36.16
-36.743
-37.28
-37.768
-38.205
-38.59
-38.92
-39.193
-39.407
-39.56
-39.649
-39.673
-39.63
-39.518
-39.334
-39.078
-38.748
-38.342
-37.859
-37.296
-36.653
-35.927
-35.118
-34.224
-33.244
-32.177
-31.022
-29.779
-28.448
-27.029
-25.521
-23.926
-22.244
-20.478
-18.629
-16.701
-14.696
-12.62
-10.477
-8.272
-6.013
-3.705
-1.356
1.026
3.433
5.855
8.282
10.704
13.11
15.488
17.826
20.109
22.325
24.459
26.496
28.422
30.222
31.881
33.388
34.73
35.893
36.868
37.643
38.207
38.549
38.659
38.529
38.15
37.517
36.626
35.48
34.08
32.431
30.537
28.396
26.007
23.374
20.503
17.4
14.078
10.551
6.85
3.018
-0.902
-4.867
-8.838
-12.787
-16.682
-20.491
-24.179
-27.697
-31
-34.053
-36.823
-39.276
-41.391
-43.166
-44.644
-45.907
-47.043
-48.129
-49.213
-50.327
-51.534
-52.9
-54.5
-56.434
-58.756
-61.54
-64.942
-68.994
-73.594
-78.502
-83.167
-86.982
-89.517
-90.223
-88.516
-84.326
-77.862
-69.803
-61.655
-54.7
-49.783
-47.995
-50.099
-55.755
-64.05
-72.933
-78.81
-78.561
-69.489
-48.478
-13.207
37.2
102.62
180.945
267.592
357.8
446.45
527.146
593.728
640.723
663.017
658.988
631.519
583.359
517.82
435.184
331.191
208.099
74.664
-52.362
-149.894
-204.452
-213.857
-186.953
-140.732
-90.725
-49.312
-23
-14.63
-21.695
-35.481
-49.687
-58.217
-59.188
-57.766
-56.379
-56.253
-57.749
-58.029
-56.147
-52.915
-48.878
-45.098
-42.355
-40.736
-40.307
-41.128
-43.016
-45.697
-48.968
-52.659
-56.615
-60.711
-64.809
-68.724
-72.312
-75.5
-78.229
-80.452
-82.151
-83.308
-83.928
-84.053
-83.738
-83.03
-81.979
-80.629
-79.014
-77.187
-75.208
-73.141
-71.053
-68.993
-66.991
-65.074
-63.256
-61.547
-59.946
-58.443
-57.017
-55.652
-54.337
-53.064
-51.825
-50.609
-49.399
-48.182
-46.94
-45.661
-44.331
-42.938
-41.471
-39.918
-38.271
-36.523
-34.669
-32.703
-30.614
-28.396
-26.04
-23.538
-20.883
-18.071
-15.094
-11.95
-8.637
-5.154
-1.504
2.311
6.287
10.42
14.702
19.126
23.682
28.36
33.148
38.034
43.003
48.039
53.127
58.249
63.387
68.523
73.636
78.707
83.716
88.642
93.466
98.167
102.724
107.119
111.331
115.341
119.132
122.686
125.986
129.017
131.766
134.218
136.364
138.192
139.696
140.868
141.702
142.195
142.345
142.15
141.612
140.734
139.518
137.971
136.101
133.914
131.423
128.638
125.571
122.237
118.649
114.825
110.78
106.531
102.097
97.497
92.75
87.874
82.891
77.82
72.68
67.492
62.275
57.049
51.831
46.64
41.494
36.41
31.402
26.487
21.679
16.991
12.436
8.024
3.766
-0.33
-4.255
-8.004
-11.571
-14.952
-18.144
-21.145
-23.955
-26.574
-29.002
-31.243
-33.3
-35.177
-36.879
-38.411
-39.781
-40.995
-42.061
-42.987
-43.781
-44.453
-45.011
-45.463
-45.819
-46.089
-46.28
-46.402
-46.463
-46.472
-46.437
-46.365
-46.265
-46.142
-46.003
-45.854
-45.7
-45.547
-45.398
-45.257
-45.128
-45.013
-44.914
-44.833
-44.772
-44.729
-44.706
-44.702
-44.716
-44.747
-44.793
-44.852
-44.923
-45.002
-45.088
-45.178
-45.269
-45.359
-45.445
-45.525
-45.596
-45.656
-45.704
-45.736
-45.753
-45.751
-45.731
-45.69
-45.628
-45.545
-45.44
-45.314
-45.166
-44.998
-44.81
-44.604
-44.38
-44.141
-43.889
-43.624
-43.351
-43.071
-42.787
-42.503
-42.22
-41.942
-41.672
-41.413
-41.167
-40.937
-40.726
-40.536
-40.368
-40.225
-40.108
-40.019
-39.959
-39.929
-39.931
-39.963
-40.028
-40.125
-40.255
-40.416
-40.61
-40.835
-41.091
-41.377
-41.693
-42.037
-42.409
-42.807
-43.23
-43.677
-44.146
-44.636
-45.145
-45.671
-46.213
-46.77
-47.339
-47.921
-48.513
-49.115
-49.727
-50.347
-50.975
-51.61
-52.253
-52.902
-53.557
-54.219
-54.885
-55.557
-56.233
-56.912
-57.595
-58.279
-58.964
-59.648
-60.329
-61.006
-61.676
-62.337
-62.986
-63.62
-64.237
-64.832
-65.404
-65.947
-66.46
-66.936
-67.374
-67.768
-68.114
-68.408
-68.644
-68.818
-68.925
-68.96
-68.918
-68.794
-68.584
-68.282
-67.886
-67.391
-66.793
-66.092
-65.283
-64.365
-63.337
-62.199
-60.951
-59.594
-58.13
-56.561
-54.891
-53.125
-51.267
-49.324
-47.301
-45.205
-43.043
-40.825
-38.558
-36.251
-33.915
-31.56
-29.197
-26.838
-24.496
-22.183
-19.916
-17.708
-15.576
-13.534
-11.598
-9.783
-8.104
-6.574
-5.205
-4.006
-2.987
-2.156
-1.525
-1.1
-0.89
-0.901
-1.138
-1.605
-2.306
-3.239
-4.399
-5.782
-7.38
-9.192
-11.225
-13.481
-15.957
-18.649
-21.547
-24.635
-27.889
-31.274
-34.739
-38.232
-41.7
-45.098
-48.392
-51.547
-54.522
-57.269
-59.728
-61.849
-63.598
-64.947
-65.873
-66.379
-66.502
-66.314
-65.937
-65.488
-65.058
-64.739
-64.626
-64.809
-65.4
-66.518
-68.237
-70.65
-73.886
-77.948
-82.742
-88.05
-93.397
-98.267
-102.259
-104.841
-105.445
-103.925
-100.338
-95.074
-89.198
-83.573
-78.66
-75.172
-73.669
-73.838
-75.008
-75.744
-73.317
-65.347
-50.024
-25.328
10.596
58.7
118.933
190.104
267.753
345.504
419.642
486.99
545.724
597.894
638.408
658.113
651.287
609.181
532.811
431.468
310.892
183.594
61.923
-43.431
-118.108
-157.118
-165.293
-153.483
-135.693
-120.341
-108.376
-96.784
-83.67
-69.745
-57.496
-50.122
-48.346
-50.774
-55.825
-61.357
-65.499
-67.605
-67.419
-65.025
-61.099
-56.282
-51.083
-46.196
-42.274
-39.624
-38.36
-38.405
-39.473
-41.335
-43.819
-46.713
-49.815
-52.958
-55.984
-58.771
-61.231
-63.291
-64.893
-66.002
-66.602
-66.694
-66.305
-65.477
-64.265
-62.723
-60.902
-58.847
-56.599
-54.212
-51.745
-49.255
-46.801
-44.422
-42.144
-39.986
-37.958
-36.062
-34.29
-32.626
-31.044
-29.526
-28.058
-26.624
-25.214
-23.81
-22.394
-20.947
-19.453
-17.896
-16.261
-14.535
-12.703
-10.756
-8.685
-6.483
-4.143
-1.661
0.973
3.766
6.723
9.85
13.153
16.634
20.295
24.137
28.157
32.353
36.716
41.241
45.919
50.738
55.687
60.752
65.919
71.17
76.491
81.86
87.261
92.672
98.073
103.443
108.76
114.003
119.149
124.176
129.064
133.79
138.334
142.675
146.793
150.67
154.286
157.625
160.67
163.404
165.816
167.891
169.62
170.993
172.004
172.646
172.917
172.815
172.339
171.492
170.277
168.698
166.763
164.48
161.857
158.906
155.639
152.069
148.21
144.077
139.687
135.055
130.199
125.137
119.887
114.468
108.899
103.198
97.386
91.482
85.506
79.477
73.414
67.337
61.264
55.213
49.201
43.245
37.36
31.562
25.864
20.279
14.819
9.497
4.321
-0.698
-5.553
-10.235
-14.739
-19.059
-23.19
-27.127
-30.869
-34.412
-37.754
-40.895
-43.832
-46.568
-49.101
-51.434
-53.568
-55.507
-57.252
-58.808
-60.179
-61.37
-62.386
-63.232
-63.914
-64.437
-64.809
-65.035
-65.123
-65.078
-64.907
-64.618
-64.217
-63.711
-63.107
-62.41
-61.629
-60.768
-59.834
-58.834
-57.774
-56.66
-55.498
-54.295
-53.056
-51.788
-50.496
-49.185
-47.863
-46.532
-45.2
-43.869
-42.546
-41.233
-39.934
-38.653
-37.393
-36.156
-34.944
-33.76
-32.604
-31.478
-30.382
-29.317
-28.284
-27.281
-26.31
-25.37
-24.46
-23.58
-22.73
-21.908
-21.114
-20.346
-19.603
-18.884
-18.188
-17.512
-16.855
-16.216
-15.593
-14.983
-14.387
-13.801
-13.224
-12.655
-12.093
-11.537
-10.987
-10.442
-9.904
-9.371
-8.847
-8.331
-7.825
-7.331
-6.851
-6.387
-5.941
-5.515
-5.112
-4.736
-4.387
-4.07
-3.788
-3.542
-3.335
-3.17
-3.05
-2.976
-2.952
-2.98
-3.062
-3.2
-3.396
-3.654
-3.973
-4.357
-4.805
-5.317
-5.895
-6.537
-7.242
-8.008
-8.834
-9.717
-10.653
-11.641
-12.676
-13.754
-14.869
-16.018
-17.195
-18.393
-19.607
-20.83
-22.056
-23.28
-24.494
-25.692
-26.868
-28.015
-29.126
-30.195
-31.214
-32.177
-33.075
-33.902
-34.651
-35.317
-35.892
-36.373
-36.753
-37.029
-37.197
-37.252
-37.193
-37.016
-36.719
-36.3
-35.759
-35.095
-34.309
-33.403
-32.377
-31.235
-29.979
-28.613
-27.142
-25.568
-23.896
-22.132
-20.281
-18.349
-16.344
-14.273
-12.146
-9.97
-7.757
-5.515
-3.256
-0.99
1.272
3.52
5.742
7.927
10.064
12.142
14.149
16.073
17.899
19.615
21.206
22.66
23.965
25.107
26.076
26.862
27.458
27.857
28.055
28.045
27.819
27.371
26.7
25.803
24.68
23.332
21.762
19.975
17.987
15.808
13.448
10.911
8.192
5.289
2.209
-1.044
-4.458
-8.018
-11.708
-15.501
-19.353
-23.225
-27.074
-30.864
-34.575
-38.174
-41.614
-44.848
-47.809
-50.443
-52.71
-54.571
-56.003
-57.003
-57.584
-57.778
-57.65
-57.26
-56.687
-56.029
-55.375
-54.834
-54.513
-54.539
-55.126
-56.388
-58.3
-60.71
-63.245
-65.472
-67.087
-67.728
-66.877
-64.342
-60.283
-55.233
-50.466
-47.286
-46.524
-48.899
-54.967
-64.588
-76.907
-90.211
-101.375
-106.934
-103.966
-89.862
-62.618
-20.9
35.479
105.133
185.13
269.71
352.881
430.971
498.946
554.599
597.168
619.225
617.553
590.826
535.116
457.287
362.932
253.972
142.096
36.564
-53.594
-114.875
-146.861
-157.327
-153.032
-144.59
-136.278
-124.902
-110.923
-95.311
-79.561
-67.704
-61.149
-59.052
-60.467
-63.844
-67.386
-69.74
-70.177
-68.387
-64.633
-59.624
-53.94
-48.052
-42.586
-38.123
-34.97
-33.252
-32.864
-33.519
-35.001
-37.142
-39.743
-42.618
-45.597
-48.516
-51.25
-53.707
-55.809
-57.501
-58.749
-59.534
-59.855
-59.736
-59.216
-58.348
-57.184
-55.77
-54.147
-52.355
-50.443
-48.468
-46.482
-44.539
-42.673
-40.904
-39.248
-37.712
-36.296
-34.991
-33.78
-32.638
-31.548
-30.496
-29.469
-28.454
-27.435
-26.396
-25.319
-24.189
-22.991
-21.714
-20.346
-18.875
-17.293
-15.594
-13.773
-11.827
-9.751
-7.538
-5.186
-2.689
-0.043
2.754
5.704
8.809
12.068
15.481
19.044
22.753
26.604
30.592
34.709
38.948
43.299
47.753
52.298
56.921
61.61
66.349
71.123
75.916
80.709
85.485
90.226
94.912
99.526
104.047
108.458
112.739
116.873
120.841
124.626
128.211
131.579
134.715
137.604
140.231
142.584
144.65
146.418
147.879
149.022
149.84
150.328
150.48
150.292
149.762
148.891
147.678
146.128
144.244
142.032
139.502
136.662
133.524
130.1
126.404
122.452
118.259
113.843
109.222
104.414
99.438
94.315
89.065
83.709
78.266
72.758
67.207
61.632
56.055
50.497
44.977
39.516
34.133
28.846
23.673
18.632
13.737
9.004
4.446
0.076
-4.097
-8.064
-11.816
-15.348
-18.656
-21.737
-24.591
-27.217
-29.617
-31.795
-33.753
-35.498
-37.036
-38.373
-39.517
-40.478
-41.264
-41.885
-42.353
-42.677
-42.869
-42.94
-42.903
-42.769
-42.55
-42.259
-41.906
-41.504
-41.064
-40.596
-40.111
-39.618
-39.127
-38.644
-38.177
-37.733
-37.316
-36.931
-36.581
-36.269
-35.996
-35.764
-35.573
-35.422
-35.31
-35.238
-35.201
-35.199
-35.229
-35.288
-35.374
-35.483
-35.611
-35.756
-35.914
-36.081
-36.254
-36.429
-36.602
-36.771
-36.932
-37.082
-37.219
-37.34
-37.445
-37.531
-37.598
-37.646
-37.675
-37.685
-37.678
-37.655
-37.619
-37.571
-37.515
-37.452
-37.387
-37.323
-37.261
-37.206
-37.16
-37.126
-37.106
-37.104
-37.122
-37.163
-37.228
-37.32
-37.441
-37.593
-37.777
-37.995
-38.248
-38.536
-38.86
-39.219
-39.615
-40.046
-40.511
-41.01
-41.54
-42.1
-42.687
-43.298
-43.931
-44.582
-45.247
-45.924
-46.609
-47.298
-47.988
-48.675
-49.358
-50.032
-50.695
-51.345
-51.978
-52.593
-53.186
-53.756
-54.301
-54.819
-55.307
-55.765
-56.19
-56.582
-56.94
-57.261
-57.545
-57.791
-57.998
-58.164
-58.29
-58.375
-58.419
-58.421
-58.382
-58.302
-58.182
-58.022
-57.821
-57.58
-57.298
-56.976
-56.612
-56.205
-55.756
-55.263
-54.725
-54.143
-53.515
-52.84
-52.117
-51.346
-50.525
-49.654
-48.731
-47.757
-46.732
-45.655
-44.527
-43.35
-42.125
-40.853
-39.537
-38.179
-36.782
-35.349
-33.882
-32.387
-30.869
-29.331
-27.78
-26.222
-24.665
-23.115
-21.584
-20.081
-18.615
-17.197
-15.839
-14.55
-13.343
-12.227
-11.212
-10.306
-9.518
-8.858
-8.336
-7.964
-7.75
-7.7
-7.821
-8.118
-8.595
-9.255
-10.094
-11.109
-12.296
-13.658
-15.206
-16.945
-18.873
-20.986
-23.275
-25.725
-28.321
-31.039
-33.844
-36.699
-39.571
-42.43
-45.261
-48.041
-50.735
-53.301
-55.68
-57.819
-59.688
-61.255
-62.5
-63.43
-64.059
-64.427
-64.608
-64.652
-64.618
-64.577
-64.593
-64.741
-65.109
-65.762
-66.816
-68.445
-70.71
-73.56
-76.81
-80.08
-83.039
-85.495
-87.139
-87.525
-86.404
-83.798
-80.144
-76.412
-73.395
-71.328
-70.418
-71.051
-73.4
-77.187
-81.337
-83.634
-81.905
-74.945
-61.341
-39.192
-6.974
36.625
90.668
150.937
214.936
281.808
351.557
426.301
500.366
561.609
598.689
600.126
566.449
508.277
433.693
348.834
252.555
140.773
19.629
-95.064
-184.669
-236.009
-249.965
-240.504
-222.508
-204.613
-187.79
-166.86
-139.159
-106.737
-73.732
-45.458
-24.833
-12.362
-7.815
-10.018
-17.356
-28.172
-40.608
-52.833
-63.602
-71.952
-77.24
-79.38
-78.735
-76.005
-72.148
-68.228
-64.927
-62.684
-61.761
-62.108
-63.568
-65.87
-68.565
-71.166
-73.381
-75.066
-76.177
-76.785
-76.93
-76.642
-76.01
-75.129
-74.065
-72.857
-71.513
-70.032
-68.438
-66.783
-65.121
-63.5
-61.941
-60.453
-59.039
-57.699
-56.432
-55.232
-54.082
-52.969
-51.887
-50.83
-49.797
-48.78
-47.765
-46.734
-45.668
-44.548
-43.359
-42.087
-40.72
-39.248
-37.662
-35.953
-34.116
-32.145
-30.031
-27.764
-25.338
-22.744
-19.977
-17.034
-13.91
-10.605
-7.118
-3.453
0.388
4.402
8.582
12.923
17.418
22.057
26.832
31.731
36.743
41.855
47.052
52.318
57.638
62.993
68.366
73.737
79.086
84.395
89.641
94.805
99.865
104.802
109.594
114.221
118.663
122.9
126.915
130.689
134.205
137.447
140.402
143.054
145.393
147.407
149.087
150.423
151.408
152.038
152.307
152.214
151.756
150.935
149.751
148.21
146.315
144.074
141.496
138.588
135.359
131.827
128.006
123.912
119.564
114.978
110.168
105.159
99.978
94.634
89.136
83.499
77.73
71.864
65.945
59.976
53.959
47.961
42.037
36.235
30.617
25.166
19.831
14.668
9.764
4.952
0.028
-4.864
-9.723
-14.581
-18.961
-24.112
-31.253
-38.628
-45.703
-49.263
-45.458
-38.546
-31.365
-28.141
-34.681
-45.854
-57.312
-66.078
-67.229
-64.295
-60.853
-57.704
-57.031
-57.578
-57.729
-57.801
-57.593
-57.225
-57.032
-56.807
-56.387
-55.836
-55.176
-54.393
-53.502
-52.522
-51.466
-50.374
-49.289
-48.203
-47.107
-46.014
-44.927
-43.855
-42.808
-41.788
-40.798
-39.847
-38.943
-38.093
-37.304
-36.578
-35.918
-35.328
-34.809
-34.366
-34.001
-33.72
-33.525
-33.42
-33.406
-33.486
-33.657
-33.914
-34.254
-34.671
-35.163
-35.738
-36.399
-37.152
-37.999
-38.942
-39.977
-41.093
-42.269
-43.476
-44.682
-45.854
-46.969
-48.005
-48.943
-49.763
-50.431
-50.91
-51.165
-51.166
-50.888
-50.307
-49.42
-48.256
-46.871
-45.355
-43.791
-42.238
-40.76
-39.442
-38.371
-37.646
-37.386
-37.659
-38.564
-40.274
-42.818
-46.112
-49.935
-53.771
-57.096
-59.546
-60.635
-59.841
-57.129
-52.716
-47.237
-42.098
-38.45
-36.995
-38.643
-43.945
-52.344
-62.706
-72.971
-79.69
-79.804
-70.749
-49.561
-14.163
35.719
99.26
174.09
255.73
339.312
419.627
490.348
545.729
581.771
595.583
585.658
552.763
499.225
428.859
347.417
261.148
175.469
95.473
26.039
-29.359
-69.044
-93.029
-103.212
-102.511
-93.671
-79.664
-64.099
-50.172
-39.906
-34.219
-32.845
-34.811
-39.244
-45.172
-51.151
-55.788
-58.264
-58.319
-56.264
-52.745
-48.321
-43.468
-38.759
-34.746
-31.751
-29.9
-29.125
-29.225
-30.023
-31.386
-33.162
-35.197
-37.38
-39.606
-41.774
-43.807
-45.602
-47.075
-48.182
-48.891
-49.188
-49.077
-48.572
-47.703
-46.519
-45.067
-43.384
-41.506
-39.465
-37.301
-35.065
-32.806
-30.577
-28.411
-26.333
-24.358
-22.494
-20.742
-19.097
-17.542
-16.057
-14.624
-13.231
-11.866
-10.515
-9.166
-7.8
-6.402
-4.955
-3.446
-1.861
-0.189
1.582
3.458
5.448
7.555
9.782
12.133
14.612
17.224
19.971
22.857
25.883
29.05
32.357
35.803
39.384
43.095
46.93
50.88
54.936
59.088
63.324
67.63
71.992
76.393
80.818
85.247
89.662
94.045
98.374
102.632
106.797
110.85
114.772
118.544
122.148
125.565
128.779
131.772
134.529
137.034
139.274
141.235
142.905
144.275
145.333
146.072
146.486
146.569
146.317
145.729
144.803
143.542
141.947
140.025
137.781
135.223
132.362
129.208
125.775
122.075
118.124
113.937
109.532
104.925
100.134
95.178
90.075
84.845
79.507
74.082
68.589
63.049
57.48
51.904
46.338
40.802
35.315
29.894
24.556
19.319
14.199
9.209
4.365
-0.321
-4.838
-9.175
-13.324
-17.277
-21.029
-24.575
-27.911
-31.036
-33.948
-36.646
-39.132
-41.407
-43.475
-45.338
-47.002
-48.473
-49.755
-50.857
-51.786
-52.55
-53.158
-53.619
-53.943
-54.138
-54.216
-54.186
-54.059
-53.846
-53.556
-53.2
-52.787
-52.328
-51.831
-51.303
-50.753
-50.187
-49.612
-49.032
-48.453
-47.879
-47.315
-46.764
-46.228
-45.711
-45.214
-44.739
-44.287
-43.859
-43.454
-43.073
-42.714
-42.377
-42.061
-41.764
-41.483
-41.218
-40.966
-40.724
-40.489
-40.259
-40.031
-39.803
-39.57
-39.333
-39.088
-38.834
-38.571
-38.297
-38.013
-37.718
-37.414
-37.1
-36.777
-36.446
-36.108
-35.764
-35.415
-35.063
-34.708
-34.353
-33.999
-33.647
-33.3
-32.959
-32.625
-32.301
-31.988
-31.688
-31.403
-31.135
-30.885
-30.656
-30.45
-30.268
-30.112
-29.982
-29.88
-29.806
-29.759
-29.739
-29.746
-29.777
-29.833
-29.911
-30.009
-30.127
-30.262
-30.413
-30.577
-30.753
-30.94
-31.135
-31.336
-31.543
-31.754
-31.966
-32.179
-32.391
-32.6
-32.807
-33.008
-33.203
-33.39
-33.568
-33.735
-33.89
-34.032
-34.16
-34.274
-34.372
-34.457
-34.527
-34.583
-34.627
-34.659
-34.682
-34.695
-34.7
-34.7
-34.694
-34.685
-34.674
-34.662
-34.651
-34.642
-34.635
-34.633
-34.636
-34.644
-34.659
-34.68
-34.71
-34.748
-34.796
-34.854
-34.923
-35.004
-35.099
-35.207
-35.33
-35.468
-35.621
-35.789
-35.971
-36.168
-36.378
-36.6
-36.834
-37.079
-37.332
-37.595
-37.864
-38.139
-38.418
-38.7
-38.983
-39.267
-39.55
-39.831
-40.108
-40.381
-40.65
-40.912
-41.166
-41.413
-41.649
-41.873
-42.084
-42.28
-42.458
-42.618
-42.757
-42.873
-42.966
-43.033
-43.075
-43.089
-43.074
-43.03
-42.956
-42.851
-42.715
-42.546
-42.346
-42.113
-41.847
-41.55
-41.22
-40.858
-40.465
-40.039
-39.583
-39.095
-38.577
-38.029
-37.452
-36.849
-36.22
-35.569
-34.897
-34.207
-33.503
-32.787
-32.063
-31.333
-30.601
-29.871
-29.145
-28.428
-27.723
-27.033
-26.361
-25.713
-25.089
-24.495
-23.932
-23.403
-22.911
-22.459
-22.049
-21.683
-21.363
-21.093
-20.872
-20.704
-20.588
-20.525
-20.515
-20.557
-20.649
-20.791
-20.978
-21.21
-21.481
-21.789
-22.129
-22.497
-22.889
-23.298
-23.72
-24.149
-24.578
-25.002
-25.413
-25.806
-26.175
-26.513
-26.815
-27.074
-27.284
-27.44
-27.536
-27.566
-27.524
-27.406
-27.206
-26.92
-26.545
-26.079
-25.52
-24.867
-24.119
-23.277
-22.344
-21.321
-20.212
-19.019
-17.749
-16.406
-14.999
-13.533
-12.018
-10.462
-8.879
-7.279
-5.674
-4.078
-2.504
-0.965
0.525
1.953
3.306
4.573
5.742
6.801
7.737
8.537
9.189
9.68
10
10.142
10.096
9.857
9.425
8.799
7.979
6.964
5.747
4.32
2.678
0.821
-1.248
-3.519
-5.976
-8.592
-11.332
-14.158
-17.03
-19.913
-22.777
-25.593
-28.329
-30.947
-33.397
-35.63
-37.6
-39.271
-40.613
-41.62
-42.311
-42.733
-42.965
-43.082
-43.149
-43.233
-43.418
-43.796
-44.462
-45.517
-47.03
-49.106
-51.917
-55.513
-59.827
-64.634
-69.47
-73.866
-77.484
-79.909
-80.63
-79.447
-76.423
-72.022
-67.387
-63.551
-61.125
-60.72
-62.804
-67.255
-73.4
-79.755
-83.638
-82.29
-73.335
-54.392
-23.521
20.431
77.553
146.574
224.642
307.816
391.522
470.644
539.626
592.915
626.361
636.799
623.326
588.475
534.054
462.062
374.46
270.98
158.264
48.889
-44.341
-107.195
-137.22
-143.677
-135.702
-124.473
-114.572
-102.658
-88.99
-74.491
-60.675
-51.506
-47.951
-48.734
-52.852
-58.587
-64.03
-67.976
-69.659
-68.761
-65.716
-61.31
-56.155
-50.802
-45.87
-41.848
-39.028
-37.518
-37.191
-37.786
-39.093
-40.936
-43.143
-45.559
-48.043
-50.461
-52.697
-54.654
-56.252
-57.435
-58.172
-58.454
-58.283
-57.683
-56.695
-55.372
-53.77
-51.937
-49.917
-47.746
-45.473
-43.153
-40.843
-38.603
-36.473
-34.479
-32.64
-30.965
-29.454
-28.101
-26.888
-25.792
-24.793
-23.874
-23.022
-22.225
-21.467
-20.73
-19.995
-19.246
-18.465
-17.639
-16.753
-15.793
-14.749
-13.61
-12.368
-11.016
-9.547
-7.95
-6.216
-4.338
-2.306
-0.115
2.241
4.769
7.47
10.346
13.398
16.622
20.016
23.575
27.294
31.164
35.178
39.325
43.594
47.974
52.451
57.013
61.645
66.332
71.059
75.81
80.57
85.322
90.049
94.733
99.357
103.904
108.356
112.695
116.903
120.964
124.86
128.575
132.093
135.399
138.478
141.317
143.905
146.229
148.281
150.052
151.534
152.722
153.613
154.202
154.488
154.47
154.149
153.525
152.602
151.383
149.872
148.075
145.999
143.65
141.039
138.175
135.069
131.732
128.177
124.419
120.471
116.349
112.068
107.644
103.096
98.439
93.692
88.872
83.997
79.084
74.15
69.211
64.284
59.384
54.525
49.721
44.987
40.334
35.775
31.322
26.984
22.771
18.694
14.759
10.974
7.344
3.876
0.572
-2.563
-5.528
-8.32
-10.941
-13.39
-15.668
-17.779
-19.726
-21.513
-23.145
-24.627
-25.966
-27.168
-28.24
-29.189
-30.021
-30.743
-31.362
-31.886
-32.32
-32.671
-32.946
-33.152
-33.294
-33.378
-33.411
-33.397
-33.34
-33.247
-33.12
-32.963
-32.781
-32.576
-32.351
-32.108
-31.851
-31.58
-31.298
-31.005
-30.702
-30.388
-30.064
-29.73
-29.385
-29.029
-28.661
-28.281
-27.89
-27.486
-27.071
-26.644
-26.206
-25.757
-25.297
-24.828
-24.349
-23.864
-23.372
-22.876
-22.378
-21.881
-21.386
-20.897
-20.414
-19.942
-19.482
-19.037
-18.609
-18.2
-17.814
-17.454
-17.122
-16.821
-16.554
-16.324
-16.134
-15.985
-15.88
-15.821
-15.808
-15.844
-15.928
-16.063
-16.249
-16.486
-16.774
-17.113
-17.503
-17.942
-18.428
-18.96
-19.536
-20.152
-20.807
-21.497
-22.22
-22.973
-23.753
-24.557
-25.382
-26.225
-27.082
-27.949
-28.824
-29.701
-30.578
-31.45
-32.316
-33.171
-34.012
-34.836
-35.641
-36.424
-37.183
-37.914
-38.616
-39.285
-39.922
-40.523
-41.089
-41.618
-42.111
-42.568
-42.989
-43.375
-43.726
-44.045
-44.332
-44.588
-44.815
-45.014
-45.189
-45.34
-45.47
-45.583
-45.681
-45.766
-45.842
-45.911
-45.976
-46.04
-46.104
-46.173
-46.248
-46.332
-46.427
-46.537
-46.662
-46.805
-46.968
-47.151
-47.355
-47.581
-47.828
-48.095
-48.382
-48.686
-49.006
-49.341
-49.687
-50.043
-50.404
-50.769
-51.131
-51.489
-51.836
-52.167
-52.479
-52.764
-53.017
-53.233
-53.406
-53.531
-53.602
-53.614
-53.561
-53.437
-53.238
-52.958
-52.592
-52.136
-51.587
-50.94
-50.195
-49.349
-48.402
-47.353
-46.204
-44.955
-43.608
-42.168
-40.638
-39.021
-37.324
-35.554
-33.718
-31.825
-29.885
-27.908
-25.908
-23.897
-21.891
-19.904
-17.952
-16.05
-14.214
-12.461
-10.805
-9.259
-7.838
-6.554
-5.423
-4.458
-3.674
-3.082
-2.695
-2.522
-2.571
-2.848
-3.352
-4.082
-5.036
-6.214
-7.623
-9.268
-11.149
-13.267
-15.618
-18.191
-20.97
-23.925
-27.017
-30.203
-33.445
-36.707
-39.963
-43.183
-46.337
-49.383
-52.271
-54.956
-57.395
-59.547
-61.371
-62.848
-63.993
-64.851
-65.504
-66.022
-66.447
-66.825
-67.218
-67.699
-68.362
-69.299
-70.57
-72.264
-74.55
-77.502
-81.078
-85.052
-88.898
-92.046
-94.048
-94.412
-92.604
-88.431
-82.043
-74.107
-66.113
-59.533
-55.446
-54.898
-58.643
-66.586
-77.835
-90.355
-100.537
-104.719
-99.686
-81.856
-48.421
1.954
69.605
151.474
242.13
337.586
432.083
521.573
602.651
665.197
701.867
705.654
670.644
603.969
513.987
409.64
303.011
198.433
99.776
13.155
-58.25
-110.7
-142.277
-154.853
-151.565
-136.682
-114.96
-91.226
-69.81
-53.442
-43.424
-39.791
-41.475
-47.024
-54.832
-62.831
-69.128
-72.712
-73.25
-71.031
-66.806
-61.329
-55.297
-49.502
-44.648
-41.082
-38.915
-38.044
-38.217
-39.228
-40.9
-43.035
-45.444
-47.995
-50.569
-53.056
-55.363
-57.374
-58.993
-60.168
-60.869
-61.087
-60.831
-60.128
-59.018
-57.559
-55.805
-53.8
-51.588
-49.211
-46.72
-44.174
-41.634
-39.157
-36.785
-34.546
-32.458
-30.529
-28.761
-27.142
-25.657
-24.282
-22.999
-21.795
-20.655
-19.568
-18.515
-17.48
-16.444
-15.39
-14.3
-13.161
-11.957
-10.675
-9.303
-7.832
-6.254
-4.562
-2.746
-0.798
1.29
3.528
5.924
8.483
11.213
14.117
17.2
20.462
23.903
27.52
31.311
35.27
39.39
43.662
48.078
52.625
57.292
62.064
66.926
71.863
76.856
81.89
86.944
91.999
97.036
102.034
106.973
111.831
116.589
121.225
125.719
130.05
134.199
138.145
141.87
145.355
148.583
151.536
154.201
156.561
158.607
160.325
161.707
162.746
163.435
163.771
163.751
163.374
162.641
161.555
160.119
158.34
156.226
153.784
151.025
147.961
144.605
140.97
137.072
132.927
128.552
123.964
119.184
114.229
109.12
103.879
98.525
93.081
87.566
82.004
76.414
70.818
65.235
59.685
54.187
48.758
43.416
38.175
33.052
28.058
23.207
18.51
13.977
9.617
5.438
1.445
-2.356
-5.96
-9.364
-12.567
-15.567
-18.365
-20.963
-23.362
-25.566
-27.579
-29.406
-31.054
-32.53
-33.84
-34.992
-35.996
-36.861
-37.594
-38.206
-38.705
-39.102
-39.404
-39.621
-39.761
-39.833
-39.843
-39.8
-39.711
-39.582
-39.42
-39.23
-39.02
-38.793
-38.555
-38.31
-38.063
-37.818
-37.576
-37.342
-37.118
-36.905
-36.705
-36.519
-36.348
-36.192
-36.051
-35.924
-35.81
-35.709
-35.618
-35.536
-35.463
-35.397
-35.336
-35.28
-35.228
-35.179
-35.132
-35.087
-35.043
-35.001
-34.959
-34.916
-34.874
-34.832
-34.788
-34.744
-34.698
-34.652
-34.604
-34.555
-34.505
-34.453
-34.401
-34.348
-34.295
-34.242
-34.191
-34.142
-34.097
-34.057
-34.024
-33.999
-33.983
-33.976
-33.98
-33.995
-34.021
-34.058
-34.107
-34.167
-34.237
-34.319
-34.411
-34.513
-34.624
-34.745
-34.873
-35.01
-35.153
-35.303
-35.459
-35.62
-35.788
-35.96
-36.138
-36.32
-36.506
-36.696
-36.889
-37.082
-37.277
-37.47
-37.661
-37.849
-38.034
-38.214
-38.39
-38.562
-38.73
-38.894
-39.054
-39.213
-39.37
-39.526
-39.684
-39.843
-40.006
-40.175
-40.35
-40.534
-40.728
-40.933
-41.15
-41.381
-41.626
-41.886
-42.161
-42.452
-42.759
-43.084
-43.428
-43.79
-44.171
-44.573
-44.996
-45.439
-45.903
-46.386
-46.887
-47.406
-47.939
-48.485
-49.04
-49.602
-50.167
-50.731
-51.29
-51.838
-52.372
-52.886
-53.374
-53.832
-54.253
-54.633
-54.967
-55.249
-55.474
-55.637
-55.733
-55.757
-55.706
-55.574
-55.358
-55.051
-54.652
-54.155
-53.558
-52.859
-52.053
-51.141
-50.121
-48.994
-47.76
-46.422
-44.982
-43.444
-41.811
-40.09
-38.286
-36.408
-34.462
-32.456
-30.402
-28.308
-26.185
-24.046
-21.901
-19.763
-17.649
-15.571
-13.546
-11.589
-9.716
-7.943
-6.285
-4.758
-3.374
-2.145
-1.084
-0.201
0.49
0.976
1.248
1.296
1.112
0.692
0.029
-0.878
-2.023
-3.401
-5.008
-6.842
-8.911
-11.22
-13.765
-16.54
-19.537
-22.737
-26.119
-29.653
-33.289
-36.983
-40.688
-44.365
-47.986
-51.52
-54.926
-58.155
-61.147
-63.846
-66.217
-68.221
-69.831
-71.052
-71.902
-72.436
-72.743
-72.894
-72.96
-73.029
-73.175
-73.491
-74.076
-75.009
-76.404
-78.414
-81.095
-84.397
-88.132
-91.913
-95.321
-98.007
-99.538
-99.408
-97.354
-93.464
-88.218
-82.578
-77.523
-73.679
-71.606
-71.903
-74.658
-79.189
-84.069
-86.975
-85.334
-77.059
-60.079
-32.372
7.319
59.486
123.34
196.486
275.844
356.541
433.088
501.845
557.966
599.546
625.723
630.832
614.22
574.178
508.374
421.065
310.731
181.084
44.203
-85.166
-182.673
-233.373
-237.179
-204.496
-158.821
-117.33
-86.54
-66.864
-50.801
-34.38
-19.031
-7.371
-3.366
-7.784
-17.921
-30.315
-41.915
-51.283
-58.105
-62.143
-63.081
-60.989
-56.687
-51.663
-47.197
-43.885
-41.879
-41.136
-41.73
-43.714
-46.826
-50.531
-54.34
-57.963
-61.274
-64.248
-66.796
-68.815
-70.312
-71.294
-71.728
-71.597
-70.859
-69.515
-67.689
-65.448
-62.72
-59.685
-56.814
-54.223
-51.852
-49.809
-47.659
-46.354
-48.487
-53.345
-58.648
-60.355
-51.098
-31.79
-9.69
7.805
10.209
-2.486
-20.478
-36.233
-41.416
-35.08
-24.568
-14.222
-7.194
-4.206
-2.233
-0.022
2.364
5.013
7.469
9.658
11.989
14.578
17.364
20.364
23.601
27.063
30.737
34.584
38.537
42.577
46.734
51.016
55.415
59.928
64.544
69.258
74.069
78.969
83.941
88.969
94.036
99.126
104.225
109.316
114.384
119.41
124.376
129.264
134.056
138.734
143.276
147.662
151.868
155.872
159.655
163.197
166.481
169.49
172.204
174.612
176.701
178.459
179.874
180.931
181.607
181.894
181.788
181.293
180.42
179.179
177.578
175.632
173.364
170.789
167.917
164.747
161.262
157.46
153.349
148.947
144.287
139.391
134.262
128.906
123.323
117.513
111.483
105.223
98.703
91.924
84.908
77.707
70.411
63.084
55.772
48.512
41.322
34.235
27.303
20.567
14.06
7.827
1.906
-3.639
-8.714
-13.272
-17.301
-20.824
-23.916
-26.627
-28.98
-31.003
-32.714
-34.139
-35.316
-36.267
-36.997
-37.532
-37.901
-38.157
-38.383
-38.625
-38.901
-39.203
-39.489
-39.736
-39.94
-40.09
-40.177
-40.195
-40.137
-40.013
-39.848
-39.656
-39.438
-39.187
-38.878
-38.502
-38.067
-37.587
-37.089
-36.592
-36.108
-35.652
-35.242
-34.888
-34.6
-34.373
-34.197
-34.064
-33.972
-33.921
-33.914
-33.951
-34.027
-34.138
-34.279
-34.442
-34.623
-34.814
-35.007
-35.194
-35.371
-35.535
-35.686
-35.822
-35.941
-36.041
-36.12
-36.177
-36.21
-36.217
-36.194
-36.141
-36.057
-35.941
-35.794
-35.617
-35.411
-35.178
-34.919
-34.638
-34.337
-34.018
-33.685
-33.341
-32.989
-32.632
-32.274
-31.917
-31.566
-31.222
-30.889
-30.57
-30.267
-29.981
-29.716
-29.471
-29.249
-29.051
-28.877
-28.728
-28.605
-28.508
-28.438
-28.396
-28.379
-28.389
-28.424
-28.484
-28.566
-28.671
-28.795
-28.937
-29.096
-29.268
-29.454
-29.649
-29.853
-30.064
-30.279
-30.498
-30.719
-30.94
-31.163
-31.385
-31.606
-31.828
-32.049
-32.271
-32.494
-32.717
-32.943
-33.171
-33.404
-33.641
-33.884
-34.135
-34.395
-34.665
-34.947
-35.242
-35.551
-35.876
-36.218
-36.576
-36.953
-37.349
-37.764
-38.198
-38.651
-39.122
-39.609
-40.112
-40.628
-41.153
-41.685
-42.219
-42.753
-43.28
-43.798
-44.3
-44.783
-45.241
-45.67
-46.063
-46.415
-46.72
-46.972
-47.165
-47.294
-47.353
-47.338
-47.242
-47.062
-46.793
-46.433
-45.978
-45.423
-44.768
-44.01
-43.149
-42.184
-41.116
-39.947
-38.679
-37.317
-35.866
-34.331
-32.72
-31.039
-29.296
-27.5
-25.661
-23.788
-21.892
-19.984
-18.077
-16.184
-14.321
-12.503
-10.744
-9.06
-7.466
-5.978
-4.608
-3.37
-2.274
-1.329
-0.547
0.063
0.488
0.721
0.751
0.571
0.177
-0.438
-1.273
-2.32
-3.576
-5.03
-6.682
-8.533
-10.583
-12.828
-15.264
-17.885
-20.677
-23.62
-26.679
-29.81
-32.97
-36.116
-39.215
-42.243
-45.169
-47.96
-50.582
-52.99
-55.149
-57.032
-58.6
-59.821
-60.692
-61.244
-61.536
-61.664
-61.699
-61.678
-61.657
-61.697
-61.871
-62.278
-63.003
-64.084
-65.602
-67.703
-70.428
-73.712
-77.282
-80.551
-82.941
-84.012
-83.288
-80.336
-75.109
-67.832
-59.319
-51.182
-44.87
-41.464
-41.939
-46.687
-55.151
-66.165
-77.317
-84.805
-84.991
-74.577
-50.544
-11.193
43.584
112.74
193.139
279.49
365.891
445.858
512.747
561.146
587.043
587.563
562.041
512.252
441.603
355.279
259.522
160.361
63.686
-24.674
-99.942
-158.779
-199.444
-222.081
-227.927
-218.662
-196.921
-166.265
-130.568
-93.797
-59.161
-28.888
-5.014
10.798
17.992
16.95
8.903
-4.071
-20.072
-37.367
-53.792
-67.497
-77.395
-82.915
-84.234
-82.208
-77.665
-71.594
-65.327
-59.841
-55.707
-53.263
-52.416
-52.842
-54.238
-56.146
-58.027
-59.572
-60.626
-61.136
-61.189
-60.852
-60.163
-59.208
-58.073
-56.797
-55.399
-53.871
-52.197
-50.399
-48.525
-46.63
-44.758
-42.932
-41.163
-39.461
-37.828
-36.27
-34.779
-33.34
-31.945
-30.591
-29.276
-27.999
-26.752
-25.518
-24.279
-23.017
-21.711
-20.346
-18.909
-17.387
-15.769
-14.048
-12.215
-10.265
-8.191
-5.984
-3.636
-1.138
1.518
4.335
7.321
10.477
13.807
17.311
20.987
24.833
28.845
33.018
37.346
41.82
46.431
51.167
56.016
60.963
65.995
71.095
76.246
81.429
86.627
91.821
96.99
102.115
107.176
112.153
117.024
121.771
126.374
130.812
135.066
139.118
142.95
146.542
149.878
152.943
155.719
158.195
160.356
162.192
163.693
164.85
165.657
166.109
166.203
165.937
165.31
164.324
162.982
161.289
159.252
156.877
154.174
151.153
147.826
144.206
140.306
136.141
131.726
127.079
122.216
117.156
111.917
106.519
100.981
95.323
89.567
83.732
77.839
71.909
65.962
60.017
54.095
48.214
42.392
36.647
30.996
25.455
20.037
14.757
9.628
4.66
-0.136
-4.75
-9.176
-13.405
-17.433
-21.254
-24.866
-28.265
-31.451
-34.424
-37.184
-39.735
-42.078
-44.218
-46.161
-47.912
-49.477
-50.864
-52.081
-53.135
-54.038
-54.796
-55.421
-55.922
-56.31
-56.594
-56.785
-56.893
-56.926
-56.895
-56.81
-56.678
-56.508
-56.309
-56.087
-55.852
-55.609
-55.364
-55.124
-54.893
-54.677
-54.478
-54.3
-54.146
-54.017
-53.915
-53.84
-53.794
-53.775
-53.784
-53.819
-53.878
-53.959
-54.06
-54.179
-54.311
-54.454
-54.605
-54.759
-54.915
-55.067
-55.213
-55.35
-55.474
-55.582
-55.67
-55.736
-55.776
-55.787
-55.768
-55.715
-55.627
-55.502
-55.338
-55.135
-54.891
-54.606
-54.279
-53.912
-53.503
-53.054
-52.565
-52.039
-51.475
-50.877
-50.247
-49.586
-48.899
-48.186
-47.452
-46.699
-45.931
-45.149
-44.358
-43.561
-42.76
-41.959
-41.161
-40.369
-39.586
-38.817
-38.063
-37.327
-36.613
-35.922
-35.258
-34.623
-34.019
-33.449
-32.913
-32.416
-31.956
-31.538
-31.161
-30.826
-30.535
-30.287
-30.082
-29.92
-29.801
-29.723
-29.687
-29.691
-29.733
-29.813
-29.93
-30.08
-30.264
-30.479
-30.722
-30.993
-31.288
-31.606
-31.945
-32.301
-32.672
-33.057
-33.451
-33.853
-34.26
-34.667
-35.073
-35.473
-35.865
-36.244
-36.608
-36.954
-37.277
-37.575
-37.845
-38.083
-38.288
-38.455
-38.583
-38.668
-38.707
-38.699
-38.64
-38.527
-38.358
-38.129
-37.838
-37.482
-37.059
-36.566
-36.002
-35.363
-34.649
-33.858
-32.988
-32.039
-31.009
-29.899
-28.709
-27.44
-26.094
-24.672
-23.178
-21.613
-19.982
-18.289
-16.538
-14.735
-12.883
-10.989
-9.061
-7.106
-5.131
-3.146
-1.16
0.816
2.768
4.686
6.556
8.365
10.099
11.745
13.289
14.72
16.026
17.196
18.219
19.082
19.776
20.289
20.611
20.731
20.641
20.335
19.808
19.062
18.096
16.913
15.512
13.888
12.038
9.967
7.676
5.168
2.456
-0.444
-3.502
-6.671
-9.909
-13.177
-16.437
-19.664
-22.826
-25.884
-28.804
-31.539
-34.052
-36.318
-38.303
-39.974
-41.322
-42.357
-43.141
-43.769
-44.331
-44.891
-45.492
-46.174
-47.009
-48.078
-49.463
-51.247
-53.449
-56.124
-59.41
-63.315
-67.721
-72.317
-76.492
-79.639
-81.353
-81.179
-78.676
-73.794
-66.702
-58.113
-49.499
-42.127
-36.92
-34.733
-35.884
-39.872
-45.723
-51.32
-53.303
-48.511
-33.989
-7.032
33.826
88.709
156.685
234.911
318.651
402.49
480.306
545.789
593.62
619.671
620.961
596.494
547.418
476.676
389.021
290.366
187.027
85.331
-8.567
-89.253
-152.561
-196.121
-219.326
-222.986
-209.391
-181.889
-144.624
-102.457
-60.256
-21.972
9.172
30.817
42.106
43.236
35.309
20.597
1.844
-18.409
-37.547
-53.424
-64.956
-71.621
-73.487
-71.419
-66.541
-60.086
-53.539
-47.997
-43.958
-41.699
-41.168
-42.043
-44.002
-46.571
-49.132
-51.321
-52.989
-54.074
-54.663
-54.828
-54.574
-53.976
-53.131
-52.085
-50.871
-49.493
-47.925
-46.185
-44.319
-42.377
-40.422
-38.489
-36.594
-34.752
-32.972
-31.259
-29.622
-28.055
-26.545
-25.09
-23.685
-22.327
-21.014
-19.733
-18.468
-17.201
-15.913
-14.587
-13.212
-11.777
-10.272
-8.688
-7.016
-5.249
-3.381
-1.406
0.687
2.906
5.26
7.757
10.401
13.198
16.151
19.265
22.539
25.974
29.568
33.317
37.218
41.265
45.45
49.765
54.199
58.742
63.381
68.102
72.891
77.732
82.611
87.511
92.416
97.307
102.166
106.977
111.719
116.375
120.924
125.349
129.629
133.745
137.679
141.412
144.925
148.202
151.225
153.978
156.446
158.616
160.476
162.014
163.221
164.09
164.614
164.788
164.611
164.081
163.199
161.965
160.384
158.459
156.197
153.605
150.691
147.464
143.937
140.121
136.029
131.677
127.081
122.257
117.223
111.999
106.603
101.056
95.379
89.592
83.718
77.779
71.796
65.792
59.789
53.807
47.867
41.99
36.193
30.495
24.912
19.461
14.156
9.01
4.037
-0.753
-5.348
-9.74
-13.92
-17.882
-21.62
-25.132
-28.413
-31.462
-34.281
-36.869
-39.229
-41.364
-43.279
-44.979
-46.472
-47.764
-48.865
-49.783
-50.53
-51.116
-51.553
-51.853
-52.026
-52.086
-52.043
-51.909
-51.696
-51.415
-51.075
-50.689
-50.266
-49.815
-49.347
-48.869
-48.391
-47.919
-47.462
-47.024
-46.611
-46.229
-45.881
-45.571
-45.302
-45.078
-44.898
-44.766
-44.681
-44.643
-44.651
-44.703
-44.798
-44.932
-45.102
-45.306
-45.538
-45.796
-46.075
-46.372
-46.683
-47.002
-47.327
-47.653
-47.976
-48.291
-48.596
-48.886
-49.157
-49.406
-49.63
-49.827
-49.993
-50.126
-50.224
-50.286
-50.308
-50.29
-50.229
-50.126
-49.979
-49.788
-49.553
-49.276
-48.956
-48.596
-48.197
-47.761
-47.291
-46.788
-46.256
-45.697
-45.114
-44.509
-43.888
-43.252
-42.606
-41.953
-41.298
-40.643
-39.994
-39.354
-38.726
-38.116
-37.526
-36.961
-36.424
-35.921
-35.454
-35.028
-34.648
-34.315
-34.034
-33.808
-33.639
-33.53
-33.482
-33.497
-33.577
-33.722
-33.934
-34.211
-34.556
-34.966
-35.442
-35.983
-36.587
-37.252
-37.976
-38.758
-39.593
-40.48
-41.415
-42.394
-43.413
-44.469
-45.556
-46.67
-47.805
-48.956
-50.117
-51.282
-52.445
-53.601
-54.742
-55.864
-56.96
-58.025
-59.054
-60.041
-60.98
-61.867
-62.697
-63.464
-64.166
-64.797
-65.353
-65.83
-66.226
-66.536
-66.758
-66.889
-66.925
-66.866
-66.708
-66.451
-66.092
-65.631
-65.068
-64.403
-63.637
-62.771
-61.807
-60.747
-59.593
-58.347
-57.013
-55.594
-54.093
-52.514
-50.86
-49.137
-47.348
-45.499
-43.594
-41.64
-39.64
-37.603
-35.533
-33.439
-31.326
-29.204
-27.08
-24.963
-22.862
-20.788
-18.752
-16.765
-14.839
-12.986
-11.218
-9.546
-7.981
-6.536
-5.217
-4.035
-2.996
-2.109
-1.384
-0.829
-0.453
-0.264
-0.27
-0.474
-0.882
-1.496
-2.311
-3.326
-4.536
-5.941
-7.549
-9.364
-11.387
-13.616
-16.044
-18.659
-21.443
-24.366
-27.39
-30.475
-33.586
-36.694
-39.777
-42.814
-45.777
-48.629
-51.32
-53.801
-56.031
-57.979
-59.614
-60.928
-61.943
-62.705
-63.299
-63.8
-64.251
-64.697
-65.188
-65.787
-66.581
-67.662
-69.102
-71.009
-73.542
-76.762
-80.602
-84.822
-88.943
-92.454
-94.966
-96.068
-95.272
-92.366
-87.538
-81.424
-75.238
-70.222
-67.102
-66.408
-68.766
-74.264
-82.102
-90.619
-97.008
-98.007
-91.177
-74.577
-45.768
-2.802
54.835
126.488
208.17
293.073
375.887
452.708
522.415
586.439
642.281
683.137
697.941
674.743
609.532
505.434
373.944
233.164
99.46
-10.906
-86.371
-125.644
-134.439
-125.345
-111.442
-99.695
-91.142
-82.598
-72.216
-61.008
-51.427
-46.646
-47.382
-52.061
-58.972
-65.931
-71.056
-73.722
-73.681
-71.005
-66.378
-60.537
-54.101
-47.845
-42.515
-38.459
-35.846
-34.67
-34.698
-35.743
-37.653
-40.212
-43.212
-46.489
-49.88
-53.249
-56.49
-59.465
-62.06
-64.202
-65.839
-66.953
-67.549
-67.64
-67.261
-66.46
-65.284
-63.781
-61.996
-59.974
-57.77
-55.447
-53.068
-50.699
-48.385
-46.159
-44.044
-42.048
-40.173
-38.412
-36.749
-35.163
-33.637
-32.159
-30.715
-29.298
-27.891
-26.479
-25.045
-23.571
-22.043
-20.447
-18.77
-17
-15.127
-13.145
-11.046
-8.825
-6.476
-3.992
-1.364
1.413
4.347
7.442
10.703
14.134
17.736
21.509
25.452
29.561
33.831
38.256
42.83
47.544
52.386
57.346
62.412
67.569
72.803
78.097
83.434
88.797
94.166
99.522
104.845
110.116
115.312
120.415
125.403
130.255
134.953
139.476
143.804
147.921
151.807
155.446
158.822
161.92
164.726
167.227
169.414
171.276
172.806
173.997
174.844
175.344
175.495
175.298
174.753
173.863
172.632
171.067
169.175
166.963
164.443
161.624
158.52
155.143
151.508
147.63
143.523
139.206
134.694
130.004
125.155
120.164
115.049
109.828
104.52
99.142
93.712
88.249
82.768
77.287
71.822
66.388
61
55.672
50.418
45.248
40.176
35.212
30.366
25.646
21.062
16.618
12.322
8.179
4.191
0.364
-3.303
-6.806
-10.145
-13.32
-16.332
-19.182
-21.872
-24.404
-26.781
-29.008
-31.088
-33.025
-34.826
-36.494
-38.035
-39.455
-40.759
-41.953
-43.042
-44.032
-44.93
-45.74
-46.468
-47.12
-47.702
-48.218
-48.674
-49.073
-49.42
-49.719
-49.973
-50.185
-50.358
-50.496
-50.6
-50.673
-50.717
-50.734
-50.726
-50.695
-50.64
-50.564
-50.467
-50.35
-50.214
-50.058
-49.885
-49.693
-49.485
-49.261
-49.021
-48.767
-48.497
-48.214
-47.918
-47.608
-47.287
-46.954
-46.612
-46.261
-45.904
-45.542
-45.178
-44.812
-44.449
-44.089
-43.734
-43.387
-43.05
-42.725
-42.414
-42.12
-41.844
-41.589
-41.356
-41.148
-40.966
-40.81
-40.682
-40.583
-40.512
-40.47
-40.458
-40.474
-40.519
-40.592
-40.693
-40.82
-40.973
-41.151
-41.35
-41.569
-41.805
-42.056
-42.319
-42.591
-42.869
-43.15
-43.432
-43.712
-43.986
-44.252
-44.506
-44.747
-44.972
-45.177
-45.362
-45.525
-45.663
-45.778
-45.867
-45.932
-45.972
-45.988
-45.98
-45.95
-45.898
-45.826
-45.736
-45.629
-45.507
-45.374
-45.231
-45.082
-44.929
-44.775
-44.625
-44.479
-44.341
-44.214
-44.1
-44.001
-43.92
-43.858
-43.817
-43.799
-43.804
-43.834
-43.887
-43.963
-44.061
-44.179
-44.314
-44.463
-44.622
-44.789
-44.957
-45.124
-45.284
-45.432
-45.563
-45.669
-45.747
-45.788
-45.787
-45.737
-45.631
-45.463
-45.226
-44.915
-44.525
-44.049
-43.483
-42.822
-42.063
-41.2
-40.232
-39.155
-37.967
-36.667
-35.256
-33.734
-32.103
-30.366
-28.526
-26.59
-24.562
-22.448
-20.258
-17.997
-15.677
-13.305
-10.894
-8.454
-5.998
-3.539
-1.091
1.332
3.712
6.034
8.281
10.438
12.487
14.413
16.2
17.836
19.308
20.604
21.712
22.62
23.315
23.788
24.031
24.037
23.802
23.32
22.591
21.619
20.411
18.971
17.302
15.398
13.255
10.879
8.275
5.453
2.431
-0.775
-4.137
-7.616
-11.166
-14.748
-18.319
-21.853
-25.321
-28.681
-31.881
-34.858
-37.555
-39.933
-41.964
-43.617
-44.887
-45.782
-46.339
-46.632
-46.725
-46.683
-46.582
-46.5
-46.524
-46.763
-47.319
-48.321
-49.945
-52.265
-55.228
-58.673
-62.256
-65.602
-68.419
-70.326
-70.801
-69.558
-66.661
-62.552
-58.18
-54.532
-52.176
-51.578
-53.385
-57.899
-64.609
-72.159
-78.158
-79.697
-74.495
-60.748
-36.147
1.449
52.806
117.432
191.991
270.382
347.36
419.324
485.865
548.486
606.65
655.698
682.821
674.675
622.328
522.481
388.347
239.749
98.608
-10.129
-76.913
-103.166
-99.723
-88.613
-82.727
-86.27
-96.994
-104.743
-105.764
-102.3
-97.115
-94.406
-94.851
-95.96
-96.329
-95.328
-92.589
-87.921
-81.236
-72.847
-63.983
-56.482
-51.463
-48.909
-48.282
-49.257
-51.644
-55.204
-59.327
-62.924
-65.277
-66.462
-67.065
-67.571
-68.186
-68.91
-69.741
-70.914
-72.581
-74.597
-76.601
-78.25
-79.381
-79.997
-80.183
-79.967
-79.351
-78.382
-77.148
-75.753
-74.271
-72.738
-71.164
-69.564
-67.977
-66.436
-64.967
-63.588
-62.295
-61.077
-59.918
-58.797
-57.689
-56.574
-55.436
-54.257
-53.025
-51.726
-50.343
-48.868
-47.284
-45.578
-43.733
-41.733
-39.567
-37.23
-34.715
-32.021
-29.143
-26.079
-22.827
-19.384
-15.748
-11.92
-7.899
-3.685
0.718
5.305
10.069
15
20.09
25.326
30.696
36.187
41.784
47.473
53.235
59.056
64.916
70.798
76.681
82.546
88.373
94.141
99.831
105.421
110.892
116.222
121.393
126.384
131.176
135.75
140.089
144.176
147.992
151.523
154.755
157.674
160.267
162.524
164.436
165.995
167.195
168.031
168.499
168.599
168.329
167.692
166.689
165.326
163.606
161.538
159.129
156.389
153.328
149.958
146.292
142.344
138.129
133.663
128.962
124.045
118.93
113.636
108.183
102.592
96.882
91.074
85.189
79.249
73.273
67.282
61.295
55.333
49.413
43.553
37.772
32.085
26.507
21.054
15.739
10.574
5.572
0.742
-3.905
-8.36
-12.617
-16.668
-20.508
-24.133
-27.54
-30.726
-33.691
-36.434
-38.958
-41.265
-43.356
-45.238
-46.915
-48.392
-49.677
-50.775
-51.696
-52.446
-53.035
-53.47
-53.761
-53.915
-53.943
-53.853
-53.653
-53.352
-52.96
-52.484
-51.932
-51.315
-50.639
-49.913
-49.145
-48.343
-47.515
-46.667
-45.807
-44.941
-44.076
-43.217
-42.371
-41.541
-40.733
-39.951
-39.198
-38.478
-37.793
-37.145
-36.537
-35.97
-35.446
-34.965
-34.529
-34.138
-33.794
-33.495
-33.243
-33.037
-32.877
-32.761
-32.689
-32.66
-32.671
-32.721
-32.807
-32.927
-33.077
-33.255
-33.457
-33.68
-33.919
-34.171
-34.432
-34.698
-34.965
-35.23
-35.49
-35.74
-35.979
-36.203
-36.41
-36.596
-36.761
-36.9
-37.013
-37.098
-37.153
-37.177
-37.168
-37.127
-37.052
-36.944
-36.803
-36.63
-36.425
-36.191
-35.928
-35.64
-35.328
-34.997
-34.648
-34.286
-33.914
-33.537
-33.158
-32.781
-32.411
-32.051
-31.704
-31.374
-31.064
-30.778
-30.519
-30.289
-30.09
-29.926
-29.798
-29.708
-29.657
-29.646
-29.677
-29.75
-29.864
-30.019
-30.215
-30.451
-30.726
-31.038
-31.384
-31.762
-32.169
-32.602
-33.057
-33.53
-34.018
-34.515
-35.018
-35.522
-36.024
-36.519
-37.003
-37.472
-37.921
-38.348
-38.747
-39.116
-39.449
-39.744
-39.996
-40.204
-40.363
-40.47
-40.524
-40.521
-40.458
-40.334
-40.147
-39.893
-39.572
-39.183
-38.723
-38.194
-37.594
-36.925
-36.186
-35.378
-34.502
-33.559
-32.55
-31.477
-30.34
-29.142
-27.884
-26.569
-25.198
-23.775
-22.304
-20.787
-19.229
-17.634
-16.006
-14.351
-12.673
-10.98
-9.277
-7.571
-5.87
-4.184
-2.52
-0.889
0.698
2.232
3.701
5.095
6.403
7.616
8.723
9.717
10.588
11.327
11.927
12.378
12.671
12.799
12.752
12.522
12.104
11.494
10.693
9.702
8.521
7.154
5.597
3.849
1.914
-0.207
-2.511
-4.99
-7.633
-10.414
-13.299
-16.253
-19.24
-22.228
-25.197
-28.118
-30.962
-33.702
-36.301
-38.727
-40.955
-42.953
-44.692
-46.152
-47.328
-48.255
-49.006
-49.65
-50.248
-50.837
-51.45
-52.146
-53.001
-54.092
-55.501
-57.271
-59.467
-62.238
-65.655
-69.664
-74.046
-78.301
-81.862
-84.302
-85.156
-83.903
-80.324
-74.516
-67.066
-59.341
-52.752
-48.376
-47.256
-50.184
-57.212
-67.617
-79.557
-89.707
-94.604
-91.127
-75.829
-45.954
-0.043
62.366
138.35
222.81
312.135
400.922
485.676
563.507
624.49
661.51
667.725
636.991
576.185
493.273
396.51
297.254
199.16
105.375
21.383
-49.765
-104.116
-139.405
-156.866
-158.891
-149.169
-131.801
-111.027
-91.104
-74.846
-63.697
-58.073
-57.297
-60.216
-65.614
-71.695
-76.512
-79.005
-78.781
-75.979
-71.268
-65.326
-58.721
-52.21
-46.576
-42.219
-39.303
-37.775
-37.372
-37.897
-39.197
-41.07
-43.312
-45.767
-48.289
-50.758
-53.087
-55.16
-56.88
-58.188
-59.039
-59.425
-59.355
-58.852
-57.958
-56.725
-55.205
-53.443
-51.483
-49.364
-47.136
-44.855
-42.573
-40.346
-38.21
-36.188
-34.298
-32.544
-30.922
-29.421
-28.023
-26.702
-25.439
-24.217
-23.021
-21.838
-20.647
-19.432
-18.172
-16.848
-15.444
-13.944
-12.333
-10.599
-8.729
-6.716
-4.551
-2.23
0.255
2.91
5.741
8.753
11.95
15.334
18.906
22.667
26.613
30.742
35.047
39.52
44.154
48.939
53.864
58.915
64.079
69.34
74.681
80.083
85.527
90.992
96.457
101.899
107.295
112.621
117.855
122.971
127.945
132.754
137.374
141.782
145.955
149.872
153.513
156.858
159.889
162.592
164.95
166.951
168.583
169.836
170.702
171.174
171.249
170.923
170.195
169.067
167.541
165.624
163.32
160.64
157.593
154.192
150.451
146.385
142.011
137.347
132.412
127.229
121.818
116.203
110.407
104.454
98.37
92.177
85.901
79.566
73.196
66.813
60.441
54.101
47.816
41.606
35.491
29.49
23.619
17.896
12.335
6.95
1.753
-3.245
-8.035
-12.609
-16.96
-21.083
-24.974
-28.63
-32.051
-35.237
-38.19
-40.913
-43.41
-45.687
-47.752
-49.611
-51.272
-52.746
-54.04
-55.166
-56.133
-56.951
-57.633
-58.188
-58.627
-58.962
-59.203
-59.36
-59.443
-59.461
-59.424
-59.34
-59.216
-59.059
-58.878
-58.677
-58.462
-58.24
-58.014
-57.789
-57.568
-57.354
-57.149
-56.955
-56.773
-56.603
-56.447
-56.302
-56.17
-56.048
-55.937
-55.833
-55.735
-55.641
-55.55
-55.458
-55.363
-55.264
-55.158
-55.043
-54.919
-54.782
-54.634
-54.472
-54.297
-54.107
-53.904
-53.687
-53.456
-53.213
-52.957
-52.69
-52.412
-52.125
-51.829
-51.525
-51.215
-50.899
-50.578
-50.254
-49.927
-49.599
-49.271
-48.943
-48.618
-48.297
-47.98
-47.67
-47.366
-47.071
-46.784
-46.507
-46.24
-45.983
-45.736
-45.5
-45.273
-45.056
-44.847
-44.645
-44.451
-44.262
-44.077
-43.897
-43.72
-43.545
-43.373
-43.204
-43.038
-42.876
-42.719
-42.566
-42.421
-42.283
-42.154
-42.035
-41.928
-41.833
-41.754
-41.69
-41.644
-41.618
-41.613
-41.631
-41.672
-41.74
-41.835
-41.958
-42.112
-42.299
-42.519
-42.774
-43.066
-43.396
-43.764
-44.171
-44.616
-45.099
-45.618
-46.171
-46.755
-47.366
-48.002
-48.657
-49.327
-50.007
-50.691
-51.374
-52.049
-52.71
-53.351
-53.964
-54.542
-55.08
-55.57
-56.005
-56.379
-56.686
-56.918
-57.069
-57.133
-57.102
-56.971
-56.734
-56.386
-55.92
-55.334
-54.624
-53.787
-52.822
-51.728
-50.505
-49.155
-47.681
-46.084
-44.371
-42.546
-40.616
-38.586
-36.467
-34.266
-31.994
-29.66
-27.274
-24.849
-22.394
-19.923
-17.446
-14.978
-12.532
-10.125
-7.772
-5.49
-3.296
-1.206
0.762
2.593
4.273
5.79
7.135
8.298
9.267
10.034
10.591
10.932
11.055
10.957
10.637
10.095
9.335
8.368
7.201
5.838
4.277
2.511
0.535
-1.647
-4.028
-6.6
-9.353
-12.273
-15.333
-18.493
-21.709
-24.938
-28.146
-31.303
-34.37
-37.295
-40.017
-42.467
-44.589
-46.35
-47.73
-48.71
-49.292
-49.488
-49.326
-48.892
-48.285
-47.607
-46.978
-46.502
-46.274
-46.45
-47.23
-48.744
-51.026
-53.944
-57.171
-60.391
-63.332
-65.662
-66.986
-67.036
-65.769
-63.585
-61.379
-60.089
-60.484
-63.178
-68.58
-76.75
-87.27
-98.856
-109.322
-116.084
-116.436
-107.959
-88.771
-57.243
-12.176
46.379
117.174
196.372
277.572
355.162
425.263
487.862
545.565
597.144
636.214
650.676
627.607
561.908
456.156
322.498
179.401
43.872
-66.662
-141.619
-181.852
-192.711
-185.559
-169.988
-146.211
-116.023
-83.192
-53.051
-37.049
-38.494
-50.857
-67.302
-77.968
-79.404
-76.761
-72.728
-69.727
-68.528
-66.178
-61.921
-56.572
-50.604
-45.194
-41.146
-38.363
-36.839
-36.587
-37.334
-38.834
-40.921
-43.397
-46.094
-48.922
-51.76
-54.445
-56.869
-58.954
-60.627
-61.854
-62.614
-62.891
-62.693
-62.063
-61.051
-59.704
-58.073
-56.196
-54.11
-51.865
-49.515
-47.12
-44.738
-42.41
-40.164
-38.021
-35.994
-34.088
-32.3
-30.616
-29.015
-27.481
-26.001
-24.565
-23.165
-21.787
-20.413
-19.03
-17.623
-16.178
-14.685
-13.133
-11.508
-9.803
-8.011
-6.125
-4.142
-2.054
0.146
2.464
4.909
7.486
10.203
13.064
16.075
19.241
22.563
26.043
29.681
33.475
37.425
41.525
45.771
50.157
54.673
59.313
64.064
68.917
73.857
78.871
83.945
89.064
94.21
99.366
104.514
109.637
114.715
119.728
124.659
129.486
134.191
138.755
143.157
147.38
151.404
155.211
158.783
162.102
165.154
167.922
170.392
172.552
174.39
175.895
177.06
177.878
178.343
178.451
178.199
177.589
176.619
175.294
173.618
171.596
169.236
166.548
163.541
160.228
156.623
152.74
148.594
144.202
139.583
134.753
129.733
124.542
119.201
113.732
108.155
102.494
96.77
91.006
85.224
79.444
73.689
67.98
62.335
56.775
51.316
45.978
40.775
35.723
30.836
26.125
21.603
17.279
13.161
9.257
5.57
2.105
-1.136
-4.151
-6.942
-9.508
-11.854
-13.983
-15.899
-17.609
-19.12
-20.44
-21.579
-22.545
-23.351
-24.007
-24.524
-24.916
-25.194
-25.371
-25.459
-25.471
-25.419
-25.314
-25.169
-24.996
-24.805
-24.607
-24.411
-24.228
-24.064
-23.927
-23.825
-23.761
-23.742
-23.77
-23.85
-23.984
-24.173
-24.419
-24.721
-25.08
-25.493
-25.958
-26.473
-27.034
-27.637
-28.277
-28.95
-29.651
-30.375
-31.115
-31.866
-32.623
-33.38
-34.13
-34.869
-35.59
-36.288
-36.957
-37.592
-38.188
-38.742
-39.249
-39.707
-40.113
-40.465
-40.76
-40.997
-41.175
-41.293
-41.352
-41.351
-41.292
-41.175
-41.002
-40.776
-40.499
-40.174
-39.805
-39.395
-38.947
-38.466
-37.955
-37.418
-36.86
-36.284
-35.695
-35.097
-34.497
-33.897
-33.304
-32.721
-32.153
-31.605
-31.08
-30.583
-30.117
-29.685
-29.292
-28.941
-28.634
-28.376
-28.169
-28.017
-27.92
-27.882
-27.903
-27.985
-28.128
-28.334
-28.601
-28.931
-29.323
-29.776
-30.29
-30.865
-31.499
-32.189
-32.934
-33.731
-34.577
-35.467
-36.4
-37.369
-38.371
-39.402
-40.455
-41.527
-42.612
-43.702
-44.793
-45.877
-46.946
-47.994
-49.013
-49.995
-50.932
-51.818
-52.646
-53.407
-54.097
-54.708
-55.233
-55.667
-56.003
-56.236
-56.359
-56.367
-56.256
-56.022
-55.662
-55.173
-54.554
-53.804
-52.923
-51.91
-50.768
-49.497
-48.099
-46.579
-44.94
-43.189
-41.331
-39.375
-37.327
-35.199
-33.001
-30.743
-28.436
-26.092
-23.723
-21.341
-18.958
-16.588
-14.244
-11.94
-9.691
-7.513
-5.422
-3.435
-1.566
0.169
1.756
3.179
4.429
5.493
6.366
7.038
7.502
7.748
7.769
7.561
7.118
6.44
5.524
4.37
2.984
1.377
-0.441
-2.462
-4.682
-7.102
-9.723
-12.537
-15.536
-18.707
-22.032
-25.488
-29.041
-32.639
-36.235
-39.781
-43.236
-46.572
-49.753
-52.732
-55.46
-57.881
-59.948
-61.634
-62.905
-63.735
-64.138
-64.148
-63.825
-63.276
-62.571
-61.782
-61.02
-60.377
-59.942
-59.838
-60.134
-60.925
-62.387
-64.556
-67.35
-70.603
-73.951
-77.021
-79.571
-81.167
-81.25
-79.652
-76.464
-72.155
-67.599
-63.361
-59.96
-58.077
-58.251
-60.718
-63.629
-64.314
-61.786
-54.245
-43.111
-30.172
-9.197
23.835
73.341
144.023
226.436
310.204
388.79
453.964
507.053
553.251
588.301
605.732
599.441
558.572
483.399
383.717
265.249
143.302
32.873
-59.408
-121.836
-153.882
-165.601
-162.602
-154.162
-144.872
-130.639
-112.045
-91.315
-70.471
-53.946
-43.826
-39.611
-40.692
-46.251
-54.357
-62.544
-69.405
-74.19
-76.642
-77.285
-76.301
-73.334
-68.963
-64.454
-60.543
-57.727
-56.155
-55.468
-55.605
-56.82
-58.98
-61.679
-64.595
-67.39
-69.887
-72.126
-74.057
-75.561
-76.6
-77.178
-77.326
-77.117
-76.6
-75.78
-74.681
-73.328
-71.75
-69.995
-68.108
-66.139
-64.137
-62.151
-60.215
-58.355
-56.588
-54.925
-53.369
-51.913
-50.542
-49.237
-47.983
-46.771
-45.59
-44.425
-43.258
-42.07
-40.843
-39.562
-38.211
-36.776
-35.243
-33.599
-31.835
-29.941
-27.912
-25.743
-23.428
-20.96
-18.333
-15.543
-12.585
-9.458
-6.158
-2.684
0.963
4.782
8.769
12.92
17.227
21.685
26.285
31.017
35.87
40.831
45.887
51.023
56.222
61.469
66.744
72.028
77.303
82.549
87.744
92.869
97.904
102.828
107.621
112.265
116.739
121.026
125.106
128.964
132.583
135.946
139.041
141.851
144.366
146.574
148.464
150.027
151.256
152.144
152.686
152.879
152.719
152.208
151.345
150.133
148.577
146.683
144.457
141.908
139.047
135.885
132.435
128.71
124.725
120.495
116.037
111.368
106.505
101.466
96.27
90.936
85.483
79.929
74.294
68.597
62.858
57.095
51.329
45.578
39.86
34.194
28.598
23.088
17.681
12.393
7.238
2.229
-2.621
-7.302
-11.803
-16.115
-20.232
-24.146
-27.854
-31.351
-34.635
-37.704
-40.559
-43.201
-45.63
-47.851
-49.866
-51.681
-53.299
-54.727
-55.97
-57.038
-57.936
-58.673
-59.258
-59.701
-60.011
-60.198
-60.272
-60.245
-60.125
-59.924
-59.652
-59.319
-58.935
-58.509
-58.049
-57.565
-57.064
-56.553
-56.039
-55.527
-55.022
-54.528
-54.049
-53.588
-53.147
-52.729
-52.333
-51.962
-51.615
-51.292
-50.994
-50.718
-50.465
-50.232
-50.018
-49.82
-49.636
-49.463
-49.299
-49.14
-48.983
-48.825
-48.663
-48.494
-48.314
-48.12
-47.91
-47.681
-47.43
-47.156
-46.858
-46.534
-46.183
-45.805
-45.401
-44.97
-44.513
-44.032
-43.528
-43.003
-42.458
-41.896
-41.317
-40.724
-40.12
-39.506
-38.883
-38.256
-37.624
-36.991
-36.359
-35.729
-35.104
-34.486
-33.876
-33.276
-32.689
-32.115
-31.557
-31.015
-30.492
-29.988
-29.504
-29.041
-28.6
-28.181
-27.784
-27.409
-27.056
-26.724
-26.413
-26.121
-25.85
-25.598
-25.366
-25.153
-24.959
-24.786
-24.632
-24.499
-24.386
-24.296
-24.228
-24.184
-24.164
-24.17
-24.204
-24.266
-24.358
-24.481
-24.636
-24.824
-25.046
-25.301
-25.592
-25.917
-26.278
-26.674
-27.106
-27.574
-28.077
-28.616
-29.189
-29.795
-30.433
-31.099
-31.792
-32.508
-33.244
-33.997
-34.761
-35.532
-36.306
-37.077
-37.84
-38.588
-39.314
-40.012
-40.675
-41.297
-41.87
-42.388
-42.845
-43.235
-43.552
-43.792
-43.95
-44.019
-43.997
-43.879
-43.661
-43.341
-42.916
-42.384
-41.744
-40.996
-40.143
-39.186
-38.128
-36.974
-35.726
-34.392
-32.978
-31.491
-29.94
-28.333
-26.681
-24.997
-23.295
-21.588
-19.893
-18.223
-16.594
-15.021
-13.519
-12.098
-10.771
-9.549
-8.443
-7.465
-6.629
-5.946
-5.428
-5.084
-4.923
-4.955
-5.184
-5.607
-6.224
-7.032
-8.032
-9.234
-10.643
-12.259
-14.08
-16.102
-18.315
-20.7
-23.229
-25.86
-28.55
-31.258
-33.948
-36.596
-39.172
-41.643
-43.964
-46.083
-47.958
-49.558
-50.857
-51.822
-52.446
-52.756
-52.807
-52.692
-52.496
-52.264
-52.051
-51.934
-51.99
-52.323
-53.047
-54.221
-55.939
-58.357
-61.483
-65.224
-69.35
-73.341
-76.691
-79.06
-79.953
-78.845
-75.702
-70.712
-64.485
-58.37
-53.375
-50.064
-49.302
-51.693
-56.844
-63.852
-70.815
-74.479
-72.153
-61.576
-40
-5.316
43.227
105.38
179.142
260.389
344.758
427.316
501.978
562.893
605.007
624.261
618.314
587.14
532.37
457.518
368.064
270.462
171.595
78.148
-3.712
-69.272
-116.009
-143.469
-153.115
-147.931
-131.787
-108.905
-83.997
-61.283
-43.329
-31.369
-25.484
-24.768
-27.946
-33.556
-39.671
-44.504
-47.166
-47.424
-45.576
-42.277
-38.126
-33.665
-29.561
-26.427
-24.549
-23.973
-24.541
-25.971
-28.043
-30.588
-33.417
-36.336
-39.182
-41.807
-44.092
-45.982
-47.429
-48.395
-48.869
-48.845
-48.334
-47.382
-46.044
-44.375
-42.429
-40.252
-37.883
-35.373
-32.781
-30.166
-27.593
-25.105
-22.733
-20.499
-18.419
-16.503
-14.751
-13.153
-11.688
-10.341
-9.099
-7.952
-6.89
-5.902
-4.968
-4.073
-3.2
-2.333
-1.458
-0.559
0.378
1.369
2.425
3.558
4.776
6.092
7.519
9.068
10.754
12.586
14.576
16.733
19.068
21.586
24.293
27.192
30.285
33.572
37.053
40.722
44.576
48.607
52.808
57.168
61.676
66.318
71.081
75.949
80.904
85.927
91.001
96.103
101.213
106.309
111.367
116.364
121.276
126.081
130.753
135.27
139.607
143.741
147.652
151.316
154.713
157.824
160.631
163.119
165.272
167.077
168.524
169.604
170.31
170.636
170.58
170.14
169.318
168.115
166.538
164.591
162.283
159.624
156.626
153.302
149.666
145.735
141.527
137.059
132.353
127.429
122.309
117.016
111.574
106.005
100.335
94.588
88.787
82.958
77.123
71.306
65.529
59.814
54.18
48.648
43.234
37.955
32.826
27.861
23.072
18.468
14.06
9.854
5.857
2.074
-1.493
-4.841
-7.969
-10.879
-13.574
-16.056
-18.33
-20.403
-22.281
-23.973
-25.487
-26.833
-28.022
-29.063
-29.97
-30.753
-31.425
-31.997
-32.482
-32.891
-33.235
-33.526
-33.772
-33.984
-34.169
-34.335
-34.489
-34.636
-34.784
-34.934
-35.093
-35.262
-35.445
-35.642
-35.855
-36.085
-36.329
-36.588
-36.86
-37.143
-37.434
-37.73
-38.028
-38.325
-38.622
-38.912
-39.187
-39.44
-39.663
-39.853
-40.012
-40.133
-40.198
-40.214
-40.201
-40.176
-40.163
-40.158
-40.123
-40.056
-39.997
-39.916
-39.727
-39.366
-38.76
-37.909
-36.931
-35.856
-34.566
-33.205
-32.212
-31.66
-31.435
-31.6
-31.663
-32.602
-37.1
-44.388
-52.089
-55.972
-48.363
-30.263
-9.247
6.955
7.392
-7.908
-28.742
-47.272
-54.81
-50.413
-41.751
-33.348
-28.504
-27.966
-28.579
-29.048
-29.442
-29.667
-30.206
-31.138
-32.038
-32.79
-33.46
-34.03
-34.481
-34.825
-35.077
-35.278
-35.496
-35.751
-36.007
-36.254
-36.496
-36.732
-36.965
-37.195
-37.413
-37.619
-37.819
-38.019
-38.222
-38.431
-38.649
-38.877
-39.12
-39.382
-39.663
-39.969
-40.3
-40.661
-41.052
-41.476
-41.935
-42.429
-42.959
-43.525
-44.126
-44.76
-45.425
-46.119
-46.838
-47.578
-48.336
-49.107
-49.885
-50.666
-51.443
-52.209
-52.958
-53.681
-54.372
-55.021
-55.621
-56.163
-56.64
-57.042
-57.363
-57.594
-57.73
-57.764
-57.69
-57.501
-57.194
-56.763
-56.206
-55.519
-54.701
-53.751
-52.669
-51.457
-50.118
-48.654
-47.07
-45.372
-43.565
-41.657
-39.657
-37.572
-35.413
-33.191
-30.917
-28.604
-26.265
-23.916
-21.569
-19.243
-16.955
-14.72
-12.556
-10.482
-8.513
-6.667
-4.961
-3.407
-2.018
-0.807
0.215
1.038
1.65
2.043
2.207
2.136
1.827
1.273
0.474
-0.566
-1.842
-3.347
-5.078
-7.04
-9.234
-11.656
-14.301
-17.161
-20.222
-23.463
-26.852
-30.346
-33.897
-37.454
-40.975
-44.424
-47.764
-50.957
-53.952
-56.694
-59.13
-61.223
-62.939
-64.251
-65.149
-65.657
-65.829
-65.761
-65.553
-65.28
-65.028
-64.888
-64.954
-65.329
-66.13
-67.435
-69.35
-72.031
-75.502
-79.679
-84.342
-89.036
-93.309
-96.807
-99.004
-99.288
-97.459
-93.593
-88.224
-82.516
-77.308
-73.088
-70.689
-70.864
-73.551
-78.09
-82.652
-84.244
-80.625
-69.646
-48.413
-14.664
33.069
94.118
164.22
239.78
318.816
399.967
483.905
564.217
627.96
664.628
664.248
626.907
563.84
481.129
381.789
268.804
142.525
15.178
-90.262
-159.213
-185.608
-177.352
-156.119
-136.183
-123.213
-116.529
-108.929
-98.224
-86.573
-76.329
-70.686
-70.124
-72.899
-77.513
-82.068
-84.948
-85.652
-84.105
-80.618
-75.933
-70.69
-65.396
-60.645
-56.989
-54.699
-53.841
-54.3
-55.796
-58.097
-61.022
-64.371
-67.95
-71.587
-75.121
-78.421
-81.391
-83.953
-86.048
-87.641
-88.715
-89.271
-89.332
-88.94
-88.146
-87.001
-85.553
-83.846
-81.923
-79.837
-77.648
-75.411
-73.182
-70.995
-68.875
-66.836
-64.885
-63.023
-61.239
-59.517
-57.834
-56.174
-54.523
-52.869
-51.2
-49.501
-47.756
-45.949
-44.065
-42.09
-40.013
-37.822
-35.506
-33.059
-30.474
-27.746
-24.871
-21.844
-18.66
-15.314
-11.8
-8.115
-4.256
-0.222
3.988
8.374
12.932
17.658
22.546
27.59
32.782
38.112
43.571
49.146
54.824
60.593
66.437
72.339
78.283
84.251
90.223
96.181
102.105
107.973
113.765
119.46
125.037
130.475
135.754
140.851
145.748
150.424
154.861
159.041
162.946
166.559
169.866
172.854
175.509
177.82
179.779
181.376
182.606
183.463
183.944
184.047
183.772
183.12
182.095
180.701
178.944
176.832
174.374
171.581
168.465
165.04
161.321
157.322
153.062
148.557
143.828
138.894
133.774
128.49
123.063
117.514
111.865
106.137
100.353
94.532
88.698
82.869
77.067
71.311
65.62
60.012
54.503
49.111
43.849
38.731
33.771
28.98
24.368
19.945
15.718
11.693
7.877
4.272
0.882
-2.292
-5.25
-7.994
-10.526
-12.849
-14.967
-16.887
-18.613
-20.154
-21.517
-22.711
-23.744
-24.626
-25.369
-25.981
-26.473
-26.857
-27.143
-27.342
-27.463
-27.518
-27.515
-27.466
-27.378
-27.262
-27.125
-26.976
-26.822
-26.67
-26.527
-26.398
-26.288
-26.202
-26.144
-26.116
-26.121
-26.162
-26.24
-26.355
-26.508
-26.699
-26.927
-27.191
-27.488
-27.817
-28.176
-28.56
-28.967
-29.395
-29.839
-30.296
-30.764
-31.239
-31.717
-32.197
-32.674
-33.146
-33.611
-34.064
-34.504
-34.929
-35.337
-35.725
-36.092
-36.437
-36.759
-37.056
-37.328
-37.574
-37.793
-37.985
-38.15
-38.289
-38.402
-38.49
-38.555
-38.598
-38.62
-38.623
-38.61
-38.582
-38.541
-38.488
-38.426
-38.357
-38.282
-38.204
-38.123
-38.043
-37.965
-37.89
-37.821
-37.76
-37.707
-37.665
-37.634
-37.618
-37.618
-37.634
-37.671
-37.728
-37.809
-37.914
-38.046
-38.206
-38.396
-38.615
-38.866
-39.149
-39.464
-39.812
-40.193
-40.607
-41.055
-41.537
-42.051
-42.599
-43.179
-43.79
-44.432
-45.103
-45.803
-46.528
-47.278
-48.05
-48.843
-49.652
-50.475
-51.31
-52.151
-52.994
-53.836
-54.671
-55.494
-56.3
-57.082
-57.835
-58.554
-59.232
-59.863
-60.441
-60.961
-61.416
-61.801
-62.11
-62.338
-62.479
-62.529
-62.482
-62.335
-62.083
-61.722
-61.25
-60.663
-59.96
-59.14
-58.202
-57.145
-55.97
-54.679
-53.273
-51.757
-50.133
-48.406
-46.582
-44.667
-42.669
-40.596
-38.457
-36.261
-34.019
-31.743
-29.445
-27.138
-24.833
-22.544
-20.284
-18.068
-15.91
-13.824
-11.824
-9.925
-8.145
-6.5
-5.004
-3.675
-2.527
-1.574
-0.831
-0.308
-0.014
0.043
-0.143
-0.58
-1.275
-2.232
-3.453
-4.939
-6.687
-8.695
-10.957
-13.462
-16.194
-19.138
-22.281
-25.614
-29.137
-32.842
-36.72
-40.758
-44.938
-49.241
-53.645
-58.116
-62.609
-67.081
-71.49
-75.801
-79.989
-84.018
-87.839
-91.399
-94.63
-97.48
-99.908
-101.871
-103.344
-104.322
-104.811
-104.845
-104.475
-103.752
-102.739
-101.518
-100.17
-98.794
-97.496
-96.413
-95.754
-95.641
-96.05
-96.83
-97.638
-98.078
-97.86
-96.618
-93.823
-89.209
-82.951
-75.67
-68.578
-62.949
-59.606
-59.266
-62.793
-70.509
-81.718
-94.677
-106.426
-113.529
-113.143
-102.641
-79.034
-40.007
15.103
85.309
167.542
257.176
349.496
439.152
519.302
583.039
624.477
640.527
631.969
600.752
549.323
476.667
378.803
258.631
124.528
-5.946
-107.057
-165.208
-179.362
-160.19
-130.357
-104.761
-88.078
-79.677
-73.016
-65.172
-57.862
-53.165
-53.34
-58.165
-65.532
-73.185
-78.955
-81.886
-81.849
-79.004
-73.969
-67.492
-60.278
-53.152
-46.869
-41.782
-38.03
-35.59
-34.275
-33.936
-34.434
-35.575
-37.164
-39.054
-41.134
-43.3
-45.473
-47.539
-49.363
-50.857
-51.963
-52.655
-52.933
-52.809
-52.299
-51.432
-50.256
-48.812
-47.141
-45.285
-43.278
-41.169
-39.008
-36.85
-34.744
-32.728
-30.822
-29.036
-27.37
-25.815
-24.358
-22.979
-21.655
-20.365
-19.092
-17.82
-16.536
-15.223
-13.862
-12.435
-10.925
-9.316
-7.595
-5.75
-3.771
-1.651
0.617
3.036
5.61
8.342
11.235
14.293
17.518
20.914
24.479
28.215
32.12
36.191
40.424
44.811
49.346
54.019
58.82
63.738
68.759
73.871
79.057
84.303
89.592
94.905
100.226
105.534
110.812
116.038
121.195
126.262
131.22
136.049
140.73
145.246
149.577
153.706
157.616
161.291
164.714
167.87
170.746
173.328
175.604
177.563
179.195
180.493
181.449
182.058
182.316
182.221
181.773
180.972
179.82
178.322
176.481
174.306
171.804
168.985
165.859
162.437
158.733
154.76
150.533
146.067
141.379
136.484
131.401
126.147
120.74
115.201
109.547
103.799
97.975
92.096
86.182
80.25
74.322
68.415
62.548
56.738
51.002
45.356
39.815
34.393
29.104
23.959
18.969
14.144
9.492
5.021
0.738
-3.353
-7.247
-10.941
-14.433
-17.721
-20.806
-23.687
-26.366
-28.846
-31.131
-33.223
-35.129
-36.854
-38.403
-39.785
-41.005
-42.073
-42.997
-43.785
-44.446
-44.989
-45.423
-45.757
-46
-46.16
-46.245
-46.264
-46.223
-46.131
-45.993
-45.816
-45.606
-45.369
-45.11
-44.834
-44.545
-44.248
-43.946
-43.642
-43.341
-43.043
-42.752
-42.47
-42.198
-41.937
-41.689
-41.454
-41.232
-41.024
-40.829
-40.647
-40.477
-40.317
-40.167
-40.026
-39.893
-39.767
-39.647
-39.533
-39.423
-39.317
-39.216
-39.118
-39.023
-38.931
-38.842
-38.756
-38.673
-38.592
-38.514
-38.44
-38.368
-38.299
-38.234
-38.171
-38.111
-38.055
-38.001
-37.951
-37.904
-37.86
-37.82
-37.785
-37.754
-37.73
-37.711
-37.699
-37.694
-37.697
-37.709
-37.728
-37.757
-37.794
-37.84
-37.896
-37.96
-38.034
-38.117
-38.209
-38.31
-38.421
-38.54
-38.668
-38.804
-38.95
-39.104
-39.268
-39.44
-39.621
-39.812
-40.011
-40.22
-40.437
-40.662
-40.895
-41.135
-41.382
-41.634
-41.89
-42.149
-42.411
-42.673
-42.934
-43.193
-43.449
-43.699
-43.941
-44.175
-44.398
-44.607
-44.801
-44.977
-45.132
-45.265
-45.371
-45.45
-45.496
-45.509
-45.484
-45.418
-45.309
-45.153
-44.948
-44.691
-44.378
-44.007
-43.576
-43.081
-42.522
-41.894
-41.197
-40.429
-39.589
-38.676
-37.688
-36.625
-35.487
-34.273
-32.985
-31.622
-30.187
-28.68
-27.103
-25.459
-23.752
-21.985
-20.162
-18.288
-16.367
-14.405
-12.409
-10.385
-8.338
-6.278
-4.211
-2.146
-0.093
1.941
3.946
5.909
7.821
9.669
11.44
13.125
14.709
16.181
17.531
18.747
19.821
20.745
21.51
22.107
22.526
22.76
22.801
22.643
22.282
21.712
20.931
19.945
18.755
17.367
15.782
13.996
12.006
9.811
7.417
4.83
2.061
-0.868
-3.934
-7.094
-10.307
-13.533
-16.733
-19.878
-22.939
-25.883
-28.667
-31.244
-33.563
-35.59
-37.299
-38.663
-39.678
-40.368
-40.784
-41.017
-41.157
-41.275
-41.446
-41.753
-42.287
-43.152
-44.45
-46.258
-48.68
-51.848
-55.804
-60.481
-65.659
-70.923
-75.827
-79.994
-82.991
-84.291
-83.593
-80.948
-76.78
-71.993
-67.509
-63.878
-61.616
-61.394
-63.417
-67.112
-71.168
-73.349
-71.143
-62.565
-45.653
-18.192
21.395
73.509
137.314
210.468
289.449
370.323
448.478
518.585
575.056
612.802
628.136
618.466
584.145
528.867
455.477
367.1
266.644
154.418
37.681
-70.321
-157.594
-211.576
-230.932
-225.904
-206.331
-183.669
-163.463
-143.843
-125.236
-107.607
-91.541
-80.118
-73.879
-71.613
-72.08
-72.931
-72.141
-69.171
-63.949
-56.751
-48.321
-39.319
-30.309
-22.064
-15.356
-10.58
-7.878
-7.176
-8.175
-10.615
-14.293
-18.941
-24.268
-29.985
-35.792
-41.451
-46.832
-51.837
-56.378
-60.382
-63.75
-66.396
-68.292
-69.445
-69.883
-69.643
-68.757
-67.278
-65.296
-62.942
-60.365
-57.691
-54.998
-52.338
-49.745
-47.254
-44.906
-42.728
-40.721
-38.874
-37.178
-35.628
-34.224
-32.953
-31.784
-30.666
-29.546
-28.381
-27.144
-25.815
-24.379
-22.82
-21.126
-19.29
-17.318
-15.211
-12.965
-10.574
-8.03
-5.328
-2.469
0.542
3.702
7.007
10.454
14.04
17.76
21.609
25.583
29.68
33.896
38.228
42.667
47.205
51.829
56.529
61.291
66.101
70.944
75.803
80.663
85.507
90.32
95.086
99.786
104.405
108.925
113.329
117.6
121.721
125.674
129.445
133.016
136.372
139.499
142.383
145.01
147.369
149.448
151.237
152.726
153.907
154.772
155.316
155.535
155.424
154.983
154.21
153.109
151.682
149.932
147.867
145.492
142.817
139.85
136.601
133.084
129.309
125.293
121.048
116.591
111.938
107.107
102.116
96.982
91.725
86.364
80.918
75.407
69.851
64.27
58.684
53.112
47.574
42.087
36.671
31.342
26.116
21.011
16.039
11.215
6.551
2.058
-2.252
-6.373
-10.295
-14.013
-17.522
-20.817
-23.897
-26.761
-29.407
-31.838
-34.054
-36.06
-37.858
-39.455
-40.855
-42.066
-43.096
-43.952
-44.644
-45.181
-45.574
-45.833
-45.968
-45.99
-45.909
-45.736
-45.483
-45.158
-44.774
-44.339
-43.864
-43.357
-42.827
-42.283
-41.731
-41.179
-40.632
-40.097
-39.577
-39.077
-38.601
-38.151
-37.732
-37.344
-36.989
-36.669
-36.382
-36.13
-35.91
-35.723
-35.565
-35.435
-35.331
-35.249
-35.188
-35.143
-35.113
-35.095
-35.084
-35.077
-35.072
-35.066
-35.054
-35.034
-35.003
-34.959
-34.899
-34.822
-34.725
-34.607
-34.468
-34.305
-34.119
-33.908
-33.672
-33.412
-33.127
-32.817
-32.484
-32.128
-31.752
-31.356
-30.944
-30.517
-30.077
-29.627
-29.171
-28.709
-28.245
-27.781
-27.321
-26.867
-26.421
-25.988
-25.569
-25.168
-24.788
-24.432
-24.101
-23.8
-23.529
-23.293
-23.092
-22.93
-22.808
-22.728
-22.692
-22.702
-22.76
-22.866
-23.022
-23.228
-23.483
-23.789
-24.144
-24.547
-24.997
-25.492
-26.032
-26.614
-27.237
-27.898
-28.595
-29.327
-30.089
-30.88
-31.695
-32.533
-33.389
-34.259
-35.139
-36.026
-36.915
-37.801
-38.68
-39.546
-40.396
-41.223
-42.022
-42.789
-43.518
-44.203
-44.84
-45.424
-45.951
-46.417
-46.817
-47.149
-47.41
-47.596
-47.707
-47.738
-47.689
-47.557
-47.341
-47.04
-46.654
-46.181
-45.623
-44.978
-44.249
-43.437
-42.545
-41.575
-40.529
-39.411
-38.226
-36.98
-35.678
-34.326
-32.931
-31.5
-30.043
-28.568
-27.082
-25.597
-24.12
-22.662
-21.235
-19.849
-18.516
-17.246
-16.05
-14.94
-13.925
-13.013
-12.213
-11.532
-10.975
-10.551
-10.268
-10.134
-10.154
-10.334
-10.678
-11.19
-11.872
-12.719
-13.728
-14.893
-16.213
-17.692
-19.335
-21.139
-23.103
-25.222
-27.484
-29.874
-32.365
-34.922
-37.504
-40.074
-42.599
-45.055
-47.418
-49.654
-51.723
-53.578
-55.176
-56.487
-57.485
-58.142
-58.449
-58.432
-58.147
-57.68
-57.12
-56.519
-55.937
-55.459
-55.17
-55.179
-55.607
-56.518
-58.006
-60.227
-63.196
-66.84
-70.956
-75.052
-78.658
-81.484
-83.1
-83.039
-81.264
-77.887
-73.418
-69.094
-65.794
-63.906
-64.045
-66.614
-71.212
-77.132
-82.753
-85.036
-81.584
-70.743
-50.398
-18.707
25.238
81.871
148.772
219.821
289.883
355.967
418.6
480.738
541.098
591.135
616.338
604.428
551.542
463.938
354.605
234.067
110.553
-7.48
-108.743
-179.494
-212.375
-210.819
-188.702
-162.013
-139.886
-123.427
-107.812
-89.684
-69.788
-51
-37.221
-30.212
-29.789
-34.891
-43.37
-53.021
-62.084
-69.435
-74.764
-77.953
-78.618
-76.707
-72.621
-67.237
-61.837
-57.194
-53.517
-50.934
-49.578
-49.519
-50.765
-53.036
-55.739
-58.474
-61.044
-63.312
-65.26
-66.852
-68.003
-68.717
-69.073
-69.129
-68.934
-68.517
-67.856
-66.957
-65.847
-64.554
-63.134
-61.639
-60.112
-58.601
-57.136
-55.739
-54.426
-53.207
-52.08
-51.04
-50.071
-49.154
-48.281
-47.441
-46.622
-45.812
-44.988
-44.132
-43.227
-42.255
-41.204
-40.061
-38.812
-37.448
-35.958
-34.338
-32.581
-30.683
-28.638
-26.44
-24.084
-21.565
-18.879
-16.025
-12.999
-9.799
-6.426
-2.881
0.834
4.713
8.751
12.941
17.274
21.74
26.327
31.023
35.814
40.685
45.62
50.603
55.616
60.642
65.662
70.657
75.608
80.496
85.301
90.005
94.589
99.033
103.319
107.43
111.347
115.054
118.534
121.77
124.749
127.454
129.874
131.995
133.807
135.301
136.469
137.304
137.802
137.959
137.774
137.247
136.378
135.171
133.629
131.759
129.567
127.061
124.252
121.148
117.762
114.106
110.194
106.04
101.658
97.065
92.275
87.307
82.177
76.903
71.503
65.996
60.4
54.735
49.018
43.269
37.506
31.747
26.01
20.312
14.669
9.097
3.611
-1.775
-7.048
-12.195
-17.203
-22.063
-26.764
-31.296
-35.65
-39.819
-43.796
-47.573
-51.146
-54.508
-57.655
-60.583
-63.289
-65.77
-68.023
-70.048
-71.843
-73.408
-74.744
-75.851
-76.732
-77.387
-77.819
-78.031
-78.026
-77.806
-77.375
-76.736
-75.892
-74.848
-73.608
-72.174
-70.552
-68.745
-66.758
-64.597
-62.265
-59.77
-57.115
-54.308
