Name
Date of Birth,"Mar 27, 1959"
Recorded Date,2021-02-01 21:38:34 -0500
Classification,Sinus Rhythm
Symptoms,
Software Version,1.90
Device,"Watch4,2"
Sample Rate,510.227 hertz


Lead,Lead I
Unit,µV

43.9
65.157
87.784
110.527
131.95
150.802
166.203
177.381
184.064
186.56
185.173
180.714
172.972
159.797
140.571
117.417
97.122
91.156
106.547
139.223
173.206
185.248
158.91
96.806
20.285
-40.999
-64.703
-48.077
-7.343
33.932
58.188
60.685
48.393
32.76
21.172
15.566
14.212
13.816
13.054
12.121
11.198
10.548
9.975
8.966
7.295
4.894
1.684
-2.32
-7.017
-12.299
-18.035
-24.109
-30.457
-37.048
-43.832
-50.758
-57.793
-64.895
-72.025
-79.141
-86.191
-93.129
-99.925
-106.556
-113.005
-119.258
-125.302
-131.131
-136.745
-142.14
-147.308
-152.245
-156.941
-161.391
-165.594
-169.551
-173.261
-176.725
-179.944
-182.917
-185.648
-188.136
-190.383
-192.389
-194.153
-195.676
-196.963
-198.018
-198.846
-199.453
-199.846
-200.032
-200.021
-199.82
-199.437
-198.881
-198.159
-197.28
-196.253
-195.087
-193.791
-192.378
-190.859
-189.248
-187.559
-185.806
-184.004
-182.168
-180.312
-178.449
-176.59
-174.748
-172.934
-171.162
-169.447
-167.804
-166.244
-164.78
-163.422
-162.179
-161.061
-160.072
-159.21
-158.477
-157.877
-157.419
-157.124
-157.008
-157.083
-157.354
-157.823
-158.487
-159.343
-160.376
-161.552
-162.84
-164.205
-165.619
-167.064
-168.515
-169.924
-171.236
-172.379
-173.289
-173.916
-174.228
-174.202
-173.832
-173.133
-172.139
-170.906
-169.517
-168.063
-166.652
-165.391
-164.396
-163.782
-163.716
-164.444
-166.105
-168.66
-171.892
-175.358
-178.602
-181.341
-183.234
-183.728
-182.549
-179.879
-176.363
-173.363
-172.244
-173.63
-177.913
-185.638
-196.773
-210.427
-224.832
-236.759
-242.449
-239.327
-225.426
-198.238
-155.669
-97.089
-22.796
63.234
153.216
243.116
330.715
414.549
497.05
571.492
623.517
642.279
617.301
550.619
456.657
343.34
217.473
84.109
-53.17
-176.483
-265.641
-310.267
-310.74
-284.152
-250.166
-219.382
-194.465
-170.291
-143.267
-115.278
-90.112
-72.886
-66.508
-70.415
-82.707
-100.443
-120.321
-139.637
-156.707
-170.404
-179.727
-184.35
-184.521
-180.92
-175.037
-168.514
-162.225
-156.698
-152.405
-149.459
-147.877
-147.579
-148.038
-148.607
-148.967
-148.968
-148.538
-147.721
-146.512
-144.891
-142.984
-140.986
-139.026
-137.188
-135.496
-133.919
-132.462
-131.155
-130
-128.982
-128.061
-127.161
-126.239
-125.285
-124.275
-123.182
-121.952
-120.498
-118.752
-116.675
-114.232
-111.404
-108.169
-104.501
-100.404
-95.902
-91.038
-85.873
-80.45
-74.785
-68.9
-62.812
-56.542
-50.127
-43.596
-36.96
-30.235
-23.441
-16.598
-9.739
-2.883
3.963
10.799
17.633
24.468
31.297
38.111
44.902
51.652
58.358
65.02
71.641
78.232
84.811
91.399
98.028
104.735
111.544
118.463
125.493
132.622
139.834
147.106
154.415
161.738
169.032
176.236
183.272
190.036
196.421
202.312
207.586
212.104
215.753
218.448
220.123
220.736
220.259
218.673
215.963
212.124
207.17
201.134
194.088
186.14
177.418
168.062
158.238
148.126
137.884
127.641
117.504
107.552
97.861
88.501
79.54
71.049
63.087
55.715
48.96
42.812
37.24
32.189
27.581
23.319
19.323
15.533
11.911
8.442
5.113
1.912
-1.177
-4.17
-7.09
-9.975
-12.846
-15.709
-18.55
-21.338
-24.026
-26.553
-28.869
-30.935
-32.728
-34.244
-35.481
-36.445
-37.141
-37.58
-37.764
-37.685
-37.339
-36.726
-35.857
-34.751
-33.441
-31.962
-30.351
-28.642
-26.862
-25.032
-23.17
-21.29
-19.402
-17.513
-15.634
-13.778
-11.963
-10.202
-8.51
-6.895
-5.364
-3.923
-2.574
-1.319
-0.161
0.899
1.858
2.712
3.457
4.09
4.605
5.002
5.279
5.435
5.471
5.39
5.192
4.879
4.452
3.916
3.278
2.54
1.709
0.788
-0.224
-1.315
-2.47
-3.697
-5.002
-6.385
-7.854
-9.386
-10.945
-12.544
-14.195
-15.84
-17.429
-18.925
-20.273
-21.505
-22.695
-23.795
-24.716
-25.66
-26.865
-28.174
-29.591
-31.156
-32.326
-34.523
-39.131
-44.152
-48.979
-49.949
-42.679
-32.005
-21.145
-14.903
-19.885
-30.251
-41.05
-48.895
-48.188
-42.958
-37.303
-32.154
-30.01
-29.441
-28.594
-27.824
-26.896
-25.942
-25.341
-24.839
-24.227
-23.563
-22.861
-22.096
-21.261
-20.334
-19.261
-18.03
-16.663
-15.149
-13.497
-11.738
-9.897
-8.013
-6.146
-4.372
-2.759
-1.362
-0.208
0.667
1.212
1.341
0.936
-0.096
-1.804
-4.209
-7.304
-11.077
-15.498
-20.499
-25.961
-31.739
-37.698
-43.742
-49.804
-55.801
-61.621
-67.12
-72.122
-76.49
-80.131
-82.971
-84.975
-86.13
-86.446
-85.99
-84.876
-83.249
-81.275
-79.097
-76.845
-74.692
-72.775
-71.312
-70.661
-70.941
-72.097
-73.899
-75.742
-77.092
-77.701
-77.064
-74.51
-69.999
-63.809
-56.88
-51.259
-48.415
-49.005
-53.969
-63.855
-77.947
-94.906
-111.903
-124.038
-127.321
-118.956
-95.334
-53.504
7.22
86.709
181.121
281.749
383.28
482.15
574.831
661.963
736.746
787.163
804.813
779.155
710.636
608.248
477.876
334.313
192.286
65.733
-25.924
-75.586
-88.996
-79.518
-65.012
-56.273
-53.429
-51.149
-46.401
-39.669
-34.016
-33.891
-40.155
-50.748
-63.79
-76.855
-87.57
-95.085
-98.928
-98.828
-95.467
-89.652
-81.976
-73.328
-64.657
-56.499
-49.215
-43
-37.736
-33.333
-29.752
-26.853
-24.504
-22.611
-21.08
-19.874
-19.003
-18.451
-18.183
-18.143
-18.241
-18.376
-18.464
-18.42
-18.16
-17.632
-16.808
-15.678
-14.257
-12.575
-10.661
-8.536
-6.219
-3.707
-0.99
1.927
5.025
8.266
11.608
15.001
18.386
21.721
24.972
28.12
31.166
34.121
36.997
39.808
42.565
45.271
47.918
50.503
53.026
55.495
57.931
60.356
62.803
65.303
67.88
70.555
73.338
76.234
79.243
82.362
85.584
88.906
92.325
95.838
99.444
103.137
106.907
110.74
114.618
118.523
122.433
126.326
130.181
133.975
137.69
141.305
144.802
148.162
151.364
154.389
157.215
159.822
162.19
164.299
166.131
167.668
168.896
169.799
170.367
170.589
170.456
169.961
169.097
167.861
166.252
164.267
161.911
159.184
156.095
152.65
148.86
144.737
140.294
135.547
130.511
125.206
119.65
113.864
107.868
101.683
95.333
88.84
82.228
75.519
68.737
61.905
55.047
48.184
41.341
34.537
27.793
21.131
14.569
8.126
1.819
-4.334
-10.319
-16.121
-21.727
-27.125
-32.306
-37.259
-41.978
-46.456
-50.688
-54.67
-58.4
-61.876
-65.097
-68.063
-70.775
-73.237
-75.449
-77.417
-79.144
-80.634
-81.892
-82.924
-83.736
-84.333
-84.722
-84.909
-84.903
-84.71
-84.338
-83.794
-83.088
-82.227
-81.217
-80.068
-78.787
-77.38
-75.854
-74.217
-72.475
-70.635
-68.702
-66.684
-64.587
-62.418
-60.181
-57.885
-55.536
-53.14
-50.703
-48.233
-45.736
-43.22
-40.693
-38.163
-35.636
-33.121
-30.625
-28.156
-25.721
-23.326
-20.979
-18.686
-16.453
-14.288
-12.197
-10.186
-8.26
-6.424
-4.685
-3.049
-1.52
-0.103
1.199
2.381
3.439
4.37
5.171
5.845
6.391
6.813
7.108
7.276
7.314
7.224
7.008
6.669
6.209
5.633
4.946
4.163
3.302
2.378
1.406
0.391
-0.665
-1.753
-2.86
-3.967
-5.052
-6.097
-7.083
-7.989
-8.794
-9.482
-10.044
-10.496
-10.869
-11.191
-11.494
-11.78
-12.029
-12.236
-12.402
-12.554
-12.757
-13.042
-13.409
-13.857
-14.35
-14.893
-15.554
-16.287
-16.936
-17.427
-17.73
-18.064
-18.964
-20.68
-23.108
-26.067
-29.251
-32.337
-35.15
-36.913
-36.161
-31.975
-24.184
-13.398
-1.167
11.075
22.499
31.634
36.217
34.474
25.348
9.338
-11.155
-33.759
-57.07
-79.459
-98.873
-113.365
-121.129
-121.958
-117.785
-110.788
-102.311
-93.405
-84.988
-78.126
-74.266
-73.927
-76.193
-79.781
-83.816
-87.904
-92.057
-96.18
-99.752
-102.496
-104.695
-106.842
-109.311
-112.198
-115.322
-118.529
-121.967
-125.797
-129.904
-134.231
-138.838
-143.197
-146.513
-148.228
-147.121
-143.617
-140.373
-136.485
-129.942
-117.759
-92.995
-58.885
-25.407
0.09
5.918
-7.445
-28.633
-53.797
-75.052
-86.043
-86.161
-63.99
-7.705
85.268
215.485
376.25
551.652
725.207
876.735
978.926
1009.728
961.142
836.024
651.076
434.549
210.351
2.923
-160.101
-264.745
-307.445
-296.254
-256.47
-210.715
-170.325
-139.169
-111.235
-79.679
-45.737
-13.832
10.479
21.716
19.432
6.242
-14.609
-39.104
-64.012
-86.977
-106.11
-119.961
-127.909
-130.204
-127.768
-122.082
-114.728
-107.218
-100.607
-95.619
-92.687
-91.821
-92.823
-95.301
-98.688
-102.391
-106.016
-109.328
-112.181
-114.544
-116.386
-117.684
-118.488
-118.864
-118.85
-118.45
-117.651
-116.436
-114.812
-112.817
-110.492
-107.884
-105.039
-102.001
-98.822
-95.554
-92.24
-88.913
-85.596
-82.304
-79.045
-75.829
-72.653
-69.511
-66.393
-63.286
-60.177
-57.05
-53.889
-50.681
-47.416
-44.085
-40.675
-37.175
-33.57
-29.848
-26.008
-22.049
-17.974
-13.79
-9.505
-5.136
-0.714
3.733
8.181
12.614
17.034
21.44
25.827
30.19
34.521
38.825
43.121
47.425
51.74
56.08
60.452
64.888
69.447
74.173
79.093
84.212
89.499
94.924
100.458
106.049
111.638
117.141
122.443
127.455
132.108
136.329
140.05
143.175
145.573
147.143
147.812
147.534
146.301
144.112
140.969
136.911
132.008
126.358
120.091
113.308
106.081
98.491
90.612
82.542
74.408
66.308
58.317
50.497
42.891
35.538
28.483
21.731
15.262
9.042
3.014
-2.852
-8.561
-14.122
-19.538
-24.821
-29.994
-35.063
-40.017
-44.851
-49.556
-54.126
-58.558
-62.836
-66.927
-70.797
-74.409
-77.737
-80.772
-83.505
-85.931
-88.047
-89.855
-91.362
-92.587
-93.541
-94.237
-94.686
-94.898
-94.888
-94.678
-94.287
-93.735
-93.041
-92.222
-91.293
-90.273
-89.175
-88.012
-86.794
-85.532
-84.236
-82.916
-81.584
-80.249
-78.922
-77.609
-76.32
-75.061
-73.837
-72.654
-71.512
-70.415
-69.362
-68.354
-67.389
-66.465
-65.579
-64.728
-63.906
-63.109
-62.333
-61.573
-60.822
-60.075
-59.326
-58.572
-57.81
-57.033
-56.231
-55.395
-54.518
-53.594
-52.628
-51.612
-50.526
-49.375
-48.183
-46.971
-45.761
-44.551
-43.291
-41.977
-40.653
-39.282
-37.761
-36.014
-33.952
-31.57
-29.004
-26.288
-23.283
-20.148
-17.392
-15.108
-13.155
-11.604
-9.888
-9.107
-12.399
-18.936
-25.905
-28.423
-17.529
5.81
32.7
54.134
57.345
42.09
20.322
1.238
-5.053
2.758
15.697
28.396
37.023
40.611
42.831
45.239
47.733
50.418
52.727
54.543
56.35
58.28
60.241
62.239
64.286
66.352
68.406
70.387
72.201
73.812
75.248
76.51
77.582
78.456
79.118
79.562
79.787
79.786
79.545
79.052
78.298
77.278
75.989
74.434
72.614
70.533
68.193
65.59
62.722
59.592
56.199
52.549
48.65
44.517
40.181
35.688
31.08
26.403
21.699
17
12.347
7.78
3.341
-0.914
-4.94
-8.694
-12.133
-15.216
-17.915
-20.234
-22.229
-23.991
-25.616
-27.185
-28.749
-30.375
-32.165
-34.223
-36.658
-39.58
-43.029
-47.107
-52.011
-57.768
-64.252
-71.134
-77.739
-83.443
-87.834
-90.333
-90.321
-87.667
-82.556
-75.811
-69.083
-63.672
-60.454
-60.437
-64.238
-71.43
-80.791
-89.787
-94.64
-91.823
-77.903
-49.326
-3.36
59.488
135.613
220.543
309.829
403.772
505.06
609.824
706.317
774.287
792.713
753.236
663.375
543.951
417.28
297.685
190.393
92.803
4.17
-71.875
-131.192
-169.577
-186.5
-185.59
-171.594
-149.506
-124.585
-101.416
-82.908
-70.628
-64.85
-64.593
-68.428
-74.883
-81.921
-87.45
-90.418
-90.476
-87.857
-83.365
-77.743
-71.604
-65.764
-61.016
-57.743
-56.071
-55.885
-56.86
-58.755
-61.377
-64.481
-67.828
-71.205
-74.422
-77.332
-79.83
-81.822
-83.238
-84.03
-84.177
-83.683
-82.577
-80.906
-78.73
-76.107
-73.094
-69.746
-66.118
-62.276
-58.293
-54.238
-50.183
-46.177
-42.255
-38.444
-34.761
-31.213
-27.799
-24.508
-21.323
-18.232
-15.226
-12.297
-9.436
-6.632
-3.869
-1.129
1.604
4.348
7.117
9.923
12.781
15.704
18.704
21.798
24.991
28.286
31.689
35.198
38.811
42.523
46.319
50.178
54.086
58.028
61.996
65.984
69.978
73.965
77.936
81.874
85.774
89.643
93.491
97.33
101.194
105.113
109.129
113.298
117.646
122.186
126.925
131.854
136.968
142.259
147.698
153.259
158.907
164.587
170.236
175.775
181.084
186.046
190.534
194.402
197.545
199.877
201.316
201.796
201.255
199.638
196.916
193.077
188.102
181.995
174.78
166.511
157.302
147.273
136.552
125.293
113.627
101.674
89.572
77.455
65.454
53.71
42.34
31.444
21.138
11.531
2.705
-5.288
-12.444
-18.776
-24.302
-29.061
-33.089
-36.431
-39.156
-41.34
-43.066
-44.435
-45.535
-46.439
-47.236
-48.013
-48.842
-49.777
-50.844
-52.053
-53.413
-54.927
-56.59
-58.389
-60.294
-62.267
-64.265
-66.23
-68.116
-69.889
-71.51
-72.946
-74.171
-75.168
-75.933
-76.474
-76.8
-76.917
-76.839
-76.58
-76.164
-75.618
-74.972
-74.261
-73.514
-72.751
-71.994
-71.256
-70.549
-69.882
-69.258
-68.672
-68.123
-67.608
-67.128
-66.68
-66.262
-65.868
-65.494
-65.134
-64.785
-64.442
-64.105
-63.772
-63.441
-63.115
-62.793
-62.478
-62.172
-61.876
-61.588
-61.309
-61.037
-60.771
-60.51
-60.254
-60
-59.749
-59.501
-59.257
-59.019
-58.787
-58.563
-58.351
-58.151
-57.967
-57.801
-57.655
-57.531
-57.431
-57.357
-57.31
-57.29
-57.299
-57.335
-57.399
-57.488
-57.602
-57.738
-57.894
-58.067
-58.255
-58.454
-58.66
-58.871
-59.08
-59.285
-59.48
-59.661
-59.823
-59.959
-60.064
-60.132
-60.155
-60.129
-60.045
-59.899
-59.683
-59.394
-59.027
-58.578
-58.045
-57.427
-56.722
-55.933
-55.062
-54.112
-53.087
-51.994
-50.837
-49.627
-48.372
-47.081
-45.764
-44.433
-43.097
-41.772
-40.47
-39.205
-37.989
-36.837
-35.766
-34.79
-33.929
-33.195
-32.6
-32.154
-31.87
-31.759
-31.836
-32.111
-32.59
-33.277
-34.176
-35.289
-36.616
-38.146
-39.853
-41.708
-43.678
-45.738
-47.867
-50.042
-52.233
-54.406
-56.524
-58.555
-60.47
-62.24
-63.834
-65.229
-66.41
-67.384
-68.203
-68.943
-69.675
-70.468
-71.366
-72.383
-73.562
-74.979
-76.711
-78.846
-81.473
-84.613
-88.345
-92.837
-98.06
-103.82
-109.714
-114.983
-118.956
-121.253
-121.353
-118.71
-113.346
-105.562
-96.229
-87.222
-79.985
-75.299
-74.199
-77.261
-83.777
-92.493
-100.958
-104.892
-100.727
-85.825
-56.73
-10.815
52.122
131.454
223.271
319.32
414.327
504.206
585.409
658.917
718.755
754.616
757.836
716.192
631.781
516.806
382.72
251.724
135.616
37.9
-33.222
-83.352
-117.183
-135.179
-144.393
-145.082
-136.774
-123.479
-107.935
-94.397
-86.302
-84.134
-87.207
-93.778
-102.212
-110.865
-117.601
-121.185
-121.097
-117.276
-110.522
-101.698
-91.479
-80.818
-70.679
-61.633
-54.049
-48.025
-43.367
-39.967
-37.743
-36.556
-36.312
-36.915
-38.27
-40.304
-42.925
-45.998
-49.373
-52.872
-56.336
-59.639
-62.647
-65.279
-67.499
-69.266
-70.577
-71.419
-71.745
-71.54
-70.814
-69.579
-67.884
-65.783
-63.317
-60.56
-57.591
-54.48
-51.308
-48.125
-44.944
-41.782
-38.645
-35.535
-32.475
-29.472
-26.516
-23.602
-20.719
-17.855
-15.005
-12.149
-9.255
-6.293
-3.228
-0.038
3.285
6.751
10.363
14.122
18.032
22.089
26.281
30.601
35.041
39.595
44.256
49.013
53.848
58.743
63.679
68.634
73.592
78.531
83.431
88.272
93.033
97.696
102.241
106.651
110.903
114.976
118.85
122.506
125.924
129.086
131.975
134.575
136.87
138.849
140.5
141.812
142.776
143.385
143.633
143.516
143.031
142.177
140.955
139.368
137.422
135.121
132.476
129.496
126.193
122.58
118.673
114.487
110.04
105.352
100.442
95.33
90.039
84.591
79.008
73.313
67.528
61.675
55.777
49.856
43.933
38.029
32.165
26.361
20.636
15.008
9.496
4.115
-1.119
-6.192
-11.091
-15.804
-20.321
-24.634
-28.734
-32.615
-36.272
-39.701
-42.9
-45.869
-48.606
-51.114
-53.396
-55.455
-57.295
-58.922
-60.342
-61.561
-62.585
-63.423
-64.082
-64.57
-64.894
-65.065
-65.091
-64.982
-64.746
-64.394
-63.934
-63.377
-62.73
-62.002
-61.202
-60.336
-59.414
-58.441
-57.424
-56.37
-55.284
-54.171
-53.037
-51.885
-50.72
-49.546
-48.366
-47.183
-46.001
-44.822
-43.649
-42.487
-41.337
-40.204
-39.091
-38.001
-36.937
-35.903
-34.902
-33.935
-33.007
-32.118
-31.272
-30.472
-29.719
-29.017
-28.368
-27.774
-27.24
-26.766
-26.358
-26.016
-25.744
-25.544
-25.418
-25.37
-25.4
-25.512
-25.705
-25.982
-26.342
-26.786
-27.311
-27.916
-28.599
-29.355
-30.181
-31.072
-32.022
-33.025
-34.075
-35.165
-36.29
-37.44
-38.61
-39.791
-40.976
-42.155
-43.322
-44.466
-45.58
-46.654
-47.679
-48.647
-49.549
-50.376
-51.119
-51.77
-52.32
-52.762
-53.088
-53.291
-53.365
-53.303
-53.103
-52.762
-52.276
-51.646
-50.871
-49.954
-48.898
-47.707
-46.385
-44.938
-43.374
-41.7
-39.924
-38.058
-36.109
-34.09
-32.012
-29.89
-27.737
-25.569
-23.402
-21.253
-19.138
-17.077
-15.085
-13.179
-11.375
-9.688
-8.133
-6.726
-5.482
-4.418
-3.547
-2.882
-2.432
-2.207
-2.21
-2.443
-2.902
-3.585
-4.491
-5.623
-6.987
-8.586
-10.423
-12.497
-14.8
-17.317
-20.024
-22.887
-25.871
-28.939
-32.057
-35.194
-38.318
-41.395
-44.384
-47.228
-49.866
-52.241
-54.293
-55.97
-57.248
-58.135
-58.664
-58.904
-58.914
-58.736
-58.433
-58.091
-57.815
-57.73
-57.959
-58.598
-59.793
-61.795
-64.731
-68.562
-73.017
-77.513
-81.462
-84.472
-86.093
-85.737
-83.157
-78.535
-72.65
-67.162
-63.629
-62.946
-65.865
-73.014
-84.264
-98.566
-113.582
-125.382
-130.038
-124.24
-104.78
-68.746
-13.78
59.384
146.27
241.381
338.565
436.629
539.743
645.854
747.723
829.398
865.793
844.232
765.41
643.257
505.425
371.648
252.029
149.514
59.131
-19.347
-82.566
-128.082
-153.028
-158.741
-150.261
-132.287
-110.214
-89.342
-72.639
-61.796
-57.578
-59.183
-65.086
-73.791
-83.126
-90.696
-95.279
-96.358
-93.934
-88.753
-81.623
-73.272
-64.734
-57.048
-50.759
-46.119
-43.12
-41.501
-41.086
-41.733
-43.209
-45.273
-47.721
-50.397
-53.193
-56.026
-58.775
-61.296
-63.451
-65.143
-66.33
-66.996
-67.15
-66.814
-66.013
-64.796
-63.22
-61.339
-59.209
-56.881
-54.401
-51.825
-49.208
-46.604
-44.064
-41.623
-39.293
-37.08
-34.977
-32.968
-31.039
-29.17
-27.335
-25.513
-23.682
-21.822
-19.917
-17.948
-15.894
-13.734
-11.448
-9.022
-6.444
-3.712
-0.818
2.243
5.477
8.893
12.492
16.272
20.228
24.357
28.647
33.083
37.636
42.266
46.942
51.644
56.355
61.071
65.782
70.478
75.149
79.787
84.384
88.938
93.439
97.87
102.231
106.531
110.8
115.094
119.443
123.845
128.289
132.743
137.163
141.508
145.713
149.696
153.386
156.719
159.646
162.139
164.15
165.614
166.451
166.557
165.858
164.323
161.933
158.695
154.639
149.807
144.282
138.182
131.606
124.637
117.345
109.773
101.986
94.064
86.096
78.183
70.408
62.83
55.503
48.469
41.75
35.35
29.245
23.375
17.704
12.212
6.89
1.745
-3.223
-8.023
-12.662
-17.148
-21.487
-25.678
-29.727
-33.639
-37.411
-41.029
-44.471
-47.697
-50.684
-53.418
-55.893
-58.109
-60.07
-61.777
-63.238
-64.469
-65.481
-66.285
-66.889
-67.299
-67.526
-67.581
-67.481
-67.242
-66.881
-66.41
-65.842
-65.19
-64.464
-63.676
-62.832
-61.939
-61.002
-60.031
-59.033
-58.016
-56.989
-55.958
-54.929
-53.911
-52.907
-51.923
-50.962
-50.027
-49.119
-48.241
-47.394
-46.577
-45.793
-45.04
-44.32
-43.632
-42.976
-42.352
-41.761
-41.201
-40.673
-40.177
-39.712
-39.278
-38.875
-38.504
-38.164
-37.855
-37.579
-37.335
-37.123
-36.944
-36.797
-36.684
-36.604
-36.557
-36.543
-36.563
-36.617
-36.705
-36.829
-36.989
-37.185
-37.42
-37.692
-38.003
-38.352
-38.741
-39.168
-39.633
-40.135
-40.672
-41.242
-41.844
-42.474
-43.13
-43.807
-44.501
-45.208
-45.923
-46.639
-47.352
-48.055
-48.742
-49.407
-50.042
-50.642
-51.2
-51.709
-52.163
-52.555
-52.88
-53.13
-53.3
-53.384
-53.374
-53.267
-53.056
-52.736
-52.302
-51.751
-51.078
-50.281
-49.358
-48.308
-47.131
-45.828
-44.4
-42.853
-41.189
-39.415
-37.537
-35.564
-33.505
-31.37
-29.169
-26.913
-24.617
-22.293
-19.958
-17.627
-15.316
-13.042
-10.821
-8.672
-6.612
-4.655
-2.817
-1.113
0.443
1.836
3.05
4.069
4.881
5.472
5.832
5.951
5.823
5.447
4.822
3.953
2.837
1.469
-0.154
-2.036
-4.174
-6.564
-9.196
-12.049
-15.098
-18.302
-21.618
-25.003
-28.413
-31.813
-35.164
-38.426
-41.546
-44.464
-47.117
-49.451
-51.417
-52.971
-54.092
-54.792
-55.112
-55.131
-54.929
-54.565
-54.114
-53.668
-53.336
-53.24
-53.516
-54.257
-55.597
-57.748
-60.793
-64.678
-69.178
-73.76
-77.854
-81.048
-82.845
-82.629
-80.142
-75.45
-69.075
-62.409
-56.836
-53.202
-52.319
-54.892
-60.871
-69.509
-79.076
-86.107
-86.72
-77.789
-56.471
-19.948
33.76
105.063
193.024
292.581
395.185
495.341
588.569
671.525
745.203
802.88
833.241
829.317
781.963
693.039
573.316
429.974
277.801
131.424
4.327
-86.194
-134.259
-145.39
-132.638
-112.818
-96.076
-83.911
-72.887
-60.731
-48.15
-37.813
-33.333
-35.417
-42.228
-51.783
-61.457
-69.001
-73.664
-75.128
-73.493
-69.564
-64.16
-58
-51.987
-46.953
-43.298
-41.182
-40.556
-41.141
-42.713
-45.092
-48.051
-51.361
-54.848
-58.369
-61.801
-65.058
-68.026
-70.574
-72.614
-74.09
-74.982
-75.297
-75.063
-74.314
-73.098
-71.477
-69.503
-67.231
-64.715
-62.003
-59.153
-56.225
-53.276
-50.363
-47.524
-44.785
-42.157
-39.641
-37.227
-34.903
-32.649
-30.442
-28.262
-26.095
-23.923
-21.734
-19.514
-17.245
-14.912
-12.5
-9.996
-7.388
-4.667
-1.826
1.14
4.234
7.459
10.813
14.299
17.914
21.66
25.534
29.534
33.656
37.892
42.236
46.678
51.206
55.806
60.463
65.159
69.877
74.596
79.297
83.957
88.557
93.072
97.481
101.761
105.891
109.846
113.607
117.15
120.454
123.501
126.27
128.743
130.903
132.736
134.227
135.364
136.137
136.536
136.556
136.19
135.435
134.292
132.761
130.845
128.55
125.886
122.861
119.488
115.782
111.758
107.434
102.828
97.961
92.853
87.525
82
76.301
70.451
64.475
58.396
52.239
46.027
39.784
33.534
27.3
21.105
14.969
8.913
2.958
-2.877
-8.576
-14.12
-19.495
-24.687
-29.683
-34.473
-39.046
-43.395
-47.514
-51.398
-55.045
-58.452
-61.619
-64.546
-67.236
-69.691
-71.915
-73.911
-75.685
-77.244
-78.592
-79.739
-80.692
-81.458
-82.048
-82.469
-82.732
-82.845
-82.818
-82.661
-82.384
-81.996
-81.507
-80.926
-80.263
-79.525
-78.722
-77.862
-76.952
-75.998
-75.008
-73.986
-72.938
-71.869
-70.782
-69.682
-68.573
-67.457
-66.34
-65.222
-64.109
-63.001
-61.903
-60.817
-59.744
-58.687
-57.648
-56.629
-55.632
-54.658
-53.71
-52.788
-51.895
-51.032
-50.201
-49.402
-48.638
-47.909
-47.217
-46.563
-45.95
-45.378
-44.849
-44.367
-43.932
-43.548
-43.217
-42.94
-42.72
-42.558
-42.455
-42.414
-42.433
-42.515
-42.659
-42.864
-43.131
-43.459
-43.847
-44.294
-44.797
-45.354
-45.962
-46.619
-47.321
-48.064
-48.844
-49.658
-50.499
-51.364
-52.249
-53.147
-54.052
-54.96
-55.863
-56.754
-57.627
-58.473
-59.285
-60.056
-60.777
-61.441
-62.042
-62.572
-63.024
-63.392
-63.67
-63.852
-63.933
-63.907
-63.77
-63.518
-63.148
-62.659
-62.048
-61.316
-60.461
-59.485
-58.39
-57.179
-55.854
-54.419
-52.88
-51.241
-49.51
-47.695
-45.803
-43.846
-41.833
-39.778
-37.695
-35.599
-33.506
-31.431
-29.392
-27.404
-25.486
-23.65
-21.912
-20.284
-18.78
-17.415
-16.202
-15.155
-14.287
-13.608
-13.128
-12.854
-12.79
-12.934
-13.286
-13.839
-14.596
-15.564
-16.748
-18.153
-19.781
-21.631
-23.698
-25.966
-28.408
-30.988
-33.672
-36.421
-39.206
-41.999
-44.774
-47.499
-50.13
-52.609
-54.884
-56.897
-58.601
-59.944
-60.903
-61.493
-61.755
-61.762
-61.573
-61.219
-60.739
-60.205
-59.702
-59.33
-59.224
-59.459
-60.177
-61.643
-63.931
-66.964
-70.456
-73.758
-76.269
-77.648
-77.382
-74.855
-70.06
-63.351
-55.714
-49.137
-45.087
-44.279
-47.731
-56.152
-68.965
-84.821
-100.858
-112.392
-115.824
-108.335
-86.052
-45.816
13.784
91.281
180.711
274.502
368.216
462.882
560.411
657.513
742.899
796.783
802.181
753.87
658.915
533.576
393.57
251.703
118.437
5.264
-74.426
-114.616
-119.119
-101.588
-79.875
-64.963
-58.939
-57.578
-56.334
-54.414
-54.056
-58.511
-68.133
-80.781
-93.8
-104.271
-110.855
-113.509
-112.192
-107.323
-99.715
-90.181
-79.787
-69.654
-60.344
-52.081
-44.977
-38.932
-33.888
-29.838
-26.666
-24.256
-22.552
-21.514
-21.149
-21.459
-22.362
-23.742
-25.463
-27.386
-29.427
-31.531
-33.646
-35.74
-37.767
-39.681
-41.44
-42.978
-44.235
-45.163
-45.698
-45.811
-45.503
-44.782
-43.678
-42.234
-40.469
-38.403
-36.057
-33.433
-30.551
-27.438
-24.124
-20.666
-17.112
-13.506
-9.896
-6.312
-2.775
0.701
4.116
7.485
10.817
14.121
17.41
20.684
23.952
27.227
30.523
33.858
37.251
40.715
44.263
47.912
51.67
55.534
59.492
63.523
67.596
71.687
75.77
79.814
83.793
87.689
91.49
95.199
98.824
102.36
105.796
109.11
112.279
115.301
118.175
120.907
123.516
126.014
128.422
130.778
133.105
135.398
137.633
139.752
141.683
143.38
144.809
145.947
146.782
147.283
147.42
147.171
146.501
145.374
143.748
141.548
138.725
135.272
131.207
126.593
121.521
116.051
110.236
104.128
97.765
91.191
84.457
77.588
70.624
63.612
56.613
49.712
42.985
36.47
30.185
24.118
18.236
12.524
6.972
1.564
-3.701
-8.823
-13.801
-18.617
-23.252
-27.701
-31.967
-36.069
-40.024
-43.834
-47.491
-50.98
-54.274
-57.356
-60.211
-62.82
-65.173
-67.264
-69.092
-70.667
-72.003
-73.11
-73.994
-74.66
-75.111
-75.354
-75.4
-75.26
-74.948
-74.478
-73.863
-73.122
-72.268
-71.317
-70.281
-69.169
-67.99
-66.752
-65.465
-64.138
-62.779
-61.398
-60.003
-58.603
-57.209
-55.828
-54.468
-53.137
-51.839
-50.58
-49.366
-48.201
-47.088
-46.03
-45.032
-44.094
-43.22
-42.412
-41.67
-40.995
-40.387
-39.847
-39.374
-38.967
-38.624
-38.345
-38.128
-37.973
-37.878
-37.842
-37.865
-37.945
-38.083
-38.276
-38.524
-38.825
-39.176
-39.577
-40.026
-40.52
-41.059
-41.64
-42.263
-42.925
-43.625
-44.361
-45.13
-45.931
-46.76
-47.615
-48.492
-49.389
-50.302
-51.228
-52.164
-53.106
-54.049
-54.991
-55.926
-56.849
-57.755
-58.638
-59.493
-60.314
-61.094
-61.829
-62.512
-63.137
-63.7
-64.194
-64.614
-64.955
-65.21
-65.375
-65.444
-65.413
-65.276
-65.031
-64.674
-64.204
-63.617
-62.914
-62.094
-61.156
-60.101
-58.93
-57.647
-56.254
-54.755
-53.157
-51.466
-49.689
-47.838
-45.922
-43.954
-41.944
-39.905
-37.851
-35.796
-33.754
-31.739
-29.766
-27.848
-26.002
-24.244
-22.59
-21.054
-19.651
-18.394
-17.297
-16.375
-15.644
-15.113
-14.789
-14.679
-14.788
-15.125
-15.701
-16.517
-17.574
-18.867
-20.391
-22.143
-24.113
-26.282
-28.614
-31.068
-33.602
-36.181
-38.778
-41.357
-43.886
-46.323
-48.622
-50.751
-52.685
-54.4
-55.875
-57.091
-58.036
-58.73
-59.244
-59.671
-60.109
-60.645
-61.33
-62.198
-63.3
-64.708
-66.502
-68.76
-71.547
-74.865
-78.778
-83.426
-88.793
-94.695
-100.672
-105.901
-109.582
-111.15
-110
-105.562
-97.796
-86.976
-74.139
-61.374
-50.586
-43.302
-40.911
-43.959
-51.748
-62.865
-74.276
-81.14
-78.875
-62.921
-29.04
24.902
98.996
191.649
298.405
412.329
525.752
629.386
713.542
770.634
796.448
790.461
754.26
690.202
597.116
473.646
326.278
168.908
24.764
-81.767
-139.957
-154.144
-141.108
-120.212
-102.712
-90.198
-78.245
-64.315
-49.54
-37.139
-31.294
-32.838
-39.698
-49.669
-59.919
-68.035
-73.168
-74.864
-73.09
-68.611
-62.291
-54.937
-47.548
-41.029
-35.809
-32.08
-29.842
-28.852
-28.923
-29.893
-31.53
-33.602
-35.937
-38.403
-40.891
-43.318
-45.559
-47.466
-48.933
-49.898
-50.335
-50.249
-49.656
-48.577
-47.049
-45.128
-42.869
-40.323
-37.542
-34.57
-31.463
-28.285
-25.101
-21.975
-18.952
-16.063
-13.323
-10.737
-8.302
-6.007
-3.832
-1.753
0.251
2.199
4.107
5.993
7.875
9.775
11.713
13.707
15.776
17.939
20.216
22.623
25.169
27.855
30.683
33.647
36.74
39.953
43.263
46.651
50.099
53.59
57.125
60.703
64.319
67.966
71.633
75.319
79.037
82.808
86.642
90.558
94.569
98.699
103.001
107.512
112.255
117.243
122.453
127.854
133.415
139.098
144.849
150.6
156.254
161.699
166.847
171.61
175.901
179.629
182.666
184.904
186.267
186.695
186.168
184.683
182.24
178.855
174.578
169.481
163.666
157.259
150.355
143.043
135.415
127.566
119.617
111.68
103.833
96.142
88.654
81.402
74.423
67.746
61.362
55.254
49.384
43.7
38.175
32.792
27.532
22.38
17.31
12.302
7.354
2.473
-2.332
-7.053
-11.684
-16.218
-20.635
-24.905
-29.001
-32.887
-36.545
-39.962
-43.127
-46.033
-48.677
-51.057
-53.183
-55.067
-56.721
-58.154
-59.376
-60.395
-61.224
-61.879
-62.374
-62.725
-62.944
-63.045
-63.038
-62.934
-62.744
-62.473
-62.13
-61.717
-61.242
-60.71
-60.129
-59.504
-58.843
-58.151
-57.436
-56.702
-55.956
-55.2
-54.439
-53.674
-52.907
-52.141
-51.375
-50.611
-49.849
-49.09
-48.334
-47.581
-46.83
-46.081
-45.334
-44.587
-43.841
-43.094
-42.348
-41.602
-40.859
-40.12
-39.387
-38.663
-37.952
-37.256
-36.578
-35.922
-35.289
-34.68
-34.096
-33.539
-33.01
-32.511
-32.042
-31.609
-31.214
-30.864
-30.564
-30.318
-30.13
-30.001
-29.935
-29.934
-30
-30.131
-30.327
-30.59
-30.925
-31.341
-31.844
-32.426
-33.078
-33.786
-34.534
-35.313
-36.108
-36.894
-37.66
-38.397
-39.11
-39.82
-40.537
-41.259
-41.977
-42.668
-43.322
-43.945
-44.545
-45.135
-45.727
-46.329
-46.965
-47.679
-48.487
-49.384
-50.336
-51.273
-52.147
-52.935
-53.617
-54.194
-54.651
-54.958
-55.094
-55.042
-54.779
-54.285
-53.514
-52.395
-50.895
-49.017
-46.801
-44.331
-41.673
-38.863
-35.945
-32.949
-29.916
-26.895
-23.921
-21.013
-18.204
-15.531
-13.053
-10.854
-8.986
-7.47
-6.304
-5.453
-4.895
-4.627
-4.637
-4.913
-5.442
-6.205
-7.198
-8.431
-9.906
-11.625
-13.576
-15.731
-18.075
-20.608
-23.328
-26.237
-29.322
-32.547
-35.879
-39.288
-42.743
-46.215
-49.668
-53.053
-56.311
-59.379
-62.2
-64.72
-66.888
-68.653
-69.985
-70.898
-71.438
-71.687
-71.725
-71.604
-71.383
-71.157
-71.028
-71.117
-71.577
-72.494
-74.003
-76.353
-79.602
-83.659
-88.259
-92.748
-96.488
-99.105
-100.035
-98.631
-94.876
-89.031
-81.943
-75.503
-71.112
-69.462
-71.505
-77.823
-87.767
-100.106
-112.21
-119.533
-118.422
-106.239
-79.807
-36.542
24.66
103.896
197.41
297.14
396.302
490.126
577.577
660.559
736.597
797.646
829.447
816.969
753.521
640.766
491.106
325.161
163.716
28.042
-66.534
-117.156
-130.948
-123.921
-111.683
-102.254
-96.303
-88.861
-77.612
-64.256
-52.068
-45.457
-45.779
-51.309
-60.01
-69.348
-76.83
-81.421
-82.765
-80.778
-76.179
-69.859
-62.547
-55.181
-48.741
-43.724
-40.34
-38.632
-38.33
-39.205
-41.111
-43.804
-47.038
-50.631
-54.407
-58.221
-61.97
-65.511
-68.682
-71.373
-73.505
-75.039
-75.981
-76.346
-76.157
-75.457
-74.301
-72.742
-70.832
-68.619
-66.157
-63.506
-60.733
-57.908
-55.097
-52.35
-49.703
-47.176
-44.776
-42.498
-40.33
-38.253
-36.246
-34.289
-32.365
-30.456
-28.55
-26.631
-24.686
-22.699
-20.652
-18.526
-16.301
-13.964
-11.506
-8.924
-6.217
-3.387
-0.443
2.601
5.717
8.882
12.082
15.314
18.586
21.9
25.262
28.672
32.13
35.651
39.25
42.937
46.714
50.585
54.562
58.681
62.997
67.553
72.366
77.426
82.705
88.171
93.784
99.491
105.22
110.874
116.361
121.609
126.562
131.166
135.348
139.01
142.033
144.32
145.807
146.459
146.262
145.206
143.302
140.59
137.146
133.075
128.467
123.388
117.886
112.01
105.824
99.416
92.886
86.311
79.75
73.249
66.846
60.579
54.466
48.501
42.649
36.856
31.086
25.33
19.588
13.865
8.16
2.464
-3.231
-8.918
-14.586
-20.222
-25.817
-31.364
-36.843
-42.225
-47.464
-52.512
-57.333
-61.903
-66.205
-70.223
-73.948
-77.368
-80.48
-83.29
-85.802
-88.016
-89.935
-91.559
-92.893
-93.948
-94.736
-95.272
-95.57
-95.643
-95.502
-95.161
-94.634
-93.932
-93.065
-92.043
-90.879
-89.584
-88.173
-86.662
-85.065
-83.397
-81.672
-79.905
-78.111
-76.302
-74.489
-72.684
-70.896
-69.134
-67.408
-65.725
-64.091
-62.513
-60.996
-59.547
-58.168
-56.863
-55.635
-54.487
-53.419
-52.433
-51.529
-50.709
-49.972
-49.316
-48.743
-48.249
-47.835
-47.496
-47.23
-47.033
-46.903
-46.834
-46.823
-46.866
-46.958
-47.096
-47.275
-47.494
-47.747
-48.032
-48.346
-48.685
-49.047
-49.428
-49.825
-50.235
-50.655
-51.081
-51.511
-51.941
-52.367
-52.785
-53.192
-53.585
-53.957
-54.307
-54.629
-54.919
-55.173
-55.389
-55.561
-55.688
-55.764
-55.788
-55.756
-55.665
-55.51
-55.29
-54.999
-54.636
-54.197
-53.68
-53.081
-52.4
-51.633
-50.782
-49.845
-48.822
-47.716
-46.527
-45.26
-43.917
-42.503
-41.024
-39.487
-37.897
-36.264
-34.599
-32.911
-31.213
-29.516
-27.833
-26.178
-24.565
-23.005
-21.512
-20.098
-18.774
-17.553
-16.448
-15.473
-14.641
-13.966
-13.459
-13.131
-12.99
-13.042
-13.291
-13.735
-14.374
-15.209
-16.249
-17.499
-18.964
-20.645
-22.542
-24.646
-26.944
-29.417
-32.033
-34.761
-37.569
-40.426
-43.312
-46.199
-49.06
-51.856
-54.533
-57.032
-59.302
-61.294
-62.962
-64.282
-65.254
-65.897
-66.269
-66.417
-66.367
-66.166
-65.867
-65.542
-65.295
-65.224
-65.426
-66.051
-67.318
-69.342
-72.082
-75.299
-78.495
-81.189
-83.034
-83.62
-82.397
-79.075
-73.861
-67.525
-61.505
-57.206
-55.383
-56.64
-61.804
-71.143
-83.818
-97.822
-109.657
-115.493
-112.682
-98.558
-69.672
-23.37
41.735
123.408
214.935
309.698
402.175
492.168
583.729
675.634
763.551
832.19
857.215
822.636
718.66
556.314
367.971
187.636
51.104
-26.86
-54.658
-47.381
-31.441
-20.078
-12.577
-11.629
-10.782
-10.497
-19.1
-33.168
-52.138
-73.629
-89.593
-101.506
-110.588
-116.08
-120.294
-121.826
-119.155
-113.312
-104.791
-94.72
-84.594
-74.898
-65.846
-57.721
-50.567
-44.407
-39.309
-35.245
-32.127
-29.919
-28.609
-28.18
-28.617
-29.871
-31.843
-34.393
-37.362
-40.612
-44.007
-47.427
-50.77
-53.914
-56.741
-59.182
-61.189
-62.74
-63.827
-64.413
-64.462
-63.969
-62.942
-61.415
-59.435
-57.033
-54.238
-51.101
-47.681
-44.065
-40.346
-36.578
-32.789
-28.992
-25.186
-21.401
-17.675
-14.03
-10.47
-6.997
-3.615
-0.349
2.768
5.741
8.611
11.453
14.345
17.332
20.433
23.656
27.007
30.504
34.174
38.029
42.063
46.278
50.689
55.338
60.274
65.508
70.999
76.671
82.447
88.278
94.127
99.963
105.745
111.426
116.964
122.331
127.51
132.472
137.17
141.535
145.493
149.002
152.054
154.672
156.871
158.654
160.02
160.966
161.506
161.651
161.403
160.75
159.68
158.195
156.307
154.044
151.438
148.505
145.25
141.67
137.767
133.55
129.033
124.226
119.138
113.781
108.18
102.365
96.371
90.225
83.952
77.573
71.111
64.591
58.042
51.49
44.961
38.479
32.069
25.755
19.563
13.513
7.623
1.906
-3.623
-8.953
-14.07
-18.966
-23.63
-28.055
-32.236
-36.164
-39.836
-43.248
-46.4
-49.291
-51.923
-54.3
-56.425
-58.304
-59.943
-61.351
-62.536
-63.507
-64.273
-64.844
-65.232
-65.447
-65.5
-65.404
-65.17
-64.809
-64.334
-63.755
-63.083
-62.328
-61.501
-60.611
-59.666
-58.676
-57.648
-56.59
-55.511
-54.418
-53.319
-52.22
-51.128
-50.051
-48.992
-47.956
-46.948
-45.971
-45.028
-44.121
-43.253
-42.425
-41.639
-40.895
-40.196
-39.541
-38.93
-38.363
-37.839
-37.358
-36.918
-36.518
-36.159
-35.839
-35.558
-35.316
-35.114
-34.951
-34.827
-34.741
-34.692
-34.678
-34.697
-34.746
-34.82
-34.917
-35.034
-35.168
-35.316
-35.476
-35.646
-35.824
-36.011
-36.205
-36.404
-36.604
-36.8
-36.986
-37.159
-37.312
-37.438
-37.533
-37.589
-37.604
-37.577
-37.506
-37.385
-37.205
-36.955
-36.628
-36.221
-35.734
-35.164
-34.519
-33.806
-33.045
-32.269
-31.498
-30.743
-30.007
-29.283
-28.564
-27.846
-27.121
-26.379
-25.613
-24.808
-23.96
-23.074
-22.136
-21.123
-19.997
-18.69
-17.164
-15.407
-13.419
-11.221
-8.845
-6.327
-3.729
-1.134
1.392
3.783
5.991
7.99
9.729
11.143
12.157
12.669
12.604
11.92
10.579
8.562
5.883
2.568
-1.315
-5.653
-10.353
-15.333
-20.507
-25.815
-31.176
-36.494
-41.676
-46.616
-51.214
-55.38
-59.015
-62.032
-64.382
-66.036
-67.013
-67.388
-67.231
-66.623
-65.662
-64.418
-62.986
-61.491
-60.06
-58.832
-57.957
-57.563
-57.83
-59.015
-61.233
-64.421
-68.334
-72.456
-76.28
-79.472
-81.594
-82.046
-80.539
-77.224
-72.754
-68.493
-65.759
-65.206
-67.372
-72.957
-82.044
-93.759
-106.158
-115.902
-119.273
-113.524
-96.376
-64.917
-16.751
48.54
129.93
222.929
319.84
416.186
508.478
593.372
671.547
736.628
777.968
788.652
757.284
683.174
576.828
444.759
305.23
175.985
64.822
-13.856
-59.078
-82.163
-89.015
-90.803
-93.29
-91.26
-84.28
-73.856
-61.846
-53.586
-51.664
-55.17
-62.624
-72.204
-81.935
-89.996
-95.383
-97.51
-96.237
-92.328
-86.613
-79.721
-72.548
-65.957
-60.361
-56.007
-52.928
-50.865
-49.655
-49.176
-49.215
-49.599
-50.205
-50.942
-51.774
-52.661
-53.502
-54.187
-54.625
-54.787
-54.724
-54.493
-54.139
-53.705
-53.218
-52.728
-52.283
-51.895
-51.543
-51.182
-50.773
-50.317
-49.837
-49.353
-48.871
-48.362
-47.761
-47.021
-46.106
-44.98
-43.615
-41.979
-40.048
-37.831
-35.366
-32.713
-29.914
-26.988
-23.938
-20.768
-17.487
-14.114
-10.669
-7.16
-3.589
0.039
3.716
7.433
11.187
14.99
18.869
22.852
26.958
31.196
35.565
40.062
44.683
49.421
54.263
59.186
64.169
69.192
74.237
79.287
84.318
89.306
94.22
99.031
103.711
108.235
112.577
116.711
120.615
124.266
127.645
130.736
133.521
135.984
138.107
139.875
141.272
142.287
142.907
143.122
142.926
142.313
141.281
139.831
137.965
135.688
133.007
129.933
126.476
122.652
118.476
113.965
109.139
104.02
98.63
92.993
87.133
81.077
74.85
68.478
61.988
55.406
48.758
42.07
35.368
28.676
22.019
15.422
8.908
2.499
-3.782
-9.917
-15.885
-21.669
-27.253
-32.624
-37.768
-42.676
-47.337
-51.745
-55.894
-59.779
-63.4
-66.754
-69.844
-72.67
-75.239
-77.553
-79.619
-81.444
-83.036
-84.403
-85.553
-86.497
-87.244
-87.804
-88.187
-88.403
-88.463
-88.377
-88.156
-87.81
-87.349
-86.782
-86.12
-85.37
-84.543
-83.645
-82.686
-81.672
-80.61
-79.506
-78.366
-77.194
-75.996
-74.776
-73.538
-72.284
-71.019
-69.746
-68.467
-67.185
-65.904
-64.625
-63.352
-62.086
-60.831
-59.588
-58.362
-57.154
-55.969
-54.809
-53.678
-52.58
-51.519
-50.498
-49.523
-48.597
-47.725
-46.91
-46.157
-45.471
-44.856
-44.315
-43.854
-43.476
-43.184
-42.98
-42.868
-42.847
-42.92
-43.084
-43.338
-43.681
-44.109
-44.621
-45.212
-45.879
-46.617
-47.423
-48.292
-49.219
-50.197
-51.218
-52.274
-53.353
-54.447
-55.543
-56.629
-57.692
-58.719
-59.696
-60.611
-61.453
-62.206
-62.856
-63.384
-63.776
-64.026
-64.129
-64.081
-63.884
-63.543
-63.068
-62.477
-61.785
-61.005
-60.148
-59.221
-58.228
-57.177
-56.075
-54.934
-53.755
-52.53
-51.245
-49.881
-48.417
-46.834
-45.102
-43.18
-41.039
-38.661
-36.037
-33.174
-30.086
-26.795
-23.33
-19.722
-16.025
-12.312
-8.666
-5.186
-1.965
0.915
3.361
5.27
6.556
7.144
6.981
6.039
4.299
1.754
-1.581
-5.677
-10.466
-15.842
-21.682
-27.842
-34.184
-40.591
-46.932
-53.069
-58.881
-64.249
-69.079
-73.304
-76.859
-79.685
-81.746
-83.047
-83.659
-83.701
-83.315
-82.644
-81.797
-80.886
-80.061
-79.468
-79.253
-79.55
-80.413
-81.941
-84.326
-87.603
-91.662
-96.181
-100.495
-103.971
-106.161
-106.47
-104.289
-99.469
-92.183
-83.268
-74.354
-66.768
-61.47
-59.477
-61.354
-66.682
-74.198
-81.264
-84.111
-79.231
-63.175
-32.548
15.134
79.357
156.568
242.065
331.276
424.331
523.051
623.06
713.506
775.361
790.647
755.704
677.333
571.957
455.621
332.302
207.376
88.306
-16.015
-88.941
-125.827
-135.963
-129.156
-119.58
-113.684
-106.527
-96.979
-85.113
-72.119
-63.104
-59.887
-61.28
-66.077
-72.342
-78.101
-82.078
-83.568
-82.261
-78.495
-73.106
-66.839
-60.301
-54.218
-49.235
-45.679
-43.709
-43.248
-44.007
-45.77
-48.354
-51.531
-55.083
-58.824
-62.566
-66.164
-69.505
-72.459
-74.927
-76.846
-78.172
-78.898
-79.041
-78.626
-77.696
-76.307
-74.513
-72.368
-69.927
-67.244
-64.382
-61.408
-58.383
-55.367
-52.399
-49.505
-46.7
-43.99
-41.366
-38.819
-36.33
-33.876
-31.441
-29.009
-26.567
-24.103
-21.601
-19.045
-16.418
-13.708
-10.9
-7.984
-4.953
-1.799
1.482
4.893
8.433
12.103
15.902
19.832
23.891
28.08
32.394
36.83
41.382
46.042
50.802
55.648
60.569
65.548
70.568
75.613
80.663
85.698
90.696
95.637
100.496
105.251
109.878
114.353
118.652
122.752
126.629
130.261
133.625
136.7
139.467
141.908
144.003
145.738
147.098
148.07
148.643
148.808
148.559
147.891
146.801
145.289
143.359
141.014
138.262
135.113
131.579
127.674
123.414
118.818
113.906
108.7
103.224
97.502
91.561
85.427
79.129
72.694
66.15
59.528
52.855
46.159
39.469
32.813
26.217
19.707
13.309
7.046
0.94
-4.985
-10.712
-16.22
-21.494
-26.519
-31.281
-35.769
-39.974
-43.887
-47.505
-50.823
-53.841
-56.558
-58.977
-61.103
-62.94
-64.497
-65.782
-66.805
-67.576
-68.108
-68.413
-68.504
-68.395
-68.101
-67.635
-67.013
-66.248
-65.355
-64.349
-63.243
-62.052
-60.787
-59.464
-58.093
-56.687
-55.258
-53.815
-52.368
-50.928
-49.5
-48.093
-46.713
-45.364
-44.051
-42.777
-41.545
-40.356
-39.212
-38.113
-37.059
-36.05
-35.084
-34.16
-33.277
-32.432
-31.625
-30.853
-30.116
-29.41
-28.736
-28.092
-27.477
-26.89
-26.329
-25.795
-25.286
-24.801
-24.34
-23.903
-23.49
-23.1
-22.735
-22.395
-22.082
-21.796
-21.538
-21.311
-21.116
-20.954
-20.827
-20.737
-20.684
-20.671
-20.699
-20.768
-20.879
-21.032
-21.227
-21.462
-21.737
-22.048
-22.394
-22.771
-23.175
-23.603
-24.051
-24.514
-24.988
-25.467
-25.948
-26.425
-26.892
-27.344
-27.774
-28.176
-28.545
-28.874
-29.157
-29.388
-29.56
-29.67
-29.71
-29.677
-29.564
-29.368
-29.085
-28.712
-28.245
-27.685
-27.03
-26.282
-25.443
-24.515
-23.503
-22.414
-21.253
-20.029
-18.751
-17.426
-16.066
-14.683
-13.288
-11.893
-10.51
-9.152
-7.832
-6.562
-5.357
-4.228
-3.191
-2.257
-1.442
-0.76
-0.224
0.157
0.374
0.42
0.289
-0.026
-0.534
-1.242
-2.154
-3.272
-4.6
-6.134
-7.869
-9.79
-11.867
-14.068
-16.364
-18.729
-21.139
-23.574
-26.004
-28.403
-30.736
-32.965
-35.058
-36.982
-38.701
-40.194
-41.447
-42.478
-43.354
-44.145
-44.919
-45.736
-46.614
-47.587
-48.722
-50.084
-51.743
-53.789
-56.261
-59.253
-62.96
-67.401
-72.437
-77.756
-82.725
-86.773
-89.549
-90.504
-88.99
-84.886
-78.425
-70.456
-62.662
-56.267
-51.967
-50.827
-53.778
-60.726
-70.807
-81.612
-89.254
-90.783
-83.46
-63.671
-28.473
24.128
93.491
174.614
263.109
356.442
453.063
553.446
649.344
725.434
769.29
769.166
725.569
650.135
547.967
423.879
284.288
135.513
-2.846
-107.171
-167.789
-187.079
-179.005
-162.715
-145.336
-124.224
-99.113
-70.344
-44.394
-31.497
-30.681
-38.425
-49.607
-56.66
-60.797
-63.306
-63.863
-64.356
-63.226
-59.422
-54.176
-47.914
-41.641
-36.647
-33.131
-31.09
-30.586
-31.303
-32.95
-35.36
-38.29
-41.518
-44.92
-48.373
-51.733
-54.896
-57.747
-60.178
-62.128
-63.552
-64.435
-64.785
-64.626
-64.003
-62.968
-61.569
-59.855
-57.864
-55.636
-53.222
-50.679
-48.067
-45.444
-42.851
-40.316
-37.858
-35.485
-33.192
-30.972
-28.802
-26.662
-24.533
-22.4
-20.251
-18.077
-15.863
-13.593
-11.253
-8.83
-6.311
-3.688
-0.951
1.905
4.882
7.983
11.206
14.547
18.005
21.579
25.267
29.066
32.973
36.984
41.094
45.296
49.581
53.941
58.364
62.836
67.344
71.873
76.407
80.928
85.42
89.862
94.237
98.524
102.703
106.753
110.655
114.388
117.933
121.27
124.38
127.248
129.855
132.187
134.231
135.973
137.402
138.507
139.28
139.712
139.799
139.534
138.916
137.942
136.613
134.931
132.9
130.526
127.815
124.776
121.42
117.759
113.804
109.572
105.078
100.339
95.374
90.201
84.842
79.316
73.644
67.85
61.952
55.974
49.937
43.861
37.767
31.676
25.608
19.582
13.618
7.733
1.946
-3.727
-9.269
-14.666
-19.903
-24.967
-29.846
-34.529
-39.006
-43.268
-47.306
-51.114
-54.686
-58.018
-61.106
-63.95
-66.547
-68.9
-71.011
-72.881
-74.515
-75.918
-77.096
-78.053
-78.798
-79.338
-79.68
-79.834
-79.808
-79.612
-79.256
-78.75
-78.104
-77.329
-76.435
-75.433
-74.332
-73.144
-71.879
-70.547
-69.159
-67.725
-66.256
-64.761
-63.251
-61.734
-60.22
-58.716
-57.23
-55.768
-54.336
-52.942
-51.588
-50.281
-49.024
-47.821
-46.676
-45.59
-44.566
-43.605
-42.708
-41.877
-41.111
-40.411
-39.776
-39.205
-38.7
-38.258
-37.88
-37.563
-37.307
-37.11
-36.971
-36.885
-36.852
-36.869
-36.933
-37.042
-37.193
-37.383
-37.612
-37.877
-38.177
-38.509
-38.871
-39.263
-39.682
-40.127
-40.596
-41.089
-41.602
-42.136
-42.688
-43.258
-43.844
-44.444
-45.056
-45.677
-46.306
-46.939
-47.573
-48.205
-48.832
-49.451
-50.057
-50.647
-51.218
-51.765
-52.284
-52.772
-53.223
-53.633
-53.997
-54.31
-54.566
-54.761
-54.889
-54.945
-54.924
-54.823
-54.636
-54.36
-53.99
-53.523
-52.958
-52.291
-51.522
-50.649
-49.673
-48.596
-47.42
-46.147
-44.783
-43.332
-41.801
-40.198
-38.531
-36.812
-35.051
-33.261
-31.454
-29.645
-27.847
-26.074
-24.339
-22.658
-21.043
-19.51
-18.075
-16.752
-15.557
-14.506
-13.614
-12.892
-12.354
-12.005
-11.854
-11.904
-12.163
-12.642
-13.349
-14.291
-15.472
-16.896
-18.558
-20.452
-22.556
-24.835
-27.254
-29.777
-32.366
-34.993
-37.622
-40.214
-42.731
-45.118
-47.327
-49.317
-51.045
-52.475
-53.582
-54.363
-54.858
-55.149
-55.327
-55.474
-55.653
-55.921
-56.368
-57.11
-58.267
-59.942
-62.167
-65.005
-68.61
-73.05
-78.281
-84.036
-89.719
-94.784
-98.928
-101.753
-102.689
-101.359
-97.627
-91.94
-85.703
-80.032
-75.196
-71.911
-71.271
-73.63
-79.088
-85.004
-85.237
-77.279
-60.957
-37.647
-12.396
19.032
64.902
129.163
218.817
328.175
446.702
573.53
697.019
807.876
896.274
935.033
912.182
826.08
679.482
498.918
308.765
129.318
-12.677
-104.858
-145.497
-140.264
-110.432
-77.566
-53.093
-41.38
-37.664
-34.219
-29.496
-25.096
-23.758
-28.413
-38.283
-50.599
-62.756
-72.21
-77.848
-79.737
-78.17
-73.839
-67.647
-60.465
-53.275
-46.994
-42.077
-38.667
-36.73
-36.063
-36.501
-37.908
-40.078
-42.806
-45.927
-49.309
-52.857
-56.476
-60.031
-63.368
-66.337
-68.83
-70.796
-72.21
-73.067
-73.379
-73.165
-72.459
-71.311
-69.767
-67.876
-65.687
-63.246
-60.608
-57.839
-55.001
-52.156
-49.348
-46.599
-43.921
-41.313
-38.768
-36.277
-33.822
-31.381
-28.936
-26.473
-23.981
-21.448
-18.864
-16.213
-13.48
-10.654
-7.722
-4.677
-1.514
1.771
5.181
8.715
12.371
16.145
20.035
24.039
28.154
32.377
36.705
41.131
45.649
50.252
54.93
59.67
64.459
69.283
74.124
78.965
83.789
88.575
93.304
97.955
102.507
106.939
111.23
115.358
119.301
123.04
126.552
129.82
132.823
135.545
137.968
140.077
141.858
143.299
144.387
145.112
145.467
145.443
145.035
144.24
143.055
141.481
139.521
137.178
134.459
131.372
127.929
124.142
120.024
115.592
110.863
105.856
100.59
95.088
89.372
83.464
77.39
71.173
64.838
58.41
51.914
45.375
38.817
32.263
25.739
19.265
12.865
6.559
0.369
-5.685
-11.586
-17.314
-22.853
-28.188
-33.305
-38.192
-42.837
-47.232
-51.369
-55.241
-58.843
-62.174
-65.23
-68.012
-70.521
-72.759
-74.731
-76.442
-77.898
-79.106
-80.076
-80.816
-81.335
-81.645
-81.755
-81.677
-81.421
-80.999
-80.423
-79.703
-78.853
-77.883
-76.807
-75.635
-74.38
-73.054
-71.666
-70.229
-68.752
-67.245
-65.717
-64.176
-62.632
-61.093
-59.564
-58.053
-56.567
-55.109
-53.686
-52.301
-50.956
-49.656
-48.401
-47.194
-46.036
-44.927
-43.871
-42.866
-41.914
-41.015
-40.17
-39.378
-38.64
-37.954
-37.321
-36.738
-36.206
-35.723
-35.289
-34.903
-34.565
-34.273
-34.028
-33.828
-33.672
-33.559
-33.488
-33.457
-33.465
-33.511
-33.593
-33.711
-33.865
-34.054
-34.278
-34.536
-34.828
-35.153
-35.51
-35.898
-36.315
-36.761
-37.235
-37.734
-38.257
-38.804
-39.373
-39.961
-40.566
-41.186
-41.818
-42.457
-43.101
-43.744
-44.383
-45.014
-45.633
-46.237
-46.823
-47.387
-47.926
-48.437
-48.915
-49.357
-49.758
-50.114
-50.42
-50.672
-50.867
-50.999
-51.066
-51.063
-50.988
-50.837
-50.606
-50.292
-49.891
-49.401
-48.819
-48.144
-47.374
-46.511
-45.554
-44.507
-43.373
-42.155
-40.857
-39.483
-38.039
-36.529
-34.959
-33.333
-31.658
-29.941
-28.189
-26.414
-24.625
-22.836
-21.059
-19.308
-17.596
-15.939
-14.349
-12.839
-11.418
-10.099
-8.892
-7.809
-6.866
-6.074
-5.444
-4.986
-4.708
-4.617
-4.72
-5.016
-5.501
-6.169
-7.02
-8.06
-9.305
-10.766
-12.448
-14.354
-16.482
-18.824
-21.371
-24.098
-26.961
-29.915
-32.912
-35.912
-38.885
-41.794
-44.586
-47.194
-49.541
-51.556
-53.183
-54.384
-55.132
-55.417
-55.253
-54.679
-53.772
-52.638
-51.403
-50.196
-49.146
-48.386
-48.047
-48.32
-49.469
-51.648
-54.848
-58.879
-63.338
-67.813
-72.03
-75.614
-77.948
-78.61
-77.609
-75.443
-73.31
-72.444
-73.427
-76.64
-82.688
-91.776
-103.277
-115.585
-125.557
-129.445
-124.549
-108.747
-79.456
-34.307
28.012
107.472
199.865
297.65
395.26
488.697
577.893
665.322
747.103
814.289
852.565
846.17
789.57
685.631
546.26
391.703
240.946
112.849
21.581
-30.305
-48.964
-48.858
-44.487
-43.387
-46.398
-48.645
-47.479
-44.073
-41.066
-42.446
-49.501
-60.585
-73.777
-86.722
-97.119
-104.043
-107.203
-106.502
-102.536
-96.075
-87.781
-78.569
-69.477
-61.14
-53.907
-47.968
-43.225
-39.59
-37.052
-35.49
-34.734
-34.673
-35.202
-36.263
-37.876
-39.995
-42.505
-45.284
-48.186
-51.067
-53.835
-56.392
-58.633
-60.491
-61.923
-62.912
-63.486
-63.664
-63.455
-62.859
-61.856
-60.444
-58.65
-56.509
-54.063
-51.367
-48.463
-45.405
-42.273
-39.121
-35.986
-32.89
-29.825
-26.78
-23.758
-20.756
-17.78
-14.842
-11.938
-9.063
-6.215
-3.38
-0.551
2.284
5.159
8.112
11.179
14.4
17.787
21.336
25.04
28.871
32.822
36.908
41.133
45.509
50.015
54.599
59.248
63.985
68.83
73.814
78.855
83.737
88.437
93.157
98.114
103.587
109.558
115.589
121.481
127.438
133.383
138.808
142.943
144.682
143.67
140.872
137.22
132.986
128.486
124.383
121.803
122.516
127.415
135.271
144.304
153.46
162.043
169.39
174.514
175.659
171.508
162.86
151.524
138.753
125.331
111.708
98.296
86.187
76.602
69.423
63.647
58.555
53.67
48.875
44.313
39.709
34.489
28.586
22.336
16.022
9.906
4.037
-1.757
-7.497
-13.061
-18.412
-23.572
-28.597
-33.592
-38.561
-43.41
-48.056
-52.404
-56.416
-60.13
-63.545
-66.637
-69.395
-71.764
-73.78
-75.617
-77.244
-78.455
-79.071
-78.825
-77.746
-76.29
-74.647
-72.696
-70.697
-69.107
-68.459
-69.615
-72.606
-76.439
-80.584
-84.917
-88.97
-92.29
-94.176
-93.357
-89.741
-84.545
-78.513
-72.09
-65.79
-59.807
-54.68
-51.528
-50.493
-50.734
-51.7
-52.93
-54.111
-55.349
-56.469
-56.938
-56.675
-55.993
-55.117
-54.304
-53.657
-53.02
-52.366
-51.786
-51.288
-50.846
-50.428
-49.963
-49.439
-48.911
-48.409
-47.954
-47.555
-47.192
-46.855
-46.546
-46.264
-46.01
-45.785
-45.586
-45.411
-45.257
-45.124
-45.011
-44.916
-44.837
-44.768
-44.704
-44.645
-44.598
-44.567
-44.556
-44.568
-44.602
-44.661
-44.745
-44.856
-44.994
-45.159
-45.35
-45.566
-45.809
-46.078
-46.374
-46.695
-47.042
-47.413
-47.807
-48.222
-48.657
-49.113
-49.585
-50.075
-50.579
-51.096
-51.624
-52.161
-52.704
-53.251
-53.797
-54.338
-54.871
-55.391
-55.893
-56.373
-56.825
-57.244
-57.627
-57.969
-58.265
-58.512
-58.706
-58.844
-58.921
-58.934
-58.881
-58.759
-58.563
-58.292
-57.943
-57.514
-57.002
-56.406
-55.724
-54.954
-54.094
-53.145
-52.105
-50.974
-49.752
-48.441
-47.043
-45.56
-43.997
-42.359
-40.65
-38.879
-37.053
-35.181
-33.272
-31.334
-29.379
-27.418
-25.463
-23.525
-21.617
-19.749
-17.934
-16.186
-14.517
-12.939
-11.463
-10.101
-8.866
-7.773
-6.836
-6.065
-5.47
-5.058
-4.835
-4.81
-4.995
-5.394
-6.009
-6.841
-7.891
-9.159
-10.646
-12.34
-14.215
-16.237
-18.368
-20.579
-22.844
-25.131
-27.41
-29.642
-31.784
-33.807
-35.685
-37.396
-38.913
-40.208
-41.264
-42.087
-42.735
-43.301
-43.875
-44.547
-45.383
-46.415
-47.71
-49.367
-51.473
-54.124
-57.396
-61.295
-65.912
-71.442
-77.882
-85.053
-92.501
-99.375
-104.901
-108.567
-109.696
-107.608
-102.201
-93.724
-83.252
-72.931
-64.575
-59.499
-59.111
-64.196
-74.192
-87.626
-101.366
-110.594
-110.753
-97.482
-66.257
-13.387
60.729
151.864
254.75
361.69
470.881
586.751
704.924
817.363
908.063
948.909
926.78
839.482
692.039
509.301
313.658
125.504
-29.411
-138.831
-197.689
-207.576
-184.312
-142.176
-94.571
-55.225
-28.988
-20.261
-27.957
-42.488
-57.825
-67.695
-70.082
-70.665
-71.882
-74.5
-78.229
-79.642
-77.503
-72.61
-65.755
-58.321
-51.398
-45.499
-40.979
-38.038
-36.608
-36.423
-37.282
-39.042
-41.513
-44.517
-47.884
-51.422
-54.986
-58.483
-61.778
-64.714
-67.179
-69.089
-70.404
-71.136
-71.3
-70.919
-70.03
-68.684
-66.93
-64.823
-62.416
-59.76
-56.916
-53.949
-50.926
-47.914
-44.96
-42.094
-39.331
-36.674
-34.117
-31.647
-29.246
-26.892
-24.564
-22.246
-19.924
-17.585
-15.214
-12.793
-10.305
-7.732
-5.059
-2.275
0.63
3.664
6.832
10.137
13.58
17.159
20.875
24.726
28.713
32.833
37.084
41.461
45.96
50.576
55.3
60.124
65.036
70.021
75.067
80.158
85.275
90.395
95.498
100.56
105.56
110.474
115.281
119.954
124.47
128.807
132.943
136.858
140.528
143.923
147.017
149.787
152.223
154.319
156.068
157.462
158.493
159.162
159.474
159.431
159.023
158.231
157.032
155.421
153.4
150.987
148.2
145.046
141.522
137.622
133.35
128.714
123.718
118.351
112.594
106.453
99.966
93.204
86.237
79.115
71.872
64.53
57.118
49.676
42.255
34.898
27.636
20.506
13.556
6.858
0.492
-5.497
-11.111
-16.388
-21.364
-26.056
-30.464
-34.585
-38.426
-42.006
-45.337
-48.42
-51.25
-53.832
-56.192
-58.376
-60.44
-62.409
-64.275
-66.006
-67.574
-68.969
-70.188
-71.231
-72.085
-72.742
-73.206
-73.494
-73.627
-73.618
-73.465
-73.157
-72.681
-72.039
-71.247
-70.332
-69.316
-68.214
-67.041
-65.816
-64.56
-63.289
-62.012
-60.727
-59.435
-58.138
-56.843
-55.561
-54.298
-53.059
-51.846
-50.659
-49.5
-48.372
-47.274
-46.204
-45.162
-44.145
-43.157
-42.2
-41.277
-40.391
-39.542
-38.732
-37.962
-37.234
-36.546
-35.9
-35.293
-34.726
-34.198
-33.708
-33.256
-32.841
-32.462
-32.119
-31.812
-31.539
-31.302
-31.099
-30.931
-30.797
-30.699
-30.636
-30.609
-30.617
-30.662
-30.743
-30.861
-31.015
-31.205
-31.43
-31.689
-31.981
-32.306
-32.662
-33.046
-33.459
-33.899
-34.364
-34.854
-35.368
-35.904
-36.462
-37.04
-37.639
-38.256
-38.891
-39.543
-40.21
-40.89
-41.581
-42.282
-42.99
-43.703
-44.416
-45.127
-45.832
-46.528
-47.21
-47.875
-48.518
-49.136
-49.723
-50.277
-50.793
-51.267
-51.694
-52.07
-52.392
-52.655
-52.855
-52.987
-53.048
-53.033
-52.938
-52.758
-52.491
-52.132
-51.678
-51.126
-50.473
-49.716
-48.856
-47.891
-46.822
-45.649
-44.376
-43.004
-41.539
-39.985
-38.348
-36.635
-34.854
-33.015
-31.128
-29.205
-27.259
-25.302
-23.349
-21.413
-19.51
-17.652
-15.853
-14.126
-12.483
-10.941
-9.512
-8.211
-7.054
-6.055
-5.227
-4.582
-4.131
-3.877
-3.825
-3.979
-4.344
-4.929
-5.745
-6.793
-8.079
-9.605
-11.365
-13.35
-15.536
-17.885
-20.361
-22.929
-25.554
-28.213
-30.875
-33.503
-36.059
-38.49
-40.747
-42.792
-44.582
-46.078
-47.256
-48.117
-48.713
-49.131
-49.456
-49.756
-50.065
-50.43
-50.94
-51.692
-52.796
-54.372
-56.475
-59.2
-62.746
-67.143
-72.255
-77.761
-82.996
-87.334
-90.421
-91.763
-90.761
-87.332
-81.693
-74.569
-67.589
-61.979
-58.311
-57.458
-60.128
-65.959
-73.986
-82.025
-86.27
-83.662
-71.777
-47.39
-7.628
49.267
122.429
206.9
296.206
384.472
471.134
560.328
650.525
735.153
799.132
819.666
785.596
697.99
565.795
407.358
239.58
74.213
-72.447
-181.723
-244.169
-257.784
-233.238
-194.091
-155.676
-124.624
-101.626
-79.438
-55.67
-32.985
-14.179
-3.597
-3.001
-10.72
-24.107
-39.622
-54.198
-66.355
-75.504
-81.168
-82.793
-80.299
-74.281
-66.117
-57.583
-49.738
-42.946
-37.455
-33.518
-31.305
-30.843
-31.745
-33.287
-35.014
-36.77
-38.521
-40.296
-42.049
-43.679
-45.172
-46.606
-48.028
-49.419
-50.695
-51.747
-52.517
-52.998
-53.211
-53.172
-52.884
-52.332
-51.495
-50.37
-48.966
-47.283
-45.322
-43.095
-40.614
-37.922
-35.088
-32.16
-29.167
-26.13
-23.045
-19.914
-16.747
-13.552
-10.334
-7.099
-3.846
-0.578
2.697
5.981
9.287
12.634
16.059
19.587
23.23
26.998
30.894
34.917
39.068
43.343
47.728
52.216
56.797
61.462
66.205
71.016
75.877
80.772
85.677
90.572
95.437
100.251
104.994
109.646
114.185
118.595
122.857
126.953
130.863
134.567
138.044
141.272
144.234
146.911
149.284
151.338
153.057
154.429
155.444
156.092
156.366
156.258
155.767
154.888
153.622
151.97
149.934
147.521
144.738
141.592
138.094
134.257
130.095
125.621
120.853
115.809
110.508
104.971
99.22
93.278
87.168
80.915
74.545
68.083
61.556
54.989
48.409
41.841
35.309
28.837
22.449
16.167
10.012
4.003
-1.841
-7.502
-12.965
-18.215
-23.239
-28.025
-32.562
-36.843
-40.858
-44.603
-48.072
-51.262
-54.171
-56.8
-59.148
-61.219
-63.017
-64.548
-65.819
-66.837
-67.612
-68.155
-68.476
-68.589
-68.506
-68.239
-67.804
-67.214
-66.482
-65.624
-64.653
-63.582
-62.426
-61.197
-59.909
-58.572
-57.199
-55.801
-54.388
-52.972
-51.561
-50.165
-48.793
-47.452
-46.149
-44.891
-43.685
-42.534
-41.443
-40.415
-39.453
-38.559
-37.735
-36.979
-36.292
-35.672
-35.119
-34.628
-34.198
-33.824
-33.504
-33.234
-33.009
-32.826
-32.68
-32.569
-32.488
-32.434
-32.403
-32.393
-32.4
-32.422
-32.455
-32.498
-32.547
-32.602
-32.661
-32.722
-32.784
-32.846
-32.909
-32.971
-33.032
-33.093
-33.154
-33.216
-33.281
-33.349
-33.424
-33.508
-33.603
-33.713
-33.839
-33.986
-34.156
-34.352
-34.575
-34.829
-35.116
-35.436
-35.792
-36.185
-36.616
-37.084
-37.59
-38.132
-38.71
-39.321
-39.963
-40.633
-41.328
-42.046
-42.781
-43.531
-44.291
-45.056
-45.822
-46.583
-47.333
-48.065
-48.773
-49.45
-50.088
-50.68
-51.219
-51.697
-52.107
-52.442
-52.696
-52.861
-52.931
-52.9
-52.762
-52.513
-52.147
-51.662
-51.054
-50.323
-49.467
-48.485
-47.381
-46.155
-44.81
-43.351
-41.78
-40.103
-38.328
-36.46
-34.507
-32.48
-30.388
-28.243
-26.06
-23.853
-21.638
-19.43
-17.248
-15.108
-13.027
-11.021
-9.105
-7.293
-5.601
-4.043
-2.635
-1.391
-0.326
0.545
1.213
1.668
1.903
1.917
1.711
1.288
0.646
-0.219
-1.314
-2.643
-4.211
-6.022
-8.069
-10.342
-12.816
-15.456
-18.227
-21.09
-24.009
-26.957
-29.9
-32.808
-35.644
-38.359
-40.899
-43.214
-45.246
-46.943
-48.279
-49.254
-49.902
-50.29
-50.48
-50.516
-50.451
-50.351
-50.303
-50.409
-50.777
-51.497
-52.697
-54.595
-57.323
-60.86
-64.981
-69.136
-72.691
-75.14
-75.936
-74.468
-70.498
-64.239
-56.473
-48.904
-43.353
-41.154
-43.507
-51.283
-64.336
-81.478
-100.29
-116.597
-125.784
-123.756
-106.563
-70.987
-15.385
60.095
153.266
259.326
371.892
483.955
587.787
675.643
740.712
777.894
783.98
758.34
703.093
622.436
522.458
410.791
295.688
184.808
85.312
3.024
-58.933
-99.683
-120.29
-123.862
-114.746
-97.469
-77.129
-58.604
-44.873
-37.484
-36.841
-41.991
-51.348
-63.2
-75.26
-85.24
-91.974
-95.023
-94.484
-91.061
-85.49
-78.467
-70.966
-63.922
-57.823
-52.896
-49.128
-46.319
-44.368
-43.22
-42.733
-42.763
-43.183
-43.875
-44.794
-45.915
-47.189
-48.572
-49.984
-51.351
-52.645
-53.85
-54.956
-55.95
-56.79
-57.417
-57.807
-57.949
-57.849
-57.534
-57.008
-56.272
-55.324
-54.152
-52.764
-51.174
-49.374
-47.356
-45.121
-42.673
-40.047
-37.302
-34.468
-31.562
-28.597
-25.567
-22.478
-19.344
-16.167
-12.952
-9.7
-6.407
-3.077
0.284
3.679
7.12
10.628
14.235
17.965
21.826
25.828
29.97
34.251
38.672
43.224
47.893
52.666
57.53
62.473
67.484
72.545
77.638
82.739
87.821
92.859
97.83
102.708
107.469
112.091
116.549
120.824
124.895
128.744
132.348
135.686
138.738
141.482
143.901
145.975
147.689
149.028
149.979
150.531
150.678
150.414
149.735
148.64
147.129
145.206
142.876
140.146
137.026
133.527
129.662
125.446
120.897
116.033
110.874
105.44
99.755
93.841
87.724
81.428
74.979
68.403
61.727
54.979
48.186
41.376
34.576
27.812
21.113
14.501
8.001
1.636
-4.574
-10.61
-16.454
-22.091
-27.506
-32.689
-37.627
-42.313
-46.738
-50.898
-54.789
-58.407
-61.752
-64.825
-67.627
-70.162
-72.433
-74.447
-76.21
-77.729
-79.013
-80.072
-80.917
-81.559
-82.009
-82.282
-82.39
-82.346
-82.165
-81.86
-81.443
-80.928
-80.327
-79.65
-78.908
-78.11
-77.267
-76.386
-75.474
-74.538
-73.584
-72.618
-71.645
-70.667
-69.689
-68.715
-67.746
-66.785
-65.834
-64.895
-63.969
-63.058
-62.163
-61.284
-60.421
-59.575
-58.744
-57.927
-57.125
-56.334
-55.555
-54.786
-54.025
-53.273
-52.528
-51.791
-51.062
-50.341
-49.63
-48.929
-48.24
-47.565
-46.906
-46.266
-45.647
-45.052
-44.483
-43.944
-43.436
-42.961
-42.522
-42.12
-41.756
-41.432
-41.147
-40.903
-40.701
-40.539
-40.42
-40.342
-40.306
-40.313
-40.361
-40.451
-40.582
-40.753
-40.965
-41.215
-41.503
-41.827
-42.187
-42.58
-43.004
-43.459
-43.94
-44.446
-44.974
-45.521
-46.085
-46.664
-47.254
-47.853
-48.46
-49.071
-49.686
-50.302
-50.918
-51.531
-52.141
-52.745
-53.343
-53.931
-54.51
-55.077
-55.63
-56.168
-56.688
-57.188
-57.664
-58.114
-58.533
-58.918
-59.265
-59.57
-59.83
-60.04
-60.196
-60.293
-60.329
-60.299
-60.198
-60.023
-59.77
-59.434
-59.013
-58.503
-57.902
-57.208
-56.418
-55.531
-54.547
-53.465
-52.285
-51.008
-49.637
-48.172
-46.617
-44.976
-43.254
-41.457
-39.596
-37.681
-35.723
-33.736
-31.735
-29.734
-27.749
-25.796
-23.888
-22.039
-20.261
-18.571
-16.982
-15.512
-14.177
-12.991
-11.967
-11.115
-10.447
-9.97
-9.687
-9.596
-9.699
-10.002
-10.519
-11.267
-12.258
-13.501
-14.999
-16.748
-18.741
-20.963
-23.383
-25.967
-28.679
-31.482
-34.348
-37.252
-40.158
-43.014
-45.751
-48.292
-50.572
-52.536
-54.14
-55.371
-56.226
-56.731
-56.935
-56.881
-56.632
-56.276
-55.909
-55.635
-55.572
-55.828
-56.576
-58.106
-60.573
-63.937
-67.943
-72.033
-75.662
-78.471
-79.976
-79.52
-76.808
-72.07
-66.212
-61.048
-58.255
-58.874
-63.844
-73.919
-89.056
-108.087
-128.262
-145.271
-154.874
-153.071
-135.824
-100.072
-43.516
32.727
123.162
223.706
330.9
442.479
559.638
674.028
769.875
833.278
848.759
814.815
744.751
651.549
550.936
451.526
352.121
254.058
159.475
73.137
2.863
-48.088
-80.233
-95.79
-98.91
-93.073
-81.24
-67.627
-56.125
-48.96
-47.056
-50.028
-56.667
-65.914
-76.63
-86.971
-95.102
-100.025
-101.424
-99.641
-95.405
-89.325
-81.97
-74.136
-66.668
-60.077
-54.595
-50.208
-46.726
-44.045
-42.135
-40.901
-40.205
-39.938
-40.009
-40.391
-41.12
-42.173
-43.484
-44.968
-46.509
-48.041
-49.541
-50.977
-52.315
-53.508
-54.485
-55.212
-55.695
-55.933
-55.93
-55.671
-55.106
-54.219
-53.02
-51.528
-49.781
-47.793
-45.559
-43.093
-40.426
-37.601
-34.677
-31.689
-28.637
-25.532
-22.383
-19.204
-16.025
-12.857
-9.687
-6.51
-3.317
-0.102
3.131
6.392
9.707
13.102
16.609
20.248
24.025
27.948
32.022
36.251
40.638
45.177
49.851
54.649
59.557
64.564
69.657
74.818
80.022
85.243
90.457
95.637
100.758
105.796
110.722
115.513
120.145
124.595
128.844
132.869
136.65
140.164
143.39
146.31
148.904
151.156
153.047
154.562
155.69
156.418
156.739
156.644
156.13
155.192
153.832
152.051
149.853
147.244
144.234
140.833
137.056
132.918
128.436
123.631
118.523
113.136
107.492
101.618
95.539
89.279
82.867
76.327
69.688
62.975
56.215
49.434
42.659
35.915
29.228
22.622
16.121
9.747
3.521
-2.536
-8.406
-14.072
-19.518
-24.73
-29.696
-34.405
-38.849
-43.021
-46.915
-50.53
-53.863
-56.914
-59.688
-62.186
-64.414
-66.379
-68.087
-69.546
-70.766
-71.756
-72.526
-73.086
-73.448
-73.622
-73.622
-73.46
-73.147
-72.697
-72.122
-71.435
-70.648
-69.775
-68.826
-67.814
-66.75
-65.645
-64.508
-63.35
-62.18
-61.005
-59.832
-58.669
-57.52
-56.39
-55.283
-54.202
-53.15
-52.128
-51.139
-50.183
-49.263
-48.378
-47.529
-46.718
-45.943
-45.204
-44.503
-43.837
-43.206
-42.611
-42.048
-41.519
-41.02
-40.551
-40.11
-39.695
-39.305
-38.938
-38.593
-38.268
-37.963
-37.675
-37.406
-37.154
-36.919
-36.703
-36.505
-36.325
-36.166
-36.026
-35.908
-35.812
-35.738
-35.688
-35.661
-35.658
-35.678
-35.722
-35.79
-35.881
-35.994
-36.13
-36.288
-36.468
-36.67
-36.893
-37.138
-37.404
-37.691
-38
-38.33
-38.68
-39.05
-39.439
-39.846
-40.269
-40.708
-41.159
-41.621
-42.091
-42.568
-43.047
-43.528
-44.005
-44.477
-44.941
-45.394
-45.834
-46.257
-46.661
-47.044
-47.404
-47.737
-48.041
-48.313
-48.55
-48.747
-48.902
-49.011
-49.07
-49.075
-49.023
-48.91
-48.733
-48.488
-48.172
-47.782
-47.314
-46.767
-46.138
-45.427
-44.631
-43.751
-42.787
-41.738
-40.606
-39.393
-38.098
-36.725
-35.275
-33.752
-32.159
-30.499
-28.778
-27.003
-25.18
-23.318
-21.427
-19.516
-17.596
-15.679
-13.777
-11.904
-10.072
-8.293
-6.58
-4.946
-3.405
-1.972
-0.658
0.523
1.56
2.438
3.144
3.665
3.992
4.119
4.04
3.75
3.242
2.506
1.536
0.329
-1.115
-2.793
-4.703
-6.837
-9.175
-11.682
-14.314
-17.027
-19.784
-22.55
-25.294
-27.98
-30.569
-33.014
-35.277
-37.322
-39.121
-40.649
-41.884
-42.824
-43.488
-43.951
-44.319
-44.699
-45.193
-45.87
-46.768
-47.95
-49.494
-51.482
-54.01
-57.149
-60.907
-65.356
-70.603
-76.586
-83.099
-89.664
-95.514
-100.011
-102.646
-102.826
-100.128
-94.502
-86.233
-76.36
-66.41
-57.485
-50.59
-46.669
-45.885
-47.716
-50.765
-52.041
-48.209
-36.678
-14.336
21.889
73.407
140.805
221.528
308.667
397.825
486.014
570.506
652.248
724.375
774.721
794.681
773.414
710.356
613.917
489.256
348.861
206.757
76.368
-24.327
-86.454
-113.193
-116.533
-111.751
-108.206
-106.998
-102.799
-92.534
-78.014
-62.87
-51.95
-47.33
-47.861
-51.976
-57.978
-64.025
-68.611
-70.87
-70.419
-67.511
-62.923
-57.363
-51.389
-45.705
-41.02
-37.718
-35.966
-35.688
-36.584
-38.419
-41.016
-44.148
-47.591
-51.168
-54.707
-58.076
-61.183
-63.905
-66.144
-67.846
-68.972
-69.512
-69.484
-68.914
-67.847
-66.344
-64.465
-62.267
-59.802
-57.122
-54.287
-51.359
-48.402
-45.473
-42.615
-39.852
-37.201
-34.67
-32.253
-29.941
-27.715
-25.552
-23.43
-21.336
-19.252
-17.167
-15.063
-12.92
-10.722
-8.451
-6.092
-3.633
-1.063
1.629
4.449
7.402
10.491
13.718
17.086
20.596
24.251
28.052
32
36.092
40.324
44.693
49.191
53.808
58.534
63.355
68.257
73.223
78.235
83.276
88.324
93.357
98.353
103.29
108.141
112.884
117.493
121.943
126.211
130.271
134.101
137.677
140.978
143.983
146.671
149.024
151.025
152.658
153.907
154.761
155.209
155.241
154.851
154.036
152.792
151.119
149.022
146.504
143.574
140.24
136.515
132.414
127.951
123.147
118.02
112.592
106.888
100.93
94.744
88.356
81.794
75.084
68.254
61.331
54.343
47.318
40.284
33.269
26.298
19.399
12.596
5.915
-0.62
-6.988
-13.167
-19.138
-24.883
-30.385
-35.63
-40.605
-45.298
-49.702
-53.809
-57.614
-61.114
-64.308
-67.196
-69.781
-72.066
-74.056
-75.759
-77.181
-78.331
-79.22
-79.856
-80.252
-80.42
-80.372
-80.123
-79.685
-79.074
-78.305
-77.392
-76.35
-75.196
-73.942
-72.606
-71.199
-69.738
-68.234
-66.702
-65.153
-63.598
-62.048
-60.514
-59.002
-57.522
-56.08
-54.681
-53.332
-52.036
-50.798
-49.62
-48.504
-47.454
-46.47
-45.555
-44.707
-43.928
-43.217
-42.574
-41.996
-41.483
-41.031
-40.64
-40.305
-40.024
-39.793
-39.61
-39.471
-39.373
-39.312
-39.285
-39.289
-39.321
-39.378
-39.458
-39.558
-39.677
-39.812
-39.964
-40.13
-40.309
-40.5
-40.703
-40.917
-41.139
-41.371
-41.611
-41.858
-42.111
-42.37
-42.635
-42.904
-43.179
-43.458
-43.743
-44.032
-44.328
-44.629
-44.937
-45.253
-45.576
-45.907
-46.247
-46.595
-46.952
-47.317
-47.691
-48.071
-48.457
-48.849
-49.244
-49.642
-50.04
-50.437
-50.831
-51.219
-51.599
-51.968
-52.325
-52.667
-52.991
-53.295
-53.576
-53.831
-54.058
-54.252
-54.41
-54.529
-54.604
-54.631
-54.607
-54.526
-54.385
-54.182
-53.911
-53.57
-53.156
-52.667
-52.101
-51.457
-50.734
-49.931
-49.05
-48.092
-47.06
-45.956
-44.784
-43.551
-42.262
-40.923
-39.544
-38.132
-36.695
-35.245
-33.79
-32.341
-30.909
-29.503
-28.137
-26.821
-25.569
-24.392
-23.304
-22.316
-21.443
-20.698
-20.092
-19.636
-19.336
-19.197
-19.225
-19.426
-19.808
-20.38
-21.142
-22.097
-23.243
-24.578
-26.096
-27.779
-29.597
-31.516
-33.503
-35.529
-37.572
-39.607
-41.608
-43.541
-45.366
-47.047
-48.555
-49.863
-50.943
-51.776
-52.348
-52.682
-52.853
-52.945
-53.046
-53.225
-53.509
-53.943
-54.606
-55.582
-56.955
-58.791
-61.081
-63.859
-67.283
-71.38
-76.035
-80.947
-85.513
-89.229
-91.839
-92.869
-91.674
-88.051
-82.11
-74.518
-66.702
-59.437
-53.143
-49.114
-48.635
-52.027
-57.43
-60.288
-56.147
-43.44
-25.929
-8.945
8.046
29.889
67.387
133.301
228.191
346.627
479.574
608.023
718.943
801.496
838.077
823.422
754.726
630.785
470.16
291.145
116.697
-22.276
-114.212
-156.371
-158.033
-145.613
-134.027
-129.458
-131.721
-129.261
-118.096
-101.729
-83.87
-70.737
-64.889
-64.476
-67.726
-72.832
-77.833
-81.299
-82.432
-80.861
-76.851
-71.21
-64.681
-57.806
-51.285
-45.835
-41.823
-39.417
-38.544
-38.891
-40.213
-42.329
-45.003
-48.007
-51.166
-54.307
-57.297
-60.047
-62.444
-64.394
-65.852
-66.779
-67.167
-67.033
-66.4
-65.309
-63.816
-61.974
-59.835
-57.448
-54.86
-52.126
-49.305
-46.453
-43.623
-40.851
-38.156
-35.552
-33.042
-30.62
-28.273
-25.982
-23.723
-21.478
-19.231
-16.969
-14.678
-12.342
-9.945
-7.469
-4.898
-2.221
0.574
3.498
6.557
9.757
13.099
16.585
20.211
23.978
27.883
31.925
36.1
40.405
44.833
49.376
54.027
58.775
63.607
68.509
73.466
78.46
83.475
88.491
93.489
98.448
103.347
108.165
112.88
117.467
121.905
126.17
130.237
134.084
137.688
141.027
144.079
146.825
149.247
151.328
153.053
154.409
155.383
155.966
156.151
155.932
155.304
154.266
152.817
150.962
148.704
146.051
143.011
139.596
135.818
131.693
127.235
122.464
117.398
112.057
106.464
100.641
94.614
88.406
82.044
75.555
68.967
62.305
55.597
48.869
42.148
35.458
28.825
22.271
15.821
9.494
3.312
-2.705
-8.541
-14.178
-19.6
-24.796
-29.751
-34.458
-38.905
-43.086
-46.996
-50.629
-53.983
-57.056
-59.848
-62.36
-64.596
-66.559
-68.255
-69.691
-70.876
-71.818
-72.527
-73.016
-73.294
-73.374
-73.269
-72.99
-72.551
-71.964
-71.242
-70.398
-69.445
-68.394
-67.26
-66.052
-64.785
-63.467
-62.111
-60.727
-59.325
-57.915
-56.505
-55.104
-53.721
-52.363
-51.037
-49.749
-48.506
-47.31
-46.167
-45.08
-44.05
-43.08
-42.17
-41.322
-40.534
-39.806
-39.139
-38.53
-37.979
-37.485
-37.045
-36.659
-36.325
-36.041
-35.806
-35.617
-35.473
-35.371
-35.31
-35.287
-35.3
-35.347
-35.425
-35.532
-35.664
-35.821
-35.999
-36.195
-36.409
-36.639
-36.883
-37.14
-37.41
-37.693
-37.987
-38.294
-38.615
-38.949
-39.297
-39.659
-40.036
-40.429
-40.836
-41.257
-41.692
-42.139
-42.597
-43.065
-43.541
-44.023
-44.51
-44.999
-45.49
-45.979
-46.465
-46.945
-47.418
-47.881
-48.331
-48.766
-49.183
-49.578
-49.948
-50.289
-50.596
-50.866
-51.092
-51.271
-51.397
-51.464
-51.467
-51.401
-51.261
-51.042
-50.742
-50.357
-49.883
-49.32
-48.667
-47.922
-47.088
-46.163
-45.15
-44.048
-42.859
-41.586
-40.233
-38.804
-37.302
-35.733
-34.103
-32.424
-30.704
-28.955
-27.186
-25.407
-23.631
-21.873
-20.149
-18.477
-16.871
-15.346
-13.916
-12.602
-11.419
-10.384
-9.505
-8.785
-8.23
-7.846
-7.644
-7.636
-7.819
-8.187
-8.733
-9.452
-10.35
-11.433
-12.696
-14.13
-15.722
-17.463
-19.352
-21.394
-23.569
-25.851
-28.203
-30.571
-32.937
-35.294
-37.644
-40.006
-42.344
-44.592
-46.685
-48.552
-50.167
-51.567
-52.717
-53.502
-53.956
-54.219
-54.65
-55.857
-58.109
-61.279
-65.199
-69.736
-74.744
-79.998
-84.608
-86.912
-85.831
-81.226
-73.586
-63.832
-52.561
-40.22
-28.308
-19.596
-16.562
-20.432
-30.909
-46.515
-66.159
-89.097
-113.452
-135.727
-151.725
-158.047
-153
-136.033
-106.469
-63.349
-6.043
64.436
144.722
231.647
321.099
406.373
483.793
550.653
605.293
653.773
696.255
723.329
725.107
684.746
593.173
460.678
304.107
148.252
19.216
-68.651
-109.684
-105.12
-66.567
-12.125
40.207
70.946
68.384
35.91
-15.721
-68.59
-106.598
-125.585
-128.12
-121.468
-112.76
-103.796
-93.595
-80.457
-64.062
-45.952
-28.819
-15.835
-8.394
-6.469
-9.299
-15.164
-22.784
-31.5
-40.182
-47.406
-52.343
-54.644
-54.683
-53.679
-52.399
-51.062
-49.974
-49.392
-49.458
-50.305
-51.709
-53.058
-53.991
-54.392
-54.21
-53.546
-52.462
-50.942
-49.061
-46.968
-44.761
-42.518
-40.281
-38.032
-35.786
-33.572
-31.403
-29.301
-27.272
-25.303
-23.378
-21.474
-19.565
-17.633
-15.662
-13.637
-11.547
-9.377
-7.116
-4.754
-2.283
0.309
3.034
5.909
8.943
12.143
15.512
19.047
22.747
26.611
30.635
34.817
39.152
43.634
48.256
53.011
57.89
62.88
67.966
73.132
78.359
83.628
88.918
94.209
99.477
104.7
109.855
114.917
119.863
124.669
129.309
133.759
137.995
141.995
145.734
149.192
152.347
155.182
157.677
159.817
161.586
162.974
163.967
164.558
164.739
164.504
163.85
162.776
161.283
159.373
157.052
154.326
151.206
147.703
143.829
139.599
135.031
130.14
124.947
119.472
113.736
107.761
101.571
95.19
88.642
81.952
75.147
68.25
61.288
54.286
47.269
40.261
33.286
26.368
19.53
12.793
6.18
-0.289
-6.595
-12.719
-18.645
-24.357
-29.84
-35.083
-40.073
-44.802
-49.261
-53.442
-57.342
-60.954
-64.277
-67.309
-70.049
-72.499
-74.66
-76.537
-78.133
-79.456
-80.51
-81.304
-81.847
-82.146
-82.213
-82.058
-81.693
-81.128
-80.378
-79.455
-78.374
-77.147
-75.791
-74.32
-72.747
-71.087
-69.355
-67.563
-65.725
-63.854
-61.961
-60.058
-58.156
-56.267
-54.4
-52.564
-50.769
-49.023
-47.332
-45.705
-44.146
-42.66
-41.253
-39.927
-38.686
-37.533
-36.469
-35.495
-34.613
-33.821
-33.118
-32.502
-31.97
-31.518
-31.142
-30.836
-30.597
-30.418
-30.295
-30.222
-30.195
-30.209
-30.26
-30.343
-30.454
-30.588
-30.742
-30.91
-31.09
-31.279
-31.473
-31.67
-31.868
-32.067
-32.265
-32.462
-32.657
-32.851
-33.042
-33.231
-33.42
-33.609
-33.8
-33.996
-34.198
-34.412
-34.641
-34.888
-35.158
-35.453
-35.776
-36.13
-36.515
-36.933
-37.383
-37.865
-38.379
-38.925
-39.503
-40.111
-40.749
-41.417
-42.114
-42.838
-43.586
-44.351
-45.126
-45.905
-46.68
-47.442
-48.18
-48.885
-49.547
-50.158
-50.714
-51.206
-51.625
-51.959
-52.19
-52.309
-52.309
-52.185
-51.933
-51.556
-51.058
-50.458
-49.783
-49.051
-48.27
-47.444
-46.562
-45.619
-44.612
-43.534
-42.381
-41.149
-39.828
-38.417
-36.926
-35.346
-33.66
-31.834
-29.806
-27.542
-25.034
-22.289
-19.333
-16.207
-12.952
-9.634
-6.338
-3.138
-0.101
2.721
5.3
7.589
9.521
11.014
11.95
12.244
11.851
10.736
8.888
6.326
3.088
-0.734
-4.996
-9.573
-14.354
-19.245
-24.188
-29.102
-33.885
-38.431
-42.605
-46.298
-49.436
-51.945
-53.768
-54.888
-55.331
-55.214
-54.729
-54.055
-53.344
-52.704
-52.231
-52.059
-52.329
-53.182
-54.756
-57.115
-60.366
-64.694
-70.127
-76.527
-83.547
-90.479
-96.606
-101.399
-104.183
-104.262
-101.429
-95.792
-88.075
-79.824
-72.317
-66.481
-63.386
-63.685
-66.981
-72.077
-76.494
-76.561
-68.774
-49.639
-15.573
36.154
104.847
186.62
276.917
371.195
469.911
575.947
685.013
785.016
855.225
874.083
833.802
742.671
622.238
495.7
377.348
271.894
176.294
89.182
13.749
-46.092
-86.401
-106.866
-111.193
-103.961
-89.828
-73.567
-59.147
-49.01
-44.399
-45.296
-50.553
-58.691
-68.239
-77.309
-84.096
-87.734
-87.959
-85.1
-80.001
-73.488
-66.326
-59.393
-53.476
-48.974
-46.04
-44.607
-44.437
-45.346
-47.161
-49.664
-52.634
-55.887
-59.275
-62.666
-65.944
-68.963
-71.565
-73.641
-75.124
-75.983
-76.219
-75.847
-74.894
-73.405
-71.445
-69.075
-66.356
-63.347
-60.104
-56.69
-53.179
-49.64
-46.139
-42.726
-39.43
-36.269
-33.248
-30.364
-27.609
-24.966
-22.413
-19.93
-17.504
-15.119
-12.763
-10.421
-8.073
-5.702
-3.29
-0.821
1.717
4.336
7.045
9.851
12.761
15.777
18.902
22.139
25.491
28.961
32.55
36.26
40.087
44.03
48.084
52.241
56.493
60.829
65.237
69.701
74.209
78.742
83.282
87.811
92.308
96.752
101.119
105.387
109.533
113.532
117.362
120.998
124.417
127.598
130.518
133.156
135.493
137.51
139.189
140.516
141.476
142.057
142.248
142.043
141.435
140.421
138.998
137.169
134.936
132.305
129.282
125.878
122.103
117.971
113.497
108.699
103.595
98.206
92.553
86.661
80.552
74.252
67.787
61.182
54.466
47.664
40.803
33.911
27.013
20.136
13.306
6.547
-0.118
-6.666
-13.076
-19.329
-25.406
-31.292
-36.972
-42.431
-47.658
-52.642
-57.375
-61.85
-66.059
-70
-73.669
-77.065
-80.188
-83.04
-85.625
-87.945
-90.006
-91.815
-93.378
-94.704
-95.801
-96.68
-97.35
-97.823
-98.111
-98.225
-98.177
-97.979
-97.644
-97.181
-96.604
-95.922
-95.147
-94.286
-93.351
-92.349
-91.29
-90.181
-89.03
-87.843
-86.628
-85.389
-84.134
-82.866
-81.591
-80.313
-79.037
-77.765
-76.502
-75.25
-74.014
-72.794
-71.594
-70.415
-69.259
-68.126
-67.019
-65.936
-64.878
-63.847
-62.842
-61.863
-60.911
-59.987
-59.093
-58.228
-57.395
-56.594
-55.828
-55.097
-54.404
-53.751
-53.138
-52.569
-52.043
-51.564
-51.132
-50.749
-50.414
-50.13
-49.897
-49.714
-49.581
-49.499
-49.467
-49.484
-49.551
-49.665
-49.828
-50.039
-50.296
-50.6
-50.95
-51.343
-51.779
-52.256
-52.771
-53.321
-53.904
-54.516
-55.154
-55.813
-56.488
-57.176
-57.871
-58.569
-59.265
-59.952
-60.626
-61.281
-61.913
-62.515
-63.082
-63.609
-64.091
-64.524
-64.902
-65.221
-65.476
-65.662
-65.775
-65.809
-65.76
-65.623
-65.394
-65.068
-64.643
-64.115
-63.483
-62.744
-61.898
-60.943
-59.882
-58.714
-57.443
-56.07
-54.6
-53.038
-51.388
-49.657
-47.853
-45.984
-44.059
-42.089
-40.084
-38.059
-36.025
-33.997
-31.989
-30.017
-28.095
-26.237
-24.457
-22.77
-21.19
-19.73
-18.406
-17.231
-16.221
-15.391
-14.752
-14.317
-14.094
-14.088
-14.299
-14.731
-15.385
-16.268
-17.389
-18.747
-20.348
-22.191
-24.273
-26.585
-29.101
-31.783
-34.593
-37.487
-40.428
-43.388
-46.33
-49.215
-52.006
-54.646
-57.083
-59.279
-61.183
-62.753
-63.959
-64.788
-65.283
-65.527
-65.603
-65.59
-65.537
-65.492
-65.555
-65.831
-66.432
-67.5
-69.101
-71.344
-74.448
-78.451
-83.234
-88.516
-93.627
-97.909
-100.978
-102.246
-101.05
-97.359
-91.376
-83.873
-76.654
-71.035
-67.721
-67.81
-71.999
-79.723
-89.882
-99.977
-105.589
-103.261
-90.37
-63.331
-19.291
42.559
122.234
215.959
315.29
415.11
511.659
601.603
686.004
758.132
804.839
815.245
777.823
694.315
580.604
452.319
326.778
213.65
112.164
24.076
-48.999
-105.42
-141.478
-157.551
-157.254
-144.815
-125.323
-103.969
-84.877
-70.637
-62.54
-60.523
-63.45
-69.88
-78.277
-86.603
-92.929
-96.304
-96.43
-93.622
-88.676
-82.299
-75.141
-68.004
-61.627
-56.396
-52.44
-49.653
-47.77
-46.603
-46.021
-45.88
-46.052
-46.422
-46.907
-47.454
-48.045
-48.673
-49.3
-49.908
-50.492
-51.052
-51.604
-52.179
-52.798
-53.468
-54.187
-54.92
-55.607
-56.222
-56.738
-57.137
-57.402
-57.489
-57.365
-57.008
-56.399
-55.522
-54.363
-52.895
-51.098
-48.981
-46.556
-43.861
-40.951
-37.858
-34.606
-31.218
-27.711
-24.11
-20.436
-16.696
-12.885
-9.001
-5.041
-1.01
3.09
7.268
11.542
15.928
20.454
25.132
29.967
34.963
40.119
45.431
50.893
56.489
62.195
67.99
73.853
79.765
85.704
91.645
97.559
103.417
109.189
114.845
120.359
125.702
130.846
135.765
140.434
144.832
148.938
152.729
156.186
159.289
162.019
164.358
166.293
167.809
168.895
169.542
169.743
169.494
168.793
167.641
166.039
163.991
161.506
158.59
155.257
151.518
147.388
142.886
138.029
132.84
127.341
121.556
115.51
109.23
102.743
96.076
89.258
82.318
75.285
68.187
61.054
53.913
46.793
39.722
32.724
25.826
19.051
12.422
5.962
-0.311
-6.378
-12.222
-17.827
-23.179
-28.265
-33.076
-37.602
-41.835
-45.771
-49.406
-52.737
-55.766
-58.493
-60.923
-63.06
-64.91
-66.482
-67.783
-68.825
-69.618
-70.174
-70.506
-70.627
-70.551
-70.292
-69.864
-69.282
-68.56
-67.712
-66.753
-65.695
-64.552
-63.337
-62.064
-60.743
-59.387
-58.006
-56.612
-55.214
-53.821
-52.441
-51.082
-49.75
-48.451
-47.189
-45.968
-44.792
-43.663
-42.581
-41.549
-40.566
-39.632
-38.746
-37.905
-37.11
-36.357
-35.644
-34.969
-34.33
-33.723
-33.146
-32.597
-32.074
-31.573
-31.094
-30.633
-30.19
-29.762
-29.349
-28.948
-28.56
-28.183
-27.818
-27.464
-27.123
-26.793
-26.478
-26.178
-25.895
-25.631
-25.388
-25.169
-24.976
-24.812
-24.68
-24.581
-24.519
-24.496
-24.513
-24.573
-24.676
-24.823
-25.016
-25.255
-25.539
-25.868
-26.24
-26.654
-27.108
-27.599
-28.123
-28.679
-29.261
-29.864
-30.485
-31.118
-31.755
-32.392
-33.021
-33.634
-34.225
-34.785
-35.305
-35.778
-36.195
-36.548
-36.828
-37.029
-37.143
-37.162
-37.08
-36.891
-36.592
-36.176
-35.64
-34.982
-34.2
-33.293
-32.261
-31.105
-29.828
-28.433
-26.925
-25.308
-23.589
-21.777
-19.879
-17.907
-15.873
-13.789
-11.672
-9.536
-7.399
-5.279
-3.193
-1.158
0.809
2.691
4.473
6.139
7.671
9.055
10.273
11.31
12.153
12.788
13.205
13.4
13.367
13.104
12.607
11.866
10.874
9.627
8.121
6.353
4.325
2.046
-0.459
-3.153
-5.996
-8.947
-11.966
-15.02
-18.073
-21.081
-24.002
-26.78
-29.362
-31.707
-33.772
-35.517
-36.916
-37.969
-38.727
-39.282
-39.733
-40.165
-40.639
-41.219
-42.007
-43.113
-44.66
-46.774
-49.515
-52.974
-57.332
-62.61
-68.679
-75.223
-81.582
-87.103
-91.361
-93.786
-93.747
-91.144
-86.176
-79.548
-72.866
-67.374
-63.769
-63.127
-66.19
-72.51
-81.016
-89.369
-93.663
-90.844
-78.286
-52.281
-9.931
49.97
125.974
212.693
303.583
394.44
485.497
577.649
666.505
741.271
784.375
780.445
725.882
627.948
501.018
359.466
214.338
75.028
-46.249
-135.272
-184.218
-195.146
-180.628
-157.016
-135.166
-117.873
-101.852
-84.856
-67.679
-53.009
-44.694
-43.543
-47.697
-55.141
-63.18
-69.526
-73.373
-74.354
-72.496
-68.544
-63.293
-57.406
-51.746
-47.106
-43.807
-41.93
-41.341
-41.68
-42.686
-44.17
-45.899
-47.669
-49.336
-50.788
-51.976
-52.882
-53.449
-53.624
-53.37
-52.688
-51.633
-50.304
-48.829
-47.321
-45.865
-44.533
-43.373
-42.408
-41.652
-41.086
-40.661
-40.349
-40.138
-40.016
-39.981
-40.008
-40.043
-40.014
-39.833
-39.423
-38.725
-37.693
-36.29
-34.505
-32.342
-29.834
-27.044
-24.017
-20.778
-17.345
-13.72
-9.914
-5.947
-1.842
2.383
6.704
11.107
15.574
20.084
24.631
29.215
33.85
38.56
43.363
48.259
53.247
58.316
63.451
68.641
73.866
79.101
84.322
89.507
94.637
99.694
104.657
109.502
114.202
118.73
123.059
127.166
131.029
134.627
137.942
140.956
143.655
146.03
148.071
149.766
151.107
152.085
152.692
152.924
152.775
152.243
151.326
150.025
148.344
146.287
143.862
141.077
137.943
134.471
130.675
126.569
122.169
117.493
112.557
107.383
101.988
96.395
90.625
84.699
78.638
72.467
66.205
59.876
53.5
47.099
40.693
34.302
27.948
21.648
15.424
9.292
3.271
-2.621
-8.369
-13.955
-19.367
-24.591
-29.614
-34.427
-39.017
-43.379
-47.503
-51.383
-55.016
-58.396
-61.522
-64.392
-67.007
-69.368
-71.477
-73.339
-74.957
-76.336
-77.483
-78.403
-79.104
-79.593
-79.879
-79.969
-79.873
-79.601
-79.163
-78.568
-77.827
-76.953
-75.954
-74.843
-73.631
-72.329
-70.947
-69.498
-67.991
-66.438
-64.849
-63.234
-61.602
-59.962
-58.323
-56.693
-55.077
-53.482
-51.915
-50.379
-48.879
-47.42
-46.004
-44.636
-43.318
-42.052
-40.841
-39.687
-38.591
-37.554
-36.577
-35.661
-34.806
-34.013
-33.281
-32.61
-32
-31.45
-30.96
-30.529
-30.155
-29.837
-29.574
-29.365
-29.209
-29.104
-29.049
-29.045
-29.091
-29.187
-29.334
-29.531
-29.779
-30.078
-30.43
-30.833
-31.289
-31.798
-32.358
-32.97
-33.633
-34.347
-35.11
-35.919
-36.775
-37.673
-38.611
-39.586
-40.594
-41.632
-42.695
-43.779
-44.879
-45.99
-47.107
-48.223
-49.333
-50.43
-51.508
-52.56
-53.578
-54.554
-55.481
-56.35
-57.154
-57.885
-58.534
-59.095
-59.559
-59.919
-60.171
-60.307
-60.323
-60.214
-59.976
-59.608
-59.106
-58.471
-57.702
-56.801
-55.77
-54.612
-53.334
-51.94
-50.438
-48.838
-47.149
-45.383
-43.552
-41.67
-39.752
-37.813
-35.868
-33.933
-32.021
-30.15
-28.336
-26.592
-24.936
-23.383
-21.948
-20.649
-19.503
-18.523
-17.724
-17.112
-16.694
-16.477
-16.468
-16.681
-17.125
-17.804
-18.722
-19.884
-21.288
-22.926
-24.781
-26.808
-28.962
-31.2
-33.481
-35.774
-38.049
-40.267
-42.387
-44.359
-46.135
-47.683
-48.975
-49.974
-50.659
-51.028
-51.122
-51.056
-50.952
-50.926
-51.066
-51.416
-52.035
-53.016
-54.447
-56.446
-59.11
-62.455
-66.569
-71.595
-77.49
-84.094
-90.978
-97.336
-102.469
-105.808
-106.651
-104.563
-99.591
-91.992
-82.799
-73.662
-65.797
-60.498
-59.08
-61.657
-67.331
-74.628
-80.56
-81.385
-73.879
-53.869
-16.839
37.694
106.644
186.682
272.256
362.981
465.477
577.772
691.309
789.351
844.567
841.253
778.624
665.186
519.981
361.868
204.458
62.274
-49.665
-121.537
-148.89
-137.116
-100.347
-55.115
-17.849
2.368
1.224
-18.134
-44
-68.325
-83.981
-88.972
-90.047
-90.742
-92.567
-95.688
-96.399
-93.117
-86.646
-77.795
-68.056
-58.629
-49.927
-42.266
-35.942
-30.997
-27.286
-24.744
-23.338
-22.985
-23.682
-25.368
-27.889
-31.149
-35.04
-39.386
-43.991
-48.622
-53.046
-57.12
-60.757
-63.899
-66.524
-68.601
-70.101
-71.014
-71.316
-70.999
-70.087
-68.597
-66.574
-64.093
-61.239
-58.125
-54.876
-51.572
-48.264
-44.986
-41.742
-38.543
-35.4
-32.308
-29.271
-26.294
-23.372
-20.507
-17.699
-14.93
-12.175
-9.401
-6.559
-3.616
-0.551
2.654
6.006
9.507
13.163
16.968
20.916
25.001
29.22
33.569
38.048
42.647
47.361
52.18
57.089
62.077
67.123
72.205
77.307
82.408
87.488
92.529
97.511
102.409
107.207
111.882
116.416
120.792
124.98
128.955
132.684
136.133
139.296
142.167
144.742
147.029
148.995
150.606
151.86
152.744
153.252
153.418
153.164
152.403
151.264
149.829
148.201
146.547
144.693
142.401
139.768
136.857
133.397
129.26
124.107
117.496
109.903
101.871
93.425
84.723
76.121
67.764
60.253
54.282
49.304
44.753
40.546
36.396
32.151
27.839
22.96
16.986
10.359
3.494
-3.451
-10.15
-16.594
-22.865
-28.682
-33.788
-38.345
-42.475
-46.263
-49.865
-53.215
-56.23
-58.97
-61.47
-63.713
-65.704
-67.421
-68.837
-69.989
-70.913
-71.627
-72.159
-72.513
-72.693
-72.713
-72.586
-72.324
-71.944
-71.454
-70.868
-70.195
-69.446
-68.631
-67.762
-66.847
-65.892
-64.906
-63.893
-62.863
-61.827
-60.791
-59.763
-58.749
-57.749
-56.77
-55.812
-54.878
-53.969
-53.084
-52.223
-51.387
-50.575
-49.786
-49.021
-48.28
-47.56
-46.862
-46.185
-45.53
-44.896
-44.283
-43.691
-43.12
-42.572
-42.046
-41.543
-41.063
-40.607
-40.174
-39.764
-39.379
-39.017
-38.68
-38.367
-38.081
-37.821
-37.589
-37.387
-37.216
-37.078
-36.974
-36.907
-36.877
-36.886
-36.934
-37.022
-37.151
-37.321
-37.531
-37.781
-38.07
-38.397
-38.761
-39.16
-39.592
-40.054
-40.544
-41.06
-41.598
-42.157
-42.732
-43.322
-43.923
-44.533
-45.146
-45.76
-46.37
-46.973
-47.563
-48.137
-48.689
-49.215
-49.71
-50.17
-50.589
-50.964
-51.288
-51.559
-51.771
-51.919
-51.999
-52.007
-51.939
-51.791
-51.561
-51.245
-50.841
-50.347
-49.761
-49.082
-48.31
-47.444
-46.485
-45.435
-44.296
-43.072
-41.767
-40.389
-38.943
-37.438
-35.882
-34.286
-32.661
-31.018
-29.367
-27.721
-26.091
-24.488
-22.927
-21.42
-19.98
-18.622
-17.359
-16.209
-15.186
-14.306
-13.581
-13.02
-12.632
-12.424
-12.405
-12.588
-12.984
-13.599
-14.437
-15.504
-16.799
-18.321
-20.054
-21.962
-24.01
-26.162
-28.386
-30.656
-32.947
-35.225
-37.456
-39.602
-41.621
-43.484
-45.163
-46.621
-47.842
-48.817
-49.569
-50.186
-50.761
-51.38
-52.12
-53.013
-54.101
-55.473
-57.212
-59.402
-62.157
-65.515
-69.559
-74.486
-80.303
-86.849
-93.78
-100.383
-105.932
-109.93
-111.72
-110.579
-106.393
-99.438
-90.566
-81.562
-73.98
-68.887
-67.626
-71.203
-79.221
-90.279
-101.64
-109.038
-108.583
-96.524
-68.737
-22.149
44.481
128.709
225.887
332.032
441.23
549.73
653.222
739.173
798.467
824.12
809.433
759.592
682.339
582.493
468.701
350.299
233.646
129.298
47.602
-12.264
-51.952
-75.678
-91.664
-99.477
-98.556
-91.193
-78.735
-66.344
-58.167
-54.728
-55.841
-60.188
-66.378
-73.639
-80.607
-85.661
-87.952
-87.322
-84.233
-79.501
-73.8
-67.694
-61.841
-56.924
-53.328
-51.126
-50.182
-50.225
-51.03
-52.434
-54.265
-56.322
-58.455
-60.566
-62.563
-64.38
-65.924
-67.071
-67.765
-68.001
-67.82
-67.321
-66.595
-65.706
-64.73
-63.736
-62.766
-61.851
-60.989
-60.138
-59.285
-58.435
-57.6
-56.817
-56.085
-55.374
-54.638
-53.805
-52.815
-51.624
-50.189
-48.467
-46.444
-44.117
-41.517
-38.705
-35.721
-32.584
-29.307
-25.885
-22.321
-18.631
-14.828
-10.926
-6.938
-2.873
1.256
5.433
9.654
13.925
18.261
22.693
27.24
31.906
36.694
41.596
46.604
51.71
56.896
62.142
67.426
72.73
78.033
83.32
88.57
93.759
98.859
103.84
108.676
113.339
117.805
122.049
126.047
129.778
133.223
136.367
139.194
141.688
143.835
145.62
147.032
148.06
148.695
148.93
148.761
148.183
147.196
145.803
144.007
141.814
139.23
136.266
132.933
129.243
125.212
120.856
116.192
111.241
106.024
100.562
94.878
88.997
82.944
76.743
70.421
64.003
57.513
50.978
44.422
37.869
31.343
24.866
18.461
12.148
5.948
-0.121
-6.04
-11.793
-17.364
-22.74
-27.907
-32.855
-37.572
-42.051
-46.284
-50.265
-53.99
-57.456
-60.662
-63.608
-66.295
-68.727
-70.906
-72.84
-74.534
-75.996
-77.234
-78.258
-79.078
-79.704
-80.146
-80.416
-80.525
-80.483
-80.301
-79.99
-79.561
-79.025
-78.391
-77.67
-76.872
-76.007
-75.085
-74.114
-73.104
-72.064
-71.001
-69.922
-68.836
-67.748
-66.664
-65.59
-64.531
-63.491
-62.474
-61.481
-60.517
-59.581
-58.675
-57.8
-56.956
-56.143
-55.36
-54.608
-53.886
-53.194
-52.532
-51.899
-51.297
-50.725
-50.184
-49.672
-49.19
-48.739
-48.318
-47.928
-47.568
-47.239
-46.941
-46.675
-46.441
-46.238
-46.069
-45.932
-45.828
-45.759
-45.725
-45.727
-45.767
-45.845
-45.964
-46.125
-46.33
-46.58
-46.877
-47.221
-47.612
-48.052
-48.538
-49.072
-49.651
-50.274
-50.938
-51.641
-52.38
-53.151
-53.95
-54.773
-55.615
-56.471
-57.336
-58.204
-59.069
-59.924
-60.763
-61.579
-62.365
-63.113
-63.815
-64.464
-65.051
-65.569
-66.008
-66.361
-66.618
-66.773
-66.817
-66.743
-66.544
-66.215
-65.749
-65.142
-64.392
-63.495
-62.451
-61.258
-59.918
-58.433
-56.805
-55.04
-53.142
-51.118
-48.975
-46.724
-44.374
-41.935
-39.421
-36.847
-34.229
-31.584
-28.931
-26.288
-23.675
-21.114
-18.624
-16.226
-13.938
-11.779
-9.766
-7.921
-6.261
-4.805
-3.571
-2.575
-1.829
-1.345
-1.132
-1.194
-1.53
-2.141
-3.027
-4.197
-5.655
-7.405
-9.449
-11.782
-14.397
-17.274
-20.388
-23.699
-27.166
-30.746
-34.397
-38.087
-41.778
-45.433
-49.004
-52.429
-55.647
-58.6
-61.236
-63.502
-65.37
-66.843
-67.953
-68.768
-69.352
-69.751
-70.016
-70.225
-70.465
-70.839
-71.452
-72.38
-73.745
-75.765
-78.541
-82.027
-85.975
-89.837
-93.06
-95.251
-95.928
-94.458
-90.536
-84.271
-76.38
-68.451
-61.986
-57.914
-57.149
-60.556
-68.315
-79.696
-92.569
-103.13
-107.569
-102.579
-84.607
-50.281
2.993
74.629
160.151
253.826
351.06
452.775
562.134
675.316
779.746
853.221
874.589
838.02
752.614
639.168
514.87
385.347
252.352
117.579
-5.823
-98.128
-148.508
-157.728
-141.098
-117.9
-99.223
-87.458
-78.194
-68.078
-57.667
-49.452
-46.828
-50.364
-58.135
-68.102
-77.672
-84.763
-88.695
-89.189
-86.471
-81.414
-74.878
-67.643
-60.605
-54.534
-49.806
-46.575
-44.79
-44.196
-44.591
-45.797
-47.603
-49.8
-52.226
-54.752
-57.26
-59.655
-61.813
-63.595
-64.904
-65.679
-65.894
-65.555
-64.688
-63.327
-61.522
-59.331
-56.812
-54.013
-50.982
-47.756
-44.375
-40.879
-37.317
-33.744
-30.204
-26.738
-23.367
-20.106
-16.964
-13.933
-11.004
-8.167
-5.409
-2.724
-0.123
2.372
4.725
6.89
8.853
10.616
12.19
13.614
14.928
16.182
17.447
18.772
20.197
21.757
23.473
25.371
27.502
29.93
32.73
35.987
39.75
44.041
48.867
54.197
59.975
66.121
72.523
79.089
85.757
92.482
99.232
105.968
112.629
119.134
125.41
131.371
136.952
142.109
146.81
151.049
154.856
158.299
161.454
164.379
167.098
169.588
171.827
173.789
175.458
176.832
177.892
178.621
179.003
179.01
178.608
177.759
176.397
174.418
171.735
168.276
163.99
158.89
153.003
146.36
139.019
131.03
122.469
113.428
104
94.291
84.41
74.457
64.538
54.792
45.343
36.312
27.82
19.931
12.688
6.123
0.237
-4.973
-9.528
-13.481
-16.899
-19.863
-22.448
-24.711
-26.702
-28.486
-30.126
-31.693
-33.268
-34.891
-36.591
-38.389
-40.293
-42.304
-44.413
-46.586
-48.769
-50.9
-52.932
-54.836
-56.598
-58.199
-59.621
-60.841
-61.836
-62.602
-63.138
-63.445
-63.525
-63.379
-63.02
-62.472
-61.772
-60.959
-60.062
-59.101
-58.09
-57.041
-55.965
-54.873
-53.773
-52.664
-51.55
-50.433
-49.323
-48.226
-47.146
-46.083
-45.034
-43.997
-42.969
-41.953
-40.947
-39.954
-38.974
-38.011
-37.069
-36.154
-35.271
-34.422
-33.611
-32.838
-32.104
-31.413
-30.766
-30.162
-29.605
-29.095
-28.634
-28.226
-27.872
-27.573
-27.332
-27.147
-27.021
-26.954
-26.944
-26.993
-27.098
-27.26
-27.477
-27.748
-28.073
-28.45
-28.876
-29.351
-29.872
-30.436
-31.041
-31.683
-32.358
-33.063
-33.794
-34.547
-35.317
-36.1
-36.892
-37.687
-38.481
-39.268
-40.042
-40.798
-41.53
-42.231
-42.896
-43.519
-44.093
-44.615
-45.079
-45.48
-45.814
-46.077
-46.265
-46.374
-46.401
-46.342
-46.195
-45.956
-45.623
-45.194
-44.669
-44.047
-43.327
-42.51
-41.597
-40.59
-39.491
-38.304
-37.031
-35.677
-34.248
-32.748
-31.184
-29.564
-27.896
-26.19
-24.455
-22.705
-20.95
-19.204
-17.48
-15.79
-14.147
-12.564
-11.052
-9.621
-8.282
-7.045
-5.922
-4.925
-4.068
-3.36
-2.811
-2.43
-2.225
-2.202
-2.363
-2.707
-3.235
-3.951
-4.866
-5.989
-7.328
-8.885
-10.659
-12.642
-14.818
-17.162
-19.639
-22.208
-24.828
-27.461
-30.075
-32.639
-35.121
-37.476
-39.648
-41.58
-43.225
-44.549
-45.526
-46.152
-46.453
-46.481
-46.326
-46.081
-45.821
-45.631
-45.612
-45.87
-46.523
-47.69
-49.465
-51.979
-55.412
-59.81
-65.072
-70.925
-76.87
-82.416
-87.211
-90.819
-92.67
-92.492
-90.378
-86.856
-83.044
-79.959
-78.075
-77.785
-79.636
-83.709
-89.32
-94.926
-97.869
-95.22
-84.799
-64.835
-33.119
12.33
72.198
145.94
229.808
317.133
402.378
481.7
554.912
624.314
688.007
738.857
763.096
745.614
680.297
569.142
424.369
266.421
114.338
-12.624
-99.92
-145.13
-155.298
-145.696
-131.805
-121.833
-115.975
-109.139
-99.084
-87.203
-76.62
-71.627
-73.214
-79.469
-88.627
-98.306
-106.083
-111.032
-112.618
-110.581
-105.611
-98.507
-89.902
-80.732
-71.935
-63.987
-57.178
-51.611
-47.108
-43.577
-40.951
-39.075
-37.813
-37.078
-36.842
-37.11
-37.881
-39.103
-40.663
-42.433
-44.321
-46.276
-48.235
-50.147
-51.937
-53.516
-54.849
-55.921
-56.706
-57.185
-57.306
-57.025
-56.337
-55.262
-53.829
-52.085
-50.056
-47.756
-45.224
-42.499
-39.631
-36.682
-33.68
-30.639
-27.577
-24.51
-21.465
-18.466
-15.516
-12.604
-9.718
-6.848
-3.986
-1.126
1.753
4.678
7.675
10.777
14.002
17.359
20.86
24.511
28.319
32.287
36.41
40.675
45.074
49.597
54.235
58.978
63.81
68.709
73.655
78.626
83.599
88.553
93.465
98.31
103.067
107.713
112.228
116.591
120.781
124.774
128.55
132.086
135.36
138.353
141.045
143.418
145.454
147.14
148.461
149.406
149.966
150.133
149.9
149.262
148.218
146.766
144.909
142.65
139.995
136.954
133.535
129.751
125.618
121.15
116.366
111.284
105.926
100.312
94.467
88.413
82.176
75.781
69.254
62.623
55.913
49.151
42.364
35.578
28.819
22.11
15.477
8.942
2.528
-3.744
-9.855
-15.786
-21.519
-27.039
-32.332
-37.384
-42.185
-46.726
-50.998
-54.995
-58.714
-62.151
-65.305
-68.175
-70.764
-73.075
-75.112
-76.88
-78.388
-79.644
-80.656
-81.435
-81.992
-82.34
-82.489
-82.454
-82.247
-81.88
-81.369
-80.725
-79.962
-79.094
-78.133
-77.091
-75.98
-74.811
-73.596
-72.343
-71.063
-69.763
-68.452
-67.137
-65.825
-64.523
-63.236
-61.968
-60.725
-59.51
-58.326
-57.175
-56.059
-54.98
-53.937
-52.932
-51.963
-51.03
-50.132
-49.268
-48.437
-47.637
-46.867
-46.125
-45.41
-44.721
-44.056
-43.417
-42.802
-42.212
-41.648
-41.111
-40.602
-40.124
-39.679
-39.268
-38.895
-38.56
-38.267
-38.017
-37.814
-37.659
-37.554
-37.502
-37.505
-37.563
-37.68
-37.857
-38.095
-38.394
-38.757
-39.183
-39.673
-40.227
-40.844
-41.524
-42.264
-43.064
-43.919
-44.827
-45.782
-46.78
-47.815
-48.88
-49.968
-51.071
-52.181
-53.29
-54.388
-55.466
-56.516
-57.527
-58.491
-59.398
-60.24
-61.008
-61.695
-62.292
-62.792
-63.189
-63.475
-63.645
-63.693
-63.613
-63.402
-63.054
-62.567
-61.938
-61.165
-60.247
-59.184
-57.977
-56.628
-55.141
-53.52
-51.769
-49.898
-47.913
-45.823
-43.64
-41.375
-39.04
-36.65
-34.22
-31.765
-29.303
-26.851
-24.425
-22.044
-19.724
-17.483
-15.334
-13.294
-11.377
-9.599
-7.974
-6.517
-5.244
-4.171
-3.309
-2.671
-2.267
-2.1
-2.175
-2.492
-3.052
-3.861
-4.923
-6.241
-7.816
-9.648
-11.732
-14.059
-16.604
-19.332
-22.207
-25.191
-28.249
-31.357
-34.486
-37.604
-40.683
-43.682
-46.556
-49.266
-51.767
-54.016
-55.982
-57.652
-59.047
-60.231
-61.271
-62.223
-63.122
-63.997
-64.902
-65.916
-67.13
-68.635
-70.513
-72.865
-75.88
-79.672
-84.168
-89.101
-93.918
-97.966
-100.765
-101.855
-100.625
-96.788
-90.579
-82.754
-74.873
-68.707
-65.371
-65.716
-70.692
-80.486
-94.112
-109.457
-122.831
-129.801
-126.897
-111.314
-79.677
-29.373
39.911
127.009
227.038
331.416
434.875
533.542
623.752
705.674
772.632
813.779
821.967
788.106
713.288
605.807
470.779
321.544
172.326
38.66
-58.668
-110.865
-123.04
-110.357
-92.036
-80.007
-74.971
-70.521
-63.029
-52.788
-42.69
-37.721
-39.131
-44.97
-53.59
-62.639
-69.745
-74.165
-75.519
-73.631
-69.314
-63.475
-56.759
-50.034
-44.192
-39.656
-36.652
-35.246
-35.174
-36.214
-38.213
-40.926
-44.121
-47.624
-51.271
-54.92
-58.478
-61.81
-64.762
-67.229
-69.137
-70.45
-71.171
-71.313
-70.898
-69.967
-68.58
-66.795
-64.665
-62.245
-59.586
-56.748
-53.796
-50.796
-47.81
-44.886
-42.053
-39.328
-36.718
-34.219
-31.822
-29.515
-27.277
-25.092
-22.946
-20.824
-18.712
-16.595
-14.453
-12.266
-10.015
-7.679
-5.245
-2.704
-0.047
2.733
5.644
8.698
11.898
15.244
18.734
22.365
26.131
30.028
34.04
38.139
42.301
46.502
50.728
54.976
59.24
63.507
67.766
72.001
76.209
80.405
84.598
88.787
92.979
97.18
101.416
105.735
110.168
114.728
119.407
124.173
129
133.867
138.745
143.591
148.343
152.913
157.23
161.234
164.854
168.008
170.587
172.46
173.531
173.744
173.069
171.496
169.014
165.609
161.291
156.095
150.081
143.32
135.874
127.806
119.202
110.18
100.893
91.502
82.126
72.848
63.735
54.848
46.253
38.01
30.163
22.733
15.734
9.193
3.137
-2.422
-7.5
-12.154
-16.473
-20.53
-24.373
-28.03
-31.515
-34.852
-38.064
-41.163
-44.152
-47.03
-49.806
-52.511
-55.178
-57.815
-60.413
-62.936
-65.327
-67.548
-69.579
-71.398
-72.997
-74.367
-75.501
-76.41
-77.111
-77.615
-77.924
-78.029
-77.917
-77.593
-77.073
-76.381
-75.552
-74.61
-73.579
-72.484
-71.346
-70.183
-69.009
-67.829
-66.641
-65.453
-64.271
-63.107
-61.972
-60.875
-59.818
-58.805
-57.837
-56.915
-56.039
-55.206
-54.415
-53.663
-52.952
-52.282
-51.656
-51.074
-50.535
-50.039
-49.583
-49.166
-48.784
-48.432
-48.107
-47.805
-47.52
-47.25
-46.992
-46.74
-46.494
-46.249
-46.004
-45.757
-45.506
-45.251
-44.992
-44.728
-44.46
-44.189
-43.916
-43.643
-43.371
-43.103
-42.841
-42.587
-42.344
-42.114
-41.901
-41.707
-41.535
-41.388
-41.268
-41.178
-41.123
-41.104
-41.126
-41.192
-41.304
-41.467
-41.681
-41.949
-42.272
-42.65
-43.083
-43.569
-44.106
-44.692
-45.322
-45.991
-46.695
-47.427
-48.18
-48.948
-49.722
-50.495
-51.257
-52.001
-52.717
-53.397
-54.033
-54.616
-55.137
-55.589
-55.964
-56.254
-56.45
-56.546
-56.533
-56.406
-56.157
-55.781
-55.273
-54.627
-53.841
-52.914
-51.844
-50.632
-49.28
-47.791
-46.171
-44.426
-42.563
-40.592
-38.523
-36.372
-34.151
-31.878
-29.569
-27.242
-24.915
-22.609
-20.34
-18.126
-15.984
-13.931
-11.982
-10.155
-8.469
-6.94
-5.587
-4.423
-3.465
-2.727
-2.218
-1.944
-1.909
-2.115
-2.565
-3.271
-4.242
-5.483
-6.999
-8.789
-10.847
-13.162
-15.709
-18.453
-21.355
-24.374
-27.474
-30.626
-33.795
-36.947
-40.04
-43.011
-45.804
-48.366
-50.646
-52.602
-54.206
-55.457
-56.383
-57.054
-57.533
-57.865
-58.107
-58.322
-58.602
-59.055
-59.783
-60.891
-62.521
-64.879
-68.094
-72.124
-76.714
-81.378
-85.576
-88.864
-90.76
-90.593
-87.924
-82.883
-76.198
-69.284
-63.667
-60.313
-60.061
-64.026
-72.759
-85.486
-100.029
-112.858
-120.038
-118.199
-103.902
-73.128
-22.545
47.372
132.33
227.213
327.505
433.765
548.795
668.336
779.873
862.633
895.754
870.115
791.806
680.979
559.302
441.253
332.775
230.693
133.307
44.656
-29.784
-84.302
-117.032
-130.944
-130.391
-119.497
-102.208
-82.889
-65.604
-53.025
-46.28
-44.941
-47.719
-53.504
-61.098
-68.65
-74.317
-77.044
-76.536
-73.237
-68.012
-61.58
-54.581
-47.809
-42.043
-37.738
-35.054
-33.888
-33.964
-35.057
-36.992
-39.561
-42.54
-45.739
-49.003
-52.204
-55.252
-58.026
-60.394
-62.266
-63.581
-64.315
-64.48
-64.096
-63.195
-61.828
-60.06
-57.947
-55.546
-52.912
-50.095
-47.155
-44.151
-41.14
-38.178
-35.302
-32.536
-29.889
-27.36
-24.939
-22.612
-20.357
-18.148
-15.962
-13.781
-11.589
-9.369
-7.106
-4.78
-2.373
0.129
2.743
5.478
8.344
11.349
14.496
17.789
21.228
24.812
28.539
32.409
36.42
40.57
44.854
49.269
53.806
58.457
63.212
68.058
72.98
77.962
82.986
88.032
93.08
98.109
103.095
108.016
112.847
117.565
122.144
126.561
130.79
134.809
138.594
142.123
145.376
148.331
150.971
153.278
155.237
156.834
158.057
158.894
159.336
159.377
159.012
158.236
157.048
155.451
153.445
151.038
148.236
145.05
141.49
137.571
133.307
128.717
123.819
118.634
113.182
107.487
101.573
95.464
89.185
82.761
76.22
69.585
62.883
56.139
49.377
42.623
35.899
29.229
22.635
16.139
9.762
3.522
-2.561
-8.472
-14.193
-19.71
-25.01
-30.082
-34.916
-39.502
-43.834
-47.906
-51.713
-55.252
-58.523
-61.525
-64.261
-66.733
-68.945
-70.902
-72.612
-74.08
-75.315
-76.325
-77.119
-77.706
-78.098
-78.303
-78.333
-78.199
-77.913
-77.486
-76.929
-76.255
-75.474
-74.599
-73.639
-72.606
-71.511
-70.362
-69.172
-67.949
-66.702
-65.44
-64.172
-62.905
-61.647
-60.402
-59.178
-57.979
-56.81
-55.674
-54.575
-53.517
-52.5
-51.529
-50.605
-49.73
-48.905
-48.13
-47.406
-46.733
-46.11
-45.537
-45.012
-44.536
-44.106
-43.722
-43.383
-43.087
-42.832
-42.618
-42.442
-42.303
-42.199
-42.129
-42.09
-42.081
-42.101
-42.15
-42.227
-42.33
-42.461
-42.62
-42.805
-43.017
-43.256
-43.522
-43.814
-44.133
-44.479
-44.852
-45.252
-45.68
-46.137
-46.622
-47.136
-47.679
-48.251
-48.85
-49.477
-50.131
-50.81
-51.512
-52.237
-52.983
-53.747
-54.529
-55.324
-56.129
-56.941
-57.756
-58.568
-59.371
-60.16
-60.929
-61.67
-62.378
-63.045
-63.666
-64.233
-64.74
-65.18
-65.546
-65.831
-66.029
-66.132
-66.134
-66.029
-65.811
-65.477
-65.022
-64.442
-63.736
-62.9
-61.935
-60.839
-59.613
-58.257
-56.775
-55.17
-53.447
-51.611
-49.672
-47.637
-45.518
-43.328
-41.081
-38.792
-36.478
-34.156
-31.844
-29.561
-27.324
-25.152
-23.06
-21.065
-19.184
-17.434
-15.832
-14.395
-13.139
-12.081
-11.232
-10.607
-10.212
-10.051
-10.126
-10.437
-10.986
-11.783
-12.835
-14.146
-15.719
-17.558
-19.658
-22.004
-24.574
-27.325
-30.22
-33.216
-36.277
-39.371
-42.466
-45.529
-48.519
-51.384
-54.078
-56.55
-58.753
-60.635
-62.17
-63.373
-64.285
-64.981
-65.53
-65.972
-66.371
-66.802
-67.324
-67.991
-68.872
-70.026
-71.587
-73.791
-76.717
-80.323
-84.46
-88.703
-92.537
-95.471
-96.797
-95.697
-91.916
-85.602
-77.14
-67.902
-59.663
-54.043
-53.081
-57.212
-64.078
-71.232
-77.582
-85.623
-99.711
-119.265
-135.248
-129.049
-84.01
3.928
126.797
264.602
401.063
530.706
649.488
753.702
830.566
863.165
844.835
777.474
676.041
557.205
426.744
292.746
162.523
44.229
-44.506
-97.772
-122.804
-127.303
-124.493
-121.257
-113.558
-101.028
-85.506
-69.479
-58.328
-54.434
-56.629
-63.229
-72.369
-81.954
-89.889
-94.958
-96.473
-94.326
-89.364
-82.456
-74.222
-65.587
-57.522
-50.561
-45.064
-41.14
-38.542
-37.104
-36.705
-37.117
-38.144
-39.63
-41.42
-43.433
-45.619
-47.897
-50.194
-52.428
-54.508
-56.376
-57.966
-59.208
-60.071
-60.541
-60.625
-60.363
-59.777
-58.895
-57.762
-56.408
-54.866
-53.161
-51.288
-49.25
-47.069
-44.764
-42.371
-39.942
-37.498
-35.056
-32.63
-30.218
-27.818
-25.433
-23.044
-20.633
-18.189
-15.707
-13.195
-10.659
-8.092
-5.479
-2.799
-0.023
2.864
5.876
9.031
12.342
15.821
19.478
23.304
27.286
31.416
35.688
40.093
44.615
49.222
53.876
58.55
63.222
67.883
72.519
77.11
81.636
86.081
90.445
94.74
98.967
103.12
107.19
111.177
115.103
119.02
122.969
126.965
131.002
135.061
139.133
143.212
147.28
151.291
155.157
158.792
162.127
165.113
167.702
169.83
171.393
172.261
172.336
171.557
169.888
167.303
163.756
159.199
153.622
147.079
139.676
131.528
122.721
113.335
103.462
93.223
82.79
72.337
61.997
51.868
42.038
32.6
23.676
15.394
7.832
1.007
-5.112
-10.556
-15.342
-19.49
-23.046
-26.093
-28.753
-31.127
-33.275
-35.237
-37.051
-38.77
-40.474
-42.244
-44.122
-46.12
-48.23
-50.445
-52.766
-55.185
-57.667
-60.151
-62.558
-64.837
-66.963
-68.924
-70.708
-72.298
-73.663
-74.78
-75.647
-76.265
-76.639
-76.773
-76.665
-76.327
-75.783
-75.071
-74.231
-73.291
-72.27
-71.179
-70.03
-68.835
-67.609
-66.356
-65.078
-63.778
-62.464
-61.143
-59.824
-58.514
-57.214
-55.923
-54.64
-53.367
-52.106
-50.86
-49.633
-48.427
-47.249
-46.104
-45
-43.943
-42.936
-41.981
-41.082
-40.238
-39.453
-38.727
-38.061
-37.454
-36.91
-36.428
-36.011
-35.658
-35.371
-35.149
-34.992
-34.901
-34.874
-34.91
-35.008
-35.166
-35.384
-35.658
-35.986
-36.366
-36.796
-37.271
-37.788
-38.343
-38.932
-39.551
-40.194
-40.858
-41.538
-42.231
-42.932
-43.637
-44.342
-45.044
-45.739
-46.423
-47.092
-47.742
-48.368
-48.967
-49.533
-50.063
-50.552
-50.996
-51.391
-51.733
-52.018
-52.243
-52.403
-52.497
-52.519
-52.469
-52.343
-52.139
-51.856
-51.493
-51.048
-50.522
-49.916
-49.228
-48.459
-47.612
-46.686
-45.684
-44.608
-43.46
-42.243
-40.962
-39.621
-38.225
-36.78
-35.293
-33.772
-32.226
-30.664
-29.098
-27.537
-25.994
-24.482
-23.011
-21.592
-20.238
-18.958
-17.762
-16.662
-15.668
-14.79
-14.039
-13.427
-12.962
-12.653
-12.507
-12.525
-12.709
-13.059
-13.577
-14.273
-15.151
-16.215
-17.47
-18.918
-20.557
-22.378
-24.36
-26.465
-28.657
-30.897
-33.151
-35.396
-37.601
-39.737
-41.769
-43.652
-45.343
-46.809
-48.011
-48.913
-49.494
-49.755
-49.752
-49.579
-49.336
-49.109
-48.949
-48.908
-49.076
-49.535
-50.389
-51.749
-53.658
-56.22
-59.635
-63.945
-69.041
-74.618
-80.004
-84.523
-87.717
-88.963
-87.606
-83.536
-76.988
-68.849
-60.92
-54.704
-51.221
-51.652
-56.762
-66.106
-78.342
-90.71
-98.997
-99.276
-88.008
-61.452
-16.342
47.073
125.116
213.291
305.293
399.684
500.467
604.481
703.726
783.533
821.283
805.873
737.523
623.327
481.08
327.339
177.35
49.709
-42.646
-94.425
-110.244
-106.443
-98.531
-94.531
-95.052
-93.429
-85.711
-73.835
-61.458
-53.203
-51.022
-53.57
-59.051
-65.785
-72.083
-76.538
-78.385
-77.312
-73.606
-68.057
-61.395
-54.211
-47.211
-41.11
-36.313
-33.008
-31.147
-30.476
-30.803
-31.977
-33.808
-36.094
-38.665
-41.374
-44.097
-46.742
-49.195
-51.324
-53.04
-54.285
-55.03
-55.278
-55.045
-54.354
-53.247
-51.78
-50.001
-47.96
-45.708
-43.29
-40.761
-38.177
-35.591
-33.053
-30.6
-28.249
-26.008
-23.877
-21.843
-19.891
-17.999
-16.141
-14.296
-12.445
-10.569
-8.652
-6.676
-4.622
-2.471
-0.207
2.186
4.72
7.404
10.246
13.251
16.423
19.762
23.266
26.936
30.768
34.762
38.914
43.218
47.668
52.256
56.971
61.801
66.733
71.749
76.833
81.964
87.122
92.286
97.432
102.538
107.578
112.528
117.361
122.054
126.58
130.914
135.032
138.909
142.523
145.85
148.872
151.567
153.919
155.912
157.53
158.762
159.597
160.026
160.043
159.643
158.825
157.588
155.934
153.867
151.393
148.522
145.264
141.631
137.638
133.301
128.639
123.671
118.418
112.903
107.149
101.181
95.023
88.701
82.242
75.672
69.017
62.303
55.558
48.805
42.07
35.378
28.752
22.214
15.785
9.486
3.335
-2.65
-8.452
-14.058
-19.452
-24.623
-29.56
-34.252
-38.693
-42.876
-46.794
-50.446
-53.828
-56.94
-59.782
-62.358
-64.669
-66.721
-68.519
-70.07
-71.38
-72.459
-73.315
-73.958
-74.399
-74.648
-74.716
-74.616
-74.357
-73.952
-73.412
-72.748
-71.971
-71.092
-70.122
-69.07
-67.948
-66.766
-65.534
-64.261
-62.957
-61.631
-60.291
-58.945
-57.6
-56.263
-54.941
-53.638
-52.36
-51.113
-49.898
-48.721
-47.585
-46.49
-45.44
-44.435
-43.477
-42.567
-41.704
-40.889
-40.123
-39.405
-38.736
-38.115
-37.543
-37.02
-36.545
-36.118
-35.738
-35.405
-35.116
-34.872
-34.672
-34.513
-34.394
-34.316
-34.275
-34.272
-34.306
-34.374
-34.476
-34.612
-34.78
-34.981
-35.213
-35.476
-35.771
-36.096
-36.451
-36.837
-37.252
-37.694
-38.164
-38.658
-39.175
-39.713
-40.269
-40.84
-41.423
-42.015
-42.613
-43.214
-43.814
-44.409
-44.996
-45.571
-46.13
-46.669
-47.182
-47.666
-48.116
-48.527
-48.894
-49.212
-49.476
-49.68
-49.82
-49.89
-49.884
-49.797
-49.625
-49.362
-49.006
-48.552
-47.999
-47.345
-46.588
-45.729
-44.768
-43.707
-42.548
-41.293
-39.946
-38.511
-36.994
-35.4
-33.736
-32.008
-30.227
-28.402
-26.546
-24.671
-22.79
-20.918
-19.068
-17.258
-15.502
-13.813
-12.206
-10.694
-9.29
-8.008
-6.863
-5.869
-5.041
-4.389
-3.926
-3.661
-3.6
-3.745
-4.094
-4.648
-5.406
-6.378
-7.57
-8.986
-10.628
-12.497
-14.586
-16.88
-19.355
-21.969
-24.68
-27.446
-30.226
-32.987
-35.695
-38.312
-40.792
-43.082
-45.132
-46.895
-48.334
-49.405
-50.09
-50.409
-50.412
-50.19
-49.83
-49.392
-48.949
-48.592
-48.423
-48.561
-49.125
-50.193
-51.869
-54.341
-57.686
-61.857
-66.609
-71.375
-75.538
-78.602
-80.005
-79.113
-75.618
-69.601
-61.696
-53.425
-46.387
-41.753
-40.691
-44.148
-52.147
-63.749
-76.825
-87.57
-91.848
-85.918
-65.658
-27.426
30.667
107.365
198.087
296.51
396.963
498.665
602.476
704.45
794.306
852.845
860.405
809.391
707.645
577.154
441.77
317.458
209.635
114.908
32.041
-36.575
-88.159
-119.285
-130.775
-127.351
-113.312
-93.312
-72.479
-54.666
-42.334
-36.716
-37.261
-42.406
-50.812
-60.997
-70.91
-78.742
-83.424
-84.535
-82.496
-78.159
-72.237
-65.44
-58.595
-52.439
-47.446
-43.828
-41.512
-40.276
-39.928
-40.299
-41.227
-42.55
-44.138
-45.913
-47.803
-49.766
-51.762
-53.713
-55.542
-57.186
-58.566
-59.609
-60.286
-60.588
-60.524
-60.136
-59.445
-58.469
-57.247
-55.8
-54.155
-52.334
-50.327
-48.139
-45.795
-43.322
-40.77
-38.197
-35.632
-33.093
-30.593
-28.126
-25.688
-23.275
-20.865
-18.438
-15.979
-13.483
-10.961
-8.424
-5.861
-3.258
-0.581
2.204
5.117
8.174
11.39
14.772
18.321
22.027
25.858
29.782
33.773
37.819
41.924
46.091
50.316
54.593
58.909
63.263
67.67
72.138
76.665
81.252
85.902
90.638
95.512
100.559
105.805
111.247
116.854
122.591
128.43
134.317
140.195
145.98
151.556
156.835
161.748
166.22
170.186
173.551
176.191
178.008
178.934
178.921
177.963
176.056
173.196
169.421
164.79
159.393
153.356
146.776
139.721
132.27
124.495
116.49
108.377
100.252
92.185
84.238
76.451
68.866
61.526
54.443
47.603
40.973
34.505
28.17
21.965
15.883
9.922
4.073
-1.686
-7.358
-12.932
-18.399
-23.75
-28.977
-34.076
-39.03
-43.808
-48.375
-52.693
-56.736
-60.493
-63.952
-67.108
-69.955
-72.493
-74.729
-76.675
-78.345
-79.747
-80.891
-81.785
-82.44
-82.876
-83.108
-83.155
-83.034
-82.758
-82.344
-81.805
-81.156
-80.408
-79.57
-78.652
-77.663
-76.614
-75.517
-74.383
-73.222
-72.046
-70.862
-69.682
-68.514
-67.365
-66.241
-65.146
-64.084
-63.06
-62.074
-61.131
-60.23
-59.373
-58.562
-57.795
-57.074
-56.397
-55.765
-55.175
-54.628
-54.122
-53.656
-53.229
-52.84
-52.49
-52.176
-51.899
-51.657
-51.451
-51.278
-51.138
-51.03
-50.952
-50.903
-50.882
-50.888
-50.922
-50.982
-51.07
-51.185
-51.328
-51.501
-51.703
-51.936
-52.201
-52.498
-52.828
-53.192
-53.591
-54.026
-54.497
-55.004
-55.547
-56.125
-56.737
-57.382
-58.057
-58.76
-59.488
-60.239
-61.009
-61.794
-62.59
-63.395
-64.202
-65.009
-65.809
-66.597
-67.369
-68.117
-68.837
-69.521
-70.164
-70.759
-71.299
-71.779
-72.192
-72.531
-72.79
-72.963
-73.044
-73.025
-72.903
-72.672
-72.327
-71.864
-71.281
-70.577
-69.748
-68.796
-67.722
-66.525
-65.208
-63.774
-62.228
-60.573
-58.817
-56.967
-55.031
-53.017
-50.936
-48.8
-46.624
-44.421
-42.204
-39.987
-37.789
-35.628
-33.525
-31.498
-29.563
-27.736
-26.034
-24.475
-23.077
-21.854
-20.821
-19.985
-19.357
-18.952
-18.783
-18.857
-19.174
-19.722
-20.493
-21.487
-22.71
-24.169
-25.867
-27.796
-29.955
-32.338
-34.941
-37.758
-40.759
-43.902
-47.141
-50.422
-53.726
-57.053
-60.395
-63.74
-67.022
-70.125
-72.972
-75.503
-77.671
-79.499
-80.94
-81.856
-82.333
-82.612
-82.936
-83.649
-84.818
-86.121
-87.512
-89.232
-91.234
-93.358
-95.248
-96.063
-95.565
-94.232
-92.121
-89.077
-85.185
-80.358
-75.041
-70.709
-68.276
-68.14
-71.09
-77.422
-87.07
-100.327
-116.59
-133.752
-149.55
-161.124
-164.908
-158.486
-140.02
-107.087
-57.902
7.984
89.949
183.853
282.431
379.791
471.95
558.967
643.518
723.963
792.698
834.882
834.36
782.382
679.46
538.381
378.835
221.364
86.877
-11.43
-69.667
-92.893
-96.589
-94.62
-94.354
-97.273
-97.476
-91.7
-82.099
-72.079
-66.339
-67.027
-72.85
-81.898
-92.239
-101.939
-109.435
-113.889
-115.008
-113.11
-108.773
-102.509
-95.186
-87.666
-80.702
-75.323
-70.187
-63.732
-57.919
-53.257
-53.623
-63.635
-77.764
-92.275
-101.734
-98.778
-89.745
-79.967
-73.042
-75.004
-81.353
-87.582
-92.68
-93.934
-92.947
-91.777
-90.087
-88.2
-86.038
-83.251
-80.166
-77.048
-73.884
-70.719
-67.638
-64.692
-61.903
-59.282
-56.796
-54.397
-52.094
-49.892
-47.764
-45.683
-43.626
-41.568
-39.495
-37.396
-35.247
-33.025
-30.708
-28.275
-25.71
-22.998
-20.128
-17.091
-13.877
-10.484
-6.908
-3.148
0.794
4.918
9.225
13.71
18.369
23.196
28.182
33.316
38.585
43.976
49.469
55.047
60.688
66.372
72.074
77.77
83.436
89.044
94.566
99.975
105.242
110.339
115.236
119.906
124.322
128.458
132.288
135.79
138.942
141.723
144.115
146.103
147.67
148.806
149.5
149.744
149.534
148.866
147.74
146.158
144.126
141.65
138.739
135.407
131.665
127.532
123.024
118.161
112.966
107.461
101.672
95.625
89.348
82.868
76.216
69.419
62.508
55.512
48.46
41.381
34.303
27.253
20.259
13.346
6.539
-0.138
-6.663
-13.016
-19.177
-25.129
-30.856
-36.343
-41.578
-46.55
-51.25
-55.671
-59.807
-63.654
-67.208
-70.47
-73.441
-76.122
-78.517
-80.633
-82.474
-84.05
-85.368
-86.438
-87.271
-87.877
-88.266
-88.453
-88.447
-88.263
-87.912
-87.409
-86.765
-85.995
-85.111
-84.125
-83.051
-81.899
-80.682
-79.41
-78.094
-76.745
-75.37
-73.981
-72.585
-71.191
-69.805
-68.434
-67.085
-65.762
-64.471
-63.214
-61.997
-60.822
-59.692
-58.609
-57.575
-56.592
-55.662
-54.786
-53.963
-53.194
-52.479
-51.817
-51.207
-50.649
-50.14
-49.68
-49.266
-48.898
-48.574
-48.292
-48.051
-47.847
-47.679
-47.545
-47.443
-47.37
-47.325
-47.305
-47.309
-47.336
-47.383
-47.451
-47.536
-47.639
-47.756
-47.887
-48.03
-48.184
-48.347
-48.518
-48.695
-48.879
-49.067
-49.259
-49.455
-49.652
-49.851
-50.049
-50.245
-50.438
-50.627
-50.809
-50.984
-51.151
-51.308
-51.454
-51.588
-51.707
-51.811
-51.896
-51.961
-52.002
-52.015
-51.999
-51.949
-51.863
-51.738
-51.569
-51.354
-51.088
-50.769
-50.391
-49.952
-49.446
-48.87
-48.222
-47.497
-46.695
-45.813
-44.851
-43.808
-42.684
-41.481
-40.199
-38.84
-37.407
-35.902
-34.329
-32.692
-30.998
-29.251
-27.459
-25.632
-23.781
-21.916
-20.05
-18.196
-16.368
-14.58
-12.846
-11.18
-9.594
-8.101
-6.716
-5.45
-4.319
-3.337
-2.517
-1.87
-1.405
-1.132
-1.056
-1.177
-1.494
-2.007
-2.717
-3.634
-4.762
-6.109
-7.679
-9.472
-11.485
-13.703
-16.103
-18.649
-21.303
-24.026
-26.78
-29.534
-32.251
-34.894
-37.41
-39.739
-41.828
-43.619
-45.062
-46.108
-46.734
-46.956
-46.823
-46.416
-45.812
-45.067
-44.246
-43.453
-42.806
-42.414
-42.408
-42.868
-43.91
-45.784
-48.571
-52.157
-56.252
-60.31
-63.795
-66.367
-67.508
-66.486
-63.133
-57.76
-51.228
-45.037
-40.197
-37.525
-38.16
-42.928
-51.915
-62.38
-70.231
-73.213
-68.655
-57.591
-40.552
-9.197
41.21
113.99
210.192
316.634
423.387
527.018
622.652
710.057
784.453
830.714
834.369
787.235
687.653
545.93
381.755
216.85
75.635
-23.31
-74.327
-84.761
-74.382
-61.809
-56.927
-60.092
-62.574
-58.97
-50.255
-39.809
-33.064
-32.306
-35.945
-42.035
-48.683
-54.174
-57.422
-57.881
-55.321
-50.134
-43.177
-35.22
-26.907
-18.934
-11.962
-6.365
-2.334
0.174
1.395
1.517
0.701
-0.859
-2.956
-5.41
-8.062
-10.773
-13.435
-15.919
-18.086
-19.838
-21.113
-21.879
-22.133
-21.888
-21.164
-19.999
-18.449
-16.567
-14.404
-12.013
-9.441
-6.742
-3.976
-1.195
1.549
4.222
6.808
9.299
11.699
14.019
16.275
18.49
20.689
22.896
25.13
27.408
29.746
32.163
34.678
37.307
40.07
42.978
46.042
49.273
52.676
56.255
60.012
63.946
68.054
72.333
76.78
81.391
86.16
91.08
96.142
101.334
106.645
112.059
117.561
123.133
128.754
134.405
140.065
145.71
151.318
156.866
162.328
167.681
172.899
177.958
182.831
187.495
191.926
196.099
199.992
203.583
206.852
209.78
212.35
214.546
216.355
217.763
218.762
219.344
219.503
219.236
218.541
217.421
215.878
213.919
211.551
208.783
205.629
202.101
198.216
193.989
189.44
184.589
179.457
174.066
168.441
162.605
156.585
150.406
144.096
137.68
131.186
124.64
118.07
111.501
104.958
98.466
92.05
85.731
79.53
73.469
67.564
61.834
56.294
50.958
45.838
40.944
36.287
31.874
27.711
23.803
20.153
16.764
13.637
10.772
8.166
5.816
3.719
1.869
0.26
-1.117
-2.269
-3.206
-3.939
-4.479
-4.836
-5.024
-5.053
-4.936
-4.685
-4.313
-3.83
-3.249
-2.58
-1.833
-1.018
-0.145
0.778
1.744
2.744
3.771
4.818
5.88
6.95
8.023
9.093
10.155
11.205
12.238
13.251
14.24
15.202
16.136
17.039
17.911
18.75
19.558
20.334
21.078
21.792
22.476
23.131
23.758
24.358
24.932
25.479
25.999
26.493
26.959
27.397
27.805
28.182
28.527
28.838
29.115
29.355
29.559
29.726
29.855
29.946
29.999
30.014
29.992
29.931
29.834
29.699
29.527
29.318
29.07
28.785
28.462
28.1
27.699
27.26
26.782
26.268
25.717
25.133
24.518
23.874
23.205
22.516
21.811
21.094
20.371
19.647
18.927
18.216
17.521
16.845
16.195
15.575
14.991
14.448
13.951
13.503
13.11
12.776
12.506
12.305
12.177
12.126
12.157
12.276
12.485
12.789
13.191
13.692
14.295
15
15.806
16.713
17.719
18.819
20.011
21.289
22.65
24.085
25.588
27.151
28.767
30.424
32.115
33.826
35.545
37.261
38.959
40.627
42.249
43.813
45.304
46.712
48.023
49.227
50.311
51.263
52.071
52.723
53.206
53.509
53.621
53.534
53.241
52.745
52.045
51.144
50.039
48.722
47.188
45.438
43.468
41.282
38.886
36.296
33.545
30.682
27.758
24.824
21.923
19.089
16.36
13.777
11.387
9.249
7.407
5.897
4.758
4.025
3.72
3.825
4.261
4.907
5.638
6.337
6.933
7.333
7.416
7.075
6.17
4.582
2.271
-0.871
-4.999
-10.103
-16.048
-22.482
-28.72
-34.166
-38.346
-40.604
-40.427
-37.715
-32.664
-26.125
-19.446
-13.553
-9.231
-7.422
-8.433
-11.733
-15.929
-18.362
-16.008
-6.174
13.998
47.534
96.992
161.639
236.968
318.257
400.568
484.696
577.337
676.516
773.402
850.947
883.541
859.323
781.056
659.021
511.324
353.435
195.7
51.584
-60.817
-128.642
-148.774
-128.303
-87.555
-48.236
-20.436
-8.432
-10.016
-15.234
-20.468
-24.484
-25.036
-26.376
-30.148
-34.91
-40.608
-44.543
-44.853
-42.08
-36.684
-29.71
-22.347
-15.253
-9.081
-4.304
-1.057
0.702
1.196
0.614
-0.882
-3.093
-5.837
-8.932
-12.223
-15.597
-18.948
-22.139
-25.02
-27.483
-29.457
-30.918
-31.869
-32.322
-32.299
-31.838
-30.994
-29.818
-28.357
-26.66
-24.768
-22.739
-20.633
-18.515
-16.445
-14.466
-12.603
-10.868
-9.262
-7.778
-6.402
-5.113
-3.887
-2.701
-1.539
-0.385
0.774
1.957
3.182
4.468
5.834
7.294
8.862
10.549
12.363
14.313
16.401
18.63
21.001
23.517
26.178
28.985
31.94
35.041
38.284
41.664
45.175
48.807
52.55
56.39
60.313
64.306
68.351
72.433
76.536
80.642
84.733
88.787
92.782
96.695
100.501
104.174
107.69
111.021
114.146
117.039
119.682
122.056
124.142
125.92
127.37
128.466
129.192
129.534
129.481
129.026
128.171
126.922
125.296
123.318
121.001
118.354
115.382
112.078
108.44
104.467
100.153
95.507
90.536
85.243
79.641
73.74
67.534
61.015
54.151
46.904
39.262
31.232
22.832
14.11
5.117
-4.084
-13.406
-22.782
-32.149
-41.446
-50.631
-59.661
-68.472
-76.996
-85.144
-92.813
-99.934
-106.461
-112.359
-117.632
-122.3
-126.403
-130.02
-133.218
-136.044
-138.545
-140.746
-142.67
-144.361
-145.864
-147.232
-148.542
-149.847
-151.186
-152.6
-154.099
-155.676
-157.313
-158.957
-160.563
-162.105
-163.566
-164.942
-166.238
-167.447
-168.566
-169.596
-170.524
-171.342
-172.046
-172.626
-173.086
-173.44
-173.707
-173.92
-174.111
-174.3
-174.503
-174.729
-174.982
-175.265
-175.58
-175.92
-176.284
-176.672
-177.084
-177.524
-177.994
-178.491
-179.011
-179.549
-180.099
-180.655
-181.216
-181.777
-182.339
-182.901
-183.466
-184.036
-184.616
-185.21
-185.818
-186.442
-187.085
-187.749
-188.434
-189.144
-189.879
-190.643
-191.438
-192.268
-193.137
-194.047
-195.003
-196.007
-197.064
-198.175
-199.344
-200.574
-201.866
-203.223
-204.647
-206.139
-207.701
-209.333
-211.035
-212.808
-214.651
-216.562
-218.539
-220.58
-222.681
-224.838
-227.048
-229.304
-231.602
-233.937
-236.303
-238.693
-241.103
-243.524
-245.95
-248.374
-250.788
-253.184
-255.554
-257.891
-260.186
-262.432
-264.621
-266.746
-268.8
-270.774
-272.664
-274.461
-276.16
-277.754
-279.238
-280.606
-281.854
-282.978
-283.975
-284.843
-285.579
-286.184
-286.659
-287.003
-287.22
-287.314
-287.286
-287.144
-286.893
-286.539
-286.09
-285.555
-284.943
-284.268
-283.542
-282.779
-281.994
-281.204
-280.423
-279.669
-278.957
-278.3
-277.712
-277.207
-276.798
-276.501
-276.334
-276.31
-276.444
-276.747
-277.231
-277.906
-278.777
-279.844
-281.106
-282.563
-284.219
-286.088
-288.186
-290.518
-293.091
-295.905
-298.953
-302.225
-305.7
-309.345
-313.122
-316.994
-320.929
-324.906
-328.902
-332.883
-336.795
-340.57
-344.135
-347.433
-350.409
-353.021
-355.257
-357.114
-358.628
-359.862
-360.865
-361.704
-362.453
-363.192
-364.027
-365.068
-366.423
-368.272
-370.871
-374.364
-378.72
-383.696
-388.767
-393.409
-397.249
-399.825
-400.52
-399.004
-395.492
-390.842
-386.721
-384.767
-385.879
-390.704
-399.957
-413.753
-431.132
-449.81
-465.786
-474.74
-473.578
-459.483
-429.471
-381.196
-313.195
-227.602
-130.882
-29.458
70.961
169.419
269.887
369.739
461.238
530.173
555.576
527.911
449.159
327.637
179.303
19.078
-141.799
-287.498
-398.934
-465.946
-486.963
-472.695
-445.951
-422.104
-407.35
-401.28
-396.643
-390.569
-384.838
-381.877
-384.807
-393.579
-405.709
-418.636
-429.483
-436.795
-440.423
-440.397
-437.381
-432.267
-425.838
-419.132
-413.194
-408.551
-405.415
-403.806
-403.478
-404.245
-405.976
-408.433
-411.392
-414.685
-418.158
-421.717
-425.283
-428.725
-431.894
-434.642
-436.855
-438.485
-439.514
-439.942
-439.79
-439.083
-437.862
-436.189
-434.116
-431.693
-428.975
-426.01
-422.856
-419.58
-416.249
-412.929
-409.671
-406.502
-403.437
-400.483
-397.633
-394.881
-392.21
-389.598
-387.027
-384.48
-381.943
-379.402
-376.84
-374.24
-371.581
-368.842
-366.003
-363.043
-359.946
-356.704
-353.312
-349.771
-346.086
-342.268
-338.328
-334.284
-330.152
-325.943
-321.665
-317.32
-312.91
-308.436
-303.905
-299.329
-294.712
-290.046
-285.318
-280.51
-275.601
-270.57
-265.384
-259.998
-254.377
-248.503
-242.37
-235.994
-229.404
-222.634
-215.718
-208.696
-201.622
-194.566
-187.608
-180.831
-174.315
-168.143
-162.418
-157.26
-152.784
-149.083
-146.228
-144.27
-143.23
-143.12
-143.944
-145.684
-148.3
-151.75
-155.972
-160.909
-166.519
-172.737
-179.478
-186.632
-194.072
-201.683
-209.354
-216.977
-224.467
-231.753
-238.77
-245.482
-251.865
-257.889
-263.53
-268.756
-273.508
-277.753
-281.48
-284.689
-287.416
-289.703
-291.596
-293.168
-294.478
-295.566
-296.468
-297.196
-297.752
-298.154
-298.417
-298.563
-298.641
-298.683
-298.71
-298.742
-298.773
-298.784
-298.747
-298.61
-298.324
-297.862
-297.201
-296.335
-295.267
-293.993
-292.511
-290.823
-288.919
-286.79
-284.432
-281.84
-279.017
-275.98
-272.747
-269.353
-265.831
-262.204
-258.491
-254.704
-250.851
-246.939
-242.976
-238.959
-234.893
-230.783
-226.634
-222.455
-218.25
-214.022
-209.77
-205.493
-201.188
-196.852
-192.487
-188.091
-183.666
-179.214
-174.738
-170.243
-165.735
-161.217
-156.691
-152.16
-147.625
-143.088
-138.551
-134.015
-129.483
-124.954
-120.432
-115.919
-111.415
-106.924
-102.445
-97.98
-93.528
-89.092
-84.67
-80.264
-75.873
-71.499
-67.141
-62.801
-58.479
-54.175
-49.888
-45.619
-41.367
-37.131
-32.91
-28.702
-24.505
-20.317
-16.135
-11.959
-7.784
-3.608
0.572
4.759
8.956
13.167
17.396
21.645
25.918
30.218
34.547
38.908
43.304
47.738
52.212
56.729
61.294
65.911
70.585
75.322
80.128
85.007
89.964
95.004
100.132
105.35
110.66
116.067
121.572
127.179
132.891
138.713
144.648
150.701
156.875
163.174
169.603
176.166
182.863
189.698
196.673
203.793
211.069
218.503
226.095
233.842
241.739
249.774
257.934
266.198
274.537
282.922
291.327
299.731
308.118
316.474
324.786
333.044
341.234
349.35
357.402
365.403
373.372
381.33
389.302
397.325
405.451
413.724
422.176
430.832
439.698
448.77
458.033
467.462
477.021
486.658
496.31
505.901
515.349
524.579
533.525
542.115
550.273
557.933
565.051
571.599
577.578
583.007
587.932
592.415
596.542
600.421
604.167
607.909
611.785
615.906
620.367
625.252
630.619
636.512
642.965
649.967
657.467
665.396
673.65
682.121
690.717
699.302
707.726
715.818
723.382
730.27
736.395
741.649
745.874
749.055
751.359
753.211
755.404
758.757
763.921
771.604
782.613
797.36
815.708
836.846
858.906
879.87
898.32
912.922
922.512
926.963
927.245
925.604
926.338
934.171
952.924
986.385
1037.719
1108.338
1198.149
1305.004
1423.559
1546.886
1668.41
1780.859
1876.712
1950.958
1996.221
2004.169
1972.518
1896.126
1783.208
1651.733
1488.197
1316.047
1200.249
1052.523
969.145
