Name
Date of Birth,"Mar 27, 1959"
Recorded Date,2021-01-11 20:38:47 -0500
Classification,Sinus Rhythm
Symptoms,
Software Version,1.90
Device,"Watch4,2"
Sample Rate,510.227 hertz


Lead,Lead I
Unit,µV

-262.662
-314.711
-340.544
-342.468
-335.386
-328.63
-333.68
-350.801
-369.5
-384.671
-392.514
-391.957
-386.853
-378.69
-367.301
-353.067
-335.727
-315.402
-292.869
-268.603
-242.86
-216.016
-188.475
-160.538
-132.473
-104.509
-76.803
-49.575
-23.136
2.248
26.367
49.016
70.042
89.306
106.653
121.988
135.274
146.497
155.679
162.839
167.966
171.076
172.213
171.481
169.063
165.153
159.946
153.659
146.507
138.741
130.648
122.459
114.358
106.517
99.091
92.263
86.259
81.255
77.366
74.661
73.137
72.776
73.558
75.41
78.229
81.876
86.171
90.975
96.186
101.688
107.358
113.042
118.537
123.695
128.42
132.637
136.307
139.401
141.887
143.78
145.131
146.001
146.47
146.596
146.412
145.974
145.349
144.621
143.897
143.255
142.735
142.377
142.206
142.239
142.496
142.972
143.635
144.462
145.427
146.512
147.709
148.998
150.352
151.74
153.127
154.488
155.81
157.081
158.291
159.435
160.508
161.514
162.465
163.37
164.233
165.055
165.839
166.587
167.304
167.995
168.664
169.314
169.945
170.561
171.161
171.748
172.321
172.878
173.417
173.936
174.437
174.918
175.38
175.824
176.249
176.657
177.048
177.423
177.783
178.126
178.455
178.769
179.07
179.358
179.636
179.904
180.165
180.422
180.678
180.935
181.199
181.473
181.765
182.08
182.427
182.811
183.24
183.72
184.259
184.863
185.538
186.288
187.119
188.036
189.044
190.152
191.365
192.691
194.136
195.708
197.413
199.259
201.252
203.394
205.689
208.138
210.746
213.519
216.46
219.565
222.825
226.232
229.771
233.427
237.177
240.989
244.833
248.68
252.503
256.289
260.024
263.689
267.268
270.74
274.095
277.338
280.476
283.515
286.463
289.333
292.143
294.938
297.748
300.593
303.484
306.406
309.336
312.255
315.138
317.951
320.649
323.164
325.416
327.346
328.882
329.957
330.501
330.414
329.615
328.057
325.712
322.588
318.725
314.161
308.951
303.178
296.931
290.332
283.522
276.621
269.765
263.094
256.738
250.848
245.562
240.961
237.088
233.948
231.484
229.648
228.395
227.624
227.22
227.032
226.868
226.569
225.99
224.922
223.102
220.362
216.694
212.342
207.817
203.63
200.202
198.001
197.676
199.676
203.92
209.716
215.639
220.208
222.571
222.098
217.907
209.554
197.711
184.279
172.807
167.37
170.896
186.151
216.409
264.527
332.449
418.56
516.982
621.405
725.495
827.763
931.9
1034.978
1131.592
1208.834
1241.607
1216.823
1127.986
976.553
787.512
583.865
389.832
234.506
126.248
65.784
45.144
41.325
42.084
42.775
42.561
49.602
64.978
83.348
100.326
110.286
111.198
105.074
93.939
79.982
65.801
53.5
44.23
38.465
35.89
35.583
36.702
38.516
40.086
40.515
39.341
36.413
31.873
26.092
19.351
11.86
3.877
-4.342
-12.604
-20.748
-28.66
-36.272
-43.482
-50.167
-56.25
-61.683
-66.443
-70.546
-74.015
-76.869
-79.149
-80.907
-82.188
-83.047
-83.536
-83.706
-83.616
-83.319
-82.88
-82.371
-81.853
-81.379
-80.995
-80.733
-80.628
-80.723
-81.045
-81.61
-82.425
-83.483
-84.77
-86.261
-87.928
-89.732
-91.617
-93.508
-95.316
-96.944
-98.296
-99.286
-99.821
-99.796
-99.125
-97.736
-95.582
-92.637
-88.89
-84.346
-79.025
-72.959
-66.206
-58.85
-50.994
-42.761
-34.269
-25.626
-16.946
-8.353
0.041
8.138
15.855
23.133
29.918
36.165
41.838
46.909
51.369
55.224
58.494
61.213
63.405
65.086
66.272
66.983
67.231
67.026
66.367
65.242
63.641
61.558
58.987
55.921
52.351
48.262
43.639
38.466
32.737
26.453
19.62
12.249
4.358
-4.033
-12.895
-22.19
-31.884
-41.939
-52.321
-62.992
-73.911
-85.037
-96.326
-107.736
-119.223
-130.747
-142.267
-153.744
-165.141
-176.421
-187.551
-198.498
-209.232
-219.722
-229.938
-239.852
-249.437
-258.67
-267.526
-275.986
-284.03
-291.643
-298.812
-305.523
-311.769
-317.541
-322.835
-327.648
-331.978
-335.826
-339.195
-342.09
-344.518
-346.487
-348.006
-349.088
-349.744
-349.988
-349.834
-349.297
-348.394
-347.14
-345.553
-343.649
-341.447
-338.964
-336.219
-333.228
-330.01
-326.583
-322.964
-319.171
-315.22
-311.128
-306.911
-302.586
-298.167
-293.669
-289.108
-284.496
-279.846
-275.171
-270.482
-265.791
-261.107
-256.44
-251.799
-247.191
-242.625
-238.107
-233.645
-229.244
-224.911
-220.651
-216.47
-212.372
-208.363
-204.446
-200.625
-196.905
-193.289
-189.78
-186.38
-183.093
-179.92
-176.863
-173.922
-171.099
-168.393
-165.805
-163.334
-160.979
-158.74
-156.615
-154.604
-152.704
-150.915
-149.234
-147.66
-146.189
-144.819
-143.546
-142.366
-141.276
-140.268
-139.337
-138.476
-137.678
-136.935
-136.242
-135.588
-134.968
-134.375
-133.802
-133.244
-132.695
-132.147
-131.594
-131.028
-130.444
-129.834
-129.192
-128.51
-127.779
-126.995
-126.154
-125.249
-124.275
-123.225
-122.087
-120.857
-119.538
-118.132
-116.644
-115.087
-113.474
-111.828
-110.181
-108.559
-106.989
-105.491
-104.082
-102.785
-101.621
-100.605
-99.757
-99.086
-98.587
-98.255
-98.078
-98.027
-98.071
-98.167
-98.258
-98.307
-98.286
-98.173
-97.962
-97.646
-97.225
-96.723
-96.169
-95.598
-95.069
-94.638
-94.377
-94.39
-94.766
-95.602
-96.997
-99.02
-101.719
-105.129
-109.26
-114.108
-119.649
-125.825
-132.56
-139.77
-147.354
-155.202
-163.185
-171.147
-178.948
-186.464
-193.581
-200.217
-206.327
-211.905
-216.959
-221.524
-225.629
-229.299
-232.618
-235.688
-238.592
-241.427
-244.296
-247.263
-250.497
-254.235
-258.441
-262.96
-267.473
-271.329
-273.969
-274.994
-273.676
-269.274
-261.763
-251.312
-238.566
-225.267
-212.943
-202.787
-196.571
-194.163
-192.631
-189.842
-184.352
-177.385
-173.251
-171.423
-163.262
-134.18
-71.588
28.054
155.745
294.318
432.8
564.988
685.788
789.267
859.302
879.545
843.873
755.145
626.473
473.489
308.344
144.745
-0.845
-113.379
-183.143
-212.812
-218.343
-215.72
-214.747
-217.292
-216.742
-209.695
-198.586
-187.225
-180.732
-181.297
-187.412
-197.099
-208.379
-219.082
-227.394
-232.341
-233.471
-231.007
-225.826
-218.744
-210.47
-201.949
-194.09
-187.384
-182.082
-178.123
-175.23
-173.244
-172.031
-171.4
-171.182
-171.248
-171.537
-172.084
-172.902
-173.94
-175.105
-176.273
-177.369
-178.38
-179.304
-180.154
-180.944
-181.67
-182.359
-183.051
-183.745
-184.425
-185.027
-185.439
-185.596
-185.471
-185.052
-184.354
-183.375
-182.087
-180.476
-178.539
-176.266
-173.652
-170.681
-167.32
-163.569
-159.451
-155.013
-150.336
-145.475
-140.457
-135.306
-130.032
-124.644
-119.159
-113.572
-107.867
-102.033
-96.064
-89.963
-83.741
-77.398
-70.925
-64.307
-57.525
-50.569
-43.442
-36.148
-28.694
-21.093
-13.36
-5.52
2.395
10.358
18.343
26.324
34.275
42.164
49.956
57.627
65.152
72.516
79.709
86.717
93.529
100.143
106.549
112.735
118.683
124.361
129.737
134.787
139.498
143.868
147.899
151.576
154.882
157.803
160.311
162.383
163.998
165.113
165.706
165.78
165.358
164.496
163.267
161.721
159.901
157.84
155.562
153.111
150.533
147.863
145.157
142.466
139.854
137.41
135.206
133.276
131.629
130.234
129.034
128
127.108
126.337
125.678
125.115
124.63
124.22
123.875
123.576
123.292
122.965
122.547
122.022
121.392
120.684
119.947
119.212
118.503
117.847
117.258
116.748
116.327
115.988
115.719
115.521
115.402
115.381
115.477
115.693
116.022
116.45
116.95
117.504
118.093
118.698
119.302
119.894
120.466
121.018
121.556
122.078
122.579
123.055
123.495
123.895
124.251
124.56
124.821
125.032
125.19
125.298
125.353
125.353
125.295
125.173
124.979
124.709
124.357
123.918
123.387
122.76
122.032
121.202
120.265
119.218
118.059
116.784
115.389
113.87
112.226
110.453
108.548
106.511
104.339
102.033
99.592
97.017
94.311
91.474
88.512
85.428
82.227
78.915
75.5
71.987
68.387
64.707
60.959
57.151
53.296
49.405
45.491
41.567
37.645
33.741
29.867
26.039
22.272
18.581
14.983
11.494
8.13
4.906
1.839
-1.056
-3.764
-6.27
-8.561
-10.624
-12.448
-14.021
-15.335
-16.381
-17.153
-17.646
-17.855
-17.78
-17.417
-16.768
-15.835
-14.621
-13.13
-11.368
-9.344
-7.065
-4.545
-1.794
1.172
4.337
7.682
11.188
14.833
18.593
22.446
26.365
30.323
34.293
38.248
42.159
46.001
49.745
53.364
56.829
60.117
63.203
66.063
68.677
71.023
73.078
74.823
76.247
77.335
78.077
78.463
78.48
78.121
77.385
76.276
74.797
72.958
70.769
68.247
65.429
62.355
59.073
55.635
52.082
48.463
44.83
41.236
37.744
34.408
31.267
28.361
25.728
23.389
21.369
19.667
18.24
17.022
15.915
14.819
13.645
12.318
10.78
8.959
6.75
4.065
0.829
-3.028
-7.497
-12.621
-18.534
-25.154
-32.207
-39.202
-45.306
-49.776
-52.153
-51.847
-48.21
-41.142
-30.868
-18.302
-5.335
6.514
16.272
22.877
25.707
25.215
22.504
20.032
21.811
31.551
52.578
88.287
141.427
211.905
296.581
390.911
488.186
584.858
683.74
784.237
881.567
966.338
1016.442
1011.753
943.755
809.494
623.864
415.298
209.436
34.74
-88.908
-161.374
-188.487
-182.35
-157.928
-121.705
-80.778
-46.213
-26.28
-27.398
-48.09
-76.043
-100.219
-114.014
-116.998
-116.296
-116.401
-118.155
-120.83
-121.202
-118.188
-112.97
-106.571
-100.39
-95.504
-92.028
-89.986
-89.352
-89.743
-90.855
-92.513
-94.48
-96.563
-98.615
-100.456
-101.931
-102.941
-103.382
-103.134
-102.085
-100.161
-97.377
-93.818
-89.631
-84.992
-80.05
-74.949
-69.831
-64.818
-60.029
-55.565
-51.496
-47.878
-44.77
-42.218
-40.273
-38.963
-38.262
-38.103
-38.389
-38.996
-39.807
-40.711
-41.578
-42.283
-42.724
-42.822
-42.533
-41.835
-40.695
-39.084
-36.973
-34.335
-31.162
-27.46
-23.235
-18.51
-13.326
-7.733
-1.811
4.339
10.635
17.004
23.392
29.769
36.106
42.375
48.559
54.639
60.594
66.402
72.036
77.476
82.721
87.777
92.671
97.458
102.187
106.918
111.707
116.575
121.526
126.555
131.637
136.742
141.84
146.884
151.807
156.543
161.016
165.156
168.892
172.139
174.807
176.787
177.974
178.299
177.718
176.195
173.71
170.263
165.852
160.527
154.387
147.533
140.079
132.142
123.815
115.197
106.399
97.532
88.707
80.016
71.53
63.324
55.477
48.052
41.12
34.706
28.774
23.287
18.185
13.396
8.874
4.58
0.467
-3.498
-7.34
-11.083
-14.734
-18.306
-21.829
-25.33
-28.85
-32.412
-35.995
-39.574
-43.106
-46.533
-49.817
-52.929
-55.834
-58.52
-60.98
-63.213
-65.229
-67.039
-68.643
-70.036
-71.207
-72.144
-72.855
-73.354
-73.663
-73.815
-73.835
-73.746
-73.574
-73.337
-73.046
-72.712
-72.338
-71.923
-71.473
-70.995
-70.499
-69.999
-69.504
-69.02
-68.553
-68.105
-67.68
-67.279
-66.901
-66.548
-66.219
-65.919
-65.65
-65.417
-65.224
-65.073
-64.967
-64.906
-64.891
-64.921
-64.997
-65.117
-65.281
-65.489
-65.74
-66.036
-66.378
-66.766
-67.201
-67.684
-68.214
-68.791
-69.415
-70.085
-70.8
-71.56
-72.364
-73.211
-74.1
-75.031
-76.002
-77.014
-78.065
-79.153
-80.279
-81.439
-82.633
-83.859
-85.116
-86.401
-87.713
-89.05
-90.41
-91.791
-93.189
-94.6
-96.021
-97.445
-98.866
-100.278
-101.673
-103.044
-104.385
-105.688
-106.948
-108.158
-109.313
-110.408
-111.438
-112.394
-113.271
-114.06
-114.753
-115.342
-115.819
-116.176
-116.403
-116.493
-116.443
-116.248
-115.901
-115.396
-114.724
-113.879
-112.861
-111.674
-110.323
-108.818
-107.173
-105.403
-103.54
-101.608
-99.633
-97.639
-95.637
-93.636
-91.651
-89.695
-87.786
-85.932
-84.124
-82.348
-80.597
-78.856
-77.114
-75.347
-73.51
-71.566
-69.496
-67.286
-64.951
-62.512
-59.985
-57.391
-54.765
-52.151
-49.623
-47.271
-45.164
-43.369
-41.957
-40.998
-40.593
-40.818
-41.71
-43.28
-45.51
-48.364
-51.806
-55.796
-60.254
-65.086
-70.168
-75.345
-80.489
-85.481
-90.19
-94.498
-98.273
-101.416
-103.904
-105.764
-107.042
-107.79
-108.04
-107.836
-107.294
-106.558
-105.792
-105.187
-104.868
-104.993
-105.834
-107.53
-110.045
-113.128
-116.182
-118.578
-119.902
-119.667
-117.244
-112.354
-105.115
-96.262
-87.407
-80.08
-75.224
-73.666
-76.131
-82.689
-92.48
-103.263
-111.223
-112.444
-103.493
-81.073
-42.225
15.682
92.48
183.922
284.485
388.089
491.63
597.827
706.153
809.371
896.201
947.748
946.946
890.222
779.323
622.918
441.297
252.262
77.173
-58.215
-143.088
-175.589
-165.261
-133.426
-96.948
-69.043
-55.453
-55.959
-67.953
-83.687
-98.026
-107.019
-109.566
-110.651
-113.019
-117.473
-123.208
-126.734
-126.524
-123.004
-116.985
-109.854
-102.541
-95.529
-89.483
-84.859
-81.812
-80.275
-80
-80.797
-82.493
-84.888
-87.757
-90.863
-94.051
-97.24
-100.34
-103.228
-105.757
-107.774
-109.195
-110.007
-110.214
-109.842
-108.939
-107.556
-105.79
-103.777
-101.608
-99.349
-97.034
-94.649
-92.213
-89.768
-87.348
-84.994
-82.723
-80.52
-78.375
-76.281
-74.207
-72.116
-69.944
-67.597
-65.02
-62.184
-59.082
-55.745
-52.189
-48.406
-44.4
-40.168
-35.704
-31.01
-26.083
-20.904
-15.476
-9.809
-3.927
2.122
8.295
14.563
20.908
27.331
33.843
40.441
47.125
53.896
60.747
67.678
74.702
81.811
88.993
96.247
103.567
110.972
118.502
126.176
134.001
141.962
150.016
158.123
166.249
174.336
182.322
190.118
197.608
204.7
211.333
217.434
222.94
227.769
231.813
234.999
237.292
238.665
239.121
238.654
237.252
234.936
231.755
227.783
223.122
217.851
212.014
205.673
198.892
191.737
184.295
176.608
168.672
160.502
152.118
143.557
134.876
126.114
117.286
108.411
99.511
90.617
81.781
73.037
64.403
55.914
47.609
39.556
31.867
24.619
17.855
11.609
5.886
0.688
-3.979
-8.14
-11.851
-15.156
-18.101
-20.715
-23.008
-25.013
-26.776
-28.358
-29.84
-31.284
-32.723
-34.192
-35.712
-37.293
-38.936
-40.613
-42.269
-43.867
-45.386
-46.811
-48.147
-49.391
-50.526
-51.541
-52.424
-53.164
-53.76
-54.21
-54.506
-54.655
-54.67
-54.576
-54.41
-54.202
-53.966
-53.716
-53.456
-53.191
-52.929
-52.669
-52.406
-52.139
-51.867
-51.59
-51.313
-51.034
-50.751
-50.459
-50.15
-49.82
-49.466
-49.086
-48.679
-48.245
-47.785
-47.304
-46.807
-46.299
-45.784
-45.265
-44.744
-44.225
-43.711
-43.206
-42.712
-42.232
-41.771
-41.333
-40.921
-40.541
-40.196
-39.889
-39.624
-39.404
-39.233
-39.115
-39.052
-39.048
-39.105
-39.228
-39.417
-39.676
-40.006
-40.408
-40.881
-41.425
-42.04
-42.724
-43.474
-44.287
-45.16
-46.09
-47.071
-48.098
-49.165
-50.265
-51.391
-52.537
-53.693
-54.851
-56.003
-57.141
-58.258
-59.345
-60.398
-61.408
-62.369
-63.275
-64.118
-64.891
-65.585
-66.189
-66.695
-67.093
-67.374
-67.533
-67.564
-67.46
-67.218
-66.837
-66.316
-65.652
-64.843
-63.882
-62.765
-61.5
-60.096
-58.569
-56.941
-55.232
-53.464
-51.666
-49.862
-48.067
-46.289
-44.524
-42.766
-41.019
-39.297
-37.62
-36.01
-34.473
-33.014
-31.635
-30.327
-29.079
-27.875
-26.677
-25.466
-24.247
-23.047
-21.916
-20.914
-20.081
-19.442
-19.015
-18.806
-18.828
-19.08
-19.546
-20.225
-21.117
-22.239
-23.63
-25.304
-27.234
-29.364
-31.612
-33.879
-36.09
-38.178
-40.081
-41.763
-43.207
-44.44
-45.536
-46.564
-47.588
-48.641
-49.713
-50.83
-52.079
-53.566
-55.417
-57.771
-60.697
-64.3
-68.788
-74.195
-80.347
-86.852
-92.963
-97.922
-101.206
-102.203
-100.173
-94.846
-86.413
-75.599
-64.154
-53.815
-45.735
-41.187
-41.289
-45.997
-54.218
-63.773
-70.693
-70.539
-59.415
-33.166
12.361
78.264
161.82
259.384
365.223
475.681
593.512
718.269
842.666
954.096
1030.258
1049.108
1003.245
894.513
735.715
551.913
362.474
187.143
45.884
-56.628
-117.575
-143.453
-150.727
-145.487
-136.248
-126.91
-114.827
-105.817
-99.594
-95.1
-93.755
-91.778
-90.869
-93.137
-97.706
-104.644
-110.792
-113.52
-112.873
-109.08
-103.235
-96.515
-89.37
-82.496
-76.794
-72.707
-70.356
-69.605
-70.11
-71.607
-73.924
-76.845
-80.096
-83.444
-86.706
-89.732
-92.421
-94.649
-96.279
-97.221
-97.423
-96.878
-95.615
-93.678
-91.117
-88
-84.406
-80.407
-76.077
-71.489
-66.712
-61.819
-56.886
-51.98
-47.165
-42.486
-37.971
-33.634
-29.476
-25.493
-21.673
-17.997
-14.444
-10.996
-7.639
-4.357
-1.135
2.045
5.205
8.365
11.542
14.753
18.012
21.332
24.725
28.199
31.759
35.41
39.158
43.014
46.991
51.094
55.32
59.658
64.102
68.644
73.276
77.984
82.746
87.55
92.387
97.264
102.187
107.149
112.134
117.112
122.051
126.93
131.74
136.476
141.122
145.664
150.091
154.408
158.631
162.752
166.733
170.507
174.002
177.169
179.984
182.435
184.513
186.202
187.479
188.326
188.746
188.731
188.255
187.265
185.689
183.484
180.662
177.278
173.396
169.061
164.288
159.087
153.477
147.472
141.085
134.316
127.137
119.548
111.592
103.35
94.937
86.459
77.963
69.467
60.98
52.521
44.131
35.852
27.708
19.74
12
4.561
-2.474
-9.033
-15.095
-20.67
-25.814
-30.589
-35.022
-39.124
-42.907
-46.378
-49.553
-52.446
-55.054
-57.385
-59.465
-61.34
-63.081
-64.744
-66.35
-67.9
-69.369
-70.716
-71.92
-72.968
-73.838
-74.525
-75.026
-75.341
-75.488
-75.487
-75.34
-75.045
-74.586
-73.947
-73.134
-72.155
-71.031
-69.79
-68.456
-67.051
-65.602
-64.126
-62.639
-61.15
-59.662
-58.172
-56.683
-55.2
-53.731
-52.285
-50.868
-49.481
-48.129
-46.812
-45.53
-44.285
-43.073
-41.895
-40.752
-39.644
-38.577
-37.554
-36.581
-35.662
-34.799
-33.997
-33.258
-32.586
-31.981
-31.445
-30.981
-30.59
-30.274
-30.035
-29.877
-29.801
-29.809
-29.904
-30.088
-30.364
-30.734
-31.198
-31.759
-32.418
-33.176
-34.034
-34.993
-36.052
-37.211
-38.47
-39.827
-41.281
-42.827
-44.464
-46.186
-47.99
-49.869
-51.819
-53.833
-55.905
-58.027
-60.192
-62.391
-64.618
-66.861
-69.112
-71.361
-73.598
-75.812
-77.992
-80.127
-82.207
-84.22
-86.156
-88.002
-89.747
-91.381
-92.893
-94.272
-95.509
-96.595
-97.521
-98.28
-98.865
-99.271
-99.493
-99.528
-99.374
-99.029
-98.495
-97.772
-96.864
-95.775
-94.512
-93.082
-91.496
-89.765
-87.902
-85.923
-83.842
-81.679
-79.45
-77.175
-74.87
-72.557
-70.252
-67.976
-65.748
-63.589
-61.519
-59.561
-57.736
-56.063
-54.561
-53.244
-52.125
-51.212
-50.516
-50.044
-49.813
-49.833
-50.114
-50.666
-51.496
-52.6
-53.974
-55.593
-57.418
-59.413
-61.533
-63.737
-65.994
-68.264
-70.506
-72.677
-74.72
-76.58
-78.209
-79.551
-80.564
-81.217
-81.505
-81.474
-81.215
-80.82
-80.383
-79.971
-79.647
-79.518
-79.703
-80.32
-81.497
-83.314
-85.88
-89.413
-93.998
-99.535
-105.712
-111.877
-117.333
-121.59
-124.081
-124.078
-121.211
-115.525
-107.678
-99.244
-91.776
-86.248
-83.548
-84.553
-89.479
-97.575
-106.748
-113.246
-113.105
-102.867
-79.149
-38.603
21.758
101.58
196.524
301.057
408.538
517.417
631.976
749.649
862.318
954.043
999.796
986.09
912.623
787.517
629.129
454.569
276.139
109.629
-26.943
-122.321
-171.724
-183.093
-177.528
-169.795
-166.656
-167.4
-162.696
-149.256
-130.397
-110.531
-95.588
-87.495
-84.612
-85.785
-90.196
-97.381
-106.565
-116.191
-124.552
-130.913
-135.411
-138.254
-139.289
-138.027
-134.462
-129.315
-123.757
-118.609
-114.084
-110.173
-106.927
-104.658
-103.591
-103.579
-104.163
-104.938
-105.733
-106.517
-107.33
-108.128
-108.831
-109.452
-110.092
-110.856
-111.797
-112.917
-114.172
-115.512
-116.899
-118.272
-119.538
-120.609
-121.416
-121.916
-122.09
-121.916
-121.363
-120.406
-119.03
-117.23
-115.009
-112.364
-109.287
-105.789
-101.9
-97.667
-93.16
-88.438
-83.539
-78.492
-73.314
-68.018
-62.621
-57.123
-51.514
-45.774
-39.887
-33.845
-27.648
-21.296
-14.78
-8.095
-1.23
5.812
13.017
20.373
27.867
35.495
43.255
51.138
59.132
67.214
75.355
83.527
91.711
99.883
108.027
116.132
124.2
132.237
140.26
148.27
156.252
164.17
171.967
179.575
186.916
193.925
200.551
206.747
212.472
217.683
222.339
226.386
229.766
232.412
234.243
235.2
235.247
234.378
232.622
230.03
226.679
222.636
217.958
212.697
206.897
200.602
193.857
186.709
179.215
171.444
163.481
155.404
147.277
139.144
131.025
122.92
114.814
106.696
98.561
90.413
82.266
74.137
66.049
58.025
50.092
42.264
34.545
26.938
19.45
12.093
4.891
-2.127
-8.926
-15.473
-21.74
-27.704
-33.351
-38.671
-43.661
-48.325
-52.671
-56.703
-60.428
-63.848
-66.969
-69.798
-72.345
-74.624
-76.649
-78.436
-80.003
-81.365
-82.54
-83.541
-84.382
-85.077
-85.634
-86.067
-86.385
-86.601
-86.727
-86.775
-86.755
-86.678
-86.555
-86.394
-86.205
-85.992
-85.761
-85.516
-85.261
-84.998
-84.728
-84.45
-84.166
-83.874
-83.573
-83.26
-82.935
-82.593
-82.233
-81.853
-81.448
-81.018
-80.559
-80.069
-79.547
-78.991
-78.4
-77.772
-77.108
-76.407
-75.669
-74.895
-74.085
-73.24
-72.362
-71.454
-70.518
-69.557
-68.575
-67.577
-66.568
-65.553
-64.538
-63.529
-62.533
-61.554
-60.601
-59.678
-58.791
-57.946
-57.149
-56.402
-55.711
-55.079
-54.509
-54.002
-53.56
-53.184
-52.874
-52.631
-52.454
-52.341
-52.29
-52.299
-52.365
-52.484
-52.651
-52.862
-53.111
-53.393
-53.7
-54.026
-54.364
-54.705
-55.042
-55.367
-55.67
-55.943
-56.178
-56.366
-56.5
-56.572
-56.577
-56.507
-56.357
-56.124
-55.804
-55.394
-54.892
-54.297
-53.609
-52.828
-51.957
-50.997
-49.952
-48.827
-47.625
-46.357
-45.029
-43.652
-42.236
-40.794
-39.338
-37.881
-36.438
-35.022
-33.644
-32.317
-31.056
-29.873
-28.783
-27.803
-26.945
-26.222
-25.646
-25.227
-24.975
-24.892
-24.981
-25.243
-25.68
-26.302
-27.122
-28.145
-29.379
-30.825
-32.479
-34.332
-36.365
-38.547
-40.842
-43.211
-45.616
-48.026
-50.403
-52.714
-54.913
-56.935
-58.718
-60.207
-61.35
-62.108
-62.46
-62.41
-61.995
-61.292
-60.379
-59.324
-58.217
-57.156
-56.266
-55.688
-55.555
-55.994
-57.171
-59.305
-62.516
-66.752
-71.752
-77.013
-82.011
-86.334
-89.51
-90.885
-90.031
-86.998
-82.377
-77.449
-73.51
-71.267
-71.296
-74.401
-80.947
-90.274
-100.505
-108.33
-110.09
-103.014
-84.416
-51.061
-0.135
69.902
156.78
254.4
356.852
458.257
557.955
659.956
760.317
852.678
923.644
948.532
916.624
825.642
680.141
506.063
326.031
159.95
31.773
-52.725
-95.576
-105.217
-101.994
-97.033
-94.514
-94.316
-89.468
-79.638
-68.541
-59.156
-55.811
-59.096
-66.521
-76.408
-86.516
-94.301
-98.803
-99.632
-96.731
-91.01
-83.475
-74.858
-66.129
-58.343
-52.058
-47.569
-44.956
-43.962
-44.383
-46.113
-48.964
-52.718
-57.179
-62.124
-67.34
-72.674
-77.952
-82.985
-87.607
-91.688
-95.143
-97.941
-100.086
-101.587
-102.45
-102.686
-102.292
-101.289
-99.731
-97.691
-95.268
-92.559
-89.643
-86.603
-83.515
-80.434
-77.394
-74.401
-71.436
-68.483
-65.529
-62.569
-59.606
-56.631
-53.626
-50.568
-47.425
-44.165
-40.765
-37.197
-33.433
-29.453
-25.243
-20.799
-16.129
-11.239
-6.13
-0.806
4.732
10.481
16.434
22.581
28.914
35.421
42.089
48.901
55.839
62.883
70.014
77.211
84.456
91.726
98.997
106.246
113.446
120.572
127.597
134.493
141.233
147.787
154.13
160.235
166.077
171.632
176.877
181.791
186.354
190.547
194.355
197.763
200.758
203.329
205.468
207.168
208.424
209.232
209.593
209.507
208.977
208.01
206.612
204.794
202.566
199.942
196.936
193.565
189.846
185.798
181.44
176.795
171.884
166.73
161.355
155.783
150.038
144.144
138.123
131.998
125.791
119.525
113.221
106.898
100.577
94.277
88.014
81.807
75.672
69.623
63.675
57.841
52.133
46.562
41.137
35.867
30.76
25.823
21.06
16.476
12.075
7.86
3.833
-0.006
-3.657
-7.119
-10.394
-13.485
-16.393
-19.122
-21.675
-24.056
-26.269
-28.317
-30.206
-31.94
-33.523
-34.961
-36.258
-37.42
-38.451
-39.358
-40.144
-40.816
-41.379
-41.837
-42.195
-42.459
-42.634
-42.724
-42.735
-42.671
-42.538
-42.34
-42.083
-41.771
-41.409
-41.002
-40.554
-40.07
-39.553
-39.009
-38.441
-37.853
-37.251
-36.637
-36.016
-35.391
-34.768
-34.149
-33.539
-32.94
-32.357
-31.793
-31.251
-30.734
-30.246
-29.791
-29.37
-28.988
-28.647
-28.348
-28.096
-27.89
-27.733
-27.625
-27.569
-27.564
-27.61
-27.709
-27.86
-28.064
-28.319
-28.624
-28.979
-29.382
-29.83
-30.322
-30.855
-31.425
-32.031
-32.667
-33.33
-34.017
-34.722
-35.441
-36.168
-36.898
-37.626
-38.344
-39.046
-39.727
-40.378
-40.993
-41.567
-42.092
-42.563
-42.973
-43.316
-43.586
-43.778
-43.886
-43.906
-43.831
-43.659
-43.384
-43.004
-42.517
-41.921
-41.215
-40.399
-39.474
-38.441
-37.303
-36.063
-34.725
-33.295
-31.78
-30.187
-28.525
-26.803
-25.033
-23.227
-21.4
-19.566
-17.74
-15.939
-14.18
-12.48
-10.856
-9.325
-7.902
-6.602
-5.442
-4.436
-3.6
-2.95
-2.502
-2.269
-2.265
-2.499
-2.982
-3.717
-4.705
-5.947
-7.443
-9.201
-11.224
-13.515
-16.076
-18.905
-21.993
-25.331
-28.89
-32.631
-36.512
-40.488
-44.514
-48.556
-52.572
-56.52
-60.358
-64.022
-67.453
-70.601
-73.408
-75.83
-77.831
-79.397
-80.563
-81.405
-82.004
-82.442
-82.78
-83.077
-83.441
-83.981
-84.814
-86.084
-87.875
-90.309
-93.609
-97.818
-102.819
-108.339
-113.761
-118.486
-122.168
-124.251
-124.066
-121.511
-116.714
-110.355
-104.038
-98.861
-95.313
-94.227
-96.223
-100.947
-107.579
-113.945
-116.11
-111.067
-96.611
-69.858
-28.359
29.341
104.301
193.427
289.194
385.997
478.159
564.526
650.156
732.443
805.783
858.321
867.334
822.872
721.829
566.971
383.008
192.362
18.73
-107.608
-178.944
-198.361
-178.756
-148.458
-123.089
-107.492
-100.713
-92.992
-81.312
-68.567
-57.656
-52.916
-55.026
-61.385
-69.813
-77.761
-83.166
-85.48
-84.597
-80.827
-75.062
-68.18
-60.939
-54.179
-48.653
-44.715
-42.471
-41.833
-42.513
-44.271
-46.913
-50.208
-53.931
-57.895
-61.941
-65.935
-69.777
-73.346
-76.515
-79.204
-81.359
-82.964
-84.033
-84.592
-84.671
-84.315
-83.575
-82.499
-81.136
-79.535
-77.741
-75.811
-73.798
-71.753
-69.725
-67.743
-65.824
-63.97
-62.169
-60.404
-58.651
-56.884
-55.072
-53.188
-51.21
-49.112
-46.876
-44.484
-41.913
-39.145
-36.156
-32.924
-29.431
-25.67
-21.636
-17.329
-12.754
-7.917
-2.834
2.468
7.965
13.633
19.456
25.435
31.561
37.825
44.217
50.718
57.325
64.047
70.886
77.835
84.892
92.045
99.305
106.708
114.271
122.002
129.891
137.892
145.97
154.09
162.201
170.244
178.135
185.755
193.012
199.843
206.179
211.969
217.134
221.56
225.171
227.917
229.763
230.704
230.724
229.792
227.921
225.155
221.571
217.292
212.406
206.958
201.005
194.591
187.781
180.672
173.318
165.735
157.957
150.019
141.984
133.952
125.978
118.073
110.229
102.404
94.591
86.82
79.109
71.478
63.947
56.523
49.252
42.222
35.48
29.043
22.898
16.978
11.257
5.742
0.441
-4.626
-9.453
-14.056
-18.438
-22.588
-26.515
-30.231
-33.776
-37.224
-40.611
-43.948
-47.222
-50.389
-53.421
-56.318
-59.068
-61.664
-64.101
-66.369
-68.476
-70.444
-72.282
-73.99
-75.559
-76.961
-78.187
-79.242
-80.14
-80.902
-81.55
-82.092
-82.546
-82.929
-83.253
-83.528
-83.754
-83.923
-84.03
-84.078
-84.07
-84.012
-83.909
-83.76
-83.568
-83.33
-83.049
-82.723
-82.353
-81.935
-81.469
-80.956
-80.399
-79.804
-79.174
-78.514
-77.828
-77.12
-76.393
-75.651
-74.899
-74.138
-73.371
-72.603
-71.838
-71.079
-70.332
-69.603
-68.895
-68.214
-67.567
-66.956
-66.389
-65.868
-65.398
-64.984
-64.628
-64.335
-64.106
-63.946
-63.855
-63.836
-63.891
-64.02
-64.223
-64.501
-64.852
-65.275
-65.769
-66.331
-66.958
-67.649
-68.399
-69.206
-70.065
-70.973
-71.924
-72.913
-73.934
-74.98
-76.045
-77.121
-78.201
-79.276
-80.34
-81.384
-82.401
-83.384
-84.323
-85.212
-86.043
-86.808
-87.5
-88.112
-88.638
-89.071
-89.407
-89.64
-89.767
-89.784
-89.687
-89.474
-89.144
-88.695
-88.126
-87.438
-86.632
-85.71
-84.676
-83.534
-82.289
-80.95
-79.525
-78.023
-76.455
-74.834
-73.173
-71.487
-69.789
-68.096
-66.42
-64.777
-63.182
-61.649
-60.194
-58.831
-57.575
-56.441
-55.446
-54.607
-53.937
-53.448
-53.147
-53.041
-53.136
-53.44
-53.964
-54.718
-55.706
-56.935
-58.412
-60.137
-62.106
-64.297
-66.668
-69.173
-71.766
-74.403
-77.049
-79.666
-82.208
-84.631
-86.885
-88.921
-90.704
-92.192
-93.341
-94.124
-94.53
-94.6
-94.45
-94.2
-93.971
-93.871
-93.953
-94.303
-95.048
-96.305
-98.208
-100.874
-104.322
-108.65
-114.066
-120.566
-127.97
-135.808
-143.16
-149.211
-153.442
-155.202
-153.862
-149.302
-141.722
-132.159
-122.665
-114.88
-109.832
-108.487
-111.199
-117.258
-125.245
-132.025
-132.883
-123.81
-101.284
-61.834
-3.248
75.061
170.832
277.83
388.39
496.261
599.429
697.72
786.851
858.693
899.103
893.317
837.186
733.152
589.981
424.873
253.739
94.977
-29.143
-107.95
-140.771
-137.994
-121.64
-106.106
-96.92
-93.186
-87.483
-78.081
-67.765
-59.44
-57.01
-60.91
-68.781
-78.709
-88.272
-95.286
-99.016
-99.202
-96.035
-90.389
-83.158
-75.11
-67.165
-60.219
-54.739
-50.932
-48.78
-48.016
-48.447
-49.933
-52.305
-55.408
-59.108
-63.273
-67.778
-72.515
-77.328
-82.037
-86.478
-90.493
-93.979
-96.884
-99.184
-100.89
-102.01
-102.56
-102.539
-101.939
-100.768
-99.051
-96.825
-94.142
-91.067
-87.675
-84.053
-80.298
-76.477
-72.629
-68.776
-64.914
-61.042
-57.159
-53.266
-49.363
-45.452
-41.526
-37.579
-33.607
-29.595
-25.527
-21.374
-17.094
-12.655
-8.032
-3.21
1.811
7.03
12.445
18.048
23.824
29.75
35.797
41.937
48.154
54.44
60.789
67.194
73.639
80.109
86.589
93.08
99.584
106.099
112.616
119.129
125.643
132.181
138.783
145.477
152.265
159.126
166.023
172.921
179.777
186.538
193.138
199.484
205.492
211.096
216.245
220.888
224.962
228.381
231.037
232.85
233.77
233.773
232.857
231.018
228.273
224.663
220.262
215.172
209.485
203.266
196.568
189.445
181.965
174.217
166.303
158.302
150.275
142.27
134.332
126.504
118.816
111.275
103.859
96.532
89.273
82.082
74.969
67.946
61.018
54.181
47.434
40.788
34.259
27.86
21.604
15.498
9.558
3.811
-1.706
-6.951
-11.897
-16.526
-20.825
-24.786
-28.403
-31.671
-34.592
-37.175
-39.429
-41.362
-42.982
-44.295
-45.311
-46.047
-46.52
-46.75
-46.754
-46.549
-46.151
-45.578
-44.846
-43.972
-42.967
-41.846
-40.622
-39.309
-37.922
-36.477
-34.987
-33.466
-31.927
-30.384
-28.847
-27.328
-25.836
-24.38
-22.967
-21.605
-20.299
-19.055
-17.876
-16.768
-15.732
-14.77
-13.884
-13.074
-12.339
-11.68
-11.094
-10.58
-10.137
-9.761
-9.451
-9.203
-9.014
-8.882
-8.802
-8.773
-8.789
-8.848
-8.946
-9.08
-9.246
-9.443
-9.666
-9.915
-10.186
-10.479
-10.791
-11.121
-11.467
-11.829
-12.206
-12.597
-13.002
-13.421
-13.855
-14.303
-14.768
-15.249
-15.748
-16.266
-16.804
-17.362
-17.942
-18.544
-19.169
-19.818
-20.492
-21.192
-21.918
-22.67
-23.449
-24.255
-25.086
-25.94
-26.818
-27.715
-28.629
-29.558
-30.498
-31.446
-32.399
-33.353
-34.308
-35.26
-36.205
-37.141
-38.065
-38.972
-39.858
-40.718
-41.542
-42.325
-43.062
-43.748
-44.379
-44.951
-45.46
-45.903
-46.282
-46.594
-46.839
-47.01
-47.097
-47.098
-47.018
-46.866
-46.656
-46.402
-46.117
-45.816
-45.525
-45.259
-45.029
-44.836
-44.663
-44.505
-44.368
-44.262
-44.211
-44.227
-44.305
-44.443
-44.634
-44.869
-45.144
-45.438
-45.71
-45.94
-46.129
-46.303
-46.521
-46.832
-47.261
-47.827
-48.537
-49.407
-50.469
-51.738
-53.212
-54.882
-56.737
-58.786
-61.068
-63.592
-66.329
-69.213
-72.139
-75.002
-77.725
-80.238
-82.467
-84.343
-85.797
-86.802
-87.401
-87.665
-87.666
-87.448
-87.003
-86.357
-85.62
-84.936
-84.488
-84.483
-85.031
-86.296
-88.582
-91.975
-96.367
-101.433
-106.403
-110.511
-113.312
-114.178
-112.37
-107.854
-100.96
-92.622
-84.92
-79.485
-77.184
-79.247
-86.556
-98.445
-113.393
-128.389
-138.378
-139.188
-127.41
-98.724
-49.614
21.586
113.433
220.289
334.623
448.808
560.216
670.231
774.658
868.545
939.889
965.825
935.802
844.532
693.285
506.963
308.587
122.236
-21.816
-114.942
-157.693
-159.584
-145.951
-131.47
-121.896
-117.706
-109.933
-96.015
-79.807
-65.12
-57.175
-57.433
-63.536
-73.355
-84.619
-95.221
-103.746
-109.324
-111.739
-111.431
-109.293
-106.19
-102.807
-99.881
-98.077
-97.716
-98.858
-101.342
-104.797
-108.886
-113.345
-117.883
-122.244
-126.256
-129.753
-132.618
-134.785
-136.168
-136.733
-136.515
-135.545
-133.876
-131.59
-128.767
-125.529
-122.046
-118.455
-114.875
-111.4
-108.09
-105.011
-102.235
-99.797
-97.709
-95.943
-94.422
-93.089
-91.899
-90.795
-89.72
-88.592
-87.3
-85.761
-83.924
-81.742
-79.192
-76.248
-72.877
-69.076
-64.869
-60.294
-55.409
-50.256
-44.853
-39.223
-33.389
-27.377
-21.229
-14.968
-8.599
-2.134
4.42
11.053
17.748
24.502
31.324
38.226
45.221
52.314
59.494
66.75
74.07
81.435
88.828
96.223
103.586
110.886
118.096
125.186
132.13
138.898
145.454
151.764
157.796
163.517
168.9
173.915
178.537
182.741
186.508
189.82
192.662
195.021
196.883
198.238
199.077
199.392
199.181
198.442
197.174
195.381
193.071
190.251
186.935
183.136
178.872
174.161
169.025
163.485
157.568
151.299
144.706
137.818
130.666
123.281
115.695
107.941
100.052
92.061
84.001
75.904
67.802
59.726
51.707
43.773
35.953
28.274
20.762
13.441
6.334
-0.538
-7.156
-13.501
-19.56
-25.318
-30.765
-35.892
-40.691
-45.158
-49.289
-53.084
-56.543
-59.67
-62.469
-64.947
-67.11
-68.97
-70.537
-71.824
-72.844
-73.612
-74.143
-74.453
-74.56
-74.479
-74.228
-73.824
-73.286
-72.629
-71.872
-71.032
-70.125
-69.166
-68.172
-67.157
-66.134
-65.116
-64.115
-63.142
-62.205
-61.316
-60.48
-59.704
-58.995
-58.357
-57.793
-57.305
-56.895
-56.562
-56.305
-56.123
-56.012
-55.969
-55.991
-56.072
-56.207
-56.391
-56.618
-56.882
-57.176
-57.493
-57.827
-58.17
-58.518
-58.862
-59.199
-59.522
-59.827
-60.11
-60.368
-60.597
-60.795
-60.959
-61.088
-61.181
-61.236
-61.255
-61.236
-61.183
-61.096
-60.979
-60.835
-60.668
-60.481
-60.279
-60.066
-59.847
-59.627
-59.412
-59.204
-59.011
-58.838
-58.689
-58.57
-58.485
-58.438
-58.431
-58.468
-58.55
-58.676
-58.846
-59.057
-59.308
-59.597
-59.921
-60.277
-60.662
-61.072
-61.505
-61.957
-62.423
-62.895
-63.366
-63.825
-64.264
-64.673
-65.04
-65.353
-65.601
-65.774
-65.865
-65.868
-65.772
-65.567
-65.236
-64.772
-64.169
-63.427
-62.545
-61.525
-60.374
-59.107
-57.752
-56.335
-54.871
-53.372
-51.837
-50.271
-48.681
-47.074
-45.459
-43.831
-42.182
-40.51
-38.818
-37.107
-35.367
-33.572
-31.674
-29.639
-27.458
-25.141
-22.714
-20.204
-17.642
-15.065
-12.526
-10.104
-7.867
-5.876
-4.172
-2.8
-1.817
-1.304
-1.356
-2.042
-3.385
-5.377
-7.989
-11.189
-14.924
-19.128
-23.694
-28.487
-33.391
-38.297
-43.115
-47.756
-52.119
-56.083
-59.536
-62.41
-64.699
-66.446
-67.715
-68.563
-69.049
-69.269
-69.381
-69.577
-70.046
-70.936
-72.322
-74.329
-77.191
-81.033
-85.828
-91.314
-96.872
-101.946
-106.256
-109.369
-110.634
-109.675
-106.404
-101.337
-96.016
-91.668
-88.576
-87.449
-89.385
-94.573
-102.724
-111.163
-113.721
-107.057
-90.541
-64.981
-34.379
3.128
53.611
122.306
216.229
334.874
471.972
619.279
760.071
876.534
951.757
971.378
933.558
845.358
718.865
568.662
406.485
245.022
100.005
-14.522
-89.32
-125.941
-137.954
-139.093
-138.13
-137.425
-131.784
-119.029
-102.379
-85.958
-74.893
-71.538
-74.552
-81.943
-91.686
-101.467
-109.242
-113.91
-114.958
-112.586
-107.696
-101.166
-93.761
-86.443
-80.156
-75.413
-72.447
-71.205
-71.378
-72.738
-75.091
-78.186
-81.764
-85.608
-89.545
-93.43
-97.153
-100.573
-103.535
-105.933
-107.704
-108.827
-109.302
-109.15
-108.392
-107.063
-105.22
-102.91
-100.177
-97.07
-93.642
-89.96
-86.113
-82.185
-78.25
-74.357
-70.524
-66.756
-63.064
-59.448
-55.906
-52.446
-49.063
-45.764
-42.577
-39.517
-36.573
-33.72
-30.895
-28.024
-25.056
-21.952
-18.684
-15.238
-11.582
-7.687
-3.535
0.907
5.669
10.791
16.339
22.362
28.867
35.842
43.229
50.948
58.942
67.158
75.545
84.064
92.663
101.294
109.921
118.499
126.977
135.291
143.351
151.08
158.429
165.37
171.9
178.037
183.783
189.137
194.1
198.664
202.819
206.557
209.853
212.683
215.036
216.91
218.316
219.267
219.764
219.802
219.366
218.438
217.007
215.067
212.61
209.636
206.153
202.173
197.72
192.822
187.505
181.792
175.708
169.275
162.52
155.474
148.168
140.638
132.918
125.043
117.049
108.973
100.849
92.71
84.585
76.502
68.49
60.577
52.788
45.15
37.689
30.427
23.387
16.59
10.056
3.801
-2.159
-7.813
-13.15
-18.161
-22.838
-27.177
-31.174
-34.827
-38.137
-41.105
-43.735
-46.031
-48
-49.649
-50.987
-52.025
-52.773
-53.242
-53.446
-53.398
-53.111
-52.599
-51.876
-50.958
-49.858
-48.592
-47.174
-45.619
-43.942
-42.156
-40.277
-38.316
-36.288
-34.204
-32.076
-29.915
-27.733
-25.538
-23.34
-21.149
-18.971
-16.815
-14.687
-12.594
-10.541
-8.532
-6.572
-4.665
-2.814
-1.022
0.709
2.377
3.979
5.515
6.982
8.381
9.709
10.967
12.153
13.267
14.308
15.275
16.168
16.986
17.728
18.393
18.98
19.489
19.919
20.268
20.537
20.724
20.829
20.85
20.788
20.641
20.409
20.09
19.684
19.19
18.609
17.939
17.181
16.335
15.402
14.382
13.278
12.09
10.821
9.473
8.05
6.555
4.991
3.364
1.678
-0.061
-1.848
-3.676
-5.538
-7.427
-9.337
-11.26
-13.188
-15.114
-17.03
-18.928
-20.801
-22.64
-24.437
-26.185
-27.874
-29.497
-31.046
-32.515
-33.895
-35.181
-36.367
-37.448
-38.419
-39.277
-40.019
-40.642
-41.145
-41.528
-41.793
-41.94
-41.974
-41.899
-41.721
-41.449
-41.09
-40.656
-40.156
-39.602
-39.007
-38.385
-37.75
-37.117
-36.498
-35.907
-35.361
-34.873
-34.46
-34.135
-33.912
-33.807
-33.834
-34.008
-34.346
-34.859
-35.556
-36.443
-37.527
-38.816
-40.32
-42.046
-43.999
-46.176
-48.578
-51.2
-54.037
-57.067
-60.257
-63.558
-66.923
-70.308
-73.675
-76.985
-80.197
-83.264
-86.133
-88.757
-91.1
-93.129
-94.819
-96.146
-97.099
-97.704
-98.039
-98.222
-98.373
-98.609
-99.012
-99.639
-100.577
-101.932
-103.802
-106.304
-109.523
-113.472
-118.238
-123.943
-130.504
-137.699
-145.032
-151.658
-156.865
-160.085
-160.595
-157.888
-151.961
-143.028
-132.097
-120.86
-110.558
-102.421
-97.782
-96.885
-98.943
-102.641
-105.137
-102.59
-91.655
-68.391
-28.416
29.435
102.86
188.957
282.788
381.229
487.396
600.827
714.179
816.469
887.333
905.734
864.703
763.537
610.219
427.672
235.581
56.383
-82.533
-171.58
-209.904
-207.656
-190.152
-172.282
-159.854
-152.555
-141.046
-122.851
-102.074
-82.883
-70.663
-66.948
-69.459
-76.127
-84.719
-93.081
-99.698
-103.639
-104.659
-103.178
-100.06
-96.087
-91.886
-88.184
-85.652
-84.63
-85.186
-87.147
-90.161
-93.936
-98.264
-102.903
-107.629
-112.259
-116.621
-120.594
-124.096
-127.051
-129.407
-131.134
-132.217
-132.666
-132.517
-131.819
-130.631
-129.015
-127.024
-124.71
-122.122
-119.319
-116.362
-113.314
-110.231
-107.154
-104.107
-101.108
-98.164
-95.273
-92.425
-89.6
-86.772
-83.92
-81.028
-78.081
-75.065
-71.963
-68.756
-65.426
-61.959
-58.339
-54.555
-50.596
-46.453
-42.121
-37.596
-32.877
-27.966
-22.862
-17.568
-12.083
-6.413
-0.56
5.468
11.663
18.017
24.517
31.148
37.895
44.739
51.66
58.636
65.644
72.66
79.658
86.61
93.488
100.265
106.91
113.394
119.687
125.759
131.581
137.125
142.361
147.263
151.805
155.963
159.714
163.038
165.915
168.329
170.265
171.711
172.656
173.092
173.015
172.422
171.312
169.689
167.557
164.925
161.804
158.206
154.147
149.645
144.72
139.394
133.691
127.635
121.254
114.577
107.632
100.45
93.062
85.5
77.795
69.98
62.087
54.147
46.191
38.251
30.355
22.533
14.812
7.219
-0.221
-7.485
-14.55
-21.395
-28.003
-34.355
-40.438
-46.237
-51.742
-56.944
-61.836
-66.412
-70.669
-74.606
-78.222
-81.52
-84.503
-87.176
-89.546
-91.62
-93.408
-94.92
-96.168
-97.163
-97.919
-98.449
-98.767
-98.889
-98.829
-98.603
-98.226
-97.713
-97.079
-96.34
-95.511
-94.605
-93.637
-92.621
-91.568
-90.49
-89.4
-88.306
-87.22
-86.148
-85.1
-84.081
-83.098
-82.156
-81.259
-80.41
-79.613
-78.869
-78.178
-77.543
-76.961
-76.431
-75.953
-75.522
-75.138
-74.795
-74.49
-74.219
-73.978
-73.76
-73.561
-73.376
-73.2
-73.026
-72.849
-72.664
-72.466
-72.25
-72.012
-71.746
-71.45
-71.12
-70.753
-70.346
-69.898
-69.407
-68.871
-68.29
-67.665
-66.995
-66.282
-65.526
-64.73
-63.896
-63.025
-62.122
-61.189
-60.231
-59.251
-58.254
-57.244
-56.226
-55.205
-54.186
-53.173
-52.172
-51.187
-50.223
-49.283
-48.373
-47.495
-46.654
-45.851
-45.091
-44.373
-43.701
-43.074
-42.492
-41.956
-41.464
-41.014
-40.605
-40.233
-39.896
-39.591
-39.313
-39.06
-38.827
-38.608
-38.4
-38.197
-37.995
-37.79
-37.576
-37.349
-37.107
-36.845
-36.561
-36.253
-35.921
-35.563
-35.18
-34.775
-34.348
-33.904
-33.446
-32.98
-32.509
-32.038
-31.572
-31.119
-30.685
-30.278
-29.903
-29.572
-29.294
-29.079
-28.937
-28.876
-28.899
-29.011
-29.215
-29.519
-29.931
-30.461
-31.113
-31.894
-32.808
-33.86
-35.046
-36.353
-37.748
-39.197
-40.668
-42.132
-43.567
-44.947
-46.242
-47.416
-48.43
-49.245
-49.826
-50.143
-50.161
-49.858
-49.227
-48.302
-47.179
-45.958
-44.74
-43.607
-42.598
-41.783
-41.271
-41.173
-41.613
-42.71
-44.502
-47.082
-50.649
-55.195
-60.546
-66.315
-71.729
-76.115
-79.084
-80.078
-78.483
-74.245
-67.609
-59.372
-51.278
-44.582
-39.891
-38.193
-40.125
-45.116
-52.005
-58.342
-60.074
-54.128
-38
-8.093
38.385
102.475
182.646
273.418
367.891
461.679
554.973
648.407
737.907
812.98
855.995
852.036
796.994
697.199
566.475
418.109
263.629
114.178
-16.23
-111.168
-162.486
-173.723
-159.377
-137.862
-120.579
-109.435
-99.922
-88.689
-76.164
-65.212
-59.849
-60.859
-66.228
-73.818
-80.961
-85.55
-86.975
-85.031
-79.917
-72.534
-63.827
-54.583
-45.721
-38.069
-32.023
-27.778
-25.359
-24.557
-25.184
-27.081
-30.01
-33.712
-37.969
-42.547
-47.212
-51.783
-56.064
-59.893
-63.175
-65.839
-67.84
-69.158
-69.772
-69.663
-68.846
-67.347
-65.194
-62.446
-59.17
-55.465
-51.458
-47.274
-43.013
-38.754
-34.54
-30.401
-26.36
-22.423
-18.593
-14.873
-11.257
-7.74
-4.325
-0.998
2.259
5.477
8.701
11.976
15.338
18.815
22.429
26.19
30.11
34.194
38.446
42.874
47.481
52.268
57.238
62.387
67.707
73.187
78.805
84.528
90.327
96.172
102.044
107.938
113.845
119.752
125.647
131.513
137.344
143.152
148.936
154.69
160.408
166.083
171.726
177.375
183.049
188.755
194.479
200.176
205.812
211.36
216.779
222.024
227.03
231.703
235.982
239.832
243.206
246.065
248.341
249.93
250.764
250.806
250.035
248.461
246.082
242.878
238.86
234.056
228.502
222.26
215.354
207.773
199.533
190.669
181.233
171.321
160.996
150.287
139.236
127.884
116.284
104.524
92.679
80.817
69.035
57.438
46.156
35.346
25.121
15.563
6.742
-1.296
-8.496
-14.783
-20.105
-24.433
-27.744
-30.049
-31.385
-31.807
-31.432
-30.415
-28.929
-27.143
-25.19
-23.166
-21.162
-19.262
-17.54
-16.077
-14.942
-14.189
-13.888
-14.084
-14.79
-15.983
-17.583
-19.466
-21.501
-23.574
-25.598
-27.514
-29.273
-30.833
-32.168
-33.256
-34.077
-34.608
-34.804
-34.626
-34.059
-33.116
-31.842
-30.31
-28.602
-26.783
-24.91
-23.025
-21.155
-19.324
-17.539
-15.801
-14.111
-12.48
-10.932
-9.492
-8.18
-7.003
-5.956
-5.025
-4.19
-3.435
-2.744
-2.104
-1.513
-0.968
-0.477
-0.05
0.302
0.569
0.75
0.844
0.85
0.767
0.593
0.324
-0.045
-0.519
-1.105
-1.809
-2.633
-3.581
-4.652
-5.846
-7.158
-8.586
-10.128
-11.778
-13.534
-15.394
-17.354
-19.411
-21.562
-23.8
-26.123
-28.525
-30.998
-33.535
-36.13
-38.772
-41.453
-44.162
-46.889
-49.623
-52.353
-55.067
-57.756
-60.408
-63.014
-65.564
-68.049
-70.459
-72.786
-75.02
-77.151
-79.169
-81.064
-82.827
-84.448
-85.919
-87.23
-88.373
-89.343
-90.135
-90.742
-91.158
-91.374
-91.383
-91.188
-90.793
-90.206
-89.44
-88.509
-87.433
-86.244
-84.969
-83.638
-82.275
-80.891
-79.495
-78.099
-76.717
-75.362
-74.044
-72.751
-71.466
-70.179
-68.876
-67.542
-66.154
-64.662
-63.022
-61.207
-59.197
-57.001
-54.646
-52.149
-49.528
-46.82
-44.069
-41.347
-38.737
-36.293
-34.055
-32.064
-30.354
-28.999
-28.064
-27.582
-27.568
-28.005
-28.853
-30.077
-31.642
-33.477
-35.498
-37.611
-39.696
-41.695
-43.587
-45.37
-47.074
-48.701
-50.251
-51.738
-53.161
-54.557
-56.003
-57.563
-59.329
-61.408
-63.847
-66.766
-70.354
-74.566
-79.183
-83.737
-87.43
-89.63
-89.906
-87.699
-82.598
-74.633
-64.15
-52.313
-40.894
-31.131
-23.97
-20.279
-20.094
-22.69
-26.568
-28.551
-24.837
-12.472
11.589
50.295
105.167
176.655
261.993
354.315
447.195
535.952
620.008
701.209
775.93
835.51
865.424
850.351
786.376
677.212
532.979
372.095
209.773
62.27
-50.657
-121.293
-150.039
-146.184
-130.217
-115.523
-107.222
-105.272
-103.506
-99.582
-95.355
-93.246
-96.319
-104.649
-116.029
-128.107
-138.137
-144.734
-147.766
-147.229
-143.68
-137.912
-130.624
-122.802
-115.518
-109.327
-104.461
-100.969
-98.648
-97.377
-97.093
-97.605
-98.7
-100.215
-102.02
-104.065
-106.352
-108.815
-111.339
-113.792
-116.066
-118.113
-119.911
-121.437
-122.654
-123.497
-123.942
-124.007
-123.719
-123.111
-122.197
-120.955
-119.37
-117.458
-115.25
-112.787
-110.099
-107.185
-104.058
-100.753
-97.321
-93.832
-90.321
-86.781
-83.205
-79.585
-75.927
-72.266
-68.623
-64.991
-61.37
-57.763
-54.176
-50.634
-47.125
-43.599
-40.002
-36.275
-32.39
-28.353
-24.173
-19.864
-15.43
-10.852
-6.125
-1.256
3.766
8.964
14.367
20.02
25.924
32.036
38.315
44.712
51.205
57.801
64.511
71.355
78.335
85.433
92.626
99.886
107.158
114.369
121.424
128.203
134.626
140.65
146.239
151.367
155.988
160.031
163.42
166.071
167.916
168.913
169.03
168.249
166.583
164.068
160.771
156.797
152.223
147.096
141.462
135.346
128.794
121.871
114.646
107.196
99.589
91.881
84.127
76.375
68.654
60.977
53.333
45.686
38.018
30.328
22.627
14.937
7.277
-0.345
-7.917
-15.424
-22.853
-30.188
-37.416
-44.528
-51.503
-58.315
-64.93
-71.3
-77.388
-83.169
-88.621
-93.732
-98.49
-102.884
-106.911
-110.571
-113.866
-116.798
-119.368
-121.574
-123.42
-124.913
-126.064
-126.886
-127.392
-127.595
-127.506
-127.138
-126.505
-125.619
-124.491
-123.131
-121.549
-119.759
-117.772
-115.602
-113.263
-110.768
-108.13
-105.363
-102.48
-99.495
-96.42
-93.267
-90.049
-86.776
-83.459
-80.11
-76.74
-73.357
-69.973
-66.596
-63.236
-59.902
-56.602
-53.344
-50.136
-46.984
-43.896
-40.877
-37.933
-35.071
-32.295
-29.611
-27.025
-24.543
-22.168
-19.907
-17.762
-15.738
-13.839
-12.066
-10.422
-8.909
-7.529
-6.283
-5.171
-4.195
-3.354
-2.649
-2.079
-1.644
-1.343
-1.174
-1.135
-1.224
-1.44
-1.78
-2.241
-2.822
-3.519
-4.33
-5.25
-6.276
-7.404
-8.626
-9.938
-11.331
-12.799
-14.335
-15.931
-17.581
-19.277
-21.014
-22.786
-24.589
-26.415
-28.26
-30.115
-31.973
-33.827
-35.669
-37.489
-39.279
-41.03
-42.732
-44.381
-45.967
-47.482
-48.917
-50.257
-51.494
-52.622
-53.639
-54.544
-55.343
-56.041
-56.651
-57.193
-57.685
-58.144
-58.583
-59.009
-59.429
-59.847
-60.269
-60.705
-61.154
-61.605
-62.04
-62.433
-62.757
-62.985
-63.079
-62.987
-62.669
-62.093
-61.242
-60.116
-58.726
-57.091
-55.234
-53.181
-50.978
-48.688
-46.389
-44.175
-42.135
-40.348
-38.907
-37.914
-37.457
-37.602
-38.386
-39.808
-41.844
-44.457
-47.597
-51.214
-55.226
-59.532
-64.01
-68.513
-72.917
-77.106
-80.962
-84.362
-87.201
-89.402
-90.933
-91.835
-92.187
-92.081
-91.617
-90.878
-89.943
-88.924
-87.975
-87.266
-86.952
-87.175
-88.009
-89.578
-92.092
-95.549
-99.744
-104.238
-108.246
-111.049
-112.211
-111.138
-107.146
-100.144
-90.389
-78.696
-66.88
-56.337
-47.821
-42.475
-41.101
-43.21
-47.667
-52.015
-52.074
-44.558
-26.671
5.474
54.899
122.82
207.716
304.084
405.037
505.843
606.171
706.176
800.862
878.935
922.482
916.473
857.108
752.369
617.256
464.068
303.932
144.564
-3.003
-118.886
-192.565
-220.169
-208.954
-179.291
-143.696
-112.888
-91.612
-77.896
-74.805
-79.026
-87.757
-100.049
-110.32
-119.501
-128.429
-135.232
-140.902
-143.876
-142.624
-138.181
-131.178
-122.579
-113.805
-105.605
-98.263
-92.005
-86.77
-82.283
-78.396
-74.995
-71.904
-69.003
-66.248
-63.613
-61.15
-58.934
-56.956
-55.166
-53.492
-51.863
-50.269
-48.722
-47.245
-45.853
-44.545
-43.326
-42.212
-41.189
-40.222
-39.234
-38.104
-36.746
-35.117
-33.191
-30.971
-28.456
-25.625
-22.467
-18.983
-15.175
-11.051
-6.616
-1.865
3.182
8.484
13.974
19.561
25.176
30.779
36.34
41.842
47.278
52.634
57.912
63.126
68.287
73.406
78.489
83.54
88.569
93.589
98.618
103.681
108.79
113.946
119.136
124.334
129.514
134.656
139.743
144.76
149.692
154.527
159.251
163.851
168.328
172.683
176.912
181.005
184.955
188.766
192.467
196.103
199.709
203.295
206.842
210.324
213.716
216.99
220.11
223.027
225.666
227.971
229.911
231.466
232.618
233.323
233.5
233.05
231.903
230.016
227.378
223.984
219.814
214.874
209.197
202.842
195.899
188.423
180.419
171.894
162.864
153.381
143.547
133.473
123.246
112.951
102.667
92.488
82.537
72.901
63.623
54.727
46.215
38.13
30.565
23.602
17.297
11.682
6.744
2.47
-1.138
-4.104
-6.48
-8.339
-9.789
-10.906
-11.724
-12.274
-12.574
-12.676
-12.665
-12.606
-12.542
-12.509
-12.525
-12.611
-12.802
-13.099
-13.478
-13.899
-14.303
-14.654
-14.944
-15.164
-15.308
-15.364
-15.308
-15.132
-14.843
-14.447
-13.949
-13.351
-12.651
-11.86
-11.008
-10.123
-9.243
-8.391
-7.582
-6.83
-6.147
-5.541
-5.022
-4.589
-4.236
-3.96
-3.76
-3.636
-3.589
-3.617
-3.714
-3.872
-4.086
-4.353
-4.67
-5.034
-5.441
-5.892
-6.386
-6.924
-7.51
-8.146
-8.831
-9.566
-10.352
-11.189
-12.078
-13.019
-14.012
-15.059
-16.162
-17.321
-18.539
-19.819
-21.163
-22.573
-24.053
-25.604
-27.23
-28.93
-30.708
-32.563
-34.495
-36.505
-38.59
-40.747
-42.972
-45.262
-47.611
-50.015
-52.467
-54.961
-57.49
-60.05
-62.633
-65.231
-67.837
-70.441
-73.033
-75.602
-78.138
-80.627
-83.056
-85.412
-87.682
-89.852
-91.911
-93.845
-95.638
-97.273
-98.736
-100.018
-101.113
-102.019
-102.737
-103.268
-103.623
-103.819
-103.872
-103.796
-103.603
-103.3
-102.896
-102.397
-101.814
-101.159
-100.437
-99.64
-98.756
-97.768
-96.657
-95.403
-93.975
-92.334
-90.449
-88.299
-85.879
-83.193
-80.259
-77.103
-73.756
-70.253
-66.649
-63.012
-59.422
-55.972
-52.756
-49.863
-47.391
-45.443
-44.111
-43.466
-43.561
-44.419
-46.04
-48.394
-51.433
-55.1
-59.316
-63.987
-68.997
-74.208
-79.485
-84.702
-89.727
-94.435
-98.709
-102.44
-105.548
-107.987
-109.761
-110.937
-111.598
-111.837
-111.754
-111.426
-110.967
-110.538
-110.299
-110.403
-110.994
-112.158
-114.013
-116.781
-120.531
-125.136
-130.238
-135.122
-139.054
-141.52
-141.929
-139.564
-134.12
-125.739
-115.146
-104.072
-94.245
-86.827
-83.05
-83.976
-89.654
-99.148
-110.188
-118.662
-120.391
-111.616
-88.154
-46.307
16.571
99.668
198.076
305.728
415.454
525.101
637.199
746.834
846.661
922.321
949.12
916.666
821.947
668.563
481.67
282.694
93.961
-55.968
-158.624
-212.878
-226.187
-221.872
-213.244
-205.947
-201.851
-193.537
-179.329
-163.609
-150.071
-143.674
-146.101
-155.213
-168.647
-183.848
-198.365
-210.41
-219.051
-224.05
-225.723
-224.898
-222.427
-219.053
-215.664
-213.058
-211.589
-211.322
-212.076
-213.467
-215.215
-217.117
-218.937
-220.476
-221.578
-222.127
-222.079
-221.428
-220.163
-218.257
-215.667
-212.373
-208.405
-203.834
-198.776
-193.375
-187.754
-182.015
-176.252
-170.54
-164.956
-159.566
-154.398
-149.449
-144.691
-140.101
-135.681
-131.439
-127.357
-123.389
-119.469
-115.516
-111.484
-107.356
-103.107
-98.72
-94.167
-89.425
-84.511
-79.478
-74.398
-69.326
-64.298
-59.328
-54.443
-49.698
-45.137
-40.788
-36.641
-32.647
-28.776
-25.02
-21.385
-17.873
-14.457
-11.066
-7.621
-4.07
-0.369
3.507
7.594
11.964
16.665
21.706
27.063
32.67
38.48
44.487
50.702
57.114
63.684
70.333
76.962
83.513
89.93
96.163
102.152
107.803
113.037
117.818
122.134
125.997
129.404
132.313
134.659
136.42
137.599
138.234
138.391
138.101
137.382
136.267
134.789
133.005
130.965
128.693
126.191
123.468
120.543
117.462
114.297
111.082
107.831
104.542
101.189
97.771
94.3
90.778
87.204
83.577
79.901
76.194
72.491
68.815
65.179
61.588
58.032
54.518
51.066
47.698
44.447
41.335
38.38
35.601
33.022
30.656
28.514
26.601
24.908
23.434
22.179
21.146
20.338
19.752
19.385
19.228
19.273
19.51
19.929
20.517
21.26
22.144
23.159
24.293
25.539
26.885
28.321
29.836
31.418
33.055
34.735
36.445
38.173
39.906
41.633
43.342
45.025
46.671
48.271
49.816
51.298
52.707
54.037
55.28
56.428
57.478
58.422
59.256
59.976
60.579
61.061
61.419
61.651
61.754
61.726
61.563
61.265
60.828
60.251
59.533
58.672
57.667
56.52
55.228
53.794
52.218
50.501
48.643
46.646
44.511
42.24
39.835
37.298
34.632
31.84
28.926
25.894
22.748
19.493
16.133
12.674
9.121
5.481
1.76
-2.034
-5.892
-9.806
-13.765
-17.759
-21.776
-25.805
-29.832
-33.846
-37.834
-41.785
-45.685
-49.523
-53.288
-56.968
-60.551
-64.028
-67.384
-70.607
-73.683
-76.597
-79.339
-81.895
-84.254
-86.409
-88.348
-90.065
-91.556
-92.817
-93.841
-94.623
-95.152
-95.424
-95.44
-95.207
-94.738
-94.052
-93.165
-92.098
-90.879
-89.528
-88.061
-86.487
-84.805
-83.011
-81.114
-79.129
-77.085
-75.01
-72.916
-70.815
-68.712
-66.601
-64.48
-62.339
-60.153
-57.91
-55.627
-53.333
-51.092
-48.974
-47.032
-45.301
-43.803
-42.549
-41.569
-40.891
-40.542
-40.566
-40.998
-41.887
-43.309
-45.31
-47.894
-51.027
-54.621
-58.564
-62.766
-67.15
-71.647
-76.197
-80.727
-85.167
-89.444
-93.479
-97.2
-100.51
-103.296
-105.475
-107.023
-107.99
-108.496
-108.688
-108.685
-108.576
-108.461
-108.472
-108.75
-109.442
-110.698
-112.602
-115.289
-119.025
-123.893
-129.777
-136.342
-142.847
-148.535
-152.922
-155.344
-155.005
-151.781
-145.929
-138.301
-130.839
-125.067
-121.823
-122.385
-127.703
-137.228
-149.623
-162.076
-169.857
-169.227
-156.901
-128.445
-80.338
-10.839
78.397
180.985
289.279
396.526
501.991
609.443
716.937
819.003
897.814
924.956
882.903
763.031
577.968
363.099
153.612
-16.711
-131.806
-196.871
-225.092
-238.379
-250.064
-262.348
-273.318
-274.599
-263.747
-245.306
-224.734
-208.605
-199.724
-196.912
-198.474
-202.505
-207.261
-211.292
-212.977
-211.309
-206.287
-198.453
-188.715
-177.947
-166.856
-156.254
-146.973
-139.509
-134.021
-130.454
-128.533
-127.997
-128.648
-130.199
-132.339
-134.799
-137.288
-139.575
-141.499
-142.883
-143.601
-143.579
-142.745
-141.06
-138.514
-135.084
-130.791
-125.688
-119.828
-113.294
-106.185
-98.609
-90.717
-82.65
-74.526
-66.447
-58.479
-50.663
-43.039
-35.634
-28.456
-21.524
-14.84
-8.401
-2.211
3.737
9.462
14.988
20.359
25.618
30.8
35.932
41.038
46.132
51.23
56.34
61.46
66.597
71.757
76.95
82.195
87.505
92.882
98.33
103.846
109.423
115.049
120.706
126.36
131.99
137.585
143.137
148.651
154.13
159.571
164.973
170.333
175.651
180.93
186.165
191.343
196.467
201.547
206.61
211.706
216.859
222.068
227.319
232.579
237.808
242.963
247.983
252.787
257.309
261.483
265.261
268.612
271.486
273.82
275.538
276.54
276.758
276.159
274.722
272.447
269.355
265.48
260.888
255.679
249.936
243.729
237.115
230.13
222.829
215.282
207.566
199.772
191.974
184.225
176.575
169.066
161.721
154.551
147.54
140.643
133.835
127.108
120.46
113.908
107.46
101.115
94.876
88.744
82.722
76.819
71.037
65.38
59.859
54.493
49.312
44.356
39.655
35.228
31.089
27.244
23.697
20.452
17.509
14.858
12.494
10.411
8.604
7.068
5.798
4.78
4.001
3.443
3.091
2.93
2.946
3.123
3.448
3.908
4.492
5.19
5.992
6.885
7.859
8.899
9.994
11.133
12.304
13.494
14.693
15.89
17.076
18.242
19.38
20.48
21.535
22.538
23.482
24.361
25.17
25.903
26.555
27.124
27.606
27.999
28.299
28.506
28.618
28.635
28.555
28.378
28.104
27.733
27.264
26.699
26.037
25.28
24.429
23.485
22.45
21.325
20.113
18.817
17.439
15.982
14.449
12.846
11.175
9.441
7.65
5.805
3.911
1.975
0.001
-2.005
-4.037
-6.09
-8.158
-10.233
-12.31
-14.381
-16.44
-18.481
-20.495
-22.476
-24.416
-26.308
-28.144
-29.916
-31.616
-33.237
-34.771
-36.209
-37.546
-38.773
-39.887
-40.879
-41.747
-42.486
-43.092
-43.562
-43.895
-44.089
-44.144
-44.059
-43.837
-43.48
-42.991
-42.375
-41.637
-40.786
-39.828
-38.775
-37.635
-36.421
-35.146
-33.823
-32.465
-31.087
-29.702
-28.325
-26.973
-25.659
-24.401
-23.212
-22.109
-21.109
-20.227
-19.478
-18.874
-18.424
-18.136
-18.016
-18.073
-18.317
-18.759
-19.403
-20.254
-21.314
-22.584
-24.058
-25.72
-27.536
-29.47
-31.483
-33.538
-35.604
-37.648
-39.631
-41.51
-43.237
-44.761
-46.042
-47.046
-47.737
-48.092
-48.098
-47.783
-47.241
-46.573
-45.89
-45.283
-44.803
-44.528
-44.584
-45.079
-46.113
-47.776
-50.087
-53.129
-57.117
-62.066
-67.788
-73.959
-79.96
-85.247
-89.498
-92.1
-92.2
-89.543
-84.35
-77.164
-69.183
-61.33
-54.176
-49.087
-47.683
-48.935
-49.593
-46.65
-37.612
-24.982
-14.213
-4.736
11.32
46.778
112.525
210.606
331.014
458.321
584.569
703.778
809.813
897.618
950.209
949.159
890.026
772.859
607.722
419.081
226.339
51.592
-78.275
-155.292
-181.167
-168.494
-144.641
-125.168
-115.268
-113.756
-110.804
-103.589
-95.009
-87.966
-86.831
-92.141
-101.181
-111.815
-121.52
-128.21
-131.327
-130.73
-126.728
-120.244
-112.196
-103.374
-94.651
-86.848
-80.389
-75.457
-72.036
-69.921
-68.972
-69.094
-70.166
-72.029
-74.535
-77.561
-80.974
-84.68
-88.561
-92.468
-96.28
-99.914
-103.311
-106.436
-109.263
-111.74
-113.797
-115.386
-116.452
-116.966
-116.936
-116.369
-115.292
-113.746
-111.777
-109.44
-106.79
-103.86
-100.665
-97.223
-93.55
-89.679
-85.668
-81.555
-77.379
-73.17
-68.94
-64.702
-60.464
-56.221
-51.957
-47.657
-43.302
-38.881
-34.394
-29.835
-25.196
-20.461
-15.61
-10.628
-5.507
-0.24
5.174
10.733
16.437
22.274
28.228
34.282
40.422
46.63
52.893
59.196
65.518
71.839
78.136
84.388
90.575
96.674
102.663
108.52
114.222
119.75
125.083
130.202
135.084
139.71
144.057
148.107
151.841
155.242
158.292
160.978
163.285
165.203
166.723
167.836
168.536
168.818
168.68
168.12
167.139
165.741
163.93
161.713
159.098
156.096
152.719
148.98
144.894
140.478
135.748
130.725
125.429
119.88
114.103
108.12
101.956
95.636
89.186
82.631
75.996
69.307
62.59
55.868
49.166
42.507
35.914
29.408
23.01
16.74
10.617
4.659
-1.119
-6.703
-12.077
-17.232
-22.156
-26.841
-31.279
-35.465
-39.393
-43.062
-46.468
-49.613
-52.498
-55.126
-57.502
-59.63
-61.52
-63.178
-64.614
-65.839
-66.864
-67.699
-68.358
-68.851
-69.193
-69.397
-69.475
-69.441
-69.308
-69.089
-68.798
-68.445
-68.043
-67.603
-67.136
-66.652
-66.16
-65.67
-65.188
-64.723
-64.281
-63.868
-63.489
-63.149
-62.851
-62.598
-62.392
-62.232
-62.121
-62.057
-62.04
-62.068
-62.138
-62.248
-62.397
-62.579
-62.792
-63.032
-63.296
-63.579
-63.879
-64.191
-64.513
-64.84
-65.172
-65.504
-65.836
-66.166
-66.491
-66.813
-67.129
-67.439
-67.745
-68.045
-68.34
-68.632
-68.922
-69.209
-69.497
-69.785
-70.077
-70.373
-70.675
-70.984
-71.304
-71.634
-71.977
-72.334
-72.706
-73.094
-73.497
-73.916
-74.35
-74.798
-75.258
-75.729
-76.207
-76.689
-77.172
-77.651
-78.122
-78.578
-79.015
-79.425
-79.803
-80.142
-80.435
-80.676
-80.858
-80.977
-81.025
-80.998
-80.891
-80.699
-80.419
-80.046
-79.578
-79.013
-78.351
-77.59
-76.734
-75.782
-74.74
-73.613
-72.408
-71.132
-69.795
-68.408
-66.982
-65.531
-64.066
-62.602
-61.152
-59.729
-58.349
-57.026
-55.778
-54.621
-53.571
-52.645
-51.86
-51.229
-50.764
-50.472
-50.361
-50.437
-50.709
-51.188
-51.887
-52.812
-53.973
-55.373
-57.011
-58.878
-60.95
-63.188
-65.554
-68.008
-70.512
-73.035
-75.541
-77.99
-80.342
-82.543
-84.543
-86.296
-87.751
-88.865
-89.615
-90.002
-90.08
-89.942
-89.684
-89.397
-89.149
-89.011
-89.086
-89.489
-90.332
-91.729
-93.748
-96.486
-100.138
-104.771
-110.268
-116.308
-122.253
-127.431
-131.378
-133.549
-133.267
-130.2
-124.412
-116.537
-108.067
-100.435
-94.546
-91.269
-91.381
-94.998
-101.404
-108.608
-113.117
-111.338
-100.008
-75.84
-35.872
22.51
99.035
189.341
287.998
388.983
489.77
594.122
701.844
805.693
892.964
941.793
933.494
864.511
738.696
568.886
378.602
186.47
12.556
-119.926
-202.512
-233.794
-221.78
-185.992
-142.059
-103.327
-77.447
-66.37
-68.822
-77.524
-87.009
-92.715
-93.254
-93.534
-96.086
-101.424
-108.474
-113.5
-114.922
-113.246
-109.313
-104.543
-99.873
-95.717
-92.673
-91.123
-91.114
-92.486
-94.919
-98.143
-101.972
-106.225
-110.687
-115.146
-119.419
-123.359
-126.837
-129.688
-131.76
-132.96
-133.232
-132.575
-131.031
-128.648
-125.496
-121.684
-117.302
-112.44
-107.2
-101.668
-95.945
-90.162
-84.442
-78.921
-73.732
-68.962
-64.676
-60.919
-57.699
-55.019
-52.861
-51.171
-49.898
-48.997
-48.402
-48.051
-47.872
-47.753
-47.599
-47.319
-46.808
-45.993
-44.81
-43.196
-41.102
-38.488
-35.314
-31.571
-27.264
-22.399
-16.998
-11.105
-4.777
1.893
8.818
15.939
23.201
30.562
37.987
45.427
52.829
60.145
67.321
74.308
81.084
87.615
93.875
99.869
105.615
111.158
116.546
121.783
126.836
131.673
136.251
140.546
144.549
148.237
151.593
154.602
157.242
159.5
161.372
162.825
163.81
164.268
164.132
163.38
162.042
160.146
157.719
154.785
151.351
147.445
143.104
138.354
133.22
127.722
121.871
115.704
109.276
102.643
95.874
89.005
82.04
74.988
67.868
60.698
53.508
46.315
39.126
31.963
24.857
17.837
10.94
4.188
-2.41
-8.844
-15.106
-21.18
-27.034
-32.645
-37.995
-43.069
-47.853
-52.335
-56.496
-60.329
-63.838
-67.024
-69.893
-72.45
-74.692
-76.624
-78.252
-79.584
-80.632
-81.408
-81.924
-82.192
-82.227
-82.045
-81.662
-81.094
-80.354
-79.455
-78.412
-77.24
-75.956
-74.573
-73.107
-71.571
-69.981
-68.351
-66.695
-65.024
-63.351
-61.687
-60.041
-58.425
-56.847
-55.314
-53.835
-52.414
-51.058
-49.772
-48.559
-47.423
-46.365
-45.389
-44.494
-43.682
-42.952
-42.304
-41.738
-41.251
-40.843
-40.511
-40.253
-40.067
-39.95
-39.899
-39.912
-39.986
-40.118
-40.304
-40.541
-40.827
-41.156
-41.526
-41.934
-42.377
-42.851
-43.354
-43.884
-44.439
-45.016
-45.613
-46.229
-46.861
-47.508
-48.167
-48.837
-49.515
-50.202
-50.894
-51.59
-52.289
-52.988
-53.686
-54.379
-55.065
-55.741
-56.401
-57.043
-57.66
-58.25
-58.805
-59.323
-59.799
-60.231
-60.614
-60.944
-61.217
-61.43
-61.578
-61.655
-61.656
-61.571
-61.394
-61.119
-60.741
-60.255
-59.657
-58.943
-58.111
-57.16
-56.091
-54.9
-53.583
-52.132
-50.545
-48.828
-46.991
-45.054
-43.031
-40.938
-38.795
-36.628
-34.458
-32.298
-30.154
-28.013
-25.877
-23.754
-21.661
-19.628
-17.673
-15.798
-14.006
-12.296
-10.666
-9.12
-7.646
-6.209
-4.801
-3.429
-2.126
-0.961
0.016
0.775
1.296
1.574
1.591
1.319
0.74
-0.142
-1.317
-2.765
-4.493
-6.534
-8.89
-11.531
-14.388
-17.349
-20.32
-23.228
-26.007
-28.602
-30.942
-32.967
-34.651
-36.017
-37.142
-38.106
-38.968
-39.751
-40.479
-41.215
-42.092
-43.266
-44.878
-47.068
-49.911
-53.531
-58.172
-63.864
-70.418
-77.43
-84.117
-89.749
-93.905
-95.966
-95.156
-91.329
-84.703
-76.111
-67.435
-60.084
-54.752
-52.504
-54.227
-59.546
-67.347
-75.036
-78.189
-73.331
-57.558
-27.261
20.653
88.199
174.227
273.345
379.05
484.949
589.911
698.016
806.163
907.592
987.769
1020.918
994.653
906.346
761.074
582.518
391.747
206.865
50.508
-64.906
-134.793
-160.949
-158.72
-145.623
-131.457
-120.976
-111.764
-98.848
-83.317
-68.287
-56.844
-52.338
-54.542
-61.163
-70.299
-79.332
-85.956
-89.401
-89.477
-86.487
-81.37
-75.003
-68.107
-61.592
-56.284
-52.527
-50.386
-49.694
-50.086
-51.3
-53.132
-55.328
-57.654
-59.93
-62.027
-63.881
-65.454
-66.663
-67.428
-67.708
-67.52
-66.95
-66.097
-65.051
-63.888
-62.666
-61.454
-60.318
-59.292
-58.394
-57.611
-56.908
-56.276
-55.726
-55.257
-54.857
-54.48
-54.041
-53.47
-52.712
-51.717
-50.449
-48.868
-46.935
-44.64
-41.999
-39.043
-35.819
-32.355
-28.654
-24.728
-20.585
-16.243
-11.731
-7.066
-2.248
2.715
7.818
13.054
18.408
23.882
29.491
35.248
41.172
47.269
53.535
59.962
66.541
73.255
80.089
87.019
94.01
101.033
108.06
115.062
122.01
128.874
135.617
142.204
148.6
154.771
160.686
166.315
171.627
176.595
181.196
185.406
189.208
192.582
195.511
197.979
199.971
201.475
202.482
202.984
202.975
202.454
201.422
199.881
197.839
195.306
192.294
188.817
184.892
180.539
175.778
170.633
165.128
159.289
153.145
146.723
140.053
133.166
126.092
118.862
111.507
104.056
96.54
88.988
81.43
73.892
66.404
58.991
51.679
44.492
37.454
30.586
23.909
17.44
11.198
5.195
-0.554
-6.039
-11.251
-16.181
-20.825
-25.179
-29.241
-33.01
-36.489
-39.68
-42.586
-45.216
-47.574
-49.668
-51.509
-53.105
-54.466
-55.604
-56.53
-57.256
-57.793
-58.155
-58.353
-58.401
-58.312
-58.098
-57.772
-57.346
-56.832
-56.243
-55.588
-54.879
-54.127
-53.341
-52.531
-51.704
-50.871
-50.036
-49.209
-48.394
-47.597
-46.823
-46.077
-45.361
-44.68
-44.035
-43.431
-42.868
-42.349
-41.874
-41.446
-41.065
-40.731
-40.444
-40.205
-40.013
-39.869
-39.772
-39.721
-39.717
-39.76
-39.848
-39.983
-40.163
-40.389
-40.66
-40.974
-41.332
-41.733
-42.175
-42.66
-43.185
-43.75
-44.354
-44.998
-45.68
-46.4
-47.156
-47.947
-48.772
-49.63
-50.519
-51.438
-52.385
-53.359
-54.357
-55.378
-56.421
-57.481
-58.557
-59.644
-60.739
-61.836
-62.931
-64.017
-65.089
-66.141
-67.169
-68.167
-69.13
-70.054
-70.936
-71.773
-72.559
-73.292
-73.963
-74.567
-75.097
-75.548
-75.912
-76.184
-76.356
-76.422
-76.381
-76.231
-75.968
-75.586
-75.077
-74.437
-73.667
-72.772
-71.758
-70.635
-69.412
-68.11
-66.759
-65.386
-64.02
-62.677
-61.362
-60.082
-58.849
-57.673
-56.567
-55.531
-54.547
-53.607
-52.705
-51.832
-50.978
-50.116
-49.193
-48.173
-47.031
-45.758
-44.377
-42.901
-41.341
-39.728
-38.096
-36.505
-35.045
-33.782
-32.761
-32.041
-31.669
-31.711
-32.257
-33.352
-35.014
-37.242
-40.002
-43.265
-47.001
-51.142
-55.597
-60.251
-64.951
-69.576
-74.03
-78.203
-82.003
-85.339
-88.127
-90.372
-92.115
-93.403
-94.299
-94.83
-95.039
-95.047
-94.998
-95.061
-95.448
-96.28
-97.713
-100.046
-103.341
-107.468
-112.093
-116.429
-119.714
-121.522
-121.206
-118.017
-111.937
-103.294
-93.061
-83.415
-75.992
-71.639
-71.576
-76.614
-86.072
-98.562
-111.137
-118.628
-116.855
-102.646
-72.056
-21.956
48.865
140.35
248.487
364.924
482.249
594.371
698.21
792.837
875.116
938.382
968.437
951.857
880.109
750.425
577.802
384.312
195.348
40.412
-67.313
-126.415
-145.742
-147.155
-143.771
-140.495
-137.486
-127.123
-108.35
-86.182
-65.109
-50.627
-44.727
-45.608
-51.36
-59.907
-68.759
-75.841
-80.045
-80.945
-78.856
-74.705
-69.321
-63.381
-57.792
-53.449
-50.792
-49.977
-50.858
-53.044
-56.249
-60.259
-64.807
-69.636
-74.534
-79.303
-83.804
-87.942
-91.589
-94.645
-97.05
-98.759
-99.775
-100.129
-99.862
-99.032
-97.709
-95.957
-93.836
-91.405
-88.72
-85.847
-82.853
-79.802
-76.757
-73.76
-70.838
-68.009
-65.277
-62.631
-60.058
-57.532
-55.026
-52.517
-49.986
-47.414
-44.784
-42.077
-39.271
-36.349
-33.289
-30.074
-26.691
-23.127
-19.371
-15.415
-11.255
-6.888
-2.314
2.468
7.458
12.656
18.06
23.666
29.466
35.455
41.622
47.956
54.444
61.068
67.809
74.649
81.564
88.532
95.526
102.519
109.482
116.385
123.198
129.89
136.431
142.788
148.929
154.823
160.442
165.756
170.736
175.352
179.575
183.379
186.746
189.661
192.105
194.066
195.532
196.493
196.948
196.897
196.33
195.244
193.636
191.502
188.856
185.713
182.087
178
173.46
168.479
163.08
157.289
151.121
144.602
137.745
130.565
123.11
115.428
107.562
99.563
91.46
83.281
75.066
66.848
58.668
50.568
42.575
34.715
27.031
19.559
12.343
5.428
-1.185
-7.5
-13.509
-19.216
-24.608
-29.67
-34.406
-38.818
-42.906
-46.673
-50.115
-53.229
-56.036
-58.55
-60.795
-62.799
-64.555
-66.059
-67.317
-68.333
-69.117
-69.687
-70.046
-70.199
-70.165
-69.958
-69.599
-69.107
-68.488
-67.749
-66.899
-65.943
-64.898
-63.785
-62.616
-61.404
-60.162
-58.897
-57.626
-56.36
-55.103
-53.858
-52.629
-51.418
-50.229
-49.069
-47.939
-46.843
-45.779
-44.749
-43.753
-42.79
-41.86
-40.961
-40.091
-39.247
-38.43
-37.64
-36.875
-36.137
-35.424
-34.737
-34.076
-33.442
-32.836
-32.258
-31.709
-31.19
-30.704
-30.253
-29.838
-29.462
-29.128
-28.839
-28.598
-28.408
-28.273
-28.195
-28.177
-28.222
-28.332
-28.51
-28.757
-29.075
-29.465
-29.928
-30.464
-31.074
-31.757
-32.511
-33.334
-34.225
-35.178
-36.189
-37.254
-38.366
-39.52
-40.708
-41.924
-43.16
-44.407
-45.656
-46.9
-48.127
-49.328
-50.493
-51.61
-52.67
-53.662
-54.577
-55.404
-56.135
-56.761
-57.275
-57.669
-57.936
-58.072
-58.071
-57.929
-57.644
-57.215
-56.641
-55.925
-55.07
-54.08
-52.963
-51.727
-50.382
-48.939
-47.41
-45.811
-44.155
-42.458
-40.736
-39.005
-37.282
-35.585
-33.933
-32.342
-30.833
-29.424
-28.134
-26.984
-25.991
-25.17
-24.531
-24.085
-23.84
-23.808
-23.999
-24.427
-25.099
-26.02
-27.198
-28.633
-30.322
-32.248
-34.375
-36.664
-39.075
-41.573
-44.125
-46.699
-49.256
-51.755
-54.144
-56.373
-58.397
-60.173
-61.656
-62.816
-63.633
-64.13
-64.4
-64.542
-64.659
-64.837
-65.116
-65.559
-66.281
-67.399
-69.019
-71.259
-74.159
-77.808
-82.447
-88.09
-94.529
-101.362
-107.841
-113.27
-117.237
-119.121
-118.101
-114.034
-107.26
-98.659
-89.931
-82.274
-76.56
-74.108
-75.97
-82.152
-90.003
-95.767
-96.986
-90.483
-76.629
-55.144
-17.188
40.725
120.061
222.695
336.081
452.791
574.78
696.606
815.958
925.05
997.842
1011.462
953.641
819.31
625.838
405.435
187.18
1.969
-129.715
-205.569
-229.799
-217.244
-185.066
-145.404
-110.337
-84.931
-72.263
-72.635
-78.814
-85.975
-89.747
-88.808
-88.283
-90.735
-96.493
-104.067
-109.504
-111.117
-109.26
-104.746
-98.996
-92.945
-87.145
-82.382
-79.138
-77.529
-77.444
-78.579
-80.697
-83.641
-87.226
-91.224
-95.408
-99.61
-103.708
-107.615
-111.211
-114.355
-116.947
-118.924
-120.272
-121.006
-121.152
-120.739
-119.813
-118.432
-116.65
-114.522
-112.104
-109.444
-106.602
-103.638
-100.613
-97.581
-94.583
-91.64
-88.76
-85.941
-83.171
-80.434
-77.708
-74.968
-72.193
-69.364
-66.463
-63.479
-60.392
-57.187
-53.845
-50.352
-46.694
-42.861
-38.846
-34.643
-30.249
-25.664
-20.888
-15.926
-10.78
-5.453
0.049
5.721
11.555
17.541
23.667
29.92
36.284
42.742
49.276
55.864
62.487
69.122
75.748
82.341
88.877
95.329
101.67
107.871
113.902
119.735
125.34
130.689
135.755
140.514
144.942
149.019
152.723
156.035
158.932
161.392
163.397
164.932
165.99
166.569
166.674
166.316
165.51
164.277
162.631
160.586
158.145
155.309
152.075
148.442
144.418
140.022
135.275
130.193
124.792
119.083
113.069
106.742
100.091
93.096
85.756
78.081
70.106
61.886
53.49
44.997
36.476
27.979
19.555
11.25
3.109
-4.822
-12.487
-19.822
-26.754
-33.198
-39.088
-44.38
-49.059
-53.142
-56.669
-59.701
-62.292
-64.485
-66.317
-67.817
-69.011
-69.927
-70.596
-71.056
-71.357
-71.565
-71.738
-71.921
-72.138
-72.39
-72.662
-72.919
-73.133
-73.284
-73.356
-73.347
-73.259
-73.099
-72.874
-72.596
-72.263
-71.867
-71.4
-70.855
-70.235
-69.552
-68.828
-68.088
-67.359
-66.663
-66.021
-65.443
-64.937
-64.507
-64.151
-63.865
-63.648
-63.499
-63.42
-63.414
-63.481
-63.617
-63.819
-64.08
-64.393
-64.75
-65.146
-65.572
-66.025
-66.5
-66.996
-67.511
-68.044
-68.594
-69.157
-69.731
-70.311
-70.895
-71.478
-72.058
-72.631
-73.195
-73.746
-74.284
-74.806
-75.312
-75.797
-76.261
-76.702
-77.118
-77.507
-77.868
-78.2
-78.502
-78.775
-79.018
-79.232
-79.415
-79.567
-79.689
-79.778
-79.834
-79.854
-79.837
-79.779
-79.681
-79.541
-79.358
-79.133
-78.865
-78.555
-78.203
-77.809
-77.372
-76.889
-76.357
-75.773
-75.134
-74.438
-73.686
-72.877
-72.012
-71.091
-70.118
-69.095
-68.023
-66.899
-65.718
-64.475
-63.176
-61.828
-60.442
-59.04
-57.635
-56.247
-54.901
-53.614
-52.397
-51.256
-50.182
-49.164
-48.202
-47.303
-46.483
-45.759
-45.131
-44.597
-44.15
-43.772
-43.446
-43.156
-42.861
-42.539
-42.189
-41.825
-41.49
-41.241
-41.113
-41.136
-41.327
-41.692
-42.256
-43.048
-44.085
-45.394
-46.99
-48.881
-51.099
-53.658
-56.534
-59.686
-63.032
-66.462
-69.89
-73.235
-76.423
-79.401
-82.102
-84.457
-86.427
-87.975
-89.106
-89.874
-90.314
-90.476
-90.428
-90.22
-89.961
-89.819
-89.928
-90.439
-91.487
-93.107
-95.423
-98.66
-102.826
-107.773
-113.098
-117.986
-121.726
-123.879
-123.825
-120.911
-115.008
-106.289
-95.71
-85.298
-76.7
-71.012
-69.405
-72.435
-79.442
-89.117
-98.614
-103.258
-98.743
-81.155
-46.39
8.444
82.505
172.187
272.703
376.258
480.594
589.37
698.435
801.752
885.963
924.783
905.236
824.772
687.144
514.804
328.934
147.95
-4.022
-112.693
-171.105
-179.979
-154.2
-109.428
-60.894
-21.894
3.427
11.088
2.945
-11.328
-26.024
-34.754
-35.414
-34.138
-33.743
-35.014
-37.743
-38.393
-35.53
-30.078
-22.939
-15.434
-8.61
-2.916
1.371
4.011
5.019
4.678
3.191
0.735
-2.465
-6.238
-10.415
-14.809
-19.279
-23.722
-27.995
-31.944
-35.458
-38.456
-40.905
-42.806
-44.166
-45.004
-45.348
-45.251
-44.764
-43.93
-42.797
-41.406
-39.807
-38.059
-36.221
-34.346
-32.471
-30.614
-28.782
-26.969
-25.162
-23.344
-21.489
-19.569
-17.559
-15.439
-13.193
-10.804
-8.254
-5.525
-2.598
0.543
3.913
7.521
11.375
15.48
19.84
24.453
29.315
34.421
39.765
45.339
51.136
57.146
63.357
69.756
76.329
83.059
89.93
96.923
104.014
111.181
118.4
125.644
132.887
140.098
147.243
154.292
161.214
167.977
174.553
180.909
187.016
192.846
198.373
203.571
208.414
212.871
216.911
220.51
223.651
226.324
228.527
230.257
231.51
232.288
232.603
232.461
231.862
230.799
229.252
227.215
224.692
221.699
218.265
214.408
210.135
205.453
200.365
194.876
188.998
182.727
176.044
168.956
161.492
153.706
145.688
137.505
129.207
120.836
112.42
103.999
95.629
87.356
79.223
71.277
63.565
56.155
49.138
42.568
36.465
30.816
25.564
20.673
16.13
11.917
8.024
4.435
1.123
-1.926
-4.715
-7.259
-9.581
-11.727
-13.766
-15.738
-17.655
-19.511
-21.268
-22.903
-24.413
-25.79
-27.026
-28.117
-29.061
-29.866
-30.56
-31.156
-31.66
-32.07
-32.366
-32.545
-32.618
-32.602
-32.526
-32.412
-32.274
-32.131
-32.003
-31.904
-31.846
-31.831
-31.852
-31.906
-31.997
-32.128
-32.304
-32.53
-32.804
-33.125
-33.49
-33.896
-34.34
-34.817
-35.321
-35.847
-36.39
-36.948
-37.522
-38.109
-38.706
-39.311
-39.921
-40.533
-41.143
-41.749
-42.346
-42.931
-43.5
-44.051
-44.584
-45.097
-45.588
-46.057
-46.506
-46.932
-47.338
-47.724
-48.09
-48.438
-48.768
-49.083
-49.383
-49.669
-49.944
-50.208
-50.463
-50.71
-50.95
-51.184
-51.411
-51.634
-51.85
-52.061
-52.266
-52.464
-52.655
-52.838
-53.013
-53.179
-53.332
-53.471
-53.594
-53.698
-53.777
-53.83
-53.85
-53.834
-53.777
-53.675
-53.522
-53.314
-53.046
-52.715
-52.317
-51.846
-51.302
-50.682
-49.983
-49.205
-48.348
-47.414
-46.405
-45.325
-44.177
-42.968
-41.703
-40.39
-39.036
-37.651
-36.244
-34.824
-33.401
-31.986
-30.591
-29.228
-27.909
-26.648
-25.458
-24.353
-23.349
-22.462
-21.706
-21.089
-20.622
-20.313
-20.171
-20.21
-20.439
-20.864
-21.489
-22.317
-23.351
-24.591
-26.026
-27.633
-29.375
-31.221
-33.138
-35.102
-37.088
-39.066
-41
-42.852
-44.586
-46.173
-47.588
-48.8
-49.783
-50.521
-51.017
-51.326
-51.54
-51.739
-52.004
-52.394
-52.928
-53.674
-54.72
-56.145
-58.057
-60.532
-63.577
-67.293
-71.822
-77.121
-83.015
-89.051
-94.471
-98.694
-101.303
-101.747
-99.643
-94.97
-88.012
-79.844
-72.055
-65.736
-61.739
-60.867
-63.195
-68.096
-74.143
-78.321
-77.114
-67.824
-47.61
-13.61
35.849
101.46
180.7
267.018
354.399
438.738
519.878
599.966
675.903
739.022
774.414
766.684
709.926
606.28
467.622
312.974
160.969
31.343
-61.362
-113.058
-128.988
-124.176
-113.192
-104.406
-99.48
-93.365
-83.716
-71.954
-60.817
-54.836
-55.622
-61.574
-70.808
-80.83
-89.131
-94.696
-97.17
-96.397
-93
-87.782
-81.409
-74.801
-68.943
-64.338
-61.204
-59.594
-59.263
-60.013
-61.73
-64.193
-67.177
-70.511
-74.034
-77.631
-81.223
-84.692
-87.898
-90.712
-93.036
-94.824
-96.067
-96.769
-96.95
-96.632
-95.853
-94.664
-93.11
-91.24
-89.1
-86.735
-84.197
-81.542
-78.825
-76.099
-73.401
-70.749
-68.147
-65.594
-63.079
-60.591
-58.111
-55.618
-53.094
-50.526
-47.899
-45.203
-42.426
-39.552
-36.566
-33.458
-30.215
-26.831
-23.3
-19.619
-15.786
-11.802
-7.67
-3.393
1.025
5.58
10.268
15.084
20.022
25.073
30.23
35.482
40.816
46.219
51.675
57.167
62.678
68.187
73.675
79.122
84.505
89.803
94.994
100.054
104.962
109.695
114.231
118.547
122.623
126.438
129.973
133.21
136.131
138.722
140.966
142.853
144.371
145.51
146.261
146.62
146.582
146.143
145.305
144.067
142.435
140.413
138.009
135.233
132.098
128.615
124.801
120.672
116.247
111.545
106.586
101.393
95.989
90.396
84.639
78.741
72.729
66.625
60.456
54.245
48.016
41.793
35.599
29.457
23.387
17.412
11.549
5.819
0.239
-5.175
-10.407
-15.445
-20.276
-24.889
-29.274
-33.426
-37.336
-41.002
-44.42
-47.588
-50.508
-53.18
-55.607
-57.793
-59.744
-61.465
-62.963
-64.247
-65.325
-66.206
-66.901
-67.419
-67.772
-67.97
-68.025
-67.949
-67.752
-67.446
-67.044
-66.556
-65.993
-65.368
-64.689
-63.969
-63.217
-62.442
-61.653
-60.859
-60.068
-59.285
-58.519
-57.775
-57.057
-56.37
-55.719
-55.107
-54.537
-54.012
-53.534
-53.105
-52.726
-52.4
-52.126
-51.907
-51.742
-51.633
-51.579
-51.58
-51.637
-51.749
-51.916
-52.138
-52.414
-52.744
-53.126
-53.56
-54.044
-54.577
-55.158
-55.786
-56.46
-57.178
-57.94
-58.745
-59.59
-60.476
-61.4
-62.36
-63.355
-64.383
-65.441
-66.525
-67.633
-68.762
-69.907
-71.064
-72.229
-73.397
-74.563
-75.722
-76.867
-77.993
-79.093
-80.163
-81.194
-82.181
-83.118
-83.997
-84.814
-85.563
-86.236
-86.829
-87.334
-87.747
-88.062
-88.273
-88.374
-88.361
-88.229
-87.975
-87.594
-87.085
-86.444
-85.673
-84.768
-83.731
-82.564
-81.268
-79.845
-78.301
-76.639
-74.866
-72.989
-71.016
-68.954
-66.814
-64.607
-62.344
-60.037
-57.698
-55.343
-52.984
-50.637
-48.316
-46.035
-43.808
-41.649
-39.572
-37.589
-35.714
-33.959
-32.338
-30.863
-29.55
-28.408
-27.446
-26.669
-26.079
-25.679
-25.468
-25.455
-25.642
-26.031
-26.621
-27.417
-28.416
-29.614
-30.994
-32.517
-34.145
-35.839
-37.56
-39.282
-40.974
-42.599
-44.123
-45.501
-46.688
-47.654
-48.357
-48.752
-48.811
-48.507
-47.864
-46.974
-45.926
-44.818
-43.734
-42.701
-41.788
-41.101
-40.727
-40.802
-41.44
-42.677
-44.652
-47.566
-51.415
-56.064
-61.111
-65.767
-69.401
-71.527
-71.494
-68.863
-63.658
-56.26
-47.859
-40.186
-34.481
-31.816
-33.22
-38.835
-47.855
-58.406
-67.091
-70.157
-64.306
-45.937
-11.626
40.754
110.393
193.075
283.218
376.344
472.36
572.246
671.488
759.165
817.938
832.366
797.615
718.947
608.255
476.407
332.694
187.677
55.44
-46.768
-108.378
-131.218
-128.6
-116.894
-107.09
-101.425
-94.889
-84.919
-72.639
-60.973
-54.758
-55.594
-61.852
-71.675
-82.489
-91.67
-98.123
-101.421
-101.381
-98.676
-94.155
-88.497
-82.625
-77.536
-73.741
-71.451
-70.714
-71.258
-72.849
-75.348
-78.515
-82.105
-85.941
-89.856
-93.715
-97.437
-100.897
-103.949
-106.496
-108.466
-109.823
-110.577
-110.745
-110.36
-109.475
-108.148
-106.433
-104.381
-102.042
-99.463
-96.699
-93.799
-90.803
-87.751
-84.677
-81.61
-78.578
-75.588
-72.641
-69.728
-66.837
-63.967
-61.123
-58.31
-55.525
-52.772
-50.059
-47.416
-44.894
-42.529
-40.33
-38.289
-36.377
-34.574
-32.865
-31.222
-29.597
-27.92
-26.128
-24.176
-22.042
-19.688
-17.054
-14.057
-10.589
-6.576
-1.989
3.178
8.911
15.203
22.043
29.388
37.148
45.219
53.515
61.98
70.583
79.266
87.923
96.434
104.667
112.527
119.961
126.915
133.344
139.194
144.423
149.023
153.029
156.476
159.369
161.692
163.405
164.507
165.051
165.088
164.665
163.809
162.52
160.816
158.727
156.283
153.5
150.379
146.9
143.057
138.874
134.388
129.646
124.672
119.452
113.986
108.285
102.373
96.28
90.029
83.626
77.091
70.455
63.757
57.038
50.329
43.644
36.999
30.406
23.889
17.487
11.226
5.13
-0.781
-6.491
-11.981
-17.223
-22.206
-26.922
-31.369
-35.543
-39.439
-43.049
-46.367
-49.394
-52.131
-54.584
-56.757
-58.657
-60.29
-61.668
-62.8
-63.699
-64.376
-64.84
-65.1
-65.169
-65.057
-64.778
-64.343
-63.764
-63.054
-62.225
-61.29
-60.262
-59.152
-57.97
-56.727
-55.433
-54.099
-52.734
-51.346
-49.944
-48.536
-47.129
-45.73
-44.345
-42.98
-41.638
-40.323
-39.04
-37.791
-36.579
-35.406
-34.274
-33.185
-32.141
-31.143
-30.192
-29.289
-28.434
-27.627
-26.867
-26.156
-25.492
-24.874
-24.303
-23.777
-23.298
-22.863
-22.474
-22.13
-21.832
-21.578
-21.369
-21.204
-21.084
-21.007
-20.973
-20.984
-21.038
-21.138
-21.282
-21.47
-21.704
-21.983
-22.305
-22.67
-23.078
-23.526
-24.015
-24.542
-25.107
-25.709
-26.347
-27.02
-27.726
-28.464
-29.23
-30.022
-30.836
-31.668
-32.514
-33.368
-34.225
-35.081
-35.93
-36.768
-37.591
-38.395
-39.174
-39.926
-40.644
-41.322
-41.954
-42.531
-43.046
-43.491
-43.857
-44.139
-44.332
-44.43
-44.43
-44.331
-44.13
-43.823
-43.407
-42.872
-42.215
-41.435
-40.536
-39.528
-38.424
-37.247
-36.019
-34.767
-33.51
-32.266
-31.04
-29.834
-28.642
-27.459
-26.29
-25.147
-24.042
-22.985
-21.982
-21.037
-20.139
-19.27
-18.405
-17.506
-16.549
-15.525
-14.443
-13.339
-12.263
-11.279
-10.434
-9.764
-9.298
-9.056
-9.055
-9.3
-9.795
-10.552
-11.594
-12.961
-14.68
-16.753
-19.152
-21.817
-24.654
-27.549
-30.398
-33.111
-35.605
-37.827
-39.752
-41.395
-42.804
-44.028
-45.094
-45.993
-46.736
-47.376
-48.006
-48.751
-49.751
-51.138
-53.08
-55.818
-59.477
-63.979
-69.03
-74.044
-78.418
-81.734
-83.535
-83.204
-80.399
-75.245
-68.439
-61.417
-55.608
-51.779
-50.532
-52.69
-58.524
-67.265
-76.945
-84.101
-84.936
-76.665
-56.671
-21.657
31.081
102.515
190.158
287.906
389.31
489.775
589.435
689.622
785.774
868.787
922.96
930.964
887.005
793.545
659.793
503.222
339.309
184.261
58.026
-28.029
-70.99
-79.132
-72.69
-66.094
-66.135
-71.881
-74.892
-73.127
-68.985
-65.26
-66.531
-73.443
-83.58
-95.437
-106.992
-116.02
-121.791
-123.996
-122.535
-118.22
-111.934
-104.263
-96.04
-88.208
-81.261
-75.469
-70.919
-67.355
-64.586
-62.524
-60.996
-59.836
-58.925
-58.161
-57.514
-57.043
-56.77
-56.665
-56.672
-56.702
-56.716
-56.724
-56.75
-56.826
-56.969
-57.187
-57.497
-57.929
-58.493
-59.171
-59.91
-60.607
-61.175
-61.559
-61.734
-61.695
-61.424
-60.886
-60.05
-58.897
-57.423
-55.625
-53.494
-51.011
-48.174
-45.006
-41.555
-37.898
-34.099
-30.193
-26.207
-22.155
-18.047
-13.896
-9.704
-5.458
-1.143
3.251
7.729
12.285
16.92
21.648
26.487
31.462
36.59
41.874
47.315
52.909
58.646
64.513
70.488
76.541
82.64
88.757
94.867
100.944
106.961
112.888
118.692
124.343
129.811
135.067
140.083
144.832
149.285
153.421
157.216
160.651
163.709
166.372
168.622
170.447
171.832
172.768
173.247
173.261
172.808
171.885
170.494
168.64
166.33
163.573
160.379
156.765
152.746
148.341
143.571
138.458
133.027
127.304
121.314
115.088
108.653
102.04
95.278
88.398
81.432
74.408
67.358
60.311
53.296
46.341
39.472
32.715
26.094
19.632
13.351
7.271
1.409
-4.218
-9.596
-14.713
-19.558
-24.122
-28.4
-32.386
-36.078
-39.477
-42.581
-45.396
-47.926
-50.177
-52.157
-53.876
-55.344
-56.574
-57.577
-58.369
-58.963
-59.374
-59.617
-59.708
-59.662
-59.495
-59.222
-58.857
-58.415
-57.909
-57.353
-56.759
-56.138
-55.502
-54.861
-54.222
-53.595
-52.987
-52.403
-51.85
-51.331
-50.85
-50.41
-50.011
-49.655
-49.342
-49.071
-48.839
-48.645
-48.487
-48.36
-48.261
-48.186
-48.13
-48.09
-48.06
-48.036
-48.014
-47.99
-47.96
-47.919
-47.867
-47.799
-47.715
-47.612
-47.49
-47.348
-47.188
-47.01
-46.816
-46.607
-46.385
-46.154
-45.917
-45.678
-45.44
-45.207
-44.985
-44.776
-44.588
-44.423
-44.286
-44.184
-44.119
-44.097
-44.122
-44.198
-44.329
-44.517
-44.767
-45.08
-45.458
-45.902
-46.413
-46.99
-47.632
-48.338
-49.104
-49.926
-50.8
-51.72
-52.68
-53.673
-54.693
-55.731
-56.779
-57.829
-58.87
-59.894
-60.892
-61.852
-62.767
-63.625
-64.418
-65.135
-65.769
-66.311
-66.752
-67.085
-67.303
-67.399
-67.368
-67.205
-66.906
-66.469
-65.891
-65.173
-64.317
-63.324
-62.201
-60.952
-59.588
-58.117
-56.55
-54.901
-53.184
-51.414
-49.605
-47.775
-45.938
-44.112
-42.313
-40.558
-38.865
-37.25
-35.731
-34.328
-33.059
-31.939
-30.985
-30.204
-29.606
-29.198
-28.992
-28.997
-29.225
-29.68
-30.369
-31.299
-32.473
-33.887
-35.525
-37.347
-39.314
-41.387
-43.527
-45.707
-47.891
-50.039
-52.112
-54.061
-55.844
-57.424
-58.763
-59.814
-60.545
-60.938
-61.022
-60.895
-60.658
-60.41
-60.234
-60.163
-60.263
-60.65
-61.422
-62.699
-64.591
-67.116
-70.386
-74.643
-79.893
-85.967
-92.426
-98.387
-103.072
-106.004
-106.508
-103.884
-98.041
-89.279
-78.706
-68.501
-60.397
-55.494
-55.011
-59.655
-68.808
-80.871
-92.636
-99.268
-96.292
-79.75
-45.603
9.589
85.283
177.134
280.06
387.05
496.547
612.94
732.228
844.732
933.235
971.938
948.89
865.509
731.409
567.93
393.234
222.742
74.974
-37.503
-108.105
-139.385
-146.438
-143.903
-140.301
-137.8
-130.953
-117.146
-99.495
-82.201
-70.356
-66.214
-68.365
-74.791
-83.472
-92.184
-98.964
-102.739
-103.055
-100.147
-94.912
-88.212
-80.771
-73.497
-67.311
-62.7
-59.871
-58.755
-59.023
-60.434
-62.801
-65.871
-69.387
-73.136
-76.939
-80.659
-84.201
-87.432
-90.207
-92.426
-94.023
-94.974
-95.292
-95.001
-94.133
-92.74
-90.887
-88.634
-86.043
-83.174
-80.081
-76.827
-73.479
-70.1
-66.75
-63.47
-60.286
-57.21
-54.24
-51.366
-48.575
-45.844
-43.147
-40.464
-37.776
-35.066
-32.319
-29.518
-26.643
-23.676
-20.6
-17.4
-14.063
-10.581
-6.946
-3.152
0.803
4.918
9.194
13.628
18.22
22.967
27.868
32.917
38.109
43.436
48.889
54.458
60.128
65.885
71.713
77.593
83.506
89.432
95.349
101.235
107.066
112.817
118.464
123.981
129.342
134.521
139.492
144.229
148.708
152.904
156.795
160.357
163.572
166.419
168.881
170.944
172.592
173.814
174.601
174.944
174.838
174.278
173.265
171.799
169.883
167.522
164.726
161.503
157.866
153.828
149.407
144.619
139.485
134.025
128.263
122.224
115.932
109.416
102.702
95.819
88.797
81.664
74.451
67.185
59.898
52.617
45.37
38.184
31.087
24.102
17.255
10.568
4.062
-2.242
-8.327
-14.176
-19.773
-25.105
-30.161
-34.931
-39.406
-43.582
-47.452
-51.016
-54.271
-57.221
-59.866
-62.212
-64.265
-66.033
-67.524
-68.75
-69.721
-70.452
-70.954
-71.242
-71.332
-71.238
-70.977
-70.564
-70.015
-69.346
-68.573
-67.711
-66.775
-65.779
-64.737
-63.663
-62.569
-61.467
-60.369
-59.283
-58.221
-57.19
-56.198
-55.252
-54.357
-53.518
-52.739
-52.022
-51.37
-50.784
-50.264
-49.809
-49.419
-49.093
-48.827
-48.62
-48.468
-48.368
-48.316
-48.309
-48.343
-48.413
-48.516
-48.649
-48.808
-48.99
-49.192
-49.412
-49.646
-49.893
-50.15
-50.418
-50.693
-50.977
-51.267
-51.565
-51.872
-52.187
-52.512
-52.848
-53.197
-53.561
-53.941
-54.339
-54.756
-55.196
-55.658
-56.146
-56.66
-57.202
-57.773
-58.374
-59.005
-59.666
-60.357
-61.076
-61.823
-62.596
-63.392
-64.208
-65.041
-65.888
-66.743
-67.603
-68.463
-69.316
-70.156
-70.978
-71.775
-72.538
-73.261
-73.936
-74.555
-75.11
-75.594
-76
-76.321
-76.549
-76.678
-76.702
-76.615
-76.412
-76.09
-75.643
-75.07
-74.368
-73.537
-72.577
-71.49
-70.278
-68.946
-67.5
-65.946
-64.292
-62.549
-60.727
-58.838
-56.897
-54.917
-52.913
-50.898
-48.89
-46.905
-44.958
-43.067
-41.247
-39.518
-37.898
-36.405
-35.057
-33.868
-32.849
-32.011
-31.366
-30.924
-30.696
-30.696
-30.931
-31.411
-32.145
-33.138
-34.388
-35.885
-37.597
-39.493
-41.542
-43.708
-45.964
-48.278
-50.607
-52.913
-55.15
-57.268
-59.226
-60.978
-62.47
-63.672
-64.564
-65.16
-65.536
-65.778
-65.975
-66.212
-66.541
-67.03
-67.796
-68.969
-70.685
-73.062
-76.151
-80.058
-84.999
-91.037
-98.055
-105.667
-113.111
-119.726
-125.097
-128.688
-129.827
-128.182
-123.784
-117.385
-110.748
-105.206
-101.402
-100.366
-102.887
-108.894
-117.964
-126.486
-129.164
-123.939
-107.992
-81.406
-45.166
7.976
80.427
172.49
284.939
404.979
525.607
646.856
759.828
862.115
944.279
982.099
964.899
887.494
751.531
579.405
391.638
207.265
50.188
-66.706
-138.507
-167.227
-168.533
-159.717
-150.361
-144.877
-140.26
-131.174
-118.622
-105.714
-95.645
-91.919
-94.373
-100.762
-109.36
-117.757
-123.737
-126.568
-126.041
-122.381
-116.518
-109.354
-101.6
-94.166
-87.911
-83.202
-80.141
-78.619
-78.294
-78.919
-80.296
-82.161
-84.263
-86.404
-88.446
-90.313
-91.951
-93.259
-94.131
-94.511
-94.402
-93.885
-93.05
-91.977
-90.739
-89.391
-88.005
-86.652
-85.372
-84.183
-83.076
-82.018
-81.003
-80.051
-79.168
-78.35
-77.556
-76.705
-75.732
-74.588
-73.223
-71.606
-69.696
-67.454
-64.874
-61.973
-58.786
-55.364
-51.734
-47.904
-43.884
-39.685
-35.322
-30.826
-26.213
-21.482
-16.64
-11.692
-6.645
-1.513
3.707
9.031
14.477
20.065
25.808
31.702
37.746
43.934
50.254
56.695
63.237
69.851
76.513
83.198
89.882
96.541
103.149
109.674
116.084
122.346
128.43
134.306
139.946
145.321
150.404
155.171
159.601
163.672
167.367
170.666
173.553
176.011
178.027
179.59
180.689
181.317
181.469
181.142
180.337
179.057
177.307
175.096
172.433
169.33
165.803
161.867
157.541
152.845
147.799
142.428
136.755
130.807
124.61
118.192
111.581
104.807
97.897
90.882
83.79
76.65
69.491
62.34
55.224
48.169
41.202
34.345
27.623
21.056
14.666
8.47
2.485
-3.273
-8.79
-14.054
-19.054
-23.783
-28.232
-32.396
-36.27
-39.852
-43.14
-46.136
-48.842
-51.259
-53.395
-55.254
-56.844
-58.173
-59.251
-60.088
-60.694
-61.082
-61.264
-61.252
-61.058
-60.697
-60.181
-59.524
-58.738
-57.837
-56.833
-55.738
-54.566
-53.327
-52.033
-50.695
-49.324
-47.932
-46.527
-45.119
-43.718
-42.332
-40.969
-39.637
-38.342
-37.091
-35.888
-34.74
-33.65
-32.621
-31.657
-30.76
-29.933
-29.176
-28.491
-27.878
-27.339
-26.871
-26.477
-26.154
-25.902
-25.721
-25.608
-25.565
-25.587
-25.675
-25.826
-26.038
-26.309
-26.636
-27.017
-27.448
-27.927
-28.449
-29.013
-29.615
-30.251
-30.919
-31.614
-32.334
-33.075
-33.834
-34.607
-35.391
-36.182
-36.976
-37.771
-38.562
-39.346
-40.118
-40.876
-41.614
-42.329
-43.016
-43.671
-44.29
-44.867
-45.398
-45.878
-46.304
-46.67
-46.974
-47.209
-47.374
-47.463
-47.473
-47.399
-47.239
-46.988
-46.644
-46.201
-45.659
-45.015
-44.266
-43.411
-42.449
-41.379
-40.202
-38.918
-37.528
-36.036
-34.443
-32.753
-30.973
-29.107
-27.162
-25.146
-23.069
-20.941
-18.773
-16.579
-14.37
-12.163
-9.971
-7.81
-5.696
-3.642
-1.664
0.223
2.002
3.659
5.179
6.545
7.74
8.748
9.554
10.147
10.517
10.66
10.568
10.237
9.659
8.826
7.733
6.377
4.751
2.853
0.687
-1.729
-4.362
-7.171
-10.116
-13.154
-16.25
-19.366
-22.457
-25.478
-28.384
-31.12
-33.636
-35.884
-37.803
-39.354
-40.512
-41.291
-41.764
-42.025
-42.168
-42.285
-42.438
-42.7
-43.195
-44.046
-45.376
-47.334
-49.995
-53.484
-58.063
-63.76
-70.397
-77.586
-84.523
-90.449
-94.918
-97.266
-96.691
-93.084
-86.719
-78.514
-70.49
-64.135
-60.17
-59.693
-63.517
-71.077
-81.048
-90.552
-94.817
-90.158
-73.535
-41.166
9.996
81.721
172.538
276.538
386.67
496.324
604.371
714.752
824.305
926.467
1006.536
1038.44
1010.219
918.205
766.823
582.552
387.661
203.714
57.001
-45.541
-103.321
-123.236
-126.994
-126.36
-125.962
-126.889
-121.192
-107.538
-90.772
-74.775
-64.781
-62.633
-66.336
-73.966
-83.491
-92.495
-99.037
-102.111
-101.354
-97.147
-90.46
-82.153
-72.947
-63.773
-55.521
-48.667
-43.413
-39.678
-37.164
-35.693
-35.169
-35.449
-36.402
-37.904
-39.825
-42.072
-44.576
-47.232
-49.923
-52.558
-55.057
-57.376
-59.505
-61.429
-63.134
-64.588
-65.736
-66.527
-66.909
-66.855
-66.368
-65.462
-64.16
-62.498
-60.515
-58.247
-55.733
-52.993
-50.032
-46.863
-43.502
-39.982
-36.355
-32.669
-28.963
-25.268
-21.598
-17.961
-14.361
-10.789
-7.229
-3.663
-0.068
3.57
7.256
11.002
14.824
18.742
22.786
26.976
31.329
35.856
40.562
45.451
50.521
55.765
61.167
66.71
72.377
78.152
84.019
89.96
95.952
101.973
107.997
113.997
119.95
125.829
131.607
137.258
142.754
148.07
153.182
158.064
162.692
167.04
171.082
174.794
178.154
181.14
183.731
185.908
187.655
188.957
189.802
190.181
190.086
189.511
188.456
186.919
184.903
182.415
179.46
176.05
172.197
167.915
163.22
158.132
152.671
146.859
140.72
134.28
127.566
120.605
113.426
106.059
98.534
90.881
83.132
75.317
67.468
59.615
51.79
44.02
36.336
28.765
21.333
14.065
6.984
0.112
-6.531
-12.927
-19.06
-24.916
-30.482
-35.746
-40.702
-45.342
-49.662
-53.659
-57.333
-60.684
-63.715
-66.431
-68.837
-70.941
-72.752
-74.28
-75.535
-76.53
-77.279
-77.795
-78.094
-78.191
-78.102
-77.843
-77.432
-76.884
-76.215
-75.442
-74.581
-73.646
-72.652
-71.614
-70.544
-69.455
-68.359
-67.267
-66.188
-65.131
-64.106
-63.117
-62.172
-61.276
-60.433
-59.646
-58.919
-58.252
-57.648
-57.105
-56.625
-56.206
-55.846
-55.543
-55.295
-55.099
-54.953
-54.852
-54.794
-54.775
-54.791
-54.84
-54.916
-55.017
-55.14
-55.281
-55.438
-55.608
-55.789
-55.981
-56.181
-56.39
-56.607
-56.831
-57.065
-57.307
-57.56
-57.825
-58.104
-58.398
-58.71
-59.042
-59.397
-59.776
-60.182
-60.615
-61.078
-61.569
-62.09
-62.64
-63.217
-63.821
-64.452
-65.109
-65.79
-66.494
-67.221
-67.971
-68.74
-69.526
-70.321
-71.121
-71.919
-72.708
-73.477
-74.22
-74.923
-75.578
-76.18
-76.719
-77.186
-77.571
-77.856
-78.031
-78.091
-78.031
-77.85
-77.55
-77.13
-76.602
-75.987
-75.301
-74.564
-73.782
-72.949
-72.065
-71.13
-70.146
-69.122
-68.052
-66.915
-65.699
-64.397
-62.999
-61.5
-59.872
-58.063
-56.039
-53.774
-51.266
-48.544
-45.635
-42.561
-39.365
-36.097
-32.826
-29.653
-26.655
-23.884
-21.399
-19.253
-17.524
-16.332
-15.769
-15.896
-16.757
-18.359
-20.7
-23.779
-27.541
-31.896
-36.73
-41.893
-47.266
-52.767
-58.305
-63.786
-69.105
-74.106
-78.663
-82.692
-86.105
-88.843
-90.87
-92.168
-92.808
-92.936
-92.712
-92.305
-91.84
-91.413
-91.17
-91.262
-91.841
-93.099
-95.138
-98.08
-102.181
-107.484
-113.818
-120.822
-127.719
-133.725
-138.375
-140.993
-140.753
-137.534
-131.595
-123.819
-116.178
-110.117
-106.29
-105.759
-109.365
-116.599
-126.222
-135.466
-139.666
-135.282
-119.464
-88.612
-39.699
29.174
116.802
217.642
324.774
431.437
536.37
643.675
750.813
852.446
934.783
971.121
947.724
858.14
704.472
513.636
310.187
119.067
-30.523
-131.531
-185.074
-200.364
-200.846
-198.204
-195.886
-193.831
-183.659
-164.433
-141.84
-120.488
-105.901
-100.032
-100.932
-106.686
-115.3
-124.318
-131.655
-136.18
-137.465
-135.832
-132.21
-127.422
-122.119
-117.186
-113.504
-111.512
-111.349
-112.853
-115.617
-119.328
-123.759
-128.627
-133.66
-138.646
-143.383
-147.728
-151.59
-154.851
-157.415
-159.229
-160.257
-160.499
-159.988
-158.77
-156.903
-154.463
-151.519
-148.134
-144.374
-140.298
-135.978
-131.484
-126.884
-122.242
-117.602
-112.994
-108.44
-103.949
-99.52
-95.147
-90.812
-86.496
-82.185
-77.869
-73.537
-69.178
-64.778
-60.318
-55.784
-51.162
-46.439
-41.606
-36.653
-31.574
-26.362
-21.02
-15.545
-9.939
-4.195
1.698
7.742
13.932
20.258
26.705
33.259
39.907
46.633
53.41
60.221
67.053
73.905
80.786
87.692
94.612
101.52
108.379
115.164
121.861
128.459
134.947
141.32
147.566
153.69
159.713
165.63
171.412
177.003
182.318
187.3
191.906
196.11
199.904
203.272
206.194
208.661
210.66
212.167
213.153
213.558
213.3
212.336
210.65
208.271
205.271
201.693
197.569
192.93
187.783
182.139
175.998
169.339
162.154
154.466
146.315
137.789
129.006
120.063
111.05
102.022
92.996
84.005
75.082
66.254
57.572
49.091
40.885
33.06
25.7
18.86
12.574
6.829
1.585
-3.203
-7.599
-11.653
-15.383
-18.812
-21.953
-24.807
-27.399
-29.756
-31.919
-33.955
-35.924
-37.862
-39.806
-41.759
-43.71
-45.635
-47.487
-49.223
-50.824
-52.274
-53.571
-54.725
-55.735
-56.604
-57.335
-57.917
-58.343
-58.609
-58.71
-58.652
-58.449
-58.122
-57.706
-57.233
-56.726
-56.204
-55.679
-55.157
-54.644
-54.144
-53.654
-53.176
-52.713
-52.267
-51.844
-51.449
-51.082
-50.74
-50.422
-50.123
-49.841
-49.574
-49.321
-49.082
-48.857
-48.649
-48.461
-48.298
-48.162
-48.055
-47.978
-47.932
-47.921
-47.943
-48.002
-48.097
-48.23
-48.404
-48.621
-48.883
-49.193
-49.553
-49.964
-50.427
-50.945
-51.517
-52.144
-52.825
-53.559
-54.344
-55.181
-56.065
-56.996
-57.969
-58.981
-60.03
-61.109
-62.214
-63.339
-64.478
-65.624
-66.771
-67.912
-69.039
-70.146
-71.225
-72.268
-73.268
-74.216
-75.103
-75.921
-76.661
-77.316
-77.876
-78.335
-78.687
-78.925
-79.044
-79.041
-78.911
-78.652
-78.263
-77.744
-77.094
-76.315
-75.41
-74.383
-73.239
-71.983
-70.624
-69.172
-67.638
-66.033
-64.371
-62.666
-60.933
-59.187
-57.445
-55.72
-54.028
-52.383
-50.799
-49.294
-47.883
-46.585
-45.414
-44.386
-43.513
-42.81
-42.284
-41.94
-41.78
-41.806
-42.022
-42.44
-43.069
-43.919
-44.995
-46.301
-47.833
-49.577
-51.51
-53.597
-55.796
-58.068
-60.375
-62.688
-64.975
-67.204
-69.332
-71.302
-73.059
-74.549
-75.725
-76.543
-76.979
-77.05
-76.804
-76.329
-75.715
-75.025
-74.33
-73.722
-73.306
-73.195
-73.517
-74.358
-75.844
-78.195
-81.512
-85.738
-90.61
-95.538
-99.887
-103.174
-104.847
-104.237
-101.03
-95.349
-87.93
-80.408
-74.421
-71.066
-71.335
-76.069
-85.362
-98.32
-112.678
-124.504
-129.647
-124.411
-105.206
-68.853
-12.717
63.055
154.298
255.237
359.292
462.931
568.42
675.209
776.588
861.127
909.008
902.495
837.753
717.289
552.372
366.282
177.578
7.401
-120.183
-200.583
-234.534
-230.663
-209.806
-178.229
-141.897
-109.097
-80.102
-64.574
-66.157
-76.911
-92.523
-104.52
-108.909
-111.271
-113.625
-116.982
-121.48
-123.683
-122.449
-118.745
-113.367
-107.591
-102.399
-98.119
-94.927
-92.947
-92.039
-91.879
-92.25
-92.996
-93.943
-94.984
-96.033
-96.972
-97.734
-98.279
-98.512
-98.353
-97.773
-96.784
-95.467
-93.913
-92.185
-90.339
-88.43
-86.502
-84.588
-82.689
-80.772
-78.816
-76.825
-74.817
-72.834
-70.899
-69.001
-67.113
-65.177
-63.146
-60.988
-58.671
-56.161
-53.444
-50.513
-47.394
-44.142
-40.796
-37.371
-33.875
-30.295
-26.626
-22.877
-19.055
-15.164
-11.207
-7.175
-3.068
1.105
5.345
9.658
14.06
18.578
23.227
27.997
32.877
37.851
42.905
48.039
53.249
58.521
63.842
69.198
74.584
80.017
85.511
91.071
96.707
102.422
108.23
114.172
120.278
126.564
133.038
139.679
146.454
153.34
160.3
167.284
174.228
181.037
187.604
193.847
199.679
205.018
209.777
213.837
217.098
219.486
220.947
221.458
221.017
219.62
217.28
214.042
209.972
205.163
199.734
193.773
187.363
180.591
173.544
166.335
159.068
151.819
144.648
137.602
130.716
124.028
117.567
111.332
105.309
99.47
93.768
88.183
82.705
77.32
72.018
66.783
61.599
56.468
51.405
46.419
41.524
36.728
32.038
27.478
23.076
18.861
14.867
11.114
7.616
4.385
1.427
-1.253
-3.654
-5.782
-7.651
-9.271
-10.652
-11.804
-12.733
-13.456
-13.986
-14.341
-14.535
-14.584
-14.502
-14.303
-14
-13.606
-13.133
-12.59
-11.986
-11.331
-10.634
-9.906
-9.158
-8.397
-7.634
-6.875
-6.131
-5.407
-4.71
-4.044
-3.414
-2.823
-2.274
-1.768
-1.308
-0.893
-0.525
-0.204
0.07
0.298
0.48
0.617
0.709
0.759
0.766
0.733
0.66
0.55
0.403
0.222
0.007
-0.241
-0.52
-0.83
-1.17
-1.538
-1.935
-2.359
-2.811
-3.289
-3.794
-4.324
-4.881
-5.465
-6.075
-6.714
-7.38
-8.074
-8.798
-9.55
-10.33
-11.138
-11.972
-12.831
-13.712
-14.615
-15.535
-16.47
-17.418
-18.376
-19.342
-20.312
-21.284
-22.253
-23.216
-24.169
-25.105
-26.018
-26.898
-27.738
-28.534
-29.277
-29.964
-30.586
-31.139
-31.617
-32.019
-32.341
-32.577
-32.719
-32.755
-32.682
-32.504
-32.231
-31.87
-31.427
-30.908
-30.326
-29.697
-29.036
-28.344
-27.614
-26.836
-26.012
-25.155
-24.287
-23.43
-22.593
-21.772
-20.961
-20.162
-19.379
-18.611
-17.845
-17.057
-16.243
-15.43
-14.67
-14.013
-13.484
-13.094
-12.838
-12.725
-12.784
-13.049
-13.548
-14.299
-15.319
-16.632
-18.275
-20.281
-22.643
-25.303
-28.173
-31.169
-34.236
-37.33
-40.413
-43.418
-46.26
-48.862
-51.156
-53.094
-54.618
-55.678
-56.246
-56.325
-55.978
-55.305
-54.407
-53.386
-52.359
-51.447
-50.783
-50.55
-50.866
-51.892
-53.889
-56.905
-60.847
-65.455
-70.088
-74.127
-77.186
-78.654
-77.831
-74.683
-69.476
-63.08
-57.408
-53.831
-53.041
-56.039
-63.411
-74.479
-87.945
-101.035
-109.072
-108.348
-96.075
-68.881
-24.253
38.82
120.615
217.408
321.134
425.188
523.067
611.84
694.262
768.336
829.931
869.394
868.293
816.587
709.728
552.739
370.413
188.783
35.294
-67.142
-117.503
-126.488
-113.38
-98.008
-88.363
-83.898
-78.701
-69.4
-57.578
-46.754
-41.698
-43.955
-51.787
-63.114
-75.189
-85.31
-92.42
-96.151
-96.383
-93.854
-89.4
-83.678
-77.662
-72.377
-68.325
-65.722
-64.568
-64.513
-65.288
-66.728
-68.572
-70.593
-72.616
-74.474
-76.074
-77.373
-78.309
-78.829
-78.865
-78.366
-77.34
-75.83
-73.923
-71.749
-69.417
-67.026
-64.673
-62.413
-60.304
-58.411
-56.755
-55.347
-54.18
-53.208
-52.415
-51.796
-51.317
-50.938
-50.593
-50.181
-49.625
-48.871
-47.864
-46.575
-44.976
-43.034
-40.75
-38.146
-35.255
-32.129
-28.801
-25.281
-21.586
-17.732
-13.74
-9.645
-5.464
-1.203
3.132
7.535
12.001
16.517
21.088
25.729
30.457
35.293
40.249
45.322
50.506
55.797
61.182
66.65
72.181
77.747
83.323
88.887
94.414
99.885
105.274
110.551
115.685
120.648
125.412
129.95
134.238
138.25
141.963
145.359
148.42
151.131
153.477
155.445
157.022
158.196
158.957
159.299
159.214
158.7
157.753
156.375
154.569
152.342
149.702
146.658
143.224
139.412
135.24
130.722
125.88
120.731
115.298
109.603
103.669
97.522
91.187
84.688
78.053
71.307
64.477
57.587
50.664
43.731
36.814
29.935
23.119
16.387
9.761
3.261
-3.093
-9.283
-15.292
-21.104
-26.707
-32.088
-37.236
-42.141
-46.796
-51.194
-55.331
-59.202
-62.805
-66.14
-69.206
-72.007
-74.544
-76.822
-78.847
-80.624
-82.162
-83.467
-84.55
-85.419
-86.083
-86.554
-86.84
-86.954
-86.907
-86.708
-86.371
-85.906
-85.324
-84.638
-83.857
-82.994
-82.058
-81.06
-80.01
-78.918
-77.794
-76.645
-75.481
-74.31
-73.139
-71.977
-70.829
-69.702
-68.602
-67.533
-66.5
-65.508
-64.561
-63.66
-62.811
-62.014
-61.273
-60.59
-59.967
-59.404
-58.905
-58.468
-58.096
-57.789
-57.548
-57.371
-57.26
-57.213
-57.231
-57.312
-57.455
-57.66
-57.925
-58.249
-58.63
-59.066
-59.555
-60.094
-60.682
-61.315
-61.991
-62.707
-63.459
-64.244
-65.06
-65.902
-66.766
-67.648
-68.544
-69.449
-70.356
-71.262
-72.161
-73.045
-73.91
-74.748
-75.555
-76.324
-77.049
-77.723
-78.34
-78.893
-79.378
-79.787
-80.115
-80.355
-80.502
-80.551
-80.497
-80.336
-80.063
-79.676
-79.171
-78.546
-77.799
-76.93
-75.937
-74.822
-73.586
-72.231
-70.763
-69.186
-67.507
-65.732
-63.872
-61.937
-59.938
-57.888
-55.799
-53.687
-51.567
-49.453
-47.362
-45.308
-43.307
-41.375
-39.53
-37.786
-36.16
-34.668
-33.327
-32.155
-31.166
-30.374
-29.788
-29.413
-29.258
-29.33
-29.638
-30.189
-30.989
-32.039
-33.345
-34.904
-36.712
-38.749
-40.982
-43.369
-45.875
-48.458
-51.088
-53.732
-56.351
-58.905
-61.353
-63.647
-65.746
-67.612
-69.196
-70.466
-71.407
-72.034
-72.421
-72.656
-72.826
-73.012
-73.264
-73.642
-74.242
-75.159
-76.488
-78.347
-80.79
-83.919
-87.951
-92.915
-98.649
-104.811
-110.683
-115.555
-118.98
-120.316
-118.789
-114.255
-106.947
-97.699
-88.382
-80.478
-74.816
-72.592
-74.797
-81.118
-90.463
-100.261
-106.077
-104.303
-91.867
-65.017
-20.526
43.643
126.526
223.117
326.981
431.551
535.004
640.257
743.98
840.095
915.553
946.72
922.077
838.458
699.51
526.85
340.487
158.72
5
-107.165
-172.711
-193.807
-186.512
-169.016
-151.549
-138.822
-128.134
-114.319
-98.23
-82.859
-71.31
-66.838
-69.131
-75.892
-85.169
-94.371
-101.283
-105.138
-105.749
-103.449
-99.17
-93.788
-88.002
-82.661
-78.55
-76.021
-75.165
-75.849
-77.73
-80.526
-84.027
-87.983
-92.158
-96.379
-100.478
-104.326
-107.826
-110.857
-113.321
-115.168
-116.364
-116.911
-116.839
-116.182
-114.995
-113.345
-111.296
-108.903
-106.224
-103.308
-100.217
-97.016
-93.769
-90.537
-87.364
-84.276
-81.291
-78.414
-75.642
-72.964
-70.361
-67.807
-65.281
-62.765
-60.24
-57.691
-55.097
-52.436
-49.685
-46.825
-43.837
-40.713
-37.438
-34
-30.388
-26.589
-22.595
-18.408
-14.027
-9.453
-4.69
0.252
5.352
10.578
15.908
21.327
26.823
32.395
38.038
43.741
49.497
55.299
61.142
67.022
72.93
78.846
84.766
90.694
96.648
102.671
108.777
114.959
121.196
127.451
133.677
139.831
145.846
151.64
157.141
162.28
167.007
171.287
175.071
178.293
180.877
182.724
183.766
183.971
183.316
181.799
179.439
176.265
172.342
167.768
162.626
156.984
150.901
144.414
137.577
130.462
123.147
115.722
108.262
100.82
93.447
86.191
79.075
72.117
65.304
58.595
51.968
45.417
38.943
32.563
26.288
20.117
14.053
8.1
2.26
-3.455
-9.042
-14.498
-19.812
-24.964
-29.929
-34.664
-39.141
-43.343
-47.256
-50.875
-54.197
-57.218
-59.94
-62.372
-64.522
-66.396
-68
-69.339
-70.421
-71.258
-71.866
-72.262
-72.464
-72.485
-72.343
-72.051
-71.623
-71.072
-70.411
-69.648
-68.793
-67.857
-66.853
-65.792
-64.686
-63.545
-62.381
-61.205
-60.025
-58.853
-57.695
-56.559
-55.452
-54.381
-53.353
-52.372
-51.444
-50.574
-49.766
-49.024
-48.349
-47.744
-47.209
-46.745
-46.351
-46.027
-45.772
-45.582
-45.458
-45.397
-45.397
-45.456
-45.573
-45.744
-45.967
-46.241
-46.562
-46.927
-47.334
-47.779
-48.258
-48.77
-49.31
-49.876
-50.463
-51.068
-51.688
-52.319
-52.957
-53.597
-54.237
-54.871
-55.497
-56.111
-56.71
-57.292
-57.854
-58.393
-58.909
-59.399
-59.861
-60.292
-60.689
-61.051
-61.374
-61.655
-61.889
-62.072
-62.201
-62.273
-62.284
-62.23
-62.11
-61.921
-61.662
-61.333
-60.931
-60.454
-59.899
-59.262
-58.541
-57.734
-56.837
-55.848
-54.763
-53.585
-52.318
-50.963
-49.522
-47.993
-46.374
-44.665
-42.876
-41.014
-39.088
-37.114
-35.109
-33.102
-31.131
-29.225
-27.403
-25.678
-24.051
-22.53
-21.121
-19.828
-18.654
-17.598
-16.66
-15.84
-15.147
-14.574
-14.098
-13.68
-13.26
-12.802
-12.298
-11.752
-11.18
-10.606
-10.056
-9.571
-9.207
-8.996
-8.948
-9.06
-9.311
-9.702
-10.257
-11.014
-12.026
-13.319
-14.88
-16.685
-18.697
-20.861
-23.105
-25.345
-27.483
-29.475
-31.359
-33.191
-35.048
-36.981
-38.986
-41.071
-43.276
-45.656
-48.29
-51.282
-54.669
-58.568
-63.237
-68.734
-74.94
-81.504
-87.653
-92.668
-96.135
-97.448
-95.874
-91.339
-84.139
-75.236
-66.655
-59.886
-55.64
-54.905
-58.419
-65.676
-75.428
-84.866
-89.344
-85.237
-69.627
-39.104
9.143
76.977
163.338
262.787
368.506
474.129
578.258
684.576
790.831
889.72
966.426
998.301
974.02
893.596
764.527
604.036
428.478
250.838
89.061
-38.06
-120.583
-154.414
-150.148
-128.325
-100.678
-78.22
-63.203
-51.751
-47.756
-48.588
-52.458
-60.134
-66.762
-73.405
-81.664
-89.802
-97.911
-104.001
-106.184
-105.044
-101.246
-95.733
-89.57
-83.41
-77.862
-73.374
-70.086
-67.878
-66.476
-65.689
-65.373
-65.392
-65.629
-65.95
-66.291
-66.65
-67.042
-67.474
-67.909
-68.287
-68.584
-68.805
-68.98
-69.146
-69.322
-69.519
-69.76
-70.05
-70.383
-70.739
-71.058
-71.285
-71.377
-71.281
-70.974
-70.444
-69.665
-68.617
-67.283
-65.64
-63.682
-61.41
-58.816
-55.908
-52.704
-49.237
-45.566
-41.742
-37.801
-33.782
-29.705
-25.586
-21.439
-17.269
-13.068
-8.833
-4.555
-0.225
4.161
8.609
13.134
17.752
22.487
27.357
32.369
37.529
42.835
48.282
53.862
59.559
65.348
71.207
77.112
83.04
88.969
94.874
100.728
106.504
112.172
117.706
123.078
128.265
133.238
137.975
142.451
146.645
150.537
154.108
157.339
160.21
162.706
164.81
166.509
167.792
168.648
169.069
169.049
168.586
167.679
166.329
164.541
162.32
159.675
156.617
153.158
149.313
145.099
140.534
135.637
130.43
124.934
119.175
113.175
106.96
100.557
93.991
87.29
80.481
73.591
66.648
59.678
52.707
45.763
38.869
32.051
25.332
18.733
12.277
5.982
-0.131
-6.048
-11.751
-17.228
-22.465
-27.453
-32.183
-36.647
-40.84
-44.758
-48.398
-51.76
-54.845
-57.655
-60.193
-62.464
-64.474
-66.231
-67.742
-69.018
-70.067
-70.902
-71.533
-71.972
-72.232
-72.326
-72.266
-72.065
-71.735
-71.29
-70.741
-70.103
-69.386
-68.603
-67.765
-66.884
-65.971
-65.035
-64.086
-63.133
-62.184
-61.247
-60.328
-59.434
-58.571
-57.742
-56.953
-56.205
-55.503
-54.848
-54.241
-53.682
-53.172
-52.71
-52.296
-51.927
-51.604
-51.324
-51.087
-50.891
-50.734
-50.616
-50.535
-50.49
-50.479
-50.499
-50.55
-50.629
-50.734
-50.865
-51.018
-51.193
-51.389
-51.604
-51.837
-52.087
-52.355
-52.638
-52.938
-53.253
-53.584
-53.932
-54.296
-54.679
-55.081
-55.503
-55.947
-56.413
-56.902
-57.412
-57.944
-58.495
-59.063
-59.644
-60.235
-60.832
-61.432
-62.033
-62.631
-63.223
-63.807
-64.381
-64.941
-65.484
-66.004
-66.495
-66.951
-67.365
-67.729
-68.037
-68.28
-68.45
-68.541
-68.549
-68.465
-68.282
-67.986
-67.569
-67.028
-66.363
-65.577
-64.676
-63.668
-62.568
-61.4
-60.19
-58.96
-57.73
-56.508
-55.3
-54.117
-52.969
-51.868
-50.817
-49.801
-48.801
-47.803
-46.79
-45.744
-44.642
-43.433
-42.081
-40.559
-38.851
-36.966
-34.922
-32.731
-30.413
-28.004
-25.561
-23.168
-20.921
-18.896
-17.164
-15.795
-14.855
-14.431
-14.578
-15.324
-16.681
-18.631
-21.15
-24.21
-27.768
-31.742
-36.029
-40.488
-44.968
-49.343
-53.5
-57.336
-60.776
-63.771
-66.318
-68.458
-70.237
-71.688
-72.864
-73.844
-74.732
-75.685
-76.865
-78.421
-80.561
-83.536
-87.486
-92.365
-97.878
-103.429
-108.364
-112.164
-114.259
-113.944
-110.79
-104.91
-97.079
-88.806
-81.707
-76.808
-74.915
-77.071
-83.727
-94.016
-105.741
-115.122
-117.797
-110.458
-89.951
-52.329
5.503
84.968
183.57
294.31
410.151
524.434
635.546
746.048
850.893
943.035
1008.831
1024.805
982.023
878.384
717.795
525.995
324.78
136.041
-11.341
-108.706
-155.665
-160.714
-148.937
-135.499
-126.752
-123.627
-117.28
-104.987
-90.372
-77.022
-70.003
-70.653
-76.574
-85.629
-95.479
-103.993
-109.776
-111.991
-110.52
-105.912
-99.127
-91.094
-82.611
-74.525
-67.619
-62.326
-58.78
-56.877
-56.326
-56.882
-58.385
-60.649
-63.506
-66.819
-70.441
-74.246
-78.134
-81.965
-85.584
-88.862
-91.664
-93.908
-95.563
-96.624
-97.113
-97.061
-96.489
-95.41
-93.829
-91.766
-89.259
-86.359
-83.115
-79.595
-75.868
-72.009
-68.11
-64.228
-60.394
-56.621
-52.9
-49.226
-45.597
-42.014
-38.474
-34.977
-31.514
-28.077
-24.662
-21.252
-17.824
-14.349
-10.783
-7.096
-3.269
0.713
4.854
9.16
13.635
18.279
23.087
28.056
33.183
38.466
43.904
49.492
55.22
61.074
67.036
73.088
79.211
85.387
91.596
97.816
104.026
110.206
116.336
122.393
128.355
134.197
139.892
145.415
150.739
155.839
160.689
165.262
169.535
173.487
177.095
180.342
183.208
185.677
187.735
189.368
190.566
191.32
191.622
191.467
190.852
189.777
188.245
186.26
183.828
180.959
177.663
173.953
169.844
165.353
160.496
155.294
149.769
143.942
137.838
131.483
124.903
118.126
111.179
104.091
96.892
89.609
82.271
74.906
67.541
60.205
52.923
45.721
38.624
31.656
24.839
18.196
11.746
5.506
-0.505
-6.273
-11.785
-17.029
-21.994
-26.673
-31.058
-35.143
-38.925
-42.402
-45.574
-48.441
-51.006
-53.274
-55.251
-56.944
-58.361
-59.511
-60.405
-61.055
-61.473
-61.67
-61.662
-61.461
-61.081
-60.538
-59.846
-59.019
-58.072
-57.019
-55.875
-54.652
-53.364
-52.022
-50.64
-49.228
-47.796
-46.356
-44.917
-43.488
-42.077
-40.692
-39.339
-38.026
-36.756
-35.536
-34.368
-33.256
-32.203
-31.209
-30.277
-29.408
-28.601
-27.856
-27.173
-26.55
-25.987
-25.481
-25.032
-24.636
-24.293
-24
-23.757
-23.561
-23.412
-23.308
-23.249
-23.233
-23.26
-23.33
-23.441
-23.593
-23.786
-24.019
-24.291
-24.602
-24.952
-25.34
-25.765
-26.226
-26.724
-27.256
-27.823
-28.422
-29.054
-29.716
-30.407
-31.126
-31.87
-32.637
-33.424
-34.228
-35.046
-35.873
-36.704
-37.534
-38.358
-39.17
-39.962
-40.729
-41.463
-42.157
-42.803
-43.393
-43.921
-44.379
-44.758
-45.054
-45.259
-45.367
-45.373
-45.272
-45.059
-44.73
-44.284
-43.716
-43.026
-42.213
-41.278
-40.222
-39.047
-37.758
-36.359
-34.858
-33.264
-31.585
-29.834
-28.024
-26.169
-24.285
-22.387
-20.491
-18.613
-16.771
-14.982
-13.263
-11.631
-10.104
-8.699
-7.437
-6.336
-5.412
-4.68
-4.151
-3.832
-3.734
-3.865
-4.237
-4.861
-5.744
-6.89
-8.308
-10
-11.96
-14.173
-16.598
-19.193
-21.915
-24.721
-27.574
-30.435
-33.255
-35.988
-38.579
-40.974
-43.133
-45.011
-46.56
-47.752
-48.568
-49.042
-49.278
-49.385
-49.476
-49.658
-49.982
-50.539
-51.461
-52.864
-54.88
-57.631
-61.152
-65.555
-71.066
-77.686
-85.237
-93.292
-100.983
-107.518
-112.376
-114.834
-114.12
-110.05
-102.802
-93.309
-83.563
-75.194
-69.257
-66.984
-69.185
-75.39
-84.26
-92.941
-96.877
-91.722
-73.544
-38.267
17.714
94.341
187.886
293.699
404.82
518.295
638.064
762.106
882.796
986.931
1048.331
1046.786
976.2
837.425
649.379
440.314
234.457
59.5
-64.997
-136.533
-160.544
-154.514
-139.819
-126.227
-117.203
-109.915
-98.259
-83.301
-68.767
-58.052
-54.927
-59.276
-68.556
-80.675
-92.79
-102.328
-108.345
-110.482
-108.912
-104.543
-98.262
-90.813
-83.2
-76.388
-70.841
-66.739
-64.001
-62.305
-61.424
-61.18
-61.357
-61.76
-62.254
-62.761
-63.243
-63.684
-64.05
-64.294
-64.371
-64.261
-63.979
-63.548
-63.009
-62.406
-61.77
-61.145
-60.556
-60.005
-59.481
-58.953
-58.391
-57.785
-57.117
-56.362
-55.509
-54.537
-53.424
-52.154
-50.705
-49.055
-47.187
-45.087
-42.749
-40.185
-37.421
-34.492
-31.433
-28.264
-25.005
-21.67
-18.269
-14.803
-11.268
-7.655
-3.958
-0.175
3.695
7.65
11.688
15.806
20.008
24.306
28.706
33.214
37.834
42.568
47.411
52.355
57.393
62.522
67.745
73.073
78.519
84.095
89.82
95.723
101.82
108.117
114.611
121.284
128.111
135.058
142.086
149.152
156.198
163.146
169.908
176.38
182.461
188.057
193.063
197.369
200.88
203.515
205.217
205.951
205.695
204.444
202.206
199.002
194.876
189.897
184.151
177.746
170.786
163.364
155.584
147.554
139.372
131.126
122.886
114.704
106.626
98.691
90.931
83.369
76.013
68.857
61.885
55.063
48.37
41.792
35.313
28.92
22.605
16.363
10.201
4.138
-1.812
-7.633
-13.311
-18.832
-24.175
-29.317
-34.233
-38.895
-43.283
-47.384
-51.187
-54.688
-57.885
-60.781
-63.383
-65.709
-67.771
-69.582
-71.157
-72.506
-73.645
-74.59
-75.358
-75.966
-76.428
-76.761
-76.978
-77.091
-77.114
-77.057
-76.931
-76.742
-76.5
-76.214
-75.892
-75.542
-75.173
-74.79
-74.401
-74.012
-73.627
-73.249
-72.881
-72.524
-72.178
-71.845
-71.524
-71.214
-70.913
-70.622
-70.338
-70.06
-69.787
-69.517
-69.25
-68.984
-68.719
-68.454
-68.19
-67.927
-67.665
-67.406
-67.153
-66.905
-66.666
-66.437
-66.222
-66.022
-65.839
-65.678
-65.541
-65.432
-65.354
-65.312
-65.309
-65.35
-65.44
-65.583
-65.783
-66.044
-66.37
-66.764
-67.229
-67.767
-68.38
-69.069
-69.835
-70.678
-71.597
-72.59
-73.655
-74.789
-75.988
-77.247
-78.56
-79.922
-81.327
-82.767
-84.236
-85.726
-87.229
-88.737
-90.241
-91.733
-93.203
-94.641
-96.039
-97.385
-98.671
-99.887
-101.025
-102.076
-103.032
-103.886
-104.63
-105.26
-105.77
-106.155
-106.413
-106.541
-106.539
-106.407
-106.148
-105.765
-105.263
-104.65
-103.933
-103.123
-102.23
-101.266
-100.244
-99.178
-98.083
-96.971
-95.859
-94.761
-93.695
-92.677
-91.724
-90.852
-90.08
-89.426
-88.908
-88.543
-88.346
-88.328
-88.497
-88.864
-89.438
-90.234
-91.262
-92.53
-94.041
-95.802
-97.812
-100.067
-102.551
-105.228
-108.059
-111.006
-114.032
-117.108
-120.201
-123.273
-126.283
-129.186
-131.935
-134.492
-136.823
-138.884
-140.649
-142.107
-143.284
-144.267
-145.153
-146.039
-147.008
-148.114
-149.422
-151.034
-153.051
-155.571
-158.708
-162.51
-167.063
-172.563
-179.026
-186.291
-194.017
-201.499
-208.034
-213.148
-216.201
-216.429
-213.636
-207.994
-200.193
-191.908
-184.527
-178.863
-176.158
-177.472
-182.572
-190.431
-198.714
-203.307
-200.778
-188.173
-161.472
-117.133
-53.122
29.348
124.861
226.827
328.651
429.268
532.002
632.729
725.482
796.541
820.651
787.004
691.524
536.841
349.911
154.976
-24.193
-158.246
-240.428
-274.006
-270.015
-253.473
-238.004
-228.142
-223.664
-216.408
-204.699
-191.919
-181.167
-176.957
-180.042
-187.837
-198.237
-208.594
-216.504
-221.18
-222.292
-219.906
-214.837
-207.964
-200.037
-192.016
-184.831
-178.922
-174.478
-171.472
-169.634
-168.781
-168.778
-169.43
-170.523
-171.878
-173.351
-174.836
-176.26
-177.524
-178.518
-179.154
-179.398
-179.281
-178.841
-178.127
-177.168
-175.97
-174.542
-172.881
-170.989
-168.884
-166.589
-164.131
-161.551
-158.891
-156.182
-153.452
-150.695
-147.872
-144.944
-141.872
-138.632
-135.222
-131.652
-127.942
-124.117
-120.195
-116.187
-112.097
-107.92
-103.646
-99.265
-94.763
-90.139
-85.405
-80.571
-75.647
-70.637
-65.534
-60.326
-54.994
-49.521
-43.889
-38.087
-32.112
-25.964
-19.65
-13.182
-6.576
0.151
6.986
13.912
20.914
27.974
35.067
42.171
49.257
56.297
63.26
70.118
76.841
83.401
89.771
95.925
101.838
107.487
112.848
117.895
122.606
126.957
130.928
134.496
137.645
140.356
142.615
144.409
145.73
146.568
146.92
146.782
146.155
145.041
143.445
141.375
138.843
135.861
132.443
128.608
124.376
119.767
114.805
109.515
103.923
98.057
91.945
85.617
79.103
72.434
65.642
58.757
51.811
44.837
37.865
30.926
24.052
17.27
10.61
4.099
-2.237
-8.373
-14.287
-19.958
-25.367
-30.495
-35.327
-39.85
-44.053
-47.926
-51.461
-54.653
-57.499
-59.997
-62.148
-63.952
-65.413
-66.538
-67.331
-67.8
-67.956
-67.808
-67.367
-66.645
-65.657
-64.414
-62.933
-61.226
-59.311
-57.201
-54.912
-52.46
-49.86
-47.127
-44.274
-41.318
-38.271
-35.145
-31.955
-28.711
-25.424
-22.104
-18.762
-15.404
-12.04
-8.677
-5.321
-1.977
1.348
4.651
7.927
11.173
14.385
17.561
20.698
23.795
26.85
29.862
32.829
35.751
38.627
41.456
44.237
46.97
49.653
52.284
54.863
57.387
59.855
62.265
64.614
66.901
69.122
71.274
73.356
75.363
77.292
79.139
80.901
82.575
84.155
85.639
87.023
88.305
89.48
90.548
91.504
92.347
93.074
93.685
94.177
94.55
94.803
94.937
94.953
94.854
94.644
94.326
93.905
93.388
92.779
92.086
91.315
90.471
89.562
88.594
87.575
86.515
85.424
84.312
83.192
82.077
80.98
79.914
78.893
77.931
77.04
76.232
75.519
74.917
74.442
74.108
73.923
73.893
74.023
74.309
74.75
75.335
76.047
76.869
77.785
78.782
79.851
80.984
82.172
83.408
84.68
85.985
87.333
88.741
90.228
91.819
93.535
95.409
97.484
99.796
102.366
105.209
108.32
111.692
115.308
119.145
123.175
127.346
131.585
135.803
139.9
143.781
147.35
150.51
153.155
155.204
156.609
157.343
157.404
156.8
155.547
153.677
151.239
148.315
145.005
141.437
137.749
134.068
130.519
127.217
124.268
121.727
119.575
117.765
116.227
114.894
113.728
112.657
111.567
110.319
108.763
106.72
104.072
100.667
96.249
90.76
84.323
77.267
70.309
64.152
59.25
56.216
55.773
58.05
62.826
69.356
75.888
81.037
84.061
83.837
79.502
71.519
61.077
50.638
44.43
45.931
58.043
84.625
128.912
192.573
274.345
369.034
470.055
570.733
669.354
768.142
862.966
948.513
1012.486
1032.048
997.468
904.602
755.078
573.123
380.77
200.799
62.711
-24.686
-62.279
-59.708
-41.761
-23.099
-9.753
-2.457
6.812
19.947
33.875
45.606
50.328
47.041
38.252
26.077
13.335
2.625
-5.151
-9.572
-10.636
-9.118
-5.87
-1.642
2.614
5.943
7.883
8.253
7.084
4.678
1.273
-2.947
-7.735
-12.835
-18.061
-23.267
-28.333
-33.189
-37.725
-41.809
-45.35
-48.293
-50.614
-52.326
-53.453
-54.025
-54.084
-53.69
-52.897
-51.757
-50.323
-48.641
-46.767
-44.759
-42.676
-40.575
-38.497
-36.469
-34.504
-32.603
-30.76
-28.961
-27.189
-25.422
-23.641
-21.83
-19.974
-18.061
-16.076
-14.003
-11.823
-9.523
-7.088
-4.506
-1.769
1.131
4.198
7.435
10.843
14.419
18.162
22.072
26.146
30.382
34.774
39.317
44.003
48.824
53.767
58.821
63.969
69.196
74.484
79.813
85.164
90.514
95.841
101.122
106.333
111.449
116.444
121.293
125.97
130.451
134.711
138.724
142.467
145.919
149.057
151.862
154.316
156.402
158.104
159.409
160.306
160.786
160.84
160.464
159.655
158.411
156.733
154.626
152.094
149.146
145.792
142.042
137.91
133.413
128.566
123.389
117.902
112.127
106.085
99.802
93.302
86.61
79.753
72.757
65.648
58.454
51.202
43.916
36.624
29.351
22.12
14.958
7.885
0.924
-5.904
-12.581
-19.088
-25.408
-31.526
-37.428
-43.102
-48.537
-53.724
-58.653
-63.32
-67.72
-71.848
-75.703
-79.285
-82.594
-85.634
-88.407
-90.918
-93.175
-95.184
-96.953
-98.492
-99.81
-100.919
-101.831
-102.556
-103.107
-103.497
-103.739
-103.845
-103.829
-103.703
-103.48
-103.173
-102.793
-102.352
-101.862
-101.333
-100.777
-100.204
-99.623
-99.043
-98.473
-97.92
-97.391
-96.894
-96.433
-96.014
-95.641
-95.318
-95.047
-94.831
-94.671
-94.567
-94.519
-94.528
-94.59
-94.706
-94.872
-95.087
-95.346
-95.648
-95.989
-96.364
-96.772
-97.206
-97.665
-98.143
-98.638
-99.144
-99.658
-100.177
-100.697
-101.214
-101.724
-102.226
-102.714
-103.188
-103.643
-104.078
-104.49
-104.879
-105.243
-105.581
-105.893
-106.179
-106.439
-106.673
-106.883
-107.068
-107.232
-107.373
-107.495
-107.598
-107.685
-107.757
-107.815
-107.862
-107.899
-107.926
-107.946
-107.959
-107.966
-107.967
-107.963
-107.954
-107.94
-107.92
-107.894
-107.861
-107.82
-107.77
-107.708
-107.633
-107.541
-107.431
-107.298
-107.138
-106.95
-106.729
-106.471
-106.173
-105.832
-105.444
-105.005
-104.514
-103.967
-103.362
-102.696
-101.971
-101.183
-100.335
-99.427
-98.46
-97.439
-96.369
-95.255
-94.104
-92.924
-91.725
-90.515
-89.305
-88.104
-86.921
-85.766
-84.648
-83.578
-82.568
-81.63
-80.777
-80.024
-79.381
-78.861
-78.474
-78.225
-78.119
-78.16
-78.352
-78.709
-79.243
-79.963
-80.882
-82.007
-83.341
-84.881
-86.608
-88.488
-90.487
-92.565
-94.681
-96.808
-98.912
-100.956
-102.907
-104.704
-106.291
-107.62
-108.634
-109.29
-109.561
-109.439
-108.97
-108.25
-107.379
-106.457
-105.566
-104.773
-104.199
-103.969
-104.207
-105.079
-106.682
-109.156
-112.767
-117.57
-123.424
-130.006
-136.612
-142.54
-147.369
-150.461
-151.013
-148.889
-144.299
-138.079
-132.086
-127.644
-125.352
-126.145
-130.794
-138.881
-149.245
-159.163
-164.118
-160.64
-145.908
-116.575
-69.763
-3.411
81.606
180.139
285.732
392.16
497.854
605.97
713.62
813.444
891.388
925.964
906.568
832.908
711.221
556.933
385.339
209.85
48.946
-76.804
-155.988
-186.834
-181.147
-162.478
-146.038
-137.745
-136.157
-132.911
-125.956
-118.146
-112.426
-112.671
-119.151
-129.27
-140.949
-151.739
-159.503
-163.559
-163.712
-160.221
-154.009
-145.991
-136.933
-127.751
-119.302
-112.028
-106.133
-101.609
-98.235
-95.868
-94.427
-93.787
-93.823
-94.455
-95.602
-97.202
-99.202
-101.503
-103.986
-106.534
-109.043
-111.455
-113.729
-115.832
-117.729
-119.377
-120.715
-121.702
-122.3
-122.466
-122.183
-121.448
-120.264
-118.662
-116.679
-114.356
-111.731
-108.833
-105.675
-102.28
-98.673
-94.89
-90.987
-87.004
-82.973
-78.932
-74.902
-70.9
-66.938
-63.01
-59.098
-55.187
-51.26
-47.303
-43.307
-39.259
-35.138
-30.926
-26.597
-22.132
-17.518
-12.737
-7.771
-2.614
2.73
8.25
13.919
19.715
25.619
31.604
37.64
43.702
49.768
55.825
61.876
67.908
73.905
79.841
85.675
91.383
96.952
102.375
107.647
112.765
117.721
122.52
127.187
131.72
136.101
140.284
144.19
147.765
150.973
153.788
156.2
158.189
159.718
160.76
161.298
161.304
160.757
159.615
157.811
155.317
152.142
148.325
143.951
139.084
133.767
128.043
121.949
115.53
108.838
101.915
94.786
87.493
80.082
72.621
65.201
57.882
50.698
43.657
36.739
29.937
23.262
16.717
10.306
4.035
-2.092
-8.057
-13.829
-19.388
-24.727
-29.847
-34.766
-39.489
-44.008
-48.308
-52.367
-56.168
-59.702
-62.959
-65.927
-68.6
-70.976
-73.064
-74.879
-76.436
-77.744
-78.809
-79.636
-80.233
-80.614
-80.789
-80.773
-80.579
-80.219
-79.71
-79.067
-78.306
-77.438
-76.475
-75.425
-74.298
-73.103
-71.851
-70.549
-69.208
-67.835
-66.438
-65.027
-63.608
-62.189
-60.774
-59.369
-57.977
-56.603
-55.25
-53.919
-52.614
-51.336
-50.088
-48.87
-47.684
-46.532
-45.415
-44.333
-43.289
-42.283
-41.316
-40.39
-39.505
-38.662
-37.863
-37.108
-36.4
-35.739
-35.126
-34.564
-34.053
-33.594
-33.189
-32.839
-32.545
-32.307
-32.127
-32.006
-31.945
-31.945
-32.006
-32.131
-32.318
-32.568
-32.881
-33.256
-33.692
-34.188
-34.741
-35.349
-36.01
-36.718
-37.472
-38.266
-39.095
-39.956
-40.842
-41.749
-42.669
-43.598
-44.528
-45.454
-46.369
-47.265
-48.137
-48.977
-49.777
-50.532
-51.235
-51.877
-52.453
-52.956
-53.38
-53.717
-53.963
-54.112
-54.159
-54.099
-53.929
-53.645
-53.247
-52.732
-52.101
-51.353
-50.49
-49.515
-48.431
-47.242
-45.952
-44.568
-43.096
-41.543
-39.918
-38.23
-36.489
-34.709
-32.901
-31.08
-29.261
-27.458
-25.688
-23.966
-22.308
-20.726
-19.237
-17.854
-16.592
-15.464
-14.485
-13.67
-13.034
-12.587
-12.34
-12.303
-12.478
-12.868
-13.474
-14.297
-15.343
-16.617
-18.123
-19.865
-21.843
-24.054
-26.486
-29.116
-31.904
-34.813
-37.797
-40.813
-43.824
-46.785
-49.651
-52.377
-54.904
-57.175
-59.14
-60.743
-61.939
-62.698
-63.013
-62.928
-62.526
-61.899
-61.141
-60.328
-59.538
-58.9
-58.554
-58.64
-59.307
-60.64
-62.763
-65.898
-70.124
-75.333
-81.222
-87.15
-92.466
-96.743
-99.44
-99.855
-97.663
-92.905
-86.193
-79.03
-72.77
-68.183
-66.07
-67.195
-71.625
-78.597
-86.022
-90.232
-87.641
-75.145
-49.557
-7.844
52.649
131.452
224.136
325.187
428.346
532.179
640.557
750.891
855.505
939.221
978.302
960.239
883.554
755.244
594.991
420.822
249.464
100.31
-14.185
-87.673
-122.793
-134.229
-135.737
-135.208
-134.706
-129.042
-115.936
-98.786
-81.931
-70.484
-66.802
-69.603
-76.899
-86.68
-96.662
-104.74
-109.744
-111.142
-109.05
-104.274
-97.628
-89.794
-81.734
-74.457
-68.514
-64.182
-61.456
-60.045
-59.752
-60.439
-61.871
-63.808
-66.071
-68.519
-71.095
-73.799
-76.56
-79.275
-81.843
-84.166
-86.188
-87.87
-89.159
-90.026
-90.465
-90.488
-90.141
-89.467
-88.494
-87.244
-85.73
-83.948
-81.919
-79.67
-77.228
-74.626
-71.892
-69.055
-66.168
-63.265
-60.364
-57.47
-54.569
-51.645
-48.693
-45.709
-42.683
-39.618
-36.511
-33.352
-30.141
-26.868
-23.514
-20.061
-16.475
-12.726
-8.798
-4.679
-0.364
4.145
8.852
13.751
18.835
24.094
29.521
35.106
40.843
46.719
52.715
58.81
64.979
71.195
77.433
83.665
89.864
96.004
102.059
108.004
113.814
119.465
124.928
130.176
135.181
139.916
144.357
148.476
152.248
155.65
158.665
161.273
163.457
165.199
166.481
167.289
167.62
167.475
166.858
165.776
164.24
162.268
159.89
157.132
154.017
150.564
146.79
142.717
138.381
133.821
129.078
124.18
119.143
113.982
108.709
103.328
97.834
92.208
86.413
