Name
Date of Birth,"Mar 27, 1959"
Recorded Date,2021-03-29 14:28:48 -0500
Classification,Sinus Rhythm
Symptoms,
Software Version,1.90
Device,"Watch4,2"
Sample Rate,510.227 hertz


Lead,Lead I
Unit,µV

38.902
89.135
181.128
306.27
446.382
572.929
653.087
667.317
611.937
495.367
335.558
156.518
-21.388
-180.976
-304.013
-380.247
-405.859
-379.744
-312.857
-224.669
-135.512
-70.465
-46.06
-60.857
-103.485
-151.592
-184.752
-196.704
-190.496
-176.965
-165.637
-158.915
-155.257
-150.816
-143.92
-135.601
-127.341
-120.658
-115.874
-112.494
-110.257
-108.945
-108.349
-108.344
-108.748
-109.405
-110.273
-111.315
-112.434
-113.492
-114.356
-114.932
-115.149
-114.963
-114.356
-113.318
-111.865
-110.041
-107.879
-105.407
-102.651
-99.623
-96.351
-92.874
-89.24
-85.503
-81.708
-77.879
-74.037
-70.192
-66.344
-62.488
-58.608
-54.676
-50.674
-46.59
-42.417
-38.152
-33.789
-29.319
-24.734
-20.028
-15.198
-10.245
-5.171
0.021
5.321
10.718
16.196
21.735
27.316
32.922
38.535
44.136
49.705
55.22
60.661
66.006
71.232
76.317
81.238
85.971
90.494
94.786
98.828
102.6
106.085
109.266
112.127
114.656
116.841
118.669
120.132
121.223
121.935
122.266
122.215
121.783
120.973
119.792
118.248
116.353
114.12
111.566
108.706
105.559
102.143
98.477
94.584
90.483
86.197
81.749
77.164
72.471
67.698
62.876
58.032
53.194
48.386
43.632
38.955
34.375
29.907
25.568
21.377
17.354
13.526
9.918
6.536
3.382
0.45
-2.28
-4.823
-7.196
-9.43
-11.546
-13.553
-15.451
-17.216
-18.821
-20.26
-21.536
-22.675
-23.702
-24.614
-25.404
-26.062
-26.553
-26.85
-26.919
-26.691
-26.124
-25.222
-24.012
-22.579
-21.03
-19.432
-17.835
-16.273
-14.761
-13.348
-12.08
-10.993
-10.144
-9.593
-9.412
-9.721
-10.608
-12.091
-14.151
-16.699
-19.605
-22.781
-26.157
-29.661
-33.25
-36.863
-40.44
-43.951
-47.354
-50.592
-53.591
-56.234
-58.426
-60.125
-61.325
-62.067
-62.428
-62.457
-62.193
-61.687
-60.966
-60.056
-58.982
-57.74
-56.324
-54.748
-53.039
-51.247
-49.422
-47.586
-45.75
-43.907
-42.034
-40.121
-38.163
-36.146
-34.066
-31.929
-29.743
-27.534
-25.333
-23.16
-21.031
-18.957
-16.944
-15.002
-13.146
-11.389
-9.744
-8.225
-6.844
-5.614
-4.546
-3.647
-2.919
-2.362
-1.97
-1.739
-1.664
-1.739
-1.957
-2.313
-2.797
-3.403
-4.123
-4.948
-5.866
-6.866
-7.933
-9.053
-10.215
-11.401
-12.598
-13.789
-14.96
-16.094
-17.179
-18.198
-19.139
-19.987
-20.73
-21.356
-21.856
-22.22
-22.439
-22.506
-22.418
-22.171
-21.765
-21.198
-20.474
-19.594
-18.564
-17.391
-16.082
-14.646
-13.093
-11.435
-9.688
-7.869
-5.995
-4.086
-2.16
-0.237
1.662
3.517
5.31
7.023
8.637
10.132
11.484
12.671
13.672
14.469
15.043
15.378
15.46
15.281
14.84
14.137
13.163
11.911
10.365
8.515
6.361
3.907
1.158
-1.868
-5.151
-8.658
-12.341
-16.162
-20.094
-24.118
-28.226
-32.394
-36.573
-40.71
-44.747
-48.639
-52.354
-55.852
-59.089
-62.066
-64.801
-67.347
-69.761
-72.04
-74.164
-76.121
-77.918
-79.621
-81.33
-83.102
-85.028
-87.252
-89.757
-92.451
-95.101
-97.148
-98.096
-97.588
-95.14
-90.47
-83.864
-75.891
-67.622
-60.718
-56.284
-55.054
-58.041
-65.455
-76.397
-89.325
-101.399
-108.797
-108.836
-99.374
-77.29
-40.65
10.587
75.738
150.336
226.637
300.801
370.06
432.218
489.825
539.001
571.178
578.539
550.769
485.474
388.34
270.947
150.669
43.441
-36.035
-80.404
-90.295
-70.159
-31.14
15.5
58.947
86.367
90.263
69.03
28.667
-15.645
-50.557
-69.382
-72.814
-69.443
-66.348
-65.692
-66.778
-66.508
-63.506
-58.83
-53.777
-49.339
-45.667
-42.349
-39.177
-36.223
-33.61
-31.417
-29.63
-28.24
-27.288
-26.802
-26.81
-27.306
-28.229
-29.531
-31.133
-32.932
-34.931
-37.152
-39.572
-42.149
-44.769
-47.27
-49.573
-51.653
-53.484
-55.06
-56.355
-57.327
-57.986
-58.349
-58.423
-58.204
-57.624
-56.61
-55.143
-53.232
-50.931
-48.329
-45.469
-42.371
-39.069
-35.585
-31.939
-28.153
-24.216
-20.107
-15.829
-11.399
-6.859
-2.255
2.396
7.09
11.836
16.658
21.564
26.556
31.646
36.834
42.114
47.475
52.886
58.314
63.732
69.121
74.462
79.743
84.943
90.038
95.002
99.81
104.435
108.85
113.029
116.943
120.572
123.897
126.905
129.586
131.929
133.927
135.573
136.863
137.791
138.357
138.559
138.398
137.878
137.006
135.79
134.242
132.376
130.205
127.748
125.022
122.047
118.843
115.431
111.833
108.073
104.173
100.158
96.051
91.877
87.661
83.426
79.196
74.994
70.84
66.754
62.757
58.865
55.093
51.457
47.968
44.636
41.472
38.483
35.675
33.051
30.613
28.361
26.295
24.409
22.699
21.16
19.783
18.561
17.483
16.541
15.723
15.02
14.419
13.91
13.479
13.116
12.809
12.546
12.315
12.107
11.912
11.72
11.523
11.314
11.087
10.836
10.558
10.248
9.905
9.527
9.115
8.67
8.194
7.689
7.161
6.615
6.055
5.489
4.922
4.363
3.818
3.294
2.798
2.338
1.92
1.551
1.238
0.987
0.803
0.692
0.658
0.704
0.834
1.049
1.351
1.741
2.218
2.781
3.428
4.158
4.968
5.853
6.81
7.835
8.921
10.064
11.256
12.492
13.764
15.066
16.391
17.732
19.082
20.435
21.784
23.124
24.45
25.754
27.034
28.283
29.5
30.679
31.819
32.917
33.974
34.988
35.961
36.892
37.785
38.64
39.461
40.25
41.011
41.747
42.461
43.159
43.844
44.52
45.191
45.862
46.537
47.221
47.918
48.631
49.364
50.122
50.909
51.728
52.582
53.475
54.41
55.389
56.415
57.488
58.611
59.783
61.003
62.273
63.589
64.949
66.351
67.792
69.269
70.777
72.313
73.871
75.446
77.033
78.627
80.223
81.814
83.396
84.961
86.504
88.02
89.5
90.939
92.326
93.651
94.907
96.083
97.169
98.156
99.034
99.797
100.44
100.96
101.352
101.613
101.739
101.727
101.573
101.271
100.816
100.205
99.437
98.516
97.448
96.236
94.882
93.389
91.751
89.968
88.04
85.967
83.751
81.409
78.965
76.467
73.976
71.542
69.21
67.022
65.015
63.234
61.722
60.505
59.61
59.061
58.881
59.096
59.712
60.695
61.973
63.426
64.914
66.308
67.508
68.441
69.016
69.104
68.594
67.399
65.486
62.914
59.657
55.596
50.807
45.544
40.34
36.062
33.299
32.198
32.954
35.797
40.666
47.377
54.955
61.455
65.792
68.033
68.635
68.541
69.034
71.359
78.052
93.178
119.315
157.125
206.164
264.523
329.4
397.662
464.333
522.405
566.214
591.934
596.796
579.977
542.339
485.756
414.326
334.533
252.341
172.96
101.619
42.117
-3.459
-34.081
-50.636
-55.991
-52.954
-44.485
-34.302
-25.3
-19.279
-17.437
-19.764
-25.245
-33.01
-41.884
-50.157
-56.719
-60.986
-62.669
-62.134
-59.995
-56.713
-52.916
-49.354
-46.449
-44.442
-43.441
-43.301
-43.879
-45.068
-46.688
-48.554
-50.527
-52.484
-54.323
-55.956
-57.286
-58.237
-58.756
-58.815
-58.417
-57.565
-56.278
-54.597
-52.568
-50.247
-47.69
-44.938
-42.041
-39.06
-36.059
-33.114
-30.287
-27.621
-25.15
-22.901
-20.888
-19.121
-17.597
-16.3
-15.216
-14.332
-13.631
-13.104
-12.734
-12.499
-12.378
-12.349
-12.389
-12.477
-12.594
-12.721
-12.846
-12.953
-13.02
-13.031
-12.965
-12.808
-12.565
-12.233
-11.804
-11.277
-10.648
-9.922
-9.114
-8.222
-7.228
-6.116
-4.866
-3.476
-1.969
-0.363
1.32
3.074
4.917
6.852
8.859
10.939
13.097
15.348
17.728
20.221
22.752
25.261
27.682
29.977
32.146
34.171
36.028
37.688
39.104
40.249
41.126
41.704
41.932
41.755
41.097
39.951
38.394
36.485
34.276
31.808
29.081
26.125
22.988
19.706
16.312
12.831
9.265
5.653
2.064
-1.437
-4.767
-7.899
-10.871
-13.699
-16.392
-18.957
-21.376
-23.653
-25.81
-27.851
-29.759
-31.521
-33.117
-34.546
-35.835
-37.004
-38.08
-39.068
-39.948
-40.711
-41.359
-41.89
-42.311
-42.624
-42.821
-42.912
-42.919
-42.866
-42.776
-42.665
-42.541
-42.416
-42.302
-42.214
-42.168
-42.179
-42.258
-42.415
-42.664
-43.014
-43.478
-44.062
-44.766
-45.591
-46.536
-47.6
-48.783
-50.082
-51.491
-53.006
-54.621
-56.332
-58.131
-60.01
-61.959
-63.967
-66.024
-68.118
-70.236
-72.364
-74.491
-76.601
-78.682
-80.721
-82.706
-84.625
-86.465
-88.217
-89.871
-91.417
-92.847
-94.155
-95.333
-96.378
-97.284
-98.049
-98.672
-99.152
-99.488
-99.683
-99.739
-99.657
-99.441
-99.096
-98.624
-98.032
-97.325
-96.51
-95.595
-94.586
-93.493
-92.324
-91.088
-89.794
-88.451
-87.068
-85.654
-84.217
-82.764
-81.305
-79.846
-78.395
-76.958
-75.54
-74.146
-72.781
-71.448
-70.149
-68.885
-67.657
-66.465
-65.308
-64.185
-63.094
-62.032
-60.998
-59.986
-58.994
-58.017
-57.051
-56.089
-55.126
-54.155
-53.171
-52.168
-51.14
-50.08
-48.982
-47.84
-46.648
-45.401
-44.096
-42.726
-41.287
-39.777
-38.192
-36.533
-34.799
-32.991
-31.111
-29.163
-27.154
-25.09
-22.98
-20.832
-18.653
-16.455
-14.247
-12.039
-9.84
-7.66
-5.508
-3.399
-1.344
0.642
2.547
4.356
6.058
7.635
9.08
10.388
11.552
12.565
13.418
14.088
14.564
14.843
14.917
14.784
14.45
13.92
13.222
12.402
11.493
10.533
9.542
8.524
7.499
6.497
5.552
4.715
4.009
3.438
3.021
2.782
2.72
2.81
2.958
3.033
2.944
2.633
2.089
1.304
0.218
-1.235
-3.136
-5.55
-8.463
-11.91
-16.011
-20.754
-25.968
-31.275
-35.978
-39.466
-41.354
-41.148
-38.503
-33.486
-26.385
-18.194
-10.407
-4.08
-0.201
0.281
-2.717
-8.6
-16.05
-22.24
-24.177
-19.218
-3.806
25.097
69.059
127.012
194.34
265.489
336.896
410.345
489.108
570.445
645.407
696.285
703.741
661.576
572.388
447.135
306.446
166.504
44.06
-41.158
-82.457
-81.875
-51.171
-14.18
13.505
26.824
27.442
24.826
23.858
23.437
21.432
15.034
4.532
-7.348
-18.08
-26.015
-30.773
-32.471
-31.373
-28.02
-23.132
-17.693
-12.734
-8.754
-5.888
-4.18
-3.529
-3.891
-5.247
-7.406
-10.136
-13.283
-16.73
-20.418
-24.313
-28.297
-32.199
-35.872
-39.197
-42.117
-44.615
-46.666
-48.244
-49.336
-49.952
-50.129
-49.911
-49.328
-48.405
-47.172
-45.669
-43.954
-42.092
-40.133
-38.11
-36.039
-33.927
-31.775
-29.587
-27.352
-25.053
-22.672
-20.196
-17.616
-14.93
-12.13
-9.204
-6.142
-2.93
0.435
3.957
7.639
11.479
15.477
19.626
23.92
28.346
32.898
37.566
42.341
47.214
52.173
57.206
62.301
67.442
72.615
77.802
82.985
88.145
93.262
98.317
103.288
108.156
112.899
117.495
121.924
126.166
130.201
134.008
137.568
140.864
143.879
146.598
149.006
151.091
152.84
154.242
155.291
155.978
156.298
156.247
155.825
155.031
153.869
152.344
150.461
148.229
145.658
142.76
139.549
136.038
132.245
128.187
123.884
119.355
114.621
109.706
104.631
99.42
94.095
88.68
83.197
77.669
72.12
66.569
61.04
55.552
50.127
44.781
39.535
34.404
29.404
24.547
19.847
15.313
10.955
6.779
2.79
-1.006
-4.607
-8.012
-11.22
-14.232
-17.052
-19.683
-22.131
-24.401
-26.502
-28.441
-30.227
-31.871
-33.381
-34.768
-36.041
-37.211
-38.29
-39.286
-40.21
-41.074
-41.887
-42.658
-43.397
-44.113
-44.813
-45.503
-46.189
-46.875
-47.567
-48.266
-48.975
-49.697
-50.431
-51.179
-51.94
-52.713
-53.495
-54.286
-55.08
-55.874
-56.665
-57.447
-58.216
-58.967
-59.696
-60.399
-61.072
-61.71
-62.309
-62.866
-63.377
-63.838
-64.247
-64.6
-64.895
-65.133
-65.311
-65.429
-65.49
-65.494
-65.442
-65.338
-65.182
-64.979
-64.732
-64.444
-64.119
-63.763
-63.38
-62.977
-62.559
-62.133
-61.705
-61.281
-60.867
-60.469
-60.092
-59.743
-59.426
-59.146
-58.907
-58.715
-58.574
-58.487
-58.456
-58.486
-58.577
-58.732
-58.95
-59.232
-59.577
-59.984
-60.453
-60.983
-61.571
-62.215
-62.913
-63.662
-64.457
-65.295
-66.171
-67.077
-68.009
-68.96
-69.922
-70.891
-71.857
-72.814
-73.755
-74.672
-75.558
-76.405
-77.205
-77.95
-78.634
-79.247
-79.786
-80.242
-80.61
-80.884
-81.059
-81.131
-81.096
-80.951
-80.691
-80.314
-79.817
-79.2
-78.461
-77.601
-76.62
-75.522
-74.311
-72.994
-71.578
-70.071
-68.482
-66.819
-65.095
-63.318
-61.496
-59.638
-57.755
-55.855
-53.953
-52.061
-50.192
-48.361
-46.584
-44.874
-43.248
-41.715
-40.277
-38.943
-37.721
-36.626
-35.683
-34.906
-34.304
-33.89
-33.673
-33.655
-33.83
-34.166
-34.612
-35.127
-35.676
-36.235
-36.8
-37.344
-37.831
-38.226
-38.482
-38.575
-38.501
-38.231
-37.743
-37.047
-36.196
-35.309
-34.558
-34.072
-33.941
-34.221
-34.947
-36.203
-38.109
-40.77
-44.282
-48.65
-53.887
-60.092
-67.244
-75.126
-83.275
-90.916
-97.24
-101.709
-103.941
-103.634
-100.916
-96.163
-90.166
-84.3
-79.837
-77.799
-78.708
-82.305
-87.461
-92.515
-95.1
-92.32
-81.622
-59.886
-24.42
25.806
90.639
166.518
246.549
324.811
397.395
464.745
530.59
594.274
647.913
673.455
651.829
572.086
434.605
262.345
84.185
-72.56
-182.235
-243.778
-263.708
-250.989
-223.501
-184.063
-136.864
-92.759
-55.269
-35.836
-38.204
-51.872
-70.308
-83.402
-86.369
-85.85
-84.627
-84.869
-87.688
-89.296
-88.4
-85.865
-82.187
-78.819
-76.853
-76.231
-76.909
-78.909
-81.919
-85.658
-89.966
-94.618
-99.414
-104.269
-109.062
-113.62
-117.859
-121.713
-125.107
-128.008
-130.383
-132.201
-133.464
-134.202
-134.45
-134.242
-133.605
-132.557
-131.122
-129.336
-127.245
-124.903
-122.351
-119.613
-116.708
-113.647
-110.438
-107.083
-103.573
-99.889
-96.01
-91.927
-87.633
-83.126
-78.405
-73.463
-68.292
-62.888
-57.252
-51.389
-45.304
-39.003
-32.497
-25.799
-18.926
-11.901
-4.744
2.525
9.887
17.319
24.8
32.304
39.809
47.29
54.721
62.077
69.33
76.452
83.414
90.191
96.755
103.078
109.135
114.9
120.347
125.452
130.194
134.55
138.501
142.028
145.115
147.747
149.913
151.603
152.808
153.523
153.746
153.475
152.715
151.469
149.744
147.55
144.9
141.808
138.291
134.366
130.055
125.38
120.363
115.032
109.413
103.534
97.424
91.114
84.634
78.017
71.294
64.498
57.66
50.812
43.986
37.213
30.522
23.942
17.501
11.226
5.141
-0.731
-6.369
-11.753
-16.867
-21.695
-26.225
-30.446
-34.35
-37.931
-41.184
-44.108
-46.701
-48.966
-50.906
-52.525
-53.829
-54.828
-55.531
-55.95
-56.096
-55.985
-55.632
-55.053
-54.265
-53.288
-52.139
-50.838
-49.403
-47.856
-46.215
-44.499
-42.728
-40.92
-39.093
-37.263
-35.447
-33.659
-31.912
-30.218
-28.589
-27.035
-25.564
-24.185
-22.903
-21.725
-20.656
-19.699
-18.857
-18.132
-17.524
-17.033
-16.657
-16.394
-16.239
-16.189
-16.237
-16.377
-16.603
-16.905
-17.276
-17.708
-18.191
-18.716
-19.275
-19.857
-20.455
-21.059
-21.662
-22.257
-22.836
-23.394
-23.926
-24.427
-24.892
-25.318
-25.702
-26.042
-26.333
-26.576
-26.768
-26.909
-26.998
-27.037
-27.025
-26.965
-26.86
-26.713
-26.526
-26.306
-26.057
-25.783
-25.49
-25.185
-24.873
-24.56
-24.252
-23.957
-23.679
-23.424
-23.198
-23.003
-22.846
-22.728
-22.653
-22.621
-22.635
-22.695
-22.8
-22.952
-23.149
-23.389
-23.67
-23.991
-24.346
-24.734
-25.147
-25.582
-26.03
-26.486
-26.941
-27.387
-27.815
-28.214
-28.576
-28.891
-29.148
-29.338
-29.45
-29.474
-29.4
-29.22
-28.924
-28.505
-27.954
-27.266
-26.435
-25.457
-24.329
-23.048
-21.613
-20.023
-18.281
-16.388
-14.348
-12.166
-9.849
-7.404
-4.841
-2.173
0.589
3.428
6.328
9.272
12.238
15.206
18.154
21.058
23.897
26.646
29.283
31.785
34.133
36.305
38.281
40.04
41.56
42.826
43.819
44.52
44.911
44.974
44.699
44.085
43.128
41.826
40.171
38.152
35.766
33.023
29.93
26.495
22.731
18.658
14.317
9.778
5.106
0.363
-4.405
-9.168
-13.88
-18.487
-22.925
-27.129
-31.059
-34.703
-38.032
-40.995
-43.576
-45.778
-47.676
-49.424
-51.14
-52.913
-54.803
-56.823
-59.026
-61.502
-64.346
-67.644
-71.442
-75.712
-80.482
-85.889
-91.874
-98.185
-104.295
-109.336
-112.523
-113.308
-111.296
-106.169
-98.013
-87.367
-75.21
-63.182
-53.053
-46.195
-43.174
-43.787
-46.828
-50.097
-51.114
-46.457
-31.778
-3.016
42.884
105.491
180.392
262.665
346.885
432.727
524.908
620.508
713.945
790.905
824.194
800.648
714.312
567.507
388.871
204.17
38.542
-78.191
-141.73
-157.847
-139.164
-112.226
-90.801
-78.679
-75.449
-72.453
-66.44
-59.717
-54.925
-56.024
-63.496
-74.716
-87.048
-97.563
-104.756
-108.514
-108.788
-106.035
-101.057
-94.653
-87.845
-81.698
-76.741
-73.149
-70.974
-70.037
-70.172
-71.27
-73.099
-75.407
-78.035
-80.856
-83.77
-86.706
-89.509
-91.99
-94.018
-95.498
-96.384
-96.673
-96.354
-95.428
-93.929
-91.907
-89.414
-86.5
-83.205
-79.564
-75.628
-71.46
-67.131
-62.717
-58.273
-53.839
-49.439
-45.086
-40.785
-36.535
-32.322
-28.125
-23.93
-19.725
-15.504
-11.262
-6.992
-2.681
1.679
6.099
10.585
15.141
19.772
24.478
29.257
34.105
39.014
43.977
48.986
54.034
59.114
64.215
69.33
74.447
79.557
84.649
89.71
94.726
99.682
104.564
109.357
114.047
118.617
123.048
127.321
131.417
135.323
139.024
142.506
145.754
148.753
151.491
153.962
156.157
158.067
159.677
160.97
161.931
162.554
162.839
162.789
162.401
161.666
160.576
159.129
157.335
155.202
152.732
149.922
146.766
143.276
139.488
135.444
131.188
126.751
122.143
117.371
112.467
107.481
102.491
97.566
92.732
87.977
83.28
78.654
74.164
69.877
65.764
61.656
57.436
53.224
49.394
46.369
44.305
42.908
41.709
40.628
39.66
38.355
35.709
30.266
20.942
8.111
-6.832
-22.842
-39.034
-54.249
-66.892
-74.368
-74.201
-66.269
-52.368
-34.496
-14.777
4.984
23.19
37.055
43.535
41.834
33.096
19.299
3.025
-13.963
-30.683
-45.352
-55.878
-61.395
-62.122
-59.192
-54.479
-49.086
-43.36
-37.88
-33.301
-30.012
-28.191
-27.504
-27.184
-26.832
-26.393
-25.866
-25.336
-24.804
-24.181
-23.497
-22.879
-22.395
-22.065
-21.857
-21.676
-21.474
-21.246
-20.999
-20.754
-20.516
-20.274
-20.019
-19.747
-19.462
-19.179
-18.909
-18.658
-18.434
-18.244
-18.099
-18.018
-18.011
-18.082
-18.229
-18.444
-18.726
-19.074
-19.492
-19.981
-20.541
-21.171
-21.872
-22.644
-23.487
-24.4
-25.38
-26.423
-27.526
-28.686
-29.9
-31.165
-32.478
-33.834
-35.231
-36.663
-38.127
-39.62
-41.136
-42.672
-44.222
-45.785
-47.355
-48.93
-50.507
-52.082
-53.655
-55.222
-56.782
-58.33
-59.866
-61.384
-62.881
-64.35
-65.784
-67.177
-68.523
-69.814
-71.046
-72.215
-73.315
-74.344
-75.301
-76.186
-76.997
-77.732
-78.385
-78.951
-79.425
-79.801
-80.071
-80.228
-80.262
-80.165
-79.937
-79.572
-79.066
-78.411
-77.588
-76.59
-75.417
-74.074
-72.569
-70.919
-69.14
-67.262
-65.335
-63.402
-61.504
-59.675
-57.922
-56.251
-54.671
-53.192
-51.826
-50.567
-49.379
-48.225
-47.074
-45.884
-44.611
-43.187
-41.502
-39.467
-37.017
-34.102
-30.725
-26.906
-22.668
-18.055
-13.137
-8.008
-2.806
2.324
7.263
11.885
16.059
19.632
22.401
24.205
24.925
24.463
22.787
19.892
15.798
10.58
4.369
-2.668
-10.335
-18.43
-26.793
-35.276
-43.694
-51.8
-59.349
-66.16
-72.097
-77.115
-81.116
-83.872
-85.415
-86.053
-86.123
-86.109
-86.236
-86.236
-86.182
-86.572
-87.304
-87.892
-87.6
-85.028
-79.73
-72.617
-63.944
-53.433
-41.747
-29.94
-19.894
-14.85
-16.262
-23.318
-35.787
-53.61
-75.459
-99.448
-122.046
-137.701
-142.833
-136.189
-116.009
-80.762
-30.284
34.858
111.724
194.939
280.388
364.857
443.774
512.568
567.239
603.475
619.365
615.08
589.509
544.453
484.073
410.138
326.905
236.615
139.568
45.106
-38.045
-101.276
-136.446
-149.398
-146.89
-135.482
-123.625
-110.554
-96.684
-84.206
-72.287
-63.473
-59.352
-58.643
-60.943
-64.788
-67.779
-69.055
-68.386
-65.667
-61.52
-56.586
-51.241
-46.095
-41.942
-39.184
-37.965
-38.28
-39.844
-42.4
-45.792
-49.8
-54.161
-58.662
-63.097
-67.264
-71.065
-74.423
-77.256
-79.528
-81.21
-82.28
-82.759
-82.697
-82.139
-81.134
-79.729
-77.954
-75.857
-73.496
-70.936
-68.248
-65.481
-62.665
-59.819
-56.957
-54.086
-51.208
-48.31
-45.364
-42.348
-39.248
-36.052
-32.754
-29.344
-25.806
-22.127
-18.294
-14.3
-10.141
-5.813
-1.313
3.358
8.196
13.193
18.338
23.62
29.032
34.564
40.205
45.942
51.764
57.656
63.605
69.596
75.611
81.631
87.638
93.612
99.532
105.378
111.127
116.76
122.252
127.584
132.733
137.679
142.4
146.875
151.085
155.011
158.635
161.941
164.912
167.535
169.796
171.686
173.196
174.318
175.048
175.383
175.321
174.863
174.012
172.772
171.148
169.15
166.786
164.069
161.01
157.626
153.932
149.946
145.687
141.174
136.429
131.472
126.326
121.013
115.556
109.98
104.306
98.559
92.762
86.938
81.108
75.294
69.517
63.796
58.15
52.595
47.148
41.823
36.633
31.59
26.704
21.985
17.441
13.077
8.898
4.909
1.112
-2.493
-5.904
-9.123
-12.153
-14.995
-17.653
-20.133
-22.438
-24.576
-26.552
-28.373
-30.047
-31.581
-32.984
-34.262
-35.424
-36.478
-37.43
-38.288
-39.059
-39.749
-40.364
-40.909
-41.39
-41.809
-42.172
-42.481
-42.74
-42.95
-43.112
-43.229
-43.302
-43.33
-43.315
-43.258
-43.158
-43.016
-42.833
-42.609
-42.344
-42.039
-41.694
-41.31
-40.889
-40.43
-39.936
-39.407
-38.847
-38.256
-37.638
-36.995
-36.33
-35.647
-34.95
-34.243
-33.529
-32.815
-32.105
-31.404
-30.719
-30.054
-29.417
-28.813
-28.248
-27.729
-27.259
-26.846
-26.493
-26.205
-25.986
-25.84
-25.769
-25.776
-25.864
-26.034
-26.287
-26.624
-27.045
-27.55
-28.138
-28.808
-29.558
-30.387
-31.291
-32.268
-33.315
-34.429
-35.606
-36.842
-38.132
-39.471
-40.855
-42.278
-43.734
-45.217
-46.722
-48.241
-49.77
-51.303
-52.834
-54.357
-55.867
-57.359
-58.828
-60.27
-61.678
-63.049
-64.377
-65.659
-66.89
-68.065
-69.179
-70.229
-71.209
-72.117
-72.949
-73.699
-74.364
-74.939
-75.42
-75.804
-76.087
-76.265
-76.335
-76.294
-76.139
-75.869
-75.483
-74.977
-74.351
-73.603
-72.733
-71.741
-70.628
-69.393
-68.04
-66.569
-64.986
-63.296
-61.502
-59.611
-57.63
-55.569
-53.44
-51.253
-49.021
-46.757
-44.473
-42.185
-39.907
-37.651
-35.429
-33.253
-31.137
-29.098
-27.152
-25.314
-23.601
-22.024
-20.598
-19.338
-18.253
-17.343
-16.614
-16.068
-15.716
-15.58
-15.674
-16.002
-16.567
-17.366
-18.391
-19.626
-21.042
-22.592
-24.234
-25.935
-27.676
-29.456
-31.258
-33.054
-34.8
-36.437
-37.924
-39.243
-40.368
-41.265
-41.933
-42.415
-42.794
-43.194
-43.695
-44.309
-45.045
-45.93
-47.018
-48.403
-50.19
-52.428
-55.202
-58.666
-62.824
-67.544
-72.484
-76.971
-80.346
-82.199
-82.074
-79.494
-74.53
-67.649
-59.833
-52.767
-47.738
-45.263
-45.924
-50.283
-57.874
-67.365
-76.336
-81.197
-78.974
-67.87
-46.16
-11.666
36.97
99.754
174.986
257.398
339.983
417.338
485.68
545.503
600.522
651.72
694.255
713.167
689.711
609.504
470.516
293.579
110.421
-44.901
-147.407
-197.229
-207.489
-197.854
-184.018
-166.103
-141.595
-109.859
-77.343
-58.442
-61.109
-82.892
-111.253
-130.812
-132.866
-118.018
-95.908
-74.541
-58.921
-51.762
-48.77
-48.116
-49.401
-49.964
-51.41
-55.067
-59.986
-66.272
-72.866
-77.788
-80.975
-83.382
-85.345
-87.257
-89.314
-91.145
-92.829
-94.902
-97.333
-99.682
-101.672
-102.984
-103.509
-103.479
-102.966
-101.908
-100.344
-98.34
-95.982
-93.411
-90.71
-87.891
-84.972
-81.958
-78.863
-75.721
-72.549
-69.345
-66.099
-62.777
-59.359
-55.835
-52.197
-48.445
-44.574
-40.568
-36.418
-32.12
-27.671
-23.08
-18.346
-13.465
-8.437
-3.266
2.037
7.455
12.976
18.589
24.284
30.05
35.871
41.732
47.617
53.512
59.399
65.261
71.075
76.82
82.472
88.012
93.417
98.665
103.734
108.604
113.252
117.659
121.804
125.668
129.233
132.479
135.391
137.955
140.155
141.982
143.423
144.471
145.119
145.362
145.197
144.621
143.637
142.245
140.451
138.263
135.688
132.739
129.428
125.772
121.788
117.495
112.915
108.068
102.979
97.672
92.171
86.504
80.698
74.779
68.776
62.716
56.628
50.539
44.475
38.464
32.53
26.697
20.99
15.428
10.035
4.828
-0.175
-4.956
-9.502
-13.799
-17.836
-21.606
-25.101
-28.317
-31.252
-33.904
-36.277
-38.373
-40.197
-41.758
-43.062
-44.121
-44.946
-45.55
-45.947
-46.154
-46.185
-46.06
-45.794
-45.407
-44.917
-44.34
-43.696
-43.002
-42.274
-41.529
-40.783
-40.052
-39.349
-38.688
-38.081
-37.54
-37.075
-36.695
-36.405
-36.213
-36.121
-36.134
-36.251
-36.474
-36.8
-37.228
-37.753
-38.37
-39.074
-39.857
-40.71
-41.625
-42.592
-43.599
-44.636
-45.692
-46.754
-47.814
-48.858
-49.877
-50.86
-51.797
-52.68
-53.498
-54.245
-54.911
-55.491
-55.979
-56.369
-56.658
-56.843
-56.921
-56.893
-56.759
-56.519
-56.176
-55.733
-55.193
-54.561
-53.843
-53.046
-52.176
-51.243
-50.253
-49.218
-48.145
-47.046
-45.929
-44.805
-43.684
-42.574
-41.484
-40.425
-39.404
-38.429
-37.508
-36.649
-35.858
-35.14
-34.502
-33.947
-33.48
-33.105
-32.822
-32.635
-32.544
-32.549
-32.651
-32.849
-33.14
-33.521
-33.99
-34.542
-35.173
-35.877
-36.647
-37.478
-38.362
-39.293
-40.264
-41.267
-42.294
-43.339
-44.392
-45.447
-46.496
-47.531
-48.544
-49.526
-50.472
-51.374
-52.224
-53.017
-53.745
-54.401
-54.979
-55.474
-55.879
-56.188
-56.397
-56.5
-56.495
-56.377
-56.144
-55.795
-55.326
-54.737
-54.029
-53.2
-52.252
-51.185
-50
-48.7
-47.288
-45.768
-44.145
-42.424
-40.614
-38.723
-36.759
-34.73
-32.648
-30.522
-28.364
-26.182
-23.986
-21.786
-19.594
-17.421
-15.282
-13.189
-11.154
-9.189
-7.309
-5.527
-3.86
-2.324
-0.924
0.331
1.431
2.358
3.088
3.601
3.891
3.956
3.795
3.411
2.808
2.008
1.058
0.01
-1.082
-2.173
-3.24
-4.255
-5.174
-5.943
-6.493
-6.774
-6.781
-6.514
-5.97
-5.157
-4.104
-2.896
-1.689
-0.664
0.013
0.207
-0.188
-1.255
-3.08
-5.78
-9.48
-14.267
-20.166
-27.143
-35.101
-43.986
-53.767
-64.175
-74.737
-84.736
-93.241
-99.626
-103.634
-104.981
-103.309
-98.471
-90.45
-79.962
-68.708
-57.764
-47.281
-37.021
-26.343
-14.58
-1.358
15.026
38.291
71.612
117.182
174.315
238.747
306.907
375.634
445.884
522.583
604.489
686.696
754.805
783.185
756.677
668.319
524.446
354.498
186.619
45.966
-48.558
-100.468
-122.59
-128.777
-130.766
-128.988
-114.863
-85.951
-49.681
-17.4
-5.157
-17.357
-43.519
-72.765
-92.72
-99.326
-98.924
-95.749
-93.215
-92.043
-89.079
-83.6
-76.53
-68.826
-62.121
-57.061
-53.374
-51.019
-49.895
-49.819
-50.649
-52.167
-54.152
-56.499
-59.179
-62.121
-65.207
-68.265
-71.099
-73.569
-75.582
-77.085
-78.05
-78.447
-78.27
-77.544
-76.315
-74.631
-72.531
-70.046
-67.204
-64.05
-60.644
-57.058
-53.365
-49.619
-45.855
-42.095
-38.348
-34.62
-30.908
-27.196
-23.462
-19.688
-15.863
-11.982
-8.041
-4.03
0.06
4.241
8.521
12.907
17.401
22.004
26.717
31.532
36.444
41.44
46.509
51.639
56.819
62.038
67.285
72.549
77.816
83.076
88.313
93.515
98.666
103.75
108.749
113.646
118.423
123.063
127.547
131.856
135.972
139.879
143.556
146.987
150.154
153.041
155.632
157.912
159.869
161.488
162.761
163.677
164.229
164.413
164.225
163.662
162.724
161.414
159.734
157.69
155.288
152.535
149.441
146.016
142.273
138.224
133.886
129.273
124.404
119.297
113.971
108.448
102.747
96.891
90.903
84.805
78.623
72.379
66.099
59.807
53.526
47.281
41.094
34.987
28.981
23.095
17.348
11.757
6.336
1.1
-3.939
-8.77
-13.383
-17.77
-21.923
-25.838
-29.51
-32.935
-36.113
-39.044
-41.728
-44.167
-46.366
-48.327
-50.058
-51.565
-52.856
-53.94
-54.828
-55.53
-56.06
-56.429
-56.651
-56.74
-56.71
-56.573
-56.345
-56.036
-55.66
-55.228
-54.752
-54.241
-53.705
-53.153
-52.593
-52.032
-51.476
-50.931
-50.401
-49.891
-49.405
-48.944
-48.511
-48.108
-47.736
-47.396
-47.087
-46.811
-46.565
-46.347
-46.157
-45.991
-45.845
-45.718
-45.604
-45.499
-45.401
-45.306
-45.21
-45.11
-45.004
-44.889
-44.765
-44.629
-44.482
-44.323
-44.154
-43.975
-43.788
-43.596
-43.401
-43.206
-43.015
-42.831
-42.658
-42.499
-42.359
-42.239
-42.145
-42.079
-42.044
-42.044
-42.082
-42.162
-42.286
-42.456
-42.675
-42.946
-43.268
-43.643
-44.071
-44.552
-45.086
-45.67
-46.304
-46.986
-47.713
-48.483
-49.291
-50.134
-51.007
-51.906
-52.825
-53.758
-54.698
-55.64
-56.577
-57.503
-58.414
-59.303
-60.165
-60.995
-61.787
-62.538
-63.242
-63.896
-64.494
-65.034
-65.513
-65.93
-66.284
-66.573
-66.798
-66.958
-67.056
-67.09
-67.06
-66.968
-66.812
-66.593
-66.311
-65.965
-65.556
-65.084
-64.552
-63.962
-63.318
-62.626
-61.887
-61.106
-60.287
-59.432
-58.541
-57.613
-56.644
-55.633
-54.58
-53.486
-52.351
-51.177
-49.963
-48.717
-47.439
-46.129
-44.783
-43.389
-41.938
-40.437
-38.896
-37.335
-35.783
-34.262
-32.798
-31.428
-30.176
-29.052
-28.054
-27.153
-26.323
-25.553
-24.845
-24.219
-23.693
-23.258
-22.9
-22.606
-22.337
-22.058
-21.72
-21.241
-20.573
-19.716
-18.707
-17.629
-16.577
-15.606
-14.755
-14.045
-13.48
-13.075
-12.824
-12.706
-12.731
-12.925
-13.348
-14.095
-15.22
-16.693
-18.443
-20.353
-22.298
-24.199
-25.981
-27.585
-28.999
-30.252
-31.443
-32.714
-34.156
-35.814
-37.688
-39.712
-41.878
-44.275
-47.005
-50.193
-53.94
-58.225
-63.077
-68.601
-74.682
-80.998
-87.008
-91.842
-94.773
-95.535
-93.885
-89.57
-82.69
-73.426
-62.324
-50.812
-40.185
-30.869
-22.894
-15.782
-8.438
0.166
11.518
28.296
53.482
89.383
137.212
196.795
265.416
338.597
411.896
480.976
545.235
606.598
664.334
713.38
739.582
725.689
660.492
543.381
391.405
231.791
92.769
-4.826
-56.641
-71.71
-68.112
-61.744
-59.65
-61.936
-62.062
-56.34
-46.512
-35.689
-28.656
-27.697
-31.479
-38.154
-45.659
-51.95
-56.036
-57.581
-56.397
-52.932
-48.04
-42.439
-36.918
-32.325
-29.104
-27.449
-27.454
-28.926
-31.633
-35.402
-39.972
-45.082
-50.553
-56.2
-61.862
-67.393
-72.606
-77.348
-81.521
-85.045
-87.897
-90.063
-91.535
-92.341
-92.529
-92.142
-91.236
-89.853
-88.028
-85.818
-83.286
-80.502
-77.544
-74.466
-71.303
-68.085
-64.824
-61.527
-58.195
-54.815
-51.367
-47.84
-44.226
-40.52
-36.725
-32.833
-28.837
-24.731
-20.507
-16.162
-11.695
-7.105
-2.394
2.435
7.374
12.413
17.542
22.75
28.029
33.37
38.763
44.199
49.665
55.152
60.647
66.137
71.606
77.039
82.417
87.723
92.939
98.046
103.025
107.856
112.519
116.995
121.264
125.306
129.102
132.633
135.881
138.827
141.454
143.748
145.692
147.275
148.484
149.312
149.749
149.791
149.434
148.676
147.519
145.965
144.018
141.686
138.978
135.904
132.477
128.713
124.629
120.244
115.578
110.653
105.492
100.121
94.565
88.851
83.007
77.061
71.042
64.981
58.906
52.846
46.831
40.889
35.047
29.331
23.765
18.372
13.174
8.189
3.434
-1.076
-5.328
-9.312
-13.018
-16.442
-19.578
-22.425
-24.981
-27.25
-29.234
-30.938
-32.369
-33.536
-34.448
-35.118
-35.558
-35.782
-35.806
-35.648
-35.326
-34.857
-34.262
-33.561
-32.774
-31.92
-31.019
-30.091
-29.154
-28.224
-27.319
-26.453
-25.64
-24.892
-24.219
-23.63
-23.132
-22.732
-22.433
-22.239
-22.151
-22.171
-22.299
-22.534
-22.873
-23.313
-23.852
-24.484
-25.203
-26.002
-26.874
-27.809
-28.799
-29.832
-30.899
-31.989
-33.089
-34.188
-35.276
-36.34
-37.369
-38.354
-39.284
-40.151
-40.947
-41.664
-42.297
-42.842
-43.295
-43.654
-43.917
-44.083
-44.152
-44.125
-44.001
-43.784
-43.473
-43.072
-42.584
-42.012
-41.359
-40.632
-39.835
-38.975
-38.057
-37.089
-36.078
-35.032
-33.959
-32.867
-31.765
-30.661
-29.566
-28.486
-27.432
-26.411
-25.43
-24.497
-23.617
-22.797
-22.04
-21.351
-20.733
-20.19
-19.724
-19.338
-19.033
-18.813
-18.677
-18.627
-18.663
-18.785
-18.992
-19.283
-19.656
-20.109
-20.64
-21.244
-21.919
-22.661
-23.465
-24.326
-25.238
-26.195
-27.19
-28.216
-29.266
-30.333
-31.409
-32.487
-33.56
-34.62
-35.661
-36.675
-37.657
-38.598
-39.493
-40.335
-41.118
-41.835
-42.48
-43.048
-43.533
-43.932
-44.238
-44.449
-44.56
-44.568
-44.471
-44.266
-43.95
-43.523
-42.983
-42.331
-41.567
-40.693
-39.711
-38.625
-37.438
-36.156
-34.784
-33.328
-31.798
-30.201
-28.549
-26.851
-25.119
-23.366
-21.603
-19.844
-18.101
-16.385
-14.709
-13.084
-11.524
-10.041
-8.649
-7.36
-6.186
-5.143
-4.244
-3.506
-2.94
-2.552
-2.35
-2.337
-2.528
-2.938
-3.577
-4.45
-5.555
-6.889
-8.448
-10.223
-12.19
-14.305
-16.515
-18.767
-21.024
-23.259
-25.442
-27.543
-29.512
-31.297
-32.863
-34.19
-35.276
-36.118
-36.71
-37.064
-37.245
-37.378
-37.623
-38.122
-38.978
-40.257
-42.004
-44.288
-47.218
-50.886
-55.365
-60.686
-66.782
-73.67
-81.436
-89.956
-98.908
-107.699
-115.418
-121.331
-124.993
-125.829
-123.38
-117.653
-108.863
-98.003
-86.762
-76.362
-67.868
-62.305
-59.77
-59.564
-60.433
-59.683
-54.078
-40.703
-15.88
23.718
80.044
151.649
233.21
319.032
403.296
486.814
575.834
667.644
755.934
824.734
845.121
804.943
701.023
537.502
344.486
148.09
-27.944
-152.805
-218.453
-229.646
-196.942
-146.771
-101.368
-69.158
-54.279
-53.056
-54.888
-56.585
-57.356
-55.674
-56.116
-60.139
-65.926
-72.926
-78.216
-79.876
-78.344
-74.094
-68.187
-61.771
-55.567
-50.323
-46.528
-44.346
-43.744
-44.449
-46.246
-48.962
-52.362
-56.257
-60.466
-64.817
-69.196
-73.48
-77.501
-81.128
-84.266
-86.842
-88.84
-90.25
-91.068
-91.327
-91.072
-90.345
-89.194
-87.647
-85.728
-83.484
-80.967
-78.238
-75.362
-72.383
-69.327
-66.219
-63.068
-59.874
-56.632
-53.321
-49.917
-46.403
-42.766
-38.995
-35.082
-31.013
-26.776
-22.363
-17.768
-12.988
-8.022
-2.873
2.454
7.944
13.584
19.365
25.283
31.34
37.525
43.815
50.182
56.597
63.035
69.468
75.857
82.153
88.321
94.341
100.218
105.957
111.551
116.973
122.185
127.149
131.841
136.258
140.395
144.233
147.773
151.027
154.042
156.891
159.607
162.173
164.538
166.641
168.439
169.907
171.013
171.714
171.967
171.73
170.989
169.752
167.989
165.649
162.637
158.823
154.14
148.586
142.183
134.98
127.038
118.423
109.253
99.685
89.849
79.849
69.75
59.591
49.457
39.463
29.743
20.467
11.759
3.702
-3.612
-10.121
-15.805
-20.677
-24.82
-28.379
-31.448
-34.089
-36.339
-38.209
-39.739
-40.99
-42.014
-42.877
-43.641
-44.366
-45.14
-46.041
-47.099
-48.312
-49.628
-50.953
-52.229
-53.428
-54.522
-55.509
-56.384
-57.137
-57.786
-58.352
-58.842
-59.254
-59.563
-59.742
-59.796
-59.743
-59.621
-59.485
-59.377
-59.327
-59.372
-59.538
-59.843
-60.299
-60.902
-61.64
-62.509
-63.51
-64.649
-65.934
-67.365
-68.937
-70.641
-72.466
-74.4
-76.43
-78.536
-80.702
-82.913
-85.153
-87.414
-89.685
-91.957
-94.216
-96.451
-98.649
-100.797
-102.882
-104.89
-106.806
-108.617
-110.311
-111.878
-113.307
-114.591
-115.721
-116.69
-117.495
-118.129
-118.591
-118.877
-118.987
-118.919
-118.675
-118.257
-117.67
-116.916
-116.003
-114.938
-113.73
-112.386
-110.917
-109.333
-107.644
-105.862
-103.996
-102.059
-100.06
-98.012
-95.924
-93.81
-91.681
-89.548
-87.421
-85.312
-83.23
-81.185
-79.185
-77.238
-75.351
-73.532
-71.785
-70.115
-68.528
-67.028
-65.615
-64.294
-63.064
-61.925
-60.878
-59.919
-59.046
-58.256
-57.545
-56.91
-56.345
-55.847
-55.41
-55.03
-54.702
-54.42
-54.181
-53.977
-53.803
-53.654
-53.524
-53.406
-53.297
-53.19
-53.081
-52.964
-52.836
-52.69
-52.524
-52.332
-52.109
-51.852
-51.556
-51.219
-50.837
-50.408
-49.93
-49.402
-48.822
-48.192
-47.509
-46.774
-45.987
-45.148
-44.256
-43.314
-42.321
-41.278
-40.186
-39.049
-37.871
-36.658
-35.413
-34.142
-32.851
-31.547
-30.234
-28.916
-27.597
-26.278
-24.965
-23.662
-22.374
-21.107
-19.869
-18.669
-17.513
-16.41
-15.363
-14.374
-13.441
-12.566
-11.751
-11.006
-10.344
-9.775
-9.311
-8.963
-8.738
-8.635
-8.639
-8.722
-8.843
-8.97
-9.07
-9.124
-9.113
-9.009
-8.784
-8.409
-7.853
-7.095
-6.108
-4.867
-3.361
-1.62
0.289
2.256
4.157
5.889
7.371
8.527
9.264
9.467
9.015
7.799
5.772
2.883
-0.974
-5.787
-11.406
-17.48
-23.407
-28.526
-32.288
-34.252
-34.069
-31.81
-27.841
-22.828
-17.908
-14.255
-13.011
-14.907
-19.929
-27.056
-34.507
-40.074
-41.21
-35.066
-17.973
13.175
59.976
120.802
190.725
264.96
340.044
416.793
496.756
575.505
643.623
684.808
682.211
630.398
531.524
394.853
238.73
78.936
-67.085
-177.864
-244.047
-264.456
-247.09
-212.083
-173.391
-137.661
-107.042
-77.063
-46.191
-16.91
7.445
22.12
25.242
18.487
5.272
-9.604
-23.211
-34.546
-42.921
-47.959
-49.037
-45.942
-39.892
-33.008
-26.748
-21.752
-18.167
-15.849
-15.045
-16.004
-18.386
-21.456
-24.567
-27.316
-29.596
-31.509
-33.012
-33.992
-34.428
-34.364
-33.897
-33.122
-32.065
-30.699
-29.007
-26.999
-24.714
-22.213
-19.554
-16.793
-13.965
-11.09
-8.189
-5.274
-2.358
0.549
3.454
6.376
9.326
12.312
15.334
18.391
21.495
24.664
27.914
31.262
34.715
38.277
41.951
45.744
49.656
53.688
57.834
62.085
66.436
70.882
75.418
80.037
84.731
89.488
94.299
99.151
104.032
108.929
113.826
118.706
123.552
128.346
133.072
137.711
142.243
146.649
150.911
155.007
158.92
162.63
166.118
169.364
172.352
175.065
177.487
179.603
181.401
182.867
183.993
184.77
185.191
185.25
184.946
184.274
183.237
181.836
180.074
177.957
175.492
172.687
169.554
166.104
162.351
158.31
153.997
149.429
144.625
139.605
134.386
128.992
123.442
117.759
111.964
106.079
100.126
94.127
88.103
82.074
76.06
70.079
64.151
58.291
52.516
46.841
41.28
35.847
30.552
25.407
20.421
15.603
10.96
6.499
2.223
-1.861
-5.753
-9.449
-12.948
-16.251
-19.358
-22.271
-24.992
-27.524
-29.872
-32.04
-34.033
-35.857
-37.516
-39.018
-40.367
-41.57
-42.632
-43.559
-44.355
-45.027
-45.579
-46.017
-46.345
-46.569
-46.693
-46.721
-46.658
-46.509
-46.277
-45.966
-45.58
-45.122
-44.597
-44.008
-43.357
-42.65
-41.888
-41.075
-40.213
-39.304
-38.352
-37.358
-36.324
-35.252
-34.145
-33.006
-31.836
-30.64
-29.421
-28.181
-26.926
-25.66
-24.385
-23.108
-21.832
-20.562
-19.303
-18.06
-16.839
-15.643
-14.478
-13.35
-12.264
-11.223
-10.234
-9.3
-8.425
-7.615
-6.873
-6.203
-5.61
-5.097
-4.668
-4.328
-4.079
-3.924
-3.866
-3.908
-4.051
-4.297
-4.644
-5.095
-5.647
-6.3
-7.051
-7.898
-8.838
-9.866
-10.978
-12.167
-13.429
-14.756
-16.142
-17.578
-19.056
-20.568
-22.104
-23.657
-25.216
-26.772
-28.315
-29.836
-31.326
-32.774
-34.171
-35.507
-36.773
-37.959
-39.056
-40.055
-40.948
-41.726
-42.381
-42.906
-43.297
-43.547
-43.653
-43.611
-43.42
-43.077
-42.583
-41.938
-41.146
-40.207
-39.127
-37.911
-36.567
-35.101
-33.525
-31.847
-30.078
-28.229
-26.313
-24.34
-22.324
-20.274
-18.205
-16.13
-14.062
-12.017
-10.013
-8.067
-6.194
-4.412
-2.736
-1.184
0.233
1.503
2.615
3.564
4.339
4.932
5.335
5.545
5.556
5.368
4.979
4.386
3.591
2.596
1.402
0.018
-1.553
-3.309
-5.249
-7.38
-9.702
-12.201
-14.864
-17.682
-20.638
-23.719
-26.892
-30.1
-33.281
-36.372
-39.307
-42.041
-44.53
-46.727
-48.592
-50.068
-51.133
-51.812
-52.129
-52.104
-51.739
-50.999
-49.931
-48.688
-47.46
-46.479
-45.923
-45.862
-46.4
-47.7
-49.786
-52.623
-55.935
-59.13
-61.882
-64.188
-66.088
-67.7
-69.154
-70.426
-71.876
-74.335
-78.056
-82.728
-87.796
-92.414
-95.819
-97.385
-96.072
-90.395
-79.272
-62.165
-38.773
-8.887
27.509
70.103
118.154
170.047
223.388
275.666
323.844
363.929
392.404
406.246
402.516
380.036
339.717
283.42
214.69
139.11
61.936
-11.417
-74.853
-124.392
-158.244
-175.68
-178.038
-168.517
-150.184
-126.865
-103.411
-83.025
-67.587
-58.334
-55.01
-56.557
-62.074
-69.995
-78.155
-85.303
-90.739
-94.078
-95.684
-96.001
-95.331
-94.273
-93.539
-93.467
-94.202
-95.732
-97.79
-100.17
-102.717
-105.186
-107.358
-109.112
-110.386
-111.175
-111.512
-111.403
-110.844
-109.852
-108.451
-106.667
-104.526
-102.05
-99.274
-96.243
-93.016
-89.652
-86.208
-82.72
-79.216
-75.715
-72.232
-68.781
-65.368
-61.993
-58.654
-55.35
-52.083
-48.855
-45.664
-42.504
-39.367
-36.243
-33.121
-29.991
-26.843
-23.67
-20.464
-17.221
-13.935
-10.605
-7.23
-3.806
-0.332
3.195
6.777
10.415
14.11
17.86
21.665
25.519
29.417
33.352
37.315
41.296
45.286
49.272
53.244
57.189
61.094
64.945
68.728
72.428
76.028
79.515
82.87
86.077
89.119
91.982
94.648
97.103
99.333
101.325
103.065
104.543
105.746
106.667
107.297
107.629
107.659
107.383
106.799
105.91
104.717
103.224
101.439
99.368
97.02
94.407
91.54
88.433
85.099
81.554
77.816
73.9
69.826
65.612
61.277
56.841
52.322
47.74
43.114
38.463
33.806
29.161
24.545
19.977
15.472
11.047
6.716
2.494
-1.608
-5.578
-9.406
-13.082
-16.599
-19.951
-23.132
-26.138
-28.965
-31.613
-34.081
-36.368
-38.478
-40.411
-42.171
-43.763
-45.191
-46.461
-47.578
-48.549
-49.379
-50.076
-50.646
-51.097
-51.434
-51.667
-51.802
-51.846
-51.806
-51.691
-51.506
-51.258
-50.955
-50.602
-50.205
-49.771
-49.305
-48.812
-48.299
-47.769
-47.228
-46.68
-46.128
-45.578
-45.031
-44.491
-43.962
-43.445
-42.943
-42.459
-41.995
-41.554
-41.137
-40.748
-40.387
-40.057
-39.76
-39.498
-39.272
-39.084
-38.935
-38.828
-38.762
-38.74
-38.762
-38.83
-38.942
-39.1
-39.303
-39.551
-39.842
-40.174
-40.547
-40.958
-41.406
-41.888
-42.401
-42.943
-43.51
-44.1
-44.708
-45.332
-45.967
-46.609
-47.254
-47.898
-48.536
-49.165
-49.779
-50.374
-50.947
-51.492
-52.006
-52.484
-52.923
-53.318
-53.666
-53.963
-54.207
-54.395
-54.524
-54.593
-54.6
-54.546
-54.428
-54.248
-54.006
-53.702
-53.338
-52.915
-52.434
-51.897
-51.306
-50.662
-49.969
-49.23
-48.446
-47.622
-46.76
-45.864
-44.938
-43.984
-43.005
-42.005
-40.987
-39.952
-38.905
-37.847
-36.782
-35.712
-34.64
-33.57
-32.504
-31.445
-30.396
-29.357
-28.33
-27.318
-26.322
-25.345
-24.387
-23.452
-22.543
-21.666
-20.826
-20.024
-19.265
-18.551
-17.885
-17.27
-16.705
-16.191
-15.725
-15.31
-14.948
-14.641
-14.393
-14.207
-14.087
-14.038
-14.065
-14.172
-14.361
-14.631
-14.982
-15.415
-15.936
-16.555
-17.272
-18.084
-18.986
-19.97
-21.022
-22.125
-23.248
-24.353
-25.398
-26.345
-27.16
-27.814
-28.279
-28.534
-28.565
-28.35
-27.89
-27.2
-26.289
-25.187
-23.931
-22.557
-21.124
-19.72
-18.427
-17.346
-16.583
-16.223
-16.336
-16.961
-18.109
-19.787
-21.946
-24.52
-27.428
-30.553
-33.797
-37.059
-40.196
-43.016
-45.273
-46.673
-46.915
-45.687
-42.661
-37.699
-30.824
-22.203
-12.278
-1.417
10.142
21.985
33.811
45.79
58.46
72.845
90.266
111.477
136.716
166.194
199.625
235.859
272.819
307.183
335.34
354.406
362.105
356.701
337.248
303.94
258.588
204.863
146.955
88.939
34.812
-12.163
-49.293
-74.839
-88.739
-92.511
-88.242
-78.488
-66.155
-53.535
-42.681
-35.094
-31.13
-30.421
-32.327
-35.754
-39.344
-42.196
-43.547
-42.926
-40.475
-36.49
-31.305
-25.478
-19.625
-14.141
-9.361
-5.503
-2.543
-0.439
0.887
1.593
1.793
1.556
0.941
-0.025
-1.307
-2.876
-4.77
-7.019
-9.608
-12.496
-15.576
-18.72
-21.863
-24.969
-28.005
-30.957
-33.784
-36.451
-38.96
-41.311
-43.503
-45.502
-47.217
-48.572
-49.54
-50.119
-50.351
-50.304
-50.001
-49.457
-48.703
-47.752
-46.617
-45.307
-43.796
-42.059
-40.089
-37.897
-35.516
-32.982
-30.302
-27.473
-24.479
-21.292
-17.898
-14.287
-10.439
-6.346
-2.011
2.56
7.342
12.305
17.426
22.687
28.071
33.565
39.146
44.791
50.473
56.163
61.832
67.449
72.982
78.399
83.673
88.777
93.689
98.391
102.863
107.084
111.04
114.71
118.08
121.135
123.86
126.242
128.271
129.94
131.242
132.174
132.734
132.923
132.743
132.199
131.296
130.042
128.446
126.52
124.276
121.727
118.889
115.775
112.402
108.79
104.961
100.935
96.733
92.376
87.877
83.265
78.569
73.795
68.949
64.042
59.077
54.087
49.121
44.172
39.236
34.384
29.673
25.152
20.886
16.844
12.951
9.265
5.88
2.58
-0.897
-4.383
-7.889
-11.462
-14.522
-18.615
-25.245
-32.258
-39
-41.517
-35.076
-24.915
-14.528
-9.114
-15.817
-28.321
-41.273
-51.006
-51.459
-46.97
-41.935
-37.334
-35.848
-35.926
-35.572
-35.168
-34.463
-33.593
-32.966
-32.319
-31.442
-30.408
-29.233
-27.896
-26.405
-24.778
-23.026
-21.192
-19.325
-17.411
-15.436
-13.413
-11.345
-9.238
-7.101
-4.935
-2.74
-0.525
1.702
3.933
6.162
8.382
10.588
12.774
14.932
17.058
19.145
21.188
23.181
25.118
26.994
28.803
30.538
32.195
33.767
35.249
36.637
37.925
39.109
40.186
41.153
42.005
42.742
43.36
43.859
44.238
44.496
44.633
44.651
44.551
44.335
44.006
43.567
43.022
42.374
41.626
40.785
39.852
38.834
37.734
36.558
35.312
34.001
32.632
31.211
29.745
28.242
26.709
25.153
23.582
22.002
20.422
18.849
17.289
15.75
14.238
12.761
11.323
9.932
8.593
7.309
6.086
4.926
3.833
2.811
1.861
0.986
0.187
-0.533
-1.172
-1.729
-2.201
-2.589
-2.891
-3.107
-3.238
-3.284
-3.247
-3.128
-2.929
-2.654
-2.304
-1.883
-1.394
-0.84
-0.227
0.441
1.159
1.924
2.728
3.566
4.432
5.321
6.228
7.148
8.076
9.005
9.929
10.844
11.744
12.621
13.466
14.27
15.023
15.719
16.348
16.902
17.372
17.751
18.034
18.219
18.299
18.271
18.128
17.866
17.48
16.966
16.32
15.539
14.618
13.555
12.35
11.007
9.527
7.909
6.15
4.241
2.181
-0.02
-2.354
-4.809
-7.366
-10
-12.675
-15.34
-17.955
-20.477
-22.865
-25.09
-27.109
-28.887
-30.396
-31.599
-32.476
-33.03
-33.264
-33.202
-32.894
-32.39
-31.761
-31.115
-30.543
-30.148
-30.039
-30.295
-30.999
-32.211
-33.957
-36.264
-39.132
-42.494
-46.267
-50.324
-54.488
-58.64
-62.62
-66.179
-69.062
-70.937
-71.447
-70.342
-67.337
-62.102
-54.514
-44.574
-32.475
-18.8
-4.078
11.321
26.851
42.166
57.446
73.064
89.905
109.42
132.522
159.738
191.586
227.576
266.067
304.751
340.091
367.878
384.798
387.922
374.724
344.637
298.748
239.525
171.508
100.024
29.938
-33.637
-86.115
-124.96
-149.04
-158.742
-156.471
-145.156
-127.894
-108.536
-90.439
-75.599
-65.242
-59.578
-57.764
-58.929
-61.936
-65.089
-67.16
-67.588
-66.182
-63.262
-59.389
-54.959
-50.477
-46.617
-43.777
-42.139
-41.74
-42.384
-43.867
-46.056
-48.781
-51.855
-55.144
-58.501
-61.777
-64.903
-67.818
-70.47
-72.838
-74.89
-76.6
-77.977
-79.05
-79.852
-80.41
-80.747
-80.87
-80.802
-80.57
-80.213
-79.775
-79.283
-78.752
-78.189
-77.595
-76.971
-76.312
-75.601
-74.809
-73.911
-72.89
-71.732
-70.429
-68.969
-67.338
-65.521
-63.509
-61.294
-58.872
-56.24
-53.396
-50.34
-47.078
-43.618
-39.97
-36.146
-32.154
-28.006
-23.714
-19.29
-14.75
-10.107
-5.376
-0.575
4.278
9.165
14.066
18.961
23.829
28.651
33.406
38.073
42.632
47.064
51.349
55.469
59.404
63.139
66.656
69.94
72.978
75.757
78.265
80.491
82.427
84.064
85.397
86.422
87.134
87.532
87.616
87.388
86.85
86.008
84.866
83.433
81.716
79.727
77.478
74.981
72.25
69.302
66.152
62.817
59.316
55.668
51.891
48.005
44.029
39.984
35.89
31.766
27.632
23.507
19.411
15.362
11.377
7.473
3.667
-0.027
-3.595
-7.023
-10.3
-13.416
-16.361
-19.129
-21.712
-24.106
-26.307
-28.315
-30.128
-31.748
-33.178
-34.423
-35.488
-36.382
-37.112
-37.688
-38.122
-38.426
-38.612
-38.695
-38.69
-38.612
-38.475
-38.298
-38.094
-37.881
-37.675
-37.49
-37.342
-37.244
-37.212
-37.257
-37.391
-37.625
-37.969
-38.432
-39.019
-39.739
-40.594
-41.588
-42.722
-43.996
-45.409
-46.957
-48.636
-50.44
-52.361
-54.391
-56.519
-58.735
-61.024
-63.374
-65.771
-68.197
-70.639
-73.079
-75.5
-77.886
-80.221
-82.487
-84.67
-86.753
-88.722
-90.564
-92.264
-93.811
-95.193
-96.401
-97.425
-98.258
-98.893
-99.325
-99.551
-99.566
-99.371
-98.965
-98.348
-97.525
-96.497
-95.271
-93.852
-92.249
-90.471
-88.527
-86.428
-84.187
-81.817
-79.33
-76.74
-74.063
-71.31
-68.499
-65.641
-62.752
-59.845
-56.932
-54.028
-51.144
-48.292
-45.483
-42.726
-40.033
-37.412
-34.871
-32.419
-30.063
-27.81
-25.665
-23.634
-21.721
-19.932
-18.267
-16.729
-15.321
-14.04
-12.888
-11.862
-10.959
-10.176
-9.509
-8.953
-8.504
-8.154
-7.899
-7.732
-7.646
-7.635
-7.694
-7.815
-7.992
-8.219
-8.49
-8.798
-9.138
-9.501
-9.882
-10.273
-10.668
-11.06
-11.443
-11.809
-12.151
-12.463
-12.739
-12.973
-13.16
-13.295
-13.372
-13.39
-13.346
-13.237
-13.062
-12.82
-12.511
-12.137
-11.7
-11.201
-10.643
-10.028
-9.359
-8.64
-7.876
-7.07
-6.227
-5.352
-4.452
-3.536
-2.613
-1.692
-0.783
0.105
0.96
1.771
2.529
3.227
3.859
4.416
4.89
5.274
5.56
5.742
5.811
5.758
5.575
5.259
4.809
4.233
3.533
2.708
1.759
0.679
-0.529
-1.861
-3.318
-4.899
-6.592
-8.378
-10.218
-12.055
-13.849
-15.565
-17.172
-18.65
-19.959
-21.055
-21.915
-22.518
-22.848
-22.896
-22.63
-22.032
-21.123
-19.958
-18.633
-17.263
-15.935
-14.71
-13.639
-12.767
-12.189
-12.009
-12.291
-13.089
-14.37
-16.131
-18.485
-21.398
-24.647
-27.832
-30.235
-31.174
-30.418
-27.804
-23.126
-16.588
-8.493
0.487
8.716
14.684
17.876
18.326
16.667
14.247
12.402
13.034
19.533
35.311
62.377
101.39
151.508
210.652
276.331
345.065
411.074
467.843
510.194
533.936
538.218
523.662
488.957
435.819
364.909
278.028
186.301
98.363
24.451
-24.456
-52.466
-64.132
-64.337
-62.205
-56.537
-46.128
-33.796
-20.014
-8.277
-1.718
0.13
-1.879
-6.602
-12.456
-18.08
-22.513
-25.087
-25.549
-24.262
-21.877
-18.891
-15.871
-13.467
-12.024
-11.746
-12.716
-14.768
-17.698
-21.358
-25.547
-30.044
-34.718
-39.434
-44.055
-48.512
-52.721
-56.596
-60.096
-63.187
-65.842
-68.057
-69.837
-71.193
-72.154
-72.75
-73.002
-72.941
-72.596
-72.002
-71.209
-70.251
-69.148
-67.917
-66.559
-65.075
-63.465
-61.716
-59.809
-57.724
-55.447
-52.964
-50.271
-47.358
-44.216
-40.833
-37.201
-33.313
-29.171
-24.776
-20.133
-15.248
-10.131
-4.796
0.738
6.452
12.33
18.353
24.502
30.756
37.09
43.481
49.905
56.336
62.745
69.104
75.383
81.552
87.582
93.444
99.109
104.549
109.734
114.64
119.239
123.508
127.423
130.962
134.105
136.835
139.136
140.996
142.402
143.349
143.828
143.839
143.381
142.457
141.071
139.232
136.95
134.24
131.116
127.598
123.706
119.463
114.895
110.029
104.893
99.518
93.935
88.176
82.274
76.264
70.178
64.052
57.918
51.812
45.764
39.809
33.977
28.299
22.801
17.511
12.454
7.653
3.127
-1.104
-5.024
-8.621
-11.882
-14.799
-17.367
-19.581
-21.441
-22.949
-24.109
-24.928
-25.414
-25.578
-25.434
-24.995
-24.278
-23.3
-22.08
-20.64
-18.999
-17.18
-15.206
-13.1
-10.887
-8.59
-6.233
-3.84
-1.433
0.965
3.332
5.648
7.894
10.049
12.099
14.026
15.816
17.456
18.936
20.246
21.378
22.327
23.089
23.66
24.041
24.232
24.236
24.055
23.696
23.164
22.467
21.614
20.615
19.479
18.22
16.85
15.381
13.827
12.202
10.52
8.796
7.043
5.276
3.508
1.753
0.023
-1.668
-3.31
-4.891
-6.401
-7.83
-9.171
-10.415
-11.556
-12.591
-13.513
-14.322
-15.014
-15.591
-16.053
-16.401
-16.639
-16.771
-16.803
-16.741
-16.591
-16.363
-16.066
-15.71
-15.305
-14.863
-14.395
-13.914
-13.432
-12.961
-12.514
-12.103
-11.741
-11.44
-11.211
-11.068
-11.02
-11.079
-11.254
-11.556
-11.993
-12.572
-13.299
-14.181
-15.22
-16.421
-17.785
-19.311
-20.999
-22.845
-24.847
-26.999
-29.295
-31.725
-34.282
-36.956
-39.733
-42.604
-45.553
-48.569
-51.635
-54.736
-57.859
-60.985
-64.101
-67.189
-70.233
-73.216
-76.123
-78.937
-81.641
-84.222
-86.663
-88.951
-91.072
-93.014
-94.766
-96.318
-97.66
-98.785
-99.688
-100.365
-100.813
-101.029
-101.015
-100.773
-100.304
-99.616
-98.713
-97.602
-96.292
-94.792
-93.113
-91.267
-89.265
-87.12
-84.846
-82.457
-79.969
-77.398
-74.76
-72.07
-69.346
-66.606
-63.866
-61.146
-58.461
-55.828
-53.265
-50.791
-48.425
-46.182
-44.079
-42.13
-40.348
-38.747
-37.336
-36.121
-35.105
-34.293
-33.689
-33.298
-33.126
-33.172
-33.438
-33.922
-34.622
-35.536
-36.654
-37.96
-39.444
-41.094
-42.909
-44.893
-47.046
-49.357
-51.817
-54.411
-57.112
-59.889
-62.701
-65.491
-68.21
-70.82
-73.288
-75.594
-77.707
-79.575
-81.151
-82.385
-83.234
-83.677
-83.677
-83.22
-82.351
-81.129
-79.647
-78.014
-76.277
-74.496
-72.762
-71.156
-69.807
-68.859
-68.374
-68.465
-69.307
-70.891
-73.122
-75.728
-78.076
-79.629
-80.017
-78.727
-75.417
-70.25
-63.593
-56.308
-49.839
-45.149
-42.886
-43.844
-48.063
-54.529
-61.607
-66.746
-66.756
-59.124
-41.566
-11.517
32.339
89.569
158.408
235.572
316.701
397.362
472.568
536.272
583.143
609.614
613.5
594.324
553.385
493.146
417.504
332.363
244.101
158.301
80.178
13.848
-38.406
-75.556
-97.983
-107.998
-108.711
-103.251
-95.193
-87.539
-82.027
-79.739
-80.919
-84.759
-90.17
-95.938
-100.483
-102.738
-102.346
-99.209
-93.699
-86.546
-78.451
-70.196
-62.655
-56.339
-51.467
-48.156
-46.312
-45.797
-46.506
-48.235
-50.729
-53.81
-57.331
-61.156
-65.171
-69.196
-73.021
-76.5
-79.534
-82.066
-84.074
-85.53
-86.421
-86.773
-86.635
-86.059
-85.098
-83.787
-82.16
-80.265
-78.163
-75.921
-73.604
-71.258
-68.906
-66.563
-64.233
-61.914
-59.596
-57.258
-54.869
-52.408
-49.856
-47.202
-44.434
-41.538
-38.497
-35.296
-31.924
-28.373
-24.636
-20.709
-16.593
-12.29
-7.807
-3.153
1.662
6.626
11.73
16.962
22.31
27.76
33.297
38.904
44.567
50.265
55.979
61.686
67.365
72.993
78.548
84.005
89.338
94.521
99.528
104.335
108.919
113.26
117.334
121.121
124.602
127.759
130.578
133.043
135.138
136.848
138.157
139.058
139.549
139.63
139.305
138.574
137.429
135.869
133.898
131.519
128.743
125.577
122.026
118.107
113.843
109.265
104.41
99.305
93.97
88.419
82.659
76.726
70.681
64.59
58.529
52.532
46.583
40.696
34.907
29.245
23.787
18.52
13.282
8.145
3.371
-0.81
-4.076
-6.438
-8.388
-10.108
-11.43
-12.613
-14.143
-16.596
-20.926
-27.156
-34.164
-41.344
-48.541
-55.218
-60.867
-64.704
-65.302
-62.552
-57.805
-51.892
-45.33
-38.733
-32.36
-26.845
-23.451
-22.336
-22.556
-23.513
-24.742
-25.952
-27.305
-28.621
-29.27
-29.14
-28.609
-27.949
-27.48
-27.23
-26.788
-26.056
-25.337
-25.047
-25.632
-27.164
-29.132
-31.137
-33.285
-35.487
-37.309
-37.535
-34.328
-26.945
-16.193
-3.528
9.796
22.79
34.559
42.952
44.631
37.665
22.175
0.229
-25.207
-51.827
-77.85
-100.505
-116.037
-121.373
-114.762
-97.323
-72.168
-42.263
-10.587
19.969
46.647
66.23
75.626
74.198
63.149
44.817
22.892
-0.023
-22.482
-42.235
-56.795
-64.802
-65.463
-59.793
-50.94
-40.848
-30.222
-20.124
-11.443
-4.698
-0.824
-0.067
-0.884
-2.233
-4.459
-5.997
-5.381
-4.477
-3.489
-5.374
-15.786
-32.334
-50.495
-62.799
-58.371
-34.774
2.302
39.77
62.364
60.191
34.381
-1.92
-35.591
-57.005
-64.865
-67.009
-68.601
-71.404
-74.112
-73.015
-67.628
-59.722
-50.669
-41.729
-33.518
-26.623
-22.415
-21.548
-23.494
-27.005
-30.938
-34.847
-38.632
-42.131
-44.843
-46.339
-46.68
-46.361
-45.871
-45.411
-44.969
-44.421
-43.757
-43.074
-42.394
-41.659
-40.791
-39.744
-38.533
-37.233
-35.903
-34.565
-33.222
-31.861
-30.477
-29.079
-27.676
-26.278
-24.894
-23.521
-22.159
-20.807
-19.467
-18.142
-16.838
-15.552
-14.284
-13.036
-11.818
-10.644
-9.531
-8.485
-7.513
-6.617
-5.801
-5.071
-4.436
-3.904
-3.481
-3.174
-2.99
-2.935
-3.019
-3.241
-3.597
-4.083
-4.697
-5.447
-6.347
-7.411
-8.645
-10.053
-11.637
-13.387
-15.285
-17.295
-19.365
-21.447
-23.499
-25.486
-27.392
-29.189
-30.839
-32.297
-33.507
-34.428
-35.034
-35.292
-35.174
-34.7
-33.936
-32.987
-32.006
-31.103
-30.337
-29.797
-29.569
-29.752
-30.487
-31.882
-33.981
-36.903
-40.809
-45.689
-51.406
-57.537
-63.322
-68.122
-71.432
-72.656
-71.336
-67.465
-61.408
-54.25
-47.668
-42.835
-40.632
-41.915
-46.752
-54.275
-62.778
-69.205
-69.931
-61.915
-41.903
-6.698
45.336
112.849
191.478
275.782
361.535
449.631
542.328
635.94
720.054
776.812
789.253
751.434
669.393
556.713
426.033
288.199
152.59
30.866
-61.001
-113.979
-130.699
-123.875
-110.06
-100.097
-94.94
-89.066
-79.593
-67.269
-55.157
-48.084
-47.358
-51.245
-58.265
-66.229
-72.779
-77.097
-78.706
-77.335
-73.756
-68.8
-63.008
-57.205
-52.261
-48.59
-46.45
-45.912
-46.684
-48.545
-51.329
-54.777
-58.667
-62.805
-67.002
-71.107
-74.981
-78.499
-81.562
-84.094
-86.05
-87.413
-88.175
-88.351
-87.992
-87.14
-85.843
-84.151
-82.094
-79.72
-77.093
-74.275
-71.341
-68.346
-65.32
-62.288
-59.267
-56.26
-53.266
-50.271
-47.244
-44.165
-41.018
-37.79
-34.474
-31.058
-27.525
-23.861
-20.051
-16.087
-11.961
-7.67
-3.208
1.424
6.222
11.178
16.28
21.52
26.887
32.373
37.966
43.654
49.424
55.261
61.151
67.078
73.022
78.963
84.882
90.756
96.565
102.285
107.895
113.372
118.692
123.833
128.772
133.489
137.96
142.165
146.085
149.701
152.996
155.955
158.563
160.808
162.68
164.17
165.274
165.986
166.303
166.226
165.757
164.898
163.657
162.039
160.054
157.712
155.025
152.008
148.674
145.04
141.122
136.939
132.509
127.852
122.989
117.941
112.73
107.376
101.902
96.33
90.682
84.978
79.24
73.487
67.738
62.013
56.329
50.703
45.149
39.683
34.317
29.065
23.935
18.939
14.084
9.378
4.828
0.438
-3.786
-7.839
-11.719
-15.423
-18.948
-22.292
-25.455
-28.436
-31.238
-33.86
-36.305
-38.575
-40.673
-42.604
-44.369
-45.974
-47.422
-48.719
-49.867
-50.873
-51.742
-52.478
-53.087
-53.573
-53.941
-54.197
-54.344
-54.387
-54.33
-54.178
-53.934
-53.603
-53.19
-52.699
-52.135
-51.505
-50.812
-50.063
-49.262
-48.415
-47.527
-46.603
-45.647
-44.665
-43.662
-42.642
-41.609
-40.57
-39.527
-38.486
-37.45
-36.423
-35.41
-34.412
-33.434
-32.479
-31.55
-30.65
-29.782
-28.949
-28.154
-27.4
-26.689
-26.024
-25.405
-24.836
-24.316
-23.847
-23.43
-23.065
-22.753
-22.494
-22.287
-22.133
-22.032
-21.982
-21.983
-22.035
-22.135
-22.283
-22.477
-22.716
-22.998
-23.322
-23.687
-24.091
-24.532
-25.009
-25.52
-26.062
-26.634
-27.235
-27.86
-28.51
-29.181
-29.871
-30.578
-31.301
-32.036
-32.783
-33.539
-34.302
-35.069
-35.84
-36.611
-37.381
-38.149
-38.913
-39.67
-40.42
-41.162
-41.894
-42.615
-43.324
-44.02
-44.702
-45.37
-46.023
-46.661
-47.282
-47.887
-48.474
-49.043
-49.593
-50.124
-50.634
-51.121
-51.586
-52.027
-52.441
-52.828
-53.185
-53.511
-53.805
-54.064
-54.286
-54.47
-54.612
-54.71
-54.763
-54.768
-54.723
-54.624
-54.469
-54.255
-53.98
-53.642
-53.236
-52.76
-52.212
-51.588
-50.888
-50.11
-49.253
-48.315
-47.3
-46.207
-45.039
-43.8
-42.494
-41.126
-39.704
-38.235
-36.728
-35.192
-33.637
-32.074
-30.513
-28.967
-27.443
-25.953
-24.505
-23.113
-21.789
-20.546
-19.395
-18.347
-17.415
-16.616
-15.967
-15.479
-15.155
-15.002
-15.027
-15.244
-15.673
-16.322
-17.188
-18.267
-19.554
-21.045
-22.731
-24.585
-26.556
-28.589
-30.638
-32.673
-34.68
-36.633
-38.491
-40.199
-41.7
-42.966
-44.002
-44.799
-45.336
-45.603
-45.614
-45.439
-45.212
-45.061
-45.072
-45.303
-45.783
-46.532
-47.609
-49.103
-51.085
-53.599
-56.642
-60.148
-64.117
-68.609
-73.478
-78.394
-82.826
-85.98
-87.213
-86.297
-83.023
-77.178
-68.928
-58.515
-46.551
-34.544
-23.902
-15.17
-8.467
-3.334
1.43
6.818
14.089
26.078
46.108
76.691
119.797
174.129
235.077
299.324
363.108
426.726
495.621
568.285
640.796
701.61
726.382
702.454
622.877
487.384
321.105
146.29
-14.339
-129.865
-192.623
-201.475
-161.861
-100.664
-38.71
5.632
17.619
2.561
-28.053
-58.74
-74.57
-74.823
-65.854
-54.736
-47.625
-41.255
-29.539
-15.441
-2.298
3.3
-5.848
-22.984
-42.302
-59.785
-69.217
-74.028
-77.046
-78.112
-79.894
-81.969
-83.316
-84.697
-85.967
-87.253
-89.296
-92.194
-95.601
-99.044
-102.04
-104.307
-105.821
-106.728
-107.065
-106.824
-106.087
-104.941
-103.485
-101.816
-99.964
-97.914
-95.677
-93.277
-90.741
-88.111
-85.412
-82.647
-79.818
-76.914
-73.913
-70.802
-67.571
-64.214
-60.729
-57.111
-53.353
-49.452
-45.408
-41.219
-36.882
-32.388
-27.729
-22.907
-17.92
-12.772
-7.472
-2.023
3.568
9.29
15.143
21.126
27.216
33.39
39.632
45.913
52.232
58.601
64.978
71.323
77.67
84.04
90.445
96.912
103.377
109.735
116.011
122.265
128.256
133.704
138.742
143.335
147.413
151.513
154.12
153.757
152.492
150.941
152.915
162.981
176.061
188.768
196.064
191.034
179.788
167.504
157.734
156.345
159.15
161.905
163.674
161.88
158.039
154.104
149.725
145.168
140.326
134.833
128.968
122.964
116.781
110.43
103.965
97.409
90.775
84.085
77.331
70.496
63.627
56.77
49.944
43.18
36.501
29.929
23.495
17.225
11.139
5.256
-0.407
-5.833
-11.005
-15.91
-20.536
-24.873
-28.913
-32.651
-36.083
-39.209
-42.028
-44.545
-46.763
-48.689
-50.331
-51.698
-52.8
-53.649
-54.257
-54.639
-54.808
-54.779
-54.569
-54.195
-53.672
-53.018
-52.251
-51.388
-50.446
-49.441
-48.392
-47.313
-46.222
-45.132
-44.06
-43.019
-42.021
-41.079
-40.203
-39.402
-38.683
-38.053
-37.517
-37.077
-36.736
-36.494
-36.351
-36.306
-36.356
-36.497
-36.727
-37.04
-37.431
-37.894
-38.422
-39.009
-39.648
-40.33
-41.05
-41.8
-42.571
-43.358
-44.152
-44.946
-45.733
-46.505
-47.256
-47.98
-48.668
-49.317
-49.921
-50.476
-50.979
-51.426
-51.816
-52.149
-52.423
-52.64
-52.8
-52.906
-52.958
-52.961
-52.917
-52.83
-52.704
-52.542
-52.349
-52.13
-51.889
-51.63
-51.358
-51.075
-50.788
-50.499
-50.212
-49.932
-49.662
-49.408
-49.173
-48.962
-48.778
-48.627
-48.511
-48.434
-48.4
-48.411
-48.47
-48.579
-48.739
-48.953
-49.221
-49.544
-49.923
-50.357
-50.845
-51.388
-51.983
-52.629
-53.324
-54.066
-54.852
-55.68
-56.548
-57.453
-58.391
-59.361
-60.359
-61.38
-62.421
-63.476
-64.539
-65.605
-66.667
-67.716
-68.747
-69.751
-70.721
-71.647
-72.523
-73.337
-74.083
-74.75
-75.331
-75.815
-76.195
-76.461
-76.607
-76.625
-76.511
-76.258
-75.86
-75.313
-74.613
-73.757
-72.742
-71.566
-70.227
-68.724
-67.059
-65.235
-63.257
-61.132
-58.867
-56.473
-53.958
-51.338
-48.627
-45.847
-43.014
-40.145
-37.26
-34.373
-31.507
-28.682
-25.916
-23.226
-20.622
-18.119
-15.734
-13.488
-11.402
-9.488
-7.749
-6.177
-4.777
-3.563
-2.553
-1.768
-1.218
-0.901
-0.829
-1.022
-1.5
-2.268
-3.305
-4.555
-5.961
-7.492
-9.144
-10.951
-12.919
-14.999
-17.098
-19.096
-20.928
-22.594
-24.106
-25.393
-26.297
-26.764
-27.006
-27.53
-28.851
-31.179
-34.292
-37.837
-41.877
-46.56
-51.593
-56.03
-58.487
-57.995
-54.827
-50.093
-44.376
-37.826
-30.904
-24.886
-22.131
-25.001
-34.109
-48.19
-65.955
-86.588
-109.24
-132.47
-153.332
-167.751
-172.724
-167.551
-152.085
-125.795
-87.847
-37.19
25.927
98.842
178.385
262.742
349.836
436.663
519.156
591.047
646.279
681.489
693.927
682.575
648.086
589.757
510.391
412.495
299.315
182.884
73.134
-17.76
-77.895
-111.625
-124.118
-121.749
-115.151
-103.87
-88.019
-72
-56.638
-45.532
-41.747
-44.074
-51.079
-61.193
-71.979
-81.258
-87.949
-91.402
-91.48
-88.978
-84.778
-79.535
-74.151
-69.512
-66.011
-63.895
-63.211
-63.689
-65.139
-67.419
-70.292
-73.568
-77.108
-80.765
-84.433
-88.006
-91.322
-94.252
-96.708
-98.627
-99.995
-100.803
-101.049
-100.76
-99.982
-98.761
-97.146
-95.169
-92.857
-90.257
-87.422
-84.416
-81.312
-78.157
-74.983
-71.815
-68.661
-65.52
-62.39
-59.248
-56.068
-52.827
-49.51
-46.103
-42.599
-38.985
-35.244
-31.363
-27.325
-23.121
-18.743
-14.182
-9.433
-4.497
0.626
5.929
11.403
17.04
22.833
28.771
34.846
41.045
47.354
53.76
60.246
66.795
73.385
79.995
86.599
93.174
99.693
106.13
112.456
118.643
124.664
130.491
136.097
141.454
146.535
151.315
155.77
159.875
163.608
166.95
169.88
172.381
174.439
176.041
177.176
177.838
178.019
177.717
176.933
175.667
173.926
171.715
169.045
165.927
162.376
158.41
154.047
149.309
144.217
138.799
133.078
127.083
120.842
114.383
107.737
100.933
94.002
86.975
79.881
72.752
65.618
58.508
51.453
44.479
37.615
30.886
24.317
17.93
11.748
5.79
0.074
-5.385
-10.572
-15.475
-20.083
-24.389
-28.386
-32.069
-35.435
-38.484
-41.217
-43.635
-45.743
-47.546
-49.05
-50.264
-51.195
-51.855
-52.254
-52.405
-52.321
-52.015
-51.503
-50.8
-49.923
-48.887
-47.709
-46.407
-44.996
-43.494
-41.917
-40.281
-38.6
-36.889
-35.163
-33.434
-31.715
-30.018
-28.352
-26.729
-25.156
-23.643
-22.196
-20.822
-19.526
-18.313
-17.186
-16.149
-15.205
-14.353
-13.596
-12.932
-12.361
-11.88
-11.487
-11.179
-10.951
-10.798
-10.716
-10.697
-10.737
-10.829
-10.966
-11.144
-11.355
-11.595
-11.857
-12.135
-12.427
-12.725
-13.027
-13.328
-13.625
-13.914
-14.193
-14.46
-14.712
-14.948
-15.167
-15.368
-15.551
-15.716
-15.864
-15.995
-16.111
-16.213
-16.304
-16.387
-16.465
-16.541
-16.618
-16.702
-16.794
-16.9
-17.023
-17.166
-17.332
-17.525
-17.747
-18.001
-18.287
-18.609
-18.967
-19.362
-19.796
-20.268
-20.78
-21.331
-21.921
-22.55
-23.217
-23.921
-24.661
-25.435
-26.242
-27.08
-27.945
-28.837
-29.75
-30.682
-31.628
-32.585
-33.549
-34.513
-35.474
-36.427
-37.365
-38.285
-39.181
-40.048
-40.882
-41.678
-42.431
-43.139
-43.796
-44.398
-44.941
-45.42
-45.831
-46.169
-46.431
-46.61
-46.704
-46.707
-46.615
-46.426
-46.136
-45.74
-45.238
-44.626
-43.904
-43.071
-42.128
-41.077
-39.919
-38.66
-37.304
-35.856
-34.325
-32.718
-31.044
-29.313
-27.536
-25.727
-23.896
-22.057
-20.224
-18.412
-16.632
-14.9
-13.23
-11.636
-10.133
-8.738
-7.466
-6.336
-5.365
-4.568
-3.96
-3.554
-3.354
-3.365
-3.593
-4.044
-4.731
-5.664
-6.844
-8.274
-9.957
-11.888
-14.056
-16.433
-18.974
-21.64
-24.395
-27.213
-30.084
-32.988
-35.896
-38.778
-41.581
-44.265
-46.805
-49.163
-51.29
-53.154
-54.754
-56.148
-57.444
-58.732
-60.054
-61.404
-62.774
-64.206
-65.76
-67.518
-69.574
-71.948
-74.73
-78.146
-82.248
-86.919
-91.783
-96.009
-98.771
-99.539
-97.684
-92.618
-84.46
-73.702
-61.599
-50.523
-42.504
-39.016
-41.57
-50.84
-65.845
-84.759
-104.239
-118.957
-123.849
-114.171
-85.086
-35.038
33.464
117.353
213.327
321.048
442.542
573.558
700.441
799.976
850.573
843.718
785.238
694.27
585.807
463.814
330.466
188.584
52.567
-55.105
-121.154
-145.782
-144.034
-134.889
-128.724
-126.516
-122.006
-111.404
-96.866
-82.508
-73.072
-70.346
-72.939
-79.121
-87.153
-95.125
-101.391
-104.952
-105.408
-103.089
-98.845
-93.451
-87.511
-81.754
-76.927
-73.456
-71.536
-71.107
-71.883
-73.635
-76.186
-79.32
-82.825
-86.543
-90.322
-94.024
-97.537
-100.707
-103.408
-105.565
-107.122
-108.048
-108.335
-107.988
-107.035
-105.533
-103.536
-101.089
-98.236
-95.013
-91.473
-87.68
-83.7
-79.6
-75.428
-71.216
-66.985
-62.749
-58.513
-54.273
-50.014
-45.714
-41.359
-36.938
-32.447
-27.881
-23.233
-18.492
-13.652
-8.707
-3.653
1.51
6.781
12.156
17.628
23.187
28.822
34.517
40.262
46.045
51.853
57.677
63.505
69.324
75.121
80.883
86.597
92.247
97.815
103.286
108.641
113.863
118.934
123.835
128.548
133.055
137.338
141.379
145.161
148.666
151.88
154.787
157.375
159.63
161.543
163.103
164.304
165.139
165.605
165.697
165.416
164.76
163.732
162.335
160.573
158.452
155.979
153.165
150.018
146.553
142.783
138.722
134.388
129.8
124.975
119.934
114.699
109.292
103.736
98.052
92.266
86.4
80.479
74.525
68.563
62.615
56.702
50.846
45.067
39.385
33.819
28.384
23.098
17.975
13.029
8.273
3.718
-0.626
-4.75
-8.646
-12.31
-15.736
-18.923
-21.868
-24.572
-27.035
-29.262
-31.256
-33.022
-34.566
-35.896
-37.02
-37.946
-38.685
-39.247
-39.641
-39.88
-39.974
-39.936
-39.776
-39.506
-39.137
-38.681
-38.148
-37.549
-36.894
-36.194
-35.458
-34.696
-33.915
-33.126
-32.334
-31.548
-30.774
-30.017
-29.282
-28.575
-27.897
-27.252
-26.643
-26.072
-25.539
-25.047
-24.596
-24.186
-23.818
-23.491
-23.205
-22.959
-22.752
-22.583
-22.451
-22.355
-22.293
-22.264
-22.266
-22.299
-22.361
-22.449
-22.562
-22.699
-22.857
-23.034
-23.23
-23.441
-23.667
-23.907
-24.159
-24.423
-24.698
-24.983
-25.279
-25.585
-25.899
-26.221
-26.551
-26.888
-27.23
-27.577
-27.928
-28.282
-28.639
-28.998
-29.358
-29.719
-30.081
-30.442
-30.803
-31.164
-31.525
-31.887
-32.249
-32.613
-32.98
-33.35
-33.724
-34.104
-34.489
-34.879
-35.275
-35.676
-36.082
-36.492
-36.905
-37.321
-37.737
-38.154
-38.572
-38.988
-39.402
-39.814
-40.222
-40.625
-41.022
-41.41
-41.788
-42.152
-42.5
-42.828
-43.134
-43.412
-43.659
-43.869
-44.04
-44.165
-44.24
-44.26
-44.22
-44.116
-43.944
-43.701
-43.385
-42.992
-42.522
-41.974
-41.35
-40.65
-39.876
-39.029
-38.111
-37.124
-36.073
-34.963
-33.795
-32.576
-31.311
-30.009
-28.682
-27.344
-26.005
-24.681
-23.383
-22.124
-20.918
-19.778
-18.712
-17.73
-16.843
-16.057
-15.385
-14.837
-14.42
-14.144
-14.01
-14.013
-14.155
-14.434
-14.848
-15.404
-16.102
-16.949
-17.96
-19.147
-20.518
-22.084
-23.844
-25.789
-27.9
-30.14
-32.486
-34.916
-37.411
-39.947
-42.452
-44.838
-47.045
-49.005
-50.668
-52.035
-52.994
-53.429
-53.449
-53.127
-52.598
-52.109
-51.579
-50.87
-50.207
-49.776
-49.455
-49.381
-49.32
-48.762
-48.02
-47.262
-46.176
-44.798
-43.295
-41.422
-39.679
-39.038
-39.6
-42.083
-47.391
-55.454
-66.198
-79.747
-95.328
-111.551
-126.975
-138.814
-144.33
-141.993
-130.103
-107.066
-71.91
-23.715
37.393
108.845
188.026
271.2
351.868
426.234
491.316
545.936
594.475
634.674
658.29
654.22
607.032
514.217
385.055
237.239
97.544
-16.846
-96.084
-139.53
-160.505
-168.869
-172.557
-175.459
-172.138
-160.61
-142.512
-121.214
-102.937
-90.928
-85.209
-84.782
-87.926
-93.184
-99.077
-103.893
-106.494
-106.485
-104.185
-100.325
-95.519
-90.298
-85.317
-81.27
-78.626
-77.541
-77.888
-79.379
-81.76
-84.845
-88.449
-92.342
-96.326
-100.222
-103.861
-107.154
-110.035
-112.434
-114.315
-115.65
-116.418
-116.634
-116.346
-115.595
-114.427
-112.884
-110.99
-108.787
-106.327
-103.668
-100.874
-97.992
-95.043
-92.045
-89.009
-85.939
-82.832
-79.676
-76.439
-73.1
-69.643
-66.055
-62.331
-58.46
-54.427
-50.219
-45.828
-41.245
-36.47
-31.5
-26.335
-20.979
-15.438
-9.723
-3.848
2.174
8.33
14.608
20.996
27.477
34.036
40.656
47.321
54.011
60.706
67.384
74.021
80.594
87.08
93.455
99.694
105.773
111.667
117.355
122.81
128.012
132.938
137.564
141.872
145.842
149.454
152.694
155.545
157.994
160.03
161.643
162.825
163.572
163.878
163.742
163.165
162.149
160.698
158.818
156.517
153.807
150.698
147.206
143.347
139.137
134.595
129.743
124.601
119.193
113.542
107.672
101.609
95.378
89.008
82.523
75.953
69.324
62.662
55.996
49.35
42.75
36.221
29.788
23.472
17.295
11.278
5.44
-0.202
-5.633
-10.837
-15.802
-20.518
-24.974
-29.164
-33.08
-36.719
-40.077
-43.152
-45.945
-48.455
-50.687
-52.643
-54.329
-55.752
-56.921
-57.843
-58.53
-58.993
-59.244
-59.296
-59.164
-58.862
-58.405
-57.808
-57.087
-56.258
-55.337
-54.34
-53.28
-52.174
-51.034
-49.875
-48.708
-47.546
-46.398
-45.276
-44.189
-43.145
-42.153
-41.22
-40.352
-39.555
-38.834
-38.194
-37.637
-37.166
-36.783
-36.489
-36.283
-36.164
-36.131
-36.181
-36.31
-36.513
-36.787
-37.124
-37.518
-37.962
-38.449
-38.971
-39.521
-40.092
-40.675
-41.265
-41.855
-42.439
-43.01
-43.565
-44.096
-44.601
-45.076
-45.515
-45.916
-46.275
-46.59
-46.857
-47.075
-47.241
-47.354
-47.413
-47.416
-47.364
-47.257
-47.097
-46.885
-46.623
-46.316
-45.966
-45.58
-45.162
-44.719
-44.255
-43.778
-43.295
-42.811
-42.333
-41.866
-41.417
-40.99
-40.591
-40.223
-39.891
-39.597
-39.345
-39.136
-38.973
-38.858
-38.792
-38.775
-38.81
-38.896
-39.034
-39.223
-39.464
-39.755
-40.093
-40.475
-40.9
-41.361
-41.852
-42.367
-42.898
-43.437
-43.975
-44.503
-45.011
-45.489
-45.927
-46.315
-46.643
-46.904
-47.086
-47.183
-47.187
-47.091
-46.891
-46.581
-46.156
-45.613
-44.95
-44.164
-43.256
-42.224
-41.067
-39.785
-38.38
-36.856
-35.216
-33.465
-31.608
-29.653
-27.612
-25.5
-23.33
-21.118
-18.879
-16.633
-14.399
-12.193
-10.031
-7.928
-5.897
-3.955
-2.118
-0.401
1.18
2.609
3.874
4.958
5.851
6.55
7.056
7.368
7.486
7.402
7.102
6.578
5.823
4.83
3.595
2.123
0.436
-1.425
-3.403
-5.444
-7.501
-9.541
-11.529
-13.427
-15.188
-16.764
-18.114
-19.204
-19.996
-20.445
-20.515
-20.219
-19.628
-18.855
-18.034
-17.281
-16.658
-16.23
-16.086
-16.328
-17.083
-18.47
-20.531
-23.326
-26.986
-31.591
-37.068
-43.026
-48.681
-53.206
-55.884
-56.092
-53.501
-47.927
-39.453
-29.45
-19.817
-12.162
-8.676
-9.173
-12.211
-18.823
-27.629
-38.822
-52.875
-60.686
-53.941
-23.455
39.532
127.209
228.87
334.173
431.781
525.11
618.455
707.302
784.145
830.265
826.313
767.068
655.468
505.25
338.922
176.684
38.382
-61.242
-118.3
-138.032
-134.605
-121.796
-108.295
-96.807
-83.538
-67.474
-50.72
-35.99
-27.785
-27.639
-33.668
-43.784
-55.211
-65.057
-72.13
-75.962
-76.31
-73.847
-69.444
-63.81
-57.929
-52.822
-48.971
-46.596
-45.741
-46.126
-47.533
-49.816
-52.721
-56.02
-59.554
-63.175
-66.778
-70.268
-73.495
-76.331
-78.692
-80.515
-81.788
-82.508
-82.672
-82.313
-81.473
-80.199
-78.539
-76.524
-74.183
-71.561
-68.71
-65.693
-62.581
-59.421
-56.245
-53.079
-49.932
-46.805
-43.697
-40.589
-37.456
-34.278
-31.043
-27.74
-24.363
-20.901
-17.339
-13.665
-9.864
-5.927
-1.847
2.383
6.768
11.308
16.002
20.844
25.824
30.935
36.171
41.521
46.976
52.526
58.157
63.857
69.612
75.406
81.22
87.037
92.834
98.591
104.287
109.899
115.403
120.779
126.001
131.048
135.899
140.53
144.92
149.048
152.895
156.44
159.666
162.557
165.094
167.266
169.06
170.465
171.473
172.078
172.277
172.066
171.447
170.422
168.995
167.171
164.961
162.372
159.42
156.116
152.479
148.526
144.277
139.751
134.972
129.961
124.743
119.341
113.779
108.082
102.274
96.382
90.428
84.438
78.437
72.447
66.492
60.594
54.774
49.051
43.444
37.97
32.645
27.484
22.5
17.704
13.106
8.716
4.54
0.584
-3.148
-6.653
-9.931
-12.982
-15.808
-18.412
-20.799
-22.974
-24.942
-26.712
-28.291
-29.687
-30.911
-31.971
-32.879
-33.645
-34.28
-34.794
-35.201
-35.509
-35.729
-35.873
-35.949
-35.969
-35.94
-35.872
-35.773
-35.652
-35.516
-35.372
-35.227
-35.085
-34.954
-34.837
-34.739
-34.663
-34.612
-34.588
-34.594
-34.63
-34.698
-34.798
-34.929
-35.091
-35.283
-35.503
-35.748
-36.017
-36.307
-36.615
-36.939
-37.277
-37.625
-37.982
-38.345
-38.712
-39.082
-39.453
-39.823
-40.191
-40.555
-40.915
-41.268
-41.614
-41.951
-42.28
-42.599
-42.907
-43.203
-43.486
-43.758
-44.016
-44.261
-44.494
-44.713
-44.92
-45.117
-45.306
-45.487
-45.664
-45.839
-46.015
-46.194
-46.381
-46.577
-46.783
-47.002
-47.235
-47.484
-47.754
-48.046
-48.362
-48.705
-49.075
-49.477
-49.912
-50.382
-50.886
-51.425
-51.996
-52.604
-53.253
-53.946
-54.687
-55.473
-56.3
-57.166
-58.068
-59.005
-59.972
-60.964
-61.972
-62.997
-64.035
-65.09
-66.164
-67.247
-68.331
-69.403
-70.444
-71.467
-72.482
-73.499
-74.539
-75.578
-76.585
-77.566
-78.508
-79.412
-80.312
-81.121
-81.74
-82.305
-82.901
-83.636
-84.683
-85.834
-86.802
-87.68
-88.521
-88.997
-88.945
-87.96
-85.523
-82.147
-78.422
-74.352
-70.091
-66.018
-62.274
-59.515
-58.5
-58.595
-59.14
-60.022
-60.906
-61.603
-62.131
-61.917
-60.353
-57.934
-55.119
-52.087
-49.199
-46.465
-43.787
-41.481
-39.834
-38.67
-37.86
-37.317
-36.869
-36.594
-36.592
-36.797
-37.174
-37.728
-38.424
-39.259
-40.242
-41.314
-42.43
-43.562
-44.665
-45.715
-46.681
-47.528
-48.24
-48.798
-49.18
-49.373
-49.377
-49.242
-49.083
-49.008
-49.113
-49.458
-50.057
-50.953
-52.221
-53.93
-56.155
-58.96
-62.336
-66.34
-71.131
-76.707
-82.899
-89.293
-95.102
-99.57
-102.183
-102.353
-99.46
-93.414
-84.502
-73.661
-62.791
-53.626
-47.441
-45.538
-48.664
-56.261
-66.927
-77.991
-85.215
-84.288
-70.914
-41.051
8.038
75.638
157.762
251.208
351.99
457.241
566.81
670.892
753.73
802.801
804.534
758.693
678.786
572.385
447.651
312.457
170.917
39.369
-62.007
-122.907
-142.959
-135.734
-119.085
-103.865
-92.394
-80.502
-66.186
-51.004
-38.157
-32.002
-33.37
-40.122
-50.39
-61.633
-71.281
-78.35
-82.241
-82.707
-80.591
-76.81
-72.049
-67.24
-63.257
-60.494
-59.185
-59.363
-60.734
-63.08
-66.215
-69.872
-73.845
-77.952
-82.032
-85.958
-89.596
-92.821
-95.536
-97.667
-99.176
-100.057
-100.308
-99.948
-99.029
-97.595
-95.698
-93.392
-90.71
-87.704
-84.439
-80.983
-77.42
-73.812
-70.197
-66.611
-63.074
-59.596
-56.179
-52.816
-49.482
-46.16
-42.84
-39.511
-36.172
-32.813
-29.42
-25.979
-22.476
-18.899
-15.24
-11.489
-7.639
-3.683
0.38
4.551
8.825
13.201
17.68
22.261
26.942
31.721
36.594
41.556
46.599
51.716
56.894
62.12
67.379
72.653
77.925
83.175
88.385
93.533
98.599
103.56
108.395
113.082
117.598
121.923
126.033
129.907
133.525
136.865
139.909
142.638
145.034
147.08
148.762
150.066
150.98
151.493
151.597
151.287
150.558
149.408
147.839
145.855
143.461
140.667
137.484
133.927
130.011
125.755
121.178
116.302
111.15
105.746
100.115
94.284
88.278
82.125
75.854
69.491
63.065
56.604
50.135
43.687
37.285
30.958
24.729
18.626
12.67
6.886
1.295
-4.084
-9.233
-14.136
-18.779
-23.151
-27.243
-31.048
-34.56
-37.778
-40.701
-43.33
-45.669
-47.723
-49.499
-51.004
-52.25
-53.246
-54.004
-54.538
-54.861
-54.987
-54.931
-54.708
-54.335
-53.828
-53.203
-52.476
-51.665
-50.787
-49.859
-48.896
-47.914
-46.928
-45.952
-44.998
-44.079
-43.204
-42.383
-41.624
-40.932
-40.314
-39.772
-39.309
-38.928
-38.627
-38.406
-38.263
-38.196
-38.2
-38.272
-38.408
-38.602
-38.849
-39.144
-39.48
-39.852
-40.251
-40.672
-41.107
-41.549
-41.99
-42.422
-42.838
-43.231
-43.595
-43.923
-44.21
-44.451
-44.642
-44.779
-44.859
-44.88
-44.84
-44.737
-44.574
-44.348
-44.063
-43.72
-43.321
-42.869
-42.367
-41.819
-41.228
-40.599
-39.934
-39.237
-38.513
-37.766
-37.001
-36.223
-35.436
-34.646
-33.86
-33.081
-32.317
-31.572
-30.852
-30.163
-29.508
-28.895
-28.327
-27.81
-27.348
-26.947
-26.611
-26.343
-26.148
-26.027
-25.984
-26.02
-26.137
-26.335
-26.616
-26.979
-27.425
-27.954
-28.565
-29.257
-30.03
-30.882
-31.809
-32.81
-33.879
-35.014
-36.209
-37.458
-38.755
-40.094
-41.467
-42.868
-44.286
-45.714
-47.14
-48.555
-49.948
-51.307
-52.622
-53.88
-55.07
-56.181
-57.203
-58.127
-58.943
-59.642
-60.217
-60.66
-60.966
-61.128
-61.142
-61.004
-60.709
-60.258
-59.65
-58.885
-57.964
-56.892
-55.674
-54.318
-52.835
-51.236
-49.533
-47.74
-45.872
-43.946
-41.978
-39.981
-37.971
-35.963
-33.975
-32.028
-30.143
-28.339
-26.634
-25.047
-23.591
-22.281
-21.127
-20.128
-19.289
-18.616
-18.122
-17.831
-17.765
-17.935
-18.352
-19.021
-19.928
-21.058
-22.38
-23.84
-25.397
-27.01
-28.642
-30.281
-31.891
-33.42
-34.824
-36.026
-36.957
-37.573
-37.81
-37.625
-37.054
-36.134
-34.949
-33.627
-32.221
-30.807
-29.505
-28.394
-27.621
-27.341
-27.611
-28.595
-30.528
-33.432
-37.239
-41.629
-45.84
-49.255
-51.417
-51.671
-49.609
-45.293
-39.062
-32.145
-26.402
-23.143
-23.391
-27.984
-36.803
-48.887
-62.358
-73.58
-78.349
-73.28
-55.027
-20.638
31.505
102.18
188.791
284.22
381.434
473.915
560.056
644.307
725.805
799.876
853.75
864.438
820.786
719.837
567.267
389.779
210.094
49.673
-65.872
-132.326
-152.837
-136.923
-108.532
-81.202
-60.536
-48.632
-38.696
-28.033
-18.612
-12.373
-12.805
-20.311
-32.266
-45.858
-57.837
-66.466
-71.484
-72.846
-71.114
-67.111
-61.654
-55.844
-50.788
-47.042
-44.797
-44.059
-44.593
-46.221
-48.807
-52.102
-55.861
-59.91
-64.129
-68.436
-72.755
-76.953
-80.858
-84.34
-87.317
-89.752
-91.633
-92.953
-93.717
-93.945
-93.681
-92.971
-91.848
-90.342
-88.48
-86.299
-83.85
-81.194
-78.39
-75.482
-72.498
-69.451
-66.342
-63.169
-59.921
-56.578
-53.115
-49.512
-45.755
-41.836
-37.749
-33.485
-29.034
-24.386
-19.533
-14.471
-9.2
-3.719
1.967
7.85
13.919
20.16
26.556
33.09
39.745
46.505
53.35
60.262
67.218
74.198
81.18
88.137
95.046
101.879
108.609
115.208
121.649
127.905
133.949
139.754
145.294
150.547
155.487
160.092
164.342
168.216
171.698
174.77
177.42
179.633
181.401
182.716
183.571
183.963
183.892
183.359
182.367
180.922
179.033
176.709
173.963
170.81
167.266
163.35
159.082
154.484
149.579
144.393
138.95
133.277
127.4
121.348
115.147
108.825
102.409
95.927
89.405
82.87
76.349
69.865
63.444
57.109
50.881
44.781
38.829
33.044
27.441
22.036
16.843
11.874
7.138
2.644
-1.6
-5.591
-9.324
-12.799
-16.015
-18.973
-21.677
-24.13
-26.336
-28.303
-30.037
-31.545
-32.836
-33.92
-34.806
-35.506
-36.029
-36.388
-36.594
-36.66
-36.598
-36.42
-36.139
-35.767
-35.317
-34.801
-34.232
-33.62
-32.976
-32.313
-31.638
-30.962
-30.293
-29.637
-29.001
-28.39
-27.81
-27.263
-26.755
-26.286
-25.86
-25.479
-25.142
-24.851
-24.606
-24.406
-24.25
-24.137
-24.064
-24.03
-24.032
-24.066
-24.129
-24.217
-24.326
-24.451
-24.588
-24.731
-24.875
-25.015
-25.145
-25.261
-25.357
-25.431
-25.477
-25.495
-25.48
-25.432
-25.349
-25.231
-25.075
-24.884
-24.656
-24.393
-24.095
-23.764
-23.402
-23.011
-22.594
-22.152
-21.69
-21.209
-20.715
-20.209
-19.696
-19.181
-18.667
-18.16
-17.665
-17.188
-16.733
-16.308
-15.917
-15.565
-15.259
-15.003
-14.8
-14.655
-14.57
-14.548
-14.592
-14.702
-14.881
-15.13
-15.447
-15.834
-16.289
-16.811
-17.399
-18.049
-18.76
-19.528
-20.351
-21.225
-22.145
-23.109
-24.111
-25.148
-26.214
-27.305
-28.413
-29.532
-30.657
-31.779
-32.892
-33.988
-35.061
-36.102
-37.105
-38.063
-38.972
-39.824
-40.612
-41.333
-41.98
-42.55
-43.037
-43.439
-43.751
-43.972
-44.101
-44.136
-44.077
-43.924
-43.678
-43.34
-42.912
-42.396
-41.794
-41.111
-40.35
-39.517
-38.618
-37.66
-36.652
-35.602
-34.521
-33.422
-32.318
-31.222
-30.149
-29.114
-28.131
-27.216
-26.383
-25.644
-25.01
-24.493
-24.104
-23.857
-23.764
-23.837
-24.088
-24.527
-25.161
-26.002
-27.052
-28.306
-29.764
-31.423
-33.29
-35.379
-37.697
-40.243
-43.019
-46.017
-49.225
-52.618
-56.156
-59.776
-63.425
-67.052
-70.618
-74.102
-77.469
-80.677
-83.677
-86.403
-88.817
-90.893
-92.594
-93.886
-94.781
-95.327
-95.627
-95.84
-96.073
-96.393
-96.869
-97.565
-98.575
-100.01
-101.974
-104.515
-107.693
-111.649
-116.402
-121.833
-127.609
-133.044
-137.423
-140.194
-140.742
-138.418
-133.134
-125.183
-115.336
-105.304
-96.51
-89.857
-86.643
-87.773
-92.748
-100.31
-107.987
-111.692
-108.221
-94.748
-67.13
-22.198
41.212
121.335
212.427
307.789
402.943
497.768
592.54
682.058
756.558
799.68
795.411
738.9
632.512
488.036
325.1
162.749
21.642
-82.169
-142.682
-163.962
-160.753
-147.406
-133.569
-122.393
-109.42
-93.339
-76.063
-60.297
-51.096
-50.357
-56.313
-66.955
-79.389
-90.506
-99.006
-104.345
-106.186
-105.153
-102.097
-97.693
-92.942
-88.938
-86.208
-84.991
-85.356
-87.014
-89.737
-93.388
-97.705
-102.443
-107.436
-112.523
-117.589
-122.536
-127.202
-131.448
-135.177
-138.313
-140.833
-142.724
-143.973
-144.605
-144.659
-144.172
-143.186
-141.73
-139.826
-137.517
-134.856
-131.907
-128.742
-125.413
-121.953
-118.391
-114.738
-110.998
-107.171
-103.237
-99.173
-94.962
-90.592
-86.057
-81.354
-76.476
-71.411
-66.152
-60.69
-55.02
-49.142
-43.055
-36.762
-30.269
-23.588
-16.732
-9.719
-2.565
4.715
12.103
19.584
27.14
34.75
42.397
50.059
57.714
65.339
72.908
80.394
87.771
95.013
102.09
108.977
115.644
122.066
128.215
134.066
139.594
144.774
149.582
153.998
158.002
161.575
164.701
167.365
169.556
171.265
172.486
173.213
173.444
173.181
172.425
171.182
169.46
167.268
164.618
161.523
158
154.067
149.746
145.059
140.029
134.684
129.05
123.155
117.028
110.699
104.197
97.553
90.795
83.955
77.064
70.149
63.239
56.362
49.545
42.812
36.188
29.693
23.347
17.169
11.174
5.378
-0.208
-5.574
-10.71
-15.609
-20.262
-24.666
-28.819
-32.72
-36.371
-39.771
-42.926
-45.846
-48.539
-51.018
-53.292
-55.372
-57.267
-58.992
-60.557
-61.977
-63.262
-64.417
-65.454
-66.393
-67.25
-68.046
-68.788
-69.47
-70.089
-70.649
-71.149
-71.588
-71.96
-72.247
-72.448
-72.585
-72.673
-72.738
-72.782
-72.787
-72.74
-72.627
-72.448
-72.23
-71.982
-71.694
-71.376
-71.044
-70.723
-70.46
-70.248
-70.028
-69.749
-69.359
-68.831
-68.176
-67.389
-66.456
-65.357
-64.057
-62.54
-60.817
-58.866
-56.644
-54.106
-51.18
-47.868
-44.25
-40.386
-36.334
-32.134
-27.79
-23.331
-18.806
-14.25
-9.695
-5.165
-0.662
3.778
8.087
12.202
16.042
19.581
22.856
25.884
28.675
31.234
33.545
35.609
37.449
39.065
40.443
41.565
42.409
42.975
43.283
43.353
43.207
42.846
42.248
41.401
40.301
38.944
37.334
35.468
33.336
30.945
28.316
25.469
22.428
19.21
15.823
12.283
8.606
4.813
0.926
-3.031
-7.038
-11.073
-15.112
-19.132
-23.109
-27.02
-30.85
-34.583
-38.201
-41.688
-45.026
-48.197
-51.189
-53.984
-56.569
-58.928
-61.049
-62.919
-64.528
-65.87
-66.935
-67.718
-68.216
-68.424
-68.342
-67.972
-67.317
-66.381
-65.171
-63.696
-61.967
-59.996
-57.797
-55.385
-52.775
-49.985
-47.032
-43.935
-40.714
-37.387
-33.976
-30.503
-26.99
-23.466
-19.954
-16.481
-13.073
-9.756
-6.554
-3.493
-0.594
2.126
4.65
6.959
9.036
10.861
12.421
13.703
14.697
15.395
15.793
15.891
15.693
15.211
14.45
13.416
12.112
10.531
8.669
6.534
4.134
1.488
-1.375
-4.424
-7.617
-10.897
-14.215
-17.52
-20.764
-23.908
-26.899
-29.684
-32.214
-34.42
-36.242
-37.626
-38.538
-38.987
-39.003
-38.633
-37.925
-36.93
-35.721
-34.412
-33.123
-31.992
-31.162
-30.703
-30.737
-31.463
-32.91
-35.001
-37.472
-39.715
-41.232
-41.726
-40.755
-37.968
-33.505
-27.694
-21.379
-16.069
-12.738
-11.991
-14.689
-20.938
-29.793
-39.758
-48.231
-51.714
-47.677
-34.049
-7.781
33.12
88.64
157.921
236.439
316.451
394.191
466.779
531.868
592.242
641.869
669.756
667.66
622.097
534.527
417.851
284.067
156.624
48.268
-37.432
-93.916
-129.15
-148.626
-153.348
-151.235
-142.244
-126.722
-109.931
-93.162
-79.604
-72.507
-71.53
-75.789
-83.719
-92.85
-100.846
-106.454
-109.113
-108.643
-105.602
-100.716
-94.579
-88.089
-82.238
-77.515
-74.161
-72.236
-71.48
-71.706
-72.801
-74.538
-76.701
-79.136
-81.69
-84.252
-86.73
-88.983
-90.888
-92.365
-93.354
-93.84
-93.821
-93.298
-92.307
-90.893
-89.103
-86.985
-84.573
-81.895
-78.997
-75.93
-72.752
-69.527
-66.296
-63.085
-59.916
-56.796
-53.721
-50.686
-47.669
-44.639
-41.577
-38.463
-35.283
-32.026
-28.675
-25.212
-21.621
-17.887
-13.995
-9.939
-5.708
-1.297
3.297
8.072
13.024
18.147
23.434
28.878
34.472
40.206
46.068
52.045
58.123
64.284
70.511
76.783
83.078
89.372
95.641
101.859
108.003
114.043
119.954
125.709
131.28
136.64
141.762
146.619
151.187
155.44
159.356
162.914
166.093
168.874
171.242
173.182
174.681
175.73
176.321
176.448
176.11
175.305
174.038
172.313
170.139
167.525
164.486
161.036
157.193
152.977
148.408
143.509
138.305
132.82
127.083
121.121
114.962
108.636
102.173
95.602
88.952
82.255
75.537
68.827
62.153
55.541
49.016
42.602
36.323
30.199
24.249
18.493
12.945
7.62
2.529
-2.317
-6.91
-11.245
-15.316
-19.121
-22.659
-25.931
-28.939
-31.686
-34.177
-36.418
-38.416
-40.18
-41.72
-43.045
-44.166
-45.095
-45.844
-46.424
-46.848
-47.128
-47.276
-47.304
-47.223
-47.045
-46.781
-46.442
-46.037
-45.577
-45.068
-44.52
-43.94
-43.334
-42.708
-42.067
-41.415
-40.757
-40.095
-39.433
-38.773
-38.116
-37.465
-36.819
-36.18
-35.547
-34.92
-34.299
-33.682
-33.068
-32.457
-31.848
-31.239
-30.63
-30.02
-29.408
-28.795
-28.18
-27.564
-26.947
-26.33
-25.715
-25.103
-24.495
-23.894
-23.301
-22.719
-22.151
-21.597
-21.062
-20.547
-20.054
-19.585
-19.144
-18.73
-18.348
-17.998
-17.682
-17.403
-17.163
-16.963
-16.806
-16.694
-16.628
-16.61
-16.641
-16.722
-16.854
-17.037
-17.271
-17.556
-17.89
-18.273
-18.703
-19.178
-19.697
-20.257
-20.857
-21.494
-22.166
-22.87
-23.606
-24.37
-25.162
-25.979
-26.821
-27.688
-28.577
-29.487
-30.419
-31.372
-32.343
-33.331
-34.334
-35.351
-36.379
-37.415
-38.457
-39.503
-40.549
-41.593
-42.633
-43.666
-44.69
-45.701
-46.699
-47.68
-48.641
-49.581
-50.497
-51.386
-52.243
-53.066
-53.851
-54.594
-55.291
-55.935
-56.521
-57.044
-57.498
-57.877
-58.174
-58.383
-58.5
-58.518
-58.435
-58.246
-57.95
-57.543
-57.024
-56.392
-55.649
-54.794
-53.83
-52.758
-51.58
-50.299
-48.921
-47.449
-45.89
-44.248
-42.53
-40.748
-38.91
-37.028
-35.114
-33.18
-31.241
-29.311
-27.405
-25.535
-23.714
-21.954
-20.269
-18.674
-17.18
-15.8
-14.549
-13.44
-12.489
-11.707
-11.1
-10.669
-10.416
-10.344
-10.462
-10.779
-11.302
-12.03
-12.968
-14.119
-15.48
-17.036
-18.748
-20.56
-22.418
-24.271
-26.081
-27.812
-29.413
-30.83
-32.012
-32.916
-33.517
-33.794
-33.701
-33.211
-32.33
-31.114
-29.687
-28.19
-26.747
-25.465
-24.442
-23.775
-23.559
-23.889
-24.833
-26.454
-28.799
-31.918
-35.895
-40.729
-46.302
-52.327
-58.223
-63.241
-66.64
-67.894
-66.661
-62.747
-56.103
-47.047
-36.759
-27.164
-20.27
-15.743
-10.919
-3.668
6.509
15.184
16.015
9.208
3.676
15.119
57.721
136.744
243.56
362.859
485.405
600.763
701.534
780.8
819.874
808.361
746.513
637.921
496.728
338
173.056
20.03
-98.559
-169.52
-188.889
-167.139
-129.188
-92.066
-63.53
-43.994
-25.237
-4.469
15.754
32.194
39.428
35.169
21.279
0.617
-22.707
-45.066
-64.778
-80.992
-93.004
-100.137
-102.326
-100.291
-95.579
-90.147
-85.145
-81.003
-78.046
-76.617
-76.916
-78.948
-82.303
-86.21
-90.196
-94.1
-97.802
-101.229
-104.269
-106.775
-108.723
-110.219
-111.317
-112.013
-112.29
-112.094
-111.414
-110.283
-108.727
-106.773
-104.457
-101.813
-98.894
-95.766
-92.481
-89.075
-85.581
-82.016
-78.392
-74.721
-71.004
-67.233
-63.406
-59.515
-55.557
-51.525
-47.413
-43.212
-38.915
-34.517
-30.014
-25.404
-20.687
-15.863
-10.935
-5.91
-0.796
4.399
9.665
14.994
20.376
25.8
31.257
36.733
42.218
47.699
53.164
58.597
63.982
69.303
74.544
79.686
84.712
89.604
94.343
98.911
103.291
107.464
111.415
115.125
118.58
121.765
124.666
127.27
129.566
131.542
133.189
134.497
135.461
136.073
136.33
136.228
135.766
134.943
133.763
132.228
130.343
128.115
125.552
122.664
119.462
115.958
112.167
108.104
103.785
99.229
94.454
89.48
84.325
79.012
73.56
67.991
62.325
56.585
50.79
44.962
39.122
33.291
27.491
21.741
16.061
10.471
4.99
-0.365
-5.577
-10.63
-15.511
-20.204
-24.7
-28.985
-33.052
-36.89
-40.494
-43.858
-46.977
-49.848
-52.471
-54.844
-56.971
-58.853
-60.493
-61.897
-63.07
-64.019
-64.75
-65.272
-65.593
-65.723
-65.673
-65.454
-65.077
-64.555
-63.9
-63.127
-62.247
-61.274
-60.22
-59.099
-57.923
-56.703
-55.452
-54.181
-52.901
-51.622
-50.354
-49.105
-47.884
-46.697
-45.55
-44.449
-43.396
-42.396
-41.451
-40.563
-39.732
-38.959
-38.244
-37.586
-36.984
-36.434
-35.935
-35.482
-35.071
-34.699
-34.359
-34.047
-33.758
-33.486
-33.227
-32.976
-32.728
-32.477
-32.22
-31.952
-31.67
-31.368
-31.045
-30.697
-30.322
-29.919
-29.487
-29.026
-28.537
-28.02
-27.477
-26.91
-26.322
-25.715
-25.092
-24.456
-23.813
-23.166
-22.522
-21.884
-21.258
-20.652
-20.07
-19.518
-19.001
-18.526
-18.098
-17.72
-17.399
-17.139
-16.943
-16.816
-16.762
-16.784
-16.884
-17.065
-17.329
-17.677
-18.11
-18.628
-19.23
-19.917
-20.688
-21.541
-22.474
-23.487
-24.576
-25.739
-26.972
-28.269
-29.628
-31.042
-32.506
-34.013
-35.557
-37.132
-38.73
-40.346
-41.972
-43.602
-45.228
-46.843
-48.441
-50.014
-51.554
-53.056
-54.51
-55.91
-57.249
-58.52
-59.718
-60.834
-61.863
-62.797
-63.629
-64.354
-64.964
-65.454
-65.817
-66.048
-66.142
-66.098
-65.911
-65.58
-65.103
-64.481
-63.713
-62.803
-61.752
-60.562
-59.238
-57.784
-56.206
-54.511
-52.705
-50.797
-48.796
-46.716
-44.569
-42.37
-40.132
-37.87
-35.601
-33.341
-31.104
-28.905
-26.755
-24.668
-22.659
-20.745
-18.943
-17.268
-15.735
-14.357
-13.144
-12.108
-11.253
-10.578
-10.08
-9.763
-9.633
-9.708
-10.003
-10.524
-11.276
-12.257
-13.454
-14.851
-16.416
-18.103
-19.867
-21.67
-23.477
-25.273
-27.029
-28.7
-30.239
-31.58
-32.668
-33.465
-33.923
-34.012
-33.756
-33.194
-32.404
-31.496
-30.524
-29.548
-28.672
-27.972
-27.559
-27.577
-28.092
-29.245
-31.282
-34.239
-38.012
-42.331
-46.53
-49.972
-52.252
-52.724
-50.701
-46.202
-39.626
-31.911
-24.957
-20.233
-18.613
-21.376
-29.421
-42.029
-57.466
-72.916
-84.049
-87.079
-78.639
-54.321
-10.47
52.319
129.992
217.853
311.242
411.015
520.596
635.399
742.065
819.894
849.316
821.073
740.708
625.514
490.061
350.45
221.041
107.28
20.37
-36.101
-70.474
-87.073
-94.701
-99.432
-97.603
-89.404
-77.095
-62.944
-52.274
-48
-49.769
-56.39
-65.816
-75.803
-84.246
-89.837
-91.982
-90.527
-86.084
-79.485
-71.48
-63.07
-55.332
-48.878
-44.005
-40.814
-39.102
-38.693
-39.488
-41.264
-43.767
-46.821
-50.26
-53.955
-57.815
-61.666
-65.299
-68.563
-71.341
-73.568
-75.227
-76.298
-76.772
-76.678
-76.062
-74.975
-73.467
-71.575
-69.337
-66.804
-64.038
-61.111
-58.098
-55.051
-52.004
-48.978
-45.978
-43.006
-40.054
-37.1
-34.116
-31.081
-27.979
-24.797
-21.528
-18.157
-14.67
-11.054
-7.295
-3.386
0.678
4.901
9.284
13.822
18.51
23.337
28.291
33.361
38.537
43.808
49.162
54.589
60.073
65.6
71.157
76.726
82.288
87.824
93.313
98.733
104.063
109.279
114.359
119.278
124.015
128.545
132.846
136.896
140.671
144.152
147.319
150.154
152.641
154.764
156.512
157.872
158.838
159.402
159.56
159.308
158.647
157.578
156.104
154.231
151.965
149.317
146.298
142.919
139.198
135.151
130.797
126.157
121.251
116.105
110.743
105.189
99.472
93.619
87.657
81.614
75.52
69.402
63.288
57.204
51.176
45.229
39.386
33.668
28.095
22.687
17.46
12.429
7.608
3.009
-1.358
-5.485
-9.364
-12.991
-16.363
-19.477
-22.334
-24.936
-27.287
-29.39
-31.253
-32.883
-34.291
-35.485
-36.479
-37.286
-37.918
-38.391
-38.719
-38.918
-39.003
-38.989
-38.891
-38.722
-38.497
-38.227
-37.926
-37.603
-37.269
-36.934
-36.605
-36.291
-35.998
-35.731
-35.495
-35.295
-35.133
-35.011
-34.931
-34.892
-34.895
-34.939
-35.021
-35.139
-35.288
-35.466
-35.665
-35.882
-36.11
-36.341
-36.57
-36.79
-36.993
-37.174
-37.327
-37.446
-37.527
-37.565
-37.557
-37.5
-37.392
-37.231
-37.017
-36.749
-36.428
-36.055
-35.631
-35.159
-34.64
-34.078
-33.476
-32.837
-32.165
-31.464
-30.74
-29.996
-29.24
-28.475
-27.711
-26.952
-26.206
-25.48
-24.783
-24.12
-23.5
-22.929
-22.413
-21.959
-21.573
-21.258
-21.02
-20.863
-20.789
-20.801
-20.902
-21.091
-21.372
-21.742
-22.204
-22.756
-23.397
-24.127
-24.945
-25.849
-26.838
-27.91
-29.064
-30.296
-31.604
-32.984
-34.432
-35.945
-37.518
-39.146
-40.822
-42.543
-44.302
-46.094
-47.913
-49.753
-51.609
-53.474
-55.345
-57.216
-59.081
-60.937
-62.78
-64.606
-66.412
-68.193
-69.947
-71.67
-73.359
-75.009
-76.617
-78.177
-79.686
-81.138
-82.529
-83.855
-85.111
-86.292
-87.395
-88.414
-89.348
-90.192
-90.942
-91.596
-92.15
-92.603
-92.952
-93.196
-93.333
-93.361
-93.28
-93.087
-92.784
-92.367
-91.838
-91.195
-90.438
-89.568
-88.586
-87.495
-86.298
-84.999
-83.606
-82.125
-80.566
-78.938
-77.252
-75.519
-73.751
-71.959
-70.154
-68.346
-66.548
-64.769
-63.024
-61.324
-59.681
-58.109
-56.622
-55.232
-53.956
-52.802
-51.775
-50.88
-50.124
-49.521
-49.089
-48.842
-48.786
-48.923
-49.259
-49.792
-50.514
-51.401
-52.4
-53.461
-54.538
-55.593
-56.606
-57.552
-58.389
-59.068
-59.535
-59.744
-59.687
-59.355
-58.722
-57.787
-56.571
-55.155
-53.703
-52.371
-51.277
-50.505
-50.096
-50.107
-50.647
-51.832
-53.775
-56.559
-60.16
-64.581
-69.914
-76.087
-82.853
-89.715
-95.847
-100.453
-103.002
-103.092
-100.399
-95.007
-87.247
-77.824
-68.038
-59.183
-52.328
-48.026
-46.049
-45.233
-43.914
-39.993
-30.818
-13.64
14.847
57.028
113.213
182.428
260.76
343.527
427.796
508.065
581.187
644.483
689.383
712.844
707.849
665.605
590.414
483.114
354.948
228.573
115.585
30.917
-20.689
-51.287
-67.814
-79.22
-90.346
-95.688
-93.717
-85.497
-73.59
-63.706
-58.83
-59.125
-63.681
-70.649
-78.435
-85.486
-90.485
-92.793
-92.172
-88.986
-84.023
-77.972
-71.61
-65.842
-61.213
-57.997
-56.317
-56.009
-56.871
-58.766
-61.459
-64.693
-68.298
-72.134
-76.084
-80.064
-83.916
-87.453
-90.547
-93.104
-95.079
-96.456
-97.217
-97.36
-96.919
-95.951
-94.515
-92.663
-90.431
-87.853
-84.974
-81.852
-78.552
-75.142
-71.666
-68.156
-64.63
-61.097
-57.56
-54.015
-50.446
-46.828
-43.144
-39.382
-35.534
-31.597
-27.559
-23.41
-19.141
-14.741
-10.206
-5.533
-0.718
4.237
9.329
14.551
19.893
25.345
30.894
36.53
42.24
48.012
53.834
59.689
65.562
71.439
77.299
83.126
88.898
94.595
100.197
105.681
111.027
116.213
121.219
126.022
130.605
134.945
139.024
142.822
146.323
149.509
152.364
154.874
157.026
158.809
160.213
161.23
161.856
162.087
161.921
161.359
160.404
159.061
157.336
155.239
152.78
149.971
146.826
143.361
139.593
135.54
131.222
126.659
121.873
116.887
111.721
106.401
100.949
95.39
89.746
84.042
78.301
72.548
66.805
61.095
55.439
49.857
44.371
38.997
33.753
28.655
23.717
18.951
14.37
9.983
5.798
1.823
-1.936
-5.476
-8.793
-11.886
-14.753
-17.397
-19.817
-22.017
-24
-25.771
-27.335
-28.697
-29.866
-30.847
-31.65
-32.284
-32.758
-33.081
-33.265
-33.319
-33.254
-33.08
-32.807
-32.445
-32.005
-31.494
-30.924
-30.301
-29.635
-28.933
-28.202
-27.451
-26.684
-25.909
-25.131
-24.356
-23.588
-22.831
-22.091
-21.372
-20.676
-20.007
-19.369
-18.763
-18.191
-17.654
-17.154
-16.689
-16.261
-15.869
-15.511
-15.186
-14.894
-14.632
-14.399
-14.195
-14.016
-13.861
-13.73
-13.62
-13.53
-13.458
-13.403
-13.364
-13.339
-13.328
-13.328
-13.339
-13.359
-13.387
-13.421
-13.459
-13.5
-13.543
-13.584
-13.624
-13.662
-13.696
-13.726
-13.752
-13.774
-13.793
-13.81
-13.825
-13.839
-13.854
-13.869
-13.887
-13.908
-13.934
-13.965
-14.003
-14.048
-14.101
-14.164
-14.237
-14.321
-14.415
-14.522
-14.641
-14.773
-14.921
-15.084
-15.265
-15.465
-15.687
-15.932
-16.202
-16.498
-16.822
-17.175
-17.558
-17.971
-18.414
-18.888
-19.393
-19.929
-20.495
-21.09
-21.715
-22.367
-23.047
-23.752
-24.482
-25.235
-26.01
-26.805
-27.62
-28.453
-29.303
-30.168
-31.046
-31.936
-32.834
-33.737
-34.641
-35.542
-36.434
-37.312
-38.171
-39.006
-39.811
-40.581
-41.31
-41.993
-42.623
-43.196
-43.706
-44.147
-44.515
-44.803
-45.008
-45.126
-45.152
-45.083
-44.916
-44.647
-44.274
-43.794
-43.204
-42.502
-41.688
-40.759
-39.715
-38.559
-37.293
-35.92
-34.449
-32.886
-31.239
-29.52
-27.74
-25.91
-24.041
-22.144
-20.228
-18.304
-16.384
-14.48
-12.605
-10.774
-9
-7.299
-5.688
-4.185
-2.804
-1.556
-0.447
0.517
1.327
1.964
2.407
2.637
2.644
2.422
1.966
1.276
0.363
-0.74
-1.975
-3.282
-4.609
-5.92
-7.192
-8.4
-9.502
-10.441
-11.16
-11.614
-11.783
-11.661
-11.233
-10.497
-9.484
-8.295
-7.11
-6.105
-5.423
-5.157
-5.342
-6.052
-7.423
-9.6
-12.727
-16.908
-22.109
-28.296
-35.541
-43.72
-52.556
-61.592
-69.939
-76.787
-81.803
-84.683
-85.176
-83.503
-79.757
-74.112
-67.662
-61.282
-55.094
-49.332
-43.573
-36.31
-26.61
-13.68
4.431
29.375
62.305
104.828
157.206
217.749
285.108
357.837
432.91
506.806
575.36
633.076
675.286
699.363
702.764
683.179
640.455
576.231
493.891
399.215
298.747
198.009
102.86
19.617
-47.542
-96.515
-126.802
-140.351
-140.511
-130.384
-113.982
-96.272
-80.62
-69.018
-62.607
-60.943
-62.933
-67.711
-73.692
-78.721
-81.632
-81.943
-79.634
-75.469
-70.193
-64.312
-58.595
-53.896
-50.676
-49.158
-49.327
-50.873
-53.548
-57.169
-61.487
-66.261
-71.281
-76.34
-81.248
-85.847
-90.007
-93.625
-96.631
-98.982
-100.655
-101.647
-101.992
-101.75
-100.976
-99.725
-98.044
-95.968
-93.553
-90.865
-87.978
-84.97
-81.896
-78.788
-75.675
-72.573
-69.491
-66.427
-63.366
-60.278
-57.146
-53.958
-50.703
-47.381
-43.979
-40.486
-36.891
-33.186
-29.362
-25.418
-21.352
-17.16
-12.846
-8.414
-3.874
0.766
5.496
10.31
15.199
20.156
25.172
30.238
35.343
40.477
45.627
50.782
55.925
61.041
66.116
71.133
76.076
80.927
85.671
90.289
94.766
99.083
103.225
107.175
110.917
114.437
117.719
120.752
123.521
126.015
128.222
130.133
131.738
133.029
134
134.645
134.961
134.944
134.594
133.912
132.899
131.559
129.898
127.92
125.636
123.052
120.181
117.034
113.623
109.962
106.067
101.952
97.634
93.131
88.458
83.633
78.675
73.601
68.429
63.177
57.862
52.503
47.118
41.723
36.337
30.975
25.654
20.39
15.196
10.087
5.076
0.173
-4.61
-9.264
-13.781
-18.151
-22.37
-26.431
-30.331
-34.064
-37.63
-41.026
-44.252
-47.307
-50.192
-52.908
-55.456
-57.839
-60.06
-62.12
-64.023
-65.772
-67.371
-68.825
-70.137
-71.312
-72.356
-73.272
-74.065
-74.742
-75.307
-75.763
-76.117
-76.372
-76.531
-76.599
-76.58
-76.474
-76.287
-76.019
-75.673
-75.251
-74.755
-74.185
-73.545
-72.835
-72.056
-71.212
-70.304
-69.334
-68.305
-67.221
-66.084
-64.898
-63.668
-62.398
-61.092
-59.755
-58.392
-57.009
-55.61
-54.201
-52.788
-51.376
-49.972
-48.581
-47.211
-45.867
-44.558
-43.29
-42.069
-40.905
-39.804
-38.773
-37.821
-36.953
-36.177
-35.5
-34.927
-34.465
-34.119
-33.893
-33.791
-33.815
-33.969
-34.254
-34.669
-35.215
-35.891
-36.694
-37.623
-38.674
-39.844
-41.129
-42.524
-44.025
-45.625
-47.319
-49.1
-50.962
-52.896
-54.894
-56.947
-59.048
-61.186
-63.352
-65.536
-67.727
-69.917
-72.093
-74.246
-76.366
-78.442
-80.464
-82.422
-84.308
-86.113
-87.83
-89.45
-90.968
-92.379
-93.676
-94.856
-95.915
-96.85
-97.656
-98.333
-98.877
-99.288
-99.565
-99.707
-99.714
-99.588
-99.33
-98.942
-98.427
-97.786
-97.025
-96.146
-95.155
-94.056
-92.855
-91.557
-90.169
-88.698
-87.15
-85.534
-83.855
-82.121
-80.339
-78.513
-76.652
-74.759
-72.841
-70.902
-68.945
-66.977
-65.001
-63.022
-61.043
-59.067
-57.099
-55.142
-53.199
-51.275
-49.371
-47.491
-45.638
-43.817
-42.031
-40.285
-38.582
-36.927
-35.325
-33.781
-32.3
-30.888
-29.547
-28.284
-27.104
-26.009
-25.004
-24.09
-23.271
-22.553
-21.941
-21.44
-21.054
-20.788
-20.652
-20.651
-20.795
-21.087
-21.521
-22.097
-22.816
-23.681
-24.707
-25.894
-27.238
-28.732
-30.375
-32.16
-34.075
-36.091
-38.151
-40.207
-42.22
-44.162
-46.026
-47.789
-49.414
-50.86
-52.079
-53.049
-53.774
-54.24
-54.416
-54.296
-53.895
-53.293
-52.649
-52.074
-51.65
-51.424
-51.394
-51.607
-52.148
-53.11
-54.581
-56.609
-59.166
-62.291
-66.132
-70.631
-75.547
-80.37
-84.261
-86.5
-86.619
-84.269
-79.166
-71.425
-61.59
-50.63
-40.148
-31.774
-26.713
-25.446
-27.755
-32.436
-37.331
-39.99
-37.034
-24.326
1.915
44.604
103.368
174.025
251.997
332.135
414.005
501.961
592.905
681.367
754.144
786.258
766.24
688.36
553.008
384.812
206.185
41.818
-75.936
-138.701
-149.287
-120.869
-83.547
-54.722
-40.294
-39.305
-40.347
-37.986
-33.448
-29.22
-29.978
-36.592
-46.458
-57.062
-65.614
-70.792
-72.688
-71.362
-67.282
-61.267
-54.117
-46.793
-40.254
-34.96
-31.051
-28.579
-27.398
-27.363
-28.367
-30.194
-32.61
-35.468
-38.644
-42.033
-45.551
-49.038
-52.304
-55.218
-57.683
-59.646
-61.098
-62.019
-62.401
-62.271
-61.668
-60.637
-59.222
-57.454
-55.366
-53.002
-50.419
-47.682
-44.856
-41.99
-39.112
-36.241
-33.379
-30.527
-27.677
-24.811
-21.903
-18.935
-15.891
-12.761
-9.538
-6.21
-2.761
0.821
4.548
8.429
12.473
16.683
21.064
25.614
30.332
35.211
40.245
45.427
50.75
56.207
61.79
67.489
73.294
79.192
85.169
91.21
97.297
103.412
109.533
115.64
121.71
127.721
133.648
139.469
145.158
150.691
156.046
161.196
166.118
170.788
175.184
179.284
183.065
186.508
189.592
192.3
194.616
196.523
198.009
199.062
199.673
199.833
199.538
198.785
197.574
195.907
193.787
191.222
188.221
184.797
180.963
176.735
172.132
167.174
161.883
156.281
150.395
144.249
137.87
131.286
124.525
117.616
110.588
103.471
96.295
89.089
81.883
74.706
67.587
60.553
53.631
46.848
40.228
33.794
27.567
21.568
15.813
10.319
5.1
0.167
-4.469
-8.802
-12.826
-16.539
-19.938
-23.025
-25.803
-28.276
-30.45
-32.333
-33.933
-35.262
-36.33
-37.149
-37.733
-38.095
-38.252
-38.218
-38.01
-37.644
-37.136
-36.505
-35.766
-34.937
-34.034
-33.072
-32.068
-31.035
-29.989
-28.941
-27.905
-26.89
-25.908
-24.967
-24.074
-23.235
-22.456
-21.741
-21.091
-20.509
-19.994
-19.547
-19.167
-18.851
-18.597
-18.403
-18.264
-18.177
-18.138
-18.141
-18.182
-18.256
-18.358
-18.483
-18.624
-18.779
-18.941
-19.106
-19.27
-19.429
-19.58
-19.718
-19.841
-19.948
-20.035
-20.101
-20.147
-20.171
-20.175
-20.16
-20.128
-20.082
-20.025
-19.961
-19.893
-19.826
-19.763
-19.711
-19.672
-19.653
-19.656
-19.688
-19.751
-19.851
-19.991
-20.175
-20.406
-20.686
-21.018
-21.404
-21.846
-22.344
-22.901
-23.515
-24.189
-24.922
-25.714
-26.564
-27.471
-28.436
-29.455
-30.526
-31.648
-32.816
-34.027
-35.278
-36.564
-37.881
-39.224
-40.588
-41.969
-43.362
-44.763
-46.165
-47.566
-48.958
-50.339
-51.703
-53.047
-54.366
-55.656
-56.914
-58.137
-59.321
-60.464
-61.563
-62.615
-63.616
-64.563
-65.453
-66.283
-67.048
-67.745
-68.371
-68.923
-69.398
-69.794
-70.108
-70.338
-70.481
-70.536
-70.502
-70.375
-70.156
-69.842
-69.432
-68.926
-68.324
-67.627
-66.835
-65.949
-64.971
-63.903
-62.747
-61.506
-60.183
-58.779
-57.301
-55.752
-54.139
-52.468
-50.747
-48.987
-47.201
-45.401
-43.601
-41.814
-40.053
-38.332
-36.664
-35.059
-33.527
-32.079
-30.726
-29.482
-28.361
-27.376
-26.535
-25.846
-25.318
-24.956
-24.766
-24.744
-24.887
-25.197
-25.681
-26.355
-27.239
-28.345
-29.67
-31.212
-32.964
-34.916
-37.053
-39.345
-41.744
-44.213
-46.716
-49.231
-51.735
-54.178
-56.495
-58.613
-60.455
-61.965
-63.121
-63.901
-64.285
-64.283
-63.906
-63.186
-62.221
-61.109
-59.942
-58.839
-57.917
-57.283
-57.156
-57.829
-59.394
-61.772
-64.68
-67.6
-70.195
-72.357
-73.763
-73.92
-72.776
-70.655
-68.497
-67.909
-69.688
-73.739
-80.12
-88.867
-99.382
-110.608
-120.172
-124.405
-121.097
-109.311
-87.819
-55.704
-12.445
42.437
107.541
179.573
256.598
335.571
411.003
478.488
534.278
579.001
618.063
654.026
682.75
689.955
658.307
576.454
444.187
279.986
111.494
-32.626
-129.686
-176.078
-183.612
-172.851
-162.832
-160.947
-164.531
-165.266
-158.427
-145.379
-129.381
-114.51
-102.34
-92.249
-84.063
-77.087
-70.316
-63.223
-56.213
-50.632
-47.67
-47.447
-49.006
-51.543
-54.875
-59.061
-63.668
-67.547
-69.802
-70.44
-70.324
-70.262
-70.554
-71.184
-72.121
-73.642
-75.969
-78.938
-82.004
-84.654
-86.641
-87.917
-88.578
-88.649
-88.097
-86.968
-85.388
-83.486
-81.35
-79.02
-76.488
-73.769
-70.918
-67.982
-65.005
-62.013
-59.011
-56.002
-52.982
-49.933
-46.832
-43.662
-40.413
-37.077
-33.652
-30.134
-26.517
-22.804
-18.991
-15.073
-11.045
-6.902
-2.643
1.727
6.198
10.762
15.408
20.124
24.905
29.739
34.62
39.538
44.487
49.457
54.442
59.43
64.409
69.364
74.284
79.153
83.959
88.687
93.322
97.85
102.257
106.528
110.65
114.607
118.386
121.974
125.356
128.521
131.457
134.152
136.596
138.778
140.691
142.325
143.674
144.731
145.489
145.944
146.092
145.929
145.454
144.663
143.559
142.141
140.411
138.375
136.038
133.405
130.486
127.288
123.824
120.104
116.142
111.951
107.546
102.943
98.157
93.208
88.111
82.886
77.551
72.124
66.626
61.075
55.49
49.89
44.295
38.723
33.194
27.725
22.335
17.042
11.862
6.811
1.906
-2.84
-7.411
-11.797
-15.986
-19.968
-23.734
-27.278
-30.593
-33.675
-36.521
-39.13
-41.501
-43.636
-45.536
-47.206
-48.65
-49.873
-50.883
-51.686
-52.291
-52.707
-52.943
-53.009
-52.916
-52.675
-52.297
-51.794
-51.178
-50.46
-49.653
-48.768
-47.818
-46.814
-45.767
-44.688
-43.587
-42.474
-41.357
-40.246
-39.148
-38.069
-37.017
-35.995
-35.008
-34.061
-33.156
-32.296
-31.482
-30.716
-29.997
-29.326
-28.703
-28.127
-27.596
-27.11
-26.667
-26.264
-25.9
-25.573
-25.279
-25.015
-24.78
-24.57
-24.382
-24.214
-24.063
-23.925
-23.8
-23.683
-23.574
-23.47
-23.371
-23.273
-23.177
-23.082
-22.988
-22.894
-22.802
-22.71
-22.621
-22.535
-22.454
-22.378
-22.308
-22.247
-22.195
-22.155
-22.127
-22.114
-22.117
-22.139
-22.179
-22.241
-22.326
-22.436
-22.57
-22.732
-22.922
-23.142
-23.391
-23.671
-23.984
-24.328
-24.705
-25.114
-25.556
-26.03
-26.536
-27.071
-27.636
-28.229
-28.848
-29.491
-30.158
-30.845
-31.551
-32.274
-33.011
-33.758
-34.513
-35.273
-36.034
-36.794
-37.548
-38.294
-39.027
-39.745
-40.445
-41.124
-41.778
-42.405
-43.001
-43.564
-44.09
-44.577
-45.021
-45.419
-45.769
-46.068
-46.314
-46.504
-46.636
-46.708
-46.718
-46.664
-46.544
-46.357
-46.101
-45.776
-45.38
-44.915
-44.38
-43.776
-43.105
-42.368
-41.567
-40.705
-39.785
-38.808
-37.778
-36.697
-35.57
-34.4
-33.191
-31.948
-30.678
-29.39
-28.094
-26.798
-25.512
-24.246
-23.01
-21.815
-20.667
-19.575
-18.543
-17.578
-16.691
-15.892
-15.192
-14.597
-14.113
-13.745
-13.498
-13.377
-13.381
-13.502
-13.74
-14.096
-14.581
-15.217
-16.017
-16.983
-18.119
-19.417
-20.866
-22.457
-24.164
-25.943
-27.759
-29.573
-31.358
-33.103
-34.771
-36.309
-37.658
-38.741
-39.505
-39.922
-39.967
-39.634
-38.947
-37.935
-36.662
-35.21
-33.656
-32.104
-30.663
-29.438
-28.576
-28.194
-28.467
-29.67
-31.858
-34.896
-38.507
-42.134
-45.29
-47.773
-49.156
-48.828
-46.797
-43.438
-39.643
-37.07
-36.759
-38.892
-43.885
-52.142
-63.066
-75.358
-86.481
-92.583
-90.763
-79.337
-56.447
-19.93
31.202
96.425
173.665
257.126
341.38
424.421
501.582
570.858
631.286
673.338
693.074
686.203
644.474
575.807
485.625
378.806
273.016
173.19
85.232
20.103
-27.411
-59.52
-77.765
-90.212
-95.9
-93.773
-86.734
-76.225
-66.214
-60.071
-58.216
-60.287
-65.005
-71.214
-77.847
-83.263
-86.527
-87.268
-85.49
-81.94
-77.314
-72.049
-66.797
-62.267
-58.864
-56.829
-56.183
-56.668
-58.095
-60.315
-63.116
-66.313
-69.714
-73.134
-76.423
-79.434
-82.042
-84.158
-85.712
-86.666
-87.012
-86.746
-85.889
-84.499
-82.627
-80.331
-77.665
-74.666
-71.39
-67.906
-64.283
-60.604
-56.93
-53.298
-49.737
-46.27
-42.905
-39.649
-36.491
-33.407
-30.377
-27.39
-24.433
-21.501
-18.585
-15.665
-12.726
-9.754
-6.734
-3.658
-0.514
2.707
6.012
9.406
12.889
16.46
20.117
23.863
27.697
31.62
35.629
39.722
43.897
48.149
52.474
56.863
61.306
65.793
70.31
74.845
79.381
83.903
88.393
92.832
97.202
101.484
105.659
109.706
113.604
117.335
120.878
124.212
127.32
130.182
132.779
135.096
137.116
138.826
140.212
141.265
141.973
142.328
142.326
141.959
141.226
140.123
138.652
136.815
134.616
132.062
129.161
125.924
122.363
118.492
114.328
109.887
105.188
100.25
95.095
89.743
84.218
78.543
72.742
66.84
60.861
54.83
48.773
42.712
36.672
30.676
24.745
18.902
13.166
7.558
2.095
-3.204
-8.324
-13.25
-17.967
-22.464
-26.73
-30.756
-34.536
-38.062
-41.331
-44.341
-47.09
-49.579
-51.808
-53.782
-55.504
-56.98
-58.218
-59.224
-60.009
-60.583
-60.956
-61.14
-61.147
-60.989
-60.68
-60.231
-59.655
-58.965
-58.175
-57.295
-56.34
-55.32
-54.249
-53.137
-51.995
-50.834
-49.663
-48.491
-47.327
-46.177
-45.049
-43.95
-42.885
-41.859
-40.877
-39.941
-39.056
-38.223
-37.443
-36.718
-36.047
-35.43
-34.865
-34.353
-33.89
-33.474
-33.105
-32.778
-32.492
-32.243
-32.03
-31.848
-31.694
-31.566
-31.461
-31.375
-31.306
-31.253
-31.211
-31.18
-31.158
-31.142
-31.131
-31.124
-31.118
-31.113
-31.107
-31.098
-31.088
-31.074
-31.056
-31.035
-31.011
-30.983
-30.953
-30.92
-30.885
-30.849
-30.813
-30.777
-30.743
-30.711
-30.683
-30.66
-30.643
-30.634
-30.634
-30.643
-30.662
-30.694
-30.738
-30.795
-30.866
-30.952
-31.054
-31.172
-31.308
-31.462
-31.635
-31.827
-32.04
-32.275
-32.531
-32.808
-33.107
-33.428
-33.771
-34.135
-34.519
-34.924
-35.348
-35.79
-36.249
-36.724
-37.212
-37.712
-38.221
-38.738
-39.259
-39.782
-40.303
-40.819
-41.327
-41.821
-42.3
-42.759
-43.194
-43.6
-43.973
-44.307
-44.6
-44.846
-45.04
-45.177
-45.253
-45.264
-45.207
-45.078
-44.872
-44.588
-44.222
-43.773
-43.24
-42.621
-41.914
-41.121
-40.241
-39.278
-38.232
-37.107
-35.907
-34.636
-33.302
-31.914
-30.482
-29.015
-27.525
-26.022
-24.518
-23.024
-21.551
-20.107
-18.7
-17.34
-16.039
-14.81
-13.664
-12.614
-11.671
-10.846
-10.152
-9.596
-9.178
-8.9
-8.767
-8.788
-8.983
-9.368
-9.952
-10.745
-11.751
-12.966
-14.373
-15.942
-17.623
-19.366
-21.127
-22.869
-24.569
-26.198
-27.715
-29.069
-30.203
-31.073
-31.648
-31.897
-31.786
-31.332
-30.596
-29.684
-28.757
-27.938
-27.303
-26.952
-26.977
-27.485
-28.639
-30.571
-33.343
-37.076
-41.918
-47.868
-54.83
-62.41
-69.83
-76.38
-81.458
-84.403
-84.776
-82.549
-77.972
-72.058
-66.521
-62.694
-61.657
-64.37
-70.793
-79.934
-90.189
-98.437
-100.503
-92.903
-72.422
-35.794
18.435
89.743
176.708
273.997
372.774
467.169
551.854
623.345
684.068
730.098
752.525
741.98
685.836
582.959
443.514
286.234
137.784
16.448
-66.318
-110.638
-130.276
-135.294
-134.658
-132.909
-125.305
-111.205
-93.289
-74.451
-60.166
-53.298
-53.242
-58.546
-67.286
-77.229
-86.16
-92.813
-96.494
-97.006
-95.079
-91.503
-86.863
-82.06
-78.041
-75.292
-74.106
-74.516
-76.203
-78.952
-82.593
-86.858
-91.521
-96.378
-101.238
-105.961
-110.422
-114.494
-118.077
-121.093
-123.488
-125.249
-126.366
-126.854
-126.759
-126.121
-124.988
-123.41
-121.416
-119.057
-116.394
-113.491
-110.424
-107.249
-103.998
-100.7
-97.373
-94.023
-90.651
-87.245
-83.778
-80.232
-76.595
-72.858
-69.016
-65.062
-60.983
-56.769
-52.409
-47.898
-43.232
-38.41
-33.43
-28.294
-23.008
-17.581
-12.024
-6.346
-0.554
5.342
11.336
17.417
23.575
29.798
36.075
42.392
48.732
55.076
61.405
67.698
73.934
80.091
86.147
92.079
97.863
103.479
108.904
114.116
119.095
123.819
128.27
132.429
136.28
139.806
142.992
145.826
148.295
150.39
152.102
153.424
154.348
154.871
154.989
154.701
154.007
152.909
151.412
149.521
147.246
144.598
141.591
138.238
134.559
130.569
126.291
121.744
116.951
111.935
106.719
101.327
95.784
90.114
84.342
78.492
72.588
66.654
60.712
54.784
48.892
43.056
37.296
31.631
26.08
20.659
15.386
10.275
5.342
0.598
-3.945
-8.278
-12.393
-16.283
-19.946
-23.379
-26.579
-29.549
-32.29
-34.805
-37.099
-39.178
-41.05
-42.72
-44.2
-45.497
-46.621
-47.583
-48.393
-49.06
-49.595
-50.008
-50.309
-50.507
-50.613
-50.635
-50.585
-50.47
-50.301
-50.086
-49.834
-49.552
-49.248
-48.929
-48.6
-48.265
-47.93
-47.597
-47.269
-46.948
-46.636
-46.332
-46.036
-45.748
-45.467
-45.19
-44.916
-44.643
-44.369
-44.091
-43.809
-43.52
-43.224
-42.919
-42.606
-42.283
-41.95
-41.608
-41.256
-40.895
-40.524
-40.145
-39.757
-39.363
-38.963
-38.559
-38.153
-37.746
-37.341
-36.94
-36.545
-36.16
-35.787
-35.429
-35.089
-34.771
-34.476
-34.209
-33.972
-33.767
-33.597
-33.462
-33.363
-33.302
-33.279
-33.292
-33.342
-33.427
-33.546
-33.696
-33.877
-34.085
-34.319
-34.576
-34.854
-35.149
-35.46
-35.783
-36.117
-36.458
-36.804
-37.152
-37.501
-37.848
-38.192
-38.529
-38.86
-39.182
-39.494
-39.795
-40.085
-40.364
-40.632
-40.888
-41.133
-41.369
-41.597
-41.818
-42.033
-42.244
-42.453
-42.662
-42.873
-43.087
-43.306
-43.53
-43.761
-43.999
-44.245
-44.497
-44.754
-45.016
-45.282
-45.548
-45.814
-46.074
-46.327
-46.567
-46.791
-46.995
-47.174
-47.321
-47.432
-47.501
-47.523
-47.493
-47.405
-47.253
-47.034
-46.741
-46.371
-45.92
-45.383
-44.757
-44.039
-43.227
-42.32
-41.319
-40.223
-39.034
-37.759
-36.401
-34.97
-33.473
-31.919
-30.318
-28.683
-27.024
-25.35
-23.671
-21.997
-20.338
-18.707
-17.118
-15.584
-14.118
-12.735
-11.446
-10.264
-9.196
-8.248
-7.422
-6.723
-6.163
-5.761
-5.535
-5.499
-5.663
-6.034
-6.61
-7.378
-8.312
-9.367
-10.497
-11.658
-12.813
-13.936
-14.999
-15.96
-16.767
-17.365
-17.697
-17.727
-17.419
-16.741
-15.699
-14.349
-12.781
-11.139
-9.553
-8.108
-6.912
-6.071
-5.684
-5.903
-6.863
-8.637
-11.379
-15.25
-20.243
-26.267
-32.982
-39.708
-45.846
-50.825
-53.913
-54.601
-52.818
-48.767
-43.371
-38.077
-33.921
-31.919
-33.162
-37.819
-45.084
-53.509
-60.336
-61.92
-55.151
-36.571
-2.151
48.698
113.362
189.551
272.852
362.784
464.499
574.865
685.094
778.805
831.443
832.201
782.009
691.37
578.812
452.495
318.163
184.043
60.909
-32.7
-85.426
-100.448
-91.878
-77.939
-70.424
-70.136
-70.745
-68.565
-63.91
-59.512
-59.844
-65.842
-75.408
-86.79
-97.812
-106.405
-111.93
-114.035
-112.568
-108.334
-102.324
-95.322
-88.237
-81.904
-76.71
-72.878
-70.522
-69.471
-69.557
-70.638
-72.478
-74.863
-77.649
-80.718
-83.963
-87.279
-90.49
-93.394
-95.85
-97.764
-99.088
-99.8
-99.875
-99.302
-98.109
-96.354
-94.095
-91.385
-88.263
-84.767
-80.951
-76.883
-72.644
-68.312
-63.945
-59.579
-55.24
-50.941
-46.692
-42.495
-38.335
-34.19
-30.045
-25.89
-21.719
-17.531
-13.317
-9.064
-4.763
-0.406
4.015
8.501
13.056
17.679
22.37
27.121
31.926
36.774
41.658
46.571
51.505
56.454
61.412
66.37
71.319
76.253
81.16
86.031
90.852
95.61
100.293
104.885
109.372
113.739
117.969
122.047
125.957
129.683
133.209
136.519
139.599
142.433
145.008
147.312
149.333
151.059
152.483
153.596
154.392
154.866
155.016
154.838
154.332
153.5
152.343
150.864
149.069
146.963
144.553
141.849
138.861
135.601
132.082
128.318
124.326
120.123
115.726
111.156
106.431
101.575
96.607
91.55
86.426
81.259
76.069
70.879
65.709
60.581
55.513
50.524
45.631
40.85
36.196
31.682
27.32
23.122
19.098
15.255
11.602
8.145
4.888
1.836
-1.01
-3.647
-6.076
-8.299
-10.317
-12.136
-13.761
-15.198
-16.456
-17.544
-18.474
-19.255
-19.901
-20.425
-20.84
-21.158
-21.394
-21.56
-21.67
-21.734
-21.766
-21.776
-21.774
-21.77
-21.774
-21.792
-21.833
-21.904
-22.009
-22.156
-22.347
-22.588
-22.882
-23.232
-23.639
-24.107
-24.634
-25.222
-25.868
-26.572
-27.329
-28.136
-28.989
-29.88
-30.805
-31.755
-32.725
-33.706
-34.692
-35.673
-36.644
-37.597
-38.525
-39.421
-40.28
-41.095
-41.861
-42.572
-43.226
-43.817
-44.342
-44.797
-45.18
-45.486
-45.714
-45.861
-45.925
-45.903
-45.793
-45.595
-45.308
-44.932
-44.467
-43.915
-43.278
-42.558
-41.759
-40.885
-39.939
-38.927
-37.853
-36.723
-35.541
-34.315
-33.049
-31.75
-30.424
-29.077
-27.716
-26.347
-24.977
-23.611
-22.257
-20.921
-19.61
-18.33
-17.089
-15.893
-14.751
-13.668
-12.652
-11.71
-10.848
-10.071
-9.385
-8.794
-8.303
-7.914
-7.629
-7.452
-7.382
-7.421
-7.569
-7.824
-8.185
-8.65
-9.215
-9.876
-10.628
-11.465
-12.38
-13.366
-14.415
-15.518
-16.667
-17.851
-19.06
-20.283
-21.508
-22.724
-23.918
-25.077
-26.19
-27.243
-28.226
-29.126
-29.934
-30.638
-31.23
-31.701
-32.043
-32.252
-32.319
-32.24
-32.013
-31.633
-31.101
-30.418
-29.584
-28.605
-27.488
-26.242
-24.877
-23.406
-21.841
-20.197
-18.487
-16.727
-14.93
-13.112
-11.287
-9.473
-7.691
-5.96
-4.303
-2.739
-1.291
0.026
1.191
2.193
3.024
3.673
4.128
4.373
4.381
4.131
3.613
2.816
1.736
0.38
-1.234
-3.074
-5.087
-7.23
-9.461
-11.749
-14.075
-16.408
-18.701
-20.899
-22.937
-24.761
-26.34
-27.646
-28.643
-29.34
-29.788
-30.077
-30.349
-30.712
-31.221
-31.937
-32.931
-34.305
-36.2
-38.761
-42.072
-46.216
-51.288
-57.248
-63.957
-71.109
-78.14
-84.434
-89.455
-92.771
-94.054
-93.437
-91.324
-88.193
-84.905
-82.261
-80.815
-80.969
-82.691
-84.864
-85.673
-83.442
-76.101
-61.625
-38.164
-3.721
42.877
100.908
168.229
242.609
321.266
400.657
476.375
542.839
594.88
629.18
644.073
638.141
610.336
561.424
494.36
414.244
327.032
237.947
151.246
71.55
3.969
-48.292
-84.318
-105.128
-113.307
-111.507
-102.01
-88.01
-73.658
-61.844
-54.051
-50.674
-50.851
-53.707
-58.685
-64.564
-69.58
-72.649
-73.318
-71.679
-68.511
-64.467
-59.942
-55.539
-51.931
-49.533
-48.557
-48.984
-50.541
-52.993
-56.169
-59.862
-63.876
-68.04
-72.186
-76.158
-79.822
-83.068
-85.813
-88.002
-89.606
-90.607
-90.999
-90.813
-90.101
-88.915
-87.314
-85.341
-83.028
-80.425
-77.592
-74.594
-71.505
-68.376
-65.238
-62.118
-59.031
-55.988
-52.991
-50.029
-47.077
-44.12
-41.146
-38.147
-35.121
-32.057
-28.942
-25.766
-22.517
-19.185
-15.766
-12.253
-8.64
-4.926
-1.111
2.801
6.804
10.894
15.066
19.316
23.64
28.034
32.489
37.001
41.561
46.16
50.789
55.433
60.079
64.712
69.316
73.875
78.37
82.783
87.095
91.287
95.339
99.231
102.942
106.453
109.742
112.791
115.58
118.09
120.305
122.209
123.786
125.025
125.913
126.44
126.601
126.387
125.795
124.824
123.472
121.742
119.637
117.163
114.33
111.148
107.63
103.792
99.65
95.223
90.533
85.602
80.453
75.113
69.608
63.965
58.212
52.38
46.496
40.591
34.695
28.836
23.043
17.344
11.764
6.33
1.065
-4.008
-8.87
-13.502
-17.886
-22.009
-25.857
-29.42
-32.691
-35.664
-38.335
-40.704
-42.772
-44.544
-46.024
-47.222
-48.147
-48.812
-49.231
-49.419
-49.395
-49.176
-48.783
-48.237
-47.559
-46.773
-45.901
-44.965
-43.99
-42.996
-42.006
-41.041
-40.121
-39.267
-38.495
-37.822
-37.263
-36.832
-36.541
-36.399
-36.414
-36.592
-36.938
-37.454
-38.14
-38.995
-40.017
-41.199
-42.537
-44.021
-45.642
-47.39
-49.252
-51.214
-53.263
-55.384
-57.561
-59.777
-62.017
-64.264
-66.502
-68.713
-70.881
-72.992
-75.029
-76.978
-78.826
-80.559
-82.168
-83.642
-84.972
-86.15
-87.172
-88.032
-88.728
-89.257
-89.619
-89.816
-89.85
-89.725
-89.445
-89.016
-88.446
-87.743
-86.917
-85.975
-84.93
-83.792
-82.573
-81.284
-79.937
-78.546
-77.123
-75.681
-74.233
-72.792
-71.369
-69.978
-68.63
-67.335
-66.105
-64.948
-63.874
-62.891
-62.005
-61.222
-60.548
-59.986
-59.54
-59.211
-59
-58.908
-58.932
-59.071
-59.322
-59.68
-60.143
-60.705
-61.36
-62.102
-62.925
-63.821
-64.783
-65.802
-66.869
-67.975
-69.11
-70.262
-71.423
-72.581
-73.727
-74.848
-75.936
-76.978
-77.965
-78.887
-79.735
-80.499
-81.169
-81.738
-82.199
-82.544
-82.77
-82.87
-82.841
-82.68
-82.385
-81.954
-81.388
-80.686
-79.848
-78.876
-77.774
-76.545
-75.194
-73.728
-72.153
-70.479
-68.719
-66.882
-64.982
-63.029
-61.037
-59.019
-56.988
-54.955
-52.935
-50.94
-48.984
-47.083
-45.255
-43.512
-41.869
-40.341
-38.939
-37.681
-36.578
-35.636
-34.866
-34.279
-33.891
-33.726
-33.8
-34.116
-34.675
-35.475
-36.507
-37.758
-39.2
-40.783
-42.458
-44.179
-45.902
-47.593
-49.209
-50.686
-51.953
-52.943
-53.601
-53.91
-53.859
-53.433
-52.642
-51.532
-50.189
-48.757
-47.386
-46.193
-45.303
-44.842
-44.949
-45.794
-47.532
-50.271
-54.069
-58.918
-64.778
-71.613
-79.334
-87.77
-96.665
-105.678
-114.44
-122.582
-129.68
-135.241
-138.706
-139.444
-136.941
-130.836
-120.994
-107.708
-91.446
-72.651
-51.859
-29.601
-6.207
18.028
43.469
71.857
105.197
145.129
191.47
241.518
292.688
344.422
399.998
463.374
533.412
600.253
645.152
651.038
608.453
520.722
404.131
272.751
142.072
25.985
-70.102
-135.818
-169.521
-181.089
-176.702
-167.382
-159.229
-147.732
-132.781
-115.314
-96.711
-82.177
-73.948
-71.151
-72.661
-76.635
-81.112
-84.676
-86.558
-86.404
-84.352
-81.05
-77.092
-72.912
-69.15
-66.47
-65.187
-65.426
-67.088
-69.821
-73.368
-77.55
-82.102
-86.774
-91.344
-95.574
-99.333
-102.585
-105.283
-107.403
-108.939
-109.86
-110.181
-109.956
-109.228
-108.049
-106.467
-104.511
-102.232
-99.69
-96.954
-94.099
-91.179
-88.224
-85.256
-82.288
-79.326
-76.378
-73.434
-70.469
-67.465
-64.407
-61.282
-58.088
-54.814
-51.443
-47.961
-44.353
-40.608
-36.719
-32.68
-28.484
-24.129
-19.614
-14.944
-10.127
-5.168
-0.073
5.153
10.502
15.967
21.54
27.209
32.967
38.802
44.7
50.645
56.621
62.611
68.596
74.556
80.471
86.319
92.078
97.726
103.24
108.598
113.776
118.752
123.503
128.006
132.24
136.183
139.818
143.124
146.085
148.687
150.917
152.764
154.218
155.273
155.924
156.166
155.999
155.423
154.441
153.057
151.278
149.113
146.573
143.673
140.427
136.853
132.97
128.798
124.36
119.677
114.774
109.675
104.406
98.992
93.461
87.838
82.151
76.426
70.688
64.963
59.275
53.647
48.1
42.655
37.331
32.147
27.118
22.26
17.587
13.11
8.84
4.785
0.952
-2.654
-6.031
-9.177
-12.093
-14.781
-17.244
-19.487
-21.517
-23.34
-24.964
-26.397
-27.651
-28.735
-29.66
-30.438
-31.08
-31.599
-32.005
-32.312
-32.529
-32.668
-32.739
-32.754
-32.721
-32.65
-32.55
-32.429
-32.296
-32.156
-32.017
-31.883
-31.759
-31.648
-31.551
-31.471
-31.409
-31.363
-31.334
-31.321
-31.322
-31.334
-31.357
-31.387
-31.421
-31.457
-31.493
-31.524
-31.549
-31.564
-31.569
-31.561
-31.539
-31.501
-31.446
-31.372
-31.28
-31.167
-31.034
-30.88
-30.705
-30.509
-30.293
-30.057
-29.804
-29.536
-29.254
-28.962
-28.662
-28.358
-28.053
-27.749
-27.452
-27.163
-26.888
-26.628
-26.387
-26.168
-25.972
-25.803
-25.66
-25.545
-25.458
-25.4
-25.37
-25.368
-25.395
-25.448
-25.53
-25.638
-25.773
-25.934
-26.12
-26.329
-26.561
-26.813
-27.084
-27.372
-27.674
-27.988
-28.313
-28.644
-28.981
-29.321
-29.662
-30.001
-30.336
-30.665
-30.989
-31.305
-31.613
-31.914
-32.208
-32.495
-32.777
-33.054
-33.327
-33.596
-33.859
-34.116
-34.365
-34.602
-34.827
-35.037
-35.231
-35.408
-35.567
-35.708
-35.834
-35.946
-36.043
-36.126
-36.192
-36.237
-36.258
-36.249
-36.203
-36.115
-35.975
-35.774
-35.511
-35.178
-34.769
-34.274
-33.675
-32.963
-32.135
-31.196
-30.152
-29.019
-27.812
-26.555
-25.293
-24.061
-22.896
-21.828
-20.86
-19.99
-19.224
-18.568
-18.03
-17.608
-17.264
-16.952
-16.636
-16.272
-15.817
-15.212
-14.352
-13.145
-11.526
-9.449
-6.924
-3.984
-0.648
3.054
7.072
11.331
15.707
20.052
24.267
28.26
31.933
35.172
37.802
39.66
40.64
40.668
39.728
37.837
34.999
31.231
26.609
21.244
15.286
8.908
2.211
-4.733
-11.826
-18.968
-26.027
-32.872
-39.43
-45.628
-51.384
-56.65
-61.393
-65.603
-69.338
-72.701
-75.751
-78.604
-81.438
-84.225
-86.805
-88.861
-89.74
-88.825
-85.736
-79.958
-70.921
-58.746
-44.023
-27.884
-12.502
0.304
9.334
12.996
10.143
1.328
-11.808
-26.342
-37.567
-41.315
-33.832
-10.25
33.255
96.36
175.486
265.698
361.582
462.959
571.685
682.179
781.692
851.457
874.15
843.632
766.275
654.767
519.777
372.042
223.273
88.41
-13.476
-71.578
-89.341
-81.951
-67.662
-58.519
-56.189
-54.226
-48.84
-40.465
-31.819
-27.875
-30.204
-36.896
-45.963
-54.921
-61.424
-64.709
-64.494
-60.655
-53.917
-45.169
-35.152
-24.781
-14.981
-6.241
1.204
7.219
11.947
15.509
17.906
19.22
19.582
19.101
17.874
16.031
13.623
10.611
7.122
3.431
-0.159
