Name
Date of Birth,"Mar 27, 1959"
Recorded Date,2021-11-21 18:12:34 -0500
Classification,Sinus Rhythm
Symptoms,
Software Version,1.90
Device,"Watch4,2"
Sample Rate,510.227 hertz


Lead,Lead I
Unit,µV

-27.69
-30.372
-33.044
-35.683
-38.263
-40.741
-43.061
-45.17
-47.029
-48.609
-49.891
-50.871
-51.561
-52.02
-52.347
-52.641
-53.003
-53.526
-54.282
-55.365
-56.874
-58.894
-61.54
-64.955
-69.229
-74.365
-80.269
-86.683
-93.277
-99.691
-105.437
-109.923
-112.668
-113.432
-112.302
-109.759
-106.537
-103.397
-101.162
-100.818
-102.664
-105.977
-109.494
-111.11
-109.82
-106.269
-100.508
-91.852
-75.894
-45.291
5.821
81.749
180.351
294.885
418.856
543.014
660.274
763.695
842.066
886.324
887.694
839.941
745.421
610.805
448.497
277.879
117.786
-14.796
-107.567
-160.935
-182.034
-179.486
-164.561
-142.484
-115.682
-91.966
-77.052
-75.32
-89.511
-111.3
-129.474
-137.604
-131.486
-115.796
-100.302
-89.877
-87.783
-93.385
-101.649
-110.052
-116.938
-121.215
-124.043
-126.018
-127.058
-127.291
-126.571
-124.948
-123.05
-121.609
-120.993
-121.328
-122.595
-124.61
-127.188
-130.153
-133.166
-135.846
-137.984
-139.478
-140.3
-140.51
-140.146
-139.226
-137.819
-135.999
-133.822
-131.335
-128.569
-125.549
-122.328
-118.974
-115.555
-112.127
-108.722
-105.356
-102.04
-98.774
-95.553
-92.362
-89.178
-85.984
-82.768
-79.518
-76.224
-72.871
-69.441
-65.915
-62.274
-58.5
-54.579
-50.499
-46.25
-41.827
-37.228
-32.45
-27.496
-22.367
-17.064
-11.589
-5.946
-0.139
5.825
11.939
18.191
24.569
31.057
37.638
44.293
51
57.736
64.478
71.2
77.874
84.475
90.974
97.342
103.55
109.57
115.371
120.926
126.207
131.187
135.84
140.141
144.067
147.598
150.714
153.398
155.634
157.411
158.717
159.544
159.888
159.743
159.11
157.991
156.391
154.316
151.778
148.789
145.364
141.522
137.282
132.666
127.697
122.402
116.807
110.939
104.827
98.502
91.994
85.334
78.552
71.682
64.752
57.794
50.837
43.911
37.043
30.26
23.587
17.05
10.669
4.468
-1.536
-7.323
-12.879
-18.188
-23.24
-28.022
-32.529
-36.752
-40.688
-44.334
-47.69
-50.756
-53.535
-56.03
-58.247
-60.191
-61.871
-63.295
-64.473
-65.415
-66.132
-66.635
-66.938
-67.051
-66.988
-66.76
-66.382
-65.864
-65.22
-64.462
-63.601
-62.648
-61.616
-60.515
-59.354
-58.143
-56.891
-55.606
-54.295
-52.965
-51.621
-50.27
-48.915
-47.561
-46.212
-44.87
-43.539
-42.219
-40.915
-39.626
-38.354
-37.1
-35.865
-34.65
-33.454
-32.278
-31.123
-29.989
-28.875
-27.782
-26.71
-25.659
-24.628
-23.619
-22.63
-21.663
-20.716
-19.79
-18.886
-18.005
-17.146
-16.312
-15.502
-14.719
-13.963
-13.236
-12.539
-11.874
-11.243
-10.646
-10.086
-9.563
-9.08
-8.636
-8.234
-7.874
-7.558
-7.285
-7.057
-6.873
-6.736
-6.644
-6.598
-6.598
-6.646
-6.74
-6.881
-7.07
-7.307
-7.592
-7.924
-8.304
-8.731
-9.205
-9.725
-10.291
-10.9
-11.554
-12.249
-12.985
-13.761
-14.576
-15.426
-16.311
-17.229
-18.177
-19.153
-20.156
-21.182
-22.229
-23.296
-24.378
-25.474
-26.58
-27.693
-28.809
-29.924
-31.034
-32.133
-33.217
-34.28
-35.316
-36.321
-37.287
-38.209
-39.082
-39.898
-40.652
-41.337
-41.946
-42.475
-42.915
-43.261
-43.507
-43.647
-43.677
-43.591
-43.386
-43.058
-42.603
-42.019
-41.304
-40.454
-39.47
-38.35
-37.097
-35.711
-34.197
-32.559
-30.803
-28.941
-26.981
-24.936
-22.818
-20.639
-18.414
-16.158
-13.889
-11.622
-9.376
-7.169
-5.019
-2.949
-0.978
0.874
2.588
4.149
5.543
6.754
7.768
8.574
9.161
9.522
9.65
9.531
9.158
8.526
7.631
6.477
5.072
3.425
1.555
-0.512
-2.748
-5.123
-7.601
-10.149
-12.735
-15.326
-17.896
-20.416
-22.857
-25.182
-27.346
-29.305
-31.026
-32.521
-33.813
-34.92
-35.91
-36.89
-38.023
-39.583
-41.822
-44.804
-48.545
-53.05
-58.157
-63.696
-69.378
-74.497
-78.332
-80.512
-80.784
-79.095
-75.718
-70.799
-64.617
-58.219
-52.842
-49.368
-48.607
-50.937
-56.115
-64.256
-74.802
-85.287
-92.896
-94.918
-89.825
-79.354
-65.131
-45.744
-17.025
28.976
99.123
193.608
308.224
434.578
562.026
683.904
793.199
880.428
938.262
957.238
930.709
860.742
751.122
611.03
454.501
294.079
145.352
23.403
-62.957
-110.238
-122.966
-113.233
-94.574
-78.25
-70.663
-71.328
-74.961
-75.287
-68.699
-55.652
-40.154
-27.908
-22.091
-22.751
-28.346
-36.219
-44.483
-52.594
-59.936
-65.635
-69.258
-70.652
-69.927
-67.661
-64.458
-60.696
-56.97
-54.077
-52.431
-52.197
-53.366
-55.637
-58.742
-62.478
-66.506
-70.422
-73.937
-76.872
-79.157
-80.835
-81.93
-82.445
-82.417
-81.9
-80.956
-79.639
-77.988
-76.029
-73.799
-71.356
-68.765
-66.094
-63.406
-60.74
-58.115
-55.544
-53.03
-50.568
-48.148
-45.754
-43.36
-40.946
-38.494
-35.988
-33.411
-30.744
-27.962
-25.044
-21.967
-18.716
-15.277
-11.641
-7.797
-3.74
0.534
5.026
9.735
14.657
19.793
25.138
30.687
36.434
42.369
48.478
54.75
61.167
67.711
74.36
81.091
87.879
94.697
101.519
108.315
115.055
121.708
128.245
134.632
140.839
146.835
152.587
158.068
163.245
168.093
172.582
176.688
180.386
183.656
186.477
188.83
190.702
192.079
192.951
193.309
193.15
192.47
191.271
189.556
187.331
184.607
181.394
177.709
173.569
168.992
164.003
158.624
152.881
146.802
140.416
133.751
126.841
119.715
112.406
104.947
97.37
89.709
81.995
74.26
66.535
58.85
51.235
43.717
36.323
29.079
22.007
15.13
8.467
2.038
-4.143
-10.06
-15.702
-21.059
-26.122
-30.886
-35.347
-39.502
-43.352
-46.897
-50.141
-53.089
-55.745
-58.119
-60.217
-62.051
-63.629
-64.964
-66.068
-66.952
-67.631
-68.117
-68.423
-68.564
-68.553
-68.404
-68.129
-67.741
-67.255
-66.68
-66.03
-65.315
-64.546
-63.733
-62.884
-62.007
-61.111
-60.203
-59.288
-58.372
-57.46
-56.557
-55.665
-54.789
-53.93
-53.091
-52.274
-51.481
-50.711
-49.966
-49.247
-48.554
-47.886
-47.244
-46.627
-46.036
-45.469
-44.927
-44.409
-43.913
-43.441
-42.99
-42.562
-42.155
-41.769
-41.404
-41.06
-40.738
-40.436
-40.156
-39.897
-39.659
-39.443
-39.25
-39.077
-38.927
-38.799
-38.693
-38.609
-38.545
-38.504
-38.483
-38.482
-38.501
-38.54
-38.598
-38.674
-38.768
-38.88
-39.009
-39.155
-39.317
-39.495
-39.69
-39.9
-40.127
-40.368
-40.626
-40.9
-41.189
-41.495
-41.817
-42.157
-42.514
-42.888
-43.282
-43.695
-44.128
-44.583
-45.061
-45.562
-46.089
-46.642
-47.222
-47.83
-48.468
-49.135
-49.832
-50.559
-51.316
-52.102
-52.915
-53.756
-54.621
-55.51
-56.418
-57.344
-58.283
-59.231
-60.185
-61.139
-62.087
-63.024
-63.944
-64.841
-65.707
-66.538
-67.324
-68.059
-68.736
-69.346
-69.882
-70.336
-70.7
-70.965
-71.125
-71.173
-71.102
-70.906
-70.58
-70.12
-69.522
-68.783
-67.902
-66.877
-65.708
-64.398
-62.947
-61.361
-59.644
-57.803
-55.847
-53.787
-51.637
-49.409
-47.119
-44.784
-42.417
-40.038
-37.663
-35.311
-33.002
-30.753
-28.583
-26.514
-24.568
-22.765
-21.125
-19.664
-18.396
-17.336
-16.496
-15.886
-15.515
-15.39
-15.517
-15.911
-16.58
-17.529
-18.759
-20.265
-22.038
-24.062
-26.314
-28.757
-31.357
-34.076
-36.878
-39.732
-42.595
-45.427
-48.18
-50.801
-53.261
-55.525
-57.554
-59.31
-60.762
-61.903
-62.805
-63.54
-64.136
-64.681
-65.281
-66.113
-67.488
-69.588
-72.419
-76.006
-80.37
-85.429
-91.045
-96.763
-101.715
-105.289
-107.192
-107.18
-105.16
-101.136
-95.219
-88.137
-81.324
-76.063
-73.269
-73.592
-77.426
-84.509
-93.678
-103.092
-109.772
-111.753
-109.186
-101.562
-88.103
-66.358
-30.421
24.364
101.139
201.977
324.522
463.706
611.581
754.363
875.551
960.02
994.604
973.43
900.075
781.425
629.474
459.858
286.473
125.675
-6.473
-100.537
-152.426
-165.009
-150.306
-122.213
-93.065
-74.454
-69.381
-74.4
-83.94
-88.881
-85.386
-75.479
-63.245
-55.112
-53.69
-57.721
-65.234
-73.421
-80.974
-87.864
-93.538
-97.526
-99.687
-100.001
-98.829
-96.677
-93.839
-90.613
-87.575
-85.338
-84.237
-84.355
-85.555
-87.596
-90.295
-93.461
-96.779
-99.865
-102.465
-104.457
-105.818
-106.594
-106.805
-106.456
-105.587
-104.275
-102.582
-100.557
-98.239
-95.643
-92.813
-89.815
-86.715
-83.587
-80.478
-77.414
-74.408
-71.469
-68.595
-65.778
-63.002
-60.238
-57.465
-54.665
-51.821
-48.918
-45.934
-42.848
-39.635
-36.272
-32.74
-29.023
-25.108
-20.984
-16.645
-12.084
-7.3
-2.294
2.932
8.377
14.037
19.909
25.986
32.258
38.714
45.34
52.119
59.032
66.059
73.174
80.352
87.567
94.789
101.989
109.135
116.196
123.139
129.932
136.54
142.931
149.071
154.93
160.474
165.675
170.502
174.929
178.93
182.482
185.562
188.152
190.235
191.796
192.825
193.311
193.249
192.636
191.471
189.758
187.501
184.709
181.395
177.572
173.258
168.472
163.236
157.574
151.511
145.076
138.298
131.207
123.834
116.214
108.379
100.363
92.2
83.925
75.572
67.175
58.767
50.38
42.047
33.796
25.659
17.662
9.833
2.196
-5.225
-12.41
-19.339
-25.993
-32.358
-38.421
-44.169
-49.594
-54.688
-59.446
-63.864
-67.94
-71.675
-75.071
-78.131
-80.86
-83.266
-85.357
-87.14
-88.629
-89.832
-90.764
-91.437
-91.864
-92.061
-92.04
-91.818
-91.409
-90.829
-90.092
-89.213
-88.208
-87.091
-85.876
-84.577
-83.207
-81.778
-80.304
-78.795
-77.263
-75.718
-74.168
-72.624
-71.092
-69.581
-68.097
-66.645
-65.231
-63.858
-62.53
-61.249
-60.019
-58.84
-57.714
-56.641
-55.622
-54.655
-53.741
-52.879
-52.068
-51.307
-50.593
-49.925
-49.302
-48.721
-48.18
-47.677
-47.209
-46.775
-46.37
-45.994
-45.643
-45.314
-45.005
-44.713
-44.436
-44.171
-43.916
-43.668
-43.426
-43.188
-42.952
-42.716
-42.48
-42.243
-42.003
-41.759
-41.511
-41.259
-41.002
-40.739
-40.469
-40.193
-39.91
-39.619
-39.322
-39.016
-38.704
-38.384
-38.058
-37.726
-37.39
-37.051
-36.709
-36.368
-36.028
-35.692
-35.362
-35.041
-34.731
-34.435
-34.156
-33.895
-33.657
-33.442
-33.252
-33.09
-32.957
-32.855
-32.784
-32.745
-32.74
-32.768
-32.83
-32.926
-33.056
-33.219
-33.415
-33.64
-33.895
-34.176
-34.481
-34.805
-35.144
-35.495
-35.851
-36.209
-36.561
-36.902
-37.224
-37.52
-37.782
-38.004
-38.176
-38.29
-38.34
-38.316
-38.213
-38.024
-37.743
-37.364
-36.882
-36.294
-35.596
-34.785
-33.86
-32.82
-31.664
-30.394
-29.013
-27.524
-25.932
-24.244
-22.471
-20.622
-18.71
-16.748
-14.75
-12.731
-10.708
-8.696
-6.71
-4.766
-2.879
-1.066
0.653
2.259
3.735
5.064
6.231
7.221
8.018
8.611
8.995
9.167
9.121
8.846
8.323
7.536
6.481
5.154
3.557
1.696
-0.417
-2.762
-5.294
-7.97
-10.748
-13.589
-16.471
-19.364
-22.222
-24.99
-27.6
-29.989
-32.12
-33.962
-35.481
-36.663
-37.522
-38.103
-38.499
-38.809
-39.113
-39.495
-40.044
-40.853
-42.018
-43.649
-45.876
-48.792
-52.432
-56.732
-61.466
-66.349
-71.083
-75.274
-78.443
-80.198
-80.232
-78.548
-75.709
-72.378
-69.118
-66.706
-65.854
-67.037
-70.911
-76.713
-81.415
-82.199
-76.341
-62.989
-45.437
-25.448
-1.624
30.193
79.569
153.903
253.819
375.822
508.82
639.302
756.576
848.267
904.341
916.963
878.418
788.295
653.094
485.59
306.003
134.987
-10.405
-118.227
-185.948
-217.631
-219.79
-202.673
-175.249
-144.878
-120.397
-104.875
-97.606
-95.907
-92.31
-83.558
-71.003
-57.309
-47.771
-44.683
-46.768
-52.233
-58.877
-65.463
-71.691
-77.142
-81.263
-83.768
-84.782
-84.634
-83.6
-81.948
-79.979
-78.093
-76.894
-76.706
-77.495
-79.119
-81.327
-83.874
-86.572
-89.179
-91.384
-93.006
-93.987
-94.321
-94.087
-93.35
-92.139
-90.511
-88.537
-86.266
-83.747
-81.025
-78.136
-75.13
-72.069
-68.992
-65.931
-62.905
-59.916
-56.964
-54.038
-51.121
-48.189
-45.226
-42.217
-39.147
-36.005
-32.771
-29.427
-25.954
-22.331
-18.543
-14.573
-10.408
-6.038
-1.457
3.338
8.346
13.567
18.999
24.641
30.488
36.537
42.781
49.21
55.814
62.581
69.495
76.536
83.685
90.919
98.214
105.544
112.883
120.201
127.47
134.658
141.735
148.669
155.429
161.98
168.293
174.335
180.076
185.485
190.535
195.198
199.448
203.262
206.618
209.496
211.88
213.754
215.105
215.925
216.205
215.941
215.131
213.776
211.879
209.448
206.492
203.023
199.056
194.608
189.699
184.351
178.589
172.437
165.924
159.079
151.932
144.514
136.859
128.999
120.968
112.8
104.527
96.184
87.803
79.417
71.058
62.755
54.54
46.44
38.482
30.692
23.095
15.712
8.565
1.673
-4.947
-11.279
-17.31
-23.028
-28.425
-33.491
-38.222
-42.613
-46.663
-50.371
-53.74
-56.772
-59.473
-61.848
-63.907
-65.657
-67.109
-68.275
-69.165
-69.794
-70.174
-70.32
-70.246
-69.968
-69.5
-68.858
-68.058
-67.115
-66.044
-64.861
-63.58
-62.216
-60.783
-59.295
-57.766
-56.207
-54.632
-53.051
-51.476
-49.916
-48.381
-46.88
-45.419
-44.006
-42.646
-41.346
-40.109
-38.939
-37.839
-36.811
-35.858
-34.98
-34.178
-33.451
-32.798
-32.217
-31.708
-31.268
-30.893
-30.581
-30.329
-30.132
-29.987
-29.891
-29.837
-29.823
-29.843
-29.892
-29.967
-30.063
-30.174
-30.298
-30.428
-30.561
-30.694
-30.823
-30.944
-31.054
-31.151
-31.23
-31.292
-31.332
-31.35
-31.344
-31.315
-31.261
-31.182
-31.08
-30.954
-30.808
-30.641
-30.456
-30.255
-30.041
-29.817
-29.586
-29.351
-29.117
-28.887
-28.666
-28.458
-28.267
-28.097
-27.954
-27.841
-27.762
-27.723
-27.726
-27.775
-27.876
-28.03
-28.241
-28.511
-28.842
-29.236
-29.695
-30.218
-30.805
-31.456
-32.168
-32.94
-33.771
-34.655
-35.59
-36.57
-37.592
-38.648
-39.732
-40.837
-41.955
-43.076
-44.193
-45.297
-46.377
-47.425
-48.43
-49.382
-50.272
-51.09
-51.826
-52.47
-53.014
-53.447
-53.762
-53.952
-54.011
-53.932
-53.711
-53.343
-52.828
-52.163
-51.349
-50.385
-49.273
-48.017
-46.622
-45.093
-43.438
-41.666
-39.789
-37.821
-35.777
-33.676
-31.533
-29.369
-27.202
-25.053
-22.94
-20.882
-18.893
-16.993
-15.201
-13.536
-12.017
-10.66
-9.482
-8.497
-7.719
-7.163
-6.835
-6.737
-6.873
-7.246
-7.87
-8.763
-9.939
-11.402
-13.152
-15.185
-17.496
-20.07
-22.881
-25.877
-29.008
-32.226
-35.49
-38.774
-42.033
-45.211
-48.242
-51.047
-53.565
-55.763
-57.602
-59.051
-60.108
-60.786
-61.135
-61.264
-61.275
-61.269
-61.351
-61.603
-62.113
-63.002
-64.425
-66.514
-69.317
-72.751
-76.61
-80.661
-84.663
-88.29
-91.093
-92.629
-92.631
-91.206
-88.873
-86.218
-83.865
-82.554
-82.958
-85.719
-90.714
-96.35
-100.481
-100.808
-96.271
-87.749
-75.526
-58.515
-32.954
7.105
66.294
146.513
245.394
357.679
476.334
592.853
698.562
782.472
833.328
841.924
801.762
713.667
585.445
430.769
269.375
120.606
-0.158
-83.533
-131.309
-150.592
-149.379
-137.544
-119.477
-98.566
-81.187
-68.921
-62.943
-62.296
-60.53
-55.265
-47.185
-38.324
-33.442
-34.243
-39.526
-47.641
-56.289
-64.267
-71.106
-76.075
-78.891
-79.736
-79.117
-77.404
-74.424
-69.955
-64.649
-61.643
-65.033
-76.996
-96.555
-116.984
-129.671
-129.448
-115.259
-93.995
-75.458
-65.942
-69.14
-81.314
-95.021
-105.7
-109.585
-107.313
-102.935
-98.375
-95.036
-93.144
-91.144
-88.616
-85.857
-82.94
-80.222
-77.817
-75.465
-73.078
-70.689
-68.254
-65.73
-63.112
-60.368
-57.499
-54.551
-51.535
-48.428
-45.217
-41.879
-38.39
-34.741
-30.918
-26.911
-22.715
-18.327
-13.749
-8.982
-4.027
1.114
6.439
11.944
17.626
23.479
29.493
35.654
41.947
48.355
54.858
61.437
68.071
74.738
81.411
88.068
94.681
101.224
107.668
113.987
120.15
126.128
131.892
137.414
142.667
147.623
152.257
156.543
160.459
163.983
167.096
169.78
172.02
173.802
175.115
175.952
176.306
176.174
175.554
174.448
172.859
170.796
168.266
165.282
161.857
158.007
153.751
149.108
144.101
138.754
133.091
127.139
120.927
114.482
107.836
101.017
94.057
86.987
79.837
72.637
65.417
58.207
51.035
43.927
36.91
30.009
23.246
16.644
10.223
4.001
-2.006
-7.781
-13.313
-18.59
-23.602
-28.341
-32.803
-36.982
-40.877
-44.487
-47.814
-50.86
-53.63
-56.129
-58.365
-60.347
-62.083
-63.585
-64.863
-65.93
-66.798
-67.48
-67.989
-68.339
-68.543
-68.614
-68.566
-68.41
-68.16
-67.827
-67.422
-66.957
-66.441
-65.884
-65.296
-64.683
-64.055
-63.417
-62.776
-62.137
-61.505
-60.884
-60.277
-59.687
-59.116
-58.565
-58.036
-57.528
-57.041
-56.576
-56.131
-55.705
-55.298
-54.908
-54.533
-54.173
-53.826
-53.491
-53.166
-52.851
-52.545
-52.248
-51.959
-51.677
-51.403
-51.137
-50.879
-50.629
-50.388
-50.156
-49.934
-49.722
-49.522
-49.333
-49.157
-48.995
-48.846
-48.712
-48.592
-48.488
-48.4
-48.327
-48.269
-48.227
-48.199
-48.184
-48.183
-48.194
-48.215
-48.245
-48.282
-48.325
-48.371
-48.418
-48.464
-48.508
-48.546
-48.576
-48.597
-48.607
-48.604
-48.587
-48.555
-48.506
-48.441
-48.358
-48.259
-48.142
-48.01
-47.863
-47.702
-47.53
-47.349
-47.162
-46.972
-46.782
-46.596
-46.417
-46.251
-46.1
-45.97
-45.865
-45.789
-45.748
-45.745
-45.786
-45.874
-46.013
-46.206
-46.458
-46.769
-47.142
-47.578
-48.077
-48.641
-49.268
-49.958
-50.709
-51.517
-52.381
-53.296
-54.257
-55.259
-56.295
-57.358
-58.441
-59.534
-60.631
-61.72
-62.794
-63.842
-64.854
-65.82
-66.729
-67.571
-68.335
-69.01
-69.587
-70.056
-70.407
-70.634
-70.727
-70.681
-70.489
-70.148
-69.654
-69.004
-68.197
-67.231
-66.108
-64.829
-63.399
-61.821
-60.102
-58.251
-56.28
-54.201
-52.028
-49.776
-47.462
-45.103
-42.717
-40.321
-37.93
-35.562
-33.234
-30.963
-28.771
-26.677
-24.699
-22.855
-21.161
-19.634
-18.289
-17.137
-16.181
-15.428
-14.884
-14.559
-14.473
-14.643
-15.078
-15.783
-16.759
-18.001
-19.499
-21.232
-23.157
-25.232
-27.413
-29.661
-31.95
-34.245
-36.505
-38.673
-40.679
-42.46
-43.966
-45.159
-46.006
-46.497
-46.641
-46.481
-46.102
-45.594
-45.057
-44.591
-44.29
-44.251
-44.563
-45.336
-46.727
-48.865
-51.798
-55.441
-59.563
-63.867
-68.078
-71.841
-74.668
-76.101
-75.843
-74.019
-71.219
-68.103
-65.386
-63.81
-64.035
-66.832
-72.101
-77.906
-81.766
-81.11
-74.686
-64.427
-51.682
-34.738
-9.262
32.997
99.521
191.068
304.263
431.426
561.112
684.369
790.922
868.908
909.549
905.26
854.716
763.433
640.356
498.592
351.98
214.975
101.232
18.631
-32.348
-58.535
-70.84
-77.364
-79.697
-76.222
-65.499
-50.08
-37.105
-31.99
-35.254
-42.763
-48.65
-49.919
-47.577
-44.905
-44.154
-45.654
-48.789
-52.3
-55.767
-59.252
-62.214
-64.442
-66.015
-66.912
-67.284
-67.262
-66.782
-66.051
-65.661
-65.975
-67.11
-69.069
-71.632
-74.594
-77.833
-81.097
-84.052
-86.483
-88.271
-89.374
-89.861
-89.776
-89.143
-88.023
-86.482
-84.575
-82.356
-79.859
-77.117
-74.185
-71.13
-68.021
-64.916
-61.848
-58.837
-55.893
-53.017
-50.202
-47.432
-44.684
-41.941
-39.191
-36.419
-33.617
-30.768
-27.852
-24.852
-21.746
-18.515
-15.143
-11.618
-7.927
-4.064
-0.023
4.199
8.601
13.184
17.949
22.896
28.023
33.328
38.805
44.447
50.247
56.192
62.268
68.459
74.748
81.113
87.534
93.987
100.448
106.891
113.289
119.615
125.84
131.936
137.873
143.624
149.158
154.448
159.467
164.187
168.583
172.631
176.309
179.595
182.47
184.918
186.923
188.473
189.557
190.167
190.298
189.946
189.111
187.794
186
183.737
181.014
177.843
174.239
170.219
165.802
161.009
155.863
150.387
144.608
138.552
132.247
125.723
119.009
112.134
105.13
98.026
90.854
83.642
76.422
69.221
62.068
54.989
48.012
41.161
34.459
27.929
21.59
15.462
9.563
3.908
-1.49
-6.619
-11.468
-16.03
-20.298
-24.267
-27.936
-31.304
-34.371
-37.14
-39.615
-41.802
-43.707
-45.338
-46.706
-47.82
-48.692
-49.335
-49.761
-49.985
-50.02
-49.882
-49.585
-49.145
-48.577
-47.895
-47.115
-46.251
-45.317
-44.328
-43.297
-42.236
-41.158
-40.075
-38.995
-37.93
-36.888
-35.877
-34.904
-33.976
-33.097
-32.271
-31.504
-30.796
-30.151
-29.569
-29.051
-28.597
-28.205
-27.874
-27.601
-27.383
-27.218
-27.102
-27.03
-26.999
-27.003
-27.04
-27.102
-27.187
-27.29
-27.405
-27.529
-27.658
-27.787
-27.915
-28.037
-28.151
-28.255
-28.348
-28.428
-28.496
-28.549
-28.589
-28.617
-28.632
-28.637
-28.633
-28.621
-28.604
-28.585
-28.565
-28.549
-28.538
-28.536
-28.546
-28.571
-28.615
-28.681
-28.772
-28.891
-29.04
-29.223
-29.442
-29.699
-29.995
-30.332
-30.712
-31.134
-31.6
-32.107
-32.657
-33.247
-33.876
-34.543
-35.244
-35.978
-36.742
-37.532
-38.346
-39.181
-40.034
-40.901
-41.778
-42.664
-43.555
-44.447
-45.338
-46.225
-47.105
-47.975
-48.834
-49.679
-50.507
-51.318
-52.11
-52.881
-53.631
-54.357
-55.059
-55.738
-56.392
-57.021
-57.627
-58.208
-58.766
-59.302
-59.816
-60.309
-60.783
-61.236
-61.671
-62.087
-62.483
-62.859
-63.214
-63.547
-63.856
-64.139
-64.395
-64.621
-64.813
-64.969
-65.085
-65.157
-65.181
-65.153
-65.069
-64.924
-64.715
-64.439
-64.091
-63.669
-63.168
-62.585
-61.919
-61.167
-60.327
-59.397
-58.377
-57.268
-56.071
-54.789
-53.423
-51.979
-50.464
-48.886
-47.254
-45.581
-43.879
-42.163
-40.449
-38.751
-37.082
-35.455
-33.885
-32.384
-30.967
-29.649
-28.444
-27.37
-26.439
-25.665
-25.059
-24.626
-24.363
-24.267
-24.336
-24.574
-24.996
-25.612
-26.431
-27.463
-28.712
-30.181
-31.862
-33.729
-35.745
-37.871
-40.081
-42.363
-44.715
-47.121
-49.552
-51.958
-54.268
-56.425
-58.363
-59.996
-61.295
-62.29
-63.073
-63.83
-64.741
-65.917
-67.447
-69.4
-71.668
-74.013
-76.103
-77.531
-78.087
-77.742
-76.543
-74.556
-72.009
-69.349
-67.098
-65.752
-65.443
-66.044
-67.328
-69.237
-71.835
-74.898
-78.275
-81.943
-86.003
-90.856
-96.293
-100.707
-102.141
-98.779
-90.182
-77.978
-63.091
-44.638
-18.432
22.26
82.918
166.264
270.043
388.773
515.026
639.234
751.739
840.417
893.156
901.498
860.603
773.36
649.382
501.417
345.59
197.649
69.783
-28.14
-92.07
-123.65
-126.461
-109.563
-83.194
-56.283
-39.078
-34.513
-40.182
-51.806
-60.914
-64.127
-63.066
-60.176
-60.232
-65.111
-73.296
-82.979
-91.805
-98.263
-102.146
-103.633
-103.077
-100.875
-97.492
-93.432
-89.231
-85.565
-82.929
-81.513
-81.4
-82.497
-84.582
-87.468
-90.91
-94.544
-98.095
-101.357
-104.147
-106.402
-108.1
-109.195
-109.69
-109.614
-108.978
-107.817
-106.175
-104.073
-101.549
-98.651
-95.42
-91.92
-88.214
-84.365
-80.437
-76.477
-72.508
-68.553
-64.618
-60.705
-56.811
-52.924
-49.022
-45.09
-41.114
-37.081
-32.98
-28.797
-24.515
-20.119
-15.596
-10.935
-6.13
-1.174
3.937
9.203
14.624
20.196
25.912
31.766
37.753
43.867
50.1
56.444
62.886
69.417
76.024
82.691
89.403
96.14
102.883
109.61
116.299
122.926
129.467
135.898
142.192
148.324
154.268
159.999
165.493
170.723
175.667
180.3
184.602
188.551
192.129
195.318
198.101
200.465
202.398
203.889
204.93
205.515
205.639
205.3
204.497
203.234
201.512
199.338
196.72
193.669
190.197
186.319
182.05
177.409
172.416
167.091
161.456
155.536
149.354
142.936
136.307
129.493
122.522
115.418
108.21
100.922
93.581
86.212
78.84
71.487
64.177
56.932
49.772
42.718
35.787
28.997
22.365
15.906
9.634
3.561
-2.302
-7.944
-13.358
-18.535
-23.471
-28.162
-32.603
-36.793
-40.732
-44.42
-47.858
-51.048
-53.995
-56.703
-59.177
-61.421
-63.444
-65.252
-66.852
-68.252
-69.46
-70.483
-71.331
-72.01
-72.53
-72.899
-73.125
-73.217
-73.182
-73.029
-72.767
-72.402
-71.943
-71.398
-70.773
-70.075
-69.312
-68.491
-67.617
-66.696
-65.735
-64.739
-63.713
-62.663
-61.592
-60.506
-59.408
-58.303
-57.192
-56.081
-54.972
-53.868
-52.772
-51.687
-50.615
-49.559
-48.521
-47.504
-46.51
-45.542
-44.6
-43.688
-42.808
-41.96
-41.148
-40.372
-39.634
-38.936
-38.279
-37.664
-37.093
-36.565
-36.083
-35.646
-35.255
-34.911
-34.614
-34.364
-34.162
-34.008
-33.902
-33.844
-33.834
-33.871
-33.956
-34.087
-34.264
-34.487
-34.754
-35.064
-35.416
-35.808
-36.239
-36.707
-37.209
-37.744
-38.31
-38.904
-39.524
-40.166
-40.83
-41.513
-42.211
-42.922
-43.645
-44.376
-45.114
-45.856
-46.599
-47.342
-48.083
-48.82
-49.552
-50.275
-50.99
-51.694
-52.385
-53.064
-53.728
-54.378
-55.011
-55.628
-56.229
-56.813
-57.381
-57.933
-58.469
-58.991
-59.498
-59.991
-60.471
-60.938
-61.395
-61.84
-62.274
-62.699
-63.115
-63.522
-63.92
-64.309
-64.689
-65.058
-65.416
-65.76
-66.089
-66.4
-66.692
-66.961
-67.205
-67.421
-67.605
-67.753
-67.862
-67.927
-67.944
-67.907
-67.813
-67.654
-67.428
-67.128
-66.751
-66.292
-65.747
-65.111
-64.382
-63.556
-62.63
-61.602
-60.469
-59.232
-57.89
-56.444
-54.897
-53.253
-51.518
-49.699
-47.806
-45.848
-43.834
-41.777
-39.689
-37.586
-35.482
-33.391
-31.327
-29.306
-27.342
-25.454
-23.66
-21.976
-20.414
-18.99
-17.718
-16.615
-15.695
-14.969
-14.439
-14.108
-13.984
-14.081
-14.414
-14.991
-15.811
-16.873
-18.17
-19.696
-21.436
-23.356
-25.416
-27.572
-29.774
-31.998
-34.22
-36.421
-38.581
-40.649
-42.566
-44.286
-45.761
-46.961
-47.901
-48.573
-48.985
-49.241
-49.458
-49.837
-50.67
-52.105
-54.166
-56.867
-60.166
-64.003
-68.387
-73.071
-77.495
-81.288
-84.21
-86.148
-87.231
-87.408
-86.378
-84.198
-81.39
-78.56
-76.422
-75.379
-75.45
-76.936
-80.333
-85.944
-92.916
-98.841
-101.084
-97.263
-87.057
-72.367
-53.608
-29.375
4.748
55.418
126.889
220.225
332.358
457.445
588.779
717.519
832.816
921.497
968.746
963.486
902.403
789.653
638.997
470.039
302.135
154.135
38.051
-42.469
-90.246
-113.444
-119.352
-114.495
-102.709
-87.175
-74.53
-68.075
-69.088
-75.652
-80.607
-80.501
-75.513
-68.216
-63.611
-63.497
-66.975
-72.604
-78.397
-83.669
-88.384
-91.895
-93.964
-94.628
-93.946
-92.327
-90.092
-87.335
-84.433
-82.043
-80.575
-80.196
-80.892
-82.428
-84.618
-87.336
-90.325
-93.218
-95.725
-97.675
-99.003
-99.747
-99.937
-99.579
-98.704
-97.376
-95.665
-93.628
-91.309
-88.733
-85.929
-82.954
-79.866
-76.729
-73.604
-70.527
-67.515
-64.581
-61.727
-58.944
-56.223
-53.544
-50.88
-48.208
-45.51
-42.765
-39.954
-37.057
-34.048
-30.904
-27.601
-24.12
-20.446
-16.566
-12.47
-8.149
-3.599
1.184
6.198
11.441
16.913
22.608
28.523
34.649
40.976
47.491
54.18
61.025
68.008
75.106
82.294
89.547
96.837
104.135
111.41
118.631
125.765
132.778
139.636
146.306
152.753
158.945
164.848
170.432
175.666
180.522
184.972
188.993
192.56
195.656
198.261
200.36
201.942
202.997
203.519
203.504
202.95
201.86
200.239
198.094
195.436
192.278
188.636
184.528
179.976
175.003
169.634
163.895
157.817
151.429
144.762
137.85
130.725
123.421
115.972
108.412
100.773
93.089
85.392
77.713
70.081
62.527
55.076
47.755
40.587
33.594
26.796
20.213
13.859
7.751
1.901
-3.681
-8.986
-14.007
-18.738
-23.177
-27.322
-31.174
-34.736
-38.011
-41.004
-43.723
-46.176
-48.371
-50.318
-52.029
-53.515
-54.789
-55.862
-56.747
-57.457
-58.006
-58.404
-58.666
-58.803
-58.826
-58.747
-58.576
-58.324
-58
-57.614
-57.173
-56.686
-56.161
-55.605
-55.023
-54.421
-53.805
-53.178
-52.546
-51.91
-51.273
-50.639
-50.008
-49.382
-48.763
-48.15
-47.545
-46.947
-46.358
-45.777
-45.206
-44.643
-44.089
-43.545
-43.012
-42.489
-41.978
-41.48
-40.995
-40.526
-40.072
-39.636
-39.219
-38.821
-38.443
-38.088
-37.757
-37.449
-37.168
-36.912
-36.685
-36.488
-36.32
-36.184
-36.081
-36.011
-35.976
-35.976
-36.011
-36.082
-36.188
-36.33
-36.507
-36.718
-36.962
-37.238
-37.544
-37.88
-38.241
-38.628
-39.037
-39.465
-39.912
-40.373
-40.848
-41.333
-41.826
-42.326
-42.831
-43.339
-43.848
-44.356
-44.862
-45.364
-45.86
-46.349
-46.83
-47.301
-47.761
-48.209
-48.644
-49.066
-49.475
-49.87
-50.252
-50.621
-50.978
-51.323
-51.659
-51.986
-52.306
-52.621
-52.933
-53.244
-53.556
-53.871
-54.192
-54.52
-54.855
-55.2
-55.554
-55.919
-56.294
-56.68
-57.077
-57.483
-57.899
-58.324
-58.757
-59.196
-59.64
-60.088
-60.535
-60.98
-61.419
-61.848
-62.262
-62.658
-63.03
-63.373
-63.681
-63.949
-64.169
-64.335
-64.439
-64.474
-64.432
-64.306
-64.089
-63.774
-63.355
-62.827
-62.186
-61.427
-60.547
-59.543
-58.414
-57.157
-55.771
-54.258
-52.618
-50.854
-48.97
-46.97
-44.863
-42.657
-40.362
-37.989
-35.552
-33.064
-30.541
-28.001
-25.464
-22.948
-20.471
-18.052
-15.711
-13.467
-11.341
-9.35
-7.512
-5.843
-4.358
-3.077
-2.015
-1.182
-0.581
-0.21
-0.068
-0.159
-0.495
-1.082
-1.924
-3.02
-4.372
-5.978
-7.834
-9.926
-12.213
-14.644
-17.177
-19.774
-22.427
-25.132
-27.871
-30.609
-33.284
-35.834
-38.205
-40.358
-42.24
-43.779
-44.98
-45.929
-46.807
-47.877
-49.371
-51.427
-54.121
-57.509
-61.436
-65.615
-69.725
-73.263
-75.791
-77.004
-76.648
-74.612
-71.201
-66.919
-62.171
-57.543
-53.554
-50.766
-49.94
-51.564
-55.719
-62.226
-70.855
-81.448
-93.103
-103.379
-109.611
-109.359
-102.005
-90.273
-75.555
-55.933
-26.586
21.285
94.437
192.32
310.047
438.689
567.029
687.971
794.735
878.087
930.266
941.495
903.357
815.598
683.181
518.793
343.666
178.73
42.495
-52.522
-107.45
-129.76
-128.951
-117.334
-100.368
-81.628
-67.471
-58.699
-56.144
-58.998
-60.525
-58.336
-53.088
-46.453
-43.199
-45.109
-51.006
-59.414
-68.112
-75.882
-82.338
-86.984
-89.716
-90.651
-90.035
-88.329
-85.908
-83.089
-80.39
-78.392
-77.442
-77.65
-78.917
-81.007
-83.707
-86.818
-90.039
-93.001
-95.455
-97.273
-98.421
-98.946
-98.875
-98.217
-97.016
-95.346
-93.267
-90.835
-88.089
-85.053
-81.774
-78.322
-74.768
-71.189
-67.638
-64.146
-60.736
-57.418
-54.195
-51.067
-48.019
-45.031
-42.086
-39.169
-36.266
-33.365
-30.449
-27.495
-24.481
-21.384
-18.183
-14.861
-11.404
-7.797
-4.031
-0.096
4.015
8.304
12.777
17.437
22.289
27.335
32.576
38.009
43.632
49.439
55.421
61.568
67.865
74.298
80.848
87.496
94.219
100.993
107.795
114.596
121.368
128.083
134.71
141.218
147.574
153.748
159.708
165.421
170.858
175.988
180.783
185.214
189.256
192.885
196.078
198.814
201.075
202.845
204.11
204.858
205.081
204.774
203.932
202.557
200.652
198.221
195.275
191.823
187.881
183.466
178.595
173.292
167.579
161.482
155.029
148.249
141.174
133.834
126.263
118.495
110.563
102.502
94.346
86.129
77.885
69.647
61.448
53.319
45.29
37.391
29.65
22.092
14.742
7.624
0.757
-5.84
-12.149
-18.155
-23.847
-29.213
-34.245
-38.936
-43.282
-47.281
-50.932
-54.237
-57.2
-59.825
-62.122
-64.096
-65.76
-67.124
-68.199
-69.001
-69.542
-69.838
-69.904
-69.757
-69.414
-68.89
-68.202
-67.368
-66.404
-65.327
-64.152
-62.895
-61.57
-60.193
-58.776
-57.334
-55.878
-54.42
-52.971
-51.54
-50.138
-48.771
-47.447
-46.173
-44.954
-43.795
-42.699
-41.669
-40.709
-39.819
-39.001
-38.255
-37.582
-36.979
-36.447
-35.983
-35.586
-35.253
-34.981
-34.767
-34.61
-34.505
-34.45
-34.442
-34.478
-34.555
-34.671
-34.822
-35.008
-35.224
-35.47
-35.742
-36.039
-36.36
-36.703
-37.067
-37.451
-37.853
-38.272
-38.708
-39.16
-39.626
-40.105
-40.597
-41.101
-41.617
-42.143
-42.679
-43.225
-43.78
-44.343
-44.914
-45.493
-46.078
-46.668
-47.263
-47.861
-48.462
-49.065
-49.668
-50.269
-50.868
-51.464
-52.055
-52.639
-53.215
-53.781
-54.337
-54.881
-55.413
-55.931
-56.435
-56.926
-57.402
-57.865
-58.316
-58.755
-59.183
-59.601
-60.01
-60.413
-60.81
-61.203
-61.594
-61.985
-62.378
-62.774
-63.176
-63.584
-64.002
-64.429
-64.867
-65.318
-65.782
-66.259
-66.75
-67.255
-67.774
-68.307
-68.853
-69.41
-69.976
-70.549
-71.125
-71.701
-72.272
-72.833
-73.377
-73.899
-74.391
-74.848
-75.261
-75.623
-75.927
-76.163
-76.325
-76.403
-76.39
-76.278
-76.059
-75.726
-75.274
-74.697
-73.989
-73.147
-72.167
-71.046
-69.782
-68.376
-66.827
-65.135
-63.305
-61.339
-59.245
-57.028
-54.698
-52.263
-49.738
-47.137
-44.478
-41.779
-39.061
-36.345
-33.654
-31.01
-28.434
-25.943
-23.558
-21.295
-19.176
-17.219
-15.443
-13.867
-12.509
-11.385
-10.506
-9.881
-9.504
-9.371
-9.48
-9.833
-10.444
-11.324
-12.479
-13.916
-15.636
-17.639
-19.913
-22.427
-25.129
-27.971
-30.916
-33.941
-37.041
-40.194
-43.356
-46.459
-49.421
-52.17
-54.644
-56.755
-58.464
-59.791
-60.844
-61.841
-63
-64.473
-66.352
-68.688
-71.372
-74.177
-76.753
-78.643
-79.591
-79.515
-78.434
-76.474
-73.912
-71.169
-68.844
-67.606
-67.546
-68.429
-70.103
-72.267
-75.278
-80.142
-86.42
-93.086
-98.897
-100.671
-97.729
-91.844
-84.165
-78.617
-77.244
-77.298
-75.581
-65.292
-37.804
12.572
90.675
198.089
331.151
482.548
640.632
790.237
914.64
998.567
1030.104
1002.728
918.581
786.283
619.988
438.94
261.578
103.936
-20.548
-106.202
-153.531
-166.226
-155.007
-131.674
-106.056
-89.016
-83.712
-87.337
-95.244
-98.683
-93.71
-82.09
-67.603
-56.547
-51.993
-53.212
-58.451
-65.1
-72.008
-79.108
-85.936
-92.04
-96.764
-99.643
-100.847
-100.656
-99.257
-96.958
-94.184
-91.468
-89.464
-88.498
-88.547
-89.511
-91.196
-93.386
-95.87
-98.33
-100.414
-101.932
-102.819
-103.076
-102.772
-101.948
-100.626
-98.874
-96.765
-94.359
-91.706
-88.837
-85.783
-82.595
-79.334
-76.066
-72.838
-69.676
-66.591
-63.587
-60.658
-57.795
-54.979
-52.187
-49.395
-46.587
-43.743
-40.848
-37.88
-34.816
-31.632
-28.304
-24.807
-21.125
-17.241
-13.142
-8.821
-4.269
0.517
5.539
10.797
16.291
22.02
27.982
34.172
40.581
47.2
54.016
61.014
68.174
75.477
82.897
90.411
97.992
105.609
113.233
120.832
128.374
135.826
143.155
150.325
157.302
164.053
170.544
176.743
182.617
188.136
193.271
197.994
202.281
206.108
209.455
212.303
214.634
216.437
217.699
218.411
218.57
218.171
217.215
215.704
213.646
211.049
207.926
204.292
200.163
195.559
190.502
185.016
179.127
172.861
166.248
159.318
152.1
144.629
136.934
129.051
121.01
112.847
104.592
96.278
87.937
79.6
71.296
63.054
54.904
46.87
38.98
31.256
23.722
16.398
9.303
2.455
-4.132
-10.442
-16.465
-22.192
-27.613
-32.724
-37.519
-41.997
-46.156
-49.998
-53.524
-56.738
-59.646
-62.254
-64.569
-66.6
-68.357
-69.849
-71.088
-72.085
-72.853
-73.403
-73.749
-73.904
-73.882
-73.695
-73.357
-72.883
-72.286
-71.578
-70.774
-69.886
-68.926
-67.906
-66.838
-65.731
-64.597
-63.444
-62.281
-61.117
-59.958
-58.811
-57.682
-56.575
-55.496
-54.449
-53.435
-52.458
-51.52
-50.622
-49.766
-48.953
-48.182
-47.455
-46.771
-46.129
-45.53
-44.973
-44.456
-43.979
-43.54
-43.138
-42.771
-42.439
-42.14
-41.873
-41.637
-41.431
-41.255
-41.108
-40.99
-40.902
-40.844
-40.817
-40.823
-40.864
-40.94
-41.055
-41.21
-41.408
-41.652
-41.944
-42.286
-42.681
-43.13
-43.636
-44.199
-44.821
-45.501
-46.24
-47.037
-47.892
-48.804
-49.77
-50.788
-51.856
-52.971
-54.128
-55.324
-56.553
-57.809
-59.088
-60.381
-61.68
-62.978
-64.264
-65.53
-66.764
-67.958
-69.099
-70.175
-71.176
-72.09
-72.905
-73.61
-74.194
-74.645
-74.956
-75.116
-75.117
-74.954
-74.62
-74.109
-73.419
-72.548
-71.494
-70.258
-68.841
-67.246
-65.476
-63.538
-61.437
-59.183
-56.787
-54.259
-51.617
-48.877
-46.057
-43.178
-40.262
-37.331
-34.408
-31.516
-28.677
-25.913
-23.246
-20.696
-18.29
-16.051
-13.999
-12.154
-10.535
-9.158
-8.04
-7.194
-6.622
-6.328
-6.317
-6.599
-7.193
-8.114
-9.368
-10.956
-12.875
-15.117
-17.669
-20.505
-23.578
-26.837
-30.231
-33.713
-37.252
-40.807
-44.32
-47.724
-50.933
-53.871
-56.489
-58.745
-60.6
-62.035
-63.062
-63.722
-64.108
-64.32
-64.453
-64.609
-64.89
-65.401
-66.254
-67.585
-69.576
-72.357
-75.948
-80.229
-84.929
-89.721
-94.293
-98.225
-100.951
-102.022
-101.227
-98.795
-95.449
-91.936
-88.992
-87.454
-88.064
-91.454
-97.336
-103.775
-108.224
-107.963
-101.584
-89.655
-72.079
-47.64
-12.772
37.788
107.914
199.42
310.289
436.253
570.775
703.981
824.66
918.334
970.557
971.486
916.145
808.26
659.183
484.621
304.953
139.647
3.859
-92.14
-148.968
-172.763
-170.696
-153.875
-128.706
-101.05
-80.302
-68.716
-66.608
-71.311
-73.829
-70.831
-63.362
-54.162
-48.999
-49.965
-55.728
-64.501
-73.847
-82.494
-89.978
-95.684
-99.432
-101.276
-101.42
-100.301
-98.255
-95.582
-92.87
-90.794
-89.762
-89.915
-91.149
-93.231
-95.965
-99.159
-102.5
-105.594
-108.177
-110.121
-111.402
-112.076
-112.175
-111.705
-110.712
-109.271
-107.448
-105.292
-102.839
-100.103
-97.126
-93.969
-90.698
-87.378
-84.055
-80.752
-77.481
-74.252
-71.06
-67.9
-64.754
-61.599
-58.415
-55.187
-51.898
-48.533
-45.072
-41.495
-37.78
-33.904
-29.849
-25.601
-21.148
-16.481
-11.594
-6.483
-1.147
4.412
10.192
16.191
22.404
28.827
35.452
42.268
49.265
56.426
63.736
71.174
78.719
86.347
94.032
101.746
109.46
117.145
124.768
132.297
139.698
146.939
153.983
160.798
167.349
173.604
179.529
185.094
190.268
195.023
199.332
203.172
206.519
209.354
211.659
213.419
214.622
215.258
215.32
214.804
213.71
212.038
209.794
206.986
203.624
199.723
195.297
190.367
184.954
179.08
172.773
166.059
158.968
151.532
143.783
135.755
127.482
119.001
110.347
101.557
92.667
83.712
74.729
65.752
56.817
47.955
39.2
30.583
22.132
13.875
5.84
-1.95
-9.472
-16.705
-23.63
-30.231
-36.494
-42.405
-47.953
-53.132
-57.933
-62.354
-66.392
-70.046
-73.319
-76.214
-78.737
-80.896
-82.698
-84.155
-85.279
-86.082
-86.579
-86.786
-86.718
-86.393
-85.828
-85.042
-84.054
-82.882
-81.545
-80.063
-78.455
-76.739
-74.934
-73.058
-71.129
-69.163
-67.177
-65.188
-63.21
-61.257
-59.344
-57.482
-55.684
-53.96
-52.319
-50.77
-49.322
-47.979
-46.748
-45.634
-44.639
-43.766
-43.016
-42.39
-41.887
-41.505
-41.242
-41.095
-41.059
-41.13
-41.302
-41.57
-41.926
-42.365
-42.878
-43.459
-44.1
-44.792
-45.528
-46.3
-47.1
-47.919
-48.751
-49.586
-50.419
-51.242
-52.048
-52.831
-53.586
-54.305
-54.985
-55.62
-56.206
-56.74
-57.219
-57.639
-57.999
-58.298
-58.536
-58.714
-58.831
-58.889
-58.892
-58.842
-58.742
-58.596
-58.409
-58.186
-57.931
-57.65
-57.35
-57.035
-56.713
-56.389
-56.07
-55.761
-55.468
-55.197
-54.953
-54.742
-54.568
-54.436
-54.349
-54.313
-54.33
-54.402
-54.533
-54.724
-54.977
-55.29
-55.663
-56.096
-56.584
-57.126
-57.716
-58.349
-59.019
-59.718
-60.44
-61.176
-61.916
-62.652
-63.372
-64.065
-64.722
-65.331
-65.881
-66.36
-66.757
-67.062
-67.263
-67.352
-67.319
-67.155
-66.851
-66.401
-65.797
-65.035
-64.109
-63.015
-61.753
-60.32
-58.717
-56.946
-55.013
-52.922
-50.684
-48.309
-45.81
-43.202
-40.501
-37.727
-34.897
-32.032
-29.152
-26.276
-23.425
-20.622
-17.888
-15.248
-12.724
-10.34
-8.117
-6.076
-4.239
-2.622
-1.238
-0.098
0.789
1.408
1.741
1.768
1.477
0.858
-0.095
-1.383
-2.999
-4.926
-7.128
-9.566
-12.196
-14.974
-17.87
-20.846
-23.858
-26.853
-29.759
-32.514
-35.064
-37.36
-39.357
-41.031
-42.375
-43.427
-44.275
-45.004
-45.703
-46.471
-47.397
-48.592
-50.177
-52.244
-54.904
-58.293
-62.511
-67.606
-73.509
-79.971
-86.669
-93.24
-99.191
-103.958
-107.025
-107.995
-106.91
-104.266
-100.657
-96.888
-93.958
-92.793
-94.418
-98.888
-104.24
-107.846
-106.875
-100.149
-89.495
-76.351
-59.874
-35.011
6.973
74.37
171.871
297.651
445.371
605.191
763.682
906.028
1015.126
1073.326
1068.475
997.466
866.097
690.698
493.945
297.862
123.934
-12.323
-104.889
-154.944
-170.21
-161.667
-140.242
-113.578
-88.457
-71.902
-66.526
-73.344
-89.766
-106.517
-116.422
-116.091
-104.557
-87.762
-72.821
-62.877
-60.272
-63.744
-69.48
-75.778
-81.122
-84.742
-87.426
-89.4
-90.649
-91.233
-90.891
-89.661
-87.973
-86.344
-85.332
-85.222
-86.031
-87.672
-89.948
-92.631
-95.473
-98.174
-100.434
-102.085
-103.061
-103.361
-103.055
-102.203
-100.857
-99.086
-96.962
-94.541
-91.872
-89.003
-85.979
-82.862
-79.72
-76.602
-73.541
-70.555
-67.649
-64.818
-62.048
-59.316
-56.595
-53.859
-51.092
-48.275
-45.391
-42.418
-39.332
-36.11
-32.726
-29.159
-25.387
-21.393
-17.163
-12.688
-7.961
-2.979
2.259
7.754
13.506
19.512
25.772
32.278
39.024
45.999
53.191
60.583
68.157
75.891
83.76
91.738
99.798
107.907
116.036
124.149
132.213
140.191
148.047
155.743
163.241
170.503
177.492
184.171
190.504
196.455
201.992
207.082
211.696
215.807
219.391
222.424
224.889
226.768
228.048
228.719
228.774
228.21
227.026
225.225
222.814
219.803
216.205
212.036
207.316
202.067
196.315
190.087
183.412
176.323
168.855
161.042
152.922
144.533
135.915
127.108
118.153
109.088
99.955
90.793
81.64
72.534
63.511
54.606
45.852
37.281
28.921
20.8
12.943
5.372
-1.892
-8.831
-15.43
-21.675
-27.556
-33.065
-38.196
-42.945
-47.312
-51.297
-54.904
-58.138
-61.006
-63.518
-65.685
-67.519
-69.033
-70.244
-71.166
-71.817
-72.215
-72.376
-72.32
-72.065
-71.63
-71.031
-70.288
-69.418
-68.437
-67.362
-66.209
-64.993
-63.728
-62.427
-61.104
-59.771
-58.438
-57.116
-55.815
-54.542
-53.307
-52.115
-50.973
-49.886
-48.858
-47.893
-46.994
-46.163
-45.402
-44.711
-44.091
-43.542
-43.063
-42.653
-42.311
-42.037
-41.827
-41.682
-41.599
-41.577
-41.613
-41.707
-41.857
-42.06
-42.314
-42.618
-42.969
-43.364
-43.801
-44.278
-44.792
-45.339
-45.917
-46.524
-47.155
-47.809
-48.48
-49.168
-49.867
-50.575
-51.29
-52.008
-52.727
-53.445
-54.159
-54.868
-55.568
-56.259
-56.939
-57.604
-58.253
-58.883
-59.493
-60.081
-60.645
-61.185
-61.7
-62.19
-62.655
-63.096
-63.514
-63.91
-64.285
-64.641
-64.98
-65.305
-65.618
-65.922
-66.219
-66.515
-66.81
-67.109
-67.413
-67.724
-68.043
-68.371
-68.708
-69.052
-69.402
-69.756
-70.113
-70.473
-70.833
-71.195
-71.557
-71.916
-72.274
-72.627
-72.971
-73.299
-73.602
-73.869
-74.092
-74.262
-74.37
-74.408
-74.367
-74.241
-74.026
-73.717
-73.303
-72.775
-72.113
-71.303
-70.344
-69.238
-67.994
-66.633
-65.17
-63.623
-62.022
-60.386
-58.724
-57.035
-55.303
-53.505
-51.641
-49.717
-47.759
-45.794
-43.827
-41.859
-39.883
-37.876
-35.816
-33.676
-31.403
-28.971
-26.386
-23.682
-20.94
-18.256
-15.698
-13.311
-11.117
-9.125
-7.369
-5.888
-4.725
-3.94
-3.59
-3.748
-4.523
-5.989
-8.163
-11.007
-14.413
-18.236
-22.378
-26.769
-31.351
-36.076
-40.875
-45.657
-50.34
-54.841
-59.051
-62.824
-66.034
-68.628
-70.674
-72.37
-73.916
-75.476
-77.236
-79.339
-81.768
-84.375
-86.784
-88.51
-89.368
-89.326
-88.284
-86.243
-83.314
-79.777
-76.338
-73.681
-71.889
-70.853
-70.5
-70.835
-72.189
-74.677
-77.96
-81.897
-86.69
-92.741
-99.901
-106.587
-110.383
-108.853
-101.363
-89.461
-74.397
-55.956
-29.954
10.993
73.707
162.62
276.109
408.045
549.344
688.497
814.986
916.255
979.183
992.805
948.211
844.852
691.385
503.948
305.15
117.728
-39.753
-155.139
-224.493
-250.61
-241.249
-208.383
-165.325
-124.959
-97.404
-85.089
-84.518
-88.295
-87.644
-79.932
-67.41
-54.602
-47.333
-47.342
-52.96
-61.918
-71.516
-80.231
-87.802
-93.899
-98.138
-100.479
-101.1
-100.302
-98.5
-96.15
-93.615
-91.349
-89.919
-89.541
-90.175
-91.699
-93.841
-96.332
-98.954
-101.431
-103.467
-104.91
-105.708
-105.855
-105.423
-104.462
-103.007
-101.121
-98.87
-96.304
-93.466
-90.4
-87.146
-83.76
-80.311
-76.847
-73.405
-70.006
-66.656
-63.359
-60.108
-56.888
-53.678
-50.457
-47.212
-43.927
-40.59
-37.183
-33.684
-30.071
-26.321
-22.416
-18.337
-14.068
-9.597
-4.915
-0.016
5.101
10.438
15.994
21.77
27.764
33.973
40.394
47.019
53.839
60.844
68.019
75.348
82.811
90.386
98.05
105.779
113.545
121.319
129.072
136.773
144.389
151.887
159.233
166.393
173.333
180.018
186.416
192.492
198.214
203.553
208.479
212.965
216.985
220.516
223.538
226.032
227.982
229.374
230.198
230.445
230.111
229.194
227.693
225.615
222.964
219.753
215.992
211.698
206.89
201.587
195.814
189.596
182.96
175.936
168.555
160.849
152.853
144.601
136.129
127.474
118.671
109.757
100.769
91.742
82.712
73.712
64.776
55.937
47.225
38.669
30.297
22.137
14.21
6.542
-0.849
-7.944
-14.725
-21.18
-27.295
-33.061
-38.469
-43.514
-48.192
-52.501
-56.443
-60.018
-63.232
-66.091
-68.602
-70.775
-72.619
-74.148
-75.374
-76.312
-76.975
-77.381
-77.544
-77.483
-77.213
-76.753
-76.119
-75.328
-74.397
-73.344
-72.184
-70.934
-69.608
-68.223
-66.792
-65.329
-63.848
-62.361
-60.879
-59.413
-57.973
-56.568
-55.205
-53.891
-52.633
-51.434
-50.301
-49.235
-48.239
-47.314
-46.461
-45.681
-44.972
-44.332
-43.761
-43.255
-42.811
-42.428
-42.1
-41.825
-41.6
-41.419
-41.28
-41.179
-41.111
-41.073
-41.061
-41.07
-41.098
-41.141
-41.195
-41.258
-41.326
-41.398
-41.472
-41.544
-41.615
-41.683
-41.748
-41.809
-41.866
-41.921
-41.975
-42.028
-42.084
-42.144
-42.21
-42.286
-42.373
-42.474
-42.593
-42.731
-42.892
-43.078
-43.292
-43.536
-43.812
-44.124
-44.471
-44.857
-45.282
-45.748
-46.254
-46.802
-47.39
-48.02
-48.688
-49.396
-50.139
-50.917
-51.726
-52.562
-53.421
-54.299
-55.188
-56.084
-56.979
-57.866
-58.739
-59.589
-60.409
-61.19
-61.926
-62.607
-63.225
-63.773
-64.241
-64.622
-64.908
-65.091
-65.164
-65.121
-64.957
-64.666
-64.244
-63.687
-62.993
-62.159
-61.184
-60.067
-58.808
-57.411
-55.878
-54.215
-52.428
-50.526
-48.52
-46.425
-44.253
-42.019
-39.737
-37.424
-35.098
-32.778
-30.48
-28.223
-26.024
-23.903
-21.88
-19.976
-18.21
-16.599
-15.157
-13.9
-12.841
-11.995
-11.37
-10.972
-10.807
-10.88
-11.204
-11.79
-12.643
-13.764
-15.15
-16.792
-18.676
-20.783
-23.075
-25.516
-28.068
-30.689
-33.345
-36.003
-38.627
-41.184
-43.643
-45.962
-48.101
-50.017
-51.653
-53
-54.094
-54.98
-55.714
-56.383
-57.093
-58.037
-59.51
-61.685
-64.587
-68.195
-72.46
-77.354
-82.834
-88.57
-93.901
-98.286
-101.407
-103.135
-103.475
-102.225
-99.139
-94.532
-89.29
-84.344
-80.595
-78.656
-78.828
-81.994
-88.376
-96.234
-103.045
-105.917
-103.821
-99.361
-95.164
-90.871
-80.84
-54.543
-1.074
86.154
205.653
350.274
508.168
664.817
807.346
920.749
990.687
1006.941
962.507
859.785
710.408
530.652
340.893
160.674
4.079
-118.202
-200.917
-245.513
-255.012
-236.854
-201.875
-159.266
-120.605
-94.243
-80.861
-78.35
-79.053
-74.949
-65.032
-51.296
-38.448
-31.78
-31.932
-37.192
-45.656
-54.909
-63.601
-71.245
-77.073
-80.745
-82.456
-82.458
-81.031
-78.602
-75.663
-72.782
-70.695
-69.822
-70.159
-71.572
-73.806
-76.564
-79.593
-82.595
-85.212
-87.241
-88.626
-89.361
-89.522
-89.174
-88.347
-87.099
-85.5
-83.599
-81.437
-79.056
-76.489
-73.791
-71.03
-68.254
-65.497
-62.779
-60.105
-57.477
-54.887
-52.317
-49.747
-47.157
-44.535
-41.866
-39.138
-36.334
-33.432
-30.409
-27.243
-23.913
-20.4
-16.688
-12.763
-8.617
-4.244
0.36
5.194
10.26
15.559
21.09
26.853
32.842
39.053
45.476
52.102
58.918
65.906
73.047
80.321
87.704
95.172
102.698
110.255
117.811
125.337
132.8
140.168
147.407
154.482
161.358
168.001
174.377
180.451
186.192
191.566
196.545
201.099
205.201
208.829
211.958
214.568
216.643
218.167
219.128
219.518
219.329
218.558
217.206
215.276
212.774
209.711
206.099
201.952
197.29
192.134
186.506
180.432
173.94
167.06
159.822
152.261
144.41
136.305
127.982
119.477
110.828
102.071
93.244
84.381
75.519
66.693
57.935
49.279
40.755
32.392
24.22
16.262
8.543
1.085
-6.092
-12.972
-19.539
-25.781
-31.686
-37.247
-42.457
-47.311
-51.809
-55.949
-59.735
-63.169
-66.258
-69.01
-71.432
-73.536
-75.332
-76.833
-78.053
-79.005
-79.705
-80.168
-80.41
-80.446
-80.294
-79.968
-79.485
-78.861
-78.111
-77.25
-76.293
-75.254
-74.146
-72.981
-71.772
-70.529
-69.264
-67.985
-66.702
-65.423
-64.155
-62.905
-61.678
-60.48
-59.315
-58.185
-57.096
-56.048
-55.044
-54.085
-53.172
-52.306
-51.486
-50.714
-49.988
-49.307
-48.671
-48.078
-47.528
-47.018
-46.547
-46.114
-45.718
-45.356
-45.029
-44.734
-44.471
-44.237
-44.033
-43.857
-43.708
-43.585
-43.488
-43.417
-43.371
-43.349
-43.353
-43.38
-43.432
-43.507
-43.607
-43.731
-43.879
-44.051
-44.247
-44.468
-44.714
-44.986
-45.284
-45.607
-45.958
-46.335
-46.739
-47.171
-47.631
-48.118
-48.633
-49.176
-49.746
-50.343
-50.965
-51.613
-52.284
-52.977
-53.691
-54.422
-55.169
-55.929
-56.699
-57.476
-58.258
-59.041
-59.82
-60.593
-61.355
-62.102
-62.827
-63.527
-64.195
-64.826
-65.415
-65.955
-66.441
-66.866
-67.225
-67.512
-67.719
-67.843
-67.876
-67.813
-67.648
-67.377
-66.996
-66.501
-65.891
-65.162
-64.314
-63.345
-62.257
-61.049
-59.724
-58.282
-56.728
-55.065
-53.3
-51.438
-49.488
-47.459
-45.364
-43.216
-41.026
-38.808
-36.58
-34.358
-32.159
-30.002
-27.903
-25.877
-23.942
-22.114
-20.412
-18.852
-17.447
-16.208
-15.149
-14.282
-13.623
-13.181
-12.956
-12.945
-13.148
-13.563
-14.203
-15.076
-16.182
-17.52
-19.088
-20.88
-22.892
-25.109
-27.492
-29.996
-32.566
-35.158
-37.751
-40.325
-42.868
-45.348
-47.703
-49.874
-51.808
-53.453
-54.792
-55.803
-56.44
-56.754
-56.878
-56.993
-57.399
-58.347
-59.896
-62.098
-64.971
-68.36
-72.178
-76.225
-79.957
-82.906
-84.847
-85.602
-85.246
-84.064
-82.044
-79.298
-76.388
-73.943
-72.64
-73.023
-75.304
-79.527
-85.911
-94.711
-105.085
-114.781
-121.245
-121.913
-116.258
-106.431
-93.463
-76.457
-50.764
-8.317
57.256
148.838
263.638
394.655
532.815
667.728
789.684
886.777
947.108
960.768
920.036
825.283
683.728
508.722
320.042
137.986
-18.534
-135.054
-205.437
-230.629
-218.385
-182.087
-136.139
-94.352
-67.112
-56.341
-58.479
-66.149
-70.423
-68.753
-62.902
-56.581
-55.226
-60.311
-70.003
-81.855
-92.567
-100.034
-104.008
-104.768
-102.843
-98.905
-93.558
-87.401
-81.238
-76.002
-72.212
-70.028
-69.469
-70.29
-72.216
-75.055
-78.469
-82.022
-85.412
-88.408
-90.878
-92.835
-94.277
-95.172
-95.529
-95.375
-94.739
-93.679
-92.233
-90.418
-88.268
-85.821
-83.132
-80.273
-77.314
-74.32
-71.335
-68.384
-65.484
-62.644
-59.865
-57.14
-54.45
-51.767
-49.068
-46.333
-43.545
-40.686
-37.734
-34.662
-31.446
-28.067
-24.506
-20.749
-16.783
-12.598
-8.186
-3.543
1.332
6.439
11.774
17.338
23.126
29.134
35.356
41.781
48.4
55.199
62.162
69.272
76.506
83.841
91.251
98.711
106.19
113.659
121.086
128.439
135.685
142.79
149.72
156.441
162.919
169.12
175.013
180.564
185.745
190.526
194.879
198.78
202.205
205.133
207.545
209.425
210.76
211.537
211.749
211.39
210.458
208.954
206.881
204.248
201.063
197.342
193.1
188.355
183.131
177.45
171.339
164.827
157.943
150.718
143.187
135.383
127.342
119.099
110.691
102.154
93.525
84.839
76.131
67.438
58.791
50.226
41.772
33.46
25.32
17.378
9.66
2.188
-5.015
-11.932
-18.545
-24.84
-30.806
-36.431
-41.71
-46.636
-51.206
-55.42
-59.277
-62.782
-65.939
-68.755
-71.237
-73.396
-75.242
-76.787
-78.044
-79.028
-79.753
-80.235
-80.489
-80.531
-80.378
-80.046
-79.553
-78.914
-78.147
-77.267
-76.29
-75.23
-74.103
-72.923
-71.701
-70.45
-69.181
-67.904
-66.63
-65.367
-64.122
-62.903
-61.715
-60.565
-59.455
-58.39
-57.373
-56.406
-55.49
-54.627
-53.817
-53.06
-52.356
-51.704
-51.103
-50.552
-50.048
-49.589
-49.173
-48.797
-48.459
-48.154
-47.881
-47.637
-47.417
-47.22
-47.044
-46.884
-46.74
-46.608
-46.486
-46.374
-46.268
-46.168
-46.073
-45.98
-45.891
-45.803
-45.716
-45.631
-45.546
-45.462
-45.378
-45.295
-45.212
-45.131
-45.051
-44.974
-44.9
-44.83
-44.767
-44.712
-44.666
-44.631
-44.609
-44.603
-44.614
-44.644
-44.695
-44.769
-44.869
-44.995
-45.149
-45.334
-45.549
-45.795
-46.073
-46.384
-46.726
-47.101
-47.506
-47.943
-48.409
-48.905
-49.427
-49.975
-50.545
-51.136
-51.745
-52.366
-52.997
-53.631
-54.264
-54.891
-55.506
-56.102
-56.672
-57.21
-57.709
-58.162
-58.56
-58.896
-59.162
-59.351
-59.456
-59.471
-59.389
-59.205
-58.913
-58.51
-57.992
-57.356
-56.6
-55.72
-54.717
-53.589
-52.337
-50.964
-49.473
-47.869
-46.158
-44.35
-42.457
-40.49
-38.461
-36.383
-34.271
-32.143
-30.014
-27.901
-25.822
-23.792
-21.83
-19.958
-18.194
-16.558
-15.064
-13.727
-12.559
-11.574
-10.786
-10.202
-9.828
-9.668
-9.729
-10.024
-10.566
-11.359
-12.408
-13.707
-15.25
-17.028
-19.022
-21.203
-23.537
-25.988
-28.515
-31.086
-33.668
-36.227
-38.729
-41.14
-43.412
-45.499
-47.353
-48.922
-50.188
-51.177
-51.915
-52.425
-52.789
-53.12
-53.617
-54.588
-56.21
-58.49
-61.434
-65.051
-69.286
-74.058
-78.956
-83.159
-86.09
-87.502
-87.248
-85.352
-81.853
-76.718
-70.558
-64.789
-60.56
-58.789
-60.164
-64.705
-72.492
-83.196
-94.969
-105.05
-110.513
-109.715
-102.707
-89.389
-69.02
-37.506
10.922
79.045
168.305
274.918
391.919
514.297
634.913
747.089
842.496
909.329
936.771
915.479
842.865
722.841
565.633
389.125
212.256
54.977
-65.575
-142.326
-175.844
-173.734
-149.699
-116.285
-82.895
-58.176
-45.583
-43.725
-50.099
-57.826
-60.753
-58.405
-52.067
-45.544
-43.155
-45.217
-50.446
-57.524
-64.607
-70.883
-76.292
-80.357
-82.938
-84.292
-84.562
-83.904
-82.592
-80.909
-79.24
-78.18
-78.062
-78.888
-80.589
-82.987
-85.864
-89.042
-92.239
-95.105
-97.433
-99.137
-100.195
-100.662
-100.578
-99.957
-98.856
-97.345
-95.481
-93.311
-90.869
-88.181
-85.298
-82.285
-79.209
-76.123
-73.058
-70.032
-67.053
-64.121
-61.229
-58.364
-55.503
-52.628
-49.722
-46.772
-43.765
-40.683
-37.507
-34.214
-30.785
-27.197
-23.434
-19.482
-15.33
-10.97
-6.395
-1.603
3.406
8.633
14.078
19.739
25.614
31.698
37.985
44.467
51.132
57.967
64.956
72.079
79.318
86.648
94.045
101.483
108.933
116.367
123.754
131.062
138.258
145.309
152.182
158.842
165.255
171.389
177.21
182.687
187.791
192.491
196.762
200.579
203.919
206.763
209.092
210.892
212.15
212.856
213.004
212.589
211.611
210.07
207.972
205.326
202.141
198.431
194.214
189.507
184.333
178.715
172.679
166.255
159.47
152.358
144.951
137.284
129.391
121.309
113.074
104.723
96.291
87.814
79.327
70.864
62.457
54.139
45.938
37.885
30.005
22.323
14.863
7.646
0.691
-5.985
-12.367
-18.442
-24.201
-29.633
-34.734
-39.498
-43.924
-48.01
-51.76
-55.177
-58.266
-61.034
-63.491
-65.647
-67.514
-69.105
-70.433
-71.514
-72.363
-72.995
-73.426
-73.673
-73.751
-73.676
-73.464
-73.13
-72.689
-72.155
-71.54
-70.86
-70.125
-69.347
-68.536
-67.703
-66.857
-66.006
-65.158
-64.319
-63.495
-62.692
-61.914
-61.165
-60.446
-59.76
-59.108
-58.491
-57.907
-57.357
-56.838
-56.349
-55.887
-55.452
-55.039
-54.646
-54.272
-53.913
-53.566
-53.229
-52.9
-52.577
-52.257
-51.938
-51.62
-51.3
-50.977
-50.652
-50.322
-49.988
-49.649
-49.305
-48.957
-48.603
-48.245
-47.883
-47.518
-47.152
-46.785
-46.42
-46.058
-45.701
-45.351
-45.011
-44.682
-44.366
-44.066
-43.784
-43.521
-43.28
-43.063
-42.873
-42.712
-42.582
-42.485
-42.423
-42.399
-42.413
-42.468
-42.564
-42.702
-42.883
-43.108
-43.378
-43.694
-44.056
-44.464
-44.92
-45.422
-45.97
-46.564
-47.203
-47.885
-48.608
-49.371
-50.172
-51.011
-51.884
-52.788
-53.722
-54.683
-55.666
-56.667
-57.68
-58.7
-59.719
-60.732
-61.73
-62.707
-63.654
-64.565
-65.435
-66.257
-67.025
-67.732
-68.371
-68.936
-69.423
-69.82
-70.119
-70.31
-70.384
-70.335
-70.158
-69.847
-69.397
-68.803
-68.062
-67.175
-66.143
-64.961
-63.62
-62.11
-60.43
-58.597
-56.632
-54.556
-52.386
-50.14
-47.845
-45.536
-43.236
-40.953
-38.679
-36.403
-34.129
-31.878
-29.686
-27.587
-25.599
-23.723
-21.948
-20.277
-18.714
-17.249
-15.85
-14.479
-13.122
-11.815
-10.637
-9.664
-8.934
-8.464
-8.25
-8.285
-8.583
-9.153
-9.989
-11.074
-12.397
-13.966
-15.83
-18.033
-20.573
-23.391
-26.363
-29.393
-32.428
-35.412
-38.303
-41.065
-43.646
-46.07
-48.413
-50.706
-53.008
-55.4
-57.945
-60.83
-64.278
-68.36
-73.154
-78.718
-84.915
-91.58
-98.405
-104.672
-109.653
-112.904
-114.054
-112.938
-109.688
-104.409
-97.516
-90.078
-83.295
-78.184
-75.582
-75.922
-79.382
-85.566
-93.113
-100.139
-104.02
-103.412
-98.83
-89.592
-74.782
-51.066
-11.749
46.868
127.014
228.375
345.608
474.531
608.666
738.464
854.727
944.388
995.662
1000.918
954.904
859.699
723.039
557.38
381.919
216.919
80.33
-16.214
-73.285
-99.747
-108.599
-112.17
-114.73
-115.305
-111.143
-99.379
-81.79
-62.833
-46.35
-35.714
-32.163
-34.833
-42.439
-53.391
-65.829
-78.106
-88.967
-97.274
-102.268
-103.934
-102.611
-98.876
-93.655
-87.852
-82.211
-77.538
-74.399
-72.959
-73.227
-75.031
-78.028
-81.916
-86.385
-91.022
-95.521
-99.672
-103.294
-106.324
-108.748
-110.53
-111.676
-112.223
-112.189
-111.614
-110.548
-109.019
-107.074
-104.768
-102.152
-99.294
-96.263
-93.124
-89.941
-86.759
-83.602
-80.49
-77.427
-74.409
-71.428
-68.466
-65.495
-62.493
-59.441
-56.318
-53.105
-49.782
-46.325
-42.715
-38.931
-34.958
-30.784
-26.398
-21.791
-16.958
-11.896
-6.606
-1.089
4.65
10.609
16.782
23.164
29.745
36.515
43.46
50.565
57.815
65.188
72.661
80.211
87.81
95.43
103.041
110.613
118.114
125.509
132.767
139.851
146.73
153.368
159.733
165.791
171.51
176.861
181.813
186.34
190.415
194.016
197.122
199.713
201.775
203.292
204.255
204.655
204.487
203.75
202.444
200.573
198.144
195.168
191.658
187.63
183.104
178.101
172.646
166.766
160.488
153.845
146.868
139.59
132.046
124.272
116.305
108.181
99.936
91.608
83.232
74.845
66.482
58.174
49.957
41.859
33.911
26.141
18.575
11.237
4.149
-2.669
-9.199
-15.425
-21.334
-26.915
-32.16
-37.063
-41.621
-45.832
-49.697
-53.219
-56.404
-59.258
-61.791
-64.013
-65.936
-67.573
-68.939
-70.049
-70.92
-71.568
-72.011
-72.267
-72.353
-72.287
-72.086
-71.769
-71.351
-70.849
-70.28
-69.658
-68.998
-68.314
-67.618
-66.923
-66.239
-65.576
-64.942
-64.345
-63.791
-63.284
-62.829
-62.429
-62.084
-61.797
-61.566
-61.39
-61.269
-61.197
-61.173
-61.193
-61.252
-61.344
-61.467
-61.613
-61.778
-61.957
-62.144
-62.335
-62.524
-62.706
-62.879
-63.036
-63.174
-63.289
-63.378
-63.437
-63.466
-63.46
-63.418
-63.34
-63.224
-63.071
-62.879
-62.65
-62.385
-62.084
-61.75
-61.385
-60.99
-60.569
-60.125
-59.66
-59.178
-58.682
-58.176
-57.662
-57.145
-56.628
-56.114
-55.605
-55.106
-54.619
-54.146
-53.69
-53.253
-52.839
-52.448
-52.083
-51.747
-51.441
-51.167
-50.927
-50.723
-50.556
-50.429
-50.342
-50.297
-50.295
-50.338
-50.427
-50.563
-50.746
-50.978
-51.259
-51.589
-51.968
-52.396
-52.873
-53.396
-53.966
-54.582
-55.24
-55.94
-56.68
-57.457
-58.269
-59.113
-59.986
-60.885
-61.805
-62.742
-63.691
-64.647
-65.603
-66.553
-67.49
-68.405
-69.292
-70.143
-70.949
-71.701
-72.389
-73.006
-73.54
-73.984
-74.328
-74.562
-74.678
-74.668
-74.526
-74.244
-73.817
-73.239
-72.506
-71.614
-70.562
-69.348
-67.973
-66.435
-64.737
-62.882
-60.873
-58.72
-56.429
-54.012
-51.483
-48.855
-46.148
-43.382
-40.577
-37.755
-34.936
-32.137
-29.378
-26.68
-24.062
-21.548
-19.162
-16.92
-14.841
-12.941
-11.237
-9.749
-8.483
-7.439
-6.613
-5.995
-5.605
-5.471
-5.616
-6.06
-6.808
-7.835
-9.171
-10.85
-12.823
-15.058
-17.483
-19.977
-22.568
-25.304
-28.112
-30.954
-33.887
-36.857
-39.941
-43.295
-46.778
-50.34
-54.024
-57.68
-61.082
-64.088
-66.355
-67.553
-67.686
-66.528
-63.97
-60.327
-56.031
-51.735
-48.314
-46.411
-46.406
-48.832
-53.758
-60.76
-69.234
-78.028
-85.856
-91.867
-95.444
-96.183
-94.404
-90.877
-86.573
-82.911
-81.334
-82.139
-84.561
-87.523
-88.83
-87.363
-83.69
-76.376
-63.625
-41.722
-3.779
53.523
132.279
232.904
350.979
483.589
624.48
762.283
885.106
976.904
1024.013
1019.713
961.493
854.509
709.042
538.17
360.433
194.902
57.858
-39.148
-96.247
-120.062
-118.749
-103.665
-80.86
-55.558
-36.555
-26.284
-25.888
-33.612
-40.866
-44.16
-43.676
-40.892
-41.014
-46.053
-54.575
-64.82
-74.148
-80.905
-84.922
-86.432
-85.869
-83.712
-80.512
-76.816
-73.176
-70.267
-68.55
-68.173
-69.181
-71.431
-74.649
-78.619
-83.049
-87.543
-91.795
-95.577
-98.736
-101.249
-103.115
-104.317
-104.872
-104.819
-104.2
-103.077
-101.498
-99.494
-97.105
-94.381
-91.386
-88.197
-84.893
-81.544
-78.205
-74.907
-71.671
-68.507
-65.418
-62.397
-59.427
-56.48
-53.536
-50.577
-47.582
-44.537
-41.419
-38.202
-34.861
-31.374
-27.721
-23.884
-19.849
-15.602
-11.134
-6.436
-1.505
3.661
9.062
14.701
20.576
26.685
33.025
39.587
46.363
53.342
60.509
67.848
75.337
82.955
90.677
98.474
106.318
114.179
122.023
129.818
137.528
145.117
152.55
159.79
166.8
173.543
179.984
186.087
191.819
197.147
202.04
206.469
210.408
213.832
216.721
219.054
220.817
221.995
222.579
222.562
221.94
220.712
218.882
216.456
213.444
209.859
205.719
201.041
195.85
190.17
184.028
177.455
170.482
163.144
155.476
147.515
139.298
130.865
122.255
113.507
104.661
95.756
86.83
77.921
69.065
60.297
51.651
43.158
34.849
26.752
18.893
11.295
3.981
-3.03
-9.722
-16.079
-22.091
-27.748
-33.042
-37.971
-42.53
-46.722
-50.547
-54.011
-57.119
-59.881
-62.306
-64.406
-66.194
-67.685
-68.893
-69.836
-70.53
-70.993
-71.242
-71.296
-71.172
-70.888
-70.462
-69.909
-69.248
-68.493
-67.659
-66.763
-65.816
-64.833
-63.824
-62.802
-61.775
-60.754
-59.745
-58.757
-57.794
-56.864
-55.969
-55.115
-54.302
-53.534
-52.812
-52.135
-51.505
-50.919
-50.376
-49.876
-49.414
-48.99
-48.6
-48.242
-47.913
-47.61
-47.331
-47.073
-46.834
-46.612
-46.403
-46.207
-46.021
-45.844
-45.674
-45.511
-45.353
-45.2
-45.052
-44.907
-44.765
-44.627
-44.491
-44.357
-44.227
-44.099
-43.973
-43.851
-43.732
-43.617
-43.506
-43.4
-43.3
-43.206
-43.12
-43.04
-42.969
-42.907
-42.855
-42.812
-42.781
-42.76
-42.752
-42.757
-42.774
-42.805
-42.849
-42.908
-42.981
-43.07
-43.174
-43.294
-43.432
-43.588
-43.763
-43.959
-44.176
-44.416
-44.679
-44.968
-45.284
-45.627
-45.999
-46.401
-46.833
-47.297
-47.794
-48.323
-48.885
-49.479
-50.105
-50.763
-51.45
-52.165
-52.908
-53.675
-54.465
-55.275
-56.102
-56.944
-57.797
-58.658
-59.521
-60.382
-61.237
-62.079
-62.902
-63.7
-64.468
-65.197
-65.883
-66.517
-67.092
-67.602
-68.038
-68.394
-68.663
-68.836
-68.908
-68.872
-68.722
-68.454
-68.063
-67.546
-66.898
-66.117
-65.203
-64.155
-62.971
-61.652
-60.2
-58.618
-56.909
-55.078
-53.132
-51.077
-48.925
-46.688
-44.377
-42.007
-39.593
-37.152
-34.7
-32.255
-29.831
-27.445
-25.113
-22.853
-20.682
-18.622
-16.689
-14.901
-13.277
-11.832
-10.581
-9.537
-8.707
-8.095
-7.707
-7.552
-7.648
-8.009
-8.647
-9.568
-10.776
-12.269
-14.038
-16.062
-18.302
-20.716
-23.259
-25.892
-28.584
-31.3
-33.998
-36.626
-39.115
-41.404
-43.444
-45.184
-46.581
-47.622
-48.321
-48.733
-48.955
-49.074
-49.168
-49.334
-49.668
-50.261
-51.18
-52.488
-54.294
-56.762
-60.045
-64.209
-69.142
-74.636
-80.538
-86.497
-91.909
-96.175
-98.609
-99.24
-99.185
-98.775
-97.885
-95.76
-90.452
-82.854
-75.663
-71.544
-73.765
-81.977
-93.499
-104.946
-110.877
-105.884
-82.974
-36.101
36.655
134.339
249.97
375.778
507.135
638.171
763.799
875.281
958.104
998.707
987.181
921.996
810.169
664.736
502.511
339.222
190.409
69.394
-16.99
-66.76
-83.866
-79.29
-64.463
-49.48
-43.748
-49.07
-62.711
-80.402
-94.096
-100.007
-98.696
-92.233
-85.801
-82.273
-81.607
-82.933
-84.241
-84.859
-85.387
-86.249
-87.726
-89.449
-90.743
-91.451
-91.643
-91.32
-90.556
-89.389
-87.995
-86.91
-86.595
-87.201
-88.738
-91.083
-94.023
-97.4
-100.967
-104.329
-107.208
-109.458
-111
-111.876
-112.135
-111.789
-110.893
-109.53
-107.758
-105.634
-103.204
-100.488
-97.533
-94.406
-91.173
-87.908
-84.66
-81.451
-78.294
-75.192
-72.134
-69.108
-66.092
-63.056
-59.977
-56.838
-53.62
-50.309
-46.888
-43.331
-39.618
-35.725
-31.634
-27.329
-22.799
-18.035
-13.033
-7.789
-2.304
3.418
9.372
15.556
21.963
28.588
35.42
42.447
49.656
57.03
64.549
72.191
79.932
87.744
95.599
103.466
111.315
119.111
126.822
134.412
141.847
149.091
156.109
162.867
169.33
175.464
181.237
186.617
191.576
196.085
200.118
203.653
206.667
209.143
211.065
212.419
213.196
213.387
212.99
212.002
210.426
208.267
205.534
202.238
198.395
194.021
189.139
183.771
177.943
171.683
165.02
157.987
150.617
142.944
135.004
126.833
118.469
109.948
101.309
92.588
83.823
75.049
66.302
57.617
49.026
40.562
32.254
24.131
16.22
8.544
1.127
-6.011
-12.853
-19.383
-25.588
-31.457
-36.982
-42.157
-46.978
-51.443
-55.554
-59.314
-62.726
-65.798
-68.538
-70.956
-73.064
-74.873
-76.398
-77.654
-78.656
-79.42
-79.963
-80.303
-80.457
-80.442
-80.276
-79.975
-79.557
-79.037
-78.431
-77.755
-77.022
-76.246
-75.439
-74.612
-73.777
-72.941
-72.115
-71.304
-70.514
-69.752
-69.021
-68.324
-67.664
-67.041
-66.457
-65.911
-65.402
-64.93
-64.492
-64.085
-63.708
-63.356
-63.027
-62.717
-62.422
-62.14
-61.865
-61.596
-61.329
-61.06
-60.788
-60.509
-60.222
-59.926
-59.617
-59.297
-58.964
-58.618
-58.26
-57.889
-57.507
-57.116
-56.716
-56.31
-55.9
-55.487
-55.073
-54.662
-54.255
-53.854
-53.462
-53.081
-52.713
-52.359
-52.022
-51.703
-51.404
-51.125
-50.867
-50.63
-50.416
-50.224
-50.054
-49.905
-49.777
-49.669
-49.581
-49.511
-49.458
-49.421
-49.398
-49.388
-49.388
-49.399
-49.418
-49.445
-49.477
-49.515
-49.558
-49.606
-49.658
-49.715
-49.777
-49.845
-49.92
-50.003
-50.096
-50.2
-50.318
-50.451
-50.603
-50.776
-50.972
-51.194
-51.444
-51.724
-52.037
-52.384
-52.768
-53.188
-53.647
-54.145
-54.684
-55.262
-55.879
-56.535
-57.228
-57.955
-58.714
-59.5
-60.308
-61.134
-61.971
-62.813
-63.653
-64.484
-65.298
-66.085
-66.837
-67.545
-68.199
-68.788
-69.303
-69.734
-70.07
-70.302
-70.423
-70.422
-70.294
-70.031
-69.626
-69.075
-68.371
-67.512
-66.494
-65.315
-63.975
-62.474
-60.817
-59.007
-57.052
-54.963
-52.75
-50.426
-48.005
-45.503
-42.937
-40.328
-37.696
-35.058
-32.432
-29.839
-27.3
-24.839
-22.477
-20.232
-18.122
-16.166
-14.381
-12.789
-11.406
-10.236
-9.284
-8.554
-8.053
-7.804
-7.822
-8.113
-8.682
-9.531
-10.658
-12.062
-13.727
-15.614
-17.677
-19.862
-22.125
-24.444
-26.797
-29.167
-31.521
-33.789
-35.906
-37.815
-39.461
-40.822
-41.88
-42.595
-43.021
-43.293
-43.588
-44.206
-45.407
-47.265
-49.852
-53.19
-57.136
-61.62
-66.465
-71.137
-75.128
-78.123
-79.847
-80.307
-79.755
-78.145
-75.572
-72.605
-69.96
-68.493
-68.963
-71.697
-76.729
-84.227
-94.278
-105.98
-117.151
-124.956
-126.377
-120.086
-107.03
-87.905
-62.437
-27.359
23.245
94.541
189.617
306.558
439.822
581.308
720.54
847.446
949.566
1014.085
1030.372
989.867
892.259
745.581
564.677
371.633
189.066
35.153
-77.662
-146.545
-176.54
-174.608
-150.677
-115.154
-76.284
-44.409
-26.598
-23.536
-32.961
-47.235
-58.58
-64.94
-67.026
-68.434
-73.256
-81.579
-91.46
-100.377
-105.792
-107.145
-105.104
-100.394
-93.96
-86.621
-79.097
-72.275
-66.836
-63.075
-61.062
-60.685
-61.729
-63.965
-67.09
-70.718
-74.523
-78.273
-81.789
-84.949
-87.668
-89.877
-91.543
-92.673
-93.275
-93.356
-92.937
-92.048
-90.724
-89.017
-86.976
-84.647
-82.093
-79.374
-76.558
-73.712
-70.882
-68.091
-65.356
-62.679
-60.052
-57.464
-54.889
-52.293
-49.646
-46.921
-44.094
-41.142
-38.04
-34.762
-31.284
-27.582
-23.638
-19.436
-14.964
-10.21
-5.169
0.162
5.782
11.686
17.868
24.322
31.039
38.012
45.226
52.668
60.322
68.168
76.186
84.35
92.635
101.011
109.445
117.906
126.358
134.767
143.095
151.304
159.357
167.216
174.841
182.196
189.243
195.946
202.269
208.178
213.641
218.629
223.113
227.069
230.475
233.309
235.557
237.203
238.238
238.654
238.447
237.615
236.161
234.09
231.411
228.134
224.276
219.854
214.89
209.407
203.431
196.99
190.116
182.839
175.195
167.219
158.946
150.416
141.665
132.733
123.658
114.48
105.236
95.964
86.702
77.484
68.347
59.321
50.44
41.732
33.225
24.946
16.918
9.163
1.699
-5.454
-12.284
-18.776
-24.922
-30.712
-36.142
-41.207
-45.906
-50.241
-54.213
-57.827
-61.089
-64.006
-66.589
-68.846
-70.792
-72.438
-73.798
-74.888
-75.723
-76.319
-76.691
-76.858
-76.835
-76.638
-76.285
-75.792
-75.173
-74.445
-73.622
-72.719
-71.75
-70.726
-69.661
-68.565
-67.449
-66.323
-65.194
-64.072
-62.964
-61.874
-60.81
-59.776
-58.775
-57.811
-56.888
-56.006
-55.168
-54.373
-53.624
-52.919
-52.258
-51.641
-51.066
-50.533
-50.039
-49.584
-49.165
-48.781
-48.43
-48.11
-47.82
-47.557
-47.319
-47.106
-46.915
-46.745
-46.594
-46.462
-46.347
-46.249
-46.166
-46.098
-46.044
-46.003
-45.975
-45.96
-45.956
-45.963
-45.982
-46.011
-46.05
-46.098
-46.156
-46.222
-46.297
-46.379
-46.467
-46.562
-46.662
-46.767
-46.877
-46.99
-47.106
-47.224
-47.344
-47.466
-47.588
-47.712
-47.835
-47.958
-48.081
-48.204
-48.326
-48.449
-48.572
-48.695
-48.821
-48.949
-49.08
-49.215
-49.356
-49.504
-49.661
-49.827
-50.005
-50.197
-50.404
-50.628
-50.87
-51.132
-51.416
-51.722
-52.051
-52.406
-52.785
-53.19
-53.621
-54.077
-54.558
-55.063
-55.591
-56.139
-56.704
-57.283
-57.874
-58.47
-59.068
-59.664
-60.25
-60.823
-61.375
-61.899
-62.388
-62.837
-63.235
-63.576
-63.852
-64.054
-64.175
-64.209
-64.148
-63.984
-63.714
-63.33
-62.828
-62.205
-61.457
-60.579
-59.572
-58.435
-57.167
-55.772
-54.252
-52.612
-50.862
-49.01
-47.067
-45.045
-42.958
-40.819
-38.644
-36.45
-34.249
-32.057
-29.891
-27.768
-25.706
-23.726
-21.847
-20.087
-18.464
-16.996
-15.699
-14.586
-13.665
-12.943
-12.428
-12.132
-12.075
-12.275
-12.74
-13.48
-14.496
-15.785
-17.337
-19.131
-21.127
-23.284
-25.561
-27.924
-30.349
-32.807
-35.258
-37.65
-39.922
-42.018
-43.899
-45.525
-46.859
-47.896
-48.652
-49.185
-49.596
-49.968
-50.381
-50.925
-51.679
-52.736
-54.194
-56.118
-58.597
-61.777
-65.731
-70.445
-75.816
-81.545
-87.28
-92.685
-97.283
-100.471
-101.794
-101.081
-98.479
-94.517
-89.944
-85.507
-82.061
-80.832
-82.184
-84.881
-87.146
-86.652
-82.639
-77.243
-72.08
-66.369
-54.96
-28.723
21.464
101.333
209.812
341.102
485.057
628.263
758.38
861.289
924.48
939.618
900.587
808.904
672.036
502.521
320.553
146.7
-0.206
-105.983
-169.565
-196.736
-196.935
-183.574
-163.139
-140.164
-121.218
-106.86
-98.357
-95.248
-90.681
-82.303
-70.596
-57.277
-47.972
-45.151
-47.823
-54.446
-62.549
-70.626
-78.213
-84.732
-89.543
-92.285
-93.019
-92.074
-89.803
-86.61
-82.961
-79.409
-76.657
-75.105
-74.769
-75.561
-77.263
-79.62
-82.4
-85.271
-87.859
-89.953
-91.478
-92.414
-92.818
-92.732
-92.169
-91.19
-89.865
-88.237
-86.344
-84.205
-81.841
-79.295
-76.628
-73.898
-71.152
-68.413
-65.691
-62.992
-60.313
-57.643
-54.966
-52.257
-49.495
-46.665
-43.754
-40.746
-37.624
-34.368
-30.957
-27.37
-23.589
-19.598
-15.387
-10.947
-6.273
-1.363
3.782
9.159
14.763
20.591
26.636
32.893
39.352
46.002
52.83
59.822
66.96
74.222
81.589
89.035
96.535
104.062
111.587
119.082
126.515
133.855
141.072
148.132
155.003
161.652
168.048
174.159
179.954
185.402
190.475
195.147
199.39
203.183
206.504
209.333
211.654
213.453
214.718
215.44
215.611
215.229
214.292
212.8
210.76
208.177
205.063
201.431
197.295
192.673
187.587
182.058
176.112
169.774
163.072
156.036
148.697
141.088
133.241
125.19
116.97
108.615
100.161
91.642
83.093
74.546
66.035
57.591
49.245
41.027
32.963
25.081
17.405
9.958
2.762
-4.165
-10.806
-17.145
-23.169
-28.867
-34.231
-39.253
-43.93
-48.258
-52.236
-55.866
-59.15
-62.094
-64.704
-66.987
-68.955
-70.617
-71.986
-73.076
-73.902
-74.478
-74.82
-74.945
-74.87
-74.611
-74.186
-73.611
-72.903
-72.079
-71.153
-70.143
-69.062
-67.925
-66.747
-65.538
-64.312
-63.08
-61.852
-60.637
-59.444
-58.28
-57.153
-56.067
-55.028
-54.04
-53.105
-52.226
-51.403
-50.637
-49.928
-49.274
-48.674
-48.124
-47.623
-47.166
-46.75
-46.372
-46.027
-45.712
-45.423
-45.156
-44.908
-44.675
-44.455
-44.243
-44.038
-43.836
-43.637
-43.438
-43.238
-43.035
-42.829
-42.619
-42.405
-42.186
-41.964
-41.738
-41.51
-41.28
-41.05
-40.821
-40.596
-40.376
-40.164
-39.962
-39.773
-39.599
-39.444
-39.308
-39.194
-39.105
-39.041
-39.005
-38.997
-39.018
-39.069
-39.15
-39.261
-39.402
-39.573
-39.772
-40.001
-40.256
-40.537
-40.842
-41.171
-41.522
-41.893
-42.282
-42.689
-43.112
-43.548
-43.998
-44.457
-44.925
-45.4
-45.879
-46.362
-46.845
-47.326
-47.805
-48.28
-48.749
-49.212
-49.667
-50.114
-50.551
-50.978
-51.393
-51.796
-52.185
-52.559
-52.916
-53.256
-53.577
-53.879
-54.158
-54.414
-54.645
-54.847
-55.018
-55.156
-55.257
-55.318
-55.335
-55.306
-55.229
-55.099
-54.915
-54.673
-54.371
-54.005
-53.575
-53.076
-52.506
-51.863
-51.147
-50.356
-49.49
-48.551
-47.541
-46.465
-45.328
-44.135
-42.892
-41.607
-40.287
-38.944
-37.587
-36.222
-34.858
-33.506
-32.175
-30.88
-29.632
-28.442
-27.318
-26.27
-25.308
-24.447
-23.699
-23.064
-22.545
-22.143
-21.867
-21.737
-21.771
-21.975
-22.354
-22.907
-23.633
-24.533
-25.597
-26.792
-28.084
-29.432
-30.799
-32.173
-33.544
-34.895
-36.204
-37.42
-38.478
-39.34
-39.978
-40.374
-40.556
-40.535
-40.312
-39.972
-39.676
-39.637
-40.094
-41.16
-42.754
-44.793
-47.353
-50.52
-54.239
-58.201
-61.865
-64.809
-67.085
-68.939
-70.131
-70.283
-69.277
-67.129
-65.047
-64.502
-65.249
-67.201
-69.59
-70.795
-71.678
-72.833
-74.906
-80.525
-90.056
-101.588
-110.855
-108.685
-85.544
-36.692
37.212
128.057
223.877
316.457
402.465
483.651
563.989
643.099
714.123
765.949
785.917
764.543
700.227
596.824
463.667
315.437
166.99
34.315
-68.053
-133.23
-160.189
-153.8
-126.106
-89.072
-53.453
-29.827
-20.637
-23.474
-33.696
-42.344
-45.661
-44.752
-41.746
-41.513
-45.772
-52.848
-61.01
-67.782
-71.92
-73.616
-73.12
-70.881
-67.463
-63.371
-59.163
-55.471
-52.683
-51.003
-50.536
-51.233
-52.948
-55.479
-58.569
-61.888
-65.179
-68.25
-70.929
-73.142
-74.851
-76.022
-76.66
-76.79
-76.434
-75.623
-74.398
-72.784
-70.816
-68.537
-65.988
-63.225
-60.313
-57.31
-54.277
-51.256
-48.275
-45.349
-42.49
-39.7
-36.975
-34.303
-31.668
-29.055
-26.452
-23.848
-21.232
-18.585
-15.887
-13.114
-10.247
-7.267
-4.159
-0.909
2.493
6.056
9.786
13.684
17.75
21.99
26.41
31.024
35.843
40.863
46.074
51.459
56.992
62.647
68.398
74.203
80.032
85.866
91.69
97.514
103.346
109.18
114.998
120.763
126.439
132.014
137.479
142.826
148.072
153.225
158.3
163.342
168.374
173.377
178.314
183.096
187.617
191.806
195.607
198.981
201.906
204.332
206.212
207.513
208.178
208.156
207.381
205.752
203.195
199.698
195.286
190.043
184.093
177.526
170.416
162.838
154.849
146.517
137.913
129.082
120.081
110.983
101.875
92.88
84.109
75.619
67.443
59.571
51.958
44.587
37.448
30.523
23.811
17.313
11.031
4.991
-0.781
-6.276
-11.499
-16.474
-21.229
-25.766
-30.078
-34.147
-37.94
-41.436
-44.622
-47.475
-49.986
-52.154
-53.982
-55.489
-56.701
-57.635
-58.307
-58.727
-58.905
-58.856
-58.597
-58.147
-57.528
-56.76
-55.864
-54.863
-53.779
-52.63
-51.432
-50.199
-48.94
-47.667
-46.39
-45.12
-43.866
-42.639
-41.448
-40.302
-39.209
-38.178
-37.213
-36.319
-35.498
-34.754
-34.088
-33.498
-32.986
-32.55
-32.187
-31.895
-31.672
-31.513
-31.415
-31.373
-31.383
-31.441
-31.54
-31.677
-31.844
-32.039
-32.254
-32.486
-32.728
-32.977
-33.227
-33.474
-33.713
-33.941
-34.153
-34.346
-34.515
-34.657
-34.77
-34.85
-34.898
-34.911
-34.888
-34.83
-34.737
-34.609
-34.449
-34.258
-34.038
-33.791
-33.521
-33.231
-32.925
-32.605
-32.277
-31.944
-31.611
-31.284
-30.966
-30.663
-30.379
-30.122
-29.894
-29.702
-29.551
-29.445
-29.39
-29.389
-29.448
-29.57
-29.759
-30.017
-30.347
-30.752
-31.232
-31.788
-32.421
-33.13
-33.914
-34.771
-35.7
-36.697
-37.759
-38.882
-40.062
-41.295
-42.574
-43.895
-45.25
-46.633
-48.037
-49.454
-50.876
-52.295
-53.703
-55.091
-56.452
-57.776
-59.055
-60.281
-61.445
-62.54
-63.559
-64.493
-65.337
-66.084
-66.728
-67.267
-67.695
-68.009
-68.205
-68.283
-68.241
-68.079
-67.798
-67.397
-66.881
-66.25
-65.51
-64.666
-63.723
-62.689
-61.573
-60.385
-59.137
-57.841
-56.509
-55.154
-53.789
-52.427
-51.08
-49.758
-48.475
-47.242
-46.074
-44.983
-43.981
-43.08
-42.289
-41.619
-41.08
-40.678
-40.415
-40.292
-40.315
-40.49
-40.833
-41.359
-42.069
-42.967
-44.049
-45.306
-46.732
-48.304
-49.985
-51.737
-53.522
-55.308
-57.078
-58.807
-60.459
-61.984
-63.319
-64.41
-65.23
-65.761
-65.982
-65.891
-65.507
-64.882
-64.11
-63.293
-62.515
-61.853
-61.384
-61.193
-61.367
-62.015
-63.27
-65.219
-67.891
-71.22
-74.99
-78.955
-82.871
-86.391
-89.088
-90.588
-90.576
-89.073
-86.636
-83.79
-80.964
-78.75
-77.602
-77.983
-80.625
-84.69
-87.421
-86.644
-80.145
-68.07
-53.818
-37.493
-16.42
14.986
65.05
136.421
225.914
326.731
429.482
527.765
616.885
690.81
742.472
761.872
740.688
677.216
574.556
443.938
302.107
164.174
46.099
-41.077
-96.505
-122.246
-125.378
-116.93
-102.357
-87.339
-78.475
-76.155
-81.047
-91.431
-99.832
-102.77
-99.256
-90.093
-80.341
-73.041
-68.613
-66.607
-65.483
-64.809
-65.177
-66.993
-70.265
-74.266
-78.138
-81.537
-84.259
-86.16
-87.238
-87.457
-87.047
-86.599
-86.571
-87.173
-88.47
-90.337
-92.58
-95.053
-97.539
-99.744
-101.476
-102.634
-103.181
-103.18
-102.7
-101.791
-100.517
-98.945
-97.116
-95.067
-92.833
-90.446
-87.952
-85.408
-82.853
-80.316
-77.813
-75.351
-72.928
-70.538
-68.163
-65.779
-63.368
-60.92
-58.427
-55.881
-53.269
-50.576
-47.785
-44.88
-41.846
-38.67
-35.338
-31.843
-28.178
-24.342
-20.332
-16.153
-11.804
-7.287
-2.603
2.245
7.252
12.412
17.718
23.159
28.726
34.403
40.174
46.023
51.93
57.877
63.841
69.802
75.735
81.617
87.424
93.131
98.712
104.141
109.395
114.446
119.271
123.845
128.145
132.149
135.835
139.185
142.181
144.805
147.044
148.886
150.318
151.335
151.928
152.093
151.829
151.136
150.015
148.472
146.514
144.148
141.388
138.245
134.734
130.872
126.677
122.17
117.37
112.3
106.983
101.443
95.706
89.797
83.741
77.566
71.297
64.961
58.584
52.191
45.807
39.457
33.165
26.952
20.84
14.85
9.001
3.311
-2.204
-7.529
-12.65
-17.554
-22.23
-26.67
-30.865
-34.808
-38.495
-41.922
-45.087
-47.988
-50.626
-53.002
-55.118
-56.979
-58.589
-59.953
-61.078
-61.972
-62.643
-63.1
-63.352
-63.41
-63.284
-62.984
-62.523
-61.91
-61.158
-60.278
-59.28
-58.177
-56.979
-55.697
-54.341
-52.923
-51.452
-49.937
-48.388
-46.815
-45.225
-43.627
-42.028
-40.438
-38.861
-37.306
-35.778
-34.283
-32.827
-31.415
-30.051
-28.739
-27.482
-26.284
-25.146
-24.072
-23.062
-22.117
-21.238
-20.426
-19.68
-19.001
-18.387
-17.837
-17.351
-16.928
-16.565
-16.261
-16.015
-15.824
-15.687
-15.601
-15.563
-15.572
-15.625
-15.719
-15.852
-16.019
-16.219
-16.447
-16.701
-16.978
-17.273
-17.585
-17.91
-18.245
-18.586
-18.933
-19.281
-19.629
-19.974
-20.314
-20.648
-20.974
-21.29
-21.595
-21.887
-22.166
-22.43
-22.678
-22.91
-23.124
-23.321
-23.499
-23.658
-23.798
-23.92
-24.022
-24.106
-24.172
-24.222
-24.257
-24.277
-24.286
-24.283
-24.273
-24.256
-24.235
-24.212
-24.191
-24.174
-24.163
-24.162
-24.172
-24.197
-24.239
-24.301
-24.385
-24.493
-24.628
-24.792
-24.987
-25.214
-25.476
-25.775
-26.111
-26.486
-26.9
-27.354
-27.847
-28.378
-28.946
-29.55
-30.186
-30.853
-31.545
-32.261
-32.995
-33.742
-34.497
-35.254
-36.005
-36.745
-37.465
-38.158
-38.816
-39.432
-39.997
-40.504
-40.945
-41.311
-41.597
-41.793
-41.894
-41.893
-41.783
-41.559
-41.217
-40.753
-40.165
-39.45
-38.608
-37.641
-36.553
-35.347
-34.029
-32.608
-31.091
-29.487
-27.809
-26.066
-24.27
-22.434
-20.57
-18.692
-16.816
-14.96
-13.139
-11.373
-9.677
-8.068
-6.564
-5.179
-3.924
-2.809
-1.844
-1.043
-0.426
-0.01
0.193
0.174
-0.074
-0.55
-1.248
-2.151
-3.229
-4.449
-5.781
-7.198
-8.683
-10.213
-11.764
-13.298
-14.766
-16.125
-17.337
-18.375
-19.213
-19.837
-20.259
-20.527
-20.73
-20.956
-21.265
-21.707
-22.333
-23.205
-24.397
-25.99
-28.03
-30.576
-33.753
-37.61
-42.117
-47.134
-52.308
-57.211
-61.479
-64.68
-66.28
-65.956
-63.636
-59.553
-54.435
-49.163
-44.498
-41.176
-40.117
-41.437
-43.895
-45.847
-45.026
-40.174
-32.885
-24.087
-11.999
7.463
42.005
98.401
176.819
273.485
381.169
490.193
594.297
687.324
760.549
806.033
814.604
779.167
700.369
584.639
444.341
297.41
160.891
48.306
-30.914
-76.681
-95.44
-95.278
-87.681
-80.414
-75.576
-74.968
-75.553
-73.079
-66.929
-56
-42.117
-29.918
-21.87
-19.349
-22.056
-27.697
-34.714
-42.4
-50.303
-58.019
-64.621
-69.337
-71.946
-72.583
-71.708
-69.729
-66.909
-63.76
-61.018
-59.164
-58.41
-58.763
-60.007
-61.941
-64.409
-67.123
-69.702
-71.895
-73.57
-74.684
-75.296
-75.436
-75.112
-74.367
-73.269
-71.869
-70.21
-68.316
-66.191
-63.868
-61.399
-58.841
-56.255
-53.684
-51.147
-48.659
-46.227
-43.852
-41.529
-39.244
-36.974
-34.704
-32.42
-30.11
-27.76
-25.355
-22.873
-20.294
-17.595
-14.76
-11.774
-8.624
-5.3
-1.794
1.899
5.783
9.857
14.121
18.576
23.22
28.052
33.066
38.257
43.615
49.13
54.789
60.578
66.479
72.474
78.54
84.657
90.8
96.945
103.065
109.135
115.126
121.01
126.759
132.344
137.736
142.908
147.833
152.483
156.833
160.858
164.536
167.846
170.768
173.284
175.379
177.04
178.255
179.016
179.316
179.151
178.519
177.423
175.864
173.85
171.389
168.493
165.174
161.449
157.335
152.852
148.022
142.868
137.413
131.684
125.707
119.51
113.122
106.572
99.888
93.099
86.236
79.327
72.401
65.485
58.606
51.791
45.065
38.451
31.973
25.65
19.503
13.55
7.807
2.288
-2.993
-8.026
-12.801
-17.312
-21.551
-25.515
-29.203
-32.613
-35.745
-38.603
-41.189
-43.51
-45.57
-47.378
-48.941
-50.269
-51.373
-52.263
-52.95
-53.446
-53.765
-53.918
-53.919
-53.781
-53.516
-53.137
-52.658
-52.09
-51.445
-50.736
-49.972
-49.166
-48.327
-47.465
-46.588
-45.705
-44.824
-43.952
-43.094
-42.258
-41.448
-40.669
-39.925
-39.22
-38.557
-37.938
-37.365
-36.841
-36.365
-35.939
-35.562
-35.235
-34.957
-34.727
-34.544
-34.406
-34.313
-34.261
-34.25
-34.277
-34.34
-34.438
-34.567
-34.726
-34.912
-35.123
-35.358
-35.614
-35.888
-36.18
-36.486
-36.805
-37.135
-37.473
-37.819
-38.169
-38.523
-38.879
-39.235
-39.59
-39.943
-40.292
-40.636
-40.975
-41.308
-41.634
-41.953
-42.265
-42.569
-42.865
-43.155
-43.437
-43.713
-43.983
-44.247
-44.507
-44.763
-45.015
-45.266
-45.517
-45.768
-46.022
-46.28
-46.544
-46.816
-47.098
-47.39
-47.696
-48.017
-48.356
-48.712
-49.089
-49.488
-49.911
-50.358
-50.832
-51.331
-51.858
-52.412
-52.994
-53.603
-54.238
-54.9
-55.586
-56.295
-57.028
-57.78
-58.551
-59.338
-60.138
-60.948
-61.764
-62.582
-63.396
-64.203
-64.996
-65.77
-66.521
-67.241
-67.926
-68.568
-69.162
-69.702
-70.181
-70.593
-70.932
-71.193
-71.369
-71.457
-71.451
-71.348
-71.144
-70.837
-70.423
-69.901
-69.27
-68.528
-67.675
-66.713
-65.641
-64.464
-63.183
-61.804
-60.333
-58.779
-57.151
-55.459
-53.715
-51.933
-50.124
-48.303
-46.484
-44.678
-42.898
-41.157
-39.467
-37.843
-36.3
-34.853
-33.515
-32.299
-31.217
-30.281
-29.5
-28.878
-28.416
-28.119
-27.995
-28.059
-28.326
-28.806
-29.503
-30.421
-31.554
-32.891
-34.411
-36.073
-37.837
-39.66
-41.502
-43.337
-45.136
-46.862
-48.47
-49.9
-51.093
-52.009
-52.608
-52.863
-52.771
-52.353
-51.666
-50.814
-49.889
-48.987
-48.212
-47.648
-47.387
-47.528
-48.138
-49.318
-51.237
-53.99
-57.581
-61.917
-66.698
-71.555
-76.162
-80.051
-82.618
-83.408
-82.221
-79.213
-75.02
-70.51
-66.464
-63.631
-63.014
-64.802
-67.77
-70.29
-70.015
-65.64
-58.896
-50.809
-39.653
-21.097
13.596
72.382
156.307
262.226
382.179
504.282
620.419
722.181
799.555
847.151
858.134
827.946
759.384
654.882
522.879
378.181
234.863
110.347
17.212
-42.653
-72.429
-81.539
-79.967
-72.188
-61.516
-51.006
-42.881
-40.034
-42.943
-47.64
-50.421
-49.673
-46.039
-43.233
-43.903
-47.952
-54.029
-60.148
-65.057
-68.525
-70.641
-71.405
-70.778
-68.935
-66.261
-63.161
-60.083
-57.487
-55.656
-54.834
-55.167
-56.57
-58.89
-61.945
-65.459
-69.1
-72.604
-75.743
-78.371
-80.461
-81.991
-82.952
-83.368
-83.279
-82.733
-81.784
-80.474
-78.825
-76.871
-74.656
-72.234
-69.676
-67.047
-64.407
-61.798
-59.244
-56.764
-54.363
-52.041
-49.789
-47.588
-45.418
-43.26
-41.1
-38.923
-36.714
-34.455
-32.125
-29.703
-27.172
-24.516
-21.724
-18.784
-15.687
-12.427
-9
-5.405
-1.641
2.292
6.394
10.664
15.101
19.7
24.456
29.361
34.406
39.58
44.868
50.256
55.725
61.256
66.828
72.419
78.007
83.567
89.075
94.504
99.829
105.023
110.061
114.917
119.565
123.98
128.139
132.018
135.596
138.851
141.766
144.322
146.504
148.298
149.692
150.677
151.244
151.389
151.108
150.4
149.267
147.713
145.745
143.371
140.603
137.453
133.937
130.072
125.877
121.372
116.579
111.52
106.22
100.703
94.996
89.123
83.112
76.989
70.781
64.513
58.213
51.905
45.615
39.366
33.182
27.085
21.095
15.233
9.516
3.962
-1.414
-6.599
-11.58
-16.348
-20.893
-25.209
-29.29
-33.132
-36.732
-40.091
-43.209
-46.087
-48.729
-51.139
-53.322
-55.286
-57.036
-58.58
-59.929
-61.09
-62.075
-62.892
-63.552
-64.067
-64.448
-64.704
-64.848
-64.889
-64.839
-64.707
-64.502
-64.235
-63.913
-63.545
-63.139
-62.7
-62.237
-61.753
-61.254
-60.745
-60.228
-59.709
-59.189
-58.67
-58.155
-57.644
-57.14
-56.643
-56.154
-55.672
-55.199
-54.734
-54.276
-53.825
-53.381
-52.943
-52.509
-52.08
-51.655
-51.233
-50.813
-50.396
-49.98
-49.567
-49.156
-48.748
-48.342
-47.941
-47.545
-47.154
-46.771
-46.397
-46.033
-45.682
-45.344
-45.022
-44.716
-44.429
-44.161
-43.914
-43.688
-43.485
-43.305
-43.148
-43.016
-42.909
-42.826
-42.768
-42.736
-42.727
-42.743
-42.782
-42.844
-42.927
-43.03
-43.153
-43.294
-43.451
-43.624
-43.81
-44.008
-44.217
-44.434
-44.658
-44.888
-45.121
-45.356
-45.593
-45.83
-46.066
-46.302
-46.537
-46.771
-47.004
-47.237
-47.47
-47.704
-47.938
-48.175
-48.414
-48.657
-48.904
-49.158
-49.418
-49.687
-49.964
-50.252
-50.549
-50.857
-51.176
-51.504
-51.841
-52.187
-52.541
-52.9
-53.264
-53.631
-53.999
-54.364
-54.723
-55.073
-55.409
-55.726
-56.02
-56.285
-56.516
-56.708
-56.854
-56.951
-56.992
-56.972
-56.885
-56.727
-56.493
-56.178
-55.779
-55.29
-54.711
-54.039
-53.274
-52.415
-51.466
-50.43
-49.311
-48.115
-46.849
-45.52
-44.137
-42.709
-41.244
-39.753
-38.243
-36.728
-35.218
-33.728
-32.272
-30.865
-29.522
-28.256
-27.082
-26.013
-25.063
-24.24
-23.551
-23.006
-22.617
-22.406
-22.388
-22.577
-22.978
-23.594
-24.421
-25.451
-26.665
-28.03
-29.509
-31.066
-32.669
-34.298
-35.932
-37.541
-39.083
-40.5
-41.743
-42.776
-43.575
-44.125
-44.421
-44.473
-44.34
-44.124
-43.921
-43.831
-43.927
-44.263
-44.928
-46.013
-47.569
-49.669
-52.406
-55.82
-59.921
-64.648
-69.76
-74.962
-80.038
-84.668
-88.309
-90.55
-91.126
-89.862
-87.683
-85.506
-83.034
-80.681
-77.636
-72.86
-68.197
-63.536
-59.034
-55.428
-49.943
-42.073
-31.105
-14.131
10.896
48.678
103.948
178.443
271.343
378.319
491.49
601.705
699.346
773.458
816.308
822.373
788.52
717.688
613.475
483.154
339.119
194.088
64.052
-36.986
-102.95
-133.18
-133.597
-115.569
-89.041
-62.75
-44.766
-36.497
-36.34
-41.183
-44.262
-43.23
-39.432
-34.809
-33.581
-37.394
-44.886
-54.359
-63.517
-70.816
-75.944
-78.96
-80.071
-79.554
-77.793
-75.263
-72.505
-70.192
-68.793
-68.459
-69.243
-71.043
-73.639
-76.848
-80.405
-83.918
-87.084
-89.732
-91.762
-93.182
-94.021
-94.263
-93.921
-93.051
-91.706
-89.939
-87.796
-85.294
-82.459
-79.345
-76.016
-72.55
-69.025
-65.493
-61.987
-58.533
-55.146
-51.839
-48.619
-45.476
-42.393
-39.359
-36.362
-33.395
-30.452
-27.519
-24.575
-21.601
-18.576
-15.483
-12.311
-9.045
-5.673
-2.185
1.427
5.166
9.037
13.041
17.185
21.472
25.904
30.483
35.208
40.077
45.088
50.234
55.51
60.904
66.406
72.003
77.679
83.419
89.204
95.015
100.831
106.629
112.386
118.077
123.678
129.161
134.5
139.668
144.639
149.385
153.881
158.1
162.018
165.613
168.861
171.742
174.237
176.329
178.002
179.243
180.042
180.388
180.275
179.698
178.656
177.148
175.178
172.751
169.875
166.559
162.818
158.665
154.117
149.195
143.918
138.311
132.397
126.203
119.757
113.087
106.224
99.198
92.04
84.781
77.453
70.088
62.716
55.367
48.072
40.859
33.755
26.786
19.978
13.354
6.935
0.742
-5.208
-10.897
-16.311
-21.438
-26.267
-30.789
-34.999
-38.892
-42.466
-45.719
-48.654
-51.275
-53.585
-55.593
-57.306
-58.735
-59.891
-60.786
-61.434
-61.85
-62.049
-62.047
-61.861
-61.507
-61.003
-60.365
-59.609
-58.753
-57.811
-56.799
-55.733
-54.625
-53.49
-52.339
-51.186
-50.039
-48.91
-47.806
-46.736
-45.706
-44.723
-43.791
-42.915
-42.098
-41.341
-40.648
-40.018
-39.451
-38.947
-38.506
-38.123
-37.799
-37.529
-37.31
-37.139
-37.012
-36.925
-36.875
-36.857
-36.868
-36.904
-36.962
-37.038
-37.129
-37.232
-37.346
-37.468
-37.596
-37.728
-37.864
-38.002
-38.14
-38.279
-38.418
-38.556
-38.693
-38.829
-38.962
-39.093
-39.221
-39.346
-39.468
-39.586
-39.7
-39.811
-39.917
-40.018
-40.115
-40.207
-40.294
-40.376
-40.452
-40.522
-40.586
-40.642
-40.691
-40.731
-40.762
-40.783
-40.794
-40.794
-40.784
-40.762
-40.729
-40.685
-40.631
-40.568
-40.498
-40.421
-40.339
-40.256
-40.173
-40.093
-40.02
-39.956
-39.905
-39.87
-39.855
-39.862
-39.894
-39.954
-40.046
-40.17
-40.33
-40.527
-40.764
-41.041
-41.36
-41.722
-42.128
-42.576
-43.067
-43.599
-44.171
-44.778
-45.419
-46.089
-46.783
-47.498
-48.226
-48.962
-49.698
-50.425
-51.138
-51.825
-52.478
-53.086
-53.64
-54.13
-54.549
-54.888
-55.138
-55.289
-55.333
-55.262
-55.07
-54.752
-54.301
-53.713
-52.984
-52.114
-51.106
-49.962
-48.686
-47.283
-45.757
-44.119
-42.384
-40.567
-38.691
-36.771
-34.825
-32.871
-30.927
-29.011
-27.142
-25.332
-23.592
-21.934
-20.368
-18.91
-17.581
-16.389
-15.336
-14.41
-13.581
-12.834
-12.183
-11.643
-11.257
-11.048
-10.998
-11.125
-11.491
-12.102
-12.952
-13.93
-14.789
-15.426
-15.888
-16.244
-16.624
-17.151
-17.868
-19.078
-21.348
-24.976
-30.03
-36.303
-43.245
-50.438
-57.603
-64.063
-68.802
-70.976
-69.957
-65.763
-59.058
-50.38
-40.24
-29.606
-19.841
-12.449
-8.731
-9.078
-13.064
-20.212
-29.925
-41.254
-52.85
-63.025
-70.347
-74.393
-75.62
-74.633
-72.239
-69.403
-67.182
-66.983
-69.187
-72.133
-73.569
-71.015
-63.576
-52.853
-39.379
-21.762
4.573
46.659
109.806
196.267
303.603
426.279
557.034
685.775
800.672
887.754
932.278
924.271
861.818
750.287
603.178
438.514
273.243
124.401
5.401
-77.406
-123.175
-136.685
-127.086
-104.23
-75.942
-50.724
-35.155
-30.365
-35.697
-45.653
-52.566
-54.391
-51.773
-47.708
-46.992
-50.714
-57.505
-65.781
-73.325
-78.889
-82.406
-83.965
-83.831
-82.425
-80.179
-77.422
-74.562
-72.178
-70.648
-70.151
-70.768
-72.358
-74.695
-77.614
-80.861
-84.062
-86.929
-89.276
-90.989
-92.078
-92.571
-92.457
-91.757
-90.535
-88.849
-86.761
-84.321
-81.551
-78.483
-75.177
-71.701
-68.137
-64.562
-61.028
-57.568
-54.207
-50.959
-47.83
-44.821
-41.917
-39.097
-36.342
-33.638
-30.972
-28.333
-25.7
-23.05
-20.359
-17.603
-14.763
-11.821
-8.76
-5.566
-2.226
1.271
4.931
8.76
12.764
16.949
21.321
25.885
30.641
35.591
40.731
46.059
51.569
57.25
63.091
69.077
75.192
81.418
87.734
94.117
100.544
106.988
113.423
119.822
126.155
132.392
138.503
144.458
150.227
155.778
161.083
166.111
170.834
175.226
179.26
182.913
186.16
188.982
191.359
193.274
194.714
195.665
196.119
196.068
195.507
194.436
192.857
190.774
188.194
185.128
181.589
177.593
173.157
168.301
163.049
157.423
151.45
145.158
138.575
131.732
124.66
117.39
109.956
102.389
94.723
86.992
79.226
71.458
63.72
56.043
48.455
40.986
33.662
26.51
19.553
12.814
6.313
0.069
-5.903
-11.587
-16.972
-22.048
-26.808
-31.246
-35.359
-39.147
-42.609
-45.749
-48.571
-51.082
-53.289
-55.202
-56.832
-58.19
-59.291
-60.147
-60.775
-61.189
-61.407
-61.444
-61.317
-61.044
-60.642
-60.127
-59.517
-58.828
-58.076
-57.277
-56.445
-55.595
-54.738
-53.888
-53.054
-52.248
-51.477
-50.749
-50.071
-49.449
-48.886
-48.387
-47.954
-47.588
-47.29
-47.059
-46.896
-46.799
-46.764
-46.79
-46.874
-47.011
-47.198
-47.431
-47.704
-48.013
-48.353
-48.719
-49.106
-49.508
-49.922
-50.341
-50.763
-51.182
-51.595
-51.999
-52.39
-52.766
-53.125
-53.465
-53.784
-54.082
-54.357
-54.611
-54.843
-55.053
-55.242
-55.413
-55.564
-55.699
-55.818
-55.922
-56.014
-56.094
-56.164
-56.227
-56.284
-56.336
-56.387
-56.436
-56.487
-56.541
-56.598
-56.661
-56.731
-56.808
-56.894
-56.991
-57.099
-57.221
-57.356
-57.507
-57.675
-57.86
-58.064
-58.287
-58.53
-58.791
-59.073
-59.374
-59.695
-60.038
-60.402
-60.788
-61.197
-61.63
-62.088
-62.57
-63.077
-63.609
-64.166
-64.748
-65.356
-65.99
-66.65
-67.337
-68.049
-68.787
-69.549
-70.332
-71.133
-71.949
-72.775
-73.605
-74.433
-75.254
-76.062
-76.851
-77.617
-78.354
-79.059
-79.728
-80.356
-80.939
-81.469
-81.938
-82.337
-82.656
-82.884
-83.012
-83.03
-82.932
-82.71
-82.359
-81.878
-81.262
-80.508
-79.605
-78.543
-77.314
-75.919
-74.363
-72.66
-70.832
-68.908
-66.92
-64.907
-62.896
-60.909
-58.95
-57.014
-55.09
-53.172
-51.262
-49.378
-47.536
-45.746
-44.014
-42.339
-40.704
-39.077
-37.41
-35.642
-33.739
-31.686
-29.508
-27.266
-25.032
-22.888
-20.898
-19.101
-17.529
-16.207
-15.146
-14.346
-13.83
-13.631
-13.81
-14.46
-15.636
-17.358
-19.591
-22.239
-25.192
-28.328
-31.547
-34.777
-37.954
-41.029
-43.997
-46.91
-49.821
-52.777
-55.747
-58.617
-61.371
-64.064
-66.838
-69.908
-73.368
-77.218
-81.542
-86.426
-91.786
-97.414
-102.801
-107.07
-109.561
-110.006
-108.049
-104.023
-99.095
-93.345
-86.964
-79.824
-69.927
-58.59
-49.272
-44.556
-48.35
-59.172
-71.37
-81.827
-86.764
-85.113
-75.881
-52.548
-8.261
62.965
161.209
279.418
408.899
539.17
662.893
773.787
861.641
916.834
929.051
890.679
803.067
674.242
518.341
353.762
198.54
66.29
-35.12
-103.401
-143.495
-161.386
-161.203
-149.063
-128.114
-103.075
-83.163
-72.133
-71.228
-77.849
-83.272
-83.595
-78.986
-71.454
-66.085
-64.754
-66.438
-70.217
-74.44
-78.31
-81.757
-84.257
-85.613
-85.958
-85.44
-84.242
-82.492
-80.309
-78.075
-76.397
-75.654
-75.936
-77.156
-79.096
-81.556
-84.362
-87.225
-89.785
-91.811
-93.186
-93.889
-93.979
-93.501
-92.478
-90.969
-89.048
-86.773
-84.2
-81.363
-78.295
-75.051
-71.7
-68.312
-64.942
-61.623
-58.374
-55.201
-52.105
-49.078
-46.101
-43.151
-40.21
-37.262
-34.296
-31.297
-28.25
-25.135
-21.932
-18.62
-15.179
-11.596
-7.855
-3.948
0.133
4.392
8.832
13.451
18.251
23.231
28.391
33.729
39.243
44.927
50.774
56.775
62.919
69.191
75.576
82.056
88.611
95.221
101.863
108.514
115.148
121.74
128.262
134.689
140.991
147.14
153.108
158.867
164.389
169.647
174.613
179.263
183.572
187.517
191.077
194.233
196.966
199.261
201.103
202.482
203.387
203.812
203.75
203.201
202.163
200.638
198.633
196.155
193.212
189.818
185.986
181.733
177.077
172.039
166.639
160.902
154.851
148.514
141.918
135.09
128.06
120.856
113.51
106.05
98.506
90.907
83.284
75.663
68.074
60.542
53.093
45.753
38.545
31.49
24.61
17.924
11.45
5.203
-0.801
-6.55
-12.032
-17.239
-22.162
-26.795
-31.135
-35.178
-38.924
-42.372
-45.525
-48.386
-50.961
-53.255
-55.276
-57.032
-58.533
-59.789
-60.812
-61.614
-62.205
-62.601
-62.812
-62.852
-62.735
-62.474
-62.082
-61.573
-60.959
-60.252
-59.466
-58.612
-57.702
-56.748
-55.759
-54.745
-53.718
-52.684
-51.654
-50.635
-49.634
-48.658
-47.714
-46.806
-45.94
-45.119
-44.348
-43.628
-42.963
-42.355
-41.805
-41.313
-40.882
-40.51
-40.197
-39.945
-39.75
-39.614
-39.535
-39.51
-39.539
-39.62
-39.751
-39.93
-40.154
-40.422
-40.731
-41.078
-41.461
-41.878
-42.324
-42.798
-43.297
-43.816
-44.355
-44.908
-45.474
-46.049
-46.631
-47.216
-47.803
-48.389
-48.97
-49.546
-50.113
-50.669
-51.213
-51.743
-52.257
-52.754
-53.232
-53.691
-54.131
-54.55
-54.949
-55.327
-55.686
-56.025
-56.346
-56.65
-56.938
-57.212
-57.474
-57.726
-57.971
-58.211
-58.448
-58.687
-58.93
-59.18
-59.439
-59.712
-60
-60.307
-60.634
-60.984
-61.359
-61.761
-62.19
-62.648
-63.135
-63.652
-64.198
-64.772
-65.373
-65.997
-66.643
-67.307
-67.985
-68.672
-69.363
-70.052
-70.734
-71.402
-72.048
-72.665
-73.246
-73.781
-74.263
-74.683
-75.032
-75.301
-75.482
-75.566
-75.546
-75.415
-75.166
-74.792
-74.287
-73.648
-72.87
-71.949
-70.884
-69.673
-68.317
-66.818
-65.179
-63.406
-61.504
-59.482
-57.35
-55.12
-52.804
-50.418
-47.98
-45.506
-43.018
-40.534
-38.073
-35.653
-33.294
-31.014
-28.831
-26.765
-24.834
-23.054
-21.447
-20.028
-18.814
-17.813
-17.028
-16.457
-16.102
-15.967
-16.063
-16.399
-16.978
-17.805
-18.882
-20.208
-21.778
-23.569
-25.535
-27.634
-29.827
-32.092
-34.432
-36.833
-39.27
-41.698
-44.054
-46.277
-48.331
-50.159
-51.677
-52.873
-53.796
-54.579
-55.453
-56.607
-58.145
-60.137
-62.646
-65.574
-68.68
-71.664
-74.141
-75.829
-76.624
-76.49
-75.362
-73.437
-71.154
-68.872
-66.945
-65.594
-64.779
-64.557
-65.287
-67.025
-69.508
-72.743
-76.762
-81.646
-87.803
-94.517
-99.409
-100.397
-95.472
-83.791
-66.747
-44.76
-16.688
20.625
72.214
142.488
233.43
343.191
467.116
597.738
724.758
835.957
917.177
953.803
934.931
857.562
726.365
555.113
364.342
174.721
6.636
-124.065
-210.083
-251.149
-253.332
-227.772
-187.195
-142.293
-103.798
-79.211
-69.157
-71.692
-79.566
-83.98
-82.534
-75.825
-67.721
-63.898
-65.429
-70.904
-78.531
-85.585
-91.012
-94.981
-97.181
-97.735
-97.033
-95.248
-92.696
-89.808
-86.838
-84.096
-82.113
-81.125
-81.107
-81.999
-83.586
-85.618
-87.928
-90.254
-92.267
-93.793
-94.752
-95.11
-94.924
-94.233
-93.049
-91.434
-89.462
-87.183
-84.647
-81.884
-78.921
-75.804
-72.593
-69.347
-66.113
-62.914
-59.763
-56.665
-53.619
-50.613
-47.631
-44.646
-41.637
-38.586
-35.478
-32.295
-29.019
-25.63
-22.107
-18.428
-14.575
-10.533
-6.287
-1.829
2.849
7.749
12.875
18.224
23.796
29.587
35.596
41.817
48.244
54.868
61.679
68.663
75.805
83.088
90.49
97.991
105.566
113.19
120.836
128.476
136.081
143.622
151.067
158.386
165.546
172.516
179.265
185.76
191.972
197.871
203.426
208.611
213.399
217.766
221.688
225.144
228.116
230.587
232.541
233.968
234.856
235.199
234.992
234.234
232.925
231.069
228.673
225.746
222.3
218.35
213.912
209.005
203.651
197.872
191.694
185.142
178.246
171.034
163.538
155.787
147.816
139.656
131.342
122.905
114.381
105.801
97.2
88.609
80.06
71.585
63.213
54.973
46.893
38.999
31.315
23.864
16.667
9.743
3.11
-3.219
-9.23
-14.911
-20.255
-25.254
-29.904
-34.201
-38.145
-41.738
-44.98
-47.878
-50.436
-52.664
-54.57
-56.164
-57.459
-58.468
-59.205
-59.685
-59.923
-59.937
-59.744
-59.362
-58.808
-58.102
-57.262
-56.306
-55.252
-54.118
-52.921
-51.679
-50.405
-49.117
-47.828
-46.551
-45.299
-44.083
-42.913
-41.799
-40.75
-39.772
-38.872
-38.054
-37.324
-36.683
-36.135
-35.68
-35.319
-35.051
-34.874
-34.785
-34.783
-34.862
-35.019
-35.247
-35.541
-35.894
-36.299
-36.75
-37.24
-37.76
-38.305
-38.867
-39.439
-40.015
-40.589
-41.155
-41.708
-42.243
-42.756
-43.244
-43.703
-44.131
-44.524
-44.883
-45.205
-45.491
-45.74
-45.953
-46.131
-46.275
-46.389
-46.474
-46.534
-46.572
-46.593
-46.6
-46.599
-46.595
-46.593
-46.598
-46.617
-46.655
-46.718
-46.81
-46.937
-47.103
-47.311
-47.567
-47.871
-48.228
-48.638
-49.103
-49.623
-50.2
-50.832
-51.519
-52.259
-53.05
-53.888
-54.771
-55.695
-56.654
-57.643
-58.656
-59.687
-60.728
-61.774
-62.815
-63.844
-64.852
-65.829
-66.767
-67.656
-68.487
-69.25
-69.936
-70.537
-71.044
-71.452
-71.751
-71.937
-72.004
-71.947
-71.763
-71.45
-71.005
-70.427
-69.716
-68.873
-67.9
-66.802
-65.582
-64.246
-62.804
-61.264
-59.637
-57.938
-56.179
-54.373
-52.536
-50.682
-48.825
-46.98
-45.159
-43.378
-41.652
-39.997
-38.43
-36.965
-35.616
-34.398
-33.321
-32.394
-31.619
-30.998
-30.536
-30.242
-30.132
-30.221
-30.516
-31.023
-31.747
-32.686
-33.833
-35.172
-36.663
-38.265
-39.949
-41.686
-43.466
-45.274
-47.058
-48.759
-50.317
-51.672
-52.791
-53.664
-54.23
-54.44
-54.369
-54.097
-53.746
-53.479
-53.297
-53.163
-53.203
-53.529
-54.076
-54.878
-55.943
-57.172
-58.785
-60.958
-63.455
-66.037
-68.705
-71.26
-73.338
-74.809
-75.286
-74.437
-73.297
-73.009
-73.379
-74.875
-76.914
-77.755
-78.234
-78.366
-78.114
-79.638
-83.204
-87.77
-89.849
-81.437
-53.334
0.763
81.044
181.296
291.435
402.263
508.557
606.973
692.573
757.745
791.911
785.207
734.806
643.734
520.563
379.023
233.098
97.386
-14.589
-94.252
-139.975
-155.646
-148.038
-126.846
-98.758
-70.498
-51.354
-44.418
-50.651
-66.766
-82.695
-93.346
-97.31
-95.55
-93.355
-92.842
-93.07
-93.136
-91.284
-87.119
-81.75
-75.977
-70.455
-65.722
-62.038
-59.556
-58.336
-58.265
-59.115
-60.705
-62.916
-65.613
-68.649
-71.879
-75.141
-78.272
-81.131
-83.606
-85.614
-87.104
-88.052
-88.448
-88.297
-87.64
-86.531
-85.025
-83.175
-81.022
-78.606
-75.981
-73.211
-70.366
-67.515
-64.704
-61.962
-59.308
-56.752
-54.294
-51.926
-49.627
-47.366
-45.12
-42.869
-40.596
-38.288
-35.925
-33.484
-30.943
-28.284
-25.488
-22.541
-19.429
-16.139
-12.663
-8.996
-5.135
-1.079
3.172
7.621
12.266
17.107
22.141
27.364
32.77
38.35
44.096
49.994
56.028
62.183
68.438
74.774
81.17
87.6
94.04
100.464
106.845
113.154
119.364
125.445
131.367
137.102
142.621
147.895
152.897
157.599
161.977
166.007
169.666
172.934
175.791
178.22
180.207
181.74
182.806
183.4
183.515
183.147
182.295
180.963
179.154
176.874
174.135
170.946
167.323
163.282
158.841
154.021
148.844
143.333
137.514
131.414
125.06
118.482
111.709
104.77
97.696
90.518
83.266
75.97
68.658
61.361
54.106
46.92
39.828
32.857
26.028
19.365
12.886
6.612
0.559
-5.256
-10.821
-16.123
-21.151
-25.898
-30.356
-34.521
-38.389
-41.959
-45.231
-48.208
-50.891
-53.286
-55.399
-57.238
-58.81
-60.127
-61.197
-62.034
-62.65
-63.056
-63.268
-63.298
-63.16
-62.869
-62.438
-61.883
-61.215
-60.45
-59.6
-58.679
-57.699
-56.671
-55.608
-54.519
-53.417
-52.309
-51.206
-50.114
-49.043
-47.998
-46.986
-46.012
-45.081
-44.198
-43.365
-42.587
-41.864
-41.199
-40.591
-40.043
-39.552
-39.119
-38.742
-38.419
-38.149
-37.929
-37.756
-37.629
-37.544
-37.499
-37.49
-37.515
-37.57
-37.653
-37.761
-37.89
-38.04
-38.207
-38.389
-38.583
-38.789
-39.005
-39.227
-39.456
-39.689
-39.925
-40.163
-40.402
-40.642
-40.881
-41.121
-41.359
-41.597
-41.834
-42.072
-42.31
-42.549
-42.791
-43.035
-43.284
-43.537
-43.798
-44.066
-44.343
-44.63
-44.928
-45.239
-45.563
-45.901
-46.255
-46.624
-47.01
-47.413
-47.833
-48.271
-48.728
-49.202
-49.695
-50.205
-50.733
-51.278
-51.84
-52.416
-53.008
-53.612
-54.229
-54.857
-55.493
-56.136
-56.784
-57.433
-58.081
-58.723
-59.357
-59.977
-60.581
-61.164
-61.722
-62.25
-62.743
-63.197
-63.606
-63.964
-64.267
-64.51
-64.685
-64.789
-64.817
-64.764
-64.625
-64.397
-64.075
-63.657
-63.138
-62.517
-61.79
-60.955
-60.012
-58.96
-57.799
-56.531
-55.158
-53.685
-52.121
-50.471
-48.744
-46.949
-45.096
-43.197
-41.264
-39.311
-37.35
-35.393
-33.453
-31.547
-29.69
-27.901
-26.193
-24.579
-23.072
-21.684
-20.433
-19.333
-18.391
-17.61
-16.994
-16.55
-16.298
-16.254
-16.425
-16.812
-17.415
-18.228
-19.252
-20.474
-21.862
-23.382
-24.992
-26.65
-28.338
-30.039
-31.736
-33.415
-35.022
-36.503
-37.815
-38.914
-39.782
-40.432
-40.857
-41.055
-41.117
-41.16
-41.398
-42.139
-43.53
-45.582
-48.274
-51.575
-55.488
-59.991
-64.774
-69.153
-72.608
-74.929
-76.134
-76.363
-75.534
-73.456
-70.311
-67.009
-64.611
-63.749
-64.748
-67.642
-72.531
-79.812
-88.889
-97.585
-103.464
-104.77
-101.819
-96.094
-86.798
-69.932
-37.779
16.384
92.764
186.59
288.104
388.686
486.438
580.885
671.882
755.594
821.003
856.862
854.188
808.335
722.284
602.81
460.321
310.316
168.381
49.267
-35.842
-86.523
-107.354
-104.891
-89.395
-66.222
-40.993
-23.029
-15.389
-19.538
-33.13
-46.759
-55.908
-60.047
-60.657
-62.922
-68.78
-76.774
-85.063
-91.289
-94.477
-94.886
-92.903
-89.165
-84.29
-79.021
-74.197
-70.26
-67.432
-65.889
-65.622
-66.594
-68.714
-71.65
-75.032
-78.626
-82.233
-85.702
-88.932
-91.77
-94.1
-95.898
-97.159
-97.887
-98.098
-97.789
-96.972
-95.694
-94.001
-91.947
-89.587
-86.963
-84.131
-81.151
-78.083
-74.991
-71.918
-68.89
-65.922
-63.023
-60.188
-57.413
-54.683
-51.972
-49.261
-46.531
-43.764
-40.946
-38.061
-35.091
-32.02
-28.832
-25.513
-22.051
-18.438
-14.666
-10.731
-6.63
-2.36
2.074
6.67
11.426
16.339
21.405
26.617
31.969
37.452
43.055
48.766
54.571
60.453
66.394
72.374
78.371
84.364
90.328
96.24
102.076
107.809
113.415
118.867
124.142
129.214
134.058
138.651
142.97
146.993
150.698
154.068
157.082
159.727
161.986
163.848
165.302
166.339
166.953
167.139
166.895
166.22
165.118
163.591
161.646
159.294
156.544
153.411
149.909
146.057
141.872
137.375
132.588
127.533
122.235
116.717
111.004
105.123
99.1
92.96
86.729
80.435
74.101
67.755
61.419
55.117
48.873
42.708
36.643
30.697
24.888
19.234
13.748
8.447
3.341
-1.558
-6.24
-10.699
-14.929
-18.925
-22.684
-26.205
-29.489
-32.537
-35.352
-37.937
-40.297
-42.439
-44.369
-46.094
-47.623
-48.963
-50.126
-51.119
-51.952
-52.637
-53.181
-53.596
-53.891
-54.077
-54.162
-54.156
-54.067
-53.906
-53.68
-53.397
-53.065
-52.69
-52.279
-51.839
-51.373
-50.887
-50.386
-49.871
-49.347
-48.816
-48.28
-47.741
-47.201
-46.659
-46.118
-45.578
-45.04
-44.503
-43.969
-43.438
-42.91
-42.385
-41.865
-41.349
-40.838
-40.333
-39.834
-39.342
-38.857
-38.381
-37.913
-37.454
-37.005
-36.567
-36.14
-35.726
-35.324
-34.937
-34.565
-34.21
-33.872
-33.554
-33.255
-32.979
-32.725
-32.495
-32.29
-32.111
-31.959
-31.834
-31.737
-31.668
-31.627
-31.614
-31.629
-31.671
-31.739
-31.833
-31.952
-32.095
-32.262
-32.452
-32.665
-32.901
-33.158
-33.438
-33.74
-34.063
-34.409
-34.777
-35.167
-35.58
-36.015
-36.473
-36.955
-37.46
-37.989
-38.542
-39.119
-39.72
-40.346
-40.996
-41.669
-42.367
-43.088
-43.832
-44.6
-45.391
-46.204
-47.038
-47.893
-48.766
-49.655
-50.558
-51.472
-52.393
-53.316
-54.237
-55.151
-56.054
-56.939
-57.801
-58.632
-59.427
-60.177
-60.876
-61.515
-62.087
-62.584
-62.999
-63.324
-63.553
-63.678
-63.695
-63.596
-63.376
-63.03
-62.553
-61.94
-61.189
-60.297
-59.263
-58.087
-56.77
-55.316
-53.729
-52.016
-50.186
-48.248
-46.214
-44.097
-41.912
-39.676
-37.405
-35.117
-32.829
-30.561
-28.331
-26.156
-24.058
-22.053
-20.16
-18.397
-16.782
-15.33
-14.053
-12.956
-12.043
-11.319
-10.788
-10.461
-10.347
-10.452
-10.783
-11.344
-12.139
-13.166
-14.411
-15.839
-17.417
-19.118
-20.924
-22.838
-24.853
-26.95
-29.1
-31.256
-33.373
-35.424
-37.352
-39.061
-40.524
-41.774
-42.931
-44.243
-45.907
-48.016
-50.709
-54.148
-58.32
-63.054
-67.959
-72.387
-75.842
-78.104
-78.881
-77.805
-74.822
-70.148
-64.391
-58.615
-53.626
-49.808
-47.7
-48.093
-51.524
-58.221
-67.806
-79.257
-91.728
-104.648
-117.244
-127.404
-132.05
-128.691
-115.082
-91.595
-61.009
-23.291
22.225
77.994
149.923
238.66
342.385
457.79
575.802
689.288
789.11
863.051
902.728
899.976
853.716
770.437
656.825
524.127
382.523
240.808
113.516
12.246
-55.641
-86.655
-89.947
-79.169
-66.151
-62.465
-69.839
-83.52
-98.541
-107.076
-105.973
-97.285
-83.96
-71.521
-63.749
-60.886
-62.068
-65.451
-69.763
-74.873
-80.766
-87.012
-92.598
-96.735
-99.145
-99.833
-99.1
-97.243
-94.49
-91.384
-88.717
-86.987
-86.403
-86.984
-88.526
-90.812
-93.663
-96.749
-99.639
-102.058
-103.862
-104.997
-105.526
-105.49
-104.898
-103.805
-102.29
-100.409
-98.216
-95.745
-93.009
-90.052
-86.936
-83.725
-80.495
-77.299
-74.152
-71.066
-68.044
-65.076
-62.16
-59.29
-56.433
-53.561
-50.678
-47.784
-44.88
-41.966
-39.004
-35.943
-32.775
-29.512
-26.061
-22.316
-18.323
-14.069
-9.533
-4.917
0.324
6.717
13.504
20.453
26.166
28.971
30.706
32.588
36.438
44.757
55.303
66.171
76.046
82.771
87.848
92.797
97.937
104.181
110.953
117.52
123.984
130.226
136.262
142.205
147.93
153.335
158.415
163.15
167.505
171.459
174.995
178.097
180.76
182.985
184.753
186.047
186.86
187.187
187.025
186.372
185.231
183.602
181.494
178.918
175.885
172.412
168.514
164.21
159.522
154.473
149.086
143.388
137.407
131.169
124.705
118.044
111.216
104.254
97.186
90.044
82.857
75.656
68.468
61.322
54.244
47.259
40.392
33.666
27.102
20.72
14.538
8.573
2.84
-2.65
-7.884
-12.853
-17.551
-21.972
-26.112
-29.97
-33.544
-36.838
-39.852
-42.593
-45.066
-47.278
-49.238
-50.956
-52.441
-53.706
-54.762
-55.622
-56.299
-56.806
-57.157
-57.365
-57.445
-57.409
-57.27
-57.042
-56.737
-56.367
-55.944
-55.478
-54.98
-54.46
-53.926
-53.387
-52.851
-52.323
-51.811
-51.319
-50.852
-50.414
-50.008
-49.637
-49.302
-49.005
-48.747
-48.527
-48.345
-48.201
-48.092
-48.019
-47.978
-47.967
-47.985
-48.028
-48.094
-48.18
-48.283
-48.4
-48.529
-48.667
-48.812
-48.96
-49.11
-49.26
-49.407
-49.549
-49.686
-49.815
-49.934
-50.043
-50.141
-50.226
-50.297
-50.354
-50.397
-50.424
-50.435
-50.43
-50.409
-50.371
-50.316
-50.245
-50.159
-50.057
-49.94
-49.81
-49.668
-49.514
-49.349
-49.176
-48.996
-48.809
-48.617
-48.423
-48.228
-48.033
-47.841
-47.653
-47.471
-47.298
-47.136
-46.987
-46.854
-46.737
-46.641
-46.568
-46.519
-46.499
-46.51
-46.555
-46.635
-46.755
-46.916
-47.121
-47.37
-47.667
-48.011
-48.403
-48.844
-49.334
-49.873
-50.459
-51.091
-51.769
-52.49
-53.252
-54.052
-54.886
-55.751
-56.642
-57.554
-58.482
-59.421
-60.363
-61.303
-62.234
-63.149
-64.039
-64.898
-65.716
-66.486
-67.197
-67.843
-68.413
-68.899
-69.292
-69.586
-69.772
-69.844
-69.796
-69.622
-69.317
-68.878
-68.3
-67.58
-66.718
-65.711
-64.562
-63.27
-61.839
-60.273
-58.58
-56.767
-54.845
-52.825
-50.719
-48.54
-46.302
-44.021
-41.713
-39.395
-37.083
-34.793
-32.545
-30.357
-28.251
-26.245
-24.357
-22.601
-20.992
-19.545
-18.275
-17.194
-16.31
-15.627
-15.155
-14.908
-14.899
-15.139
-15.631
-16.373
-17.357
-18.573
-20.004
-21.618
-23.381
-25.252
-27.192
-29.162
-31.133
-33.073
-34.947
-36.718
-38.34
-39.765
-40.952
-41.86
-42.478
-42.837
-42.982
-42.962
-42.869
-42.825
-43.034
-43.789
-45.275
-47.523
-50.526
-54.275
-58.782
-64.017
-69.63
-74.913
-79.284
-82.426
-84.243
-84.751
-83.739
-80.983
-76.85
-72.344
-68.542
-66.387
-66.369
-68.564
-73.571
-81.285
-89.825
-96.812
-99.532
-97.079
-92.141
-86.225
-77.114
-58.244
-18.439
49.995
146.654
264.393
391.041
516.388
635.542
745.602
841.952
916.103
955.682
949.414
893.751
792.204
655.409
499.251
339.253
190.86
67.052
-24.666
-83.228
-113.095
-121.526
-117.904
-108.151
-96.826
-89.84
-88.007
-91.533
-98.625
-102.306
-99.804
-91.365
-78.956
-68.128
-61.726
-59.368
-60.008
-62.061
-65.013
-69.29
-74.888
-81.013
-86.566
-90.934
-94.016
-95.841
-96.475
-95.962
-94.437
-92.514
-90.98
-90.238
-90.424
-91.46
-93.112
-95.188
-97.502
-99.744
-101.572
-102.786
-103.293
-103.101
-102.307
-100.98
-99.178
-96.971
-94.433
-91.622
-88.585
-85.367
-82.012
-78.575
-75.124
-71.71
-68.368
-65.12
-61.975
-58.934
-55.989
-53.12
-50.304
-47.521
-44.759
-42.006
-39.248
-36.469
-33.645
-30.756
-27.779
-24.693
-21.476
-18.111
-14.583
-10.881
-6.997
-2.925
1.337
5.795
10.451
15.309
20.371
25.636
31.101
36.764
42.616
48.648
54.849
61.202
67.69
74.295
80.996
87.77
94.592
101.437
108.279
115.088
121.834
128.489
135.019
141.395
147.584
153.554
159.275
164.717
169.85
174.645
179.077
183.12
186.751
189.949
192.693
194.967
196.755
198.045
198.826
199.092
198.836
198.058
196.758
194.939
192.61
189.777
186.455
182.656
178.398
173.699
168.582
163.069
157.186
150.96
144.419
137.593
130.514
123.215
115.726
108.083
100.318
92.463
84.554
76.621
68.698
60.815
53.003
45.292
37.709
30.282
23.036
15.994
9.179
2.61
-3.694
-9.719
-15.449
-20.873
-25.98
-30.764
-35.219
-39.341
-43.128
-46.581
-49.703
-52.498
-54.972
-57.133
-58.991
-60.556
-61.841
-62.859
-63.624
-64.152
-64.457
-64.556
-64.467
-64.205
-63.789
-63.236
-62.563
-61.788
-60.926
-59.995
-59.009
-57.985
-56.936
-55.876
-54.817
-53.771
-52.75
-51.762
-50.817
-49.922
-49.085
-48.31
-47.602
-46.965
-46.4
-45.91
-45.495
-45.154
-44.887
-44.692
-44.566
-44.507
-44.512
-44.576
-44.695
-44.864
-45.079
-45.334
-45.625
-45.946
-46.293
-46.659
-47.04
-47.432
-47.829
-48.228
-48.625
-49.016
-49.398
-49.768
-50.123
-50.46
-50.779
-51.078
-51.355
-51.61
-51.843
-52.053
-52.241
-52.407
-52.551
-52.674
-52.778
-52.862
-52.928
-52.978
-53.012
-53.032
-53.039
-53.035
-53.021
-52.999
-52.969
-52.933
-52.892
-52.848
-52.8
-52.751
-52.702
-52.653
-52.605
-52.56
-52.518
-52.481
-52.45
-52.425
-52.408
-52.4
-52.402
-52.416
-52.443
-52.485
-52.543
-52.62
-52.717
-52.836
-52.98
-53.149
-53.346
-53.573
-53.832
-54.123
-54.448
-54.809
-55.207
-55.642
-56.116
-56.629
-57.181
-57.771
-58.399
-59.064
-59.763
-60.495
-61.255
-62.04
-62.846
-63.668
-64.501
-65.339
-66.175
-67.003
-67.813
-68.599
-69.351
-70.061
-70.718
-71.315
-71.84
-72.285
-72.641
-72.9
-73.051
-73.088
-73.002
-72.788
-72.437
-71.945
-71.307
-70.519
-69.579
-68.484
-67.235
-65.834
-64.284
-62.591
-60.763
-58.811
-56.744
-54.576
-52.322
-49.996
-47.615
-45.194
-42.748
-40.297
-37.859
-35.453
-33.102
-30.829
-28.653
-26.596
-24.677
-22.917
-21.332
-19.935
-18.736
-17.747
-16.982
-16.467
-16.223
-16.264
-16.601
-17.238
-18.176
-19.406
-20.912
-22.657
-24.599
-26.699
-28.918
-31.23
-33.606
-36.006
-38.376
-40.644
-42.748
-44.635
-46.268
-47.617
-48.669
-49.428
-49.947
-50.322
-50.644
-51.008
-51.5
-52.194
-53.189
-54.585
-56.473
-58.971
-62.236
-66.358
-71.335
-77.046
-83.197
-89.436
-95.406
-100.612
-104.453
-106.445
-106.361
-104.351
-100.977
-96.989
-93.123
-90.185
-89.155
-90.344
-92.907
-95.22
-94.887
-90.89
-84.317
-76.03
-65.689
-48.393
-15.533
40.142
123.203
230.675
354.383
486.59
618.729
744.66
856.76
942.69
989.294
984.193
923.081
810.756
659.304
487.192
312.242
151.395
19.767
-74.08
-127.89
-144.908
-134.813
-110.116
-80.858
-57.207
-46.097
-47.098
-57.714
-71.114
-78.735
-78.499
-71.742
-62.506
-56.533
-55.485
-58.284
-63.318
-68.654
-73.638
-78.389
-82.746
-86.35
-88.961
-90.59
-91.356
-91.366
-90.755
-89.715
-88.594
-87.959
-88.121
-89.086
-90.81
-93.126
-95.841
-98.797
-101.711
-104.232
-106.161
-107.416
-107.969
-107.878
-107.186
-105.909
-104.12
-101.9
-99.311
-96.411
-93.237
-89.822
-86.223
-82.509
-78.747
-74.994
-71.281
-67.625
-64.035
-60.512
-57.05
-53.635
-50.242
-46.854
-43.456
-40.034
-36.575
-33.062
-29.477
-25.798
-22.004
-18.077
-14
-9.76
-5.345
-0.749
4.034
9.007
14.172
19.528
25.077
30.817
36.749
42.868
49.17
55.647
62.29
69.086
76.02
83.075
90.231
97.467
104.76
112.084
119.413
126.719
133.974
141.148
148.21
155.128
161.872
168.41
174.711
180.744
186.48
191.888
196.942
201.615
205.883
209.723
213.114
216.038
218.476
220.414
221.841
222.746
223.122
222.963
222.269
221.04
219.279
216.994
214.193
210.889
207.096
202.832
198.115
192.967
187.412
181.474
175.181
168.561
161.644
154.46
147.041
139.42
131.628
123.698
115.662
107.554
99.404
91.245
83.106
75.017
67.007
59.105
51.335
43.724
36.295
29.069
22.067
15.308
8.807
2.579
-3.364
-9.01
-14.351
-19.381
-24.095
-28.49
-32.564
-36.319
-39.757
-42.883
-45.703
-48.222
-50.45
-52.397
-54.073
-55.49
-56.659
-57.595
-58.31
-58.82
-59.138
-59.28
-59.26
-59.095
-58.798
-58.387
-57.875
-57.276
-56.606
-55.877
-55.104
-54.298
-53.471
-52.635
-51.8
-50.975
-50.171
-49.394
-48.651
-47.95
-47.296
-46.692
-46.144
-45.654
-45.224
-44.856
-44.552
-44.311
-44.133
-44.019
-43.965
-43.972
-44.036
-44.156
-44.327
-44.546
-44.81
-45.115
-45.457
-45.832
-46.235
-46.663
-47.11
-47.572
-48.046
-48.526
-49.009
-49.491
-49.967
-50.434
-50.89
-51.33
-51.752
-52.154
-52.532
-52.886
-53.213
-53.511
-53.779
-54.016
-54.221
-54.393
-54.533
-54.639
-54.712
-54.753
-54.763
-54.743
-54.694
-54.617
-54.516
-54.391
-54.245
-54.081
-53.902
-53.71
-53.508
-53.301
-53.091
-52.883
-52.68
-52.485
-52.302
-52.135
-51.988
-51.864
-51.767
-51.7
-51.667
-51.672
-51.717
-51.807
-51.943
-52.129
-52.366
-52.657
-53.002
-53.404
-53.862
-54.377
-54.948
-55.576
-56.258
-56.994
-57.78
-58.615
-59.495
-60.415
-61.372
-62.36
-63.372
-64.402
-65.443
-66.489
-67.531
-68.562
-69.572
-70.554
-71.498
-72.394
-73.235
-74.009
-74.707
-75.319
-75.837
-76.25
-76.552
-76.733
-76.786
-76.705
-76.484
-76.118
-75.602
-74.933
-74.108
-73.125
-71.985
-70.689
-69.24
-67.64
-65.897
-64.02
-62.019
-59.906
-57.694
-55.398
-53.034
-50.619
-48.17
-45.703
-43.236
-40.786
-38.371
-36.013
-33.733
-31.55
-29.486
-27.559
-25.789
-24.194
-22.789
-21.583
-20.586
-19.805
-19.252
-18.948
-18.909
-19.146
-19.669
-20.483
-21.584
-22.967
-24.613
-26.483
-28.539
-30.739
-33.043
-35.424
-37.847
-40.271
-42.647
-44.906
-46.988
-48.846
-50.43
-51.701
-52.644
-53.257
-53.585
-53.716
-53.729
-53.711
-53.758
-53.949
-54.388
-55.185
-56.423
-58.22
-60.735
-64.069
-68.255
-73.223
-78.713
-84.396
-89.933
-94.83
-98.494
-100.446
-100.396
-98.398
-94.943
-90.759
-86.663
-83.59
-82.653
-84.176
-87.291
-90.616
-91.884
-90.093
-86.474
-81.126
-73.047
-57.898
-27.005
26.027
105.179
210.154
334.444
472.032
615.084
753.532
877.471
972.774
1025.656
1026.571
970.366
860.46
707.758
528.665
344.161
174.837
37.508
-58.353
-113.668
-135.444
-134.576
-122.959
-107.599
-94.501
-88.167
-88.277
-94.229
-102.283
-106.341
-104.62
-97.605
-88.19
-81.122
-78.048
-78.328
-80.579
-83.071
-85.495
-88.202
-91.143
-94.103
-96.559
-98.219
-99.255
-99.748
-99.682
-99.131
-98.246
-97.393
-97.119
-97.675
-99.027
-101.076
-103.617
-106.439
-109.357
-112.109
-114.382
-115.993
-116.879
-117.031
-116.526
-115.43
-113.783
-111.652
-109.115
-106.234
-103.065
-99.664
-96.081
-92.379
-88.632
-84.893
-81.202
-77.581
-74.04
-70.577
-67.183
-63.837
-60.514
-57.193
-53.86
-50.497
-47.092
-43.627
-40.079
-36.429
-32.655
-28.735
-24.653
-20.391
-15.937
-11.282
-6.419
-1.346
3.938
9.436
15.148
21.075
27.217
33.571
40.131
46.891
53.843
60.973
68.266
75.705
83.27
90.938
98.686
106.488
114.317
122.144
129.938
137.669
145.305
152.812
160.157
167.307
174.227
180.886
187.249
193.286
198.965
204.258
209.135
213.572
217.543
221.028
224.004
226.456
228.367
229.726
230.522
230.749
230.401
229.479
227.983
225.919
223.295
220.122
216.414
212.186
207.459
202.254
196.594
190.506
184.017
177.157
169.957
162.449
154.668
146.648
138.423
130.03
121.503
112.878
104.191
95.476
86.767
78.097
69.498
61.002
52.637
44.433
36.415
28.608
21.035
13.718
6.675
-0.078
-6.524
-12.652
-18.452
-23.914
-29.033
-33.806
-38.23
-42.306
-46.036
-49.424
-52.475
-55.198
-57.602
-59.696
-61.492
-63.003
-64.243
-65.226
-65.967
-66.482
-66.788
-66.899
-66.834
-66.608
-66.238
-65.741
-65.132
-64.428
-63.644
-62.795
-61.895
-60.959
-59.998
-59.025
-58.052
-57.088
-56.144
-55.228
-54.347
-53.508
-52.717
-51.979
-51.298
-50.677
-50.118
-49.623
-49.192
-48.827
-48.526
-48.289
-48.114
-48
-47.945
-47.945
-47.999
-48.102
-48.253
-48.446
-48.679
-48.947
-49.247
-49.574
-49.925
-50.294
-50.679
-51.076
-51.48
-51.888
-52.298
-52.705
-53.106
-53.5
-53.883
-54.254
-54.61
-54.949
-55.271
-55.575
-55.858
-56.12
-56.362
-56.582
-56.779
-56.954
-57.107
-57.238
-57.347
-57.434
-57.5
-57.547
-57.576
-57.588
-57.585
-57.57
-57.543
-57.508
-57.467
-57.423
-57.379
-57.336
-57.3
-57.271
-57.255
-57.253
-57.269
-57.306
-57.366
-57.453
-57.568
-57.714
-57.893
-58.106
-58.356
-58.645
-58.972
-59.341
-59.75
-60.202
-60.696
-61.23
-61.805
-62.419
-63.068
-63.751
-64.462
-65.199
-65.955
-66.726
-67.506
-68.287
-69.064
-69.828
-70.57
-71.282
-71.955
-72.579
-73.145
-73.642
-74.062
-74.394
-74.631
-74.762
-74.78
-74.676
-74.442
-74.071
-73.557
-72.893
-72.073
-71.095
-69.956
-68.653
-67.187
-65.559
-63.773
-61.835
-59.753
-57.536
-55.193
-52.738
-50.186
-47.551
-44.85
-42.098
-39.314
-36.516
-33.724
-30.959
-28.244
-25.601
-23.053
-20.622
-18.33
-16.2
-14.248
-12.488
-10.936
-9.605
-8.51
-7.676
-7.122
-6.863
-6.911
-7.275
-7.958
-8.954
-10.244
-11.795
-13.569
-15.53
-17.643
-19.885
-22.221
-24.615
-27.02
-29.375
-31.623
-33.713
-35.597
-37.233
-38.599
-39.695
-40.571
-41.328
-42.059
-42.849
-43.773
-44.895
-46.309
-48.128
-50.423
-53.257
-56.71
-60.905
-65.948
-71.859
-78.474
-85.421
-92.338
-98.868
-104.423
-108.348
-110.148
-109.432
-106.88
-103.602
-99.722
-95.901
-91.69
-86.667
-83.005
-80.794
-80.367
-81.955
-82.326
-80.966
-76.739
-65.932
-44.921
-6.767
55.307
144.499
259.898
396.526
545.604
695.96
835.915
950.787
1027.278
1054.503
1024.895
940.474
807.897
639.892
455.037
270.795
106.032
-23.554
-110.48
-153.921
-160.044
-140.414
-107.461
-71.359
-42.578
-28.585
-30.52
-46.687
-69.094
-87.357
-97.493
-99.418
-96.881
-95.833
-97.635
-100.777
-103.693
-104.764
-104.085
-102.599
-100.68
-98.458
-96.275
-94.695
-94.007
-94.093
-94.571
-95.135
-95.855
-97.111
-99.02
-101.346
-103.888
-106.508
-109.212
-112.043
-114.811
-117.188
-118.948
-120.01
-120.38
-120.123
-119.247
-117.733
-115.633
-113.036
-110.041
-106.737
-103.176
-99.401
-95.466
-91.443
-87.407
-83.421
-79.519
-75.718
-72.024
-68.432
-64.935
-61.515
-58.145
-54.801
-51.462
-48.104
-44.711
-41.265
-37.742
-34.122
-30.38
-26.494
-22.443
-18.213
-13.788
-9.16
-4.32
0.736
6.011
11.508
17.226
23.168
29.333
35.717
42.317
49.124
56.129
63.319
70.676
78.181
85.813
93.548
101.358
109.216
117.091
124.953
132.768
140.503
148.122
155.59
162.872
169.93
176.73
183.236
189.413
195.228
200.648
205.644
210.185
214.247
217.803
220.831
223.312
225.228
226.565
227.311
227.457
226.999
225.933
224.262
221.989
219.124
215.677
211.663
207.099
202.005
196.405
190.324
183.79
176.833
169.484
161.776
153.745
145.427
136.858
128.077
119.122
110.03
100.84
91.591
82.319
73.061
63.853
54.73
45.725
36.871
28.196
19.731
11.501
3.531
-4.157
-11.544
-18.611
-25.345
-31.732
-37.763
-43.429
-48.725
-53.649
-58.199
-62.376
-66.184
-69.628
-72.715
-75.454
-77.855
-79.93
-81.693
-83.157
-84.339
-85.253
-85.918
-86.35
-86.568
-86.59
-86.434
-86.119
-85.662
-85.083
-84.398
-83.624
-82.778
-81.875
-80.93
-79.956
-78.967
-77.974
-76.988
-76.019
-75.076
-74.166
-73.298
-72.475
-71.705
-70.989
-70.333
-69.737
-69.204
-68.733
-68.326
-67.98
-67.696
-67.47
-67.3
-67.184
-67.118
-67.099
-67.121
-67.181
-67.274
-67.396
-67.543
-67.709
-67.891
-68.084
-68.285
-68.491
-68.698
-68.902
-69.102
-69.295
-69.479
-69.651
-69.811
-69.957
-70.088
-70.204
-70.304
-70.388
-70.457
-70.511
-70.551
-70.577
-70.591
-70.595
-70.589
-70.577
-70.559
-70.539
-70.519
-70.503
-70.493
-70.492
-70.504
-70.531
-70.577
-70.645
-70.737
-70.856
-71.006
-71.188
-71.405
-71.659
-71.953
-72.288
-72.665
-73.087
-73.553
-74.065
-74.622
-75.224
-75.871
-76.561
-77.295
-78.07
-78.884
-79.736
-80.622
-81.54
-82.484
-83.451
-84.436
-85.432
-86.433
-87.434
-88.425
-89.401
-90.353
-91.274
-92.154
-92.986
-93.759
-94.465
-95.096
-95.641
-96.094
-96.445
-96.684
-96.804
-96.797
-96.655
-96.373
-95.944
-95.363
-94.626
-93.729
-92.673
-91.457
-90.081
-88.545
-86.85
-84.998
-82.994
-80.852
-78.583
-76.201
-73.721
-71.159
-68.533
-65.864
-63.173
-60.474
-57.782
-55.11
-52.476
-49.903
-47.415
-45.044
-42.807
-40.712
-38.766
-36.969
-35.336
-33.9
-32.674
-31.665
-30.88
-30.315
-30.003
-30.031
-30.393
-31.003
-31.785
-32.62
-33.503
-34.602
-35.949
-37.437
-39.122
-41.151
-43.711
-47.128
-51.369
-55.946
-60.553
-65.062
-69.218
-72.778
-75.403
-76.529
-76.121
-74.76
-72.884
-70.799
-68.842
-67.196
-66.175
-66.367
-67.939
-70.583
-74.122
-78.47
-83.568
-89.499
-96.148
-103.006
-109.735
-116.283
-122.34
-127.366
-130.8
-132.034
-131.39
-130.319
-129.879
-130.222
-129.63
-125.557
-116.861
-104.359
-92.384
-85.28
-85.049
-91.767
-99.689
-101.483
-90.261
-57.559
0.574
85.689
198.112
333.017
484.354
643.735
798.051
932.065
1028.887
1072.042
1050.858
964.231
820.225
635.876
434.335
238.125
66.714
-65.548
-153.429
-198.945
-208.041
-191.823
-162.253
-128.763
-101.975
-87.991
-86.283
-94.596
-105.733
-112.589
-114.394
-112.381
-110.053
-111.748
-117.545
-125.483
-133.525
-139.17
-141.446
-140.846
-137.866
-133.135
-127.441
-121.382
-115.516
-110.576
-107.051
-105.066
-104.663
-105.715
-107.937
-111.085
-114.882
-118.921
-122.892
-126.576
-129.761
-132.36
-134.341
-135.651
-136.291
-136.292
-135.669
-134.464
-132.733
-130.511
-127.848
-124.804
-121.431
-117.805
-114.003
-110.098
-106.164
-102.253
-98.391
-94.598
-90.879
-87.23
-83.643
-80.096
-76.56
-73.01
-69.424
-65.782
-62.064
-58.248
-54.306
-50.215
-45.953
-41.5
-36.843
-31.968
-26.863
-21.522
-15.94
-10.116
-4.051
2.253
8.794
15.571
22.578
29.809
37.254
44.903
52.744
60.76
68.932
77.239
85.658
94.161
102.724
111.314
119.903
128.458
136.945
145.331
153.58
161.657
169.526
177.153
184.5
191.534
198.221
204.528
210.423
215.877
220.862
225.351
229.321
232.751
235.622
237.917
239.622
240.727
241.224
241.107
240.375
239.029
237.073
234.516
231.367
227.641
223.355
218.527
213.181
207.341
201.033
194.288
187.135
179.608
171.741
163.57
155.131
146.461
137.599
128.583
119.451
110.241
100.99
91.737
82.516
73.363
64.311
55.392
46.639
38.078
29.738
21.644
13.82
6.286
-0.939
-7.838
-14.396
-20.602
-26.446
-31.921
-37.021
-41.744
-46.089
-50.057
-53.653
-56.881
-59.748
-62.264
-64.439
-66.285
-67.814
-69.041
-69.982
-70.651
-71.067
-71.246
-71.205
-70.962
-70.535
-69.94
-69.195
-68.317
-67.322
-66.226
-65.045
-63.793
-62.485
-61.133
-59.75
-58.348
-56.937
-55.526
-54.125
-52.742
-51.382
-50.053
-48.759
-47.505
-46.294
-45.13
-44.013
-42.946
-41.929
-40.962
-40.044
-39.175
-38.351
-37.573
-36.837
-36.141
-35.483
-34.861
-34.271
-33.711
-33.179
-32.672
-32.188
-31.723
-31.276
-30.845
-30.427
-30.022
-29.628
-29.243
-28.867
-28.499
-28.139
-27.785
-27.439
-27.098
-26.765
-26.438
-26.119
-25.807
-25.504
-25.211
-24.928
-24.658
-24.4
-24.157
-23.929
-23.719
-23.527
-23.355
-23.203
-23.074
-22.968
-22.886
-22.83
-22.8
-22.796
-22.819
-22.87
-22.947
-23.05
-23.178
-23.331
-23.505
-23.701
-23.915
-24.145
-24.388
-24.641
-24.902
-25.165
-25.427
-25.684
-25.93
-26.16
-26.369
-26.551
-26.7
-26.809
-26.873
-26.885
-26.838
-26.725
-26.54
-26.275
-25.924
-25.48
-24.936
-24.287
-23.526
-22.648
-21.648
-20.522
-19.267
-17.879
-16.357
-14.698
-12.904
-10.974
-8.91
-6.714
-4.389
-1.94
0.629
3.311
6.099
8.984
11.957
15.008
18.127
21.301
24.518
27.765
31.027
34.292
37.542
40.765
43.943
47.061
50.104
53.056
55.901
58.624
61.211
63.648
65.921
68.018
69.928
71.642
73.15
74.444
75.519
76.37
76.994
77.387
77.551
77.485
77.192
76.677
75.945
75.002
73.858
72.523
71.006
69.321
67.48
65.497
63.386
61.164
58.845
56.448
53.987
51.48
48.944
46.396
43.85
41.323
38.83
36.384
33.996
31.677
29.435
27.275
25.203
23.222
21.332
19.532
17.822
16.199
14.66
13.202
11.818
10.502
9.244
