Name
Date of Birth,"Mar 27, 1959"
Recorded Date,2021-08-25 13:18:00 -0500
Classification,Sinus Rhythm
Symptoms,
Software Version,1.90
Device,"Watch4,2"
Sample Rate,510.227 hertz


Lead,Lead I
Unit,µV

20.178
22.094
23.911
25.609
27.166
28.573
29.829
30.93
31.871
32.646
33.246
33.656
33.851
33.792
33.434
32.747
31.714
30.34
28.652
26.677
24.458
22.028
19.409
16.63
13.722
10.715
7.637
4.531
1.452
-1.512
-4.255
-6.696
-8.77
-10.445
-11.71
-12.554
-12.997
-13.061
-12.764
-12.147
-11.249
-10.104
-8.754
-7.253
-5.678
-4.146
-2.805
-1.778
-1.173
-1.071
-1.535
-2.636
-4.409
-6.866
-10.005
-13.787
-18.171
-23.117
-28.574
-34.467
-40.705
-47.159
-53.67
-60.106
-66.339
-72.26
-77.772
-82.769
-87.179
-90.976
-94.153
-96.746
-98.838
-100.523
-101.935
-103.279
-104.764
-106.581
-108.917
-111.917
-115.58
-119.854
-124.664
-129.618
-134.157
-137.862
-140.266
-141.316
-141.692
-141.339
-139.753
-136.471
-130.226
-121.904
-114.528
-110.978
-114.743
-126.287
-141.83
-156.631
-165.471
-165.238
-157.45
-145.482
-131.219
-113.719
-87.03
-42.147
27.161
122.122
237.963
365.432
494.42
616.955
726.614
815.688
877.029
901.949
882.487
817.845
710.59
569.74
410.879
249.194
101.413
-18.402
-103.752
-153.719
-172.886
-170.195
-155.067
-134.805
-116.563
-105.132
-100.731
-102.507
-106.357
-107.018
-103.704
-97.514
-91.348
-89.154
-91.689
-97.808
-105.959
-114.057
-120.977
-126.376
-129.829
-131.316
-131.088
-129.403
-126.666
-123.313
-119.764
-116.524
-114.145
-112.931
-112.908
-113.975
-115.914
-118.5
-121.525
-124.706
-127.698
-130.249
-132.229
-133.589
-134.355
-134.556
-134.196
-133.308
-131.953
-130.193
-128.083
-125.671
-122.986
-120.071
-116.982
-113.785
-110.545
-107.325
-104.162
-101.08
-98.093
-95.204
-92.413
-89.713
-87.089
-84.52
-81.986
-79.471
-76.958
-74.434
-71.88
-69.273
-66.591
-63.814
-60.923
-57.905
-54.748
-51.438
-47.966
-44.324
-40.507
-36.51
-32.33
-27.961
-23.4
-18.645
-13.695
-8.552
-3.219
2.298
7.993
13.856
19.874
26.033
32.318
38.71
45.19
51.738
58.33
64.943
71.552
78.131
84.654
91.093
97.421
103.611
109.635
115.465
121.075
126.438
131.53
136.326
140.804
144.94
148.716
152.111
155.109
157.695
159.855
161.577
162.853
163.675
164.039
163.943
163.387
162.375
160.911
159.002
156.66
153.895
150.722
147.156
143.215
138.919
134.288
129.346
124.115
118.621
112.889
106.945
100.816
94.529
88.11
81.588
74.989
68.341
61.669
55
48.359
41.77
35.256
28.84
22.543
16.384
10.382
4.553
-1.087
-6.524
-11.747
-16.745
-21.51
-26.033
-30.31
-34.337
-38.111
-41.631
-44.898
-47.914
-50.683
-53.208
-55.494
-57.55
-59.381
-60.996
-62.404
-63.615
-64.639
-65.486
-66.168
-66.695
-67.079
-67.332
-67.464
-67.488
-67.412
-67.25
-67.01
-66.703
-66.338
-65.925
-65.471
-64.986
-64.477
-63.95
-63.413
-62.871
-62.33
-61.794
-61.268
-60.756
-60.261
-59.786
-59.334
-58.907
-58.506
-58.132
-57.787
-57.471
-57.183
-56.924
-56.693
-56.489
-56.312
-56.159
-56.031
-55.926
-55.843
-55.78
-55.735
-55.707
-55.696
-55.698
-55.713
-55.74
-55.776
-55.82
-55.871
-55.927
-55.986
-56.047
-56.109
-56.168
-56.224
-56.274
-56.318
-56.352
-56.376
-56.387
-56.384
-56.367
-56.332
-56.28
-56.21
-56.12
-56.009
-55.878
-55.725
-55.549
-55.352
-55.132
-54.89
-54.626
-54.339
-54.03
-53.7
-53.349
-52.977
-52.586
-52.175
-51.747
-51.302
-50.842
-50.369
-49.883
-49.388
-48.885
-48.376
-47.863
-47.349
-46.837
-46.327
-45.824
-45.328
-44.842
-44.369
-43.909
-43.466
-43.041
-42.636
-42.252
-41.891
-41.554
-41.243
-40.958
-40.702
-40.474
-40.277
-40.111
-39.977
-39.877
-39.81
-39.777
-39.78
-39.818
-39.892
-40.002
-40.148
-40.329
-40.546
-40.798
-41.084
-41.404
-41.755
-42.138
-42.549
-42.989
-43.454
-43.943
-44.454
-44.985
-45.533
-46.095
-46.67
-47.254
-47.843
-48.434
-49.023
-49.606
-50.178
-50.734
-51.269
-51.778
-52.257
-52.698
-53.096
-53.446
-53.742
-53.977
-54.146
-54.243
-54.261
-54.196
-54.042
-53.795
-53.451
-53.006
-52.457
-51.802
-51.039
-50.166
-49.183
-48.089
-46.885
-45.574
-44.156
-42.637
-41.021
-39.315
-37.529
-35.672
-33.756
-31.793
-29.796
-27.779
-25.759
-23.751
-21.771
-19.834
-17.958
-16.161
-14.46
-12.874
-11.42
-10.113
-8.968
-7.998
-7.215
-6.631
-6.253
-6.083
-6.126
-6.386
-6.872
-7.593
-8.548
-9.738
-11.159
-12.802
-14.659
-16.71
-18.923
-21.265
-23.696
-26.175
-28.673
-31.156
-33.588
-35.939
-38.162
-40.209
-42.044
-43.618
-44.895
-45.875
-46.541
-46.898
-47.021
-46.99
-46.949
-47.13
-47.681
-48.701
-50.336
-52.651
-55.639
-59.281
-63.31
-67.238
-70.718
-73.43
-74.927
-74.886
-73.132
-69.451
-64.475
-59.675
-55.562
-52.289
-49.604
-45.828
-41.646
-39.949
-42.507
-51.182
-64.519
-76.622
-83.341
-82.234
-72.12
-54.47
-27.994
12.318
70.272
149.097
248.563
363.253
488.112
616.308
739.47
849.524
934.728
984.522
991.828
952.526
869.981
752.159
609.495
456.18
306.361
172.309
64.878
-10.368
-54.281
-70.437
-66.452
-51.745
-32.854
-16.859
-8.77
-8.432
-14.616
-22.932
-27.563
-27.007
-21.775
-14.123
-7.733
-3.738
-1.773
-1.276
-1.212
-1.361
-2.036
-3.426
-5.69
-8.748
-12.256
-15.753
-18.858
-21.388
-23.301
-24.614
-25.431
-25.875
-26.156
-26.618
-27.445
-28.646
-30.16
-31.828
-33.478
-34.998
-36.238
-37.005
-37.215
-36.851
-35.932
-34.546
-32.767
-30.638
-28.229
-25.608
-22.828
-19.946
-17.008
-14.044
-11.097
-8.198
-5.364
-2.612
0.058
2.652
5.178
7.652
10.094
12.516
14.933
17.359
19.805
22.286
24.817
27.414
30.092
32.867
35.75
38.754
41.891
45.166
48.588
52.16
55.886
59.771
63.82
68.032
72.409
76.949
81.651
86.514
91.536
96.71
102.028
107.481
113.056
118.743
124.526
130.386
136.303
142.252
148.213
154.165
160.088
165.965
171.769
177.467
183.023
188.399
193.57
198.523
203.236
207.685
211.847
215.686
219.194
222.402
225.276
227.732
229.698
231.076
231.864
232.191
232.1
231.542
230.592
229.389
228.097
226.983
226.049
224.991
223.654
222.008
219.917
217.253
213.81
209.206
203.441
196.91
189.859
182.447
174.854
167.159
159.556
152.416
145.797
139.465
133.273
127.101
120.879
114.666
108.426
102.018
95.443
88.817
82.233
75.788
69.532
63.433
57.5
51.775
46.275
41.002
35.956
31.125
26.513
22.142
18.027
14.177
10.597
7.28
4.224
1.427
-1.115
-3.404
-5.447
-7.249
-8.819
-10.165
-11.297
-12.222
-12.953
-13.5
-13.875
-14.091
-14.159
-14.089
-13.889
-13.572
-13.146
-12.623
-12.014
-11.329
-10.577
-9.769
-8.915
-8.023
-7.102
-6.161
-5.206
-4.246
-3.286
-2.334
-1.396
-0.476
0.42
1.287
2.123
2.923
3.685
4.405
5.083
5.717
6.304
6.845
7.338
7.784
8.181
8.53
8.831
9.084
9.289
9.448
9.561
9.63
9.655
9.638
9.581
9.485
9.353
9.185
8.985
8.753
8.493
8.207
7.895
7.561
7.207
6.835
6.446
6.042
5.625
5.196
4.757
4.308
3.85
3.385
2.912
2.433
1.949
1.459
0.965
0.466
-0.036
-0.542
-1.051
-1.564
-2.08
-2.599
-3.121
-3.648
-4.178
-4.713
-5.253
-5.798
-6.35
-6.909
-7.476
-8.051
-8.637
-9.233
-9.84
-10.458
-11.089
-11.733
-12.388
-13.057
-13.737
-14.43
-15.135
-15.851
-16.579
-17.318
-18.068
-18.828
-19.599
-20.379
-21.168
-21.967
-22.774
-23.59
-24.415
-25.248
-26.089
-26.938
-27.794
-28.659
-29.53
-30.409
-31.294
-32.185
-33.082
-33.985
-34.893
-35.806
-36.724
-37.646
-38.574
-39.506
-40.443
-41.385
-42.331
-43.281
-44.233
-45.189
-46.145
-47.102
-48.057
-49.009
-49.955
-50.895
-51.824
-52.741
-53.642
-54.523
-55.381
-56.211
-57.009
-57.771
-58.492
-59.167
-59.791
-60.359
-60.866
-61.308
-61.678
-61.972
-62.185
-62.311
-62.346
-62.284
-62.122
-61.854
-61.479
-60.993
-60.393
-59.679
-58.849
-57.902
-56.84
-55.664
-54.376
-52.977
-51.474
-49.871
-48.174
-46.391
-44.531
-42.602
-40.619
-38.593
-36.542
-34.479
-32.424
-30.393
-28.406
-26.482
-24.64
-22.896
-21.268
-19.771
-18.423
-17.241
-16.239
-15.433
-14.834
-14.453
-14.297
-14.369
-14.667
-15.189
-15.928
-16.881
-18.052
-19.44
-21.047
-22.876
-24.923
-27.183
-29.644
-32.282
-35.059
-37.945
-40.906
-43.923
-46.98
-50.045
-53.088
-56.065
-58.923
-61.623
-64.108
-66.288
-68.117
-69.589
-70.765
-71.808
-72.866
-74.028
-75.423
-77.192
-79.396
-82.051
-84.948
-87.673
-89.932
-91.508
-92.198
-91.845
-90.238
-87.216
-83.03
-78.21
-73.173
-68.382
-64.207
-61.003
-59.473
-60.369
-64.034
-70.518
-79.81
-91.163
-103.223
-114.419
-122.248
-125.131
-123.421
-117.015
-105.624
-86.799
-54.248
-2.544
72.318
170.94
288.1
417.333
550.057
676.853
789.824
879.339
937.34
957.583
935.018
869.492
763.817
624.669
464.07
297.054
140.243
9.391
-85.039
-140.866
-161.438
-155.663
-135.828
-111.053
-90.204
-79.326
-77.551
-82.542
-88.866
-89.879
-84.408
-73.999
-62.109
-53.347
-49.145
-48.842
-51.114
-54.304
-57.868
-61.8
-65.982
-70.301
-74.368
-77.74
-80.317
-82.074
-83.037
-83.411
-83.395
-83.215
-83.201
-83.666
-84.725
-86.343
-88.399
-90.678
-92.973
-95.12
-96.932
-98.213
-98.868
-98.877
-98.266
-97.116
-95.501
-93.468
-91.081
-88.411
-85.511
-82.444
-79.264
-76.016
-72.751
-69.512
-66.323
-63.208
-60.175
-57.223
-54.343
-51.525
-48.75
-46.004
-43.277
-40.558
-37.836
-35.098
-32.328
-29.51
-26.627
-23.664
-20.608
-17.445
-14.164
-10.758
-7.218
-3.542
0.275
4.236
8.346
12.61
17.03
21.609
26.347
31.242
36.293
41.494
46.839
52.318
57.921
63.635
69.446
75.339
81.298
87.304
93.338
99.379
105.405
111.393
117.321
123.165
128.898
134.498
139.938
145.194
150.242
155.057
159.616
163.896
167.876
171.534
174.851
177.808
180.389
182.579
184.363
185.73
186.669
187.174
187.237
186.857
186.031
184.761
183.05
180.903
178.328
175.335
171.935
168.142
163.971
159.44
154.567
149.374
143.882
138.114
132.094
125.847
119.4
112.778
106.009
99.12
92.138
85.091
78.006
70.91
63.83
56.791
49.819
42.938
36.172
29.543
23.071
16.777
10.679
4.793
-0.867
-6.285
-11.452
-16.357
-20.991
-25.35
-29.427
-33.221
-36.73
-39.954
-42.896
-45.558
-47.945
-50.063
-51.92
-53.524
-54.884
-56.01
-56.914
-57.606
-58.1
-58.407
-58.542
-58.516
-58.345
-58.04
-57.617
-57.087
-56.465
-55.763
-54.993
-54.167
-53.297
-52.394
-51.466
-50.525
-49.577
-48.632
-47.696
-46.775
-45.876
-45.003
-44.16
-43.35
-42.578
-41.843
-41.15
-40.498
-39.888
-39.321
-38.796
-38.313
-37.872
-37.471
-37.109
-36.786
-36.499
-36.247
-36.028
-35.842
-35.686
-35.559
-35.46
-35.387
-35.34
-35.317
-35.318
-35.341
-35.387
-35.455
-35.544
-35.656
-35.789
-35.945
-36.123
-36.324
-36.549
-36.798
-37.071
-37.369
-37.693
-38.042
-38.416
-38.817
-39.243
-39.695
-40.171
-40.672
-41.196
-41.743
-42.311
-42.9
-43.506
-44.129
-44.767
-45.417
-46.078
-46.747
-47.421
-48.099
-48.777
-49.453
-50.124
-50.787
-51.44
-52.08
-52.703
-53.307
-53.89
-54.449
-54.981
-55.484
-55.957
-56.397
-56.803
-57.173
-57.507
-57.803
-58.061
-58.281
-58.464
-58.608
-58.716
-58.789
-58.826
-58.832
-58.806
-58.751
-58.67
-58.565
-58.438
-58.293
-58.131
-57.956
-57.771
-57.58
-57.385
-57.19
-56.999
-56.814
-56.638
-56.476
-56.33
-56.203
-56.098
-56.017
-55.964
-55.941
-55.95
-55.992
-56.069
-56.183
-56.332
-56.519
-56.742
-57.001
-57.294
-57.621
-57.978
-58.365
-58.777
-59.213
-59.668
-60.138
-60.621
-61.11
-61.601
-62.089
-62.568
-63.033
-63.477
-63.894
-64.279
-64.625
-64.926
-65.175
-65.367
-65.493
-65.548
-65.527
-65.421
-65.227
-64.939
-64.552
-64.062
-63.467
-62.764
-61.95
-61.024
-59.987
-58.839
-57.58
-56.214
-54.743
-53.172
-51.507
-49.754
-47.923
-46.022
-44.063
-42.057
-40.018
-37.961
-35.902
-33.857
-31.842
-29.874
-27.971
-26.15
-24.429
-22.824
-21.351
-20.026
-18.864
-17.88
-17.088
-16.499
-16.121
-15.956
-16.007
-16.274
-16.759
-17.464
-18.391
-19.538
-20.901
-22.481
-24.274
-26.271
-28.457
-30.8
-33.266
-35.821
-38.436
-41.092
-43.771
-46.446
-49.079
-51.623
-54.036
-56.281
-58.329
-60.128
-61.615
-62.768
-63.638
-64.347
-65.07
-65.946
-67.052
-68.48
-70.385
-72.85
-75.823
-79.117
-82.379
-85.296
-87.735
-89.534
-90.372
-89.985
-88.283
-85.358
-81.604
-77.462
-73.153
-69.002
-65.631
-63.761
-64.043
-66.947
-72.656
-80.686
-89.893
-98.743
-104.969
-107.236
-106.24
-102.49
-95.891
-83.54
-57.879
-11.531
60.718
159.378
277.943
408.287
541.478
669.422
786.338
883.163
949.653
975.116
949.265
870.252
743.487
581.086
402.276
226.097
69.157
-55.064
-140.352
-187.132
-198.976
-184.257
-154.05
-117.4
-84.659
-63.35
-53.865
-54.458
-59.026
-60.069
-55.863
-47.368
-37.928
-32.418
-32.082
-35.745
-41.601
-47.303
-51.921
-55.613
-58.48
-60.601
-61.844
-62.143
-61.709
-60.816
-59.72
-58.619
-57.656
-57.052
-57.094
-57.871
-59.313
-61.272
-63.528
-65.884
-68.181
-70.232
-71.831
-72.87
-73.313
-73.17
-72.504
-71.368
-69.804
-67.871
-65.635
-63.152
-60.473
-57.647
-54.715
-51.726
-48.733
-45.775
-42.877
-40.055
-37.311
-34.644
-32.048
-29.51
-27.012
-24.539
-22.078
-19.619
-17.148
-14.652
-12.115
-9.519
-6.849
-4.091
-1.23
1.745
4.842
8.07
11.433
14.937
18.582
22.373
26.313
30.406
34.652
39.053
43.608
48.315
53.171
58.169
63.302
68.561
73.933
79.407
84.968
90.601
96.288
102.012
107.753
113.491
119.204
124.87
130.465
135.967
141.35
146.591
151.665
156.549
161.217
165.648
169.818
173.706
177.29
180.551
183.469
186.028
188.212
190.005
191.394
192.369
192.92
193.04
192.723
191.967
190.771
189.135
187.064
184.563
181.639
178.303
174.567
170.443
165.947
161.098
155.912
150.412
144.62
138.557
132.249
125.721
118.998
112.107
105.076
97.931
90.701
83.412
76.091
68.767
61.466
54.214
47.037
39.959
33.005
26.196
19.555
13.101
6.852
0.827
-4.961
-10.496
-15.768
-20.766
-25.481
-29.907
-34.039
-37.874
-41.412
-44.651
-47.595
-50.247
-52.612
-54.696
-56.507
-58.054
-59.346
-60.394
-61.21
-61.805
-62.194
-62.389
-62.405
-62.255
-61.955
-61.518
-60.959
-60.294
-59.535
-58.697
-57.794
-56.838
-55.842
-54.817
-53.776
-52.727
-51.68
-50.644
-49.628
-48.637
-47.677
-46.755
-45.874
-45.038
-44.249
-43.511
-42.825
-42.191
-41.61
-41.082
-40.608
-40.185
-39.812
-39.489
-39.212
-38.981
-38.792
-38.643
-38.532
-38.456
-38.413
-38.399
-38.412
-38.45
-38.511
-38.591
-38.69
-38.805
-38.934
-39.077
-39.232
-39.399
-39.576
-39.764
-39.963
-40.171
-40.389
-40.617
-40.855
-41.104
-41.362
-41.63
-41.908
-42.195
-42.492
-42.798
-43.112
-43.435
-43.764
-44.1
-44.441
-44.786
-45.135
-45.485
-45.836
-46.186
-46.534
-46.879
-47.217
-47.549
-47.872
-48.184
-48.484
-48.77
-49.039
-49.29
-49.521
-49.73
-49.917
-50.08
-50.218
-50.329
-50.415
-50.474
-50.507
-50.514
-50.496
-50.454
-50.389
-50.304
-50.199
-50.079
-49.945
-49.799
-49.646
-49.487
-49.327
-49.168
-49.013
-48.867
-48.733
-48.613
-48.512
-48.432
-48.378
-48.352
-48.357
-48.397
-48.474
-48.59
-48.749
-48.95
-49.197
-49.49
-49.828
-50.214
-50.645
-51.12
-51.639
-52.198
-52.796
-53.428
-54.091
-54.781
-55.493
-56.222
-56.963
-57.709
-58.455
-59.194
-59.919
-60.624
-61.301
-61.944
-62.546
-63.099
-63.596
-64.03
-64.394
-64.681
-64.884
-64.997
-65.014
-64.928
-64.734
-64.429
-64.008
-63.468
-62.806
-62.021
-61.112
-60.079
-58.924
-57.647
-56.252
-54.743
-53.125
-51.404
-49.589
-47.686
-45.704
-43.656
-41.554
-39.411
-37.243
-35.065
-32.894
-30.748
-28.647
-26.606
-24.645
-22.778
-21.022
-19.393
-17.906
-16.578
-15.422
-14.454
-13.681
-13.115
-12.758
-12.613
-12.677
-12.948
-13.42
-14.096
-14.976
-16.059
-17.351
-18.85
-20.552
-22.451
-24.526
-26.75
-29.097
-31.545
-34.08
-36.69
-39.349
-42.035
-44.712
-47.333
-49.869
-52.264
-54.429
-56.322
-57.937
-59.324
-60.642
-62.041
-63.592
-65.408
-67.601
-70.179
-73.117
-76.198
-78.961
-81.053
-82.26
-82.421
-81.488
-79.462
-76.348
-72.454
-68.443
-64.935
-62.351
-60.845
-60.498
-61.429
-64.214
-69.743
-77.716
-87.217
-96.778
-103.498
-106.372
-106.223
-103.542
-101.115
-100.355
-98.58
-93.092
-78.042
-45.915
6.482
81.354
177.644
289.219
410.669
534.686
652.48
756.513
837.223
886.684
899.717
872.769
806.312
702.799
567.744
411.642
249.573
99.416
-23.19
-108.71
-157.682
-177.478
-176.441
-163.166
-142.067
-116.036
-91.158
-71.889
-61.188
-59.443
-61.134
-60.75
-56.219
-47.802
-39.068
-33.989
-33.341
-36.295
-41.451
-47.021
-52.316
-57.311
-61.652
-64.992
-67.246
-68.407
-68.578
-68.057
-67.115
-65.974
-65.034
-64.704
-65.133
-66.307
-68.112
-70.31
-72.689
-75.071
-77.224
-78.923
-80.056
-80.585
-80.531
-79.966
-78.946
-77.518
-75.742
-73.686
-71.404
-68.945
-66.353
-63.666
-60.93
-58.196
-55.501
-52.869
-50.315
-47.841
-45.445
-43.119
-40.853
-38.629
-36.435
-34.259
-32.089
-29.915
-27.722
-25.493
-23.211
-20.858
-18.419
-15.879
-13.224
-10.444
-7.53
-4.474
-1.27
2.088
5.604
9.285
13.136
17.161
21.362
25.741
30.297
35.028
39.93
44.997
50.219
55.586
61.087
66.709
72.436
78.252
84.139
90.078
96.047
102.024
107.987
113.911
119.772
125.544
131.2
136.716
142.064
147.219
152.155
156.847
161.271
165.402
169.218
172.697
175.82
178.568
180.923
182.87
184.396
185.488
186.138
186.339
186.085
185.373
184.205
182.581
180.505
177.985
175.029
171.649
167.856
163.667
159.098
154.168
148.897
143.308
137.423
131.268
124.869
118.251
111.444
104.474
97.371
90.162
82.878
75.547
68.198
60.858
53.556
46.318
39.17
32.137
25.244
18.511
11.961
5.613
-0.515
-6.407
-12.048
-17.426
-22.529
-27.349
-31.878
-36.11
-40.043
-43.673
-47.001
-50.027
-52.756
-55.191
-57.339
-59.206
-60.801
-62.134
-63.216
-64.058
-64.673
-65.073
-65.273
-65.286
-65.128
-64.812
-64.353
-63.766
-63.066
-62.267
-61.382
-60.424
-59.408
-58.345
-57.247
-56.124
-54.988
-53.848
-52.712
-51.588
-50.484
-49.407
-48.362
-47.353
-46.386
-45.463
-44.587
-43.76
-42.984
-42.26
-41.587
-40.965
-40.394
-39.872
-39.398
-38.969
-38.585
-38.241
-37.937
-37.669
-37.435
-37.232
-37.059
-36.913
-36.792
-36.695
-36.619
-36.563
-36.526
-36.507
-36.504
-36.517
-36.546
-36.589
-36.647
-36.72
-36.807
-36.908
-37.025
-37.156
-37.303
-37.466
-37.645
-37.841
-38.055
-38.287
-38.538
-38.808
-39.098
-39.408
-39.739
-40.09
-40.462
-40.853
-41.263
-41.692
-42.138
-42.6
-43.076
-43.566
-44.066
-44.575
-45.092
-45.614
-46.139
-46.665
-47.19
-47.712
-48.227
-48.735
-49.233
-49.719
-50.192
-50.648
-51.087
-51.507
-51.906
-52.283
-52.637
-52.965
-53.268
-53.545
-53.794
-54.016
-54.211
-54.38
-54.524
-54.643
-54.741
-54.817
-54.875
-54.917
-54.944
-54.959
-54.965
-54.963
-54.956
-54.948
-54.94
-54.937
-54.94
-54.952
-54.977
-55.017
-55.075
-55.153
-55.252
-55.375
-55.524
-55.701
-55.906
-56.143
-56.41
-56.71
-57.042
-57.406
-57.802
-58.226
-58.677
-59.151
-59.646
-60.155
-60.675
-61.2
-61.727
-62.251
-62.767
-63.272
-63.76
-64.228
-64.671
-65.081
-65.451
-65.773
-66.037
-66.235
-66.359
-66.402
-66.358
-66.22
-65.983
-65.645
-65.201
-64.647
-63.976
-63.177
-62.242
-61.172
-59.971
-58.647
-57.218
-55.696
-54.097
-52.444
-50.753
-49.038
-47.305
-45.547
-43.757
-41.938
-40.102
-38.273
-36.475
-34.711
-32.985
-31.295
-29.63
-27.98
-26.336
-24.665
-22.948
-21.191
-19.415
-17.672
-16.026
-14.513
-13.156
-11.969
-10.959
-10.162
-9.613
-9.339
-9.378
-9.764
-10.532
-11.749
-13.456
-15.648
-18.304
-21.353
-24.695
-28.262
-31.992
-35.82
-39.701
-43.548
-47.246
-50.736
-53.98
-56.97
-59.77
-62.386
-64.785
-67.019
-69.18
-71.3
-73.407
-75.396
-76.964
-77.902
-78.134
-77.602
-76.349
-74.55
-72.334
-69.916
-67.773
-66.282
-65.646
-65.996
-67.187
-68.886
-70.945
-73.338
-75.882
-78.58
-81.562
-84.881
-88.938
-93.74
-98.292
-101.313
-101.111
-96.844
-89.362
-78.769
-64.449
-43.542
-9.872
41.191
112.957
206.072
316.125
438.636
566.874
691.662
804.128
891.923
943.889
952.668
913.784
830.276
710.137
564.159
407.172
254.145
117.981
9.469
-66.259
-110.535
-127.173
-123.079
-106.762
-84.35
-63.291
-50.067
-45.954
-50.591
-59.421
-65.372
-65.943
-61.164
-53.555
-47.821
-45.745
-46.847
-49.99
-53.389
-56.316
-58.956
-61.406
-63.643
-65.396
-66.481
-66.943
-66.851
-66.363
-65.638
-64.797
-64.138
-64.024
-64.596
-65.855
-67.716
-69.98
-72.475
-75.045
-77.448
-79.437
-80.874
-81.693
-81.9
-81.558
-80.709
-79.392
-77.672
-75.619
-73.298
-70.763
-68.057
-65.218
-62.294
-59.34
-56.408
-53.536
-50.745
-48.044
-45.435
-42.91
-40.462
-38.075
-35.73
-33.411
-31.102
-28.79
-26.461
-24.1
-21.688
-19.207
-16.64
-13.967
-11.176
-8.254
-5.191
-1.979
1.39
4.922
8.619
12.487
16.528
20.747
25.146
29.725
34.482
39.415
44.52
49.788
55.211
60.778
66.476
72.289
78.202
84.198
90.256
96.357
102.479
108.598
114.692
120.734
126.701
132.565
138.301
143.883
149.283
154.478
159.44
164.144
168.568
172.688
176.483
179.931
183.013
185.713
188.013
189.901
191.364
192.391
192.976
193.111
192.793
192.022
190.798
189.125
187.008
184.454
181.473
178.078
174.281
170.1
165.55
160.651
155.424
149.891
144.075
138.001
131.694
125.18
118.486
111.64
104.669
97.602
90.465
83.286
76.094
68.914
61.773
54.695
47.707
40.83
34.087
27.5
21.088
14.87
8.862
3.079
-2.464
-7.756
-12.786
-17.545
-22.028
-26.228
-30.141
-33.767
-37.104
-40.154
-42.919
-45.403
-47.612
-49.553
-51.234
-52.663
-53.85
-54.807
-55.544
-56.075
-56.412
-56.568
-56.557
-56.392
-56.087
-55.656
-55.112
-54.47
-53.742
-52.942
-52.082
-51.174
-50.23
-49.261
-48.276
-47.286
-46.3
-45.325
-44.368
-43.436
-42.535
-41.671
-40.846
-40.064
-39.329
-38.641
-38.003
-37.415
-36.876
-36.385
-35.943
-35.547
-35.195
-34.884
-34.613
-34.379
-34.178
-34.008
-33.865
-33.746
-33.648
-33.567
-33.501
-33.447
-33.401
-33.362
-33.327
-33.294
-33.262
-33.229
-33.195
-33.158
-33.119
-33.078
-33.033
-32.987
-32.94
-32.893
-32.847
-32.805
-32.767
-32.737
-32.716
-32.706
-32.71
-32.73
-32.768
-32.826
-32.906
-33.01
-33.141
-33.299
-33.487
-33.705
-33.956
-34.239
-34.556
-34.907
-35.292
-35.71
-36.161
-36.644
-37.158
-37.701
-38.271
-38.867
-39.486
-40.126
-40.783
-41.456
-42.141
-42.834
-43.533
-44.235
-44.936
-45.633
-46.324
-47.004
-47.673
-48.327
-48.964
-49.582
-50.18
-50.755
-51.308
-51.835
-52.338
-52.814
-53.265
-53.69
-54.091
-54.466
-54.819
-55.149
-55.46
-55.752
-56.028
-56.29
-56.542
-56.785
-57.023
-57.259
-57.495
-57.734
-57.981
-58.238
-58.507
-58.791
-59.093
-59.415
-59.759
-60.125
-60.514
-60.928
-61.366
-61.828
-62.313
-62.821
-63.349
-63.896
-64.461
-65.039
-65.629
-66.227
-66.828
-67.429
-68.025
-68.611
-69.181
-69.729
-70.25
-70.739
-71.188
-71.591
-71.942
-72.234
-72.46
-72.615
-72.691
-72.682
-72.583
-72.387
-72.09
-71.688
-71.177
-70.555
-69.819
-68.967
-68
-66.916
-65.716
-64.4
-62.972
-61.435
-59.792
-58.049
-56.213
-54.292
-52.296
-50.235
-48.122
-45.969
-43.792
-41.606
-39.428
-37.274
-35.163
-33.111
-31.138
-29.263
-27.502
-25.874
-24.395
-23.08
-21.944
-21.002
-20.266
-19.745
-19.442
-19.359
-19.497
-19.858
-20.446
-21.263
-22.305
-23.571
-25.058
-26.763
-28.679
-30.791
-33.069
-35.477
-37.985
-40.562
-43.19
-45.854
-48.529
-51.184
-53.776
-56.264
-58.615
-60.8
-62.764
-64.445
-65.817
-66.921
-67.884
-68.89
-70.107
-71.654
-73.652
-76.27
-79.601
-83.567
-87.93
-92.261
-96.102
-99.162
-101.164
-101.695
-100.461
-97.448
-92.879
-87.342
-81.582
-76.12
-71.515
-68.61
-68.199
-70.816
-76.723
-85.748
-96.956
-108.906
-119.877
-127.416
-129.957
-127.681
-120.434
-107.908
-87.944
-54.773
-3.329
69.983
165.769
279.312
404.823
534.748
660.801
775.614
868.907
931.601
955.881
935.671
872.642
771.34
640.15
492.013
338.165
191.825
65.743
-32.289
-97.283
-130.441
-138.181
-128.353
-110.088
-91.094
-76.956
-70.9
-72.098
-77.474
-82.689
-83.728
-80.264
-74.207
-68.128
-64.836
-64.951
-67.477
-71.483
-75.932
-80.24
-84.357
-88.141
-91.289
-93.481
-94.568
-94.464
-93.175
-90.896
-87.84
-84.268
-80.572
-77.145
-74.177
-71.745
-69.857
-68.408
-67.302
-66.446
-65.685
-64.862
-63.916
-62.856
-61.725
-60.602
-59.537
-58.556
-57.709
-57.023
-56.499
-56.108
-55.792
-55.496
-55.184
-54.825
-54.378
-53.804
-53.058
-52.099
-50.904
-49.451
-47.722
-45.703
-43.386
-40.778
-37.902
-34.796
-31.508
-28.077
-24.525
-20.879
-17.161
-13.388
-9.574
-5.723
-1.827
2.121
6.126
10.193
14.329
18.548
22.869
27.314
31.908
36.669
41.605
46.723
52.026
57.51
63.167
68.984
74.938
81.008
87.174
93.415
99.709
106.031
112.354
118.65
124.89
131.046
137.09
142.995
148.735
154.283
159.614
164.705
169.534
174.08
178.32
182.234
185.801
189.002
191.821
194.241
196.249
197.833
198.982
199.691
199.954
199.768
199.135
198.055
196.534
194.577
192.194
189.394
186.192
182.601
178.637
174.319
169.666
164.698
159.437
153.907
148.131
142.133
135.938
129.572
123.062
116.432
109.709
102.92
96.091
89.247
82.413
75.613
68.873
62.213
55.656
49.222
42.93
36.799
30.843
25.079
19.52
14.178
9.062
4.183
-0.453
-4.839
-8.971
-12.847
-16.464
-19.823
-22.925
-25.771
-28.367
-30.715
-32.821
-34.693
-36.338
-37.763
-38.977
-39.991
-40.813
-41.454
-41.925
-42.237
-42.4
-42.425
-42.323
-42.106
-41.783
-41.365
-40.862
-40.283
-39.639
-38.938
-38.189
-37.399
-36.577
-35.729
-34.862
-33.982
-33.095
-32.206
-31.318
-30.437
-29.565
-28.706
-27.862
-27.036
-26.229
-25.442
-24.678
-23.935
-23.216
-22.521
-21.848
-21.2
-20.575
-19.973
-19.394
-18.838
-18.304
-17.794
-17.305
-16.839
-16.394
-15.971
-15.57
-15.191
-14.833
-14.497
-14.183
-13.89
-13.619
-13.371
-13.146
-12.943
-12.764
-12.608
-12.476
-12.368
-12.284
-12.226
-12.192
-12.184
-12.201
-12.243
-12.31
-12.401
-12.516
-12.655
-12.816
-12.998
-13.199
-13.418
-13.654
-13.904
-14.166
-14.438
-14.718
-15.004
-15.292
-15.579
-15.864
-16.143
-16.413
-16.67
-16.913
-17.137
-17.34
-17.519
-17.67
-17.791
-17.879
-17.931
-17.945
-17.919
-17.85
-17.738
-17.581
-17.378
-17.13
-16.835
-16.496
-16.112
-15.686
-15.219
-14.713
-14.173
-13.6
-13
-12.375
-11.732
-11.076
-10.412
-9.747
-9.087
-8.438
-7.809
-7.207
-6.638
-6.112
-5.636
-5.218
-4.868
-4.593
-4.401
-4.3
-4.299
-4.403
-4.621
-4.958
-5.42
-6.012
-6.738
-7.603
-8.609
-9.759
-11.053
-12.494
-14.08
-15.809
-17.681
-19.69
-21.832
-24.103
-26.495
-29.001
-31.613
-34.322
-37.118
-39.989
-42.926
-45.914
-48.941
-51.992
-55.054
-58.11
-61.146
-64.146
-67.095
-69.977
-72.777
-75.482
-78.075
-80.543
-82.872
-85.047
-87.057
-88.889
-90.53
-91.968
-93.195
-94.201
-94.98
-95.529
-95.843
-95.922
-95.766
-95.379
-94.763
-93.923
-92.864
-91.595
-90.125
-88.464
-86.626
-84.628
-82.485
-80.219
-77.848
-75.392
-72.868
-70.296
-67.689
-65.064
-62.436
-59.826
-57.25
-54.729
-52.289
-49.958
-47.766
-45.742
-43.9
-42.254
-40.815
-39.592
-38.596
-37.832
-37.296
-36.991
-36.918
-37.073
-37.457
-38.054
-38.825
-39.712
-40.639
-41.528
-42.323
-42.983
-43.446
-43.627
-43.478
-43.01
-42.311
-41.532
-40.783
-40.101
-39.538
-39.211
-39.203
-39.504
-39.954
-40.182
-39.861
-38.895
-37.328
-35.265
-32.915
-30.603
-28.833
-28.394
-30.039
-34.136
-40.678
-49.347
-59.644
-70.956
-82.605
-93.813
-103.788
-112.141
-118.965
-124.651
-129.727
-134.28
-137.604
-138.709
-136.307
-129.781
-119.711
-105.994
-88.302
-64.516
-29.493
20.954
90.689
181.383
289.635
411.049
538.021
660.656
769.847
854.047
904.64
916.508
886.683
818.753
717.434
589.111
444.045
292.989
149.52
27.157
-65.048
-124.504
-155.07
-163.706
-158.904
-146.256
-129.46
-113.822
-102.453
-97.167
-98.23
-101.195
-101.674
-98.314
-91.476
-83.954
-79.007
-77.36
-78.283
-80.755
-83.571
-86.232
-88.802
-91.21
-93.2
-94.476
-94.912
-94.439
-93.095
-91.078
-88.537
-85.665
-82.796
-80.248
-78.183
-76.669
-75.652
-74.983
-74.533
-74.173
-73.77
-73.228
-72.511
-71.647
-70.692
-69.714
-68.778
-67.939
-67.237
-66.697
-66.311
-66.028
-65.825
-65.694
-65.63
-65.639
-65.692
-65.722
-65.681
-65.528
-65.228
-64.76
-64.096
-63.197
-62.06
-60.702
-59.157
-57.476
-55.689
-53.799
-51.811
-49.727
-47.556
-45.317
-43.016
-40.641
-38.187
-35.646
-33.015
-30.296
-27.474
-24.521
-21.409
-18.103
-14.581
-10.833
-6.85
-2.626
1.84
6.548
11.487
16.639
21.988
27.518
33.212
39.055
45.026
51.096
57.239
63.425
69.627
75.817
81.966
88.043
94.022
99.873
105.571
111.091
116.407
121.492
126.32
130.866
135.105
139.016
142.574
145.761
148.558
150.947
152.917
154.455
155.552
156.201
156.399
156.143
155.433
154.272
152.665
150.619
148.143
145.249
141.949
138.26
134.197
129.781
125.032
119.971
114.622
109.008
103.156
97.091
90.84
84.429
77.887
71.241
64.519
57.748
50.956
44.169
37.414
30.714
24.095
17.578
11.186
4.938
-1.146
-7.051
-12.759
-18.257
-23.532
-28.573
-33.37
-37.915
-42.203
-46.229
-49.99
-53.485
-56.714
-59.679
-62.384
-64.832
-67.03
-68.985
-70.704
-72.195
-73.47
-74.538
-75.409
-76.096
-76.609
-76.961
-77.164
-77.229
-77.169
-76.994
-76.716
-76.346
-75.894
-75.372
-74.787
-74.15
-73.47
-72.754
-72.01
-71.245
-70.466
-69.677
-68.884
-68.09
-67.3
-66.516
-65.74
-64.973
-64.217
-63.473
-62.739
-62.016
-61.304
-60.6
-59.904
-59.215
-58.53
-57.848
-57.169
-56.489
-55.809
-55.126
-54.44
-53.751
-53.057
-52.357
-51.653
-50.942
-50.227
-49.506
-48.78
-48.05
-47.317
-46.583
-45.848
-45.115
-44.384
-43.659
-42.942
-42.235
-41.54
-40.861
-40.2
-39.56
-38.943
-38.352
-37.79
-37.26
-36.764
-36.303
-35.881
-35.498
-35.156
-34.857
-34.6
-34.388
-34.219
-34.094
-34.014
-33.977
-33.983
-34.031
-34.121
-34.25
-34.417
-34.62
-34.858
-35.128
-35.427
-35.753
-36.103
-36.474
-36.864
-37.268
-37.684
-38.109
-38.539
-38.972
-39.403
-39.831
-40.252
-40.664
-41.064
-41.45
-41.819
-42.171
-42.503
-42.814
-43.103
-43.37
-43.613
-43.832
-44.028
-44.199
-44.348
-44.473
-44.577
-44.66
-44.724
-44.771
-44.802
-44.819
-44.825
-44.823
-44.815
-44.803
-44.79
-44.78
-44.775
-44.777
-44.791
-44.817
-44.86
-44.92
-45.002
-45.105
-45.232
-45.384
-45.561
-45.765
-45.996
-46.252
-46.534
-46.842
-47.173
-47.527
-47.9
-48.292
-48.699
-49.118
-49.544
-49.974
-50.403
-50.826
-51.237
-51.631
-52.001
-52.343
-52.648
-52.912
-53.127
-53.287
-53.385
-53.415
-53.371
-53.246
-53.035
-52.732
-52.335
-51.837
-51.237
-50.531
-49.718
-48.796
-47.765
-46.624
-45.374
-44.017
-42.555
-40.992
-39.332
-37.583
-35.752
-33.848
-31.884
-29.871
-27.821
-25.749
-23.67
-21.6
-19.557
-17.556
-15.615
-13.75
-11.978
-10.316
-8.782
-7.392
-6.158
-5.095
-4.214
-3.526
-3.043
-2.771
-2.713
-2.87
-3.245
-3.845
-4.674
-5.735
-7.028
-8.552
-10.298
-12.26
-14.422
-16.757
-19.234
-21.814
-24.452
-27.113
-29.761
-32.365
-34.895
-37.307
-39.553
-41.587
-43.355
-44.814
-45.946
-46.731
-47.165
-47.312
-47.265
-47.169
-47.238
-47.653
-48.557
-50.065
-52.237
-55.036
-58.372
-62.055
-65.743
-69.07
-71.639
-73.122
-73.343
-72.261
-69.931
-66.516
-62.39
-58.094
-54.384
-52.047
-51.727
-53.835
-58.666
-65.83
-73.822
-80.79
-84.394
-83.634
-79.919
-74.374
-66.625
-52.479
-23.539
28.55
108.402
214.065
338.071
469.885
598.834
717.359
818.021
893.395
937.894
945.07
912.141
841.663
737.29
607.007
461.474
311.513
170.937
52.611
-35.085
-89.152
-113.02
-114.599
-102.62
-83.917
-64.152
-47.687
-37.172
-34.004
-36.774
-41.576
-44.627
-44.299
-41.349
-38.396
-38.231
-41.354
-46.874
-53.546
-59.724
-64.731
-68.471
-70.619
-71.223
-70.525
-68.662
-65.898
-62.607
-59.059
-55.602
-52.712
-50.612
-49.339
-48.871
-49.05
-49.698
-50.684
-51.827
-52.911
-53.841
-54.59
-55.16
-55.601
-55.951
-56.222
-56.442
-56.635
-56.789
-56.86
-56.817
-56.642
-56.329
-55.893
-55.326
-54.603
-53.697
-52.591
-51.269
-49.724
-47.942
-45.904
-43.609
-41.075
-38.335
-35.445
-32.439
-29.329
-26.13
-22.846
-19.487
-16.075
-12.616
-9.104
-5.536
-1.907
1.784
5.534
9.353
13.26
17.282
21.448
25.779
30.283
34.969
39.842
44.901
50.148
55.574
61.163
66.898
72.766
78.752
84.842
91.016
97.25
103.519
109.797
116.057
122.275
128.426
134.482
140.418
146.21
151.835
157.27
162.492
167.478
172.203
176.644
180.779
184.586
188.047
191.14
193.849
196.157
198.052
199.523
200.559
201.152
201.298
200.993
200.237
199.029
197.374
195.277
192.745
189.787
186.416
182.645
178.489
173.964
169.089
163.884
158.37
152.569
146.504
140.2
133.68
126.973
120.102
113.096
105.981
98.785
91.534
84.255
76.975
69.72
62.515
55.383
48.349
41.435
34.661
28.048
21.615
15.378
9.353
3.554
-2.006
-7.316
-12.368
-17.153
-21.665
-25.901
-29.858
-33.533
-36.928
-40.044
-42.884
-45.453
-47.755
-49.797
-51.587
-53.135
-54.448
-55.539
-56.417
-57.095
-57.585
-57.899
-58.05
-58.052
-57.916
-57.657
-57.287
-56.82
-56.268
-55.644
-54.959
-54.224
-53.451
-52.65
-51.83
-51
-50.168
-49.342
-48.527
-47.731
-46.958
-46.213
-45.5
-44.823
-44.183
-43.583
-43.024
-42.507
-42.032
-41.599
-41.208
-40.857
-40.545
-40.271
-40.032
-39.826
-39.651
-39.504
-39.382
-39.282
-39.201
-39.137
-39.086
-39.047
-39.016
-38.991
-38.97
-38.952
-38.935
-38.917
-38.897
-38.875
-38.85
-38.82
-38.787
-38.75
-38.709
-38.664
-38.617
-38.567
-38.516
-38.464
-38.413
-38.363
-38.315
-38.271
-38.232
-38.2
-38.176
-38.161
-38.158
-38.167
-38.19
-38.228
-38.283
-38.355
-38.445
-38.555
-38.684
-38.833
-39.002
-39.191
-39.399
-39.628
-39.875
-40.141
-40.424
-40.724
-41.039
-41.368
-41.711
-42.065
-42.429
-42.803
-43.184
-43.571
-43.963
-44.358
-44.754
-45.151
-45.546
-45.938
-46.326
-46.708
-47.083
-47.451
-47.809
-48.157
-48.496
-48.823
-49.139
-49.444
-49.738
-50.021
-50.293
-50.555
-50.807
-51.051
-51.288
-51.519
-51.744
-51.966
-52.185
-52.403
-52.621
-52.841
-53.064
-53.292
-53.525
-53.765
-54.015
-54.274
-54.544
-54.826
-55.121
-55.429
-55.75
-56.085
-56.432
-56.792
-57.163
-57.544
-57.933
-58.33
-58.731
-59.133
-59.535
-59.933
-60.323
-60.701
-61.063
-61.404
-61.72
-62.006
-62.257
-62.468
-62.634
-62.75
-62.809
-62.808
-62.74
-62.599
-62.381
-62.08
-61.692
-61.212
-60.636
-59.961
-59.185
-58.304
-57.316
-56.222
-55.02
-53.711
-52.295
-50.774
-49.152
-47.434
-45.624
-43.729
-41.758
-39.718
-37.621
-35.48
-33.306
-31.115
-28.923
-26.745
-24.6
-22.503
-20.475
-18.531
-16.69
-14.967
-13.381
-11.946
-10.68
-9.598
-8.714
-8.039
-7.581
-7.344
-7.329
-7.538
-7.971
-8.63
-9.516
-10.627
-11.962
-13.524
-15.308
-17.307
-19.505
-21.868
-24.366
-26.974
-29.666
-32.435
-35.262
-38.115
-40.964
-43.765
-46.475
-49.073
-51.504
-53.684
-55.577
-57.19
-58.6
-59.991
-61.505
-63.213
-65.224
-67.647
-70.528
-73.863
-77.434
-80.811
-83.672
-85.791
-86.995
-87.169
-86.164
-83.877
-80.558
-76.722
-72.812
-69.238
-66.243
-64.062
-63.182
-64.032
-66.781
-71.405
-77.734
-85.592
-94.332
-102.353
-107.762
-108.467
-103.802
-95.071
-82.364
-64.759
-38.593
2.923
63.692
145.427
246.444
360.405
482.29
605.829
723.268
827.159
906.156
949.892
951.461
906.849
819.355
696.608
548.688
389.714
234.146
95.38
-14.519
-89.761
-131.322
-143.698
-135.959
-117.783
-95.79
-77.038
-65.569
-60.991
-62.423
-65.641
-65.81
-62.447
-56.367
-50.094
-47.265
-48.518
-52.85
-59.037
-65.352
-70.845
-75.397
-78.798
-80.805
-81.435
-80.839
-79.208
-76.871
-74.249
-71.666
-69.484
-68.115
-67.669
-68.074
-69.24
-70.951
-72.986
-75.185
-77.319
-79.167
-80.672
-81.834
-82.666
-83.221
-83.487
-83.425
-83.057
-82.416
-81.529
-80.433
-79.141
-77.671
-76.067
-74.378
-72.638
-70.86
-69.009
-67.05
-64.97
-62.769
-60.469
-58.108
-55.696
-53.24
-50.757
-48.25
-45.721
-43.166
-40.563
-37.886
-35.12
-32.26
-29.313
-26.292
-23.192
-20.002
-16.704
-13.273
-9.69
-5.94
-2
2.144
6.499
11.073
15.857
20.842
26.02
31.385
36.93
42.649
48.529
54.556
60.712
66.977
73.328
79.744
86.196
92.657
99.102
105.504
111.838
118.08
124.204
130.183
135.991
141.601
146.986
152.12
156.976
161.53
165.756
169.633
173.14
176.258
178.971
181.262
183.119
184.532
185.49
185.989
186.023
185.59
184.692
183.331
181.512
179.242
176.532
173.392
169.836
165.881
161.543
156.842
151.798
146.434
140.773
134.839
128.658
122.256
115.661
108.899
101.999
94.99
87.899
80.754
73.582
66.411
59.266
52.172
45.153
38.233
31.433
24.773
18.273
11.95
5.82
-0.101
-5.801
-11.268
-16.493
-21.466
-26.183
-30.637
-34.825
-38.747
-42.4
-45.787
-48.91
-51.772
-54.379
-56.738
-58.854
-60.737
-62.396
-63.841
-65.082
-66.129
-66.994
-67.689
-68.225
-68.613
-68.864
-68.991
-69.004
-68.914
-68.732
-68.467
-68.13
-67.729
-67.274
-66.772
-66.232
-65.66
-65.063
-64.446
-63.816
-63.177
-62.533
-61.888
-61.244
-60.605
-59.972
-59.348
-58.732
-58.125
-57.528
-56.942
-56.365
-55.797
-55.238
-54.687
-54.143
-53.607
-53.077
-52.553
-52.034
-51.522
-51.014
-50.513
-50.017
-49.527
-49.044
-48.568
-48.101
-47.643
-47.195
-46.758
-46.334
-45.924
-45.53
-45.153
-44.795
-44.456
-44.14
-43.847
-43.579
-43.338
-43.126
-42.943
-42.792
-42.674
-42.591
-42.542
-42.53
-42.554
-42.615
-42.713
-42.849
-43.021
-43.23
-43.474
-43.753
-44.065
-44.409
-44.783
-45.185
-45.614
-46.067
-46.542
-47.036
-47.548
-48.074
-48.612
-49.16
-49.714
-50.272
-50.832
-51.389
-51.943
-52.49
-53.026
-53.551
-54.06
-54.552
-55.024
-55.475
-55.901
-56.301
-56.674
-57.017
-57.33
-57.612
-57.863
-58.08
-58.265
-58.418
-58.538
-58.627
-58.685
-58.713
-58.713
-58.686
-58.634
-58.558
-58.462
-58.346
-58.214
-58.068
-57.91
-57.745
-57.575
-57.402
-57.231
-57.064
-56.904
-56.756
-56.622
-56.505
-56.409
-56.337
-56.291
-56.275
-56.29
-56.339
-56.422
-56.542
-56.7
-56.894
-57.126
-57.394
-57.699
-58.037
-58.409
-58.81
-59.239
-59.693
-60.167
-60.657
-61.159
-61.667
-62.175
-62.678
-63.169
-63.641
-64.087
-64.501
-64.875
-65.202
-65.473
-65.682
-65.821
-65.881
-65.855
-65.736
-65.518
-65.194
-64.76
-64.21
-63.541
-62.748
-61.831
-60.787
-59.615
-58.316
-56.89
-55.341
-53.671
-51.886
-49.992
-47.995
-45.906
-43.735
-41.497
-39.204
-36.874
-34.521
-32.166
-29.826
-27.523
-25.273
-23.097
-21.011
-19.032
-17.18
-15.472
-13.926
-12.559
-11.385
-10.416
-9.665
-9.139
-8.838
-8.762
-8.911
-9.282
-9.883
-10.72
-11.795
-13.115
-14.68
-16.484
-18.518
-20.759
-23.171
-25.719
-28.37
-31.101
-33.893
-36.716
-39.536
-42.313
-44.993
-47.534
-49.876
-51.93
-53.643
-55.022
-56.13
-57.125
-58.16
-59.324
-60.731
-62.542
-64.84
-67.594
-70.591
-73.416
-75.755
-77.487
-78.529
-78.726
-77.905
-76.044
-73.435
-70.682
-68.273
-66.373
-65.004
-64.389
-65.011
-67.196
-71.042
-76.327
-82.706
-90.266
-98.623
-106.086
-110.586
-109.966
-103.475
-92.86
-79.124
-61.49
-36.454
2.934
62.301
144.596
249.531
371.969
504.748
639.102
764.303
869.676
944.937
981.195
972.967
918.358
819.432
683.198
521.264
349.624
186.497
47.695
-56.131
-122.466
-156.273
-164.724
-156.249
-137.943
-114.249
-91.259
-73.657
-62.935
-59.32
-58.819
-56.79
-52.385
-46.299
-41.189
-40.271
-43.668
-50.077
-58.068
-65.69
-71.998
-76.781
-79.62
-80.534
-79.881
-77.939
-75.033
-71.59
-67.941
-64.466
-61.676
-59.801
-58.818
-58.639
-59.074
-59.897
-60.924
-61.903
-62.522
-62.619
-62.14
-61.1
-59.607
-57.764
-55.66
-53.406
-51.108
-48.831
-46.61
-44.447
-42.309
-40.193
-38.121
-36.116
-34.218
-32.443
-30.791
-29.251
-27.796
-26.38
-24.94
-23.416
-21.754
-19.925
-17.924
-15.761
-13.471
-11.075
-8.585
-6.007
-3.335
-0.558
2.331
5.343
8.491
11.774
15.183
18.708
22.339
26.079
29.938
33.936
38.097
42.445
46.999
51.77
56.765
61.982
67.415
73.049
78.866
84.848
90.981
97.246
103.628
110.107
116.657
123.252
129.864
136.46
143.01
149.482
155.842
162.06
168.107
173.954
179.575
184.942
190.03
194.811
199.261
203.353
207.065
210.373
213.256
215.696
217.675
219.18
220.2
220.724
220.747
220.266
219.279
217.787
215.796
213.311
210.341
206.898
202.995
198.648
193.875
188.694
183.129
177.202
170.938
164.362
157.502
150.386
143.042
135.5
127.79
119.941
111.985
103.951
95.871
87.774
79.69
71.649
63.679
55.806
48.057
40.456
33.026
25.788
18.763
11.967
5.419
-0.869
-6.882
-12.611
-18.047
-23.181
-28.01
-32.529
-36.736
-40.631
-44.216
-47.493
-50.466
-53.142
-55.527
-57.629
-59.457
-61.022
-62.334
-63.406
-64.249
-64.878
-65.306
-65.546
-65.613
-65.522
-65.286
-64.92
-64.438
-63.854
-63.18
-62.43
-61.616
-60.749
-59.841
-58.901
-57.94
-56.966
-55.987
-55.012
-54.046
-53.096
-52.167
-51.263
-50.39
-49.55
-48.745
-47.979
-47.253
-46.567
-45.923
-45.321
-44.761
-44.242
-43.763
-43.323
-42.921
-42.556
-42.225
-41.926
-41.659
-41.421
-41.21
-41.026
-40.865
-40.728
-40.613
-40.519
-40.445
-40.391
-40.356
-40.34
-40.344
-40.366
-40.408
-40.469
-40.551
-40.652
-40.775
-40.919
-41.085
-41.274
-41.485
-41.72
-41.979
-42.262
-42.569
-42.899
-43.254
-43.632
-44.034
-44.459
-44.905
-45.373
-45.861
-46.369
-46.893
-47.433
-47.986
-48.551
-49.126
-49.707
-50.292
-50.88
-51.466
-52.048
-52.625
-53.192
-53.748
-54.29
-54.815
-55.322
-55.808
-56.271
-56.709
-57.122
-57.507
-57.866
-58.196
-58.497
-58.771
-59.018
-59.237
-59.432
-59.601
-59.749
-59.875
-59.983
-60.076
-60.154
-60.223
-60.283
-60.339
-60.394
-60.45
-60.51
-60.577
-60.653
-60.742
-60.844
-60.961
-61.097
-61.251
-61.424
-61.618
-61.833
-62.067
-62.321
-62.592
-62.88
-63.181
-63.492
-63.809
-64.129
-64.446
-64.756
-65.054
-65.332
-65.586
-65.809
-65.993
-66.133
-66.221
-66.25
-66.213
-66.104
-65.917
-65.644
-65.282
-64.824
-64.268
-63.609
-62.844
-61.972
-60.992
-59.903
-58.707
-57.403
-55.995
-54.486
-52.88
-51.185
-49.409
-47.561
-45.655
-43.702
-41.716
-39.712
-37.706
-35.711
-33.744
-31.819
-29.951
-28.158
-26.457
-24.866
-23.404
-22.082
-20.915
-19.915
-19.093
-18.458
-18.016
-17.769
-17.72
-17.875
-18.242
-18.833
-19.654
-20.701
-21.976
-23.473
-25.187
-27.118
-29.249
-31.554
-34.008
-36.575
-39.203
-41.858
-44.496
-47.076
-49.553
-51.85
-53.929
-55.806
-57.563
-59.309
-60.975
-62.422
-63.646
-64.622
-65.718
-67.201
-68.429
-69.08
-68.332
-65.5
-62.173
-59.28
-58.312
-61.286
-66.816
-73.773
-80.786
-85.335
-87.857
-89.088
-88.934
-87.818
-85.114
-80.223
-74
-67.81
-62.868
-60.106
-60.102
-62.716
-67.068
-71.991
-75.438
-76.241
-75.163
-72.4
-67.092
-54.767
-27.624
20.547
93.017
186.553
293.309
405.987
516.721
620.532
712.829
784.671
827.561
832.542
792.857
709.998
590.142
443.974
286.641
132.928
-3.461
-110.821
-183.292
-221.202
-228.852
-214.513
-187.169
-153.713
-121.005
-93.904
-74.76
-64.237
-59.533
-56.449
-51.718
-44.297
-35.635
-28.422
-24.984
-25.568
-29.216
-34.623
-40.397
-45.968
-51.156
-55.627
-59.142
-61.653
-63.131
-63.704
-63.601
-63.021
-62.22
-61.551
-61.366
-61.798
-62.799
-64.234
-65.885
-67.587
-69.212
-70.585
-71.523
-71.932
-71.801
-71.169
-70.125
-68.731
-67.024
-65.052
-62.87
-60.531
-58.087
-55.584
-53.051
-50.517
-48.004
-45.527
-43.101
-40.728
-38.403
-36.112
-33.84
-31.574
-29.307
-27.031
-24.739
-22.417
-20.053
-17.634
-15.146
-12.578
-9.918
-7.154
-4.276
-1.277
1.851
5.11
8.505
12.038
15.714
19.539
23.515
27.644
31.929
36.369
40.964
45.71
50.603
55.636
60.801
66.088
71.486
76.984
82.567
88.222
93.93
99.676
105.441
111.205
116.946
122.646
128.28
133.826
139.262
144.563
149.707
154.67
159.429
163.961
168.244
172.255
175.974
179.38
182.455
185.18
187.539
189.516
191.098
192.272
193.029
193.361
193.261
192.726
191.753
190.343
188.499
186.224
183.524
180.409
176.889
172.977
168.686
164.032
159.035
153.713
148.086
142.179
136.013
129.614
123.007
116.219
109.275
102.205
95.034
87.792
80.506
73.202
65.91
58.655
51.462
44.359
37.368
30.512
23.814
17.294
10.97
4.861
-1.019
-6.655
-12.036
-17.149
-21.988
-26.545
-30.814
-34.794
-38.481
-41.878
-44.985
-47.806
-50.347
-52.614
-54.615
-56.36
-57.858
-59.121
-60.162
-60.993
-61.627
-62.079
-62.363
-62.494
-62.486
-62.354
-62.112
-61.776
-61.358
-60.872
-60.33
-59.746
-59.13
-58.493
-57.846
-57.198
-56.556
-55.929
-55.322
-54.743
-54.195
-53.682
-53.207
-52.773
-52.379
-52.028
-51.717
-51.448
-51.217
-51.023
-50.863
-50.735
-50.634
-50.559
-50.503
-50.465
-50.441
-50.426
-50.416
-50.409
-50.402
-50.391
-50.374
-50.349
-50.313
-50.264
-50.203
-50.126
-50.035
-49.927
-49.804
-49.666
-49.512
-49.345
-49.165
-48.974
-48.774
-48.566
-48.353
-48.137
-47.921
-47.706
-47.496
-47.294
-47.101
-46.921
-46.756
-46.608
-46.48
-46.373
-46.289
-46.231
-46.199
-46.194
-46.217
-46.268
-46.349
-46.458
-46.596
-46.763
-46.958
-47.18
-47.429
-47.704
-48.003
-48.327
-48.674
-49.043
-49.432
-49.841
-50.268
-50.712
-51.172
-51.646
-52.134
-52.635
-53.146
-53.667
-54.196
-54.733
-55.275
-55.822
-56.373
-56.926
-57.479
-58.031
-58.582
-59.129
-59.671
-60.207
-60.735
-61.253
-61.76
-62.254
-62.732
-63.193
-63.633
-64.049
-64.439
-64.8
-65.128
-65.42
-65.673
-65.882
-66.044
-66.156
-66.212
-66.211
-66.147
-66.017
-65.818
-65.546
-65.198
-64.772
-64.266
-63.679
-63.008
-62.253
-61.415
-60.493
-59.489
-58.402
-57.236
-55.994
-54.68
-53.298
-51.854
-50.353
-48.805
-47.219
-45.604
-43.973
-42.338
-40.713
-39.111
-37.548
-36.038
-34.596
-33.234
-31.966
-30.804
-29.761
-28.85
-28.083
-27.472
-27.028
-26.755
-26.661
-26.745
-27.006
-27.44
-28.046
-28.823
-29.772
-30.894
-32.189
-33.662
-35.308
-37.123
-39.09
-41.18
-43.364
-45.616
-47.913
-50.244
-52.591
-54.921
-57.203
-59.391
-61.448
-63.348
-65.037
-66.435
-67.511
-68.284
-68.858
-69.413
-70.073
-70.887
-71.927
-73.309
-75.109
-77.288
-79.601
-81.65
-83.183
-84.158
-84.583
-84.362
-83.294
-81.345
-78.86
-76.329
-74.018
-71.975
-70.079
-68.774
-69.313
-72.115
-76.814
-82.264
-86.416
-89.103
-91.269
-93.572
-97.09
-101.32
-105.113
-107.539
-105.54
-94.085
-66.527
-15.661
62.085
164.355
284.388
411.72
535.29
646.849
738.755
804.514
838.966
836.39
793.629
711.243
593.741
451.247
297.938
150.135
22.699
-74.459
-137.563
-170.374
-179.574
-171.305
-151.564
-122.903
-88.566
-54.52
-25.368
-6.503
-0.093
-4.283
-17.723
-36.742
-58.304
-79.402
-94.353
-100.607
-97.554
-87.327
-76.23
-67.87
-63.313
-61.901
-60.382
-57.382
-53.5
-49.498
-46.691
-45.594
-45.801
-47.011
-48.95
-51.351
-54.022
-56.769
-59.398
-61.781
-63.85
-65.538
-66.768
-67.502
-67.737
-67.484
-66.773
-65.637
-64.103
-62.213
-60.021
-57.58
-54.944
-52.173
-49.32
-46.441
-43.588
-40.8
-38.099
-35.501
-33.01
-30.625
-28.337
-26.133
-23.992
-21.894
-19.825
-17.767
-15.705
-13.621
-11.498
-9.318
-7.064
-4.724
-2.283
0.269
2.942
5.746
8.686
11.768
14.995
18.373
21.905
25.595
29.445
33.458
37.633
41.97
46.465
51.115
55.913
60.851
65.918
71.104
76.395
81.776
87.231
92.744
98.295
103.865
109.434
114.979
120.479
125.911
131.251
136.476
141.562
146.487
151.225
155.756
160.055
164.101
167.873
171.35
174.515
177.347
179.832
181.952
183.696
185.051
186.006
186.553
186.687
186.403
185.698
184.573
183.029
181.072
178.706
175.94
172.784
169.249
165.35
161.101
156.519
151.623
146.432
140.968
135.251
129.305
123.154
116.821
110.333
103.715
96.992
90.191
83.337
76.456
69.573
62.714
55.903
49.163
42.518
35.989
29.596
23.36
17.299
11.43
5.767
0.325
-4.884
-9.849
-14.561
-19.013
-23.199
-27.114
-30.756
-34.124
-37.217
-40.037
-42.588
-44.874
-46.899
-48.672
-50.2
-51.491
-52.556
-53.405
-54.05
-54.502
-54.774
-54.878
-54.828
-54.637
-54.319
-53.886
-53.352
-52.73
-52.034
-51.274
-50.464
-49.615
-48.737
-47.841
-46.936
-46.03
-45.133
-44.251
-43.391
-42.559
-41.761
-40.999
-40.279
-39.603
-38.974
-38.392
-37.86
-37.377
-36.943
-36.557
-36.219
-35.926
-35.677
-35.468
-35.298
-35.163
-35.06
-34.986
-34.937
-34.91
-34.901
-34.907
-34.924
-34.95
-34.982
-35.016
-35.051
-35.084
-35.113
-35.137
-35.155
-35.164
-35.165
-35.156
-35.138
-35.111
-35.075
-35.03
-34.978
-34.919
-34.855
-34.787
-34.717
-34.646
-34.577
-34.511
-34.451
-34.399
-34.356
-34.327
-34.311
-34.313
-34.334
-34.375
-34.439
-34.527
-34.641
-34.782
-34.952
-35.15
-35.379
-35.637
-35.927
-36.246
-36.596
-36.976
-37.384
-37.82
-38.283
-38.772
-39.284
-39.819
-40.374
-40.947
-41.537
-42.141
-42.756
-43.38
-44.01
-44.643
-45.277
-45.909
-46.534
-47.152
-47.759
-48.351
-48.927
-49.484
-50.018
-50.528
-51.011
-51.463
-51.882
-52.265
-52.61
-52.915
-53.178
-53.395
-53.566
-53.689
-53.76
-53.78
-53.746
-53.656
-53.509
-53.303
-53.037
-52.711
-52.323
-51.875
-51.364
-50.793
-50.161
-49.469
-48.717
-47.907
-47.039
-46.116
-45.139
-44.111
-43.036
-41.916
-40.757
-39.565
-38.349
-37.113
-35.868
-34.62
-33.38
-32.158
-30.964
-29.809
-28.702
-27.653
-26.672
-25.771
-24.96
-24.25
-23.649
-23.164
-22.803
-22.576
-22.491
-22.55
-22.756
-23.108
-23.607
-24.259
-25.07
-26.043
-27.18
-28.482
-29.945
-31.564
-33.329
-35.217
-37.201
-39.248
-41.319
-43.386
-45.424
-47.406
-49.314
-51.117
-52.768
-54.233
-55.466
-56.422
-57.098
-57.488
-57.586
-57.462
-57.209
-56.952
-56.909
-57.269
-58.106
-59.502
-61.497
-64.008
-67.015
-70.413
-73.86
-77.047
-79.76
-81.785
-83.069
-83.712
-83.606
-82.715
-81.351
-79.89
-78.776
-78.533
-79.452
-81.584
-85.267
-90.447
-96.124
-101.044
-103.514
-102.727
-99.413
-94.005
-85.927
-71.512
-44.652
-0.176
65.402
150.584
249.87
357.415
465.816
568.95
661.687
736.827
788.11
810.556
800.443
758.17
686.801
589.654
472.076
341.311
206.357
79.813
-25.525
-100.932
-143.393
-155.884
-146.385
-124.516
-98.009
-74.624
-59.743
-53.833
-55.978
-61.425
-64.043
-62.441
-57.19
-50.855
-47.476
-47.915
-51.218
-56.368
-61.622
-66.011
-69.422
-71.538
-72.328
-72.101
-71.076
-69.424
-67.425
-65.375
-63.607
-62.594
-62.588
-63.541
-65.336
-67.79
-70.687
-73.855
-77.058
-79.98
-82.426
-84.318
-85.628
-86.407
-86.692
-86.491
-85.847
-84.824
-83.475
-81.854
-80.001
-77.94
-75.716
-73.383
-70.995
-68.61
-66.266
-63.981
-61.766
-59.624
-57.549
-55.537
-53.574
-51.643
-49.726
-47.812
-45.885
-43.935
-41.947
-39.903
-37.785
-35.573
-33.254
-30.813
-28.241
-25.528
-22.665
-19.647
-16.468
-13.125
-9.614
-5.931
-2.073
1.963
6.178
10.57
15.139
19.879
24.786
29.851
35.065
40.417
45.893
51.479
57.16
62.919
68.737
74.594
80.47
86.342
92.19
97.988
103.713
109.34
114.845
120.203
125.389
130.379
135.149
139.675
143.935
147.908
151.571
154.907
157.895
160.52
162.766
164.619
166.068
167.102
167.715
167.899
167.653
166.974
165.863
164.322
162.358
159.976
157.186
153.999
150.427
146.485
142.19
137.559
132.612
127.37
121.854
116.088
110.096
103.903
97.535
91.016
84.374
77.635
70.826
63.973
57.102
50.239
43.409
36.637
29.946
23.358
16.896
10.578
4.425
-1.547
-7.321
-12.883
-18.219
-23.318
-28.17
-32.766
-37.1
-41.167
-44.963
-48.487
-51.737
-54.716
-57.424
-59.866
-62.047
-63.973
-65.651
-67.09
-68.297
-69.285
-70.062
-70.64
-71.032
-71.248
-71.303
-71.207
-70.973
-70.615
-70.145
-69.574
-68.915
-68.179
-67.379
-66.525
-65.627
-64.696
-63.741
-62.771
-61.794
-60.818
-59.85
-58.896
-57.962
-57.052
-56.171
-55.324
-54.513
-53.741
-53.009
-52.32
-51.673
-51.071
-50.511
-49.995
-49.521
-49.088
-48.694
-48.339
-48.02
-47.735
-47.483
-47.261
-47.068
-46.9
-46.755
-46.631
-46.526
-46.436
-46.361
-46.297
-46.242
-46.194
-46.151
-46.112
-46.074
-46.035
-45.996
-45.953
-45.906
-45.853
-45.795
-45.731
-45.66
-45.582
-45.498
-45.408
-45.311
-45.21
-45.104
-44.994
-44.882
-44.768
-44.653
-44.54
-44.428
-44.32
-44.217
-44.122
-44.037
-43.962
-43.902
-43.856
-43.829
-43.821
-43.836
-43.875
-43.94
-44.034
-44.158
-44.315
-44.507
-44.734
-44.997
-45.298
-45.638
-46.015
-46.43
-46.882
-47.371
-47.894
-48.451
-49.039
-49.657
-50.301
-50.968
-51.656
-52.359
-53.075
-53.798
-54.522
-55.242
-55.953
-56.648
-57.321
-57.965
-58.574
-59.14
-59.658
-60.118
-60.515
-60.842
-61.089
-61.252
-61.323
-61.296
-61.167
-60.93
-60.581
-60.118
-59.537
-58.838
-58.018
-57.078
-56.018
-54.839
-53.544
-52.136
-50.622
-49.006
-47.298
-45.507
-43.644
-41.721
-39.751
-37.751
-35.734
-33.718
-31.72
-29.757
-27.847
-26.008
-24.259
-22.618
-21.102
-19.727
-18.507
-17.458
-16.594
-15.926
-15.462
-15.205
-15.154
-15.31
-15.675
-16.253
-17.044
-18.044
-19.248
-20.654
-22.258
-24.053
-26.024
-28.139
-30.363
-32.664
-35.013
-37.396
-39.799
-42.197
-44.556
-46.829
-48.977
-50.97
-52.782
-54.369
-55.663
-56.636
-57.331
-57.867
-58.43
-59.191
-60.248
-61.701
-63.706
-66.318
-69.477
-72.979
-76.357
-79.144
-81.04
-81.717
-80.827
-78.185
-73.744
-67.684
-60.663
-53.446
-46.656
-41.027
-37.368
-36.422
-38.815
-44.949
-54.274
-65.351
-76.703
-86.348
-93
-96.889
-97.496
-94.06
-84.305
-62.634
-24.306
34.872
117.408
220.662
341.244
472.769
605.184
728.438
828.985
895.105
919.876
899.862
839.196
744.417
623.04
485.297
341.46
204.379
87.31
-0.786
-57.518
-87.528
-98.851
-99.732
-94.51
-84.619
-72.742
-61.328
-53.101
-50.224
-50.596
-50.892
-49.684
-46.623
-43.493
-42.91
-45.212
-49.611
-55.213
-60.62
-65.069
-68.372
-70.152
-70.402
-69.478
-67.673
-65.235
-62.463
-59.656
-57.169
-55.493
-54.883
-55.303
-56.632
-58.677
-61.237
-64.139
-67.145
-69.942
-72.309
-74.141
-75.401
-76.124
-76.343
-76.066
-75.326
-74.185
-72.701
-70.93
-68.918
-66.698
-64.31
-61.807
-59.246
-56.683
-54.17
-51.734
-49.392
-47.151
-45.008
-42.958
-40.993
-39.094
-37.242
-35.416
-33.599
-31.776
-29.931
-28.044
-26.094
-24.06
-21.922
-19.665
-17.274
-14.737
-12.044
-9.184
-6.151
-2.939
0.456
4.039
7.812
11.781
15.945
20.306
24.86
29.604
34.533
39.639
44.912
50.34
55.909
61.603
67.405
73.297
79.258
85.268
91.302
97.338
103.351
109.317
115.208
120.999
126.663
132.175
137.507
142.634
147.531
152.173
156.537
160.601
164.342
167.742
170.782
173.443
175.713
177.576
179.022
180.042
180.627
180.774
180.479
179.742
178.566
176.953
174.911
172.447
169.573
166.3
162.644
158.619
154.244
149.537
144.521
139.216
133.647
127.836
121.809
115.592
109.211
102.692
96.061
89.345
82.572
75.765
68.953
62.159
55.409
48.725
42.131
35.648
29.297
23.096
17.064
11.216
5.568
0.132
-5.079
-10.055
-14.789
-19.272
-23.5
-27.469
-31.177
-34.623
-37.807
-40.734
-43.405
-45.826
-48.002
-49.94
-51.649
-53.138
-54.414
-55.49
-56.374
-57.08
-57.617
-57.998
-58.235
-58.339
-58.322
-58.196
-57.972
-57.663
-57.277
-56.826
-56.321
-55.77
-55.182
-54.567
-53.932
-53.284
-52.631
-51.978
-51.33
-50.692
-50.069
-49.463
-48.878
-48.315
-47.778
-47.266
-46.781
-46.324
-45.894
-45.492
-45.117
-44.769
-44.446
-44.148
-43.874
-43.623
-43.393
-43.184
-42.996
-42.826
-42.674
-42.539
-42.42
-42.317
-42.229
-42.155
-42.095
-42.048
-42.014
-41.993
-41.985
-41.989
-42.006
-42.036
-42.079
-42.136
-42.206
-42.29
-42.388
-42.5
-42.626
-42.767
-42.923
-43.093
-43.278
-43.477
-43.69
-43.916
-44.155
-44.405
-44.668
-44.94
-45.222
-45.512
-45.81
-46.114
-46.423
-46.738
-47.056
-47.377
-47.699
-48.024
-48.348
-48.673
-48.998
-49.321
-49.643
-49.964
-50.284
-50.602
-50.918
-51.233
-51.548
-51.861
-52.174
-52.487
-52.801
-53.116
-53.433
-53.751
-54.073
-54.397
-54.726
-55.058
-55.395
-55.735
-56.08
-56.43
-56.783
-57.138
-57.496
-57.856
-58.214
-58.571
-58.923
-59.269
-59.605
-59.929
-60.237
-60.526
-60.793
-61.033
-61.242
-61.416
-61.551
-61.643
-61.687
-61.679
-61.614
-61.488
-61.297
-61.039
-60.708
-60.303
-59.82
-59.257
-58.613
-57.886
-57.075
-56.179
-55.199
-54.136
-52.993
-51.773
-50.479
-49.117
-47.693
-46.216
-44.695
-43.141
-41.566
-39.983
-38.407
-36.852
-35.332
-33.864
-32.46
-31.134
-29.899
-28.769
-27.756
-26.874
-26.135
-25.551
-25.131
-24.88
-24.801
-24.893
-25.157
-25.591
-26.197
-26.98
-27.94
-29.082
-30.41
-31.923
-33.622
-35.49
-37.5
-39.622
-41.826
-44.09
-46.402
-48.745
-51.086
-53.391
-55.612
-57.706
-59.641
-61.36
-62.778
-63.858
-64.619
-65.153
-65.65
-66.265
-67.08
-68.198
-69.754
-71.799
-74.264
-76.911
-79.312
-81.128
-82.226
-82.512
-81.831
-80.106
-77.433
-74.131
-70.791
-67.964
-65.875
-64.686
-64.726
-66.306
-69.658
-74.891
-81.755
-89.913
-98.823
-107.233
-113.512
-115.69
-112.83
-105.75
-94.972
-80.581
-60.034
-27.16
23.119
94.512
187.435
297.029
417.961
542.919
663.205
770.514
853.681
904.004
915.785
886.147
819.023
719.07
593.044
451.768
306.199
170.715
59.351
-20.448
-67.466
-87.308
-89.891
-83.52
-73.273
-62.406
-52.852
-46.687
-45.624
-49.264
-55.048
-59.279
-60.164
-58.069
-54.803
-53.209
-54.254
-57.358
-61.89
-66.775
-71.347
-75.578
-79.219
-81.89
-83.514
-84.101
-83.605
-82.152
-79.978
-77.282
-74.452
-72.001
-70.164
-69.005
-68.532
-68.613
-69.11
-69.934
-70.912
-71.839
-72.629
-73.253
-73.717
-74.086
-74.401
-74.661
-74.884
-75.072
-75.191
-75.216
-75.134
-74.931
-74.612
-74.181
-73.619
-72.901
-72.003
-70.903
-69.586
-68.034
-66.227
-64.16
-61.844
-59.314
-56.623
-53.808
-50.889
-47.875
-44.765
-41.567
-38.292
-34.95
-31.539
-28.058
-24.503
-20.874
-17.176
-13.403
-9.539
-5.558
-1.426
2.879
7.368
12.048
16.921
21.988
27.247
32.69
38.3
44.062
49.958
55.976
62.099
68.308
74.579
80.884
87.195
93.484
99.723
105.887
111.946
117.874
123.646
129.237
134.626
139.788
144.701
149.341
153.684
157.708
161.395
164.723
167.674
170.233
172.385
174.119
175.425
176.296
176.726
176.713
176.254
175.352
174.009
172.233
170.031
167.413
164.391
160.979
157.194
153.053
148.574
143.779
138.689
133.326
127.714
121.877
115.84
109.628
103.267
96.783
90.202
83.551
76.854
70.137
63.427
56.746
50.118
43.566
37.112
30.775
24.575
18.53
12.657
6.971
1.486
-3.787
-8.835
-13.65
-18.225
-22.553
-26.629
-30.451
-34.016
-37.324
-40.375
-43.173
-45.72
-48.02
-50.079
-51.903
-53.5
-54.877
-56.043
-57.007
-57.779
-58.37
-58.79
-59.05
-59.161
-59.135
-58.982
-58.715
-58.344
-57.881
-57.337
-56.723
-56.049
-55.325
-54.562
-53.767
-52.951
-52.122
-51.286
-50.452
-49.626
-48.814
-48.022
-47.255
-46.517
-45.811
-45.143
-44.513
-43.924
-43.379
-42.878
-42.422
-42.012
-41.647
-41.328
-41.053
-40.822
-40.633
-40.485
-40.375
-40.301
-40.261
-40.252
-40.271
-40.317
-40.384
-40.472
-40.576
-40.694
-40.822
-40.959
-41.1
-41.242
-41.385
-41.523
-41.657
-41.782
-41.897
-42.001
-42.091
-42.167
-42.227
-42.271
-42.299
-42.309
-42.301
-42.276
-42.235
-42.178
-42.105
-42.018
-41.919
-41.808
-41.688
-41.561
-41.428
-41.292
-41.156
-41.021
-40.89
-40.766
-40.651
-40.548
-40.46
-40.389
-40.338
-40.31
-40.306
-40.33
-40.383
-40.466
-40.582
-40.732
-40.917
-41.137
-41.394
-41.688
-42.02
-42.388
-42.793
-43.235
-43.711
-44.221
-44.763
-45.337
-45.939
-46.568
-47.222
-47.898
-48.594
-49.307
-50.034
-50.771
-51.515
-52.262
-53.01
-53.753
-54.487
-55.21
-55.916
-56.601
-57.263
-57.896
-58.498
-59.063
-59.589
-60.071
-60.506
-60.89
-61.22
-61.491
-61.7
-61.845
-61.923
-61.93
-61.863
-61.721
-61.501
-61.199
-60.815
-60.345
-59.788
-59.142
-58.408
-57.584
-56.67
-55.668
-54.578
-53.402
-52.141
-50.798
-49.375
-47.875
-46.303
-44.663
-42.959
-41.198
-39.387
-37.534
-35.649
-33.741
-31.82
-29.9
-27.993
-26.112
-24.273
-22.49
-20.777
-19.149
-17.622
-16.209
-14.925
-13.783
-12.794
-11.971
-11.324
-10.865
-10.601
-10.537
-10.675
-11.014
-11.553
-12.289
-13.228
-14.367
-15.705
-17.243
-18.977
-20.905
-23.023
-25.315
-27.752
-30.3
-32.923
-35.591
-38.285
-40.986
-43.671
-46.302
-48.833
-51.22
-53.42
-55.396
-57.096
-58.445
-59.43
-60.107
-60.602
-61.115
-61.812
-62.778
-64.149
-66.108
-68.649
-71.669
-74.935
-77.963
-80.434
-82.22
-83.013
-82.475
-80.613
-77.532
-73.479
-69.172
-65.085
-61.374
-59.061
-59.137
-61.5
-66.445
-72.947
-79.328
-86.223
-93.11
-99.626
-105.563
-108.003
-105.804
-97.736
-81.837
-57.261
-20.193
33.421
106.378
201.003
315.268
443.381
576.343
701.539
806.185
880.031
917.339
917.639
883.704
818.706
724.894
604.595
462.998
311.437
165.698
41.936
-47.723
-101.396
-124.799
-126.38
-115.912
-98.755
-77.984
-58.638
-44.054
-36.741
-37.382
-41.579
-44.734
-44.964
-42.219
-39.332
-39.57
-43.378
-49.913
-57.854
-65.36
-71.704
-76.792
-80.28
-82.221
-82.866
-82.369
-80.999
-79.13
-77.042
-75.071
-73.674
-73.072
-73.316
-74.32
-75.769
-77.428
-79.17
-80.751
-82.033
-82.577
-81.522
-79.093
-76.128
-74.015
-75.164
-79.387
-84.424
-87.929
-86.549
-80.227
-72.084
-64.541
-60.286
-59.689
-60.437
-61.16
-60.859
-59.276
-57.341
-55.403
-53.384
-51.286
-48.945
-46.347
-43.655
-40.926
-38.151
-35.352
-32.533
-29.686
-26.802
-23.847
-20.784
-17.601
-14.31
-10.931
-7.48
-3.959
-0.363
3.321
7.116
11.037
15.103
19.331
23.731
28.309
33.065
37.989
43.065
48.281
53.627
59.091
64.666
70.336
76.084
81.889
87.73
93.582
99.422
105.221
110.953
116.591
122.111
127.489
132.704
137.733
142.553
147.143
151.481
155.544
159.314
162.77
165.892
168.663
171.068
173.091
174.722
175.949
176.765
177.162
177.136
176.686
175.81
174.512
172.794
170.663
168.128
165.198
161.886
158.205
154.172
149.804
145.12
140.14
134.885
129.378
123.641
117.698
111.573
105.291
98.875
92.352
85.746
79.081
72.383
65.676
58.984
52.33
45.737
39.226
32.818
26.533
20.389
14.403
8.593
2.971
-2.448
-7.653
-12.633
-17.38
-21.888
-26.149
-30.161
-33.921
-37.429
-40.683
-43.687
-46.442
-48.953
-51.224
-53.262
-55.073
-56.665
-58.046
-59.225
-60.21
-61.012
-61.639
-62.104
-62.416
-62.586
-62.624
-62.542
-62.351
-62.061
-61.682
-61.225
-60.701
-60.118
-59.485
-58.812
-58.106
-57.376
-56.627
-55.867
-55.102
-54.337
-53.577
-52.825
-52.086
-51.364
-50.659
-49.976
-49.316
-48.68
-48.071
-47.488
-46.934
-46.408
-45.911
-45.444
-45.006
-44.599
-44.22
-43.87
-43.549
-43.255
-42.989
-42.748
-42.533
-42.342
-42.175
-42.03
-41.908
-41.807
-41.725
-41.664
-41.621
-41.595
-41.588
-41.596
-41.621
-41.661
-41.716
-41.786
-41.869
-41.965
-42.073
-42.193
-42.324
-42.464
-42.612
-42.768
-42.931
-43.098
-43.269
-43.443
-43.619
-43.796
-43.972
-44.146
-44.318
-44.486
-44.65
-44.809
-44.962
-45.108
-45.247
-45.378
-45.501
-45.616
-45.723
-45.822
-45.912
-45.995
-46.07
-46.138
-46.199
-46.255
-46.307
-46.355
-46.4
-46.445
-46.491
-46.539
-46.591
-46.649
-46.716
-46.792
-46.88
-46.982
-47.1
-47.235
-47.39
-47.566
-47.766
-47.989
-48.239
-48.516
-48.821
-49.155
-49.518
-49.912
-50.335
-50.787
-51.268
-51.777
-52.312
-52.872
-53.454
-54.057
-54.679
-55.315
-55.963
-56.619
-57.28
-57.941
-58.598
-59.246
-59.879
-60.493
-61.082
-61.638
-62.158
-62.634
-63.061
-63.433
-63.742
-63.984
-64.152
-64.24
-64.242
-64.154
-63.969
-63.684
-63.294
-62.796
-62.188
-61.466
-60.629
-59.676
-58.606
-57.421
-56.12
-54.706
-53.181
-51.55
-49.817
-47.989
-46.07
-44.069
-41.996
-39.864
-37.686
-35.476
-33.251
-31.028
-28.826
-26.664
-24.562
-22.534
-20.596
-18.763
-17.05
-15.474
-14.051
-12.797
-11.72
-10.832
-10.139
-9.65
-9.366
-9.285
-9.399
-9.704
-10.198
-10.893
-11.802
-12.934
-14.292
-15.876
-17.679
-19.695
-21.911
-24.302
-26.848
-29.519
-32.286
-35.129
-38.023
-40.935
-43.832
-46.639
-49.248
-51.595
-53.655
-55.452
-57.102
-58.696
-60.282
-61.97
-63.891
-66.112
-68.651
-71.318
-73.677
-75.368
-76.192
-76.038
-74.919
-72.869
-69.849
-66.147
-62.438
-59.358
-57.4
-56.795
-57.475
-59.474
-63.175
-68.728
-75.854
-84.26
-93.57
-103.473
-113.956
-124.155
-131.868
-134.996
-131.584
-120.95
-104.267
-81.774
-52.449
-13.103
41.129
113.364
204.344
311.097
428.192
549.395
667.56
775.276
862.768
920.187
939.002
913.486
845.141
739.162
604.627
454.258
300.63
157.759
38.014
-50.727
-106.681
-133.798
-138.473
-129.36
-112.254
-91.886
-74.633
-62.228
-55.762
-54.37
-52.349
-47.861
-41.352
-34.201
-30.724
-32.501
-38.365
-46.936
-56.097
-64.429
-71.659
-77.478
-81.503
-83.678
-84.164
-83.214
-81.179
-78.489
-75.487
-72.577
-70.286
-68.833
-68.205
-68.35
-69.08
-70.195
-71.543
-72.874
-73.908
-74.526
-74.723
-74.568
-74.187
-73.646
-72.981
-72.25
-71.506
-70.782
-70.078
-69.346
-68.543
-67.662
-66.721
-65.757
-64.794
-63.821
-62.802
-61.684
-60.422
-58.987
-57.354
-55.495
-53.394
-51.052
-48.497
-45.787
-42.961
-40.04
-37.029
-33.921
-30.712
-27.412
-24.027
-20.565
-17.034
-13.434
-9.769
-6.047
-2.266
1.584
5.525
9.594
13.816
18.204
22.766
27.504
32.417
37.504
42.758
48.163
53.707
59.376
65.156
71.036
77.001
83.03
89.099
95.182
101.253
107.287
113.259
119.144
124.917
130.554
136.033
141.332
146.431
151.308
155.94
160.304
164.38
168.146
171.584
174.675
177.401
179.748
181.701
183.251
184.387
185.101
185.389
185.246
184.671
183.665
182.231
180.372
178.096
175.412
172.33
168.863
165.026
160.834
156.305
151.458
146.314
140.895
135.222
129.319
123.211
116.921
110.476
103.901
97.222
90.466
83.658
76.824
69.991
63.183
56.424
49.737
43.146
36.672
30.335
24.154
18.147
12.331
6.72
1.329
-3.83
-8.749
-13.417
-17.827
-21.976
-25.858
-29.472
-32.817
-35.894
-38.706
-41.256
-43.55
-45.593
-47.392
-48.957
-50.295
-51.418
-52.335
-53.058
-53.599
-53.969
-54.182
-54.248
-54.181
-53.994
-53.698
-53.307
-52.831
-52.285
-51.677
-51.02
-50.324
-49.599
-48.854
-48.097
-47.337
-46.58
-45.833
-45.102
-44.391
-43.704
-43.045
-42.417
-41.822
-41.26
-40.733
-40.242
-39.786
-39.364
-38.977
-38.622
-38.299
-38.006
-37.742
-37.504
-37.29
-37.1
-36.931
-36.78
-36.647
-36.529
-36.426
-36.334
-36.252
-36.18
-36.116
-36.059
-36.009
-35.964
-35.924
-35.89
-35.86
-35.837
-35.819
-35.808
-35.805
-35.81
-35.825
-35.85
-35.887
-35.936
-36
-36.078
-36.173
-36.284
-36.412
-36.558
-36.722
-36.905
-37.106
-37.326
-37.564
-37.819
-38.092
-38.381
-38.686
-39.006
-39.339
-39.686
-40.044
-40.413
-40.791
-41.176
-41.568
-41.964
-42.363
-42.765
-43.166
-43.565
-43.962
-44.354
-44.741
-45.12
-45.492
-45.855
-46.209
-46.552
-46.885
-47.208
-47.52
-47.823
-48.115
-48.399
-48.674
-48.942
-49.205
-49.463
-49.719
-49.972
-50.226
-50.481
-50.739
-51.002
-51.271
-51.547
-51.833
-52.13
-52.439
-52.761
-53.098
-53.449
-53.817
-54.2
-54.599
-55.014
-55.444
-55.889
-56.346
-56.816
-57.295
-57.783
-58.277
-58.774
-59.271
-59.765
-60.252
-60.727
-61.186
-61.624
-62.035
-62.416
-62.761
-63.064
-63.32
-63.524
-63.67
-63.753
-63.767
-63.708
-63.569
-63.345
-63.034
-62.63
-62.131
-61.534
-60.837
-60.038
-59.135
-58.13
-57.022
-55.812
-54.502
-53.093
-51.591
-49.999
-48.323
-46.571
-44.751
-42.872
-40.947
-38.987
-37.007
-35.022
-33.047
-31.1
-29.196
-27.353
-25.587
-23.913
-22.348
-20.906
-19.603
-18.454
-17.474
-16.678
-16.077
-15.68
-15.493
-15.518
-15.754
-16.2
-16.856
-17.724
-18.81
-20.112
-21.634
-23.377
-25.337
-27.504
-29.856
-32.353
-34.959
-37.638
-40.362
-43.119
-45.884
-48.622
-51.294
-53.848
-56.237
-58.433
-60.378
-61.985
-63.235
-64.16
-64.876
-65.598
-66.479
-67.583
-69.009
-70.882
-73.252
-76.066
-79.067
-81.818
-84.046
-85.695
-86.743
-87.085
-86.578
-85.241
-83.341
-81.364
-79.6
-77.875
-76.38
-75.964
-77.386
-81.303
-86.501
-89.803
-89.516
-84.985
-78.373
-74.565
-75.704
-82.626
-93.071
-100.906
-100.579
-84.912
-47.869
13.904
102.331
214.152
343.833
483.208
621.025
747.219
850.527
921.12
952.695
940.509
884.198
786.927
655.177
500.11
336.448
181.035
48.553
-51.046
-115.005
-147.719
-155.13
-144.648
-123.442
-96.626
-71.717
-54.661
-47.068
-48.473
-53.54
-56.241
-55.071
-50.663
-46.05
-45.063
-48.222
-54.297
-61.838
-69.016
-75.068
-80.083
-83.927
-86.439
-87.714
-87.898
-87.123
-85.664
-83.784
-81.652
-79.604
-78.036
-77.079
-76.728
-76.932
-77.501
-78.266
-79.102
-79.776
-80.06
-79.868
-79.19
-78.098
-76.738
-75.201
-73.552
-71.876
-70.225
-68.631
-67.104
-65.603
-64.101
-62.602
-61.119
-59.689
-58.338
-57.053
-55.812
-54.572
-53.27
-51.857
-50.291
-48.526
-46.548
-44.357
-41.971
-39.439
-36.799
-34.068
-31.255
-28.355
-25.356
-22.261
-19.067
-15.773
-12.389
-8.923
-5.379
-1.77
1.909
5.669
9.528
13.519
17.669
21.995
26.509
31.214
36.107
41.184
46.435
51.844
57.397
63.079
68.876
74.774
80.756
86.802
92.886
98.982
105.061
111.097
117.061
122.925
128.665
134.254
139.668
144.885
149.883
154.639
159.13
163.335
167.231
170.799
174.019
176.872
179.343
181.417
183.082
184.327
185.146
185.531
185.481
184.993
184.068
182.71
180.922
178.713
176.092
173.068
169.656
165.87
161.727
157.244
152.44
147.337
141.956
136.32
130.453
124.377
118.118
111.701
105.15
98.491
91.749
84.95
78.119
71.281
64.459
57.678
50.96
44.328
37.8
31.398
25.14
19.042
13.12
7.389
1.861
-3.452
-8.539
-13.393
-18.007
-22.375
-26.493
-30.359
-33.972
-37.331
-40.439
-43.299
-45.913
-48.286
-50.426
-52.337
-54.027
-55.505
-56.778
-57.857
-58.751
-59.469
-60.023
-60.422
-60.678
-60.802
-60.804
-60.695
-60.485
-60.186
-59.808
-59.36
-58.852
-58.293
-57.692
-57.057
-56.395
-55.715
-55.022
-54.323
-53.623
-52.927
-52.239
-51.564
-50.904
-50.263
-49.643
-49.046
-48.474
-47.929
-47.411
-46.922
-46.462
-46.032
-45.63
-45.259
-44.916
-44.602
-44.315
-44.056
-43.823
-43.616
-43.432
-43.272
-43.134
-43.018
-42.921
-42.844
-42.785
-42.743
-42.717
-42.707
-42.712
-42.732
-42.765
-42.812
-42.872
-42.945
-43.031
-43.128
-43.237
-43.358
-43.49
-43.632
-43.784
-43.947
-44.118
-44.298
-44.486
-44.681
-44.884
-45.093
-45.307
-45.527
-45.751
-45.979
-46.209
-46.442
-46.676
-46.91
-47.145
-47.378
-47.61
-47.84
-48.066
-48.289
-48.507
-48.72
-48.926
-49.127
-49.32
-49.505
-49.683
-49.853
-50.015
-50.17
-50.317
-50.457
-50.59
-50.718
-50.841
-50.959
-51.075
-51.189
-51.302
-51.415
-51.532
-51.652
-51.778
-51.912
-52.055
-52.208
-52.375
-52.555
-52.752
-52.966
-53.2
-53.454
-53.73
-54.029
-54.353
-54.701
-55.075
-55.475
-55.901
-56.353
-56.829
-57.329
-57.851
-58.394
-58.955
-59.533
-60.125
-60.726
-61.334
-61.945
-62.555
-63.157
-63.748
-64.321
-64.871
-65.391
-65.877
-66.321
-66.717
-67.06
-67.342
-67.557
-67.699
-67.762
-67.74
-67.626
-67.415
-67.102
-66.683
-66.154
-65.512
-64.754
-63.88
-62.887
-61.776
-60.546
-59.2
-57.738
-56.166
-54.485
-52.703
-50.827
-48.865
-46.829
-44.731
-42.585
-40.402
-38.199
-35.992
-33.797
-31.631
-29.512
-27.455
-25.479
-23.603
-21.846
-20.225
-18.757
-17.456
-16.335
-15.406
-14.682
-14.172
-13.88
-13.81
-13.964
-14.344
-14.96
-15.816
-16.909
-18.235
-19.79
-21.562
-23.544
-25.718
-28.052
-30.516
-33.071
-35.678
-38.309
-40.931
-43.512
-46.028
-48.435
-50.69
-52.762
-54.608
-56.192
-57.505
-58.525
-59.233
-59.694
-60.009
-60.339
-60.929
-61.967
-63.583
-65.921
-69.076
-73.022
-77.62
-82.492
-87.05
-90.774
-93.215
-93.968
-92.792
-89.59
-84.502
-78.098
-71.277
-64.994
-60.177
-57.693
-58.205
-62.178
-69.8
-80.35
-92.006
-102.457
-108.977
-109.725
-104.905
-95.04
-80.38
-59.402
-26.834
23.455
96.469
194.317
313.402
446.209
582.816
711.697
821.941
903.146
946.147
944.651
895.749
801.578
669.754
512.009
343.72
181.541
39.616
-71.164
-145.613
-185.526
-195.277
-182.329
-155.917
-123.032
-92.052
-69.576
-56.868
-53.439
-54.473
-53.85
-50.187
-44.135
-38.513
-37.298
-40.956
-48.101
-57.119
-65.663
-72.593
-77.752
-80.785
-81.8
-81.215
-79.337
-76.557
-73.392
-70.24
-67.511
-65.714
-65.052
-65.464
-66.821
-68.877
-71.365
-74.077
-76.749
-79.066
-80.855
-82.046
-82.618
-82.633
-82.132
-81.131
-79.683
-77.855
-75.7
-73.273
-70.616
-67.758
-64.749
-61.649
-58.514
-55.405
-52.358
-49.394
-46.525
-43.755
-41.081
-38.499
-35.994
-33.549
-31.15
-28.78
-26.428
-24.078
-21.714
-19.316
-16.865
-14.341
-11.725
-9.005
-6.167
-3.201
-0.097
3.153
6.556
10.115
13.838
17.729
21.792
26.033
30.452
35.051
39.828
44.781
49.903
55.189
60.63
66.213
71.928
77.759
83.691
89.708
95.79
101.918
108.071
114.226
120.361
126.452
132.474
138.402
144.21
149.873
155.365
160.662
165.739
170.573
175.139
179.417
183.385
187.024
190.314
193.239
195.783
197.932
199.674
200.999
201.9
202.369
202.404
202.003
201.166
199.896
198.197
196.076
193.541
190.603
187.273
183.565
179.495
175.081
170.341
165.295
159.964
154.371
148.54
142.494
136.257
129.856
123.314
116.658
109.913
103.105
96.258
89.399
82.55
75.736
68.979
62.302
55.725
49.268
42.95
36.789
30.799
24.996
19.395
14.005
8.839
3.906
-0.787
-5.233
-9.428
-13.368
-17.051
-20.476
-23.646
-26.561
-29.225
-31.642
-33.818
-35.76
-37.475
-38.97
-40.255
-41.339
-42.233
-42.946
-43.489
-43.874
-44.111
-44.211
-44.185
-44.045
-43.8
-43.463
-43.042
-42.549
-41.992
-41.382
-40.727
-40.035
-39.316
-38.577
-37.825
-37.067
-36.309
-35.556
-34.813
-34.086
-33.377
-32.69
-32.028
-31.394
-30.788
-30.213
-29.669
-29.157
-28.678
-28.232
-27.818
-27.436
-27.086
-26.767
-26.478
-26.219
-25.988
-25.786
-25.61
-25.461
-25.338
-25.238
-25.163
-25.109
-25.077
-25.066
-25.073
-25.099
-25.141
-25.2
-25.273
-25.361
-25.462
-25.576
-25.702
-25.839
-25.986
-26.145
-26.313
-26.49
-26.677
-26.872
-27.076
-27.288
-27.508
-27.735
-27.97
-28.212
-28.46
-28.715
-28.975
-29.241
-29.512
-29.788
-30.07
-30.356
-30.647
-30.944
-31.247
-31.557
-31.873
-32.197
-32.53
-32.872
-33.225
-33.589
-33.966
-34.357
-34.763
-35.185
-35.624
-36.082
-36.56
-37.058
-37.579
-38.122
-38.689
-39.28
-39.897
-40.539
-41.208
-41.904
-42.625
-43.373
-44.146
-44.943
-45.764
-46.606
-47.468
-48.347
-49.242
-50.147
-51.061
-51.98
-52.898
-53.813
-54.718
-55.609
-56.48
-57.325
-58.139
-58.914
-59.645
-60.326
-60.95
-61.512
-62.004
-62.42
-62.756
-63.004
-63.159
-63.216
-63.17
-63.017
-62.753
-62.377
-61.884
-61.275
-60.547
-59.702
-58.739
-57.661
-56.47
-55.169
-53.763
-52.259
-50.663
-48.983
-47.229
-45.412
-43.545
-41.641
-39.713
-37.777
-35.851
-33.949
-32.091
-30.293
-28.571
-26.941
-25.42
-24.023
-22.766
-21.662
-20.724
-19.966
-19.399
-19.034
-18.879
-18.935
-19.202
-19.679
-20.365
-21.264
-22.378
-23.706
-25.246
-26.996
-28.949
-31.095
-33.415
-35.879
-38.444
-41.075
-43.738
-46.411
-49.082
-51.726
-54.307
-56.783
-59.103
-61.224
-63.116
-64.729
-66.009
-66.961
-67.652
-68.22
-68.852
-69.682
-70.792
-72.29
-74.269
-76.717
-79.503
-82.339
-84.902
-87.018
-88.589
-89.467
-89.468
-88.483
-86.659
-84.444
-82.143
-79.777
-77.431
-75.222
-73.831
-74.532
-77.434
-81.811
-86.622
-89.425
-89.308
-87.139
-83.274
-80.234
-79.573
-79.263
-76.728
-65.265
-36.873
12.652
86.122
180.252
287.608
401.882
514.493
619.29
711.061
780.727
820.857
823.646
782.701
699.215
578.461
430.733
271.937
118.186
-15.402
-116.807
-181.815
-213.074
-217.14
-203.603
-180.555
-153.203
-126.592
-103.897
-87.332
-78.162
-74.432
-73.081
-71.144
-67.19
-62.074
-57.695
-55.933
-57.034
-60.164
-64.206
-68.004
-71.209
-73.877
-75.921
-77.288
-78.021
-78.155
-77.844
-77.282
-76.577
-75.866
-75.361
-75.319
-75.847
-76.888
-78.313
-79.927
-81.56
-83.099
-84.4
-85.292
-85.682
-85.552
-84.921
-83.866
-82.45
-80.708
-78.694
-76.466
-74.072
-71.566
-68.995
-66.392
-63.797
-61.242
-58.747
-56.328
-53.993
-51.735
-49.548
-47.417
-45.324
-43.254
-41.196
-39.136
-37.062
-34.959
-32.809
-30.595
-28.302
-25.915
-23.418
-20.798
-18.044
-15.146
-12.096
-8.89
-5.522
-1.988
1.719
5.603
9.667
13.913
18.341
22.951
27.741
32.705
37.837
43.128
48.567
54.142
59.84
65.645
71.541
77.509
83.531
89.585
95.649
101.701
107.716
113.671
119.541
125.299
130.922
136.383
141.657
146.72
151.548
156.116
160.403
164.387
168.046
171.363
174.317
176.895
179.079
180.858
182.22
183.156
183.659
183.724
183.348
182.531
181.274
179.581
177.458
174.913
171.956
168.597
164.852
160.736
156.266
151.46
146.339
140.924
135.238
129.304
123.146
116.79
110.26
103.583
96.785
89.891
82.93
75.925
68.904
61.891
54.912
47.99
41.149
34.411
27.798
21.329
15.023
8.897
2.969
-2.749
-8.241
-13.498
-18.509
-23.265
-27.761
-31.991
-35.95
-39.638
-43.053
-46.197
-49.07
-51.677
-54.022
-56.109
-57.947
-59.541
-60.902
-62.036
-62.955
-63.669
-64.189
-64.525
-64.69
-64.695
-64.553
-64.276
-63.875
-63.363
-62.752
-62.054
-61.279
-60.44
-59.546
-58.609
-57.637
-56.639
-55.625
-54.602
-53.577
-52.558
-51.55
-50.558
-49.588
-48.643
-47.729
-46.847
-46.001
-45.193
-44.425
-43.698
-43.014
-42.372
-41.774
-41.22
-40.709
-40.241
-39.815
-39.431
-39.088
-38.783
-38.516
-38.285
-38.088
-37.925
-37.793
-37.69
-37.615
-37.566
-37.543
-37.542
-37.564
-37.607
-37.669
-37.75
-37.849
-37.965
-38.098
-38.245
-38.408
-38.585
-38.776
-38.98
-39.197
-39.427
-39.667
-39.919
-40.182
-40.455
-40.737
-41.029
-41.331
-41.641
-41.96
-42.289
-42.625
-42.971
-43.325
-43.688
-44.06
-44.441
-44.83
-45.229
-45.636
-46.053
-46.478
-46.912
-47.355
-47.806
-48.265
-48.732
-49.206
-49.688
-50.176
-50.671
-51.173
-51.68
-52.194
-52.712
-53.235
-53.763
-54.293
-54.825
-55.358
-55.89
-56.42
-56.947
-57.467
-57.98
-58.482
-58.972
-59.447
-59.903
-60.339
-60.75
-61.134
-61.486
-61.803
-62.082
-62.319
-62.51
-62.653
-62.744
-62.778
-62.752
-62.664
-62.509
-62.283
-61.984
-61.608
-61.153
-60.616
-59.996
-59.292
-58.501
-57.625
-56.662
-55.614
-54.482
-53.266
-51.97
-50.598
-49.152
-47.639
-46.064
-44.436
-42.761
-41.05
-39.313
-37.561
-35.807
-34.063
-32.344
-30.663
-29.035
-27.473
-25.992
-24.604
-23.323
-22.161
-21.13
-20.242
-19.508
-18.94
-18.546
-18.333
-18.304
-18.458
-18.794
-19.312
-20.014
-20.901
-21.972
-23.229
-24.672
-26.298
-28.102
-30.071
-32.177
-34.387
-36.668
-38.989
-41.333
-43.685
-46.026
-48.324
-50.535
-52.618
-54.534
-56.251
-57.724
-58.886
-59.726
-60.305
-60.759
-61.279
-62.02
-63.054
-64.468
-66.406
-68.886
-71.789
-74.853
-77.662
-79.946
-81.661
-82.706
-82.851
-81.998
-80.249
-78
-75.802
-73.889
-72.288
-71.072
-70.932
-73.126
-77.902
-84.605
-91.84
-96.738
-98.332
-97.744
-95.478
-94.228
-95.538
-96.792
-95.49
-85.849
-59.889
-13.703
55.402
146.402
252.935
369.238
487.779
600.506
700.724
778.903
827.506
840.557
813.402
748.013
647.714
519.077
373.985
224.486
85.345
-28.989
-110.418
-156.755
-171.711
-164.507
-145.364
-121.879
-101.004
-86.766
-78.666
-75.795
-74.608
-70.568
-63.374
-54.12
-45.252
-40.414
-40.324
-43.835
-49.594
-55.847
-61.566
-66.562
-70.555
-73.176
-74.376
-74.317
-73.207
-71.349
-69.11
-66.758
-64.648
-63.261
-62.768
-63.137
-64.288
-65.997
-68.043
-70.265
-72.412
-74.21
-75.525
-76.294
-76.509
-76.238
-75.521
-74.382
-72.884
-71.088
-69.046
-66.807
-64.405
-61.872
-59.252
-56.599
-53.964
-51.386
-48.888
-46.481
-44.169
-41.947
-39.809
-37.743
-35.727
-33.748
-31.791
-29.841
-27.885
-25.906
-23.886
-21.805
-19.643
-17.383
-15.007
-12.504
-9.86
-7.067
-4.114
-0.997
2.292
5.757
9.405
13.24
17.265
21.484
25.897
30.501
35.295
40.273
45.428
50.749
56.227
61.846
67.595
73.455
79.409
85.438
91.521
97.635
103.759
109.866
115.933
121.934
127.842
133.631
139.274
144.744
150.017
155.065
159.865
164.392
168.622
172.533
176.105
179.318
182.154
184.597
186.631
188.246
189.429
190.173
190.472
190.321
189.719
188.667
187.167
185.225
182.847
180.043
176.824
173.203
169.196
164.82
160.094
155.038
149.673
144.023
138.112
131.964
125.605
119.061
112.36
105.528
98.593
91.581
84.52
77.437
70.357
63.306
56.309
49.389
42.57
35.874
29.32
22.928
16.716
10.701
4.897
-0.682
-6.024
-11.118
-15.958
-20.534
-24.843
-28.879
-32.642
-36.13
-39.345
-42.287
-44.961
-47.372
-49.524
-51.426
-53.084
-54.508
-55.706
-56.69
-57.469
-58.055
-58.459
-58.693
-58.768
-58.696
-58.489
-58.159
-57.718
-57.177
-56.548
-55.841
-55.068
-54.237
-53.36
-52.446
-51.503
-50.539
-49.562
-48.58
-47.598
-46.623
-45.66
-44.714
-43.788
-42.887
-42.014
-41.17
-40.359
-39.581
-38.838
-38.132
-37.461
-36.828
-36.232
-35.673
-35.151
-34.666
-34.216
-33.802
-33.423
-33.078
-32.766
-32.486
-32.236
-32.017
-31.826
-31.662
-31.525
-31.414
-31.326
-31.262
-31.22
-31.198
-31.196
-31.213
-31.248
-31.301
-31.37
-31.455
-31.556
-31.672
-31.803
-31.948
-32.108
-32.281
-32.467
-32.666
-32.877
-33.1
-33.334
-33.579
-33.834
-34.099
-34.374
-34.658
-34.951
-35.252
-35.563
-35.881
-36.208
-36.542
-36.885
-37.236
-37.595
-37.962
-38.338
-38.723
-39.117
-39.519
-39.931
-40.351
-40.78
-41.217
-41.663
-42.116
-42.578
-43.047
-43.524
-44.008
-44.5
-44.998
-45.503
-46.014
-46.531
-47.052
-47.578
-48.107
-48.638
-49.169
-49.701
-50.23
-50.756
-51.277
-51.791
-52.295
-52.787
-53.265
-53.726
-54.167
-54.585
-54.977
-55.339
-55.669
-55.963
-56.219
-56.432
-56.601
-56.72
-56.787
-56.799
-56.751
-56.641
-56.465
-56.219
-55.902
-55.51
-55.041
-54.493
-53.865
-53.154
-52.361
-51.485
-50.525
-49.482
-48.357
-47.152
-45.87
-44.515
-43.091
-41.603
-40.058
-38.464
-36.83
-35.167
-33.485
-31.797
-30.116
-28.458
-26.835
-25.264
-23.756
-22.324
-20.981
-19.74
-18.613
-17.614
-16.756
-16.048
-15.501
-15.122
-14.916
-14.884
-15.023
-15.33
-15.803
-16.444
-17.259
-18.25
-19.425
-20.782
-22.322
-24.037
-25.91
-27.912
-30.017
-32.2
-34.446
-36.746
-39.08
-41.425
-43.75
-46.012
-48.177
-50.194
-51.976
-53.477
-54.7
-55.71
-56.669
-57.734
-58.995
-60.558
-62.564
-65.074
-68.038
-71.213
-74.132
-76.416
-77.883
-78.436
-77.949
-76.287
-73.487
-69.923
-66.297
-63.255
-61.132
-60.035
-60.142
-61.909
-65.662
-71.346
-78.596
-86.902
-95.918
-105.578
-115.059
-122.276
-125.096
-121.437
-110.594
-93.825
-71.691
-43.652
-7.043
42.775
109.656
195.428
298.366
413.908
534.625
651.475
755.349
835.286
882.831
891.793
858.021
784.131
674.698
537.473
385.101
230.201
87.269
-29.823
-112.958
-159.77
-173.509
-162.965
-139.022
-110.644
-86.483
-72.006
-66.849
-69.17
-73.694
-74.202
-69.736
-61.455
-52.508
-47.395
-47.152
-50.683
-56.549
-62.78
-68.312
-73.042
-76.741
-79.113
-80.145
-79.957
-78.737
-76.807
-74.565
-72.309
-70.41
-69.314
-69.16
-69.9
-71.435
-73.537
-75.973
-78.555
-81.016
-83.084
-84.627
-85.59
-85.972
-85.833
-85.207
-84.12
-82.636
-80.82
-78.726
-76.406
-73.896
-71.23
-68.462
-65.648
-62.849
-60.107
-57.447
-54.881
-52.412
-50.039
-47.755
-45.548
-43.396
-41.284
-39.197
-37.119
-35.038
-32.937
-30.796
-28.595
-26.313
-23.931
-21.434
-18.807
-16.039
-13.12
-10.043
-6.799
-3.387
0.201
3.967
7.917
12.054
16.379
20.892
25.591
30.472
35.53
40.757
46.143
51.674
57.338
63.119
69.001
74.964
80.99
87.055
93.139
99.218
105.266
111.259
117.171
122.976
128.647
134.158
139.482
144.594
149.468
154.08
158.407
162.426
166.116
169.456
172.43
175.019
177.209
178.987
180.341
181.262
181.743
181.779
181.368
180.51
179.206
177.46
175.28
172.673
169.65
166.224
162.409
158.221
153.678
148.8
143.608
138.125
132.374
126.38
120.168
113.765
107.197
100.492
93.677
86.779
79.825
72.843
65.859
58.898
51.987
45.148
38.407
31.783
25.3
18.975
12.828
6.875
1.132
-4.388
-9.673
-14.713
-19.498
-24.021
-28.278
-32.265
-35.979
-39.42
-42.589
-45.488
-48.123
-50.497
-52.618
-54.494
-56.133
-57.545
-58.742
-59.733
-60.532
-61.151
-61.603
-61.9
-62.056
-62.084
-61.996
-61.807
-61.528
-61.171
-60.749
-60.274
-59.755
-59.203
-58.628
-58.039
-57.444
-56.851
-56.266
-55.696
-55.145
-54.619
-54.122
-53.655
-53.223
-52.825
-52.463
-52.137
-51.847
-51.591
-51.369
-51.178
-51.016
-50.882
-50.771
-50.682
-50.611
-50.556
-50.514
-50.481
-50.455
-50.433
-50.413
-50.392
-50.368
-50.34
-50.305
-50.262
-50.21
-50.147
-50.074
-49.989
-49.893
-49.784
-49.664
-49.532
-49.39
-49.239
-49.079
-48.913
-48.741
-48.565
-48.387
-48.209
-48.032
-47.858
-47.69
-47.529
-47.376
-47.233
-47.102
-46.984
-46.88
-46.791
-46.718
-46.663
-46.624
-46.605
-46.603
-46.621
-46.658
-46.714
-46.791
-46.886
-47.002
-47.136
-47.29
-47.463
-47.654
-47.863
-48.088
-48.331
-48.59
-48.864
-49.153
-49.456
-49.772
-50.101
-50.442
-50.794
-51.157
-51.529
-51.912
-52.303
-52.702
-53.109
-53.524
-53.945
-54.371
-54.801
-55.235
-55.67
-56.105
-56.539
-56.969
-57.393
-57.809
-58.215
-58.609
-58.987
-59.348
-59.687
-60.003
-60.291
-60.547
-60.769
-60.952
-61.093
-61.189
-61.234
-61.226
-61.161
-61.035
-60.843
-60.583
-60.25
-59.84
-59.35
-58.777
-58.119
-57.374
-56.54
-55.616
-54.603
-53.499
-52.307
-51.028
-49.663
-48.214
-46.686
-45.082
-43.407
-41.667
-39.87
-38.024
-36.139
-34.225
-32.295
-30.361
-28.437
-26.537
-24.677
-22.871
-21.135
-19.482
-17.929
-16.49
-15.179
-14.011
-12.996
-12.147
-11.474
-10.988
-10.698
-10.609
-10.719
-11.027
-11.531
-12.23
-13.129
-14.227
-15.524
-17.016
-18.702
-20.577
-22.636
-24.861
-27.217
-29.667
-32.172
-34.7
-37.232
-39.752
-42.235
-44.643
-46.925
-49.038
-50.94
-52.598
-53.967
-54.977
-55.625
-55.972
-56.153
-56.383
-56.847
-57.64
-58.893
-60.764
-63.241
-66.234
-69.528
-72.631
-75.184
-77.003
-77.763
-77.18
-75.252
-72.012
-67.726
-63.128
-58.722
-54.883
-52.306
-51.61
-53.205
-57.494
-64.549
-73.507
-83.135
-92.201
-98.733
-101.673
-101.492
-97.525
-88.905
-73.586
-45.667
-0.697
63.669
148.873
250.33
362.448
480.847
597.909
707.939
804.327
876.257
915.305
913.768
866.695
776.834
650.797
499.547
338.32
182.527
47.113
-55.994
-121.023
-148.948
-146.393
-123.421
-91.537
-60.108
-35.689
-22.696
-20.894
-27.686
-39.778
-51.461
-59.139
-61.947
-59.408
-54.708
-51.523
-51.101
-54.734
-61.1
-67.218
-71.858
-74.046
-73.781
-72.405
-70.532
-68.367
-66.295
-64.389
-62.853
-62.161
-62.453
-63.63
-65.596
-68.164
-71.114
-74.28
-77.428
-80.248
-82.573
-84.335
-85.504
-86.12
-86.211
-85.782
-84.88
-83.573
-81.918
-79.97
-77.776
-75.365
-72.787
-70.103
-67.373
-64.662
-62.009
-59.437
-56.959
-54.578
-52.291
-50.093
-47.968
-45.893
-43.852
-41.825
-39.798
-37.758
-35.686
-33.561
-31.364
-29.071
-26.667
-24.135
-21.461
-18.635
-15.645
-12.483
-9.143
-5.62
-1.909
1.994
6.095
10.397
14.901
19.607
24.513
29.616
34.909
40.385
46.032
51.838
57.787
63.865
70.052
76.33
82.677
89.07
95.485
101.898
108.284
114.614
120.863
127.002
133.005
138.842
144.487
149.914
155.094
160.004
164.618
168.913
172.866
176.458
179.667
182.478
184.873
186.839
188.365
189.439
190.055
190.209
189.897
189.119
187.878
186.179
184.029
181.436
178.413
174.973
171.133
166.908
162.32
157.389
152.136
146.587
140.767
134.7
128.414
121.937
115.295
108.518
101.633
94.669
87.654
80.616
73.581
66.576
59.628
52.761
45.998
39.363
32.876
26.558
20.425
14.497
8.786
3.306
-1.93
-6.914
-11.638
-16.095
-20.281
-24.194
-27.832
-31.196
-34.288
-37.112
-39.672
-41.976
-44.029
-45.841
-47.421
-48.779
-49.925
-50.872
-51.631
-52.214
-52.633
-52.902
-53.033
-53.039
-52.933
-52.726
-52.43
-52.058
-51.621
-51.129
-50.592
-50.019
-49.42
-48.803
-48.174
-47.54
-46.907
-46.28
-45.663
-45.06
-44.473
-43.905
-43.358
-42.831
-42.327
-41.845
-41.385
-40.946
-40.527
-40.128
-39.746
-39.381
-39.032
-38.696
-38.373
-38.06
-37.758
-37.463
-37.177
-36.896
-36.621
-36.351
-36.086
-35.825
-35.569
-35.317
-35.071
-34.83
-34.597
-34.373
-34.158
-33.954
-33.764
-33.589
-33.43
-33.291
-33.173
-33.078
-33.008
-32.964
-32.95
-32.965
-33.012
-33.091
-33.203
-33.348
-33.527
-33.739
-33.985
-34.263
-34.572
-34.912
-35.282
-35.679
-36.103
-36.551
-37.021
-37.51
-38.018
-38.541
-39.076
-39.621
-40.174
-40.731
-41.291
-41.85
-42.405
-42.955
-43.496
-44.027
-44.544
-45.046
-45.532
-46
-46.448
-46.877
-47.286
-47.675
-48.044
-48.394
-48.726
-49.041
-49.34
-49.626
-49.9
-50.164
-50.421
-50.674
-50.923
-51.173
-51.425
-51.683
-51.947
-52.22
-52.505
-52.802
-53.114
-53.442
-53.787
-54.149
-54.53
-54.93
-55.348
-55.785
-56.24
-56.711
-57.197
-57.695
-58.202
-58.715
-59.229
-59.742
-60.247
-60.741
-61.217
-61.67
-62.095
-62.484
-62.832
-63.131
-63.376
-63.56
-63.676
-63.719
-63.683
-63.563
-63.355
-63.055
-62.658
-62.161
-61.564
-60.863
-60.058
-59.148
-58.135
-57.019
-55.804
-54.494
-53.094
-51.609
-50.048
-48.423
-46.743
-45.022
-43.275
-41.516
-39.762
-38.031
-36.338
-34.701
-33.135
-31.655
-30.277
-29.017
-27.891
-26.914
-26.099
-25.456
-24.993
-24.715
-24.623
-24.717
-24.992
-25.446
-26.083
-26.906
-27.917
-29.121
-30.518
-32.107
-33.88
-35.819
-37.895
-40.084
-42.362
-44.715
-47.131
-49.582
-52.042
-54.473
-56.824
-59.065
-61.14
-62.96
-64.485
-65.705
-66.675
-67.55
-68.468
-69.496
-70.747
-72.346
-74.33
-76.704
-79.26
-81.575
-83.361
-84.417
-84.57
-83.703
-81.664
-78.357
-74.082
-69.41
-64.803
-60.715
-57.448
-55.308
-54.912
-56.777
-61.093
-67.803
-76.642
-87.278
-98.981
-110.178
-118.877
-122.79
-120.745
-113.156
-99.6
-79.341
-49.766
-5.915
54.634
133.255
229.153
337.626
455.068
575.77
691.512
794.146
872.032
914.542
914.965
869.587
781.487
658.841
512.703
357.769
209.125
79.609
-20.798
-88.351
-125.655
-137.842
-132.756
-118.125
-99.037
-81.606
-70.004
-64.739
-65.54
-68.455
-68.846
-66.106
-60.966
-55.831
-53.903
-55.474
-59.469
-64.893
-70.238
-74.673
-78.034
-79.946
-80.351
-79.568
-77.866
-75.46
-72.657
-69.789
-67.241
-65.526
-64.922
-65.389
-66.81
-68.996
-71.722
-74.794
-77.942
-80.819
-83.208
-85.022
-86.229
-86.878
-87.006
-86.62
-85.767
-84.522
-82.94
-81.08
-78.983
-76.676
-74.207
-71.64
-69.035
-66.459
-63.954
-61.54
-59.232
-57.03
-54.929
-52.922
-50.99
-49.111
-47.264
-45.432
-43.596
-41.743
-39.853
-37.904
-35.872
-33.734
-31.47
-29.065
-26.505
-23.775
-20.867
-17.771
-14.48
-10.99
-7.297
-3.395
0.719
5.049
9.595
14.357
19.331
24.512
29.895
35.468
41.22
47.137
53.203
59.401
65.711
72.114
78.587
85.106
91.648
98.188
104.699
111.155
117.528
123.792
129.918
135.88
141.65
147.202
152.509
157.546
162.29
166.716
170.803
174.531
177.88
180.833
183.375
185.491
187.171
188.403
189.182
189.503
189.362
188.76
187.699
186.183
184.219
181.815
178.981
175.731
172.078
168.039
163.631
158.872
153.784
148.389
142.708
136.766
130.588
124.198
117.624
110.89
104.025
97.055
90.006
82.905
75.78
68.655
61.557
54.51
47.539
40.665
33.911
27.298
20.844
14.568
8.486
2.613
-3.036
-8.452
-13.621
-18.537
-23.191
-27.577
-31.691
-35.53
-39.093
-42.379
-45.39
-48.129
-50.599
-52.805
-54.754
-56.453
-57.91
-59.135
-60.138
-60.93
-61.522
-61.927
-62.157
-62.224
-62.142
-61.925
-61.585
-61.135
-60.588
-59.958
-59.255
-58.493
-57.683
-56.836
-55.962
-55.071
-54.173
-53.275
-52.388
-51.517
-50.669
-49.851
-49.067
-48.323
-47.622
-46.967
-46.362
-45.807
-45.305
-44.855
-44.457
-44.11
-43.814
-43.567
-43.365
-43.207
-43.09
-43.011
-42.965
-42.951
-42.963
-42.999
-43.055
-43.127
-43.211
-43.304
-43.403
-43.505
-43.606
-43.705
-43.797
-43.882
-43.957
-44.02
-44.07
-44.105
-44.124
-44.127
-44.113
-44.083
-44.035
-43.971
-43.892
-43.798
-43.692
-43.573
-43.445
-43.308
-43.165
-43.018
-42.868
-42.719
-42.571
-42.428
-42.292
-42.164
-42.047
-41.943
-41.853
-41.779
-41.723
-41.686
-41.669
-41.673
-41.699
-41.748
-41.82
-41.917
-42.037
-42.182
-42.35
-42.542
-42.757
-42.993
-43.251
-43.53
-43.827
-44.143
-44.477
-44.828
-45.195
-45.577
-45.973
-46.383
-46.805
-47.238
-47.681
-48.133
-48.592
-49.058
-49.529
-50.006
-50.488
-50.975
-51.466
-51.962
-52.461
-52.963
-53.469
-53.977
-54.488
-55.001
-55.516
-56.034
-56.555
-57.079
-57.606
-58.134
-58.664
-59.194
-59.722
-60.244
-60.758
-61.26
-61.747
-62.215
-62.662
-63.084
-63.481
-63.85
-64.19
-64.499
-64.772
-65.006
-65.193
-65.329
-65.406
-65.418
-65.356
-65.217
-64.994
-64.684
-64.288
-63.802
-63.222
-62.542
-61.752
-60.847
-59.827
-58.691
-57.444
-56.096
-54.662
-53.167
-51.64
-50.1
-48.564
-47.039
-45.523
-44.018
-42.526
-41.045
-39.585
-38.153
-36.751
-35.39
-34.076
-32.798
-31.54
-30.265
-28.924
-27.497
-25.979
-24.374
-22.715
-21.032
-19.36
-17.759
-16.27
-14.925
-13.769
-12.82
-12.099
-11.65
-11.524
-11.787
-12.521
-13.761
-15.506
-17.747
-20.438
-23.531
-26.979
-30.687
-34.56
-38.519
-42.471
-46.347
-50.101
-53.634
-56.819
-59.571
-61.848
-63.713
-65.361
-66.95
-68.596
-70.444
-72.674
-75.391
-78.523
-81.776
-84.633
-86.601
-87.394
-86.768
-84.403
-80.169
-74.259
-67.169
-59.759
-52.921
-47.194
-43.166
-41.649
-43.17
-47.981
-56.03
-66.663
-79.191
-92.686
-105.112
-113.972
-116.869
-112.676
-102.41
-87.303
-67.247
-39.055
3.153
65.01
149.695
255.3
375.95
503.095
626.657
738.133
829.102
891.997
921.546
913.32
866.145
782.67
668.224
531.482
383.762
237.615
105.306
-2.324
-78.783
-123.563
-139.388
-133.052
-113.569
-87.944
-64.488
-49.554
-43.874
-46.763
-53.364
-57.029
-56.086
-50.922
-43.906
-39.265
-38.228
-39.97
-43.541
-47.39
-50.761
-53.834
-56.671
-59.174
-61.185
-62.639
-63.505
-63.833
-63.807
-63.549
-63.206
-63.077
-63.45
-64.428
-66
-68.063
-70.42
-72.903
-75.347
-77.542
-79.281
-80.447
-81.007
-80.978
-80.424
-79.402
-77.958
-76.154
-74.063
-71.746
-69.255
-66.642
-63.947
-61.219
-58.514
-55.873
-53.321
-50.875
-48.535
-46.296
-44.151
-42.085
-40.076
-38.109
-36.167
-34.235
-32.299
-30.342
-28.343
-26.284
-24.142
-21.9
-19.539
-17.043
-14.398
-11.594
-8.619
-5.467
-2.13
1.398
5.126
9.058
13.199
17.554
22.123
26.905
31.898
37.097
42.494
48.079
53.838
59.759
65.825
72.017
78.317
84.702
91.149
97.635
104.133
110.617
117.059
123.431
129.703
135.846
141.831
147.629
153.211
158.549
163.615
168.382
172.825
176.92
180.644
183.976
186.895
189.385
191.431
193.018
194.136
194.777
194.934
194.605
193.788
192.486
190.703
188.445
185.723
182.547
178.931
174.892
170.447
165.617
160.423
154.889
149.038
142.899
136.496
129.859
123.016
115.997
108.83
101.547
94.176
86.747
79.29
71.833
64.404
57.03
49.739
42.553
35.499
28.597
21.869
15.334
9.009
2.912
-2.946
-8.55
-13.891
-18.96
-23.75
-28.256
-32.475
-36.406
-40.049
-43.405
-46.478
-49.272
-51.794
-54.05
-56.05
-57.803
-59.317
-60.606
-61.68
-62.551
-63.232
-63.736
-64.076
-64.265
-64.316
-64.241
-64.054
-63.768
-63.393
-62.943
-62.427
-61.858
-61.244
-60.595
-59.92
-59.226
-58.522
-57.813
-57.106
-56.405
-55.714
-55.038
-54.379
-53.74
-53.122
-52.526
-51.954
-51.405
-50.88
-50.378
-49.897
-49.438
-48.998
-48.577
-48.174
-47.786
-47.412
-47.051
-46.701
-46.361
-46.03
-45.706
-45.389
-45.076
-44.768
-44.464
-44.164
-43.867
-43.572
-43.281
-42.993
-42.71
-42.43
-42.156
-41.888
-41.626
-41.374
-41.13
-40.897
-40.676
-40.468
-40.274
-40.095
-39.933
-39.788
-39.66
-39.552
-39.462
-39.392
-39.342
-39.311
-39.301
-39.309
-39.337
-39.384
-39.448
-39.53
-39.629
-39.743
-39.871
-40.013
-40.166
-40.331
-40.505
-40.687
-40.876
-41.071
-41.269
-41.469
-41.671
-41.871
-42.07
-42.266
-42.458
-42.645
-42.826
-43.001
-43.169
-43.33
-43.483
-43.628
-43.767
-43.898
-44.022
-44.139
-44.252
-44.359
-44.462
-44.562
-44.661
-44.759
-44.857
-44.957
-45.061
-45.169
-45.283
-45.404
-45.534
-45.674
-45.826
-45.991
-46.17
-46.364
-46.575
-46.803
-47.05
-47.314
-47.596
-47.896
-48.214
-48.549
-48.899
-49.265
-49.644
-50.035
-50.436
-50.846
-51.261
-51.678
-52.096
-52.51
-52.917
-53.313
-53.694
-54.055
-54.392
-54.702
-54.978
-55.216
-55.411
-55.557
-55.65
-55.684
-55.654
-55.555
-55.382
-55.13
-54.795
-54.374
-53.864
-53.262
-52.565
-51.772
-50.883
-49.896
-48.811
-47.628
-46.35
-44.978
-43.517
-41.969
-40.342
-38.641
-36.876
-35.056
-33.191
-31.293
-29.376
-27.454
-25.543
-23.656
-21.811
-20.024
-18.309
-16.685
-15.165
-13.765
-12.5
-11.383
-10.427
-9.645
-9.051
-8.649
-8.445
-8.44
-8.634
-9.03
-9.634
-10.447
-11.472
-12.709
-14.158
-15.819
-17.689
-19.753
-21.981
-24.339
-26.791
-29.307
-31.869
-34.46
-37.055
-39.615
-42.091
-44.439
-46.619
-48.598
-50.328
-51.73
-52.795
-53.589
-54.245
-54.969
-55.926
-57.186
-58.867
-61.149
-64.034
-67.407
-71.033
-74.43
-77.293
-79.531
-80.894
-81.066
-80.027
-77.915
-75.007
-71.905
-68.998
-66.383
-64.833
-65.679
-69.223
-75.175
-82.38
-88.156
-91.881
-94.505
-96.634
-99.701
-103.458
-105.763
-104.538
-96.609
-76.975
-40.36
17.7
99.939
203.28
321.115
446.501
570.174
685.732
787.096
864.523
911.384
920.531
886.673
812.463
701.477
561.462
405.417
246.18
99.594
-19.46
-102.577
-147.655
-159.568
-148.19
-123.873
-94.945
-68.49
-49.2
-39.223
-38.748
-44.361
-51.261
-55.865
-56.934
-56.046
-55.902
-58.382
-63.403
-69.794
-76.05
-80.867
-83.9
-85.146
-84.794
-83.361
-81.265
-78.785
-76.274
-74.009
-72.253
-71.383
-71.552
-72.684
-74.649
-77.246
-80.242
-83.449
-86.628
-89.469
-91.784
-93.489
-94.542
-94.982
-94.837
-94.117
-92.868
-91.166
-89.07
-86.64
-83.925
-80.959
-77.798
-74.51
-71.161
-67.821
-64.536
-61.333
-58.231
-55.239
-52.359
-49.586
-46.911
-44.314
-41.782
-39.305
-36.869
-34.463
-32.07
-29.669
-27.239
-24.76
-22.21
-19.573
-16.83
-13.97
-10.985
-7.864
-4.6
-1.181
2.407
6.177
10.132
14.278
18.615
23.141
27.85
32.725
37.736
42.855
48.061
53.342
58.694
64.112
69.585
75.103
80.653
86.236
91.858
97.516
103.201
108.905
114.631
120.402
126.26
132.236
138.336
144.541
150.815
157.123
163.423
169.662
175.771
181.656
187.231
192.427
197.194
201.479
205.218
208.322
210.681
212.212
212.864
212.613
211.458
209.397
206.452
202.668
198.125
192.933
187.187
180.956
174.297
167.264
159.93
152.385
144.734
137.058
129.417
121.862
114.434
107.175
100.108
93.235
86.526
79.938
73.441
67.029
60.706
54.478
48.344
42.295
36.322
30.43
24.629
18.924
13.323
7.827
2.446
-2.796
-7.865
-12.725
-17.349
-21.721
-25.835
-29.684
-33.263
-36.571
-39.611
-42.393
-44.927
-47.221
-49.279
-51.108
-52.715
-54.114
-55.319
-56.347
-57.209
-57.92
-58.49
-58.931
-59.255
-59.471
-59.586
-59.606
-59.538
-59.39
-59.17
-58.886
-58.546
-58.157
-57.726
-57.26
-56.765
-56.246
-55.708
-55.153
-54.585
-54.007
-53.422
-52.831
-52.235
-51.638
-51.04
-50.442
-49.846
-49.252
-48.661
-48.073
-47.49
-46.912
-46.34
-45.774
-45.214
-44.662
-44.119
-43.585
-43.062
-42.551
-42.051
-41.566
-41.094
-40.637
-40.196
-39.771
-39.363
-38.973
-38.602
-38.251
-37.92
-37.612
-37.327
-37.065
-36.828
-36.616
-36.43
-36.27
-36.136
-36.029
-35.948
-35.893
-35.865
-35.863
-35.887
-35.936
-36.01
-36.108
-36.229
-36.372
-36.536
-36.721
-36.926
-37.149
-37.39
-37.647
-37.92
-38.208
-38.51
-38.825
-39.153
-39.491
-39.841
-40.2
-40.568
-40.945
-41.329
-41.721
-42.119
-42.523
-42.933
-43.348
-43.768
-44.191
-44.619
-45.049
-45.483
-45.919
-46.356
-46.796
-47.237
-47.679
-48.122
-48.564
-49.007
-49.449
-49.889
-50.328
-50.765
-51.199
-51.629
-52.055
-52.477
-52.894
-53.306
-53.711
-54.11
-54.502
-54.887
-55.265
-55.635
-55.998
-56.354
-56.702
-57.043
-57.378
-57.706
-58.028
-58.344
-58.655
-58.96
-59.259
-59.553
-59.842
-60.125
-60.403
-60.675
-60.941
-61.201
-61.453
-61.698
-61.934
-62.16
-62.375
-62.576
-62.763
-62.933
-63.084
-63.214
-63.32
-63.399
-63.448
-63.464
-63.443
-63.382
-63.275
-63.119
-62.91
-62.644
-62.316
-61.924
-61.464
-60.933
-60.327
-59.646
-58.886
-58.046
-57.125
-56.122
-55.037
-53.872
-52.627
-51.307
-49.915
-48.458
-46.943
-45.376
-43.768
-42.128
-40.467
-38.799
-37.135
-35.488
-33.873
-32.304
-30.796
-29.363
-28.022
-26.785
-25.665
-24.677
-23.832
-23.144
-22.623
-22.272
-22.097
-22.098
-22.281
-22.651
-23.214
-23.968
-24.912
-26.048
-27.371
-28.88
-30.563
-32.394
-34.345
-36.382
-38.473
-40.598
-42.735
-44.866
-46.964
-48.987
-50.896
-52.663
-54.249
-55.628
-56.766
-57.603
-58.16
-58.529
-58.838
-59.29
-60.054
-61.202
-62.869
-65.228
-68.268
-71.9
-75.899
-79.771
-83.174
-85.936
-87.708
-88.152
-87.183
-84.754
-81.095
-76.882
-72.566
-68.504
-65.368
-63.806
-64.334
-67.46
-73.385
-81.469
-90.518
-99.012
-104.797
-106.773
-105.696
-102.056
-95.729
-83.933
-59.582
-15.882
51.883
144.419
255.968
379.01
505.365
626.875
737.482
829.828
895.894
928.043
919.24
866.551
771.573
640.982
486.59
323.566
168.668
36.251
-63.843
-128.478
-161.269
-167.92
-156.308
-134.411
-108.298
-85.629
-71.464
-66.386
-68.933
-73.534
-75.106
-73.006
-68.49
-64.75
-64.842
-68.635
-74.695
-81.468
-87.188
-91.178
-93.396
-93.623
-92.021
-88.995
-84.866
-79.989
-74.801
-69.649
-64.934
-61.146
-58.487
-56.927
-56.38
-56.683
-57.695
-59.303
-61.31
-63.437
-65.51
-67.451
-69.234
-70.884
-72.389
-73.688
-74.73
-75.507
-76.029
-76.3
-76.319
-76.051
-75.461
-74.545
-73.329
-71.845
-70.122
-68.169
-65.984
-63.579
-60.986
-58.248
-55.42
-52.527
-49.579
-46.588
-43.563
-40.521
-37.484
-34.454
-31.416
-28.354
-25.252
-22.101
-18.898
-15.624
-12.253
-8.753
-5.091
-1.244
2.797
7.045
11.51
16.206
21.15
26.343
31.771
37.42
43.27
49.302
55.502
61.844
68.291
74.814
81.389
88.002
94.655
101.339
108.033
114.709
121.329
127.865
134.307
140.643
146.864
152.964
158.926
164.755
170.47
176.066
181.52
186.782
191.769
196.423
200.705
204.585
208.047
211.068
213.608
215.637
217.131
218.061
218.404
218.112
217.117
215.387
212.926
209.77
206.003
201.686
196.857
191.559
185.827
179.701
173.234
166.465
159.42
152.138
144.667
137.072
129.447
121.854
114.325
106.872
99.476
92.132
84.852
77.641
70.505
63.454
56.494
49.644
42.938
36.399
30.038
23.855
17.836
11.978
6.294
0.799
-4.479
-9.521
-14.314
-18.844
-23.097
-27.063
-30.737
-34.125
-37.24
-40.092
-42.69
-45.037
-47.137
-48.996
-50.625
-52.036
-53.24
-54.25
-55.079
-55.742
-56.254
-56.629
-56.88
-57.017
-57.049
-56.984
-56.832
-56.603
-56.304
-55.945
-55.534
-55.078
-54.586
-54.067
-53.526
-52.968
-52.4
-51.825
-51.247
-50.669
-50.094
-49.525
-48.962
-48.407
-47.862
-47.328
-46.805
-46.292
-45.792
-45.302
-44.824
-44.357
-43.901
-43.454
-43.019
-42.593
-42.178
-41.774
-41.381
-41
-40.631
-40.276
-39.935
-39.609
-39.299
-39.004
-38.727
-38.468
-38.229
-38.009
-37.811
-37.635
-37.482
-37.353
-37.249
-37.17
-37.116
-37.089
-37.088
-37.113
-37.165
-37.242
-37.345
-37.474
-37.627
-37.803
-38.001
-38.219
-38.457
-38.711
-38.981
-39.263
-39.557
-39.858
-40.165
-40.476
-40.788
-41.098
-41.404
-41.705
-41.996
-42.278
-42.547
-42.803
-43.043
-43.267
-43.473
-43.662
-43.833
-43.985
-44.118
-44.234
-44.332
-44.414
-44.48
-44.532
-44.572
-44.6
-44.62
-44.633
-44.643
-44.65
-44.659
-44.671
-44.69
-44.719
-44.76
-44.817
-44.891
-44.987
-45.106
-45.25
-45.423
-45.626
-45.861
-46.129
-46.431
-46.769
-47.142
-47.55
-47.992
-48.469
-48.978
-49.518
-50.086
-50.682
-51.3
-51.94
-52.596
-53.265
-53.943
-54.625
-55.306
-55.98
-56.642
-57.286
-57.906
-58.496
-59.05
-59.563
-60.027
-60.438
-60.788
-61.073
-61.285
-61.421
-61.474
-61.44
-61.313
-61.091
-60.769
-60.346
-59.818
-59.185
-58.446
-57.601
-56.65
-55.595
-54.437
-53.179
-51.826
-50.382
-48.853
-47.245
-45.569
-43.834
-42.051
-40.234
-38.393
-36.544
-34.7
-32.877
-31.089
-29.352
-27.68
-26.088
-24.592
-23.208
-21.953
-20.839
-19.88
-19.088
-18.472
-18.044
-17.812
-17.78
-17.948
-18.318
-18.891
-19.673
-20.671
-21.88
-23.298
-24.92
-26.736
-28.735
-30.902
-33.202
-35.602
-38.066
-40.553
-43.036
-45.483
-47.865
-50.154
-52.305
-54.275
-56.035
-57.543
-58.767
-59.701
-60.322
-60.631
-60.703
-60.633
-60.56
-60.691
-61.172
-62.121
-63.697
-65.988
-68.987
-72.639
-76.686
-80.719
-84.41
-87.37
-89.172
-89.552
-88.33
-85.431
-81.17
-76.07
-70.666
-65.749
-62.212
-60.771
-62.058
-66.562
-73.784
-82.286
-90.392
-95.686
-96.829
-94.602
-89.158
-79.97
-64.029
-34.212
15.603
89.091
185.875
299.828
424.058
550.533
671.152
778.536
862.084
912.866
923.331
888.13
809.587
692.208
544.739
381.313
216.153
66.009
-54.209
-136.968
-181.267
-193.084
-182.811
-160.135
-132.431
-105.799
-84.366
-70.623
-65.497
-66.418
-68.874
-69.071
-65.499
-59.494
-54.116
-52.088
-53.832
-58.373
-64.279
-69.813
-74.298
-77.618
-79.44
-79.82
-78.969
-76.967
-74.088
-70.788
-67.397
-64.295
-61.948
-60.502
-59.909
-60.109
-60.901
-62.066
-63.451
-64.832
-65.981
-66.837
-67.398
-67.676
-67.728
-67.545
-67.085
-66.367
-65.422
-64.276
-62.962
-61.493
-59.878
-58.159
-56.376
-54.56
-52.72
-50.816
-48.81
-46.689
-44.45
-42.115
-39.719
-37.275
-34.791
-32.283
-29.754
-27.205
-24.635
-22.019
-19.334
-16.565
-13.706
-10.768
-7.76
-4.68
-1.517
1.746
5.135
8.67
12.365
16.243
20.318
24.599
29.093
33.794
38.69
43.776
49.047
54.495
60.117
65.901
71.832
77.895
84.071
90.338
96.675
103.055
109.453
115.843
122.201
128.502
134.723
140.838
146.823
152.652
158.298
163.735
168.938
173.88
178.536
182.882
186.895
190.554
193.839
196.732
199.215
201.275
202.899
204.075
204.795
205.053
204.843
204.165
203.018
201.404
199.329
196.799
193.824
190.414
186.584
182.347
177.722
172.727
167.382
161.708
155.728
149.466
142.947
136.196
129.241
122.108
114.825
107.421
99.922
92.358
84.756
77.144
69.548
61.995
54.509
47.117
39.84
32.702
25.724
18.925
12.324
5.938
-0.218
-6.13
-11.787
-17.178
-22.295
-27.131
-31.682
-35.943
-39.912
-43.591
-46.979
-50.079
-52.895
-55.432
-57.697
-59.697
-61.441
-62.939
-64.2
-65.236
-66.059
-66.681
-67.115
-67.374
-67.471
-67.419
-67.233
-66.926
-66.512
-66.003
-65.412
-64.752
-64.035
-63.272
-62.475
-61.652
-60.813
-59.967
-59.122
-58.284
-57.461
-56.658
-55.879
-55.13
-54.413
-53.732
-53.088
-52.483
-51.919
-51.395
-50.912
-50.469
-50.065
-49.7
-49.37
-49.075
-48.813
-48.58
-48.375
-48.195
-48.037
-47.899
-47.777
-47.669
-47.573
-47.487
-47.408
-47.334
-47.264
-47.197
-47.132
-47.068
-47.005
-46.941
-46.878
-46.815
-46.753
-46.692
-46.633
-46.578
-46.527
-46.482
-46.443
-46.413
-46.392
-46.382
-46.383
-46.398
-46.427
-46.472
-46.533
-46.612
-46.71
-46.826
-46.963
-47.12
-47.298
-47.497
-47.716
-47.955
-48.214
-48.491
-48.786
-49.097
-49.424
-49.764
-50.116
-50.478
-50.848
-51.226
-51.607
-51.992
-52.376
-52.76
-53.141
-53.518
-53.889
-54.252
-54.607
-54.953
-55.289
-55.614
-55.927
-56.228
-56.518
-56.796
-57.062
-57.317
-57.562
-57.797
-58.024
-58.244
-58.458
-58.667
-58.874
-59.079
-59.285
-59.493
-59.706
-59.924
-60.15
-60.385
-60.63
-60.886
-61.155
-61.436
-61.731
-62.039
-62.359
-62.692
-63.037
-63.392
-63.756
-64.127
-64.503
-64.881
-65.259
-65.633
-65.998
-66.352
-66.69
-67.006
-67.297
-67.557
-67.782
-67.965
-68.102
-68.186
-68.213
-68.176
-68.071
-67.892
-67.634
-67.293
-66.866
-66.349
-65.739
-65.034
-64.233
-63.335
-62.339
-61.244
-60.053
-58.767
-57.389
-55.922
-54.371
-52.742
-51.043
-49.283
-47.473
-45.623
-43.748
-41.859
-39.974
-38.106
-36.273
-34.488
-32.769
-31.13
-29.587
-28.156
-26.852
-25.687
-24.676
-23.831
-23.163
-22.682
-22.395
-22.301
-22.401
-22.695
-23.184
-23.875
-24.772
-25.874
-27.185
-28.702
-30.423
-32.344
-34.445
-36.692
-39.047
-41.473
-43.936
-46.417
-48.892
-51.332
-53.692
-55.922
-57.974
-59.804
-61.377
-62.65
-63.568
-64.14
-64.435
-64.577
-64.76
-65.159
-65.859
-66.978
-68.661
-70.894
-73.618
-76.696
-79.737
-82.434
-84.671
-86.23
-86.85
-86.449
-84.91
-82.208
-79.183
-76.912
-75.948
-76.595
-77.784
-77.577
-75.644
-73.504
-74.168
-80.588
-93.075
-108.219
-121.05
-128.4
-128.146
-119.663
-101.859
-69.374
-17.741
55.486
150.421
261.184
381.631
506.179
627.93
741.1
837.38
906.484
939.376
928.875
872.83
774.536
641.992
487.104
324.212
168.941
34.806
-68.269
-136.105
-171.443
-179.34
-167.158
-143.124
-113.344
-85.656
-66.2
-56.321
-55.413
-58.454
-59.603
-57.525
-52.918
-48.604
-48.204
-52.067
-58.885
-67.118
-74.618
-80.394
-84.356
-86.268
-86.302
-84.868
-82.246
-78.809
-75.088
-71.502
-68.449
-66.384
-65.444
-65.535
-66.537
-68.231
-70.375
-72.772
-75.151
-77.221
-78.849
-80
-80.696
-80.989
-80.869
-80.318
-79.362
-78.053
-76.45
-74.6
-72.523
-70.24
-67.791
-65.235
-62.641
-60.06
-57.502
-54.961
-52.415
-49.863
-47.337
-44.852
-42.409
-39.998
-37.602
-35.214
-32.837
-30.464
-28.074
-25.639
-23.13
-20.528
-17.83
-15.034
-12.141
-9.139
-6.006
-2.722
0.723
4.34
8.135
12.122
16.316
20.724
25.343
30.168
35.193
40.414
45.831
51.439
57.227
63.185
69.296
75.544
81.912
88.38
94.927
101.527
108.155
114.786
121.396
127.959
134.45
140.841
147.103
153.209
159.131
164.843
170.316
175.523
180.437
185.034
189.29
193.184
196.693
199.8
202.486
204.737
206.539
207.88
208.752
209.149
209.065
208.5
207.454
205.93
203.933
201.472
198.556
195.197
191.41
187.211
182.618
177.65
172.33
166.68
160.724
154.488
147.998
141.282
134.368
127.284
120.061
112.726
105.309
97.84
90.346
82.855
75.395
67.993
60.672
53.458
46.374
39.442
32.68
26.109
19.745
13.603
7.697
2.038
-3.362
-8.496
-13.358
-17.941
-22.244
-26.264
-30.001
-33.457
-36.636
-39.541
-42.179
-44.557
-46.682
-48.566
-50.218
-51.648
-52.869
-53.893
-54.733
-55.401
-55.911
-56.274
-56.506
-56.617
-56.621
-56.53
-56.356
-56.109
-55.801
-55.441
-55.039
-54.604
-54.143
-53.665
-53.175
-52.68
-52.186
-51.696
-51.215
-50.746
-50.292
-49.854
-49.434
-49.032
-48.648
-48.281
-47.932
-47.597
-47.277
-46.968
-46.669
-46.378
-46.092
-45.809
-45.527
-45.244
-44.958
-44.667
-44.37
-44.066
-43.755
-43.434
-43.106
-42.768
-42.421
-42.067
-41.705
-41.337
-40.962
-40.584
-40.202
-39.819
-39.437
-39.056
-38.679
-38.309
-37.948
-37.597
-37.26
-36.939
-36.637
-36.355
-36.097
-35.864
-35.66
-35.486
-35.343
-35.234
-35.16
-35.121
-35.118
-35.152
-35.223
-35.331
-35.474
-35.653
-35.866
-36.113
-36.391
-36.699
-37.037
-37.401
-37.791
-38.204
-38.639
-39.094
-39.567
-40.056
-40.558
-41.073
-41.597
-42.128
-42.666
-43.207
-43.749
-44.291
-44.831
-45.366
-45.896
-46.419
-46.933
-47.437
-47.931
-48.413
-48.883
-49.34
-49.785
-50.217
-50.637
-51.044
-51.44
-51.825
-52.199
-52.563
-52.918
-53.264
-53.602
-53.932
-54.256
-54.573
-54.884
-55.189
-55.49
-55.785
-56.076
-56.363
-56.644
-56.921
-57.193
-57.459
-57.719
-57.973
-58.219
-58.458
-58.687
-58.906
-59.113
-59.307
-59.486
-59.647
-59.789
-59.908
-60.002
-60.067
-60.102
-60.103
-60.068
-59.992
-59.874
-59.71
-59.497
-59.232
-58.913
-58.537
-58.1
-57.603
-57.042
-56.417
-55.726
-54.97
-54.149
-53.263
-52.312
-51.298
-50.223
-49.088
-47.896
-46.651
-45.358
-44.022
-42.649
-41.249
-39.83
-38.402
-36.975
-35.564
-34.179
-32.835
-31.545
-30.321
-29.177
-28.127
-27.182
-26.356
-25.661
-25.107
-24.706
-24.466
-24.398
-24.51
-24.805
-25.283
-25.942
-26.779
-27.794
-28.99
-30.368
-31.926
-33.663
-35.577
-37.666
-39.921
-42.327
-44.85
-47.453
-50.098
-52.752
-55.396
-58.008
-60.561
-63.014
-65.316
-67.428
-69.309
-70.926
-72.234
-73.168
-73.726
-73.969
-74.028
-74.091
-74.318
-74.801
-75.672
-77.099
-79.098
-81.608
-84.452
-87.229
-89.671
-91.64
-92.822
-92.958
-92.032
-89.938
-86.831
-83.312
-79.599
-76.344
-74.523
-74.206
-75.75
-78.681
-82.04
-86.576
-92.124
-98.851
-106.741
-113.063
-116.824
-116.819
-110.947
-97.924
-72.713
-29.874
34.382
122.064
229.256
349.703
475.788
598.667
711.788
807.765
878.701
917.955
918.615
876.962
794.232
675.882
532.363
377.709
226.653
92.142
-15.524
-91.185
-135.571
-151.612
-145.924
-127.456
-102.895
-80.381
-66.55
-61.775
-65.413
-73.142
-77.21
-75.392
-67.504
-55.062
-44.163
-37.609
-35.671
-38.602
-43.662
-49.03
-54.437
-59.082
-63.059
-66.392
-68.719
-70.108
-70.605
-70.319
-69.55
-68.561
-67.715
-67.425
-67.867
-69.04
-70.837
-73.043
-75.446
-77.857
-80.05
-81.794
-82.964
-83.522
-83.483
-82.917
-81.884
-80.433
-78.626
-76.533
-74.214
-71.716
-69.086
-66.363
-63.595
-60.834
-58.121
-55.479
-52.924
-50.456
-48.072
-45.763
-43.515
-41.307
-39.125
-36.952
-34.775
-32.58
-30.35
-28.065
-25.707
-23.255
-20.689
-17.994
-15.153
-12.153
-8.986
-5.641
-2.112
1.605
5.517
9.629
13.944
18.468
23.201
28.143
33.293
38.648
44.201
49.945
55.868
61.957
68.2
74.579
81.076
87.673
94.346
101.075
107.834
114.597
121.339
128.031
134.645
141.153
147.524
153.73
159.742
165.532
171.071
176.334
181.293
185.925
190.206
194.114
197.629
200.732
203.407
205.638
207.414
208.722
209.556
209.908
209.775
209.157
208.053
206.468
204.408
201.881
198.898
195.471
191.615
187.347
182.686
177.653
172.27
166.561
160.551
154.265
147.731
140.976
134.028
126.916
119.669
112.314
104.881
97.396
89.888
82.384
74.909
67.49
60.15
52.914
45.802
38.837
32.038
25.423
19.01
12.813
6.846
1.12
-4.352
-9.564
-14.508
-19.178
-23.571
-27.685
-31.518
-35.073
-38.352
-41.357
-44.094
-46.568
-48.787
-50.758
-52.49
-53.991
-55.272
-56.343
-57.214
-57.896
-58.401
-58.739
-58.922
-58.961
-58.869
-58.655
-58.333
-57.911
-57.402
-56.815
-56.161
-55.45
-54.69
-53.89
-53.059
-52.205
-51.334
-50.453
-49.569
-48.687
-47.811
-46.947
-46.098
-45.267
-44.458
-43.674
-42.917
-42.188
-41.489
-40.822
-40.187
-39.587
-39.021
-38.49
-37.994
-37.534
-37.109
-36.72
-36.366
-36.047
-35.763
-35.512
-35.293
-35.107
-34.952
-34.828
-34.733
-34.666
-34.627
-34.614
-34.627
-34.664
-34.726
-34.81
-34.917
-35.045
-35.194
-35.364
-35.553
-35.76
-35.986
-36.229
-36.489
-36.765
-37.055
-37.359
-37.677
-38.006
-38.347
-38.698
-39.058
-39.426
-39.802
-40.184
-40.572
-40.964
-41.361
-41.76
-42.163
-42.567
-42.972
-43.377
-43.782
-44.184
-44.585
-44.981
-45.374
-45.761
-46.141
-46.514
-46.879
-47.234
-47.578
-47.911
-48.232
-48.541
-48.835
-49.116
-49.383
-49.635
-49.873
-50.097
-50.307
-50.503
-50.685
-50.855
-51.012
-51.157
-51.292
-51.416
-51.531
-51.637
-51.736
-51.83
-51.92
-52.007
-52.094
-52.181
-52.271
-52.366
-52.468
-52.579
-52.701
-52.837
-52.988
-53.158
-53.347
-53.558
-53.793
-54.052
-54.337
-54.648
-54.986
-55.35
-55.74
-56.156
-56.597
-57.061
-57.547
-58.053
-58.577
-59.116
-59.667
-60.226
-60.79
-61.354
-61.914
-62.463
-62.999
-63.514
-64.003
-64.461
-64.88
-65.256
-65.58
-65.847
-66.049
-66.179
-66.232
-66.2
-66.078
-65.861
-65.544
-65.122
-64.593
-63.952
-63.199
-62.33
-61.345
-60.244
-59.027
-57.695
-56.253
-54.704
-53.054
-51.308
-49.475
-47.564
-45.585
-43.551
-41.475
-39.371
-37.255
-35.144
-33.055
-31.004
-29.01
-27.09
-25.261
-23.54
-21.942
-20.486
-19.187
-18.062
-17.123
-16.383
-15.849
-15.526
-15.418
-15.525
-15.85
-16.396
-17.167
-18.163
-19.386
-20.839
-22.515
-24.407
-26.496
-28.744
-31.121
-33.596
-36.142
-38.748
-41.389
-44.034
-46.647
-49.178
-51.585
-53.839
-55.884
-57.641
-59.083
-60.225
-61.167
-62.098
-63.153
-64.394
-65.901
-67.775
-70.078
-72.774
-75.634
-78.259
-80.366
-81.886
-82.819
-83.098
-82.571
-81.212
-79.306
-77.344
-75.638
-74.149
-72.648
-71.474
-71.604
-73.722
-77.775
-81.995
-83.992
-82.658
-78.289
-73.638
-71.438
-72.766
-77.539
-81.895
-81.046
-69.987
-42.154
5.53
74.79
165.784
274.091
395.548
523.345
647.662
759.291
846.918
901.765
919.09
896.069
834.096
735.939
606.472
455.811
298.104
150.508
29.625
-54.681
-101.996
-118.304
-114.205
-100.819
-84.676
-71.368
-64.594
-63.823
-68.345
-74.73
-77.761
-76.064
-70.088
-62.089
-55.903
-52.872
-52.684
-54.45
-56.745
-59.135
-61.74
-64.529
-67.515
-70.404
-72.728
-74.319
-75.086
-74.987
-74.166
-72.805
-71.129
-69.483
-68.215
-67.484
-67.312
-67.648
-68.344
-69.246
-70.217
-71.087
-71.693
-71.989
-71.997
-71.747
-71.295
-70.658
-69.813
-68.782
-67.602
-66.297
-64.896
-63.422
-61.885
-60.322
-58.77
-57.239
-55.718
-54.159
-52.515
-50.761
-48.89
-46.915
-44.862
-42.745
-40.575
-38.366
-36.119
-33.833
-31.499
-29.095
-26.592
-23.978
-21.245
-18.402
-15.458
-12.409
-9.245
-5.946
-2.486
1.155
4.997
9.061
13.362
17.909
22.704
27.743
33.012
38.501
44.202
50.105
56.2
62.475
68.909
75.483
82.173
88.953
95.797
102.673
109.552
116.403
123.196
129.903
136.495
142.943
149.217
155.289
161.129
166.706
171.994
176.963
181.587
185.84
189.699
193.143
196.152
198.709
200.8
202.412
203.535
204.163
204.289
203.913
203.035
201.658
199.787
197.432
194.602
191.312
187.576
183.412
178.839
173.881
168.559
162.899
156.927
150.67
144.157
137.418
130.482
123.378
116.139
108.795
101.377
93.914
86.437
78.975
71.556
64.207
56.953
49.819
42.828
36.001
29.358
22.917
16.694
10.703
4.958
-0.532
-5.757
-10.71
-15.387
-19.784
-23.9
-27.736
-31.292
-34.574
-37.585
-40.332
-42.823
-45.066
-47.071
-48.848
-50.409
-51.765
-52.929
-53.914
-54.732
-55.397
-55.92
-56.316
-56.595
-56.771
-56.856
-56.859
-56.792
-56.665
-56.487
-56.267
-56.013
-55.731
-55.429
-55.112
-54.785
-54.452
-54.116
-53.78
-53.445
-53.114
-52.787
-52.465
-52.146
-51.831
-51.518
-51.207
-50.895
-50.581
-50.264
-49.941
-49.612
-49.274
-48.926
-48.567
-48.195
-47.811
-47.413
-47.002
-46.577
-46.139
-45.689
-45.228
-44.758
-44.279
-43.795
-43.307
-42.817
-42.33
-41.847
-41.372
-40.909
-40.459
-40.027
-39.617
-39.23
-38.871
-38.543
-38.249
-37.991
-37.772
-37.594
-37.459
-37.368
-37.323
-37.325
-37.373
-37.468
-37.61
-37.797
-38.029
-38.303
-38.62
-38.975
-39.367
-39.792
-40.249
-40.734
-41.242
-41.772
-42.318
-42.877
-43.446
-44.019
-44.594
-45.165
-45.73
-46.285
-46.825
-47.347
-47.848
-48.325
-48.775
-49.196
-49.585
-49.941
-50.262
-50.548
-50.797
-51.01
-51.187
-51.327
-51.433
-51.505
-51.544
-51.552
-51.532
-51.486
-51.415
-51.324
-51.214
-51.089
-50.953
-50.808
-50.657
-50.505
-50.354
-50.208
-50.071
-49.946
-49.836
-49.745
-49.676
-49.631
-49.614
-49.626
-49.671
-49.75
-49.865
-50.017
-50.206
-50.435
-50.702
-51.008
-51.353
-51.735
-52.154
-52.607
-53.093
-53.61
-54.155
-54.724
-55.315
-55.924
-56.546
-57.179
-57.819
-58.459
-59.097
-59.727
-60.345
-60.945
-61.521
-62.069
-62.583
-63.057
-63.485
-63.863
-64.184
-64.443
-64.636
-64.756
-64.8
-64.762
-64.639
-64.426
-64.119
-63.717
-63.216
-62.615
-61.912
-61.107
-60.199
-59.19
-58.08
-56.872
-55.568
-54.171
-52.685
-51.114
-49.465
-47.743
-45.956
-44.11
-42.216
-40.286
-38.332
-36.368
-34.409
-32.469
-30.566
-28.718
-26.941
-25.25
-23.66
-22.183
-20.833
-19.625
-18.573
-17.692
-16.991
-16.48
-16.166
-16.053
-16.144
-16.437
-16.924
-17.6
-18.461
-19.511
-20.758
-22.205
-23.856
-25.706
-27.749
-29.968
-32.343
-34.845
-37.443
-40.112
-42.825
-45.557
-48.285
-50.976
-53.59
-56.085
-58.393
-60.425
-62.138
-63.518
-64.61
-65.541
-66.424
-67.329
-68.37
-69.682
-71.324
-73.309
-75.476
-77.441
-78.937
-79.863
-80.145
-79.763
-78.687
-76.803
-74.28
-71.641
-69.275
-67.38
-66.022
-65.137
-64.876
-65.708
-67.944
-71.609
-76.682
-83.214
-90.839
-98.559
-105.087
-108.438
-107.76
-104.108
-97.515
-87.198
-69.877
-38.606
11.621
83.611
177.212
287.042
407.687
532.608
653.331
762.183
849.271
905.516
925.198
904.507
843.834
746.317
616.82
464.556
302.997
148.407
18.167
-75.353
-129.334
-148.507
-144.278
-129.203
-111.103
-95.104
-82.885
-73.981
-68.519
-65.368
-62.659
-58.852
-53.482
-47.526
-42.82
-41.416
-43.605
-48.375
-54.639
-61.003
-66.728
-71.738
-75.751
-78.513
-80.077
-80.583
-80.218
-79.335
-78.241
-77.148
-76.402
-76.347
-77.084
-78.578
-80.692
-83.176
-85.801
-88.371
-90.656
-92.444
-93.626
-94.16
-94.061
-93.392
-92.207
-90.558
-88.51
-86.127
-83.468
-80.579
-77.513
-74.317
-71.049
-67.77
-64.528
-61.353
-58.266
-55.275
-52.383
-49.584
-46.868
-44.216
-41.614
-39.052
-36.52
-34.007
-31.498
-28.977
-26.426
-23.827
-21.161
-18.409
-15.554
-12.582
-9.482
-6.243
-2.857
0.682
4.385
8.257
12.305
16.532
20.949
25.564
30.388
35.423
40.661
46.088
51.691
57.455
63.367
69.403
75.537
81.747
88.018
94.349
100.737
107.17
113.624
120.064
126.455
132.774
139.007
145.147
151.175
157.072
162.826
168.439
173.921
179.262
184.423
189.336
193.937
198.18
202.038
205.494
208.531
211.117
213.216
214.802
215.859
216.37
216.307
215.623
214.264
212.211
209.488
206.158
202.279
197.894
193.029
187.711
181.976
175.868
169.43
162.692
155.676
148.418
140.968
133.399
125.787
118.183
110.604
103.044
95.499
87.983
80.514
73.111
65.782
58.534
51.387
44.373
37.522
30.856
24.385
18.103
12.005
6.097
0.396
-5.072
-10.288
-15.239
-19.915
-24.307
-28.4
-32.188
-35.672
-38.864
-41.776
-44.417
-46.793
-48.908
-50.769
-52.386
-53.771
-54.939
-55.902
-56.674
-57.27
-57.706
-57.998
-58.163
-58.212
-58.157
-58.007
-57.775
-57.472
-57.109
-56.696
-56.242
-55.756
-55.248
-54.728
-54.201
-53.677
-53.158
-52.652
-52.162
-51.691
-51.242
-50.818
-50.419
-50.047
-49.702
-49.384
-49.093
-48.827
-48.586
-48.369
-48.173
-47.996
-47.838
-47.695
-47.565
-47.447
-47.339
-47.239
-47.145
-47.057
-46.971
-46.889
-46.807
-46.726
-46.644
-46.561
-46.475
-46.386
-46.294
-46.2
-46.103
-46.003
-45.902
-45.8
-45.699
-45.598
-45.499
-45.402
-45.31
-45.224
-45.143
-45.071
-45.007
-44.952
-44.909
-44.878
-44.859
-44.853
-44.862
-44.885
-44.923
-44.977
-45.046
-45.131
-45.231
-45.348
-45.481
-45.629
-45.793
-45.973
-46.167
-46.375
-46.598
-46.832
-47.08
-47.338
-47.606
-47.885
-48.171
-48.465
-48.766
-49.072
-49.382
-49.696
-50.013
-50.331
-50.649
-50.967
-51.284
-51.599
-51.912
-52.22
-52.525
-52.825
-53.119
-53.407
-53.688
-53.961
-54.227
-54.484
-54.732
-54.972
-55.202
-55.424
-55.636
-55.84
-56.035
-56.221
-56.4
-56.572
-56.736
-56.895
-57.048
-57.196
-57.341
-57.482
-57.622
-57.76
-57.899
-58.037
-58.178
-58.321
-58.466
-58.617
-58.772
-58.933
-59.101
-59.276
-59.46
-59.651
-59.852
-60.06
-60.278
-60.502
-60.734
-60.972
-61.214
-61.46
-61.709
-61.958
-62.205
-62.448
-62.685
-62.912
-63.126
-63.324
-63.502
-63.655
-63.781
-63.875
-63.933
-63.95
-63.923
-63.847
-63.718
-63.53
-63.281
-62.965
-62.578
-62.117
-61.578
-60.958
-60.256
-59.469
-58.597
-57.638
-56.593
-55.462
-54.245
-52.945
-51.563
-50.104
-48.571
-46.97
-45.306
-43.589
-41.827
-40.031
-38.212
-36.384
-34.56
-32.756
-30.986
-29.267
-27.615
-26.042
-24.564
-23.193
-21.945
-20.831
-19.866
-19.06
-18.427
-17.975
-17.713
-17.646
-17.773
-18.09
-18.596
-19.288
-20.17
-21.246
-22.517
-23.987
-25.658
-27.525
-29.583
-31.813
-34.179
-36.641
-39.164
-41.714
-44.276
-46.83
-49.339
-51.764
-54.052
-56.147
-58.012
-59.589
-60.795
-61.603
-62.049
-62.235
-62.361
-62.595
-63.032
-63.803
-65.072
-66.873
-69.11
-71.529
-73.723
-75.422
-76.551
-76.975
-76.451
-74.884
-72.412
-69.49
-66.687
-64.264
-62.312
-60.948
-60.914
-63.432
-68.644
-75.872
-83.701
-89.41
-92.196
-92.953
-91.986
-91.485
-92.33
-91.859
-87.67
-74.634
-45.839
2.122
72.1
164.292
273.862
396.014
523.495
646.914
758.023
846.709
904.259
925.037
905.359
846.2
751.287
626.512
481.214
326.916
177.553
47.482
-52.327
-116.41
-146.199
-148.537
-132.829
-108.927
-84.726
-65.878
-55.365
-52.318
-53.902
-56.118
-55.191
-50.798
-44.638
-39.121
-37.014
-38.672
-42.845
-48.378
-53.874
-58.649
-62.749
-66.016
-68.216
-69.391
-69.677
-69.198
-68.234
-67.046
-65.794
-64.801
-64.447
-64.844
-65.969
-67.727
-69.889
-72.262
-74.691
-76.932
-78.743
-79.996
-80.63
-80.65
-80.123
-79.091
-77.592
-75.691
-73.456
-70.948
-68.223
-65.322
-62.284
-59.159
-56.003
-52.869
-49.798
-46.811
-43.923
-41.136
-38.446
-35.849
-33.331
-30.874
-28.463
-26.083
-23.719
-21.359
-18.986
-16.579
-14.12
-11.588
-8.964
-6.233
-3.379
-0.389
2.747
6.039
9.496
13.125
16.932
20.926
25.112
29.496
34.081
38.87
43.862
49.055
54.446
60.027
65.79
71.723
77.815
84.05
90.411
96.881
103.439
110.063
116.729
123.414
130.091
136.733
143.313
149.801
156.168
162.386
168.425
174.256
179.851
185.183
190.223
194.947
199.329
203.346
206.976
210.198
212.995
215.35
217.248
218.678
219.628
220.093
220.067
219.548
218.536
217.035
215.048
212.585
209.655
206.27
202.446
198.199
193.548
188.514
183.119
177.389
171.347
165.022
158.442
151.634
144.628
137.455
130.144
122.725
115.228
107.683
100.119
92.566
85.051
77.601
70.243
63
55.898
48.957
42.198
35.641
29.303
23.198
17.341
11.743
6.415
1.365
-3.402
-7.88
-12.067
-15.963
-19.568
-22.884
-25.917
-28.67
-31.152
-33.37
-35.332
-37.049
-38.532
-39.792
-40.841
-41.692
-42.358
-42.852
-43.187
-43.377
-43.434
-43.374
-43.207
-42.947
-42.606
-42.196
-41.729
-41.213
-40.661
-40.081
-39.481
-38.87
-38.255
-37.642
-37.037
-36.444
-35.868
-35.312
-34.778
-34.269
-33.786
-33.329
-32.899
-32.495
-32.117
-31.764
-31.434
-31.126
-30.837
-30.566
-30.31
-30.067
-29.834
-29.61
-29.391
-29.175
-28.961
-28.745
-28.527
-28.304
-28.075
-27.838
-27.592
-27.337
-27.071
-26.794
-26.506
-26.207
-25.897
-25.577
-25.249
-24.912
-24.569
-24.221
-23.869
-23.516
-23.163
-22.812
-22.466
-22.127
-21.797
-21.478
-21.172
-20.883
-20.612
-20.361
-20.133
-19.929
-19.751
-19.601
-19.48
-19.39
-19.332
-19.307
-19.316
-19.359
-19.437
-19.549
-19.696
-19.878
-20.094
-20.342
-20.622
-20.932
-21.271
-21.638
-22.029
-22.443
-22.877
-23.33
-23.798
-24.278
-24.768
-25.265
-25.765
-26.266
-26.764
-27.257
-27.741
-28.214
-28.673
-29.115
-29.537
-29.939
-30.316
-30.668
-30.992
-31.287
-31.552
-31.786
-31.988
-32.158
-32.296
-32.402
-32.477
-32.522
-32.538
-32.527
-32.491
-32.432
-32.352
-32.255
-32.143
-32.019
-31.887
-31.75
-31.612
-31.477
-31.347
-31.228
-31.122
-31.033
-30.963
-30.917
-30.897
-30.905
-30.945
-31.017
-31.125
-31.269
-31.45
-31.669
-31.925
-32.219
-32.549
-32.913
-33.31
-33.737
-34.191
-34.669
-35.165
-35.677
-36.198
-36.723
-37.247
-37.762
-38.264
-38.745
-39.198
-39.616
-39.992
-40.319
-40.591
-40.801
-40.942
-41.008
-40.994
-40.895
-40.704
-40.418
-40.034
-39.547
-38.956
-38.258
-37.454
-36.544
-35.528
-34.408
-33.187
-31.868
-30.456
-28.957
-27.376
-25.721
-24
-22.223
-20.398
-18.537
-16.65
-14.748
-12.845
-10.952
-9.081
-7.246
-5.458
-3.731
-2.076
-0.506
0.967
2.333
3.579
4.697
5.677
6.512
7.193
7.715
8.074
8.265
8.286
8.135
7.812
7.319
6.657
5.829
4.843
3.703
2.419
1
-0.544
-2.2
-3.954
-5.794
-7.705
-9.671
-11.676
-13.703
-15.738
-17.761
-19.757
-21.708
-23.597
-25.407
-27.123
-28.729
-30.21
-31.554
-32.749
-33.783
-34.648
-35.335
-35.837
-36.148
-36.262
-36.174
-35.882
-35.384
-34.678
-33.767
-32.656
-31.35
-29.86
