Name
Date of Birth,"Mar 27, 1959"
Recorded Date,2021-08-19 04:32:14 -0500
Classification,Sinus Rhythm
Symptoms,
Software Version,1.90
Device,"Watch4,2"
Sample Rate,510.227 hertz


Lead,Lead I
Unit,µV

-1.438
-2.146
-2.785
-3.342
-3.818
-4.209
-4.514
-4.741
-4.909
-5.066
-5.28
-5.583
-5.985
-6.468
-6.993
-7.54
-8.104
-8.683
-9.272
-9.856
-10.41
-10.917
-11.365
-11.73
-11.985
-12.078
-11.939
-11.532
-10.851
-9.911
-8.758
-7.425
-5.926
-4.283
-2.516
-0.647
1.297
3.298
5.348
7.424
9.5
11.534
13.467
15.263
16.906
18.396
19.754
20.992
22.111
23.117
24.013
24.797
25.469
26.025
26.451
26.747
26.924
26.993
26.978
26.899
26.761
26.563
26.294
25.93
25.454
24.862
24.155
23.34
22.433
21.43
20.322
19.122
17.833
16.418
14.843
13.068
11.057
8.837
6.466
3.962
1.33
-1.288
-3.733
-6.064
-8.258
-10.269
-12.352
-13.739
-13.67
-13.163
-12.501
-13.55
-18.569
-25.005
-31.167
-34.564
-31.779
-25.908
-19.574
-14.581
-13.889
-15.415
-17.053
-18.339
-17.992
-16.79
-15.733
-14.682
-13.802
-13.046
-12.224
-11.453
-10.81
-10.248
-9.749
-9.312
-8.931
-8.593
-8.293
-8.02
-7.762
-7.53
-7.328
-7.14
-6.956
-6.775
-6.598
-6.437
-6.313
-6.233
-6.207
-6.25
-6.37
-6.574
-6.866
-7.244
-7.704
-8.247
-8.872
-9.579
-10.37
-11.243
-12.197
-13.231
-14.341
-15.525
-16.778
-18.094
-19.467
-20.892
-22.363
-23.871
-25.409
-26.972
-28.557
-30.167
-31.806
-33.472
-35.164
-36.877
-38.601
-40.324
-42.029
-43.69
-45.28
-46.777
-48.161
-49.419
-50.536
-51.489
-52.252
-52.79
-53.073
-53.077
-52.783
-52.179
-51.281
-50.115
-48.73
-47.19
-45.543
-43.843
-42.163
-40.563
-39.12
-37.924
-37.029
-36.528
-36.569
-37.183
-38.317
-39.818
-41.314
-42.467
-43.078
-42.807
-41.271
-38.442
-34.46
-29.813
-25.582
-22.529
-21.019
-21.635
-24.755
-30.062
-36.938
-43.927
-48.444
-48.503
-42.664
-28.895
-5.561
27.956
71.954
124.424
180.701
238.095
294.524
347.811
397.923
440.072
466.505
472.529
453.326
410.231
349.449
272.84
184.096
87.997
-9.864
-95.689
-156.416
-186.135
-184.335
-158.714
-120.374
-77.261
-36.732
-6.338
9.122
7.17
-9.678
-32.354
-51.979
-63.103
-65.119
-62.835
-60.381
-59.037
-58.179
-55.397
-49.881
-42.849
-35.506
-28.961
-23.617
-19.186
-15.626
-13.136
-11.691
-11.075
-11.085
-11.513
-12.288
-13.477
-15.038
-16.856
-18.824
-20.846
-22.84
-24.746
-26.501
-28.044
-29.339
-30.361
-31.091
-31.51
-31.606
-31.379
-30.839
-30.007
-28.912
-27.585
-26.079
-24.457
-22.788
-21.135
-19.544
-18.038
-16.638
-15.362
-14.226
-13.247
-12.43
-11.772
-11.266
-10.906
-10.678
-10.563
-10.532
-10.551
-10.589
-10.618
-10.624
-10.6
-10.539
-10.441
-10.298
-10.104
-9.861
-9.567
-9.224
-8.839
-8.424
-8.003
-7.61
-7.263
-6.973
-6.739
-6.544
-6.364
-6.172
-5.923
-5.588
-5.139
-4.55
-3.807
-2.895
-1.788
-0.457
1.137
3.047
5.301
7.915
10.895
14.22
17.861
21.774
25.891
30.154
34.516
38.932
43.371
47.805
52.192
56.492
60.658
64.629
68.36
71.813
74.955
77.77
80.258
82.425
84.301
85.913
87.274
88.393
89.273
89.91
90.309
90.473
90.405
90.115
89.613
88.909
88.015
86.934
85.665
84.203
82.535
80.65
78.545
76.219
73.679
70.934
67.993
64.869
61.579
58.138
54.559
50.856
47.041
43.126
39.129
35.067
30.958
26.821
22.673
18.531
14.412
10.33
6.299
2.332
-1.562
-5.372
-9.087
-12.697
-16.191
-19.559
-22.794
-25.887
-28.83
-31.617
-34.243
-36.703
-38.996
-41.119
-43.07
-44.848
-46.454
-47.889
-49.154
-50.25
-51.181
-51.951
-52.564
-53.024
-53.337
-53.51
-53.548
-53.458
-53.248
-52.923
-52.493
-51.963
-51.343
-50.638
-49.858
-49.01
-48.103
-47.143
-46.138
-45.096
-44.024
-42.928
-41.816
-40.692
-39.562
-38.433
-37.308
-36.194
-35.094
-34.013
-32.955
-31.924
-30.923
-29.954
-29.02
-28.123
-27.264
-26.443
-25.663
-24.923
-24.223
-23.564
-22.945
-22.365
-21.823
-21.317
-20.847
-20.409
-20.003
-19.626
-19.276
-18.952
-18.653
-18.377
-18.122
-17.889
-17.674
-17.478
-17.298
-17.134
-16.984
-16.846
-16.719
-16.603
-16.496
-16.396
-16.304
-16.219
-16.139
-16.065
-15.996
-15.932
-15.872
-15.817
-15.767
-15.722
-15.683
-15.652
-15.63
-15.618
-15.617
-15.63
-15.656
-15.698
-15.754
-15.827
-15.915
-16.02
-16.141
-16.277
-16.43
-16.599
-16.783
-16.983
-17.2
-17.431
-17.678
-17.941
-18.218
-18.51
-18.816
-19.136
-19.47
-19.818
-20.178
-20.551
-20.935
-21.33
-21.732
-22.14
-22.553
-22.966
-23.378
-23.787
-24.188
-24.581
-24.963
-25.332
-25.686
-26.025
-26.348
-26.652
-26.937
-27.204
-27.451
-27.678
-27.884
-28.07
-28.236
-28.383
-28.51
-28.618
-28.708
-28.782
-28.843
-28.891
-28.93
-28.962
-28.991
-29.02
-29.053
-29.093
-29.142
-29.203
-29.281
-29.379
-29.504
-29.659
-29.848
-30.075
-30.343
-30.655
-31.011
-31.41
-31.848
-32.325
-32.842
-33.405
-34.024
-34.699
-35.434
-36.23
-37.082
-37.985
-38.928
-39.89
-40.85
-41.787
-42.682
-43.523
-44.297
-44.984
-45.558
-45.985
-46.233
-46.276
-46.093
-45.668
-45.002
-44.108
-43.019
-41.789
-40.465
-39.106
-37.776
-36.542
-35.48
-34.669
-34.178
-34.106
-34.583
-35.667
-37.331
-39.453
-41.772
-44.026
-46.002
-47.421
-47.927
-47.334
-45.713
-43.399
-41.073
-39.376
-38.649
-39.218
-41.454
-45.351
-50.39
-55.52
-59.032
-59.128
-54.447
-43.567
-25.074
1.823
37.425
81.358
132.024
187.367
244.463
298.798
347.07
386.96
417.28
439.368
451.489
449.937
431.5
391.65
330.212
250.035
155.134
53.884
-43.787
-124.472
-175.434
-190.349
-168.303
-120.722
-64.6
-14.587
14.969
22.083
14.18
-1.426
-14.329
-21.58
-28.361
-36.835
-49.027
-62.085
-66.806
-59.654
-40.686
-14.785
6.597
17.033
13.733
-1.26
-18.901
-33.187
-40.337
-39.889
-36.731
-33.995
-33.375
-35.391
-38.12
-40.534
-42.556
-44.057
-45.321
-46.411
-47.039
-47.111
-46.677
-45.78
-44.493
-42.895
-41.043
-39.01
-36.896
-34.785
-32.745
-30.864
-29.217
-27.853
-26.809
-26.089
-25.679
-25.552
-25.657
-25.94
-26.357
-26.869
-27.453
-28.089
-28.746
-29.391
-29.985
-30.476
-30.825
-31.003
-30.983
-30.757
-30.327
-29.709
-28.939
-28.048
-27.056
-25.979
-24.821
-23.58
-22.264
-20.875
-19.415
-17.894
-16.319
-14.697
-13.038
-11.343
-9.609
-7.826
-5.979
-4.05
-2.033
0.077
2.283
4.58
6.965
9.432
11.97
14.571
17.227
19.931
22.677
25.457
28.261
31.078
33.894
36.697
39.472
42.209
44.895
47.518
50.069
52.537
54.914
57.193
59.364
61.419
63.35
65.147
66.804
68.312
69.664
70.852
71.87
72.714
73.378
73.858
74.152
74.257
74.17
73.891
73.421
72.758
71.904
70.861
69.631
68.219
66.627
64.86
62.925
60.827
58.574
56.173
53.631
50.958
48.162
45.251
42.235
39.125
35.928
32.657
29.321
25.932
22.501
19.039
15.557
12.067
8.58
5.107
1.659
-1.754
-5.122
-8.435
-11.683
-14.858
-17.952
-20.955
-23.861
-26.663
-29.356
-31.933
-34.39
-36.725
-38.932
-41.01
-42.957
-44.772
-46.452
-47.999
-49.411
-50.69
-51.837
-52.852
-53.74
-54.502
-55.143
-55.665
-56.073
-56.373
-56.568
-56.665
-56.669
-56.585
-56.42
-56.18
-55.87
-55.496
-55.065
-54.583
-54.054
-53.486
-52.882
-52.248
-51.588
-50.907
-50.21
-49.5
-48.781
-48.057
-47.333
-46.61
-45.893
-45.186
-44.49
-43.81
-43.146
-42.502
-41.879
-41.278
-40.701
-40.148
-39.62
-39.118
-38.642
-38.192
-37.768
-37.37
-36.997
-36.65
-36.327
-36.028
-35.753
-35.501
-35.272
-35.066
-34.882
-34.721
-34.583
-34.468
-34.375
-34.303
-34.249
-34.214
-34.197
-34.197
-34.214
-34.246
-34.291
-34.349
-34.42
-34.505
-34.602
-34.706
-34.813
-34.919
-35.024
-35.128
-35.232
-35.332
-35.421
-35.495
-35.552
-35.594
-35.617
-35.619
-35.589
-35.524
-35.424
-35.294
-35.144
-34.978
-34.795
-34.595
-34.369
-34.119
-33.869
-33.65
-33.49
-33.4
-33.354
-33.324
-33.32
-33.379
-33.513
-33.638
-33.6
-33.347
-32.98
-32.683
-32.645
-32.793
-32.944
-33.246
-33.856
-34.631
-35.375
-35.446
-34.671
-34.475
-35.077
-35.415
-33.356
-24.577
-9.527
6.453
17.549
16.536
3.188
-15.488
-33.789
-45.872
-50.251
-50.953
-49.689
-47.484
-45.069
-41.181
-35.941
-30.201
-24.198
-18.604
-14.217
-11.48
-10.537
-11.13
-12.531
-14.172
-15.877
-17.555
-19.084
-20.244
-20.856
-20.963
-20.836
-20.717
-20.694
-20.759
-20.85
-20.965
-21.156
-21.432
-21.763
-22.108
-22.442
-22.781
-23.169
-23.635
-24.197
-24.855
-25.599
-26.422
-27.313
-28.251
-29.217
-30.187
-31.136
-32.045
-32.891
-33.649
-34.298
-34.805
-35.138
-35.275
-35.189
-34.865
-34.301
-33.511
-32.543
-31.466
-30.348
-29.254
-28.231
-27.327
-26.611
-26.153
-26.024
-26.305
-27.038
-28.281
-30.142
-32.618
-35.613
-38.945
-42.219
-45.038
-47.142
-48.159
-47.704
-45.765
-42.433
-38.037
-33.436
-29.255
-25.854
-23.845
-23.558
-24.545
-26.204
-27.49
-26.313
-20.869
-9.72
9.166
36.52
71.034
112.573
161.007
215.813
278.552
345.879
409.373
460.978
491.384
497.573
484.194
455.818
417.976
373.474
321.03
261.463
196.871
130.751
68.736
15.06
-27.482
-57.331
-74.619
-79.919
-74.402
-60.319
-40.549
-18.407
2.676
20.376
33.309
40.329
41.107
36.209
26.75
14.647
2.24
-9.02
-18.272
-24.675
-27.957
-28.263
-25.923
-21.907
-17.512
-13.46
-10.161
-7.977
-6.943
-7.044
-8.27
-10.282
-12.614
-15.008
-17.293
-19.369
-21.25
-22.885
-24.202
-25.217
-25.967
-26.476
-26.772
-26.848
-26.687
-26.302
-25.72
-24.971
-24.09
-23.104
-22.036
-20.916
-19.773
-18.641
-17.545
-16.503
-15.529
-14.628
-13.803
-13.058
-12.388
-11.783
-11.236
-10.735
-10.268
-9.828
-9.405
-8.989
-8.571
-8.141
-7.689
-7.206
-6.684
-6.116
-5.494
-4.812
-4.062
-3.242
-2.345
-1.368
-0.304
0.85
2.099
3.447
4.897
6.453
8.116
9.889
11.771
13.762
15.861
18.066
20.374
22.781
25.283
27.873
30.546
33.295
36.113
38.99
41.92
44.891
47.895
50.922
53.961
57.001
60.031
63.04
66.015
68.946
71.821
74.627
77.353
79.988
82.52
84.937
87.229
89.383
91.391
93.242
94.926
96.434
97.758
98.89
99.823
100.552
101.071
101.376
101.463
101.329
100.972
100.391
99.587
98.559
97.309
95.84
94.155
92.257
90.153
87.847
85.347
82.661
79.796
76.763
73.57
70.23
66.753
63.152
59.438
55.625
51.727
47.758
43.73
39.66
35.561
31.448
27.334
23.233
19.16
15.127
11.148
7.234
3.397
-0.352
-4.001
-7.542
-10.964
-14.259
-17.418
-20.436
-23.306
-26.022
-28.581
-30.978
-33.212
-35.282
-37.185
-38.924
-40.499
-41.913
-43.168
-44.268
-45.217
-46.022
-46.688
-47.222
-47.631
-47.922
-48.104
-48.184
-48.17
-48.071
-47.894
-47.648
-47.341
-46.98
-46.573
-46.129
-45.653
-45.154
-44.638
-44.112
-43.581
-43.051
-42.527
-42.013
-41.513
-41.03
-40.568
-40.128
-39.713
-39.324
-38.963
-38.628
-38.32
-38.038
-37.781
-37.547
-37.334
-37.139
-36.96
-36.794
-36.64
-36.493
-36.352
-36.213
-36.075
-35.934
-35.789
-35.638
-35.477
-35.305
-35.122
-34.924
-34.713
-34.486
-34.244
-33.986
-33.714
-33.428
-33.129
-32.817
-32.494
-32.163
-31.824
-31.481
-31.136
-30.792
-30.453
-30.123
-29.805
-29.504
-29.223
-28.966
-28.736
-28.539
-28.376
-28.252
-28.17
-28.133
-28.143
-28.205
-28.319
-28.487
-28.712
-28.993
-29.332
-29.729
-30.184
-30.695
-31.261
-31.882
-32.556
-33.281
-34.054
-34.872
-35.732
-36.63
-37.562
-38.524
-39.509
-40.514
-41.531
-42.556
-43.583
-44.605
-45.617
-46.613
-47.586
-48.531
-49.441
-50.311
-51.134
-51.906
-52.62
-53.272
-53.857
-54.372
-54.811
-55.173
-55.453
-55.65
-55.761
-55.783
-55.716
-55.558
-55.308
-54.968
-54.537
-54.017
-53.41
-52.718
-51.946
-51.096
-50.174
-49.184
-48.131
-47.023
-45.864
-44.661
-43.422
-42.153
-40.864
-39.564
-38.262
-36.969
-35.696
-34.452
-33.249
-32.097
-31.006
-29.983
-29.038
-28.176
-27.406
-26.736
-26.174
-25.728
-25.405
-25.209
-25.145
-25.218
-25.427
-25.77
-26.244
-26.844
-27.572
-28.431
-29.429
-30.568
-31.849
-33.272
-34.827
-36.506
-38.293
-40.162
-42.085
-44.033
-45.98
-47.906
-49.79
-51.607
-53.322
-54.891
-56.267
-57.413
-58.294
-58.882
-59.173
-59.17
-58.902
-58.415
-57.75
-56.961
-56.11
-55.268
-54.513
-53.936
-53.611
-53.647
-54.215
-55.397
-57.174
-59.407
-61.753
-63.86
-65.474
-66.268
-65.838
-64.023
-60.943
-57.067
-53.44
-51.06
-50.517
-52.352
-56.954
-64.145
-73.211
-82.681
-89.967
-92.379
-87.767
-74.064
-49.642
-13.693
33.869
91.909
157.548
227.203
297.246
363.471
421.638
467.852
498.217
510.576
505.66
485.001
450.667
403.574
340.986
261.688
168.326
68.121
-23.266
-90.115
-122.666
-117.095
-83.02
-36.753
6.076
30.069
31.145
14.663
-10.536
-31.569
-42.093
-42.948
-37.543
-32.185
-29.822
-29.573
-30.117
-29.584
-27.412
-24.403
-21.185
-18.231
-15.846
-14.139
-13.17
-12.96
-13.43
-14.435
-15.874
-17.694
-19.805
-22.098
-24.465
-26.787
-28.972
-30.953
-32.653
-34.009
-34.987
-35.568
-35.754
-35.56
-35.018
-34.166
-33.049
-31.713
-30.19
-28.509
-26.718
-24.873
-22.994
-21.099
-19.215
-17.345
-15.527
-13.82
-12.203
-10.636
-9.225
-8.093
-7.153
-6.402
-5.859
-5.234
-5.281
-6.729
-8.511
-10.296
-10.131
-5.682
0.488
6.676
10.338
7.977
2.703
-2.848
-6.868
-6.37
-3.474
-0.328
2.597
3.994
4.636
5.51
6.438
7.549
8.784
9.946
11.17
12.563
14.09
15.746
17.542
19.475
21.536
23.716
25.995
28.344
30.767
33.265
35.828
38.449
41.118
43.823
46.556
49.309
52.07
54.825
57.563
60.273
62.942
65.556
68.106
70.578
72.961
75.245
77.416
79.462
81.374
83.144
84.766
86.234
87.54
88.677
89.637
90.415
91.009
91.418
91.635
91.657
91.48
91.104
90.535
89.779
88.835
87.702
86.371
84.839
83.109
81.185
79.073
76.781
74.302
71.639
68.797
65.778
62.609
59.31
55.876
52.308
48.612
44.789
40.917
37.085
33.249
29.365
25.369
21.175
16.903
12.728
8.597
4.425
0.363
-3.417
-6.515
-8.456
-9.427
-9.873
-9.998
-9.933
-9.939
-10.308
-11.828
-15.446
-21.077
-28.076
-35.783
-43.634
-51.255
-58.298
-63.866
-66.839
-67.026
-64.954
-61.482
-57.391
-53.043
-48.683
-44.87
-42.39
-41.565
-42.164
-43.563
-45.175
-46.77
-48.277
-49.577
-50.411
-50.58
-50.128
-49.314
-48.394
-47.476
-46.562
-45.599
-44.59
-43.586
-42.604
-41.618
-40.593
-39.509
-38.381
-37.249
-36.149
-35.093
-34.088
-33.129
-32.213
-31.35
-30.543
-29.799
-29.124
-28.515
-27.973
-27.496
-27.083
-26.735
-26.449
-26.22
-26.041
-25.91
-25.825
-25.786
-25.796
-25.853
-25.954
-26.096
-26.275
-26.49
-26.738
-27.014
-27.316
-27.639
-27.98
-28.337
-28.705
-29.083
-29.468
-29.854
-30.241
-30.624
-31.003
-31.374
-31.735
-32.086
-32.424
-32.749
-33.059
-33.354
-33.633
-33.895
-34.141
-34.368
-34.579
-34.771
-34.945
-35.102
-35.241
-35.362
-35.467
-35.555
-35.627
-35.685
-35.73
-35.763
-35.785
-35.798
-35.803
-35.801
-35.794
-35.782
-35.765
-35.745
-35.722
-35.695
-35.665
-35.63
-35.59
-35.545
-35.494
-35.435
-35.368
-35.291
-35.204
-35.104
-34.991
-34.864
-34.721
-34.561
-34.383
-34.185
-33.967
-33.727
-33.464
-33.177
-32.863
-32.52
-32.149
-31.745
-31.308
-30.835
-30.326
-29.78
-29.196
-28.573
-27.913
-27.216
-26.482
-25.714
-24.912
-24.08
-23.219
-22.333
-21.424
-20.498
-19.556
-18.605
-17.65
-16.697
-15.752
-14.821
-13.909
-13.023
-12.173
-11.366
-10.609
-9.908
-9.268
-8.698
-8.203
-7.794
-7.476
-7.252
-7.126
-7.102
-7.185
-7.382
-7.694
-8.119
-8.647
-9.273
-9.999
-10.83
-11.769
-12.815
-13.962
-15.206
-16.546
-17.979
-19.501
-21.09
-22.719
-24.361
-25.984
-27.582
-29.152
-30.688
-32.177
-33.578
-34.83
-35.895
-36.753
-37.388
-37.813
-38.006
-37.893
-37.529
-37.079
-36.709
-36.625
-36.877
-37.286
-37.813
-38.65
-39.819
-41.147
-42.359
-42.873
-42.426
-41.367
-39.843
-37.669
-34.807
-31.311
-27.508
-24.492
-23.097
-23.306
-25.263
-29.149
-34.955
-42.814
-52.359
-61.962
-69.799
-74.465
-74.249
-67.748
-53.704
-30.405
3.245
46.928
99.506
159.243
223.446
289.337
353.763
412.474
461.101
495.899
513.8
513.61
496.403
463.464
415.949
353.348
274.505
182.55
85.68
-2.199
-67.409
-104.775
-117.144
-114.073
-103.305
-84.777
-56.343
-16.142
30.01
67.795
86.844
82.297
58.808
30.592
7.251
-6.968
-12.374
-15.266
-18.941
-22.848
-26.037
-26.556
-23.941
-19.747
-15.443
-11.83
-9.294
-7.967
-7.783
-8.705
-10.597
-12.997
-15.43
-17.694
-19.679
-21.335
-22.692
-23.703
-24.322
-24.596
-24.575
-24.288
-23.761
-22.992
-21.987
-20.798
-19.497
-18.163
-16.871
-15.67
-14.592
-13.655
-12.863
-12.207
-11.679
-11.269
-10.969
-10.771
-10.666
-10.644
-10.687
-10.769
-10.855
-10.898
-10.856
-10.702
-10.42
-10.009
-9.483
-8.866
-8.178
-7.438
-6.656
-5.839
-4.988
-4.101
-3.177
-2.213
-1.21
-0.178
0.876
1.947
3.036
4.151
5.305
6.518
7.806
9.184
10.665
12.255
13.957
15.772
17.696
19.724
21.852
24.075
26.391
28.798
31.29
33.861
36.501
39.202
41.952
44.738
47.55
50.376
53.205
56.025
58.829
61.605
64.345
67.039
69.675
72.24
74.725
77.119
79.412
81.593
83.65
85.571
87.351
88.984
90.456
91.752
92.862
93.771
94.482
95.005
95.326
95.429
95.341
95.082
94.669
94.129
93.441
92.567
91.532
90.384
89.013
87.293
85.307
83.056
80.52
77.995
74.714
69.933
64.737
59.463
56.101
57.031
59.642
62.199
62.11
55.813
46.482
36.809
28.642
25.028
23.809
22.798
21.518
18.637
14.946
11.455
7.984
4.669
1.452
-1.861
-5.129
-8.238
-11.217
-14.066
-16.766
-19.315
-21.716
-23.969
-26.088
-28.095
-29.978
-31.726
-33.341
-34.823
-36.172
-37.39
-38.477
-39.432
-40.257
-40.959
-41.539
-42.003
-42.355
-42.598
-42.737
-42.778
-42.724
-42.581
-42.353
-42.047
-41.666
-41.216
-40.703
-40.132
-39.509
-38.839
-38.129
-37.382
-36.606
-35.805
-34.984
-34.15
-33.306
-32.459
-31.614
-30.774
-29.946
-29.132
-28.338
-27.567
-26.822
-26.106
-25.422
-24.772
-24.158
-23.583
-23.048
-22.555
-22.105
-21.701
-21.343
-21.032
-20.769
-20.555
-20.389
-20.272
-20.204
-20.185
-20.213
-20.289
-20.411
-20.579
-20.791
-21.045
-21.339
-21.672
-22.042
-22.444
-22.879
-23.342
-23.832
-24.347
-24.884
-25.441
-26.017
-26.609
-27.214
-27.832
-28.46
-29.094
-29.734
-30.377
-31.021
-31.664
-32.303
-32.938
-33.566
-34.184
-34.792
-35.387
-35.967
-36.531
-37.076
-37.603
-38.108
-38.592
-39.054
-39.493
-39.908
-40.3
-40.667
-41.01
-41.327
-41.619
-41.885
-42.124
-42.337
-42.523
-42.681
-42.812
-42.916
-42.993
-43.043
-43.066
-43.062
-43.032
-42.976
-42.893
-42.785
-42.652
-42.495
-42.314
-42.111
-41.887
-41.642
-41.377
-41.094
-40.792
-40.473
-40.137
-39.785
-39.417
-39.034
-38.637
-38.227
-37.806
-37.373
-36.93
-36.478
-36.019
-35.553
-35.082
-34.607
-34.129
-33.649
-33.171
-32.695
-32.223
-31.758
-31.302
-30.858
-30.429
-30.018
-29.629
-29.265
-28.929
-28.625
-28.357
-28.127
-27.938
-27.794
-27.695
-27.645
-27.648
-27.704
-27.819
-27.994
-28.232
-28.536
-28.907
-29.341
-29.84
-30.401
-31.022
-31.709
-32.462
-33.282
-34.17
-35.126
-36.147
-37.229
-38.356
-39.507
-40.661
-41.795
-42.888
-43.927
-44.893
-45.768
-46.533
-47.162
-47.633
-47.93
-48.032
-47.924
-47.598
-47.061
-46.347
-45.524
-44.655
-43.803
-43.012
-42.325
-41.805
-41.529
-41.56
-41.948
-42.721
-43.918
-45.645
-47.969
-50.826
-54.029
-57.244
-60.131
-62.444
-63.877
-64.003
-62.555
-59.552
-55.379
-50.796
-46.398
-42.712
-40.503
-40.369
-42.663
-46.406
-48.939
-48.666
-44.84
-37.809
-29.922
-18.606
1.297
32.883
81.25
144.441
216.001
294.03
371.753
442.541
499.733
529.65
525.076
487.171
424.09
351.491
279.427
208.98
136.157
56.919
-24.115
-94.096
-139.961
-155.51
-144.583
-118.889
-90.266
-65.274
-45.655
-29.463
-14.53
-1.083
9.305
14.79
14.501
9.204
1.264
-7.559
-16.634
-24.44
-30.537
-32.991
-29.259
-21.948
-13.473
-7.471
-8.17
-12.68
-18.308
-23.065
-23.967
-23.214
-22.784
-22.779
-24.213
-26.131
-27.499
-28.564
-29.19
-29.396
-29.388
-29.075
-28.42
-27.538
-26.499
-25.331
-24.097
-22.863
-21.683
-20.621
-19.722
-18.978
-18.369
-17.885
-17.51
-17.235
-17.055
-16.959
-16.93
-16.948
-16.984
-17.004
-16.969
-16.843
-16.599
-16.219
-15.703
-15.062
-14.322
-13.505
-12.63
-11.709
-10.749
-9.751
-8.718
-7.649
-6.543
-5.404
-4.241
-3.063
-1.877
-0.684
0.524
1.759
3.038
4.377
5.79
7.289
8.88
10.566
12.348
14.224
16.188
18.238
20.372
22.589
24.889
27.268
29.722
32.245
34.828
37.464
40.142
42.853
45.589
48.341
51.1
53.859
56.612
59.351
62.069
64.755
67.402
70
72.539
75.008
77.399
79.702
81.906
84.003
85.984
87.842
89.567
91.151
92.589
93.871
94.991
95.944
96.722
97.321
97.736
97.962
97.996
97.836
97.478
96.922
96.166
95.211
94.057
92.705
91.157
89.416
87.485
85.37
83.074
80.604
77.967
75.17
72.223
69.133
65.91
62.565
59.109
55.552
51.905
48.182
44.394
40.554
36.674
32.767
28.846
24.924
21.014
17.128
13.28
9.48
5.742
2.077
-1.504
-4.991
-8.374
-11.643
-14.79
-17.807
-20.686
-23.422
-26.008
-28.44
-30.715
-32.83
-34.782
-36.571
-38.198
-39.661
-40.964
-42.109
-43.098
-43.936
-44.627
-45.175
-45.588
-45.869
-46.027
-46.068
-45.999
-45.828
-45.562
-45.21
-44.779
-44.277
-43.713
-43.094
-42.428
-41.722
-40.985
-40.223
-39.442
-38.65
-37.853
-37.055
-36.263
-35.48
-34.71
-33.957
-33.224
-32.512
-31.824
-31.161
-30.524
-29.912
-29.327
-28.767
-28.231
-27.72
-27.231
-26.763
-26.314
-25.882
-25.466
-25.063
-24.671
-24.289
-23.914
-23.544
-23.177
-22.811
-22.444
-22.075
-21.701
-21.323
-20.937
-20.544
-20.143
-19.732
-19.313
-18.885
-18.448
-18.004
-17.554
-17.1
-16.643
-16.185
-15.729
-15.278
-14.833
-14.399
-13.978
-13.573
-13.186
-12.822
-12.482
-12.17
-11.888
-11.64
-11.426
-11.25
-11.113
-11.019
-10.967
-10.961
-11
-11.088
-11.223
-11.409
-11.644
-11.93
-12.266
-12.652
-13.089
-13.574
-14.106
-14.684
-15.304
-15.966
-16.665
-17.397
-18.161
-18.95
-19.762
-20.592
-21.435
-22.288
-23.144
-24
-24.851
-25.692
-26.519
-27.328
-28.113
-28.871
-29.599
-30.291
-30.945
-31.556
-32.121
-32.636
-33.097
-33.5
-33.843
-34.122
-34.335
-34.478
-34.55
-34.55
-34.477
-34.329
-34.107
-33.812
-33.444
-33.005
-32.495
-31.918
-31.277
-30.573
-29.811
-28.994
-28.125
-27.21
-26.251
-25.254
-24.223
-23.161
-22.075
-20.968
-19.846
-18.715
-17.581
-16.452
-15.334
-14.236
-13.166
-12.133
-11.145
-10.211
-9.339
-8.536
-7.809
-7.163
-6.605
-6.139
-5.772
-5.508
-5.352
-5.31
-5.384
-5.577
-5.891
-6.325
-6.878
-7.548
-8.332
-9.233
-10.253
-11.39
-12.647
-14.023
-15.513
-17.11
-18.797
-20.553
-22.351
-24.166
-25.973
-27.748
-29.471
-31.117
-32.663
-34.082
-35.346
-36.431
-37.311
-37.968
-38.39
-38.579
-38.565
-38.399
-38.137
-37.838
-37.549
-37.312
-37.19
-37.248
-37.554
-38.177
-39.16
-40.563
-42.491
-44.979
-47.97
-51.302
-54.635
-57.598
-59.913
-61.255
-61.23
-59.656
-56.569
-52.288
-47.63
-43.402
-40.131
-38.364
-38.558
-40.737
-44.473
-48.706
-51.447
-50.584
-44.305
-30.751
-8.392
23.683
65.686
116.715
174.527
236.124
298.092
356.433
407.222
446.786
471.893
480.362
471.068
444.126
401.143
345.037
279.417
208.422
136.408
67.617
6.434
-43.527
-80.36
-103.581
-113.805
-112.412
-101.128
-82.387
-59.738
-36.823
-16.326
0.13
11.899
18.71
20.217
16.789
9.828
1.246
-7.197
-14.478
-20.323
-24.543
-26.715
-26.734
-24.965
-22.208
-19.504
-17.432
-16.105
-15.571
-15.93
-17.226
-19.43
-22.284
-25.314
-28.217
-30.863
-33.18
-35.166
-36.796
-38.016
-38.836
-39.325
-39.536
-39.511
-39.274
-38.817
-38.152
-37.307
-36.314
-35.217
-34.056
-32.863
-31.667
-30.492
-29.352
-28.261
-27.23
-26.26
-25.351
-24.497
-23.692
-22.935
-22.223
-21.553
-20.918
-20.307
-19.71
-19.117
-18.522
-17.916
-17.294
-16.648
-15.972
-15.26
-14.509
-13.713
-12.869
-11.97
-11.012
-9.989
-8.895
-7.727
-6.48
-5.15
-3.733
-2.225
-0.625
1.069
2.859
4.747
6.732
8.816
10.997
13.275
15.646
18.108
20.658
23.289
25.998
28.776
31.618
34.514
37.456
40.434
43.44
46.462
49.49
52.513
55.519
58.497
61.435
64.321
67.143
69.89
72.549
75.109
77.558
79.885
82.08
84.13
86.026
87.757
89.313
90.685
91.864
92.84
93.608
94.16
94.491
94.596
94.472
94.115
93.526
92.703
91.647
90.36
88.846
87.109
85.153
82.985
80.613
78.044
75.288
72.354
69.253
65.997
62.597
59.065
55.415
51.661
47.816
43.895
39.913
35.885
31.828
27.756
23.685
19.631
15.61
11.635
7.721
3.883
0.133
-3.517
-7.055
-10.471
-13.754
-16.896
-19.89
-22.729
-25.408
-27.921
-30.267
-32.443
-34.447
-36.28
-37.941
-39.432
-40.757
-41.917
-42.917
-43.762
-44.457
-45.008
-45.423
-45.708
-45.873
-45.924
-45.872
-45.724
-45.491
-45.182
-44.805
-44.371
-43.887
-43.364
-42.808
-42.229
-41.633
-41.028
-40.42
-39.816
-39.219
-38.636
-38.07
-37.526
-37.005
-36.511
-36.046
-35.61
-35.206
-34.833
-34.491
-34.181
-33.902
-33.652
-33.43
-33.234
-33.063
-32.914
-32.785
-32.673
-32.575
-32.489
-32.411
-32.34
-32.272
-32.206
-32.139
-32.069
-31.995
-31.916
-31.829
-31.735
-31.632
-31.521
-31.4
-31.27
-31.131
-30.984
-30.829
-30.667
-30.499
-30.327
-30.151
-29.973
-29.794
-29.616
-29.441
-29.269
-29.102
-28.942
-28.791
-28.651
-28.523
-28.408
-28.308
-28.225
-28.159
-28.111
-28.081
-28.071
-28.08
-28.108
-28.154
-28.22
-28.303
-28.404
-28.522
-28.656
-28.805
-28.968
-29.144
-29.333
-29.532
-29.741
-29.958
-30.182
-30.413
-30.649
-30.889
-31.132
-31.376
-31.62
-31.863
-32.104
-32.341
-32.573
-32.799
-33.018
-33.228
-33.429
-33.621
-33.803
-33.975
-34.136
-34.286
-34.426
-34.555
-34.673
-34.781
-34.877
-34.963
-35.039
-35.103
-35.157
-35.2
-35.232
-35.253
-35.262
-35.26
-35.245
-35.219
-35.18
-35.128
-35.063
-34.985
-34.893
-34.788
-34.669
-34.536
-34.389
-34.228
-34.053
-33.863
-33.658
-33.437
-33.2
-32.946
-32.676
-32.388
-32.082
-31.758
-31.416
-31.057
-30.681
-30.287
-29.878
-29.454
-29.017
-28.567
-28.107
-27.639
-27.164
-26.686
-26.207
-25.731
-25.262
-24.805
-24.365
-23.948
-23.56
-23.205
-22.892
-22.624
-22.406
-22.241
-22.134
-22.089
-22.111
-22.205
-22.377
-22.63
-22.968
-23.395
-23.913
-24.522
-25.221
-26.005
-26.873
-27.826
-28.87
-30.012
-31.255
-32.6
-34.047
-35.59
-37.222
-38.926
-40.679
-42.454
-44.225
-45.968
-47.664
-49.294
-50.835
-52.255
-53.51
-54.563
-55.381
-55.935
-56.207
-56.195
-55.907
-55.375
-54.652
-53.785
-52.832
-51.856
-50.922
-50.107
-49.488
-49.144
-49.178
-49.734
-50.886
-52.61
-54.774
-57.093
-59.268
-61.056
-62.154
-62.169
-60.879
-58.367
-55.028
-51.655
-49.056
-47.696
-47.959
-50.301
-54.798
-60.881
-67.344
-72.19
-73.188
-68.625
-56.916
-36.365
-5.795
35.089
85.559
143.639
206.514
271.233
334.409
392.15
440.406
475.417
494.489
495.858
479.594
447.897
402.629
345.823
279.398
203.871
124.228
49.373
-12.268
-52.815
-72.633
-78.571
-76.069
-68.944
-55.432
-32.838
-4.777
20.612
33.483
28.619
9.509
-14.107
-32.545
-41.115
-40.723
-36.296
-31.988
-29.031
-26.995
-24.607
-21.459
-18.252
-15.722
-14.255
-13.822
-14.163
-15.06
-16.41
-18.095
-19.973
-21.924
-23.882
-25.828
-27.732
-29.542
-31.169
-32.524
-33.554
-34.228
-34.533
-34.472
-34.058
-33.311
-32.265
-30.959
-29.428
-27.706
-25.826
-23.818
-21.721
-19.576
-17.423
-15.305
-13.254
-11.292
-9.432
-7.684
-6.048
-4.523
-3.104
-1.782
-0.551
0.594
1.657
2.642
3.556
4.406
5.2
5.947
6.658
7.338
7.998
8.642
9.28
9.916
10.557
11.209
11.876
12.568
13.291
14.053
14.862
15.726
16.652
17.647
18.718
19.87
21.109
22.438
23.862
25.383
27.005
28.727
30.553
32.481
34.512
36.643
38.872
41.195
43.608
46.104
48.678
51.319
54.021
56.772
59.564
62.387
65.229
68.082
70.933
73.773
76.593
79.379
82.122
84.807
87.422
89.953
92.387
94.71
96.909
98.969
100.879
102.629
104.207
105.603
106.806
107.802
108.579
109.131
109.454
109.544
109.403
109.029
108.432
107.626
106.625
105.443
104.089
102.561
100.859
98.988
96.95
94.75
92.387
89.848
87.127
84.22
81.123
77.832
74.329
70.581
66.567
62.269
57.688
52.844
47.755
42.444
36.94
31.283
25.524
19.736
13.974
8.284
2.713
-2.694
-7.875
-12.749
-17.251
-21.332
-24.956
-28.115
-30.798
-32.998
-34.732
-36.031
-36.943
-37.537
-37.864
-37.957
-37.855
-37.592
-37.215
-36.789
-36.362
-35.968
-35.635
-35.378
-35.21
-35.15
-35.192
-35.316
-35.493
-35.683
-35.858
-36.008
-36.123
-36.192
-36.204
-36.139
-35.991
-35.76
-35.447
-35.055
-34.584
-34.035
-33.417
-32.748
-32.05
-31.344
-30.65
-29.975
-29.328
-28.717
-28.148
-27.625
-27.15
-26.719
-26.33
-25.984
-25.682
-25.425
-25.212
-25.04
-24.905
-24.803
-24.73
-24.685
-24.665
-24.668
-24.692
-24.736
-24.8
-24.884
-24.989
-25.112
-25.251
-25.405
-25.572
-25.75
-25.936
-26.13
-26.328
-26.53
-26.733
-26.938
-27.143
-27.348
-27.551
-27.752
-27.949
-28.143
-28.333
-28.516
-28.694
-28.865
-29.028
-29.183
-29.33
-29.468
-29.597
-29.717
-29.828
-29.929
-30.021
-30.105
-30.18
-30.247
-30.307
-30.361
-30.41
-30.455
-30.497
-30.538
-30.578
-30.619
-30.662
-30.707
-30.756
-30.81
-30.869
-30.934
-31.006
-31.087
-31.176
-31.276
-31.386
-31.509
-31.643
-31.791
-31.954
-32.13
-32.323
-32.531
-32.755
-32.995
-33.251
-33.523
-33.81
-34.112
-34.428
-34.757
-35.097
-35.448
-35.808
-36.176
-36.55
-36.928
-37.309
-37.692
-38.073
-38.453
-38.827
-39.196
-39.557
-39.907
-40.246
-40.572
-40.883
-41.177
-41.452
-41.707
-41.938
-42.145
-42.324
-42.475
-42.594
-42.682
-42.735
-42.754
-42.736
-42.68
-42.587
-42.454
-42.282
-42.069
-41.817
-41.523
-41.19
-40.817
-40.405
-39.954
-39.467
-38.945
-38.389
-37.8
-37.181
-36.534
-35.859
-35.161
-34.441
-33.702
-32.948
-32.182
-31.411
-30.639
-29.872
-29.118
-28.381
-27.67
-26.991
-26.35
-25.752
-25.203
-24.707
-24.269
-23.894
-23.59
-23.361
-23.212
-23.148
-23.174
-23.292
-23.506
-23.813
-24.212
-24.702
-25.284
-25.963
-26.744
-27.632
-28.629
-29.734
-30.945
-32.252
-33.64
-35.082
-36.553
-38.023
-39.466
-40.862
-42.191
-43.428
-44.546
-45.509
-46.286
-46.848
-47.173
-47.239
-47.039
-46.592
-45.94
-45.152
-44.301
-43.442
-42.632
-41.942
-41.455
-41.248
-41.39
-41.929
-42.929
-44.509
-46.736
-49.571
-52.834
-56.198
-59.34
-61.987
-63.801
-64.338
-63.314
-60.724
-56.981
-52.866
-48.973
-45.864
-44.292
-44.803
-47.765
-52.146
-55.024
-54.547
-49.856
-41.373
-31.763
-18.724
3.875
41.141
98.982
175.162
259.447
342.567
414.228
468.347
504.838
523.495
525.241
510.663
479.46
430.77
362.446
276.47
178.359
79.058
-4.101
-60.18
-85.762
-85.447
-73.112
-58.636
-46.591
-37.961
-28.991
-18.801
-9.027
-1.14
2.595
1.868
-1.867
-7.326
-12.85
-17.013
-19.347
-19.72
-18.289
-15.588
-12.161
-8.473
-5.063
-2.412
-0.726
-0.057
-0.337
-1.372
-3.005
-5.107
-7.525
-10.116
-12.772
-15.394
-17.904
-20.241
-22.329
-24.104
-25.53
-26.582
-27.263
-27.585
-27.57
-27.246
-26.652
-25.822
-24.791
-23.591
-22.254
-20.818
-19.323
-17.809
-16.314
-14.868
-13.49
-12.193
-10.983
-9.86
-8.818
-7.849
-6.942
-6.088
-5.28
-4.511
-3.776
-3.069
-2.379
-1.699
-1.02
-0.335
0.364
1.084
1.828
2.603
3.412
4.259
5.147
6.079
7.062
8.099
9.196
10.358
11.588
12.891
14.269
15.727
17.265
18.885
20.589
22.375
24.245
26.197
28.229
30.339
32.525
34.783
37.109
39.498
41.944
44.443
46.987
49.571
52.186
54.826
57.483
60.148
62.812
65.466
68.101
70.707
73.274
75.793
78.254
80.646
82.96
85.187
87.315
89.337
91.243
93.023
94.67
96.174
97.528
98.726
99.759
100.622
101.31
101.817
102.139
102.272
102.213
101.961
101.512
100.867
100.025
98.986
97.752
96.326
94.711
92.91
90.928
88.77
86.444
83.954
81.31
78.518
75.588
72.529
69.35
66.062
62.675
59.202
55.653
52.041
48.376
44.672
40.94
37.192
33.44
29.695
25.97
22.277
18.625
15.027
11.492
8.03
4.651
1.364
-1.824
-4.905
-7.873
-10.72
-13.443
-16.036
-18.494
-20.816
-22.997
-25.036
-26.932
-28.685
-30.295
-31.762
-33.089
-34.278
-35.331
-36.252
-37.046
-37.715
-38.265
-38.701
-39.029
-39.254
-39.382
-39.421
-39.377
-39.256
-39.065
-38.81
-38.499
-38.138
-37.733
-37.291
-36.816
-36.317
-35.797
-35.263
-34.72
-34.174
-33.627
-33.086
-32.554
-32.034
-31.529
-31.042
-30.576
-30.132
-29.713
-29.32
-28.953
-28.615
-28.306
-28.025
-27.773
-27.548
-27.352
-27.182
-27.037
-26.918
-26.821
-26.746
-26.693
-26.658
-26.642
-26.642
-26.656
-26.684
-26.724
-26.773
-26.832
-26.897
-26.968
-27.045
-27.125
-27.209
-27.296
-27.386
-27.479
-27.574
-27.672
-27.772
-27.876
-27.984
-28.096
-28.213
-28.337
-28.467
-28.606
-28.754
-28.911
-29.08
-29.26
-29.452
-29.657
-29.876
-30.11
-30.358
-30.621
-30.901
-31.197
-31.509
-31.839
-32.185
-32.548
-32.928
-33.322
-33.732
-34.155
-34.591
-35.037
-35.493
-35.956
-36.424
-36.896
-37.368
-37.839
-38.306
-38.766
-39.217
-39.657
-40.083
-40.493
-40.885
-41.257
-41.608
-41.936
-42.239
-42.516
-42.767
-42.989
-43.182
-43.345
-43.477
-43.578
-43.648
-43.685
-43.691
-43.665
-43.608
-43.521
-43.403
-43.257
-43.083
-42.884
-42.659
-42.412
-42.145
-41.858
-41.555
-41.237
-40.907
-40.566
-40.215
-39.857
-39.493
-39.123
-38.749
-38.371
-37.99
-37.606
-37.219
-36.831
-36.439
-36.046
-35.65
-35.251
-34.848
-34.442
-34.032
-33.617
-33.197
-32.772
-32.341
-31.903
-31.459
-31.009
-30.551
-30.085
-29.612
-29.131
-28.642
-28.146
-27.644
-27.135
-26.623
-26.109
-25.598
-25.092
-24.597
-24.116
-23.656
-23.221
-22.817
-22.447
-22.115
-21.825
-21.582
-21.389
-21.253
-21.177
-21.165
-21.221
-21.348
-21.547
-21.821
-22.167
-22.582
-23.066
-23.618
-24.246
-24.955
-25.748
-26.63
-27.599
-28.653
-29.787
-30.991
-32.247
-33.532
-34.824
-36.102
-37.351
-38.553
-39.687
-40.721
-41.618
-42.342
-42.864
-43.158
-43.204
-42.996
-42.54
-41.863
-41.009
-40.019
-38.946
-37.846
-36.784
-35.84
-35.086
-34.583
-34.425
-34.741
-35.602
-37.002
-38.832
-40.825
-42.741
-44.427
-45.644
-46.036
-45.384
-43.715
-41.347
-39.018
-37.373
-36.543
-36.836
-38.9
-42.872
-48.443
-54.159
-56.834
-54.615
-47.284
-35.564
-21.852
-5.507
16.758
49.187
97.745
163.195
241.407
323.846
396.875
450.467
478.809
481.908
466.089
437.064
400.492
358.825
310.675
254.215
185.966
106.931
23.592
-53.05
-108.944
-137.155
-137.173
-116.475
-87.61
-57.669
-33.131
-15.884
-3.993
1.146
1.943
0.34
-3.424
-6.644
-9.569
-12.612
-15.044
-17.486
-19.242
-19.663
-19.041
-17.365
-15.329
-13.734
-12.835
-12.8
-13.599
-15.041
-17.073
-19.667
-22.6
-25.659
-28.681
-31.494
-34.041
-36.301
-38.217
-39.749
-40.895
-41.658
-42.056
-42.127
-41.891
-41.373
-40.609
-39.627
-38.461
-37.148
-35.722
-34.219
-32.677
-31.127
-29.597
-28.102
-26.659
-25.276
-23.959
-22.71
-21.523
-20.393
-19.315
-18.287
-17.305
-16.365
-15.461
-14.587
-13.737
-12.906
-12.088
-11.278
-10.471
-9.661
-8.845
-8.017
-7.175
-6.315
-5.431
-4.518
-3.569
-2.579
-1.542
-0.453
0.696
1.908
3.19
4.546
5.978
7.492
9.09
10.775
12.55
14.416
16.373
18.423
20.564
22.796
25.114
27.517
30
32.556
35.181
37.867
40.608
43.395
46.222
49.08
51.962
54.858
57.759
60.654
63.532
66.38
69.186
71.936
74.617
77.216
79.722
82.122
84.406
86.565
88.589
90.467
92.187
93.735
95.099
96.271
97.244
98.016
98.589
98.967
99.158
99.17
99.01
98.68
98.177
97.491
96.615
95.538
94.258
92.779
91.106
89.241
87.185
84.936
82.484
79.817
76.915
73.757
70.329
66.633
62.682
58.509
54.154
49.665
45.081
40.433
35.75
31.058
26.386
21.762
17.224
12.814
8.581
4.586
0.875
-2.521
-5.589
-8.341
-10.802
-13.011
-15.001
-16.796
-18.417
-19.88
-21.198
-22.383
-23.453
-24.426
-25.332
-26.212
-27.097
-28.013
-28.969
-29.959
-30.964
-31.954
-32.905
-33.796
-34.613
-35.347
-35.997
-36.562
-37.045
-37.45
-37.774
-38.008
-38.144
-38.177
-38.107
-37.943
-37.697
-37.389
-37.035
-36.651
-36.251
-35.842
-35.431
-35.02
-34.608
-34.194
-33.777
-33.359
-32.942
-32.53
-32.125
-31.727
-31.335
-30.948
-30.564
-30.182
-29.798
-29.411
-29.018
-28.618
-28.211
-27.799
-27.384
-26.968
-26.551
-26.134
-25.716
-25.299
-24.882
-24.466
-24.047
-23.623
-23.194
-22.76
-22.328
-21.903
-21.485
-21.075
-20.668
-20.26
-19.85
-19.439
-19.022
-18.598
-18.163
-17.72
-17.279
-16.849
-16.438
-16.048
-15.672
-15.301
-14.934
-14.587
-14.287
-14.069
-13.946
-13.913
-13.954
-14.064
-14.249
-14.534
-14.903
-15.285
-15.663
-16.117
-16.832
-18.009
-19.697
-21.725
-23.888
-26.124
-28.341
-30.301
-31.533
-31.458
-29.852
-27.038
-23.592
-19.885
-16.187
-12.844
-10.453
-9.826
-11.355
-14.706
-19.117
-23.994
-28.974
-33.769
-37.965
-40.913
-42.224
-42.079
-41.045
-39.616
-38.056
-36.481
-34.992
-33.852
-33.269
-33.2
-33.412
-33.675
-33.868
-33.984
-34.068
-34.105
-34.048
-33.897
-33.685
-33.47
-33.29
-33.145
-33.004
-32.836
-32.63
-32.396
-32.153
-31.917
-31.706
-31.537
-31.43
-31.418
-31.526
-31.759
-32.11
-32.551
-33.045
-33.571
-34.12
-34.681
-35.249
-35.811
-36.353
-36.863
-37.324
-37.705
-37.961
-38.056
-37.963
-37.647
-37.089
-36.308
-35.324
-34.188
-32.964
-31.651
-30.217
-28.797
-27.544
-26.389
-25.356
-24.49
-23.536
-23.305
-24.579
-26.31
-28.173
-28.194
-24.001
-18.167
-12.405
-9.274
-12.293
-18.331
-24.729
-29.674
-30.172
-28.361
-26.397
-24.737
-24.681
-25.454
-26.081
-26.773
-27.427
-28.12
-29.042
-30.058
-31.079
-32.154
-33.308
-34.531
-35.783
-37.034
-38.279
-39.492
-40.625
-41.614
-42.345
-42.709
-42.735
-42.496
-42.082
-41.779
-41.929
-42.467
-43.165
-44.054
-44.807
-45.847
-48.543
-51.997
-54.467
-53.657
-45.236
-30.112
-13.645
-1.192
-0.37
-12.065
-29.663
-47.407
-58.564
-61.222
-59.813
-57.156
-55.291
-54.868
-54.133
-52.736
-51.685
-51.909
-54.123
-58.022
-62.333
-65.369
-65.288
-60.434
-48.972
-28.878
1.244
41.794
92.094
150.239
213.479
278.927
343.145
401.896
450.816
485.878
503.896
503.65
485.994
452.281
403.866
340.596
261.813
170.339
73.639
-15.379
-83.255
-122.813
-135.011
-128.375
-112.719
-94.252
-74.618
-52.21
-26.971
-0.952
22.54
39.478
48.13
48.802
42.396
31.003
16.986
2.147
-11.549
-22.514
-30.103
-34.031
-34.401
-31.957
-27.651
-22.437
-17.407
-13.335
-10.559
-9.266
-9.394
-10.613
-12.523
-14.773
-17.08
-19.321
-21.478
-23.478
-25.328
-27.202
-29.238
-31.258
-32.811
-34.037
-35.94
-39.477
-44.349
-47.058
-42.157
-26.757
-3.54
18.664
29.657
24.231
5.581
-16.287
-32.119
-37.241
-32.899
-25.105
-18.048
-13.353
-11.125
-9.482
-7.541
-5.602
-3.722
-2.224
-1.369
-0.908
-0.576
-0.273
0.162
0.8
1.544
2.35
3.224
4.131
5.057
6.011
6.969
7.927
8.92
9.973
11.108
12.341
13.668
15.083
16.59
18.192
19.892
21.693
23.595
25.597
27.696
29.891
32.179
34.557
37.017
39.553
42.154
44.815
47.53
50.294
53.1
55.94
58.804
61.683
64.567
67.447
70.311
73.148
75.948
78.698
81.387
84.005
86.539
88.978
91.312
93.528
95.617
97.567
99.37
101.015
102.494
103.797
104.918
105.849
106.583
107.115
107.439
107.552
107.451
107.133
106.596
105.841
104.868
103.678
102.273
100.657
98.834
96.808
94.585
92.173
89.578
86.809
83.876
80.787
77.554
74.187
70.698
67.099
63.401
59.618
55.763
51.847
47.886
43.892
39.879
35.86
31.848
27.856
23.898
19.984
16.128
12.341
8.632
5.014
1.495
-1.915
-5.208
-8.377
-11.413
-14.311
-17.065
-19.671
-22.123
-24.42
-26.559
-28.538
-30.355
-32.011
-33.506
-34.841
-36.017
-37.038
-37.905
-38.623
-39.196
-39.627
-39.923
-40.089
-40.131
-40.055
-39.868
-39.577
-39.188
-38.709
-38.148
-37.511
-36.805
-36.039
-35.219
-34.353
-33.449
-32.512
-31.55
-30.569
-29.577
-28.579
-27.581
-26.589
-25.609
-24.645
-23.702
-22.786
-21.9
-21.049
-20.235
-19.463
-18.735
-18.054
-17.422
-16.84
-16.311
-15.834
-15.412
-15.043
-14.729
-14.469
-14.262
-14.108
-14.006
-13.955
-13.953
-14
-14.092
-14.228
-14.407
-14.626
-14.883
-15.176
-15.503
-15.861
-16.248
-16.662
-17.099
-17.558
-18.035
-18.528
-19.035
-19.553
-20.079
-20.611
-21.146
-21.683
-22.22
-22.754
-23.285
-23.809
-24.327
-24.837
-25.338
-25.828
-26.307
-26.774
-27.228
-27.669
-28.096
-28.509
-28.908
-29.291
-29.66
-30.012
-30.349
-30.67
-30.975
-31.263
-31.536
-31.794
-32.037
-32.265
-32.479
-32.681
-32.87
-33.048
-33.217
-33.375
-33.526
-33.669
-33.806
-33.937
-34.062
-34.184
-34.301
-34.415
-34.527
-34.636
-34.744
-34.851
-34.958
-35.065
-35.172
-35.282
-35.393
-35.509
-35.628
-35.753
-35.884
-36.022
-36.167
-36.322
-36.485
-36.658
-36.84
-37.032
-37.232
-37.44
-37.657
-37.88
-38.109
-38.343
-38.581
-38.823
-39.066
-39.311
-39.556
-39.8
-40.041
-40.279
-40.511
-40.736
-40.954
-41.161
-41.357
-41.538
-41.704
-41.851
-41.977
-42.078
-42.153
-42.198
-42.21
-42.186
-42.123
-42.019
-41.873
-41.682
-41.446
-41.162
-40.832
-40.453
-40.028
-39.555
-39.035
-38.471
-37.863
-37.212
-36.522
-35.794
-35.032
-34.24
-33.423
-32.586
-31.733
-30.872
-30.008
-29.149
-28.301
-27.471
-26.665
-25.891
-25.156
-24.468
-23.835
-23.266
-22.77
-22.354
-22.024
-21.788
-21.649
-21.612
-21.677
-21.845
-22.12
-22.508
-23.014
-23.644
-24.4
-25.283
-26.29
-27.413
-28.64
-29.952
-31.326
-32.737
-34.163
-35.584
-36.979
-38.324
-39.59
-40.742
-41.745
-42.567
-43.182
-43.566
-43.709
-43.616
-43.312
-42.847
-42.273
-41.636
-40.995
-40.411
-39.959
-39.725
-39.794
-40.232
-41.127
-42.587
-44.655
-47.31
-50.429
-53.752
-57.009
-59.949
-62.268
-63.62
-63.79
-62.72
-60.603
-57.935
-55.197
-52.765
-51.004
-50.255
-50.628
-51.91
-53.358
-53.68
-51.421
-45.08
-33.206
-14.523
12.178
47.734
92.13
144.793
203.218
262.952
320.294
371.602
416.372
458.018
495.827
526.716
543.555
533.081
490.087
414.889
311.291
194.113
75.61
-33.413
-117.329
-169.259
-186.375
-167.795
-125.428
-73.244
-23.524
9.297
21.505
17.606
4.105
-8.12
-13.897
-14.346
-11.954
-11.215
-13.459
-17.429
-21.908
-25.057
-26.189
-25.469
-23.072
-19.817
-16.704
-14.204
-12.535
-11.714
-11.608
-12.309
-13.904
-16.225
-18.928
-21.688
-24.293
-26.644
-28.729
-30.493
-31.856
-32.791
-33.319
-33.488
-33.344
-32.915
-32.21
-31.243
-30.044
-28.65
-27.103
-25.449
-23.73
-21.989
-20.268
-18.6
-17.006
-15.508
-14.118
-12.84
-11.674
-10.616
-9.658
-8.796
-8.028
-7.347
-6.747
-6.217
-5.748
-5.331
-4.956
-4.615
-4.299
-3.999
-3.707
-3.414
-3.116
-2.804
-2.473
-2.114
-1.718
-1.278
-0.785
-0.231
0.393
1.094
1.879
2.756
3.73
4.807
5.989
7.281
8.686
10.207
11.843
13.596
15.466
17.451
19.549
21.757
24.072
26.487
28.998
31.597
34.277
37.029
39.844
42.712
45.623
48.565
51.526
54.494
57.457
60.4
63.312
66.178
68.985
71.72
74.369
76.919
79.357
81.671
83.849
85.88
87.752
89.455
90.98
92.317
93.457
94.394
95.119
95.628
95.915
95.977
95.81
95.413
94.784
93.925
92.836
91.52
89.981
88.223
86.251
84.074
81.697
79.131
76.385
73.468
70.393
67.17
63.812
60.332
56.743
53.059
49.292
45.458
41.571
37.645
33.694
29.734
25.778
21.84
17.935
14.075
10.274
6.543
2.895
-0.659
-4.108
-7.444
-10.658
-13.74
-16.684
-19.485
-22.137
-24.635
-26.977
-29.16
-31.183
-33.045
-34.747
-36.29
-37.675
-38.905
-39.984
-40.915
-41.702
-42.351
-42.867
-43.257
-43.527
-43.684
-43.735
-43.688
-43.551
-43.332
-43.038
-42.678
-42.259
-41.79
-41.279
-40.732
-40.158
-39.563
-38.954
-38.338
-37.719
-37.104
-36.498
-35.904
-35.327
-34.77
-34.237
-33.731
-33.253
-32.805
-32.39
-32.008
-31.661
-31.348
-31.069
-30.825
-30.614
-30.437
-30.291
-30.175
-30.087
-30.027
-29.991
-29.977
-29.984
-30.009
-30.049
-30.103
-30.167
-30.239
-30.318
-30.401
-30.486
-30.57
-30.653
-30.733
-30.809
-30.878
-30.941
-30.996
-31.042
-31.079
-31.107
-31.125
-31.132
-31.129
-31.117
-31.094
-31.062
-31.022
-30.972
-30.916
-30.852
-30.782
-30.707
-30.628
-30.546
-30.461
-30.375
-30.289
-30.203
-30.12
-30.039
-29.962
-29.889
-29.822
-29.762
-29.708
-29.661
-29.622
-29.591
-29.568
-29.553
-29.548
-29.551
-29.562
-29.583
-29.612
-29.649
-29.694
-29.747
-29.807
-29.874
-29.948
-30.027
-30.113
-30.203
-30.298
-30.399
-30.503
-30.611
-30.724
-30.839
-30.957
-31.078
-31.202
-31.327
-31.455
-31.586
-31.718
-31.853
-31.991
-32.133
-32.277
-32.425
-32.576
-32.73
-32.888
-33.048
-33.212
-33.38
-33.551
-33.727
-33.907
-34.091
-34.281
-34.475
-34.673
-34.876
-35.082
-35.292
-35.504
-35.72
-35.937
-36.156
-36.376
-36.597
-36.816
-37.034
-37.248
-37.457
-37.658
-37.848
-38.026
-38.188
-38.334
-38.461
-38.568
-38.656
-38.723
-38.769
-38.793
-38.793
-38.768
-38.714
-38.628
-38.507
-38.348
-38.149
-37.908
-37.624
-37.297
-36.929
-36.519
-36.068
-35.572
-35.03
-34.438
-33.797
-33.111
-32.387
-31.636
-30.87
-30.105
-29.358
-28.642
-27.968
-27.338
-26.75
-26.2
-25.684
-25.202
-24.762
-24.369
-24.024
-23.729
-23.478
-23.262
-23.064
-22.864
-22.634
-22.357
-22.026
-21.649
-21.249
-20.853
-20.494
-20.2
-19.988
-19.879
-19.892
-20.041
-20.344
-20.822
-21.499
-22.404
-23.57
-25.01
-26.719
-28.675
-30.835
-33.149
-35.551
-37.979
-40.374
-42.673
-44.821
-46.773
-48.491
-49.933
-51.069
-51.879
-52.354
-52.516
-52.399
-52.03
-51.464
-50.776
-50.059
-49.405
-48.893
-48.584
-48.568
-48.979
-49.889
-51.261
-52.95
-54.724
-56.363
-57.687
-58.432
-58.158
-56.542
-53.623
-49.696
-45.223
-40.727
-36.598
-33.292
-31.7
-31.782
-31.908
-30.372
-26.158
-20.706
-17.258
-16.569
-14.302
-0.875
32.214
87.015
158.72
235.522
308.818
377.29
439.628
496.056
541.415
563.309
555.792
517.705
454.017
376.086
290.082
200.571
112.938
33.008
-29.618
-68.593
-84.891
-85.052
-77.995
-69.339
-59.711
-47.037
-30.73
-12.848
3.785
16.382
23.847
26.489
24.616
19.122
11.597
3.805
-3.032
-8.376
-12.172
-14.471
-15.046
-13.881
-11.582
-9.127
-7.23
-6.189
-6
-6.543
-7.893
-10.115
-13.012
-16.193
-19.299
-22.107
-24.537
-26.611
-28.297
-29.532
-30.308
-30.655
-30.63
-30.29
-29.665
-28.759
-27.586
-26.175
-24.563
-22.801
-20.94
-19.023
-17.092
-15.178
-13.303
-11.486
-9.742
-8.079
-6.502
-5.008
-3.59
-2.247
-0.98
0.211
1.329
2.381
3.378
4.327
5.235
6.108
6.952
7.773
8.579
9.374
10.163
10.951
11.741
12.539
13.354
14.191
15.058
15.961
16.907
17.902
18.952
20.062
21.238
22.483
23.8
25.192
26.662
28.212
29.842
31.555
33.349
35.225
37.181
39.214
41.323
43.502
45.749
48.057
50.421
52.835
55.29
57.78
60.296
62.83
65.371
67.911
70.44
72.947
75.421
77.853
80.232
82.548
84.79
86.947
89.012
90.972
92.821
94.547
96.143
97.6
98.91
100.066
101.059
101.884
102.533
103.002
103.285
103.378
103.277
102.979
102.481
101.783
100.883
99.783
98.482
96.984
95.292
93.409
91.34
89.09
86.666
84.074
81.321
78.417
75.369
72.186
68.878
65.456
61.929
58.309
54.606
50.834
47.003
43.125
39.213
35.28
31.338
27.399
23.476
19.581
15.727
11.926
8.189
4.527
0.951
-2.528
-5.903
-9.165
-12.306
-15.318
-18.197
-20.935
-23.53
-25.976
-28.27
-30.41
-32.394
-34.22
-35.889
-37.4
-38.755
-39.955
-41.003
-41.901
-42.652
-43.262
-43.735
-44.074
-44.287
-44.38
-44.358
-44.229
-44
-43.678
-43.271
-42.786
-42.232
-41.614
-40.941
-40.219
-39.455
-38.656
-37.828
-36.976
-36.107
-35.226
-34.339
-33.451
-32.566
-31.689
-30.824
-29.976
-29.146
-28.339
-27.557
-26.803
-26.08
-25.388
-24.731
-24.11
-23.525
-22.978
-22.469
-21.999
-21.567
-21.174
-20.819
-20.502
-20.223
-19.982
-19.778
-19.61
-19.48
-19.386
-19.328
-19.306
-19.319
-19.366
-19.446
-19.559
-19.703
-19.878
-20.083
-20.316
-20.576
-20.863
-21.174
-21.51
-21.867
-22.246
-22.643
-23.059
-23.49
-23.935
-24.394
-24.863
-25.342
-25.828
-26.319
-26.813
-27.308
-27.802
-28.291
-28.773
-29.245
-29.705
-30.151
-30.579
-30.989
-31.377
-31.742
-32.083
-32.397
-32.685
-32.943
-33.172
-33.371
-33.538
-33.674
-33.778
-33.851
-33.891
-33.9
-33.877
-33.824
-33.741
-33.629
-33.489
-33.322
-33.13
-32.915
-32.679
-32.425
-32.155
-31.872
-31.579
-31.28
-30.976
-30.673
-30.372
-30.076
-29.789
-29.513
-29.25
-29.003
-28.774
-28.566
-28.379
-28.216
-28.079
-27.969
-27.887
-27.835
-27.814
-27.824
-27.868
-27.945
-28.057
-28.204
-28.386
-28.603
-28.855
-29.142
-29.462
-29.814
-30.196
-30.607
-31.044
-31.505
-31.987
-32.488
-33.005
-33.535
-34.075
-34.622
-35.174
-35.728
-36.28
-36.828
-37.368
-37.897
-38.413
-38.913
-39.392
-39.848
-40.278
-40.679
-41.047
-41.378
-41.669
-41.918
-42.12
-42.273
-42.374
-42.421
-42.412
-42.346
-42.22
-42.036
-41.791
-41.486
-41.123
-40.701
-40.222
-39.688
-39.101
-38.464
-37.779
-37.051
-36.283
-35.48
-34.648
-33.793
-32.921
-32.038
-31.154
-30.275
-29.41
-28.566
-27.752
-26.975
-26.242
-25.563
-24.944
-24.395
-23.923
-23.537
-23.245
-23.053
-22.964
-22.983
-23.111
-23.35
-23.699
-24.163
-24.746
-25.448
-26.273
-27.222
-28.293
-29.481
-30.771
-32.143
-33.576
-35.048
-36.536
-38.022
-39.484
-40.9
-42.249
-43.5
-44.624
-45.594
-46.379
-46.952
-47.297
-47.408
-47.307
-47.039
-46.651
-46.187
-45.682
-45.17
-44.707
-44.358
-44.189
-44.276
-44.666
-45.427
-46.685
-48.485
-50.772
-53.375
-55.929
-58.048
-59.461
-59.854
-58.856
-56.345
-52.417
-47.474
-42.439
-38.179
-35.239
-34.147
-35.267
-38.435
-43.035
-47.82
-50.634
-49.307
-42.009
-26.877
-2.532
31.663
75.653
128.317
187.321
249.776
312.341
371.091
422.421
462.911
489.336
499.446
491.768
466.817
427.688
377.92
320.091
254.095
178.312
94.571
10.399
-61.005
-106.811
-122.006
-110.85
-85.894
-60.119
-40.578
-28.73
-21.173
-14.592
-8.465
-3.754
-2.175
-4.068
-8.254
-13.05
-16.78
-18.758
-19.022
-17.814
-15.584
-12.789
-9.841
-7.259
-5.506
-4.759
-5.016
-6.16
-7.982
-10.313
-13.015
-15.926
-18.895
-21.802
-24.541
-27.032
-29.219
-31.051
-32.493
-33.526
-34.144
-34.354
-34.186
-33.678
-32.873
-31.814
-30.539
-29.082
-27.479
-25.77
-23.998
-22.205
-20.429
-18.7
-17.037
-15.456
-13.968
-12.576
-11.279
-10.068
-8.933
-7.867
-6.865
-5.922
-5.034
-4.194
-3.395
-2.629
-1.89
-1.171
-0.466
0.232
0.93
1.631
2.342
3.066
3.808
4.573
5.367
6.198
7.072
7.995
8.972
10.011
11.116
12.292
13.544
14.874
16.286
17.781
19.363
21.031
22.785
24.626
26.553
28.562
30.653
32.82
35.06
37.368
39.739
42.166
44.642
47.16
49.712
52.288
54.88
57.477
60.07
62.648
65.201
67.716
70.184
72.593
74.932
77.19
79.357
81.42
83.371
85.199
86.895
88.449
89.852
91.098
92.178
93.085
93.814
94.358
94.714
94.877
94.845
94.615
94.186
93.558
92.729
91.702
90.479
89.061
87.454
85.661
83.687
81.539
79.224
76.749
74.122
71.352
68.449
65.422
62.281
59.038
55.703
52.288
48.804
45.263
41.678
38.059
34.42
30.772
27.126
23.494
19.887
16.315
12.789
9.32
5.915
2.586
-0.661
-3.817
-6.874
-9.826
-12.666
-15.389
-17.99
-20.466
-22.811
-25.025
-27.104
-29.048
-30.856
-32.524
-34.053
-35.443
-36.696
-37.816
-38.803
-39.654
-40.381
-40.995
-41.503
-41.919
-42.239
-42.454
-42.58
-42.635
-42.594
-42.442
-42.168
-41.751
-41.218
-40.617
-39.93
-39.119
-38.302
-37.619
-36.995
-36.441
-35.989
-35.352
-35.316
-36.644
-38.254
-39.823
-39.363
-34.494
-27.857
-21.212
-17.18
-19.358
-24.568
-30.113
-34.148
-33.619
-30.711
-27.635
-24.885
-23.807
-23.619
-23.314
-23.081
-22.793
-22.514
-22.447
-22.456
-22.434
-22.414
-22.4
-22.379
-22.351
-22.322
-22.293
-22.281
-22.307
-22.359
-22.426
-22.508
-22.603
-22.709
-22.826
-22.95
-23.075
-23.203
-23.332
-23.462
-23.593
-23.723
-23.852
-23.979
-24.104
-24.225
-24.344
-24.46
-24.573
-24.683
-24.79
-24.895
-24.999
-25.102
-25.205
-25.309
-25.415
-25.523
-25.635
-25.753
-25.877
-26.01
-26.152
-26.306
-26.473
-26.655
-26.852
-27.067
-27.299
-27.549
-27.818
-28.106
-28.413
-28.739
-29.082
-29.443
-29.821
-30.215
-30.624
-31.047
-31.482
-31.928
-32.384
-32.847
-33.316
-33.788
-34.262
-34.736
-35.208
-35.675
-36.134
-36.585
-37.024
-37.449
-37.857
-38.246
-38.614
-38.957
-39.276
-39.567
-39.83
-40.063
-40.266
-40.438
-40.58
-40.691
-40.771
-40.822
-40.845
-40.84
-40.808
-40.751
-40.671
-40.57
-40.449
-40.31
-40.156
-39.989
-39.811
-39.623
-39.429
-39.23
-39.029
-38.827
-38.628
-38.432
-38.241
-38.059
-37.885
-37.722
-37.571
-37.433
-37.309
-37.198
-37.101
-37.016
-36.944
-36.883
-36.831
-36.786
-36.747
-36.712
-36.677
-36.641
-36.6
-36.552
-36.494
-36.423
-36.337
-36.233
-36.108
-35.96
-35.788
-35.589
-35.362
-35.106
-34.821
-34.508
-34.167
-33.799
-33.407
-32.994
-32.561
-32.113
-31.653
-31.184
-30.71
-30.235
-29.763
-29.3
-28.851
-28.424
-28.023
-27.657
-27.33
-27.049
-26.819
-26.642
-26.52
-26.456
-26.455
-26.522
-26.666
-26.893
-27.209
-27.618
-28.12
-28.712
-29.385
-30.124
-30.914
-31.739
-32.582
-33.433
-34.281
-35.11
-35.904
-36.638
-37.285
-37.82
-38.217
-38.454
-38.521
-38.424
-38.183
-37.839
-37.432
-36.989
-36.55
-36.16
-35.868
-35.739
-35.834
-36.201
-36.92
-38.112
-39.842
-42.114
-44.816
-47.671
-50.396
-52.741
-54.41
-55.075
-54.517
-52.68
-49.867
-46.773
-44.133
-42.557
-42.555
-44.541
-48.699
-54.826
-61.993
-68.532
-72.461
-71.789
-64.703
-49.485
-24.726
10.374
55.588
109.513
169.859
233.709
297.74
358.09
410.739
451.918
478.574
488.784
481.584
457.049
416.429
362.363
298.457
228.879
157.854
89.195
26.616
-26.635
-68.352
-97.709
-115.023
-121.396
-118.195
-106.899
-89.697
-69.187
-47.743
-27.107
-8.368
7.67
20.049
27.862
30.98
29.954
25.669
18.991
10.576
1.189
-7.995
-15.784
-21.488
-24.895
-26.203
-25.793
-23.985
-21.252
-18.333
-15.883
-14.29
-13.715
-14.053
-15.088
-16.635
-18.436
-20.161
-21.589
-22.608
-23.18
-23.362
-23.221
-22.794
-22.142
-21.329
-20.39
-19.345
-18.203
-16.963
-15.646
-14.288
-12.926
-11.589
-10.296
-9.054
-7.871
-6.751
-5.694
-4.694
-3.745
-2.84
-1.981
-1.168
-0.401
0.325
1.018
1.688
2.345
3.001
3.665
4.343
5.044
5.774
6.537
7.337
8.18
9.07
10.015
11.02
12.092
13.237
14.46
15.766
17.159
18.642
20.218
21.89
23.657
25.523
27.487
29.549
31.708
33.962
36.31
38.748
41.271
43.876
46.556
49.305
52.117
54.983
57.896
60.846
63.825
66.823
69.83
72.834
75.826
78.794
81.728
84.614
87.443
90.203
92.881
95.468
97.952
100.321
102.566
104.675
106.639
108.447
110.091
111.561
112.85
113.948
114.851
115.55
116.041
116.319
116.38
116.22
115.837
115.23
114.399
113.342
112.062
110.562
108.843
106.91
104.768
102.424
99.883
97.153
94.243
91.161
87.918
84.523
80.987
77.323
73.542
69.657
65.681
61.627
57.511
53.344
49.143
44.921
40.692
36.47
32.269
28.103
23.985
19.929
15.947
12.051
8.253
4.564
0.995
-2.445
-5.748
-8.905
-11.909
-14.754
-17.435
-19.947
-22.287
-24.451
-26.438
-28.247
-29.877
-31.331
-32.609
-33.713
-34.648
-35.418
-36.026
-36.479
-36.783
-36.944
-36.968
-36.863
-36.638
-36.299
-35.854
-35.314
-34.685
-33.977
-33.198
-32.358
-31.464
-30.525
-29.55
-28.546
-27.521
-26.483
-25.438
-24.393
-23.354
-22.327
-21.317
-20.329
-19.367
-18.436
-17.537
-16.674
-15.849
-15.064
-14.32
-13.618
-12.958
-12.341
-11.767
-11.236
-10.746
-10.299
-9.891
-9.523
-9.193
-8.899
-8.641
-8.415
-8.221
-8.056
-7.919
-7.808
-7.721
-7.655
-7.609
-7.582
-7.572
-7.577
-7.597
-7.63
-7.675
-7.733
-7.802
-7.882
-7.974
-8.078
-8.195
-8.323
-8.465
-8.62
-8.79
-8.974
-9.173
-9.387
-9.617
-9.864
-10.126
-10.405
-10.702
-11.015
-11.345
-11.694
-12.059
-12.443
-12.846
-13.266
-13.705
-14.163
-14.638
-15.132
-15.642
-16.169
-16.712
-17.27
-17.841
-18.425
-19.019
-19.622
-20.232
-20.847
-21.466
-22.086
-22.706
-23.323
-23.937
-24.544
-25.145
-25.737
-26.319
-26.891
-27.45
-27.996
-28.527
-29.043
-29.542
-30.023
-30.485
-30.927
-31.349
-31.75
-32.128
-32.484
-32.818
-33.129
-33.417
-33.682
-33.926
-34.148
-34.349
-34.53
-34.694
-34.84
-34.971
-35.087
-35.192
-35.285
-35.369
-35.445
-35.514
-35.578
-35.639
-35.697
-35.753
-35.81
-35.868
-35.928
-35.992
-36.061
-36.136
-36.218
-36.307
-36.405
-36.511
-36.627
-36.752
-36.886
-37.029
-37.18
-37.34
-37.507
-37.679
-37.855
-38.033
-38.211
-38.388
-38.56
-38.725
-38.882
-39.027
-39.158
-39.272
-39.367
-39.441
-39.49
-39.512
-39.505
-39.465
-39.39
-39.279
-39.129
-38.938
-38.705
-38.429
-38.109
-37.744
-37.333
-36.878
-36.379
-35.836
-35.253
-34.63
-33.972
-33.282
-32.565
-31.828
-31.075
-30.313
-29.549
-28.791
-28.046
-27.319
-26.617
-25.945
-25.312
-24.723
-24.186
-23.709
-23.298
-22.962
-22.707
-22.537
-22.459
-22.471
-22.576
-22.772
-23.063
-23.454
-23.953
-24.562
-25.284
-26.122
-27.073
-28.13
-29.279
-30.5
-31.767
-33.06
-34.355
-35.639
-36.896
-38.104
-39.243
-40.277
-41.175
-41.909
-42.452
-42.779
-42.877
-42.756
-42.438
-41.982
-41.438
-40.845
-40.247
-39.688
-39.223
-38.923
-38.856
-39.084
-39.694
-40.802
-42.476
-44.702
-47.332
-50.063
-52.556
-54.498
-55.558
-55.336
-53.572
-50.33
-46.021
-41.45
-37.514
-34.825
-33.902
-35.38
-39.516
-45.835
-53.165
-59.433
-62.255
-59.779
-50.038
-30.836
-0.681
41.167
93.435
153.232
218.148
285.106
352.18
416.799
471.814
511.401
529.342
521.309
492.363
447.004
389.762
324.448
246.932
157.707
62.668
-27.763
-96.951
-136.048
-144.078
-128.007
-100.737
-70.078
-42.625
-20.63
-3.166
7.456
13.133
14.925
12.253
7.915
1.523
-7.002
-15.625
-24.219
-31.694
-36.665
-38.952
-38.513
-35.754
-31.695
-27.454
-23.62
-20.425
-18.053
-16.577
-16.033
-16.457
-17.619
-19.081
-20.59
-22.007
-23.24
-24.294
-25.12
-25.641
-25.871
-25.88
-25.737
-25.516
-25.259
-24.969
-24.662
-24.347
-24.027
-23.697
-23.351
-22.992
-22.631
-22.286
-21.978
-21.722
-21.521
-21.369
-21.243
-21.107
-20.929
-20.683
-20.354
-19.943
-19.461
-18.929
-18.367
-17.789
-17.205
-16.617
-16.023
-15.418
-14.796
-14.152
-13.485
-12.804
-12.115
-11.423
-10.727
-10.018
-9.283
-8.501
-7.654
-6.724
-5.696
-4.56
-3.309
-1.939
-0.449
1.157
2.879
4.717
6.671
8.742
10.928
13.225
15.628
18.13
20.723
23.398
26.146
28.957
31.822
34.733
37.68
40.656
43.651
46.657
49.661
52.654
55.623
58.557
61.443
64.269
67.023
69.692
72.265
74.729
77.075
79.291
81.368
83.295
85.064
86.668
88.097
89.345
90.405
91.271
91.938
92.402
92.658
92.703
92.536
92.155
91.56
90.751
89.73
88.497
87.057
85.412
83.568
81.529
79.301
76.891
74.307
71.558
68.652
65.599
62.409
59.094
55.663
52.128
48.5
44.791
41.014
37.179
33.299
29.386
25.453
21.513
17.577
13.658
9.769
5.919
2.122
-1.612
-5.273
-8.851
-12.337
-15.721
-18.997
-22.155
-25.191
-28.097
-30.869
-33.501
-35.992
-38.336
-40.534
-42.582
-44.48
-46.227
-47.825
-49.274
-50.575
-51.731
-52.743
-53.616
-54.353
-54.959
-55.438
-55.795
-56.037
-56.17
-56.2
-56.133
-55.977
-55.737
-55.422
-55.038
-54.592
-54.091
-53.541
-52.949
-52.32
-51.661
-50.977
-50.271
-49.549
-48.814
-48.07
-47.322
-46.574
-45.831
-45.093
-44.362
-43.64
-42.926
-42.224
-41.532
-40.852
-40.182
-39.524
-38.879
-38.251
-37.642
-37.048
-36.468
-35.895
-35.33
-34.773
-34.232
-33.708
-33.205
-32.723
-32.267
-31.841
-31.448
-31.088
-30.754
-30.439
-30.137
-29.85
-29.586
-29.358
-29.168
-29.005
-28.842
-28.65
-28.415
-28.146
-27.86
-27.565
-27.256
-26.908
-26.54
-26.221
-25.968
-25.702
-25.241
-24.386
-23.087
-21.51
-19.854
-18.178
-16.572
-15.265
-14.715
-15.491
-17.809
-21.349
-25.541
-30.018
-34.505
-38.66
-41.891
-43.394
-42.78
-40.366
-36.898
-32.956
-28.893
-24.987
-21.641
-19.489
-18.907
-19.718
-21.362
-23.35
-25.419
-27.453
-29.357
-30.876
-31.808
-32.195
-32.261
-32.228
-32.205
-32.193
-32.141
-32.055
-31.973
-31.9
-31.805
-31.65
-31.411
-31.103
-30.759
-30.41
-30.065
-29.727
-29.387
-29.044
-28.701
-28.362
-28.031
-27.71
-27.399
-27.099
-26.81
-26.534
-26.272
-26.021
-25.782
-25.55
-25.325
-25.11
-24.91
-24.73
-24.573
-24.441
-24.335
-24.257
-24.207
-24.185
-24.193
-24.23
-24.297
-24.392
-24.517
-24.67
-24.852
-25.063
-25.3
-25.562
-25.845
-26.149
-26.471
-26.812
-27.169
-27.545
-27.933
-28.33
-28.732
-29.136
-29.539
-29.937
-30.327
-30.699
-31.052
-31.381
-31.685
-31.963
-32.211
-32.421
-32.58
-32.687
-32.754
-32.789
-32.808
-32.815
-32.782
-32.709
-32.612
-32.459
-32.232
-31.934
-31.501
-30.908
-30.27
-29.611
-28.945
-28.476
-28.241
-28.028
-27.895
-27.901
-27.607
-27.709
-28.762
-29.448
-29.701
-27.849
-21.549
-13.483
-5.572
-0.472
-2.052
-7.551
-14
-19.254
-20.243
-18.952
-17.467
-16.277
-16.427
-16.848
-16.782
-16.641
-16.381
-16.237
-16.406
-16.693
-17.124
-17.849
-18.764
-19.765
-20.789
-21.738
-22.631
-23.516
-24.358
-25.106
-25.738
-26.233
-26.577
-26.771
-26.798
-26.664
-26.408
-26.071
-25.704
-25.344
-25.031
-24.826
-24.79
-24.976
-25.443
-26.232
-27.418
-29.15
-31.501
-34.415
-37.748
-41.193
-44.388
-47.06
-48.872
-49.343
-48.244
-45.702
-42.044
-37.979
-34.476
-32.314
-32.111
-34.651
-39.464
-44.474
-48.714
-51.211
-51.597
-51.869
-49.554
-38.521
-13.439
31.941
96.987
173.358
253.065
327.337
390.875
443.756
484.562
511.501
522.84
515.523
489.578
448.242
394.058
329.785
257.534
177.189
93.533
15.429
-49.044
-91.165
-109.828
-111.553
-102.283
-88.739
-74.131
-57.312
-39.052
-20.598
-3.478
9.711
17.762
20.398
17.983
11.933
3.995
-4.032
-10.978
-16.46
-20.199
-21.896
-21.545
-19.374
-16.065
-12.728
-10.019
-8.136
-7.211
-7.274
-8.316
-10.337
-13.094
-16.113
-19.077
-21.811
-24.195
-26.229
-27.886
-29.104
-29.891
-30.298
-30.367
-30.141
-29.646
-28.88
-27.856
-26.604
-25.154
-23.556
-21.855
-20.092
-18.31
-16.535
-14.79
-13.093
-11.455
-9.884
-8.384
-6.95
-5.575
-4.258
-2.997
-1.792
-0.638
0.475
1.554
2.608
3.645
4.668
5.683
6.695
7.709
8.729
9.757
10.795
11.846
12.912
14
15.114
16.258
17.437
18.655
19.919
21.232
22.6
24.027
25.515
27.068
28.689
30.38
32.142
33.977
35.884
37.864
39.915
42.037
44.225
46.479
48.792
51.161
53.581
56.045
58.548
61.082
63.64
66.214
68.796
71.378
73.949
76.502
79.025
81.509
83.943
86.316
88.617
90.835
92.959
94.977
96.878
98.652
100.288
101.776
103.106
104.269
105.256
106.059
106.67
107.084
107.293
107.293
107.079
106.649
106
105.131
104.041
102.731
101.202
99.455
97.496
95.327
92.954
90.383
87.621
84.677
81.559
78.278
74.844
71.27
67.567
63.749
59.829
55.822
51.742
47.603
43.421
39.211
34.987
30.766
26.561
22.388
18.26
14.192
10.196
6.285
2.472
-1.233
-4.819
-8.275
-11.593
-14.765
-17.783
-20.641
-23.332
-25.854
-28.203
-30.375
-32.37
-34.188
-35.829
-37.294
-38.587
-39.71
-40.669
-41.467
-42.111
-42.608
-42.963
-43.185
-43.281
-43.261
-43.131
-42.902
-42.581
-42.179
-41.702
-41.162
-40.565
-39.921
-39.239
-38.526
-37.79
-37.039
-36.28
-35.52
-34.765
-34.02
-33.292
-32.586
-31.904
-31.252
-30.632
-30.047
-29.499
-28.99
-28.521
-28.093
-27.706
-27.359
-27.052
-26.785
-26.554
-26.361
-26.201
-26.074
-25.978
-25.909
-25.867
-25.848
-25.851
-25.873
-25.911
-25.964
-26.029
-26.104
-26.186
-26.275
-26.368
-26.464
-26.56
-26.656
-26.751
-26.842
-26.93
-27.014
-27.093
-27.167
-27.235
-27.298
-27.356
-27.409
-27.459
-27.505
-27.548
-27.59
-27.631
-27.672
-27.714
-27.758
-27.805
-27.856
-27.912
-27.973
-28.041
-28.115
-28.197
-28.287
-28.386
-28.492
-28.608
-28.732
-28.866
-29.008
-29.16
-29.32
-29.489
-29.666
-29.852
-30.045
-30.245
-30.451
-30.663
-30.88
-31.1
-31.323
-31.548
-31.773
-31.998
-32.221
-32.441
-32.657
-32.869
-33.075
-33.274
-33.465
-33.649
-33.823
-33.989
-34.145
-34.291
-34.428
-34.555
-34.672
-34.78
-34.879
-34.969
-35.051
-35.125
-35.192
-35.253
-35.308
-35.358
-35.405
-35.45
-35.492
-35.535
-35.578
-35.624
-35.673
-35.726
-35.786
-35.852
-35.926
-36.01
-36.105
-36.211
-36.329
-36.46
-36.604
-36.763
-36.936
-37.124
-37.326
-37.542
-37.772
-38.016
-38.272
-38.541
-38.82
-39.109
-39.407
-39.711
-40.021
-40.334
-40.648
-40.962
-41.273
-41.58
-41.879
-42.17
-42.449
-42.715
-42.964
-43.194
-43.402
-43.587
-43.744
-43.873
-43.97
-44.033
-44.06
-44.049
-43.998
-43.904
-43.766
-43.582
-43.351
-43.072
-42.742
-42.362
-41.93
-41.448
-40.915
-40.331
-39.698
-39.017
-38.288
-37.513
-36.695
-35.835
-34.937
-34.002
-33.035
-32.039
-31.02
-29.984
-28.934
-27.879
-26.823
-25.774
-24.74
-23.727
-22.744
-21.797
-20.894
-20.042
-19.249
-18.523
-17.871
-17.3
-16.817
-16.43
-16.146
-15.974
-15.918
-15.982
-16.17
-16.482
-16.923
-17.498
-18.208
-19.053
-20.031
-21.141
-22.381
-23.747
-25.227
-26.8
-28.44
-30.118
-31.811
-33.496
-35.151
-36.749
-38.264
-39.665
-40.93
-42.043
-42.987
-43.745
-44.303
-44.653
-44.806
-44.806
-44.714
-44.595
-44.511
-44.511
-44.627
-44.911
-45.432
-46.247
-47.42
-48.999
-50.989
-53.438
-56.44
-59.975
-63.918
-67.981
-71.654
-74.476
-76.13
-76.231
-74.412
-70.599
-64.901
-57.894
-50.723
-44.35
-39.457
-36.654
-36.176
-37.651
-40.317
-42.513
-41.665
-35.404
-21.562
1.725
35.486
79.827
133.998
195.894
262.084
328.695
391.329
445.562
487.526
514.011
522.726
512.53
483.679
437.745
377.696
307.406
231.189
153.509
78.695
11.034
-45.845
-89.533
-118.978
-134.354
-136.774
-127.867
-109.862
-85.831
-59.093
-32.603
-8.719
10.936
25.387
33.946
36.531
33.891
27.299
18.239
8.161
-1.673
-10.335
-17.039
-21.311
-23.148
-22.89
-21.122
-18.564
-15.977
-13.876
-12.607
-12.373
-13.148
-14.795
-17.095
-19.709
-22.243
-24.453
-26.213
-27.47
-28.269
-28.644
-28.61
-28.234
-27.597
-26.751
-25.735
-24.563
-23.231
-21.76
-20.192
-18.57
-16.944
-15.346
-13.789
-12.287
-10.847
-9.475
-8.175
-6.944
-5.774
-4.66
-3.604
-2.605
-1.663
-0.774
0.072
0.886
1.679
2.461
3.239
4.018
4.805
5.605
6.422
7.261
8.124
9.017
9.946
10.918
11.938
13.012
14.147
15.345
16.611
17.95
19.363
20.852
22.42
24.068
25.797
27.607
29.497
31.466
33.512
35.633
37.825
40.084
42.405
44.782
47.209
49.68
52.187
54.723
57.279
59.848
62.421
64.989
67.542
70.072
72.569
75.022
77.423
79.761
82.028
84.213
86.308
88.302
90.189
91.958
93.603
95.115
96.486
97.71
98.78
99.689
100.433
101.007
101.406
101.626
101.666
101.522
101.193
100.679
99.978
99.092
98.021
96.766
95.331
93.717
91.928
89.969
87.845
85.561
83.123
80.537
77.811
74.952
71.968
68.867
65.658
62.349
58.952
55.475
51.929
48.325
44.673
40.984
37.27
33.541
29.808
26.082
22.372
18.691
15.047
11.452
7.915
4.445
1.053
-2.254
-5.467
-8.578
-11.58
-14.467
-17.232
-19.87
-22.376
-24.745
-26.974
-29.058
-30.996
-32.784
-34.422
-35.908
-37.242
-38.424
-39.457
-40.342
-41.081
-41.677
-42.134
-42.457
-42.649
-42.715
-42.662
-42.494
-42.219
-41.843
-41.374
-40.818
-40.183
-39.477
-38.707
-37.881
-37.007
-36.09
-35.14
-34.161
-33.163
-32.151
-31.133
-30.115
-29.103
-28.104
-27.123
-26.166
-25.237
-24.342
-23.483
-22.666
-21.892
-21.166
-20.488
-19.862
-19.288
-18.767
-18.3
-17.887
-17.527
-17.218
-16.959
-16.748
-16.583
-16.461
-16.379
-16.336
-16.328
-16.352
-16.406
-16.488
-16.594
-16.721
-16.867
-17.029
-17.204
-17.389
-17.582
-17.78
-17.982
-18.185
-18.388
-18.588
-18.784
-18.975
-19.16
-19.337
-19.505
-19.665
-19.817
-19.96
-20.096
-20.227
-20.353
-20.476
-20.598
-20.721
-20.846
-20.976
-21.112
-21.256
-21.408
-21.571
-21.746
-21.933
-22.134
-22.35
-22.581
-22.827
-23.089
-23.367
-23.66
-23.968
-24.292
-24.631
-24.985
-25.353
-25.734
-26.129
-26.536
-26.955
-27.383
-27.819
-28.261
-28.708
-29.156
-29.603
-30.046
-30.484
-30.914
-31.333
-31.74
-32.132
-32.508
-32.865
-33.204
-33.521
-33.818
-34.092
-34.345
-34.575
-34.784
-34.971
-35.138
-35.283
-35.409
-35.515
-35.601
-35.67
-35.72
-35.752
-35.768
-35.768
-35.754
-35.726
-35.686
-35.636
-35.578
-35.513
-35.443
-35.371
-35.297
-35.224
-35.152
-35.085
-35.022
-34.964
-34.913
-34.869
-34.832
-34.802
-34.777
-34.759
-34.745
-34.734
-34.727
-34.721
-34.715
-34.708
-34.7
-34.688
-34.672
-34.651
-34.624
-34.589
-34.544
-34.488
-34.42
-34.337
-34.238
-34.12
-33.982
-33.821
-33.636
-33.424
-33.184
-32.914
-32.614
-32.281
-31.916
-31.518
-31.087
-30.624
-30.131
-29.607
-29.057
-28.481
-27.882
-27.264
-26.63
-25.984
-25.33
-24.674
-24.02
-23.374
-22.743
-22.132
-21.546
-20.992
-20.475
-20.001
-19.574
-19.201
-18.888
-18.64
-18.465
-18.369
-18.356
-18.432
-18.596
-18.85
-19.195
-19.63
-20.158
-20.782
-21.501
-22.319
-23.239
-24.258
-25.376
-26.58
-27.852
-29.175
-30.528
-31.892
-33.253
-34.594
-35.895
-37.14
-38.303
-39.357
-40.281
-41.047
-41.629
-42.006
-42.168
-42.138
-41.962
-41.689
-41.365
-41.016
-40.67
-40.383
-40.213
-40.215
-40.444
-40.933
-41.746
-43.038
-44.883
-47.237
-49.949
-52.678
-55.058
-56.816
-57.574
-56.858
-54.483
-50.587
-45.606
-40.418
-35.98
-33.16
-32.951
-36.278
-42.464
-49.274
-54.612
-56.531
-55.988
-56.066
-55.978
-51.388
-33.597
8.07
76.299
166.193
266.389
360.27
436.822
490.139
518.253
525.651
515.395
489.406
449.413
394.995
326.79
247.554
163.885
83.028
12.667
-40.445
-76.762
-98.043
-107.158
-108.861
-103.291
-90.774
-73.438
-52.871
-32.766
-16.219
-3.849
4.213
8.37
9.149
6.72
1.831
-4.015
-9.467
-13.915
-17.254
-19.625
-21.031
-21.182
-20.096
-18.358
-16.715
-15.628
-15.224
-15.39
-16.035
-17.276
-19.161
-21.503
-23.954
-26.195
-28.053
-29.501
-30.575
-31.258
-31.513
-31.34
-30.791
-29.944
-28.866
-27.593
-26.137
-24.508
-22.737
-20.868
-18.952
-17.036
-15.159
-13.346
-11.613
-9.976
-8.444
-7.027
-5.726
-4.536
-3.45
-2.463
-1.572
-0.778
-0.078
0.536
1.077
1.558
1.988
2.377
2.732
3.065
3.384
3.697
4.015
4.343
4.69
5.063
5.474
5.931
6.446
7.026
7.68
8.416
9.241
10.163
11.186
12.316
13.558
14.915
16.391
17.986
19.704
21.544
23.506
25.588
27.787
30.1
32.521
35.045
37.664
40.37
43.155
46.007
48.917
51.873
54.864
57.876
60.898
63.916
66.917
69.887
72.814
75.683
78.481
81.195
83.812
86.318
88.702
90.953
93.057
95.005
96.787
98.391
99.81
101.034
102.056
102.87
103.47
103.85
104.007
103.938
103.643
103.119
102.368
101.392
100.192
98.772
97.136
95.29
93.239
90.99
88.551
85.93
83.137
80.182
77.074
73.825
70.445
66.947
63.344
59.647
55.87
52.025
48.125
44.184
40.217
36.237
32.257
28.288
24.342
20.432
16.57
12.768
9.037
5.386
1.825
-1.638
-4.991
-8.226
-11.337
-14.321
-17.175
-19.897
-22.482
-24.924
-27.221
-29.372
-31.382
-33.255
-34.991
-36.589
-38.052
-39.385
-40.599
-41.703
-42.697
-43.578
-44.338
-44.975
-45.496
-45.908
-46.224
-46.441
-46.543
-46.52
-46.362
-46.079
-45.701
-45.241
-44.692
-44.044
-43.279
-42.431
-41.62
-40.856
-40.04
-39.064
-37.767
-36.156
-34.482
-32.865
-31.215
-29.595
-28.234
-27.499
-28.037
-30.068
-33.095
-36.658
-40.481
-44.246
-47.612
-49.959
-50.122
-47.464
-42.42
-35.712
-28.157
-20.409
-12.846
-6.11
-1.409
0.371
-0.706
-4.008
-8.517
-13.469
-18.556
-23.391
-27.27
-29.503
-29.875
-28.701
-26.698
-24.416
-22.037
-19.654
-17.421
-15.62
-14.464
-13.917
-13.714
-13.599
-13.482
-13.385
-13.377
-13.487
-13.652
-13.768
-13.886
-14.159
-14.705
-15.673
-17.027
-18.488
-19.949
-21.487
-22.952
-24.137
-24.793
-24.37
-22.805
-20.596
-17.957
-15.063
-12.313
-9.915
-8.233
-8.137
-9.768
-12.655
-16.643
-21.238
-25.862
-30.408
-34.505
-37.351
-38.801
-39.005
-37.902
-36.067
-34.004
-31.715
-29.47
-27.666
-26.347
-25.628
-25.688
-26.152
-26.747
-27.481
-28.201
-28.859
-29.506
-30.007
-30.248
-30.362
-30.43
-30.472
-30.561
-30.652
-30.696
-30.736
-30.798
-30.87
-30.953
-31.031
-31.086
-31.135
-31.195
-31.272
-31.375
-31.501
-31.644
-31.809
-31.995
-32.205
-32.44
-32.695
-32.964
-33.244
-33.531
-33.823
-34.118
-34.411
-34.7
-34.979
-35.247
-35.501
-35.742
-35.966
-36.174
-36.361
-36.525
-36.665
-36.778
-36.862
-36.915
-36.934
-36.918
-36.863
-36.77
-36.636
-36.462
-36.247
-35.99
-35.692
-35.355
-34.979
-34.568
-34.123
-33.646
-33.141
-32.611
-32.059
-31.489
-30.903
-30.304
-29.696
-29.082
-28.466
-27.849
-27.235
-26.629
-26.035
-25.459
-24.905
-24.38
-23.89
-23.441
-23.039
-22.69
-22.398
-22.165
-21.997
-21.895
-21.865
-21.911
-22.035
-22.24
-22.528
-22.898
-23.351
-23.887
-24.499
-25.182
-25.931
-26.746
-27.633
-28.595
-29.634
-30.751
-31.944
-33.206
-34.53
-35.902
-37.3
-38.698
-40.07
-41.394
-42.654
-43.831
-44.9
-45.83
-46.579
-47.111
-47.398
-47.417
-47.15
-46.599
-45.774
-44.709
-43.457
-42.065
-40.591
-39.105
-37.679
-36.4
-35.358
-34.632
-34.332
-34.606
-35.516
-37.024
-38.984
-41.091
-43.04
-44.618
-45.544
-45.424
-44.067
-41.57
-38.334
-35.192
-32.943
-31.965
-32.578
-35.23
-39.964
-46.209
-52.759
-57.519
-58.179
-53.117
-40.931
-19.84
11.517
53.399
105.186
164.075
225.435
286.572
345.154
399.143
448.945
490.472
517.318
524.426
504.121
456.621
388.617
306.509
222.98
145.552
76.72
21.28
-22.953
-57.171
-80.595
-96.332
-103.639
-101.996
-93.32
-78.48
-60.397
-42.32
-25.569
-10.915
1.246
10.71
17.091
20.056
19.873
17.233
12.622
6.348
-1.007
-8.676
-15.917
-21.93
-26.339
-29.218
-30.638
-30.743
-29.921
-28.698
-27.535
-26.856
-26.86
-27.486
-28.638
-30.16
-31.816
-33.335
-34.525
-35.272
-35.537
-35.375
-34.839
-33.983
-32.877
-31.597
-30.191
-28.689
-27.109
-25.463
-23.776
-22.091
-20.44
-18.85
-17.34
-15.919
-14.591
-13.364
-12.234
-11.193
-10.235
-9.359
-8.564
-7.852
-7.222
-6.668
-6.183
-5.758
-5.381
-5.042
-4.73
-4.437
-4.154
-3.873
-3.588
-3.291
-2.974
-2.628
-2.242
-1.806
-1.311
-0.745
-0.101
0.632
1.46
2.39
3.428
4.577
5.844
7.23
8.74
10.374
12.134
14.02
16.03
18.163
20.414
22.78
25.256
27.834
30.509
33.273
36.116
39.03
42.004
45.028
48.09
51.179
54.281
57.384
60.475
63.538
66.561
69.53
72.43
75.248
77.969
80.581
83.071
85.425
87.633
89.681
91.56
93.26
94.77
96.082
97.189
98.083
98.76
99.213
99.439
99.435
99.199
98.729
98.025
97.089
95.921
94.525
92.903
91.062
89.006
86.743
84.281
81.627
78.792
75.785
72.619
69.304
65.854
62.28
58.596
54.816
50.953
47.022
43.037
39.012
34.961
30.899
26.838
22.793
18.776
14.799
10.875
7.016
3.232
-0.466
-4.068
-7.565
-10.948
-14.209
-17.342
-20.339
-23.195
-25.907
-28.469
-30.879
-33.136
-35.238
-37.184
-38.976
-40.614
-42.1
-43.438
-44.63
-45.679
-46.591
-47.371
-48.023
-48.554
-48.968
-49.273
-49.474
-49.577
-49.588
-49.514
-49.361
-49.135
-48.842
-48.488
-48.078
-47.62
-47.118
-46.578
-46.005
-45.403
-44.778
-44.133
-43.473
-42.801
-42.121
-41.434
-40.745
-40.055
-39.367
-38.681
-38
-37.324
-36.655
-35.992
-35.337
-34.689
-34.048
-33.415
-32.79
-32.173
-31.564
-30.963
-30.371
-29.788
-29.214
-28.651
-28.097
-27.553
-27.02
-26.499
-25.989
-25.491
-25.007
-24.536
-24.079
-23.638
-23.212
-22.802
-22.41
-22.036
-21.681
-21.345
-21.031
-20.739
-20.47
-20.225
-20.006
-19.814
-19.649
-19.513
-19.406
-19.329
-19.281
-19.263
-19.275
-19.315
-19.384
-19.481
-19.604
-19.753
-19.927
-20.124
-20.342
-20.581
-20.837
-21.11
-21.398
-21.699
-22.011
-22.331
-22.659
-22.992
-23.328
-23.664
-23.999
-24.331
-24.656
-24.972
-25.277
-25.569
-25.845
-26.103
-26.342
-26.56
-26.755
-26.927
-27.074
-27.196
-27.293
-27.366
-27.413
-27.436
-27.437
-27.414
-27.372
-27.31
-27.23
-27.135
-27.025
-26.904
-26.774
-26.635
-26.491
-26.345
-26.197
-26.051
-25.91
-25.776
-25.652
-25.541
-25.447
-25.371
-25.316
-25.285
-25.281
-25.305
-25.358
-25.444
-25.561
-25.713
-25.897
-26.115
-26.366
-26.649
-26.962
-27.303
-27.671
-28.062
-28.474
-28.904
-29.348
-29.804
-30.267
-30.735
-31.203
-31.667
-32.124
-32.57
-32.999
-33.408
-33.792
-34.146
-34.465
-34.745
-34.982
-35.171
-35.307
-35.388
-35.409
-35.367
-35.259
-35.082
-34.836
-34.518
-34.127
-33.665
-33.13
-32.525
-31.851
-31.111
-30.308
-29.445
-28.525
-27.554
-26.535
-25.473
-24.373
-23.241
-22.083
-20.905
-19.715
-18.522
-17.335
-16.162
-15.014
-13.9
-12.83
-11.814
-10.859
-9.971
-9.158
-8.427
-7.785
-7.24
-6.798
-6.465
-6.246
-6.145
-6.164
-6.305
-6.564
-6.937
-7.421
-8.015
-8.725
-9.556
-10.511
-11.592
-12.797
-14.12
-15.552
-17.077
-18.667
-20.292
-21.922
-23.529
-25.092
-26.588
-27.992
-29.27
-30.379
-31.277
-31.931
-32.309
-32.391
-32.176
-31.677
-30.933
-30.006
-28.956
-27.852
-26.772
-25.793
-25.001
-24.488
-24.331
-24.634
-25.546
-27.149
-29.438
-32.292
-35.395
-38.403
-41.029
-42.921
-43.643
-42.934
-40.776
-37.497
-33.981
-31.164
-29.658
-30.024
-32.762
-37.951
-45.165
-53.251
-59.859
-62.374
-58.736
-46.84
-24.704
9.012
55.079
112.189
176.293
243.247
309.896
375.172
439.313
499.411
548.414
576.283
574.763
541.924
482.819
406.2
318.182
223.697
126.982
34.74
-39.98
-88.343
-108.035
-103.82
-88.974
-72.661
-58.191
-45.747
-31.673
-15.407
0.661
14.445
23.677
27.557
26.597
21.706
14.345
6.2
-1.339
-7.541
-12.241
-15.354
-16.653
-16.153
-14.172
-11.407
-8.779
-6.779
-5.509
-5.014
-5.355
-6.557
-8.588
-11.208
-13.987
-16.637
-19.027
-21.075
-22.772
-24.094
-24.991
-25.471
-25.597
-25.424
-24.993
-24.336
-23.448
-22.342
-21.051
-19.607
-18.059
-16.449
-14.815
-13.19
-11.6
-10.063
-8.595
-7.207
-5.902
-4.679
-3.532
-2.452
-1.439
-0.49
0.399
1.235
2.029
2.791
3.53
4.252
4.965
5.675
6.388
7.111
7.849
8.605
9.384
10.19
11.028
11.905
12.826
13.795
14.82
15.902
17.048
18.262
19.546
20.905
22.339
23.851
25.441
27.11
28.857
30.682
32.583
34.556
36.6
38.711
40.884
43.115
45.4
47.732
50.105
52.514
54.952
57.411
59.883
62.362
64.838
67.302
69.747
72.162
74.539
76.869
79.141
81.346
83.476
85.52
87.47
89.316
91.051
92.665
94.15
95.5
96.707
97.765
98.667
99.408
99.984
100.388
100.618
100.669
100.538
100.222
99.72
99.03
98.15
97.08
95.822
94.375
92.743
90.927
88.931
86.76
84.417
81.908
79.24
76.419
73.453
70.349
67.117
63.765
60.304
56.742
53.09
49.359
45.559
41.7
37.793
33.85
29.88
25.896
21.907
17.925
13.961
10.026
6.13
2.285
-1.501
-5.217
-8.854
-12.403
-15.856
-19.204
-22.441
-25.559
-28.553
-31.417
-34.147
-36.737
-39.186
-41.489
-43.645
-45.652
-47.511
-49.219
-50.778
-52.189
-53.452
-54.57
-55.544
-56.377
-57.072
-57.633
-58.064
-58.369
-58.553
-58.622
-58.58
-58.434
-58.19
-57.853
-57.43
-56.928
-56.353
-55.711
-55.01
-54.255
-53.453
-52.61
-51.732
-50.826
-49.897
-48.95
-47.991
-47.025
-46.057
-45.091
-44.132
-43.184
-42.252
-41.339
-40.448
-39.584
-38.748
-37.943
-37.173
-36.438
-35.741
-35.083
-34.466
-33.89
-33.355
-32.863
-32.414
-32.006
-31.641
-31.317
-31.034
-30.791
-30.588
-30.423
-30.295
-30.204
-30.148
-30.126
-30.136
-30.179
-30.252
-30.353
-30.482
-30.637
-30.817
-31.02
-31.245
-31.49
-31.754
-32.034
-32.331
-32.641
-32.963
-33.297
-33.64
-33.99
-34.348
-34.712
-35.08
-35.451
-35.823
-36.195
-36.564
-36.931
-37.292
-37.647
-37.995
-38.332
-38.66
-38.977
-39.281
-39.571
-39.843
-40.096
-40.328
-40.539
-40.731
-40.903
-41.056
-41.188
-41.301
-41.397
-41.475
-41.535
-41.572
-41.582
-41.566
-41.526
-41.466
-41.388
-41.291
-41.169
-41.017
-40.832
-40.612
-40.355
-40.056
-39.712
-39.325
-38.896
-38.441
-37.971
-37.493
-37.007
-36.504
-35.981
-35.447
-34.937
-34.501
-34.17
-33.953
-33.836
-33.79
-33.826
-33.993
-34.251
-34.501
-34.719
-34.906
-35.222
-36.005
-37.352
-39.105
-41.252
-43.756
-46.289
-48.706
-50.619
-50.887
-49.943
-48.634
-46.082
-42.698
-37.076
-27.001
-15.93
-6.909
-3.315
-9.183
-20.954
-34.55
-47
-54.689
-59.256
-62.097
-63.221
-63.588
-62.285
-59.328
-55.761
-51.725
-47.728
-44.341
-41.595
-39.792
-39.176
-39.18
-39.37
-39.606
-39.691
-39.668
-39.616
-39.372
-38.802
-38.054
-37.237
-36.415
-35.668
-34.924
-34.116
-33.279
-32.442
-31.61
-30.796
-29.989
-29.174
-28.375
-27.612
-26.899
-26.252
-25.675
-25.171
-24.752
-24.427
-24.208
-24.105
-24.121
-24.256
-24.503
-24.858
-25.316
-25.877
-26.541
-27.312
-28.191
-29.182
-30.285
-31.499
-32.815
-34.219
-35.687
-37.196
-38.72
-40.235
-41.723
-43.162
-44.533
-45.808
-46.953
-47.93
-48.701
-49.232
-49.495
-49.477
-49.188
-48.661
-47.945
-47.096
-46.151
-45.156
-44.172
-43.273
-42.537
-42.059
-41.903
-42.165
-43.008
-44.501
-46.601
-49.132
-51.68
-53.804
-55.207
-55.539
-54.406
-51.713
-47.612
-42.627
-37.925
-34.622
-33.412
-34.91
-39.477
-46.837
-56.198
-66.01
-73.564
-76.021
-71.025
-56.455
-30.652
7.275
57.372
118.579
187.35
258.552
327.544
390.202
444.882
491.642
528.164
550.187
551.766
526.99
475.156
399.724
306.277
202.77
97.208
-1.757
-82.975
-136.84
-159.11
-149.953
-116.534
-71.325
-25.445
9.704
26.876
27.066
14.663
-1.788
-14.421
-20.948
-22.041
-21.179
-21.279
-22.674
-24.481
-25.066
-23.651
-20.579
-16.766
-13.254
-10.611
-8.971
-8.295
-8.453
-9.373
-11.045
-13.259
-15.793
-18.492
-21.18
-23.795
-26.296
-28.589
-30.586
-32.239
-33.514
-34.4
-34.919
-35.074
-34.877
-34.359
-33.548
-32.484
-31.208
-29.756
-28.163
-26.467
-24.711
-22.935
-21.179
-19.473
-17.839
-16.292
-14.837
-13.477
-12.209
-11.027
-9.922
-8.887
-7.915
-7
-6.136
-5.318
-4.537
-3.787
-3.057
-2.342
-1.633
-0.926
-0.213
0.511
1.249
2.008
2.791
3.603
4.45
5.339
6.276
7.267
8.318
9.435
10.623
11.886
13.228
14.653
16.163
17.76
19.445
21.219
23.083
25.035
27.076
29.203
31.414
33.706
36.076
38.519
41.03
43.604
46.235
48.915
51.637
54.394
57.177
59.977
62.786
65.593
68.388
71.161
73.903
76.601
79.245
81.825
84.33
86.748
89.07
91.286
93.385
95.359
97.197
98.891
100.433
101.813
103.025
104.06
104.913
105.577
106.046
106.316
106.382
106.241
105.891
105.33
104.556
103.57
102.371
100.962
99.346
97.525
95.504
93.289
90.886
88.302
85.544
82.622
79.544
76.321
72.963
69.482
65.888
62.194
58.412
54.555
50.635
46.667
42.662
38.636
34.6
30.569
26.555
22.572
18.633
14.749
10.934
7.199
3.555
0.012
-3.418
-6.728
-9.908
-12.951
-15.851
-18.6
-21.196
-23.633
-25.909
-28.021
-29.968
-31.75
-33.367
-34.82
-36.112
-37.245
-38.221
-39.047
-39.725
-40.262
-40.663
-40.934
-41.082
-41.115
-41.039
-40.862
-40.593
-40.239
-39.808
-39.31
-38.753
-38.146
-37.495
-36.811
-36.101
-35.371
-34.631
-33.887
-33.144
-32.41
-31.69
-30.988
-30.31
-29.659
-29.039
-28.453
-27.903
-27.392
-26.922
-26.492
-26.105
-25.761
-25.458
-25.198
-24.979
-24.8
-24.659
-24.556
-24.487
-24.451
-24.446
-24.468
-24.514
-24.582
-24.668
-24.77
-24.884
-25.006
-25.134
-25.264
-25.394
-25.521
-25.642
-25.755
-25.859
-25.95
-26.028
-26.091
-26.138
-26.168
-26.18
-26.175
-26.152
-26.111
-26.052
-25.978
-25.887
-25.782
-25.663
-25.533
-25.391
-25.241
-25.084
-24.922
-24.756
-24.59
-24.425
-24.265
-24.11
-23.964
-23.83
-23.708
-23.602
-23.513
-23.443
-23.395
-23.369
-23.366
-23.389
-23.438
-23.513
-23.615
-23.744
-23.901
-24.084
-24.294
-24.528
-24.787
-25.069
-25.372
-25.695
-26.037
-26.394
-26.766
-27.149
-27.543
-27.944
-28.35
-28.759
-29.167
-29.573
-29.973
-30.365
-30.748
-31.117
-31.472
-31.81
-32.129
-32.428
-32.706
-32.96
-33.191
-33.397
-33.577
-33.732
-33.862
-33.966
-34.046
-34.101
-34.134
-34.145
-34.136
-34.108
-34.062
-34.001
-33.926
-33.838
-33.739
-33.632
-33.518
-33.398
-33.276
-33.153
-33.031
-32.911
-32.795
-32.685
-32.582
-32.486
-32.398
-32.32
-32.25
-32.189
-32.137
-32.092
-32.053
-32.02
-31.991
-31.964
-31.937
-31.907
-31.873
-31.832
-31.78
-31.717
-31.637
-31.54
-31.423
-31.283
-31.118
-30.927
-30.706
-30.454
-30.169
-29.849
-29.494
-29.102
-28.672
-28.204
-27.7
-27.158
-26.582
-25.973
-25.334
-24.668
-23.982
-23.279
-22.565
-21.848
-21.135
-20.433
-19.749
-19.091
-18.464
-17.877
-17.335
-16.846
-16.417
-16.055
-15.769
-15.563
-15.446
-15.421
-15.493
-15.664
-15.934
-16.302
-16.772
-17.35
-18.043
-18.854
-19.786
-20.841
-22.015
-23.3
-24.682
-26.138
-27.641
-29.167
-30.691
-32.196
-33.665
-35.077
-36.407
-37.62
-38.68
-39.56
-40.235
-40.683
-40.895
-40.88
-40.671
-40.326
-39.907
-39.464
-39.044
-38.693
-38.466
-38.431
-38.658
-39.213
-40.176
-41.659
-43.718
-46.321
-49.32
-52.415
-55.24
-57.465
-58.737
-58.63
-56.9
-53.618
-49.161
-44.308
-39.953
-36.709
-35.107
-35.759
-38.864
-43.916
-49.781
-54.512
-55.786
-51.734
-40.58
-20.378
10.229
51.571
102.961
162.366
226.68
292.75
357.002
415.031
462.451
495.413
510.828
507.656
487.063
450.485
399.456
334.281
254.581
163.136
67.182
-21.085
-89.185
-130.152
-144.728
-141.169
-128.508
-112.348
-94.441
-72.917
-47.282
-19.754
6.565
27.738
41.307
47.14
45.915
38.978
28.115
14.96
1.068
-11.855
-22.465
-30.164
-34.748
-36.397
-35.729
-33.405
-30.126
-26.808
-24.11
-22.303
-21.514
-21.662
-22.526
-23.921
-25.579
-27.115
-28.291
-29.014
-29.26
-29.106
-28.629
-27.857
-26.855
-25.725
-24.55
-23.386
-22.252
-21.12
-19.964
-18.789
-17.616
-16.476
-15.389
-14.358
-13.379
-12.455
-11.592
-10.791
-10.042
-9.314
-8.568
-7.784
-6.959
-6.107
-5.255
-4.417
-3.595
-2.79
-2.008
-1.251
-0.526
0.174
0.863
1.549
2.232
2.908
3.564
4.196
4.814
5.429
6.064
6.733
7.449
8.226
9.08
10.022
11.063
12.206
13.449
14.793
16.242
17.8
19.472
21.261
23.167
25.187
27.32
29.562
31.907
34.35
36.882
39.496
42.183
44.938
47.753
50.621
53.532
56.478
59.449
62.432
65.418
68.393
71.344
74.259
77.124
79.925
82.651
85.287
87.82
90.238
92.528
94.678
96.677
98.512
100.173
101.65
102.935
104.018
104.892
105.552
105.99
106.204
106.19
105.944
105.466
104.755
103.81
102.634
101.228
99.595
97.74
95.668
93.386
90.901
88.221
85.357
82.318
79.116
75.763
72.272
68.657
64.931
61.109
57.206
53.237
49.217
45.162
41.086
37.005
32.932
28.882
24.869
20.904
17.001
13.171
9.425
5.774
2.227
-1.205
-4.515
-7.696
-10.74
-13.642
-16.396
-19
-21.449
-23.742
-25.878
-27.857
-29.679
-31.346
-32.862
-34.23
-35.454
-36.539
-37.492
-38.319
-39.026
-39.62
-40.108
-40.498
-40.797
-41.01
-41.147
-41.212
-41.213
-41.156
-41.047
-40.892
-40.698
-40.468
-40.21
-39.926
-39.623
-39.304
-38.974
-38.635
-38.291
-37.943
-37.595
-37.248
-36.902
-36.558
-36.216
-35.875
-35.534
-35.192
-34.848
-34.498
-34.142
-33.778
-33.402
-33.015
-32.613
-32.196
-31.763
-31.312
-30.844
-30.357
-29.853
-29.33
-28.79
-28.233
-27.659
-27.07
-26.467
-25.851
-25.223
-24.585
-23.939
-23.288
-22.633
-21.977
-21.323
-20.675
-20.035
-19.408
-18.797
-18.207
-17.641
-17.103
-16.598
-16.128
-15.698
-15.311
-14.969
-14.674
-14.43
-14.237
-14.097
-14.009
-13.976
-13.995
-14.068
-14.194
-14.37
-14.598
-14.873
-15.196
-15.564
-15.975
-16.426
-16.915
-17.438
-17.993
-18.576
-19.183
-19.811
-20.456
-21.113
-21.779
-22.45
-23.12
-23.787
-24.446
-25.094
-25.727
-26.341
-26.935
-27.506
-28.051
-28.569
-29.059
-29.52
-29.951
-30.352
-30.723
-31.064
-31.377
-31.661
-31.917
-32.148
-32.354
-32.538
-32.701
-32.845
-32.972
-33.084
-33.184
-33.275
-33.358
-33.435
-33.51
-33.584
-33.66
-33.74
-33.826
-33.92
-34.022
-34.135
-34.258
-34.394
-34.542
-34.701
-34.873
-35.055
-35.248
-35.449
-35.658
-35.872
-36.09
-36.31
-36.529
-36.744
-36.953
-37.154
-37.342
-37.515
-37.671
-37.806
-37.918
-38.003
-38.059
-38.084
-38.075
-38.03
-37.947
-37.824
-37.661
-37.455
-37.206
-36.914
-36.578
-36.198
-35.776
-35.311
-34.806
-34.262
-33.683
-33.071
-32.431
-31.766
-31.081
-30.381
-29.673
-28.961
-28.253
-27.552
-26.867
-26.205
-25.573
-24.979
-24.43
-23.931
-23.486
-23.105
-22.792
-22.554
-22.392
-22.306
-22.297
-22.373
-22.543
-22.815
-23.192
-23.671
-24.257
-24.957
-25.777
-26.722
-27.787
-28.962
-30.239
-31.615
-33.092
-34.671
-36.335
-38.051
-39.78
-41.487
-43.142
-44.718
-46.172
-47.451
-48.502
-49.288
-49.796
-50.025
-49.968
-49.622
-48.977
-48.042
-46.854
-45.47
-43.966
-42.425
-40.927
-39.576
-38.495
-37.796
-37.624
-38.138
-39.383
-41.341
-43.89
-46.76
-49.732
-52.641
-55.213
-57.118
-58.132
-58.157
-57.501
-56.832
-56.648
-57.288
-59.009
-61.975
-66.348
-72.026
-78.061
-82.836
-84.722
-82.092
-73.616
-58.106
-34.14
-0.683
42.2
93.427
151.281
213.378
277.086
339.317
396.179
443.619
478.071
496.739
497.55
480.328
446.738
399.004
339.772
270.159
190.131
102.436
14.21
-64.016
-121.744
-152.689
-158.807
-147.01
-124.036
-97.913
-72.253
-47.892
-27.407
-8.616
9.578
26.107
41.529
52.989
58.576
58.628
52.856
42.602
28.939
12.663
-4.15
-20.001
-33.874
-44.893
-52.955
-57.793
-58.659
-55.742
-50.109
-42.925
-35.558
-28.906
-23.162
-18.735
-16.282
-15.953
-17.501
-20.394
-23.726
-26.952
-29.956
-32.53
-34.44
-35.564
-35.83
-35.373
-34.557
-33.582
-32.501
-31.356
-30.14
-28.878
-27.64
-26.428
-25.197
-23.925
-22.609
-21.267
-19.945
-18.663
-17.426
-16.238
-15.091
-13.984
-12.917
-11.887
-10.889
-9.914
-8.951
-7.99
-7.024
-6.046
-5.05
-4.028
-2.971
-1.87
-0.722
0.478
1.73
3.037
4.404
5.835
7.334
8.906
10.552
12.277
14.083
15.972
17.946
20.006
22.151
24.381
26.694
29.088
31.561
34.111
36.732
39.42
42.169
44.972
47.823
50.714
53.637
56.583
59.543
62.508
65.469
68.416
71.339
74.229
77.074
79.865
82.591
85.24
87.801
90.264
92.617
94.849
96.949
98.907
100.712
102.354
103.825
105.115
106.217
107.123
107.826
108.322
108.604
108.669
108.514
108.137
107.536
106.711
105.662
104.392
102.903
101.197
99.28
97.156
94.831
92.312
89.608
86.726
83.677
80.469
77.116
73.628
70.019
66.3
62.487
58.592
54.63
50.616
46.563
42.487
38.401
34.32
30.259
26.23
22.247
18.323
14.47
10.7
7.024
3.453
-0.005
-3.34
-6.544
-9.611
-12.534
-15.309
-17.93
-20.394
-22.7
-24.845
-26.829
-28.653
-30.318
-31.826
-33.181
-34.385
-35.444
-36.363
-37.147
-37.802
-38.335
-38.751
-39.059
-39.266
-39.377
-39.403
-39.349
-39.223
-39.033
-38.787
-38.491
-38.153
-37.779
-37.376
-36.95
-36.506
-36.049
-35.585
-35.118
-34.65
-34.187
-33.73
-33.282
-32.845
-32.419
-32.006
-31.606
-31.22
-30.847
-30.486
-30.138
-29.802
-29.477
-29.162
-28.858
-28.562
-28.275
-27.996
-27.723
-27.455
-27.193
-26.936
-26.682
-26.432
-26.185
-25.941
-25.7
-25.463
-25.229
-24.999
-24.775
-24.556
-24.344
-24.141
-23.948
-23.767
-23.599
-23.448
-23.314
-23.2
-23.108
-23.041
-22.998
-22.983
-22.995
-23.037
-23.109
-23.21
-23.342
-23.504
-23.695
-23.917
-24.166
-24.444
-24.748
-25.077
-25.43
-25.805
-26.199
-26.611
-27.038
-27.478
-27.929
-28.388
-28.852
-29.318
-29.784
-30.245
-30.7
-31.144
-31.576
-31.99
-32.386
-32.76
-33.11
-33.434
-33.73
-33.997
-34.234
-34.44
-34.615
-34.759
-34.872
-34.955
-35.009
-35.036
-35.036
-35.011
-34.964
-34.896
-34.811
-34.709
-34.595
-34.47
-34.337
-34.199
-34.059
-33.919
-33.784
-33.654
-33.534
-33.427
-33.335
-33.261
-33.207
-33.177
-33.171
-33.192
-33.241
-33.32
-33.429
-33.568
-33.738
-33.939
-34.169
-34.427
-34.713
-35.024
-35.357
-35.711
-36.084
-36.471
-36.87
-37.279
-37.693
-38.109
-38.524
-38.933
-39.334
-39.723
-40.094
-40.445
-40.772
-41.071
-41.337
-41.568
-41.759
-41.907
-42.009
-42.061
-42.061
-42.006
-41.894
-41.723
-41.491
-41.198
-40.843
-40.426
-39.948
-39.409
-38.811
-38.157
-37.448
-36.688
-35.879
-35.027
-34.135
-33.207
-32.25
-31.268
-30.268
-29.257
-28.243
-27.235
-26.242
-25.273
-24.337
-23.443
-22.598
-21.81
-21.087
-20.433
-19.857
-19.365
-18.964
-18.662
-18.465
-18.379
-18.405
-18.544
-18.793
-19.15
-19.611
-20.178
-20.853
-21.639
-22.539
-23.556
-24.69
-25.94
-27.295
-28.741
-30.252
-31.798
-33.362
-34.925
-36.476
-38.007
-39.481
-40.854
-42.091
-43.147
-43.99
-44.614
-44.956
-44.967
-44.721
-44.285
-43.756
-43.263
-42.761
-42.181
-41.635
-41.232
-40.898
-40.627
-40.331
-39.903
-39.663
-39.894
-40.485
-41.249
-42.11
-42.921
-43.686
-44.395
-44.501
-43.636
-42.042
-40.225
-38.733
-38.057
-38.407
-39.953
-43.13
-47.918
-53.396
-57.989
-59.763
-56.752
-47.175
-29.272
-1.385
37.389
86.681
144.96
209.766
277.881
345.442
408.069
461.259
500.922
523.986
528.415
513.152
479.299
430.304
370.283
303.209
230.8
152.924
72.132
-5.166
-68.84
-109.241
-122.998
-114.136
-92.597
-68.137
-46.599
-29.804
-15.918
-3.398
7.645
16.459
21.419
21.567
17.637
11.075
3.676
-3.016
-8.387
-12.367
-14.833
-15.521
-14.451
-11.97
-8.768
-5.755
-3.407
-1.812
-1.04
-1.165
-2.205
-4.117
-6.652
-9.365
-11.971
-14.336
-16.37
-18.06
-19.375
-20.262
-20.731
-20.848
-20.663
-20.218
-19.541
-18.63
-17.498
-16.182
-14.716
-13.149
-11.527
-9.887
-8.268
-6.695
-5.187
-3.762
-2.43
-1.192
-0.048
1.008
1.984
2.882
3.703
4.454
5.141
5.773
6.363
6.919
7.451
7.965
8.469
8.971
9.479
9.997
10.532
11.088
11.671
12.288
12.945
13.65
14.411
15.232
16.123
17.088
18.135
19.269
20.496
21.819
23.241
24.766
26.395
28.131
29.973
31.921
33.975
36.131
38.387
40.739
43.183
45.712
48.32
50.999
53.741
56.537
59.378
62.253
65.151
68.063
70.975
73.876
76.755
79.597
82.391
85.123
87.781
90.35
92.817
95.169
97.394
99.479
101.413
103.182
104.778
106.189
107.405
108.419
109.222
109.806
110.167
110.298
110.195
109.857
109.282
108.468
107.417
106.13
104.609
102.859
100.885
98.69
96.283
93.67
90.86
87.861
84.684
81.34
77.841
74.198
70.424
66.533
62.54
58.457
54.3
50.084
45.824
41.534
37.229
32.924
28.634
24.373
20.153
15.989
11.892
7.874
3.946
0.117
-3.602
-7.204
-10.68
-14.025
-17.232
-20.295
-23.211
-25.975
-28.585
-31.038
-33.334
-35.471
-37.451
-39.273
-40.94
-42.455
-43.82
-45.04
-46.118
-47.06
-47.872
-48.558
-49.127
-49.583
-49.935
-50.188
-50.351
-50.43
-50.433
-50.365
-50.235
-50.048
-49.811
-49.529
-49.209
-48.855
-48.473
-48.068
-47.645
-47.209
-46.763
-46.311
-45.858
-45.407
-44.962
-44.524
-44.097
-43.682
-43.283
-42.9
-42.535
-42.188
-41.86
-41.552
-41.264
-40.994
-40.744
-40.511
-40.295
-40.095
-39.911
-39.74
-39.581
-39.435
-39.299
-39.174
-39.057
-38.949
-38.849
-38.756
-38.669
-38.588
-38.511
-38.439
-38.371
-38.305
-38.241
-38.178
-38.117
-38.056
-37.994
-37.933
-37.871
-37.808
-37.745
-37.681
-37.618
-37.555
-37.493
-37.433
-37.376
-37.322
-37.274
-37.232
-37.196
-37.168
-37.149
-37.139
-37.138
-37.148
-37.169
-37.2
-37.243
-37.298
-37.365
-37.443
-37.535
-37.639
-37.755
-37.885
-38.027
-38.183
-38.351
-38.531
-38.724
-38.928
-39.144
-39.37
-39.606
-39.851
-40.105
-40.364
-40.629
-40.898
-41.17
-41.442
-41.715
-41.985
-42.253
-42.517
-42.776
-43.029
-43.276
-43.515
-43.746
-43.968
-44.181
-44.384
-44.578
-44.761
-44.934
-45.097
-45.249
-45.391
-45.523
-45.645
-45.757
-45.86
-45.954
-46.04
-46.118
-46.19
-46.255
-46.316
-46.373
-46.428
-46.48
-46.531
-46.582
-46.633
-46.685
-46.739
-46.795
-46.853
-46.912
-46.974
-47.036
-47.1
-47.163
-47.224
-47.283
-47.338
-47.387
-47.429
-47.462
-47.484
-47.494
-47.489
-47.467
-47.427
-47.365
-47.279
-47.168
-47.029
-46.858
-46.656
-46.418
-46.143
-45.83
-45.477
-45.083
-44.646
-44.166
-43.642
-43.075
-42.466
-41.814
-41.122
-40.392
-39.627
-38.83
-38.007
-37.164
-36.305
-35.437
-34.568
-33.704
-32.853
-32.019
-31.21
-30.431
-29.689
-28.99
-28.342
-27.753
-27.231
-26.781
-26.412
-26.128
-25.934
-25.831
-25.821
-25.903
-26.08
-26.361
-26.751
-27.257
-27.881
-28.627
-29.491
-30.465
-31.536
-32.68
-33.874
-35.094
-36.314
-37.521
-38.695
-39.815
-40.858
-41.789
-42.572
-43.178
-43.58
-43.753
-43.69
-43.401
-42.916
-42.293
-41.587
-40.842
-40.11
-39.442
-38.899
-38.554
-38.481
-38.742
-39.43
-40.666
-42.509
-44.926
-47.754
-50.676
-53.351
-55.485
-56.758
-56.772
-55.298
-52.418
-48.529
-44.423
-40.928
-38.531
-37.63
-38.715
-41.891
-46.614
-51.735
-55.295
-55.082
-49.44
-36.798
-15.426
15.875
57.438
108.605
167.376
230.84
296.094
359.808
417.884
466.109
500.646
518.444
518.411
501.531
469.147
422.567
361.785
286.221
198.265
104.823
18.187
-49.005
-89.749
-104.795
-102.879
-93.586
-82.294
-70.207
-55.113
-36.09
-15.037
5.018
20.88
30.96
34.969
33.333
27.37
18.547
8.505
-1.076
-9.326
-15.781
-19.901
-21.568
-21.017
-18.674
-15.44
-12.295
-9.711
-7.948
-7.244
-7.607
-8.986
-11.281
-14.136
-17.126
-20.01
-22.632
-24.891
-26.79
-28.308
-29.414
-30.147
-30.565
-30.703
-30.596
-30.257
-29.682
-28.887
-27.903
-26.76
-25.502
-24.17
-22.797
-21.416
-20.051
-18.72
-17.438
-16.212
-15.047
-13.942
-12.895
-11.9
-10.955
-10.058
-9.203
-8.382
-7.586
-6.804
-6.028
-5.25
-4.463
-3.66
-2.835
-1.982
-1.095
-0.171
0.795
1.807
2.871
3.993
5.179
6.433
7.761
9.167
10.656
12.231
13.897
15.657
17.511
19.462
21.51
23.656
25.899
28.238
30.671
33.195
35.806
38.5
41.271
44.114
47.02
49.984
52.995
56.046
59.126
62.225
65.333
68.439
71.532
74.598
77.627
80.606
83.523
86.364
89.118
91.772
94.315
96.734
99.017
101.153
103.133
104.944
106.578
108.026
109.278
110.326
111.165
111.786
112.185
112.358
112.3
112.009
111.483
110.723
109.728
108.501
107.043
105.359
103.454
101.333
99.003
96.473
93.751
90.846
87.769
84.531
81.145
77.621
73.974
70.215
66.36
62.421
58.413
54.35
50.247
46.118
41.977
37.838
33.716
29.624
25.576
21.584
17.659
13.815
10.062
6.409
2.868
-0.555
-3.851
-7.014
-10.037
-12.916
-15.647
-18.228
-20.656
-22.931
-25.052
-27.019
-28.836
-30.502
-32.022
-33.398
-34.635
-35.737
-36.709
-37.557
-38.286
-38.902
-39.411
-39.821
-40.138
-40.368
-40.518
-40.596
-40.607
-40.56
-40.459
-40.313
-40.126
-39.906
-39.657
-39.385
-39.095
-38.79
-38.475
-38.153
-37.827
-37.499
-37.172
-36.847
-36.527
-36.211
-35.901
-35.598
-35.302
-35.013
-34.73
-34.455
-34.186
-33.923
-33.665
-33.414
-33.167
-32.924
-32.686
-32.451
-32.218
-31.987
-31.757
-31.528
-31.298
-31.067
-30.834
-30.6
-30.364
-30.126
-29.886
-29.644
-29.402
-29.159
-28.916
-28.675
-28.435
-28.198
-27.966
-27.739
-27.518
-27.305
-27.101
-26.906
-26.722
-26.55
-26.39
-26.242
-26.108
-25.987
-25.881
-25.789
-25.713
-25.652
-25.607
-25.58
-25.569
-25.577
-25.602
-25.646
-25.709
-25.79
-25.89
-26.009
-26.146
-26.301
-26.474
-26.664
-26.87
-27.093
-27.33
-27.582
-27.847
-28.124
-28.413
-28.712
-29.021
-29.34
-29.667
-30.002
-30.346
-30.697
-31.054
-31.417
-31.786
-32.16
-32.537
-32.917
-33.299
-33.682
-34.065
-34.447
-34.826
-35.203
-35.575
-35.943
-36.304
-36.658
-37.004
-37.342
-37.67
-37.988
-38.296
-38.593
-38.879
-39.153
-39.414
-39.662
-39.896
-40.115
-40.32
-40.508
-40.68
-40.833
-40.968
-41.084
-41.18
-41.255
-41.308
-41.339
-41.347
-41.333
-41.294
-41.232
-41.145
-41.034
-40.898
-40.736
-40.548
-40.334
-40.094
-39.826
-39.531
-39.208
-38.857
-38.477
-38.068
-37.629
-37.162
-36.665
-36.138
-35.582
-34.996
-34.381
-33.738
-33.068
-32.371
-31.648
-30.901
-30.131
-29.339
-28.529
-27.701
-26.858
-26.002
-25.136
-24.264
-23.388
-22.513
-21.641
-20.78
-19.933
-19.107
-18.307
-17.541
-16.815
-16.135
-15.509
-14.942
-14.439
-14.005
-13.645
-13.365
-13.168
-13.062
-13.049
-13.136
-13.325
-13.62
-14.022
-14.529
-15.139
-15.849
-16.655
-17.561
-18.568
-19.679
-20.894
-22.214
-23.636
-25.152
-26.75
-28.406
-30.099
-31.803
-33.496
-35.162
-36.782
-38.336
-39.803
-41.153
-42.354
-43.377
-44.191
-44.764
-45.081
-45.147
-44.986
-44.647
-44.179
-43.617
-43.007
-42.403
-41.861
-41.435
-41.187
-41.169
-41.466
-42.236
-43.573
-45.455
-47.775
-50.267
-52.585
-54.423
-55.413
-55.047
-53.042
-49.515
-44.806
-39.639
-35.099
-32.13
-31.494
-34.165
-39.871
-46.578
-53.288
-58.919
-62.726
-66.387
-67.165
-58.389
-34.281
11.73
79.336
159.994
245.104
325.493
395.39
454.028
499.328
528.77
539.613
529.473
499.501
452.484
391.366
317.523
231.473
136.932
41.576
-42.28
-103.337
-137.653
-147.042
-139.166
-121.376
-95.697
-65.096
-32.898
-3.291
16.207
23.654
22.332
15.399
8.467
3.795
-0.752
-5.385
-10.674
-16.704
-21.302
-23.44
-23.261
-20.99
-17.664
-14.553
-12.099
-10.438
-9.757
-10.051
-11.279
-13.435
-16.275
-19.335
-22.339
-25.13
-27.574
-29.671
-31.404
-32.708
-33.593
-34.108
-34.29
-34.181
-33.813
-33.185
-32.312
-31.225
-29.955
-28.55
-27.055
-25.511
-23.957
-22.421
-20.923
-19.481
-18.108
-16.81
-15.591
-14.445
-13.364
-12.346
-11.388
-10.486
-9.637
-8.828
-8.049
-7.292
-6.548
-5.81
-5.071
-4.325
-3.565
-2.787
-1.985
-1.157
-0.3
0.592
1.524
2.501
3.527
4.608
5.748
6.95
8.22
9.561
10.975
12.465
14.032
15.678
17.405
19.212
21.1
23.068
25.116
27.24
29.44
31.711
34.049
36.452
38.912
41.424
43.983
46.581
49.212
51.868
54.54
57.222
59.905
62.579
65.238
67.87
70.468
73.021
75.522
77.959
80.325
82.609
84.803
86.898
88.885
90.755
92.499
94.109
95.578
96.897
98.059
99.058
99.885
100.537
101.007
101.292
101.386
101.288
100.994
100.504
99.815
98.927
97.842
96.56
95.083
93.415
91.558
89.517
87.298
84.905
82.347
79.629
76.76
73.748
70.603
67.334
63.952
60.468
56.893
53.239
49.517
45.742
41.925
38.08
34.219
30.356
26.503
22.673
18.878
15.131
11.443
7.826
4.29
0.845
-2.498
-5.732
-8.849
-11.839
-14.698
-17.419
-19.997
-22.428
-24.708
-26.835
-28.806
-30.622
-32.28
-33.783
-35.13
-36.324
-37.368
-38.265
-39.019
-39.635
-40.117
-40.473
-40.707
-40.827
-40.839
-40.752
-40.572
-40.307
-39.965
-39.554
-39.08
-38.553
-37.979
-37.365
-36.719
-36.047
-35.356
-34.651
-33.939
-33.224
-32.512
-31.806
-31.112
-30.432
-29.771
-29.131
-28.514
-27.924
-27.362
-26.83
-26.329
-25.859
-25.421
-25.015
-24.642
-24.301
-23.99
-23.709
-23.458
-23.234
-23.036
-22.863
-22.712
-22.583
-22.473
-22.382
-22.306
-22.244
-22.196
-22.159
-22.133
-22.115
-22.106
-22.104
-22.108
-22.119
-22.135
-22.155
-22.181
-22.21
-22.243
-22.28
-22.32
-22.363
-22.409
-22.459
-22.511
-22.567
-22.626
-22.688
-22.753
-22.822
-22.895
-22.971
-23.052
-23.137
-23.226
-23.32
-23.419
-23.523
-23.632
-23.745
-23.864
-23.988
-24.117
-24.25
-24.387
-24.528
-24.672
-24.818
-24.967
-25.118
-25.27
-25.423
-25.577
-25.732
-25.887
-26.042
-26.198
-26.354
-26.51
-26.667
-26.824
-26.982
-27.14
-27.301
-27.463
-27.627
-27.794
-27.964
-28.137
-28.313
-28.494
-28.679
-28.868
-29.063
-29.262
-29.468
-29.68
-29.899
-30.124
-30.357
-30.598
-30.846
-31.102
-31.366
-31.637
-31.915
-32.199
-32.49
-32.785
-33.084
-33.387
-33.692
-33.998
-34.303
-34.606
-34.906
-35.2
-35.486
-35.763
-36.029
-36.281
-36.517
-36.736
-36.936
-37.113
-37.267
-37.395
-37.494
-37.564
-37.601
-37.604
-37.571
-37.5
-37.391
-37.241
-37.051
-36.819
-36.546
-36.231
-35.875
-35.478
-35.042
-34.567
-34.055
-33.509
-32.929
-32.32
-31.683
-31.023
-30.344
-29.65
-28.948
-28.243
-27.541
-26.849
-26.175
-25.525
-24.907
-24.325
-23.787
-23.296
-22.86
-22.484
-22.175
-21.939
-21.782
-21.71
-21.726
-21.836
-22.041
-22.343
-22.74
-23.231
-23.82
-24.511
-25.312
-26.226
-27.255
-28.397
-29.649
-31.001
-32.438
-33.936
-35.468
-37.006
-38.524
-40.002
-41.418
-42.746
-43.956
-45.005
-45.856
-46.478
-46.849
-46.951
-46.782
-46.357
-45.712
-44.91
-44.018
-43.095
-42.203
-41.411
-40.792
-40.426
-40.409
-40.817
-41.749
-43.33
-45.575
-48.417
-51.696
-55.112
-58.37
-61.251
-63.417
-64.448
-64.212
-62.787
-60.51
-58.056
-55.858
-54.023
-52.844
-52.719
-53.541
-54.775
-55.289
-53.294
-47.425
-36.795
-20.202
3.69
35.629
75.666
122.752
174.743
229.53
284.96
338.037
385.161
422.816
447.971
458.702
454.163
433.983
398.582
349.841
290.955
225.912
158.961
94.014
34.642
-15.899
-55.164
-82.111
-97.103
-101.548
-97.486
-87.207
-73.241
-58.225
-44.474
-33.412
-25.556
-20.807
-18.683
-18.543
-19.579
-20.812
-21.3
-20.572
-18.632
-15.737
-12.292
-8.671
-5.203
-2.275
-0.285
0.562
0.265
-1.05
-3.151
-5.814
-8.878
-12.172
-15.517
-18.768
-21.8
-24.514
-26.869
-28.838
-30.395
-31.523
-32.196
-32.393
-32.129
-31.445
-30.397
-29.061
-27.497
-25.753
-23.889
-21.962
-20.027
-18.134
-16.31
-14.563
-12.904
-11.345
-9.901
-8.589
-7.41
-6.353
-5.404
-4.543
-3.756
-3.032
-2.355
-1.707
-1.072
-0.438
0.2
0.842
1.491
2.153
2.834
3.544
4.286
5.066
5.886
6.752
7.668
8.64
9.672
10.764
11.921
13.146
14.445
15.82
17.276
18.814
20.436
22.142
23.932
25.806
27.76
29.791
31.895
34.069
36.307
38.605
40.955
43.353
45.791
48.263
50.76
53.275
55.8
58.326
60.845
63.347
65.824
68.267
70.665
73.011
75.294
77.505
79.635
81.675
83.616
85.449
87.167
88.761
90.224
91.549
92.73
93.762
94.639
95.356
95.911
96.3
96.519
96.568
96.444
96.146
95.675
95.029
94.21
93.218
92.055
90.723
89.226
87.566
85.746
83.772
81.648
79.381
76.975
74.438
71.777
69
66.115
63.129
60.053
56.895
53.664
50.37
47.021
43.627
40.198
36.743
33.271
29.791
26.313
22.844
19.394
15.972
12.586
9.243
5.953
2.722
-0.441
-3.53
-6.537
-9.456
-12.281
-15.006
-17.626
-20.136
-22.532
-24.811
-26.969
-29.004
-30.914
-32.698
-34.355
-35.884
-37.285
-38.559
-39.706
-40.728
-41.625
-42.399
-43.053
-43.588
-44.007
-44.313
-44.509
-44.599
-44.585
-44.472
-44.265
-43.967
-43.585
-43.122
-42.585
-41.979
-41.31
-40.584
-39.806
-38.984
-38.122
-37.228
-36.306
-35.363
-34.404
-33.435
-32.462
-31.489
-30.523
-29.569
-28.63
-27.713
-26.822
-25.963
-25.138
-24.353
-23.612
-22.919
-22.277
-21.69
-21.16
-20.691
-20.284
-19.941
-19.663
-19.451
-19.305
-19.226
-19.211
-19.26
-19.371
-19.543
-19.772
-20.057
-20.394
-20.78
-21.212
-21.686
-22.198
-22.745
-23.323
-23.927
-24.553
-25.197
-25.854
-26.52
-27.19
-27.86
-28.526
-29.183
-29.826
-30.453
-31.058
-31.638
-32.19
-32.711
-33.199
-33.652
-34.068
-34.446
-34.786
-35.087
-35.351
-35.578
-35.768
-35.924
-36.048
-36.141
-36.206
-36.245
-36.262
-36.258
-36.237
-36.202
-36.156
-36.102
-36.044
-35.984
-35.926
-35.872
-35.826
-35.792
-35.771
-35.767
-35.782
-35.819
-35.878
-35.963
-36.074
-36.212
-36.377
-36.569
-36.788
-37.032
-37.3
-37.591
-37.902
-38.231
-38.576
-38.933
-39.3
-39.673
-40.05
-40.428
-40.802
-41.171
-41.531
-41.879
-42.211
-42.526
-42.82
-43.09
-43.334
-43.549
-43.732
-43.882
-43.997
-44.074
-44.112
-44.111
-44.069
-43.986
-43.862
-43.696
-43.489
-43.243
-42.957
-42.634
-42.276
-41.883
-41.457
-41.002
-40.518
-40.009
-39.475
-38.92
-38.344
-37.75
-37.14
-36.515
-35.877
-35.228
-34.569
-33.904
-33.234
-32.561
-31.887
-31.214
-30.544
-29.879
-29.222
-28.573
-27.936
-27.312
-26.707
-26.122
-25.563
-25.033
-24.537
-24.079
-23.663
-23.292
-22.969
-22.695
-22.472
-22.304
-22.194
-22.145
-22.162
-22.245
-22.397
-22.621
-22.916
-23.284
-23.719
-24.218
-24.779
-25.405
-26.103
-26.881
-27.745
-28.696
-29.735
-30.86
-32.069
-33.351
-34.687
-36.057
-37.436
-38.807
-40.157
-41.468
-42.72
-43.875
-44.89
-45.722
-46.336
-46.707
-46.821
-46.667
-46.245
-45.573
-44.684
-43.629
-42.474
-41.283
-40.13
-39.094
-38.246
-37.71
-37.655
-38.19
-39.353
-41.049
-43.023
-45.012
-46.81
-48.122
-48.594
-47.98
-46.22
-43.68
-41.165
-39.527
-39.466
-41.546
-46.215
-53.65
-63.57
-74.846
-85.482
-93.087
-95.249
-89.815
-74.803
-48.627
-10.425
39.537
99.645
167.239
238.938
310.922
378.846
438.327
485.296
516.348
529.322
523.109
497.756
454.846
397.495
329.607
255.698
180.616
108.745
44.509
-8.172
-47.293
-72.595
-84.755
-85.476
-77.117
-62.024
-43.616
-25.783
-10.863
0.036
6.395
8.497
6.805
1.586
-5.737
-12.97
-18.913
-23.032
-25.157
-25.663
-24.716
-22.138
-18.448
-14.698
-11.487
-9.166
-7.835
-7.236
-7.321
-8.272
-9.981
-12.124
-14.459
-16.751
-18.879
-20.887
-22.721
-24.256
-25.437
-26.245
-26.691
-26.826
-26.677
-26.239
-25.529
-24.574
-23.407
-22.073
-20.611
-19.052
-17.432
-15.786
-14.151
-12.562
-11.049
-9.629
-8.313
-7.104
-6.001
-5.001
-4.098
-3.283
-2.549
-1.884
-1.28
-0.727
-0.217
0.26
0.713
1.155
1.594
2.039
2.499
2.98
3.489
4.033
4.618
5.25
5.936
6.683
7.497
8.385
9.354
10.412
11.562
12.811
14.164
15.624
17.194
18.877
20.674
22.586
24.614
26.755
29.009
31.372
33.839
36.405
39.064
41.809
44.63
47.521
50.47
53.47
56.511
59.582
62.675
65.777
68.879
71.969
75.034
78.061
81.035
83.941
86.766
89.496
92.117
94.615
96.979
99.197
101.258
103.151
104.866
106.39
107.709
108.81
109.686
110.334
110.754
110.951
110.928
110.689
110.246
109.605
108.766
107.73
106.485
105.022
103.336
101.432
99.321
97.014
94.513
91.82
88.933
85.847
82.554
79.05
75.313
71.337
67.132
62.718
58.14
53.449
48.684
43.875
39.048
34.221
29.426
24.692
20.046
15.523
11.158
6.993
3.086
-0.516
-3.795
-6.748
-9.397
-11.784
-13.934
-15.864
-17.594
-19.135
-20.503
-21.715
-22.779
-23.706
-24.516
-25.237
-25.912
-26.579
-27.255
-27.943
-28.632
-29.293
-29.912
-30.479
-30.979
-31.409
-31.764
-32.042
-32.254
-32.408
-32.51
-32.556
-32.537
-32.444
-32.276
-32.04
-31.75
-31.422
-31.071
-30.709
-30.351
-30.007
-29.684
-29.385
-29.111
-28.855
-28.618
-28.399
-28.199
-28.023
-27.87
-27.738
-27.627
-27.534
-27.457
-27.391
-27.334
-27.282
-27.233
-27.185
-27.137
-27.091
-27.046
-27.001
-26.957
-26.913
-26.868
-26.822
-26.773
-26.72
-26.663
-26.602
-26.536
-26.466
-26.393
-26.317
-26.239
-26.16
-26.081
-26.005
-25.931
-25.862
-25.798
-25.74
-25.69
-25.649
-25.617
-25.595
-25.585
-25.585
-25.598
-25.623
-25.661
-25.711
-25.774
-25.848
-25.935
-26.033
-26.141
-26.259
-26.386
-26.522
-26.665
-26.814
-26.969
-27.127
-27.288
-27.449
-27.61
-27.768
-27.923
-28.072
-28.215
-28.351
-28.478
-28.596
-28.704
-28.802
-28.89
-28.967
-29.033
-29.09
-29.137
-29.174
-29.203
-29.224
-29.238
-29.246
-29.249
-29.249
-29.247
-29.244
-29.243
-29.244
-29.25
-29.262
-29.282
-29.313
-29.356
-29.412
-29.485
-29.576
-29.686
-29.816
-29.969
-30.144
-30.343
-30.566
-30.813
-31.084
-31.379
-31.698
-32.038
-32.401
-32.784
-33.186
-33.606
-34.041
-34.491
-34.953
-35.425
-35.905
-36.391
-36.879
-37.368
-37.855
-38.337
-38.812
-39.276
-39.727
-40.162
-40.578
-40.971
-41.339
-41.679
-41.988
-42.264
-42.505
-42.709
-42.874
-42.998
-43.08
-43.119
-43.114
-43.065
-42.97
-42.83
-42.644
-42.414
-42.141
-41.824
-41.465
-41.067
-40.63
-40.156
-39.649
-39.109
-38.54
-37.945
-37.327
-36.689
-36.036
-35.372
-34.703
-34.036
-33.376
-32.732
-32.109
-31.515
-30.957
-30.442
-29.973
-29.557
-29.198
-28.901
-28.672
-28.516
-28.438
-28.441
-28.526
-28.697
-28.956
-29.302
-29.733
-30.244
-30.835
-31.508
-32.27
-33.128
-34.086
-35.143
-36.299
-37.549
-38.89
-40.31
-41.791
-43.309
-44.837
-46.355
-47.844
-49.283
-50.646
-51.895
-52.979
-53.857
-54.492
-54.861
-54.952
-54.754
-54.266
-53.505
-52.503
-51.315
-50.017
-48.677
-47.373
-46.19
-45.196
-44.519
-44.336
-44.744
-45.779
-47.349
-49.204
-51.138
-53.008
-54.565
-55.501
-55.581
-54.662
-53.044
-51.423
-50.382
-50.384
-51.764
-54.714
-59.433
-65.895
-73.205
-79.739
-83.73
-83.296
-76.881
-63.136
-40.474
-7.645
35.498
88
148.093
213.194
280.47
346.652
407.653
459.101
497.05
518.476
521.247
505.343
472.636
425.381
366.328
296.489
215.751
127.612
39.598
-36.489
-88.573
-112.193
-111.08
-95.476
-76.567
-60.306
-47.854
-37.21
-26.835
-17.304
-10.026
-6.511
-6.85
-9.902
-14.273
-18.463
-21.405
-22.731
-22.443
-20.817
-18.352
-15.52
-12.747
-10.479
-9.083
-8.716
-9.365
-10.909
-13.14
-15.87
-18.955
-22.238
-25.555
-28.776
-31.786
-34.492
-36.849
-38.822
-40.38
-41.513
-42.22
-42.512
-42.425
-41.999
-41.275
-40.295
-39.095
-37.711
-36.186
-34.568
-32.905
-31.243
-29.616
-28.048
-26.557
-25.156
-23.851
-22.644
-21.531
-20.498
-19.54
-18.651
-17.827
-17.065
-16.359
-15.7
-15.082
-14.496
-13.935
-13.392
-12.862
-12.337
-11.812
-11.282
-10.742
-10.187
-9.613
-9.011
-8.375
-7.695
-6.964
-6.173
-5.316
-4.385
-3.372
-2.271
-1.078
0.212
1.604
3.101
4.706
6.42
8.247
10.185
12.235
14.395
16.663
19.035
21.507
24.074
26.73
29.468
32.279
35.155
38.087
41.063
44.073
47.105
50.146
53.183
56.203
59.191
62.132
65.013
67.819
70.534
73.145
75.637
77.998
80.212
82.268
84.153
85.855
87.363
88.667
89.757
90.625
91.263
91.664
91.824
91.738
91.403
90.817
89.979
88.888
87.547
85.959
84.126
82.053
79.749
77.218
74.472
71.518
68.368
65.034
61.529
57.864
54.055
50.116
46.062
41.908
37.67
33.364
29.006
24.612
20.199
15.782
11.377
6.999
2.663
-1.617
-5.827
-9.954
-13.986
-17.91
-21.716
-25.392
-28.93
-32.32
-35.554
-38.626
-41.529
-44.26
-46.814
-49.188
-51.382
-53.395
-55.227
-56.88
-58.357
-59.66
-60.794
-61.764
-62.576
-63.236
-63.751
-64.13
-64.383
-64.518
-64.547
-64.479
-64.326
-64.099
-63.809
-63.467
-63.083
-62.667
-62.227
-61.773
-61.317
-60.868
-60.435
-60.028
-59.654
-59.32
-59.033
-58.796
-58.612
-58.48
-58.402
-58.379
-58.42
-58.532
-58.719
-58.984
-59.328
-59.748
-60.238
-60.79
-61.387
-62.01
-62.64
-63.259
-63.855
-64.413
-64.916
-65.337
-65.643
-65.801
-65.782
-65.562
-65.124
-64.464
-63.586
-62.515
-61.289
-59.941
-58.514
-57.06
-55.638
-54.318
-53.176
-52.273
-51.703
-51.598
-52.028
-53
-54.406
-55.978
-57.448
-58.602
-59.166
-58.815
-57.353
-54.747
-51.308
-47.772
-44.881
-43.19
-43.178
-45.269
-49.65
-56.146
-63.845
-70.973
-75.508
-75.578
-69.322
-54.855
-30.507
4.948
50.811
104.338
162.53
222.759
284.669
348.753
412.07
467.917
505.283
514.265
492.848
445.351
382.082
310.764
231.253
144.039
50.566
-40.169
-110.439
-149.97
-156.793
-138.121
-110.18
-83.334
-61.273
-44.034
-27.394
-10.275
5.369
17.552
23.635
23.017
17.142
7.84
-2.623
-12.397
-20.659
-26.909
-30.653
-31.806
-30.606
-27.571
-23.672
-19.905
-16.77
-14.53
-13.408
-13.415
-14.507
-16.574
-19.252
-22.112
-24.906
-27.469
-29.704
-31.607
-33.147
-34.284
-35.05
-35.492
-35.644
-35.537
-35.18
-34.565
-33.706
-32.63
-31.368
-29.964
-28.458
-26.887
-25.286
-23.681
-22.092
-20.537
-19.029
-17.573
-16.172
-14.824
-13.527
-12.28
-11.083
-9.933
-8.825
-7.75
-6.7
-5.668
-4.648
-3.634
-2.621
-1.604
-0.576
0.466
1.525
2.606
3.713
4.851
6.026
7.243
8.509
9.828
11.207
12.652
14.167
15.758
17.43
19.186
21.029
22.963
24.988
27.106
29.318
31.622
34.017
36.501
39.069
41.719
44.443
47.236
50.091
52.998
55.949
58.933
61.94
64.958
67.975
70.978
73.955
76.891
79.773
82.588
85.321
87.957
90.483
92.885
95.148
97.26
99.206
100.975
102.554
103.932
105.099
106.046
106.764
107.245
107.483
107.472
107.209
106.691
105.915
104.882
103.594
102.051
100.26
98.224
95.95
93.447
90.724
87.79
84.657
81.337
77.842
74.188
70.388
66.458
62.413
58.271
54.048
49.76
45.426
41.062
36.686
32.314
27.963
23.65
19.39
15.198
11.09
7.079
3.179
-0.597
-4.238
-7.734
-11.074
-14.251
-17.258
-20.088
-22.737
-25.201
-27.478
-29.566
-31.465
-33.176
-34.7
-36.04
-37.2
-38.184
-38.997
-39.646
-40.138
-40.479
-40.677
-40.74
-40.677
-40.496
-40.206
-39.815
-39.333
-38.768
-38.13
-37.429
-36.672
-35.869
-35.028
-34.158
-33.266
-32.361
-31.448
-30.534
-29.625
-28.727
-27.845
-26.983
-26.145
-25.335
-24.555
-23.809
-23.099
-22.425
-21.789
-21.192
-20.633
-20.114
-19.633
-19.191
-18.787
-18.421
-18.093
-17.801
-17.546
-17.325
-17.138
-16.983
-16.859
-16.765
-16.698
-16.658
-16.644
-16.653
-16.684
-16.737
-16.809
-16.901
-17.01
-17.135
-17.276
-17.431
-17.6
-17.781
-17.974
-18.178
-18.394
-18.621
-18.858
-19.106
-19.364
-19.63
-19.906
-20.189
-20.48
-20.776
-21.077
-21.383
-21.691
-22.003
-22.316
-22.631
-22.946
-23.261
-23.574
-23.885
-24.194
-24.499
-24.8
-25.096
-25.386
-25.671
-25.949
-26.221
-26.486
-26.744
-26.994
-27.236
-27.468
-27.69
-27.902
-28.103
-28.293
-28.471
-28.637
-28.792
-28.936
-29.069
-29.19
-29.301
-29.402
-29.492
-29.573
-29.643
-29.704
-29.757
-29.8
-29.836
-29.864
-29.885
-29.9
-29.907
-29.909
-29.904
-29.894
-29.877
-29.855
-29.827
-29.795
-29.757
-29.716
-29.672
-29.625
-29.577
-29.527
-29.476
-29.424
-29.373
-29.322
-29.271
-29.222
-29.175
-29.129
-29.086
-29.046
-29.01
-28.977
-28.949
-28.925
-28.905
-28.89
-28.88
-28.876
-28.877
-28.884
-28.898
-28.918
-28.945
-28.98
-29.023
-29.073
-29.13
-29.194
-29.266
-29.343
-29.427
-29.516
-29.61
-29.708
-29.811
-29.917
-30.025
-30.136
-30.247
-30.359
-30.47
-30.579
-30.686
-30.789
-30.889
-30.983
-31.072
-31.156
-31.232
-31.301
-31.362
-31.414
-31.457
-31.489
-31.511
-31.521
-31.52
-31.506
-31.481
-31.443
-31.394
-31.333
-31.26
-31.176
-31.082
-30.977
-30.863
-30.741
-30.611
-30.474
-30.332
-30.186
-30.038
-29.888
-29.738
-29.589
-29.443
-29.3
-29.162
-29.03
-28.905
-28.789
-28.683
-28.589
-28.506
-28.438
-28.384
-28.345
-28.323
-28.317
-28.329
-28.359
-28.406
-28.471
-28.554
-28.654
-28.771
-28.904
-29.053
-29.215
-29.39
-29.575
-29.768
-29.968
-30.171
-30.377
-30.582
-30.784
-30.98
-31.168
-31.345
-31.509
-31.656
-31.783
-31.887
-31.965
-32.015
-32.034
-32.019
-31.968
-31.878
-31.749
-31.577
-31.364
-31.106
-30.804
-30.457
-30.066
-29.631
-29.155
-28.638
-28.084
-27.496
-26.878
-26.236
-25.576
-24.902
-24.223
-23.546
-22.877
-22.224
-21.594
-20.993
-20.427
-19.903
-19.428
-19.009
-18.655
-18.372
-18.169
-18.05
-18.021
-18.086
-18.245
-18.498
-18.844
-19.285
-19.826
-20.472
-21.23
-22.103
-23.093
-24.198
-25.41
-26.715
-28.091
-29.515
-30.963
-32.415
-33.856
-35.267
-36.632
-37.925
-39.112
-40.161
-41.041
-41.719
-42.164
-42.363
-42.327
-42.085
-41.695
-41.206
-40.647
-40.057
-39.489
-39
-38.658
-38.544
-38.704
-39.232
-40.293
-41.944
-44.144
-46.752
-49.373
-51.581
-53.069
-53.43
-52.203
-49.293
-44.885
-39.419
-33.983
-29.831
-27.79
-28.653
-33.234
-40.593
-49.202
-58.442
-65.682
-69.927
-70.931
-63.287
-43.178
-7.066
48.759
118.811
196.197
275.705
349.819
417.296
477.463
523.59
551.37
555.562
532.71
488.661
429.467
358.604
277.973
187.068
88.626
-6.305
-81.752
-127.006
-139.103
-125.015
-100.017
-74.531
-53.359
-37.512
-23.152
-8.887
3.965
14.121
19.311
18.553
12.925
4.197
-5.451
-14.254
-21.443
-26.866
-30.419
-31.84
-31.181
-28.902
-25.814
-22.891
-20.669
-19.243
-18.664
-19.026
-20.347
-22.568
-25.431
-28.478
-31.415
-34.111
-36.481
-38.503
-40.141
-41.337
-42.095
-42.48
-42.54
-42.316
-41.835
-41.092
-40.102
-38.898
-37.514
-36.001
-34.405
-32.767
-31.128
-29.518
-27.961
-26.476
-25.079
-23.774
-22.564
-21.443
-20.405
-19.45
-18.576
-17.779
-17.055
-16.393
-15.784
-15.218
-14.688
-14.188
-13.71
-13.247
-12.792
-12.34
-11.886
-11.425
-10.952
-10.462
-9.947
-9.401
-8.815
-8.185
-7.504
-6.765
-5.962
-5.089
-4.141
-3.114
-2.004
-0.809
0.474
1.848
3.314
4.871
6.52
8.26
10.09
12.008
14.011
16.096
18.26
20.496
22.802
25.171
27.597
30.073
32.594
35.151
37.736
40.343
42.961
45.584
48.201
50.804
53.384
55.931
58.435
60.887
63.279
65.599
67.841
69.995
72.052
74.004
75.844
77.564
79.156
80.614
81.931
83.102
84.119
84.98
85.678
86.21
86.571
86.76
86.774
86.612
86.271
85.753
85.057
84.185
83.138
81.92
80.533
78.982
77.271
75.406
73.394
71.241
68.955
66.544
64.016
61.381
58.647
55.825
52.926
49.958
46.933
43.863
40.757
37.627
34.485
31.341
28.207
25.093
22.012
18.973
15.987
13.063
10.211
7.44
4.759
2.175
-0.304
-2.673
-4.924
-7.054
-9.057
-10.931
-12.672
-14.279
-15.749
-17.084
-18.283
-19.347
-20.277
-21.076
-21.746
-22.29
-22.713
-23.018
-23.211
-23.295
-23.278
-23.163
-22.959
-22.671
-22.305
-21.868
-21.367
-20.81
-20.201
-19.549
-18.859
-18.138
-17.392
-16.627
-15.849
-15.062
-14.272
-13.483
-12.699
-11.924
-11.161
-10.412
-9.682
-8.97
-8.279
-7.611
-6.967
-6.347
-5.753
-5.185
-4.643
-4.128
-3.639
-3.177
-2.741
-2.33
-1.945
-1.584
-1.248
-0.935
-0.645
-0.378
-0.131
0.094
0.3
0.486
0.653
0.803
0.934
1.047
1.143
1.222
1.282
1.325
1.349
1.354
1.339
1.304
1.249
1.171
1.073
0.952
0.809
0.644
0.457
0.248
0.018
-0.232
-0.503
-0.792
-1.1
-1.424
-1.764
-2.119
-2.488
-2.869
-3.26
-3.662
-4.072
-4.49
-4.914
-5.343
-5.775
-6.21
-6.644
-7.078
-7.509
-7.935
-8.355
-8.767
-9.168
-9.559
-9.937
-10.301
-10.65
-10.983
-11.301
-11.601
-11.885
-12.152
-12.403
-12.638
-12.857
-13.061
-13.251
-13.427
-13.591
-13.742
-13.883
-14.012
-14.132
-14.242
-14.343
-14.436
-14.521
-14.598
-14.668
-14.733
-14.792
-14.847
-14.899
-14.949
-14.999
-15.048
-15.098
-15.15
-15.204
-15.262
-15.323
-15.388
-15.456
-15.529
-15.607
-15.688
-15.773
-15.862
-15.955
-16.05
-16.148
-16.248
-16.35
-16.453
-16.559
-16.665
-16.773
-16.882
-16.993
-17.104
-17.215
-17.326
-17.436
-17.543
-17.646
-17.743
-17.833
-17.914
-17.984
-18.042
-18.086
-18.113
-18.123
-18.113
-18.081
-18.026
-17.946
-17.839
-17.703
-17.537
-17.34
-17.111
-16.847
-16.549
-16.215
-15.845
-15.437
-14.992
-14.508
-13.987
-13.427
-12.831
-12.2
-11.535
-10.84
-10.119
-9.375
-8.615
-7.845
-7.069
-6.296
-5.532
-4.785
-4.059
-3.362
-2.7
-2.078
-1.504
-0.984
-0.526
-0.137
0.178
0.412
0.56
0.619
0.587
0.464
0.25
-0.056
-0.461
-0.97
-1.588
-2.317
-3.158
-4.111
-5.167
-6.316
-7.538
-8.811
-10.113
-11.423
-12.728
-14.011
-15.255
-16.439
-17.532
-18.502
-19.323
-19.967
-20.409
-20.64
-20.664
-20.5
-20.196
-19.795
-19.331
-18.845
-18.379
-17.984
-17.72
-17.643
-17.806
-18.291
-19.215
-20.65
-22.578
-24.849
-27.173
-29.236
-30.766
-31.475
-30.962
-28.943
-25.464
-20.938
-16.187
-12.117
-9.302
-8.21
-9.474
-13.438
-19.722
-27.166
-33.749
-37.172
-35.571
-27.077
-9.511
18.977
58.409
106.792
161.393
219.692
281.995
349.562
419.804
485.766
535.648
558.433
550.631
515.787
463.767
402.553
333.267
256.116
170.945
84.048
10.103
-40.858
-64.865
-66.409
-58.673
-50.537
-45.338
-42.451
-37.406
-28.788
-17.935
-6.319
3.971
12.357
19.385
25.073
29.762
33.731
36.588
37.951
37.584
35.218
31.063
25.908
20.261
14.516
9.331
5.134
2.167
0.633
0.273
0.443
0.777
1.021
0.873
0.281
-0.747
-2.221
-3.91
-5.477
-6.749
-7.625
-8.049
-8.089
-7.789
-7.166
-6.299
-5.272
-4.132
-2.918
-1.645
-0.31
1.068
2.457
3.832
5.169
6.455
7.686
8.859
9.978
11.049
12.081
13.081
14.053
14.999
15.921
16.817
17.692
18.55
19.397
20.241
21.092
21.957
22.843
23.754
24.694
25.667
26.676
27.725
28.819
29.962
31.162
32.422
33.748
35.145
36.617
38.167
39.796
41.505
43.296
45.167
47.119
49.151
51.259
53.442
55.698
58.021
60.408
62.852
65.349
67.892
70.473
73.085
75.719
78.367
81.019
83.666
86.299
88.907
91.479
94.006
96.476
98.88
101.205
103.443
105.582
107.612
109.523
111.306
112.953
114.456
115.807
116.999
118.026
118.882
119.562
120.063
120.38
120.51
120.452
120.203
119.763
119.132
118.311
117.3
116.102
114.72
113.158
111.419
109.509
107.433
105.197
102.809
100.276
97.606
94.808
91.891
88.864
85.737
82.52
79.222
75.854
72.425
68.946
65.425
61.874
58.301
54.717
51.13
47.55
43.986
40.446
36.939
33.473
30.055
26.693
23.395
20.165
17.011
13.939
10.953
8.057
5.256
2.553
-0.049
-2.549
-4.945
-7.236
-9.422
-11.502
-13.477
-15.348
-17.115
-18.781
-20.346
-21.812
-23.182
-24.459
-25.644
-26.741
-27.753
-28.684
-29.536
-30.313
-31.019
-31.658
-32.233
-32.749
-33.21
-33.619
-33.982
-34.301
-34.581
-34.825
-35.037
-35.22
-35.377
-35.511
-35.624
-35.718
-35.795
-35.858
-35.909
-35.948
-35.979
-36.002
-36.019
-36.031
-36.039
-36.045
-36.05
-36.053
-36.057
-36.062
-36.069
-36.079
-36.091
-36.107
-36.128
-36.152
-36.182
-36.216
-36.255
-36.3
-36.35
-36.407
-36.47
-36.542
-36.623
-36.713
-36.815
-36.93
-37.058
-37.201
-37.361
-37.537
-37.733
-37.948
-38.184
-38.442
-38.722
-39.026
-39.355
-39.708
-40.087
-40.49
-40.918
-41.371
-41.848
-42.349
-42.874
-43.422
-43.993
-44.586
-45.201
-45.836
-46.491
-47.163
-47.851
-48.552
-49.264
-49.985
-50.712
-51.443
-52.175
-52.906
-53.634
-54.356
-55.069
-55.773
-56.465
-57.142
-57.804
-58.449
-59.077
-59.687
-60.28
-60.858
-61.421
-61.971
-62.509
-63.038
-63.558
-64.07
-64.577
-65.077
-65.573
-66.065
-66.557
-67.053
-67.557
-68.074
-68.608
-69.166
-69.753
-70.375
-71.036
-71.736
-72.478
-73.265
-74.1
-74.99
-75.937
-76.941
-78
-79.11
-80.268
-81.467
-82.693
-83.928
-85.151
-86.347
-87.51
-88.638
-89.729
-90.779
-91.782
-92.734
-93.637
-94.501
-95.329
-96.124
-96.887
-97.623
-98.351
-99.105
-99.914
-100.795
-101.747
-102.756
-103.814
-104.91
-106.034
-107.164
-108.255
-109.26
-110.137
-110.857
-111.391
-111.701
-111.732
-111.406
-110.657
-109.445
-107.749
-105.562
-102.871
-99.664
-95.932
-91.695
-87.007
-81.931
-76.524
-70.834
-64.913
-58.828
-52.672
-46.56
