Name
Date of Birth,"Mar 27, 1959"
Recorded Date,2019-05-03 14:03:49 -0500
Classification,Sinus Rhythm
Symptoms,
Software Version,1.2
Device,"Watch4,2"
Sample Rate,510.227 hertz


Lead,Lead I
Unit,µV

67.457
75.204
83.016
90.807
98.486
105.992
113.272
120.254
126.882
133.115
138.891
144.146
148.802
152.75
155.913
158.244
159.71
160.318
160.073
158.967
157.005
154.198
150.55
146.083
140.828
134.809
128.083
120.747
112.918
104.757
96.424
88.041
79.721
71.561
63.645
56.062
48.892
42.191
36.018
30.433
25.475
21.184
17.549
14.483
11.876
9.59
7.482
5.463
3.429
1.234
-1.246
-4.125
-7.498
-11.371
-15.823
-21.083
-27.215
-34.081
-41.368
-48.431
-54.688
-59.82
-63.3
-64.339
-62.555
-58.063
-51.426
-43.97
-37.019
-31.31
-27.83
-28.112
-31.592
-35.345
-36.721
-32.086
-21.69
-11.058
-0.533
14.178
42.865
100.563
192.907
315.115
456.005
599.75
736.06
858.965
960.658
1031.9
1059.482
1031.728
946.811
811.342
640.13
452.465
266.594
99.05
-37.115
-132.775
-185.914
-200.524
-183.852
-148.688
-107.208
-70.412
-48.086
-41.876
-47.973
-58.582
-65.814
-67.388
-64.772
-61.977
-61.32
-61.483
-60.427
-56
-47.503
-35.957
-22.501
-8.165
6.068
19.398
31.337
41.625
50.254
57.39
63.11
67.426
70.432
72.289
73.152
73.181
72.496
71.181
69.379
67.267
64.99
62.667
60.39
58.219
56.246
54.594
53.375
52.691
52.617
53.182
54.403
56.282
58.794
61.897
65.537
69.644
74.165
79.061
84.295
89.832
95.62
101.588
107.663
113.773
119.857
125.87
131.776
137.545
143.161
148.614
153.898
159.006
163.926
168.643
173.148
177.447
181.548
185.468
189.226
192.839
196.334
199.742
203.087
206.383
209.642
212.871
216.095
219.353
222.678
226.091
229.596
233.17
236.788
240.427
244.045
247.597
251.012
254.198
257.081
259.605
261.711
263.348
264.441
264.887
264.607
263.546
261.67
258.981
255.48
251.173
246.095
240.304
233.884
226.948
219.585
211.862
203.85
195.617
187.248
178.856
170.527
162.326
154.307
146.507
138.961
131.706
124.755
118.092
111.692
105.512
99.526
93.733
88.127
82.705
77.458
72.367
67.426
62.645
58.029
53.586
49.324
45.241
41.352
37.682
34.257
31.105
28.245
25.681
23.415
21.448
19.774
18.39
17.283
16.434
15.827
15.449
15.287
15.327
15.555
15.948
16.485
17.141
17.894
18.722
19.603
20.513
21.433
22.346
23.233
24.082
24.878
25.605
26.248
26.787
27.2
27.472
27.588
27.541
27.325
26.945
26.407
25.725
24.912
23.978
22.928
21.76
20.464
19.029
17.444
15.705
13.82
11.794
9.632
7.336
4.902
2.319
-0.435
-3.385
-6.563
-9.988
-13.663
-17.569
-21.666
-25.902
-30.214
-34.548
-38.867
-43.134
-47.318
-51.385
-55.302
-59.024
-62.501
-65.671
-68.461
-70.815
-72.698
-74.101
-75.045
-75.573
-75.748
-75.627
-75.251
-74.66
-73.883
-72.948
-71.883
-70.719
-69.491
-68.25
-67.059
-65.974
-65.039
-64.278
-63.694
-63.274
-62.988
-62.813
-62.732
-62.736
-62.825
-63.004
-63.284
-63.674
-64.183
-64.816
-65.561
-66.412
-67.364
-68.418
-69.589
-70.896
-72.364
-74.017
-75.873
-77.942
-80.228
-82.73
-85.444
-88.367
-91.495
-94.819
-98.34
-102.053
-105.951
-110.021
-114.232
-118.537
-122.886
-127.228
-131.509
-135.689
-139.722
-143.559
-147.154
-150.449
-153.393
-155.946
-158.068
-159.718
-160.874
-161.542
-161.779
-161.687
-161.383
-160.968
-160.519
-160.133
-159.928
-160.022
-160.537
-161.586
-163.216
-165.537
-168.744
-172.842
-177.737
-183.196
-188.648
-193.572
-197.635
-200.195
-200.539
-198.6
-194.421
-188.313
-181.61
-175.248
-169.685
-166.475
-166.141
-166.584
-166.139
-162.765
-154.949
-146.208
-139.121
-130.815
-115.383
-82.507
-22.133
67.134
180.7
309.991
442.392
566.794
671.472
744.406
775.871
757.141
686.57
567.82
410.621
234.211
59.483
-91.238
-201.021
-265.689
-289.981
-287.946
-273.418
-255.307
-240.302
-228.933
-222.341
-221.685
-223.589
-226.308
-227.727
-226.922
-226.955
-229.428
-234.334
-240.265
-244.505
-245.934
-244.785
-241.764
-237.895
-233.748
-229.777
-226.706
-224.96
-224.671
-225.757
-227.894
-230.828
-234.404
-238.413
-242.611
-246.771
-250.691
-254.228
-257.296
-259.784
-261.599
-262.682
-262.991
-262.527
-261.32
-259.403
-256.828
-253.66
-249.959
-245.789
-241.212
-236.289
-231.087
-225.678
-220.127
-214.5
-208.843
-203.192
-197.574
-192.006
-186.493
-181.037
-175.633
-170.27
-164.945
-159.657
-154.404
-149.188
-144.006
-138.856
-133.736
-128.645
-123.581
-118.549
-113.55
-108.589
-103.672
-98.806
-94
-89.263
-84.604
-80.028
-75.542
-71.153
-66.867
-62.692
-58.635
-54.701
-50.9
-47.239
-43.727
-40.373
-37.186
-34.174
-31.346
-28.712
-26.28
-24.057
-22.053
-20.275
-18.731
-17.427
-16.369
-15.563
-15.014
-14.725
-14.699
-14.938
-15.442
-16.21
-17.24
-18.53
-20.074
-21.868
-23.905
-26.177
-28.675
-31.389
-34.309
-37.423
-40.718
-44.181
-47.798
-51.554
-55.432
-59.418
-63.494
-67.643
-71.847
-76.091
-80.355
-84.623
-88.877
-93.1
-97.276
-101.388
-105.421
-109.359
-113.189
-116.897
-120.47
-123.897
-127.167
-130.272
-133.202
-135.952
-138.515
-140.885
-143.06
-145.035
-146.81
-148.383
-149.753
-150.922
-151.89
-152.662
-153.239
-153.625
-153.826
-153.847
-153.693
-153.371
-152.888
-152.251
-151.468
-150.547
-149.498
-148.329
-147.05
-145.669
-144.198
-142.645
-141.022
-139.336
-137.598
-135.816
-133.999
-132.156
-130.294
-128.422
-126.547
-124.676
-122.816
-120.974
-119.156
-117.368
-115.614
-113.9
-112.231
-110.611
-109.046
-107.537
-106.09
-104.709
-103.396
-102.155
-100.987
-99.895
-98.878
-97.938
-97.074
-96.284
-95.564
-94.911
-94.323
-93.794
-93.322
-92.902
-92.528
-92.197
-91.905
-91.646
-91.416
-91.208
-91.014
-90.827
-90.638
-90.441
-90.226
-89.985
-89.706
-89.382
-89.004
-88.564
-88.049
-87.445
-86.735
-85.905
-84.948
-83.861
-82.64
-81.289
-79.812
-78.223
-76.543
-74.794
-72.991
-71.142
-69.253
-67.33
-65.386
-63.438
-61.502
-59.582
-57.67
-55.758
-53.834
-51.874
-49.847
-47.699
-45.365
-42.794
-39.952
-36.824
-33.409
-29.708
-25.718
-21.447
-16.918
-12.175
-7.279
-2.29
2.728
7.694
12.514
17.072
21.247
24.949
28.12
30.724
32.741
34.164
34.989
35.24
34.973
34.261
33.19
31.844
30.296
28.627
26.921
25.238
23.624
22.089
20.614
19.185
17.769
16.287
14.653
12.749
10.424
7.569
4.021
-0.444
-5.842
-12.02
-18.657
-25.168
-31.038
-35.955
-39.377
-40.642
-39.616
-36.518
-32.135
-27.841
-24.414
-22.005
-21.076
-22.147
-24.892
-28.445
-30.572
-27.91
-18.476
0.055
30.457
74.053
132.637
203.976
281.849
363.765
446.69
531.785
625.872
727.217
831.315
928.263
997.167
1020.366
983.774
881.665
723.966
530.48
328.897
145.421
-0.543
-96.442
-144.151
-151.146
-126.242
-85.275
-38.725
4.033
30.077
37.317
27.569
6.617
-12.315
-23.495
-26.386
-23.036
-19.825
-18.683
-18.443
-18.073
-15.532
-10.634
-4.696
1.469
6.944
10.945
13.345
14.112
13.312
11.267
8.226
4.358
-0.13
-5.016
-10.104
-15.19
-20.096
-24.701
-28.864
-32.467
-35.431
-37.699
-39.261
-40.138
-40.36
-39.977
-39.047
-37.626
-35.774
-33.547
-30.999
-28.196
-25.205
-22.093
-18.925
-15.748
-12.591
-9.476
-6.407
-3.382
-0.39
2.585
5.568
8.572
11.61
14.692
17.824
21.016
24.279
27.619
31.046
34.563
38.174
41.878
45.675
49.56
53.529
57.573
61.685
65.854
70.072
74.329
78.613
82.912
87.212
91.497
95.752
99.958
104.097
108.152
112.103
115.932
119.615
123.128
126.446
129.554
132.436
135.077
137.47
139.606
141.482
143.106
144.484
145.621
146.52
147.171
147.564
147.693
147.553
147.142
146.453
145.463
144.148
142.49
140.468
138.062
135.248
131.975
128.207
123.922
119.11
113.787
107.985
101.73
95.062
88.032
80.707
73.179
65.553
57.914
50.347
42.938
35.78
28.993
22.686
16.94
11.82
7.361
3.581
0.498
-1.887
-3.602
-4.693
-5.231
-5.31
-4.991
-4.337
-3.41
-2.275
-1.019
0.276
1.557
2.781
3.922
4.961
5.876
6.657
7.319
7.887
8.401
8.913
9.453
10.04
10.691
11.418
12.245
13.187
14.252
15.429
16.699
18.057
19.508
21.055
22.687
24.374
26.06
27.703
29.306
30.831
32.202
33.362
34.248
34.847
35.226
35.409
35.319
35.036
34.839
34.786
34.801
34.928
34.875
35.215
37.691
41.924
46.332
48.286
42.846
30.358
15.778
4.062
2.243
10.725
22.887
33.616
37.376
33.251
26.217
19.32
14.657
12.852
11.886
10.86
9.85
8.801
8.033
7.634
7.335
7.065
6.869
6.736
6.645
6.593
6.576
6.613
6.744
6.98
7.311
7.748
8.3
8.959
9.701
10.5
11.348
12.264
13.264
14.342
15.528
16.921
18.656
20.839
23.5
26.557
29.916
33.596
37.467
41.12
44.285
46.882
48.898
50.693
51.472
49.103
43.126
34.86
28.958
32.515
47.428
69.411
88.816
94.11
81.631
56.684
29.904
11.874
6.178
9.363
14.846
17.457
15.797
11.26
6.106
1.413
-2.851
-6.887
-10.834
-14.5
-17.602
-20.101
-22.034
-23.396
-24.198
-24.5
-24.437
-24.188
-23.91
-23.696
-23.599
-23.716
-24.183
-25.118
-26.622
-28.772
-31.586
-35.156
-39.676
-45.129
-51.346
-58.015
-64.518
-70.335
-75.124
-78.238
-78.895
-76.926
-72.419
-65.791
-58.371
-51.118
-44.599
-40.357
-38.835
-37.905
-35.526
-29.251
-19.188
-10.546
-5.443
-1.091
13.35
54.417
129.09
235.807
362.053
488.071
606.092
712.729
804.69
881.375
930.161
934.284
887.505
789.155
648.484
485.057
314.849
152.454
13.969
-91.669
-159.627
-190.72
-195.644
-184.308
-165.197
-145.894
-128.279
-115.747
-110.445
-109.021
-109.364
-108.402
-104.539
-101.017
-99.545
-100.032
-101.143
-100.047
-95.577
-88.197
-78.804
-68.5
-57.986
-47.824
-38.8
-31.494
-26.165
-22.817
-21.213
-21.132
-22.424
-24.901
-28.327
-32.48
-37.145
-42.138
-47.314
-52.51
-57.574
-62.395
-66.85
-70.817
-74.199
-76.897
-78.86
-80.09
-80.594
-80.382
-79.477
-77.915
-75.768
-73.143
-70.141
-66.841
-63.31
-59.588
-55.733
-51.825
-47.939
-44.135
-40.452
-36.902
-33.505
-30.299
-27.313
-24.549
-21.973
-19.516
-17.115
-14.737
-12.357
-9.965
-7.536
-5.029
-2.404
0.362
3.281
6.363
9.626
13.114
16.869
20.899
25.169
29.614
34.174
38.81
43.495
48.205
52.905
57.552
62.109
66.553
70.869
75.03
78.996
82.708
86.102
89.146
91.834
94.187
96.219
97.932
99.322
100.387
101.136
101.575
101.705
101.514
100.991
100.135
98.958
97.483
95.736
93.731
91.471
88.951
86.172
83.14
79.865
76.354
72.612
68.651
64.488
60.149
55.662
51.05
46.333
41.527
36.651
31.728
26.781
21.834
16.909
12.027
7.212
2.485
-2.132
-6.618
-10.958
-15.139
-19.149
-22.976
-26.609
-30.039
-33.258
-36.259
-39.036
-41.583
-43.894
-45.967
-47.801
-49.394
-50.747
-51.862
-52.741
-53.388
-53.808
-54.007
-53.992
-53.77
-53.349
-52.74
-51.952
-50.998
-49.887
-48.631
-47.244
-45.739
-44.127
-42.422
-40.636
-38.783
-36.877
-34.931
-32.958
-30.97
-28.98
-26.999
-25.04
-23.113
-21.232
-19.406
-17.646
-15.961
-14.361
-12.856
-11.459
-10.173
-9.003
-7.951
-7.015
-6.208
-5.539
-5.011
-4.629
-4.389
-4.278
-4.313
-4.512
-4.834
-5.243
-5.712
-6.199
-6.73
-7.359
-8.046
-8.731
-9.548
-10.655
-11.955
-13.465
-15.186
-16.744
-19.056
-23.009
-27.287
-31.486
-33.187
-29.503
-23.594
-17.555
-14.533
-18.851
-26.651
-34.664
-40.633
-40.85
-37.957
-34.637
-31.489
-30.151
-29.68
-28.859
-27.933
-26.759
-25.428
-24.2
-22.921
-21.466
-19.906
-18.274
-16.585
-14.876
-13.16
-11.441
-9.758
-8.146
-6.612
-5.169
-3.831
-2.607
-1.522
-0.596
0.148
0.688
1.01
1.106
0.967
0.585
-0.057
-0.98
-2.197
-3.713
-5.532
-7.656
-10.082
-12.81
-15.822
-19.087
-22.569
-26.225
-30.013
-33.898
-37.839
-41.79
-45.705
-49.531
-53.22
-56.737
-60.042
-63.095
-65.872
-68.352
-70.539
-72.47
-74.202
-75.823
-77.431
-79.124
-80.991
-83.096
-85.51
-88.33
-91.634
-95.482
-99.947
-105.024
-110.733
-117.212
-124.383
-131.983
-139.645
-146.676
-152.393
-156.385
-158.015
-156.456
-151.564
-143.554
-132.965
-121.256
-109.689
-98.997
-90.537
-85.895
-84.305
-83.234
-80.143
-70.863
-54.258
-34.172
-10.806
17.961
55.292
111.505
194.352
304.278
440.676
594.984
751.313
893.015
1000.61
1054.484
1041.997
960.683
816.217
624.977
411.64
199.735
12.315
-131.647
-223.948
-263.941
-258.196
-221.845
-171.154
-121.247
-86.597
-72.194
-76.224
-92.362
-107.988
-116.68
-118.063
-114.117
-111.471
-112.438
-114.861
-116.931
-115.936
-111.008
-103.45
-94.274
-84.392
-74.754
-66.032
-58.604
-52.683
-48.22
-44.979
-42.868
-41.876
-41.915
-42.844
-44.517
-46.781
-49.52
-52.668
-56.11
-59.701
-63.333
-66.916
-70.397
-73.748
-76.935
-79.894
-82.542
-84.803
-86.591
-87.853
-88.567
-88.724
-88.341
-87.446
-86.076
-84.278
-82.093
-79.547
-76.66
-73.443
-69.909
-66.092
-62.041
-57.811
-53.474
-49.085
-44.678
-40.284
-35.919
-31.589
-27.297
-23.039
-18.802
-14.584
-10.387
-6.213
-2.07
2.041
6.128
10.201
14.276
18.363
22.464
26.577
30.695
34.807
38.9
42.954
46.946
50.853
54.656
58.337
61.879
65.265
68.474
71.486
74.281
76.841
79.146
81.182
82.933
84.385
85.527
86.35
86.847
87.013
86.843
86.332
85.48
84.285
82.749
80.876
78.669
76.135
73.282
70.12
66.66
62.916
58.901
54.631
50.123
45.395
40.466
35.358
30.091
24.687
19.17
13.56
7.883
2.161
-3.583
-9.325
-15.043
-20.714
-26.316
-31.829
-37.233
-42.509
-47.64
-52.609
-57.404
-62.01
-66.417
-70.614
-74.593
-78.347
-81.869
-85.157
-88.206
-91.016
-93.587
-95.919
-98.016
-99.881
-101.519
-102.937
-104.142
-105.142
-105.947
-106.566
-107.009
-107.289
-107.417
-107.405
-107.267
-107.016
-106.664
-106.226
-105.713
-105.139
-104.515
-103.854
-103.166
-102.462
-101.751
-101.043
-100.347
-99.669
-99.018
-98.399
-97.818
-97.28
-96.79
-96.349
-95.96
-95.626
-95.347
-95.123
-94.955
-94.841
-94.78
-94.772
-94.813
-94.901
-95.032
-95.204
-95.412
-95.652
-95.918
-96.206
-96.512
-96.83
-97.155
-97.482
-97.805
-98.121
-98.423
-98.704
-98.959
-99.184
-99.373
-99.521
-99.623
-99.677
-99.679
-99.629
-99.526
-99.367
-99.15
-98.873
-98.535
-98.133
-97.665
-97.126
-96.513
-95.822
-95.051
-94.199
-93.264
-92.241
-91.127
-89.913
-88.597
-87.183
-85.672
-84.071
-82.39
-80.641
-78.843
-77.021
-75.197
-73.391
-71.618
-69.888
-68.22
-66.627
-65.122
-63.719
-62.424
-61.226
-60.119
-59.083
-58.086
-57.096
-56.073
-54.959
-53.721
-52.332
-50.775
-49.05
-47.148
-45.073
-42.842
-40.474
-37.997
-35.466
-32.941
-30.499
-28.249
-26.288
-24.722
-23.669
-23.21
-23.405
-24.297
-25.889
-28.18
-31.158
-34.783
-39.01
-43.781
-49.006
-54.583
-60.384
-66.237
-71.988
-77.484
-82.564
-87.114
-91.055
-94.354
-97.031
-99.128
-100.681
-101.727
-102.326
-102.572
-102.599
-102.562
-102.625
-102.956
-103.759
-105.305
-107.76
-111.073
-114.962
-118.879
-122.246
-124.656
-125.654
-124.614
-121.202
-115.608
-108.616
-101.667
-96.172
-92.92
-92.531
-95.812
-102.98
-113.047
-123.751
-131.686
-133.258
-125.426
-105.405
-70.11
-16.72
54.472
139.632
234.356
333.384
433.835
537.709
643.297
743.346
827.898
880.62
886.473
841.71
749.011
617.075
461.909
298.022
138.591
0.084
-104.405
-169.593
-195.218
-188.351
-162.436
-127.889
-94.167
-72.239
-67.174
-79.793
-106.884
-138.005
-163.3
-178.688
-183.224
-180.094
-175.271
-170.943
-168.086
-167.504
-166.322
-163.325
-158.652
-151.713
-144.261
-137.643
-131.81
-127.006
-122.911
-119.121
-115.745
-112.812
-110.181
-107.785
-105.57
-103.515
-101.7
-100.165
-98.866
-97.737
-96.711
-95.746
-94.841
-94.011
-93.268
-92.617
-92.054
-91.58
-91.202
-90.906
-90.649
-90.347
-89.871
-89.126
-88.059
-86.642
-84.869
-82.719
-80.172
-77.236
-73.93
-70.28
-66.304
-61.981
-57.306
-52.338
-47.103
-41.602
-35.882
-29.959
-23.872
-17.752
-11.654
-5.507
0.575
6.236
11.399
16.176
20.522
24.79
28.335
28.99
27.127
24.792
25.19
34.477
52.565
73.219
90.317
95.152
86.775
73.477
61.682
58.214
64.565
74.531
84.205
91.029
94.08
95.859
97.566
99.09
100.519
101.474
101.833
101.935
101.889
101.634
101.181
100.549
99.73
98.712
97.47
95.952
94.146
92.087
89.793
87.272
84.536
81.596
78.467
75.172
71.729
68.151
64.453
60.654
56.77
52.82
48.825
44.801
40.769
36.746
32.751
28.804
24.922
21.123
17.425
13.844
10.396
7.096
3.957
0.992
-1.787
-4.37
-6.747
-8.91
-10.852
-12.568
-14.051
-15.301
-16.313
-17.088
-17.627
-17.932
-18.004
-17.849
-17.471
-16.876
-16.071
-15.065
-13.865
-12.481
-10.925
-9.208
-7.341
-5.337
-3.21
-0.973
1.359
3.774
6.257
8.793
11.37
13.972
16.585
19.197
21.794
24.362
26.889
29.363
31.772
34.107
36.358
38.515
40.572
42.52
44.352
46.064
47.65
49.106
50.429
51.615
52.662
53.571
54.34
54.971
55.464
55.822
56.048
56.144
56.116
55.966
55.701
55.326
54.847
54.272
53.608
52.865
52.052
51.178
50.254
49.29
48.295
47.28
46.252
45.222
44.196
43.182
42.187
41.219
40.285
39.393
38.554
37.773
37.061
36.425
35.873
35.416
35.059
34.809
34.671
34.651
34.755
34.994
35.374
35.894
36.552
37.344
38.259
39.287
40.414
41.613
42.861
44.137
45.421
46.707
47.991
49.262
50.511
51.727
52.904
54.054
55.193
56.33
57.479
58.652
59.87
61.178
62.613
64.194
65.938
67.828
69.844
71.966
74.167
76.409
78.64
80.784
82.754
84.487
85.922
86.999
87.652
87.778
87.29
86.132
84.257
81.653
78.324
74.275
69.542
64.202
58.347
52.103
45.612
38.98
32.311
25.717
19.307
13.231
7.626
2.591
-1.782
-5.417
-8.268
-10.307
-11.571
-12.171
-12.239
-11.922
-11.356
-10.662
-9.999
-9.52
-9.364
-9.7
-10.62
-12.246
-14.847
-18.493
-23.061
-28.325
-33.712
-38.629
-42.764
-45.51
-45.976
-43.968
-39.682
-33.635
-27.223
-21.559
-17.153
-15.199
-17.316
-22.534
-27.73
-29.955
-24.942
-12.394
2.031
17.309
36.343
64.52
115.304
197.892
311.816
454.043
613.266
772.684
916.7
1028.325
1089.823
1087.942
1018.126
882.31
694.75
482.342
271.353
89.501
-41.887
-119.323
-146.396
-136.887
-111.365
-82.635
-62.232
-55.627
-59.029
-69.449
-80.377
-85.818
-86.399
-84.165
-83.016
-86.227
-92.723
-99.483
-103.604
-103.607
-99.736
-93.064
-84.696
-75.306
-65.642
-56.665
-48.941
-42.747
-38.127
-34.877
-32.91
-32.187
-32.553
-33.798
-35.725
-38.19
-41.104
-44.392
-47.944
-51.619
-55.284
-58.848
-62.269
-65.499
-68.503
-71.244
-73.668
-75.765
-77.535
-78.967
-80.062
-80.818
-81.226
-81.299
-81.045
-80.448
-79.507
-78.215
-76.558
-74.547
-72.183
-69.458
-66.382
-62.952
-59.166
-55.042
-50.586
-45.796
-40.691
-35.297
-29.654
-23.842
-17.919
-11.927
-5.905
0.126
6.141
12.102
17.983
23.767
29.429
34.952
40.302
45.428
50.304
54.916
59.271
63.4
67.323
71.037
74.543
77.833
80.901
83.745
86.352
88.696
90.761
92.537
94.023
95.233
96.169
96.823
97.177
97.209
96.9
96.243
95.228
93.847
92.096
89.974
87.49
84.66
81.499
78.016
74.221
70.121
65.726
61.052
56.117
50.94
45.542
39.943
34.166
28.239
22.184
16.024
9.782
3.478
-2.868
-9.233
-15.595
-21.933
-28.224
-34.447
-40.582
-46.607
-52.503
-58.251
-63.836
-69.241
-74.452
-79.458
-84.244
-88.801
-93.119
-97.189
-101.003
-104.555
-107.84
-110.853
-113.591
-116.054
-118.241
-120.154
-121.793
-123.163
-124.267
-125.111
-125.7
-126.042
-126.143
-126.013
-125.662
-125.098
-124.333
-123.378
-122.246
-120.948
-119.497
-117.905
-116.186
-114.353
-112.418
-110.395
-108.296
-106.135
-103.926
-101.68
-99.412
-97.135
-94.859
-92.599
-90.365
-88.169
-86.022
-83.935
-81.917
-79.978
-78.128
-76.374
-74.725
-73.188
-71.768
-70.472
-69.305
-68.27
-67.37
-66.61
-65.989
-65.51
-65.173
-64.978
-64.925
-65.01
-65.233
-65.589
-66.075
-66.685
-67.416
-68.259
-69.209
-70.258
-71.398
-72.62
-73.916
-75.276
-76.69
-78.148
-79.638
-81.15
-82.673
-84.194
-85.704
-87.189
-88.639
-90.043
-91.39
-92.668
-93.867
-94.976
-95.986
-96.886
-97.667
-98.319
-98.835
-99.207
-99.429
-99.493
-99.395
-99.13
-98.695
-98.088
-97.309
-96.356
-95.231
-93.937
-92.478
-90.859
-89.087
-87.168
-85.112
-82.931
-80.638
-78.245
-75.767
-73.222
-70.625
-67.996
-65.351
-62.708
-60.084
-57.497
-54.964
-52.502
-50.131
-47.87
-45.738
-43.756
-41.941
-40.31
-38.878
-37.654
-36.646
-35.862
-35.31
-35.004
-34.958
-35.183
-35.689
-36.482
-37.562
-38.92
-40.533
-42.363
-44.371
-46.513
-48.75
-51.052
-53.384
-55.708
-57.986
-60.155
-62.156
-63.937
-65.438
-66.614
-67.437
-67.902
-68.059
-68.002
-67.831
-67.644
-67.517
-67.508
-67.73
-68.293
-69.315
-70.959
-73.311
-76.492
-80.745
-86.105
-92.422
-99.391
-106.317
-112.493
-117.548
-120.937
-121.957
-120.548
-116.925
-111.82
-106.97
-103.627
-102.159
-103.059
-106.861
-113.16
-120.808
-127.559
-128.698
-119.499
-97.986
-62.795
-14.117
44.901
114.045
193.469
281.767
380.297
487.174
599.355
713.208
819.652
908.343
962.421
963.898
903.69
779.557
605.888
409.439
215.559
48.926
-74.947
-153.597
-189.123
-188.534
-163.849
-126.009
-87.204
-61.543
-55.119
-67.813
-93.483
-117.993
-133.103
-137.273
-132.63
-127.041
-124.219
-123.055
-122.19
-118.88
-112.249
-103.659
-94.158
-84.691
-76.111
-68.909
-63.405
-59.839
-58.189
-58.241
-59.831
-62.792
-66.872
-71.772
-77.157
-82.705
-88.13
-93.171
-97.567
-101.071
-103.487
-104.691
-104.611
-103.201
-100.441
-96.353
-91.006
-84.541
-77.13
-68.957
-60.243
-51.206
-42.071
-33.091
-24.488
-16.457
-9.175
-2.764
2.704
7.168
10.615
13.083
14.636
15.39
15.501
15.115
14.406
13.556
12.726
12.099
11.839
12.092
13.015
14.729
17.311
20.821
25.28
30.652
36.885
43.884
51.502
59.595
68.01
76.584
85.198
93.731
102.067
110.113
117.757
124.913
131.523
137.537
142.92
147.678
151.828
155.428
158.596
161.444
164.077
166.604
169.08
171.546
174.031
176.532
179.038
181.512
183.903
186.171
188.281
190.178
191.789
193.012
193.69
193.682
192.865
191.117
188.367
184.564
179.687
173.767
166.868
159.094
150.56
141.368
131.613
121.415
110.911
100.269
89.697
79.379
69.487
60.2
51.657
43.978
37.256
31.528
26.79
23.007
20.129
18.109
16.9
16.431
16.61
17.328
18.444
19.842
21.413
23.038
24.62
26.076
27.334
28.364
29.159
29.726
30.082
30.246
30.234
30.081
29.831
29.534
29.256
29.045
28.938
28.98
29.201
29.624
30.268
31.131
32.199
33.459
34.893
36.481
38.203
40.033
41.941
43.896
45.862
47.81
49.719
51.567
53.336
55.012
56.583
58.041
59.385
60.61
61.712
62.692
63.545
64.273
64.878
65.365
65.74
66.008
66.171
66.23
66.184
66.036
65.784
65.428
64.966
64.397
63.724
62.951
62.088
61.143
60.121
59.025
57.859
56.626
55.34
54.009
52.643
51.258
49.872
48.513
47.219
46.02
44.933
43.97
43.132
42.421
41.844
41.4
41.085
40.894
40.82
40.862
41.034
41.327
41.719
42.166
42.601
42.975
43.26
43.43
43.466
43.36
43.11
42.735
42.282
41.787
41.271
40.745
40.192
39.62
39.074
38.621
38.357
38.37
38.727
39.51
40.81
42.691
45.186
48.285
51.914
56.01
60.534
65.447
70.734
76.36
82.237
88.253
94.27
100.122
105.632
110.592
114.747
117.867
119.767
120.313
119.445
117.122
113.288
107.904
100.927
92.317
82.078
70.25
56.892
42.129
26.125
9.097
-8.659
-26.827
-45.118
-63.258
-81.034
-98.276
-114.808
-130.473
-145.121
-158.574
-170.675
-181.301
-190.338
-197.731
-203.471
-207.61
-210.31
-211.792
-212.303
-212.086
-211.313
-210.138
-208.763
-207.368
-206.134
-205.283
-204.961
-205.377
-206.91
-209.673
-213.53
-218.162
-222.824
-226.817
-229.75
-230.932
-229.469
-225.269
-218.766
-210.947
-203.803
-198.841
-196.838
-199.094
-206.827
-218.632
-231.216
-240.969
-243.669
-238.93
-229.001
-211.779
-180.718
-127.113
-44.383
66.915
196.699
331.487
464.428
590.718
705.824
805.439
873.106
889.491
845.111
737.147
578.143
391.781
199.99
23.783
-120.72
-223.738
-281.749
-298.491
-283.665
-252.147
-217.12
-189.192
-175.034
-173.969
-182.475
-193.165
-198.917
-198.437
-193.467
-188.821
-188.285
-191.09
-194.585
-195.882
-193.615
-188.405
-181.414
-173.596
-165.5
-157.623
-150.6
-144.843
-140.457
-137.308
-135.099
-133.613
-132.74
-132.326
-132.186
-132.181
-132.204
-132.196
-132.159
-132.037
-131.757
-131.284
-130.594
-129.698
-128.635
-127.429
-126.098
-124.68
-123.191
-121.636
-120.006
-118.256
-116.349
-114.262
-111.956
-109.421
-106.653
-103.633
-100.354
-96.806
-92.973
-88.851
-84.442
-79.742
-74.761
-69.525
-64.071
-58.461
-52.753
-46.988
-41.213
-35.457
-29.745
-24.101
-18.542
-13.071
-7.696
-2.424
2.745
7.801
12.74
17.566
22.288
26.92
31.475
35.954
40.36
44.69
48.937
53.094
57.147
61.077
64.866
68.498
71.959
75.234
78.312
81.177
83.815
86.211
88.352
90.228
91.829
93.144
94.168
94.894
95.317
95.436
95.25
94.758
93.959
92.854
91.446
89.737
87.733
85.437
82.858
80.004
76.884
73.511
69.897
66.057
62.004
57.757
53.331
48.745
44.018
39.168
34.216
29.18
24.081
18.94
13.776
8.609
3.46
-1.651
-6.705
-11.683
-16.568
-21.34
-25.984
-30.483
-34.823
-38.989
-42.969
-46.751
-50.324
-53.679
-56.807
-59.701
-62.356
-64.769
-66.936
-68.857
-70.532
-71.962
-73.151
-74.102
-74.82
-75.313
-75.586
-75.649
-75.51
-75.179
-74.667
-73.986
-73.148
-72.165
-71.051
-69.82
-68.484
-67.058
-65.557
-63.994
-62.383
-60.738
-59.074
-57.402
-55.738
-54.092
-52.479
-50.908
-49.391
-47.939
-46.56
-45.262
-44.054
-42.943
-41.934
-41.032
-40.242
-39.568
-39.013
-38.578
-38.265
-38.074
-38.005
-38.057
-38.227
-38.514
-38.915
-39.425
-40.04
-40.755
-41.564
-42.462
-43.441
-44.494
-45.612
-46.789
-48.015
-49.281
-50.578
-51.896
-53.227
-54.561
-55.889
-57.201
-58.489
-59.743
-60.954
-62.113
-63.211
-64.24
-65.191
-66.056
-66.827
-67.496
-68.057
-68.501
-68.823
-69.017
-69.075
-68.994
-68.767
-68.392
-67.863
-67.18
-66.34
-65.343
-64.189
-62.88
-61.417
-59.805
-58.047
-56.149
-54.116
-51.956
-49.677
-47.287
-44.795
-42.214
-39.553
-36.829
-34.054
-31.245
-28.418
-25.592
-22.783
-20.011
-17.294
-14.649
-12.093
-9.644
-7.317
-5.132
-3.104
-1.251
0.41
1.863
3.092
4.084
4.83
5.327
5.571
5.559
5.288
4.748
3.93
2.832
1.449
-0.223
-2.178
-4.405
-6.875
-9.544
-12.365
-15.292
-18.281
-21.295
-24.294
-27.227
-30.048
-32.692
-35.097
-37.221
-39.007
-40.407
-41.388
-41.954
-42.166
-42.134
-41.976
-41.792
-41.653
-41.646
-41.901
-42.555
-43.733
-45.561
-48.074
-51.366
-55.68
-61.044
-67.293
-74.112
-80.815
-86.779
-91.702
-94.984
-95.815
-94.078
-89.989
-84.111
-77.902
-72.385
-67.975
-65.853
-67.395
-71.245
-74.259
-73.595
-65.054
-49.411
-32.646
-14.301
8.79
43.618
104.429
195.73
313.809
452.019
595.749
733.016
853.385
944.03
992.239
984.434
914.443
784.727
608.701
411.256
216.841
47.879
-79.039
-159.278
-194.555
-191.088
-161.227
-116.411
-67.839
-30.244
-11.97
-17.886
-47.636
-87.693
-125.085
-147.992
-148.24
-131.233
-105.484
-80.562
-65.768
-61.961
-65.867
-72.77
-77.527
-78.636
-77.721
-77.105
-77.95
-80.295
-83.187
-85.452
-87.502
-89.967
-92.893
-96.384
-100.228
-104.092
-108.112
-112.439
-116.683
-120.509
-123.723
-126.092
-127.683
-128.61
-128.831
-128.346
-127.235
-125.569
-123.442
-120.957
-118.144
-115.031
-111.677
-108.129
-104.455
-100.72
-96.961
-93.203
-89.457
-85.721
-81.994
-78.267
-74.529
-70.766
-66.968
-63.124
-59.23
-55.283
-51.278
-47.211
-43.073
-38.855
-34.553
-30.164
-25.691
-21.138
-16.509
-11.812
-7.056
-2.248
2.601
7.482
12.387
17.307
22.234
27.157
32.064
36.945
41.786
46.573
51.294
55.933
60.477
64.909
69.215
73.38
77.387
81.222
84.869
88.312
91.537
94.528
97.272
99.755
101.965
103.89
105.522
106.851
107.871
108.575
108.961
109.025
108.768
108.19
107.294
106.085
104.568
102.75
100.64
98.248
95.585
92.664
89.499
86.104
82.497
78.693
74.711
70.569
66.287
61.886
57.385
52.807
48.171
43.5
38.815
34.137
29.487
24.885
20.351
15.904
11.561
7.341
3.258
-0.672
-4.436
-8.023
-11.42
-14.619
-17.612
-20.391
-22.952
-25.29
-27.401
-29.285
-30.941
-32.369
-33.572
-34.553
-35.315
-35.865
-36.208
-36.352
-36.306
-36.077
-35.678
-35.118
-34.408
-33.561
-32.588
-31.503
-30.319
-29.047
-27.702
-26.297
-24.845
-23.359
-21.85
-20.333
-18.818
-17.318
-15.844
-14.405
-13.012
-11.673
-10.398
-9.193
-8.066
-7.023
-6.069
-5.211
-4.451
-3.794
-3.243
-2.8
-2.467
-2.245
-2.134
-2.133
-2.243
-2.461
-2.787
-3.216
-3.746
-4.375
-5.097
-5.909
-6.804
-7.776
-8.819
-9.926
-11.087
-12.294
-13.539
-14.811
-16.103
-17.407
-18.714
-20.016
-21.307
-22.581
-23.831
-25.051
-26.231
-27.363
-28.438
-29.447
-30.38
-31.229
-31.981
-32.628
-33.162
-33.578
-33.871
-34.034
-34.058
-33.93
-33.643
-33.197
-32.592
-31.83
-30.917
-29.861
-28.682
-27.408
-26.065
-24.674
-23.242
-21.768
-20.253
-18.701
-17.115
-15.502
-13.856
-12.166
-10.428
-8.645
-6.817
-4.933
-2.964
-0.858
1.426
3.904
6.571
9.399
12.361
15.42
18.53
21.63
24.639
27.479
30.093
32.444
34.493
36.191
37.457
38.179
38.27
37.671
36.356
34.317
31.559
28.114
24.046
19.465
14.509
9.303
3.947
-1.486
-6.921
-12.27
-17.41
-22.195
-26.502
-30.229
-33.299
-35.65
-37.247
-38.114
-38.335
-38.064
-37.475
-36.697
-35.852
-35.083
-34.545
-34.403
-34.829
-35.932
-37.854
-40.865
-45.074
-50.402
-56.538
-62.821
-68.631
-73.593
-77.179
-78.648
-77.658
-74.306
-69.364
-64.485
-60.913
-59.245
-60.292
-64.899
-73.279
-83.716
-92.308
-94.492
-87.051
-70.86
-48.479
-18.674
22.901
83.606
170.148
280.774
408.081
542.905
676.834
804.102
917.359
1005.299
1050.54
1036.549
957.218
815.836
629.197
422.996
220.481
43.883
-89.571
-172.979
-205.517
-193.108
-150.746
-95.221
-43.155
-10.798
-3.248
-16.696
-41.841
-63.565
-74.546
-75.474
-70.221
-66.523
-67.096
-69.72
-72.249
-72.077
-68.618
-63.276
-57.107
-50.924
-45.472
-41.229
-38.431
-37.154
-37.215
-38.268
-40.061
-42.418
-45.11
-47.882
-50.506
-52.778
-54.545
-55.702
-56.113
-55.649
-54.254
-51.936
-48.763
-44.851
-40.315
-35.286
-29.929
-24.407
-18.865
-13.44
-8.242
-3.356
1.12
5.093
8.474
11.181
13.193
14.547
15.317
15.602
15.509
15.158
14.696
14.272
14.007
13.999
14.304
14.95
15.98
17.437
19.373
21.85
24.895
28.498
32.627
37.244
42.292
47.696
53.353
59.142
64.968
70.768
76.517
82.215
87.857
93.43
98.907
104.241
109.383
114.29
118.913
123.192
127.093
130.606
133.743
136.545
139.032
141.2
143.023
144.454
145.44
145.93
145.882
145.277
144.118
142.434
140.274
137.712
134.803
131.586
128.083
124.295
120.231
115.913
111.367
106.633
101.761
96.816
91.856
86.933
82.075
77.287
72.555
67.847
63.138
58.416
53.674
48.92
44.165
39.422
34.705
30.03
25.403
20.818
16.271
11.755
7.275
2.845
-1.513
-5.771
-9.903
-13.885
-17.7
-21.335
-24.782
-28.04
-31.111
-34.001
-36.715
-39.252
-41.614
-43.8
-45.81
-47.651
-49.326
-50.843
-52.21
-53.435
-54.526
-55.492
-56.338
-57.069
-57.69
-58.204
-58.615
-58.925
-59.14
-59.264
-59.301
-59.257
-59.136
-58.944
-58.684
-58.36
-57.976
-57.535
-57.038
-56.49
-55.891
-55.244
-54.551
-53.814
-53.036
-52.219
-51.367
-50.482
-49.569
-48.63
-47.671
-46.695
-45.707
-44.712
-43.715
-42.721
-41.736
-40.765
-39.815
-38.891
-38
-37.146
-36.336
-35.574
-34.866
-34.216
-33.629
-33.108
-32.657
-32.281
-31.982
-31.763
-31.627
-31.575
-31.609
-31.728
-31.932
-32.221
-32.592
-33.042
-33.568
-34.166
-34.829
-35.552
-36.329
-37.152
-38.013
-38.903
-39.813
-40.732
-41.651
-42.558
-43.443
-44.296
-45.105
-45.861
-46.553
-47.173
-47.71
-48.158
-48.507
-48.753
-48.888
-48.908
-48.808
-48.587
-48.243
-47.775
-47.185
-46.474
-45.648
-44.713
-43.678
-42.553
-41.348
-40.078
-38.758
-37.402
-36.027
-34.649
-33.284
-31.947
-30.656
-29.43
-28.289
-27.252
-26.339
-25.57
-24.962
-24.531
-24.293
-24.254
-24.423
-24.805
-25.41
-26.256
-27.36
-28.737
-30.398
-32.351
-34.596
-37.125
-39.919
-42.942
-46.156
-49.52
-52.995
-56.551
-60.155
-63.768
-67.343
-70.811
-74.102
-77.157
-79.914
-82.321
-84.355
-86.026
-87.379
-88.51
-89.517
-90.47
-91.463
-92.599
-94.002
-95.814
-98.163
-101.151
-104.929
-109.732
-115.699
-122.764
-130.613
-138.672
-146.355
-153.239
-158.853
-162.465
-163.577
-162.318
-159.467
-156.427
-154.503
-154.353
-156.484
-161.9
-171.392
-183.342
-193.903
-198.966
-194.139
-179.439
-159.015
-131.887
-95.491
-44.354
32.662
137.754
267.084
414.062
563.297
702.951
824.306
916.97
974.681
987.377
943.411
839.013
675.974
469.674
250.121
46.706
-114.209
-216.113
-263.556
-268.816
-245.409
-210.414
-171.62
-134.516
-109.71
-100.434
-107.854
-128.788
-150.838
-167.037
-174.739
-174.525
-172.599
-171.203
-169.68
-167.327
-161.866
-152.99
-142.096
-130.116
-118.264
-107.587
-98.333
-90.654
-84.613
-80.003
-76.713
-74.701
-73.847
-74.01
-75.073
-76.897
-79.35
-82.324
-85.67
-89.212
-92.79
-96.282
-99.624
-102.768
-105.675
-108.296
-110.569
-112.447
-113.899
-114.882
-115.349
-115.278
-114.664
-113.532
-111.938
-109.932
-107.554
-104.837
-101.795
-98.442
-94.797
-90.878
-86.707
-82.314
-77.728
-73.001
-68.2
-63.373
-58.556
-53.771
-49.019
-44.306
-39.644
-35.035
-30.48
-25.984
-21.55
-17.186
-12.904
-8.71
-4.605
-0.582
3.374
7.271
11.105
14.874
18.567
22.171
25.676
29.066
32.318
35.413
38.335
41.071
43.611
45.944
48.055
49.931
51.559
52.928
54.028
54.851
55.389
55.639
55.596
55.26
54.633
53.718
52.517
51.036
49.278
47.252
44.964
42.425
39.644
36.633
33.406
29.978
26.364
22.582
18.649
14.584
10.405
6.132
1.785
-2.615
-7.049
-11.497
-15.938
-20.354
-24.724
-29.029
-33.251
-37.372
-41.375
-45.242
-48.959
-52.51
-55.881
-59.06
-62.036
-64.798
-67.336
-69.644
-71.715
-73.543
-75.125
-76.457
-77.539
-78.371
-78.953
-79.289
-79.382
-79.235
-78.856
-78.249
-77.422
-76.383
-75.14
-73.701
-72.076
-70.275
-68.307
-66.184
-63.915
-61.513
-58.988
-56.353
-53.62
-50.8
-47.905
-44.947
-41.939
-38.892
-35.819
-32.729
-29.636
-26.551
-23.483
-20.445
-17.446
-14.496
-11.605
-8.78
-6.031
-3.364
-0.788
1.691
4.067
6.333
8.484
10.513
12.416
14.186
15.82
17.313
18.661
19.861
20.911
21.808
22.549
23.136
23.566
23.84
23.958
23.922
23.735
23.4
22.921
22.304
21.554
20.68
19.689
18.589
17.39
16.098
14.723
13.274
11.759
10.186
8.563
6.9
5.208
3.499
1.786
0.08
-1.603
-3.25
-4.848
-6.379
-7.83
-9.193
-10.455
-11.605
-12.629
-13.512
-14.241
-14.812
-15.221
-15.468
-15.556
-15.488
-15.277
-14.945
-14.515
-14.007
-13.434
-12.793
-12.091
-11.335
-10.534
-9.7
-8.833
-7.919
-6.953
-5.933
-4.856
-3.719
-2.498
-1.149
0.359
2.045
3.909
5.922
8.059
10.299
12.603
14.93
17.215
19.374
21.343
23.076
24.522
25.625
26.306
26.459
26.003
24.882
23.066
20.564
17.392
13.574
9.173
4.27
-1.028
-6.594
-12.321
-18.127
-23.913
-29.567
-34.958
-39.939
-44.391
-48.217
-51.361
-53.81
-55.578
-56.722
-57.325
-57.463
-57.258
-56.862
-56.43
-56.128
-56.118
-56.523
-57.525
-59.395
-62.27
-66.104
-70.617
-75.217
-79.336
-82.62
-84.652
-84.81
-82.743
-78.634
-73.291
-68.317
-65.206
-64.51
-66.655
-72.602
-82.742
-96.257
-110.22
-119.37
-118.798
-106.19
-82.866
-50.662
-9.499
42.228
110.492
200.37
311.811
442.355
583.936
724.586
851.355
950.302
1005.952
1003.483
936.251
804.485
621.151
413.679
209.879
37.437
-85.255
-156.742
-183.434
-180.571
-163.153
-140.36
-120.408
-105.405
-97.169
-97.033
-100.682
-105.488
-108.835
-109.606
-111.234
-115.406
-121.938
-129.161
-133.873
-134.674
-131.75
-125.838
-118.128
-109.43
-100.422
-92.017
-84.786
-78.963
-74.535
-71.274
-69.021
-67.677
-67.081
-67.009
-67.263
-67.712
-68.3
-69.025
-69.83
-70.599
-71.217
-71.594
-71.681
-71.449
-70.868
-69.883
-68.468
-66.629
-64.398
-61.824
-58.944
-55.777
-52.333
-48.617
-44.652
-40.479
-36.139
-31.664
-27.08
-22.417
-17.717
-13.043
-8.438
-3.922
0.498
4.829
9.066
13.196
17.21
21.098
24.859
28.494
32.003
35.382
38.635
41.772
44.812
47.788
50.719
53.616
56.486
59.327
62.144
64.937
67.707
70.444
73.145
75.803
78.418
80.986
83.501
85.955
88.335
90.624
92.81
94.88
96.821
98.619
100.264
101.743
103.046
104.167
105.095
105.823
106.339
106.635
106.702
106.532
106.117
105.453
104.533
103.355
101.917
100.219
98.263
96.049
93.583
90.868
87.91
84.716
81.295
77.656
73.81
69.769
65.546
61.156
56.614
51.937
47.141
42.245
37.266
32.222
27.132
22.013
16.886
11.767
6.675
1.629
-3.353
-8.256
-13.06
-17.752
-22.315
-26.735
-31
-35.098
-39.017
-42.748
-46.283
-49.614
-52.734
-55.639
-58.324
-60.786
-63.024
-65.036
-66.825
-68.391
-69.739
-70.872
-71.796
-72.516
-73.039
-73.373
-73.527
-73.509
-73.329
-72.997
-72.525
-71.924
-71.206
-70.384
-69.471
-68.48
-67.424
-66.316
-65.169
-63.995
-62.806
-61.614
-60.429
-59.265
-58.13
-57.035
-55.988
-55
-54.077
-53.231
-52.466
-51.785
-51.191
-50.687
-50.277
-49.968
-49.761
-49.648
-49.634
-49.736
-49.964
-50.332
-50.837
-51.448
-52.158
-52.984
-53.9
-54.843
-55.759
-56.591
-57.325
-58.023
-58.699
-59.267
-59.798
-60.561
-61.606
-62.839
-64.287
-65.638
-67.443
-71.424
-77.189
-83.137
-86.628
-82.714
-71.707
-58.552
-48.179
-47.591
-57.198
-70.366
-81.969
-86.469
-82.925
-76.304
-69.659
-65.094
-63.249
-62.121
-60.814
-59.406
-57.837
-56.422
-55.246
-54.048
-52.752
-51.398
-49.966
-48.431
-46.782
-45.013
-43.12
-41.107
-38.953
-36.611
-34.06
-31.303
-28.351
-25.225
-21.954
-18.563
-15.103
-11.645
-8.271
-5.068
-2.118
0.506
2.72
4.426
5.53
5.96
5.658
4.594
2.751
0.133
-3.231
-7.293
-11.969
-17.15
-22.711
-28.516
-34.441
-40.372
-46.184
-51.74
-56.902
-61.547
-65.567
-68.882
-71.416
-73.124
-74.021
-74.159
-73.642
-72.584
-71.079
-69.256
-67.272
-65.283
-63.443
-61.907
-60.772
-60.195
-60.468
-61.713
-63.859
-66.65
-69.507
-71.869
-73.389
-73.544
-71.588
-67.223
-60.678
-52.695
-44.812
-38.493
-34.691
-34.52
-39.174
-48.02
-58.431
-67.407
-71.724
-70.996
-67.085
-58.596
-39.312
0.712
69.276
167.04
285.664
411.654
536.63
657.455
772.361
877.44
959.949
1000.155
981.787
898.594
754.962
568.425
364.023
166.406
-0.711
-122.009
-193.277
-220.158
-213.864
-183.403
-138.841
-86.932
-35.768
-0.373
13.056
4.202
-21.001
-46.779
-64.206
-71.159
-69.028
-64.492
-60.946
-58.061
-54.997
-49.897
-42.475
-33.963
-25.477
-18.151
-12.408
-8.092
-5.057
-2.992
-1.639
-0.836
-0.364
-0.066
0.131
0.304
0.539
0.905
1.506
2.43
3.69
5.288
7.206
9.404
11.861
14.534
17.37
20.327
23.391
26.575
29.921
33.447
37.135
40.968
44.918
48.98
53.187
57.565
62.129
66.897
71.881
77.097
82.571
88.306
94.276
100.435
106.718
113.08
119.497
125.944
132.402
138.843
145.229
151.536
157.753
163.865
169.857
175.71
181.401
186.921
192.274
197.469
202.523
207.442
212.224
216.864
221.36
225.707
229.897
233.92
237.755
241.389
244.809
248.005
250.971
253.694
256.162
258.362
260.282
261.914
263.25
264.284
265.011
265.428
265.535
265.336
264.833
264.034
262.942
261.565
259.909
257.982
255.793
253.354
250.674
247.765
244.64
241.314
237.801
234.118
230.28
226.304
222.206
218.005
213.716
209.357
204.945
200.496
196.026
191.552
187.089
182.652
178.254
173.911
169.633
165.432
161.317
157.299
153.383
149.577
145.886
142.314
138.865
135.54
132.341
129.267
126.319
123.494
120.789
118.201
115.723
113.352
111.081
108.903
106.812
104.798
102.854
100.973
99.144
97.358
95.607
93.88
92.167
90.459
88.745
87.015
85.26
83.471
81.638
79.754
77.81
75.798
73.712
71.545
69.291
66.943
64.497
61.948
59.293
56.528
53.651
50.66
47.552
44.328
40.987
37.528
33.953
30.263
26.459
22.545
18.523
14.398
10.174
5.857
1.454
-3.03
-7.586
-12.207
-16.884
-21.609
-26.372
-31.164
-35.974
-40.792
-45.607
-50.409
-55.185
-59.925
-64.618
-69.253
-73.818
-78.302
-82.696
-86.987
-91.166
-95.221
-99.143
-102.922
-106.548
-110.013
-113.308
-116.427
-119.362
-122.108
-124.661
-127.018
-129.176
-131.133
-132.89
-134.448
-135.809
-136.978
-137.958
-138.757
-139.382
-139.845
-140.154
-140.324
-140.367
-140.296
-140.129
-139.88
-139.568
-139.211
-138.824
-138.428
-138.039
-137.677
-137.36
-137.107
-136.935
-136.861
-136.902
-137.079
-137.408
-137.905
-138.579
-139.442
-140.499
-141.762
-143.242
-144.943
-146.869
-149.021
-151.399
-154.004
-156.833
-159.87
-163.084
-166.436
-169.882
-173.383
-176.902
-180.401
-183.835
-187.158
-190.319
-193.276
-195.991
-198.432
-200.562
-202.345
-203.766
-204.832
-205.605
-206.191
-206.698
-207.239
-207.905
-208.758
-209.89
-211.433
-213.493
-216.177
-219.563
-223.631
-228.464
-234.267
-241.011
-248.492
-256.268
-263.511
-269.542
-273.979
-276.187
-275.448
-271.622
-264.867
-256.013
-246.79
-238.57
-232.255
-228.997
-229.795
-233.366
-236.805
-237.018
-229.431
-213.625
-193.635
-168.572
-136.61
-92.706
-24.614
70.565
190.031
329.404
473.758
610.7
728.009
807.368
835.31
800.645
700.009
544.455
352.374
149.534
-38.727
-194.463
-305.267
-370.184
-394.998
-388.588
-364.297
-332.462
-303.264
-284.57
-277.457
-280.391
-286.28
-287.921
-283.818
-275.482
-267.943
-265.074
-266.223
-268.708
-269.394
-266.815
-261.462
-254.405
-246.683
-238.86
-231.436
-225.128
-220.329
-217.111
-215.32
-214.596
-214.695
-215.485
-216.779
-218.334
-219.932
-221.373
-222.518
-223.285
-223.573
-223.31
-222.479
-221.095
-219.226
-216.956
-214.359
-211.497
-208.419
-205.151
-201.691
-198.053
-194.255
-190.333
-186.334
-182.301
-178.272
-174.264
-170.275
-166.284
-162.243
-158.102
-153.816
-149.355
-144.706
-139.879
-134.904
-129.807
-124.611
-119.331
-113.968
-108.525
-103.001
-97.397
-91.71
-85.947
-80.123
-74.253
-68.358
-62.453
-56.547
-50.645
-44.747
-38.855
-32.977
-27.121
-21.297
-15.51
-9.76
-4.052
1.608
7.204
12.718
18.133
23.444
28.641
33.718
38.675
43.516
48.256
52.919
57.522
62.061
66.52
70.862
75.051
79.05
82.83
86.371
89.644
92.614
95.248
97.515
99.37
100.765
101.624
101.859
101.407
100.229
98.318
95.684
92.344
88.315
83.618
78.282
72.356
65.894
58.946
51.572
43.844
35.856
27.739
19.635
11.657
3.894
-3.589
-10.733
-17.474
-23.747
-29.5
-34.706
-39.351
-43.428
-46.925
-49.845
-52.208
-54.067
-55.508
-56.613
-57.442
-58.037
-58.429
-58.655
-58.762
-58.802
-58.807
-58.792
-58.768
-58.747
-58.745
-58.767
-58.8
-58.808
-58.739
-58.552
-58.228
-57.754
-57.126
-56.335
-55.367
-54.213
-52.879
-51.374
-49.71
-47.895
-45.936
-43.847
-41.653
-39.392
-37.103
-34.821
-32.567
-30.363
-28.225
-26.172
-24.218
-22.376
-20.648
-19.039
-17.556
-16.204
-14.992
-13.922
-12.993
-12.2
-11.54
-11.008
-10.601
-10.316
-10.147
-10.09
-10.142
-10.298
-10.556
-10.909
-11.349
-11.867
-12.453
-13.096
-13.783
-14.502
-15.239
-15.982
-16.716
-17.43
-18.109
-18.742
-19.314
-19.815
-20.232
-20.554
-20.773
-20.88
-20.867
-20.727
-20.456
-20.048
-19.502
-18.815
-17.984
-17.011
-15.895
-14.64
-13.248
-11.723
-10.074
-8.308
-6.436
-4.471
-2.426
-0.316
1.842
4.031
6.233
8.433
10.612
12.755
14.844
16.861
18.787
20.606
22.297
23.845
25.233
26.448
27.481
28.324
28.971
29.417
29.648
29.651
29.418
28.937
28.196
27.194
25.932
24.425
22.707
20.814
18.787
16.671
14.5
12.314
10.157
8.071
6.115
4.347
2.813
1.566
0.655
0.108
-0.069
0.073
0.436
0.905
1.366
1.724
1.88
1.696
1.038
-0.213
-2.199
-4.98
-8.659
-13.471
-19.458
-26.483
-34.293
-42.294
-49.866
-56.647
-62.014
-65.098
-65.687
-63.924
-60.249
-55.969
-52.163
-49.345
-48.643
-51.533
-57.085
-62.482
-65.067
-60.723
-48.723
-33.676
-16.121
6.365
37.953
90.295
171.609
281.978
419.344
573.188
727.26
865.604
970.889
1027.058
1022.996
955.701
828.834
654.815
455.404
254.055
74.608
-63.625
-151.857
-191.418
-191.423
-164.527
-124.5
-82.43
-47.597
-27.259
-22.736
-30.791
-43.293
-52.426
-55.497
-53.467
-51.141
-51.569
-53.803
-56.063
-55.854
-52.162
-45.985
-38.393
-30.348
-22.72
-16.122
-10.9
-7.248
-5.085
-4.13
-4.2
-5.16
-6.828
-8.989
-11.436
-13.991
-16.522
-18.945
-21.165
-23.069
-24.596
-25.742
-26.529
-26.978
-27.111
-26.916
-26.372
-25.5
-24.32
-22.854
-21.143
-19.215
-17.106
-14.87
-12.55
-10.176
-7.753
-5.249
-2.629
0.124
3.019
6.043
9.169
12.388
15.69
19.059
22.488
25.972
29.504
33.099
36.767
40.51
44.318
48.17
52.04
55.917
59.794
63.672
67.558
71.452
75.355
79.271
83.197
87.127
91.054
94.958
98.818
102.618
106.342
109.975
113.506
116.918
120.193
123.313
126.258
129.011
131.552
133.863
135.926
137.726
139.25
140.488
141.433
142.077
142.413
142.438
142.147
141.537
140.608
139.36
137.795
135.917
133.731
131.246
128.47
125.414
122.09
118.511
114.69
110.645
106.391
101.947
97.332
92.565
87.668
82.661
77.565
72.403
67.195
61.962
56.727
51.508
46.326
41.2
36.149
31.191
26.343
21.62
17.038
12.609
8.347
4.263
0.366
-3.335
-6.832
-10.119
-13.192
-16.046
-18.678
-21.088
-23.273
-25.235
-26.975
-28.497
-29.804
-30.9
-31.792
-32.487
-32.991
-33.311
-33.457
-33.438
-33.261
-32.938
-32.478
-31.891
-31.189
-30.383
-29.484
-28.503
-27.452
-26.342
-25.183
-23.986
-22.761
-21.517
-20.264
-19.012
-17.769
-16.544
-15.346
-14.183
-13.064
-11.994
-10.982
-10.032
-9.15
-8.34
-7.608
-6.956
-6.388
-5.906
-5.514
-5.212
-5.002
-4.883
-4.855
-4.916
-5.063
-5.293
-5.601
-5.982
-6.429
-6.938
-7.503
-8.117
-8.775
-9.471
-10.201
-10.958
-11.735
-12.527
-13.325
-14.121
-14.905
-15.668
-16.4
-17.094
-17.741
-18.337
-18.874
-19.347
-19.755
-20.094
-20.359
-20.547
-20.646
-20.653
-20.568
-20.399
-20.158
-19.862
-19.528
-19.174
-18.825
-18.501
-18.213
-17.968
-17.759
-17.576
-17.42
-17.299
-17.23
-17.233
-17.31
-17.461
-17.688
-17.976
-18.314
-18.684
-19.047
-19.377
-19.674
-19.955
-20.267
-20.671
-21.204
-21.894
-22.76
-23.809
-25.056
-26.511
-28.158
-29.992
-32.015
-34.236
-36.695
-39.416
-42.379
-45.543
-48.827
-52.122
-55.349
-58.437
-61.308
-63.915
-66.22
-68.218
-69.975
-71.56
-73.026
-74.411
-75.697
-76.892
-78.075
-79.342
-80.811
-82.636
-84.891
-87.694
-91.278
-95.674
-100.737
-106.143
-111.213
-115.336
-118.191
-119.303
-118.099
-114.541
-108.851
-101.758
-94.833
-89.155
-85.152
-83.51
-84.697
-88.228
-93.122
-97.249
-97.106
-90.112
-74.291
-47.179
-6.765
48.254
117.428
196.845
280.839
364.112
443.945
522.966
603.28
683.429
757.505
807.459
813.145
762.335
648.449
483.482
295.097
109.256
-46.076
-151.598
-207.502
-218.715
-197.873
-164.028
-128.749
-102.775
-93.129
-97.153
-109.937
-123.251
-129.587
-128.405
-122.355
-116.231
-113.401
-112.826
-112.354
-109.848
-104.356
-96.714
-87.991
-79.003
-70.495
-63.188
-57.559
-53.903
-52.272
-52.406
-54.092
-57.187
-61.452
-66.605
-72.351
-78.352
-84.348
-90.153
-95.571
-100.451
-104.67
-108.108
-110.694
-112.369
-113.1
-112.904
-111.811
-109.862
-107.129
-103.69
-99.65
-95.154
-90.332
-85.291
-80.132
-74.913
-69.683
-64.493
-59.371
-54.34
-49.414
-44.593
-39.872
-35.255
-30.735
-26.299
-21.927
-17.579
-13.225
-8.847
-4.43
0.031
4.536
9.087
13.68
18.3
22.938
27.583
32.225
36.856
41.471
46.057
50.601
55.09
59.506
63.839
68.076
72.202
76.204
80.069
83.785
87.342
90.727
93.928
96.932
99.725
102.294
104.626
106.709
108.531
110.081
111.349
112.326
113.006
113.383
113.451
113.207
112.651
111.782
110.6
109.111
107.316
105.222
102.836
100.166
97.222
94.016
90.561
86.87
82.96
78.846
74.548
70.085
65.476
60.741
55.902
50.98
45.998
40.976
35.938
30.906
25.902
20.947
16.064
11.271
6.589
2.035
-2.373
-6.62
-10.691
-14.573
-18.254
-21.725
-24.976
-28
-30.79
-33.341
-35.652
-37.72
-39.545
-41.129
-42.475
-43.587
-44.471
-45.133
-45.58
-45.821
-45.867
-45.726
-45.41
-44.932
-44.303
-43.537
-42.647
-41.648
-40.553
-39.378
-38.135
-36.839
-35.504
-34.143
-32.77
-31.396
-30.034
-28.696
-27.391
-26.132
-24.926
-23.782
-22.709
-21.712
-20.797
-19.968
-19.231
-18.588
-18.042
-17.594
-17.247
-16.999
-16.853
-16.805
-16.857
-17.004
-17.245
-17.575
-17.991
-18.488
-19.06
-19.702
-20.406
-21.165
-21.971
-22.816
-23.692
-24.589
-25.498
-26.411
-27.319
-28.214
-29.089
-29.937
-30.752
-31.528
-32.259
-32.939
-33.56
-34.115
-34.597
-35
-35.316
-35.537
-35.657
-35.671
-35.576
-35.368
-35.044
-34.594
-34.017
-33.314
-32.492
-31.56
-30.529
-29.414
-28.232
-27.012
-25.782
-24.568
-23.394
-22.271
-21.206
-20.213
-19.303
-18.49
-17.779
-17.158
-16.608
-16.117
-15.668
-15.246
-14.828
-14.361
-13.804
-13.127
-12.31
-11.362
-10.298
-9.126
-7.859
-6.528
-5.17
-3.85
-2.64
-1.584
-0.722
-0.098
0.249
0.241
-0.182
-1.054
-2.395
-4.192
-6.424
-9.074
-12.112
-15.469
-19.074
-22.841
-26.674
-30.532
-34.381
-38.192
-41.972
-45.697
-49.358
-52.953
-56.457
-59.876
-63.242
-66.587
-69.974
-73.504
-77.216
-81.187
-85.561
-90.248
-95.034
-99.56
-103.166
-105.306
-105.606
-103.541
-98.698
-91.205
-81.519
-70.542
-59.726
-50.037
-42.154
-37.101
-35.309
-36.134
-38.119
-38.861
-35.431
-25.494
-6.791
23.645
68.256
126.923
196.396
272.325
350.095
427.972
509.214
594.199
677.66
750.353
795.504
796.67
748.733
652.921
517.438
360.529
197.432
42.842
-83.237
-169.486
-210.303
-204.976
-168.44
-118.073
-69.441
-37.977
-26.338
-31.535
-47.412
-63.321
-76.435
-86.019
-92.071
-96.675
-96.094
-87.363
-72.155
-55.036
-43.399
-42.852
-52.324
-65.275
-75.684
-79.28
-76.261
-71.43
-67.868
-67.226
-69.72
-73.32
-76.961
-80.45
-83.505
-86.241
-88.611
-90.274
-91.087
-91.061
-90.194
-88.518
-86.11
-83.047
-79.423
-75.378
-71.036
-66.502
-61.913
-57.384
-53.005
-48.867
-45.038
-41.56
-38.453
-35.693
-33.215
-30.968
-28.903
-26.979
-25.167
-23.417
-21.67
-19.866
-17.935
-15.826
-13.501
-10.927
-8.074
-4.938
-1.524
2.129
5.957
9.912
13.959
18.072
22.236
26.431
30.629
34.807
38.942
43.015
47.008
50.902
54.675
58.315
61.82
65.193
68.455
71.613
74.666
77.608
80.43
83.117
85.66
88.042
90.243
92.246
94.034
95.596
96.921
97.998
98.813
99.352
99.6
99.544
99.177
98.491
97.482
96.147
94.489
92.511
90.223
87.632
84.75
81.585
78.151
74.459
70.525
66.366
61.998
57.44
52.711
47.834
42.83
37.722
32.535
27.292
22.015
16.729
11.458
6.223
1.048
-4.047
-9.039
-13.909
-18.638
-23.207
-27.6
-31.802
-35.799
-39.579
-43.134
-46.454
-49.535
-52.371
-54.959
-57.3
-59.393
-61.24
-62.844
-64.21
-65.344
-66.253
-66.946
-67.431
-67.721
-67.827
-67.76
-67.533
-67.16
-66.654
-66.027
-65.294
-64.469
-63.564
-62.594
-61.571
-60.51
-59.423
-58.322
-57.219
-56.125
-55.05
-54.003
-52.991
-52.022
-51.101
-50.234
-49.424
-48.676
-47.991
-47.371
-46.819
-46.334
-45.916
-45.564
-45.275
-45.049
-44.882
-44.772
-44.715
-44.707
-44.746
-44.829
-44.952
-45.111
-45.301
-45.519
-45.76
-46.018
-46.288
-46.563
-46.838
-47.107
-47.367
-47.611
-47.837
-48.041
-48.221
-48.377
-48.506
-48.609
-48.681
-48.718
-48.719
-48.68
-48.596
-48.465
-48.281
-48.041
-47.742
-47.386
-46.972
-46.498
-45.96
-45.35
-44.665
-43.906
-43.076
-42.179
-41.221
-40.212
-39.17
-38.121
-37.093
-36.103
-35.159
-34.261
-33.409
-32.607
-31.858
-31.164
-30.518
-29.904
-29.313
-28.741
-28.181
-27.619
-27.018
-26.325
-25.495
-24.508
-23.366
-22.09
-20.697
-19.21
-17.66
-16.092
-14.575
-13.173
-11.938
-10.909
-10.122
-9.624
-9.491
-9.814
-10.662
-12.062
-13.999
-16.44
-19.351
-22.686
-26.386
-30.359
-34.485
-38.654
-42.769
-46.753
-50.539
-54.051
-57.186
-59.847
-61.962
-63.525
-64.606
-65.282
-65.631
-65.725
-65.604
-65.371
-65.181
-65.17
-65.493
-66.286
-67.601
-69.558
-72.362
-76.004
-80.329
-84.964
-89.166
-92.315
-94.003
-93.667
-90.887
-85.789
-78.797
-70.848
-63.508
-57.841
-54.551
-54.627
-58.304
-64.589
-71.735
-77.035
-77.153
-69.468
-51.503
-20.093
27.005
89.128
162.834
243.6
326.136
408.457
493.08
578.481
659.931
729.358
769.744
767.209
716.349
615.834
477.786
323.397
171.618
43.689
-45.671
-96.014
-112.651
-108.573
-99.244
-91.839
-88.699
-87.946
-85.552
-81.33
-77.112
-75.21
-78.024
-85.305
-95.294
-106.033
-115.036
-121.056
-123.965
-123.739
-120.864
-115.975
-109.572
-102.45
-95.579
-89.493
-84.415
-80.4
-77.226
-74.728
-72.832
-71.371
-70.172
-69.114
-68.085
-67.054
-66.058
-65.123
-64.263
-63.464
-62.676
-61.884
-61.1
-60.35
-59.679
-59.123
-58.694
-58.407
-58.275
-58.306
-58.498
-58.815
-59.184
-59.508
-59.69
-59.671
-59.415
-58.887
-58.049
-56.858
-55.274
-53.278
-50.868
-48.044
-44.802
-41.139
-37.071
-32.637
-27.9
-22.944
-17.841
-12.645
-7.397
-2.127
3.135
8.358
13.527
18.635
23.682
28.661
33.563
38.371
43.077
47.684
52.199
56.636
61.002
65.294
69.506
73.627
77.644
81.543
85.302
88.892
92.288
95.469
98.417
101.117
103.552
105.708
107.566
109.115
110.342
111.238
111.798
112.013
111.883
111.406
110.584
109.424
107.933
106.115
103.981
101.539
98.801
95.779
92.486
88.937
85.148
81.136
76.92
72.521
67.96
63.257
58.435
53.518
48.526
43.484
38.413
33.335
28.271
23.243
18.269
13.37
8.563
3.866
-0.707
-5.141
-9.421
-13.536
-17.476
-21.231
-24.793
-28.156
-31.314
-34.264
-37.003
-39.528
-41.841
-43.94
-45.829
-47.51
-48.987
-50.265
-51.351
-52.251
-52.972
-53.523
-53.912
-54.148
-54.241
-54.199
-54.032
-53.75
-53.362
-52.877
-52.306
-51.656
-50.938
-50.159
-49.329
-48.455
-47.545
-46.609
-45.652
-44.681
-43.705
-42.729
-41.759
-40.801
-39.861
-38.943
-38.053
-37.194
-36.372
-35.589
-34.85
-34.158
-33.515
-32.925
-32.39
-31.913
-31.496
-31.142
-30.852
-30.628
-30.472
-30.387
-30.372
-30.43
-30.56
-30.764
-31.041
-31.39
-31.809
-32.295
-32.845
-33.456
-34.125
-34.847
-35.616
-36.43
-37.283
-38.172
-39.091
-40.035
-40.999
-41.974
-42.954
-43.93
-44.893
-45.834
-46.743
-47.61
-48.424
-49.176
-49.859
-50.46
-50.971
-51.375
-51.664
-51.832
-51.877
-51.796
-51.595
-51.279
-50.86
-50.357
-49.788
-49.17
-48.517
-47.84
-47.149
-46.452
-45.76
-45.086
-44.435
-43.8
-43.169
-42.528
-41.855
-41.133
-40.33
-39.407
-38.331
-37.081
-35.642
-34.016
-32.213
-30.255
-28.169
-25.985
-23.753
-21.536
-19.408
-17.459
-15.774
-14.434
-13.532
-13.164
-13.412
-14.347
-16.017
-18.447
-21.634
-25.547
-30.138
-35.349
-41.099
-47.292
-53.814
-60.525
-67.291
-73.986
-80.479
-86.642
-92.361
-97.527
-102.058
-105.902
-109.055
-111.582
-113.564
-115.09
-116.248
-117.095
-117.737
-118.34
-119.048
-119.995
-121.312
-123.049
-125.329
-128.405
-132.303
-136.853
-141.717
-146.198
-149.69
-151.844
-152.055
-149.607
-144.439
-136.875
-127.687
-118.471
-110.507
-104.679
-102.412
-104.899
-110.717
-116.759
-120.058
-117.293
-109.177
-98.994
-84.769
-61.105
-20.044
47.515
142.685
258.872
386.376
513.527
630.261
727.454
796.111
826.762
810.552
745.604
635.211
489.252
325.316
160.608
13.555
-100.408
-176.328
-216.048
-230.767
-235.621
-238.245
-241.189
-241.541
-233.787
-218.989
-201.486
-185.21
-174.01
-168.427
-166.818
-168.137
-171.11
-173.905
-174.993
-173.505
-169.175
-162.518
-154.456
-145.63
-136.589
-128.121
-120.982
-115.648
-112.35
-110.978
-111.218
-112.834
-115.616
-119.333
-123.749
-128.618
-133.713
-138.858
-143.895
-148.681
-153.087
-156.966
-160.204
-162.721
-164.443
-165.349
-165.451
-164.766
-163.334
-161.199
-158.407
-155.031
-151.156
-146.858
-142.224
-137.328
-132.234
-127.024
-121.765
-116.502
-111.277
-106.111
-101.004
-95.966
-90.997
-86.085
-81.223
-76.397
-71.589
-66.79
-61.984
-57.159
-52.299
-47.383
-42.394
-37.326
-32.175
-26.942
-21.634
-16.255
-10.815
-5.331
0.182
5.709
11.236
16.749
22.236
27.677
33.056
38.353
43.547
48.621
53.555
58.33
62.925
67.322
71.503
75.452
79.151
82.583
85.732
88.581
91.115
93.318
95.176
96.677
97.808
98.56
98.925
98.897
98.474
97.652
96.434
94.823
92.822
90.439
87.681
84.557
81.078
77.257
73.105
68.637
63.872
58.829
53.53
48.001
42.268
36.36
30.305
24.134
17.877
11.564
5.221
-1.123
-7.442
-13.704
-19.879
-25.93
-31.827
-37.546
-43.059
-48.347
-53.396
-58.196
-62.748
-67.058
-71.122
-74.932
-78.474
-81.724
-84.663
-87.27
-89.524
-91.415
-92.934
-94.066
-94.811
-95.161
-95.099
-94.6
-93.626
-92.127
-90.082
-87.485
-84.344
-80.695
-76.582
-72.056
-67.194
-62.057
-56.697
-51.17
-45.515
-39.771
-34
-28.268
-22.659
-17.274
-12.184
-7.437
-3.075
0.902
4.505
7.765
10.746
13.502
16.067
18.476
20.743
22.877
24.911
26.875
28.81
30.777
32.815
34.953
37.219
39.61
42.112
44.694
47.3
49.878
52.398
54.835
57.179
59.43
61.577
63.616
65.544
67.347
69.014
70.542
71.919
73.148
74.244
75.224
76.122
76.97
77.792
78.608
79.433
80.277
81.152
82.063
83.011
84.002
85.039
86.128
87.275
88.489
89.774
91.137
92.581
94.103
95.699
97.361
99.078
100.833
102.61
104.391
106.164
107.923
109.667
111.402
113.135
114.872
116.611
118.342
120.054
121.738
123.388
125.004
126.596
128.183
129.789
131.447
133.173
134.969
136.819
138.683
140.512
142.242
143.822
145.218
146.398
147.34
148.019
148.41
148.476
148.171
147.437
146.208
144.436
142.09
139.174
135.724
131.806
127.525
122.976
118.244
113.405
108.519
103.644
98.844
94.186
89.745
85.615
81.896
78.675
76.029
73.998
72.586
71.743
71.343
71.257
71.358
71.531
71.718
71.845
71.794
71.46
70.733
69.492
67.691
65.242
61.938
57.768
52.913
47.741
42.964
39.186
36.689
35.937
37.571
41.72
48.19
56.233
64.285
71.445
77.466
81.68
83.351
82.388
80.353
81.044
88.678
106.34
132.763
163.214
197.085
234.984
281.538
347.538
435.236
543.458
668.966
798.405
920.501
1023.722
1092.279
1114.114
1080.307
988.537
845.601
667.526
476.487
294.101
141.733
32.461
-31.926
-55.619
-51.499
-31.871
-4.895
21.339
43.975
59.822
66.875
69.038
69.048
70.015
73.215
75.345
74.856
71.971
68.288
66.828
68.771
73.719
80.821
88.895
97.167
105.041
111.74
116.763
119.941
121.346
121.225
119.785
117.168
113.544
109.134
104.148
98.765
93.131
87.362
81.592
75.959
70.573
65.532
60.928
56.825
53.272
50.315
47.958
46.192
45.009
44.378
44.26
44.605
45.343
46.403
47.722
49.242
50.91
52.674
54.47
56.25
57.981
59.634
61.198
62.666
64.027
65.284
66.447
67.53
68.548
69.523
70.462
71.381
72.294
73.219
74.176
75.184
76.249
77.375
78.562
79.807
81.109
82.457
83.838
85.237
86.64
88.035
89.409
90.749
92.039
93.262
94.401
95.438
96.358
97.146
97.786
98.263
98.564
98.676
98.587
98.288
97.766
97.01
96.01
94.757
93.243
91.46
89.404
87.071
84.458
81.568
78.401
74.963
71.261
67.301
63.094
58.651
53.987
49.114
44.049
38.81
33.414
27.882
22.233
16.489
10.67
4.798
-1.105
-7.018
-12.918
-18.785
-24.597
-30.334
-35.975
-41.501
-46.893
-52.132
-57.201
-62.085
-66.768
-71.238
-75.481
-79.489
-83.253
-86.767
-90.024
-93.022
-95.76
-98.237
-100.455
-102.417
-104.127
-105.592
-106.817
-107.812
-108.584
-109.145
-109.504
-109.674
-109.665
-109.489
-109.16
-108.689
-108.089
-107.373
-106.554
-105.645
-104.658
-103.606
-102.502
-101.357
-100.183
-98.991
-97.792
-96.596
-95.411
-94.245
-93.106
-92
-90.933
-89.909
-88.933
-88.007
-87.135
-86.317
-85.556
-84.851
-84.202
-83.61
-83.072
-82.587
-82.154
-81.771
-81.434
-81.143
-80.895
-80.687
-80.516
-80.379
-80.274
-80.197
-80.145
-80.114
-80.1
-80.101
-80.111
-80.127
-80.147
-80.167
-80.183
-80.193
-80.193
-80.181
-80.154
-80.108
-80.042
-79.951
-79.834
-79.686
-79.505
-79.288
-79.03
-78.73
-78.385
-77.992
-77.548
-77.05
-76.496
-75.881
-75.205
-74.463
-73.651
-72.767
-71.808
-70.773
-69.66
-68.469
-67.199
-65.851
-64.424
-62.921
-61.347
-59.701
-57.985
-56.201
-54.35
-52.442
-50.49
-48.502
-46.488
-44.461
-42.435
-40.426
-38.455
-36.53
-34.663
-32.864
-31.141
-29.515
-28.005
-26.628
-25.405
-24.344
-23.449
-22.737
-22.224
-21.916
-21.823
-21.945
-22.274
-22.833
-23.639
-24.706
-26.056
-27.69
-29.61
-31.825
-34.335
-37.151
-40.279
-43.706
-47.407
-51.356
-55.518
-59.866
-64.38
-69.004
-73.679
-78.35
-82.952
-87.432
-91.734
-95.796
-99.562
-102.98
-106.011
-108.638
-110.889
-112.84
-114.582
-116.207
-117.79
-119.391
-121.097
-123.032
-125.327
-128.109
-131.504
-135.551
-140.338
-146.073
-152.758
-160.217
-168.058
-175.513
-181.917
-186.938
-190.063
-190.609
-188.481
-183.882
-177.567
-171.239
-165.937
-162.062
-160.581
-162.317
-167.097
-173.112
-176.295
-171.866
-156.421
-131.232
-100.326
-64.494
-23.924
27.165
100.128
198.442
322.514
466.845
614.021
747.01
849.751
904.245
898.87
830.205
699.866
521.24
318.397
115.228
-64.409
-201.947
-291.25
-333.174
-334.698
-310.094
-273.653
-238.875
-218.772
-217.162
-231.583
-255.373
-276.449
-289.151
-293.849
-293.107
-293.404
-296.962
-301.615
-305.495
-306.122
-302.727
-296.536
-288.527
-279.514
-270.386
-261.846
-254.303
-248.005
-242.932
-238.87
-235.727
-233.491
-232.105
-231.467
-231.48
-232.067
-233.168
-234.749
-236.727
-238.967
-241.342
-243.762
-246.179
-248.573
-250.939
-253.251
-255.471
-257.566
-259.464
-261.093
-262.379
-263.228
-263.581
-263.413
-262.715
-261.502
-259.804
-257.63
-254.986
-251.879
-248.308
-244.283
-239.825
-234.954
-229.717
-224.176
-218.405
-212.492
-206.509
-200.5
-194.504
-188.538
-182.616
-176.752
-170.953
-165.221
-159.562
-153.981
-148.485
-143.084
-137.78
-132.563
-127.422
-122.336
-117.295
-112.3
-107.354
-102.467
-97.652
-92.925
-88.306
-83.822
-79.495
-75.342
-71.381
-67.625
-64.089
-60.788
-57.74
-54.959
-52.459
-50.251
-48.346
-46.751
-45.472
-44.514
-43.876
-43.558
-43.557
-43.871
-44.496
-45.428
-46.66
-48.185
-49.995
-52.079
-54.427
-57.026
-59.861
-62.916
-66.175
-69.621
-73.233
-76.994
-80.883
-84.88
-88.964
-93.116
-97.315
-101.54
-105.772
-109.991
-114.177
-118.311
-122.377
-126.355
-130.231
-133.988
-137.613
-141.093
-144.416
-147.573
-150.554
-153.352
-155.959
-158.37
-160.581
-162.588
-164.388
-165.98
-167.364
-168.54
-169.509
-170.274
-170.839
-171.208
-171.385
-171.376
-171.186
-170.823
-170.293
-169.602
-168.756
-167.765
-166.634
-165.371
-163.984
-162.48
-160.866
-159.148
-157.332
-155.425
-153.431
-151.354
-149.198
-146.966
-144.663
-142.29
-139.851
-137.35
-134.788
-132.171
-129.501
-126.783
-124.02
-121.213
-118.365
-115.478
-112.555
-109.595
-106.598
-103.567
-100.504
-97.414
-94.302
-91.171
-88.025
-84.87
-81.712
-78.556
-75.411
-72.276
-69.149
-66.043
-62.972
-59.95
-56.999
-54.119
-51.297
-48.552
-45.9
-43.304
-40.733
-38.151
-35.508
-32.82
-30.129
-27.412
-24.63
-21.922
-19.451
-17.14
-15
-13.066
-11.018
-9.742
-10.106
-10.896
-11.763
-10.485
-4.402
3.461
11.093
15.519
12.679
6.222
-0.743
-6.047
-6.171
-3.554
-0.67
1.948
2.79
2.794
3.156
3.724
4.73
6.145
7.771
9.781
12.28
15.197
18.473
22.035
25.807
29.72
33.715
37.731
41.708
45.605
49.378
52.964
56.285
59.282
61.907
64.115
65.893
67.234
68.149
68.679
68.862
68.718
68.269
67.52
66.475
65.145
63.53
61.632
59.466
57.04
54.366
51.462
48.343
45.029
41.546
37.912
34.145
30.275
26.326
22.335
18.347
14.403
10.566
6.899
3.459
0.306
-2.509
-4.95
-7.003
-8.708
-10.145
-11.4
-12.552
-13.654
-14.763
-15.993
-17.463
-19.285
-21.576
-24.379
-27.8
-32.095
-37.35
-43.447
-50.097
-56.654
-62.489
-67.266
-70.449
-71.259
-69.392
-65.002
-58.715
-52.009
-46.291
-42.323
-41.085
-43.952
-50.256
-57.193
-62.016
-60.714
-52.702
-42.151
-28.666
-8.15
27.771
91.734
187.598
309.657
447.108
586.36
719.898
844.846
955.921
1042.658
1087.092
1069.803
981.201
826.221
624.986
409.788
212.117
55.018
-48.932
-103.051
-118.349
-107.849
-86.322
-62.79
-44.761
-37.893
-41.796
-54.28
-68.521
-77.365
-79.434
-76.404
-72.994
-73.033
-75.868
-78.799
-78.956
-75.011
-67.508
-57.627
-46.433
-34.58
-22.741
-11.76
-2.201
5.653
11.768
16.303
19.345
20.958
21.293
20.574
19.024
16.829
14.134
11.081
7.842
4.608
1.566
-1.139
-3.386
-5.05
-6.035
-6.259
-5.673
-4.279
-2.096
0.85
4.512
8.836
13.758
19.191
25.049
31.259
37.739
44.42
51.23
58.084
64.916
71.678
78.329
84.857
91.25
97.499
103.602
109.57
115.41
121.14
126.774
132.316
137.776
143.167
148.503
153.809
159.099
164.38
169.654
174.92
180.172
185.405
190.61
195.769
200.869
205.893
210.83
215.668
220.395
224.995
229.452
233.748
237.865
241.789
245.505
248.996
252.249
255.249
257.985
260.448
262.626
264.51
266.091
267.359
268.306
268.927
269.216
269.17
268.787
268.065
267.007
265.617
263.899
261.859
259.506
256.849
253.899
250.668
247.17
243.419
239.433
235.229
230.825
226.24
221.494
216.608
211.602
206.497
201.315
196.076
190.802
185.512
180.227
174.967
169.751
164.596
159.52
154.54
149.67
144.925
140.317
135.858
131.557
127.425
123.467
119.691
116.101
112.701
109.493
106.478
103.655
101.024
98.581
96.325
94.249
92.349
90.618
89.051
87.639
86.376
85.253
84.261
83.391
82.634
81.981
81.422
80.947
80.548
80.214
79.937
79.708
79.517
79.357
79.22
79.097
78.982
78.867
78.745
78.611
78.458
78.281
78.074
77.832
77.552
77.229
76.859
76.44
75.967
75.439
74.853
74.207
73.498
72.725
71.886
70.981
70.009
68.969
67.86
66.683
65.437
64.122
62.738
61.286
59.767
58.18
56.527
54.81
53.03
51.189
49.29
47.336
45.33
43.277
41.183
39.051
36.886
34.695
32.483
30.257
28.02
25.78
23.541
21.309
19.093
16.9
14.738
12.613
10.537
8.517
6.564
4.688
2.899
1.203
-0.388
-1.865
-3.215
-4.426
-5.486
-6.393
-7.141
-7.732
-8.168
-8.454
-8.604
-8.638
-8.57
-8.415
-8.184
-7.883
-7.526
-7.127
-6.694
-6.243
-5.78
-5.299
-4.795
-4.259
-3.662
-2.982
-2.182
-1.215
-0.054
1.32
2.919
4.737
6.772
9.013
11.429
13.989
16.654
19.365
22.06
24.665
27.075
29.188
30.9
32.094
32.684
32.599
31.777
30.188
27.819
24.686
20.838
16.333
11.235
5.628
-0.394
-6.713
-13.173
-19.626
-25.927
-31.925
-37.506
-42.557
-46.979
-50.713
-53.754
-56.17
-58.061
-59.541
-60.705
-61.626
-62.415
-63.24
-64.285
-65.723
-67.714
-70.326
-73.691
-78.084
-83.548
-89.927
-96.876
-103.639
-109.536
-114.212
-117.012
-117.09
-114.332
-108.979
-101.695
-94.165
-87.673
-82.834
-81.055
-83.874
-90.011
-96.427
-100.11
-96.104
-84.127
-69.084
-49.826
-23.768
14.658
78.938
173.611
296.614
443.682
600.043
751.457
883.436
978.703
1024.243
1009.182
930.877
795.519
616.772
416.972
219.63
46.775
-85.625
-171.136
-212.496
-219.097
-201.297
-170.561
-136.71
-108.256
-93.254
-93.939
-107.045
-124.324
-137.436
-143.286
-143.033
-141.582
-142.106
-143.79
-144.831
-142.857
-137.021
-128.426
-118.258
-107.543
-97.198
-87.946
-80.267
-74.498
-70.701
-68.678
-68.285
-69.408
-71.883
-75.506
-80.072
-85.373
-91.209
-97.419
-103.804
-110.153
-116.293
-122.063
-127.318
-131.917
-135.74
-138.705
-140.773
-141.951
-142.25
-141.689
-140.305
-138.154
-135.318
-131.894
-127.972
-123.632
-118.949
-113.996
-108.853
-103.613
-98.349
-93.109
-87.923
-82.805
-77.769
-72.828
-67.988
-63.237
-58.559
-53.939
-49.367
-44.839
-40.35
-35.89
-31.445
-26.994
-22.527
-18.044
-13.549
-9.048
-4.551
-0.067
4.391
8.801
13.143
17.401
21.56
25.609
29.534
33.318
36.946
40.4
43.666
46.729
49.575
52.192
54.565
56.682
58.535
60.114
61.411
62.418
63.128
63.533
63.628
63.409
62.873
62.018
60.845
59.355
57.554
55.446
53.039
50.342
47.365
44.119
40.616
36.87
32.896
28.708
24.322
19.755
15.025
10.15
5.147
0.036
-5.164
-10.434
-15.754
-21.104
-26.466
-31.821
-37.15
-42.435
-47.659
-52.805
-57.858
-62.803
-67.626
-72.313
-76.853
-81.236
-85.452
-89.494
-93.355
-97.029
-100.513
-103.804
-106.899
-109.797
-112.498
-115.002
-117.312
-119.428
-121.355
-123.095
-124.653
-126.033
-127.242
-128.286
-129.169
-129.899
-130.483
-130.928
-131.24
-131.427
-131.496
-131.454
-131.308
-131.066
-130.735
-130.323
-129.837
-129.283
-128.669
-128.001
-127.287
-126.533
-125.745
-124.93
-124.095
-123.245
-122.387
-121.528
-120.672
-119.826
-118.996
-118.188
-117.405
-116.654
-115.94
-115.268
-114.642
-114.067
-113.549
-113.093
-112.702
-112.383
-112.14
-111.978
-111.901
-111.914
-112.019
-112.222
-112.523
-112.926
-113.433
-114.044
-114.759
-115.577
-116.498
-117.516
-118.629
-119.831
-121.119
-122.485
-123.925
-125.43
-126.994
-128.612
-130.277
-131.979
-133.711
-135.461
-137.221
-138.979
-140.722
-142.438
-144.112
-145.731
-147.279
-148.744
-150.112
-151.365
-152.489
-153.462
-154.27
-154.903
-155.352
-155.613
-155.684
-155.566
-155.269
-154.81
-154.2
-153.452
-152.575
-151.572
-150.455
-149.234
-147.917
-146.516
-145.035
-143.467
-141.804
-140.035
-138.132
-136.071
-133.817
-131.322
-128.559
-125.509
-122.161
-118.525
-114.602
-110.408
-105.975
-101.337
-96.54
-91.65
-86.733
-81.867
-77.159
-72.708
-68.62
-65.017
-61.986
-59.599
-57.92
-56.982
-56.809
-57.403
-58.723
-60.715
-63.317
-66.441
-69.994
-73.87
-77.922
-82.011
-85.999
-89.731
-93.087
-95.961
-98.249
-99.882
-100.813
-101.037
-100.626
-99.676
-98.288
-96.573
-94.608
-92.504
-90.44
-88.569
-87.036
-86.004
-85.536
-85.751
-86.906
-89.037
-91.99
-95.483
-98.872
-101.551
-103.212
-103.287
-100.983
-96.135
-88.978
-80.099
-70.939
-62.678
-55.867
-51.601
-51.352
-54.317
-57.643
-58.492
-52.877
-39.986
-24.046
-5.738
18.479
53.91
110.645
195.735
305.82
435.03
575.441
714.293
842.632
950.241
1019.716
1036.376
988.399
871.451
696.991
487.077
271.713
79.688
-69.071
-163.54
-208.202
-213.847
-190.512
-152.6
-108.389
-64.907
-34.36
-20.757
-24.832
-42.897
-62.632
-77.398
-85.009
-86.148
-86.467
-87.775
-89.097
-89.506
-86.833
-80.782
-72.676
-63.455
-54.264
-46.082
-39.158
-33.606
-29.444
-26.46
-24.507
-23.516
-23.399
-24.016
-25.253
-27.01
-29.153
-31.598
-34.226
-36.867
-39.388
-41.69
-43.69
-45.337
-46.587
-47.365
-47.622
-47.331
-46.447
-44.956
-42.863
-40.171
-36.917
-33.157
-28.947
-24.362
-19.466
-14.304
-8.922
-3.365
2.328
8.093
13.885
19.671
25.411
31.077
36.648
42.102
47.432
52.645
57.745
62.741
67.644
72.453
77.176
81.821
86.397
90.921
95.404
99.845
104.25
108.616
112.94
117.22
121.446
125.603
129.677
133.655
137.526
141.276
144.894
148.362
151.667
154.792
157.721
160.442
162.942
165.208
167.228
168.992
170.49
171.715
172.659
173.314
173.673
173.728
173.476
172.911
172.031
170.835
169.322
167.495
165.357
162.914
160.172
157.14
153.826
150.241
146.398
142.311
137.995
133.465
128.74
123.839
118.78
113.584
108.272
102.864
97.382
91.845
86.276
80.696
75.126
69.587
64.099
58.682
53.357
48.141
43.053
38.109
33.325
28.715
24.293
20.071
16.059
12.267
8.703
5.372
2.281
-0.567
-3.171
-5.529
-7.644
-9.516
-11.15
-12.551
-13.724
-14.677
-15.416
-15.951
-16.29
-16.442
-16.419
-16.23
-15.887
-15.401
-14.784
-14.047
-13.203
-12.263
-11.238
-10.142
-8.986
-7.78
-6.536
-5.266
-3.978
-2.685
-1.396
-0.12
1.135
2.359
3.547
4.693
5.789
6.833
7.819
8.745
9.608
10.406
11.138
11.8
12.393
12.916
13.368
13.748
14.057
14.296
14.463
14.561
14.589
14.549
14.442
14.27
14.034
13.737
13.381
12.97
12.509
12
11.451
10.866
10.249
9.606
8.941
8.259
7.563
6.856
6.141
5.421
4.701
3.983
3.275
2.581
1.907
1.261
0.648
0.079
-0.44
-0.903
-1.304
-1.636
-1.891
-2.055
-2.119
-2.081
-1.939
-1.692
-1.344
-0.9
-0.369
0.228
0.876
1.556
2.255
2.971
3.703
4.445
5.191
5.933
6.671
7.419
8.195
9.012
9.885
10.829
11.867
13.045
14.398
15.947
17.706
19.662
21.792
24.076
26.484
28.972
31.488
33.952
36.276
38.392
40.231
41.723
42.792
43.331
43.254
42.497
41.009
38.775
35.795
32.082
27.682
22.671
17.139
11.205
4.997
-1.382
-7.827
-14.233
-20.49
-26.465
-32.048
-37.148
-41.687
-45.617
-48.913
-51.593
-53.755
-55.53
-57.064
-58.508
-59.984
-61.608
-63.514
-65.812
-68.616
-72.048
-76.163
-81.085
-87.018
-93.989
-101.92
-110.513
-119.06
-126.881
-133.438
-137.953
-139.677
-138.337
-133.752
-126.585
-118.617
-111.28
-105.951
-103.504
-103.155
-103.62
-103.626
-103.324
-104.639
-108.407
-113.238
-110.768
-87.76
-34.931
53.398
172.701
310.548
457.562
603.534
739.773
857.092
941.233
977.76
955.232
871.504
732.491
552.261
353.506
158.047
-11.092
-135.098
-209.141
-235.284
-225.574
-198.12
-165.042
-137.832
-122.47
-117.384
-121.034
-127.226
-130.057
-129.222
-125.992
-124.331
-127.412
-134.21
-141.934
-147.616
-149.762
-148.674
-145.349
-140.826
-135.722
-130.641
-126.363
-123.28
-121.472
-120.802
-120.919
-121.602
-122.717
-124.053
-125.378
-126.499
-127.299
-127.74
-127.811
-127.445
-126.563
-125.124
-123.153
-120.748
-118.019
-115.061
-111.953
-108.755
-105.54
-102.377
-99.301
-96.323
-93.426
-90.567
-87.736
-84.948
-82.208
-79.514
-76.83
-74.08
-71.202
-68.153
-64.893
-61.398
-57.641
-53.598
-49.276
-44.711
-39.955
-35.075
-30.115
-25.096
-20.041
-14.969
-9.908
-4.898
0.037
4.888
9.642
14.286
18.808
23.194
27.444
31.575
35.607
39.564
43.459
47.295
51.074
54.793
58.448
62.034
65.536
68.936
72.217
75.367
78.371
81.218
83.895
86.381
88.659
90.711
92.521
94.076
95.362
96.369
97.086
97.508
97.629
97.447
96.96
96.167
95.066
93.657
91.941
89.922
87.603
84.99
82.089
78.909
75.462
71.758
67.814
63.643
59.263
54.691
49.946
45.048
40.016
34.872
29.637
24.331
18.977
13.595
8.206
2.831
-2.508
-7.794
-13.006
-18.126
-23.138
-28.025
-32.772
-37.366
-41.792
-46.04
-50.098
-53.957
-57.609
-61.047
-64.264
-67.257
-70.023
-72.561
-74.871
-76.954
-78.815
-80.457
-81.885
-83.107
-84.129
-84.959
-85.606
-86.079
-86.388
-86.543
-86.555
-86.435
-86.195
-85.846
-85.4
-84.869
-84.265
-83.599
-82.882
-82.125
-81.34
-80.534
-79.719
-78.904
-78.097
-77.308
-76.543
-75.81
-75.116
-74.466
-73.866
-73.318
-72.827
-72.394
-72.021
-71.71
-71.463
-71.278
-71.158
-71.103
-71.111
-71.183
-71.316
-71.509
-71.76
-72.063
-72.416
-72.814
-73.25
-73.72
-74.218
-74.739
-75.277
-75.828
-76.387
-76.949
-77.509
-78.062
-78.602
-79.122
-79.613
-80.068
-80.478
-80.836
-81.135
-81.369
-81.532
-81.62
-81.63
-81.557
-81.395
-81.135
-80.767
-80.281
-79.672
-78.939
-78.084
-77.114
-76.041
-74.88
-73.646
-72.352
-71.003
-69.597
-68.127
-66.579
-64.944
-63.218
-61.409
-59.521
-57.558
-55.518
-53.4
-51.189
-48.868
-46.409
-43.782
-40.969
-37.971
-34.808
-31.521
-28.163
-24.795
-21.469
-18.223
-15.094
-12.115
-9.324
-6.757
-4.46
-2.486
-0.898
0.231
0.849
0.927
0.463
-0.518
-1.981
-3.871
-6.144
-8.761
-11.693
-14.907
-18.369
-22.037
-25.854
-29.754
-33.657
-37.469
-41.116
-44.53
-47.666
-50.489
-52.963
-55.065
-56.771
-58.054
-58.887
-59.262
-59.201
-58.745
-57.982
-57
-55.877
-54.725
-53.671
-52.853
-52.429
-52.538
-53.287
-54.825
-57.37
-61.024
-65.723
-71.174
-76.781
-81.975
-86.38
-89.57
-90.963
-90.237
-87.579
-83.776
-80.364
-78.737
-79.384
-82.687
-89.389
-99.667
-112.799
-125.87
-133.46
-130.799
-114.909
-86.949
-50.988
-8.401
40.468
100.917
182.953
289.805
421.56
570.725
719.184
851.59
953.291
1010.315
1013.983
956.692
836.056
659.605
446.805
226.931
29.242
-121.623
-213.303
-249.587
-239.522
-197.383
-141.699
-85.67
-43.919
-28.589
-39.303
-70.609
-110.136
-142.716
-162.48
-169.331
-167.722
-164.561
-162.315
-160.634
-158.187
-153.041
-145.248
-136.061
-126.688
-118.472
-111.934
-106.98
-103.54
-101.377
-100.313
-100.273
-101.057
-102.425
-104.177
-106.107
-108.048
-109.866
-111.375
-112.374
-112.679
-112.133
-110.689
-108.388
-105.275
-101.416
-96.882
-91.761
-86.204
-80.4
-74.506
-68.667
-63.006
-57.637
-52.713
-48.386
-44.758
-41.875
-39.713
-38.205
-37.294
-36.92
-36.989
-37.361
-37.865
-38.352
-38.681
-38.691
-38.245
-37.197
-35.405
-32.824
-29.412
-25.07
-19.904
-14.269
-8.29
-1.935
4.664
11.686
18.466
23.044
25.603
27.793
32.194
43.884
62.769
83.486
100.841
107.496
102.516
92.904
84.097
81.843
87.55
96.062
104.134
109.689
111.939
113.007
113.949
114.69
115.347
115.629
115.432
115.044
114.559
113.924
113.152
112.247
111.175
109.897
108.358
106.493
104.284
101.754
98.917
95.774
92.335
88.611
84.625
80.402
75.96
71.312
66.471
61.456
56.293
51.007
45.625
40.171
34.669
29.141
23.612
18.101
12.63
7.216
1.876
-3.372
-8.51
-13.521
-18.386
-23.091
-27.619
-31.959
-36.096
-40.021
-43.724
-47.2
-50.442
-53.448
-56.214
-58.739
-61.022
-63.064
-64.868
-66.436
-67.77
-68.877
-69.762
-70.432
-70.896
-71.161
-71.237
-71.135
-70.867
-70.442
-69.875
-69.176
-68.359
-67.437
-66.424
-65.333
-64.177
-62.971
-61.728
-60.461
-59.182
-57.905
-56.639
-55.396
-54.185
-53.015
-51.895
-50.831
-49.831
-48.9
-48.044
-47.267
-46.572
-45.963
-45.442
-45.01
-44.668
-44.416
-44.254
-44.179
-44.191
-44.286
-44.463
-44.717
-45.044
-45.441
-45.902
-46.422
-46.996
-47.616
-48.277
-48.972
-49.693
-50.432
-51.181
-51.932
-52.678
-53.411
-54.125
-54.811
-55.464
-56.08
-56.653
-57.18
-57.654
-58.07
-58.423
-58.707
-58.919
-59.053
-59.103
-59.063
-58.927
-58.695
-58.362
-57.923
-57.369
-56.689
-55.879
-54.938
-53.869
-52.675
-51.366
-49.952
-48.453
-46.897
-45.31
-43.715
-42.129
-40.561
-39.028
-37.548
-36.145
-34.839
-33.638
-32.538
-31.53
-30.604
-29.734
-28.886
-28.003
-27.015
-25.866
-24.518
-22.952
-21.161
-19.14
-16.881
-14.382
-11.655
-8.736
-5.676
-2.532
0.625
3.704
6.592
9.145
11.202
12.644
13.377
13.348
12.537
10.928
8.518
5.323
1.382
-3.239
-8.453
-14.166
-20.269
-26.615
-33.041
-39.348
-45.327
-50.82
-55.706
-59.925
-63.491
-66.431
-68.786
-70.61
-71.95
-72.891
-73.562
-74.073
-74.544
-75.126
-75.924
-77.155
-79.156
-82.003
-85.621
-89.768
-93.816
-97.229
-99.703
-100.571
-99.038
-95.018
-88.614
-80.326
-71.804
-64.263
-58.298
-55.509
-56.414
-58.716
-60.433
-59.196
-53.42
-46.743
-41.602
-34.678
-18.304
20.115
91.12
195.257
325.316
468.635
611.543
745.279
860.873
949.483
1001.439
1003.005
947.884
837.583
681.375
500.039
315.815
149.345
16.928
-74.721
-126.396
-146.222
-145.047
-130.686
-110.711
-90.316
-72.373
-62.815
-62.869
-68.342
-76.69
-83.475
-86.833
-90.202
-94.441
-98.811
-102.486
-102.992
-99.367
-92.501
-83.273
-72.69
-61.858
-51.653
-42.604
-35.075
-29.135
-24.531
-21.143
-18.922
-17.732
-17.437
-17.884
-18.896
-20.358
-22.196
-24.289
-26.483
-28.606
-30.52
-32.143
-33.422
-34.323
-34.793
-34.752
-34.146
-32.936
-31.101
-28.655
-25.616
-22.006
-17.867
-13.258
-8.242
-2.903
2.701
8.536
14.565
20.758
27.068
33.427
39.78
46.089
52.319
58.451
64.465
70.343
76.08
81.686
87.169
92.544
97.819
102.99
108.061
113.037
117.931
122.762
127.544
132.283
136.983
141.647
146.274
150.866
155.415
159.908
164.334
168.683
172.944
177.112
181.178
185.13
188.956
192.645
196.185
199.567
202.779
205.812
208.654
211.298
213.736
215.96
217.965
219.744
221.289
222.594
223.654
224.463
225.016
225.31
225.34
225.105
224.604
223.836
222.803
221.505
219.947
218.131
216.062
213.746
211.19
208.402
205.389
202.163
198.732
195.11
191.306
187.335
183.209
178.943
174.55
170.046
165.446
160.764
156.015
151.215
146.378
141.52
136.654
131.794
126.955
122.151
117.394
112.697
108.072
103.531
99.083
94.739
90.508
86.398
82.416
78.57
74.864
71.304
67.894
64.636
61.532
58.583
55.789
53.147
50.655
48.311
46.109
44.044
42.11
40.302
38.611
37.03
35.551
34.165
32.864
31.637
30.477
29.371
28.312
27.289
26.291
25.311
24.337
23.36
22.371
21.362
20.322
19.245
18.121
16.944
15.707
14.403
13.027
11.575
10.042
8.426
6.724
4.936
3.061
1.099
-0.947
-3.077
-5.287
-7.573
-9.931
-12.356
-14.841
-17.382
-19.97
-22.6
-25.262
-27.949
-30.654
-33.367
-36.079
-38.783
-41.467
-44.123
-46.74
-49.31
-51.821
-54.265
-56.631
-58.911
-61.095
-63.174
-65.139
-66.984
-68.7
-70.281
-71.719
-73.011
-74.151
-75.137
-75.964
-76.631
-77.138
-77.484
-77.671
-77.699
-77.573
-77.294
-76.869
-76.302
-75.6
-74.771
-73.823
-72.766
-71.611
-70.372
-69.061
-67.692
-66.283
-64.85
-63.409
-61.979
-60.576
-59.215
-57.916
-56.693
-55.564
-54.543
-53.648
-52.892
-52.295
-51.871
-51.636
-51.599
-51.769
-52.149
-52.746
-53.564
-54.612
-55.897
-57.42
-59.186
-61.199
-63.458
-65.958
-68.677
-71.572
-74.599
-77.712
-80.866
-84.025
-87.148
-90.191
-93.108
-95.849
-98.365
-100.619
-102.568
-104.164
-105.379
-106.201
-106.669
-106.899
-107.01
-107.129
-107.367
-107.787
-108.487
-109.595
-111.211
-113.447
-116.394
-120.045
-124.519
-130.043
-136.595
-144.04
-151.988
-159.601
-166.193
-171.327
-174.261
-174.259
-171.226
-165.202
-156.91
-148.282
-140.779
-135.319
-133.485
-135.471
-139.014
-142.33
-142.561
-137.093
-128.224
-117.027
-100.138
-72.366
-24.174
53.575
160.46
291.318
438.8
590.896
737.753
866.834
958.903
996.279
964.088
858.344
690.138
479.864
257.778
52.852
-113.316
-224.855
-282.695
-295.987
-275.123
-237.403
-194.044
-154.44
-131.407
-127.538
-141.421
-166.75
-189.652
-204.115
-209.496
-208.154
-206.985
-207.589
-208.278
-207.718
-203.494
-195.422
-185.008
-173.209
-161.18
-150.016
-140.082
-131.598
-124.692
-119.201
-115.074
-112.346
-110.943
-110.736
-111.583
-113.325
-115.839
-119.019
-122.71
-126.71
-130.798
-134.803
-138.622
-142.164
-145.342
-148.042
-150.114
-151.46
-152.043
-151.836
-150.851
-149.107
-146.618
-143.439
-139.657
-135.356
-130.632
-125.555
-120.159
-114.493
-108.615
-102.594
-96.527
-90.478
-84.482
-78.571
-72.768
-67.089
-61.555
-56.161
-50.887
-45.716
-40.635
-35.637
-30.729
-25.908
-21.162
-16.478
-11.834
-7.219
-2.634
1.922
6.449
10.941
15.394
19.794
24.12
28.357
32.492
36.513
40.41
44.173
47.786
51.235
54.505
57.584
60.46
63.12
65.551
67.743
69.686
71.372
72.795
73.948
74.825
75.42
75.728
75.744
75.466
74.894
74.025
72.862
71.409
69.668
67.648
65.354
62.796
59.983
56.925
53.634
50.122
46.403
42.491
38.4
34.148
29.749
25.221
20.581
15.846
11.035
6.165
1.255
-3.676
-8.611
-13.53
-18.417
-23.253
-28.022
-32.706
-37.291
-41.762
-46.105
-50.308
-54.358
-58.247
-61.965
-65.505
-68.86
-72.025
-74.996
-77.77
-80.346
-82.721
-84.897
-86.873
-88.652
-90.235
-91.625
-92.826
-93.842
-94.679
-95.34
-95.832
-96.161
-96.335
-96.36
-96.245
-95.998
-95.627
-95.141
-94.55
-93.862
-93.088
-92.235
-91.314
-90.333
-89.301
-88.225
-87.115
-85.976
-84.816
-83.642
-82.46
-81.275
-80.092
-78.917
-77.754
-76.608
-75.483
-74.384
-73.316
-72.282
-71.288
-70.336
-69.432
-68.579
-67.78
-67.039
-66.359
-65.742
-65.19
-64.704
-64.286
-63.935
-63.651
-63.433
-63.279
-63.185
-63.15
-63.171
-63.244
-63.367
-63.536
-63.75
-64.006
-64.301
-64.633
-64.998
-65.391
-65.807
-66.24
-66.684
-67.13
-67.569
-67.993
-68.392
-68.759
-69.083
-69.356
-69.567
-69.7
-69.746
-69.699
-69.555
-69.313
-68.975
-68.547
-68.038
-67.465
-66.844
-66.188
-65.51
-64.814
-64.106
-63.39
-62.673
-61.964
-61.264
-60.562
-59.845
-59.092
-58.281
-57.39
-56.386
-55.224
-53.869
-52.295
-50.488
-48.451
-46.193
-43.735
-41.102
-38.324
-35.449
-32.539
-29.665
-26.907
-24.346
-22.058
-20.136
-18.684
-17.786
-17.513
-17.92
-19.028
-20.845
-23.347
-26.483
-30.192
-34.388
-38.971
-43.835
-48.85
-53.891
-58.84
-63.556
-67.902
-71.76
-75.021
-77.593
-79.422
-80.494
-80.86
-80.625
-79.906
-78.815
-77.444
-75.914
-74.389
-73.028
-71.981
-71.4
-71.378
-72.072
-73.741
-76.423
-79.994
-84.164
-88.273
-91.71
-94.076
-94.702
-92.844
-88.479
-81.799
-73.335
-64.73
-57.202
-51.447
-49.114
-50.45
-53.046
-55.056
-54.085
-49.257
-44.263
-39.421
-30.177
-7.259
42.186
123.365
232.78
359.846
490
615.068
730.456
829.213
904.274
944.366
935.772
876.008
769.667
623.937
455.68
280.737
112.393
-30.046
-132.585
-191.103
-205.314
-183.793
-142.585
-92.811
-46.316
-16.715
-7.116
-17.498
-42.382
-67.439
-85.343
-93.743
-93.693
-92.131
-91.822
-92.116
-92.162
-89.576
-83.87
-76.342
-67.905
-59.604
-52.238
-45.91
-40.656
-36.443
-33.04
-30.29
-28.099
-26.391
-25.099
-24.178
-23.601
-23.313
-23.262
-23.382
-23.57
-23.728
-23.796
-23.74
-23.534
-23.18
-22.677
-22.008
-21.172
-20.133
-18.826
-17.198
-15.193
-12.777
-9.957
-6.742
-3.148
0.8
5.083
9.687
14.59
19.78
25.256
30.996
36.98
43.166
49.483
55.869
62.27
68.64
74.952
81.181
87.305
93.315
99.205
104.973
110.618
116.135
121.51
126.738
131.817
136.75
141.554
146.236
150.8
155.243
159.563
163.751
167.799
171.695
175.417
178.948
182.27
185.368
188.232
190.848
193.202
195.281
197.071
198.561
199.743
200.609
201.152
201.368
201.253
200.807
200.033
198.932
197.509
195.766
193.709
191.343
188.678
185.722
182.484
178.977
175.211
171.201
166.961
162.508
157.857
153.024
148.029
142.889
137.623
132.251
126.793
121.268
115.696
110.096
104.487
98.889
93.318
87.793
82.33
76.946
71.655
66.473
61.412
56.485
51.704
47.077
42.615
38.325
34.214
30.286
26.546
22.999
19.646
16.489
13.529
10.766
8.2
5.829
3.65
1.66
-0.146
-1.773
-3.225
-4.509
-5.631
-6.598
-7.416
-8.092
-8.635
-9.05
-9.347
-9.532
-9.615
-9.603
-9.506
-9.331
-9.086
-8.778
-8.416
-8.004
-7.551
-7.061
-6.542
-5.999
-5.44
-4.869
-4.294
-3.722
-3.159
-2.612
-2.087
-1.587
-1.119
-0.687
-0.292
0.062
0.372
0.634
0.846
1.002
1.098
1.128
1.088
0.973
0.781
0.512
0.166
-0.257
-0.752
-1.318
-1.955
-2.665
-3.454
-4.325
-5.278
-6.31
-7.412
-8.568
-9.758
-10.961
-12.153
-13.313
-14.427
-15.491
-16.509
-17.487
-18.436
-19.355
-20.232
-21.053
-21.812
-22.507
-23.149
-23.761
-24.374
-25.028
-25.777
-26.666
-27.728
-28.973
-30.383
-31.91
-33.505
-35.145
-36.816
-38.512
-40.209
-41.842
-43.362
-44.736
-45.874
-46.635
-46.866
-46.416
-45.204
-43.269
-40.643
-37.291
-33.367
-29.238
-25.051
-20.789
-16.573
-12.208
-8.328
-6.865
-7.653
-9.129
-8.809
-1.733
11.907
26.819
37.858
37.772
25.776
8.823
-7.671
-17.959
-20.696
-20.935
-21.802
-25.267
-31.962
-39.665
-47.218
-54.565
-61.482
-68.158
-74.6
-80.453
-85.575
-89.977
-93.616
-96.469
-98.566
-99.98
-100.862
-101.403
-101.752
-102.013
-102.278
-102.656
-103.291
-104.313
-105.843
-107.998
-110.828
-114.429
-119.002
-124.552
-130.91
-137.736
-144.314
-149.998
-154.468
-157.202
-157.518
-155.296
-150.666
-144.301
-137.894
-132.531
-128.403
-126.183
-126.635
-129.554
-134.351
-138.183
-135.526
-122.686
-98.26
-63.809
-22.915
22.917
75.436
141.105
225.764
331.324
455.277
586.81
712.897
820.511
896.364
930.263
913.344
841.944
718.879
553.898
365.485
174.83
3.032
-132.407
-221.887
-265.702
-270.659
-245.639
-203.987
-156.136
-112.012
-85.018
-78.816
-91.722
-116.884
-139.944
-154.182
-158.974
-156.886
-154.704
-154.577
-155.234
-155.416
-153.062
-148.022
-141.645
-134.813
-128.42
-123.162
-119.145
-116.38
-114.801
-114.131
-114.163
-114.794
-115.923
-117.464
-119.38
-121.604
-124.048
-126.652
-129.315
-131.928
-134.429
-136.776
-138.954
-140.969
-142.823
-144.521
-146.086
-147.514
-148.777
-149.813
-150.518
-150.826
-150.712
-150.169
-149.213
-147.856
-146.09
-143.912
-141.331
-138.344
-134.955
-131.16
-126.943
-122.317
-117.317
-112.007
-106.474
-100.789
-94.996
-89.131
-83.219
-77.285
-71.356
-65.445
-59.554
-53.69
-47.865
-42.097
-36.41
-30.82
-25.328
-19.932
-14.622
-9.393
-4.253
0.789
5.722
10.532
15.202
19.71
24.026
28.125
31.987
35.596
38.937
41.996
44.757
47.206
49.329
51.117
52.562
53.656
54.394
54.773
54.794
54.457
53.769
52.735
51.362
49.656
47.627
45.284
42.639
39.706
36.497
33.027
29.314
25.375
21.23
16.897
12.396
7.749
2.976
-1.901
-6.862
-11.887
-16.954
-22.044
-27.138
-32.218
-37.265
-42.264
-47.199
-52.055
-56.817
-61.473
-66.011
-70.419
-74.689
-78.809
-82.773
-86.573
-90.203
-93.658
-96.934
-100.027
-102.936
-105.659
-108.197
-110.549
-112.718
-114.706
-116.517
-118.153
-119.619
-120.92
-122.061
-123.047
-123.883
-124.576
-125.132
-125.557
-125.857
-126.038
-126.106
-126.069
-125.931
-125.7
-125.381
-124.981
-124.506
-123.964
-123.361
-122.703
-121.999
-121.254
-120.475
-119.671
-118.846
-118.009
-117.165
-116.32
-115.48
-114.651
-113.839
-113.049
-112.286
-111.554
-110.86
-110.207
-109.6
-109.042
-108.539
-108.093
-107.708
-107.387
-107.134
-106.949
-106.837
-106.798
-106.834
-106.946
-107.133
-107.396
-107.732
-108.139
-108.615
-109.154
-109.752
-110.403
-111.1
-111.838
-112.609
-113.408
-114.226
-115.058
-115.897
-116.737
-117.571
-118.39
-119.186
-119.949
-120.669
-121.335
-121.938
-122.465
-122.906
-123.247
-123.482
-123.602
-123.598
-123.458
-123.17
-122.722
-122.113
-121.341
-120.407
-119.317
-118.077
-116.699
-115.207
-113.62
-111.958
-110.239
-108.467
-106.647
-104.788
-102.9
-100.994
-99.073
-97.127
-95.14
-93.102
-90.997
-88.812
-86.523
-84.085
-81.46
-78.627
-75.571
-72.305
-68.852
-65.228
-61.458
-57.574
-53.621
-49.67
-45.802
-42.078
-38.565
-35.328
-32.438
-29.996
-28.09
-26.775
-26.09
-26.029
-26.564
-27.669
-29.302
-31.393
-33.862
-36.594
-39.454
-42.336
-45.127
-47.709
-49.973
-51.772
-52.979
-53.506
-53.301
-52.377
-50.793
-48.607
-45.885
-42.697
-39.138
-35.366
-31.572
-27.92
-24.57
-21.617
-19.192
-17.583
-16.94
-17.184
-18.014
-18.784
-18.865
-17.942
-15.617
-11.232
-4.523
4.322
14.511
24.335
32.372
37.865
39.991
37.926
31.373
22.118
14.17
11.961
19.795
37.672
61.805
93.046
133.243
187.093
264.926
367.554
491.083
630.749
773.323
907.814
1023.178
1103.813
1135.487
1106.461
1013.089
859.699
661.694
445.362
235.917
60.332
-60.558
-124.976
-138.123
-113.071
-70.6
-22.473
20.786
47.649
57.277
50.493
32.576
16.485
7.469
6.425
11.775
16.846
19.961
22.619
25.819
31.844
40.908
51.476
62.596
73.208
82.297
89.574
94.916
98.244
99.818
99.898
98.671
96.42
93.477
90.11
86.563
83.087
79.876
77.122
75.016
73.655
73.07
73.274
74.268
76.063
78.661
82.01
86.005
90.522
95.427
100.588
105.889
111.175
116.277
121.064
125.451
129.415
132.993
136.208
139.065
141.565
143.713
145.535
147.082
148.395
149.506
150.457
151.288
152.067
152.883
153.789
154.807
155.929
157.113
158.334
159.586
160.857
162.137
163.415
164.676
165.92
167.158
168.393
169.615
170.807
171.936
172.985
173.95
174.837
175.661
176.431
177.149
177.818
178.442
179.019
179.543
179.996
180.355
180.599
180.712
180.682
180.499
180.155
179.639
178.936
178.034
176.915
175.562
173.959
172.093
169.956
167.544
164.862
161.921
158.743
155.35
151.758
147.978
144.014
139.86
135.516
130.977
126.239
121.308
116.192
110.891
105.42
99.784
93.977
87.99
81.794
75.35
68.645
61.683
54.479
47.075
39.519
31.867
24.197
16.57
9.039
1.658
-5.538
-12.512
-19.208
-25.565
-31.509
-36.944
-41.812
-46.072
-49.696
-52.695
-55.093
-56.934
-58.297
-59.248
-59.836
-60.111
-60.1
-59.83
-59.346
-58.696
-57.934
-57.134
-56.354
-55.636
-55.021
-54.522
-54.138
-53.853
-53.62
-53.402
-53.18
-52.938
-52.677
-52.403
-52.114
-51.81
-51.495
-51.157
-50.792
-50.396
-49.96
-49.49
-48.999
-48.505
-48.038
-47.628
-47.293
-47.047
-46.897
-46.845
-46.893
-47.04
-47.276
-47.599
-48.005
-48.492
-49.06
-49.705
-50.423
-51.206
-52.043
-52.924
-53.84
-54.782
-55.74
-56.707
-57.674
-58.634
-59.583
-60.516
-61.426
-62.309
-63.156
-63.963
-64.725
-65.436
-66.092
-66.686
-67.213
-67.665
-68.039
-68.328
-68.526
-68.628
-68.627
-68.517
-68.297
-67.964
-67.513
-66.941
-66.239
-65.402
-64.432
-63.333
-62.109
-60.771
-59.327
-57.792
-56.193
-54.551
-52.887
-51.222
-49.562
-47.914
-46.289
-44.695
-43.146
-41.648
-40.19
-38.757
-37.338
-35.919
-34.486
-33.018
-31.47
-29.808
-28.007
-26.054
-23.962
-21.752
-19.443
-17.057
-14.627
-12.196
-9.836
-7.63
-5.647
-3.954
-2.619
-1.708
-1.324
-1.55
-2.44
-4.025
-6.287
-9.192
-12.704
-16.777
-21.342
-26.314
-31.573
-36.977
-42.412
-47.761
-52.912
-57.76
-62.169
-66.026
-69.262
-71.857
-73.872
-75.396
-76.523
-77.342
-77.938
-78.426
-78.978
-79.79
-81.031
-82.863
-85.363
-88.652
-92.996
-98.461
-104.903
-111.954
-118.86
-124.934
-129.802
-132.874
-133.366
-131.097
-126.239
-119.539
-112.74
-106.974
-102.763
-101.313
-103.67
-109.602
-117.218
-122.551
-120.781
-109.122
-88.61
-60.748
-23.904
24.837
91.322
181.014
290.945
415.374
548.122
679.402
801.961
907.615
979.811
1000.86
956.227
838.631
657.834
439.049
215.046
18.054
-128.099
-214.176
-245.136
-232.977
-195.316
-148.884
-105.916
-77.85
-68.118
-74.695
-92.196
-109.01
-119.278
-122.532
-120.395
-119.322
-121.599
-125.182
-128.451
-128.737
-125.159
-119.019
-111.289
-102.858
-94.673
-87.412
-81.494
-77.169
-74.391
-72.892
-72.509
-73.167
-74.752
-77.099
-80.048
-83.431
-87.091
-90.926
-94.802
-98.537
-101.98
-104.994
-107.456
-109.307
-110.528
-111.104
-111.038
-110.337
-108.979
-106.969
-104.337
-101.117
-97.369
-93.159
-88.541
-83.597
-78.412
-73.067
-67.647
-62.207
-56.771
-51.36
-45.989
-40.67
-35.432
-30.289
-25.241
-20.294
-15.446
-10.696
-6.05
-1.499
2.978
7.4
11.79
16.162
20.517
24.856
29.178
33.479
37.756
42.003
46.206
50.357
54.448
58.472
62.425
66.298
70.079
73.754
77.309
80.732
84.011
87.134
90.087
92.861
95.444
97.827
100.003
101.962
103.695
105.192
106.444
107.442
108.179
108.647
108.84
108.753
108.38
107.719
106.77
105.536
104.018
102.219
100.144
97.793
95.177
92.309
89.187
85.814
82.195
78.332
74.248
69.973
65.511
60.863
56.081
51.206
46.278
41.345
36.402
31.416
26.435
21.531
16.587
11.465
6.278
1.035
-4.276
-9.297
-14.932
-22.062
-29.394
-36.525
-41.092
-40.268
-37.159
-33.834
-33.375
-40.024
-50.017
-60.164
-68.279
-70.753
-70.165
-69.126
-68.22
-69.043
-70.673
-71.925
-73.031
-73.846
-74.457
-75.11
-75.658
-75.982
-76.132
-76.129
-75.965
-75.656
-75.221
-74.675
-74.051
-73.389
-72.686
-71.944
-71.177
-70.394
-69.606
-68.825
-68.056
-67.307
-66.587
-65.905
-65.27
-64.688
-64.165
-63.706
-63.315
-62.997
-62.754
-62.59
-62.506
-62.504
-62.585
-62.75
-62.998
-63.331
-63.748
-64.246
-64.824
-65.48
-66.211
-67.014
-67.884
-68.815
-69.803
-70.841
-71.924
-73.046
-74.2
-75.38
-76.579
-77.792
-79.013
-80.235
-81.451
-82.652
-83.831
-84.981
-86.093
-87.156
-88.162
-89.1
-89.961
-90.738
-91.419
-91.995
-92.452
-92.776
-92.957
-92.988
-92.866
-92.588
-92.158
-91.581
-90.869
-90.043
-89.117
-88.106
-87.021
-85.867
-84.657
-83.399
-82.101
-80.773
-79.418
-78.025
-76.582
-75.072
-73.462
-71.723
-69.813
-67.676
-65.276
-62.586
-59.586
-56.275
-52.651
-48.721
-44.514
-40.063
-35.416
-30.644
-25.826
-21.051
-16.436
-12.089
-8.123
-4.669
-1.834
0.293
1.635
2.143
1.778
0.52
-1.616
-4.585
-8.317
-12.707
-17.639
-22.981
-28.575
-34.27
-39.915
-45.346
-50.414
-54.987
-58.956
-62.236
-64.757
-66.471
-67.381
-67.565
-67.147
-66.285
-65.134
-63.817
-62.5
-61.372
-60.61
-60.393
-60.88
-62.132
-64.264
-67.504
-71.87
-77.215
-83.249
-89.31
-94.796
-99.372
-102.394
-103.029
-101.102
-96.76
-90.495
-83.641
-77.161
-71.464
-67.816
-67.803
-70.256
-72.143
-70.671
-61.5
-45.49
-29.236
-12.764
6.44
35.382
90.136
177.099
294.671
437.572
589.344
735.25
861.647
953.239
998.507
986.074
912.016
779.379
599.372
396.156
195.142
22.834
-100.135
-170.49
-194.502
-186.833
-164.35
-136.073
-108.242
-85.758
-71.652
-69.439
-78.451
-92.246
-104.973
-113.188
-116.784
-119.873
-124.756
-130.525
-135.617
-137.762
-136.122
-131.698
-125.528
-118.52
-111.523
-105.144
-99.732
-95.473
-92.277
-89.863
-88.05
-86.718
-85.749
-85.008
-84.375
-83.78
-83.191
-82.619
-82.058
-81.449
-80.724
-79.847
-78.81
-77.632
-76.347
-74.972
-73.519
-72.014
-70.465
-68.869
-67.213
-65.444
-63.517
-61.403
-59.058
-56.471
-53.642
-50.558
-47.21
-43.591
-39.685
-35.489
-31.014
-26.257
-21.232
-15.967
-10.5
-4.898
0.778
6.48
12.159
17.784
23.337
28.8
34.157
39.401
44.512
49.481
54.303
58.964
63.451
67.757
71.882
75.846
79.677
83.394
87.009
90.518
93.904
97.152
100.249
103.19
105.976
108.599
111.054
113.343
115.482
117.494
119.38
121.117
122.653
123.941
124.952
125.675
126.108
126.248
126.08
125.585
124.751
123.573
122.044
120.148
117.845
115.093
111.876
108.223
104.195
99.852
95.234
90.371
85.286
80.014
74.595
69.068
63.456
57.779
52.063
46.35
40.7
35.179
29.824
24.643
19.616
14.731
9.986
5.387
0.936
-3.37
-7.539
-11.566
-15.435
-19.128
-22.639
-25.971
-29.141
-32.167
-35.053
-37.795
-40.377
-42.792
-45.037
-47.11
-49.01
-50.731
-52.273
-53.642
-54.853
-55.921
-56.858
-57.67
-58.361
-58.936
-59.405
-59.776
-60.06
-60.265
-60.399
-60.472
-60.492
-60.469
-60.412
-60.326
-60.214
-60.079
-59.924
-59.754
-59.571
-59.378
-59.175
-58.965
-58.75
-58.531
-58.309
-58.084
-57.855
-57.62
-57.379
-57.13
-56.871
-56.6
-56.316
-56.016
-55.698
-55.361
-55.002
-54.62
-54.212
-53.776
-53.31
-52.813
-52.282
-51.715
-51.111
-50.468
-49.785
-49.059
-48.291
-47.477
-46.618
-45.713
-44.761
-43.762
-42.714
-41.617
-40.471
-39.275
-38.029
-36.732
-35.385
-33.987
-32.538
-31.038
-29.486
-27.882
-26.227
-24.52
-22.761
-20.95
-19.089
-17.179
-15.22
-13.214
-11.164
-9.072
-6.941
-4.776
-2.581
-0.359
1.882
4.138
6.402
8.667
10.925
13.169
15.389
17.574
19.714
21.796
23.806
25.732
27.558
29.27
30.855
32.298
33.588
34.712
35.659
36.414
36.968
37.304
37.412
37.28
36.901
36.269
35.38
34.234
32.832
31.176
29.263
27.089
24.654
21.95
18.977
15.739
12.244
8.518
4.596
0.515
-3.682
-7.951
-12.255
-16.55
-20.79
-24.933
-28.918
-32.684
-36.174
-39.322
-42.073
-44.387
-46.246
-47.685
-48.778
-49.611
-50.271
-50.824
-51.342
-51.945
-52.766
-53.95
-55.652
-57.951
-60.967
-64.948
-69.976
-75.958
-82.59
-89.154
-94.946
-99.571
-102.538
-103.194
-101.335
-97.11
-91.243
-85.558
-81.613
-80.064
-81.656
-87.111
-96.264
-108.204
-119.992
-126.023
-121.481
-103.703
-73.041
-31.562
20.048
82.766
161.416
259.599
376.36
508.638
647.62
781.712
899.178
986.545
1028.854
1012.973
933.341
790.055
596.226
379.395
166.505
-12.988
-136.127
-201.929
-216.232
-191.784
-150.006
-101.922
-57.327
-30.605
-25.173
-42.629
-80.791
-122.89
-156.593
-175.571
-175.191
-163.725
-150.813
-140.383
-136.817
-138.19
-138.944
-137.528
-132.759
-125.025
-117.334
-110.825
-105.531
-101.618
-98.519
-95.938
-94.071
-92.84
-92.033
-91.536
-91.208
-90.912
-90.59
-90.147
-89.479
-88.562
-87.377
-85.932
-84.257
-82.373
-80.331
-78.198
-76.03
-73.893
-71.837
-69.891
-68.094
-66.482
-65.057
-63.809
-62.689
-61.604
-60.493
-59.305
-57.982
-56.49
-54.783
-52.807
-50.534
-47.949
-45.035
-41.789
-38.208
-34.283
-30.032
-25.492
-20.716
-15.785
-10.761
-5.683
-0.591
4.49
9.536
14.52
19.432
24.274
29.042
33.731
38.331
42.825
47.207
51.479
55.645
59.719
63.703
67.591
71.376
75.043
78.578
81.963
85.174
88.18
90.957
93.482
95.736
97.704
99.371
100.717
101.729
102.391
102.692
102.622
102.175
101.343
100.125
98.52
96.531
94.166
91.432
88.338
84.895
81.113
77.009
72.596
67.894
62.919
57.693
52.238
46.577
40.735
34.74
28.616
22.391
16.093
9.748
3.385
-2.971
-9.292
-15.553
-21.73
-27.797
-33.733
-39.515
-45.124
-50.541
-55.749
-60.732
-65.476
-69.97
-74.204
-78.169
-81.858
-85.267
-88.393
-91.234
-93.791
-96.067
-98.063
-99.786
-101.242
-102.438
-103.383
-104.088
-104.563
-104.82
-104.872
-104.731
-104.411
-103.926
-103.291
-102.52
-101.627
-100.627
-99.534
-98.363
-97.127
-95.84
-94.515
-93.163
-91.797
-90.428
-89.067
-87.722
-86.403
-85.119
-83.877
-82.682
-81.542
-80.461
-79.444
-78.493
-77.613
-76.805
-76.071
-75.414
-74.832
-74.328
-73.901
-73.55
-73.275
-73.073
-72.943
-72.882
-72.889
-72.958
-73.088
-73.275
-73.514
-73.802
-74.134
-74.504
-74.909
-75.342
-75.799
-76.272
-76.757
-77.247
-77.736
-78.218
-78.685
-79.132
-79.553
-79.94
-80.286
-80.586
-80.832
-81.017
-81.134
-81.177
-81.138
-81.011
-80.789
-80.465
-80.036
-79.494
-78.835
-78.054
-77.147
-76.112
-74.944
-73.644
-72.209
-70.639
-68.936
-67.102
-65.14
-63.055
-60.852
-58.539
-56.124
-53.618
-51.032
-48.379
-45.674
-42.931
-40.165
-37.394
-34.632
-31.896
-29.201
-26.564
-24.003
-21.534
-19.177
-16.95
-14.872
-12.96
-11.229
-9.695
-8.367
-7.252
-6.359
-5.696
-5.278
-5.117
-5.222
-5.604
-6.267
-7.209
-8.425
-9.89
-11.571
-13.429
-15.424
-17.517
-19.678
-21.871
-24.059
-26.199
-28.237
-30.117
-31.787
-33.199
-34.309
-35.09
-35.537
-35.695
-35.647
-35.487
-35.307
-35.172
-35.155
-35.356
-35.891
-36.891
-38.474
-40.717
-43.727
-47.667
-52.599
-58.421
-64.817
-71.192
-76.958
-81.714
-85.024
-86.316
-85.242
-81.883
-76.862
-71.452
-66.821
-63.396
-61.55
-62.009
-65.1
-70.406
-75.498
-75.826
-67.479
-47.744
-17.596
19.369
62.396
110.834
168.537
244.463
341.818
461.885
600.588
742.455
871.142
970.109
1021.793
1015.82
949.91
827.704
662.848
476.576
290.59
125.294
-4.981
-93.962
-143.638
-160.235
-149.427
-120.668
-81.716
-41.786
-15.756
-10.07
-25.299
-55.14
-84.14
-103.653
-111.438
-109.854
-106.735
-105.306
-105.018
-104.704
-101.767
-95.709
-87.794
-78.882
-69.999
-61.967
-54.923
-48.954
-44.062
-40.006
-36.619
-33.81
-31.47
-29.474
-27.719
-26.129
-24.664
-23.335
-22.144
-21.047
-19.983
-18.901
-17.789
-16.667
-15.58
-14.564
-13.645
-12.856
-12.219
-11.754
-11.481
-11.386
-11.437
-11.597
-11.806
-12.017
-12.202
-12.316
-12.306
-12.109
-11.643
-10.849
-9.685
-8.112
-6.11
-3.661
-0.74
2.655
6.521
10.856
15.623
20.789
26.328
32.192
38.326
44.666
51.118
57.612
64.1
70.536
76.888
83.129
89.21
95.098
100.758
106.14
111.223
115.983
120.393
124.449
128.155
131.526
134.602
137.415
139.969
142.273
144.323
146.109
147.635
148.901
149.899
150.637
151.118
151.341
151.315
151.035
150.491
149.667
148.537
147.079
145.285
143.146
140.664
137.844
134.691
131.213
127.428
123.349
118.987
114.356
109.465
104.329
98.968
93.4
87.651
81.742
75.698
69.541
63.293
56.975
50.606
44.206
37.791
31.378
24.985
18.631
12.333
6.111
-0.018
-6.038
-11.932
-17.683
-23.277
-28.702
-33.945
-38.997
-43.848
-48.488
-52.912
-57.112
-61.084
-64.821
-68.321
-71.582
-74.601
-77.378
-79.914
-82.21
-84.269
-86.094
-87.689
-89.06
-90.211
-91.15
-91.881
-92.413
-92.753
-92.911
-92.894
-92.713
-92.378
-91.901
-91.293
-90.567
-89.737
-88.812
-87.807
-86.733
-85.6
-84.419
-83.199
-81.948
-80.677
-79.394
-78.11
-76.837
-75.586
-74.367
-73.192
-72.072
-71.015
-70.029
-69.12
-68.289
-67.54
-66.876
-66.303
-65.828
-65.455
-65.185
-65.017
-64.948
-64.968
-65.066
-65.22
-65.405
-65.603
-65.801
-65.99
-66.176
-66.357
-66.535
-66.716
-66.894
-67.067
-67.238
-67.406
-67.57
-67.744
-67.944
-68.202
-68.564
-69.054
-69.683
-70.455
-71.348
-72.342
-73.415
-74.527
-75.644
-76.737
-77.766
-78.699
-79.506
-80.136
-80.531
-80.624
-80.331
-79.593
-78.381
-76.671
-74.464
-71.772
-68.604
-64.997
-61.001
-56.664
-52.04
-47.19
-42.174
-37.078
-32.012
-27.077
-22.386
-18.033
-14.085
-10.608
-7.657
-5.279
-3.519
-2.406
-1.94
-2.125
-2.961
-4.426
-6.5
-9.129
-12.227
-15.729
-19.566
-23.673
-27.993
-32.452
-36.96
-41.44
-45.812
-49.999
-53.941
-57.576
-60.84
-63.686
-66.076
-68
-69.473
-70.493
-71.071
-71.22
-70.987
-70.503
-69.915
-69.363
-68.984
-68.871
-69.112
-69.842
-71.181
-73.186
-75.915
-79.355
-83.543
-88.656
-94.746
-101.693
-109.14
-116.517
-123.302
-128.86
-132.448
-133.388
-131.033
-126
-119.707
-112.553
-105.513
-97.766
-87.506
-76.878
-66.722
-58.867
-57.259
-60.073
-65.49
-70.394
-64.902
-40.628
10.272
94.79
210.611
351.012
506.32
662.589
807.089
925.337
1002.104
1024.416
982.232
875.35
713.454
514.938
306.12
112.425
-44.867
-152.113
-207.743
-217.876
-197.207
-163.557
-131.465
-114.195
-114.647
-128.171
-148.139
-163.072
-167.887
-164.61
-156.918
-151.446
-151.074
-153.632
-156.141
-155.662
-151.142
-143.44
-133.645
-122.638
-111.033
-99.465
-88.709
-79.262
-71.328
-64.916
-59.897
-56.233
-53.914
-52.82
-52.75
-53.51
-54.93
-56.87
-59.214
-61.808
-64.476
-67.087
-69.544
-71.773
-73.727
-75.333
-76.493
-77.123
-77.149
-76.524
-75.242
-73.31
-70.752
-67.611
-63.944
-59.812
-55.284
-50.41
-45.224
-39.754
-34.019
-28.058
-21.926
-15.683
-9.396
-3.117
3.122
9.294
15.384
21.385
27.299
33.135
38.907
44.624
50.284
55.886
61.422
66.893
72.307
77.674
83.01
88.325
93.622
98.9
104.154
109.375
114.552
119.665
124.692
129.613
134.41
139.066
143.567
147.896
152.034
155.963
159.664
163.117
166.305
169.212
171.823
174.122
176.099
177.741
179.042
179.996
180.594
180.834
180.709
180.219
179.363
178.142
176.558
174.615
172.321
169.683
166.711
163.417
159.815
155.918
151.745
147.312
142.639
137.747
132.657
127.392
121.975
116.431
110.782
105.056
99.276
93.468
87.658
81.871
76.13
70.461
64.887
59.429
54.11
48.949
43.965
39.175
34.596
30.243
26.128
22.263
18.659
15.324
12.266
9.489
6.998
4.794
2.878
1.248
-0.097
-1.163
-1.954
-2.479
-2.745
-2.761
-2.539
-2.089
-1.424
-0.558
0.496
1.722
3.106
4.632
6.284
8.047
9.904
11.84
13.84
15.887
17.968
20.067
22.171
24.265
26.337
28.375
30.365
32.297
34.161
35.949
37.651
39.261
40.774
42.184
43.488
44.683
45.768
46.743
47.608
48.364
49.015
49.563
50.015
50.374
50.647
50.842
50.966
51.027
51.034
50.997
50.924
50.827
50.717
50.603
50.499
50.416
50.366
50.362
50.417
50.543
50.752
51.054
51.461
51.98
52.62
53.389
54.291
55.334
56.521
57.857
59.347
60.992
62.791
64.744
66.848
69.101
71.498
74.029
76.687
79.463
82.35
85.345
88.435
91.603
94.829
98.088
101.355
104.602
107.796
110.896
113.864
116.667
119.279
121.679
123.841
125.732
127.315
128.55
129.412
129.895
129.993
129.704
129.034
127.998
126.632
124.998
123.138
121.08
118.842
116.432
113.889
111.266
108.617
105.998
103.443
100.961
98.569
96.284
94.093
91.977
89.867
87.647
85.248
82.613
79.687
76.412
72.655
68.254
63.054
56.919
49.757
41.485
31.983
21.125
8.84
-4.909
-20.031
-36.425
-54.147
-73.099
-93.011
-113.438
-133.588
-152.735
-170.451
-186.117
-198.918
-208.558
-215.059
-218.974
-221.728
-224.171
-226.654
-230.226
-235.906
-243.717
-251.973
-256.905
-254.301
-242.082
-222.343
-198.101
-168.462
-129.893
-74.976
3.793
105.141
222.942
348.564
470.594
580.303
669.703
728.166
743.319
705.283
610.854
463.058
277.287
77.844
-111.771
-265.849
-367.999
-418.647
-425.593
-404.087
-369.821
-330.297
-290.615
-256.748
-233.698
-225.377
-231.104
-243.432
-254.646
-260.154
-259.622
-256.992
-254.767
-253.187
-251.404
-247.45
-240.932
-232.885
-224.225
-216.092
-209.391
-204.301
-200.899
-199.14
-198.674
-199.228
-200.602
-202.546
-204.835
-207.288
-209.715
-211.947
-213.875
-215.383
-216.363
-216.748
-216.485
-215.561
-213.993
-211.818
-209.085
-205.85
-202.171
-198.102
-193.696
-189.008
-184.101
-179.04
-173.886
-168.7
-163.522
-158.381
-153.298
-148.279
-143.321
-138.415
-133.543
-128.685
-123.83
-118.967
-114.089
-109.19
-104.261
-99.296
-94.289
-89.234
-84.129
-78.97
-73.76
-68.499
-63.196
-57.855
-52.487
-47.102
-41.71
-36.323
-30.952
-25.61
-20.305
-15.049
-9.854
-4.733
0.3
5.232
10.051
14.742
19.286
23.663
27.848
31.825
35.583
39.116
42.418
45.479
48.291
50.85
53.158
55.212
56.999
58.498
59.683
60.544
61.077
61.291
61.198
60.797
60.078
59.029
57.647
55.933
53.881
51.475
48.692
45.53
42.017
38.208
34.162
29.917
25.501
20.931
16.229
11.433
6.584
1.721
-3.126
-7.926
-12.634
-17.185
-21.506
-25.556
-29.333
-32.868
-36.191
-39.312
-42.23
-44.938
-47.441
-49.75
-51.874
-53.81
-55.549
-57.091
-58.454
-59.674
-60.793
-61.83
-62.77
-63.581
-64.233
-64.713
-65.014
-65.132
-65.055
-64.771
-64.282
-63.603
-62.752
-61.738
-60.561
-59.212
-57.679
-55.967
-54.089
-52.072
-49.936
-47.696
-45.368
-42.968
-40.516
-38.03
-35.52
-32.987
-30.433
-27.866
-25.296
-22.736
-20.199
-17.692
-15.223
-12.797
-10.422
-8.105
-5.849
-3.658
-1.533
0.523
2.507
4.414
6.242
7.991
9.661
11.254
12.771
14.213
15.583
16.886
18.125
19.303
20.421
21.484
22.496
23.464
24.394
25.293
26.17
27.033
27.893
28.761
29.648
30.559
31.505
32.492
33.533
34.645
35.836
37.113
38.48
39.938
41.487
43.126
44.845
46.623
48.444
50.288
52.147
54.024
55.916
57.819
59.73
61.639
63.55
65.481
67.445
69.448
71.5
73.611
75.807
78.135
80.631
83.317
86.198
89.249
92.444
95.762
99.163
102.607
106.033
109.352
112.496
115.412
118.036
120.311
122.161
123.48
124.186
124.225
123.565
122.22
120.224
117.613
114.45
110.816
106.802
102.537
98.125
93.65
89.21
84.898
80.811
77.069
73.771
70.975
68.722
66.989
65.681
64.708
63.952
63.284
62.622
61.826
60.74
59.245
57.181
54.403
50.844
46.364
40.775
34.125
26.602
18.599
10.885
4.084
-1.353
-4.784
-5.709
-4.15
-0.439
4.543
9.343
13.01
14.91
14.138
10.415
4.535
-1.891
-6.321
-5.733
2.436
20.611
51.598
97.762
158.807
231.313
311.23
394.029
477.3
563.384
652.13
738.055
812.39
859.177
861.889
814.716
719.078
583.549
425.082
258.599
98.194
-38.058
-136.795
-192.346
-207.439
-196.757
-177.831
-161.318
-150.937
-143.941
-136.075
-127.166
-119.213
-114.972
-116.714
-123.677
-134.043
-145.736
-155.982
-163.465
-167.946
-169.395
-168.562
-166.338
-163.32
-160.333
-158.292
-157.603
-158.419
-160.705
-164.113
-168.369
-173.272
-178.535
-183.905
-189.188
-194.198
-198.803
-202.915
-206.41
-209.193
-211.203
-212.398
-212.78
-212.375
-211.217
-209.36
-206.867
-203.801
-200.227
-196.201
-191.779
-187.026
-182.01
-176.799
-171.464
-166.054
-160.607
-155.153
-149.709
-144.279
-138.868
-133.468
-128.067
-122.662
-117.25
-111.831
-106.407
-100.978
-95.539
-90.089
-84.624
-79.143
-73.647
-68.138
-62.619
-57.096
-51.576
-46.07
-40.589
-35.143
-29.739
-24.387
-19.093
-13.865
-8.712
-3.639
1.345
6.235
11.019
15.687
20.225
24.62
28.859
32.93
36.817
40.507
43.984
47.238
50.26
53.04
55.566
57.823
59.794
61.467
62.835
63.893
64.638
65.07
65.194
65.024
64.583
63.894
62.974
61.825
60.445
58.832
56.988
54.916
52.62
50.092
47.322
44.305
41.043
37.534
33.769
29.717
25.332
20.576
15.439
9.932
4.085
-2.07
-8.494
-15.139
-21.938
-28.807
-35.663
-42.443
-49.095
-55.569
-61.799
-67.694
-73.144
-78.062
-82.392
-86.101
-89.179
-91.621
-93.437
-94.663
-95.364
-95.63
-95.538
-95.139
-94.474
-93.581
-92.512
-91.341
-90.151
-89.007
-87.953
-87.021
-86.236
-85.619
-85.178
-84.896
-84.733
-84.633
-84.558
-84.491
-84.426
-84.358
-84.278
-84.17
-84.019
-83.821
-83.58
-83.296
-82.971
-82.607
-82.211
-81.804
-81.417
-81.085
-80.832
-80.67
-80.609
-80.653
-80.805
-81.069
-81.442
-81.914
-82.477
-83.126
-83.854
-84.659
-85.532
-86.461
-87.432
-88.43
-89.442
-90.455
-91.457
-92.436
-93.379
-94.275
-95.115
-95.89
-96.591
-97.206
-97.725
-98.136
-98.428
-98.591
-98.614
-98.49
-98.209
-97.766
-97.155
-96.373
-95.418
-94.29
-92.988
-91.515
-89.873
-88.069
-86.107
-83.995
-81.741
-79.355
-76.847
-74.231
-71.52
-68.729
-65.877
-62.98
-60.059
-57.133
-54.225
-51.354
-48.542
-45.81
-43.178
-40.666
-38.294
-36.083
-34.053
-32.226
-30.622
-29.256
-28.146
-27.302
-26.734
-26.446
-26.442
-26.723
-27.298
-28.171
-29.348
-30.834
-32.632
-34.739
-37.145
-39.826
-42.745
-45.864
-49.138
-52.525
-55.988
-59.48
-62.957
-66.373
-69.667
-72.778
-75.649
-78.211
-80.409
-82.2
-83.563
-84.532
-85.183
-85.596
-85.856
-86.021
-86.155
-86.378
-86.829
-87.642
-88.955
-90.834
-93.396
-96.899
-101.447
-106.938
-113.039
-119.048
-124.303
-128.441
-130.963
-131.161
-128.748
-123.858
-117.294
-110.794
-105.718
-102.781
-102.883
-106.878
-114.881
-125.146
-133.785
-136.129
-128.754
-112.064
-88.115
-55.668
-10.814
53.196
142.801
256.484
387.341
526.059
662.541
789.237
897.546
976.579
1012.908
994.164
917.187
786.325
613.986
419.907
222.983
42.388
-102.446
-199.186
-243.751
-239.374
-199.649
-143.287
-86.333
-44.302
-26.246
-30.434
-51.016
-76.388
-94.861
-103.28
-102.444
-96.822
-92.001
-88.572
-85.327
-80.934
-73.698
-63.938
-52.963
-41.621
-30.895
-21.536
-13.712
-7.515
-2.967
0.093
1.782
2.17
1.404
-0.323
-2.851
-6.018
-9.659
-13.632
-17.762
-21.858
-25.786
-29.438
-32.726
-35.569
-37.863
-39.51
-40.46
-40.704
-40.252
-39.128
-37.36
-34.985
-32.068
-28.693
-24.943
-20.892
-16.589
-12.077
-7.401
-2.618
2.2
6.993
11.724
16.375
20.931
25.384
29.722
33.944
38.069
42.118
46.108
50.05
53.946
57.798
61.617
65.414
69.209
73.011
76.822
80.642
84.466
88.292
92.114
95.921
99.699
103.43
107.101
110.699
114.211
117.622
120.916
124.073
127.075
129.902
132.537
134.965
137.173
139.147
140.873
142.336
143.519
144.408
144.995
145.273
145.234
144.876
144.201
143.219
141.952
140.421
138.641
136.619
134.352
131.844
129.094
126.109
122.892
119.436
115.731
111.775
107.568
103.111
98.4
93.409
88.098
82.436
76.407
70.02
63.304
56.287
49.005
41.507
33.853
26.129
18.422
10.805
3.335
-3.929
-10.925
-17.567
-23.749
-29.388
-34.416
-38.79
-42.498
-45.526
-47.873
-49.565
-50.654
-51.214
-51.338
-51.093
-50.528
-49.697
-48.649
-47.45
-46.187
-44.922
-43.71
-42.593
-41.596
-40.742
-40.056
-39.534
-39.153
-38.881
-38.655
-38.437
-38.21
-37.949
-37.645
-37.285
-36.84
-36.301
-35.667
-34.933
-34.103
-33.18
-32.156
-31.04
-29.849
-28.6
-27.336
-26.088
-24.872
-23.709
-22.607
-21.575
-20.623
-19.759
-18.975
-18.274
-17.652
-17.109
-16.653
-16.286
-16.009
-15.823
-15.717
-15.68
-15.708
-15.793
-15.928
-16.111
-16.331
-16.583
-16.863
-17.171
-17.5
-17.848
-18.205
-18.563
-18.916
-19.258
-19.582
-19.885
-20.16
-20.4
-20.599
-20.751
-20.85
-20.89
-20.863
-20.759
-20.571
-20.295
-19.926
-19.458
-18.884
-18.195
-17.387
-16.462
-15.422
-14.274
-13.03
-11.702
-10.308
-8.875
-7.427
-5.99
-4.587
-3.228
-1.923
-0.685
0.474
1.539
2.5
3.368
4.154
4.868
5.524
6.134
6.718
7.319
7.97
8.697
9.518
10.426
11.402
12.429
13.488
14.553
15.588
16.525
17.291
17.83
18.093
18.043
17.64
16.82
15.53
13.735
11.417
8.591
5.288
1.543
-2.603
-7.091
-11.837
-16.726
-21.633
-26.465
-31.151
-35.646
-39.922
-43.952
-47.724
-51.247
-54.535
-57.58
-60.408
-63.079
-65.647
-68.194
-70.832
-73.619
-76.688
-80.294
-84.441
-88.93
-93.433
-97.27
-99.831
-100.836
-99.728
-95.755
-88.919
-79.65
-68.801
-58.209
-49.329
-42.865
-40.106
-42.547
-49.109
-56.774
-62.407
-61.045
-51.21
-36.882
-18.086
7.42
43.139
100.451
187.196
303.292
447.373
607.797
766.476
907.026
1010.46
1062.426
1055.551
986.243
859.198
684.518
478.422
265.965
71.256
-84.495
-185.651
-233.809
-237.404
-206.084
-157.078
-101.168
-48.453
-14.973
-5.171
-18.552
-48.7
-78.603
-99.298
-108.449
-107.793
-105.534
-105.072
-105.718
-106.449
-104.603
-99.698
-93.249
-86.31
-80.018
-75.185
-71.859
-70.03
-69.632
-70.381
-72.055
-74.491
-77.517
-80.953
-84.639
-88.426
-92.143
-95.658
-98.827
-101.488
-103.522
-104.859
-105.463
-105.34
-104.517
-103.024
-100.909
-98.235
-95.064
-91.455
-87.473
-83.177
-78.637
-73.927
-69.121
-64.287
-59.478
-54.725
-50.045
-45.443
-40.917
-36.461
-32.061
-27.697
-23.348
-18.999
-14.638
-10.266
-5.883
-1.485
2.932
7.371
11.829
16.294
20.76
25.23
29.712
34.218
38.748
43.291
47.828
52.342
56.826
61.285
65.726
70.149
74.551
78.933
83.311
87.705
92.116
96.514
100.842
105.044
109.081
112.93
116.575
120
123.173
126.058
128.623
130.848
132.709
134.171
135.179
135.672
135.62
135.035
133.962
132.446
130.513
128.178
125.451
122.354
118.918
115.169
111.123
106.791
102.194
97.368
92.372
87.27
82.099
76.869
71.566
66.181
60.721
55.199
49.628
44.013
38.359
32.684
27.017
21.39
15.823
10.329
4.907
-0.444
-5.714
-10.881
-15.916
-20.793
-25.495
-30.005
-34.307
-38.382
-42.215
-45.802
-49.146
-52.251
-55.12
-57.751
-60.142
-62.291
-64.203
-65.883
-67.339
-68.577
-69.604
-70.431
-71.067
-71.524
-71.814
-71.947
-71.93
-71.773
-71.485
-71.077
-70.56
-69.945
-69.242
-68.462
-67.618
-66.72
-65.779
-64.806
-63.809
-62.797
-61.778
-60.761
-59.752
-58.758
-57.784
-56.836
-55.918
-55.036
-54.192
-53.391
-52.636
-51.928
-51.27
-50.663
-50.109
-49.608
-49.16
-48.762
-48.412
-48.11
-47.852
-47.636
-47.459
-47.317
-47.209
-47.131
-47.081
-47.053
-47.043
-47.045
-47.053
-47.062
-47.065
-47.054
-47.024
-46.965
-46.871
-46.739
-46.56
-46.327
-46.032
-45.662
-45.211
-44.676
-44.058
-43.356
-42.578
-41.73
-40.828
-39.892
-38.939
-37.985
-37.041
-36.115
-35.221
-34.37
-33.575
-32.847
-32.191
-31.599
-31.062
-30.567
-30.084
-29.587
-29.036
-28.382
-27.596
-26.658
-25.556
-24.29
-22.853
-21.246
-19.487
-17.594
-15.603
-13.564
-11.531
-9.572
-7.782
-6.251
-5.071
-4.338
-4.107
-4.41
-5.273
-6.698
-8.687
-11.23
-14.288
-17.81
-21.736
-25.99
-30.484
-35.112
-39.733
-44.219
-48.457
-52.349
-55.86
-58.995
-61.774
-64.24
-66.434
-68.382
-70.141
-71.808
-73.48
-75.26
-77.264
-79.563
-82.305
-85.745
-89.958
-94.815
-99.975
-104.781
-108.641
-111.245
-112.042
-110.266
-105.739
-98.687
-89.985
-81.436
-74.215
-68.863
-66.542
-68.436
-74.57
-83.187
-90.26
-90.871
-82.205
-65.449
-42.697
-12.687
27.894
85.582
166.778
269.977
390.196
520.196
649.466
768.811
867.943
934.257
955.022
920.932
830.053
686.732
505.183
307.425
115.203
-47.438
-162.689
-227.336
-245.131
-229.899
-199.887
-166.224
-138.845
-122.612
-115.962
-117.537
-121.588
-122.432
-119.469
-113.864
-109.56
-109.7
-113.322
-117.776
-120.249
-119.426
-115.794
-110.411
-104.245
-97.813
-91.616
-86.344
-82.383
-79.821
-78.502
-78.063
-78.255
-78.925
-79.87
-80.885
-81.799
-82.466
-82.829
-82.866
-82.536
-81.85
-80.826
-79.489
-77.899
-76.111
-74.184
-72.185
-70.17
-68.19
-66.29
-64.475
-62.744
-61.1
-59.507
-57.947
-56.405
-54.805
-53.089
-51.207
-49.095
-46.722
-44.061
-41.074
-37.741
-34.052
-29.995
-25.589
-20.868
-15.85
-10.59
-5.119
0.54
6.32
12.162
18.03
23.873
29.672
35.418
41.085
46.652
52.109
57.436
62.631
67.697
72.621
77.401
82.026
86.474
90.756
94.878
98.831
102.612
106.205
109.584
112.739
115.661
118.328
120.727
122.84
124.646
126.14
127.314
128.163
128.687
128.874
128.71
128.192
127.317
126.084
124.5
122.564
120.279
117.656
114.705
111.441
107.879
104.031
99.908
95.527
90.905
86.061
81.017
75.792
70.407
64.886
59.251
53.524
47.731
41.892
36.028
30.161
24.311
18.499
12.746
7.07
1.49
-3.976
-9.311
-14.5
-19.527
-24.379
-29.045
-33.513
-37.776
-41.825
-45.654
-49.26
-52.637
-55.785
-58.703
-61.391
-63.852
-66.086
-68.1
-69.896
-71.482
-72.863
-74.047
-75.042
-75.855
-76.497
-76.975
-77.3
-77.483
-77.532
-77.46
-77.276
-76.992
-76.619
-76.168
-75.65
-75.076
-74.456
-73.801
-73.121
-72.424
-71.719
-71.013
-70.315
-69.629
-68.962
-68.319
-67.704
-67.12
-66.569
-66.055
-65.578
-65.139
-64.739
-64.377
-64.053
-63.765
-63.511
-63.29
-63.099
-62.934
-62.792
-62.668
-62.558
-62.457
-62.359
-62.258
-62.149
-62.024
-61.879
-61.705
-61.497
-61.249
-60.954
-60.607
-60.202
-59.734
-59.199
-58.594
-57.914
-57.158
-56.325
-55.412
-54.422
-53.354
-52.211
-50.993
-49.706
-48.352
-46.937
-45.466
-43.946
-42.384
-40.79
-39.177
-37.555
-35.939
-34.341
-32.778
-31.266
-29.819
-28.452
-27.178
-26.012
-24.966
-24.055
-23.294
-22.698
-22.28
-22.054
-22.028
-22.214
-22.616
-23.239
-24.08
-25.139
-26.415
-27.916
-29.652
-31.628
-33.849
-36.316
-39.023
-41.954
-45.089
-48.393
-51.827
-55.349
-58.917
-62.494
-66.043
-69.524
-72.891
-76.078
-79.014
-81.637
-83.885
-85.71
-87.086
-88.019
-88.541
-88.727
-88.654
-88.383
-88.003
-87.618
-87.353
-87.355
-87.755
-88.656
-90.211
-92.647
-96.085
-100.477
-105.537
-110.682
-115.364
-119.252
-121.974
-122.947
-121.813
-118.659
-114.191
-109.927
-107.211
-106.445
-107.928
-112.397
-120.175
-130.709
-141.115
-146.017
-141.014
-124.248
-97.749
-65.192
-26.335
22.139
86.911
175.016
285.515
411.947
545.274
673.85
789.293
884.528
947.709
965.332
925.607
823.878
669.417
482.472
288.757
112.394
-31.635
-135.945
-200.118
-230.891
-233.64
-213.568
-179.853
-139.737
-103.905
-84.338
-83.573
-98.218
-119.463
-137.117
-147.026
-150.392
-151.371
-152.412
-153.551
-153.521
-150.161
-143.23
-133.829
-122.904
-111.805
-101.663
-92.795
-85.433
-79.68
-75.283
-72.153
-70.291
-69.558
-69.827
-70.98
-72.861
-75.352
-78.374
-81.794
-85.436
-89.116
-92.677
-96.025
-99.095
-101.826
-104.137
-105.912
-107.058
-107.531
-107.303
-106.379
-104.771
-102.491
-99.575
-96.084
-92.095
-87.687
-82.924
-77.839
-72.465
-66.846
-61.038
-55.121
-49.162
-43.198
-37.261
-31.374
-25.554
-19.824
-14.189
-8.637
-3.153
2.274
7.648
12.961
18.213
23.409
28.56
33.682
38.784
43.862
48.915
53.936
58.918
63.85
68.718
73.499
78.17
82.713
87.113
91.355
95.424
99.3
102.965
106.401
109.592
112.523
115.18
117.549
119.618
121.375
122.814
123.928
124.711
125.158
125.263
125.024
124.438
123.505
122.227
120.606
118.647
116.357
113.745
110.821
107.599
104.089
100.309
96.274
92
87.508
82.816
77.944
72.915
67.75
62.472
57.103
51.667
46.187
40.687
35.188
29.714
24.288
18.93
13.663
8.507
3.48
-1.397
-6.108
-10.637
-14.969
-19.091
-22.99
-26.658
-30.084
-33.262
-36.188
-38.857
-41.267
-43.418
-45.311
-46.948
-48.333
-49.472
-50.37
-51.036
-51.478
-51.707
-51.732
-51.565
-51.22
-50.71
-50.049
-49.252
-48.333
-47.31
-46.196
-45.008
-43.76
-42.469
-41.147
-39.811
-38.473
-37.146
-35.843
-34.576
-33.357
-32.195
-31.099
-30.078
-29.138
-28.286
-27.526
-26.863
-26.299
-25.836
-25.476
-25.219
-25.064
-25.01
-25.054
-25.19
-25.414
-25.718
-26.094
-26.532
-27.022
-27.553
-28.114
-28.696
-29.287
-29.876
-30.454
-31.011
-31.541
-32.031
-32.472
-32.851
-33.158
-33.382
-33.513
-33.542
-33.456
-33.249
-32.914
-32.448
-31.848
-31.11
-30.228
-29.194
-28.004
-26.661
-25.172
-23.544
-21.787
-19.918
-17.962
-15.956
-13.934
-11.924
-9.943
-7.999
-6.105
-4.273
-2.513
-0.839
0.752
2.263
3.695
5.042
6.305
7.49
8.626
9.759
10.924
12.137
13.398
14.687
15.986
17.267
18.49
19.603
20.535
21.221
21.615
21.683
21.398
20.729
19.638
18.075
16.012
13.447
10.394
6.894
2.988
-1.257
-5.752
-10.386
-15.028
-19.562
-23.897
-27.963
-31.71
-35.107
-38.154
-40.88
-43.338
-45.603
-47.738
-49.791
-51.828
-53.968
-56.344
-59.112
-62.414
-66.285
-70.821
-76.207
-82.425
-89.294
-96.357
-102.81
-107.997
-111.553
-112.935
-111.516
-107.134
-99.879
-90.637
-81.161
-72.53
-65.367
-60.637
-58.951
-60.091
-62.344
-61.462
-52.542
-32.993
-4.372
30.101
69.385
115.527
176.611
260.273
367.525
494.762
630.889
761.947
874.909
957.131
996.675
982.574
910.614
781.997
607.875
411.93
217.968
51.269
-68.276
-137.275
-158.939
-145.658
-116.276
-83.112
-57.979
-47.581
-49.687
-61.118
-74.004
-80.904
-81.113
-76.643
-72.458
-72.578
-76.447
-81.376
-84.351
-83.927
-80.525
-75.217
-69.068
-62.676
-56.576
-51.513
-47.922
-45.932
-45.461
-46.214
-47.978
-50.621
-53.934
-57.659
-61.556
-65.431
-69.134
-72.56
-75.573
-78.025
-79.813
-80.876
-81.196
-80.789
-79.681
-77.909
-75.524
-72.593
-69.18
-65.35
-61.169
-56.698
-52.006
-47.163
-42.236
-37.287
-32.363
-27.491
-22.688
-17.96
-13.304
-8.713
-4.174
0.328
4.803
9.261
13.707
18.146
22.583
27.027
31.483
35.958
40.453
44.969
49.504
54.054
58.613
63.173
67.726
72.26
76.766
81.236
85.662
90.034
94.343
98.58
102.734
106.795
110.751
114.589
118.296
121.858
125.262
128.492
131.536
134.378
137.005
139.403
141.56
143.463
145.099
146.458
147.529
148.302
148.77
148.926
148.764
148.28
147.473
146.342
144.887
143.113
141.024
138.625
135.924
132.93
129.653
126.104
122.296
118.242
113.958
109.461
104.768
99.898
94.869
89.703
84.42
79.041
73.587
68.081
62.545
56.999
51.465
45.965
40.521
35.151
29.877
24.715
19.685
14.803
10.083
5.541
1.187
-2.966
-6.908
-10.632
-14.13
-17.396
-20.426
-23.215
-25.763
-28.069
-30.133
-31.956
-33.543
-34.898
-36.027
-36.937
-37.635
-38.13
-38.432
-38.551
-38.499
-38.288
-37.929
-37.437
-36.825
-36.106
-35.294
-34.405
-33.452
-32.449
-31.411
-30.35
-29.281
-28.215
-27.166
-26.144
-25.161
-24.227
-23.352
-22.546
-21.817
-21.171
-20.617
-20.158
-19.8
-19.544
-19.392
-19.343
-19.398
-19.555
-19.811
-20.165
-20.61
-21.145
-21.764
-22.461
-23.231
-24.065
-24.954
-25.887
-26.853
-27.839
-28.833
-29.821
-30.789
-31.722
-32.611
-33.441
-34.201
-34.876
-35.449
-35.905
-36.238
-36.44
-36.508
-36.443
-36.244
-35.918
-35.482
-34.949
-34.334
-33.648
-32.894
-32.073
-31.192
-30.258
-29.282
-28.266
-27.201
-26.071
-24.869
-23.582
-22.199
-20.704
-19.057
-17.232
-15.214
-12.996
-10.594
-8.035
-5.341
-2.544
0.314
3.18
5.978
8.618
11.033
13.151
14.895
16.194
16.947
17.073
16.517
15.236
13.219
10.48
7.047
2.971
-1.67
-6.786
-12.267
-17.981
-23.819
-29.668
-35.408
-40.929
-46.103
-50.826
-55.019
-58.62
-61.594
-63.951
-65.76
-67.14
-68.24
-69.212
-70.187
-71.285
-72.643
-74.402
-76.689
-79.634
-83.326
-87.782
-93.121
-99.489
-106.81
-114.898
-123.296
-131.204
-137.996
-143.154
-145.881
-145.592
-142.255
-135.919
-127.304
-117.935
-108.893
-101.336
-97.091
-95.813
-94.636
-91.318
-82.611
-67.803
-52.623
-39.325
-25.398
-5.176
36.358
111.797
223.226
367.989
532.644
697.247
844.813
956.81
1017.441
1016.832
948.947
817.374
634.419
419.579
200.389
2.175
-155.107
-257.593
-307.534
-313.783
-285.686
-240
-187.8
-139.044
-108.989
-101.445
-115.257
-144.007
-171.801
-190.71
-199.003
-198.499
-196.644
-196.08
-195.772
-194.584
-190.033
-181.789
-171.36
-159.798
-148.321
-137.895
-128.722
-120.934
-114.573
-109.477
-105.608
-102.983
-101.555
-101.227
-101.885
-103.408
-105.677
-108.599
-112.035
-115.81
-119.738
-123.666
-127.499
-131.158
-134.567
-137.625
-140.192
-142.148
-143.421
-143.97
-143.786
-142.881
-141.266
-138.98
-136.091
-132.675
-128.814
-124.576
-120
-115.123
-109.997
-104.686
-99.276
-93.857
-88.486
-83.206
-78.052
-73.047
-68.213
-63.562
-59.084
-54.765
-50.596
-46.571
-42.698
-38.983
-35.42
-32.001
-28.714
-25.541
-22.481
-19.534
-16.692
-13.952
-11.31
-8.76
-6.302
-3.932
-1.633
0.608
2.804
4.966
7.094
9.195
11.274
13.331
15.373
17.398
19.388
21.326
23.189
24.937
26.535
27.937
29.076
29.913
30.415
30.566
30.371
29.834
28.96
27.775
26.305
24.589
