Name
Date of Birth,"Mar 27, 1959"
Recorded Date,2019-09-17 14:01:55 -0500
Classification,Sinus Rhythm
Symptoms,
Software Version,1.18
Device,"Watch4,2"
Sample Rate,510.227 hertz


Lead,Lead I
Unit,µV

-401.009
-383.089
-425.203
-414.845
-412.441
-415.442
-416.077
-427.355
-448.079
-466.957
-479.476
-485.334
-487.124
-488.348
-489.683
-490.121
-488.855
-485.45
-480.18
-473.559
-465.579
-456.202
-445.861
-435.265
-424.966
-415.196
-405.931
-397.016
-388.427
-380.223
-372.333
-364.588
-356.812
-348.863
-340.687
-332.304
-323.694
-314.803
-305.591
-296.035
-286.183
-276.157
-266.091
-256.123
-246.408
-237.095
-228.33
-220.255
-212.98
-206.573
-201.079
-196.507
-192.861
-190.141
-188.322
-187.348
-187.127
-187.519
-188.366
-189.508
-190.777
-191.995
-193.003
-193.662
-193.872
-193.589
-192.824
-191.633
-190.087
-188.264
-186.243
-184.096
-181.936
-179.901
-178.123
-176.737
-175.876
-175.642
-176.212
-177.813
-180.486
-184.126
-188.385
-192.598
-196.168
-198.612
-199.222
-197.303
-192.596
-184.987
-175.168
-164.825
-155.247
-147.741
-143.201
-140.74
-138.962
-136.692
-133.818
-132.898
-135.784
-140.049
-137.195
-112.64
-55.163
37.236
157.372
290.156
423.696
554.127
678.435
791.05
880.08
924.677
907.87
825.491
683.052
499.506
300.833
109.129
-54.445
-173.94
-244.012
-265.271
-244.475
-196.486
-137.485
-82.872
-47.986
-37.924
-48.603
-71.084
-91.307
-102.314
-104.47
-100.948
-98.16
-97.824
-98.174
-97.723
-94.267
-87.634
-79.223
-69.969
-60.931
-53.109
-46.817
-42.195
-39.335
-38.032
-38.137
-39.6
-42.265
-45.93
-50.432
-55.595
-61.244
-67.243
-73.401
-79.493
-85.347
-90.823
-95.811
-100.228
-103.966
-106.924
-109.043
-110.302
-110.712
-110.3
-109.094
-107.129
-104.472
-101.216
-97.477
-93.38
-89.015
-84.448
-79.726
-74.885
-69.977
-65.033
-60.048
-54.994
-49.819
-44.476
-38.938
-33.181
-27.17
-20.857
-14.184
-7.077
0.508
8.6
17.212
26.348
36.007
46.166
56.768
67.733
78.964
90.38
101.926
113.565
125.259
136.978
148.695
160.368
171.967
183.46
194.805
205.968
216.903
227.583
237.995
248.14
258.025
267.638
276.942
285.878
294.377
302.349
309.687
316.294
322.066
326.915
330.787
333.633
335.425
336.145
335.768
334.275
331.648
327.879
322.976
316.967
309.883
301.779
292.734
282.827
272.163
260.841
248.934
236.515
223.643
210.369
196.752
182.86
168.759
154.526
140.247
126.002
111.897
98.037
84.509
71.401
58.764
46.638
35.074
24.116
13.806
4.189
-4.713
-12.891
-20.34
-27.066
-33.101
-38.483
-43.288
-47.616
-51.552
-55.18
-58.564
-61.742
-64.764
-67.669
-70.489
-73.25
-75.968
-78.643
-81.284
-83.899
-86.476
-88.999
-91.427
-93.703
-95.779
-97.618
-99.194
-100.493
-101.506
-102.226
-102.656
-102.81
-102.704
-102.359
-101.789
-101.004
-100.022
-98.867
-97.565
-96.153
-94.66
-93.106
-91.51
-89.886
-88.247
-86.601
-84.954
-83.302
-81.647
-79.99
-78.332
-76.68
-75.039
-73.409
-71.793
-70.195
-68.617
-67.065
-65.546
-64.065
-62.63
-61.249
-59.93
-58.684
-57.522
-56.451
-55.481
-54.62
-53.876
-53.258
-52.774
-52.431
-52.24
-52.206
-52.339
-52.646
-53.136
-53.814
-54.688
-55.764
-57.046
-58.538
-60.246
-62.171
-64.316
-66.681
-69.265
-72.068
-75.087
-78.317
-81.754
-85.392
-89.224
-93.241
-97.434
-101.795
-106.312
-110.974
-115.768
-120.682
-125.702
-130.814
-136.002
-141.251
-146.547
-151.872
-157.211
-162.549
-167.868
-173.154
-178.391
-183.563
-188.657
-193.657
-198.55
-203.324
-207.966
-212.466
-216.815
-221.002
-225.022
-228.867
-232.531
-236.01
-239.299
-242.396
-245.298
-248.003
-250.511
-252.822
-254.94
-256.868
-258.612
-260.178
-261.575
-262.814
-263.906
-264.861
-265.691
-266.406
-267.018
-267.541
-267.988
-268.375
-268.714
-269.021
-269.316
-269.615
-269.936
-270.291
-270.688
-271.135
-271.646
-272.235
-272.916
-273.71
-274.634
-275.71
-276.968
-278.436
-280.14
-282.095
-284.301
-286.751
-289.443
-292.378
-295.562
-298.989
-302.637
-306.477
-310.479
-314.603
-318.796
-322.981
-327.05
-330.892
-334.409
-337.514
-340.151
-342.273
-343.831
-344.766
-345.035
-344.617
-343.518
-341.763
-339.381
-336.435
-333.025
-329.31
-325.494
-321.76
-318.29
-315.273
-312.88
-311.27
-310.591
-310.945
-312.438
-315.282
-319.561
-325.153
-331.786
-338.89
-345.813
-352.06
-357.015
-359.766
-359.682
-356.722
-351.315
-344.711
-338.445
-333.454
-330.573
-331.247
-335.577
-341.217
-345.315
-343.765
-333.901
-318.273
-298.634
-272.331
-233.624
-171.936
-77.708
48.819
201.778
371.227
543.651
708.738
854.294
965.523
1028.291
1029.056
963.872
838.529
667.534
474.189
281.28
109.862
-22.356
-106.913
-142.552
-135.012
-98.976
-50.962
-6.375
20.935
27.639
17.492
-2.068
-18.757
-27.292
-28.702
-25.608
-24.168
-26.275
-29.377
-31.515
-30.363
-25.17
-17.178
-7.403
3.365
14.209
24.347
33.353
40.984
47.237
52.355
56.463
59.598
61.905
63.555
64.676
65.383
65.716
65.664
65.292
64.714
64.037
63.375
62.779
62.252
61.801
61.428
61.139
60.939
60.832
60.826
60.955
61.284
61.877
62.797
64.071
65.694
67.648
69.907
72.465
75.33
78.509
82.006
85.811
89.916
94.3
98.93
103.748
108.669
113.601
118.469
123.233
127.887
132.448
136.949
141.411
145.855
150.292
154.734
159.201
163.71
168.276
172.931
177.718
182.694
187.929
193.473
199.334
205.499
211.914
218.505
225.212
231.977
238.744
245.471
252.115
258.631
264.987
271.142
277.041
282.627
287.825
292.574
296.842
300.616
303.914
306.78
309.253
311.363
313.135
314.577
315.688
316.465
316.898
316.97
316.676
316.017
315
313.644
311.956
309.929
307.54
304.743
301.484
297.728
293.463
288.693
283.442
277.747
271.655
265.234
258.563
251.713
244.745
237.711
230.647
223.612
216.673
209.915
203.442
197.333
191.639
186.404
181.65
177.38
173.586
170.23
167.245
164.58
162.197
160.067
158.182
156.516
155.033
153.69
152.43
151.21
150.006
148.792
147.551
146.281
144.992
143.713
142.503
141.4
140.427
139.6
138.92
138.393
138.03
137.84
137.83
138.006
138.369
138.919
139.66
140.585
141.679
142.918
144.265
145.692
147.179
148.71
150.273
151.858
153.453
155.052
156.653
158.25
159.839
161.411
162.958
164.471
165.947
167.383
168.779
170.132
171.44
172.7
173.908
175.06
176.152
177.179
178.132
179.007
179.799
180.504
181.12
181.643
182.073
182.407
182.647
182.791
182.841
182.795
182.654
182.418
182.086
181.659
181.136
180.516
179.8
178.99
178.087
177.095
176.016
174.855
173.617
172.308
170.932
169.493
167.993
166.434
164.819
163.149
161.427
159.655
157.832
155.965
154.058
152.118
150.148
148.15
146.121
144.063
141.98
139.879
137.767
135.651
133.544
131.463
129.434
127.485
125.632
123.885
122.241
120.701
119.263
117.928
116.694
115.547
114.47
113.451
112.481
111.553
110.651
109.748
108.79
107.733
106.549
105.23
103.78
102.201
100.499
98.683
96.782
94.847
92.932
91.076
89.308
87.653
86.145
84.835
83.799
83.099
82.774
82.849
83.34
84.266
85.643
87.484
89.766
92.435
95.436
98.718
102.239
105.954
109.808
113.729
117.631
121.434
125.071
128.477
131.581
134.308
136.571
138.277
139.364
139.783
139.499
138.488
136.732
134.217
130.946
126.938
122.225
116.852
110.871
104.341
97.335
89.934
82.246
74.397
66.517
58.736
51.177
43.938
37.11
30.778
25.009
19.855
15.333
11.403
8.009
5.086
2.568
0.418
-1.446
-3.165
-4.877
-6.729
-8.868
-11.346
-14.277
-17.925
-22.343
-27.42
-32.921
-38.272
-42.965
-46.785
-49.233
-49.562
-47.673
-43.821
-38.584
-33.379
-29.288
-26.825
-27.201
-32.017
-40.299
-48.864
-54.576
-53.052
-44.282
-34.642
-26.004
-16.075
1.181
41.308
115.352
223.962
363.56
520.085
674.674
810.961
912.428
964.141
955.287
882.389
748.003
564.651
356.279
147.737
-35.421
-171.355
-251.781
-277.203
-255.524
-204.446
-142.118
-85.13
-49.628
-40.101
-52.588
-78.211
-101.608
-115.243
-119.287
-116.866
-115.814
-119.054
-124.555
-130.384
-133.683
-133.616
-131.499
-128.307
-124.875
-121.942
-119.881
-118.842
-118.838
-119.664
-120.991
-122.605
-124.379
-126.132
-127.658
-128.782
-129.339
-129.219
-128.384
-126.764
-124.284
-120.95
-116.82
-112.021
-106.753
-101.185
-95.464
-89.749
-84.178
-78.883
-73.999
-69.637
-65.892
-62.864
-60.62
-59.209
-58.665
-58.946
-59.958
-61.564
-63.57
-65.798
-68.09
-70.276
-72.201
-73.735
-74.749
-75.143
-74.837
-73.729
-71.747
-68.845
-64.985
-60.19
-54.525
-48.079
-40.986
-33.383
-25.389
-17.133
-8.741
-0.307
8.083
16.356
24.461
32.333
39.915
47.171
54.063
60.585
66.755
72.61
78.216
83.649
88.959
94.193
99.388
104.56
109.706
114.808
119.824
124.703
129.397
133.861
138.055
141.937
145.448
148.51
151.03
152.921
154.121
154.585
154.281
153.191
151.317
148.684
145.35
141.396
136.892
131.892
126.445
120.594
114.397
107.928
101.267
94.483
87.629
80.749
73.881
67.063
60.319
53.652
47.042
40.456
33.872
27.288
20.708
14.14
7.589
1.049
-5.481
-11.991
-18.468
-24.9
-31.275
-37.583
-43.811
-49.932
-55.912
-61.713
-67.307
-72.676
-77.805
-82.683
-87.3
-91.648
-95.723
-99.529
-103.068
-106.341
-109.349
-112.093
-114.576
-116.806
-118.795
-120.552
-122.089
-123.414
-124.538
-125.47
-126.221
-126.801
-127.217
-127.478
-127.592
-127.569
-127.421
-127.16
-126.796
-126.341
-125.806
-125.203
-124.542
-123.834
-123.088
-122.313
-121.518
-120.712
-119.903
-119.098
-118.305
-117.529
-116.777
-116.055
-115.367
-114.719
-114.113
-113.552
-113.041
-112.582
-112.176
-111.825
-111.53
-111.293
-111.113
-110.992
-110.928
-110.92
-110.967
-111.067
-111.217
-111.416
-111.659
-111.945
-112.268
-112.626
-113.015
-113.433
-113.875
-114.337
-114.817
-115.311
-115.816
-116.329
-116.847
-117.367
-117.887
-118.405
-118.918
-119.425
-119.922
-120.409
-120.883
-121.342
-121.785
-122.211
-122.617
-123.003
-123.369
-123.713
-124.036
-124.337
-124.617
-124.875
-125.113
-125.331
-125.53
-125.71
-125.872
-126.016
-126.143
-126.255
-126.349
-126.427
-126.485
-126.523
-126.539
-126.531
-126.498
-126.438
-126.349
-126.231
-126.082
-125.904
-125.694
-125.45
-125.172
-124.856
-124.5
-124.101
-123.654
-123.156
-122.603
-121.992
-121.32
-120.587
-119.788
-118.919
-117.975
-116.952
-115.853
-114.681
-113.442
-112.145
-110.804
-109.436
-108.064
-106.712
-105.401
-104.151
-102.973
-101.883
-100.891
-100.009
-99.25
-98.619
-98.11
-97.709
-97.401
-97.166
-96.982
-96.824
-96.65
-96.428
-96.134
-95.748
-95.265
-94.685
-94.017
-93.278
-92.491
-91.692
-90.933
-90.282
-89.811
-89.592
-89.678
-90.117
-90.964
-92.26
-94.034
-96.302
-99.06
-102.287
-105.946
-109.985
-114.34
-118.929
-123.659
-128.408
-133.054
-137.493
-141.669
-145.579
-149.228
-152.636
-155.82
-158.785
-161.577
-164.278
-166.968
-169.734
-172.68
-175.858
-179.399
-183.575
-188.448
-193.944
-199.84
-205.539
-210.493
-214.399
-216.653
-216.48
-213.821
-208.825
-201.943
-194.804
-188.645
-184.057
-182.645
-185.134
-189.62
-194.231
-196.399
-193.796
-188.326
-182.057
-173.447
-156.89
-123.832
-65.165
24.659
143.185
285.122
442.726
602.058
747.864
862.995
926.333
922.229
845.943
700.348
502.533
281.325
64.597
-119.635
-250.526
-323.017
-340.549
-314.111
-262.337
-201.601
-146.563
-111.686
-100.665
-110.656
-134.08
-156.125
-169.573
-174.062
-171.909
-170.747
-173.312
-177.555
-181.754
-183.034
-180.523
-175.561
-169.076
-161.89
-154.817
-148.32
-142.648
-137.943
-134.083
-130.789
-127.906
-125.354
-123.021
-120.784
-118.547
-116.224
-113.801
-111.343
-108.882
-106.433
-104.003
-101.57
-99.15
-96.777
-94.487
-92.328
-90.348
-88.592
-87.103
-85.926
-85.089
-84.61
-84.484
-84.657
-85.062
-85.612
-86.236
-86.882
-87.486
-87.989
-88.33
-88.44
-88.245
-87.672
-86.636
-85.057
-82.87
-80.01
-76.431
-72.12
-67.088
-61.373
-55.013
-48.041
-40.494
-32.41
-23.827
-14.802
-5.399
4.31
14.231
24.274
34.357
44.393
54.296
64
73.452
82.619
91.48
100.01
108.186
115.989
123.4
130.416
137.035
143.265
149.129
154.643
159.815
164.659
169.186
173.399
177.299
180.876
184.108
186.981
189.478
191.586
193.291
194.575
195.421
195.81
195.721
195.14
194.061
192.478
190.393
187.812
184.743
181.202
177.214
172.801
167.987
162.799
157.262
151.407
145.266
138.872
132.259
125.461
118.512
111.445
104.292
97.086
89.857
82.636
75.45
68.328
61.298
54.386
47.619
41.022
34.617
28.427
22.471
16.769
11.334
6.183
1.325
-3.229
-7.472
-11.398
-15.004
-18.289
-21.253
-23.9
-26.235
-28.262
-29.992
-31.434
-32.598
-33.498
-34.147
-34.56
-34.752
-34.74
-34.541
-34.172
-33.651
-32.995
-32.225
-31.356
-30.407
-29.396
-28.34
-27.256
-26.16
-25.068
-23.994
-22.953
-21.956
-21.015
-20.14
-19.341
-18.625
-17.999
-17.468
-17.036
-16.706
-16.48
-16.358
-16.341
-16.426
-16.611
-16.891
-17.263
-17.72
-18.256
-18.864
-19.536
-20.265
-21.042
-21.857
-22.703
-23.57
-24.448
-25.329
-26.202
-27.06
-27.893
-28.692
-29.451
-30.162
-30.819
-31.416
-31.949
-32.413
-32.806
-33.124
-33.366
-33.531
-33.62
-33.632
-33.57
-33.437
-33.235
-32.97
-32.646
-32.269
-31.846
-31.384
-30.89
-30.373
-29.841
-29.302
-28.766
-28.241
-27.738
-27.265
-26.831
-26.445
-26.115
-25.848
-25.653
-25.534
-25.498
-25.548
-25.689
-25.924
-26.253
-26.68
-27.203
-27.823
-28.537
-29.343
-30.237
-31.214
-32.269
-33.394
-34.583
-35.826
-37.116
-38.44
-39.79
-41.154
-42.52
-43.875
-45.206
-46.502
-47.748
-48.932
-50.042
-51.064
-51.989
-52.806
-53.504
-54.076
-54.514
-54.812
-54.964
-54.968
-54.821
-54.522
-54.071
-53.471
-52.725
-51.839
-50.82
-49.676
-48.419
-47.061
-45.615
-44.097
-42.522
-40.907
-39.269
-37.627
-35.998
-34.402
-32.857
-31.385
-30.003
-28.735
-27.601
-26.62
-25.809
-25.18
-24.745
-24.513
-24.495
-24.702
-25.145
-25.832
-26.77
-27.969
-29.432
-31.16
-33.143
-35.351
-37.754
-40.317
-43.007
-45.794
-48.645
-51.522
-54.382
-57.182
-59.868
-62.394
-64.714
-66.775
-68.536
-69.97
-71.082
-71.938
-72.62
-73.218
-73.811
-74.448
-75.198
-76.171
-77.485
-79.257
-81.61
-84.58
-88.242
-92.815
-98.324
-104.625
-111.383
-117.893
-123.529
-127.973
-130.707
-131.035
-128.862
-124.382
-118.331
-112.397
-107.603
-104.404
-103.91
-107.07
-113.788
-122.187
-127.911
-125.784
-112.126
-88.559
-59.901
-27.986
6.135
49.742
117.325
215.943
349.599
511.321
677.706
824.736
929.07
972.329
949.847
866.547
732.309
562.136
374.255
185.94
15.316
-119.705
-208.287
-246.653
-238.01
-196.304
-139.18
-83.794
-47.233
-35.374
-45.131
-68.149
-89.21
-100.471
-101.649
-95.504
-89.96
-88.207
-88.409
-88.809
-86.503
-80.549
-72.279
-62.687
-52.648
-42.98
-34.165
-26.472
-20.066
-14.872
-10.655
-7.293
-4.755
-2.979
-1.87
-1.347
-1.303
-1.646
-2.322
-3.231
-4.25
-5.297
-6.313
-7.271
-8.173
-9.017
-9.792
-10.49
-11.084
-11.518
-11.728
-11.649
-11.233
-10.471
-9.368
-7.941
-6.214
-4.2
-1.908
0.656
3.496
6.618
10.024
13.718
17.686
21.888
26.274
30.783
35.368
40.001
44.664
49.348
54.048
58.764
63.497
68.256
73.045
77.859
82.695
87.544
92.404
97.281
102.186
107.132
112.127
117.169
122.252
127.367
132.499
137.63
142.736
147.791
152.766
157.64
162.389
166.994
171.432
175.681
179.715
183.512
187.049
190.304
193.257
195.887
198.176
200.109
201.669
202.846
203.629
204.005
203.966
203.505
202.614
201.291
199.534
197.342
194.719
191.669
188.2
184.322
180.048
175.391
170.367
164.995
159.294
153.285
146.99
140.432
133.635
126.623
119.423
112.059
104.559
96.948
89.254
81.502
73.721
65.936
58.173
50.459
42.819
35.278
27.858
20.583
13.475
6.553
-0.164
-6.659
-12.916
-18.922
-24.665
-30.136
-35.326
-40.23
-44.843
-49.163
-53.19
-56.925
-60.369
-63.527
-66.404
-69.007
-71.342
-73.42
-75.249
-76.839
-78.203
-79.351
-80.298
-81.056
-81.639
-82.063
-82.341
-82.489
-82.522
-82.455
-82.304
-82.083
-81.807
-81.49
-81.145
-80.785
-80.422
-80.067
-79.73
-79.419
-79.144
-78.912
-78.728
-78.597
-78.523
-78.51
-78.56
-78.674
-78.852
-79.095
-79.401
-79.769
-80.198
-80.683
-81.223
-81.812
-82.448
-83.125
-83.839
-84.583
-85.354
-86.145
-86.951
-87.766
-88.586
-89.405
-90.219
-91.021
-91.809
-92.578
-93.324
-94.044
-94.735
-95.395
-96.023
-96.617
-97.178
-97.704
-98.197
-98.656
-99.084
-99.482
-99.852
-100.195
-100.515
-100.814
-101.095
-101.36
-101.612
-101.855
-102.091
-102.323
-102.552
-102.781
-103.011
-103.243
-103.477
-103.714
-103.954
-104.195
-104.438
-104.681
-104.921
-105.158
-105.388
-105.608
-105.815
-106.005
-106.175
-106.319
-106.433
-106.512
-106.55
-106.542
-106.482
-106.365
-106.184
-105.934
-105.608
-105.201
-104.707
-104.121
-103.438
-102.654
-101.764
-100.767
-99.66
-98.442
-97.112
-95.672
-94.122
-92.464
-90.703
-88.841
-86.883
-84.834
-82.701
-80.49
-78.21
-75.868
-73.472
-71.033
-68.561
-66.069
-63.57
-61.078
-58.607
-56.173
-53.791
-51.478
-49.247
-47.113
-45.088
-43.184
-41.413
-39.787
-38.318
-37.017
-35.894
-34.956
-34.21
-33.659
-33.302
-33.137
-33.156
-33.355
-33.738
-34.307
-35.067
-36.022
-37.177
-38.527
-40.064
-41.77
-43.616
-45.565
-47.58
-49.621
-51.655
-53.647
-55.567
-57.376
-59.02
-60.445
-61.592
-62.405
-62.829
-62.833
-62.416
-61.609
-60.484
-59.123
-57.595
-55.988
-54.402
-52.95
-51.764
-50.973
-50.67
-50.983
-52.139
-54.282
-57.422
-61.367
-65.578
-69.458
-72.567
-74.419
-74.368
-72.035
-67.462
-61.266
-55.071
-50.578
-48.77
-50.608
-57.139
-68.666
-84.553
-102.053
-115.71
-120.384
-112.913
-93.391
-63.475
-22.958
29.928
100.829
194.256
309.264
442.581
585.273
725.08
849.046
941.848
987.47
973.052
894.738
757.055
574.963
372.613
173.077
-2.225
-135.715
-219.504
-252.798
-239.129
-189.709
-121.708
-52.098
-0.26
20.231
10.362
-21.571
-59.896
-89.099
-104.578
-108.034
-105.504
-103.573
-103.783
-105.064
-105.545
-103.487
-99.14
-93.655
-88.108
-83.605
-80.469
-78.531
-77.638
-77.461
-77.779
-78.512
-79.497
-80.577
-81.624
-82.496
-83.101
-83.39
-83.269
-82.632
-81.393
-79.483
-76.931
-73.856
-70.371
-66.588
-62.6
-58.473
-54.291
-50.156
-46.166
-42.407
-38.941
-35.811
-33.071
-30.789
-29.021
-27.789
-27.046
-26.676
-26.561
-26.605
-26.723
-26.841
-26.876
-26.718
-26.26
-25.432
-24.185
-22.475
-20.259
-17.462
-14.009
-9.865
-5.036
0.426
6.457
13.014
20.057
27.532
35.366
43.466
51.727
60.083
68.487
76.885
85.221
93.419
101.39
109.072
116.433
123.45
130.112
136.4
142.287
147.774
152.877
157.62
162.04
166.149
169.941
173.417
176.577
179.429
181.989
184.257
186.222
187.874
189.204
190.206
190.879
191.208
191.171
190.745
189.906
188.641
186.948
184.826
182.277
179.306
175.92
172.133
167.967
163.441
158.574
153.387
147.9
142.137
136.13
129.907
123.499
116.937
110.249
103.465
96.615
89.725
82.822
75.931
69.075
62.279
55.567
48.961
42.486
36.162
30.01
24.049
18.296
12.768
7.479
2.44
-2.339
-6.848
-11.082
-15.034
-18.7
-22.079
-25.169
-27.972
-30.488
-32.723
-34.682
-36.37
-37.796
-38.97
-39.899
-40.596
-41.072
-41.339
-41.409
-41.295
-41.012
-40.572
-39.991
-39.283
-38.463
-37.545
-36.543
-35.471
-34.344
-33.173
-31.971
-30.749
-29.519
-28.291
-27.074
-25.877
-24.708
-23.575
-22.486
-21.445
-20.459
-19.532
-18.668
-17.871
-17.142
-16.484
-15.899
-15.387
-14.948
-14.582
-14.288
-14.066
-13.913
-13.828
-13.807
-13.849
-13.949
-14.105
-14.315
-14.574
-14.88
-15.23
-15.622
-16.053
-16.522
-17.025
-17.563
-18.132
-18.731
-19.36
-20.018
-20.703
-21.416
-22.156
-22.922
-23.716
-24.537
-25.387
-26.264
-27.17
-28.105
-29.071
-30.067
-31.094
-32.153
-33.245
-34.37
-35.529
-36.722
-37.95
-39.211
-40.505
-41.83
-43.186
-44.569
-45.977
-47.406
-48.853
-50.313
-51.783
-53.256
-54.728
-56.194
-57.645
-59.077
-60.482
-61.853
-63.182
-64.462
-65.684
-66.841
-67.926
-68.931
-69.847
-70.668
-71.386
-71.994
-72.485
-72.852
-73.09
-73.192
-73.154
-72.971
-72.642
-72.163
-71.533
-70.752
-69.822
-68.744
-67.522
-66.16
-64.663
-63.037
-61.29
-59.431
-57.47
-55.416
-53.281
-51.081
-48.829
-46.542
-44.236
-41.93
-39.641
-37.387
-35.188
-33.06
-31.018
-29.08
-27.258
-25.57
-24.031
-22.657
-21.462
-20.457
-19.654
-19.063
-18.689
-18.534
-18.596
-18.872
-19.362
-20.07
-21.002
-22.16
-23.547
-25.162
-26.998
-29.04
-31.266
-33.639
-36.117
-38.66
-41.224
-43.776
-46.28
-48.696
-50.979
-53.07
-54.914
-56.453
-57.638
-58.417
-58.759
-58.673
-58.198
-57.414
-56.408
-55.242
-53.989
-52.746
-51.631
-50.76
-50.254
-50.182
-50.636
-51.828
-53.88
-56.755
-60.243
-63.836
-66.99
-69.349
-70.493
-69.768
-66.812
-61.699
-55.011
-48.131
-42.35
-38.482
-37.413
-40.185
-47.503
-57.935
-67.881
-73.285
-69.729
-57.145
-39.491
-15.982
14.79
57.601
124.246
217.086
334.849
475.565
625.279
771.843
901.287
991.346
1025.667
991.423
884.349
716.528
509.278
292.438
95.92
-58.181
-156.093
-199.406
-198.015
-165.179
-118.955
-72.143
-35.178
-16.013
-13.465
-22.911
-36.175
-45.351
-49.045
-49.116
-49.743
-53.578
-59.225
-64.417
-66.797
-65.383
-61.01
-54.725
-47.495
-40.237
-33.682
-28.251
-24.118
-21.186
-19.16
-17.846
-17.131
-16.856
-16.849
-16.958
-17.062
-17.127
-17.159
-17.13
-16.997
-16.703
-16.208
-15.521
-14.668
-13.689
-12.625
-11.5
-10.343
-9.189
-8.051
-6.932
-5.825
-4.685
-3.482
-2.192
-0.779
0.769
2.469
4.352
6.441
8.762
11.342
14.195
17.333
20.772
24.513
28.544
32.847
37.38
42.107
46.997
52.015
57.136
62.34
67.599
72.892
78.2
83.502
88.789
94.054
99.29
104.489
109.647
114.76
119.837
124.887
129.924
134.961
140.009
145.086
150.225
155.459
160.83
166.361
172.059
177.919
183.93
190.086
196.379
202.792
209.289
215.829
222.363
228.842
235.212
241.391
247.264
252.704
257.579
261.782
265.236
267.874
269.632
270.442
270.251
269.032
266.783
263.511
259.217
253.9
247.582
240.323
232.239
223.463
214.128
204.351
194.235
183.887
173.43
162.996
152.69
142.588
132.75
123.234
114.118
105.495
97.429
89.944
83.023
76.633
70.744
65.338
60.383
55.828
51.602
47.618
43.821
40.183
36.677
33.276
29.931
26.577
23.175
19.71
16.185
12.608
8.98
5.298
1.579
-2.141
-5.815
-9.384
-12.815
-16.096
-19.211
-22.148
-24.888
-27.405
-29.69
-31.75
-33.589
-35.213
-36.626
-37.829
-38.835
-39.673
-40.372
-40.965
-41.476
-41.919
-42.309
-42.661
-42.986
-43.297
-43.597
-43.886
-44.168
-44.446
-44.725
-45.011
-45.306
-45.606
-45.91
-46.216
-46.521
-46.825
-47.127
-47.426
-47.721
-48.013
-48.304
-48.596
-48.89
-49.185
-49.481
-49.776
-50.07
-50.36
-50.644
-50.922
-51.19
-51.449
-51.697
-51.934
-52.16
-52.375
-52.578
-52.772
-52.955
-53.129
-53.295
-53.454
-53.607
-53.757
-53.905
-54.054
-54.206
-54.363
-54.528
-54.704
-54.893
-55.097
-55.32
-55.563
-55.83
-56.123
-56.445
-56.798
-57.184
-57.605
-58.064
-58.562
-59.1
-59.678
-60.298
-60.957
-61.655
-62.392
-63.164
-63.969
-64.804
-65.664
-66.546
-67.445
-68.356
-69.274
-70.192
-71.104
-72.004
-72.885
-73.739
-74.559
-75.336
-76.064
-76.734
-77.338
-77.869
-78.319
-78.68
-78.946
-79.109
-79.165
-79.106
-78.929
-78.628
-78.201
-77.646
-76.962
-76.148
-75.208
-74.143
-72.96
-71.665
-70.264
-68.767
-67.184
-65.525
-63.803
-62.032
-60.224
-58.393
-56.554
-54.723
-52.916
-51.151
-49.443
-47.809
-46.266
-44.834
-43.532
-42.375
-41.376
-40.548
-39.902
-39.452
-39.212
-39.193
-39.404
-39.851
-40.539
-41.47
-42.644
-44.048
-45.657
-47.437
-49.351
-51.365
-53.451
-55.578
-57.714
-59.823
-61.864
-63.802
-65.609
-67.252
-68.703
-69.942
-70.959
-71.77
-72.437
-73.055
-73.726
-74.56
-75.637
-77.013
-78.753
-80.946
-83.674
-87.003
-91
-95.658
-101.012
-107.223
-114.249
-121.863
-129.69
-137.018
-143.176
-147.784
-150.248
-149.76
-146.196
-139.813
-131.235
-122.038
-113.512
-106.34
-101.824
-101.541
-104.8
-109.002
-111.204
-106.866
-94.564
-78.368
-59.558
-36.408
-5.581
43.8
121.197
227.505
361.61
515.518
673.466
819.658
936.084
1000.944
997.417
918.986
767.254
559.55
326.33
96.822
-100.378
-243.888
-327.792
-353.809
-330.398
-275.213
-206.146
-140.844
-97.576
-82.286
-91.577
-115.776
-137.416
-147.753
-146.814
-138.262
-131.235
-129.248
-130.075
-131.504
-130.266
-125.37
-118.274
-110.045
-101.546
-93.578
-86.606
-80.86
-76.466
-73.298
-71.077
-69.673
-69.035
-69.039
-69.535
-70.391
-71.465
-72.665
-73.924
-75.129
-76.168
-76.976
-77.518
-77.802
-77.851
-77.666
-77.23
-76.53
-75.575
-74.377
-72.938
-71.259
-69.329
-67.167
-64.836
-62.408
-59.936
-57.446
-54.93
-52.361
-49.723
-47.003
-44.181
-41.228
-38.087
-34.698
-31.034
-27.084
-22.853
-18.322
-13.431
-8.127
-2.375
3.833
10.479
17.54
25.004
32.853
41.038
49.497
58.135
66.848
75.572
84.262
92.884
101.401
109.753
117.884
125.774
133.418
140.818
147.968
154.842
161.417
167.696
173.685
179.408
184.898
190.154
195.158
199.884
204.283
208.312
211.922
215.032
217.544
219.377
220.46
220.751
220.225
218.849
216.602
213.468
209.421
204.463
198.602
191.852
184.272
175.929
166.899
157.292
147.234
136.846
126.253
115.554
104.822
94.131
83.536
73.086
62.844
52.86
43.191
33.898
25.002
16.511
8.436
0.747
-6.596
-13.639
-20.455
-27.094
-33.58
-39.936
-46.167
-52.274
-58.272
-64.173
-69.993
-75.762
-81.489
-87.177
-92.833
-98.438
-103.965
-109.377
-114.613
-119.623
-124.382
-128.865
-133.061
-136.965
-140.566
-143.855
-146.831
-149.479
-151.792
-153.763
-155.385
-156.66
-157.6
-158.223
-158.558
-158.632
-158.465
-158.074
-157.471
-156.668
-155.676
-154.504
-153.156
-151.643
-149.977
-148.17
-146.238
-144.195
-142.052
-139.821
-137.51
-135.128
-132.688
-130.199
-127.674
-125.126
-122.568
-120.014
-117.48
-114.982
-112.533
-110.147
-107.835
-105.608
-103.478
-101.455
-99.545
-97.759
-96.101
-94.581
-93.203
-91.973
-90.896
-89.976
-89.215
-88.616
-88.179
-87.905
-87.793
-87.839
-88.042
-88.398
-88.902
-89.549
-90.333
-91.249
-92.288
-93.446
-94.712
-96.078
-97.536
-99.076
-100.686
-102.358
-104.08
-105.842
-107.634
-109.446
-111.269
-113.092
-114.906
-116.703
-118.473
-120.206
-121.894
-123.529
-125.101
-126.603
-128.028
-129.367
-130.615
-131.767
-132.816
-133.758
-134.588
-135.303
-135.897
-136.369
-136.714
-136.931
-137.017
-136.972
-136.796
-136.488
-136.051
-135.486
-134.795
-133.982
-133.05
-132.003
-130.846
-129.584
-128.223
-126.769
-125.231
-123.616
-121.934
-120.194
-118.405
-116.581
-114.732
-112.871
-111.012
-109.168
-107.354
-105.584
-103.874
-102.236
-100.684
-99.231
-97.889
-96.669
-95.585
-94.646
-93.864
-93.25
-92.812
-92.556
-92.489
-92.61
-92.917
-93.408
-94.081
-94.938
-95.982
-97.213
-98.631
-100.235
-102.022
-103.981
-106.092
-108.321
-110.633
-112.993
-115.366
-117.727
-120.045
-122.285
-124.411
-126.373
-128.119
-129.608
-130.793
-131.627
-132.075
-132.126
-131.819
-131.229
-130.441
-129.529
-128.531
-127.503
-126.542
-125.745
-125.212
-125.058
-125.322
-126.096
-127.62
-129.946
-132.956
-136.398
-139.676
-142.224
-143.786
-143.886
-141.816
-137.499
-131.247
-123.713
-116.431
-110.611
-106.782
-106.001
-109.635
-116.894
-125.017
-131.027
-130.747
-123.012
-111.729
-97.929
-78.57
-49.006
0.248
76.615
177.184
297.032
430.158
565.066
693.742
805.861
880.844
900.136
849.188
721.752
531.049
303.889
73.613
-127.531
-276.461
-362.958
-391.415
-372.345
-320.552
-253.67
-184.445
-126.366
-90.193
-76.578
-81.282
-93.455
-101.252
-101.825
-97.206
-92.798
-93.947
-99.903
-108.136
-116.279
-121.752
-123.926
-122.81
-118.361
-111.716
-104.547
-97.78
-91.854
-86.843
-82.562
-79.22
-77.077
-75.919
-75.184
-74.387
-73.237
-71.683
-69.871
-67.821
-65.505
-62.979
-60.343
-57.737
-55.285
-53.043
-51.022
-49.229
-47.673
-46.368
-45.332
-44.552
-44.007
-43.646
-43.387
-43.152
-42.853
-42.409
-41.76
-40.84
-39.585
-37.944
-35.875
-33.353
-30.374
-26.939
-23.041
-18.694
-13.919
-8.753
-3.265
2.486
8.448
14.572
20.824
27.169
33.566
39.979
46.381
52.749
59.077
65.364
71.598
77.775
83.897
89.964
95.999
102.029
108.064
114.11
120.168
126.233
132.319
138.45
144.632
150.863
157.126
163.384
169.604
175.756
181.794
187.668
193.305
198.615
203.524
207.979
211.92
215.296
218.038
220.054
221.28
221.669
221.195
219.857
217.658
214.596
210.702
206.024
200.633
194.628
188.09
181.079
173.662
165.904
157.886
149.711
141.461
133.196
124.975
116.838
108.83
101
93.372
85.95
78.729
71.683
64.805
58.107
51.594
45.275
39.153
33.221
27.484
21.961
16.665
11.611
6.808
2.262
-2.012
-5.99
-9.647
-12.956
-15.898
-18.468
-20.66
-22.471
-23.904
-24.96
-25.651
-25.994
-26.006
-25.701
-25.096
-24.203
-23.042
-21.636
-20.007
-18.177
-16.168
-14.002
-11.698
-9.277
-6.759
-4.161
-1.498
1.215
3.964
6.733
9.509
12.279
15.029
17.75
20.429
23.057
25.625
28.128
30.558
32.913
35.19
37.386
39.501
41.535
43.49
45.367
47.17
48.901
50.565
52.165
53.708
55.198
56.64
58.04
59.403
60.733
62.037
63.317
64.577
65.822
67.054
68.276
69.492
70.704
71.913
73.121
74.33
75.54
76.752
77.964
79.177
80.386
81.592
82.79
83.978
85.152
86.308
87.442
88.551
89.629
90.673
91.677
92.637
93.549
94.409
95.214
95.962
96.65
97.277
97.843
98.349
98.795
99.182
99.511
99.785
100.003
100.169
100.283
100.346
100.361
100.331
100.263
100.161
100.033
99.886
99.728
99.568
99.413
99.271
99.149
99.05
98.981
98.949
98.962
99.033
99.167
99.368
99.639
99.98
100.384
100.843
101.337
101.846
102.356
102.858
103.349
103.834
104.313
104.788
105.264
105.735
106.197
106.651
107.088
107.502
107.905
108.311
108.75
109.264
109.868
110.564
111.346
112.183
113.045
113.891
114.663
115.318
115.823
116.147
116.274
116.187
115.842
115.19
114.171
112.707
110.756
108.294
105.312
101.838
97.922
93.634
89.077
84.343
79.505
74.63
69.769
64.982
60.356
55.979
51.945
48.351
45.277
42.773
40.857
39.495
38.609
38.097
37.848
37.748
37.667
37.469
37.029
36.226
34.983
33.196
30.645
27.209
22.928
18.022
12.964
8.209
3.994
0.642
-1.246
-1.299
0.453
3.439
6.385
8.273
8.639
6.987
2.525
-5.499
-15.738
-24.49
-27.858
-22.084
-8.355
7.291
24.157
44.28
74.523
129.119
212.374
321.902
452.312
589.044
720.745
836.715
922.395
963.833
947.432
867.435
727.011
541.64
338.424
143.149
-18.472
-128.872
-188.25
-202.31
-183.328
-148.488
-106.107
-65.24
-36.716
-22.831
-25.706
-41.547
-57.585
-67.856
-70.427
-66.62
-63.943
-65.133
-68.601
-72.835
-75.004
-74.216
-71.769
-68.575
-65.352
-62.796
-61.319
-61.13
-62.343
-64.822
-68.23
-72.346
-77.045
-82.149
-87.471
-92.841
-98.068
-103.019
-107.612
-111.737
-115.304
-118.258
-120.559
-122.205
-123.224
-123.645
-123.51
-122.869
-121.769
-120.255
-118.372
-116.163
-113.679
-110.977
-108.108
-105.121
-102.05
-98.919
-95.743
-92.527
-89.269
-85.96
-82.585
-79.13
-75.58
-71.927
-68.162
-64.278
-60.267
-56.117
-51.821
-47.374
-42.774
-38.019
-33.109
-28.042
-22.822
-17.459
-11.965
-6.356
-0.651
5.133
10.972
16.837
22.696
28.521
34.283
39.967
45.558
51.04
56.393
61.6
66.646
71.533
76.266
80.849
85.286
89.58
93.743
97.804
101.789
105.72
109.609
113.447
117.219
120.913
124.515
128.008
131.357
134.5
137.365
139.891
142.024
143.712
144.894
145.486
145.408
144.592
142.982
140.548
137.261
133.096
128.032
122.062
115.218
107.565
99.193
90.184
80.61
70.553
60.11
49.403
38.556
27.691
16.921
6.353
-3.888
-13.682
-22.916
-31.485
-39.33
-46.421
-52.751
-58.314
-63.103
-67.124
-70.402
-72.981
-74.91
-76.247
-77.048
-77.384
-77.356
-77.061
-76.589
-76.031
-75.443
-74.868
-74.343
-73.892
-73.536
-73.292
-73.163
-73.146
-73.24
-73.438
-73.725
-74.08
-74.457
-74.818
-75.133
-75.373
-75.524
-75.579
-75.532
-75.386
-75.152
-74.843
-74.471
-74.052
-73.595
-73.114
-72.626
-72.147
-71.706
-71.321
-71.006
-70.773
-70.628
-70.576
-70.618
-70.751
-70.965
-71.253
-71.606
-72.017
-72.481
-72.989
-73.534
-74.108
-74.701
-75.306
-75.917
-76.529
-77.138
-77.738
-78.327
-78.903
-79.465
-80.013
-80.545
-81.059
-81.555
-82.031
-82.486
-82.921
-83.333
-83.723
-84.093
-84.441
-84.772
-85.085
-85.384
-85.67
-85.946
-86.214
-86.478
-86.738
-86.999
-87.261
-87.525
-87.794
-88.067
-88.346
-88.628
-88.913
-89.198
-89.483
-89.763
-90.036
-90.297
-90.542
-90.768
-90.968
-91.138
-91.272
-91.365
-91.412
-91.406
-91.343
-91.216
-91.019
-90.747
-90.393
-89.951
-89.416
-88.782
-88.044
-87.197
-86.237
-85.16
-83.965
-82.648
-81.209
-79.648
-77.967
-76.168
-74.254
-72.231
-70.103
-67.879
-65.566
-63.174
-60.714
-58.196
-55.633
-53.041
-50.433
-47.828
-45.241
-42.69
-40.194
-37.772
-35.441
-33.22
-31.124
-29.17
-27.373
-25.75
-24.316
-23.09
-22.083
-21.311
-20.784
-20.514
-20.507
-20.767
-21.292
-22.081
-23.132
-24.454
-26.051
-27.925
-30.078
-32.506
-35.202
-38.15
-41.324
-44.686
-48.193
-51.8
-55.459
-59.136
-62.79
-66.381
-69.86
-73.164
-76.229
-78.997
-81.415
-83.43
-85.014
-86.171
-86.934
-87.385
-87.611
-87.685
-87.694
-87.743
-87.954
-88.446
-89.329
-90.685
-92.618
-95.323
-98.924
-103.389
-108.49
-113.762
-118.721
-123.012
-126.241
-127.789
-127.171
-124.361
-119.902
-114.994
-110.783
-107.989
-107.279
-109.512
-115.575
-124.385
-132.361
-135.459
-129.523
-113.965
-93.501
-70.095
-42.53
-7.027
48.009
131.22
243.729
384.68
544.024
705.123
851.274
962.334
1017.709
1004.249
918.283
764.915
562.893
339.654
121.491
-65.333
-201.584
-281.396
-305.977
-284.135
-233.516
-171.456
-115.219
-81.85
-75.728
-92.511
-121.777
-146.295
-158.169
-158.255
-150.914
-145.161
-144.205
-145.635
-147.109
-145.633
-140.446
-133.033
-124.462
-115.529
-106.975
-99.276
-92.708
-87.412
-83.27
-80.022
-77.543
-75.803
-74.736
-74.233
-74.186
-74.502
-75.133
-76.061
-77.22
-78.514
-79.869
-81.244
-82.635
-84.063
-85.554
-87.106
-88.705
-90.332
-91.942
-93.485
-94.911
-96.151
-97.136
-97.82
-98.177
-98.198
-97.882
-97.213
-96.161
-94.699
-92.803
-90.459
-87.665
-84.422
-80.744
-76.659
-72.207
-67.442
-62.43
-57.215
-51.822
-46.269
-40.559
-34.707
-28.729
-22.637
-16.439
-10.146
-3.774
2.652
9.111
15.591
22.087
28.606
35.151
41.718
48.295
54.865
61.412
67.927
74.405
80.838
87.23
93.584
99.912
106.238
112.571
118.919
125.277
131.631
137.973
144.29
150.56
156.766
162.877
168.841
174.603
180.09
185.201
189.845
193.923
197.329
199.978
201.789
202.685
202.607
201.501
199.324
196.05
191.657
186.134
179.512
171.838
163.194
153.705
143.495
132.69
121.432
109.855
98.096
86.305
74.621
63.171
52.073
41.436
31.371
21.979
13.329
5.462
-1.611
-7.92
-13.496
-18.37
-22.593
-26.221
-29.321
-31.979
-34.282
-36.302
-38.103
-39.754
-41.323
-42.88
-44.475
-46.137
-47.877
-49.689
-51.568
-53.508
-55.497
-57.511
-59.52
-61.483
-63.356
-65.108
-66.719
-68.164
-69.422
-70.474
-71.307
-71.922
-72.331
-72.546
-72.579
-72.441
-72.148
-71.719
-71.18
-70.556
-69.876
-69.163
-68.433
-67.702
-66.984
-66.288
-65.623
-64.993
-64.395
-63.829
-63.296
-62.796
-62.328
-61.891
-61.479
-61.089
-60.714
-60.353
-60
-59.653
-59.309
-58.968
-58.627
-58.286
-57.947
-57.608
-57.269
-56.929
-56.586
-56.239
-55.888
-55.53
-55.166
-54.795
-54.416
-54.03
-53.636
-53.235
-52.827
-52.412
-51.991
-51.565
-51.134
-50.7
-50.265
-49.832
-49.404
-48.981
-48.569
-48.168
-47.782
-47.413
-47.063
-46.734
-46.428
-46.147
-45.892
-45.667
-45.471
-45.307
-45.175
-45.076
-45.01
-44.977
-44.974
-45.001
-45.056
-45.136
-45.24
-45.366
-45.514
-45.68
-45.866
-46.068
-46.284
-46.512
-46.745
-46.978
-47.204
-47.417
-47.607
-47.77
-47.899
-47.989
-48.036
-48.036
-47.986
-47.881
-47.715
-47.477
-47.162
-46.766
-46.29
-45.737
-45.117
-44.442
-43.729
-42.996
-42.256
-41.52
-40.792
-40.067
-39.342
-38.611
-37.877
-37.151
-36.441
-35.755
-35.094
-34.458
-33.84
-33.223
-32.587
-31.905
-31.164
-30.363
-29.519
-28.666
-27.844
-27.103
-26.482
-26.008
-25.712
-25.623
-25.768
-26.176
-26.884
-27.928
-29.355
-31.204
-33.493
-36.216
-39.339
-42.804
-46.541
-50.46
-54.477
-58.517
-62.498
-66.345
-69.984
-73.351
-76.377
-79.009
-81.2
-82.936
-84.247
-85.194
-85.858
-86.323
-86.697
-87.131
-87.786
-88.816
-90.352
-92.487
-95.336
-99.081
-103.824
-109.48
-115.766
-122.209
-128.333
-133.801
-138.228
-140.989
-141.575
-139.985
-136.783
-132.975
-129.466
-126.723
-125.124
-125.507
-128.804
-133.914
-137.463
-136.06
-126.277
-108.031
-85.926
-61.105
-31.686
5.909
61.874
143.46
250.744
382.357
528.777
674.921
807.774
911.751
971.951
977.805
921.211
801.948
630.078
425.474
215.793
27.79
-116.981
-207.396
-245.415
-239.076
-203.058
-154.343
-107.366
-76.924
-69.185
-82.099
-108.239
-132.984
-148.067
-152.475
-148.723
-144.822
-144.252
-145.416
-146.593
-144.746
-138.814
-130.127
-119.71
-108.516
-97.499
-87.258
-78.158
-70.471
-64.194
-59.156
-55.325
-52.702
-51.202
-50.7
-51.055
-52.141
-53.869
-56.153
-58.853
-61.781
-64.754
-67.649
-70.402
-72.97
-75.323
-77.41
-79.166
-80.568
-81.59
-82.211
-82.414
-82.159
-81.428
-80.256
-78.708
-76.874
-74.851
-72.69
-70.41
-68.029
-65.538
-62.934
-60.21
-57.326
-54.261
-51.011
-47.584
-44.018
-40.336
-36.519
-32.527
-28.296
-23.749
-18.849
-13.578
-7.918
-1.882
4.5
11.184
18.081
25.118
32.25
39.453
46.724
54.059
61.42
68.752
75.996
83.073
89.929
96.529
102.827
108.796
114.43
119.745
124.788
129.61
134.214
138.576
142.659
146.425
149.854
152.945
155.686
158.072
160.097
161.74
162.999
163.874
164.343
164.366
163.895
162.868
161.274
159.141
156.497
153.374
149.794
145.768
141.323
136.496
131.316
125.811
120.004
113.91
107.565
101.022
94.334
87.566
80.752
73.898
67.017
60.126
53.244
46.401
39.616
32.896
26.263
19.744
13.368
7.167
1.16
-4.647
-10.244
-15.627
-20.781
-25.682
-30.311
-34.655
-38.701
-42.442
-45.87
-48.973
-51.748
-54.204
-56.347
-58.187
-59.731
-60.985
-61.955
-62.654
-63.093
-63.287
-63.253
-63.005
-62.561
-61.939
-61.16
-60.241
-59.203
-58.059
-56.827
-55.522
-54.16
-52.754
-51.32
-49.87
-48.418
-46.978
-45.562
-44.182
-42.85
-41.576
-40.368
-39.235
-38.18
-37.205
-36.313
-35.501
-34.769
-34.112
-33.527
-33.007
-32.549
-32.151
-31.806
-31.508
-31.245
-31.004
-30.773
-30.547
-30.317
-30.077
-29.824
-29.56
-29.292
-29.037
-28.806
-28.599
-28.411
-28.228
-28.039
-27.834
-27.6
-27.324
-26.993
-26.59
-26.104
-25.532
-24.859
-24.063
-23.106
-21.933
-20.51
-18.827
-16.881
-14.689
-12.276
-9.668
-6.911
-4.066
-1.185
1.68
4.492
7.229
9.851
12.304
14.524
16.422
17.936
19.034
19.691
19.899
19.669
19.019
18
16.691
15.155
13.44
11.589
9.62
7.571
5.492
3.44
1.479
-0.336
-1.972
-3.398
-4.587
-5.534
-6.243
-6.745
-7.093
-7.324
-7.461
-7.515
-7.486
-7.378
-7.202
-6.967
-6.678
-6.341
-5.96
-5.541
-5.09
-4.603
-4.064
-3.454
-2.743
-1.916
-0.967
0.103
1.285
2.565
3.919
5.32
6.738
8.146
9.532
10.887
12.201
13.462
14.655
15.771
16.815
17.798
18.728
19.616
20.477
21.329
22.219
23.185
24.256
25.455
26.782
28.225
29.777
31.422
33.128
34.849
36.515
38.041
39.365
40.427
41.172
41.552
41.501
40.968
39.93
38.373
36.309
33.769
30.785
27.403
23.713
19.815
15.836
11.925
8.199
4.763
1.697
-0.969
-3.225
-5.078
-6.558
-7.679
-8.48
-9.059
-9.527
-10.001
-10.631
-11.514
-12.824
-14.902
-17.918
-21.83
-26.415
-31.089
-35.26
-38.595
-40.574
-40.415
-37.804
-32.942
-26.48
-19.948
-14.922
-12.331
-13.305
-19.385
-29.932
-41.988
-52.685
-57.73
-56.268
-52.352
-45.028
-29.584
3.156
66.788
165.278
292.698
437.652
585.017
725.954
855.946
967.947
1052.578
1093.488
1073.953
987.305
835.198
633.739
410.23
191.707
5.747
-128.439
-206.329
-231.301
-214.578
-172.607
-118.076
-63.049
-20.385
5.319
13.635
8.596
1.771
-1.624
-2.478
-2.915
-8.959
-22.049
-38.414
-55.066
-68.855
-77.843
-81.849
-81.09
-76.169
-68.472
-59.993
-51.954
-44.851
-39.078
-34.824
-32.262
-31.59
-32.497
-34.208
-36.236
-38.355
-40.469
-42.65
-44.842
-46.882
-48.719
-50.405
-51.982
-53.486
-54.884
-56.071
-56.975
-57.553
-57.796
-57.718
-57.322
-56.594
-55.513
-54.071
-52.287
-50.192
-47.812
-45.165
-42.253
-39.077
-35.662
-32.041
-28.251
-24.336
-20.316
-16.204
-12.015
-7.765
-3.473
0.851
5.207
9.603
14.042
18.522
23.036
27.574
32.134
36.712
41.31
45.932
50.581
55.257
59.96
64.684
69.43
74.188
78.953
83.726
88.511
93.317
98.167
103.083
108.093
113.235
118.53
123.988
129.616
135.402
141.337
147.4
153.559
159.775
166.002
172.172
178.212
184.039
189.542
194.619
199.163
203.054
206.2
208.525
209.963
210.474
210.028
208.608
206.226
202.906
198.68
193.611
187.769
181.242
174.15
166.605
158.716
150.603
142.365
134.085
125.849
117.717
109.74
101.964
94.415
87.112
80.074
73.303
66.79
60.521
54.459
48.575
42.852
37.267
31.811
26.483
21.278
16.205
11.282
6.522
1.944
-2.433
-6.596
-10.527
-14.205
-17.609
-20.713
-23.5
-25.959
-28.084
-29.875
-31.335
-32.47
-33.294
-33.825
-34.082
-34.081
-33.843
-33.384
-32.723
-31.882
-30.882
-29.746
-28.494
-27.147
-25.724
-24.245
-22.727
-21.189
-19.646
-18.112
-16.602
-15.13
-13.711
-12.358
-11.082
-9.895
-8.806
-7.824
-6.956
-6.207
-5.581
-5.081
-4.707
-4.46
-4.338
-4.339
-4.461
-4.7
-5.05
-5.506
-6.063
-6.715
-7.453
-8.273
-9.165
-10.122
-11.138
-12.205
-13.314
-14.458
-15.63
-16.822
-18.027
-19.238
-20.448
-21.652
-22.843
-24.017
-25.169
-26.296
-27.394
-28.463
-29.5
-30.507
-31.482
-32.428
-33.346
-34.238
-35.107
-35.956
-36.789
-37.61
-38.421
-39.227
-40.032
-40.84
-41.655
-42.48
-43.319
-44.176
-45.054
-45.958
-46.889
-47.853
-48.85
-49.884
-50.958
-52.074
-53.231
-54.432
-55.676
-56.963
-58.291
-59.658
-61.059
-62.491
-63.948
-65.425
-66.915
-68.413
-69.911
-71.403
-72.883
-74.345
-75.783
-77.19
-78.558
-79.879
-81.149
-82.358
-83.499
-84.564
-85.545
-86.433
-87.224
-87.911
-88.485
-88.938
-89.256
-89.434
-89.471
-89.364
-89.117
-88.734
-88.225
-87.606
-86.9
-86.128
-85.308
-84.457
-83.586
-82.713
-81.859
-81.044
-80.286
-79.596
-78.972
-78.411
-77.909
-77.443
-76.986
-76.5
-75.934
-75.25
-74.43
-73.46
-72.338
-71.061
-69.621
-68.024
-66.289
-64.446
-62.535
-60.614
-58.74
-56.995
-55.484
-54.316
-53.605
-53.442
-53.882
-54.958
-56.69
-59.083
-62.14
-65.845
-70.15
-75.001
-80.327
-86.038
-92.034
-98.189
-104.344
-110.341
-116.029
-121.28
-126.024
-130.243
-133.94
-137.141
-139.868
-142.136
-143.997
-145.533
-146.823
-147.965
-149.05
-150.152
-151.453
-153.239
-155.662
-158.749
-162.349
-165.984
-169.179
-171.58
-172.605
-171.492
-167.903
-161.815
-153.589
-144.653
-136.584
-130.501
-128.229
-130.761
-136.51
-143.636
-150.01
-154.421
-160.62
-171.599
-184.093
-189.011
-169.992
-112.049
-12.365
122.1
277.02
436.14
590.202
731.477
848.778
928.58
952.885
907.548
790.981
614.335
401.726
185.065
-5.578
-149.582
-239.298
-281.171
-289.892
-278.744
-256.647
-227.111
-192.194
-158.271
-133.131
-122.759
-127.526
-140.18
-152.848
-161.053
-164.375
-166.736
-170.72
-175.75
-180.382
-182.514
-181.377
-177.931
-173.21
-168.129
-163.43
-159.567
-156.747
-155.018
-154.216
-154.021
-154.198
-154.596
-155.057
-155.438
-155.623
-155.503
-155.038
-154.24
-153.119
-151.709
-150.052
-148.186
-146.173
-144.078
-141.971
-139.924
-138.006
-136.273
-134.766
-133.506
-132.508
-131.785
-131.324
-131.089
-131.017
-131.002
-130.953
-130.795
-130.457
-129.882
-129.012
-127.785
-126.154
-124.089
-121.564
-118.57
-115.104
-111.161
-106.762
-101.945
-96.769
-91.325
-85.689
-79.919
-74.061
-68.145
-62.192
-56.23
-50.273
-44.329
-38.408
-32.508
-26.621
-20.741
-14.855
-8.93
-2.922
3.235
9.611
16.25
23.175
30.39
37.879
45.632
53.633
61.857
70.266
78.807
87.413
96.016
104.548
112.921
121.03
128.744
135.924
142.462
148.285
153.337
157.577
160.957
163.426
164.95
165.522
165.159
163.896
161.767
158.809
155.081
150.671
145.688
140.246
134.428
128.282
121.848
115.183
108.353
101.446
94.542
87.691
80.928
74.282
67.782
61.459
55.327
49.375
43.586
37.949
32.479
27.225
22.23
17.509
13.06
8.853
4.855
1.054
-2.557
-5.989
-9.248
-12.342
-15.27
-18.015
-20.56
-22.902
-25.058
-27.066
-28.963
-30.76
-32.454
-34.029
-35.456
-36.723
-37.818
-38.726
-39.439
-39.957
-40.281
-40.429
-40.419
-40.26
-39.954
-39.494
-38.873
-38.098
-37.181
-36.142
-35.006
-33.796
-32.532
-31.239
-29.938
-28.643
-27.367
-26.116
-24.892
-23.702
-22.552
-21.451
-20.409
-19.432
-18.524
-17.688
-16.926
-16.236
-15.619
-15.071
-14.591
-14.175
-13.822
-13.531
-13.303
-13.135
-13.025
-12.971
-12.969
-13.014
-13.103
-13.23
-13.388
-13.573
-13.779
-14
-14.231
-14.467
-14.703
-14.934
-15.155
-15.362
-15.549
-15.714
-15.853
-15.961
-16.037
-16.076
-16.078
-16.04
-15.961
-15.84
-15.678
-15.475
-15.232
-14.951
-14.635
-14.287
-13.908
-13.503
-13.076
-12.63
-12.171
-11.704
-11.233
-10.763
-10.301
-9.852
-9.421
-9.014
-8.635
-8.289
-7.981
-7.715
-7.496
-7.328
-7.214
-7.157
-7.161
-7.23
-7.364
-7.565
-7.835
-8.173
-8.579
-9.052
-9.587
-10.182
-10.831
-11.531
-12.275
-13.059
-13.877
-14.721
-15.586
-16.467
-17.355
-18.244
-19.123
-19.984
-20.819
-21.619
-22.373
-23.072
-23.706
-24.266
-24.744
-25.134
-25.423
-25.603
-25.659
-25.584
-25.374
-25.028
-24.547
-23.935
-23.201
-22.359
-21.433
-20.443
-19.406
-18.338
-17.251
-16.16
-15.088
-14.053
-13.071
-12.154
-11.298
-10.501
-9.758
-9.049
-8.345
-7.608
-6.79
-5.856
-4.788
-3.573
-2.206
-0.68
1.014
2.871
4.867
6.971
9.135
11.305
13.421
15.395
17.12
18.491
19.403
19.787
19.604
18.822
17.425
15.401
12.75
9.5
5.705
1.429
-3.248
-8.235
-13.427
-18.681
-23.844
-28.775
-33.364
-37.571
-41.393
-44.837
-47.926
-50.665
-53.085
-55.273
-57.341
-59.396
-61.551
-63.875
-66.474
-69.601
-73.418
-77.904
-82.844
-87.711
-91.949
-95.215
-97.097
-96.939
-94.344
-89.353
-82.555
-75.332
-69.012
-64.438
-62.452
-64.089
-70.111
-79.124
-87.578
-91.452
-86.26
-71.842
-52.308
-27.113
5.193
49.387
117.387
212.191
332.233
474.258
623.894
767.776
891.688
977.2
1010.781
983.028
892.691
747.096
561.951
360.655
166.834
5.045
-108.055
-170.878
-190.223
-181.092
-158.501
-129.441
-99.236
-73.054
-55.394
-51.403
-60.958
-76.663
-91.432
-100.833
-104.392
-106.85
-111.075
-116.502
-121.823
-124.653
-124.092
-121.215
-117.05
-112.491
-108.327
-105.006
-102.747
-101.651
-101.559
-102.14
-103.163
-104.466
-105.867
-107.176
-108.209
-108.801
-108.852
-108.309
-107.116
-105.223
-102.622
-99.373
-95.58
-91.382
-86.908
-82.269
-77.583
-72.968
-68.543
-64.427
-60.737
-57.575
-55.043
-53.214
-52.13
-51.803
-52.197
-53.224
-54.773
-56.699
-58.865
-61.144
-63.409
-65.535
-67.397
-68.86
-69.784
-70.043
-69.511
-68.088
-65.717
-62.351
-57.988
-52.655
-46.4
-39.311
-31.481
-22.992
-13.935
-4.412
5.47
15.569
25.736
35.843
45.762
55.395
64.666
73.504
81.86
89.711
97.045
103.876
110.225
116.1
121.518
126.514
131.135
135.471
139.609
143.599
147.485
151.287
155.007
158.648
162.2
165.62
168.867
171.894
174.651
177.107
179.221
180.933
182.171
182.831
182.814
182.056
180.511
178.15
174.964
170.951
166.116
160.509
154.182
147.18
139.562
131.377
122.686
113.571
104.136
94.505
84.814
75.191
65.742
56.568
47.752
39.371
31.505
24.195
17.474
11.378
5.925
1.132
-2.991
-6.451
-9.284
-11.535
-13.278
-14.597
-15.556
-16.217
-16.634
-16.855
-16.94
-16.932
-16.857
-16.74
-16.598
-16.445
-16.297
-16.162
-16.03
-15.883
-15.688
-15.4
-14.994
-14.449
-13.748
-12.882
-11.837
-10.604
-9.19
-7.606
-5.869
-3.991
-1.986
0.134
2.343
4.615
6.917
9.212
11.474
13.68
15.809
17.844
19.77
21.573
23.248
24.793
26.208
27.488
28.632
29.635
30.501
31.232
31.833
32.308
32.663
32.899
33.024
33.041
32.955
32.77
32.49
32.119
31.662
31.124
30.514
29.838
29.104
28.32
27.494
26.636
25.753
24.853
23.945
23.035
22.13
21.238
20.364
19.514
18.694
17.909
17.162
16.457
15.798
15.188
14.627
14.119
13.665
13.264
12.916
12.622
12.38
12.189
12.048
11.953
11.903
11.895
11.925
11.99
12.085
12.206
12.348
12.505
12.673
12.845
13.016
13.179
13.329
13.461
13.568
13.645
13.686
13.688
13.643
13.549
13.4
13.193
12.926
12.595
12.2
11.739
11.213
10.623
9.971
9.259
8.489
7.665
6.789
5.865
4.896
3.885
2.836
1.754
0.644
-0.488
-1.633
-2.784
-3.932
-5.068
-6.182
-7.263
-8.302
-9.289
-10.215
-11.07
-11.841
-12.515
-13.082
-13.537
-13.875
-14.096
-14.203
-14.2
-14.1
-13.917
-13.668
-13.367
-13.027
-12.655
-12.26
-11.85
-11.434
-11.024
-10.626
-10.233
-9.835
-9.419
-8.966
-8.459
-7.872
-7.171
-6.328
-5.325
-4.153
-2.82
-1.337
0.277
2
3.81
5.668
7.519
9.297
10.924
12.323
13.426
14.155
14.421
14.152
13.294
11.815
9.723
7.033
3.775
-0.016
-4.298
-9.001
-14.037
-19.297
-24.654
-29.989
-35.192
-40.148
-44.727
-48.824
-52.354
-55.287
-57.665
-59.54
-60.98
-62.047
-62.775
-63.248
-63.597
-63.964
-64.501
-65.347
-66.56
-68.263
-70.722
-74.035
-78.119
-82.702
-87.154
-90.869
-93.506
-94.594
-93.436
-89.744
-83.676
-75.771
-67.426
-60.139
-54.817
-52.516
-54.641
-60.717
-68.104
-74.158
-74.799
-68.081
-57.5
-43.996
-25.237
3.197
52.943
133.536
245.59
385.946
543.525
702.231
848.693
967.447
1042.526
1060.313
1009.36
887.82
705.756
485.426
259.083
57.557
-94.788
-185.569
-219.276
-207.669
-166.721
-114.515
-63.028
-23.588
-5.222
-8.237
-29.293
-58.438
-83.021
-97.963
-102.482
-100.487
-98.458
-97.807
-97.692
-96.762
-92.779
-85.767
-77.03
-67.399
-57.954
-49.531
-42.283
-36.306
-31.624
-28.043
-25.48
-23.961
-23.443
-23.827
-25.014
-26.88
-29.291
-32.163
-35.381
-38.793
-42.257
-45.658
-48.92
-52.007
-54.898
-57.548
-59.893
-61.852
-63.347
-64.335
-64.801
-64.751
-64.204
-63.187
-61.737
-59.906
-57.751
-55.314
-52.62
-49.675
-46.482
-43.06
-39.443
-35.68
-31.827
-27.92
-23.983
-20.03
-16.071
-12.107
-8.134
-4.128
-0.062
4.082
8.311
12.624
17.016
21.487
26.041
30.68
35.404
40.208
45.086
50.032
55.041
60.1
65.188
70.275
75.325
80.318
85.246
90.105
94.9
99.639
104.338
109.032
113.76
118.553
123.429
128.392
133.44
138.577
143.813
149.16
154.623
160.182
165.795
171.413
176.965
182.365
187.508
192.251
196.445
199.966
202.703
204.567
205.484
205.362
204.11
201.649
197.908
192.856
186.5
178.855
169.982
159.967
148.934
137.058
124.527
111.51
98.171
84.664
71.139
57.771
44.745
32.228
20.388
9.353
-0.783
-9.935
-18.057
-25.139
-31.201
-36.312
-40.556
-44.009
-46.744
-48.844
-50.392
-51.5
-52.299
-52.896
-53.405
-53.917
-54.499
-55.216
-56.111
-57.203
-58.493
-59.957
-61.561
-63.277
-65.082
-66.941
-68.821
-70.668
-72.42
-74.032
-75.463
-76.681
-77.668
-78.408
-78.892
-79.126
-79.126
-78.913
-78.513
-77.947
-77.234
-76.399
-75.467
-74.47
-73.443
-72.413
-71.398
-70.42
-69.489
-68.619
-67.818
-67.09
-66.434
-65.85
-65.337
-64.896
-64.53
-64.238
-64.018
-63.868
-63.784
-63.764
-63.808
-63.914
-64.081
-64.308
-64.593
-64.939
-65.344
-65.809
-66.332
-66.911
-67.543
-68.224
-68.952
-69.722
-70.53
-71.373
-72.246
-73.147
-74.072
-75.018
-75.98
-76.956
-77.942
-78.933
-79.925
-80.915
-81.899
-82.873
-83.835
-84.781
-85.709
-86.616
-87.501
-88.36
-89.19
-89.991
-90.758
-91.489
-92.184
-92.839
-93.455
-94.03
-94.564
-95.058
-95.513
-95.931
-96.314
-96.663
-96.98
-97.266
-97.525
-97.757
-97.963
-98.144
-98.303
-98.442
-98.566
-98.679
-98.786
-98.891
-99.001
-99.119
-99.248
-99.391
-99.549
-99.72
-99.907
-100.111
-100.337
-100.592
-100.882
-101.208
-101.57
-101.965
-102.384
-102.815
-103.235
-103.623
-103.962
-104.24
-104.451
-104.6
-104.691
-104.729
-104.718
-104.651
-104.521
-104.328
-104.067
-103.744
-103.378
-102.997
-102.647
-102.393
-102.283
-102.35
-102.614
-103.061
-103.671
-104.414
-105.248
-106.146
-107.089
-108.046
-108.989
-109.888
-110.689
-111.324
-111.699
-111.683
-111.158
-110.04
-108.267
-105.832
-102.752
-99.059
-94.822
-90.104
-84.967
-79.494
-73.763
-67.853
-61.866
-55.926
-50.187
-44.855
-40.131
-36.18
-33.132
-31.071
-30.045
-30.082
-31.165
-33.248
-36.261
-40.116
-44.719
-49.984
-55.8
-62.033
-68.516
-75.037
-81.38
-87.362
-92.83
-97.657
-101.746
-105.025
-107.478
-109.166
-110.197
-110.702
-110.804
-110.6
-110.207
-109.793
-109.557
-109.714
-110.458
-111.908
-114.183
-117.504
-121.967
-127.475
-133.713
-140.042
-145.805
-150.565
-153.835
-154.935
-153.491
-149.555
-143.69
-137.257
-131.47
-127.078
-124.993
-126.125
-130.93
-137.991
-143.607
-143.475
-133.388
-112.743
-85.3
-52.255
-13.34
34.245
101.205
194.079
313.774
460.433
621.584
779.629
917.824
1012.189
1043.16
1000.024
879.634
694.005
468.133
233.821
22.335
-140.335
-239.894
-277.252
-261.007
-209.362
-144.328
-83.949
-45.59
-35.215
-48.575
-76.378
-102.139
-117.143
-121.174
-117.41
-114.693
-116.731
-121.473
-126.829
-129.392
-127.865
-123.559
-117.461
-110.428
-103.354
-96.831
-91.205
-86.704
-83.266
-80.594
-78.526
-76.993
-75.858
-74.96
-74.153
-73.294
-72.33
-71.295
-70.207
-69.065
-67.848
-66.511
-65.047
-63.485
-61.871
-60.257
-58.679
-57.162
-55.73
-54.409
-53.223
-52.178
-51.243
-50.356
-49.43
-48.39
-47.197
-45.829
-44.264
-42.472
-40.418
-38.083
-35.468
-32.586
-29.441
-26.033
-22.363
-18.462
-14.4
-10.263
-6.139
-2.09
1.855
5.67
9.341
12.855
16.221
19.482
22.692
25.906
29.158
32.472
35.882
39.439
43.225
47.326
51.807
56.708
62.059
67.89
74.229
81.103
88.5
96.363
104.628
113.231
122.116
131.235
140.525
149.901
159.271
168.537
177.612
186.423
194.89
202.915
210.401
217.231
223.314
228.605
233.062
236.646
239.335
241.096
241.915
241.798
240.74
238.741
235.816
231.973
227.238
221.663
215.297
208.227
200.552
192.342
183.678
174.639
165.289
155.701
145.955
136.121
126.29
116.566
107.028
97.761
88.84
80.325
72.286
64.763
57.76
51.291
45.359
39.956
35.089
30.751
26.914
23.547
20.601
18.001
15.7
13.648
11.79
10.083
8.467
6.896
5.353
3.824
2.3
0.779
-0.749
-2.289
-3.823
-5.332
-6.786
-8.143
-9.378
-10.473
-11.408
-12.169
-12.739
-13.102
-13.26
-13.225
-13.006
-12.616
-12.065
-11.364
-10.536
-9.608
-8.61
-7.573
-6.524
-5.479
-4.458
-3.478
-2.55
-1.688
-0.897
-0.178
0.466
1.031
1.515
1.915
2.231
2.467
2.626
2.714
2.733
2.687
2.579
2.412
2.188
1.909
1.577
1.192
0.758
0.277
-0.246
-0.808
-1.402
-2.025
-2.673
-3.339
-4.021
-4.713
-5.412
-6.114
-6.816
-7.514
-8.204
-8.884
-9.549
-10.198
-10.827
-11.436
-12.024
-12.59
-13.134
-13.657
-14.16
-14.645
-15.112
-15.563
-15.999
-16.423
-16.835
-17.24
-17.638
-18.033
-18.428
-18.826
-19.233
-19.651
-20.086
-20.54
-21.016
-21.519
-22.051
-22.617
-23.218
-23.856
-24.536
-25.261
-26.038
-26.87
-27.756
-28.693
-29.681
-30.717
-31.799
-32.923
-34.081
-35.263
-36.469
-37.7
-38.955
-40.235
-41.531
-42.834
-44.138
-45.434
-46.724
-48.01
-49.282
-50.533
-51.761
-52.963
-54.14
-55.299
-56.412
-57.461
-58.428
-59.294
-60.056
-60.707
-61.23
-61.618
-61.86
-61.944
-61.875
-61.659
-61.286
-60.763
-60.094
-59.283
-58.37
-57.387
-56.346
-55.269
-54.165
-53.041
-51.918
-50.806
-49.695
-48.587
-47.478
-46.359
-45.239
-44.106
-42.931
-41.698
-40.371
-38.931
-37.396
-35.773
-34.08
-32.349
-30.61
-28.907
-27.32
-25.906
-24.712
-23.796
-23.2
-22.986
-23.246
-24.046
-25.443
-27.467
-30.106
-33.337
-37.13
-41.423
-46.14
-51.189
-56.44
-61.786
-67.137
-72.386
-77.438
-82.18
-86.482
-90.232
-93.358
-95.834
-97.681
-98.961
-99.733
-100.06
-100.042
-99.821
-99.562
-99.418
-99.521
-99.955
-100.855
-102.489
-105.016
-108.421
-112.516
-116.804
-120.754
-124.029
-126.136
-126.334
-124.233
-119.925
-113.953
-107.667
-102.567
-99.59
-99.811
-104.769
-114.132
-125.431
-136.149
-142.266
-142.63
-140.611
-135.516
-123.508
-96.561
-42.387
43.154
155.938
286.557
421.857
554.409
679.275
788.349
871.266
910.86
891.147
807.292
663.032
475.066
268.747
68.564
-101.734
-226.457
-300.602
-328.048
-319.671
-286.863
-241.37
-193.181
-151.58
-125.704
-118.192
-125.688
-139.273
-149.603
-153.112
-150.939
-148.004
-147.506
-148.683
-149.645
-147.948
-142.776
-135.203
-126.356
-117.207
-108.555
-100.893
-94.482
-89.453
-85.68
-82.892
-80.931
-79.715
-79.138
-79.096
-79.505
-80.25
-81.255
-82.473
-83.803
-85.169
-86.531
-87.857
-89.151
-90.421
-91.653
-92.828
-93.921
-94.889
-95.688
-96.262
-96.542
-96.492
-96.103
-95.379
-94.344
-93.009
-91.364
-89.404
-87.119
-84.498
-81.544
-78.257
-74.644
-70.729
-66.547
-62.144
-57.58
-52.897
-48.118
-43.257
-38.31
-33.278
-28.161
-22.959
-17.671
-12.3
-6.849
-1.327
4.25
9.872
15.53
21.222
26.957
32.739
38.563
44.42
50.285
56.138
61.956
67.718
73.409
79.019
84.542
89.989
95.381
100.744
106.112
111.498
116.899
122.315
127.737
133.158
138.581
143.995
149.383
154.728
159.995
165.142
170.114
174.824
179.162
183.016
186.267
188.824
190.618
191.575
191.631
190.729
188.811
185.845
181.812
176.686
170.463
163.168
154.844
145.589
135.538
124.83
113.61
102.009
90.15
78.17
66.21
54.409
42.893
31.773
21.15
11.142
1.854
-6.642
-14.302
-21.124
-27.145
-32.403
-36.941
-40.808
-44.057
-46.762
-49.006
-50.876
-52.442
-53.766
-54.912
-55.955
-56.969
-58.006
-59.097
-60.249
-61.453
-62.704
-63.99
-65.296
-66.594
-67.849
-69.019
-70.061
-70.946
-71.653
-72.162
-72.45
-72.498
-72.296
-71.848
-71.168
-70.272
-69.174
-67.893
-66.448
-64.867
-63.181
-61.42
-59.619
-57.803
-55.993
-54.209
-52.468
-50.783
-49.168
-47.626
-46.16
-44.773
-43.468
-42.247
-41.114
-40.066
-39.102
-38.219
-37.414
-36.683
-36.024
-35.435
-34.913
-34.456
-34.062
-33.73
-33.458
-33.245
-33.086
-32.978
-32.917
-32.897
-32.915
-32.966
-33.044
-33.146
-33.267
-33.404
-33.553
-33.711
-33.876
-34.044
-34.215
-34.386
-34.556
-34.723
-34.888
-35.051
-35.211
-35.369
-35.525
-35.681
-35.837
-35.995
-36.155
-36.319
-36.488
-36.664
-36.849
-37.044
-37.251
-37.472
-37.708
-37.962
-38.235
-38.528
-38.843
-39.181
-39.543
-39.929
-40.34
-40.776
-41.235
-41.718
-42.221
-42.743
-43.283
-43.835
-44.398
-44.966
-45.536
-46.102
-46.661
-47.206
-47.732
-48.234
-48.706
-49.141
-49.535
-49.88
-50.17
-50.4
-50.563
-50.653
-50.665
-50.593
-50.433
-50.18
-49.828
-49.375
-48.817
-48.15
-47.372
-46.482
-45.478
-44.36
-43.13
-41.791
-40.346
-38.799
-37.159
-35.431
-33.624
-31.748
-29.813
-27.832
-25.817
-23.781
-21.739
-19.703
-17.688
-15.711
-13.784
-11.924
-10.144
-8.457
-6.88
-5.43
-4.121
-2.967
-1.978
-1.164
-0.533
-0.095
0.137
0.156
-0.041
-0.46
-1.105
-1.979
-3.084
-4.408
-5.928
-7.61
-9.419
-11.324
-13.294
-15.297
-17.296
-19.253
-21.126
-22.88
-24.483
-25.904
-27.109
-28.064
-28.754
-29.185
-29.412
-29.528
-29.63
-29.82
-30.179
-30.759
-31.637
-32.926
-34.716
-37.094
-40.133
-43.813
-48.22
-53.554
-59.796
-66.753
-74.015
-80.809
-86.483
-90.682
-92.803
-92.128
-88.516
-82.151
-73.84
-65.28
-57.833
-52.326
-49.862
-51.535
-56.214
-61.164
-63.535
-58.965
-46.941
-31.195
-10.551
17.618
58.726
123.926
215.321
328.831
458.709
592.533
720.976
834.587
919.578
961.796
947.121
869.983
735.207
558.218
362.986
172.109
5.338
-122.834
-206.392
-244.806
-242.43
-210.062
-161.267
-110.4
-72.309
-53.862
-53.993
-66.028
-77.434
-81.341
-77.614
-69.107
-62.444
-60.085
-59.954
-59.997
-57.696
-52.301
-45.017
-36.827
-28.492
-20.798
-14.372
-9.556
-6.53
-5.226
-5.334
-6.634
-8.995
-12.182
-15.931
-20.005
-24.13
-28.109
-31.824
-35.128
-37.906
-40.091
-41.613
-42.44
-42.567
-41.976
-40.68
-38.718
-36.124
-32.959
-29.294
-25.211
-20.826
-16.249
-11.57
-6.867
-2.189
2.435
6.978
11.426
15.778
20.028
24.185
28.262
32.261
36.197
40.093
43.978
47.901
51.906
56.02
60.265
64.652
69.184
73.86
78.67
83.587
88.59
93.661
98.785
103.965
109.194
114.459
119.742
125.016
130.264
135.486
140.682
145.853
151.016
156.191
161.419
166.768
172.289
178.014
183.955
190.098
196.431
202.951
209.647
216.504
223.49
230.55
237.627
244.673
251.611
258.344
264.742
270.623
275.838
280.269
283.824
286.446
288.072
288.632
288.071
286.361
283.492
279.48
274.338
268.06
260.688
252.297
243.007
233.004
222.452
211.48
200.21
188.748
177.211
165.736
154.451
143.443
132.793
122.571
112.854
103.749
95.327
87.613
80.604
74.245
68.487
63.307
58.676
54.55
50.88
47.587
44.594
41.864
39.357
37.032
34.843
32.718
30.601
28.469
26.315
24.15
21.984
19.814
17.641
15.489
13.385
11.368
9.481
7.741
6.159
4.75
3.527
2.511
1.717
1.142
0.773
0.6
0.608
0.789
1.134
1.617
2.212
2.891
3.621
4.383
5.161
5.936
6.695
7.427
8.121
8.774
9.387
9.958
10.486
10.969
11.405
11.798
12.15
12.467
12.753
13.013
13.25
13.467
13.669
13.857
14.034
14.2
14.356
14.502
14.641
14.773
14.901
15.028
15.155
15.282
15.413
15.547
15.686
15.829
15.975
16.124
16.274
16.423
16.569
16.711
16.845
16.968
17.076
17.166
17.235
17.277
17.289
17.266
17.203
17.097
16.943
16.735
16.471
16.145
15.754
15.293
14.759
14.149
13.459
12.686
11.829
10.884
9.85
8.726
7.511
6.204
4.806
3.318
1.743
0.083
-1.66
-3.479
-5.371
-7.329
-9.347
-11.42
-13.541
-15.704
-17.901
-20.126
-22.373
-24.635
-26.904
-29.17
-31.422
-33.65
-35.844
-37.991
-40.08
-42.098
-44.035
-45.881
-47.629
-49.271
-50.798
-52.199
-53.461
-54.575
-55.538
-56.347
-56.999
-57.497
-57.849
-58.067
-58.178
-58.198
-58.137
-57.999
-57.782
-57.484
-57.11
-56.662
-56.14
-55.546
-54.876
-54.134
-53.333
-52.47
-51.535
-50.505
-49.335
-48.003
-46.511
-44.868
-43.101
-41.244
-39.331
-37.413
-35.555
-33.811
-32.231
-30.849
-29.685
-28.775
-28.175
-27.955
-28.202
-28.98
-30.322
-32.245
-34.749
-37.798
-41.341
-45.296
-49.548
-53.999
-58.574
-63.203
-67.831
-72.394
-76.792
-80.919
-84.671
-87.945
-90.669
-92.789
-94.281
-95.188
-95.601
-95.647
-95.471
-95.183
-94.878
-94.685
-94.725
-95.136
-96.086
-97.661
-99.983
-103.3
-107.666
-112.969
-118.932
-124.864
-130.101
-134.31
-136.959
-137.337
-135.374
-131.283
-125.765
-120.67
-117.271
-115.846
-117.263
-122.437
-130.961
-141.946
-152.31
-155.994
-148.666
-128.577
-96.638
-55.748
-8.234
46.112
113.27
198.328
303.879
432.265
573.66
712.139
832.429
909.929
925.241
871.378
745.278
562.549
353.728
147.703
-24.654
-144.165
-211.898
-236.9
-235.382
-221.773
-201.193
-176.123
-149.465
-127.968
-119.203
-126.536
-146.066
-167.154
-182.096
-188.014
-187.029
-185.258
-184.899
-185.296
-185.184
-182.303
-176.474
-168.95
-160.51
-152.106
-144.56
-138.059
-132.738
-128.635
-125.499
-123.159
-121.538
-120.523
-120.005
-119.921
-120.21
-120.827
-121.749
-122.914
-124.223
-125.585
-126.942
-128.272
-129.564
-130.819
-132.033
-133.195
-134.308
-135.363
-136.316
-137.105
-137.663
-137.929
-137.884
-137.528
-136.86
-135.884
-134.584
-132.949
-130.982
-128.686
-126.067
-123.133
-119.889
-116.358
-112.6
-108.673
-104.627
-100.493
-96.264
-91.931
-87.501
-82.978
-78.378
-73.703
-68.944
-64.094
-59.151
-54.109
-48.96
-43.674
-38.195
-32.494
-26.56
-20.41
-14.099
-7.656
-1.096
5.567
12.335
19.201
26.153
33.198
40.34
47.564
54.845
62.128
69.338
76.423
83.345
90.082
96.635
102.973
109.052
114.827
120.23
125.197
129.661
133.529
136.721
139.181
140.861
141.746
141.839
141.129
139.605
137.256
134.06
130.021
125.159
119.496
113.079
105.956
98.185
89.851
81.033
71.803
62.24
52.407
42.362
32.181
21.946
11.742
1.672
-8.179
-17.737
-26.928
-35.691
-43.968
-51.707
-58.877
-65.456
-71.427
-76.787
-81.532
-85.665
-89.21
-92.209
-94.716
-96.805
-98.54
-99.974
-101.163
-102.161
-103.02
-103.787
-104.498
-105.174
-105.834
-106.492
-107.157
-107.835
-108.517
-109.181
-109.796
-110.317
-110.714
-110.967
-111.056
-110.964
-110.679
-110.194
-109.513
-108.649
-107.615
-106.425
-105.094
-103.638
-102.081
-100.451
-98.779
-97.1
-95.441
-93.825
-92.27
-90.792
-89.403
-88.113
-86.925
-85.836
-84.846
-83.956
-83.163
-82.469
-81.869
-81.359
-80.933
-80.585
-80.31
-80.1
-79.951
-79.857
-79.812
-79.811
-79.848
-79.919
-80.017
-80.137
-80.269
-80.406
-80.541
-80.664
-80.77
-80.849
-80.896
-80.905
-80.87
-80.788
-80.655
-80.468
-80.225
-79.925
-79.566
-79.149
-78.674
-78.142
-77.554
-76.913
-76.22
-75.479
-74.693
-73.866
-73.002
-72.105
-71.182
-70.237
-69.276
-68.306
-67.332
-66.363
-65.405
-64.466
-63.552
-62.671
-61.829
-61.033
-60.287
-59.598
-58.969
-58.403
-57.904
-57.474
-57.113
-56.824
-56.605
-56.456
-56.376
-56.363
-56.414
-56.525
-56.694
-56.914
-57.18
-57.487
-57.828
-58.196
-58.583
-58.982
-59.383
-59.778
-60.157
-60.51
-60.827
-61.097
-61.311
-61.458
-61.529
-61.514
-61.406
-61.196
-60.877
-60.444
-59.892
-59.216
-58.413
-57.48
-56.417
-55.223
-53.9
-52.451
-50.878
-49.186
-47.384
-45.479
-43.481
-41.401
-39.251
-37.045
-34.798
-32.524
-30.238
-27.955
-25.69
-23.458
-21.276
-19.161
-17.128
-15.197
-13.384
-11.705
-10.176
-8.809
-7.611
-6.589
-5.749
-5.095
-4.643
-4.402
-4.38
-4.585
-5.025
-5.7
-6.607
-7.727
-9.024
-10.462
-12.006
-13.616
-15.267
-16.925
-18.55
-20.107
-21.537
-22.789
-23.822
-24.587
-25.038
-25.147
-24.909
-24.373
-23.636
-22.805
-21.972
-21.206
-20.583
-20.217
-20.222
-20.708
-21.801
-23.544
-26.026
-29.479
-33.942
-39.281
-45.236
-51.193
-56.542
-60.959
-63.86
-64.434
-62.542
-58.395
-52.528
-46.382
-41.107
-37.264
-36.056
-38.979
-45.071
-51.416
-55.068
-51.54
-39.987
-25.308
-8.626
11.785
39.727
87.658
165.13
273.497
412.571
572.046
734.681
883.643
997.022
1054.211
1041.556
954.32
802.439
607.938
400.049
206.468
44.985
-74.758
-151.813
-190.332
-193.514
-169.567
-130.078
-87.322
-56.577
-44.905
-50.476
-66.598
-80.377
-84.79
-80.294
-70.561
-62.877
-60.378
-61.418
-63.32
-62.989
-59.5
-53.775
-46.798
-39.403
-32.094
-25.266
-19.472
-15.078
-12.162
-10.666
-10.413
-11.266
-13.126
-15.806
-19.077
-22.725
-26.569
-30.473
-34.329
-38.033
-41.5
-44.676
-47.522
-49.998
-52.059
-53.637
-54.672
-55.136
-55.021
-54.342
-53.125
-51.406
-49.232
-46.668
-43.777
-40.604
-37.179
-33.514
-29.616
-25.505
-21.207
-16.763
-12.22
-7.607
-2.943
1.758
6.49
11.253
16.056
20.921
25.877
30.94
36.115
41.4
46.786
52.27
57.848
63.517
69.271
75.103
81.005
86.97
92.997
99.073
105.177
111.287
117.376
123.426
129.431
135.39
141.304
147.184
153.047
158.921
164.846
170.842
176.915
183.061
189.262
195.502
201.777
208.067
214.343
220.57
226.694
232.66
238.417
243.884
248.958
253.534
257.486
260.711
263.145
264.727
265.416
265.173
263.949
261.716
258.478
254.239
249.018
242.846
235.742
227.769
219.028
209.625
199.686
189.33
178.645
167.721
156.655
145.537
134.479
123.585
112.928
102.582
92.619
83.101
74.108
65.687
57.842
50.575
43.873
37.716
32.103
27.025
22.449
18.338
14.642
11.291
8.247
5.47
2.912
0.533
-1.723
-3.899
-6.009
-8.061
-10.061
-12.01
-13.916
-15.785
-17.6
-19.341
-20.983
-22.482
-23.817
-24.972
-25.927
-26.669
-27.183
-27.453
-27.485
-27.288
-26.874
-26.255
-25.44
-24.439
-23.274
-21.971
-20.557
-19.065
-17.52
-15.942
-14.351
-12.764
-11.197
-9.665
-8.174
-6.728
-5.33
-3.986
-2.7
-1.478
-0.323
0.767
1.791
2.751
3.646
4.477
5.244
5.947
6.585
7.158
7.667
8.108
8.484
8.795
9.043
9.231
9.364
9.444
9.475
9.461
9.407
9.318
9.196
9.046
8.872
8.678
8.468
8.244
8.01
7.769
7.523
7.274
7.024
6.775
6.527
6.282
6.041
5.805
5.575
5.352
5.136
4.928
4.727
4.533
4.345
4.161
3.979
3.798
3.615
3.428
3.235
3.032
2.818
2.59
2.344
2.08
1.794
1.485
1.15
0.787
0.397
-0.023
-0.471
-0.949
-1.454
-1.985
-2.54
-3.117
-3.714
-4.329
-4.959
-5.603
-6.259
-6.926
-7.601
-8.282
-8.966
-9.646
-10.318
-10.974
-11.608
-12.21
-12.775
-13.293
-13.759
-14.169
-14.519
-14.805
-15.021
-15.161
-15.216
-15.182
-15.056
-14.838
-14.532
-14.144
-13.687
-13.182
-12.652
-12.111
-11.573
-11.044
-10.522
-10.008
-9.503
-9.003
-8.517
-8.049
-7.6
-7.178
-6.783
-6.405
-6.032
-5.633
-5.17
-4.629
-4.006
-3.306
-2.561
-1.801
-1.061
-0.397
0.156
0.562
0.777
0.774
0.522
-0.026
-0.919
-2.214
-3.98
-6.242
-9.001
-12.242
-15.914
-19.957
-24.302
-28.847
-33.5
-38.176
-42.779
-47.23
-51.456
-55.371
-58.888
-61.942
-64.488
-66.531
-68.133
-69.358
-70.277
-70.988
-71.628
-72.379
-73.421
-74.915
-76.964
-79.693
-83.347
-88.073
-93.833
-100.369
-107.113
-113.483
-119.108
-123.544
-126.099
-126.379
-124.475
-121.082
-117.764
-115.914
-116.364
-119.997
-127.783
-140.239
-155.56
-169.5
-177.408
-174.69
-161.607
-142.881
-118.107
-85.371
-38.73
34.938
138.133
267.63
418.257
573.327
719.97
846.47
934.479
970.485
942.277
843.445
682.701
479.254
261.448
59.991
-99.718
-202.842
-248.528
-245.598
-213.057
-170.996
-134.294
-115.992
-117.038
-131.804
-153.72
-170.729
-177.999
-177.546
-172.586
-170.119
-173.159
-179.501
-186.396
-190.75
-191.318
-188.947
-184.601
-179.037
-172.791
-166.4
-160.533
-155.609
-151.766
-148.888
-146.72
-145.136
-144.046
-143.306
-142.746
-142.221
-141.654
-141.048
-140.459
-139.889
-139.301
-138.646
-137.889
-137.042
-136.139
-135.223
-134.331
-133.486
-132.711
-132.03
-131.464
-131.007
-130.623
-130.243
-129.763
-129.112
-128.247
-127.142
-125.779
-124.129
-122.152
-119.824
-117.13
-114.067
-110.63
-106.813
-102.607
-98.029
-93.119
-87.937
-82.569
-77.078
-71.502
-65.873
-60.205
-54.516
-48.831
-43.157
-37.493
-31.845
-26.219
-20.637
-15.134
-9.729
-4.433
0.758
5.87
10.913
15.89
20.8
25.637
30.399
35.1
39.738
44.301
48.787
53.195
57.544
61.879
66.228
70.609
75.018
79.424
83.799
88.114
92.327
96.389
100.236
103.779
106.95
109.703
111.985
113.749
114.923
115.41
115.133
114.042
112.108
109.334
105.73
101.306
96.106
90.198
83.673
76.647
69.215
61.445
53.412
45.188
36.861
28.545
20.33
12.279
4.454
-3.104
-10.35
-17.235
-23.748
-29.904
-35.735
-41.287
-46.586
-51.636
-56.451
-61.045
-65.431
-69.627
-73.624
-77.401
-80.946
-84.256
-87.338
-90.205
-92.843
-95.219
-97.297
-99.043
-100.436
-101.462
-102.094
-102.304
-102.082
-101.449
-100.453
-99.153
-97.585
-95.775
-93.735
-91.483
-89.051
-86.483
-83.817
-81.082
-78.308
-75.536
-72.825
-70.24
-67.819
-65.558
-63.425
-61.388
-59.432
-57.557
-55.767
-54.054
-52.407
-50.816
-49.281
-47.811
-46.401
-45.035
-43.677
-42.285
-40.842
-39.355
-37.856
-36.369
-34.904
-33.467
-32.062
-30.7
-29.391
-28.134
-26.919
-25.73
-24.562
-23.418
-22.311
-21.256
-20.255
-19.301
-18.377
-17.472
-16.578
-15.69
-14.801
-13.9
-12.98
-12.043
-11.095
-10.146
-9.198
-8.254
-7.311
-6.37
-5.434
-4.507
-3.593
-2.699
-1.827
-0.983
-0.175
0.589
1.304
1.966
2.57
3.115
3.597
4.012
4.356
4.629
4.828
4.95
4.994
4.958
4.841
4.642
4.364
4.006
3.572
3.062
2.48
1.83
1.116
0.34
-0.494
-1.381
-2.317
-3.299
-4.322
-5.382
-6.473
-7.591
-8.73
-9.882
-11.041
-12.2
-13.352
-14.49
-15.606
-16.695
-17.749
-18.765
-19.738
-20.661
-21.529
-22.339
-23.087
-23.766
-24.372
-24.899
-25.341
-25.696
-25.961
-26.134
-26.214
-26.198
-26.088
-25.886
-25.592
-25.206
-24.727
-24.148
-23.469
-22.697
-21.843
-20.924
-19.956
-18.953
-17.934
-16.924
-15.941
-15
-14.104
-13.245
-12.422
-11.644
-10.923
-10.285
-9.745
-9.304
-8.963
-8.722
-8.574
-8.521
-8.545
-8.614
-8.714
-8.848
-9.043
-9.358
-9.838
-10.505
-11.383
-12.478
-13.8
-15.373
-17.196
-19.253
-21.532
-24.016
-26.705
-29.628
-32.777
-36.116
-39.582
-43.062
-46.464
-49.72
-52.758
-55.518
-57.948
-60.014
-61.744
-63.22
-64.527
-65.745
-66.916
-68.074
-69.321
-70.786
-72.605
-74.932
-77.847
-81.454
-85.996
-91.582
-98.128
-105.388
-112.813
-119.826
-126.097
-131.172
-134.317
-135.141
-133.703
-130.447
-126.518
-123.102
-120.823
-120.373
-122.993
-128.428
-134.092
-137.208
-134.286
-124.201
-111.192
-97.732
-81.062
-54.42
-5.865
74.074
183.862
315.576
457.714
598.109
729.545
844.504
932.507
978.915
967.613
890.862
748.974
556.896
343.548
136.879
-34.339
-150.135
-210.877
-223.346
-201.173
-164.012
-120.928
-80.147
-53.968
-45.424
-57.513
-89.699
-126.483
-155.952
-171.685
-168.373
-154.383
-140.325
-130.111
-128.288
-132.923
-137.549
-140.139
-139.205
-134.711
-129.61
-125.338
-122.078
-120.062
-118.833
-118.01
-117.723
-117.971
-118.569
-119.36
-120.203
-120.95
-121.507
-121.837
-121.884
-121.611
-121.041
-120.194
-119.094
-117.79
-116.336
-114.778
-113.163
-111.529
-109.898
-108.293
-106.753
-105.289
-103.908
-102.588
-101.275
-99.928
-98.516
-97.007
-95.372
-93.586
-91.621
-89.477
-87.18
-84.758
-82.236
-79.629
-76.922
-74.118
-71.227
-68.26
-65.237
-62.155
-58.985
-55.707
-52.307
-48.766
-45.071
-41.183
-37.03
-32.558
-27.726
-22.512
-16.921
-10.959
-4.626
2.061
9.069
16.347
23.822
31.437
39.164
46.976
54.852
62.755
70.634
78.441
86.146
93.721
101.149
108.408
115.466
122.298
128.892
135.245
141.353
147.19
152.698
157.803
162.434
166.533
170.046
172.928
175.124
176.582
177.264
177.142
176.203
174.446
171.868
168.467
164.263
159.297
153.646
147.407
140.662
133.477
125.91
118.021
109.884
101.58
93.18
84.749
76.348
68.04
59.898
51.992
44.366
37.048
30.033
23.314
16.904
10.838
5.164
-0.078
-4.876
-9.222
-13.109
-16.535
-19.509
-22.061
-24.251
-26.127
-27.721
-29.049
-30.109
-30.905
-31.463
-31.82
-32.026
-32.121
-32.131
-32.08
-31.995
-31.892
-31.779
-31.639
-31.429
-31.121
-30.702
-30.168
-29.528
-28.787
-27.939
-26.982
-25.913
-24.734
-23.448
-22.058
-20.562
-18.968
-17.289
-15.547
-13.78
-12.013
-10.266
-8.553
-6.883
-5.265
-3.709
-2.22
-0.795
0.565
1.86
3.088
4.245
5.331
6.349
7.303
8.199
9.041
9.831
10.573
11.269
11.919
12.524
13.083
13.593
14.053
14.461
14.818
15.125
15.382
15.591
15.752
15.867
15.938
15.967
15.954
15.901
15.81
15.681
15.516
15.316
15.081
14.813
14.51
14.174
13.804
13.401
12.962
12.49
11.984
11.445
10.874
10.273
9.643
8.987
8.306
7.604
6.883
6.146
5.395
4.634
3.863
3.086
2.304
1.518
0.73
-0.058
-0.845
-1.632
-2.416
-3.199
-3.978
-4.753
-5.524
-6.288
-7.046
-7.793
-8.527
-9.246
-9.947
-10.626
-11.283
-11.914
-12.518
-13.094
-13.641
-14.161
-14.651
-15.111
-15.54
-15.936
-16.297
-16.62
-16.902
-17.14
-17.33
-17.467
-17.549
-17.573
-17.533
-17.423
-17.234
-16.958
-16.595
-16.145
-15.608
-14.991
-14.299
-13.546
-12.746
-11.917
-11.07
-10.217
-9.363
-8.516
-7.682
-6.868
-6.084
-5.335
-4.61
-3.901
-3.188
-2.45
-1.667
-0.81
0.158
1.265
2.53
3.959
5.549
7.287
9.155
11.13
13.191
15.305
17.42
19.477
21.402
23.118
24.556
25.642
26.292
26.435
26.019
25.013
23.412
21.241
18.533
15.329
11.675
7.626
3.26
-1.328
-6.023
-10.712
-15.293
-19.664
-23.715
-27.342
-30.464
-33.029
-35.035
-36.547
-37.638
-38.393
-38.889
-39.184
-39.356
-39.53
-39.853
-40.461
-41.469
-42.933
-44.936
-47.686
-51.28
-55.628
-60.416
-65.014
-68.79
-71.344
-72.246
-70.865
-66.86
-60.318
-51.865
-42.95
-34.927
-28.679
-25.164
-25.363
-29.835
-37.121
-43.617
-45.385
-38.487
-23.042
-2.713
23.497
57.812
105.395
176.647
272.331
388.866
522.633
661.408
795.783
915.26
1000.311
1033.709
1000.852
895.767
729.678
525.113
312.906
122.274
-27.12
-123.925
-171.379
-178.37
-153.357
-111.335
-62.911
-18.583
7.285
12.063
-1.697
-26.667
-48.455
-61.309
-65.527
-63.95
-63.255
-65.176
-68.015
-70.352
-70.068
-66.934
-62.241
-56.868
-51.745
-47.696
-44.924
-43.439
-43.157
-43.765
-45.026
-46.815
-48.962
-51.26
-53.54
-55.646
-57.458
-58.931
-59.999
-60.583
-60.641
-60.154
-59.163
-57.758
-56.029
-54.061
-51.942
-49.751
-47.568
-45.463
-43.486
-41.666
-40.031
-38.584
-37.318
-36.213
-35.222
-34.297
-33.387
-32.426
-31.351
-30.102
-28.612
-26.829
-24.716
-22.243
-19.396
-16.185
-12.623
-8.741
-4.6
-0.257
4.225
8.799
13.442
18.143
22.889
27.667
32.466
37.278
42.11
46.97
51.858
56.791
61.799
66.928
72.249
77.833
83.731
89.984
96.614
103.614
110.974
118.677
126.684
134.956
143.446
152.104
160.89
169.752
178.62
187.401
195.988
204.263
212.122
219.458
226.162
232.143
237.326
241.652
245.082
247.588
249.143
249.726
249.323
247.917
245.506
242.112
237.77
232.527
226.448
219.597
212.053
203.91
195.245
186.133
176.651
166.864
156.84
146.658
136.389
126.117
115.946
105.954
96.206
86.77
77.686
69.003
60.776
53.023
45.767
39.024
32.792
27.077
21.884
17.195
12.986
9.214
5.809
2.718
-0.094
-2.669
-5.036
-7.237
-9.328
-11.34
-13.292
-15.204
-17.081
-18.933
-20.777
-22.607
-24.406
-26.148
-27.788
-29.3
-30.675
-31.899
-32.968
-33.872
-34.592
-35.124
-35.479
-35.664
-35.689
-35.563
-35.29
-34.886
-34.38
-33.797
-33.172
-32.528
-31.882
-31.247
-30.636
-30.06
-29.529
-29.049
-28.617
-28.233
-27.899
-27.618
-27.391
-27.218
-27.093
-27.011
-26.967
-26.955
-26.972
-27.015
-27.079
-27.162
-27.261
-27.376
-27.506
-27.651
-27.807
-27.973
-28.146
-28.322
-28.499
-28.676
-28.849
-29.016
-29.176
-29.327
-29.469
-29.601
-29.721
-29.829
-29.925
-30.008
-30.078
-30.135
-30.18
-30.213
-30.234
-30.245
-30.246
-30.24
-30.227
-30.208
-30.186
-30.162
-30.138
-30.115
-30.096
-30.082
-30.074
-30.076
-30.088
-30.113
-30.152
-30.208
-30.283
-30.377
-30.494
-30.635
-30.803
-30.999
-31.225
-31.482
-31.772
-32.098
-32.459
-32.857
-33.293
-33.767
-34.279
-34.828
-35.414
-36.034
-36.686
-37.366
-38.072
-38.801
-39.548
-40.309
-41.082
-41.863
-42.649
-43.435
-44.217
-44.99
-45.748
-46.486
-47.196
-47.872
-48.504
-49.084
-49.603
-50.055
-50.43
-50.72
-50.911
-50.99
-50.947
-50.778
-50.479
-50.05
-49.493
-48.814
-48.028
-47.154
-46.212
-45.217
-44.182
-43.115
-42.028
-40.939
-39.862
-38.813
-37.797
-36.81
-35.844
-34.888
-33.917
-32.899
-31.79
-30.529
-29.074
-27.399
-25.484
-23.325
-20.917
-18.253
-15.342
-12.209
-8.889
-5.437
-1.913
1.619
5.067
8.314
11.235
13.685
15.549
16.743
17.193
16.848
15.67
13.626
10.722
7.002
2.523
-2.637
-8.386
-14.631
-21.237
-28.028
-34.819
-41.407
-47.614
-53.303
-58.352
-62.668
-66.18
-68.845
-70.661
-71.671
-71.948
-71.597
-70.744
-69.537
-68.161
-66.796
-65.677
-65.108
-65.285
-66.29
-68.023
-70.119
-72.19
-73.973
-75.137
-75.257
-74.063
-71.471
-67.983
-64.814
-63.252
-64.239
-68.256
-75.66
-86.797
-101.601
-118.81
-134.737
-144.034
-142.211
-127.037
-100.638
-66.986
-27.248
20.498
84.051
171.253
283.385
416.459
558.132
694.177
813.216
903.833
956.388
959.699
903.242
784.485
610.472
401.386
187.09
-4.24
-149.751
-237.659
-271.391
-259.989
-217.083
-160.013
-101.807
-56.233
-34.2
-36.12
-57.191
-85.637
-108.083
-119.835
-121.334
-117.553
-114.949
-114.61
-115.283
-115.262
-112.457
-107.01
-100.163
-92.714
-85.6
-79.516
-74.581
-70.843
-68.254
-66.584
-65.707
-65.606
-66.256
-67.574
-69.476
-71.859
-74.606
-77.644
-80.885
-84.208
-87.519
-90.75
-93.847
-96.794
-99.586
-102.193
-104.574
-106.671
-108.383
-109.645
-110.425
-110.704
-110.495
-109.816
-108.683
-107.128
-105.187
-102.885
-100.242
-97.264
-93.945
-90.298
-86.352
-82.147
-77.753
-73.22
-68.58
-63.856
-59.06
-54.2
-49.283
-44.304
-39.241
-34.081
-28.814
-23.443
-17.978
-12.422
-6.776
-1.037
4.8
10.727
16.731
22.796
28.908
35.052
41.214
47.374
53.503
59.573
65.568
71.482
77.315
83.072
88.755
94.37
99.928
105.453
110.961
116.459
121.945
127.406
132.822
138.168
143.414
148.529
153.462
158.151
162.521
166.491
169.979
172.913
175.21
176.782
177.554
177.468
176.483
174.581
171.754
168.009
163.366
157.855
151.529
144.459
136.733
128.453
119.717
110.618
101.254
91.726
82.129
72.547
63.049
53.686
44.505
35.546
26.84
18.411
10.268
2.411
-5.175
-12.513
-19.62
-26.505
-33.18
-39.656
-45.939
-52.034
-57.936
-63.631
-69.106
-74.352
-79.357
-84.112
-88.6
-92.806
-96.709
-100.29
-103.534
-106.436
-108.99
-111.196
-113.059
-114.583
-115.783
-116.676
-117.278
-117.607
-117.678
-117.509
-117.119
-116.527
-115.754
-114.82
-113.746
-112.549
-111.248
-109.86
-108.4
-106.884
-105.326
-103.736
-102.127
-100.512
-98.902
-97.309
-95.743
-94.213
-92.728
-91.297
-89.927
-88.624
-87.391
-86.234
-85.154
-84.154
-83.235
-82.397
-81.64
-80.963
-80.363
-79.84
-79.388
-79.006
-78.69
-78.436
-78.241
-78.099
-78.008
-77.965
-77.964
-78.005
-78.082
-78.194
-78.338
-78.51
-78.708
-78.931
-79.175
-79.44
-79.723
-80.022
-80.336
-80.663
-81.003
-81.354
-81.716
-82.087
-82.467
-82.857
-83.256
-83.666
-84.086
-84.519
-84.964
-85.425
-85.901
-86.394
-86.906
-87.436
-87.987
-88.557
-89.149
-89.761
-90.394
-91.047
-91.72
-92.412
-93.123
-93.851
-94.595
-95.353
-96.125
-96.909
-97.702
-98.506
-99.317
-100.136
-100.961
-101.791
-102.625
-103.462
-104.299
-105.134
-105.962
-106.781
-107.587
-108.376
-109.144
-109.888
-110.605
-111.293
-111.949
-112.572
-113.159
-113.708
-114.214
-114.675
-115.085
-115.442
-115.74
-115.976
-116.144
-116.241
-116.267
-116.218
-116.094
-115.89
-115.599
-115.217
-114.745
-114.186
-113.544
-112.828
-112.046
-111.212
-110.351
-109.485
-108.637
-107.825
-107.059
-106.347
-105.696
-105.118
-104.62
-104.206
-103.863
-103.572
-103.322
-103.097
-102.881
-102.651
-102.363
-101.982
-101.48
-100.836
-100.05
-99.133
-98.091
-96.94
-95.714
-94.456
-93.235
-92.134
-91.216
-90.542
-90.17
-90.149
-90.542
-91.396
-92.736
-94.571
-96.891
-99.668
-102.867
-106.443
-110.315
-114.386
-118.541
-122.643
-126.579
-130.259
-133.596
-136.554
-139.133
-141.351
-143.267
-144.944
-146.415
-147.762
-149.104
-150.548
-152.236
-154.308
-156.822
-159.934
-163.903
-168.77
-174.435
-180.613
-186.666
-192.056
-196.493
-199.433
-200.186
-198.564
-194.664
-189.083
-183.169
-177.971
-174.059
-172.293
-173.757
-177.579
-181.014
-181.08
-173.643
-157.877
-138.395
-117.02
-92.6
-61.306
-11.163
66.874
173.719
307.478
457.023
605.875
738.48
837.284
885.564
872.293
794.201
655.487
471.502
266.018
63.915
-109.558
-237.082
-313.254
-342.366
-336.682
-308.917
-270.021
-228.052
-189.622
-161.653
-147.255
-144.981
-147.806
-148.209
-143.713
-136.336
-132.122
-134.607
-142.162
-151.401
-158.735
-162.574
-163.356
-161.361
-156.315
-148.316
-138.295
-127.705
-117.679
-108.635
-100.543
-93.44
-87.768
-83.889
-81.656
-80.543
-80.025
-79.811
-79.864
-80.223
-80.783
-81.397
-81.998
-82.599
-83.271
-84.05
-84.882
-85.653
-86.238
-86.502
-86.365
-85.794
-84.758
-83.256
-81.293
-78.874
-76.028
-72.787
-69.183
-65.254
-61.03
-56.54
-51.837
-46.987
-42.077
-37.225
-32.518
-28.017
-23.769
-19.801
-16.128
-12.76
-9.691
-6.91
-4.386
-2.077
0.078
2.151
4.221
6.363
8.664
11.22
14.121
17.449
21.271
25.633
30.576
36.136
42.35
49.263
56.883
65.185
74.111
83.567
93.463
103.72
114.246
124.94
135.688
146.365
156.859
167.075
176.896
186.203
194.846
202.653
209.494
215.286
219.979
223.571
226.052
227.407
227.643
226.787
224.881
221.99
218.168
213.463
207.954
201.748
194.982
187.835
180.445
172.914
165.328
157.739
150.203
142.783
135.515
128.418
121.507
114.789
108.278
101.997
95.945
90.098
84.416
78.833
73.306
67.817
62.353
56.915
51.506
46.13
40.804
35.562
30.432
25.438
20.599
15.927
11.442
7.174
3.153
-0.584
-4.011
-7.113
-9.876
-12.295
-14.366
-16.091
-17.48
-18.55
-19.315
-19.79
-19.986
-19.915
-19.59
-19.029
-18.247
-17.262
-16.09
-14.746
-13.247
-11.608
-9.845
-7.971
-6
-3.943
-1.813
0.376
2.611
4.879
7.167
9.463
11.754
14.03
16.279
18.494
20.665
22.787
24.853
26.858
28.799
30.673
32.477
34.211
35.875
37.467
38.99
40.444
41.829
43.148
44.402
45.593
46.722
47.792
48.806
49.765
50.672
51.529
52.34
53.105
53.829
54.513
55.159
55.77
56.349
56.896
57.415
57.906
58.371
58.81
59.222
59.608
59.967
60.296
60.593
60.857
61.085
61.274
61.422
61.528
61.588
61.601
61.566
61.482
61.345
61.157
60.914
60.618
60.268
59.863
59.404
58.892
58.328
57.713
57.049
56.338
55.581
54.78
53.938
53.056
52.138
51.188
50.209
49.206
48.186
47.154
46.116
45.082
44.057
43.048
42.063
41.107
40.185
39.303
38.465
37.676
36.939
36.261
35.647
35.102
34.633
34.247
33.947
33.738
33.624
33.606
33.685
33.861
34.134
34.504
34.973
35.547
36.227
37.01
37.89
38.857
39.897
40.988
42.11
43.237
44.351
45.435
46.481
47.489
48.459
49.391
50.28
51.114
51.88
52.57
53.179
53.707
54.165
54.568
54.941
55.312
55.697
56.102
56.514
56.904
57.238
57.468
57.558
57.484
57.223
56.758
56.069
55.136
53.929
52.416
50.564
48.343
45.742
42.766
39.448
35.84
32.013
28.062
24.073
20.125
16.296
12.652
9.251
6.16
3.437
1.133
-0.724
-2.149
-3.18
-3.875
-4.3
-4.508
-4.592
-4.703
-4.978
-5.547
-6.54
-7.997
-10.029
-12.889
-16.623
-21.11
-26.091
-30.967
-35.209
-38.573
-40.506
-40.22
-37.573
-32.758
-26.35
-19.804
-14.197
-10.017
-8.542
-11.357
-17.385
-23.647
-27.208
-23.627
-13.466
-2.798
8.449
23.361
49.581
102.534
187.843
302.176
437.99
579.939
716.506
838.489
935.709
995.963
1002.128
943.514
816.134
630.628
417.301
207.141
31.369
-87.733
-150.91
-165.93
-147.019
-114.366
-77.759
-46.571
-31.057
-30.759
-44.957
-68.252
-87.526
-98.081
-99.685
-94.533
-90.231
-89.233
-89.504
-89.386
-86.271
-79.422
-70.224
-59.679
-48.527
-37.563
-27.4
-18.438
-10.99
-5.146
-0.773
2.163
3.653
3.8
2.762
0.721
-2.136
-5.649
-9.69
-14.096
-18.679
-23.262
-27.696
-31.881
-35.716
-39.111
-41.975
-44.212
-45.77
-46.627
-46.777
-46.253
-45.098
-43.369
-41.149
-38.526
-35.588
-32.433
-29.134
-25.726
-22.245
-18.709
-15.126
-11.533
-7.95
-4.385
-0.847
2.677
6.211
9.773
13.407
17.164
21.094
25.27
29.74
34.517
39.601
44.963
50.559
56.366
62.365
68.528
74.837
81.265
87.779
94.361
100.978
107.585
114.133
120.552
126.781
132.791
138.561
144.094
149.408
154.507
159.388
164.056
168.502
172.716
176.689
180.396
183.816
186.936
189.75
192.262
194.477
196.387
197.978
199.231
200.118
200.618
200.714
200.387
199.625
198.422
196.776
194.692
192.183
189.258
185.924
182.19
178.063
173.557
168.687
163.472
157.932
152.09
145.97
139.599
133.003
126.209
119.243
112.131
104.897
97.566
90.166
82.721
75.258
67.804
60.384
53.025
45.751
38.588
31.557
24.682
17.981
11.475
5.181
-0.885
-6.708
-12.274
-17.572
-22.592
-27.325
-31.763
-35.904
-39.741
-43.275
-46.506
-49.433
-52.062
-54.396
-56.442
-58.207
-59.699
-60.928
-61.904
-62.639
-63.144
-63.432
-63.517
-63.413
-63.133
-62.692
-62.105
-61.386
-60.549
-59.608
-58.577
-57.471
-56.3
-55.08
-53.82
-52.533
-51.23
-49.921
-48.614
-47.319
-46.043
-44.793
-43.575
-42.394
-41.254
-40.16
-39.113
-38.116
-37.171
-36.278
-35.438
-34.65
-33.913
-33.226
-32.588
-31.996
-31.448
-30.942
-30.475
-30.046
-29.651
-29.288
-28.956
-28.651
-28.371
-28.115
-27.88
-27.664
-27.466
-27.285
-27.118
-26.967
-26.83
-26.707
-26.598
-26.504
-26.424
-26.36
-26.312
-26.281
-26.267
-26.271
-26.295
-26.339
-26.405
-26.494
-26.607
-26.746
-26.913
-27.108
-27.332
-27.587
-27.872
-28.189
-28.539
-28.92
-29.335
-29.782
-30.263
-30.776
-31.322
-31.9
-32.509
-33.146
-33.811
-34.501
-35.212
-35.944
-36.693
-37.454
-38.226
-39.006
-39.791
-40.579
-41.368
-42.154
-42.936
-43.71
-44.475
-45.226
-45.958
-46.665
-47.341
-47.982
-48.582
-49.138
-49.645
-50.097
-50.491
-50.824
-51.094
-51.296
-51.422
-51.462
-51.41
-51.268
-51.038
-50.732
-50.355
-49.912
-49.414
-48.876
-48.305
-47.706
-47.073
-46.39
-45.65
-44.857
-44.02
-43.159
-42.285
-41.397
-40.495
-39.572
-38.624
-37.648
-36.628
-35.537
-34.368
-33.134
-31.869
-30.636
-29.479
-28.424
-27.494
-26.695
-26.04
-25.553
-25.253
-25.158
-25.3
-25.709
-26.43
-27.532
-29.048
-30.977
-33.289
-35.906
-38.759
-41.793
-44.957
-48.202
-51.49
-54.768
-57.993
-61.126
-64.1
-66.841
-69.268
-71.282
-72.808
-73.823
-74.35
-74.463
-74.273
-73.873
-73.339
-72.765
-72.249
-71.908
-71.864
-72.209
-73.03
-74.45
-76.666
-79.819
-83.877
-88.589
-93.492
-98.099
-102.038
-104.932
-106.201
-105.392
-102.595
-98.464
-94.139
-90.754
-88.939
-89.15
-92.261
-99.12
-108.578
-117.304
-121.55
-117.369
-104.085
-85.674
-63.471
-36.122
-0.478
53.037
131.791
236.346
365.166
509.477
654.713
786.66
889.672
946.775
944.922
878.636
749.47
571.768
370.909
172.314
0.395
-127.645
-207.339
-240.978
-236.614
-207.707
-167.117
-127.265
-100.174
-90.089
-95.639
-111.02
-125.198
-132.802
-133.964
-131.031
-129.935
-132.548
-136.615
-140.173
-140.8
-137.768
-132.238
-125.14
-117.236
-109.358
-102.193
-96.151
-91.451
-88.06
-85.735
-84.357
-83.91
-84.314
-85.423
-87.091
-89.171
-91.538
-94.131
-96.85
-99.563
-102.168
-104.583
-106.757
-108.682
-110.352
-111.741
-112.813
-113.512
-113.781
-113.592
-112.944
-111.849
-110.336
-108.438
-106.193
-103.653
-100.866
-97.865
-94.668
-91.276
-87.691
-83.928
-80.013
-75.992
-71.905
-67.778
-63.63
-59.469
-55.299
-51.116
-46.907
-42.649
-38.325
-33.924
-29.443
-24.89
-20.267
-15.581
-10.84
-6.043
-1.195
3.704
8.662
13.681
18.76
23.894
29.073
34.291
39.555
44.867
50.227
55.639
61.102
66.627
72.244
77.969
83.807
89.747
95.756
101.798
107.843
113.845
119.752
125.495
130.987
136.155
140.947
145.308
149.191
152.535
155.258
157.303
158.63
159.215
159.059
158.159
156.51
154.133
151.071
147.376
143.12
138.349
133.084
127.348
121.163
114.554
107.562
100.21
92.513
84.487
76.15
67.53
58.671
49.599
40.328
30.881
21.279
11.573
1.844
-7.834
-17.388
-26.739
-35.807
-44.511
-52.77
-60.523
-67.726
-74.352
-80.392
-85.837
-90.682
-94.94
-98.641
-101.838
-104.606
-107.013
-109.122
-111.002
-112.729
-114.376
-116.008
-117.677
-119.409
-121.228
-123.149
-125.177
-127.315
-129.548
-131.851
-134.186
-136.505
-138.773
-140.959
-143.034
-144.969
-146.74
-148.327
-149.72
-150.925
-151.945
-152.782
-153.446
-153.944
-154.294
-154.518
-154.639
-154.685
-154.675
-154.625
-154.547
-154.452
-154.348
-154.238
-154.124
-154.002
-153.869
-153.725
-153.569
-153.401
-153.218
-153.019
-152.799
-152.554
-152.284
-151.986
-151.661
-151.307
-150.928
-150.523
-150.095
-149.648
-149.185
-148.706
-148.213
-147.707
-147.189
-146.659
-146.118
-145.568
-145.01
-144.444
-143.873
-143.298
-142.723
-142.148
-141.575
-141.007
-140.446
-139.893
-139.351
-138.822
-138.307
-137.809
-137.331
-136.874
-136.441
-136.033
-135.653
-135.302
-134.982
-134.695
-134.442
-134.225
-134.045
-133.903
-133.8
-133.736
-133.714
-133.732
-133.79
-133.89
-134.029
-134.207
-134.424
-134.677
-134.965
-135.286
-135.639
-136.021
-136.429
-136.86
-137.312
-137.781
-138.263
-138.753
-139.247
-139.741
-140.227
-140.702
-141.159
-141.591
-141.993
-142.357
-142.677
-142.945
-143.155
-143.3
-143.372
-143.366
-143.276
-143.097
-142.823
-142.449
-141.973
-141.391
-140.7
-139.897
-138.983
-137.955
-136.814
-135.562
-134.198
-132.726
-131.149
-129.472
-127.701
-125.843
-123.908
-121.904
-119.842
-117.734
-115.593
-113.429
-111.256
-109.087
-106.933
-104.807
-102.723
-100.694
-98.735
-96.86
-95.079
-93.406
-91.85
-90.416
-89.109
-87.932
-86.889
-85.985
-85.23
-84.628
-84.188
-83.914
-83.809
-83.869
-84.079
-84.413
-84.841
-85.329
-85.844
-86.358
-86.836
-87.243
-87.543
-87.687
-87.626
-87.315
-86.702
-85.746
-84.408
-82.674
-80.577
-78.19
-75.601
-72.9
-70.16
-67.45
-64.881
-62.588
-60.693
-59.32
-58.527
-58.385
-59.097
-60.777
-63.373
-66.644
-70.043
-72.993
-75.157
-76.136
-75.271
-72.164
-66.806
-59.709
-52.197
-45.426
-40.068
-36.944
-37.089
-41.338
-48.246
-53.766
-53.566
-43.505
-24.817
-3.841
18.759
44.994
82.464
147.132
243.523
369.447
520.385
679.71
835.292
975.575
1078.41
1124.315
1094.899
979.678
791.379
559.21
321.805
116.926
-32.025
-118.563
-149.967
-139.177
-101.897
-52.714
-4.052
29.701
41.931
33.659
11.575
-9.464
-20.994
-22.316
-16.308
-11.157
-10.368
-11.998
-13.888
-12.861
-7.768
0.134
9.784
20.208
30.42
39.688
47.566
53.808
58.434
61.688
63.682
64.416
64.015
62.667
60.561
57.92
54.911
51.657
48.363
45.249
42.51
40.313
38.738
37.81
37.546
37.947
39.013
40.749
43.127
46.104
49.63
53.627
58.015
62.701
67.55
72.43
77.21
81.766
86.026
89.963
93.562
96.835
99.81
102.508
104.979
107.289
109.488
111.632
113.773
115.952
118.24
120.72
123.483
126.634
130.249
134.361
138.992
144.14
149.776
155.86
162.325
169.065
175.997
183.053
190.184
197.361
204.552
211.702
218.755
225.644
232.308
238.708
244.81
250.582
256.014
261.118
265.932
270.54
275.013
279.384
283.66
287.824
291.842
295.692
299.34
302.734
305.84
308.625
311.066
313.168
314.922
316.289
317.209
317.585
317.319
316.354
314.651
312.187
308.962
304.979
300.271
294.91
288.955
282.441
275.383
267.76
259.562
250.819
241.585
231.936
221.966
211.753
201.378
190.933
180.507
170.174
159.976
149.917
140.007
130.287
120.822
111.709
103.029
94.831
87.144
79.983
73.353
67.245
61.634
56.46
51.652
47.16
42.957
39.043
35.413
32.044
28.89
25.892
23.006
20.201
17.455
14.747
12.056
9.378
6.73
4.15
1.69
-0.617
-2.758
-4.73
-6.535
-8.167
-9.615
-10.87
-11.933
-12.809
-13.503
-14.016
-14.35
-14.513
-14.527
-14.425
-14.242
-14.005
-13.733
-13.441
-13.142
-12.848
-12.572
-12.319
-12.09
-11.888
-11.717
-11.583
-11.493
-11.449
-11.452
-11.498
-11.585
-11.712
-11.877
-12.079
-12.316
-12.587
-12.892
-13.231
-13.605
-14.014
-14.456
-14.93
-15.432
-15.961
-16.513
-17.086
-17.676
-18.281
-18.898
-19.525
-20.159
-20.799
-21.443
-22.09
-22.738
-23.386
-24.032
-24.676
-25.317
-25.954
-26.588
-27.217
-27.843
-28.465
-29.085
-29.703
-30.321
-30.94
-31.563
-32.192
-32.829
-33.477
-34.141
-34.824
-35.528
-36.259
-37.019
-37.813
-38.643
-39.513
-40.426
-41.383
-42.386
-43.436
-44.533
-45.676
-46.866
-48.102
-49.381
-50.704
-52.067
-53.47
-54.911
-56.389
-57.9
-59.44
-61.004
-62.588
-64.186
-65.791
-67.395
-68.989
-70.563
-72.108
-73.615
-75.074
-76.471
-77.794
-79.027
-80.158
-81.18
-82.085
-82.871
-83.536
-84.081
-84.514
-84.85
-85.097
-85.263
-85.356
-85.375
-85.329
-85.225
-85.068
-84.868
-84.625
-84.332
-83.98
-83.556
-83.035
-82.393
-81.6
-80.612
-79.407
-77.969
-76.29
-74.378
-72.235
-69.872
-67.316
-64.595
-61.751
-58.844
-55.937
-53.104
-50.44
-48.034
-45.981
-44.386
-43.327
-42.87
-43.07
-43.961
-45.573
-47.926
-51.009
-54.791
-59.217
-64.208
-69.672
-75.507
-81.579
-87.763
-93.93
-99.945
-105.695
-111.076
-115.996
-120.381
-124.153
-127.258
-129.67
-131.41
-132.566
-133.248
-133.576
-133.673
-133.647
-133.628
-133.781
-134.271
-135.247
-136.833
-139.082
-142.121
-146.167
-151.264
-157.282
-163.77
-170.077
-175.644
-179.95
-182.441
-181.952
-177.883
-170.712
-161.481
-153.767
-148.525
-147.594
-161.074
-171.647
-148.194
-129.618
-162.271
-195.633
-180.432
-146.072
-117.001
-79.917
-26.421
45.381
140.383
254.616
379.277
508.012
631.817
741.865
829.995
880.724
878.525
816.649
694.188
523.578
329.303
135.9
-31.608
-155.757
-233.011
-268.469
-274.67
-263.569
-241.427
-212.014
-178.273
-147.407
-128.824
-127.472
-141.782
-163.144
-181.956
-193.2
-197.274
-198.426
-199.623
-201.305
-202.373
-200.853
-196.341
-189.789
-182.162
-174.625
-168.003
-162.457
-158.063
-154.759
-152.248
-150.334
-148.888
-147.753
-146.795
-145.934
-145.101
-144.281
-143.528
-142.846
-142.188
-141.496
-140.714
-139.838
-138.896
-137.931
-136.977
-136.055
-135.184
-134.39
-133.698
-133.106
-132.583
-132.063
-131.449
-130.677
-129.712
-128.536
-127.137
-125.487
-123.548
-121.295
-118.714
-115.799
-112.544
-108.934
-104.957
-100.623
-95.967
-91.041
-85.923
-80.667
-75.306
-69.867
-64.368
-58.824
-53.255
-47.663
-42.038
-36.378
-30.681
-24.955
-19.209
-13.446
-7.658
-1.834
4.044
9.98
15.975
22.022
28.113
34.232
40.364
46.482
52.557
58.559
64.463
70.246
75.886
81.36
86.642
91.708
96.535
101.1
105.383
109.365
113.027
116.352
119.328
121.941
124.184
126.048
127.525
128.61
129.296
129.582
129.465
128.946
128.028
126.713
125.01
122.925
120.471
117.66
114.506
111.026
107.238
103.16
98.813
94.22
89.401
84.38
79.181
73.828
68.345
62.755
57.084
51.354
45.591
39.816
34.052
28.323
22.648
17.049
11.547
6.16
0.907
-4.196
-9.13
-13.881
-18.435
-22.779
-26.9
-30.79
-34.439
-37.84
-40.986
-43.875
-46.502
-48.867
-50.968
-52.809
-54.39
-55.716
-56.791
-57.622
-58.213
-58.574
-58.711
-58.633
-58.349
-57.868
-57.2
-56.356
-55.345
-54.178
-52.867
-51.422
-49.856
-48.178
-46.401
-44.537
-42.596
-40.59
-38.531
-36.428
-34.292
-32.134
-29.964
-27.789
-25.619
-23.462
-21.324
-19.212
-17.131
-15.087
-13.083
-11.123
-9.209
-7.346
-5.533
-3.773
-2.067
-0.415
1.182
2.725
4.214
5.65
7.033
8.366
9.65
10.887
12.079
13.228
14.338
15.412
16.452
17.462
18.444
19.403
20.341
21.262
22.168
23.061
23.943
24.816
25.681
26.538
27.388
28.23
29.064
29.889
30.703
31.504
32.292
33.063
33.814
34.544
35.25
35.929
36.577
37.192
37.77
38.308
38.802
39.248
39.643
39.982
40.263
40.482
40.635
40.72
40.734
40.674
40.54
40.329
40.042
39.681
39.245
38.737
38.159
37.514
36.805
36.036
35.21
34.332
33.406
32.44
31.44
30.414
29.368
28.311
27.252
26.2
25.167
24.162
23.193
22.269
21.402
20.607
19.897
19.284
18.773
18.369
18.074
17.887
17.805
17.818
17.91
18.067
18.28
18.542
18.851
19.197
19.565
19.94
20.309
20.664
21.01
21.351
21.692
22.055
22.467
22.963
23.592
24.384
25.351
26.499
27.822
29.314
30.978
32.801
34.761
36.83
38.967
41.122
43.243
45.247
47.034
48.499
49.53
50.04
49.973
49.285
47.953
45.977
43.359
40.122
36.31
31.967
27.152
21.943
16.43
10.737
5.015
-0.592
-5.939
-10.893
-15.36
-19.257
-22.547
-25.259
-27.433
-29.133
-30.421
-31.326
-31.911
-32.294
-32.597
-32.969
-33.565
-34.457
-35.769
-37.77
-40.54
-43.992
-47.87
-51.555
-54.472
-56.327
-56.681
-54.874
-50.72
-44.436
-36.592
-28.635
-21.984
-17.437
-16.055
-19.227
-26.398
-34.935
-42.07
-43.453
-37
-26.387
-13.17
3.892
27.749
69.839
141.35
245.716
383.232
544.195
709.612
859.844
973.431
1030.921
1021.397
943.399
804.101
620.629
416.606
216.3
42.704
-88.665
-171.28
-208.411
-209.754
-183.698
-141.252
-91.145
-42.128
-8.493
3.548
-6.01
-30.726
-55.672
-72.671
-79.99
-80.117
-80.117
-82.438
-85.995
-89.321
-89.993
-87.678
-83.621
-78.641
-73.68
-69.493
-66.188
-63.808
-62.281
-61.302
-60.664
-60.247
-59.922
-59.553
-59.034
-58.275
-57.217
-55.871
-54.246
-52.36
-50.233
-47.89
-45.388
-42.791
-40.172
-37.599
-35.127
-32.82
-30.747
-28.975
-27.556
-26.536
-25.94
-25.783
-26.078
-26.793
-27.881
-29.279
-30.904
-32.682
-34.543
-36.418
-38.237
-39.921
-41.377
-42.506
-43.236
-43.497
-43.23
-42.379
-40.88
-38.694
-35.817
-32.26
-28.054
-23.233
-17.827
-11.872
-5.433
1.416
8.575
15.924
23.371
30.828
38.211
45.449
52.457
59.166
65.533
71.534
77.158
82.414
87.312
91.861
96.101
100.083
103.875
107.581
111.275
115.01
118.832
122.757
126.791
130.937
135.172
139.449
143.71
147.868
151.827
155.514
158.84
161.714
164.035
165.669
166.502
166.459
165.483
163.542
160.625
156.729
151.872
146.124
139.578
132.327
124.479
116.158
107.481
98.559
89.52
80.458
71.438
62.57
53.973
45.572
37.255
29.151
21.276
13.594
6.413
-1.172
-10.052
-19.039
-27.774
-34.046
-35.199
-34.2
-33.029
-34.611
-42.957
-54.504
-66.228
-76.057
-80.571
-82.184
-83.342
-84.565
-87.327
-90.734
-93.646
-96.269
-98.452
-100.267
-101.944
-103.34
-104.348
-105.02
-105.374
-105.406
-105.13
-104.571
-103.75
-102.708
-101.489
-100.101
-98.55
-96.859
-95.043
-93.117
-91.099
-88.997
-86.822
-84.589
-82.312
-80.005
-77.683
-75.358
-73.044
-70.753
-68.496
-66.285
-64.129
-62.037
-60.016
-58.073
-56.214
-54.442
-52.763
-51.178
-49.689
-48.298
-47.003
-45.805
-44.7
-43.687
-42.762
-41.922
-41.161
-40.475
-39.86
-39.31
-38.82
-38.384
-37.997
-37.654
-37.348
-37.074
-36.826
-36.599
-36.388
-36.186
-35.989
-35.792
-35.592
-35.385
-35.166
-34.935
-34.688
-34.424
-34.142
-33.842
-33.525
-33.191
-32.844
-32.485
-32.119
-31.749
-31.379
-31.015
-30.661
-30.324
-30.007
-29.716
-29.457
-29.233
-29.05
-28.911
-28.819
-28.777
-28.788
-28.854
-28.977
-29.157
-29.397
-29.698
-30.06
-30.485
-30.971
-31.517
-32.12
-32.776
-33.483
-34.236
-35.027
-35.85
-36.695
-37.554
-38.42
-39.282
-40.128
-40.943
-41.712
-42.421
-43.062
-43.63
-44.118
-44.525
-44.851
-45.102
-45.294
-45.435
-45.531
-45.586
-45.6
-45.576
-45.526
-45.458
-45.382
-45.298
-45.198
-45.073
-44.913
-44.694
-44.385
-43.948
-43.332
-42.503
-41.448
-40.157
-38.635
-36.882
-34.895
-32.688
-30.287
-27.727
-25.057
-22.332
-19.609
-16.969
-14.516
-12.354
-10.596
-9.335
-8.629
-8.531
-9.085
-10.322
-12.269
-14.925
-18.252
-22.197
-26.696
-31.669
-37.029
-42.663
-48.423
-54.167
-59.75
-65.041
-69.941
-74.35
-78.171
-81.323
-83.748
-85.432
-86.434
-86.845
-86.761
-86.288
-85.511
-84.542
-83.538
-82.641
-81.992
-81.725
-81.917
-82.713
-84.361
-86.985
-90.59
-94.946
-99.426
-103.374
-106.261
-107.419
-106.178
-102.162
-95.177
-85.876
-76.057
-67.522
-62.013
-60.446
-62.173
-66.333
-71.767
-78.714
-88.937
-102.169
-116.149
-122.374
-107.34
-61.029
22.783
140.221
278.867
427.669
575.566
715.275
840.273
937.828
993.032
989.556
915.923
773.127
572.881
338.279
101.476
-107.536
-265.793
-360.343
-396.673
-388.265
-347.744
-291.957
-230.678
-172.342
-131.864
-114.026
-118.678
-139.919
-161.594
-175.316
-179.165
-174.844
-169.871
-166.912
-164.824
-162.49
-157.449
-149.379
-139.812
-129.734
-120.216
-112.1
-105.47
-100.329
-96.619
-94.047
-92.371
-91.453
-91.148
-91.318
-91.897
-92.821
-94.006
-95.408
-96.949
-98.543
-100.158
-101.769
-103.359
-104.928
-106.462
-107.953
-109.431
-110.927
-112.436
-113.93
-115.348
-116.604
-117.651
-118.452
-118.958
-119.135
-118.933
-118.3
-117.212
-115.646
-113.573
-110.96
-107.748
-103.873
-99.316
-94.086
-88.218
-81.786
-74.85
-67.472
-59.741
-51.725
-43.478
-35.049
-26.461
-17.731
-8.895
0.004
8.913
17.76
26.495
35.078
43.475
51.682
59.706
67.57
75.315
82.974
90.557
98.066
105.493
112.834
120.092
127.266
134.355
141.368
148.326
155.262
162.203
169.159
176.109
183.005
189.79
196.406
202.802
208.933
214.736
220.13
225.052
229.456
233.301
236.553
239.149
240.988
241.993
242.106
241.3
239.591
236.995
233.529
229.229
224.135
218.319
211.89
204.921
197.464
189.569
181.272
172.653
163.842
154.944
146.045
137.211
128.475
119.88
111.474
103.285
95.328
87.599
80.06
72.71
65.576
58.683
52.072
45.744
39.649
33.761
28.068
22.566
17.267
12.171
7.262
2.542
-1.974
-6.265
-10.297
-14.061
-17.575
-20.857
-23.932
-26.806
-29.451
-31.858
-34.028
-35.963
-37.675
-39.165
-40.428
-41.469
-42.308
-42.966
-43.468
-43.826
-44.041
-44.118
-44.058
-43.873
-43.587
-43.219
-42.779
-42.284
-41.744
-41.177
-40.601
-40.028
-39.464
-38.912
-38.379
-37.871
-37.399
-36.969
-36.588
-36.259
-35.984
-35.766
-35.605
-35.504
-35.462
-35.477
-35.549
-35.676
-35.86
-36.101
-36.397
-36.749
-37.152
-37.607
-38.109
-38.659
-39.251
-39.882
-40.55
-41.251
-41.981
-42.738
-43.518
-44.318
-45.134
-45.963
-46.801
-47.647
-48.498
-49.351
-50.205
-51.059
-51.91
-52.76
-53.605
-54.447
-55.283
-56.115
-56.94
-57.758
-58.569
-59.371
-60.164
-60.948
-61.722
-62.486
-63.238
-63.979
-64.708
-65.426
-66.132
-66.825
-67.506
-68.174
-68.829
-69.47
-70.095
-70.704
-71.295
-71.867
-72.417
-72.943
-73.441
-73.909
-74.342
-74.738
-75.092
-75.4
-75.658
-75.864
-76.013
-76.102
-76.129
-76.092
-75.988
-75.817
-75.576
-75.266
-74.887
-74.438
-73.92
-73.335
-72.684
-71.969
-71.194
-70.361
-69.478
-68.549
-67.584
-66.589
-65.576
-64.555
-63.537
-62.533
-61.554
-60.61
-59.711
-58.868
-58.091
-57.393
-56.785
-56.281
-55.891
-55.625
-55.492
-55.498
-55.645
-55.936
-56.371
-56.954
-57.695
-58.606
-59.697
-60.979
-62.459
-64.136
-66.003
-68.041
-70.22
-72.506
-74.859
-77.245
-79.632
-81.986
-84.271
-86.442
-88.443
-90.218
-91.715
-92.885
-93.683
-94.096
-94.152
-93.91
-93.476
-92.95
-92.413
-91.966
-91.734
-91.854
-92.461
-93.689
-95.604
-98.321
-102.077
-106.964
-112.888
-119.598
-126.518
-133.074
-138.914
-143.542
-146.212
-146.621
-144.933
-141.649
-138.068
-135.475
-134.55
-136.176
-141.633
-150.4
-159.767
-166.911
-167.972
-161.524
-151.228
-138.472
-120.339
-91.12
-40.272
40.483
149.27
279.788
422.667
564.715
696.073
805.376
877.21
897.925
857.32
753.792
595.325
399.125
187.82
-16.46
-191.341
-319.889
-394.967
-416.625
-392.855
-339.347
-271.624
-204.668
-154.209
-125.962
-118.682
-125.84
-133.4
-134.498
-129.749
-122.594
-120.516
-125.602
-134.591
-144.772
-153.032
-158.107
-160.53
-160.105
-156.956
-152.086
-146.804
-142.077
-138.325
-135.51
-133.469
-132.434
-132.63
-133.824
-135.457
-136.991
-138.105
-138.715
-138.871
-138.532
-137.628
-136.187
-134.339
-132.246
-130.026
-127.738
-125.386
-122.957
-120.457
-117.888
-115.232
-112.489
-109.665
-106.768
-103.823
-100.838
-97.797
-94.674
-91.427
-88.001
-84.358
-80.458
-76.267
-71.79
-67.041
-62.041
-56.832
-51.444
-45.892
-40.203
-34.391
-28.452
-22.391
-16.22
-9.952
-3.624
2.73
9.09
15.434
21.767
28.095
34.419
40.747
47.095
53.475
59.914
66.436
73.026
79.68
86.407
93.221
100.166
107.271
114.535
121.951
129.498
137.153
144.903
152.727
160.575
168.395
176.117
183.67
191.012
198.08
204.79
211.038
216.707
221.7
225.961
229.44
232.094
233.883
234.771
234.737
233.786
231.926
229.166
225.528
221.026
215.702
209.629
202.887
195.572
187.761
179.516
170.902
161.995
152.866
143.584
134.211
124.807
115.448
106.228
97.227
88.516
80.149
72.161
64.596
57.489
50.874
44.78
39.22
34.197
29.714
25.774
22.365
19.466
17.027
14.973
13.248
11.806
10.604
9.609
8.767
8.029
7.362
6.742
6.152
5.584
5.022
4.452
3.877
3.311
2.783
2.337
1.997
1.779
1.696
1.758
1.98
2.377
2.948
3.679
4.561
5.58
6.727
7.996
9.365
10.809
12.301
13.809
15.309
16.785
18.221
19.603
20.919
22.159
23.321
24.407
25.418
26.352
27.21
27.99
28.695
29.329
29.897
30.403
30.853
31.249
31.594
31.894
32.149
32.362
32.535
32.667
32.76
32.817
32.84
32.831
32.793
32.727
32.636
32.521
32.383
32.223
32.042
31.838
31.612
31.363
31.09
30.791
30.467
30.114
29.733
29.322
28.879
28.403
27.895
27.353
26.776
26.165
25.519
24.84
24.127
23.381
22.603
21.795
20.959
20.095
19.207
18.297
17.369
16.426
15.472
14.512
13.55
12.592
11.643
10.709
9.797
8.914
8.066
7.26
6.503
5.803
5.165
4.598
4.105
3.694
3.368
3.132
2.989
2.943
2.997
3.15
3.404
3.759
4.215
4.769
5.419
6.161
6.989
7.9
8.885
9.938
11.047
12.205
13.399
14.616
15.844
17.068
18.274
19.448
20.575
21.641
22.631
23.532
24.329
25.009
25.556
25.956
26.2
26.276
26.177
25.9
25.444
24.806
23.986
22.981
21.785
20.399
18.818
17.039
15.066
12.905
10.577
8.11
5.536
2.883
0.183
-2.54
-5.257
-7.933
-10.536
-13.019
-15.335
-17.441
-19.285
-20.816
-21.995
-22.808
-23.285
-23.49
-23.497
-23.368
-23.144
-22.875
-22.649
-22.578
-22.771
-23.334
-24.318
-25.801
-28
-31.026
-34.802
-39.051
-43.18
-46.601
-48.988
-49.961
-48.92
-45.613
-40.215
-33.438
-26.834
-21.719
-18.855
-19.133
-23.445
-32.194
-43.755
-54.289
-59.595
-55.722
-42.998
-25.328
-1.956
29.284
74.02
143.25
237.985
354.392
487.326
622.817
750.986
862.138
939.972
970.448
939.349
839.189
676.423
469.144
247.795
43.516
-118.366
-221.123
-265.999
-262.187
-223.181
-168.621
-112.381
-66.923
-42.112
-37.07
-46.518
-60.427
-69.117
-70.502
-66.733
-63.215
-63.545
-66.694
-70.412
-71.967
-70.21
-66.05
-60.575
-54.788
-49.555
-45.48
-42.88
-41.863
-42.276
-43.753
-46.024
-48.895
-52.107
-55.39
-58.504
-61.229
-63.441
-65.072
-66.026
-66.232
-65.659
-64.315
-62.278
-59.642
-56.484
-52.901
-48.99
-44.867
-40.679
-36.549
-32.581
-28.869
-25.48
-22.477
-19.921
-17.828
-16.179
-14.924
-13.975
-13.253
-12.701
-12.25
-11.832
-11.37
-10.766
-9.947
-8.862
-7.462
-5.708
-3.562
-0.986
2.025
5.448
9.244
13.351
17.722
22.32
27.096
32.008
37.014
42.069
47.152
52.252
57.351
62.43
67.462
72.426
77.329
82.189
87.031
91.894
96.815
101.84
107.037
112.455
118.124
124.057
130.233
136.626
143.216
149.972
156.867
163.859
170.878
177.853
184.716
191.374
197.73
203.659
208.994
213.601
217.378
220.24
222.148
223.064
222.949
221.789
219.58
216.327
212.058
206.801
200.565
193.396
185.357
176.529
167.056
157.059
146.629
135.862
124.82
113.572
102.201
90.77
79.328
67.947
56.691
45.64
34.907
24.574
14.711
5.382
-3.403
-11.624
-19.252
-26.276
-32.672
-38.425
-43.54
-48.013
-51.835
-55.036
-57.657
-59.764
-61.464
-62.841
-63.975
-64.957
-65.836
-66.657
-67.461
-68.257
-69.059
-69.886
-70.745
-71.658
-72.647
-73.702
-74.8
-75.904
-76.938
-77.85
-78.588
-79.078
-79.287
-79.199
-78.816
-78.194
-77.387
-76.43
-75.362
-74.2
-72.954
-71.659
-70.348
-69.06
-67.863
-66.805
-65.94
-65.354
-65.096
-65.189
-65.64
-66.383
-67.343
-68.468
-69.708
-71.03
-72.418
-73.84
-75.266
-76.681
-78.045
-79.325
-80.485
-81.453
-82.173
-82.612
-82.743
-82.605
-82.261
-81.75
-81.113
-80.383
-79.569
-78.692
-77.775
-76.817
-75.828
-74.819
-73.8
-72.812
-71.898
-71.087
-70.41
-69.863
-69.414
-69.048
-68.748
-68.5
-68.304
-68.154
-68.039
-67.968
-67.954
-68.004
-68.129
-68.322
-68.571
-68.866
-69.197
-69.56
-69.969
-70.428
-70.941
-71.511
-72.138
-72.821
-73.564
-74.359
-75.193
-76.054
-76.927
-77.802
-78.672
-79.53
-80.364
-81.168
-81.927
-82.632
-83.274
-83.841
-84.325
-84.714
-84.999
-85.172
-85.229
-85.166
-84.979
-84.666
-84.225
-83.656
-82.96
-82.139
-81.196
-80.134
-78.959
-77.678
-76.3
-74.836
-73.298
-71.7
-70.056
-68.383
-66.697
-65.014
-63.35
-61.721
-60.141
-58.629
-57.201
-55.875
-54.667
-53.592
-52.665
-51.899
-51.305
-50.889
-50.657
-50.61
-50.752
-51.096
-51.652
-52.43
-53.438
-54.681
-56.156
-57.857
-59.769
-61.864
-64.112
-66.477
-68.924
-71.424
-73.944
-76.452
-78.91
-81.257
-83.43
-85.37
-87.021
-88.332
-89.28
-89.863
-90.098
-90.047
-89.774
-89.34
-88.831
-88.337
-87.956
-87.804
-87.998
-88.647
-89.907
-91.981
-94.971
-98.827
-103.31
-107.961
-112.297
-115.949
-118.529
-119.486
-118.47
-115.615
-111.546
-107.508
-104.821
-104.118
-105.632
-109.886
-117.183
-126.905
-137.471
-145.193
-144.98
-133.256
-108.464
-72.018
-27.309
23.063
79.287
146.763
231
334.832
456.388
584.297
705.015
805.365
873.233
900.301
878.624
804.544
678.34
508.327
315.863
123.989
-41.464
-158.67
-224.25
-241.88
-222.957
-187.044
-144.909
-106.351
-81.854
-71.657
-75.608
-89.501
-101.728
-107.842
-107.284
-101.638
-97.425
-96.634
-97.36
-98.091
-96.478
-91.921
-85.727
-78.847
-72.002
-65.911
-61.079
-57.777
-56.15
-56.128
-57.425
-59.825
-63.182
-67.261
-71.791
-76.541
-81.277
-85.818
-90.05
-93.828
-97.03
-99.589
-101.448
-102.585
-102.999
-102.672
-101.608
-99.855
-97.473
-94.542
-91.164
-87.424
-83.409
-79.214
-74.918
-70.59
-66.285
-62.024
-57.822
-53.69
-49.634
-45.666
-41.79
-37.993
-34.258
-30.561
-26.871
-23.162
-19.409
-15.581
-11.657
-7.618
-3.449
0.853
5.292
9.872
14.589
19.443
24.431
29.543
34.768
40.087
45.475
50.911
56.372
61.837
67.288
72.705
78.069
83.365
88.575
93.687
98.701
103.621
108.454
113.216
117.923
122.596
127.269
131.966
136.703
141.492
146.333
151.227
156.172
161.156
166.162
171.159
176.092
180.888
185.465
189.715
193.541
196.843
199.498
201.401
202.457
202.585
201.723
199.822
196.835
192.725
187.477
181.1
173.638
165.173
155.811
145.689
134.943
123.714
112.167
100.466
88.774
77.237
65.976
55.103
44.727
34.968
25.919
17.651
10.202
3.572
-2.262
-7.348
-11.73
-15.473
-18.655
-21.366
-23.707
-25.753
-27.564
-29.188
-30.681
-32.11
-33.534
-34.994
-36.509
-38.083
-39.707
-41.369
-43.056
-44.739
-46.382
-47.942
-49.367
-50.627
-51.706
-52.593
-53.28
-53.748
-53.984
-53.988
-53.769
-53.341
-52.716
-51.907
-50.927
-49.798
-48.549
-47.21
-45.815
-44.387
-42.943
-41.498
-40.067
-38.661
-37.294
-35.97
-34.692
-33.462
-32.285
-31.165
-30.108
-29.113
-28.178
-27.3
-26.475
-25.703
-24.979
-24.303
-23.672
-23.085
-22.542
-22.044
-21.591
-21.186
-20.827
-20.513
-20.245
-20.022
-19.844
-19.709
-19.618
-19.569
-19.563
-19.6
-19.678
-19.799
-19.96
-20.161
-20.402
-20.68
-20.995
-21.347
-21.733
-22.153
-22.608
-23.097
-23.62
-24.177
-24.768
-25.392
-26.048
-26.736
-27.454
-28.2
-28.973
-29.77
-30.589
-31.428
-32.282
-33.149
-34.026
-34.908
-35.792
-36.673
-37.547
-38.41
-39.257
-40.085
-40.889
-41.666
-42.411
-43.122
-43.795
-44.426
-45.011
-45.546
-46.029
-46.454
-46.818
-47.117
-47.347
-47.506
-47.59
-47.596
-47.524
-47.37
-47.134
-46.815
-46.414
-45.93
-45.366
-44.724
-44.006
-43.217
-42.361
-41.445
-40.475
-39.458
-38.404
-37.32
-36.217
-35.106
-33.997
-32.901
-31.83
-30.794
-29.805
-28.874
-28.012
-27.23
-26.539
-25.953
-25.484
-25.146
-24.95
-24.906
-25.019
-25.297
-25.743
-26.362
-27.16
-28.142
-29.313
-30.677
-32.241
-34.007
-35.974
-38.131
-40.448
-42.894
-45.439
-48.047
-50.692
-53.341
-55.957
-58.505
-60.947
-63.238
-65.343
-67.22
-68.819
-70.106
-71.057
-71.677
-72.038
-72.223
-72.317
-72.406
-72.534
-72.769
-73.236
-74.051
-75.329
-77.181
-79.633
-82.786
-86.897
-92.033
-98.06
-104.658
-111.121
-116.803
-121.371
-124.295
-124.826
-122.705
-118.124
-111.779
-105.271
-100.097
-97.048
-97.11
-101.569
-109.722
-118.847
-126.152
-127.408
-121.454
-111.642
-97.311
-74.777
-36.818
27.635
121.986
241.304
375.98
513.391
645.592
767.035
870.061
945.3
977.546
953.18
868.391
725.09
537.723
331.983
131.95
-35.888
-151.536
-213.99
-229.259
-210.763
-177.64
-139.421
-104.169
-81.401
-72.632
-79.012
-97.406
-116.753
-131.779
-140.358
-142.783
-144.695
-147.521
-150.049
-151.533
-149.688
-144.141
-136.246
-126.859
-117.103
-108.105
-100.216
-93.583
-88.29
-84.101
-80.849
-78.517
-77.037
-76.307
-76.266
-76.842
-77.958
-79.584
-81.645
-84.009
-86.551
-89.146
-91.716
-94.234
-96.684
-99.042
-101.276
-103.348
-105.197
-106.773
-108.02
-108.872
-109.291
-109.26
-108.779
-107.873
-106.575
-104.917
-102.917
-100.584
-97.919
-94.931
-91.628
-88.027
-84.159
-80.058
-75.769
-71.353
-66.855
-62.304
-57.719
-53.102
-48.446
-43.745
-38.99
-34.174
-29.295
-24.355
-19.359
-14.316
-9.237
-4.133
0.989
6.133
11.302
16.494
21.704
26.913
32.095
37.224
42.283
47.258
52.147
56.949
61.674
66.344
70.995
75.679
80.437
85.292
90.251
95.316
100.49
105.786
111.218
116.783
122.453
128.18
133.907
139.565
145.071
150.311
155.14
159.393
162.927
165.619
167.377
168.107
167.715
166.105
163.187
158.913
153.278
146.301
138.021
128.499
117.826
106.142
93.641
80.529
66.998
53.23
39.391
25.661
12.238
-0.687
-12.936
-24.37
-34.894
-44.427
-52.904
-60.292
-66.586
-71.829
-76.117
-79.546
-82.207
-84.2
-85.616
-86.579
-87.235
-87.711
-88.126
-88.572
-89.114
-89.815
-90.73
-91.889
-93.305
-94.962
-96.821
-98.846
-101.008
-103.264
-105.573
-107.876
-110.095
-112.175
-114.073
-115.756
-117.204
-118.401
-119.331
-119.996
-120.408
-120.584
-120.55
-120.325
-119.926
-119.375
-118.701
-117.934
-117.111
-116.257
-115.392
-114.529
-113.681
-112.857
-112.063
-111.301
-110.566
-109.857
-109.17
-108.506
-107.863
-107.241
-106.635
-106.04
-105.452
-104.866
-104.281
-103.695
-103.105
-102.511
-101.91
-101.303
-100.69
-100.071
-99.445
-98.808
-98.161
-97.499
-96.823
-96.13
-95.418
-94.686
-93.934
-93.162
-92.369
-91.556
-90.723
-89.87
-88.997
-88.106
-87.198
-86.272
-85.331
-84.375
-83.407
-82.427
-81.438
-80.442
-79.439
-78.43
-77.419
-76.405
-75.391
-74.378
-73.367
-72.359
-71.358
-70.365
-69.381
-68.408
-67.447
-66.499
-65.566
-64.647
-63.743
-62.853
-61.977
-61.113
-60.259
-59.415
-58.577
-57.745
-56.915
-56.086
-55.256
-54.422
-53.583
-52.737
-51.88
-51.01
-50.124
-49.216
-48.284
-47.324
-46.331
-45.301
-44.231
-43.114
-41.95
-40.734
-39.461
-38.124
-36.714
-35.223
-33.65
-31.998
-30.272
-28.481
-26.635
-24.749
-22.849
-20.956
-19.089
-17.262
-15.483
-13.758
-12.104
-10.538
-9.082
-7.755
-6.558
-5.486
-4.536
-3.691
-2.928
-2.21
-1.473
-0.661
0.266
1.331
2.537
3.884
5.384
7.048
8.882
10.885
13.038
15.311
17.686
20.124
22.573
24.959
27.169
29.094
30.662
31.828
32.574
32.892
32.763
32.177
31.145
29.685
27.825
25.592
22.99
20.042
16.777
13.225
9.45
5.51
1.445
-2.688
-6.876
-11.148
-15.514
-19.999
-24.654
-29.447
-34.418
-39.734
-45.322
-50.958
-56.299
-60.655
-63.453
-64.443
-63.067
-58.579
-50.939
-40.492
-28.04
-15.382
-3.915
5.671
11.944
13.246
10.565
6.62
4.258
8.39
19.69
33.945
52.608
78.749
118.05
182.685
276.02
394.608
533.174
679.735
824.281
956.024
1060.582
1121.959
1122.461
1054.14
918.979
730.752
516.584
302.668
112.938
-32.6
-125.569
-164.62
-154.451
-110.229
-50.475
6.377
42.093
50.73
36.542
9.435
-14.359
-26.848
-28.567
-23.235
-19.119
-19.366
-21.764
-24.135
-23.515
-18.982
-11.888
-3.295
5.92
14.884
23.014
29.991
35.637
40.019
43.387
45.845
47.407
48.186
48.336
48.001
47.328
46.388
45.196
43.824
42.371
40.919
39.534
38.229
36.985
35.803
34.689
33.661
32.741
31.928
31.216
30.612
30.12
29.752
29.53
29.463
29.56
29.854
30.374
31.155
32.234
33.624
35.334
37.373
39.743
42.455
45.512
48.905
52.625
56.669
61.028
65.683
70.605
75.735
81.022
86.437
91.952
97.553
103.226
108.945
114.686
120.432
126.161
131.85
137.471
142.984
148.351
153.557
158.602
163.51
168.294
172.948
177.472
181.865
186.135
190.299
194.368
198.345
202.24
206.077
209.875
213.661
217.451
221.243
225.017
228.743
232.39
235.937
239.352
242.586
245.577
248.251
250.536
252.373
253.689
254.4
254.435
253.724
252.206
249.841
246.595
242.444
237.376
231.38
224.456
216.633
207.963
198.523
188.397
177.67
166.442
154.828
142.936
130.884
118.791
106.768
94.936
83.405
72.274
61.641
51.6
42.222
33.552
25.607
18.389
11.898
6.113
1.006
-3.461
-7.343
-10.706
-13.618
-16.167
-18.433
-20.486
-22.399
-24.246
-26.087
-27.967
-29.914
-31.941
-34.059
-36.274
-38.584
-40.982
-43.445
-45.945
-48.448
-50.905
-53.28
-55.543
-57.664
-59.618
-61.384
-62.95
-64.312
-65.479
-66.456
-67.251
-67.873
-68.334
-68.649
-68.842
-68.935
-68.957
-68.928
-68.867
-68.788
-68.704
-68.624
-68.557
-68.504
-68.464
-68.436
-68.421
-68.421
-68.435
-68.464
-68.506
-68.557
-68.616
-68.68
-68.751
-68.827
-68.909
-68.999
-69.099
-69.211
-69.339
-69.486
-69.653
-69.842
-70.053
-70.288
-70.547
-70.832
-71.143
-71.481
-71.847
-72.243
-72.67
-73.129
-73.62
-74.144
-74.701
-75.29
-75.912
-76.567
-77.253
-77.971
-78.72
-79.5
-80.311
-81.15
-82.018
-82.911
-83.829
-84.769
-85.728
-86.704
-87.694
-88.697
-89.709
-90.728
-91.753
-92.778
-93.801
-94.819
-95.827
-96.821
-97.796
-98.745
-99.664
-100.549
-101.396
-102.2
-102.959
-103.669
-104.329
-104.937
-105.491
-105.987
-106.42
-106.787
-107.083
-107.304
-107.444
-107.499
-107.465
-107.338
-107.12
-106.81
-106.406
-105.904
-105.297
-104.584
-103.767
-102.85
-101.837
-100.736
-99.557
-98.319
-97.048
-95.769
-94.502
-93.255
-92.031
-90.835
-89.673
-88.552
-87.478
-86.447
-85.45
-84.484
-83.549
-82.642
-81.751
-80.848
-79.887
-78.833
-77.672
-76.406
-75.054
-73.632
-72.161
-70.671
-69.201
-67.81
-66.552
-65.467
-64.592
-63.965
-63.634
-63.667
-64.149
-65.138
-66.661
-68.717
-71.276
-74.305
-77.756
-81.56
-85.632
-89.858
-94.138
-98.383
-102.502
-106.4
-109.983
-113.142
-115.76
-117.769
-119.148
-119.912
-120.13
-119.869
-119.183
-118.17
-116.966
-115.744
-114.681
-113.922
-113.576
-113.805
-114.859
-116.899
-119.906
-123.592
-127.41
-130.848
-133.549
-135.08
-134.784
-132.201
-127.435
-121.304
-115.227
-110.459
-107.665
-107.494
-111.036
-119.003
-129.895
-139.975
-145.017
-141.847
-131.203
-115.584
-93.499
-59.192
-4.297
77.215
184.277
307.601
434.76
558.413
673.538
777.881
868.786
932.638
952.316
912.938
806.269
641.159
440.133
233.049
48.703
-93.545
-184.978
-229.571
-237.062
-218.141
-185.587
-148.317
-114.644
-92.26
-82.684
-84.256
-90.467
-94.038
-92.659
-87.468
-82.995
-82.551
-85.63
-89.879
-92.363
-91.867
-88.947
-84.595
-79.758
-74.95
-70.558
-67.128
-64.978
-64.117
-64.369
-65.402
-66.96
-68.894
-71.024
-73.159
-75.142
-76.838
-78.171
-79.105
-79.621
-79.747
-79.525
-79.001
-78.239
-77.297
-76.228
-75.101
-73.971
-72.858
-71.768
-70.678
-69.554
-68.396
-67.205
-65.981
-64.705
-63.324
-61.785
-60.049
-58.08
-55.847
-53.32
-50.462
-47.251
-43.699
-39.827
-35.674
-31.293
-26.711
-21.951
-17.034
-11.978
-6.805
-1.54
3.803
9.217
14.69
20.206
25.745
31.287
36.818
42.33
47.82
53.293
58.754
64.203
69.639
75.054
80.44
85.79
91.109
96.399
101.658
106.894
112.11
117.318
122.552
127.831
133.164
138.555
143.984
149.421
154.841
160.211
165.487
170.612
175.508
180.084
184.27
187.996
191.193
193.79
195.688
196.804
197.079
196.467
194.951
192.528
189.2
184.981
179.917
174.071
167.534
160.418
152.807
144.784
136.433
127.836
119.1
110.322
101.573
92.917
84.401
76.066
67.954
60.099
52.505
45.165
38.06
31.151
24.423
17.868
11.477
5.244
-0.846
-6.802
-12.622
-18.292
-23.803
-29.145
-34.312
-39.298
-44.083
-48.645
-52.959
-56.998
-60.744
-64.187
-67.318
-70.133
-72.631
-74.812
-76.685
-78.264
-79.562
-80.59
-81.357
-81.875
-82.158
-82.223
-82.086
-81.764
-81.273
-80.626
-79.84
-78.927
-77.901
-76.775
-75.558
-74.26
-72.893
-71.467
-69.994
-68.483
-66.947
-65.393
-63.832
-62.274
-60.726
-59.197
-57.693
-56.221
-54.786
-53.395
-52.052
-50.761
-49.524
-48.345
-47.226
-46.169
-45.174
-44.241
-43.37
-42.563
-41.818
-41.136
-40.519
-39.964
-39.471
-39.041
-38.672
-38.362
-38.108
-37.903
-37.745
-37.629
-37.552
-37.511
-37.503
-37.523
-37.57
-37.642
-37.737
-37.851
-37.977
-38.102
-38.22
-38.331
-38.438
-38.547
-38.664
-38.791
-38.934
-39.105
-39.308
-39.544
-39.803
-40.062
-40.308
-40.537
-40.751
-40.963
-41.177
-41.381
-41.564
-41.713
-41.811
-41.848
-41.8
-41.627
-41.311
-40.852
-40.272
-39.623
-38.939
-38.237
-37.528
-36.813
-36.104
-35.425
-34.796
-34.23
-33.748
-33.368
-33.129
-33.091
-33.281
-33.698
-34.311
-35.056
-35.887
-36.777
-37.697
-38.624
-39.526
-40.369
-41.135
-41.818
-42.404
-42.876
-43.203
-43.336
-43.263
-42.989
-42.539
-41.958
-41.277
-40.515
-39.698
-38.846
-37.983
-37.122
-36.258
-35.367
-34.436
-33.441
-32.369
-31.211
-29.933
-28.508
-26.911
-25.115
-23.113
-20.904
-18.489
-15.884
-13.11
-10.2
-7.209
-4.207
-1.266
1.516
4.046
6.235
7.974
9.186
9.802
9.768
9.056
7.654
5.573
2.848
-0.475
-4.343
-8.683
-13.408
-18.416
-23.571
-28.745
-33.811
-38.64
-43.126
-47.169
-50.695
-53.656
-56.044
-57.913
-59.338
-60.411
-61.22
-61.838
-62.357
-62.921
-63.697
-64.835
-66.474
-68.686
-71.558
-75.29
-79.961
-85.472
-91.524
-97.525
-102.886
-107.251
-110.206
-111.11
-109.559
-105.552
-99.608
-93.003
-86.909
-82
-78.946
-78.666
-81.916
-87.442
-91.897
-91.465
-81.992
-63.703
-41.246
-14.813
16.785
58.684
123.311
214.349
330.17
466.357
608.443
744.493
863.107
950.076
993.061
979.41
902.803
764.27
577.006
367.946
165.036
-2.643
-115.321
-173.454
-185.111
-165.872
-134.999
-101.186
-72.158
-56.074
-52.874
-63.03
-82.389
-99.456
-109.728
-112.51
-109.621
-107.869
-109.271
-111.808
-113.833
-112.902
-108.404
-101.669
-93.625
-84.955
-76.408
-68.55
-61.715
-56.114
-51.705
-48.25
-45.638
-43.858
-42.853
-42.532
-42.804
-43.559
-44.715
-46.219
-47.97
-49.851
-51.749
-53.582
-55.307
-56.906
-58.37
-59.686
-60.838
-61.793
-62.503
-62.911
-62.957
-62.604
-61.842
-60.677
-59.13
-57.226
-54.997
-52.467
-49.649
-46.552
-43.175
-39.52
-35.589
-31.4
-26.986
-22.393
-17.677
-12.88
-8.028
-3.137
1.787
6.746
11.741
16.784
21.887
27.058
32.301
37.615
42.999
48.453
53.985
59.607
65.335
71.178
77.136
83.208
89.388
95.663
102.02
108.44
114.899
121.375
127.846
134.291
140.688
147.013
153.241
159.343
165.293
171.06
176.616
181.933
186.988
191.754
196.207
200.324
204.076
207.441
210.402
212.945
215.056
216.727
217.951
218.73
219.075
218.998
218.509
217.616
216.312
214.598
212.479
209.959
207.05
203.751
200.051
195.945
191.435
186.52
181.203
175.472
169.295
162.653
155.54
147.968
139.974
131.596
122.869
113.842
104.573
95.136
85.633
76.148
66.748
57.505
48.484
39.772
31.482
23.702
16.501
9.924
3.991
-1.283
-5.881
-9.814
-13.115
-15.838
-18.066
-19.861
-21.265
-22.323
-23.08
-23.597
-23.957
-24.224
-24.439
-24.64
-24.846
-25.08
-25.368
-25.715
-26.104
-26.506
-26.877
-27.193
-27.446
-27.631
-27.74
-27.766
-27.69
-27.506
-27.224
-26.852
-26.398
-25.87
-25.269
-24.61
-23.918
-23.22
-22.547
-21.921
-21.352
-20.851
-20.428
-20.088
-19.838
-19.677
-19.598
-19.598
-19.673
-19.821
-20.041
-20.329
-20.676
-21.074
-21.514
-21.99
-22.494
-23.022
-23.565
-24.12
-24.682
-25.247
-25.815
-26.382
-26.944
-27.499
-28.043
-28.572
-29.086
-29.583
-30.06
-30.518
-30.957
-31.377
-31.78
-32.169
-32.544
-32.908
-33.263
-33.612
-33.957
-34.3
-34.646
-34.995
-35.353
-35.721
-36.103
-36.501
-36.919
-37.36
-37.827
-38.321
-38.845
-39.403
-39.996
-40.626
-41.294
-42.003
-42.753
-43.543
-44.374
-45.242
-46.147
-47.084
-48.05
-49.043
-50.058
-51.092
-52.141
-53.203
-54.274
-55.349
-56.426
-57.498
-58.56
-59.605
-60.626
-61.617
-62.569
-63.475
-64.326
-65.117
-65.841
-66.49
-67.057
-67.529
-67.897
-68.159
-68.312
-68.357
-68.298
-68.143
-67.902
-67.597
-67.245
-66.862
-66.463
-66.055
-65.646
-65.241
-64.849
-64.479
-64.133
-63.802
-63.474
-63.131
-62.753
-62.316
-61.788
-61.124
-60.286
-59.246
-57.988
-56.511
-54.823
-52.939
-50.884
-48.685
-46.387
-44.049
-41.739
-39.534
-37.511
-35.751
-34.344
-33.394
-32.99
-33.206
-34.095
-35.681
-37.966
-40.932
-44.539
-48.735
-53.443
-58.574
-64.023
-69.672
-75.4
-81.085
-86.593
-91.785
-96.539
-100.742
-104.318
-107.245
-109.53
-111.224
-112.392
-113.091
-113.407
-113.465
-113.411
-113.394
-113.562
-114.024
-114.95
-116.625
-119.214
-122.698
-126.87
-131.248
-135.332
-138.744
-140.977
-141.301
-139.286
-135.036
-129.168
-122.978
-117.898
-115.019
-115.431
-120.427
-129.752
-141.136
-151.928
-159.219
-162.772
-164.356
-162.266
-150.313
-117.125
-53.143
41.359
157.916
280.781
397.585
507.962
613.666
715.163
806.122
864.614
868.736
807.029
678.468
501.319
302.651
106.604
-64.381
-197.359
-286.411
-330.457
-336.441
-313.083
-273.752
-231.528
-193.132
-164.549
-144.102
-125.927
-107.731
-86.116
