Name
Date of Birth,"Mar 27, 1959"
Recorded Date,2019-06-20 11:03:18 -0500
Classification,Sinus Rhythm
Symptoms,
Software Version,1.2
Device,"Watch4,2"
Sample Rate,510.227 hertz


Lead,Lead I
Unit,µV

20.642
24.174
27.449
30.277
32.509
34.022
34.682
34.376
33.009
30.48
26.754
21.789
15.452
7.745
-1.148
-10.944
-21.098
-30.984
-40.129
-47.915
-53.531
-56.593
-57.216
-55.843
-53.54
-51.65
-51.235
-53.27
-59.006
-68.036
-77.785
-86.819
-93.542
-96.924
-98.699
-95.198
-77.893
-40.168
23.945
112.345
213.72
319.678
424.652
526.046
624.475
712.28
775.823
802.138
779.315
707.476
594.631
448.985
286.116
119.518
-36.291
-160.502
-244.209
-286.435
-294.704
-288.348
-278.892
-270.577
-263.598
-252.097
-235.471
-217.75
-202.314
-192.874
-190.281
-192.705
-198.47
-205.715
-212.531
-217.498
-219.865
-219.574
-217.103
-213.262
-208.773
-204.248
-200.418
-197.99
-197.34
-198.569
-201.545
-205.956
-211.543
-218.104
-225.4
-233.195
-241.28
-249.471
-257.633
-265.67
-273.49
-281.007
-288.132
-294.766
-300.831
-306.266
-311.041
-315.167
-318.664
-321.564
-323.906
-325.739
-327.121
-328.123
-328.803
-329.215
-329.397
-329.376
-329.191
-328.888
-328.513
-328.116
-327.723
-327.343
-326.982
-326.638
-326.303
-325.967
-325.607
-325.197
-324.715
-324.142
-323.465
-322.675
-321.757
-320.69
-319.445
-317.992
-316.303
-314.365
-312.165
-309.697
-306.959
-303.955
-300.698
-297.213
-293.519
-289.633
-285.568
-281.326
-276.914
-272.346
-267.638
-262.812
-257.889
-252.878
-247.784
-242.609
-237.347
-231.983
-226.492
-220.826
-214.942
-208.813
-202.428
-195.795
-188.935
-181.867
-174.613
-167.191
-159.625
-151.957
-144.238
-136.518
-128.86
-121.335
-114.042
-107.113
-100.687
-94.885
-89.795
-85.475
-81.96
-79.277
-77.454
-76.514
-76.467
-77.308
-79.028
-81.621
-85.087
-89.421
-94.574
-100.448
-106.916
-113.858
-121.182
-128.826
-136.734
-144.854
-153.128
-161.497
-169.916
-178.354
-186.751
-195.023
-203.055
-210.709
-217.895
-224.569
-230.716
-236.329
-241.386
-245.848
-249.693
-252.913
-255.501
-257.452
-258.742
-259.334
-259.243
-258.529
-257.293
-255.682
-253.812
-251.768
-249.634
-247.489
-245.41
-243.476
-241.738
-240.217
-238.949
-237.978
-237.366
-237.195
-237.501
-238.275
-239.484
-241.057
-242.932
-245.055
-247.359
-249.76
-252.194
-254.607
-256.969
-259.283
-261.531
-263.682
-265.699
-267.526
-269.133
-270.513
-271.664
-272.597
-273.332
-273.888
-274.302
-274.631
-274.913
-275.171
-275.412
-275.628
-275.817
-275.984
-276.134
-276.273
-276.404
-276.521
-276.623
-276.709
-276.768
-276.787
-276.742
-276.599
-276.334
-275.931
-275.377
-274.666
-273.793
-272.749
-271.533
-270.144
-268.583
-266.848
-264.937
-262.846
-260.574
-258.123
-255.5
-252.711
-249.763
-246.663
-243.417
-240.033
-236.518
-232.879
-229.123
-225.255
-221.284
-217.217
-213.064
-208.837
-204.544
-200.198
-195.808
-191.387
-186.945
-182.494
-178.044
-173.605
-169.186
-164.799
-160.452
-156.154
-151.914
-147.739
-143.638
-139.617
-135.684
-131.845
-128.103
-124.464
-120.932
-117.51
-114.201
-111.006
-107.925
-104.959
-102.107
-99.367
-96.738
-94.217
-91.799
-89.48
-87.257
-85.124
-83.076
-81.109
-79.215
-77.389
-75.627
-73.923
-72.271
-70.664
-69.096
-67.562
-66.057
-64.577
-63.114
-61.666
-60.228
-58.8
-57.38
-55.967
-54.557
-53.15
-51.745
-50.34
-48.938
-47.538
-46.138
-44.739
-43.346
-41.964
-40.604
-39.269
-37.958
-36.668
-35.397
-34.146
-32.915
-31.7
-30.497
-29.302
-28.122
-26.971
-25.866
-24.814
-23.814
-22.858
-21.938
-21.054
-20.216
-19.434
-18.715
-18.063
-17.487
-17.006
-16.645
-16.412
-16.29
-16.243
-16.232
-16.232
-16.23
-16.219
-16.189
-16.12
-15.988
-15.771
-15.456
-15.024
-14.444
-13.674
-12.667
-11.402
-9.894
-8.186
-6.319
-4.325
-2.232
-0.063
2.154
4.386
6.61
8.811
10.98
13.101
15.144
17.071
18.851
20.476
21.966
23.363
24.706
26.03
27.375
28.776
30.26
31.851
33.549
35.343
37.213
39.14
41.113
43.108
45.09
47.002
48.776
50.333
51.602
52.511
52.985
52.966
52.424
51.343
49.733
47.62
45.033
42.015
38.62
34.922
31.009
26.989
22.974
19.075
15.402
12.053
9.119
6.651
4.639
3.048
1.824
0.912
0.279
-0.13
-0.416
-0.701
-1.114
-1.779
-2.77
-4.194
-6.274
-9.117
-12.65
-16.582
-20.314
-23.278
-25.138
-25.459
-23.604
-19.237
-12.431
-3.839
5.084
13.113
19.539
23.437
23.779
20.155
14.057
9.016
9.116
17.318
32.585
52.085
76.992
111.516
162.882
238.917
339.453
458.223
587.639
717.737
837.965
938.197
1004.462
1022.165
986.074
898.208
767.602
611.345
444.068
280.07
136.785
26.625
-42.261
-68.847
-64.355
-41.756
-12.696
12.427
30.997
41.345
42.949
40.493
36.61
33.824
33.429
32.343
29.083
23.886
18.04
14.267
13.693
15.912
20.112
25.147
30.248
34.9
38.477
40.621
41.285
40.628
38.977
36.613
33.735
30.551
27.292
24.169
21.356
18.984
17.138
15.92
15.428
15.703
16.745
18.505
20.877
23.752
27.01
30.505
34.112
37.72
41.224
44.533
47.563
50.229
52.468
54.237
55.501
56.265
56.559
56.443
56.02
55.403
54.7
54.026
53.466
53.084
52.94
53.078
53.529
54.326
55.475
56.969
58.811
60.988
63.481
66.252
69.223
72.305
75.423
78.514
81.544
84.499
87.361
90.122
92.794
95.405
98.005
100.655
103.386
106.225
109.196
112.333
115.704
119.402
123.498
128.038
133.057
138.577
144.631
151.258
158.452
166.172
174.343
182.88
191.726
200.836
210.159
219.634
229.166
238.631
247.926
256.959
265.625
273.816
281.395
288.21
294.156
299.178
303.252
306.373
308.518
309.658
309.78
308.893
307.026
304.229
300.545
296.014
290.707
284.716
278.164
271.205
263.952
256.483
248.858
241.125
233.334
225.542
217.789
210.094
202.477
194.952
187.538
180.261
173.121
166.102
159.171
152.274
145.382
138.484
131.576
124.663
117.752
110.85
103.978
97.165
90.437
83.815
77.316
70.95
64.736
58.701
52.872
47.283
41.958
36.912
32.158
27.705
23.557
19.715
16.173
12.919
9.942
7.234
4.788
2.597
0.652
-1.057
-2.543
-3.818
-4.892
-5.779
-6.489
-7.037
-7.433
-7.689
-7.816
-7.823
-7.721
-7.521
-7.235
-6.874
-6.45
-5.974
-5.458
-4.913
-4.349
-3.777
-3.206
-2.645
-2.101
-1.582
-1.094
-0.644
-0.238
0.121
0.428
0.678
0.869
0.997
1.061
1.058
0.987
0.848
0.64
0.363
0.02
-0.389
-0.862
-1.396
-1.987
-2.633
-3.329
-4.07
-4.852
-5.668
-6.512
-7.379
-8.261
-9.151
-10.043
-10.929
-11.802
-12.656
-13.482
-14.274
-15.025
-15.729
-16.379
-16.969
-17.492
-17.943
-18.318
-18.611
-18.818
-18.935
-18.958
-18.886
-18.716
-18.447
-18.078
-17.608
-17.04
-16.374
-15.613
-14.76
-13.818
-12.792
-11.687
-10.509
-9.263
-7.957
-6.597
-5.191
-3.748
-2.275
-0.781
0.725
2.234
3.736
5.223
6.685
8.114
9.5
10.836
12.113
13.324
14.462
15.519
16.489
17.368
18.15
18.831
19.408
19.878
20.238
20.489
20.628
20.657
20.576
20.387
20.091
19.691
19.189
18.587
17.889
17.099
16.22
15.258
14.218
13.106
11.93
10.696
9.413
8.087
6.726
5.332
3.912
2.47
1.01
-0.467
-1.957
-3.461
-4.975
-6.494
-8.017
-9.54
-11.064
-12.592
-14.123
-15.656
-17.186
-18.708
-20.217
-21.706
-23.164
-24.574
-25.918
-27.181
-28.356
-29.446
-30.452
-31.377
-32.22
-32.983
-33.672
-34.309
-34.911
-35.491
-36.065
-36.644
-37.254
-37.934
-38.719
-39.64
-40.709
-41.918
-43.264
-44.742
-46.343
-48.055
-49.847
-51.657
-53.438
-55.149
-56.75
-58.211
-59.481
-60.489
-61.17
-61.467
-61.343
-60.782
-59.764
-58.257
-56.24
-53.699
-50.657
-47.174
-43.307
-39.099
-34.596
-29.838
-24.883
-19.822
-14.742
-9.723
-4.839
-0.154
4.25
8.27
11.802
14.756
17.079
18.758
19.778
20.117
19.756
18.681
16.897
14.44
11.356
7.692
3.506
-1.13
-6.117
-11.328
-16.621
-21.864
-26.954
-31.805
-36.331
-40.443
-44.054
-47.093
-49.506
-51.275
-52.406
-52.926
-52.895
-52.391
-51.498
-50.341
-49.075
-47.873
-46.913
-46.347
-46.289
-46.906
-48.418
-50.948
-54.5
-58.842
-63.483
-67.986
-71.997
-75.062
-76.642
-76.347
-74.054
-70.319
-66.355
-63.162
-61.433
-61.995
-65.492
-72.186
-81.994
-92.275
-99.279
-101.175
-95.216
-80.758
-57.758
-20.323
34.529
107.592
199.472
301.837
408.341
517.014
623.55
726.683
820.078
890.396
924.022
908.552
840.252
723.377
569.703
398.593
229.35
83.264
-22.4
-83.792
-105.631
-102.763
-93.322
-85.886
-83.017
-81.781
-76.896
-69.046
-61.151
-55.97
-56.498
-62.588
-72.238
-83.829
-95.094
-103.987
-109.788
-112.271
-111.646
-108.689
-104.121
-98.535
-92.747
-87.596
-83.506
-80.664
-79.019
-78.293
-78.289
-78.867
-79.84
-81.021
-82.268
-83.469
-84.573
-85.588
-86.496
-87.274
-87.888
-88.289
-88.466
-88.436
-88.231
-87.903
-87.491
-87.028
-86.554
-86.111
-85.728
-85.432
-85.217
-85.044
-84.884
-84.705
-84.487
-84.234
-83.93
-83.554
-83.085
-82.503
-81.792
-80.952
-79.971
-78.827
-77.516
-76.037
-74.408
-72.669
-70.849
-68.968
-67.039
-65.063
-63.041
-60.971
-58.84
-56.626
-54.306
-51.862
-49.281
-46.559
-43.691
-40.667
-37.482
-34.128
-30.6
-26.901
-23.027
-18.974
-14.745
-10.348
-5.8
-1.132
3.638
8.502
13.453
18.489
23.612
28.83
34.164
39.654
45.324
51.184
57.23
63.438
69.788
76.261
82.833
89.482
96.174
102.854
109.47
115.971
122.286
128.34
134.029
139.221
143.809
147.713
150.869
153.24
154.79
155.482
155.3
154.235
152.284
149.461
145.775
141.232
135.87
129.736
122.903
115.481
107.567
99.234
90.561
81.607
72.44
63.137
53.756
44.354
35.003
25.774
16.755
8.036
-0.317
-8.246
-15.702
-22.667
-29.12
-35.035
-40.401
-45.208
-49.453
-53.145
-56.289
-58.899
-61.007
-62.666
-63.943
-64.911
-65.622
-66.133
-66.498
-66.759
-66.957
-67.125
-67.282
-67.446
-67.633
-67.853
-68.115
-68.421
-68.761
-69.113
-69.443
-69.723
-69.938
-70.071
-70.107
-70.036
-69.853
-69.56
-69.17
-68.695
-68.146
-67.535
-66.874
-66.177
-65.465
-64.759
-64.085
-63.461
-62.901
-62.417
-62.017
-61.705
-61.486
-61.354
-61.303
-61.324
-61.411
-61.556
-61.753
-61.992
-62.264
-62.557
-62.861
-63.166
-63.462
-63.741
-63.993
-64.212
-64.39
-64.521
-64.6
-64.622
-64.581
-64.472
-64.289
-64.028
-63.684
-63.254
-62.736
-62.127
-61.426
-60.633
-59.749
-58.776
-57.716
-56.574
-55.352
-54.056
-52.692
-51.265
-49.782
-48.251
-46.678
-45.072
-43.439
-41.789
-40.13
-38.469
-36.816
-35.178
-33.564
-31.983
-30.442
-28.949
-27.513
-26.14
-24.838
-23.615
-22.475
-21.426
-20.472
-19.62
-18.873
-18.234
-17.708
-17.295
-16.999
-16.818
-16.755
-16.808
-16.975
-17.257
-17.65
-18.152
-18.759
-19.47
-20.278
-21.181
-22.173
-23.249
-24.404
-25.632
-26.926
-28.282
-29.691
-31.149
-32.648
-34.181
-35.742
-37.324
-38.921
-40.525
-42.13
-43.731
-45.32
-46.893
-48.444
-49.967
-51.459
-52.916
-54.332
-55.706
-57.035
-58.315
-59.545
-60.723
-61.848
-62.917
-63.931
-64.889
-65.79
-66.634
-67.423
-68.156
-68.834
-69.46
-70.033
-70.556
-71.03
-71.457
-71.839
-72.179
-72.479
-72.742
-72.969
-73.164
-73.329
-73.466
-73.576
-73.663
-73.727
-73.769
-73.79
-73.79
-73.768
-73.724
-73.656
-73.564
-73.446
-73.302
-73.128
-72.925
-72.693
-72.43
-72.136
-71.807
-71.442
-71.039
-70.594
-70.105
-69.568
-68.979
-68.332
-67.624
-66.854
-66.017
-65.107
-64.12
-63.047
-61.882
-60.626
-59.282
-57.851
-56.341
-54.761
-53.126
-51.461
-49.783
-48.108
-46.452
-44.824
-43.236
-41.709
-40.256
-38.893
-37.628
-36.458
-35.376
-34.373
-33.43
-32.515
-31.589
-30.603
-29.52
-28.322
-26.993
-25.531
-23.933
-22.192
-20.312
-18.31
-16.212
-14.058
-11.902
-9.799
-7.831
-6.099
-4.708
-3.765
-3.352
-3.512
-4.27
-5.637
-7.609
-10.179
-13.321
-16.982
-21.099
-25.602
-30.392
-35.361
-40.377
-45.274
-49.896
-54.102
-57.789
-60.922
-63.506
-65.564
-67.137
-68.26
-68.991
-69.437
-69.725
-69.976
-70.32
-70.86
-71.737
-73.23
-75.532
-78.649
-82.385
-86.268
-89.787
-92.63
-94.439
-94.591
-92.64
-88.574
-82.92
-76.927
-71.786
-68.165
-66.645
-68.065
-73.176
-80.738
-87.37
-89.253
-82.273
-66.589
-46.683
-22.588
7.512
49.294
114.809
207.402
324.797
461.637
603.736
739.793
858.668
946.942
993.624
987.048
922.153
801.136
635.3
447.866
263.137
105.843
-6.482
-72.659
-99.142
-99.164
-86.868
-67.977
-47.08
-29.222
-17.893
-18.172
-30.403
-47.606
-63.63
-74.248
-78.649
-81.481
-85.556
-90.45
-95.101
-97.179
-95.71
-91.692
-86.122
-79.905
-73.871
-68.57
-64.327
-61.349
-59.592
-58.793
-58.761
-59.374
-60.475
-61.891
-63.457
-65.014
-66.457
-67.739
-68.805
-69.584
-70.021
-70.085
-69.777
-69.133
-68.201
-67.032
-65.682
-64.213
-62.677
-61.132
-59.63
-58.204
-56.876
-55.652
-54.512
-53.442
-52.426
-51.432
-50.432
-49.395
-48.281
-47.061
-45.71
-44.204
-42.529
-40.673
-38.625
-36.389
-33.974
-31.404
-28.715
-25.938
-23.093
-20.204
-17.283
-14.337
-11.375
-8.395
-5.387
-2.338
0.769
3.95
7.211
10.561
14.012
17.574
21.262
25.081
29.02
33.068
37.216
41.453
45.778
50.177
54.628
59.107
63.585
68.043
72.481
76.894
81.28
85.648
90.012
94.408
98.891
103.499
108.253
113.156
118.191
123.35
128.627
134.012
139.496
145.049
150.628
156.192
161.696
167.069
172.222
177.028
181.327
184.994
187.934
190.081
191.394
191.831
191.348
189.919
187.527
184.169
179.849
174.554
168.28
161.061
152.967
144.119
134.684
124.799
114.573
104.099
93.456
82.725
71.991
61.324
50.781
40.426
30.344
20.65
11.466
2.89
-5.019
-12.25
-18.825
-24.753
-30.023
-34.627
-38.549
-41.782
-44.325
-46.167
-47.284
-47.676
-47.381
-46.479
-45.073
-43.272
-41.163
-38.81
-36.263
-33.585
-30.85
-28.137
-25.526
-23.089
-20.892
-19.013
-17.541
-16.548
-16.071
-16.114
-16.654
-17.647
-19.056
-20.848
-22.983
-25.413
-28.074
-30.897
-33.806
-36.736
-39.631
-42.424
-45.041
-47.419
-49.506
-51.277
-52.722
-53.847
-54.655
-55.155
-55.359
-55.295
-54.996
-54.505
-53.869
-53.122
-52.292
-51.41
-50.505
-49.604
-48.73
-47.894
-47.095
-46.335
-45.614
-44.931
-44.283
-43.66
-43.049
-42.432
-41.793
-41.119
-40.405
-39.644
-38.834
-37.975
-37.066
-36.114
-35.127
-34.113
-33.077
-32.023
-30.957
-29.885
-28.814
-27.753
-26.707
-25.684
-24.687
-23.722
-22.792
-21.899
-21.044
-20.228
-19.45
-18.709
-18.008
-17.346
-16.725
-16.145
-15.607
-15.112
-14.659
-14.249
-13.881
-13.553
-13.265
-13.015
-12.801
-12.621
-12.474
-12.357
-12.271
-12.211
-12.178
-12.17
-12.184
-12.221
-12.278
-12.355
-12.451
-12.565
-12.697
-12.846
-13.011
-13.191
-13.387
-13.596
-13.819
-14.054
-14.302
-14.561
-14.83
-15.11
-15.4
-15.699
-16.006
-16.322
-16.644
-16.973
-17.309
-17.651
-17.999
-18.352
-18.711
-19.074
-19.442
-19.813
-20.188
-20.564
-20.939
-21.314
-21.686
-22.054
-22.419
-22.778
-23.131
-23.479
-23.822
-24.161
-24.495
-24.824
-25.148
-25.466
-25.777
-26.081
-26.376
-26.66
-26.935
-27.201
-27.462
-27.717
-27.971
-28.224
-28.48
-28.739
-29.003
-29.27
-29.538
-29.805
-30.074
-30.345
-30.625
-30.916
-31.217
-31.528
-31.847
-32.168
-32.481
-32.768
-33.009
-33.193
-33.311
-33.363
-33.353
-33.285
-33.164
-32.996
-32.783
-32.526
-32.228
-31.884
-31.49
-31.057
-30.604
-30.168
-29.794
-29.508
-29.331
-29.275
-29.341
-29.523
-29.803
-30.143
-30.51
-30.883
-31.242
-31.583
-31.903
-32.17
-32.34
-32.357
-32.147
-31.653
-30.825
-29.603
-27.95
-25.847
-23.307
-20.381
-17.122
-13.564
-9.741
-5.674
-1.395
3.034
7.535
12.025
16.399
20.552
24.369
27.717
30.475
32.56
33.923
34.55
34.436
33.567
31.927
29.507
26.32
22.406
17.83
12.667
7.019
1.007
-5.226
-11.513
-17.695
-23.642
-29.251
-34.432
-39.107
-43.198
-46.63
-49.347
-51.324
-52.57
-53.152
-53.174
-52.763
-52.063
-51.207
-50.361
-49.722
-49.455
-49.707
-50.614
-52.222
-54.657
-58.162
-62.778
-68.385
-74.683
-81.034
-86.871
-91.876
-95.448
-96.811
-95.72
-92.229
-86.939
-81.239
-76.164
-72.264
-70.535
-72.135
-76.019
-79.382
-79.192
-71.139
-55.476
-37.565
-17.893
5.35
38.738
96.802
185.073
301.699
440.302
584.114
719.574
834.715
916.675
957.08
946.98
883.336
769.022
612.957
435.086
256.537
100.768
-12.653
-80.911
-108.448
-108.861
-99.346
-84.302
-67.248
-50.6
-33.258
-22.985
-23.248
-29.974
-41.38
-51.626
-57.467
-62.393
-67.168
-71.76
-76.051
-77.615
-75.644
-71.057
-64.658
-57.498
-50.608
-44.635
-39.956
-36.83
-35.248
-34.956
-35.811
-37.732
-40.558
-44.132
-48.297
-52.852
-57.647
-62.559
-67.405
-72.001
-76.189
-79.843
-82.903
-85.354
-87.188
-88.406
-89.012
-89.009
-88.418
-87.275
-85.615
-83.496
-80.981
-78.145
-75.085
-71.892
-68.64
-65.387
-62.163
-58.976
-55.832
-52.732
-49.67
-46.651
-43.685
-40.779
-37.952
-35.225
-32.614
-30.135
-27.802
-25.61
-23.555
-21.631
-19.826
-18.142
-16.576
-15.114
-13.749
-12.465
-11.231
-10.016
-8.771
-7.423
-5.903
-4.133
-2.027
0.47
3.405
6.812
10.707
15.112
20.04
25.49
31.459
37.943
44.93
52.412
60.36
68.708
77.388
86.314
95.387
104.525
113.652
122.698
131.604
140.312
148.763
156.907
164.69
172.049
178.921
185.219
190.868
195.818
200.027
203.477
206.163
208.076
209.215
209.577
209.154
207.937
205.925
203.111
199.5
195.105
189.953
184.107
177.64
170.628
163.146
155.246
146.983
138.415
129.6
120.596
111.479
102.324
93.213
84.246
75.514
67.104
59.099
51.543
44.462
37.87
31.772
26.181
21.108
16.546
12.484
8.908
5.786
3.078
0.733
-1.332
-3.191
-4.916
-6.58
-8.233
-9.91
-11.639
-13.438
-15.32
-17.299
-19.375
-21.543
-23.8
-26.132
-28.519
-30.933
-33.323
-35.65
-37.879
-39.976
-41.922
-43.703
-45.306
-46.729
-47.979
-49.061
-49.984
-50.759
-51.395
-51.905
-52.303
-52.609
-52.847
-53.038
-53.194
-53.329
-53.45
-53.563
-53.671
-53.775
-53.87
-53.952
-54.017
-54.062
-54.087
-54.088
-54.061
-54.003
-53.91
-53.778
-53.606
-53.393
-53.14
-52.846
-52.512
-52.14
-51.732
-51.292
-50.82
-50.319
-49.789
-49.232
-48.65
-48.046
-47.422
-46.78
-46.123
-45.454
-44.778
-44.098
-43.418
-42.74
-42.07
-41.411
-40.766
-40.14
-39.536
-38.957
-38.405
-37.885
-37.397
-36.944
-36.527
-36.148
-35.806
-35.502
-35.237
-35.009
-34.818
-34.664
-34.545
-34.459
-34.405
-34.382
-34.386
-34.415
-34.467
-34.539
-34.627
-34.729
-34.84
-34.959
-35.081
-35.203
-35.321
-35.434
-35.536
-35.627
-35.702
-35.76
-35.798
-35.815
-35.81
-35.78
-35.726
-35.647
-35.542
-35.413
-35.261
-35.085
-34.887
-34.669
-34.432
-34.179
-33.912
-33.633
-33.346
-33.052
-32.757
-32.461
-32.17
-31.885
-31.611
-31.351
-31.106
-30.882
-30.68
-30.503
-30.354
-30.235
-30.148
-30.095
-30.078
-30.099
-30.157
-30.255
-30.392
-30.57
-30.787
-31.045
-31.342
-31.677
-32.05
-32.459
-32.904
-33.381
-33.889
-34.426
-34.989
-35.577
-36.186
-36.814
-37.458
-38.116
-38.786
-39.464
-40.15
-40.84
-41.533
-42.228
-42.921
-43.612
-44.3
-44.982
-45.656
-46.323
-46.98
-47.626
-48.258
-48.875
-49.475
-50.056
-50.617
-51.156
-51.672
-52.164
-52.631
-53.073
-53.491
-53.883
-54.249
-54.587
-54.896
-55.173
-55.417
-55.623
-55.79
-55.911
-55.985
-56.008
-55.977
-55.887
-55.734
-55.509
-55.208
-54.829
-54.372
-53.841
-53.238
-52.572
-51.851
-51.092
-50.307
-49.509
-48.708
-47.909
-47.117
-46.335
-45.569
-44.827
-44.109
-43.408
-42.712
-42.006
-41.273
-40.494
-39.645
-38.691
-37.604
-36.363
-34.956
-33.384
-31.654
-29.782
-27.786
-25.689
-23.53
-21.359
-19.236
-17.225
-15.39
-13.79
-12.492
-11.579
-11.124
-11.181
-11.796
-12.992
-14.779
-17.151
-20.08
-23.512
-27.378
-31.587
-36.037
-40.622
-45.236
-49.778
-54.143
-58.208
-61.858
-65.002
-67.558
-69.464
-70.682
-71.203
-71.075
-70.396
-69.291
-67.883
-66.29
-64.636
-63.079
-61.779
-60.89
-60.57
-60.906
-62.011
-64.107
-67.253
-71.331
-76.044
-80.786
-84.975
-88.285
-90.19
-89.955
-87.36
-82.529
-76.107
-69.562
-63.808
-59.215
-56.795
-57.578
-61.544
-66.978
-70.144
-66.699
-54.319
-34.692
-10.308
19.897
59.101
113.984
191.413
290.219
405.302
529.355
651.315
761.718
851.229
907.93
920.156
880.287
787.038
645.516
471.471
286.485
111.7
-29.978
-125.498
-174.295
-182.585
-165.996
-138.197
-107.755
-82.109
-63.206
-53.922
-55.382
-62.586
-71.961
-78.992
-81.636
-83.632
-86.732
-91.398
-96.905
-100.271
-100.406
-97.837
-93.267
-87.827
-82.283
-77.001
-72.497
-69.133
-66.933
-65.755
-65.353
-65.498
-66.053
-66.885
-67.82
-68.71
-69.46
-70.028
-70.427
-70.657
-70.684
-70.493
-70.082
-69.468
-68.701
-67.833
-66.907
-65.976
-65.079
-64.253
-63.537
-62.953
-62.504
-62.178
-61.932
-61.723
-61.525
-61.309
-61.048
-60.719
-60.287
-59.718
-58.99
-58.081
-56.977
-55.678
-54.174
-52.472
-50.586
-48.536
-46.358
-44.085
-41.738
-39.344
-36.917
-34.454
-31.964
-29.444
-26.89
-24.308
-21.69
-19.005
-16.237
-13.363
-10.372
-7.27
-4.048
-0.696
2.795
6.447
10.268
14.243
18.371
22.644
27.062
31.643
36.384
41.246
46.213
51.274
56.439
61.755
67.248
72.918
78.755
84.737
90.844
97.074
103.406
109.81
116.249
122.666
129.023
135.305
141.471
147.451
153.147
158.422
163.151
167.255
170.663
173.317
175.163
176.138
176.199
175.322
173.483
170.661
166.833
161.972
156.091
149.247
141.533
133.078
124.018
114.454
104.491
94.236
83.793
73.271
62.775
52.4
42.256
32.475
23.191
14.518
6.543
-0.695
-7.181
-12.925
-17.953
-22.285
-25.95
-28.988
-31.439
-33.342
-34.746
-35.707
-36.298
-36.626
-36.799
-36.903
-37.009
-37.16
-37.384
-37.705
-38.131
-38.659
-39.283
-39.987
-40.762
-41.601
-42.493
-43.412
-44.326
-45.18
-45.924
-46.527
-46.961
-47.215
-47.28
-47.151
-46.832
-46.339
-45.691
-44.905
-43.994
-42.97
-41.844
-40.638
-39.372
-38.075
-36.77
-35.471
-34.191
-32.94
-31.725
-30.549
-29.415
-28.315
-27.246
-26.204
-25.186
-24.194
-23.224
-22.274
-21.339
-20.417
-19.504
-18.599
-17.701
-16.809
-15.922
-15.041
-14.167
-13.303
-12.449
-11.606
-10.775
-9.957
-9.151
-8.359
-7.582
-6.819
-6.072
-5.342
-4.632
-3.942
-3.274
-2.632
-2.016
-1.429
-0.873
-0.35
0.137
0.586
0.995
1.361
1.684
1.962
2.193
2.377
2.512
2.599
2.637
2.626
2.567
2.461
2.307
2.109
1.865
1.579
1.252
0.886
0.483
0.044
-0.427
-0.929
-1.458
-2.013
-2.59
-3.187
-3.8
-4.427
-5.065
-5.711
-6.362
-7.016
-7.67
-8.322
-8.968
-9.607
-10.237
-10.854
-11.458
-12.047
-12.62
-13.175
-13.711
-14.228
-14.726
-15.203
-15.661
-16.099
-16.517
-16.916
-17.297
-17.659
-18.005
-18.334
-18.647
-18.945
-19.23
-19.501
-19.761
-20.008
-20.245
-20.471
-20.688
-20.896
-21.096
-21.288
-21.473
-21.652
-21.826
-21.995
-22.162
-22.325
-22.487
-22.647
-22.806
-22.965
-23.123
-23.28
-23.437
-23.593
-23.749
-23.904
-24.057
-24.209
-24.36
-24.509
-24.657
-24.803
-24.949
-25.093
-25.237
-25.381
-25.526
-25.674
-25.823
-25.977
-26.134
-26.296
-26.463
-26.634
-26.808
-26.983
-27.16
-27.336
-27.51
-27.681
-27.847
-28.008
-28.165
-28.316
-28.46
-28.598
-28.727
-28.844
-28.95
-29.04
-29.111
-29.159
-29.18
-29.171
-29.129
-29.05
-28.928
-28.757
-28.527
-28.235
-27.877
-27.452
-26.96
-26.406
-25.794
-25.136
-24.449
-23.746
-23.041
-22.342
-21.657
-20.998
-20.372
-19.789
-19.256
-18.779
-18.349
-17.959
-17.597
-17.236
-16.853
-16.414
-15.877
-15.212
-14.398
-13.42
-12.276
-10.962
-9.482
-7.852
-6.089
-4.218
-2.282
-0.33
1.577
3.355
4.924
6.202
7.093
7.528
7.455
6.838
5.672
3.962
1.721
-1.014
-4.204
-7.797
-11.718
-15.886
-20.197
-24.519
-28.734
-32.72
-36.348
-39.518
-42.166
-44.27
-45.864
-47.002
-47.734
-48.104
-48.177
-48.058
-47.874
-47.756
-47.831
-48.196
-48.995
-50.496
-52.858
-56.05
-59.865
-63.809
-67.371
-70.257
-72.028
-71.997
-69.804
-65.556
-59.796
-53.787
-48.848
-45.74
-45.364
-49.095
-56.558
-65.216
-72.432
-74.475
-70.807
-65.667
-59.503
-48.933
-25.465
24.311
106.046
216.27
344.989
477.373
603.922
719.29
816.977
889.828
925.196
910.108
840.375
719.055
559.59
382.991
209.505
58.348
-57.699
-134.875
-176.081
-189.807
-183.219
-160.913
-126.934
-86.033
-48.348
-24.685
-20.196
-32.771
-52.56
-69.398
-78.257
-79.743
-78.661
-78.285
-79.125
-80.118
-79.155
-75.746
-70.833
-65.331
-60.34
-56.612
-54.21
-53.126
-53.258
-54.273
-55.931
-58.066
-60.474
-62.978
-65.449
-67.757
-69.81
-71.577
-72.995
-73.994
-74.542
-74.634
-74.328
-73.704
-72.84
-71.807
-70.664
-69.472
-68.288
-67.162
-66.126
-65.194
-64.368
-63.633
-62.992
-62.447
-61.984
-61.577
-61.168
-60.699
-60.124
-59.405
-58.513
-57.424
-56.112
-54.56
-52.773
-50.763
-48.554
-46.179
-43.654
-40.989
-38.196
-35.285
-32.275
-29.185
-26.017
-22.766
-19.426
-15.989
-12.451
-8.812
-5.061
-1.187
2.819
6.967
11.256
15.668
20.193
24.819
29.534
34.333
39.201
44.111
49.045
53.981
58.906
63.816
68.707
73.571
78.418
83.259
88.118
93.032
98.024
103.102
108.266
113.505
118.801
124.147
129.522
134.894
140.225
145.465
150.556
155.447
160.07
164.335
168.152
171.414
174.024
175.921
177.05
177.372
176.864
175.497
173.251
170.137
166.174
161.391
155.831
149.53
142.534
134.925
126.789
118.231
109.361
100.261
91.01
81.692
72.381
63.162
54.128
45.341
36.848
28.702
20.937
13.604
6.757
0.415
-5.414
-10.73
-15.554
-19.89
-23.742
-27.138
-30.108
-32.699
-34.975
-36.98
-38.74
-40.292
-41.661
-42.886
-44.022
-45.098
-46.13
-47.139
-48.129
-49.114
-50.109
-51.111
-52.104
-53.067
-53.963
-54.772
-55.487
-56.101
-56.608
-57.003
-57.269
-57.407
-57.425
-57.329
-57.128
-56.827
-56.429
-55.947
-55.403
-54.818
-54.219
-53.625
-53.047
-52.497
-51.982
-51.508
-51.083
-50.706
-50.374
-50.082
-49.83
-49.616
-49.44
-49.298
-49.184
-49.092
-49.015
-48.947
-48.885
-48.823
-48.758
-48.685
-48.602
-48.508
-48.402
-48.284
-48.151
-48.001
-47.832
-47.643
-47.433
-47.201
-46.946
-46.667
-46.365
-46.042
-45.698
-45.336
-44.957
-44.564
-44.159
-43.745
-43.323
-42.898
-42.47
-42.043
-41.618
-41.199
-40.787
-40.384
-39.991
-39.61
-39.242
-38.888
-38.549
-38.225
-37.917
-37.625
-37.35
-37.091
-36.847
-36.62
-36.407
-36.21
-36.025
-35.854
-35.693
-35.542
-35.398
-35.261
-35.128
-34.997
-34.867
-34.736
-34.602
-34.464
-34.321
-34.172
-34.016
-33.852
-33.681
-33.502
-33.315
-33.121
-32.92
-32.714
-32.503
-32.288
-32.07
-31.85
-31.631
-31.412
-31.196
-30.983
-30.775
-30.574
-30.38
-30.196
-30.022
-29.86
-29.711
-29.576
-29.456
-29.352
-29.264
-29.193
-29.14
-29.104
-29.085
-29.082
-29.097
-29.128
-29.174
-29.235
-29.31
-29.398
-29.498
-29.607
-29.726
-29.852
-29.984
-30.12
-30.258
-30.399
-30.539
-30.679
-30.817
-30.953
-31.085
-31.213
-31.337
-31.457
-31.571
-31.681
-31.786
-31.887
-31.985
-32.081
-32.174
-32.267
-32.359
-32.452
-32.546
-32.64
-32.735
-32.831
-32.926
-33.021
-33.114
-33.204
-33.291
-33.374
-33.454
-33.53
-33.6
-33.665
-33.724
-33.773
-33.811
-33.833
-33.833
-33.808
-33.753
-33.664
-33.536
-33.364
-33.145
-32.877
-32.556
-32.176
-31.733
-31.217
-30.619
-29.94
-29.18
-28.342
-27.438
-26.474
-25.46
-24.409
-23.333
-22.236
-21.119
-19.975
-18.793
-17.576
-16.327
-15.063
-13.797
-12.533
-11.275
-10.021
-8.763
-7.493
-6.202
-4.867
-3.476
-2.039
-0.578
0.863
2.231
3.486
4.603
5.563
6.357
6.963
7.356
7.517
7.412
7.012
6.278
5.153
3.6
1.614
-0.782
-3.522
-6.524
-9.72
-13.052
-16.465
-19.913
-23.34
-26.693
-29.92
-32.961
-35.755
-38.23
-40.293
-41.878
-42.961
-43.572
-43.797
-43.748
-43.513
-43.167
-42.789
-42.478
-42.353
-42.532
-43.109
-44.15
-45.764
-48.153
-51.449
-55.626
-60.43
-65.314
-69.721
-73.223
-75.327
-75.405
-73.055
-68.272
-61.644
-54.581
-48.391
-43.9
-42.113
-43.921
-49.546
-58.589
-68.365
-74.809
-75.373
-67.029
-48.785
-19.937
24.218
84.479
161.455
255.198
359.545
472.34
590.145
704.502
805.948
879.605
912.232
896.93
835.124
735.677
607.261
460.494
305.344
153.008
21.233
-75.394
-129.103
-142.55
-129.643
-105.933
-84.355
-69.768
-61.375
-57.937
-55.854
-54.488
-54.306
-54.097
-55.839
-60.216
-66.159
-73.334
-79.312
-82.348
-82.645
-80.433
-76.542
-71.909
-66.945
-62.159
-58.204
-55.407
-53.802
-53.294
-53.63
-54.572
-55.991
-57.738
-59.623
-61.528
-63.37
-65.078
-66.632
-68.007
-69.15
-70.045
-70.692
-71.098
-71.299
-71.329
-71.22
-71.016
-70.75
-70.436
-70.08
-69.67
-69.194
-68.657
-68.052
-67.368
-66.6
-65.733
-64.755
-63.66
-62.434
-61.061
-59.531
-57.834
-55.967
-53.938
-51.767
-49.484
-47.113
-44.67
-42.168
-39.618
-37.028
-34.401
-31.738
-29.027
-26.255
-23.41
-20.477
-17.444
-14.298
-11.027
-7.615
-4.047
-0.312
3.586
7.638
11.834
16.164
20.622
25.201
29.887
34.661
39.502
44.386
49.302
54.246
59.211
64.196
69.206
74.256
79.376
84.61
89.988
95.525
101.219
107.055
113.02
119.101
125.288
131.557
137.866
144.167
150.408
156.531
162.47
168.135
173.408
178.16
182.28
185.682
188.307
190.109
191.05
191.09
190.199
188.359
185.582
181.884
177.285
171.814
165.505
158.43
150.702
142.441
133.762
124.768
115.54
106.157
96.707
87.275
77.95
68.818
59.938
51.374
43.189
35.441
28.193
21.478
15.291
9.621
4.455
-0.224
-4.421
-8.147
-11.436
-14.323
-16.852
-19.079
-21.042
-22.779
-24.334
-25.748
-27.073
-28.348
-29.586
-30.799
-31.993
-33.174
-34.35
-35.529
-36.697
-37.839
-38.936
-39.955
-40.878
-41.696
-42.392
-42.959
-43.384
-43.656
-43.78
-43.768
-43.628
-43.372
-43.009
-42.547
-42.007
-41.41
-40.779
-40.141
-39.516
-38.919
-38.363
-37.861
-37.422
-37.052
-36.753
-36.523
-36.359
-36.26
-36.222
-36.246
-36.325
-36.452
-36.62
-36.82
-37.045
-37.288
-37.543
-37.802
-38.06
-38.311
-38.55
-38.775
-38.981
-39.164
-39.319
-39.442
-39.527
-39.572
-39.571
-39.522
-39.421
-39.265
-39.053
-38.783
-38.456
-38.07
-37.626
-37.125
-36.568
-35.957
-35.296
-34.586
-33.831
-33.037
-32.206
-31.344
-30.456
-29.547
-28.623
-27.689
-26.751
-25.813
-24.881
-23.959
-23.054
-22.168
-21.307
-20.475
-19.676
-18.914
-18.192
-17.514
-16.882
-16.3
-15.77
-15.293
-14.872
-14.509
-14.204
-13.958
-13.773
-13.648
-13.584
-13.581
-13.637
-13.752
-13.925
-14.154
-14.438
-14.774
-15.16
-15.593
-16.073
-16.594
-17.156
-17.755
-18.388
-19.054
-19.748
-20.469
-21.213
-21.979
-22.763
-23.562
-24.375
-25.199
-26.03
-26.866
-27.705
-28.544
-29.381
-30.211
-31.034
-31.846
-32.644
-33.428
-34.193
-34.939
-35.664
-36.366
-37.043
-37.695
-38.321
-38.919
-39.49
-40.033
-40.548
-41.036
-41.497
-41.933
-42.343
-42.731
-43.096
-43.44
-43.766
-44.074
-44.368
-44.648
-44.919
-45.181
-45.439
-45.695
-45.952
-46.214
-46.483
-46.761
-47.053
-47.36
-47.684
-48.028
-48.394
-48.783
-49.197
-49.636
-50.1
-50.59
-51.105
-51.643
-52.202
-52.78
-53.373
-53.977
-54.589
-55.202
-55.813
-56.416
-57.004
-57.572
-58.112
-58.617
-59.08
-59.493
-59.847
-60.134
-60.346
-60.474
-60.511
-60.448
-60.279
-59.997
-59.595
-59.067
-58.407
-57.613
-56.678
-55.602
-54.382
-53.018
-51.511
-49.864
-48.081
-46.167
-44.131
-41.981
-39.727
-37.381
-34.956
-32.466
-29.926
-27.354
-24.764
-22.174
-19.602
-17.066
-14.587
-12.182
-9.87
-7.672
-5.609
-3.701
-1.968
-0.424
0.917
2.042
2.939
3.597
4.002
4.144
4.014
3.605
2.908
1.922
0.648
-0.9
-2.69
-4.692
-6.872
-9.199
-11.643
-14.173
-16.751
-19.338
-21.893
-24.369
-26.727
-28.923
-30.904
-32.637
-34.099
-35.301
-36.304
-37.178
-37.994
-38.82
-39.692
-40.661
-41.821
-43.26
-45.08
-47.39
-50.227
-53.68
-57.948
-63.062
-68.906
-75.18
-81.222
-86.385
-90.292
-92.45
-92.25
-89.496
-84.312
-77.307
-70.021
-63.914
-59.692
-58.051
-59.829
-64.926
-72.339
-80.465
-84.967
-81.25
-67.528
-41.096
-1.314
49.963
114.316
191.19
279.232
379.737
489.327
603.674
716.473
814.693
886.509
919.725
903.967
838.624
726.796
578.326
411.925
245.977
100.836
-6.981
-73.888
-103.222
-105.092
-92.096
-71.187
-48.304
-29.555
-19.246
-21.174
-34.224
-51
-64.896
-72.405
-73.838
-73.997
-75.883
-79.048
-82.155
-83.008
-80.748
-76.336
-70.752
-64.815
-59.261
-54.61
-51.177
-49.163
-48.518
-48.986
-50.391
-52.608
-55.481
-58.831
-62.467
-66.208
-69.923
-73.511
-76.853
-79.817
-82.281
-84.164
-85.434
-86.09
-86.155
-85.66
-84.645
-83.169
-81.298
-79.093
-76.623
-73.949
-71.131
-68.233
-65.319
-62.446
-59.666
-57.016
-54.512
-52.162
-49.963
-47.907
-45.979
-44.161
-42.43
-40.766
-39.15
-37.564
-35.992
-34.413
-32.807
-31.153
-29.431
-27.624
-25.712
-23.677
-21.498
-19.158
-16.645
-13.95
-11.066
-7.993
-4.727
-1.275
2.353
6.145
10.093
14.189
18.431
22.816
27.334
31.969
36.701
41.51
46.388
51.328
56.328
61.391
66.526
71.752
77.109
82.632
88.341
94.24
100.311
106.532
112.88
119.333
125.87
132.465
139.072
145.64
152.116
158.441
164.544
170.329
175.665
180.42
184.487
187.786
190.27
191.902
192.65
192.48
191.371
189.309
186.298
182.345
177.447
171.612
164.862
157.256
148.908
139.946
130.479
120.596
110.367
99.857
89.148
78.322
67.453
56.616
45.883
35.347
25.125
15.331
6.068
-2.599
-10.65
-18.085
-24.895
-31.068
-36.588
-41.449
-45.669
-49.266
-52.257
-54.666
-56.529
-57.912
-58.915
-59.634
-60.159
-60.558
-60.868
-61.12
-61.347
-61.574
-61.823
-62.105
-62.418
-62.762
-63.147
-63.571
-64.026
-64.484
-64.894
-65.216
-65.42
-65.482
-65.397
-65.159
-64.764
-64.22
-63.54
-62.742
-61.846
-60.869
-59.819
-58.711
-57.564
-56.399
-55.248
-54.131
-53.066
-52.063
-51.131
-50.276
-49.5
-48.803
-48.175
-47.611
-47.103
-46.646
-46.237
-45.869
-45.536
-45.229
-44.94
-44.662
-44.387
-44.11
-43.825
-43.524
-43.204
-42.859
-42.488
-42.085
-41.648
-41.173
-40.655
-40.092
-39.481
-38.82
-38.108
-37.343
-36.526
-35.658
-34.74
-33.773
-32.76
-31.704
-30.607
-29.473
-28.305
-27.107
-25.883
-24.638
-23.375
-22.1
-20.818
-19.532
-18.249
-16.973
-15.71
-14.464
-13.24
-12.044
-10.881
-9.754
-8.669
-7.63
-6.64
-5.705
-4.826
-4.007
-3.249
-2.556
-1.927
-1.365
-0.869
-0.44
-0.077
0.219
0.449
0.615
0.718
0.758
0.739
0.661
0.526
0.339
0.1
-0.187
-0.519
-0.892
-1.303
-1.749
-2.225
-2.728
-3.254
-3.798
-4.356
-4.924
-5.499
-6.077
-6.654
-7.227
-7.794
-8.351
-8.896
-9.428
-9.944
-10.444
-10.925
-11.388
-11.831
-12.254
-12.656
-13.039
-13.403
-13.748
-14.076
-14.387
-14.684
-14.968
-15.241
-15.505
-15.763
-16.018
-16.273
-16.531
-16.795
-17.07
-17.358
-17.664
-17.992
-18.343
-18.721
-19.129
-19.57
-20.045
-20.556
-21.105
-21.693
-22.321
-22.991
-23.701
-24.452
-25.242
-26.071
-26.937
-27.838
-28.771
-29.733
-30.72
-31.73
-32.758
-33.8
-34.852
-35.907
-36.96
-38.005
-39.035
-40.041
-41.016
-41.952
-42.842
-43.677
-44.452
-45.158
-45.791
-46.345
-46.815
-47.196
-47.482
-47.667
-47.745
-47.711
-47.56
-47.285
-46.884
-46.351
-45.682
-44.878
-43.939
-42.863
-41.651
-40.3
-38.808
-37.181
-35.426
-33.553
-31.575
-29.505
-27.363
-25.175
-22.968
-20.768
-18.598
-16.471
-14.399
-12.398
-10.481
-8.664
-6.955
-5.349
-3.837
-2.413
-1.069
0.205
1.424
2.623
3.83
5.064
6.339
7.646
8.977
10.32
11.663
12.981
14.232
15.357
16.286
16.964
17.339
17.363
16.988
16.154
14.825
12.985
10.635
7.797
4.505
0.794
-3.284
-7.656
-12.223
-16.866
-21.455
-25.877
-30.028
-33.82
-37.185
-40.085
-42.524
-44.541
-46.183
-47.496
-48.546
-49.433
-50.282
-51.256
-52.509
-54.152
-56.35
-59.343
-63.25
-68.043
-73.484
-78.995
-84.033
-88.281
-91.295
-92.484
-91.555
-88.492
-83.824
-78.999
-75.203
-72.82
-72.51
-75.086
-80.478
-88.17
-95.689
-97.671
-90.942
-74.449
-48.323
-15.48
25.633
79.952
151.177
243.457
354.161
474.844
597.889
713.138
810.847
883.959
921.556
913.141
855.094
746.529
595.701
422.632
247.676
94.079
-17.962
-85.2
-113.099
-114.706
-108.613
-101.365
-92.871
-83.752
-70.327
-56.272
-49.118
-47.913
-52.869
-61.868
-69.093
-75.617
-81.875
-86.306
-89.832
-91.213
-89.346
-85.275
-79.64
-73.18
-67.035
-61.928
-58.168
-55.99
-55.366
-55.993
-57.659
-60.198
-63.376
-66.969
-70.803
-74.697
-78.509
-82.15
-85.503
-88.44
-90.855
-92.67
-93.854
-94.413
-94.375
-93.783
-92.687
-91.15
-89.237
-87.011
-84.538
-81.876
-79.082
-76.21
-73.309
-70.428
-67.614
-64.901
-62.309
-59.844
-57.498
-55.257
-53.107
-51.035
-49.032
-47.098
-45.23
-43.442
-41.755
-40.193
-38.791
-37.567
-36.525
-35.664
-34.972
-34.44
-34.059
-33.814
-33.681
-33.633
-33.636
-33.649
-33.634
-33.532
-33.271
-32.777
-31.965
-30.771
-29.15
-27.066
-24.498
-21.435
-17.872
-13.821
-9.303
-4.339
1.05
6.839
13.004
19.51
26.315
33.376
40.644
48.07
55.608
63.207
70.817
78.399
85.92
93.35
100.666
107.832
114.805
121.541
127.987
134.076
139.729
144.851
149.344
153.13
156.152
158.371
159.762
160.292
159.933
158.664
156.468
153.342
149.281
144.278
138.339
131.502
123.846
115.482
106.543
97.145
87.381
77.331
67.068
56.672
46.219
35.779
25.419
15.201
5.218
-4.407
-13.554
-22.118
-30.038
-37.292
-43.88
-49.795
-55.025
-59.558
-63.39
-66.533
-68.992
-70.766
-71.849
-72.234
-71.966
-71.14
-69.868
-68.273
-66.456
-64.49
-62.449
-60.414
-58.453
-56.623
-54.963
-53.49
-52.238
-51.253
-50.592
-50.32
-50.459
-50.987
-51.865
-53.034
-54.435
-56.02
-57.722
-59.459
-61.17
-62.813
-64.364
-65.823
-67.173
-68.38
-69.408
-70.207
-70.75
-71.034
-71.058
-70.835
-70.385
-69.731
-68.919
-68.007
-67.04
-66.042
-65.03
-63.999
-62.958
-61.92
-60.9
-59.91
-58.962
-58.063
-57.219
-56.438
-55.719
-55.056
-54.431
-53.82
-53.202
-52.57
-51.916
-51.241
-50.544
-49.822
-49.077
-48.315
-47.537
-46.744
-45.937
-45.113
-44.271
-43.414
-42.547
-41.675
-40.805
-39.938
-39.079
-38.229
-37.391
-36.564
-35.748
-34.941
-34.14
-33.345
-32.554
-31.769
-30.988
-30.211
-29.44
-28.674
-27.914
-27.16
-26.412
-25.671
-24.936
-24.207
-23.486
-22.772
-22.066
-21.37
-20.685
-20.011
-19.351
-18.704
-18.072
-17.455
-16.855
-16.271
-15.705
-15.157
-14.629
-14.122
-13.637
-13.176
-12.741
-12.332
-11.952
-11.602
-11.284
-10.997
-10.744
-10.524
-10.34
-10.19
-10.077
-9.999
-9.958
-9.951
-9.979
-10.041
-10.134
-10.257
-10.408
-10.585
-10.786
-11.01
-11.255
-11.519
-11.801
-12.098
-12.409
-12.731
-13.063
-13.402
-13.745
-14.089
-14.434
-14.776
-15.114
-15.444
-15.766
-16.077
-16.375
-16.658
-16.924
-17.171
-17.398
-17.604
-17.788
-17.95
-18.09
-18.21
-18.31
-18.394
-18.463
-18.519
-18.562
-18.595
-18.617
-18.629
-18.632
-18.626
-18.612
-18.592
-18.569
-18.547
-18.532
-18.526
-18.532
-18.554
-18.594
-18.654
-18.734
-18.833
-18.951
-19.089
-19.249
-19.439
-19.662
-19.918
-20.204
-20.512
-20.831
-21.151
-21.461
-21.741
-21.981
-22.173
-22.317
-22.422
-22.498
-22.55
-22.575
-22.567
-22.515
-22.421
-22.286
-22.109
-21.904
-21.683
-21.466
-21.286
-21.167
-21.115
-21.131
-21.197
-21.28
-21.364
-21.436
-21.484
-21.506
-21.491
-21.428
-21.316
-21.137
-20.862
-20.46
-19.877
-19.07
-18.018
-16.7
-15.11
-13.272
-11.197
-8.898
-6.401
-3.711
-0.845
2.172
5.326
8.582
11.888
15.187
18.406
21.472
24.324
26.889
29.095
30.904
32.27
33.161
33.555
33.414
32.713
31.447
29.616
27.238
24.349
20.99
17.211
13.073
8.636
3.982
-0.799
-5.639
-10.469
-15.239
-19.902
-24.401
-28.722
-32.869
-36.867
-40.746
-44.511
-48.177
-51.791
-55.416
-59.121
-62.978
-67.007
-71.255
-75.881
-80.926
-86.264
-91.583
-96.268
-99.718
-101.56
-101.333
-98.401
-92.482
-83.758
-73.036
-61.973
-52.048
-44.232
-39.661
-39.464
-44.053
-51.828
-59.1
-61.513
-55.646
-41.894
-22.377
4.356
42.224
98.031
178.924
284.035
407.066
539.005
668.446
786.206
883.007
948.605
972.552
945.846
866.517
737.622
569.882
382.781
196.977
35.93
-81.77
-150.781
-174.783
-168.044
-146.344
-120.277
-98.17
-81.893
-72.876
-71.869
-74.473
-77.959
-79.435
-77.713
-76.265
-76.844
-79.494
-82.899
-84.172
-82.213
-77.478
-70.84
-63.512
-56.23
-49.521
-44.121
-40.496
-38.827
-39.044
-40.844
-43.977
-48.256
-53.447
-59.279
-65.459
-71.697
-77.771
-83.519
-88.772
-93.408
-97.328
-100.445
-102.713
-104.101
-104.602
-104.248
-103.086
-101.176
-98.592
-95.421
-91.773
-87.786
-83.587
-79.281
-74.96
-70.682
-66.493
-62.436
-58.538
-54.816
-51.28
-47.927
-44.747
-41.738
-38.89
-36.186
-33.599
-31.089
-28.62
-26.166
-23.703
-21.218
-18.697
-16.127
-13.497
-10.802
-8.036
-5.194
-2.268
0.755
3.889
7.147
10.538
14.061
17.715
21.501
25.415
29.45
33.593
37.827
42.133
46.503
50.928
55.403
59.917
64.45
68.982
73.492
77.968
82.403
86.794
91.139
95.444
99.728
104.023
108.369
112.791
117.295
121.877
126.528
131.24
136.008
140.827
145.681
150.544
155.383
160.164
164.837
169.337
173.572
177.427
180.786
183.556
185.668
187.067
187.704
187.529
186.497
184.57
181.72
177.929
173.18
167.469
160.825
153.301
144.992
136.02
126.507
116.56
106.286
95.779
85.141
74.48
63.898
53.504
43.413
33.734
24.587
16.071
8.247
1.155
-5.195
-10.823
-15.744
-19.977
-23.558
-26.518
-28.893
-30.737
-32.102
-33.055
-33.688
-34.092
-34.357
-34.566
-34.768
-35.006
-35.311
-35.694
-36.166
-36.733
-37.384
-38.114
-38.92
-39.785
-40.694
-41.616
-42.501
-43.31
-44.005
-44.558
-44.958
-45.193
-45.259
-45.159
-44.906
-44.513
-43.999
-43.381
-42.668
-41.878
-41.032
-40.151
-39.268
-38.407
-37.585
-36.819
-36.118
-35.489
-34.94
-34.471
-34.076
-33.752
-33.494
-33.299
-33.166
-33.092
-33.071
-33.097
-33.165
-33.269
-33.404
-33.567
-33.754
-33.96
-34.183
-34.419
-34.667
-34.925
-35.188
-35.453
-35.713
-35.965
-36.204
-36.426
-36.624
-36.796
-36.936
-37.043
-37.114
-37.148
-37.141
-37.093
-37.004
-36.873
-36.701
-36.489
-36.237
-35.946
-35.619
-35.258
-34.863
-34.438
-33.984
-33.504
-32.999
-32.472
-31.926
-31.364
-30.789
-30.203
-29.612
-29.019
-28.428
-27.843
-27.268
-26.709
-26.169
-25.653
-25.164
-24.706
-24.283
-23.896
-23.55
-23.244
-22.983
-22.765
-22.593
-22.466
-22.385
-22.35
-22.36
-22.414
-22.511
-22.651
-22.831
-23.052
-23.31
-23.605
-23.934
-24.295
-24.685
-25.102
-25.543
-26.003
-26.48
-26.97
-27.469
-27.973
-28.477
-28.979
-29.473
-29.957
-30.427
-30.88
-31.313
-31.724
-32.11
-32.469
-32.801
-33.104
-33.377
-33.619
-33.831
-34.011
-34.16
-34.277
-34.363
-34.419
-34.444
-34.439
-34.406
-34.346
-34.259
-34.149
-34.017
-33.864
-33.694
-33.508
-33.311
-33.103
-32.889
-32.67
-32.449
-32.23
-32.014
-31.803
-31.6
-31.405
-31.22
-31.047
-30.885
-30.736
-30.6
-30.476
-30.365
-30.267
-30.181
-30.108
-30.047
-29.996
-29.956
-29.924
-29.899
-29.877
-29.855
-29.832
-29.804
-29.767
-29.718
-29.655
-29.573
-29.471
-29.344
-29.191
-29.007
-28.786
-28.527
-28.225
-27.875
-27.474
-27.018
-26.503
-25.925
-25.285
-24.578
-23.803
-22.954
-22.027
-21.019
-19.933
-18.771
-17.54
-16.248
-14.906
-13.532
-12.146
-10.766
-9.412
-8.096
-6.831
-5.631
-4.513
-3.487
-2.568
-1.766
-1.077
-0.498
-0.02
0.379
0.718
1.023
1.331
1.666
2.047
2.489
2.994
3.566
4.203
4.893
5.624
6.376
7.109
7.778
8.332
8.704
8.844
8.707
8.236
7.402
6.183
4.57
2.572
0.212
-2.482
-5.467
-8.694
-12.11
-15.637
-19.188
-22.675
-26.007
-29.142
-32.081
-34.821
-37.387
-39.799
-42.064
-44.242
-46.422
-48.677
-51.09
-53.74
-56.664
-60.024
-64.076
-68.869
-74.333
-80.181
-85.798
-90.665
-94.398
-96.312
-95.669
-92.34
-86.391
-78.447
-70.214
-63.032
-57.884
-56.518
-59.017
-62.943
-66.619
-67.393
-64.655
-62.605
-60.964
-54.92
-34.628
14.333
97.692
211.617
345.163
483.054
616.247
739.18
844.706
924.767
965.673
954.402
887.683
768.579
610.594
435.843
264.016
115.886
5.949
-65.688
-102.571
-115.689
-118.037
-111.264
-98.448
-82.815
-64.915
-53.464
-52.257
-57.243
-66.093
-72.845
-74.923
-76.328
-78.552
-82.207
-86.596
-88.762
-87.705
-83.96
-78.251
-71.65
-64.882
-58.385
-52.739
-48.341
-45.267
-43.394
-42.5
-42.423
-43.056
-44.265
-45.873
-47.705
-49.643
-51.631
-53.625
-55.549
-57.306
-58.812
-60.023
-60.934
-61.554
-61.884
-61.918
-61.64
-61.059
-60.208
-59.119
-57.826
-56.35
-54.693
-52.868
-50.904
-48.837
-46.693
-44.486
-42.208
-39.858
-37.453
-35.026
-32.618
-30.254
-27.936
-25.662
-23.428
-21.236
-19.1
-17.031
-15.019
-13.047
-11.109
-9.205
-7.343
-5.529
-3.736
-1.906
0.011
2.057
4.253
6.605
9.121
11.81
14.68
17.729
20.949
24.32
27.843
31.536
35.413
39.491
43.751
48.133
52.596
57.114
61.67
66.268
70.912
75.605
80.371
85.257
90.296
95.518
100.925
106.49
112.187
117.989
123.882
129.883
135.986
142.16
148.365
154.541
160.602
166.459
171.985
177.012
181.406
185.046
187.828
189.693
190.589
190.465
189.285
187.005
183.588
179.036
173.361
166.601
158.842
150.189
140.784
130.818
120.461
109.872
99.218
88.619
78.182
68.018
58.21
48.842
40.015
31.8
24.251
17.408
11.265
5.797
0.963
-3.324
-7.145
-10.583
-13.738
-16.676
-19.441
-22.081
-24.624
-27.1
-29.561
-32.042
-34.563
-37.144
-39.78
-42.462
-45.178
-47.894
-50.564
-53.142
-55.57
-57.81
-59.847
-61.666
-63.259
-64.625
-65.749
-66.626
-67.265
-67.669
-67.848
-67.812
-67.569
-67.137
-66.545
-65.822
-65.003
-64.115
-63.175
-62.199
-61.201
-60.194
-59.19
-58.198
-57.221
-56.265
-55.338
-54.447
-53.601
-52.807
-52.065
-51.378
-50.745
-50.167
-49.647
-49.186
-48.784
-48.442
-48.163
-47.948
-47.801
-47.722
-47.71
-47.766
-47.887
-48.071
-48.316
-48.62
-48.978
-49.387
-49.844
-50.344
-50.885
-51.463
-52.073
-52.709
-53.369
-54.047
-54.737
-55.434
-56.134
-56.83
-57.519
-58.194
-58.851
-59.487
-60.095
-60.671
-61.212
-61.714
-62.172
-62.582
-62.942
-63.249
-63.499
-63.692
-63.825
-63.898
-63.909
-63.859
-63.747
-63.575
-63.343
-63.052
-62.704
-62.301
-61.845
-61.34
-60.788
-60.192
-59.557
-58.886
-58.184
-57.454
-56.702
-55.931
-55.146
-54.352
-53.552
-52.752
-51.955
-51.166
-50.39
-49.629
-48.887
-48.169
-47.477
-46.814
-46.182
-45.583
-45.019
-44.492
-44.002
-43.551
-43.138
-42.764
-42.428
-42.131
-41.87
-41.645
-41.455
-41.297
-41.17
-41.072
-40.999
-40.95
-40.923
-40.914
-40.922
-40.944
-40.977
-41.019
-41.069
-41.124
-41.181
-41.241
-41.3
-41.357
-41.413
-41.466
-41.515
-41.561
-41.602
-41.641
-41.676
-41.709
-41.739
-41.767
-41.795
-41.821
-41.849
-41.877
-41.907
-41.94
-41.977
-42.018
-42.064
-42.117
-42.175
-42.24
-42.311
-42.389
-42.473
-42.562
-42.655
-42.75
-42.846
-42.942
-43.033
-43.119
-43.195
-43.259
-43.306
-43.332
-43.334
-43.307
-43.247
-43.149
-43.009
-42.824
-42.589
-42.301
-41.957
-41.555
-41.09
-40.562
-39.968
-39.306
-38.576
-37.778
-36.912
-35.98
-34.982
-33.923
-32.805
-31.633
-30.414
-29.154
-27.86
-26.541
-25.207
-23.869
-22.537
-21.222
-19.937
-18.694
-17.505
-16.382
-15.338
-14.383
-13.53
-12.792
-12.181
-11.708
-11.383
-11.21
-11.197
-11.347
-11.666
-12.157
-12.826
-13.673
-14.702
-15.916
-17.317
-18.9
-20.656
-22.561
-24.589
-26.713
-28.904
-31.137
-33.384
-35.612
-37.789
-39.882
-41.856
-43.677
-45.308
-46.708
-47.847
-48.703
-49.281
-49.629
-49.809
-49.889
-49.939
-50.004
-50.137
-50.423
-50.952
-51.811
-53.078
-54.784
-56.998
-59.896
-63.567
-67.938
-72.744
-77.446
-81.513
-84.602
-86.277
-85.914
-83.137
-77.989
-71.079
-63.754
-57.243
-52.353
-50.065
-51.481
-57.175
-65.81
-74.072
-78.081
-74.835
-65.119
-51.395
-32.388
-3.863
41.582
111.547
205.819
318.448
440.975
563.725
678.776
777.558
849.457
881.113
860.886
785.305
656.983
489.344
305.129
126.856
-21.403
-123.351
-178.132
-192.742
-181.495
-158.561
-130.015
-100.111
-73.177
-53.277
-45.313
-49.472
-59.443
-68.984
-74.091
-74.374
-73.956
-75.274
-77.796
-80.299
-80.683
-78.221
-73.898
-68.671
-63.365
-58.704
-55.133
-52.879
-52.057
-52.546
-54.056
-56.393
-59.402
-62.882
-66.638
-70.488
-74.245
-77.785
-81.016
-83.813
-86.08
-87.755
-88.798
-89.216
-89.031
-88.254
-86.913
-85.039
-82.683
-79.925
-76.834
-73.476
-69.923
-66.239
-62.495
-58.766
-55.1
-51.522
-48.05
-44.685
-41.427
-38.283
-35.249
-32.319
-29.483
-26.721
-24.02
-21.368
-18.752
-16.155
-13.561
-10.949
-8.305
-5.625
-2.901
-0.126
2.705
5.6
8.568
11.616
14.753
17.994
21.348
24.822
28.419
32.139
35.98
39.934
43.992
48.134
52.345
56.609
60.915
65.258
69.627
74.005
78.374
82.706
86.986
91.212
95.379
99.488
103.547
107.573
111.598
115.671
119.826
124.078
128.43
132.872
137.398
142.007
146.697
151.462
156.285
161.133
165.973
170.763
175.437
179.907
184.062
187.761
190.896
193.391
195.18
196.214
196.443
195.814
194.282
191.817
188.383
183.953
178.512
172.061
164.645
156.351
147.291
137.612
127.437
116.865
106
94.943
83.797
72.669
61.666
50.891
40.469
30.549
21.254
12.685
4.903
-2.077
-8.259
-13.667
-18.325
-22.257
-25.495
-28.084
-30.066
-31.488
-32.409
-32.9
-33.058
-33.019
-32.893
-32.769
-32.713
-32.761
-32.943
-33.282
-33.788
-34.459
-35.291
-36.273
-37.399
-38.664
-40.051
-41.532
-43.061
-44.57
-46.008
-47.341
-48.542
-49.6
-50.504
-51.247
-51.833
-52.279
-52.598
-52.802
-52.9
-52.895
-52.798
-52.624
-52.395
-52.133
-51.858
-51.58
-51.305
-51.038
-50.781
-50.533
-50.289
-50.036
-49.768
-49.477
-49.16
-48.814
-48.437
-48.023
-47.568
-47.068
-46.523
-45.931
-45.292
-44.606
-43.875
-43.101
-42.289
-41.443
-40.568
-39.668
-38.747
-37.808
-36.856
-35.896
-34.931
-33.968
-33.011
-32.065
-31.137
-30.232
-29.357
-28.518
-27.719
-26.968
-26.269
-25.626
-25.046
-24.531
-24.084
-23.709
-23.406
-23.178
-23.024
-22.943
-22.935
-22.998
-23.13
-23.328
-23.588
-23.907
-24.28
-24.702
-25.17
-25.677
-26.219
-26.789
-27.383
-27.995
-28.618
-29.246
-29.875
-30.497
-31.107
-31.699
-32.268
-32.808
-33.315
-33.785
-34.214
-34.598
-34.935
-35.223
-35.46
-35.647
-35.782
-35.867
-35.903
-35.892
-35.837
-35.74
-35.606
-35.438
-35.241
-35.02
-34.779
-34.523
-34.258
-33.988
-33.72
-33.457
-33.206
-32.972
-32.759
-32.572
-32.415
-32.293
-32.208
-32.166
-32.167
-32.214
-32.311
-32.457
-32.653
-32.901
-33.2
-33.548
-33.946
-34.39
-34.878
-35.407
-35.972
-36.57
-37.196
-37.844
-38.509
-39.186
-39.868
-40.549
-41.223
-41.885
-42.526
-43.142
-43.725
-44.27
-44.77
-45.219
-45.613
-45.945
-46.212
-46.408
-46.53
-46.574
-46.538
-46.417
-46.21
-45.914
-45.527
-45.048
-44.477
-43.814
-43.058
-42.213
-41.279
-40.259
-39.156
-37.974
-36.717
-35.391
-33.999
-32.549
-31.046
-29.497
-27.911
-26.296
-24.659
-23.011
-21.362
-19.722
-18.103
-16.516
-14.973
-13.485
-12.062
-10.715
-9.454
-8.287
-7.222
-6.269
-5.436
-4.731
-4.164
-3.743
-3.475
-3.366
-3.42
-3.635
-4.012
-4.548
-5.242
-6.099
-7.124
-8.316
-9.68
-11.218
-12.924
-14.792
-16.797
-18.905
-21.079
-23.28
-25.47
-27.62
-29.696
-31.659
-33.474
-35.091
-36.464
-37.555
-38.32
-38.72
-38.733
-38.361
-37.653
-36.698
-35.593
-34.428
-33.275
-32.211
-31.35
-30.814
-30.719
-31.203
-32.338
-34.229
-37.082
-40.932
-45.647
-50.946
-56.215
-60.836
-64.424
-66.414
-66.116
-63.424
-58.551
-52.109
-45.613
-40.239
-36.577
-35.659
-38.328
-44.13
-51.918
-59.622
-63.641
-60.813
-48.583
-23.508
17.743
75.586
147.579
230.198
317.952
408.012
503.143
602.764
700.768
787.237
843.818
852.703
808.479
712.613
574.552
413.86
247.453
91.501
-35.387
-123.854
-171.849
-182.752
-167.797
-137.623
-99.449
-60.237
-27.264
-6.96
-3.015
-13.502
-30.226
-44.99
-53.346
-55.424
-55.395
-56.087
-57.844
-59.734
-59.83
-57.648
-54.096
-50.044
-46.494
-44.169
-43.158
-43.475
-45.053
-47.586
-50.836
-54.628
-58.754
-63.034
-67.328
-71.48
-75.358
-78.884
-81.967
-84.527
-86.518
-87.901
-88.679
-88.879
-88.54
-87.71
-86.445
-84.798
-82.825
-80.578
-78.111
-75.484
-72.757
-69.988
-67.234
-64.534
-61.918
-59.408
-57.009
-54.72
-52.534
-50.437
-48.413
-46.448
-44.531
-42.651
-40.799
-38.964
-37.132
-35.289
-33.421
-31.515
-29.558
-27.538
-25.445
-23.266
-20.992
-18.615
-16.127
-13.52
-10.784
-7.91
-4.886
-1.701
1.654
5.179
8.878
12.747
16.78
20.966
25.289
29.725
34.257
38.863
43.527
48.232
52.96
57.69
62.406
67.087
71.717
76.294
80.81
85.269
89.685
94.068
98.439
102.827
107.243
111.694
116.187
120.714
125.271
129.85
134.43
138.991
143.51
147.942
152.234
156.322
160.113
163.526
166.477
168.865
170.621
171.682
171.979
171.472
170.117
167.874
164.725
160.657
155.654
149.739
142.956
135.366
127.077
118.184
108.787
99.006
88.946
78.706
68.403
58.137
48.007
38.133
28.612
19.537
11.014
3.106
-4.143
-10.709
-16.606
-21.847
-26.444
-30.433
-33.848
-36.723
-39.111
-41.063
-42.633
-43.907
-44.957
-45.851
-46.672
-47.473
-48.293
-49.167
-50.104
-51.109
-52.192
-53.349
-54.569
-55.853
-57.184
-58.545
-59.916
-61.257
-62.534
-63.722
-64.79
-65.722
-66.512
-67.149
-67.638
-67.99
-68.215
-68.323
-68.331
-68.247
-68.084
-67.858
-67.586
-67.291
-66.993
-66.703
-66.435
-66.196
-65.99
-65.821
-65.688
-65.585
-65.506
-65.447
-65.401
-65.366
-65.336
-65.305
-65.267
-65.215
-65.141
-65.043
-64.914
-64.752
-64.551
-64.309
-64.023
-63.693
-63.318
-62.894
-62.42
-61.895
-61.315
-60.68
-59.989
-59.241
-58.435
-57.572
-56.652
-55.676
-54.648
-53.568
-52.44
-51.266
-50.049
-48.793
-47.503
-46.181
-44.834
-43.465
-42.079
-40.681
-39.275
-37.866
-36.458
-35.056
-33.663
-32.284
-30.923
-29.584
-28.271
-26.987
-25.736
-24.522
-23.347
-22.215
-21.129
-20.09
-19.102
-18.166
-17.284
-16.457
-15.686
-14.972
-14.315
-13.716
-13.173
-12.687
-12.256
-11.879
-11.556
-11.284
-11.063
-10.89
-10.764
-10.682
-10.645
-10.648
-10.691
-10.773
-10.89
-11.043
-11.228
-11.445
-11.692
-11.968
-12.27
-12.599
-12.953
-13.331
-13.732
-14.155
-14.599
-15.064
-15.549
-16.054
-16.577
-17.119
-17.678
-18.255
-18.849
-19.459
-20.086
-20.73
-21.391
-22.067
-22.76
-23.469
-24.193
-24.932
-25.685
-26.451
-27.229
-28.018
-28.815
-29.619
-30.428
-31.238
-32.048
-32.853
-33.65
-34.434
-35.199
-35.941
-36.656
-37.337
-37.981
-38.582
-39.137
-39.642
-40.094
-40.489
-40.823
-41.09
-41.286
-41.405
-41.44
-41.387
-41.238
-40.988
-40.631
-40.166
-39.588
-38.895
-38.083
-37.145
-36.077
-34.883
-33.564
-32.126
-30.58
-28.935
-27.206
-25.417
-23.59
-21.747
-19.907
-18.079
-16.271
-14.495
-12.76
-11.081
-9.465
-7.904
-6.388
-4.912
-3.466
-2.041
-0.62
0.832
2.345
3.935
5.614
7.368
9.177
11.024
12.89
14.748
16.559
18.264
19.791
21.089
22.112
22.81
23.134
23.006
22.366
21.181
19.443
17.174
14.413
11.196
7.566
3.592
-0.646
-5.039
-9.462
-13.818
-18.023
-21.995
-25.651
-28.893
-31.631
-33.832
-35.524
-36.792
-37.736
-38.438
-38.952
-39.349
-39.733
-40.215
-40.851
-41.624
-42.522
-43.568
-44.916
-46.786
-49.205
-52.168
-55.692
-59.504
-63.131
-65.985
-67.074
-66.345
-65.108
-63.83
-62.085
-56.998
-43.676
-21.118
6.935
32.478
46.011
43.768
28.433
6.345
-14.44
-26.808
-24.476
0.684
55.614
141.404
254.676
385.629
521.37
653.752
771.906
863.859
920.67
929.525
886.795
798.337
670.331
518.076
356.877
200.388
68.384
-27.025
-82.612
-101.047
-97.561
-85.581
-70.258
-57.158
-44.62
-31.589
-23.645
-19.789
-19.666
-23.598
-27.371
-31.647
-37.462
-43.227
-48.727
-52.426
-52.993
-50.998
-47.126
-42.206
-37.108
-32.438
-28.768
-26.469
-25.637
-26.146
-27.713
-30.12
-33.192
-36.733
-40.557
-44.477
-48.332
-52.004
-55.405
-58.427
-60.962
-62.938
-64.308
-65.068
-65.242
-64.862
-63.964
-62.603
-60.84
-58.734
-56.35
-53.749
-50.986
-48.122
-45.214
-42.315
-39.473
-36.714
-34.043
-31.458
-28.946
-26.494
-24.097
-21.742
-19.41
-17.088
-14.761
-12.427
-10.093
-7.762
-5.431
-3.101
-0.772
1.543
3.814
6.024
8.161
10.222
12.225
14.181
16.096
17.987
19.869
21.77
23.738
25.81
28.011
30.376
32.932
35.724
38.815
42.246
46.042
50.219
54.773
59.707
65.034
70.749
76.849
83.326
90.146
97.288
104.738
112.459
120.409
128.526
136.726
144.938
153.102
161.156
169.042
176.689
184.014
190.939
197.387
203.265
208.492
212.976
216.626
219.385
221.209
222.078
221.985
220.931
218.912
215.932
212.009
207.168
201.446
194.881
187.526
179.452
170.752
161.534
151.9
141.937
131.715
121.296
110.745
100.122
89.487
78.905
68.435
58.142
48.11
38.411
29.106
20.25
11.863
3.946
-3.491
-10.441
-16.89
-22.826
-28.251
-33.169
-37.58
-41.5
-44.952
-47.975
-50.639
-53.008
-55.136
-57.082
-58.877
-60.541
-62.103
-63.58
-64.983
-66.329
-67.622
-68.863
-70.064
-71.226
-72.34
-73.389
-74.334
-75.145
-75.798
-76.273
-76.56
-76.655
-76.556
-76.268
-75.807
-75.186
-74.421
-73.528
-72.518
-71.405
-70.209
-68.952
-67.66
-66.36
-65.068
-63.8
-62.57
-61.386
-60.258
-59.187
-58.171
-57.209
-56.299
-55.438
-54.628
-53.867
-53.151
-52.476
-51.838
-51.232
-50.654
-50.101
-49.568
-49.054
-48.553
-48.064
-47.585
-47.114
-46.649
-46.186
-45.724
-45.258
-44.786
-44.308
-43.82
-43.321
-42.809
-42.285
-41.75
-41.202
-40.644
-40.077
-39.502
-38.922
-38.34
-37.757
-37.179
-36.607
-36.047
-35.502
-34.977
-34.476
-34.004
-33.566
-33.167
-32.81
-32.502
-32.246
-32.046
-31.907
-31.832
-31.826
-31.89
-32.029
-32.243
-32.536
-32.909
-33.362
-33.897
-34.513
-35.21
-35.987
-36.842
-37.775
-38.781
-39.86
-41.007
-42.22
-43.494
-44.825
-46.208
-47.637
-49.108
-50.613
-52.147
-53.702
-55.273
-56.852
-58.433
-60.008
-61.571
-63.114
-64.632
-66.117
-67.565
-68.967
-70.32
-71.617
-72.855
-74.028
-75.133
-76.165
-77.122
-78
-78.797
-79.51
-80.136
-80.676
-81.126
-81.485
-81.755
-81.933
-82.023
-82.023
-81.938
-81.768
-81.516
-81.187
-80.782
-80.307
-79.764
-79.159
-78.496
-77.779
-77.014
-76.205
-75.358
-74.477
-73.568
-72.635
-71.683
-70.715
-69.737
-68.752
-67.764
-66.777
-65.794
-64.82
-63.859
-62.914
-61.989
-61.086
-60.209
-59.358
-58.536
-57.743
-56.978
-56.24
-55.529
-54.843
-54.18
-53.54
-52.92
-52.319
-51.735
-51.166
-50.611
-50.066
-49.526
-48.986
-48.442
-47.89
-47.325
-46.741
-46.133
-45.497
-44.832
-44.136
-43.406
-42.637
-41.823
-40.96
-40.049
-39.092
-38.093
-37.059
-35.996
-34.92
-33.853
-32.818
-31.838
-30.925
-30.085
-29.324
-28.65
-28.069
-27.591
-27.214
-26.923
-26.71
-26.57
-26.496
-26.483
-26.509
-26.532
-26.521
-26.449
-26.301
-26.087
-25.811
-25.481
-25.122
-24.761
-24.447
-24.251
-24.226
-24.409
-24.835
-25.521
-26.494
-27.805
-29.484
-31.547
-33.995
-36.803
-39.94
-43.375
-47.042
-50.858
-54.723
-58.506
-62.099
-65.427
-68.432
-71.108
-73.465
-75.502
-77.228
-78.653
-79.804
-80.761
-81.617
-82.47
-83.445
-84.647
-86.227
-88.46
-91.477
-95.218
-99.446
-103.595
-107.074
-109.498
-110.381
-109.101
-105.442
-99.587
-92.219
-84.898
-79.116
-75.802
-75.897
-80.174
-88.473
-99.707
-111.767
-121.022
-123.511
-115.824
-94.554
-56.469
-0.574
71.447
156.969
251.294
350.963
455.717
563.11
668.11
761.574
830.157
861.247
846.185
783.485
676.423
534.501
374.639
214.725
76.308
-23.267
-81.734
-103.658
-102.342
-93.1
-78.946
-62.571
-46.392
-30.604
-23.507
-28.041
-39.209
-53.926
-65.624
-71.396
-75.322
-78.708
-82.1
-85.538
-86.536
-84.338
-79.785
-73.521
-66.493
-59.543
-53.109
-47.486
-42.913
-39.37
-36.637
-34.601
-33.206
-32.392
-32.149
-32.457
-33.252
-34.494
-36.16
-38.186
-40.5
-43.03
-45.691
-48.437
-51.238
-54.068
-56.916
-59.76
-62.559
-65.254
-67.761
-69.986
-71.871
-73.378
-74.485
-75.192
-75.496
-75.401
-74.929
-74.092
-72.902
-71.368
-69.492
-67.281
-64.763
-61.981
-58.997
-55.885
-52.697
-49.469
-46.23
-42.993
-39.768
-36.562
-33.364
-30.158
-26.931
-23.674
-20.381
-17.047
-13.656
-10.181
-6.591
-2.851
1.06
5.154
9.438
13.911
18.567
23.39
28.351
33.42
38.567
43.771
49.02
54.296
59.575
64.829
70.023
75.136
80.157
85.079
89.899
94.629
99.282
103.894
108.517
113.186
117.928
122.755
127.663
132.652
137.729
142.894
148.152
153.494
158.885
164.284
169.64
174.87
179.879
184.544
188.711
192.263
195.102
197.133
198.293
198.52
197.74
195.896
192.932
188.787
183.443
176.905
169.195
160.399
150.622
139.999
128.711
116.911
104.74
92.349
79.863
67.404
55.115
43.13
31.596
20.691
10.555
1.294
-7.014
-14.349
-20.712
-26.12
-30.638
-34.327
-37.249
-39.477
-41.06
-42.036
-42.467
-42.427
-42.016
-41.379
-40.638
-39.873
-39.151
-38.499
-37.937
-37.484
-37.125
-36.823
-36.54
-36.246
-35.944
-35.667
-35.431
-35.228
-35.029
-34.771
-34.413
-33.942
-33.354
-32.656
-31.854
-30.956
-29.996
-29.037
-28.145
-27.359
-26.683
-26.086
-25.546
-25.065
-24.656
-24.341
-24.128
-24.013
-23.993
-24.07
-24.249
-24.526
-24.879
-25.263
-25.632
-25.962
-26.256
-26.537
-26.824
-27.118
-27.421
-27.731
-28.056
-28.403
-28.77
-29.145
-29.515
-29.875
-30.228
-30.588
-30.969
-31.372
-31.789
-32.205
-32.608
-32.99
-33.344
-33.662
-33.932
-34.147
-34.304
-34.409
-34.468
-34.482
-34.45
-34.37
-34.239
-34.06
-33.835
-33.565
-33.253
-32.901
-32.511
-32.087
-31.631
-31.147
-30.634
-30.093
-29.524
-28.925
-28.3
-27.647
-26.969
-26.266
-25.539
-24.79
-24.022
-23.236
-22.434
-21.619
-20.791
-19.954
-19.109
-18.259
-17.406
-16.552
-15.7
-14.852
-14.01
-13.178
-12.358
-11.554
-10.769
-10.005
-9.268
-8.561
-7.886
-7.249
-6.652
-6.099
-5.595
-5.142
-4.743
-4.402
-4.123
-3.907
-3.757
-3.675
-3.663
-3.722
-3.854
-4.058
-4.334
-4.682
-5.101
-5.59
-6.146
-6.768
-7.453
-8.196
-8.996
-9.847
-10.744
-11.684
-12.659
-13.665
-14.695
-15.743
-16.803
-17.869
-18.934
-19.994
-21.042
-22.072
-23.081
-24.063
-25.013
-25.927
-26.802
-27.632
-28.416
-29.15
-29.832
-30.461
-31.034
-31.552
-32.014
-32.421
-32.774
-33.076
-33.327
-33.532
-33.693
-33.816
-33.904
-33.964
-34.002
-34.022
-34.034
-34.042
-34.053
-34.074
-34.11
-34.166
-34.248
-34.358
-34.5
-34.677
-34.891
-35.143
-35.437
-35.773
-36.151
-36.574
-37.041
-37.552
-38.108
-38.705
-39.338
-40.005
-40.699
-41.414
-42.142
-42.876
-43.605
-44.321
-45.015
-45.679
-46.301
-46.871
-47.37
-47.787
-48.114
-48.343
-48.47
-48.491
-48.404
-48.214
-47.931
-47.568
-47.134
-46.633
-46.058
-45.405
-44.673
-43.864
-42.981
-42.02
-40.964
-39.804
-38.535
-37.15
-35.644
-33.998
-32.176
-30.153
-27.913
-25.456
-22.808
-19.992
-17.03
-13.959
-10.819
-7.667
-4.584
-1.63
1.148
3.701
5.986
7.941
9.475
10.518
11.02
10.942
10.275
9.015
7.16
4.743
1.825
-1.515
-5.168
-9.045
-13.079
-17.196
-21.324
-25.378
-29.243
-32.821
-36.031
-38.795
-41.048
-42.743
-43.849
-44.395
-44.463
-44.159
-43.602
-42.885
-42.09
-41.333
-40.749
-40.477
-40.648
-41.351
-42.696
-44.91
-48.139
-52.348
-57.279
-62.386
-67.116
-71.108
-73.926
-74.936
-73.712
-70.263
-65.242
-60.048
-55.907
-53.535
-53.699
-57.249
-64.638
-74.514
-83.282
-86.714
-81.856
-69.403
-51.883
-28.649
5.572
59.306
138.752
243.075
363.21
486.32
605.112
714.693
811.277
891.581
941.495
945.913
897.642
792.804
642.434
469.162
293.824
141.202
29.814
-38.835
-68.194
-70.991
-63.948
-50.8
-35.45
-21.242
-7.333
-1.817
-7.838
-20.2
-36.379
-49.926
-57.596
-63.665
-69.512
-75.536
-81.768
-85.537
-85.858
-83.546
-79.247
-73.9
-68.399
-63.277
-58.91
-55.584
-53.306
-51.824
-50.966
-50.631
-50.68
-50.996
-51.456
-51.92
-52.321
-52.67
-52.982
-53.261
-53.49
-53.627
-53.638
-53.53
-53.331
-53.079
-52.813
-52.561
-52.345
-52.19
-52.13
-52.188
-52.359
-52.61
-52.871
-53.075
-53.181
-53.165
-53.011
-52.698
-52.192
-51.465
-50.502
-49.3
-47.859
-46.177
-44.24
-42.051
-39.628
-37.011
-34.257
-31.416
-28.516
-25.576
-22.605
-19.61
-16.601
-13.574
-10.511
-7.392
-4.193
-0.901
2.489
5.987
9.607
13.366
17.283
21.367
25.609
30.001
34.531
39.189
43.967
48.848
53.807
58.813
63.836
68.848
73.84
78.801
83.723
88.608
93.464
98.314
103.198
108.15
113.19
118.331
123.571
128.902
134.327
139.846
145.457
151.16
156.928
162.721
168.494
174.173
179.673
184.887
189.678
193.914
197.486
200.294
202.261
203.327
203.42
202.473
200.424
197.199
192.763
187.111
180.252
172.238
163.146
153.08
142.187
130.627
118.548
106.101
93.42
80.627
67.866
55.286
43.046
31.326
20.275
10.003
0.607
-7.858
-15.361
-21.889
-27.474
-32.174
-36.046
-39.155
-41.563
-43.321
-44.512
-45.234
-45.602
-45.759
-45.825
-45.889
-46.034
-46.315
-46.776
-47.453
-48.353
-49.458
-50.755
-52.224
-53.85
-55.625
-57.521
-59.495
-61.496
-63.453
-65.313
-67.041
-68.609
-69.997
-71.194
-72.191
-72.994
-73.624
-74.098
-74.43
-74.634
-74.715
-74.689
-74.578
-74.405
-74.201
-73.986
-73.772
-73.572
-73.393
-73.239
-73.113
-73.011
-72.923
-72.843
-72.767
-72.691
-72.616
-72.537
-72.451
-72.352
-72.236
-72.101
-71.944
-71.762
-71.555
-71.321
-71.06
-70.774
-70.465
-70.134
-69.783
-69.41
-69.017
-68.603
-68.17
-67.717
-67.245
-66.754
-66.246
-65.722
-65.182
-64.63
-64.066
-63.491
-62.906
-62.313
-61.714
-61.108
-60.497
-59.882
-59.263
-58.64
-58.014
-57.386
-56.754
-56.12
-55.482
-54.842
-54.2
-53.554
-52.906
-52.255
-51.602
-50.947
-50.292
-49.635
-48.979
-48.324
-47.67
-47.02
-46.374
-45.733
-45.099
-44.473
-43.855
-43.249
-42.654
-42.074
-41.509
-40.962
-40.435
-39.929
-39.448
-38.993
-38.566
-38.17
-37.808
-37.48
-37.191
-36.94
-36.731
-36.565
-36.442
-36.364
-36.332
-36.346
-36.405
-36.511
-36.662
-36.857
-37.096
-37.377
-37.699
-38.059
-38.455
-38.885
-39.346
-39.835
-40.35
-40.886
-41.441
-42.01
-42.591
-43.18
-43.772
-44.364
-44.951
-45.53
-46.097
-46.648
-47.18
-47.687
-48.168
-48.618
-49.035
-49.417
-49.76
-50.064
-50.326
-50.545
-50.72
-50.851
-50.936
-50.975
-50.969
-50.919
-50.824
-50.687
-50.508
-50.29
-50.034
-49.743
-49.419
-49.065
-48.685
-48.279
-47.852
-47.406
-46.946
-46.473
-45.991
-45.503
-45.013
-44.524
-44.039
-43.561
-43.093
-42.638
-42.197
-41.774
-41.37
-40.986
-40.625
-40.286
-39.972
-39.683
-39.419
-39.181
-38.968
-38.779
-38.614
-38.47
-38.345
-38.236
-38.139
-38.051
-37.969
-37.888
-37.806
-37.719
-37.624
-37.518
-37.399
-37.264
-37.108
-36.926
-36.712
-36.461
-36.167
-35.824
-35.427
-34.967
-34.441
-33.847
-33.181
-32.442
-31.624
-30.72
-29.726
-28.644
-27.475
-26.224
-24.899
-23.507
-22.062
-20.588
-19.107
-17.641
-16.205
-14.802
-13.439
-12.125
-10.868
-9.678
-8.556
-7.488
-6.467
-5.488
-4.544
-3.63
-2.724
-1.787
-0.789
0.292
1.46
2.702
4.005
5.361
6.747
8.135
9.475
10.694
11.737
12.562
13.122
13.381
13.285
12.771
11.802
10.366
8.466
6.139
3.412
0.32
-3.076
-6.698
-10.439
-14.167
-17.776
-21.173
-24.268
-26.987
-29.265
-31.055
-32.371
-33.259
-33.776
-33.98
-33.94
-33.748
-33.54
-33.474
-33.715
-34.397
-35.661
-37.719
-40.702
-44.587
-49.171
-53.941
-58.336
-61.974
-64.416
-65.046
-63.488
-59.714
-54.178
-48.222
-43.161
-39.603
-38.229
-39.92
-44.995
-53.054
-61.69
-66.034
-61.732
-46.352
-20.82
12.444
53.02
102.388
166.855
252.361
360.23
489.06
629.215
766.514
885.5
968.873
1003.735
983.129
908.059
787.195
634.061
465.448
297.781
147.016
26.279
-57.455
-103.34
-117.849
-111.015
-91.244
-66.716
-43.84
-26.426
-19.478
-23.45
-33.471
-46.091
-56.759
-63.57
-69.64
-75.729
-81.498
-86.471
-88.402
-86.577
-81.821
-74.884
-66.802
-58.611
-51.006
-44.404
-39.06
-34.946
-31.807
-29.479
-27.863
-26.817
-26.231
-26.026
-26.108
-26.428
-26.993
-27.763
-28.67
-29.645
-30.6
-31.485
-32.299
-33.055
-33.779
-34.504
-35.248
-36.019
-36.824
-37.648
-38.472
-39.276
-40.022
-40.668
-41.194
-41.59
-41.862
-42.016
-42.041
-41.916
-41.62
-41.132
-40.442
-39.546
-38.44
-37.129
-35.631
-33.97
-32.185
-30.323
-28.41
-26.461
-24.48
-22.461
-20.398
-18.288
-16.121
-13.879
-11.547
-9.112
-6.563
-3.89
-1.077
1.899
5.066
8.451
12.069
15.927
20.025
24.355
28.904
33.654
38.573
43.634
48.807
54.07
59.401
64.779
70.179
75.575
80.94
86.251
91.496
96.666
101.754
106.77
111.718
116.614
121.481
126.325
131.149
135.953
140.725
145.459
150.147
154.768
159.307
163.743
168.033
172.131
175.98
179.49
182.589
185.197
187.22
188.599
189.277
189.196
188.316
186.6
184.007
180.52
176.123
170.794
164.554
157.439
149.507
140.863
131.598
121.811
111.623
101.134
90.443
79.668
68.91
58.27
47.872
37.817
28.205
19.151
10.728
2.987
-4.039
-10.356
-15.974
-20.899
-25.165
-28.804
-31.848
-34.349
-36.359
-37.929
-39.146
-40.081
-40.803
-41.396
-41.917
-42.407
-42.903
-43.417
-43.956
-44.529
-45.133
-45.76
-46.406
-47.056
-47.693
-48.298
-48.832
-49.266
-49.576
-49.737
-49.735
-49.567
-49.227
-48.725
-48.077
-47.296
-46.4
-45.412
-44.346
-43.223
-42.067
-40.899
-39.751
-38.646
-37.604
-36.642
-35.773
-35.006
-34.348
-33.804
-33.371
-33.048
-32.832
-32.722
-32.714
-32.808
-32.997
-33.275
-33.636
-34.072
-34.579
-35.149
-35.777
-36.457
-37.181
-37.944
-38.741
-39.566
-40.412
-41.272
-42.137
-42.999
-43.852
-44.687
-45.496
-46.273
-47.011
-47.704
-48.347
-48.935
-49.464
-49.929
-50.328
-50.658
-50.916
-51.1
-51.21
-51.244
-51.203
-51.087
-50.896
-50.633
-50.299
-49.896
-49.427
-48.896
-48.304
-47.658
-46.961
-46.217
-45.433
-44.613
-43.765
-42.893
-42.004
-41.104
-40.2
-39.297
-38.4
-37.517
-36.651
-35.807
-34.99
-34.205
-33.455
-32.743
-32.075
-31.451
-30.876
-30.351
-29.878
-29.458
-29.092
-28.782
-28.526
-28.326
-28.18
-28.087
-28.046
-28.054
-28.11
-28.211
-28.353
-28.532
-28.745
-28.988
-29.255
-29.542
-29.846
-30.161
-30.483
-30.808
-31.132
-31.451
-31.762
-32.061
-32.345
-32.61
-32.854
-33.076
-33.271
-33.44
-33.581
-33.693
-33.774
-33.825
-33.846
-33.837
-33.798
-33.731
-33.637
-33.517
-33.374
-33.211
-33.03
-32.835
-32.63
-32.419
-32.205
-31.992
-31.785
-31.588
-31.404
-31.237
-31.092
-30.972
-30.88
-30.82
-30.795
-30.808
-30.862
-30.958
-31.099
-31.286
-31.521
-31.803
-32.135
-32.514
-32.943
-33.421
-33.946
-34.518
-35.137
-35.8
-36.505
-37.25
-38.032
-38.85
-39.698
-40.575
-41.476
-42.398
-43.338
-44.292
-45.255
-46.223
-47.193
-48.16
-49.119
-50.064
-50.99
-51.892
-52.766
-53.607
-54.411
-55.172
-55.889
-56.559
-57.178
-57.745
-58.255
-58.704
-59.09
-59.409
-59.657
-59.828
-59.92
-59.927
-59.846
-59.674
-59.408
-59.045
-58.578
-58.001
-57.31
-56.504
-55.586
-54.56
-53.432
-52.211
-50.912
-49.556
-48.161
-46.742
-45.313
-43.882
-42.463
-41.067
-39.705
-38.387
-37.12
-35.898
-34.715
-33.559
-32.405
-31.232
-30.007
-28.687
-27.242
-25.652
-23.902
-21.991
-19.921
-17.697
-15.34
-12.873
-10.327
-7.752
-5.204
-2.744
-0.463
1.556
3.231
4.46
5.17
5.304
4.811
3.674
1.894
-0.515
-3.515
-7.055
-11.081
-15.509
-20.246
-25.189
-30.199
-35.15
-39.922
-44.383
-48.421
-51.95
-54.889
-57.209
-58.938
-60.121
-60.833
-61.157
-61.146
-60.884
-60.502
-60.13
-59.917
-59.995
-60.432
-61.354
-62.99
-65.45
-68.688
-72.488
-76.34
-79.711
-82.245
-83.443
-82.595
-79.284
-73.539
-65.799
-57.21
-49.127
-42.459
-38.214
-37.889
-41.293
-46.187
-50.441
-50.655
-46.028
-39.954
-31.782
-17.63
10.336
63.754
146.433
254.372
378.811
507.943
635.136
755.543
860.919
940.313
977.411
958.63
881.287
751.417
585.795
406.306
232.886
83.575
-30.451
-104.736
-141.074
-146.201
-127.311
-93.936
-55.801
-23.38
-6.786
-9.222
-27.222
-50.884
-70.301
-81.378
-84.93
-86.358
-89.276
-93.365
-97.14
-98.068
-95.216
-89.602
-82.264
-74.216
-66.301
-59.011
-52.661
-47.456
-43.335
-40.102
-37.658
-35.965
-35.002
-34.723
-35.067
-35.947
-37.292
-39.052
-41.134
-43.427
-45.82
-48.206
-50.521
-52.734
-54.825
-56.78
-58.582
-60.198
-61.577
-62.677
-63.452
-63.879
-63.96
-63.704
-63.14
-62.3
-61.224
-59.95
-58.506
-56.908
-55.162
-53.274
-51.249
-49.106
-46.878
-44.6
-42.317
-40.062
-37.851
-35.694
-33.591
-31.532
-29.506
-27.494
-25.473
-23.424
-21.333
-19.186
-16.974
-14.679
-12.278
-9.743
-7.039
-4.141
-1.032
2.297
5.852
9.632
13.629
17.827
22.2
26.723
31.381
36.157
41.043
46.024
51.074
56.173
61.296
66.425
71.552
76.669
81.769
86.855
91.939
97.04
102.189
107.403
112.68
118.013
123.383
128.77
134.165
139.544
144.877
150.127
155.249
160.194
164.913
169.342
173.396
176.987
180.018
182.414
184.123
185.103
185.321
184.756
183.383
181.186
178.168
174.333
169.689
164.263
158.077
151.177
143.638
135.542
126.977
118.026
108.757
99.239
89.544
79.737
69.889
60.079
50.377
40.869
31.64
22.755
14.286
6.291
-1.202
-8.164
-14.579
-20.436
-25.726
-30.445
-34.602
-38.205
-41.276
-43.852
-45.98
-47.726
-49.159
-50.332
-51.302
-52.124
-52.84
-53.488
-54.101
-54.698
-55.299
-55.919
-56.566
-57.25
-57.97
-58.715
-59.463
-60.181
-60.84
-61.424
-61.917
-62.304
-62.577
-62.729
-62.764
-62.692
-62.524
-62.27
-61.939
-61.542
-61.092
-60.608
-60.11
-59.623
-59.164
-58.746
-58.38
-58.071
-57.826
-57.644
-57.524
-57.457
-57.435
-57.452
-57.502
-57.58
-57.678
-57.786
-57.895
-57.996
-58.08
-58.139
-58.166
-58.153
-58.095
-57.988
-57.826
-57.608
-57.331
-56.993
-56.59
-56.121
-55.584
-54.979
-54.306
-53.566
-52.761
-51.894
-50.968
-49.989
-48.962
-47.892
-46.785
-45.647
-44.486
-43.308
-42.119
-40.928
-39.741
-38.566
-37.408
-36.276
-35.176
-34.114
-33.096
-32.128
-31.215
-30.362
-29.572
-28.85
-28.199
-27.621
-27.119
-26.693
-26.344
-26.072
-25.877
-25.756
-25.707
-25.728
-25.813
-25.96
-26.164
-26.419
-26.721
-27.064
-27.443
-27.851
-28.285
-28.738
-29.205
-29.68
-30.159
-30.635
-31.105
-31.564
-32.006
-32.429
-32.828
-33.2
-33.542
-33.851
-34.125
-34.361
-34.559
-34.716
-34.834
-34.91
-34.947
-34.944
-34.904
-34.829
-34.72
-34.581
-34.414
-34.222
-34.007
-33.774
-33.525
-33.263
-32.991
-32.712
-32.427
-32.141
-31.855
-31.572
-31.294
-31.023
-30.761
-30.509
-30.269
-30.043
-29.831
-29.635
-29.456
-29.295
-29.152
-29.029
-28.924
-28.839
-28.774
-28.727
-28.698
-28.686
-28.689
-28.707
-28.738
-28.78
-28.832
-28.892
-28.961
-29.035
-29.116
-29.2
-29.29
-29.382
-29.479
-29.578
-29.681
-29.788
-29.897
-30.011
-30.13
-30.253
-30.382
-30.517
-30.657
-30.804
-30.957
-31.117
-31.283
-31.454
-31.631
-31.814
-32.002
-32.197
-32.397
-32.603
-32.816
-33.035
-33.261
-33.492
-33.728
-33.967
-34.209
-34.45
-34.688
-34.921
-35.144
-35.355
-35.55
-35.724
-35.875
-35.998
-36.089
-36.144
-36.159
-36.13
-36.053
-35.921
-35.732
-35.479
-35.161
-34.773
-34.312
-33.774
-33.157
-32.461
-31.682
-30.819
-29.867
-28.818
-27.67
-26.424
-25.086
-23.662
-22.165
-20.606
-19.003
-17.382
-15.765
-14.171
-12.616
-11.104
-9.647
-8.259
-6.958
-5.769
-4.708
-3.777
-2.981
-2.322
-1.792
-1.377
-1.044
-0.739
-0.422
-0.067
0.339
0.781
1.252
1.75
2.27
2.81
3.358
3.891
4.4
4.889
5.346
5.749
6.048
6.154
6.008
5.582
4.864
3.882
2.667
1.243
-0.352
-2.073
-3.879
-5.743
-7.679
-9.741
-11.98
-14.426
-17.06
-19.842
-22.774
-25.899
-29.293
-33.048
-37.226
-41.931
-47.355
-53.597
-60.59
-68.055
-75.414
-82.041
-87.503
-91.324
-92.861
-91.746
-88.103
-82.605
-76.662
-71.761
-68.601
-67.675
-70.01
-75.993
-84.793
-94.727
-101.523
-100.529
-90.089
-67.827
-32.735
15.353
79.888
160.053
254.275
360.915
473.54
590.065
706.698
815.057
907.676
971.323
991.669
960.705
875.678
740.841
570.71
385.444
205.706
54.996
-50.431
-108.397
-124.624
-115.734
-100.686
-87.935
-80.421
-75.546
-67.857
-58.019
-49.01
-43.341
-43.798
-50.078
-59.778
-70.871
-81.075
-88.409
-92.238
-92.555
-89.645
-84.329
-77.473
-69.794
-62.154
-55.367
-49.8
-45.565
-42.604
-40.661
-39.559
-39.193
-39.411
-40.093
-41.161
-42.534
-44.16
-45.99
-47.934
-49.895
-51.785
-53.537
-55.129
-56.553
-57.812
-58.922
-59.89
-60.716
-61.386
-61.85
-62.055
-61.975
-61.602
-60.953
-60.059
-58.94
-57.62
-56.125
-54.466
-52.649
-50.671
-48.51
-46.15
-43.591
-40.851
-37.982
-35.042
-32.073
-29.1
-26.138
-23.201
-20.311
-17.485
-14.719
-12.013
-9.368
-6.801
-4.353
-2.051
0.095
2.097
3.989
5.808
7.58
9.332
11.097
12.912
14.829
16.885
19.096
21.487
24.083
26.931
30.098
33.629
37.543
41.846
46.524
51.569
56.978
62.733
68.804
75.16
81.766
88.598
95.645
102.875
110.239
117.673
125.094
132.44
139.667
146.735
153.606
160.24
166.592
172.621
178.287
183.53
188.271
192.425
195.898
198.629
200.58
201.723
202.039
201.505
200.092
197.776
194.534
190.34
185.172
179.026
171.919
163.915
155.112
145.623
135.57
125.056
114.171
103.013
91.678
80.263
68.868
57.597
46.566
35.915
25.787
16.294
7.52
-0.496
-7.748
-14.241
-19.995
-25.031
-29.374
-33.06
-36.126
-38.608
-40.549
-42.011
-43.073
-43.851
-44.461
-44.995
-45.524
-46.096
-46.739
-47.478
-48.325
-49.28
-50.338
-51.487
-52.723
-54.044
-55.443
-56.899
-58.377
-59.819
-61.175
-62.41
-63.498
-64.425
-65.184
-65.769
-66.184
-66.447
-66.576
-66.586
-66.492
-66.299
-66.02
-65.67
-65.273
-64.856
-64.441
-64.041
-63.67
-63.335
-63.041
-62.792
-62.587
-62.415
-62.271
-62.148
-62.043
-61.952
-61.873
-61.798
-61.722
-61.638
-61.541
-61.428
-61.295
-61.136
-60.951
-60.735
-60.49
-60.214
-59.909
-59.573
-59.205
-58.805
-58.373
-57.907
-57.409
-56.878
-56.313
-55.717
-55.09
-54.435
-53.753
-53.046
-52.316
-51.566
-50.8
-50.019
-49.228
-48.429
-47.625
-46.82
-46.017
-45.22
-44.432
-43.655
-42.894
-42.151
-41.428
-40.729
-40.056
-39.411
-38.795
-38.211
-37.659
-37.141
-36.659
-36.211
-35.8
-35.425
-35.087
-34.786
-34.521
-34.291
-34.096
-33.934
-33.804
-33.705
-33.635
-33.592
-33.575
-33.581
-33.609
-33.657
-33.721
-33.799
-33.888
-33.987
-34.091
-34.198
-34.306
-34.41
-34.51
-34.602
-34.685
-34.755
-34.811
-34.85
-34.872
-34.874
-34.855
-34.814
-34.75
-34.662
-34.55
-34.413
-34.253
-34.069
-33.862
-33.633
-33.382
-33.11
-32.82
-32.512
-32.189
-31.852
-31.504
-31.147
-30.785
-30.421
-30.057
-29.698
-29.347
-29.008
-28.684
-28.38
-28.099
-27.844
-27.62
-27.43
-27.278
-27.166
-27.099
-27.079
-27.109
-27.19
-27.325
-27.515
-27.762
-28.065
-28.426
-28.845
-29.321
-29.855
-30.444
-31.089
-31.786
-32.535
-33.331
-34.172
-35.055
-35.974
-36.926
-37.905
-38.906
-39.923
-40.95
-41.981
-43.009
-44.026
-45.027
-46.002
-46.946
-47.85
-48.707
-49.509
-50.249
-50.919
-51.514
-52.026
-52.449
-52.777
-53.005
-53.127
-53.139
-53.035
-52.811
-52.464
-51.991
-51.389
-50.657
-49.794
-48.799
-47.674
-46.419
-45.036
-43.529
-41.903
-40.16
-38.307
-36.35
-34.298
-32.157
-29.939
-27.652
-25.307
-22.918
-20.497
-18.059
-15.616
-13.185
-10.782
-8.422
-6.12
-3.892
-1.753
0.282
2.199
3.983
5.621
7.099
8.404
9.521
10.439
11.145
11.631
11.89
11.92
11.717
11.278
10.598
9.673
8.505
7.093
5.44
3.548
1.426
-0.906
-3.415
-6.061
-8.802
-11.6
-14.417
-17.217
-19.958
-22.595
-25.081
-27.372
-29.429
-31.22
-32.707
-33.86
-34.664
-35.14
-35.364
-35.428
-35.433
-35.47
-35.598
-35.898
-36.483
-37.464
-38.942
-40.997
-43.643
-46.938
-51.056
-56.046
-61.779
-67.981
-74.082
-79.511
-83.906
-86.754
-87.317
-85.239
-80.601
-73.784
-65.881
-58.096
-51.161
-46.136
-44.564
-45.942
-47.724
-47.737
-42.719
-32.747
-22.49
-11.722
3.652
31.856
85.347
168.625
277.381
402.254
531.452
656.393
769.086
860.702
918.99
929.145
885.204
788.116
645.833
477.136
299.384
130.489
-9.106
-109.203
-166.872
-185.977
-179.431
-157.934
-127.647
-94.735
-64.746
-43.282
-35.691
-41.476
-53.506
-64.745
-70.866
-71.618
-71.305
-72.755
-75.631
-78.623
-79.644
-77.898
-74.299
-69.852
-65.412
-61.654
-58.996
-57.633
-57.599
-58.739
-60.729
-63.314
-66.315
-69.514
-72.688
-75.655
-78.243
-80.348
-81.916
-82.863
-83.117
-82.643
-81.45
-79.596
-77.167
-74.237
-70.891
-67.221
-63.341
-59.387
-55.476
-51.707
-48.16
-44.896
-41.971
-39.441
-37.333
-35.645
-34.342
-33.36
-32.641
-32.141
-31.808
-31.591
-31.424
-31.223
-30.925
-30.487
-29.869
-29.048
-27.996
-26.683
-25.101
-23.258
-21.174
-18.888
-16.42
-13.775
-10.959
-7.972
-4.823
-1.532
1.89
5.446
9.132
12.943
16.869
20.888
24.99
29.178
33.459
37.849
42.35
46.952
51.64
56.395
61.201
66.058
70.957
75.889
80.856
85.87
90.958
96.164
101.516
107.022
112.679
118.472
124.388
130.424
136.573
142.824
149.16
155.547
161.945
168.311
174.571
180.635
186.385
191.674
196.384
200.42
203.702
206.166
207.751
208.393
208.037
206.634
204.149
200.554
195.844
190.029
183.16
175.321
166.629
157.235
147.277
136.877
126.153
115.213
104.171
93.144
82.253
71.619
61.361
51.596
42.424
33.92
26.13
19.068
12.72
7.048
2.01
-2.434
-6.329
-9.713
-12.637
-15.155
-17.337
-19.264
-21.014
-22.671
-24.304
-25.965
-27.692
-29.508
-31.419
-33.418
-35.491
-37.619
-39.784
-41.975
-44.17
-46.344
-48.464
-50.485
-52.369
-54.079
-55.589
-56.883
-57.949
-58.782
-59.386
-59.775
-59.963
-59.971
-59.816
-59.511
-59.076
-58.531
-57.899
-57.211
-56.491
-55.756
-55.024
-54.307
-53.615
-52.956
-52.335
-51.75
-51.201
-50.688
-50.209
-49.768
-49.363
-48.993
-48.655
-48.345
-48.063
-47.807
-47.574
-47.365
-47.177
-47.01
-46.862
-46.734
-46.626
-46.535
-46.459
-46.394
-46.336
-46.283
-46.231
-46.176
-46.113
-46.04
-45.953
-45.849
-45.727
-45.584
-45.417
-45.226
-45.007
-44.762
-44.488
-44.187
-43.856
-43.498
-43.112
-42.7
-42.261
-41.796
-41.307
-40.795
-40.26
-39.704
-39.128
-38.535
-37.926
-37.302
-36.667
-36.023
-35.372
-34.718
-34.064
-33.413
-32.768
-32.132
-31.51
-30.904
-30.318
-29.754
-29.215
-28.703
-28.222
-27.773
-27.358
-26.979
-26.637
-26.334
-26.071
-25.848
-25.667
-25.527
-25.43
-25.374
-25.361
-25.389
-25.458
-25.566
-25.713
-25.898
-26.12
-26.378
-26.668
-26.991
-27.343
-27.723
-28.127
-28.552
-28.996
-29.454
-29.923
-30.399
-30.88
-31.363
-31.842
-32.316
-32.781
-33.234
-33.672
-34.091
-34.487
-34.859
-35.203
-35.518
-35.801
-36.051
-36.268
-36.452
-36.603
-36.722
-36.809
-36.865
-36.891
-36.886
-36.852
-36.787
-36.692
-36.568
-36.417
-36.242
-36.048
-35.84
-35.622
-35.401
-35.182
-34.97
-34.771
-34.586
-34.419
-34.273
-34.153
-34.065
-34.019
-34.021
-34.073
-34.178
-34.336
-34.541
-34.786
-35.055
-35.329
-35.597
-35.851
-36.09
-36.321
-36.548
-36.777
-37.018
-37.27
-37.537
-37.824
-38.129
-38.454
-38.81
-39.213
-39.69
-40.279
-40.996
-41.846
-42.828
-43.916
-45.086
-46.305
-47.522
-48.699
-49.801
-50.792
-51.65
-52.357
-52.88
-53.188
-53.239
-52.982
-52.395
-51.469
-50.202
-48.614
-46.732
-44.59
-42.249
-39.757
-37.157
-34.494
-31.799
-29.098
-26.426
-23.816
-21.3
-18.915
-16.682
-14.603
-12.693
-10.951
-9.379
-7.985
-6.761
-5.712
-4.852
-4.184
-3.723
-3.483
-3.475
-3.711
-4.212
-4.985
-6.038
-7.391
-9.042
-10.983
-13.197
-15.645
-18.277
-21.03
-23.835
-26.627
-29.346
-31.929
-34.313
-36.448
-38.284
-39.795
-40.993
-41.896
-42.539
-42.975
-43.241
-43.397
-43.553
-43.842
-44.387
-45.307
-46.666
-48.541
-51.126
-54.521
-58.661
-63.299
-67.915
-71.968
-75.112
-76.947
-76.846
-74.404
-69.641
-63.108
-56.093
-49.827
-45.131
-42.835
-43.952
-49.282
-57.425
-64.745
-67.378
-61.275
-46.847
-28.868
-7.083
20.565
59.908
123.735
215.478
332.895
471.215
614.797
749.875
863.176
938.473
965.462
937.422
854.237
723.418
558.32
378.159
203.038
53.957
-54.091
-117.077
-138.992
-133.491
-114.139
-90.297
-69.888
-54.637
-46.534
-46.719
-50.965
-56.649
-60.844
-62.337
-64.445
-68.831
-75.482
-82.989
-88.448
-90.673
-89.958
-87.049
-83.037
-78.603
-74.261
-70.704
-68.319
-67.18
-67.147
-67.903
-69.225
-70.965
-72.94
-74.927
-76.71
-78.132
-79.116
-79.623
-79.593
-78.96
-77.683
-75.778
-73.345
-70.512
-67.401
-64.117
-60.751
-57.395
-54.149
-51.106
-48.346
-45.925
-43.877
-42.232
-41.017
-40.242
-39.892
-39.906
-40.181
-40.6
-41.067
-41.502
-41.842
-42.026
-41.994
-41.696
-41.105
-40.207
-39
-37.478
-35.632
-33.464
-30.993
-28.257
-25.315
-22.221
-19.007
-15.697
-12.305
-8.841
-5.318
-1.734
1.927
5.683
9.555
13.556
17.684
21.945
26.348
30.905
35.628
40.517
45.554
50.724
56.014
61.405
66.887
72.432
78.006
83.575
89.11
94.591
100.009
105.356
110.62
115.806
120.928
126.006
131.074
136.146
141.217
146.281
151.328
156.349
161.343
166.298
171.188
175.987
180.664
185.174
189.471
193.474
197.08
200.189
202.697
204.528
205.635
205.969
205.485
204.147
201.92
198.782
194.726
189.732
183.779
176.878
169.062
160.409
151.039
141.062
130.592
119.726
108.551
97.166
85.677
74.176
62.758
51.521
40.567
30.025
20.036
10.7
2.083
-5.788
-12.922
-19.322
-24.992
-29.945
-34.201
-37.795
-40.77
-43.161
-45.007
-46.368
-47.323
-47.987
-48.478
-48.885
-49.27
-49.674
-50.118
-50.63
-51.234
-51.935
-52.73
-53.611
-54.572
-55.612
-56.73
-57.906
-59.101
-60.261
-61.334
-62.288
-63.103
-63.771
-64.285
-64.643
-64.849
-64.921
-64.877
-64.737
-64.515
-64.217
-63.856
-63.449
-63.02
-62.596
-62.201
-61.847
-61.546
-61.305
-61.131
-61.025
-60.987
-61.007
-61.077
-61.193
-61.349
-61.545
-61.774
-62.033
-62.313
-62.61
-62.918
-63.234
-63.552
-63.867
-64.177
-64.476
-64.763
-65.035
-65.291
-65.527
-65.74
-65.926
-66.083
-66.207
-66.297
-66.35
-66.363
-66.336
-66.266
-66.155
-66.001
-65.805
-65.567
-65.288
-64.97
-64.614
-64.221
-63.794
-63.333
-62.842
-62.321
-61.773
-61.2
-60.602
-59.983
-59.345
-58.69
-58.02
-57.338
-56.647
-55.948
-55.245
-54.541
-53.837
-53.136
-52.44
-51.753
-51.076
-50.412
-49.763
-49.13
-48.516
-47.921
-47.348
-46.796
-46.268
-45.763
-45.283
-44.828
-44.398
-43.995
-43.618
-43.267
-42.944
-42.648
-42.38
-42.139
-41.925
-41.739
-41.578
-41.444
-41.334
-41.249
-41.188
-41.149
-41.131
-41.133
-41.154
-41.192
-41.244
-41.311
-41.389
-41.477
-41.574
-41.677
-41.786
-41.898
-42.012
-42.126
-42.24
-42.352
-42.46
-42.563
-42.66
-42.75
-42.831
-42.904
-42.966
-43.018
-43.059
-43.09
-43.11
-43.118
-43.117
-43.106
-43.085
-43.056
-43.021
-42.979
-42.933
-42.885
-42.836
-42.788
-42.743
-42.703
-42.669
-42.643
-42.627
-42.622
-42.63
-42.65
-42.684
-42.733
-42.798
-42.877
-42.973
-43.083
-43.207
-43.345
-43.494
-43.653
-43.82
-43.99
-44.162
-44.332
-44.497
-44.651
-44.791
-44.912
-45.009
-45.076
-45.108
-45.098
-45.041
-44.931
-44.76
-44.525
-44.219
-43.837
-43.374
-42.826
-42.189
-41.459
-40.635
-39.713
-38.693
-37.573
-36.354
-35.038
-33.626
-32.121
-30.529
-28.854
-27.104
-25.288
-23.417
-21.499
-19.549
-17.579
-15.603
-13.634
-11.686
-9.773
-7.908
-6.106
-4.382
-2.751
-1.229
0.168
1.426
2.531
3.471
4.239
4.826
5.228
5.438
5.448
5.25
4.832
4.186
3.301
2.175
0.81
-0.781
-2.573
-4.539
-6.646
-8.861
-11.152
-13.482
-15.813
-18.109
-20.323
-22.401
-24.292
-25.937
-27.28
-28.283
-28.928
-29.24
-29.274
-29.099
-28.786
-28.393
-27.992
-27.69
-27.619
-27.9
-28.638
-29.92
-31.872
-34.726
-38.63
-43.524
-49.11
-54.849
-60.225
-64.879
-68.377
-70.079
-69.547
-66.812
-62.572
-58.159
-54.654
-52.812
-53.461
-57.26
-64.618
-74.14
-81.909
-84.81
-80.925
-69.907
-54.065
-30.283
9.34
70.138
156.367
263.843
379.376
493.86
602.62
703.258
796.316
876.777
929.172
937.91
893.311
792.204
646.871
479.609
311.215
164.397
54.938
-15.376
-49.924
-60.892
-64.307
-67.024
-71.246
-74.667
-71.676
-62.66
-51.536
-41.878
-37.283
-38.407
-43.593
-51.437
-60.421
-68.881
-75.432
-79.268
-80.19
-78.539
-75.049
-70.36
-65.009
-59.701
-55.143
-51.734
-49.611
-48.681
-48.665
-49.341
-50.549
-52.092
-53.767
-55.413
-56.899
-58.158
-59.18
-59.957
-60.481
-60.73
-60.692
-60.377
-59.818
-59.063
-58.172
-57.2
-56.199
-55.216
-54.294
-53.479
-52.8
-52.266
-51.859
-51.532
-51.236
-50.939
-50.618
-50.249
-49.804
-49.249
-48.553
-47.697
-46.671
-45.463
-44.064
-42.461
-40.648
-38.638
-36.457
-34.149
-31.751
-29.286
-26.767
-24.2
-21.588
-18.933
-16.233
-13.472
-10.632
-7.694
-4.641
-1.463
1.847
5.303
8.919
12.713
16.696
20.866
25.209
29.713
34.362
39.146
44.056
49.073
54.17
59.322
64.497
69.677
74.856
80.024
85.175
90.311
95.442
100.598
105.827
111.16
116.61
122.178
127.846
133.606
139.456
145.385
151.387
157.436
163.492
169.517
175.467
181.272
186.842
192.054
196.757
200.833
204.192
206.764
208.501
209.351
209.257
208.183
206.095
202.968
198.797
193.566
187.275
179.977
171.75
162.719
153.046
142.859
132.272
121.395
110.321
99.154
88.005
76.967
66.137
55.628
45.545
36.006
27.11
18.903
11.41
4.621
-1.505
-6.993
-11.864
-16.157
-19.901
-23.129
-25.886
-28.21
-30.152
-31.794
-33.217
-34.505
-35.733
-36.942
-38.16
-39.407
-40.681
-41.985
-43.315
-44.658
-46.004
-47.352
-48.689
-50.007
-51.285
-52.482
-53.561
-54.491
-55.248
-55.822
-56.208
-56.403
-56.415
-56.258
-55.949
-55.509
-54.956
-54.301
-53.558
-52.745
-51.882
-50.997
-50.113
-49.246
-48.411
-47.619
-46.878
-46.196
-45.575
-45.012
-44.505
-44.05
-43.646
-43.293
-42.99
-42.734
-42.521
-42.348
-42.21
-42.107
-42.036
-41.994
-41.979
-41.991
-42.027
-42.088
-42.173
-42.28
-42.407
-42.552
-42.712
-42.885
-43.067
-43.257
-43.452
-43.648
-43.845
-44.039
-44.228
-44.412
-44.586
-44.751
-44.903
-45.042
-45.166
-45.274
-45.364
-45.436
-45.487
-45.518
-45.525
-45.508
-45.466
-45.397
-45.3
-45.174
-45.019
-44.833
-44.618
-44.371
-44.095
-43.789
-43.453
-43.089
-42.698
-42.282
-41.843
-41.381
-40.901
-40.404
-39.893
-39.37
-38.839
-38.302
-37.762
-37.223
-36.686
-36.156
-35.636
-35.128
-34.636
-34.163
-33.712
-33.287
-32.89
-32.524
-32.191
-31.893
-31.633
-31.411
-31.231
-31.091
-30.993
-30.938
-30.924
-30.952
-31.02
-31.128
-31.272
-31.453
-31.666
-31.911
-32.183
-32.481
-32.801
-33.139
-33.494
-33.862
-34.239
-34.623
-35.009
-35.394
-35.776
-36.151
-36.516
-36.869
-37.206
-37.526
-37.827
-38.108
-38.367
-38.603
-38.817
-39.007
-39.174
-39.319
-39.442
-39.545
-39.629
-39.696
-39.749
-39.788
-39.818
-39.839
-39.855
-39.867
-39.88
-39.894
-39.914
-39.94
-39.976
-40.025
-40.088
-40.168
-40.267
-40.386
-40.526
-40.688
-40.872
-41.077
-41.301
-41.544
-41.802
-42.074
-42.357
-42.648
-42.944
-43.242
-43.541
-43.835
-44.12
-44.391
-44.641
-44.865
-45.058
-45.213
-45.323
-45.381
-45.382
-45.321
-45.191
-44.987
-44.698
-44.313
-43.824
-43.229
-42.526
-41.717
-40.806
-39.8
-38.711
-37.562
-36.37
-35.153
-33.919
-32.678
-31.439
-30.219
-29.037
-27.913
-26.854
-25.859
-24.926
-24.048
-23.21
-22.388
-21.54
-20.614
-19.572
-18.391
-17.062
-15.586
-13.96
-12.176
-10.233
-8.141
-5.931
-3.644
-1.323
0.979
3.191
5.225
6.964
8.296
9.143
9.456
9.212
8.401
7.01
5.038
2.503
-0.559
-4.084
-8.005
-12.248
-16.72
-21.305
-25.87
-30.262
-34.358
-38.104
-41.477
-44.489
-47.158
-49.481
-51.49
-53.253
-54.866
-56.449
-58.113
-59.955
-62.128
-64.873
-68.365
-72.613
-77.397
-82.215
-86.507
-89.812
-91.64
-91.33
-88.416
-82.996
-75.78
-68.134
-61.635
-57.339
-56.049
-58.857
-66.333
-77.658
-90.721
-102.126
-107.813
-104.331
-88.528
-56.543
-4.801
66.806
154.612
253.727
357.856
464.347
576.713
693.755
808.73
910.101
975.656
986.564
936.057
825.107
668.975
490.712
311.168
150.168
21.683
-67.036
-116.056
-131.164
-119.665
-93.223
-60.704
-29.87
-11.86
-9.994
-23.96
-49.345
-74.235
-92.428
-102.192
-104.586
-105.39
-106.681
-107.73
-107.832
-105.043
-99.105
-91.275
-82.395
-73.475
-65.399
-58.402
-52.604
-48.041
-44.524
-41.934
-40.234
-39.355
-39.191
-39.642
-40.602
-41.977
-43.714
-45.721
-47.869
-50.022
-52.055
-53.901
-55.539
-56.972
-58.201
-59.219
-60.015
-60.581
-60.915
-61.018
-60.883
-60.487
-59.825
-58.91
-57.771
-56.455
-55.001
-53.426
-51.735
-49.926
-47.994
-45.945
-43.783
-41.508
-39.124
-36.632
-34.053
-31.42
-28.757
-26.085
-23.41
-20.724
-18.023
-15.305
-12.572
-9.83
-7.08
-4.317
-1.541
1.242
4.013
6.743
9.41
12.008
14.53
16.979
19.354
21.649
23.871
26.04
28.186
30.358
32.585
34.88
37.265
39.767
42.438
45.355
48.587
52.191
56.226
60.744
65.798
71.435
77.664
84.453
91.744
99.45
107.504
115.858
124.45
133.21
142.042
150.822
159.438
167.778
175.706
183.064
189.685
195.404
200.113
203.754
206.305
207.766
208.124
207.357
205.464
202.451
198.336
193.145
186.889
179.597
171.352
162.278
152.536
142.292
131.67
120.761
109.64
98.376
87.054
75.76
64.562
53.539
42.778
32.393
22.526
13.293
4.751
-3.079
-10.219
-16.7
-22.532
-27.718
-32.269
-36.201
-39.541
-42.316
-44.538
-46.243
-47.491
-48.377
-49.034
-49.568
-50.048
-50.521
-51.008
-51.525
-52.096
-52.736
-53.442
-54.213
-55.047
-55.945
-56.92
-57.97
-59.07
-60.179
-61.23
-62.175
-62.989
-63.651
-64.157
-64.501
-64.682
-64.708
-64.604
-64.386
-64.07
-63.668
-63.184
-62.629
-62.024
-61.392
-60.764
-60.163
-59.604
-59.099
-58.658
-58.286
-57.987
-57.758
-57.59
-57.475
-57.41
-57.389
-57.412
-57.476
-57.572
-57.696
-57.842
-58.004
-58.178
-58.359
-58.542
-58.723
-58.9
-59.071
-59.233
-59.387
-59.528
-59.656
-59.767
-59.859
-59.931
-59.98
-60.003
-60.001
-59.971
-59.912
-59.825
-59.71
-59.566
-59.394
-59.195
-58.97
-58.721
-58.449
-58.156
-57.844
-57.514
-57.169
-56.81
-56.439
-56.059
-55.67
-55.274
-54.875
-54.472
-54.069
-53.667
-53.266
-52.869
-52.476
-52.09
-51.711
-51.339
-50.976
-50.624
-50.282
-49.952
-49.634
-49.329
-49.038
-48.76
-48.495
-48.245
-48.01
-47.788
-47.581
-47.387
-47.208
-47.042
-46.889
-46.749
-46.622
-46.506
-46.401
-46.306
-46.22
-46.144
-46.075
-46.013
-45.957
-45.906
-45.859
-45.816
-45.774
-45.734
-45.695
-45.655
-45.612
-45.567
-45.517
-45.462
-45.401
-45.331
-45.252
-45.163
-45.062
-44.948
-44.818
-44.673
-44.511
-44.33
-44.129
-43.907
-43.664
-43.398
-43.11
-42.798
-42.462
-42.104
-41.723
-41.319
-40.894
-40.449
-39.983
-39.499
-38.999
-38.483
-37.954
-37.413
-36.862
-36.304
-35.741
-35.176
-34.61
-34.046
-33.487
-32.937
-32.398
-31.874
-31.367
-30.882
-30.423
-29.991
-29.592
-29.229
-28.903
-28.619
-28.378
-28.183
-28.034
-27.934
-27.881
-27.875
-27.917
-28.006
-28.14
-28.317
-28.537
-28.798
-29.099
-29.437
-29.809
-30.212
-30.64
-31.09
-31.556
-32.034
-32.516
-32.995
-33.464
-33.918
-34.348
-34.747
-35.102
-35.399
-35.628
-35.784
-35.862
-35.859
-35.777
-35.618
-35.39
-35.11
-34.792
-34.448
-34.084
-33.703
-33.311
-32.921
-32.548
-32.206
-31.901
-31.627
-31.377
-31.14
-30.898
-30.62
-30.26
-29.762
-29.081
-28.191
-27.078
-25.741
-24.176
-22.378
-20.347
-18.094
-15.646
-13.047
-10.34
-7.58
-4.845
-2.232
0.135
2.122
3.624
4.563
4.887
4.567
3.586
1.934
-0.376
-3.315
-6.833
-10.866
-15.345
-20.183
-25.259
-30.426
-35.508
-40.326
-44.736
-48.623
-51.91
-54.568
-56.596
-58.021
-58.893
-59.261
-59.193
-58.781
-58.133
-57.396
-56.728
-56.262
-56.181
-56.726
-58.044
-60.167
-62.924
-65.853
-68.475
-70.446
-71.354
-70.676
-68.044
-63.353
-57.056
-50.299
-44.219
-39.473
-36.688
-36.747
-40.259
-47.221
-55.44
-60.481
-58.308
-46.582
-26.833
-2.008
27.957
66.232
121.139
200.738
306.863
436.135
577.832
718.216
843.73
941.047
998.604
1005.479
957.087
854.121
704.872
529.535
349.034
187.221
65.007
-12.756
-48.93
-56.721
-55.557
-54.518
-56.504
-59.329
-56.144
-46.528
-34.464
-23.739
-18.592
-20.073
-26.405
-35.74
-46.091
-55.568
-62.75
-66.942
-68.042
-66.404
-62.805
-57.999
-52.641
-47.505
-43.288
-40.303
-38.611
-38.076
-38.403
-39.373
-40.817
-42.509
-44.221
-45.774
-47.027
-47.898
-48.342
-48.299
-47.715
-46.572
-44.915
-42.838
-40.459
-37.892
-35.236
-32.582
-30.021
-27.648
-25.544
-23.779
-22.406
-21.46
-20.971
-20.955
-21.411
-22.305
-23.559
-25.07
-26.725
-28.421
-30.078
-31.625
-33.001
-34.152
-35.038
-35.632
-35.917
-35.882
-35.517
-34.817
-33.781
-32.428
-30.794
-28.922
-26.866
-24.665
-22.343
-19.914
-17.381
-14.74
-11.984
-9.101
-6.074
-2.894
0.446
3.946
7.6
11.398
15.337
19.42
23.656
28.051
32.6
37.291
42.103
47.016
52.015
57.09
62.226
67.414
72.654
77.957
83.35
88.871
94.54
100.364
106.337
112.445
118.675
125.014
131.442
137.924
144.413
150.851
157.183
163.345
169.255
174.816
179.912
184.424
188.263
191.354
193.637
195.062
195.58
195.156
193.773
191.434
188.155
183.956
178.87
172.946
166.254
158.885
150.946
142.527
133.702
124.545
115.13
105.535
95.838
86.112
76.418
66.817
57.38
48.173
39.25
30.644
22.372
14.443
6.871
-0.312
-7.069
-13.38
-19.232
-24.623
-29.553
-34.026
-38.051
-41.659
-44.903
-47.829
-50.47
-52.842
-54.956
-56.826
-58.48
-59.96
-61.3
-62.523
-63.647
-64.689
-65.664
-66.585
-67.452
-68.243
-68.924
-69.471
-69.875
-70.139
-70.267
-70.263
-70.122
-69.842
-69.429
-68.894
-68.247
-67.496
-66.648
-65.715
-64.715
-63.679
-62.639
-61.621
-60.642
-59.715
-58.851
-58.059
-57.35
-56.728
-56.19
-55.736
-55.366
-55.081
-54.882
-54.767
-54.731
-54.768
-54.869
-55.027
-55.237
-55.491
-55.783
-56.107
-56.455
-56.825
-57.21
-57.608
-58.011
-58.412
-58.807
-59.187
-59.549
-59.884
-60.188
-60.456
-60.681
-60.862
-60.994
-61.075
-61.103
-61.074
-60.988
-60.844
-60.641
-60.38
-60.059
-59.681
-59.245
-58.755
-58.21
-57.615
-56.97
-56.279
-55.546
-54.773
-53.965
-53.125
-52.257
-51.366
-50.455
-49.53
-48.594
-47.653
-46.711
-45.771
-44.839
-43.919
-43.014
-42.128
-41.264
-40.425
-39.613
-38.833
-38.085
-37.372
-36.696
-36.059
-35.463
-34.909
-34.398
-33.931
-33.51
-33.134
-32.803
-32.518
-32.278
-32.083
-31.93
-31.818
-31.747
-31.713
-31.715
-31.749
-31.813
-31.905
-32.021
-32.159
-32.315
-32.487
-32.671
-32.864
-33.065
-33.27
-33.477
-33.683
-33.886
-34.084
-34.274
-34.455
-34.623
-34.778
-34.916
-35.036
-35.137
-35.217
-35.275
-35.309
-35.32
-35.307
-35.271
-35.21
-35.127
-35.023
-34.898
-34.754
-34.594
-34.42
-34.234
-34.039
-33.839
-33.636
-33.433
-33.232
-33.037
-32.85
-32.674
-32.51
-32.361
-32.229
-32.116
-32.024
-31.956
-31.912
-31.895
-31.906
-31.946
-32.017
-32.119
-32.253
-32.418
-32.614
-32.84
-33.096
-33.381
-33.691
-34.026
-34.382
-34.754
-35.139
-35.532
-35.927
-36.318
-36.699
-37.062
-37.403
-37.716
-37.996
-38.236
-38.433
-38.583
-38.681
-38.725
-38.707
-38.622
-38.464
-38.229
-37.909
-37.501
-36.997
-36.393
-35.685
-34.874
-33.959
-32.939
-31.811
-30.571
-29.218
-27.757
-26.195
-24.541
-22.806
-21.003
-19.155
-17.291
-15.44
-13.627
-11.864
-10.159
-8.521
-6.96
-5.485
-4.107
-2.823
-1.629
-0.523
0.492
1.413
2.246
3.014
3.756
4.509
5.288
6.093
6.911
7.727
8.523
9.276
9.948
10.483
10.832
10.963
10.863
10.535
9.972
9.147
8.019
6.559
4.765
2.658
0.274
-2.349
-5.157
-8.085
-11.04
-13.902
-16.582
-19.012
-21.17
-23.088
-24.8
-26.33
-27.694
-28.888
-29.945
-30.95
-31.988
-33.138
-34.491
-36.092
-38.068
-40.696
-44.096
-48.192
-52.744
-57.196
-61
-63.831
-65.196
-64.36
-60.959
-55.11
-47.34
-38.922
-31.268
-25.276
-21.973
-22.873
-27.492
-33.103
-37.357
-36.792
-31.076
-24.494
-16.381
-2.031
27.433
84.857
174.193
290.101
422.238
557.21
687.003
806.501
907.891
981.499
1013.047
990.244
911.314
780.667
611.703
426.036
242.674
82.348
-36.374
-108.819
-135.593
-124.827
-94.239
-55.48
-20.086
-0.057
3.888
-7.394
-28.546
-46.968
-57.988
-61.402
-59.247
-58.492
-61.279
-65.568
-69.74
-71.36
-69.735
-66.143
-61.475
-56.369
-51.523
-47.435
-44.365
-42.458
-41.618
-41.545
-42.063
-43.078
-44.437
-45.97
-47.525
-48.961
-50.22
-51.303
-52.185
-52.838
-53.228
-53.333
-53.177
-52.805
-52.27
-51.632
-50.939
-50.234
-49.568
-48.978
-48.494
-48.132
-47.88
-47.7
-47.561
-47.427
-47.273
-47.083
-46.824
-46.464
-45.972
-45.318
-44.487
-43.469
-42.252
-40.826
-39.195
-37.368
-35.375
-33.261
-31.06
-28.8
-26.5
-24.167
-21.806
-19.421
-17.009
-14.559
-12.057
-9.482
-6.819
-4.054
-1.167
1.859
5.046
8.419
11.996
15.783
19.78
23.972
28.347
32.893
37.592
42.429
47.382
52.425
57.537
62.698
67.892
73.115
78.359
83.618
88.894
94.202
99.56
104.999
110.532
116.157
121.87
127.655
133.499
139.396
145.322
151.24
157.103
162.852
168.422
173.751
178.752
183.32
187.356
190.754
193.439
195.375
196.521
196.847
196.326
194.927
192.642
189.49
185.49
180.672
175.08
168.761
161.797
154.304
146.383
138.126
129.601
120.83
111.855
102.729
93.502
84.232
74.968
65.747
56.619
47.652
38.895
30.385
22.133
14.117
6.335
-1.193
-8.431
-15.312
-21.789
-27.841
-33.444
-38.58
-43.244
-47.434
-51.176
-54.532
-57.54
-60.228
-62.609
-64.674
-66.434
-67.919
-69.166
-70.226
-71.141
-71.937
-72.643
-73.293
-73.902
-74.479
-75.012
-75.463
-75.812
-76.052
-76.184
-76.221
-76.171
-76.032
-75.806
-75.497
-75.108
-74.647
-74.118
-73.52
-72.863
-72.162
-71.438
-70.725
-70.046
-69.416
-68.849
-68.35
-67.925
-67.58
-67.315
-67.126
-67.008
-66.96
-66.979
-67.063
-67.209
-67.411
-67.658
-67.942
-68.252
-68.581
-68.919
-69.26
-69.597
-69.922
-70.23
-70.52
-70.785
-71.023
-71.228
-71.395
-71.521
-71.602
-71.635
-71.617
-71.545
-71.418
-71.235
-70.997
-70.704
-70.358
-69.959
-69.51
-69.014
-68.475
-67.895
-67.278
-66.628
-65.951
-65.25
-64.53
-63.796
-63.053
-62.306
-61.558
-60.816
-60.082
-59.36
-58.655
-57.969
-57.306
-56.667
-56.056
-55.474
-54.923
-54.405
-53.92
-53.468
-53.051
-52.668
-52.319
-52.002
-51.716
-51.461
-51.234
-51.034
-50.858
-50.705
-50.571
-50.456
-50.357
-50.27
-50.193
-50.125
-50.062
-50.002
-49.943
-49.884
-49.822
-49.755
-49.683
-49.605
-49.519
-49.425
-49.322
-49.21
-49.09
-48.961
-48.823
-48.678
-48.526
-48.368
-48.204
-48.037
-47.866
-47.694
-47.521
-47.347
-47.175
-47.005
-46.838
-46.676
-46.518
-46.366
-46.221
-46.084
-45.955
-45.835
-45.725
-45.624
-45.534
-45.455
-45.387
-45.329
-45.281
-45.244
-45.217
-45.2
-45.191
-45.19
-45.197
-45.211
-45.23
-45.254
-45.283
-45.315
-45.351
-45.391
-45.434
-45.48
-45.53
-45.584
-45.642
-45.706
-45.776
-45.851
-45.933
-46.021
-46.117
-46.219
-46.327
-46.44
-46.557
-46.677
-46.799
-46.922
-47.044
-47.163
-47.279
-47.393
-47.502
-47.607
-47.704
-47.792
-47.869
-47.931
-47.975
-47.997
-47.991
-47.951
-47.874
-47.754
-47.586
-47.363
-47.078
-46.718
-46.278
-45.754
-45.145
-44.449
-43.671
-42.815
-41.891
-40.916
-39.902
-38.86
-37.799
-36.722
-35.64
-34.561
-33.493
-32.446
-31.424
-30.419
-29.426
-28.431
-27.412
-26.345
-25.2
-23.936
-22.528
-20.96
-19.221
-17.32
-15.258
-13.047
-10.71
-8.266
-5.749
-3.207
-0.693
1.728
3.97
5.954
7.599
8.81
9.518
9.671
9.232
8.196
6.57
4.374
1.647
-1.567
-5.216
-9.224
-13.503
-17.952
-22.444
-26.87
-31.121
-35.081
-38.663
-41.795
-44.429
-46.579
-48.298
-49.654
-50.742
-51.638
-52.403
-53.131
-53.95
-54.993
-56.405
-58.295
-60.711
-63.749
-67.602
-72.326
-77.792
-83.687
-89.409
-94.355
-98.126
-100.194
-99.817
-96.65
-90.817
-82.79
-73.816
-65.28
-58.055
-53.302
-52.584
-55.404
-59.288
-62.018
-59.979
-52.576
-43.481
-31.645
-13.045
19.654
77.685
164.448
275.33
401.875
532.568
658.838
773.79
867.98
929.988
946.218
906.983
811.634
665.898
485.456
292.393
107.508
-46.434
-153.532
-211.152
-222.253
-199.426
-160.202
-116.671
-81.49
-62.577
-59.213
-68.498
-81.794
-90.562
-92.773
-89.867
-86.901
-87.771
-92.159
-97.718
-101.401
-101.934
-99.868
-96.18
-91.923
-87.664
-83.739
-80.68
-78.778
-78.008
-78.225
-79.141
-80.524
-82.249
-84.132
-85.959
-87.573
-88.849
-89.706
-90.126
-90.076
-89.545
-88.595
-87.291
-85.702
-83.915
-81.997
-80.016
-78.061
-76.206
-74.512
-73.033
-71.798
-70.838
-70.187
-69.854
-69.821
-70.042
-70.418
-70.866
-71.319
-71.714
-72
-72.128
-72.043
-71.706
-71.1
-70.209
-69.029
-67.549
-65.754
-63.644
-61.235
-58.561
-55.677
-52.622
-49.417
-46.079
-42.617
-39.038
-35.35
-31.546
-27.604
-23.505
-19.234
-14.787
-10.166
-5.37
-0.394
4.769
10.123
15.658
21.358
27.21
33.2
39.319
45.548
51.859
58.213
64.576
70.925
77.246
83.529
89.765
95.949
102.088
108.206
114.336
120.497
126.692
132.905
139.117
145.315
151.489
157.629
163.716
169.714
175.583
181.29
186.787
192.01
196.871
201.252
205.032
208.125
210.463
212.004
212.712
212.545
211.467
209.459
206.508
202.612
197.769
191.969
185.23
177.609
169.195
160.118
150.506
140.462
130.081
119.454
108.67
97.828
87.026
76.343
65.871
55.714
45.98
36.785
28.216
20.315
13.101
6.559
0.674
-4.558
-9.149
-13.128
-16.52
-19.361
-21.688
-23.535
-24.959
-26.045
-26.878
-27.548
-28.127
-28.652
-29.156
-29.657
-30.168
-30.703
-31.265
-31.844
-32.436
-33.04
-33.649
-34.256
-34.839
-35.353
-35.762
-36.034
-36.146
-36.091
-35.865
-35.465
-34.899
-34.178
-33.32
-32.346
-31.273
-30.111
-28.876
-27.585
-26.258
-24.926
-23.611
-22.329
-21.096
-19.92
-18.811
-17.774
-16.813
-15.922
-15.099
-14.339
-13.641
-13.004
-12.425
-11.902
-11.429
-11.001
-10.613
-10.264
-9.949
-9.666
-9.409
-9.178
-8.97
-8.783
-8.617
-8.468
-8.333
-8.21
-8.095
-7.985
-7.878
-7.771
-7.661
-7.546
-7.424
-7.293
-7.154
-7.003
-6.841
-6.666
-6.479
-6.279
-6.068
-5.845
-5.612
-5.369
-5.118
-4.86
-4.597
-4.329
-4.059
-3.787
-3.516
-3.247
-2.982
-2.723
-2.473
-2.233
-2.006
-1.793
-1.598
-1.422
-1.267
-1.136
-1.031
-0.953
-0.906
-0.891
-0.911
-0.966
-1.059
-1.192
-1.366
-1.582
-1.841
-2.144
-2.49
-2.882
-3.318
-3.799
-4.324
-4.892
-5.505
-6.159
-6.856
-7.592
-8.366
-9.177
-10.023
-10.901
-11.81
-12.746
-13.708
-14.693
-15.698
-16.72
-17.756
-18.803
-19.858
-20.917
-21.976
-23.032
-24.081
-25.12
-26.144
-27.152
-28.139
-29.102
-30.039
-30.946
-31.822
-32.663
-33.468
-34.234
-34.961
-35.646
-36.289
-36.889
-37.446
-37.96
-38.43
-38.857
-39.241
-39.583
-39.884
-40.144
-40.365
-40.547
-40.692
-40.801
-40.876
-40.917
-40.928
-40.908
-40.861
-40.787
-40.688
-40.566
-40.422
-40.256
-40.07
-39.865
-39.641
-39.397
-39.134
-38.852
-38.549
-38.224
-37.876
-37.503
-37.104
-36.675
-36.215
-35.719
-35.187
-34.613
-33.995
-33.331
-32.617
-31.85
-31.028
-30.149
-29.21
-28.21
-27.146
-26.019
-24.827
-23.571
-22.25
-20.866
-19.42
-17.916
-16.357
-14.747
-13.093
-11.4
-9.676
-7.93
-6.172
-4.412
-2.661
-0.933
0.762
2.411
4.003
5.522
6.958
8.295
9.522
10.625
11.588
12.398
13.042
13.509
13.791
13.884
13.782
13.479
12.967
12.239
11.291
10.119
8.717
7.083
5.221
3.143
0.879
-1.54
-4.079
-6.707
-9.394
-12.114
-14.831
-17.507
-20.105
-22.579
-24.889
-26.998
-28.859
-30.438
-31.716
-32.704
-33.468
-34.089
-34.649
-35.222
-35.854
-36.602
-37.559
-38.828
-40.51
-42.717
-45.497
-48.95
-53.284
-58.532
-64.556
-71.026
-77.259
-82.635
-86.784
-89.13
-88.966
-86.176
-80.97
-74.112
-67.361
-61.891
-58.208
-57.531
-60.796
-67.566
-77.018
-85.93
-89.424
-85.381
-71.397
-46.215
-9.18
43.49
111.574
194.639
291.393
395.531
506.572
621.042
728.405
819.9
879.066
889.919
849.806
759.682
627.576
470.698
302.977
140.101
1.523
-101.136
-162.539
-183.975
-176.515
-151.765
-117.783
-82.419
-52.512
-33.239
-28.508
-36.803
-50.296
-61.738
-67.272
-67.041
-65.557
-65.902
-67.759
-69.762
-69.866
-67.281
-62.942
-57.886
-52.937
-48.71
-45.579
-43.718
-43.147
-43.694
-45.021
-46.867
-49.078
-51.494
-53.947
-56.274
-58.308
-59.939
-61.119
-61.802
-61.949
-61.541
-60.581
-59.109
-57.215
-55.014
-52.619
-50.132
-47.63
-45.174
-42.825
-40.647
-38.69
-36.987
-35.544
-34.341
-33.363
-32.596
-32.013
-31.571
-31.197
-30.798
-30.301
-29.654
-28.827
-27.798
-26.548
-25.052
-23.31
-21.344
-19.193
-16.904
-14.506
-12.015
-9.46
-6.88
-4.335
-1.882
0.456
2.681
4.807
6.846
8.813
10.726
12.623
14.567
16.612
18.803
21.17
23.738
26.549
29.66
33.139
37.035
41.36
46.106
51.262
56.82
62.762
69.063
75.676
82.546
89.647
96.966
104.496
112.216
120.075
128.004
135.93
143.795
151.558
159.183
166.63
173.857
180.828
187.509
193.87
199.867
205.411
210.4
214.732
218.326
221.134
223.119
224.25
224.489
223.806
222.169
219.554
215.945
211.315
205.661
198.997
191.372
182.884
173.649
163.79
153.424
142.654
131.582
120.312
108.952
97.605
86.383
75.408
64.795
54.672
45.141
36.274
28.115
20.676
13.946
7.903
2.516
-2.248
-6.425
-10.053
-13.181
-15.857
-18.149
-20.144
-21.926
-23.584
-25.191
-26.799
-28.447
-30.163
-31.957
-33.826
-35.766
-37.759
-39.793
-41.861
-43.944
-46.023
-48.066
-50.028
-51.87
-53.559
-55.07
-56.388
-57.503
-58.41
-59.115
-59.634
-59.981
-60.178
-60.242
-60.187
-60.03
-59.791
-59.496
-59.173
-58.844
-58.528
-58.239
-57.989
-57.786
-57.638
-57.546
-57.507
-57.519
-57.578
-57.684
-57.836
-58.031
-58.266
-58.536
-58.835
-59.159
-59.506
-59.871
-60.252
-60.644
-61.046
-61.454
-61.868
-62.285
-62.703
-63.117
-63.525
-63.923
-64.307
-64.674
-65.022
-65.346
-65.644
-65.915
-66.156
-66.367
-66.544
-66.688
-66.797
-66.871
-66.908
-66.91
-66.876
-66.806
-66.7
-66.559
-66.384
-66.174
-65.93
-65.652
-65.342
-65
-64.626
-64.222
-63.788
-63.326
-62.836
-62.322
-61.783
-61.221
-60.638
-60.036
-59.416
-58.781
-58.133
-57.473
-56.803
-56.126
-55.444
-54.759
-54.072
-53.386
-52.704
-52.026
-51.356
-50.696
-50.048
-49.415
-48.799
-48.203
-47.629
-47.082
-46.562
-46.074
-45.62
-45.202
-44.824
-44.489
-44.198
-43.954
-43.76
-43.617
-43.528
-43.494
-43.516
-43.595
-43.733
-43.929
-44.184
-44.497
-44.868
-45.296
-45.781
-46.32
-46.914
-47.559
-48.255
-48.999
-49.788
-50.619
-51.491
-52.398
-53.338
-54.307
-55.302
-56.317
-57.349
-58.393
-59.446
-60.502
-61.556
-62.605
-63.643
-64.666
-65.67
-66.649
-67.599
-68.517
-69.399
-70.242
-71.041
-71.795
-72.5
-73.153
-73.751
-74.294
-74.777
-75.199
-75.559
-75.853
-76.082
-76.243
-76.337
-76.361
-76.315
-76.199
-76.012
-75.753
-75.423
-75.021
-74.548
-74.003
-73.388
-72.703
-71.95
-71.129
-70.243
-69.292
-68.279
-67.206
-66.074
-64.886
-63.645
-62.353
-61.015
-59.635
-58.216
-56.764
-55.285
-53.784
-52.27
-50.749
-49.229
-47.719
-46.228
-44.765
-43.339
-41.958
-40.632
-39.37
-38.181
-37.072
-36.054
-35.135
-34.326
-33.636
-33.074
-32.646
-32.356
-32.206
-32.2
-32.341
-32.633
-33.082
-33.692
-34.464
-35.404
-36.512
-37.785
-39.21
-40.759
-42.402
-44.109
-45.85
-47.603
-49.341
-51.033
-52.646
-54.144
-55.487
-56.643
-57.576
-58.245
-58.624
-58.699
-58.489
-58.066
-57.51
-56.9
-56.304
-55.766
-55.347
-55.145
-55.259
-55.788
-56.844
-58.478
-60.79
-63.988
-68.089
-72.942
-78.237
-83.329
-87.618
-90.764
-92.249
-91.434
-88.244
-82.917
-76.12
-69.407
-63.954
-60.311
-59.401
-61.969
-67.547
-75
-82.276
-85.846
-82.615
-70.134
-45.217
-4.782
51.515
121.305
201.262
286.263
373.585
465.656
561.742
655.818
738.652
793.609
804.544
766.76
681.378
556.088
407.942
252.143
104.376
-15.745
-96.87
-136.361
-139.707
-123.364
-103.463
-88.366
-80.111
-74.963
-68.654
-61.122
-54.421
-51.098
-52.864
-58.754
-66.807
-74.931
-80.976
-84.052
-84.058
-81.173
-76.069
-69.52
-62.214
-55
-48.72
-43.802
-40.416
-38.55
-38.007
-38.652
-40.356
-42.904
-46.049
-49.56
-53.253
-56.983
-60.643
-64.102
-67.211
-69.855
-71.959
-73.494
-74.46
-74.868
-74.725
-74.028
-72.809
-71.119
-69.025
-66.618
-63.972
-61.147
-58.205
-55.207
-52.215
-49.287
-46.459
-43.741
-41.14
-38.66
-36.306
-34.101
-32.055
-30.166
-28.427
-26.821
-25.349
-24.026
-22.876
-21.914
-21.138
-20.531
-20.071
-19.742
-19.519
-19.368
-19.24
-19.069
-18.793
-18.367
-17.75
-16.902
-15.774
-14.3
-12.402
-10.024
-7.134
-3.72
0.208
4.637
9.539
14.868
20.557
26.52
32.685
38.997
45.414
51.89
58.375
64.816
71.152
77.345
83.375
89.228
94.907
100.422
105.789
111.036
116.203
121.331
126.441
131.533
136.59
141.592
146.507
151.296
155.908
160.273
164.318
167.978
171.183
173.855
175.923
177.317
177.975
177.848
176.906
175.139
172.555
169.17
165.024
160.175
154.7
148.697
142.257
135.459
128.389
121.134
113.777
106.393
99.049
91.793
84.67
77.716
70.96
64.425
58.117
52.031
46.149
40.443
34.89
29.48
24.199
19.037
13.987
9.043
4.212
-0.494
-5.064
-9.487
-13.754
-17.855
-21.775
-25.498
-29.002
-32.268
-35.279
-38.026
-40.504
-42.707
-44.639
-46.301
-47.702
-48.857
-49.779
-50.479
-50.969
-51.262
-51.372
-51.313
-51.102
-50.755
-50.286
-49.711
-49.043
-48.296
-47.483
-46.615
-45.705
-44.762
-43.796
-42.818
-41.838
-40.864
-39.908
-38.975
-38.075
-37.213
-36.395
-35.627
-34.911
-34.25
-33.647
-33.101
-32.614
-32.185
-31.812
-31.494
-31.228
-31.012
-30.842
-30.713
-30.623
-30.567
-30.54
-30.538
-30.555
-30.587
-30.63
-30.677
-30.724
-30.766
-30.798
-30.814
-30.811
-30.784
-30.728
-30.641
-30.519
-30.359
-30.158
-29.914
-29.626
-29.292
-28.912
-28.486
-28.015
-27.497
-26.937
-26.333
-25.69
-25.009
-24.292
-23.544
-22.766
-21.964
-21.139
-20.297
-19.441
-18.576
-17.706
-16.835
-15.968
-15.11
-14.266
-13.438
-12.633
-11.853
-11.102
-10.385
-9.705
-9.063
-8.465
-7.911
-7.405
-6.948
-6.543
-6.189
-5.889
-5.644
-5.452
-5.315
-5.231
-5.2
-5.221
-5.293
-5.413
-5.58
-5.791
-6.044
-6.335
-6.662
-7.022
-7.409
-7.822
-8.255
-8.706
-9.17
-9.645
-10.126
-10.609
-11.093
-11.573
-12.046
-12.509
-12.96
-13.394
-13.81
-14.206
-14.578
-14.925
-15.245
-15.537
-15.799
-16.031
-16.232
-16.402
-16.541
-16.649
-16.727
-16.776
-16.798
-16.794
-16.765
-16.713
-16.641
-16.551
-16.443
-16.319
-16.179
-16.025
-15.858
-15.677
-15.485
-15.282
-15.07
-14.849
-14.623
-14.392
-14.156
-13.916
-13.67
-13.418
-13.161
-12.895
-12.618
-12.327
-12.02
-11.695
-11.35
-10.978
-10.575
-10.13
-9.639
-9.099
-8.51
-7.872
-7.188
-6.464
-5.71
-4.944
-4.179
-3.424
-2.688
-1.975
-1.291
-0.651
-0.063
0.462
0.921
1.321
1.669
1.975
2.262
2.559
2.904
3.345
3.916
4.633
5.508
6.54
7.731
9.089
10.609
12.274
14.061
15.935
17.851
19.762
21.597
23.265
24.671
25.715
26.322
26.45
26.075
25.183
23.771
21.839
19.4
16.491
13.158
9.451
5.442
1.206
-3.153
-7.497
-11.696
-15.625
-19.184
-22.326
-25.044
-27.342
-29.243
-30.775
-31.954
-32.831
-33.483
-33.992
-34.464
-35.004
-35.713
-36.763
-38.38
-40.692
-43.67
-47.078
-50.449
-53.319
-55.337
-56.099
-55.076
-51.922
-46.748
-40.204
-33.476
-27.809
-23.975
-22.565
-24.409
-29.926
-38.457
-48.258
-56.548
-60.153
-56.42
-42.9
-16.535
25.521
83.525
154.868
235.691
320.984
408.312
498.897
591.447
681.61
761.02
816.15
833.29
803.207
723.85
598.621
440.003
268.321
102.559
-35.545
-129.114
-176.957
-182.627
-156.141
-114.744
-68.213
-25.894
0.801
10.172
2.558
-17.429
-37.424
-51.371
-57.515
-56.944
-55.735
-56.157
-57.521
-58.992
-58.458
-55.527
-51.346
-46.702
-42.492
-39.422
-37.583
-36.99
-37.597
-39.148
-41.444
-44.341
-47.685
-51.308
-55.069
-58.842
-62.492
-65.935
-69.075
-71.802
-74.041
-75.747
-76.902
-77.521
-77.64
-77.294
-76.529
-75.403
-73.969
-72.281
-70.393
-68.358
-66.233
-64.076
-61.942
-59.879
-57.924
-56.1
-54.417
-52.876
-51.47
-50.186
-49.009
-47.921
-46.906
-45.95
-45.038
-44.155
-43.285
-42.41
-41.513
-40.574
-39.576
-38.502
-37.335
-36.064
-34.674
-33.153
-31.483
-29.65
-27.638
-25.438
-23.042
-20.443
-17.639
-14.631
-11.425
-8.037
-4.479
-0.763
3.1
7.107
11.245
15.5
19.849
24.272
28.754
33.291
37.879
42.518
47.216
51.99
56.87
61.901
67.112
72.519
78.121
83.902
89.845
95.938
102.171
108.52
114.951
121.412
127.847
134.196
140.386
146.315
151.854
156.857
161.194
164.767
167.51
169.375
170.328
170.336
169.371
167.429
164.523
160.675
155.918
150.29
143.836
136.653
128.88
120.677
112.204
103.587
94.92
86.282
77.743
69.367
61.217
53.33
45.738
38.472
31.567
25.06
18.994
13.364
8.123
3.21
-1.454
-5.92
-10.212
-14.353
-18.357
-22.233
-25.987
-29.613
-33.093
-36.428
-39.625
-42.703
-45.695
-48.604
-51.411
-54.087
-56.588
-58.887
-60.974
-62.836
-64.467
-65.866
-67.038
-68
-68.777
-69.384
-69.829
-70.115
-70.235
-70.196
-70.013
-69.707
-69.306
-68.833
-68.308
-67.75
-67.181
-66.616
-66.068
-65.543
-65.042
-64.567
-64.126
-63.726
-63.376
-63.083
-62.849
-62.677
-62.566
-62.516
-62.525
-62.592
-62.711
-62.879
-63.094
-63.353
-63.657
-64.005
-64.393
-64.819
-65.279
-65.772
-66.292
-66.837
-67.402
-67.982
-68.573
-69.171
-69.773
-70.376
-70.977
-71.571
-72.155
-72.728
-73.286
-73.828
-74.35
-74.851
-75.33
-75.785
-76.216
-76.62
-76.998
-77.348
-77.669
-77.96
-78.221
-78.449
-78.643
-78.802
-78.923
-79.006
-79.049
-79.049
-79.006
-78.918
-78.785
-78.605
-78.377
-78.101
-77.777
-77.403
-76.981
-76.51
-75.991
-75.423
-74.809
-74.148
-73.441
-72.689
-71.893
-71.054
-70.175
-69.255
-68.297
-67.304
-66.279
-65.223
-64.141
-63.036
-61.913
-60.775
-59.626
-58.473
-57.318
-56.168
-55.026
-53.899
-52.789
-51.703
-50.643
-49.614
-48.62
-47.664
-46.747
-45.874
-45.046
-44.265
-43.533
-42.85
-42.219
-41.64
-41.113
-40.64
-40.22
-39.854
-39.54
-39.278
-39.067
-38.905
-38.791
-38.721
-38.694
-38.708
-38.758
-38.842
-38.957
-39.099
-39.263
-39.448
-39.647
-39.859
-40.079
-40.304
-40.53
-40.754
-40.974
-41.186
-41.388
-41.578
-41.751
-41.907
-42.042
-42.155
-42.241
-42.3
-42.328
-42.322
-42.281
-42.202
-42.082
-41.919
-41.712
-41.457
-41.154
-40.799
-40.392
-39.93
-39.411
-38.834
-38.199
-37.502
-36.745
-35.926
-35.044
-34.1
-33.093
-32.024
-30.892
-29.7
-28.448
-27.139
-25.774
-24.357
-22.892
-21.383
-19.835
-18.254
-16.649
-15.026
-13.396
-11.767
-10.151
-8.559
-7.002
-5.492
-4.039
-2.654
-1.347
-0.13
0.988
1.994
2.877
3.624
4.227
4.675
4.96
5.078
5.026
4.801
4.403
3.826
3.066
2.116
0.971
-0.375
-1.919
-3.658
-5.576
-7.649
-9.848
-12.139
-14.488
-16.863
-19.232
-21.56
-23.813
-25.951
-27.923
-29.678
-31.167
-32.343
-33.169
-33.634
-33.756
-33.579
-33.171
-32.6
-31.927
-31.229
-30.595
-30.127
-29.936
-30.129
-30.804
-32.101
-34.219
-37.273
-41.213
-45.786
-50.518
-54.901
-58.523
-60.93
-61.486
-59.742
-55.763
-50.155
-44.142
-39.044
-35.649
-34.553
-36.61
-42.272
-50.894
-60.672
-68.574
-71.129
-65.521
-49.158
-19.046
27.729
91.65
169.751
257.729
350.38
445.19
544.889
650.008
755.184
850.186
916.847
936.693
902.795
816.376
687.101
533.357
370.726
213.229
77.101
-26.397
-91.096
-115.356
-107.96
-83.043
-52.659
-28.913
-18.229
-19.551
-30.164
-43.083
-51.863
-55.666
-55.967
-56.73
-61.078
-68.209
-75.645
-80.808
-82.483
-81.073
-77.519
-72.702
-67.14
-61.354
-56.016
-51.522
-47.988
-45.328
-43.291
-41.74
-40.619
-39.818
-39.203
-38.664
-38.146
-37.681
-37.334
-37.113
-36.989
-36.913
-36.832
-36.745
-36.677
-36.653
-36.702
-36.843
-37.091
-37.468
-37.993
-38.658
-39.426
-40.223
-40.961
-41.585
-42.066
-42.392
-42.563
-42.557
-42.351
-41.934
-41.291
-40.412
-39.283
-37.875
-36.171
-34.181
-31.936
-29.498
-26.937
-24.301
-21.626
-18.932
-16.228
-13.53
-10.84
-8.15
-5.451
-2.741
-0.037
2.628
5.239
7.795
10.31
12.819
15.358
17.956
20.653
23.477
26.449
29.597
32.926
36.437
40.139
44.037
48.16
52.557
57.256
62.275
67.632
73.324
79.354
85.729
92.428
99.433
106.722
114.253
121.994
129.914
137.969
146.116
154.296
162.428
170.441
178.265
185.826
193.053
199.857
206.124
211.759
216.67
220.781
224.048
226.427
227.879
228.372
227.883
226.396
223.911
220.427
215.937
210.441
203.957
196.548
188.317
179.381
169.859
159.857
149.458
138.75
127.824
116.776
105.694
94.665
83.783
73.156
62.918
53.202
44.11
35.703
27.998
20.989
14.66
9.004
4.013
-0.334
-4.068
-7.22
-9.82
-11.904
-13.521
-14.753
-15.715
-16.52
-17.259
-17.994
-18.763
-19.587
-20.486
-21.474
-22.555
-23.721
-24.964
-26.278
-27.663
-29.117
-30.621
-32.141
-33.618
-35.001
-36.255
-37.358
-38.299
-39.072
-39.673
-40.108
-40.395
-40.556
-40.61
-40.57
-40.446
-40.251
-40.001
-39.722
-39.442
-39.185
-38.967
-38.801
-38.696
-38.66
-38.698
-38.809
-38.985
-39.22
-39.508
-39.846
-40.23
-40.657
-41.12
-41.613
-42.128
-42.659
-43.203
-43.752
-44.302
-44.849
-45.387
-45.914
-46.428
-46.927
-47.406
-47.863
-48.294
-48.695
-49.064
-49.399
-49.695
-49.951
-50.166
-50.338
-50.466
-50.55
-50.589
-50.584
-50.535
-50.444
-50.312
-50.141
-49.934
-49.693
-49.421
-49.122
-48.798
-48.453
-48.09
-47.713
-47.324
-46.928
-46.527
-46.124
-45.724
-45.328
-44.94
-44.561
-44.195
-43.843
-43.508
-43.191
-42.893
-42.617
-42.363
-42.133
-41.927
-41.745
-41.588
-41.456
-41.349
-41.267
-41.208
-41.172
-41.157
-41.162
-41.186
-41.226
-41.281
-41.349
-41.427
-41.514
-41.607
-41.705
-41.806
-41.908
-42.009
-42.108
-42.203
-42.295
-42.382
-42.463
-42.539
-42.609
-42.673
-42.732
-42.787
-42.837
-42.883
-42.926
-42.968
-43.008
-43.049
-43.091
-43.137
-43.187
-43.244
-43.31
-43.385
-43.473
-43.576
-43.695
-43.833
-43.991
-44.172
-44.377
-44.609
-44.868
-45.156
-45.475
-45.823
-46.202
-46.612
-47.051
-47.519
-48.014
-48.536
-49.081
-49.649
-50.235
-50.838
-51.455
-52.081
-52.713
-53.347
-53.979
-54.604
-55.217
-55.813
-56.387
-56.934
-57.447
-57.922
-58.352
-58.731
-59.054
-59.315
-59.506
-59.624
-59.661
-59.613
-59.474
-59.241
-58.91
-58.476
-57.938
-57.293
-56.539
-55.677
-54.706
-53.626
-52.439
-51.147
-49.755
-48.265
-46.684
-45.018
-43.274
-41.462
-39.592
-37.674
-35.721
-33.747
-31.764
-29.789
-27.834
-25.914
-24.043
-22.237
-20.51
-18.877
-17.353
-15.955
-14.699
-13.598
-12.666
-11.915
-11.351
-10.983
-10.816
-10.855
-11.109
-11.586
-12.292
-13.236
-14.423
-15.852
-17.52
-19.411
-21.498
-23.753
-26.141
-28.63
-31.19
-33.786
-36.382
-38.94
-41.415
-43.757
-45.92
-47.853
-49.509
-50.853
-51.873
-52.589
-53.056
-53.345
-53.525
-53.657
-53.809
-54.07
-54.544
-55.362
-56.631
-58.421
-60.845
-64.073
-68.203
-73.228
-78.909
-84.728
-90.171
-94.848
-98.288
-99.937
-99.379
-96.452
-91.645
-86.168
-81.155
-77.315
-75.45
-76.48
-80.848
-88.538
-97.297
-102.519
-101.43
-92.36
-74.941
-51.369
-18.117
31.035
98.67
188.674
296.791
412.57
532.156
649.208
756.58
849.204
912.536
930.588
896.998
810.771
680.348
523.97
357.41
196.443
59.192
-43.013
-105.188
-129.895
-131.083
-123.755
-116.24
-111.881
-107.754
-99.749
-89.128
-78.654
-71.061
-69.042
-72.198
-78.597
-86.684
-94.251
-99.315
-101.194
-99.736
-95.263
-88.659
-80.737
-72.174
-63.826
-56.538
-50.757
-46.655
-44.189
-43.109
-43.226
-44.43
-46.544
-49.366
-52.727
-56.465
-60.437
-64.544
-68.654
-72.609
-76.285
-79.575
-82.392
-84.706
-86.504
-87.778
-88.541
-88.799
-88.561
-87.863
-86.75
-85.272
-83.494
-81.479
-79.288
-76.996
-74.668
-72.365
-70.144
-68.034
-66.05
-64.205
-62.501
-60.943
-59.536
-58.27
-57.13
-56.099
-55.157
-54.284
-53.461
-52.657
-51.837
-50.97
-50.021
-48.962
-47.77
-46.42
-44.885
-43.147
-41.187
-38.996
-36.571
-33.909
-31.007
-27.87
-24.511
-20.943
-17.18
-13.233
-9.109
-4.819
-0.376
4.2
8.885
13.663
18.531
23.485
28.526
33.661
38.901
44.273
49.821
55.577
61.558
67.766
74.184
80.797
87.593
94.554
101.658
108.868
116.123
123.363
130.523
137.52
144.256
150.608
156.421
161.568
165.949
169.484
172.124
173.822
174.533
174.233
172.916
170.594
167.301
163.076
157.962
152.03
145.375
138.119
130.421
122.412
114.2
105.877
97.516
89.185
80.954
72.871
64.966
57.266
49.785
42.542
35.557
28.829
22.342
16.063
9.939
3.935
-1.966
-7.775
-13.493
-19.119
-24.65
-30.073
-35.362
-40.495
-45.453
-50.222
-54.793
-59.15
-63.272
-67.136
-70.714
-73.987
-76.948
-79.589
-81.908
-83.91
-85.598
-86.985
-88.089
-88.927
-89.511
-89.858
-89.977
-89.885
-89.599
-89.134
-88.51
-87.741
-86.846
-85.838
-84.735
-83.552
-82.303
-81.001
-79.656
-78.282
-76.889
-75.49
-74.097
-72.719
-71.367
-70.05
-68.777
-67.556
-66.392
-65.292
-64.26
-63.298
-62.41
-61.598
-60.863
-60.205
-59.624
-59.119
-58.688
-58.331
-58.043
-57.823
-57.667
-57.571
-57.532
-57.544
-57.602
-57.703
-57.84
-58.009
-58.205
-58.423
-58.656
-58.901
-59.153
-59.406
-59.656
-59.899
-60.129
-60.344
-60.54
-60.714
-60.863
-60.984
-61.077
-61.139
-61.17
-61.169
-61.136
-61.07
-60.971
-60.841
-60.68
-60.489
-60.271
-60.026
-59.757
-59.467
-59.157
-58.831
-58.491
-58.14
-57.78
-57.415
-57.048
-56.681
-56.317
-55.959
-55.609
-55.271
-54.947
-54.638
-54.346
-54.074
-53.822
-53.592
-53.383
-53.198
-53.035
-52.895
-52.778
-52.683
-52.61
-52.558
-52.526
-52.513
-52.517
-52.536
-52.57
-52.615
-52.67
-52.733
-52.803
-52.876
-52.951
-53.026
-53.099
-53.168
-53.231
-53.287
-53.333
-53.368
-53.392
-53.402
-53.4
-53.384
-53.356
-53.315
-53.262
-53.199
-53.127
-53.046
-52.96
-52.869
-52.776
-52.682
-52.59
-52.501
-52.417
-52.342
-52.277
-52.225
-52.188
-52.168
-52.168
-52.189
-52.233
-52.302
-52.398
-52.522
-52.676
-52.86
-53.075
-53.321
-53.599
-53.908
-54.246
-54.611
-55
-55.411
-55.839
-56.278
-56.726
-57.175
-57.62
-58.058
-58.481
-58.885
-59.265
-59.615
-59.931
-60.207
-60.435
-60.608
-60.719
-60.762
-60.727
-60.607
-60.394
-60.08
-59.661
-59.13
-58.482
-57.708
-56.801
-55.754
-54.567
-53.239
-51.774
-50.179
-48.46
-46.629
-44.706
-42.708
-40.654
-38.56
-36.434
-34.284
-32.121
-29.958
-27.809
-25.682
-23.574
-21.474
-19.381
-17.285
-15.183
-13.06
-10.888
-8.644
-6.32
-3.911
-1.433
1.09
3.644
6.21
8.761
11.259
13.646
15.85
17.818
19.496
20.833
21.77
22.235
22.168
21.542
20.356
18.633
16.407
13.71
10.58
7.08
3.291
-0.687
-4.733
-8.743
-12.626
-16.286
-19.623
-22.542
-24.967
-26.87
-28.298
-29.315
-29.999
-30.428
-30.65
-30.75
-30.869
-31.162
-31.791
-32.901
-34.553
-36.841
-39.984
-44.059
-48.961
-54.38
-59.682
-64.267
-67.798
-69.849
-69.774
-67.251
-62.341
-55.623
-48.449
-41.924
-36.624
-33.219
-32.514
-34.94
-38.946
-40.972
-37.194
-23.833
-1.384
25.771
57.959
96.458
145.55
216.416
311.648
429.318
566.849
710.137
844.313
955.578
1025.419
1042.046
1003.679
913.755
783.277
628.634
463.795
303.208
163.806
57.939
-7.493
-31.587
-24.378
-0.492
27.91
48.821
56.417
51.899
37.86
21.718
10.189
4.339
2.952
1.774
-2.659
-9.725
-17.109
-22.163
-23.602
-21.879
-17.983
-12.847
-7.025
-1.03
4.459
9.015
12.487
14.938
16.607
17.635
18.091
18.094
17.806
17.384
16.925
16.46
15.96
15.418
14.864
14.34
13.888
13.503
13.147
12.778
12.357
11.862
11.272
10.561
9.688
