Name
Date of Birth,"Mar 27, 1959"
Recorded Date,2019-09-12 16:31:01 -0500
Classification,Sinus Rhythm
Symptoms,
Software Version,1.18
Device,"Watch4,2"
Sample Rate,510.227 hertz


Lead,Lead I
Unit,µV

171.063
190.267
208.358
224.674
238.601
249.324
255.562
257.152
255.185
250.389
243.268
234.424
224.18
213.214
202.769
193.251
184.215
175.445
166.788
158.217
150.06
142.391
134.919
127.687
121.049
115.246
110.513
106.934
104.339
102.625
101.775
101.687
102.189
103.119
104.275
105.483
106.643
107.625
108.315
108.631
108.48
107.781
106.469
104.487
101.793
98.382
94.25
89.379
83.777
77.464
70.474
62.877
54.742
46.14
37.151
27.856
18.347
8.732
-0.877
-10.376
-19.663
-28.659
-37.279
-45.419
-52.991
-59.931
-66.181
-71.712
-76.509
-80.575
-83.951
-86.715
-88.951
-90.739
-92.158
-93.288
-94.229
-95.094
-95.996
-97.046
-98.306
-99.878
-101.945
-104.57
-107.688
-111.039
-114.081
-116.345
-117.585
-117.423
-115.402
-111.462
-105.753
-99.054
-93.01
-88.736
-86.862
-88.469
-94.153
-103.516
-116.113
-128.761
-136.854
-138.741
-131.755
-115.389
-90.348
-52.706
-2.727
59.331
132.78
210.969
294.332
381.002
463.563
536.176
578.931
571.585
505.97
377.591
203.2
13.951
-163.282
-300.381
-383.661
-418.759
-415.201
-387.385
-347.913
-301.806
-255.569
-218.189
-196.97
-196.811
-215.384
-242.117
-267.315
-285.295
-295.423
-303.017
-312.11
-323.205
-335.008
-344.477
-349.78
-351.696
-351.919
-351.948
-352.715
-354.386
-356.8
-360.022
-364.238
-369.293
-374.725
-380.16
-385.272
-389.916
-394.153
-397.927
-401.111
-403.653
-405.564
-406.901
-407.746
-408.159
-408.156
-407.792
-407.162
-406.373
-405.533
-404.725
-404.002
-403.399
-402.958
-402.715
-402.686
-402.873
-403.245
-403.74
-404.312
-404.916
-405.501
-406.017
-406.391
-406.55
-406.438
-406.009
-405.236
-404.099
-402.573
-400.636
-398.279
-395.508
-392.353
-388.864
-385.084
-381.049
-376.792
-372.343
-367.739
-363.021
-358.221
-353.359
-348.455
-343.532
-338.628
-333.801
-329.119
-324.644
-320.413
-316.435
-312.713
-309.243
-306.015
-303.013
-300.211
-297.57
-295.055
-292.645
-290.317
-288.037
-285.741
-283.337
-280.695
-277.686
-274.212
-270.196
-265.594
-260.382
-254.559
-248.154
-241.218
-233.826
-226.039
-217.918
-209.528
-200.955
-192.323
-183.792
-175.563
-167.849
-160.843
-154.734
-149.675
-145.79
-143.175
-141.896
-141.988
-143.476
-146.4
-150.789
-156.656
-163.986
-172.711
-182.731
-193.905
-206.061
-219.021
-232.591
-246.591
-260.852
-275.214
-289.518
-303.611
-317.317
-330.434
-342.768
-354.129
-364.353
-373.322
-380.943
-387.161
-391.953
-395.318
-397.274
-397.848
-397.078
-395.018
-391.75
-387.38
-382.059
-375.977
-369.335
-362.358
-355.255
-348.212
-341.408
-334.989
-329.074
-323.77
-319.174
-315.365
-312.409
-310.349
-309.195
-308.933
-309.509
-310.833
-312.796
-315.255
-318.069
-321.104
-324.222
-327.312
-330.288
-333.063
-335.56
-337.715
-339.473
-340.793
-341.658
-342.059
-342.005
-341.527
-340.668
-339.496
-338.079
-336.492
-334.81
-333.09
-331.374
-329.701
-328.102
-326.599
-325.211
-323.95
-322.815
-321.808
-320.927
-320.166
-319.511
-318.944
-318.437
-317.965
-317.498
-317.014
-316.498
-315.938
-315.327
-314.661
-313.937
-313.156
-312.321
-311.434
-310.494
-309.499
-308.446
-307.334
-306.161
-304.929
-303.637
-302.285
-300.872
-299.394
-297.85
-296.237
-294.552
-292.79
-290.944
-289.005
-286.969
-284.828
-282.576
-280.209
-277.718
-275.098
-272.345
-269.459
-266.437
-263.275
-259.966
-256.5
-252.874
-249.085
-245.135
-241.026
-236.763
-232.354
-227.816
-223.174
-218.453
-213.672
-208.838
-203.952
-199.017
-194.037
-189.018
-183.967
-178.879
-173.743
-168.555
-163.318
-158.029
-152.679
-147.24
-141.665
-135.921
-129.995
-123.894
-117.645
-111.268
-104.789
-98.245
-91.684
-85.179
-78.802
-72.604
-66.623
-60.897
-55.477
-50.438
-45.867
-41.823
-38.326
-35.366
-32.915
-30.953
-29.448
-28.347
-27.567
-26.997
-26.532
-26.105
-25.668
-25.178
-24.577
-23.788
-22.739
-21.413
-19.846
-18.115
-16.299
-14.46
-12.656
-10.944
-9.416
-8.215
-7.475
-7.297
-7.749
-8.818
-10.52
-12.96
-16.116
-19.786
-23.594
-26.871
-28.999
-29.756
-28.965
-26.433
-22.273
-16.657
-10.104
-3.927
0.664
3.256
3.839
2.949
1.729
1.199
3.002
9.824
24.133
47.904
82.319
126.858
180.297
239.993
300.668
358.318
409.652
452.722
489.76
518.364
531.891
523.402
483.257
408.997
307.423
189.924
74.169
-22.26
-88.185
-120.034
-124.131
-113.466
-99.274
-87.88
-79.652
-70.628
-59.388
-47.276
-36.572
-30.46
-29.764
-33.055
-38.964
-45.701
-51.398
-55.279
-56.981
-56.353
-53.922
-50.308
-45.945
-41.438
-37.422
-34.21
-31.986
-30.803
-30.465
-30.811
-31.739
-33.103
-34.803
-36.809
-39.067
-41.527
-44.149
-46.852
-49.57
-52.253
-54.84
-57.269
-59.472
-61.396
-63.024
-64.36
-65.406
-66.155
-66.574
-66.625
-66.294
-65.587
-64.525
-63.131
-61.419
-59.402
-57.111
-54.588
-51.885
-49.031
-46.035
-42.891
-39.599
-36.163
-32.598
-28.918
-25.121
-21.204
-17.164
-12.996
-8.7
-4.268
0.32
5.09
10.072
15.287
20.745
26.452
32.412
38.627
45.099
51.825
58.797
66.011
73.468
81.166
89.099
97.256
105.621
114.166
122.865
131.679
140.57
149.508
158.465
167.423
176.373
185.306
194.212
203.086
211.911
220.67
229.352
237.938
246.415
254.781
263.04
271.216
279.34
287.423
295.462
303.446
311.335
319.09
326.661
333.984
341.008
347.692
353.994
359.889
365.354
370.347
374.825
378.729
381.985
384.55
386.399
387.518
387.93
387.669
386.788
385.372
383.493
381.21
378.579
375.639
372.425
368.991
365.39
361.684
357.951
354.252
350.636
347.15
343.815
340.634
337.602
334.682
331.845
329.077
326.368
323.719
321.138
318.623
316.174
313.792
311.467
309.192
306.959
304.759
302.593
300.469
298.397
296.402
294.503
292.71
291.03
289.462
288
286.638
285.367
284.172
283.039
281.96
280.922
279.917
278.932
277.956
276.972
275.966
274.921
273.823
272.661
271.425
270.106
268.698
267.194
265.591
263.886
262.076
260.156
258.121
255.966
253.69
251.292
248.774
246.137
243.386
240.526
237.563
234.505
231.363
228.141
224.847
221.487
218.069
214.608
211.119
207.615
204.104
200.596
197.096
193.61
190.141
186.683
183.22
179.738
176.233
172.707
169.173
165.642
162.122
158.624
155.157
151.741
148.398
145.148
142.002
138.975
136.092
133.393
130.937
128.773
126.929
125.411
124.21
123.315
122.704
122.347
122.197
122.188
122.259
122.362
122.461
122.52
122.486
122.29
121.842
121.071
119.932
118.403
116.481
114.168
111.481
108.46
105.169
101.693
98.106
94.459
90.793
87.146
83.561
80.099
76.826
73.789
71.019
68.527
66.309
64.359
62.658
61.17
59.851
58.639
57.488
56.371
55.268
54.171
53.082
51.991
50.888
49.782
48.678
47.601
46.59
45.676
44.894
44.273
43.829
43.582
43.542
43.705
44.065
44.598
45.26
46.018
46.839
47.683
48.518
49.293
49.942
50.412
50.653
50.631
50.333
49.75
48.872
47.695
46.2
44.374
42.214
39.704
36.832
33.599
30.025
26.137
21.964
17.514
12.781
7.763
2.48
-3.065
-8.928
-15.038
-21.173
-26.954
-31.787
-35.096
-36.484
-35.668
-32.425
-26.898
-19.631
-11.504
-3.932
1.627
4.128
3.123
-1.254
-8.013
-15.341
-21.074
-22.183
-15.103
3.325
35.524
81.273
137.285
199.921
264.837
331.046
401.327
472.573
539.684
592.181
611.121
588.004
519.948
408.233
270.035
121.698
-19.931
-131.737
-202.421
-228.58
-213.316
-172.594
-121.29
-71.271
-33.023
-9.365
-1.592
-7.395
-19.208
-32.165
-41.028
-44.079
-45.22
-45.879
-47.347
-50.024
-51.446
-50.985
-49.236
-46.622
-44.3
-43.124
-43.064
-44.068
-46.094
-48.849
-52.128
-55.817
-59.719
-63.659
-67.542
-71.259
-74.691
-77.8
-80.553
-82.904
-84.837
-86.336
-87.398
-88.049
-88.335
-88.294
-87.962
-87.369
-86.544
-85.524
-84.353
-83.079
-81.747
-80.395
-79.046
-77.723
-76.439
-75.205
-74.025
-72.892
-71.791
-70.711
-69.646
-68.589
-67.537
-66.482
-65.415
-64.326
-63.204
-62.043
-60.835
-59.572
-58.248
-56.858
-55.396
-53.861
-52.252
-50.566
-48.799
-46.949
-45.011
-42.983
-40.864
-38.651
-36.345
-33.945
-31.453
-28.873
-26.208
-23.465
-20.648
-17.765
-14.822
-11.83
-8.796
-5.732
-2.648
0.445
3.535
6.608
9.652
12.653
15.598
18.473
21.265
23.961
26.547
29.009
31.337
33.518
35.54
37.393
39.066
40.551
41.84
42.925
43.8
44.461
44.904
45.127
45.13
44.913
44.478
43.828
42.969
41.904
40.642
39.19
37.557
35.753
33.79
31.679
29.432
27.064
24.588
22.017
19.368
16.654
13.89
11.092
8.273
5.45
2.635
-0.157
-2.913
-5.619
-8.263
-10.834
-13.32
-15.713
-18.001
-20.179
-22.238
-24.172
-25.976
-27.647
-29.181
-30.577
-31.834
-32.951
-33.929
-34.772
-35.482
-36.063
-36.52
-36.858
-37.083
-37.203
-37.225
-37.156
-37.005
-36.779
-36.487
-36.138
-35.739
-35.3
-34.828
-34.332
-33.82
-33.298
-32.773
-32.253
-31.743
-31.249
-30.775
-30.326
-29.906
-29.517
-29.163
-28.845
-28.565
-28.324
-28.123
-27.961
-27.838
-27.753
-27.704
-27.688
-27.704
-27.748
-27.818
-27.91
-28.021
-28.148
-28.287
-28.434
-28.587
-28.742
-28.897
-29.047
-29.192
-29.328
-29.453
-29.567
-29.668
-29.756
-29.831
-29.893
-29.943
-29.983
-30.013
-30.037
-30.054
-30.068
-30.08
-30.093
-30.109
-30.131
-30.162
-30.205
-30.263
-30.339
-30.438
-30.561
-30.712
-30.894
-31.108
-31.358
-31.646
-31.971
-32.337
-32.744
-33.193
-33.684
-34.217
-34.792
-35.407
-36.058
-36.745
-37.463
-38.207
-38.972
-39.752
-40.544
-41.342
-42.141
-42.936
-43.724
-44.5
-45.262
-46.006
-46.727
-47.42
-48.078
-48.695
-49.267
-49.786
-50.249
-50.652
-50.992
-51.268
-51.486
-51.645
-51.745
-51.787
-51.767
-51.685
-51.549
-51.362
-51.132
-50.873
-50.599
-50.338
-50.118
-49.958
-49.872
-49.869
-49.948
-50.11
-50.358
-50.689
-51.104
-51.603
-52.184
-52.85
-53.607
-54.443
-55.336
-56.246
-57.123
-57.937
-58.668
-59.301
-59.83
-60.251
-60.563
-60.786
-60.935
-61.017
-61.037
-60.985
-60.842
-60.62
-60.341
-60.045
-59.795
-59.635
-59.595
-59.72
-60.054
-60.644
-61.549
-62.795
-64.403
-66.401
-68.792
-71.599
-74.877
-78.631
-82.86
-87.532
-92.547
-97.879
-103.56
-109.48
-115.428
-121.058
-125.851
-129.405
-131.376
-131.24
-128.602
-123.379
-115.747
-106.418
-96.3
-86.183
-77.272
-70.881
-67.68
-66.561
-64.654
-58.877
-47.565
-33.501
-20.698
-9.539
3.425
28.946
78.52
156.503
260.592
378.499
494.148
591.709
657.817
686.035
670.59
613.117
519.096
391.874
246.47
98.055
-37.191
-136.105
-191.263
-205.209
-188.025
-161.537
-138.065
-121.321
-110.811
-99.619
-86.111
-72.964
-62.521
-58.089
-60.002
-66.054
-74.391
-82.816
-89.526
-93.93
-95.839
-95.447
-93.415
-90.416
-87.028
-83.888
-81.578
-80.352
-80.262
-81.214
-82.954
-85.269
-87.998
-90.962
-93.991
-96.976
-99.817
-102.436
-104.784
-106.789
-108.39
-109.56
-110.282
-110.558
-110.41
-109.861
-108.945
-107.706
-106.184
-104.417
-102.441
-100.29
-98.005
-95.631
-93.213
-90.793
-88.404
-86.064
-83.786
-81.575
-79.426
-77.332
-75.281
-73.257
-71.248
-69.245
-67.24
-65.227
-63.198
-61.141
-59.044
-56.893
-54.677
-52.384
-50.006
-47.533
-44.956
-42.272
-39.476
-36.573
-33.562
-30.443
-27.211
-23.858
-20.382
-16.783
-13.066
-9.234
-5.291
-1.249
2.87
7.036
11.217
15.387
19.533
23.646
27.716
31.733
35.688
39.572
43.391
47.15
50.85
54.482
58.037
61.52
64.96
68.4
71.881
75.425
79.038
82.717
86.468
90.28
94.122
97.943
101.662
105.206
108.522
111.565
114.292
116.643
118.536
119.873
120.582
120.602
119.89
118.403
116.085
112.921
108.94
104.212
98.848
92.952
86.61
79.909
72.952
65.843
58.702
51.647
44.762
38.134
31.852
26.008
20.718
16.05
12.025
8.627
5.806
3.512
1.705
0.324
-0.713
-1.481
-2.046
-2.461
-2.75
-2.948
-3.104
-3.271
-3.518
-3.89
-4.399
-5.046
-5.818
-6.695
-7.657
-8.663
-9.652
-10.58
-11.418
-12.151
-12.784
-13.317
-13.736
-14.032
-14.193
-14.215
-14.1
-13.851
-13.469
-12.966
-12.356
-11.666
-10.931
-10.18
-9.43
-8.692
-7.971
-7.273
-6.605
-5.971
-5.37
-4.804
-4.274
-3.786
-3.346
-2.958
-2.62
-2.332
-2.086
-1.88
-1.712
-1.577
-1.474
-1.401
-1.356
-1.339
-1.353
-1.397
-1.471
-1.573
-1.701
-1.853
-2.028
-2.223
-2.436
-2.666
-2.911
-3.172
-3.447
-3.738
-4.043
-4.364
-4.698
-5.047
-5.41
-5.785
-6.173
-6.572
-6.982
-7.402
-7.834
-8.276
-8.728
-9.192
-9.666
-10.151
-10.646
-11.15
-11.663
-12.184
-12.711
-13.243
-13.779
-14.317
-14.856
-15.394
-15.929
-16.458
-16.98
-17.489
-17.984
-18.459
-18.912
-19.338
-19.733
-20.094
-20.418
-20.701
-20.941
-21.135
-21.28
-21.375
-21.417
-21.403
-21.334
-21.208
-21.025
-20.784
-20.488
-20.137
-19.734
-19.283
-18.789
-18.259
-17.698
-17.114
-16.514
-15.906
-15.3
-14.702
-14.121
-13.564
-13.04
-12.56
-12.136
-11.778
-11.498
-11.306
-11.21
-11.22
-11.344
-11.583
-11.941
-12.42
-13.026
-13.772
-14.669
-15.729
-16.957
-18.357
-19.926
-21.653
-23.522
-25.504
-27.568
-29.685
-31.822
-33.96
-36.074
-38.137
-40.115
-41.96
-43.617
-45.044
-46.201
-47.055
-47.603
-47.861
-47.867
-47.699
-47.428
-47.111
-46.827
-46.658
-46.693
-47.036
-47.787
-49.026
-50.889
-53.555
-57.09
-61.421
-66.299
-71.267
-75.903
-79.906
-82.907
-84.397
-84.105
-82.137
-79.016
-75.809
-73.47
-72.355
-72.719
-74.991
-79.186
-84.663
-90.029
-92.783
-90.244
-80.672
-62.6
-34.164
6.16
59.178
124.912
200.363
280.084
359.631
434.265
502.964
569.247
633.174
692.906
737.936
748.756
711.333
616.998
473.512
306.571
143.858
14.012
-68.352
-106.988
-113.743
-108.432
-103.755
-102.007
-101.516
-95.588
-82.657
-66.78
-51.821
-42.255
-39.714
-42.717
-49.606
-58.56
-67.529
-74.926
-79.89
-82.056
-81.664
-79.378
-75.822
-71.552
-67.258
-63.597
-60.908
-59.307
-58.702
-58.841
-59.548
-60.705
-62.171
-63.804
-65.495
-67.153
-68.706
-70.123
-71.359
-72.368
-73.156
-73.735
-74.118
-74.34
-74.426
-74.393
-74.262
-74.035
-73.68
-73.186
-72.548
-71.771
-70.885
-69.911
-68.855
-67.718
-66.478
-65.116
-63.619
-61.968
-60.144
-58.141
-55.958
-53.612
-51.15
-48.605
-45.995
-43.335
-40.621
-37.855
-35.047
-32.201
-29.323
-26.42
-23.494
-20.549
-17.595
-14.63
-11.649
-8.638
-5.57
-2.426
0.804
4.128
7.544
11.052
14.653
18.341
22.103
25.931
29.813
33.74
37.703
41.692
45.691
49.682
53.646
57.563
61.416
65.186
68.856
72.408
75.826
79.095
82.203
85.137
87.881
90.423
92.748
94.843
96.696
98.295
99.629
100.688
101.465
101.951
102.143
102.036
101.629
100.919
99.909
98.599
96.993
95.097
92.916
90.459
87.734
84.752
81.526
78.068
74.392
70.513
66.446
62.209
57.817
53.288
48.638
43.885
39.047
34.141
29.186
24.201
19.203
14.21
9.241
4.312
-0.559
-5.355
-10.062
-14.665
-19.15
-23.504
-27.714
-31.769
-35.659
-39.375
-42.909
-46.253
-49.403
-52.352
-55.099
-57.641
-59.977
-62.106
-64.031
-65.751
-67.271
-68.592
-69.718
-70.655
-71.406
-71.979
-72.379
-72.615
-72.693
-72.621
-72.41
-72.067
-71.603
-71.025
-70.345
-69.572
-68.716
-67.786
-66.791
-65.743
-64.649
-63.52
-62.364
-61.189
-60.004
-58.815
-57.63
-56.454
-55.295
-54.157
-53.044
-51.963
-50.917
-49.91
-48.946
-48.028
-47.159
-46.341
-45.577
-44.868
-44.215
-43.619
-43.079
-42.596
-42.17
-41.799
-41.482
-41.219
-41.008
-40.847
-40.734
-40.668
-40.645
-40.663
-40.72
-40.814
-40.942
-41.1
-41.288
-41.501
-41.738
-41.996
-42.273
-42.567
-42.874
-43.193
-43.52
-43.853
-44.188
-44.523
-44.854
-45.178
-45.493
-45.795
-46.082
-46.35
-46.597
-46.82
-47.016
-47.181
-47.314
-47.41
-47.466
-47.478
-47.444
-47.359
-47.221
-47.026
-46.773
-46.459
-46.084
-45.646
-45.145
-44.581
-43.951
-43.254
-42.488
-41.651
-40.739
-39.753
-38.692
-37.557
-36.35
-35.075
-33.739
-32.346
-30.902
-29.411
-27.874
-26.295
-24.683
-23.049
-21.407
-19.776
-18.178
-16.638
-15.181
-13.828
-12.595
-11.49
-10.512
-9.66
-8.931
-8.329
-7.867
-7.553
-7.387
-7.369
-7.494
-7.746
-8.107
-8.547
-9.029
-9.525
-10.021
-10.517
-11.033
-11.586
-12.195
-12.861
-13.573
-14.322
-15.102
-15.904
-16.719
-17.547
-18.386
-19.251
-20.178
-21.184
-22.272
-23.431
-24.632
-25.85
-27.086
-28.37
-29.745
-31.262
-32.956
-34.845
-36.972
-39.39
-42.151
-45.288
-48.823
-52.74
-57.077
-61.961
-67.375
-73.165
-79.04
-84.439
-88.822
-91.833
-92.935
-91.461
-87.265
-80.529
-71.824
-62.566
-53.908
-46.516
-41.587
-40.246
-42.374
-47.165
-52.891
-56.311
-54.484
-44.841
-23.624
13.07
65.804
131.887
207.87
288.396
372.529
466.703
571.604
681.444
783.905
852.373
864.013
810.324
690.818
523.781
338.463
158.982
10.625
-90.173
-143.81
-156.645
-144.589
-126.716
-111.382
-101.621
-94.895
-85.233
-72.947
-60.905
-51.921
-49.425
-53.315
-61.223
-71.205
-80.795
-88.007
-92.25
-93.323
-91.459
-87.453
-82.113
-76.162
-70.42
-65.585
-61.935
-59.535
-58.279
-57.911
-58.234
-59.078
-60.252
-61.577
-62.937
-64.271
-65.517
-66.624
-67.507
-68.068
-68.266
-68.114
-67.668
-66.998
-66.16
-65.2
-64.158
-63.093
-62.04
-61.016
-60.014
-59.003
-57.971
-56.933
-55.913
-54.936
-53.999
-53.069
-52.091
-51.023
-49.827
-48.473
-46.933
-45.173
-43.178
-40.954
-38.53
-35.954
-33.255
-30.442
-27.52
-24.487
-21.351
-18.128
-14.835
-11.476
-8.054
-4.575
-1.043
2.529
6.141
9.803
13.534
17.356
21.285
25.324
29.473
33.731
38.093
42.553
47.101
51.716
56.382
61.082
65.801
70.525
75.234
79.908
84.521
89.051
93.474
97.769
101.914
105.888
109.672
113.246
116.595
119.704
122.558
125.144
127.446
129.451
131.148
132.527
133.578
134.294
134.667
134.693
134.371
133.699
132.679
131.314
129.608
127.569
125.205
122.525
119.543
116.271
112.723
108.915
104.865
100.59
96.109
91.443
86.61
81.633
76.532
71.328
66.043
60.698
55.313
49.909
44.508
39.128
33.79
28.511
23.31
18.204
13.21
8.343
3.616
-0.957
-5.364
-9.593
-13.637
-17.486
-21.133
-24.574
-27.803
-30.817
-33.614
-36.195
-38.558
-40.706
-42.642
-44.369
-45.89
-47.213
-48.342
-49.284
-50.048
-50.64
-51.069
-51.343
-51.472
-51.465
-51.33
-51.077
-50.715
-50.253
-49.699
-49.063
-48.354
-47.579
-46.747
-45.865
-44.943
-43.987
-43.004
-42.001
-40.983
-39.958
-38.93
-37.905
-36.887
-35.881
-34.89
-33.918
-32.968
-32.043
-31.146
-30.277
-29.44
-28.634
-27.862
-27.124
-26.421
-25.753
-25.122
-24.527
-23.97
-23.451
-22.972
-22.532
-22.133
-21.776
-21.462
-21.19
-20.962
-20.778
-20.638
-20.543
-20.492
-20.485
-20.523
-20.604
-20.729
-20.898
-21.109
-21.363
-21.657
-21.992
-22.365
-22.777
-23.226
-23.711
-24.23
-24.781
-25.364
-25.976
-26.615
-27.278
-27.961
-28.66
-29.371
-30.089
-30.808
-31.522
-32.224
-32.911
-33.575
-34.212
-34.816
-35.382
-35.907
-36.388
-36.818
-37.194
-37.509
-37.757
-37.934
-38.032
-38.048
-37.974
-37.805
-37.538
-37.173
-36.71
-36.146
-35.479
-34.702
-33.817
-32.828
-31.743
-30.569
-29.317
-27.999
-26.639
-25.266
-23.908
-22.588
-21.317
-20.101
-18.949
-17.87
-16.875
-15.972
-15.157
-14.424
-13.773
-13.207
-12.726
-12.321
-11.964
-11.611
-11.23
-10.809
-10.352
-9.87
-9.375
-8.884
-8.418
-8.013
-7.719
-7.572
-7.588
-7.773
-8.128
-8.674
-9.447
-10.497
-11.853
-13.516
-15.471
-17.699
-20.174
-22.856
-25.7
-28.636
-31.592
-34.529
-37.443
-40.366
-43.337
-46.384
-49.508
-52.685
-55.922
-59.274
-62.79
-66.503
-70.444
-74.612
-79.072
-84.012
-89.459
-95.236
-101.055
-106.415
-110.873
-114.171
-115.81
-115.061
-111.709
-105.98
-98.404
-90.08
-81.891
-74.417
-68.912
-66.874
-67.497
-67.955
-65.563
-58.107
-47.724
-39.245
-32.303
-19.839
9.861
66.994
153.746
261.14
374.625
485.946
589.907
682.307
760.574
811.377
817.579
772.674
674.519
531.426
366.491
198.649
47.354
-66.168
-137.57
-168.846
-168.878
-157.644
-145.476
-135.566
-127.712
-115.336
-97.58
-78.636
-61.98
-51.5
-48.072
-49.688
-54.592
-60.998
-67.134
-71.702
-73.967
-73.8
-71.597
-68.119
-64.038
-59.889
-56.293
-53.814
-52.722
-53.051
-54.634
-57.158
-60.365
-64.058
-68.016
-72.026
-75.912
-79.521
-82.746
-85.516
-87.769
-89.463
-90.574
-91.097
-91.05
-90.467
-89.395
-87.89
-86.007
-83.8
-81.322
-78.622
-75.759
-72.792
-69.776
-66.765
-63.795
-60.889
-58.062
-55.324
-52.673
-50.102
-47.596
-45.136
-42.709
-40.303
-37.907
-35.509
-33.096
-30.655
-28.17
-25.628
-23.018
-20.329
-17.551
-14.677
-11.7
-8.617
-5.424
-2.12
1.298
4.831
8.483
12.253
16.144
20.152
24.277
28.514
32.859
37.305
41.843
46.463
51.155
55.904
60.7
65.525
70.366
75.204
80.022
84.801
89.522
94.164
98.706
103.127
107.406
111.522
115.453
119.179
122.681
125.939
128.935
131.653
134.076
136.191
137.984
139.445
140.561
141.327
141.734
141.779
141.458
140.77
139.716
138.3
136.526
134.399
131.929
129.126
125.999
122.564
118.834
114.825
110.555
106.043
101.309
96.373
91.259
85.987
80.582
75.065
69.462
63.795
58.086
52.36
46.639
40.943
35.296
29.716
24.224
18.838
13.577
8.455
3.49
-1.306
-5.92
-10.339
-14.555
-18.557
-22.339
-25.895
-29.219
-32.309
-35.163
-37.78
-40.161
-42.308
-44.225
-45.917
-47.391
-48.652
-49.709
-50.57
-51.246
-51.744
-52.078
-52.255
-52.289
-52.189
-51.968
-51.637
-51.207
-50.689
-50.096
-49.437
-48.723
-47.965
-47.173
-46.356
-45.524
-44.684
-43.846
-43.018
-42.205
-41.415
-40.655
-39.928
-39.239
-38.593
-37.991
-37.438
-36.933
-36.478
-36.073
-35.719
-35.416
-35.161
-34.956
-34.798
-34.686
-34.619
-34.595
-34.613
-34.67
-34.764
-34.893
-35.054
-35.245
-35.463
-35.706
-35.972
-36.258
-36.562
-36.881
-37.215
-37.56
-37.915
-38.277
-38.646
-39.019
-39.395
-39.774
-40.153
-40.534
-40.915
-41.296
-41.677
-42.056
-42.433
-42.806
-43.174
-43.535
-43.885
-44.221
-44.542
-44.843
-45.125
-45.382
-45.615
-45.821
-45.998
-46.148
-46.266
-46.35
-46.395
-46.397
-46.353
-46.258
-46.105
-45.89
-45.608
-45.255
-44.829
-44.33
-43.754
-43.095
-42.345
-41.502
-40.566
-39.541
-38.43
-37.238
-35.976
-34.66
-33.315
-31.967
-30.634
-29.324
-28.039
-26.784
-25.565
-24.39
-23.266
-22.185
-21.14
-20.127
-19.145
-18.196
-17.269
-16.339
-15.363
-14.311
-13.172
-11.951
-10.666
-9.332
-7.968
-6.602
-5.276
-4.056
-3
-2.149
-1.531
-1.179
-1.132
-1.447
-2.188
-3.39
-5.059
-7.186
-9.743
-12.709
-16.047
-19.691
-23.553
-27.515
-31.476
-35.359
-39.099
-42.625
-45.87
-48.762
-51.247
-53.336
-55.059
-56.465
-57.598
-58.48
-59.166
-59.756
-60.383
-61.211
-62.361
-63.881
-65.854
-68.441
-71.704
-75.597
-79.869
-83.937
-87.306
-89.706
-90.766
-90.009
-87.182
-82.252
-75.724
-68.968
-63.071
-58.387
-55.64
-55.699
-58.633
-64.271
-70.14
-70.771
-63.686
-48.354
-25.602
0.23
32.024
76.694
137.939
221.326
321.656
426.741
531.851
628.361
711.374
779.839
817.856
810.897
749.946
627.862
460.135
273.593
95.472
-43.411
-130.733
-170.918
-176.69
-171.218
-167.559
-167.366
-167.85
-159.555
-139.914
-113.805
-85.826
-61.647
-44.374
-33.35
-28.066
-28.611
-34.048
-42.83
-53.789
-65.438
-76.201
-85.566
-93.015
-97.458
-98.704
-97.203
-93.307
-87.982
-82.444
-77.168
-72.572
-69.247
-67.29
-66.655
-67.312
-68.806
-70.581
-72.412
-74.106
-75.526
-76.727
-77.695
-78.388
-78.882
-79.232
-79.43
-79.48
-79.348
-78.976
-78.368
-77.531
-76.474
-75.223
-73.779
-72.145
-70.334
-68.346
-66.184
-63.86
-61.385
-58.789
-56.122
-53.414
-50.692
-47.978
-45.273
-42.583
-39.912
-37.255
-34.61
-31.975
-29.343
-26.712
-24.081
-21.439
-18.773
-16.067
-13.29
-10.419
-7.437
-4.327
-1.08
2.307
5.835
9.5
13.294
17.207
21.222
25.316
29.469
33.665
37.891
42.14
46.399
50.655
54.895
59.105
63.282
67.428
71.538
75.61
79.64
83.633
87.605
91.585
95.595
99.643
103.717
107.795
111.857
115.877
119.83
123.686
127.393
130.902
134.172
137.161
139.829
142.128
143.986
145.319
146.053
146.124
145.497
144.155
142.08
139.273
135.734
131.471
126.529
120.946
114.761
108.028
100.798
93.135
85.135
76.91
68.575
60.253
52.04
44.008
36.238
28.789
21.726
15.113
8.986
3.371
-1.706
-6.239
-10.222
-13.656
-16.576
-19.036
-21.1
-22.857
-24.371
-25.684
-26.847
-27.897
-28.877
-29.843
-30.824
-31.842
-32.915
-34.054
-35.267
-36.567
-37.942
-39.363
-40.794
-42.182
-43.489
-44.699
-45.79
-46.75
-47.564
-48.21
-48.68
-48.981
-49.114
-49.084
-48.893
-48.542
-48.043
-47.418
-46.693
-45.897
-45.054
-44.177
-43.281
-42.375
-41.471
-40.578
-39.701
-38.836
-37.987
-37.154
-36.341
-35.552
-34.789
-34.049
-33.328
-32.625
-31.939
-31.269
-30.615
-29.979
-29.362
-28.765
-28.194
-27.652
-27.142
-26.666
-26.228
-25.827
-25.466
-25.147
-24.872
-24.641
-24.458
-24.323
-24.24
-24.21
-24.235
-24.318
-24.458
-24.658
-24.919
-25.241
-25.625
-26.072
-26.582
-27.154
-27.787
-28.479
-29.23
-30.034
-30.89
-31.792
-32.737
-33.718
-34.729
-35.765
-36.819
-37.884
-38.954
-40.02
-41.075
-42.11
-43.118
-44.089
-45.016
-45.889
-46.699
-47.438
-48.097
-48.667
-49.141
-49.511
-49.77
-49.911
-49.927
-49.814
-49.567
-49.182
-48.656
-47.989
-47.181
-46.234
-45.15
-43.933
-42.592
-41.133
-39.564
-37.894
-36.136
-34.3
-32.4
-30.45
-28.463
-26.455
-24.442
-22.44
-20.468
-18.542
-16.68
-14.899
-13.215
-11.646
-10.212
-8.93
-7.812
-6.873
-6.125
-5.581
-5.256
-5.162
-5.301
-5.678
-6.295
-7.15
-8.244
-9.568
-11.101
-12.821
-14.696
-16.698
-18.802
-20.979
-23.195
-25.415
-27.598
-29.707
-31.721
-33.611
-35.353
-36.927
-38.31
-39.506
-40.544
-41.47
-42.352
-43.26
-44.254
-45.391
-46.712
-48.27
-50.148
-52.408
-55.109
-58.312
-62.013
-66.269
-71.222
-76.812
-82.82
-88.861
-94.252
-98.401
-100.955
-101.366
-99.02
-93.817
-85.955
-76.267
-66.436
-57.741
-51.002
-47.278
-47.286
-50.735
-56.667
-62.775
-65.399
-61.213
-47.122
-19.66
24.259
84.291
156.89
237.91
321.3
407.028
501.638
603.255
705.841
794.143
838.907
824.954
747.617
611.192
443.114
267.1
104.901
-18.346
-97.766
-135.114
-139.179
-131.96
-124.333
-119.838
-118.432
-111.699
-98.042
-81.815
-66.527
-57.01
-54.828
-57.949
-64.555
-72.815
-80.69
-86.714
-90.133
-90.66
-88.646
-84.902
-80.127
-74.909
-69.957
-65.889
-62.996
-61.376
-60.905
-61.326
-62.466
-64.181
-66.287
-68.604
-70.978
-73.291
-75.461
-77.427
-79.119
-80.465
-81.438
-82.059
-82.363
-82.382
-82.139
-81.631
-80.847
-79.804
-78.521
-77.021
-75.338
-73.497
-71.529
-69.48
-67.384
-65.266
-63.128
-60.939
-58.666
-56.295
-53.817
-51.247
-48.61
-45.915
-43.168
-40.384
-37.564
-34.713
-31.829
-28.896
-25.897
-22.827
-19.686
-16.485
-13.239
-9.949
-6.61
-3.213
0.261
3.822
7.479
11.247
15.133
19.141
23.272
27.518
31.866
36.308
40.837
45.445
50.125
54.866
59.654
64.475
69.311
74.143
78.954
83.721
88.423
93.041
97.554
101.943
106.192
110.282
114.195
117.912
121.415
124.686
127.708
130.465
132.941
135.12
136.991
138.541
139.762
140.645
141.184
141.373
141.209
140.692
139.82
138.596
137.024
135.109
132.859
130.282
127.39
124.194
120.707
116.946
112.927
108.666
104.183
99.498
94.629
89.599
84.429
79.14
73.755
68.296
62.785
57.245
51.697
46.162
40.663
35.218
29.847
24.57
19.402
14.362
9.465
4.725
0.156
-4.23
-8.422
-12.41
-16.186
-19.743
-23.075
-26.178
-29.05
-31.688
-34.093
-36.266
-38.209
-39.926
-41.421
-42.702
-43.773
-44.644
-45.322
-45.816
-46.135
-46.291
-46.292
-46.149
-45.873
-45.475
-44.966
-44.356
-43.657
-42.88
-42.035
-41.133
-40.184
-39.198
-38.185
-37.154
-36.114
-35.073
-34.039
-33.019
-32.019
-31.046
-30.105
-29.201
-28.336
-27.515
-26.739
-26.011
-25.331
-24.702
-24.123
-23.595
-23.117
-22.69
-22.314
-21.988
-21.711
-21.483
-21.302
-21.167
-21.076
-21.029
-21.023
-21.056
-21.128
-21.236
-21.378
-21.553
-21.761
-21.998
-22.264
-22.557
-22.877
-23.222
-23.591
-23.985
-24.403
-24.844
-25.31
-25.801
-26.316
-26.855
-27.419
-28.006
-28.616
-29.245
-29.892
-30.554
-31.229
-31.915
-32.608
-33.308
-34.011
-34.717
-35.424
-36.13
-36.83
-37.521
-38.199
-38.859
-39.496
-40.104
-40.677
-41.208
-41.691
-42.121
-42.492
-42.798
-43.03
-43.178
-43.233
-43.194
-43.057
-42.824
-42.499
-42.088
-41.602
-41.059
-40.474
-39.863
-39.238
-38.608
-37.981
-37.364
-36.765
-36.196
-35.659
-35.145
-34.642
-34.132
-33.593
-33.008
-32.347
-31.574
-30.66
-29.584
-28.335
-26.912
-25.321
-23.571
-21.677
-19.657
-17.549
-15.408
-13.304
-11.313
-9.512
-7.97
-6.763
-5.968
-5.644
-5.825
-6.53
-7.756
-9.496
-11.736
-14.45
-17.598
-21.12
-24.927
-28.912
-32.952
-36.933
-40.747
-44.292
-47.484
-50.28
-52.68
-54.707
-56.396
-57.765
-58.848
-59.702
-60.406
-61.068
-61.801
-62.719
-63.986
-65.821
-68.358
-71.589
-75.313
-79.092
-82.444
-84.991
-86.312
-85.858
-83.274
-78.653
-72.601
-66.342
-61.179
-57.891
-57.073
-59.532
-65.647
-74.854
-85.554
-94.757
-99.015
-95.867
-82.94
-57.294
-16.55
40.909
114.037
197.792
286.615
375.417
461.786
547.856
632.773
712.257
778.239
813.119
801.871
736.82
614.368
448.291
263.582
84.279
-60.895
-154.839
-200.933
-207.046
-189.751
-165.94
-137.152
-106.409
-77.961
-53.046
-41.004
-44.431
-56.653
-73.185
-85.938
-91.484
-94.024
-94.99
-95.98
-97.6
-97.305
-94.539
-90.109
-84.651
-79.472
-75.532
-72.888
-71.517
-71.361
-72.11
-73.515
-75.422
-77.639
-79.989
-82.392
-84.76
-86.971
-88.962
-90.649
-91.931
-92.748
-93.079
-92.932
-92.367
-91.471
-90.321
-88.989
-87.533
-85.98
-84.344
-82.621
-80.812
-78.936
-77.017
-75.09
-73.186
-71.327
-69.516
-67.741
-65.97
-64.15
-62.234
-60.178
-57.957
-55.565
-53.015
-50.334
-47.548
-44.673
-41.721
-38.69
-35.579
-32.382
-29.096
-25.714
-22.24
-18.687
-15.069
-11.398
-7.679
-3.908
-0.074
3.839
7.847
11.961
16.189
20.534
24.992
29.557
34.215
38.952
43.754
48.609
53.505
58.431
63.373
68.313
73.234
78.116
82.935
87.668
92.291
96.779
101.113
105.273
109.239
112.994
116.52
119.801
122.824
125.572
128.029
130.176
131.993
133.466
134.59
135.365
135.791
135.867
135.593
134.977
134.029
132.758
131.166
129.244
126.984
124.387
121.466
118.24
114.732
110.955
106.912
102.606
98.047
93.247
88.214
82.945
77.43
71.678
65.722
59.62
53.43
47.194
40.941
34.689
28.462
22.294
16.224
10.286
4.505
-1.091
-6.466
-11.565
-16.329
-20.723
-24.752
-28.45
-31.849
-34.965
-37.803
-40.365
-42.662
-44.712
-46.531
-48.123
-49.49
-50.641
-51.599
-52.408
-53.114
-53.743
-54.292
-54.741
-55.072
-55.281
-55.371
-55.343
-55.193
-54.918
-54.522
-54.025
-53.445
-52.794
-52.076
-51.281
-50.404
-49.445
-48.42
-47.348
-46.249
-45.134
-44.014
-42.904
-41.817
-40.768
-39.761
-38.793
-37.863
-36.969
-36.116
-35.309
-34.553
-33.846
-33.189
-32.581
-32.02
-31.506
-31.037
-30.61
-30.22
-29.864
-29.542
-29.252
-28.996
-28.77
-28.575
-28.408
-28.269
-28.157
-28.071
-28.009
-27.969
-27.95
-27.951
-27.972
-28.011
-28.068
-28.143
-28.235
-28.345
-28.473
-28.62
-28.786
-28.971
-29.175
-29.398
-29.637
-29.892
-30.16
-30.439
-30.727
-31.022
-31.323
-31.628
-31.936
-32.245
-32.554
-32.86
-33.162
-33.453
-33.73
-33.987
-34.22
-34.422
-34.588
-34.71
-34.784
-34.806
-34.77
-34.673
-34.507
-34.263
-33.934
-33.519
-33.018
-32.433
-31.771
-31.038
-30.245
-29.415
-28.566
-27.715
-26.879
-26.064
-25.274
-24.517
-23.801
-23.135
-22.52
-21.947
-21.4
-20.869
-20.341
-19.801
-19.229
-18.585
-17.839
-16.972
-15.968
-14.833
-13.579
-12.217
-10.764
-9.252
-7.72
-6.229
-4.849
-3.636
-2.645
-1.929
-1.539
-1.537
-1.971
-2.861
-4.221
-6.045
-8.307
-10.983
-14.034
-17.391
-20.979
-24.704
-28.452
-32.128
-35.648
-38.933
-41.923
-44.581
-46.907
-48.926
-50.679
-52.202
-53.515
-54.665
-55.733
-56.819
-58.04
-59.523
-61.348
-63.652
-66.65
-70.386
-74.739
-79.374
-83.617
-86.847
-88.66
-88.502
-85.764
-80.347
-72.492
-63.097
-53.981
-46.649
-42.072
-41.341
-45.172
-53.134
-64.009
-75.226
-82.661
-82.392
-70.914
-44.58
-0.201
62.159
139.148
226.475
317.865
411.003
510.108
614.249
717.396
807.728
861.096
858.814
794.913
670.612
504.381
322.078
145.337
-2.525
-107.63
-168.288
-187.376
-177.327
-151.152
-118.406
-89.504
-68.739
-59.502
-62.548
-71.274
-81.092
-87.617
-89.237
-90.494
-93.771
-99.506
-106.651
-111.838
-113.609
-112.299
-108.565
-103.567
-98.057
-92.454
-87.356
-83.141
-79.898
-77.532
-75.809
-74.576
-73.754
-73.255
-72.971
-72.808
-72.712
-72.688
-72.766
-72.927
-73.124
-73.307
-73.439
-73.528
-73.59
-73.637
-73.676
-73.712
-73.742
-73.761
-73.751
-73.665
-73.463
-73.105
-72.549
-71.777
-70.781
-69.555
-68.096
-66.399
-64.453
-62.259
-59.821
-57.142
-54.234
-51.116
-47.817
-44.392
-40.886
-37.336
-33.778
-30.231
-26.708
-23.222
-19.775
-16.358
-12.968
-9.592
-6.221
-2.852
0.524
3.919
7.351
10.85
14.438
18.122
21.91
25.802
29.792
33.878
38.039
42.243
46.46
50.659
54.821
58.939
63.001
66.99
70.891
74.682
78.357
81.926
85.39
88.747
92
95.143
98.197
101.205
104.201
107.208
110.235
113.266
116.294
119.319
122.325
125.286
128.159
130.867
133.354
135.577
137.487
139.045
140.179
140.783
140.77
140.068
138.622
136.408
133.391
129.529
124.812
119.26
112.923
105.89
98.24
90.034
81.351
72.267
62.894
53.382
43.869
34.483
25.342
16.544
8.195
0.414
-6.717
-13.148
-18.858
-23.862
-28.17
-31.788
-34.736
-37.044
-38.769
-39.997
-40.814
-41.305
-41.554
-41.63
-41.61
-41.582
-41.611
-41.738
-41.992
-42.375
-42.894
-43.556
-44.358
-45.291
-46.329
-47.438
-48.576
-49.698
-50.767
-51.753
-52.625
-53.351
-53.91
-54.288
-54.482
-54.499
-54.344
-54.024
-53.545
-52.92
-52.166
-51.302
-50.352
-49.34
-48.286
-47.206
-46.114
-45.02
-43.934
-42.861
-41.804
-40.761
-39.731
-38.715
-37.715
-36.73
-35.762
-34.809
-33.87
-32.944
-32.031
-31.132
-30.25
-29.387
-28.547
-27.735
-26.955
-26.212
-25.512
-24.858
-24.254
-23.701
-23.202
-22.76
-22.376
-22.052
-21.79
-21.591
-21.457
-21.388
-21.387
-21.452
-21.585
-21.785
-22.051
-22.384
-22.781
-23.241
-23.762
-24.342
-24.977
-25.662
-26.393
-27.165
-27.971
-28.804
-29.654
-30.516
-31.379
-32.236
-33.08
-33.901
-34.692
-35.448
-36.161
-36.826
-37.436
-37.984
-38.461
-38.86
-39.174
-39.397
-39.521
-39.541
-39.454
-39.259
-38.955
-38.544
-38.025
-37.397
-36.657
-35.807
-34.855
-33.805
-32.669
-31.464
-30.209
-28.934
-27.67
-26.44
-25.261
-24.147
-23.102
-22.132
-21.24
-20.428
-19.705
-19.08
-18.557
-18.148
-17.855
-17.666
-17.565
-17.516
-17.478
-17.433
-17.37
-17.287
-17.206
-17.148
-17.146
-17.245
-17.469
-17.823
-18.306
-18.902
-19.599
-20.409
-21.344
-22.425
-23.69
-25.142
-26.774
-28.581
-30.523
-32.547
-34.591
-36.571
-38.436
-40.194
-41.888
-43.573
-45.311
-47.129
-49.027
-51.029
-53.175
-55.514
-58.093
-60.949
-64.086
-67.588
-71.645
-76.316
-81.471
-86.747
-91.523
-95.229
-97.484
-97.78
-95.506
-90.478
-82.913
-73.696
-64.337
-56.025
-49.819
-46.799
-47.61
-52.277
-58.628
-63.223
-63.82
-57.352
-43.368
-21.675
14.469
67.284
137.338
225.722
321.704
420.136
522.583
621.806
715.328
793.427
831.743
819.051
749.432
624.183
467.332
300.099
143.213
20.77
-62.038
-106.26
-119.334
-120.484
-119.034
-117.918
-117.333
-110.384
-96.333
-79.833
-64.546
-54.981
-52.719
-56.016
-63.145
-72.382
-81.66
-89.267
-94.283
-96.313
-95.575
-92.807
-88.688
-83.783
-78.835
-74.571
-71.353
-69.328
-68.425
-68.392
-69.068
-70.326
-71.986
-73.864
-75.817
-77.733
-79.533
-81.181
-82.615
-83.771
-84.634
-85.2
-85.483
-85.505
-85.268
-84.766
-83.988
-82.943
-81.646
-80.116
-78.384
-76.473
-74.42
-72.256
-70.013
-67.708
-65.333
-62.874
-60.316
-57.657
-54.903
-52.077
-49.205
-46.305
-43.393
-40.479
-37.568
-34.658
-31.742
-28.809
-25.844
-22.845
-19.819
-16.773
-13.711
-10.627
-7.506
-4.33
-1.081
2.256
5.697
9.252
12.923
16.703
20.572
24.508
28.493
32.521
36.594
40.712
44.873
49.072
53.302
57.567
61.87
66.211
70.581
74.975
79.395
83.859
88.403
93.054
97.818
102.68
107.614
112.594
117.586
122.55
127.432
132.156
136.65
140.861
144.745
148.26
151.353
153.952
155.968
157.332
158.003
157.963
157.207
155.733
153.552
150.696
147.225
143.223
138.76
133.891
128.656
123.098
117.269
111.243
105.1
98.902
92.694
86.515
80.394
74.366
68.45
62.648
56.94
51.29
45.681
40.107
34.577
29.097
23.668
18.287
12.949
7.663
2.439
-2.712
-7.779
-12.758
-17.635
-22.389
-26.987
-31.395
-35.588
-39.551
-43.273
-46.745
-49.959
-52.909
-55.594
-58.02
-60.192
-62.112
-63.784
-65.21
-66.394
-67.348
-68.082
-68.608
-68.939
-69.084
-69.054
-68.861
-68.516
-68.029
-67.41
-66.666
-65.807
-64.843
-63.788
-62.651
-61.444
-60.179
-58.867
-57.519
-56.145
-54.757
-53.362
-51.97
-50.588
-49.224
-47.885
-46.577
-45.307
-44.079
-42.899
-41.771
-40.7
-39.688
-38.739
-37.855
-37.038
-36.289
-35.609
-35
-34.46
-33.99
-33.59
-33.259
-32.996
-32.799
-32.666
-32.594
-32.582
-32.626
-32.722
-32.868
-33.06
-33.294
-33.568
-33.877
-34.219
-34.59
-34.986
-35.405
-35.842
-36.294
-36.756
-37.222
-37.691
-38.156
-38.613
-39.06
-39.491
-39.905
-40.299
-40.67
-41.015
-41.331
-41.614
-41.859
-42.064
-42.222
-42.331
-42.385
-42.379
-42.31
-42.174
-41.969
-41.691
-41.335
-40.894
-40.364
-39.746
-39.042
-38.255
-37.394
-36.465
-35.484
-34.468
-33.435
-32.402
-31.381
-30.384
-29.418
-28.494
-27.62
-26.81
-26.066
-25.382
-24.746
-24.144
-23.556
-22.964
-22.341
-21.652
-20.868
-19.971
-18.949
-17.802
-16.535
-15.155
-13.675
-12.113
-10.5
-8.887
-7.334
-5.908
-4.678
-3.709
-3.07
-2.838
-3.069
-3.794
-5.03
-6.776
-9.021
-11.748
-14.928
-18.516
-22.447
-26.639
-30.991
-35.392
-39.732
-43.905
-47.813
-51.358
-54.479
-57.169
-59.438
-61.317
-62.84
-64.023
-64.905
-65.565
-66.103
-66.633
-67.284
-68.157
-69.383
-71.177
-73.647
-76.759
-80.296
-83.759
-86.624
-88.514
-88.984
-87.471
-83.662
-77.612
-69.89
-61.812
-54.754
-49.66
-47.404
-48.858
-54.343
-63.285
-73.977
-83.299
-87.767
-84.202
-69.407
-40.24
6.108
69.652
146.818
232.871
321.925
411.612
505.864
604.749
703.517
792.085
847.616
850.295
791.703
669.767
501.095
313.685
132.488
-15.239
-112.363
-161.237
-171.415
-159.635
-144.588
-130.562
-115.543
-99.539
-79.58
-60.533
-50.883
-49.125
-54.367
-63.605
-70.277
-75.663
-80.618
-83.929
-86.871
-88.182
-86.72
-83.56
-79.292
-74.633
-70.616
-67.737
-66.133
-65.919
-66.982
-69.002
-71.725
-74.953
-78.426
-81.904
-85.223
-88.203
-90.712
-92.682
-94.024
-94.674
-94.627
-93.9
-92.541
-90.618
-88.197
-85.337
-82.131
-78.675
-75.082
-71.481
-67.977
-64.653
-61.587
-58.839
-56.451
-54.439
-52.781
-51.415
-50.286
-49.342
-48.538
-47.841
-47.199
-46.554
-45.844
-44.999
-43.962
-42.695
-41.161
-39.328
-37.183
-34.724
-31.972
-28.978
-25.775
-22.385
-18.823
-15.093
-11.204
-7.173
-3.014
1.26
5.636
10.108
14.662
19.284
23.969
28.714
33.527
38.424
43.412
48.486
53.64
58.858
64.124
69.424
74.734
80.03
85.287
90.48
95.587
100.587
105.458
110.171
114.701
119.018
123.094
126.907
130.431
133.646
136.533
139.073
141.253
143.062
144.49
145.527
146.165
146.399
146.223
145.636
144.639
143.232
141.421
139.212
136.616
133.644
130.309
126.628
122.616
118.294
113.679
108.795
103.664
98.309
92.756
87.029
81.156
75.162
69.076
62.924
56.734
50.531
44.341
38.191
32.103
26.103
20.211
14.449
8.838
3.396
-1.86
-6.913
-11.749
-16.355
-20.721
-24.837
-28.695
-32.291
-35.619
-38.678
-41.466
-43.984
-46.234
-48.22
-49.945
-51.417
-52.642
-53.63
-54.391
-54.934
-55.271
-55.415
-55.377
-55.172
-54.811
-54.309
-53.678
-52.933
-52.086
-51.151
-50.14
-49.066
-47.942
-46.778
-45.586
-44.375
-43.155
-41.936
-40.726
-39.532
-38.361
-37.22
-36.114
-35.048
-34.027
-33.054
-32.132
-31.263
-30.448
-29.69
-28.987
-28.34
-27.748
-27.211
-26.728
-26.298
-25.918
-25.588
-25.306
-25.069
-24.876
-24.725
-24.613
-24.54
-24.502
-24.499
-24.528
-24.589
-24.679
-24.799
-24.945
-25.118
-25.316
-25.538
-25.784
-26.052
-26.343
-26.655
-26.989
-27.343
-27.719
-28.115
-28.53
-28.965
-29.417
-29.887
-30.371
-30.868
-31.375
-31.889
-32.409
-32.932
-33.456
-33.976
-34.491
-35
-35.499
-35.986
-36.456
-36.905
-37.329
-37.724
-38.086
-38.409
-38.688
-38.917
-39.09
-39.205
-39.257
-39.238
-39.142
-38.959
-38.683
-38.315
-37.855
-37.308
-36.68
-35.983
-35.232
-34.45
-33.656
-32.867
-32.097
-31.352
-30.644
-29.991
-29.408
-28.907
-28.496
-28.17
-27.922
-27.743
-27.61
-27.491
-27.35
-27.131
-26.796
-26.32
-25.688
-24.894
-23.939
-22.813
-21.519
-20.073
-18.5
-16.836
-15.126
-13.412
-11.75
-10.217
-8.89
-7.853
-7.176
-6.896
-7.037
-7.612
-8.614
-10.042
-11.882
-14.092
-16.622
-19.425
-22.438
-25.62
-28.927
-32.299
-35.702
-39.11
-42.503
-45.888
-49.261
-52.632
-56.055
-59.578
-63.256
-67.172
-71.36
-75.875
-80.87
-86.307
-91.995
-97.647
-102.691
-106.595
-109.05
-109.551
-107.454
-102.656
-95.356
-86.142
-76.442
-67.345
-59.382
-53.556
-50.82
-51.004
-53.301
-56.012
-55.966
-50.341
-36.857
-12.282
26.821
81.217
148.663
225.757
307.345
391.14
481.38
579.648
680.707
774.014
838.649
852.525
807.712
705.516
556.888
384.635
207.999
44.064
-86.93
-174.069
-215.151
-215.145
-191.055
-160.826
-134.266
-115.088
-100.685
-86.422
-72.141
-59.97
-52.385
-51.528
-56.545
-65.122
-74.788
-82.923
-88.304
-90.754
-90.432
-88.008
-84.277
-79.912
-75.75
-72.644
-70.972
-70.813
-72.039
-74.289
-77.255
-80.702
-84.359
-87.969
-91.359
-94.386
-96.956
-99.037
-100.581
-101.547
-101.926
-101.713
-100.925
-99.624
-97.885
-95.812
-93.537
-91.163
-88.767
-86.416
-84.159
-82.037
-80.087
-78.314
-76.696
-75.211
-73.838
-72.56
-71.367
-70.226
-69.084
-67.881
-66.54
-65.008
-63.249
-61.231
-58.93
-56.337
-53.451
-50.293
-46.911
-43.339
-39.598
-35.703
-31.657
-27.47
-23.162
-18.751
-14.256
-9.69
-5.065
-0.393
4.312
9.043
13.798
18.587
23.429
28.332
33.297
38.318
43.386
48.489
53.616
58.75
63.87
68.957
73.992
78.957
83.837
88.614
93.266
97.772
102.107
106.248
110.176
113.87
117.312
120.486
123.376
125.97
128.257
130.229
131.877
133.19
134.163
134.789
135.063
134.982
134.544
133.748
132.597
131.092
129.242
127.051
124.529
121.686
118.533
115.082
111.349
107.348
103.095
98.608
93.905
89.006
83.93
78.698
73.332
67.852
62.28
56.638
50.947
45.228
39.502
33.789
28.11
22.484
16.93
11.467
6.111
0.882
-4.206
-9.138
-13.898
-18.474
-22.855
-27.03
-30.99
-34.727
-38.235
-41.509
-44.545
-47.34
-49.893
-52.205
-54.277
-56.111
-57.712
-59.084
-60.233
-61.166
-61.89
-62.415
-62.747
-62.898
-62.876
-62.692
-62.356
-61.881
-61.276
-60.554
-59.726
-58.804
-57.799
-56.724
-55.589
-54.406
-53.185
-51.938
-50.673
-49.4
-48.128
-46.866
-45.62
-44.397
-43.204
-42.046
-40.928
-39.852
-38.824
-37.845
-36.917
-36.042
-35.222
-34.457
-33.748
-33.096
-32.501
-31.963
-31.481
-31.055
-30.684
-30.366
-30.1
-29.885
-29.718
-29.598
-29.523
-29.49
-29.497
-29.543
-29.626
-29.744
-29.894
-30.076
-30.288
-30.528
-30.796
-31.091
-31.411
-31.758
-32.13
-32.527
-32.949
-33.395
-33.864
-34.353
-34.862
-35.386
-35.922
-36.466
-37.016
-37.565
-38.113
-38.653
-39.183
-39.699
-40.199
-40.679
-41.137
-41.567
-41.964
-42.322
-42.636
-42.899
-43.105
-43.247
-43.316
-43.308
-43.219
-43.045
-42.781
-42.42
-41.952
-41.373
-40.681
-39.88
-38.972
-37.966
-36.87
-35.701
-34.483
-33.243
-32.003
-30.78
-29.576
-28.399
-27.258
-26.157
-25.111
-24.116
-23.16
-22.234
-21.333
-20.449
-19.58
-18.701
-17.768
-16.746
-15.607
-14.341
-12.965
-11.495
-9.947
-8.353
-6.744
-5.176
-3.73
-2.463
-1.413
-0.613
-0.077
0.161
0.035
-0.497
-1.465
-2.878
-4.709
-6.928
-9.505
-12.381
-15.484
-18.716
-21.945
-25.079
-28.061
-30.865
-33.515
-36.026
-38.387
-40.602
-42.668
-44.607
-46.487
-48.383
-50.368
-52.54
-54.971
-57.788
-61.229
-65.384
-70.159
-75.266
-80.108
-84.109
-86.904
-88.054
-87.004
-83.514
-77.711
-70.246
-62.572
-56.074
-51.6
-49.931
-51.724
-56.983
-64.949
-73.769
-80.185
-80.838
-72.77
-52.99
-18.818
31.922
98.875
178.218
264.924
353.225
440.76
531.159
624.823
717.437
799.135
848.11
845.585
784.077
663.143
499.554
319.408
145.04
0.651
-98.185
-151.478
-165.236
-154.999
-138.934
-124.727
-114.979
-107.214
-96.126
-82.476
-69.231
-59.05
-55.007
-56.986
-62.887
-70.987
-78.989
-84.907
-88.093
-88.394
-86.075
-81.942
-76.779
-71.215
-66.024
-61.933
-59.262
-58.101
-58.349
-59.71
-61.944
-64.869
-68.259
-71.896
-75.617
-79.262
-82.71
-85.868
-88.621
-90.876
-92.577
-93.688
-94.209
-94.162
-93.577
-92.498
-90.984
-89.086
-86.857
-84.348
-81.607
-78.69
-75.66
-72.575
-69.494
-66.457
-63.49
-60.611
-57.824
-55.125
-52.503
-49.941
-47.417
-44.913
-42.415
-39.91
-37.387
-34.833
-32.231
-29.567
-26.826
-23.997
-21.068
-18.032
-14.879
-11.606
-8.209
-4.686
-1.037
2.738
6.64
10.669
14.826
19.108
23.512
28.035
32.67
37.41
42.246
47.166
52.157
57.206
62.296
67.41
72.531
77.639
82.714
87.737
92.685
97.539
102.276
106.874
111.313
115.57
119.625
123.457
127.046
130.373
133.419
136.168
138.604
140.711
142.478
143.893
144.946
145.628
145.933
145.857
145.395
144.548
143.316
141.703
139.715
137.358
134.643
131.581
128.186
124.471
120.454
116.152
111.583
106.768
101.726
96.48
91.052
85.464
79.74
73.903
67.978
61.987
55.955
49.905
43.859
37.84
31.869
25.968
20.157
14.454
8.88
3.452
-1.814
-6.902
-11.799
-16.492
-20.97
-25.223
-29.245
-33.028
-36.567
-39.86
-42.904
-45.698
-48.243
-50.54
-52.592
-54.402
-55.975
-57.317
-58.435
-59.336
-60.027
-60.518
-60.818
-60.936
-60.881
-60.664
-60.295
-59.785
-59.144
-58.384
-57.516
-56.552
-55.503
-54.379
-53.193
-51.954
-50.673
-49.358
-48.019
-46.665
-45.302
-43.939
-42.582
-41.238
-39.912
-38.611
-37.338
-36.099
-34.896
-33.734
-32.615
-31.542
-30.517
-29.544
-28.623
-27.758
-26.951
-26.203
-25.516
-24.89
-24.327
-23.827
-23.389
-23.013
-22.698
-22.444
-22.248
-22.111
-22.032
-22.008
-22.04
-22.126
-22.265
-22.457
-22.7
-22.993
-23.335
-23.726
-24.164
-24.649
-25.18
-25.756
-26.375
-27.036
-27.736
-28.474
-29.244
-30.041
-30.862
-31.701
-32.553
-33.413
-34.277
-35.138
-35.995
-36.842
-37.678
-38.496
-39.294
-40.065
-40.804
-41.505
-42.162
-42.768
-43.317
-43.801
-44.214
-44.55
-44.804
-44.97
-45.04
-45.003
-44.854
-44.59
-44.212
-43.722
-43.125
-42.431
-41.654
-40.815
-39.932
-39.025
-38.109
-37.196
-36.298
-35.425
-34.588
-33.799
-33.06
-32.368
-31.711
-31.076
-30.444
-29.798
-29.11
-28.346
-27.478
-26.486
-25.357
-24.086
-22.677
-21.143
-19.5
-17.775
-16.006
-14.242
-12.547
-10.993
-9.647
-8.572
-7.829
-7.477
-7.56
-8.105
-9.129
-10.638
-12.619
-15.047
-17.883
-21.07
-24.538
-28.206
-31.972
-35.728
-39.375
-42.833
-46.036
-48.955
-51.596
-53.977
-56.134
-58.097
-59.88
-61.526
-63.122
-64.761
-66.535
-68.551
-70.875
-73.622
-77
-81.04
-85.581
-90.299
-94.631
-98.034
-100.165
-100.507
-98.37
-93.602
-86.467
-77.665
-68.552
-60.142
-53.24
-49.028
-48.49
-51.727
-56.608
-60.102
-60.256
-54.385
-42.662
-24.732
6.857
54.909
120.507
205.384
299.291
396.339
498.201
599.512
697.779
786.191
843.014
850.693
800.006
687.003
526.807
345.75
168.022
20.355
-80.215
-133.808
-147.835
-139.279
-126.435
-116.519
-111.025
-106.176
-96.449
-82.901
-68.944
-57.823
-52.847
-53.945
-59.092
-66.7
-74.597
-80.762
-84.472
-85.485
-83.948
-80.604
-76.186
-71.235
-66.495
-62.751
-60.359
-59.448
-59.954
-61.565
-64.041
-67.21
-70.836
-74.685
-78.579
-82.346
-85.86
-89.041
-91.781
-93.991
-95.624
-96.641
-97.043
-96.857
-96.111
-94.854
-93.143
-91.035
-88.584
-85.845
-82.868
-79.712
-76.441
-73.114
-69.789
-66.51
-63.305
-60.195
-57.189
-54.289
-51.491
-48.781
-46.143
-43.563
-41.03
-38.533
-36.063
-33.606
-31.145
-28.663
-26.145
-23.578
-20.949
-18.246
-15.454
-12.561
-9.56
-6.448
-3.227
0.103
3.54
7.078
10.707
14.409
18.172
21.985
25.839
29.729
33.643
37.569
41.495
45.41
49.307
53.191
57.066
60.939
64.834
68.773
72.788
76.92
81.189
85.603
90.169
94.88
99.735
104.724
109.825
115.009
120.246
125.492
130.696
135.797
140.696
145.291
149.476
153.136
156.185
158.553
160.166
160.963
160.894
159.924
158.044
155.256
151.556
146.942
141.438
135.093
128.007
120.295
112.071
103.454
94.555
85.478
76.348
67.29
58.403
49.764
41.441
33.484
25.971
18.986
12.584
6.79
1.587
-3.06
-7.176
-10.791
-13.945
-16.691
-19.104
-21.271
-23.244
-25.058
-26.748
-28.339
-29.882
-31.44
-33.052
-34.731
-36.48
-38.287
-40.152
-42.076
-44.042
-46.015
-47.951
-49.798
-51.525
-53.123
-54.576
-55.874
-57.001
-57.933
-58.661
-59.193
-59.533
-59.687
-59.661
-59.457
-59.088
-58.58
-57.96
-57.258
-56.496
-55.686
-54.841
-53.974
-53.094
-52.214
-51.337
-50.464
-49.596
-48.74
-47.899
-47.078
-46.28
-45.503
-44.746
-44.006
-43.283
-42.578
-41.889
-41.218
-40.565
-39.931
-39.319
-38.733
-38.173
-37.642
-37.138
-36.663
-36.217
-35.799
-35.411
-35.05
-34.719
-34.417
-34.144
-33.903
-33.693
-33.516
-33.373
-33.263
-33.187
-33.146
-33.139
-33.167
-33.231
-33.329
-33.463
-33.631
-33.834
-34.071
-34.34
-34.642
-34.975
-35.337
-35.727
-36.142
-36.582
-37.042
-37.521
-38.017
-38.526
-39.044
-39.569
-40.096
-40.621
-41.139
-41.645
-42.134
-42.6
-43.037
-43.439
-43.801
-44.116
-44.38
-44.585
-44.729
-44.804
-44.807
-44.733
-44.578
-44.339
-44.014
-43.599
-43.095
-42.499
-41.813
-41.037
-40.174
-39.226
-38.198
-37.094
-35.921
-34.685
-33.394
-32.059
-30.689
-29.292
-27.881
-26.467
-25.061
-23.677
-22.328
-21.026
-19.784
-18.618
-17.541
-16.57
-15.717
-14.991
-14.403
-13.963
-13.68
-13.566
-13.63
-13.878
-14.316
-14.951
-15.783
-16.813
-18.033
-19.421
-20.952
-22.597
-24.325
-26.114
-27.934
-29.756
-31.546
-33.266
-34.881
-36.36
-37.668
-38.777
-39.663
-40.316
-40.743
-40.99
-41.133
-41.258
-41.455
-41.795
-42.327
-43.116
-44.252
-45.835
-47.948
-50.66
-53.992
-58.005
-62.845
-68.514
-74.836
-81.435
-87.707
-93.14
-97.401
-99.985
-100.228
-97.896
-93.13
-86.611
-79.65
-72.959
-67.038
-63.108
-62.089
-64.147
-67.708
-68.602
-63.951
-53.096
-37.144
-19.287
4.192
40.883
95.867
175.526
274.832
381.746
491.329
595.626
691.158
778.36
844.098
871.319
844.059
748.502
588.771
388.517
180.718
1.188
-123.476
-187.945
-202.234
-183.645
-150.913
-113.705
-77.089
-47.336
-28.663
-25.682
-38.016
-56.382
-72.59
-81.438
-82.215
-81.043
-81.85
-84.67
-88.449
-90.233
-88.746
-85.041
-80.142
-75.058
-70.582
-67.07
-64.726
-63.702
-63.903
-65.057
-66.971
-69.507
-72.523
-75.872
-79.406
-82.97
-86.437
-89.72
-92.709
-95.281
-97.353
-98.871
-99.815
-100.2
-100.051
-99.397
-98.278
-96.749
-94.856
-92.649
-90.178
-87.49
-84.642
-81.695
-78.704
-75.723
-72.79
-69.927
-67.146
-64.448
-61.824
-59.265
-56.753
-54.267
-51.792
-49.313
-46.817
-44.292
-41.722
-39.093
-36.388
-33.593
-30.694
-27.681
-24.545
-21.279
-17.877
-14.338
-10.658
-6.838
-2.878
1.222
5.462
9.841
14.356
19.003
23.777
28.671
33.676
38.782
43.975
49.242
54.566
59.93
65.315
70.702
76.069
81.395
86.658
91.833
96.898
101.829
106.602
111.193
115.578
119.734
123.639
127.272
130.613
133.643
136.345
138.704
140.704
142.335
143.585
144.445
144.909
144.972
144.63
143.884
142.733
141.183
139.239
136.909
134.204
131.135
127.718
123.967
119.902
115.541
110.904
106.014
100.893
95.566
90.058
84.395
78.601
72.704
66.73
60.706
54.656
48.607
42.582
36.607
30.703
24.893
19.199
13.639
8.234
2.999
-2.048
-6.894
-11.525
-15.93
-20.1
-24.026
-27.702
-31.125
-34.289
-37.195
-39.841
-42.23
-44.364
-46.248
-47.886
-49.285
-50.454
-51.401
-52.136
-52.669
-53.012
-53.175
-53.172
-53.013
-52.713
-52.282
-51.735
-51.083
-50.338
-49.512
-48.618
-47.666
-46.668
-45.632
-44.569
-43.488
-42.396
-41.302
-40.211
-39.131
-38.065
-37.02
-35.999
-35.006
-34.043
-33.112
-32.216
-31.356
-30.531
-29.742
-28.989
-28.271
-27.587
-26.935
-26.315
-25.723
-25.16
-24.621
-24.107
-23.615
-23.143
-22.691
-22.256
-21.838
-21.437
-21.051
-20.682
-20.33
-19.995
-19.678
-19.381
-19.106
-18.854
-18.627
-18.428
-18.259
-18.121
-18.018
-17.951
-17.923
-17.935
-17.99
-18.089
-18.233
-18.424
-18.664
-18.953
-19.291
-19.68
-20.119
-20.607
-21.143
-21.727
-22.355
-23.024
-23.732
-24.474
-25.246
-26.042
-26.856
-27.684
-28.517
-29.348
-30.171
-30.978
-31.76
-32.51
-33.219
-33.879
-34.483
-35.025
-35.496
-35.89
-36.203
-36.427
-36.559
-36.595
-36.532
-36.365
-36.094
-35.718
-35.237
-34.65
-33.962
-33.174
-32.293
-31.325
-30.278
-29.161
-27.985
-26.762
-25.504
-24.224
-22.936
-21.653
-20.389
-19.157
-17.972
-16.848
-15.801
-14.846
-13.999
-13.273
-12.682
-12.235
-11.94
-11.804
-11.829
-12.022
-12.391
-12.945
-13.689
-14.632
-15.778
-17.129
-18.681
-20.416
-22.308
-24.327
-26.439
-28.611
-30.818
-33.026
-35.202
-37.312
-39.311
-41.155
-42.806
-44.219
-45.356
-46.186
-46.697
-46.925
-46.935
-46.8
-46.592
-46.364
-46.172
-46.111
-46.282
-46.788
-47.738
-49.194
-51.246
-54.089
-57.789
-62.257
-67.25
-72.22
-76.584
-79.947
-81.814
-81.539
-78.849
-73.849
-67.102
-60.006
-53.95
-49.806
-48.511
-51
-57.392
-66.886
-77.737
-86.73
-90.172
-84.873
-67.586
-34.709
15.258
80.504
158.402
244.616
336.064
435.477
543.785
655.241
758.881
834.987
862.793
834.439
751.562
624.227
471.02
307.235
147.365
9.769
-91.97
-150.787
-167.983
-158.018
-138.677
-120.784
-109.115
-100.87
-90.47
-78.015
-65.883
-56.892
-54.315
-57.97
-65.728
-75.815
-85.801
-93.669
-98.773
-100.91
-100.325
-97.806
-94.087
-89.786
-85.663
-82.399
-80.281
-79.344
-79.44
-80.259
-81.557
-83.163
-84.88
-86.517
-87.934
-89.029
-89.743
-90.068
-89.984
-89.449
-88.453
-87.009
-85.169
-83.032
-80.69
-78.215
-75.673
-73.111
-70.57
-68.1
-65.746
-63.536
-61.488
-59.602
-57.863
-56.268
-54.806
-53.459
-52.187
-50.931
-49.641
-48.296
-46.899
-45.466
-44.004
-42.503
-40.952
-39.342
-37.667
-35.925
-34.107
-32.198
-30.186
-28.061
-25.823
-23.479
-21.013
-18.391
-15.559
-12.446
-9.012
-5.231
-1.088
3.412
8.256
13.414
18.837
24.475
30.295
36.267
42.369
48.574
54.836
61.101
67.305
73.371
79.233
84.836
90.13
95.096
99.737
104.067
108.121
111.924
115.476
118.771
121.8
124.557
127.053
129.291
131.276
133.032
134.588
135.983
137.244
138.375
139.346
140.12
140.659
140.925
140.906
140.589
139.956
138.992
137.675
135.981
133.897
131.398
128.437
124.963
120.932
116.318
111.14
105.424
99.2
92.512
85.397
77.899
70.083
62.012
53.76
45.416
37.058
28.763
20.63
12.758
5.246
-1.811
-8.357
-14.354
-19.768
-24.59
-28.815
-32.442
-35.5
-38.029
-40.076
-41.712
-42.997
-43.975
-44.708
-45.252
-45.67
-46.035
-46.39
-46.765
-47.186
-47.664
-48.208
-48.827
-49.51
-50.23
-50.958
-51.649
-52.272
-52.814
-53.256
-53.585
-53.784
-53.833
-53.722
-53.458
-53.044
-52.484
-51.787
-50.955
-50.005
-48.96
-47.848
-46.696
-45.529
-44.358
-43.199
-42.061
-40.953
-39.886
-38.863
-37.882
-36.946
-36.056
-35.215
-34.427
-33.692
-33.008
-32.371
-31.777
-31.225
-30.712
-30.238
-29.8
-29.399
-29.033
-28.705
-28.416
-28.166
-27.957
-27.785
-27.651
-27.554
-27.491
-27.463
-27.466
-27.5
-27.563
-27.656
-27.777
-27.927
-28.105
-28.31
-28.542
-28.799
-29.081
-29.387
-29.717
-30.07
-30.445
-30.844
-31.264
-31.706
-32.169
-32.654
-33.159
-33.682
-34.223
-34.779
-35.348
-35.929
-36.517
-37.109
-37.703
-38.295
-38.882
-39.461
-40.029
-40.582
-41.119
-41.636
-42.131
-42.599
-43.035
-43.436
-43.796
-44.112
-44.378
-44.587
-44.735
-44.814
-44.824
-44.76
-44.615
-44.383
-44.054
-43.623
-43.093
-42.467
-41.749
-40.95
-40.081
-39.161
-38.218
-37.276
-36.354
-35.468
-34.625
-33.839
-33.129
-32.51
-31.997
-31.593
-31.292
-31.086
-30.962
-30.899
-30.86
-30.796
-30.644
-30.358
-29.909
-29.28
-28.464
-27.453
-26.232
-24.808
-23.199
-21.435
-19.554
-17.596
-15.6
-13.629
-11.772
-10.126
-8.798
-7.865
-7.372
-7.348
-7.813
-8.785
-10.271
-12.249
-14.674
-17.494
-20.661
-24.142
-27.904
-31.9
-36.062
-40.314
-44.583
-48.8
-52.936
-56.992
-60.98
-64.923
-68.856
-72.809
-76.858
-81.166
-85.769
-90.539
-95.184
-99.172
-101.996
-103.335
-102.804
-99.892
-94.385
-86.466
-76.869
-67.115
-58.693
-52.561
-49.576
-50.481
-55.399
-63.633
-73.277
-80.938
-83.033
-76.386
-57.919
-24.903
24.985
91.74
171.807
260.18
351.166
441.636
533.813
627.727
717.733
794.077
839.08
835.951
780.37
673.452
524.279
353.963
179.765
21.797
-96.52
-170.089
-199.587
-193.446
-172.209
-143.05
-111.194
-83.435
-58.656
-44.192
-43.913
-51.569
-64.094
-74.751
-79.438
-82.487
-85.447
-88.868
-93.028
-95.092
-94.02
-90.722
-85.907
-80.691
-75.975
-72.08
-69.195
-67.456
-66.764
-66.835
-67.468
-68.514
-69.824
-71.308
-72.885
-74.436
-75.878
-77.161
-78.219
-79.002
-79.51
-79.751
-79.748
-79.536
-79.145
-78.609
-77.962
-77.229
-76.403
-75.46
-74.386
-73.185
-71.882
-70.504
-69.069
-67.573
-65.991
-64.3
-62.482
-60.52
-58.396
-56.088
-53.582
-50.882
-48.017
-45.033
-41.963
-38.829
-35.634
-32.381
-29.074
-25.726
-22.349
-18.944
-15.508
-12.041
-8.544
-5.022
-1.479
2.093
5.715
9.413
13.21
17.117
21.136
25.265
29.503
33.847
38.286
42.794
47.338
51.888
56.421
60.925
65.392
69.808
74.157
78.419
82.581
86.639
90.597
94.454
98.203
101.84
105.37
108.81
112.201
115.573
118.935
122.281
125.596
128.866
132.083
135.23
138.269
141.139
143.778
146.13
148.154
149.806
151.03
151.756
151.897
151.382
150.174
148.254
145.607
142.217
138.064
133.143
127.496
121.202
114.335
106.977
99.196
91.073
82.719
74.246
65.773
57.396
49.183
41.19
33.485
26.139
19.227
12.816
6.924
1.538
-3.346
-7.752
-11.703
-15.237
-18.429
-21.348
-24.05
-26.572
-28.933
-31.148
-33.25
-35.272
-37.25
-39.222
-41.202
-43.189
-45.191
-47.198
-49.194
-51.151
-53.017
-54.744
-56.31
-57.699
-58.908
-59.94
-60.787
-61.444
-61.913
-62.188
-62.269
-62.159
-61.857
-61.371
-60.718
-59.919
-59.008
-58.015
-56.96
-55.86
-54.726
-53.569
-52.397
-51.22
-50.04
-48.862
-47.695
-46.546
-45.427
-44.344
-43.301
-42.302
-41.346
-40.432
-39.561
-38.734
-37.95
-37.211
-36.518
-35.871
-35.275
-34.73
-34.236
-33.793
-33.399
-33.051
-32.749
-32.489
-32.27
-32.088
-31.942
-31.831
-31.753
-31.706
-31.688
-31.698
-31.733
-31.791
-31.869
-31.967
-32.082
-32.212
-32.356
-32.512
-32.681
-32.859
-33.048
-33.245
-33.45
-33.664
-33.885
-34.115
-34.354
-34.602
-34.862
-35.133
-35.417
-35.715
-36.028
-36.354
-36.694
-37.047
-37.411
-37.784
-38.164
-38.549
-38.938
-39.327
-39.716
-40.101
-40.482
-40.857
-41.221
-41.571
-41.903
-42.211
-42.49
-42.732
-42.932
-43.085
-43.186
-43.229
-43.212
-43.132
-42.984
-42.766
-42.47
-42.088
-41.615
-41.049
-40.392
-39.651
-38.836
-37.963
-37.049
-36.116
-35.179
-34.25
-33.334
-32.427
-31.527
-30.629
-29.736
-28.858
-28.006
-27.186
-26.403
-25.659
-24.947
-24.251
-23.549
-22.808
-22.009
-21.147
-20.235
-19.306
-18.404
-17.577
-16.865
-16.296
-15.894
-15.675
-15.647
-15.803
-16.147
-16.685
-17.439
-18.445
-19.72
-21.26
-23.033
-24.982
-27.033
-29.104
-31.118
-33.003
-34.709
-36.202
-37.485
-38.617
-39.66
-40.675
-41.704
-42.744
-43.821
-45.003
-46.388
-48.078
-50.163
-52.709
-55.802
-59.64
-64.315
-69.731
-75.575
-81.282
-86.316
-90.283
-92.714
-92.964
-90.627
-85.751
-78.927
-71.367
-64.093
-57.997
-54.323
-54.103
-57.908
-64.19
-68.982
-69.733
-64.862
-54.682
-42.137
-22.563
12.076
66.526
147.673
250.873
363.794
482.758
599.936
708.571
805.677
873.104
891.412
850.88
745.271
586.644
402.25
217.175
59.001
-52.228
-114.779
-134.481
-127.529
-114.206
-103.51
-98.428
-95.813
-88.794
-77.576
-65.371
-55.433
-51.807
-54.784
-62.129
-72.129
-82.436
-90.844
-96.597
-99.367
-99.189
-96.798
-92.972
-88.347
-83.757
-80.058
-77.653
-76.675
-77.068
-78.51
-80.726
-83.516
-86.612
-89.748
-92.726
-95.383
-97.589
-99.279
-100.359
-100.727
-100.345
-99.207
-97.352
-94.881
-91.897
-88.518
-84.887
-81.135
-77.379
-73.728
-70.269
-67.079
-64.233
-61.781
-59.763
-58.21
-57.113
-56.441
-56.137
-56.102
-56.241
-56.456
-56.636
-56.687
-56.534
-56.107
-55.357
-54.25
-52.757
-50.864
-48.567
-45.862
-42.76
-39.282
-35.46
-31.349
-27.001
-22.462
-17.786
-13.019
-8.199
-3.367
1.454
6.257
11.039
15.808
20.576
25.353
30.147
34.962
39.802
44.681
49.61
54.595
59.65
64.792
70.036
75.407
80.909
86.528
92.235
97.981
103.71
109.355
114.861
120.181
125.273
130.097
134.614
138.786
142.567
145.906
148.743
151.009
152.654
153.646
153.978
153.666
152.749
151.279
149.306
146.868
144.003
140.737
137.1
133.119
128.828
124.267
119.486
114.55
109.515
104.428
99.319
94.198
89.062
83.895
78.682
73.417
68.1
62.738
57.346
51.939
46.533
41.147
35.793
30.47
25.183
19.934
14.736
9.607
4.573
-0.335
-5.088
-9.66
-14.028
-18.177
-22.096
-25.778
-29.22
-32.424
-35.389
-38.114
-40.597
-42.837
-44.836
-46.596
-48.126
-49.431
-50.524
-51.413
-52.111
-52.627
-52.972
-53.155
-53.184
-53.068
-52.815
-52.432
-51.929
-51.317
-50.606
-49.805
-48.925
-47.977
-46.971
-45.917
-44.823
-43.699
-42.552
-41.389
-40.218
-39.046
-37.879
-36.722
-35.581
-34.46
-33.363
-32.295
-31.258
-30.255
-29.288
-28.358
-27.466
-26.614
-25.803
-25.032
-24.303
-23.616
-22.972
-22.371
-21.814
-21.3
-20.829
-20.402
-20.018
-19.676
-19.377
-19.12
-18.905
-18.731
-18.6
-18.51
-18.463
-18.457
-18.494
-18.574
-18.697
-18.864
-19.075
-19.33
-19.631
-19.977
-20.37
-20.809
-21.295
-21.827
-22.405
-23.029
-23.698
-24.409
-25.162
-25.953
-26.782
-27.645
-28.539
-29.461
-30.407
-31.373
-32.354
-33.345
-34.342
-35.339
-36.33
-37.309
-38.27
-39.207
-40.113
-40.982
-41.806
-42.578
-43.291
-43.938
-44.511
-45.004
-45.409
-45.72
-45.931
-46.036
-46.031
-45.911
-45.672
-45.311
-44.826
-44.215
-43.478
-42.615
-41.627
-40.517
-39.288
-37.945
-36.495
-34.945
-33.301
-31.575
-29.775
-27.914
-26.003
-24.055
-22.083
-20.101
-18.122
-16.162
-14.238
-12.363
-10.552
-8.822
-7.189
-5.67
-4.282
-3.04
-1.953
-1.034
-0.292
0.262
0.615
0.759
0.69
0.401
-0.112
-0.853
-1.821
-3.007
-4.388
-5.935
-7.615
-9.4
-11.263
-13.173
-15.097
-17
-18.843
-20.592
-22.217
-23.685
-24.963
-26.022
-26.849
-27.447
-27.863
-28.177
-28.469
-28.824
-29.312
-29.978
-30.888
-32.134
-33.8
-35.976
-38.748
-42.137
-46.235
-51.205
-57.034
-63.551
-70.379
-76.815
-82.22
-86.176
-88.111
-87.409
-83.938
-77.868
-69.993
-61.972
-55.153
-50.375
-48.607
-50.489
-55.622
-62.93
-70.08
-73.281
-69.016
-54.19
-25.561
19.677
81.626
157.53
243.338
333.007
423.525
517.658
614.939
710.736
795.767
849.568
854.129
802.444
693.527
541.69
370.982
202.33
59.283
-41.088
-96.957
-113.053
-104.24
-89.609
-78.081
-72.939
-71.7
-67.964
-61.409
-54.434
-49.484
-49.841
-55.549
-64.48
-74.979
-84.88
-92.363
-96.932
-98.455
-97.153
-93.801
-89.168
-83.91
-78.837
-74.691
-71.814
-70.334
-70.186
-71.111
-72.904
-75.382
-78.306
-81.432
-84.563
-87.538
-90.236
-92.563
-94.405
-95.638
-96.155
-95.883
-94.801
-92.926
-90.31
-87.032
-83.185
-78.885
-74.262
-69.453
-64.586
-59.777
-55.14
-50.779
-46.784
-43.237
-40.21
-37.755
-35.913
-34.694
-34.072
-33.994
-34.383
-35.155
-36.216
-37.463
-38.795
-40.105
-41.286
-42.23
-42.856
-43.087
-42.854
-42.091
-40.72
-38.682
-35.955
-32.541
-28.463
-23.754
-18.446
-12.587
-6.245
0.5
7.557
14.827
22.237
29.72
37.208
44.632
51.907
58.959
65.741
72.221
78.377
84.192
89.647
94.733
99.464
103.867
107.974
111.826
115.44
118.828
122.003
124.974
127.756
130.359
132.777
134.997
137.013
138.814
140.393
141.739
142.823
143.618
144.099
144.242
144.032
143.467
142.539
141.259
139.645
137.716
135.498
133.014
130.268
127.271
124.034
120.567
116.888
113.005
108.912
104.612
100.109
95.402
90.496
85.373
79.996
74.34
68.385
62.133
55.611
48.845
41.861
34.702
27.414
20.066
12.748
5.534
-1.519
-8.352
-14.909
-21.115
-26.867
-32.086
-36.712
-40.707
-44.059
-46.764
-48.815
-50.235
-51.068
-51.38
-51.264
-50.791
-50.007
-48.968
-47.721
-46.331
-44.887
-43.454
-42.079
-40.801
-39.642
-38.624
-37.774
-37.089
-36.548
-36.118
-35.749
-35.41
-35.089
-34.774
-34.455
-34.116
-33.734
-33.299
-32.813
-32.277
-31.694
-31.064
-30.384
-29.664
-28.927
-28.194
-27.495
-26.847
-26.259
-25.739
-25.295
-24.928
-24.644
-24.441
-24.309
-24.243
-24.242
-24.301
-24.422
-24.598
-24.823
-25.09
-25.389
-25.717
-26.067
-26.436
-26.818
-27.21
-27.61
-28.017
-28.432
-28.855
-29.284
-29.718
-30.158
-30.6
-31.047
-31.496
-31.946
-32.399
-32.853
-33.31
-33.77
-34.235
-34.704
-35.181
-35.665
-36.158
-36.66
-37.172
-37.694
-38.226
-38.767
-39.316
-39.874
-40.439
-41.009
-41.584
-42.162
-42.741
-43.32
-43.894
-44.462
-45.02
-45.563
-46.088
-46.588
-47.059
-47.497
-47.896
-48.253
-48.563
-48.822
-49.029
-49.18
-49.272
-49.301
-49.264
-49.155
-48.969
-48.704
-48.354
-47.917
-47.391
-46.775
-46.072
-45.285
-44.419
-43.476
-42.459
-41.368
-40.205
-38.979
-37.698
-36.375
-35.027
-33.672
-32.34
-31.059
-29.853
-28.738
-27.727
-26.82
-26.021
-25.331
-24.75
-24.287
-23.949
-23.734
-23.646
-23.684
-23.834
-24.078
-24.383
-24.704
-25.014
-25.301
-25.556
-25.799
-26.048
-26.319
-26.638
-27.011
-27.437
-27.919
-28.454
-29.032
-29.664
-30.359
-31.138
-32.044
-33.098
-34.302
-35.652
-37.118
-38.668
-40.274
-41.921
-43.627
-45.426
-47.356
-49.451
-51.725
-54.201
-56.923
-59.927
-63.231
-66.873
-70.853
-75.223
-80.14
-85.602
-91.456
-97.405
-102.86
-107.253
-110.228
-111.253
-109.656
-105.337
-98.555
-90.008
-81.302
-73.743
-68.051
-65.413
-66.932
-72.403
-80.826
-90.21
-96.931
-97.688
-89.766
-69.433
-32.796
20.922
89.174
168.309
252.779
340.426
435.834
539.682
645.449
741.102
804.431
814.224
764.236
656.808
503.73
327.837
147.79
-18.693
-151.034
-240.013
-283.025
-283.738
-257.462
-216.867
-172.61
-135.24
-108.333
-96.084
-98.564
-108.416
-120.72
-129.747
-133.058
-135.003
-137.304
-140.392
-144.073
-145.455
-143.527
-139.079
-132.839
-125.991
-119.503
-113.787
-109.077
-105.512
-102.986
-101.226
-100.055
-99.343
-98.945
-98.76
-98.729
-98.772
-98.858
-99.013
-99.196
-99.346
-99.432
-99.425
-99.332
-99.192
-99.022
-98.837
-98.661
-98.504
-98.366
-98.233
-98.058
-97.801
-97.433
-96.92
-96.252
-95.428
-94.435
-93.263
-91.902
-90.332
-88.544
-86.531
-84.279
-81.784
-79.054
-76.11
-72.996
-69.75
-66.397
-62.965
-59.466
-55.907
-52.297
-48.637
-44.918
-41.135
-37.28
-33.346
-29.332
-25.233
-21.038
-16.735
-12.303
-7.726
-2.997
1.889
6.932
12.128
17.472
22.95
28.543
34.231
39.995
45.814
51.669
57.54
63.403
69.231
75
80.684
86.258
91.697
96.977
102.072
106.959
111.616
116.023
120.158
124.002
127.534
130.736
133.589
136.078
138.187
139.903
141.214
142.11
142.582
142.626
142.237
141.414
140.157
138.47
136.356
133.824
130.882
127.541
123.815
119.719
115.269
110.485
105.386
99.993
94.329
88.418
82.285
75.954
69.454
62.809
56.048
49.196
42.283
35.334
28.377
21.439
14.545
7.723
0.996
-5.611
-12.075
-18.373
-24.485
-30.39
-36.071
-41.51
-46.692
-51.603
-56.232
-60.567
-64.601
-68.326
-71.738
-74.833
-77.61
-80.07
-82.213
-84.044
-85.567
-86.789
-87.718
-88.36
-88.728
-88.83
-88.679
-88.286
-87.666
-86.831
-85.797
-84.577
-83.187
-81.642
-79.958
-78.151
-76.236
-74.229
-72.146
-70.002
-67.812
-65.591
-63.353
-61.111
-58.877
-56.665
-54.484
-52.344
-50.256
-48.226
-46.263
-44.372
-42.559
-40.829
-39.185
-37.63
-36.166
-34.796
-33.519
-32.336
-31.245
-30.247
-29.338
-28.518
-27.783
-27.13
-26.555
-26.056
-25.628
-25.266
-24.965
-24.721
-24.528
-24.38
-24.271
-24.196
-24.149
-24.125
-24.119
-24.126
-24.141
-24.161
-24.181
-24.198
-24.209
-24.211
-24.201
-24.176
-24.135
-24.075
-23.995
-23.894
-23.772
-23.627
-23.458
-23.266
-23.048
-22.805
-22.534
-22.236
-21.908
-21.55
-21.161
-20.74
-20.289
-19.806
-19.294
-18.754
-18.187
-17.595
-16.98
-16.34
-15.676
-14.986
-14.269
-13.521
-12.741
-11.929
-11.082
-10.202
-9.288
-8.343
-7.368
-6.365
-5.33
-4.261
-3.156
-2.018
-0.853
0.329
1.513
2.681
3.813
4.886
5.883
6.793
7.611
8.343
8.995
9.574
10.079
10.505
10.844
11.093
11.252
11.322
11.319
11.266
11.193
11.14
11.134
11.184
11.281
11.396
11.493
11.527
11.46
11.272
10.946
10.479
9.882
9.163
8.321
7.345
6.207
4.868
3.311
1.538
-0.42
-2.504
-4.646
-6.76
-8.766
-10.604
-12.232
-13.652
-14.92
-16.096
-17.24
-18.39
-19.537
-20.681
-21.872
-23.168
-24.662
-26.472
-28.662
-31.364
-34.806
-39.027
-43.907
-49.125
-54.013
-57.961
-60.617
-61.481
-59.969
-56.045
-49.986
-42.565
-35.461
-29.954
-26.68
-26.591
-30.439
-37.811
-47.635
-57.67
-64.044
-63.616
-53.866
-31.418
6.671
62.078
133.703
216.604
304.566
391.448
476.508
563.655
650.478
732.198
796.071
818.154
786.948
698.597
556.3
384.03
204.3
37.222
-93.521
-179.788
-222.323
-226.055
-204.438
-167.898
-123.129
-77.907
-40.601
-19.378
-18.389
-34.184
-56.234
-73.915
-81.931
-81.323
-77.672
-75.032
-74.11
-73.566
-71.051
-65.913
-59.103
-51.622
-44.52
-38.444
-33.426
-29.486
-26.601
-24.535
-23.126
-22.298
-21.951
-22.021
-22.481
-23.257
-24.268
-25.483
-26.834
-28.243
-29.66
-31.03
-32.326
-33.551
-34.697
-35.748
-36.684
-37.462
-38.043
-38.397
-38.485
-38.291
-37.819
-37.073
-36.074
-34.847
-33.407
-31.769
-29.946
-27.938
-25.753
-23.405
-20.915
-18.322
-15.659
-12.951
-10.228
-7.505
-4.789
-2.085
0.611
3.314
6.033
8.781
11.571
14.408
17.302
20.268
23.321
26.484
29.775
33.206
36.787
40.523
44.416
48.466
52.667
57.006
61.473
66.053
70.735
75.505
80.35
85.251
90.189
95.145
100.097
105.025
109.907
114.724
119.452
124.071
128.559
132.897
137.064
141.04
144.802
148.33
151.604
154.605
157.313
159.713
161.787
163.522
164.905
165.924
166.572
166.839
166.72
166.212
165.312
164.02
162.337
160.269
157.82
154.998
151.813
148.276
144.401
140.202
135.694
130.896
125.827
120.507
114.957
109.201
103.26
97.16
90.925
84.58
78.15
71.66
65.137
58.604
52.086
45.607
39.191
32.861
26.637
20.541
14.592
8.809
3.209
-2.193
-7.38
-12.341
-17.064
-21.539
-25.758
-29.713
-33.4
-36.815
-39.955
-42.82
-45.411
-47.73
-49.78
-51.568
-53.099
-54.38
-55.42
-56.228
-56.816
-57.193
-57.372
-57.364
-57.183
-56.84
-56.35
-55.724
-54.978
-54.123
-53.173
-52.141
-51.039
-49.881
-48.677
-47.439
-46.178
-44.904
-43.626
-42.354
-41.096
-39.859
-38.651
-37.477
-36.343
-35.254
-34.213
-33.226
-32.293
-31.418
-30.602
-29.845
-29.148
-28.511
-27.934
-27.416
-26.956
-26.553
-26.206
-25.912
-25.67
-25.477
-25.332
-25.232
-25.174
-25.157
-25.177
-25.234
-25.325
-25.449
-25.603
-25.786
-25.998
-26.236
-26.499
-26.786
-27.096
-27.427
-27.778
-28.149
-28.538
-28.944
-29.367
-29.806
-30.26
-30.729
-31.211
-31.706
-32.213
-32.73
-33.256
-33.791
-34.333
-34.881
-35.433
-35.989
-36.547
-37.107
-37.665
-38.221
-38.771
-39.313
-39.844
-40.36
-40.857
-41.331
-41.778
-42.196
-42.581
-42.931
-43.243
-43.515
-43.747
-43.937
-44.082
-44.181
-44.228
-44.222
-44.158
-44.034
-43.846
-43.59
-43.264
-42.868
-42.404
-41.873
-41.273
-40.604
-39.86
-39.041
-38.153
-37.202
-36.193
-35.138
-34.051
-32.955
-31.88
-30.85
-29.881
-28.983
-28.155
-27.402
-26.726
-26.132
-25.618
-25.184
-24.822
-24.531
-24.317
-24.174
-24.088
-24.027
-23.939
-23.792
-23.575
-23.288
-22.947
-22.573
-22.182
-21.813
-21.514
-21.33
-21.298
-21.437
-21.739
-22.207
-22.855
-23.713
-24.835
-26.248
-27.946
-29.914
-32.12
-34.521
-37.07
-39.694
-42.289
-44.772
-47.079
-49.179
-51.102
-52.891
-54.575
-56.185
-57.726
-59.19
-60.621
-62.089
-63.659
-65.422
-67.465
-69.841
-72.7
-76.254
-80.526
-85.383
-90.472
-95.137
-98.808
-101.13
-101.584
-99.591
-95.035
-88.111
-79.638
-71.263
-64.292
-59.513
-57.87
-60.018
-65.598
-73.529
-81.487
-85.752
-82.89
-69.946
-43.672
-1.083
57.684
129.515
210.54
294.967
381.637
474.965
572.695
667.624
745.658
784.201
771.199
707.052
599.449
464.702
318.081
170.633
36.144
-69.724
-137.886
-166.179
-163.065
-147.142
-130.915
-119.853
-113.562
-105.628
-94.767
-83.512
-74.349
-70.745
-73.072
-79.201
-87.45
-95.704
-102.026
-105.767
-106.708
-104.994
-101.363
-96.573
-91.246
-86.131
-81.953
-79.055
-77.558
-77.402
-78.327
-80.12
-82.616
-85.602
-88.865
-92.237
-95.58
-98.785
-101.775
-104.451
-106.705
-108.466
-109.689
-110.361
-110.5
-110.127
-109.275
-107.987
-106.317
-104.316
-102.037
-99.531
-96.846
-94.034
-91.15
-88.244
-85.363
-82.538
-79.79
-77.126
-74.544
-72.037
-69.593
-67.195
-64.825
-62.466
-60.104
-57.726
-55.32
-52.873
-50.37
-47.797
-45.14
-42.39
-39.535
-36.569
-33.484
-30.277
-26.944
-23.484
-19.896
-16.179
-12.332
-8.356
-4.25
-0.016
4.341
8.818
13.408
18.104
22.894
27.768
32.713
37.715
42.757
47.824
52.898
57.961
62.993
67.976
72.888
77.71
82.421
87.001
91.428
95.682
99.744
103.593
107.211
110.58
113.682
116.502
119.024
121.235
123.122
124.674
125.882
126.737
127.234
127.368
127.136
126.539
125.577
124.255
122.577
120.552
118.189
115.499
112.494
109.188
105.598
101.741
97.633
93.294
88.744
84.004
79.095
74.038
68.858
63.575
58.213
52.795
47.344
41.882
36.432
31.014
25.651
20.363
15.169
10.089
5.14
0.339
-4.3
-8.761
-13.032
-17.102
-20.963
-24.605
-28.023
-31.211
-34.167
-36.889
-39.375
-41.628
-43.648
-45.44
-47.007
-48.354
-49.489
-50.419
-51.151
-51.695
-52.061
-52.258
-52.297
-52.19
-51.949
-51.584
-51.107
-50.531
-49.868
-49.129
-48.325
-47.469
-46.571
-45.641
-44.689
-43.724
-42.756
-41.791
-40.836
-39.899
-38.983
-38.095
-37.237
-36.414
-35.628
-34.882
-34.176
-33.513
-32.893
-32.315
-31.78
-31.287
-30.835
-30.421
-30.044
-29.703
-29.394
-29.115
-28.864
-28.638
-28.434
-28.249
-28.081
-27.926
-27.783
-27.649
-27.52
-27.396
-27.273
-27.152
-27.029
-26.906
-26.78
-26.652
-26.521
-26.39
-26.257
-26.124
-25.991
-25.861
-25.734
-25.612
-25.495
-25.387
-25.289
-25.202
-25.128
-25.071
-25.03
-25.009
-25.01
-25.033
-25.08
-25.154
-25.256
-25.387
-25.549
-25.743
-25.969
-26.231
-26.527
-26.857
-27.223
-27.623
-28.056
-28.521
-29.014
-29.534
-30.076
-30.637
-31.215
-31.804
-32.401
-33.003
-33.606
-34.205
-34.798
-35.381
-35.948
-36.494
-37.013
-37.5
-37.948
-38.351
-38.701
-38.992
-39.217
-39.372
-39.45
-39.448
-39.358
-39.171
-38.884
-38.495
-38.007
-37.426
-36.758
-36.014
-35.211
-34.37
-33.512
-32.657
-31.823
-31.019
-30.258
-29.549
-28.902
-28.33
-27.837
-27.415
-27.054
-26.739
-26.453
-26.177
-25.882
-25.524
-25.07
-24.493
-23.775
-22.916
-21.916
-20.784
-19.535
-18.189
-16.782
-15.364
-13.989
-12.709
-11.573
-10.623
-9.914
-9.514
-9.476
-9.835
-10.608
-11.787
-13.363
-15.313
-17.602
-20.179
-22.972
-25.909
-28.917
-31.943
-34.966
-37.973
-40.946
-43.856
-46.669
-49.379
-52.027
-54.674
-57.39
-60.246
-63.285
-66.603
-70.384
-74.699
-79.474
-84.453
-89.09
-92.852
-95.391
-96.288
-95.024
-91.352
-85.334
-77.55
-69.399
-62.233
-56.919
-54.236
-54.834
-58.822
-65.628
-73.574
-79.398
-79.589
-71.3
-51.67
-18.009
31.739
98.916
181.339
272.628
366.619
457.063
542.94
629.348
714.367
792.878
852.079
867.634
828.223
731.347
581.262
402.192
215.396
39.255
-100.733
-191.911
-229.034
-212.951
-163.208
-103.744
-54.91
-31.402
-33.123
-49.577
-67.947
-78.54
-79.129
-73.96
-69.606
-69.713
-73.834
-79.168
-82.384
-82.243
-79.347
-74.706
-69.436
-64.205
-59.465
-55.806
-53.556
-52.759
-53.289
-54.89
-57.37
-60.59
-64.357
-68.449
-72.658
-76.806
-80.762
-84.417
-87.64
-90.323
-92.402
-93.838
-94.634
-94.816
-94.412
-93.469
-92.043
-90.191
-87.969
-85.433
-82.639
-79.652
-76.541
-73.371
-70.207
-67.094
-64.062
-61.133
-58.313
-55.6
-52.987
-50.458
-47.995
-45.583
-43.211
-40.868
-38.544
-36.225
-33.898
-31.547
-29.159
-26.72
-24.22
-21.649
-18.999
-16.265
-13.441
-10.525
-7.514
-4.406
-1.195
2.121
5.546
9.082
12.731
16.493
20.368
24.354
28.445
32.638
36.923
41.293
45.737
50.246
54.806
59.404
64.024
68.653
73.272
77.864
82.411
86.893
91.292
95.587
99.759
103.786
107.651
111.333
114.815
118.078
121.104
123.879
126.386
128.611
130.54
132.163
133.467
134.444
135.085
135.385
135.338
134.943
134.199
133.106
131.667
129.887
127.772
125.33
122.57
119.505
116.146
112.509
108.61
104.465
100.092
95.511
90.743
85.806
80.723
75.514
70.201
64.805
59.349
53.853
48.338
42.825
37.335
31.887
26.5
21.193
15.984
10.889
5.924
1.104
-3.557
-8.046
-12.354
-16.469
-20.384
-24.091
-27.585
-30.861
-33.918
-36.753
-39.366
-41.76
-43.937
-45.899
-47.652
-49.202
-50.554
-51.715
-52.694
-53.498
-54.135
-54.616
-54.949
-55.143
-55.209
-55.155
-54.992
-54.73
-54.378
-53.947
-53.445
-52.883
-52.27
-51.615
-50.926
-50.211
-49.478
-48.734
-47.984
-47.236
-46.493
-45.761
-45.042
-44.34
-43.658
-42.998
-42.361
-41.749
-41.162
-40.601
-40.066
-39.557
-39.073
-38.615
-38.181
-37.772
-37.385
-37.022
-36.681
-36.361
-36.061
-35.78
-35.518
-35.273
-35.043
-34.828
-34.627
-34.438
-34.261
-34.096
-33.942
-33.8
-33.67
-33.552
-33.448
-33.358
-33.284
-33.227
-33.188
-33.169
-33.171
-33.195
-33.244
-33.318
-33.419
-33.549
-33.709
-33.9
-34.124
-34.38
-34.67
-34.994
-35.352
-35.746
-36.174
-36.639
-37.138
-37.674
-38.245
-38.852
-39.492
-40.164
-40.867
-41.597
-42.351
-43.124
-43.912
-44.71
-45.515
-46.321
-47.124
-47.919
-48.703
-49.472
-50.222
-50.949
-51.646
-52.308
-52.927
-53.498
-54.013
-54.465
-54.847
-55.15
-55.371
-55.506
-55.552
-55.504
-55.355
-55.095
-54.721
-54.233
-53.633
-52.924
-52.112
-51.206
-50.224
-49.191
-48.132
-47.065
-45.999
-44.936
-43.881
-42.839
-41.816
-40.821
-39.846
-38.885
-37.933
-36.99
-36.055
-35.12
-34.162
-33.138
-32.015
-30.777
-29.427
-27.982
-26.459
-24.882
-23.28
-21.692
-20.179
-18.797
-17.586
-16.574
-15.78
-15.224
-14.945
-14.996
-15.414
-16.218
-17.4
-18.934
-20.795
-22.936
-25.299
-27.81
-30.363
-32.87
-35.263
-37.497
-39.545
-41.41
-43.095
-44.6
-45.946
-47.152
-48.233
-49.234
-50.211
-51.245
-52.428
-53.864
-55.64
-57.867
-60.715
-64.235
-68.303
-72.626
-76.66
-79.842
-81.765
-81.95
-79.75
-74.877
-67.478
-58.126
-48.212
-39.176
-31.954
-27.632
-27.347
-31.344
-38.905
-48.39
-56.619
-59.91
-55.035
-38.332
-5.748
44.196
109.367
186.81
271.936
362.622
463.337
574.839
690.125
796.175
870.067
890.149
850.074
751.65
606.041
436.255
260.047
97.189
-28.753
-110.471
-147.194
-147.832
-135.271
-122.112
-113.121
-108.606
-100.28
-86.04
-69.799
-54.962
-46.136
-44.797
-48.932
-56.529
-65.516
-73.948
-80.466
-84.37
-85.552
-84.38
-81.613
-78.009
-74.164
-70.743
-68.35
-67.231
-67.39
-68.635
-70.616
-73.06
-75.778
-78.557
-81.194
-83.557
-85.525
-87.031
-88.062
-88.578
-88.546
-87.96
-86.827
-85.196
-83.16
-80.836
-78.337
-75.766
-73.195
-70.686
-68.299
-66.071
-64.03
-62.178
-60.487
-58.943
-57.537
-56.261
-55.099
-54.018
-52.957
-51.842
-50.614
-49.224
-47.637
-45.827
-43.77
-41.455
-38.892
-36.11
-33.158
-30.067
-26.852
-23.522
-20.081
-16.542
-12.924
-9.245
-5.513
-1.732
2.094
5.961
9.86
13.795
17.776
21.822
25.958
30.197
34.542
38.993
43.544
48.191
52.927
57.74
62.612
67.528
72.473
77.431
82.387
87.323
92.213
97.032
101.755
106.354
110.805
115.085
119.172
123.048
126.694
130.094
133.228
136.077
138.621
140.848
142.746
144.303
145.517
146.385
146.915
147.126
147.029
146.632
145.935
144.934
143.626
142.01
140.088
137.856
135.316
132.463
129.301
125.84
122.079
118.01
113.613
108.848
103.697
98.164
92.262
86.023
79.484
72.685
65.685
58.556
51.361
44.164
37.013
29.941
23.001
16.255
9.779
3.667
-2.01
-7.211
-11.905
-16.075
-19.726
-22.87
-25.549
-27.834
-29.78
-31.43
-32.819
-33.96
-34.885
-35.636
-36.264
-36.828
-37.377
-37.938
-38.54
-39.203
-39.932
-40.721
-41.541
-42.338
-43.076
-43.733
-44.294
-44.76
-45.126
-45.378
-45.511
-45.515
-45.386
-45.123
-44.723
-44.183
-43.509
-42.713
-41.819
-40.861
-39.864
-38.845
-37.818
-36.791
-35.771
-34.767
-33.781
-32.814
-31.865
-30.938
-30.037
-29.168
-28.335
-27.538
-26.777
-26.049
-25.353
-24.689
-24.058
-23.46
-22.896
-22.368
-21.879
-21.433
-21.034
-20.682
-20.379
-20.124
-19.917
-19.757
-19.645
-19.578
-19.555
-19.576
-19.641
-19.749
-19.899
-20.092
-20.325
-20.6
-20.915
-21.268
-21.66
-22.088
-22.552
-23.049
-23.579
-24.139
-24.729
-25.345
-25.986
-26.651
-27.337
-28.043
-28.766
-29.505
-30.258
-31.025
-31.803
-32.592
-33.391
-34.198
-35.013
-35.833
-36.656
-37.48
-38.301
-39.116
-39.922
-40.717
-41.498
-42.26
-43.002
-43.723
-44.42
-45.091
-45.732
-46.338
-46.907
-47.435
-47.918
-48.35
-48.728
-49.044
-49.296
-49.481
-49.594
-49.628
-49.575
-49.425
-49.171
-48.812
-48.349
-47.784
-47.123
-46.375
-45.557
-44.694
-43.805
-42.905
-42.009
-41.121
-40.254
-39.426
-38.65
-37.938
-37.295
-36.717
-36.196
-35.722
-35.273
-34.815
-34.305
-33.686
-32.921
-31.99
-30.879
-29.584
-28.102
-26.426
-24.568
-22.554
-20.418
-18.201
-15.952
-13.726
-11.601
-9.678
-8.055
-6.828
-6.07
-5.813
-6.088
-6.915
-8.3
-10.239
-12.704
-15.634
-18.975
-22.672
-26.649
-30.823
-35.087
-39.303
-43.365
-47.193
-50.737
-54
-56.988
-59.708
-62.18
-64.415
-66.449
-68.371
-70.249
-72.15
-74.166
-76.337
-78.781
-81.724
-85.187
-89.015
-92.879
-96.123
-98.159
-98.648
-97.05
-92.762
-85.711
-76.135
-64.915
-53.837
-44.307
-37.211
-33.633
-34.276
-38.762
-46.017
-53.617
-57.67
-54.582
-41.148
-13.856
30.394
91.341
165.784
249.91
337.682
428.093
525.954
628.265
728.201
811.724
853.37
840.223
770.28
648.783
497.394
335.283
178.127
45.067
-53.434
-113.164
-135.572
-133.744
-122.501
-110.45
-101.807
-94.355
-83.736
-70.871
-58.459
-49.325
-46.529
-49.878
-57.307
-67.103
-76.959
-84.852
-90.066
-92.347
-91.868
-89.387
-85.645
-81.281
-77.091
-73.807
-71.754
-71
-71.407
-72.655
-74.496
-76.743
-79.186
-81.62
-83.891
-85.887
-87.53
-88.794
-89.645
-90.022
-89.886
-89.235
-88.096
-86.546
-84.698
-82.649
-80.493
-78.314
-76.168
-74.109
-72.192
-70.441
-68.869
-67.47
-66.211
-65.081
-64.075
-63.171
-62.34
-61.528
-60.655
-59.655
-58.484
-57.095
-55.464
-53.569
-51.384
-48.912
-46.174
-43.2
-40.036
-36.712
-33.238
-29.632
-25.907
-22.082
-18.187
-14.239
-10.241
-6.203
-2.128
1.978
6.105
10.258
14.451
18.698
23.02
27.427
31.917
36.491
41.143
45.867
50.655
55.492
60.358
65.234
70.103
74.948
79.753
84.498
89.16
93.715
98.139
102.411
106.51
110.415
114.107
117.567
120.78
123.73
126.406
128.796
130.886
132.666
134.125
135.254
136.046
136.494
136.593
136.341
135.737
134.78
133.475
131.826
129.838
127.52
124.881
121.932
118.686
115.156
111.359
107.309
103.026
98.527
93.834
88.965
83.943
78.789
73.524
68.171
62.75
57.285
51.796
46.305
40.832
35.399
30.025
24.729
19.53
14.445
9.491
4.685
0.039
-4.432
-8.716
-12.802
-16.682
-20.345
-23.787
-27
-29.982
-32.728
-35.239
-37.513
-39.552
-41.359
-42.938
-44.292
-45.429
-46.355
-47.078
-47.605
-47.947
-48.112
-48.112
-47.956
-47.656
-47.224
-46.67
-46.006
-45.244
-44.395
-43.471
-42.483
-41.443
-40.36
-39.246
-38.11
-36.964
-35.815
-34.674
-33.548
-32.445
-31.372
-30.337
-29.343
-28.398
-27.505
-26.668
-25.89
-25.174
-24.523
-23.938
-23.419
-22.969
-22.585
-22.269
-22.019
-21.834
-21.712
-21.652
-21.651
-21.706
-21.816
-21.978
-22.188
-22.445
-22.744
-23.083
-23.458
-23.865
-24.302
-24.764
-25.25
-25.755
-26.277
-26.814
-27.363
-27.922
-28.489
-29.062
-29.639
-30.219
-30.799
-31.378
-31.955
-32.528
-33.098
-33.662
-34.222
-34.776
-35.325
-35.868
-36.405
-36.937
-37.465
-37.987
-38.505
-39.019
-39.529
-40.037
-40.543
-41.048
-41.551
-42.054
-42.556
-43.056
-43.552
-44.043
-44.526
-44.999
-45.46
-45.907
-46.337
-46.749
-47.142
-47.515
-47.867
-48.195
-48.496
-48.768
-49.007
-49.21
-49.371
-49.486
-49.55
-49.558
-49.506
-49.39
-49.207
-48.952
-48.62
-48.201
-47.693
-47.095
-46.409
-45.641
-44.8
-43.899
-42.952
-41.984
-41.015
-40.065
-39.151
-38.283
-37.471
-36.722
-36.047
-35.457
-34.958
-34.54
-34.191
-33.892
-33.624
-33.365
-33.085
-32.744
-32.302
-31.734
-31.023
-30.166
-29.174
-28.058
-26.832
-25.514
-24.139
-22.756
-21.425
-20.209
-19.16
-18.321
-17.743
-17.484
-17.599
-18.121
-19.061
-20.411
-22.144
-24.231
-26.639
-29.321
-32.207
-35.222
-38.28
-41.305
-44.254
-47.107
-49.859
-52.507
-55.056
-57.52
-59.915
-62.281
-64.686
-67.197
-69.879
-72.825
-76.093
-79.77
-84.028
-88.868
-94.108
-99.44
-104.268
-108.002
-110.254
-110.458
-107.918
-102.496
-94.4
-84.24
-73.52
-63.49
-54.867
-48.836
-46.468
-47.555
-51.174
-55.467
-56.949
-52.427
-39.233
-13.728
27.714
85.761
158.074
241.122
329.29
419.616
515.092
615.718
715.822
805.681
866.24
877.608
832.449
731.009
582.941
410.252
232.126
65.696
-69.973
-165.396
-217.651
-227.317
-205.276
-166.077
-121.776
-85.748
-66.124
-62.631
-71.894
-84.832
-92.679
-93.225
-88.008
-82.291
-80.198
-81.612
-84.36
-85.557
-84.008
-80.327
-75.552
-70.671
-66.184
-62.385
-59.72
-58.452
-58.563
-59.884
-62.124
-65.052
-68.525
-72.361
-76.34
-80.25
-83.916
-87.215
-90.055
-92.363
-94.084
-95.185
-95.661
-95.536
-94.848
-93.649
-91.999
-89.96
-87.59
-84.949
-82.092
-79.085
-75.996
-72.887
-69.818
-66.828
-63.943
-61.177
-58.539
-56.022
-53.617
-51.305
-49.064
-46.877
-44.73
-42.61
-40.506
-38.405
-36.292
-34.151
-31.969
-29.73
-27.422
-25.033
-22.551
-19.966
-17.27
-14.458
-11.523
-8.464
-5.278
-1.961
1.493
5.086
8.824
12.71
16.739
20.909
25.209
29.625
34.139
38.722
43.347
47.991
52.637
57.269
61.881
66.465
71.012
75.515
79.96
84.329
88.613
92.795
96.865
100.825
104.68
108.45
112.158
115.813
119.414
122.953
126.396
129.711
132.862
135.801
138.503
140.95
143.117
144.983
146.523
147.697
148.46
148.757
148.515
147.679
146.209
144.079
141.3
137.895
133.893
129.335
124.239
118.615
112.492
105.9
98.882
91.496
83.808
75.9
67.885
59.88
51.986
44.287
36.833
29.657
22.797
16.284
10.171
4.508
-0.673
-5.352
-9.515
-13.16
-16.297
-18.955
-21.199
-23.116
-24.776
-26.234
-27.519
-28.654
-29.666
-30.59
-31.471
-32.342
-33.227
-34.145
-35.112
-36.145
-37.25
-38.418
-39.612
-40.781
-41.889
-42.912
-43.841
-44.671
-45.395
-45.998
-46.47
-46.813
-47.03
-47.121
-47.09
-46.932
-46.653
-46.267
-45.798
-45.277
-44.724
-44.155
-43.58
-43.007
-42.445
-41.901
-41.379
-40.875
-40.389
-39.921
-39.474
-39.05
-38.65
-38.271
-37.91
-37.561
-37.222
-36.89
-36.562
-36.238
-35.915
-35.593
-35.272
-34.954
-34.64
-34.331
-34.025
-33.722
-33.422
-33.125
-32.832
-32.542
-32.256
-31.975
-31.7
-31.432
-31.172
-30.921
-30.682
-30.454
-30.241
-30.042
-29.861
-29.697
-29.553
-29.431
-29.33
-29.254
-29.202
-29.177
-29.181
-29.214
-29.278
-29.375
-29.506
-29.673
-29.876
-30.117
-30.396
-30.713
-31.068
-31.459
-31.884
-32.342
-32.828
-33.341
-33.876
-34.429
-34.998
-35.578
-36.166
-36.759
-37.354
-37.947
-38.533
-39.108
-39.666
-40.203
-40.715
-41.194
-41.634
-42.03
-42.373
-42.661
-42.887
-43.042
-43.117
-43.101
-42.985
-42.767
-42.447
-42.025
-41.507
-40.9
-40.219
-39.488
-38.725
-37.946
-37.165
-36.389
-35.631
-34.908
-34.235
-33.623
-33.078
-32.594
-32.164
-31.78
-31.418
-31.045
-30.621
-30.093
-29.424
-28.595
-27.586
-26.392
-25.006
-23.421
-21.645
-19.706
-17.633
-15.467
-13.261
-11.066
-8.96
-7.04
-5.396
-4.117
-3.266
-2.878
-2.984
-3.609
-4.76
-6.436
-8.614
-11.234
-14.243
-17.582
-21.173
-24.935
-28.763
-32.534
-36.148
-39.55
-42.72
-45.666
-48.407
-50.946
-53.276
-55.428
-57.469
-59.502
-61.623
-63.892
-66.331
-69.012
-72.118
-75.752
-79.837
-84.064
-87.869
-90.759
-92.469
-92.647
-90.714
-86.348
-79.628
-71.171
-62.338
-54.208
-47.35
-42.701
-41.418
-44.056
-49.169
-53.149
-51.9
-42.946
-28.503
-12.52
5.676
30.822
72.034
139.054
232.652
346.685
472.935
600.493
718.218
815.831
878.489
889.849
843.602
740.256
588.615
410.342
225.12
52.411
-86.444
-182.694
-235.132
-248.611
-236.804
-209.949
-173.608
-134.285
-98.589
-73.457
-64.955
-72.045
-85.848
-97.656
-102.321
-99.792
-95.503
-93.242
-93.093
-93.801
-92.989
-89.726
-85
-79.826
-75.041
-71.23
-68.658
-67.45
-67.607
-68.922
-71.019
-73.585
-76.412
-79.309
-82.09
-84.583
-86.62
-88.093
-88.956
-89.196
-88.808
-87.805
-86.209
-84.057
-81.426
-78.415
-75.147
-71.76
-68.368
-65.054
-61.894
-58.956
-56.291
-53.94
-51.908
-50.156
-48.648
-47.349
-46.23
-45.269
-44.424
-43.633
-42.826
-41.928
-40.879
-39.64
-38.175
-36.452
-34.454
-32.176
-29.638
-26.885
-23.95
-20.851
-17.601
-14.198
-10.652
-6.977
-3.188
0.705
4.691
8.765
12.919
17.143
21.433
25.794
30.237
34.785
39.45
44.232
49.128
54.13
59.224
64.4
69.639
74.919
80.219
85.517
90.794
96.03
101.204
106.291
111.265
116.097
120.759
125.227
129.478
133.487
137.234
140.699
143.865
146.718
149.245
151.431
153.264
154.733
155.826
156.537
156.86
156.789
156.323
155.461
154.208
152.566
150.545
148.151
145.396
142.292
138.854
135.096
131.037
126.695
122.091
117.245
112.182
106.923
101.492
95.915
90.214
84.415
78.543
72.62
66.67
60.718
54.785
48.894
43.066
37.322
31.681
26.163
20.785
15.562
10.511
5.644
0.974
-3.488
-7.735
-11.757
-15.55
-19.107
-22.426
-25.507
-28.348
-30.951
-33.32
-35.459
-37.373
-39.069
-40.554
-41.837
-42.927
-43.834
-44.566
-45.135
-45.551
-45.826
-45.971
-45.996
-45.914
-45.735
-45.47
-45.13
-44.726
-44.266
-43.762
-43.221
-42.654
-42.068
-41.471
-40.872
-40.277
-39.692
-39.123
-38.575
-38.052
-37.558
-37.094
-36.664
-36.269
-35.91
-35.587
-35.302
-35.052
-34.84
-34.662
-34.52
-34.41
-34.333
-34.287
-34.27
-34.282
-34.32
-34.383
-34.47
-34.581
-34.713
-34.866
-35.038
-35.229
-35.438
-35.662
-35.901
-36.153
-36.418
-36.695
-36.981
-37.278
-37.583
-37.896
-38.217
-38.545
-38.879
-39.219
-39.563
-39.911
-40.262
-40.614
-40.968
-41.32
-41.671
-42.017
-42.357
-42.688
-43.008
-43.314
-43.602
-43.87
-44.115
-44.332
-44.519
-44.672
-44.787
-44.862
-44.893
-44.876
-44.809
-44.688
-44.511
-44.276
-43.978
-43.618
-43.192
-42.698
-42.137
-41.506
-40.805
-40.035
-39.196
-38.29
-37.318
-36.283
-35.189
-34.041
-32.844
-31.605
-30.331
-29.03
-27.712
-26.387
-25.064
-23.754
-22.468
-21.215
-20.007
-18.854
-17.767
-16.755
-15.829
-15.001
-14.28
-13.679
-13.207
-12.871
-12.676
-12.628
-12.729
-12.985
-13.402
-13.985
-14.738
-15.664
-16.765
-18.042
-19.49
-21.095
-22.829
-24.664
-26.568
-28.513
-30.475
-32.427
-34.34
-36.181
-37.915
-39.507
-40.926
-42.139
-43.116
-43.838
-44.292
-44.503
-44.542
-44.486
-44.422
-44.425
-44.534
-44.811
-45.34
-46.212
-47.532
-49.39
-51.827
-54.922
-58.828
-63.578
-69.06
-74.968
-80.695
-85.647
-89.397
-91.46
-91.27
-88.566
-83.454
-76.523
-69.131
-62.603
-57.798
-55.62
-56.884
-61.701
-69.392
-78.19
-84.913
-86.351
-79.614
-61.432
-28.83
20.611
86.534
164.658
249.76
336.236
422.421
512.383
605.595
696.381
772.98
812.557
797.934
723.085
589.055
414.611
225.398
43.951
-104.739
-206.877
-261.174
-271.028
-250.194
-212.408
-168.005
-128.663
-99.721
-85.15
-85.084
-91.619
-99.028
-101.834
-98.455
-94.179
-91.707
-92.102
-94.663
-95.864
-94.413
-90.773
-85.614
-80.187
-75.222
-70.948
-67.793
-66.008
-65.519
-66.098
-67.41
-69.187
-71.259
-73.474
-75.646
-77.582
-79.145
-80.262
-80.907
-81.066
-80.73
-79.89
-78.568
-76.828
-74.767
-72.512
-70.179
-67.856
-65.611
-63.495
-61.558
-59.844
-58.38
-57.164
-56.167
-55.359
-54.715
-54.214
-53.831
-53.517
-53.203
-52.804
-52.25
-51.493
-50.497
-49.233
-47.676
-45.809
-43.634
-41.179
-38.483
-35.575
-32.47
-29.173
-25.689
-22.032
-18.221
-14.278
-10.212
-6.031
-1.739
2.657
7.145
11.723
16.397
21.18
26.09
31.134
36.31
41.61
47.022
52.536
58.138
63.809
69.525
75.262
80.998
86.712
92.383
97.988
103.499
108.89
114.131
119.195
124.058
128.695
133.083
137.199
141.024
144.539
147.73
150.581
153.077
155.204
156.951
158.306
159.262
159.811
159.949
159.671
158.978
157.872
156.356
154.436
152.121
149.42
146.344
142.907
139.124
135.011
130.587
125.87
120.881
115.643
110.177
104.507
98.656
92.651
86.515
80.273
73.952
67.575
61.169
54.757
48.365
42.016
35.733
29.539
23.455
17.502
11.7
6.066
0.618
-4.628
-9.659
-14.462
-19.025
-23.338
-27.394
-31.185
-34.708
-37.958
-40.934
-43.635
-46.063
-48.22
-50.109
-51.737
-53.11
-54.234
-55.119
-55.774
-56.208
-56.435
-56.465
-56.31
-55.985
-55.502
-54.876
-54.12
-53.248
-52.275
-51.214
-50.08
-48.886
-47.645
-46.371
-45.076
-43.773
-42.472
-41.184
-39.92
-38.688
-37.497
-36.354
-35.266
-34.238
-33.276
-32.383
-31.562
-30.817
-30.149
-29.559
-29.049
-28.618
-28.266
-27.99
-27.791
-27.664
-27.607
-27.617
-27.689
-27.821
-28.006
-28.242
-28.524
-28.845
-29.203
-29.592
-30.008
-30.446
-30.9
-31.369
-31.846
-32.33
-32.816
-33.302
-33.787
-34.267
-34.742
-35.21
-35.67
-36.12
-36.559
-36.986
-37.397
-37.792
-38.169
-38.525
-38.86
-39.173
-39.463
-39.73
-39.976
-40.2
-40.405
-40.591
-40.758
-40.904
-41.03
-41.133
-41.211
-41.263
-41.286
-41.275
-41.229
-41.145
-41.023
-40.858
-40.648
-40.383
-40.058
-39.675
-39.234
-38.741
-38.204
-37.631
-37.037
-36.444
-35.872
-35.341
-34.868
-34.455
-34.105
-33.823
-33.612
-33.478
-33.421
-33.425
-33.468
-33.536
-33.607
-33.663
-33.676
-33.597
-33.385
-33.008
-32.442
-31.691
-30.767
-29.683
-28.459
-27.119
-25.704
-24.276
-22.911
-21.662
-20.579
-19.7
-19.066
-18.747
-18.8
-19.267
-20.172
-21.506
-23.247
-25.368
-27.834
-30.592
-33.572
-36.675
-39.796
-42.858
-45.804
-48.616
-51.292
-53.813
-56.171
-58.367
-60.394
-62.28
-64.081
-65.86
-67.691
-69.658
-71.822
-74.29
-77.252
-80.779
-84.788
-89.009
-92.91
-95.96
-97.78
-97.944
-95.914
-91.442
-84.644
-76.105
-67.186
-59.288
-53.358
-50.348
-51.146
-55.918
-64.034
-73.827
-82.136
-85.612
-81.289
-65.899
-36.298
10.023
72.723
147.952
230.705
314.979
399.709
488.892
580.005
667.167
736.931
765.39
740.903
660.986
529.705
368.427
196.865
31.906
-104.136
-199.483
-252.432
-264.701
-249.436
-221.515
-185.356
-147.199
-112.446
-82.402
-65.569
-64.019
-71.171
-83.07
-92.002
-94.394
-94.32
-93.047
-91.991
-91.831
-90.034
-85.967
-80.459
-74.111
-68.191
-63.687
-60.65
-59.049
-58.839
-59.703
-61.376
-63.691
-66.413
-69.32
-72.291
-75.185
-77.864
-80.259
-82.284
-83.859
-84.945
-85.507
-85.54
-85.076
-84.152
-82.819
-81.129
-79.13
-76.869
-74.393
-71.748
-68.987
-66.162
-63.323
-60.515
-57.771
-55.11
-52.548
-50.085
-47.714
-45.422
-43.191
-41
-38.835
-36.681
-34.526
-32.358
-30.162
-27.924
-25.63
-23.267
-20.823
-18.287
-15.65
-12.903
-10.043
-7.065
-3.966
-0.745
2.601
6.074
9.676
13.407
17.266
21.253
25.364
29.595
33.941
38.394
42.946
47.586
52.304
57.088
61.924
66.799
71.696
76.602
81.497
86.366
91.19
95.951
100.628
105.202
109.654
113.962
118.108
122.072
125.833
129.374
132.676
135.722
138.495
140.98
143.162
145.03
146.571
147.775
148.634
149.141
149.291
149.08
148.506
147.57
146.274
144.62
142.615
140.263
137.575
134.559
131.227
127.591
123.666
119.468
115.012
110.319
105.405
100.293
95.002
89.555
83.975
78.283
72.503
66.658
60.771
54.864
48.961
43.083
37.252
31.488
25.813
20.244
14.801
9.5
4.356
-0.614
-5.397
-9.982
-14.358
-18.513
-22.441
-26.133
-29.585
-32.792
-35.751
-38.461
-40.922
-43.136
-45.106
-46.836
-48.331
-49.598
-50.646
-51.481
-52.114
-52.555
-52.814
-52.902
-52.83
-52.611
-52.256
-51.776
-51.185
-50.493
-49.712
-48.855
-47.931
-46.952
-45.928
-44.869
-43.785
-42.686
-41.579
-40.474
-39.379
-38.3
-37.245
-36.218
-35.226
-34.271
-33.358
-32.488
-31.664
-30.888
-30.159
-29.479
-28.847
-28.263
-27.726
-27.236
-26.79
-26.389
-26.03
-25.711
-25.431
-25.187
-24.977
-24.8
-24.654
-24.537
-24.447
-24.383
-24.342
-24.322
-24.322
-24.34
-24.372
-24.417
-24.472
-24.537
-24.609
-24.687
-24.771
-24.859
-24.952
-25.047
-25.145
-25.243
-25.342
-25.439
-25.533
-25.621
-25.703
-25.774
-25.835
-25.882
-25.915
-25.932
-25.932
-25.913
-25.876
-25.819
-25.74
-25.636
-25.503
-25.339
-25.139
-24.901
-24.622
-24.302
-23.938
-23.531
-23.083
-22.596
-22.069
-21.5
-20.887
-20.227
-19.525
-18.785
-18.018
-17.238
-16.463
-15.715
-15.016
-14.382
-13.826
-13.353
-12.957
-12.636
-12.381
-12.193
-12.081
-12.051
-12.11
-12.258
-12.493
-12.799
-13.15
-13.514
-13.853
-14.142
-14.37
-14.546
-14.694
-14.849
-15.06
-15.359
-15.764
-16.283
-16.904
-17.619
-18.42
-19.313
-20.315
-21.453
-22.762
-24.261
-25.953
-27.808
-29.778
-31.794
-33.763
-35.614
-37.3
-38.805
-40.169
-41.446
-42.683
-43.921
-45.172
-46.443
-47.762
-49.162
-50.69
-52.429
-54.436
-56.824
-59.828
-63.516
-67.791
-72.394
-76.754
-80.319
-82.766
-83.609
-82.236
-78.553
-72.791
-65.693
-58.834
-53.417
-50.045
-49.591
-52.806
-59.431
-68.566
-78.065
-84.301
-84.415
-76.035
-56.251
-22.481
27.105
91.685
166.882
247.536
328.603
409.558
494.399
580.805
663.225
729.656
758.623
739.926
671.166
555.633
411.823
256.242
103.939
-24.969
-118.507
-171.833
-186.812
-178.014
-162.023
-148.12
-140.097
-134.661
-126.238
-114.894
-103.044
-93.524
-89.376
-90.463
-94.846
-100.924
-106.616
-110.152
-110.953
-108.897
-104.25
-97.79
-90.248
-82.179
-74.267
-67.169
-61.2
-56.477
-52.953
-50.404
-48.682
-47.725
-47.431
-47.697
-48.447
-49.572
-50.985
-52.621
-54.385
-56.205
-58.039
-59.846
-61.611
-63.334
-65.005
-66.619
-68.153
-69.55
-70.744
-71.666
-72.267
-72.538
-72.485
-72.125
-71.483
-70.572
-69.401
-67.98
-66.312
-64.39
-62.21
-59.767
-57.073
-54.165
-51.093
-47.915
-44.676
-41.398
-38.098
-34.781
-31.449
-28.099
-24.724
-21.313
-17.857
-14.357
-10.813
-7.228
-3.6
0.085
3.843
7.696
11.659
15.74
19.943
24.267
28.708
33.257
37.901
42.619
47.395
52.213
57.058
61.916
66.773
71.61
76.411
81.156
85.827
90.404
94.87
99.205
103.391
107.408
111.238
114.863
118.268
121.436
124.354
127.005
129.377
131.457
133.237
134.706
135.856
136.674
137.147
137.268
137.038
136.46
135.547
134.307
132.75
130.891
128.749
126.339
123.673
120.753
117.57
114.126
110.431
106.503
102.371
98.055
93.563
88.902
84.077
79.092
73.957
68.668
63.206
57.573
51.79
45.898
39.963
34.038
28.156
22.345
16.62
11.004
5.536
0.246
-4.843
-9.698
-14.292
-18.58
-22.492
-25.994
-29.08
-31.768
-34.116
-36.161
-37.923
-39.424
-40.679
-41.71
-42.547
-43.206
-43.696
-44.035
-44.248
-44.375
-44.479
-44.596
-44.738
-44.902
-45.055
-45.18
-45.274
-45.327
-45.332
-45.282
-45.171
-45.004
-44.799
-44.563
-44.296
-43.991
-43.628
-43.199
-42.709
-42.167
-41.592
-40.998
-40.394
-39.791
-39.203
-38.638
-38.102
-37.596
-37.111
-36.643
-36.193
-35.762
-35.355
-34.974
-34.62
-34.291
-33.987
-33.707
-33.453
-33.222
-33.013
-32.826
-32.663
-32.526
-32.419
-32.347
-32.312
-32.318
-32.366
-32.46
-32.6
-32.788
-33.025
-33.309
-33.641
-34.021
-34.448
-34.923
-35.443
-36.009
-36.617
-37.267
-37.955
-38.68
-39.438
-40.225
-41.037
-41.871
-42.72
-43.579
-44.443
-45.304
-46.157
-46.994
-47.807
-48.589
-49.331
-50.025
-50.664
-51.239
-51.742
-52.167
-52.507
-52.755
-52.906
-52.955
-52.899
-52.733
-52.456
-52.067
-51.565
-50.95
-50.224
-49.39
-48.45
-47.411
-46.279
-45.061
-43.765
-42.403
-40.983
-39.519
-38.022
-36.503
-34.976
-33.453
-31.948
-30.474
-29.046
-27.679
-26.39
-25.192
-24.101
-23.131
-22.293
-21.596
-21.048
-20.656
-20.426
-20.37
-20.498
-20.817
-21.336
-22.059
-22.987
-24.116
-25.43
-26.902
-28.506
-30.211
-31.989
-33.819
-35.673
-37.525
-39.346
-41.095
-42.732
-44.219
-45.513
-46.58
-47.399
-47.962
-48.304
-48.493
-48.6
-48.692
-48.823
-49.038
-49.412
-50.033
-50.988
-52.372
-54.253
-56.723
-59.96
-64.047
-68.915
-74.326
-79.777
-84.709
-88.711
-91.325
-91.955
-90.274
-86.327
-80.65
-74.515
-69.25
-65.737
-64.765
-67.126
-73.092
-82.086
-92.439
-101.102
-104.7
-100.222
-84.715
-55.278
-9.272
53.48
129.83
215.233
303.937
393.038
485.344
581.016
675.908
761.374
817.442
825.312
776.407
668.099
513.963
339.068
166.266
20.893
-79.419
-133.732
-148.102
-138.398
-123.605
-111.763
-105.327
-101.354
-93.741
-82.826
-71.512
-62.563
-59.342
-61.908
-68.17
-76.487
-84.652
-90.699
-93.993
-94.324
-91.875
-87.412
-81.701
-75.386
-69.263
-64.1
-60.267
-57.904
-56.963
-57.19
-58.38
-60.371
-62.952
-65.911
-69.079
-72.321
-75.516
-78.576
-81.384
-83.815
-85.782
-87.231
-88.139
-88.511
-88.367
-87.734
-86.654
-85.182
-83.367
-81.26
-78.91
-76.363
-73.675
-70.903
-68.102
-65.323
-62.602
-59.962
-57.411
-54.95
-52.571
-50.261
-48.002
-45.774
-43.558
-41.341
-39.109
-36.851
-34.553
-32.2
-29.778
-27.275
-24.678
-21.98
-19.173
-16.251
-13.212
-10.053
-6.775
-3.378
0.137
3.771
7.521
11.387
15.366
19.453
23.644
27.931
32.307
36.76
41.279
45.851
50.462
55.097
59.739
64.371
68.976
73.536
78.032
82.445
86.756
90.946
94.995
98.886
102.6
106.118
109.424
112.501
115.334
117.906
120.206
122.219
123.935
125.342
126.433
127.2
127.636
127.737
127.5
126.924
126.01
124.759
123.176
121.268
119.04
116.503
113.667
110.544
107.148
103.494
99.596
95.473
91.141
86.62
81.928
77.085
72.112
67.029
61.856
56.614
51.324
46.007
40.682
35.369
30.089
24.86
19.701
14.63
9.664
4.818
0.109
-4.449
-8.843
-13.061
-17.091
-20.924
-24.551
-27.966
-31.162
-34.135
-36.883
-39.403
-41.695
-43.76
-45.601
-47.22
-48.623
-49.814
-50.799
-51.587
-52.184
-52.599
-52.841
-52.92
-52.846
-52.629
-52.28
-51.81
-51.229
-50.549
-49.78
-48.935
-48.024
-47.058
-46.047
-45.002
-43.934
-42.852
-41.765
-40.682
-39.611
-38.559
-37.532
-36.537
-35.577
-34.658
-33.782
-32.951
-32.168
-31.434
-30.75
-30.115
-29.529
-28.991
-28.502
-28.058
-27.66
-27.305
-26.992
-26.718
-26.483
-26.283
-26.116
-25.982
-25.876
-25.797
-25.743
-25.711
-25.7
-25.706
-25.729
-25.765
-25.815
-25.876
-25.947
-26.03
-26.122
-26.225
-26.339
-26.467
-26.608
-26.764
-26.938
-27.129
-27.34
-27.571
-27.823
-28.094
-28.384
-28.694
-29.021
-29.366
-29.726
-30.101
-30.491
-30.893
-31.307
-31.729
-32.156
-32.584
-33.01
-33.43
-33.837
-34.228
-34.594
-34.931
-35.234
-35.498
-35.714
-35.873
-35.963
-35.975
-35.906
-35.752
-35.512
-35.19
-34.79
-34.322
-33.806
-33.259
-32.693
-32.119
-31.542
-30.975
-30.432
-29.927
-29.471
-29.068
-28.711
-28.391
-28.097
-27.808
-27.491
-27.106
-26.6
-25.939
-25.102
-24.074
-22.849
-21.421
-19.777
-17.925
-15.886
-13.694
-11.398
-9.055
-6.722
-4.486
-2.45
-0.714
0.619
1.488
1.86
1.707
1.015
-0.23
-2.031
-4.366
-7.185
-10.429
-14.022
-17.879
-21.909
-25.983
-29.96
-33.725
-37.189
-40.339
-43.194
-45.773
-48.099
-50.18
-52.043
-53.771
-55.457
-57.197
-59.106
-61.257
-63.773
-66.898
-70.714
-75.128
-79.872
-84.352
-88.005
-90.509
-91.365
-89.962
-86.194
-80.255
-72.853
-65.528
-59.404
-55.013
-53.173
-54.528
-58.748
-64.931
-70.95
-73.254
-69.125
-56.289
-31.897
6.435
60.399
129.386
208.992
293.716
378.55
461.928
547.714
636.463
724.036
800.727
845.563
840.938
779.115
659.123
497.49
319.403
147.143
4.732
-94.158
-149.197
-164.414
-152.877
-127.465
-96.472
-69.089
-48.935
-39.169
-40.991
-48.43
-57.277
-63.352
-64.865
-66.088
-69.266
-74.747
-81.663
-86.879
-89.042
-88.607
-86.264
-83.127
-79.955
-77.113
-75.086
-74.181
-74.397
-75.534
-77.294
-79.445
-81.819
-84.272
-86.624
-88.695
-90.366
-91.558
-92.221
-92.309
-91.768
-90.584
-88.805
-86.509
-83.805
-80.822
-77.667
-74.444
-71.26
-68.195
-65.326
-62.72
-60.416
-58.449
-56.851
-55.629
-54.778
-54.266
-54.016
-53.951
-53.989
-54.031
-54.001
-53.83
-53.447
-52.807
-51.875
-50.622
-49.037
-47.118
-44.855
-42.259
-39.348
-36.15
-32.717
-29.093
-25.314
-21.419
-17.435
-13.385
-9.291
-5.163
-1.001
3.192
7.417
11.679
15.973
20.304
24.678
29.101
33.586
38.141
42.762
47.447
52.187
56.969
61.778
66.595
71.394
76.151
80.844
85.447
89.941
94.303
98.509
102.536
106.36
109.961
113.317
116.412
119.227
121.748
123.961
125.855
127.422
128.653
129.542
130.083
130.272
130.105
129.582
128.704
127.474
125.895
123.976
121.724
119.151
116.269
113.092
109.634
105.914
101.947
97.754
93.353
88.765
84.011
79.112
74.09
68.968
63.767
58.509
53.217
47.911
42.613
37.343
32.12
26.964
21.892
16.922
12.069
7.349
2.775
-1.639
-5.883
-9.946
-13.82
-17.497
-20.972
-24.241
-27.301
-30.149
-32.785
-35.21
-37.427
-39.436
-41.244
-42.853
-44.27
-45.501
-46.553
-47.435
-48.154
-48.719
-49.14
-49.425
-49.585
-49.63
-49.568
-49.41
-49.166
-48.845
-48.455
-48.008
-47.51
-46.971
-46.398
-45.798
-45.179
-44.546
-43.906
-43.262
-42.62
-41.983
-41.356
-40.741
-40.141
-39.558
-38.995
-38.453
-37.932
-37.434
-36.959
-36.506
-36.077
-35.67
-35.285
-34.921
-34.579
-34.257
-33.955
-33.673
-33.409
-33.163
-32.934
-32.722
-32.524
-32.342
-32.175
-32.023
-31.885
-31.763
-31.656
-31.565
-31.49
-31.433
-31.394
-31.374
-31.373
-31.394
-31.437
-31.503
-31.594
-31.711
-31.856
-32.03
-32.233
-32.467
-32.731
-33.025
-33.348
-33.7
-34.077
-34.478
-34.901
-35.344
-35.805
-36.28
-36.768
-37.266
-37.773
-38.287
-38.803
-39.319
-39.83
-40.332
-40.819
-41.289
-41.734
-42.151
-42.531
-42.868
-43.16
-43.398
-43.576
-43.683
-43.706
-43.638
-43.475
-43.218
-42.866
-42.425
-41.902
-41.313
-40.679
-40.02
-39.352
-38.685
-38.025
-37.383
-36.772
-36.211
-35.717
-35.294
-34.941
-34.653
-34.422
-34.229
-34.046
-33.825
-33.509
-33.054
-32.432
-31.629
-30.644
-29.469
-28.1
-26.54
-24.799
-22.903
-20.889
-18.794
-16.664
-14.561
-12.566
-10.783
-9.324
-8.271
-7.682
-7.592
-8.022
-8.988
-10.495
-12.529
-15.058
-18.038
-21.419
-25.147
-29.158
-33.374
-37.7
-42.029
-46.254
-50.309
-54.165
-57.814
-61.265
-64.517
-67.556
-70.409
-73.133
-75.794
-78.469
-81.224
-84.079
-87.107
-90.472
-94.19
-98.137
-102.007
-105.188
-107.166
-107.645
-106.141
-102.061
-95.312
-86.121
-75.249
-64.391
-54.689
-46.656
-41.57
-40.467
-43.032
-48.617
-54.077
-54.658
-48.604
-33.722
-9.192
25.257
73.827
136.337
212.885
303.028
399.884
503.427
610.721
710.901
796.698
851.892
858.26
812.087
712.25
565.667
394.611
217.706
55.235
-69.455
-148.746
-182.172
-177.295
-152.385
-121.812
-96.198
-80.86
-75.772
-78.215
-82.832
-86.27
-85.467
-80.561
-76.096
-74.29
-76.265
-81.173
-85.25
-86.755
-85.737
-82.578
-78.474
-74.199
-69.899
-66.039
-63.226
-61.713
-61.529
-62.55
-64.495
-67.147
-70.389
-74.02
-77.8
-81.549
-85.113
-88.376
-91.265
-93.688
-95.569
-96.873
-97.585
-97.716
-97.299
-96.368
-94.973
-93.174
-91.028
-88.593
-85.924
-83.075
-80.103
-77.067
-74.019
-71.005
-68.057
-65.193
-62.424
-59.752
-57.167
-54.66
-52.212
-49.803
-47.418
-45.041
-42.659
-40.259
-37.826
-35.345
-32.801
-30.179
-27.469
-24.661
-21.745
-18.715
-15.565
-12.293
-8.896
-5.375
-1.727
2.046
5.947
9.973
14.123
18.393
22.778
27.274
31.871
36.562
41.333
46.174
51.07
56.006
60.966
65.934
70.891
75.819
80.699
85.509
90.231
94.844
99.325
103.655
107.813
111.778
115.53
119.051
122.322
125.327
128.049
130.474
132.589
134.382
135.842
136.961
137.731
138.147
138.205
137.902
137.239
136.217
134.84
133.113
131.044
128.642
125.917
122.882
119.549
115.934
112.053
107.923
103.563
98.992
94.231
89.3
84.22
79.015
73.704
68.311
62.858
57.365
51.854
46.346
40.862
35.422
30.044
24.747
19.55
14.468
9.518
4.714
0.069
-4.403
-8.693
-12.792
-16.689
-20.38
-23.857
-27.118
-30.158
-32.976
-35.571
-37.944
-40.098
-42.034
-43.758
-45.274
-46.588
-47.706
-48.635
-49.384
-49.961
-50.373
-50.632
-50.745
-50.723
-50.575
-50.313
-49.947
-49.487
-48.944
-48.327
-47.647
-46.914
-46.136
-45.323
-44.483
-43.625
-42.755
-41.882
-41.01
-40.147
-39.298
-38.466
-37.657
-36.872
-36.116
-35.39
-34.697
-34.036
-33.411
-32.821
-32.267
-31.749
-31.267
-30.821
-30.41
-30.032
-29.687
-29.373
-29.089
-28.832
-28.602
-28.395
-28.212
-28.049
-27.906
-27.781
-27.674
-27.583
-27.506
-27.445
-27.398
-27.367
-27.35
-27.349
-27.366
-27.401
-27.457
-27.535
-27.637
-27.765
-27.921
-28.107
-28.323
-28.573
-28.856
-29.175
-29.531
-29.925
-30.358
-30.83
-31.343
-31.896
-32.489
-33.12
-33.79
-34.496
-35.236
-36.008
-36.81
-37.637
-38.486
-39.354
-40.234
-41.122
-42.011
-42.896
-43.769
-44.622
-45.448
-46.239
-46.988
-47.687
-48.329
-48.905
-49.409
-49.834
-50.175
-50.425
-50.578
-50.631
-50.58
-50.422
-50.154
-49.776
-49.289
-48.695
-47.996
-47.198
-46.305
-45.324
-44.263
-43.132
-41.938
-40.693
-39.406
-38.089
-36.754
-35.415
-34.085
-32.779
-31.512
-30.3
-29.16
-28.107
-27.155
-26.314
-25.597
-25.013
-24.575
-24.296
-24.188
-24.261
-24.522
-24.98
-25.639
-26.498
-27.545
-28.753
-30.094
-31.538
-33.057
-34.623
-36.209
-37.778
-39.295
-40.722
-42.021
-43.158
-44.101
-44.812
-45.273
-45.478
-45.451
-45.264
-44.998
-44.739
-44.571
-44.555
-44.764
-45.296
-46.249
-47.73
-49.822
-52.543
-55.95
-60.177
-65.247
-71.063
-77.344
-83.499
-89
-93.535
-96.669
-97.818
-96.629
-92.987
-87.257
-80.672
-74.26
-68.313
-63.526
-60.924
-60.749
-62.921
-65.408
-63.191
-53.643
-36.342
-12.119
15.489
48.326
91.79
150.493
230.399
329.741
442.624
563.799
680.614
781.063
852.148
876.128
846.596
764.813
637.31
482.221
316.286
155.496
19.951
-77.249
-130.811
-143.946
-132.842
-115.386
-101.624
-95.165
-91.857
-85.606
-76.425
-66.707
-59.414
-57.707
-61.281
-68.084
-76.521
-84.439
-90.084
-92.964
-92.964
-90.39
-86.053
-80.668
-74.813
-69.206
-64.504
-61.022
-58.861
-57.935
-57.998
-58.87
-60.411
-62.449
-64.799
-67.305
-69.848
-72.346
-74.763
-77.066
-79.19
-81.084
-82.72
-84.085
-85.183
-86.02
-86.582
-86.841
-86.796
-86.453
-85.83
-84.967
-83.885
-82.597
-81.117
-79.442
-77.581
-75.546
-73.338
-70.952
-68.39
-65.657
-62.777
-59.795
-56.734
-53.611
-50.435
-47.201
-43.914
-40.583
-37.211
-33.802
-30.358
-26.877
-23.363
-19.82
-16.247
-12.636
-8.972
-5.229
-1.39
2.553
6.606
10.77
15.045
19.431
23.923
28.511
33.185
37.936
42.755
47.633
52.56
57.52
62.495
67.466
72.413
77.319
82.163
86.929
91.596
96.146
100.562
104.829
108.93
112.846
116.56
120.054
123.31
126.313
129.046
131.494
133.644
135.484
137.002
138.191
139.042
139.549
139.709
139.517
138.974
138.079
136.835
135.246
133.317
131.056
128.47
125.571
122.37
118.879
115.113
111.087
106.818
102.323
97.621
92.731
87.673
82.468
77.138
71.703
66.187
60.611
54.997
49.367
43.742
38.145
32.594
27.11
21.71
16.414
11.237
6.195
1.303
-3.426
-7.98
-12.347
-16.518
-20.485
-24.24
-27.777
-31.092
-34.181
-37.042
-39.673
-42.076
-44.252
-46.204
-47.935
-49.45
-50.757
-51.861
-52.772
-53.497
-54.046
-54.43
-54.659
-54.743
-54.695
-54.524
-54.243
-53.863
-53.393
-52.846
-52.232
-51.56
-50.841
-50.083
-49.295
-48.486
-47.663
-46.835
-46.006
-45.185
-44.376
-43.585
-42.816
-42.073
-41.36
-40.679
-40.032
-39.421
-38.846
-38.308
-37.806
-37.339
-36.906
-36.505
-36.134
-35.791
-35.473
-35.179
-34.904
-34.648
-34.406
-34.178
-33.961
-33.754
-33.553
-33.359
-33.17
-32.985
-32.803
-32.624
-32.448
-32.275
-32.105
-31.937
-31.773
-31.614
-31.46
-31.312
-31.172
-31.042
-30.923
-30.818
-30.729
-30.659
-30.608
-30.581
-30.578
-30.604
-30.658
-30.744
-30.862
-31.015
-31.204
-31.428
-31.689
-31.986
-32.318
-32.685
-33.085
-33.515
-33.974
-34.458
-34.964
-35.489
-36.029
-36.58
-37.137
-37.696
-38.252
-38.798
-39.33
-39.842
-40.326
-40.777
-41.188
-41.553
-41.865
-42.119
-42.309
-42.429
-42.474
-42.439
-42.319
-42.112
-41.812
-41.42
-40.932
-40.348
-39.668
-38.894
-38.027
-37.072
-36.035
-34.92
-33.735
-32.489
-31.191
-29.85
-28.478
-27.083
-25.678
-24.272
-22.877
-21.506
-20.17
-18.884
-17.661
-16.517
-15.465
-14.517
-13.685
-12.976
-12.398
-11.957
-11.66
-11.519
-11.545
-11.748
-12.139
-12.727
-13.514
-14.5
-15.669
-16.995
-18.451
-20.006
-21.629
-23.295
-24.976
-26.64
-28.257
-29.785
-31.18
-32.401
-33.404
-34.148
-34.604
-34.771
-34.685
-34.419
-34.058
-33.681
-33.352
-33.141
-33.147
-33.484
-34.264
-35.598
-37.563
-40.268
-43.907
-48.575
-54.204
-60.526
-66.991
-73.017
-78.179
-81.998
-83.857
-83.386
-80.596
-76.044
-71.037
-66.884
-64.408
-64.304
-67.266
-73.51
-82.413
-92.166
-99.598
-101.328
-94.37
-75.875
-43.069
6.766
73.857
154.598
244.066
336.687
429.695
526.648
628.814
730.508
821.387
881.778
891.237
843.083
737.456
583.558
404.896
221.636
55.085
-70.891
-148.788
-178.601
-169.093
-139.694
-104.786
-75.9
-58.905
-54.101
-59.841
-69.806
-79.52
-85.584
-87.185
-88.707
-92.463
-98.918
-106.884
-112.897
-115.402
-114.618
-111.173
-106.238
-100.568
-94.581
-88.968
-84.2
-80.431
-77.605
-75.471
-73.849
-72.646
-71.761
-71.048
-70.363
-69.629
-68.84
-68.056
-67.323
-66.635
-65.965
-65.275
-64.565
-63.865
-63.216
-62.657
-62.209
-61.886
-61.698
-61.665
-61.79
-62.051
-62.398
-62.744
-63.006
-63.132
-63.088
-62.857
-62.415
-61.727
-60.763
-59.505
-57.95
-56.102
-53.961
-51.521
-48.791
-45.801
-42.598
-39.251
-35.818
-32.336
-28.83
-25.316
-21.807
-18.316
-14.845
-11.383
-7.918
-4.438
-0.936
2.589
6.145
9.747
13.417
17.179
21.052
25.042
29.155
33.39
37.742
42.207
46.768
51.407
56.103
60.838
65.594
70.356
75.106
79.821
84.482
89.065
93.549
97.915
102.143
106.21
110.099
113.79
117.266
120.512
123.511
126.249
128.709
130.877
132.74
134.286
135.505
136.387
136.923
137.11
136.943
136.42
135.542
134.309
132.726
130.797
128.529
125.931
123.013
119.786
116.263
112.459
108.389
104.07
99.519
94.755
89.797
84.667
79.384
73.972
68.451
62.845
57.175
51.465
45.737
40.012
34.314
28.664
23.081
17.588
12.202
6.942
1.825
-3.134
-7.919
-12.516
-16.915
-21.104
-25.073
-28.816
-32.325
-35.595
-38.623
-41.407
-43.945
-46.238
-48.288
-50.098
-51.672
-53.016
-54.135
-55.037
-55.73
-56.224
-56.528
-56.653
-56.609
-56.409
-56.064
-55.587
-54.99
-54.285
-53.486
-52.603
-51.649
-50.636
-49.575
-48.478
-47.354
-46.214
-45.067
-43.922
-42.785
-41.665
-40.568
-39.498
-38.461
-37.462
-36.503
-35.588
-34.719
-33.898
-33.125
-32.403
-31.731
-31.11
-30.538
-30.014
-29.539
-29.109
-28.724
-28.383
-28.082
-27.82
-27.596
-27.406
-27.249
-27.123
-27.026
-26.956
-26.912
-26.892
-26.895
-26.921
-26.97
-27.042
-27.138
-27.259
-27.407
-27.582
-27.786
-28.021
-28.287
-28.587
-28.922
-29.292
-29.699
-30.143
-30.626
-31.148
-31.709
-32.309
-32.948
-33.624
-34.337
-35.085
-35.865
-36.676
-37.516
-38.382
-39.271
-40.181
-41.107
-42.045
-42.992
-43.941
-44.888
-45.825
-46.744
-47.639
-48.5
-49.322
-50.096
-50.814
-51.472
-52.062
-52.58
-53.022
-53.382
-53.653
-53.83
-53.907
-53.879
-53.741
-53.488
-53.117
-52.627
-52.017
-51.292
-50.455
-49.51
-48.457
-47.296
-46.031
-44.671
-43.225
-41.703
-40.123
-38.501
-36.866
-35.253
-33.69
-32.198
-30.792
-29.478
-28.261
-27.151
-26.154
-25.274
-24.515
-23.875
-23.351
-22.95
-22.662
-22.47
-22.345
-22.233
-22.1
-21.93
-21.719
-21.476
-21.218
-20.952
-20.694
-20.468
-20.29
-20.175
-20.131
-20.145
-20.225
-20.385
-20.649
-21.075
-21.693
-22.502
-23.497
-24.656
-25.947
-27.359
-28.883
-30.506
-32.237
-34.099
-36.111
-38.302
-40.694
-43.324
-46.224
-49.407
-52.913
-56.757
-60.999
-65.793
-71.144
-76.891
-82.725
-88.08
-92.398
-95.334
-96.382
-94.902
-90.796
-84.306
-76.199
-68.116
-61.331
-56.538
-54.732
-56.705
-62.152
-70.132
-78.429
-83.241
-81.528
-70.688
-47.529
-9.495
45.011
115.355
197.245
285.015
373.222
459.238
545.196
630.693
711.869
780.653
818.711
810.185
747.555
628.166
465.746
284.209
106.207
-41.52
-140.743
-190.511
-197.751
-180.396
-158.877
-141.717
-131.009
-123.158
-112.046
-98.059
-84.234
-73.479
-68.83
-70.095
-75.181
-82.31
-89.205
-94.003
-96.11
-95.432
-92.322
-87.603
-82.029
-76.211
-70.878
-66.699
-63.971
-62.76
-62.933
-64.182
-66.25
-68.946
-72.044
-75.336
-78.661
-81.866
-84.831
-87.471
-89.683
-91.384
-92.533
-93.101
-93.09
-92.527
-91.447
-89.9
-87.949
-85.649
-83.054
-80.217
-77.187
-74.022
-70.783
-67.527
-64.308
-61.162
-58.112
-55.173
-52.35
-49.637
-47.026
-44.499
-42.037
-39.625
-37.253
-34.91
-32.586
-30.269
-27.944
-25.596
-23.214
-20.783
-18.293
-15.732
-13.09
-10.359
-7.533
-4.608
-1.577
1.568
4.837
8.237
11.771
15.437
19.232
23.15
27.182
31.312
35.516
39.774
44.068
48.382
52.706
57.023
61.315
65.567
69.761
73.886
77.943
81.931
85.854
89.73
93.576
97.422
101.309
105.257
109.28
113.378
117.544
121.774
126.062
130.381
134.706
139.003
143.226
147.331
151.266
154.942
158.271
161.152
163.473
165.152
166.124
166.327
165.716
164.247
161.894
158.662
154.564
149.615
143.838
137.249
129.891
121.857
113.252
104.191
94.8
85.185
75.452
65.717
56.094
46.685
37.571
28.804
20.425
12.493
5.066
-1.784
-8.019
-13.644
-18.679
-23.148
-27.082
-30.509
-33.474
-36.046
-38.305
-40.308
-42.094
-43.687
-45.103
-46.379
-47.562
-48.702
-49.832
-50.96
-52.088
-53.221
-54.365
-55.518
-56.662
-57.757
-58.755
-59.63
-60.371
-60.974
-61.44
-61.761
-61.926
-61.926
-61.763
-61.446
-60.982
-60.377
-59.633
-58.762
-57.783
-56.729
-55.631
-54.514
-53.394
-52.283
-51.192
-50.134
-49.119
-48.152
-47.235
-46.37
-45.56
-44.811
-44.127
-43.51
-42.958
-42.467
-42.035
-41.657
-41.331
-41.056
-40.83
-40.65
-40.516
-40.428
-40.388
-40.397
-40.452
-40.554
-40.7
-40.889
-41.12
-41.39
-41.697
-42.039
-42.415
-42.822
-43.258
-43.721
-44.209
-44.719
-45.248
-45.794
-46.354
-46.925
-47.504
-48.088
-48.676
-49.265
-49.852
-50.436
-51.013
-51.583
-52.141
-52.686
-53.215
-53.725
-54.212
-54.673
-55.106
-55.507
-55.871
-56.197
-56.479
-56.715
-56.901
-57.034
-57.11
-57.126
-57.079
-56.968
-56.79
-56.545
-56.23
-55.846
-55.393
-54.871
-54.281
-53.624
-52.902
-52.116
-51.269
-50.365
-49.405
-48.394
-47.337
-46.239
-45.108
-43.951
-42.776
-41.592
-40.409
-39.238
-38.087
-36.968
-35.888
-34.858
-33.885
-32.981
-32.156
-31.42
-30.784
-30.255
-29.842
-29.551
-29.387
-29.351
-29.443
-29.662
-30.009
-30.49
-31.115
-31.889
-32.818
-33.903
-35.143
-36.529
-38.045
-39.667
-41.365
-43.109
-44.871
-46.628
-48.356
-50.032
-51.619
-53.076
-54.355
-55.412
-56.212
-56.719
-56.919
-56.823
-56.47
-55.93
-55.275
-54.563
-53.86
-53.248
-52.823
-52.684
-52.939
-53.669
-54.99
-57.09
-60.06
-63.858
-68.273
-72.844
-77.083
-80.62
-83.022
-83.729
-82.425
-79.151
-74.446
-69.545
-65.691
-63.683
-64.225
-68.01
-75.279
-85.482
-96.957
-106.725
-111.544
-108.524
-94.905
-68.023
-25.299
33.636
105.746
186.609
270.868
355.468
442.888
533.748
623.018
701.875
752.965
758.047
710.911
610.5
464.477
295.154
121.584
-34.545
-149.173
-218.862
-245.605
-238.194
-216.636
-185.939
-150.693
-118.57
-89.569
-73.052
-72.948
-81.322
-93.854
-102.394
-102.885
-101.122
-99.562
-99.422
-101.12
-101.335
-98.832
-94.514
-89.045
-83.539
-78.854
-75.229
-72.821
-71.775
-71.967
-73.073
-74.862
-77.159
-79.779
-82.59
-85.442
-88.147
-90.573
-92.636
-94.259
-95.387
-95.988
-96.036
-95.54
-94.533
-93.064
-91.187
-88.954
-86.414
-83.613
-80.594
-77.413
-74.13
-70.803
-67.49
-64.232
-61.055
-57.98
-55.016
-52.165
-49.417
-46.757
-44.164
-41.62
-39.114
-36.632
-34.164
-31.697
-29.212
-26.695
-24.13
-21.502
-18.8
-16.011
-13.124
-10.13
-7.024
-3.801
-0.458
3.01
6.606
10.334
14.196
18.194
22.328
26.596
30.997
35.526
40.176
44.939
49.807
54.767
59.808
64.916
70.077
75.274
80.492
85.711
90.915
96.081
101.191
106.223
111.155
115.964
120.63
125.128
129.437
133.535
137.4
141.013
144.353
147.402
150.143
152.56
154.639
156.366
157.731
158.724
159.337
159.566
159.407
158.858
157.92
156.596
154.889
152.807
150.357
147.548
144.392
140.902
137.092
132.978
128.577
123.909
118.993
113.85
108.501
102.971
97.283
91.46
85.528
79.51
73.431
67.315
61.187
55.07
48.987
42.961
37.012
31.162
25.428
19.83
14.384
9.106
4.009
-0.893
-5.588
-10.067
-14.321
-18.341
-22.123
-25.66
-28.948
-31.987
-34.773
-37.309
-39.595
-41.634
-43.429
-44.987
-46.312
-47.412
-48.295
-48.97
-49.445
-49.731
-49.839
-49.779
-49.562
-49.199
-48.702
-48.082
-47.35
-46.517
-45.593
-44.589
-43.516
-42.382
-41.198
-39.972
-38.714
-37.433
-36.137
-34.834
-33.531
-32.237
-30.958
-29.7
-28.471
-27.275
-26.118
-25.004
-23.939
-22.926
-21.967
-21.067
-20.227
-19.45
-18.736
-18.087
-17.504
-16.987
-16.536
-16.152
-15.834
-15.583
-15.397
-15.277
-15.221
-15.229
-15.299
-15.429
-15.618
-15.862
-16.161
-16.51
-16.906
-17.345
-17.824
-18.339
-18.884
-19.455
-20.046
-20.652
-21.267
-21.885
-22.499
-23.105
-23.696
-24.265
-24.808
-25.318
-25.79
-26.217
-26.595
-26.918
-27.18
-27.377
-27.501
-27.55
-27.517
-27.399
-27.192
-26.893
-26.498
-26.007
-25.417
-24.727
-23.938
-23.05
-22.064
-20.982
-19.809
-18.548
-17.206
-15.787
-14.301
-12.754
-11.158
-9.522
-7.857
-6.174
-4.487
-2.807
-1.146
0.482
2.067
3.596
5.056
6.437
7.727
8.913
9.985
10.93
11.735
12.391
12.889
13.224
13.392
13.391
13.216
12.862
12.326
11.607
10.702
9.609
8.33
6.87
5.244
3.485
1.624
-0.305
-2.27
-4.247
-6.206
-8.119
-9.954
-11.678
-13.258
-14.668
-15.878
-16.852
-17.568
-18.009
-18.199
-18.212
-18.125
-18.018
-17.96
-17.984
-18.146
-18.537
-19.232
-20.316
-21.874
-23.921
-26.547
-29.936
-34.105
-38.933
-44.094
-48.934
-52.863
-55.517
-56.384
-54.9
-50.962
-44.78
-37.166
-29.769
-23.937
-20.507
-20.412
-24.298
-31.803
-41.815
-52.046
-58.827
-58.667
-48.549
-25.334
13.888
69.292
137.984
216.154
298.358
382.095
470.557
563.105
653.224
730.267
775.438
772.504
718.483
615.199
471.859
308.842
142.657
-6.408
-114.725
-176.346
-191.969
-172.805
-140.9
-107.028
-79.516
-60.672
-46.565
-39.48
-37.045
-37.752
-42.217
-46.276
-50.58
-55.763
-59.752
-63.038
-64.352
-62.312
-57.783
-51.389
-43.958
-36.707
-30.373
-25.264
-21.574
-19.297
-18.176
-18.012
-18.673
-19.936
-21.601
-23.539
-25.602
-27.668
-29.668
-31.485
-32.986
-34.084
-34.713
-34.843
-34.483
-33.652
-32.371
-30.68
-28.623
-26.247
-23.595
-20.712
-17.641
-14.432
-11.143
-7.828
-4.544
-1.328
1.794
4.809
7.718
10.527
13.25
15.903
18.504
21.07
23.613
26.145
28.672
31.206
33.757
36.338
38.965
41.648
44.398
47.224
50.134
53.135
56.234
59.432
62.73
66.128
69.627
73.229
76.939
80.76
84.695
88.737
92.882
97.122
101.446
105.837
110.271
114.714
119.142
123.536
127.883
132.176
136.406
140.563
144.638
148.625
152.515
156.305
159.988
163.551
166.994
170.324
173.56
176.739
179.878
182.979
186.037
189.031
191.941
194.741
197.398
199.87
202.122
204.125
205.855
207.297
208.414
209.164
209.488
209.313
208.581
207.251
205.283
202.661
199.381
195.45
190.895
185.751
180.043
173.798
167.039
159.792
152.112
144.063
135.721
127.187
118.559
109.942
101.454
93.186
85.212
77.595
70.381
63.616
57.352
51.633
46.497
41.969
38.052
34.745
32.033
29.878
28.225
26.999
26.103
25.464
25.025
24.735
24.551
24.423
24.297
24.135
23.91
23.601
23.194
22.676
22.038
21.29
20.457
19.581
18.715
17.896
17.148
16.492
15.945
15.525
15.252
15.13
15.154
15.319
15.621
16.057
16.626
17.313
18.096
18.951
19.847
20.762
21.682
22.592
23.479
24.332
25.144
25.911
26.637
27.321
27.96
28.552
29.094
29.586
30.03
30.429
30.785
31.1
31.376
31.614
31.816
31.982
32.111
32.201
32.249
32.255
32.216
32.134
32.008
31.84
31.632
31.387
31.105
30.79
30.445
30.068
29.66
29.22
28.745
28.236
27.691
27.113
26.501
25.859
25.187
24.492
23.777
23.044
22.294
21.519
20.718
19.893
19.048
18.192
17.336
16.489
15.662
14.873
14.133
13.447
12.816
12.226
11.663
11.125
10.613
10.135
9.697
9.295
8.92
8.568
8.221
7.865
7.474
7.006
6.432
5.744
4.945
4.057
3.106
2.103
1.055
-0.028
-1.134
-2.238
-3.317
-4.353
-5.316
-6.164
-6.846
-7.289
-7.444
-7.295
-6.832
-6.068
-5.015
-3.672
-2.052
-0.187
1.892
4.141
6.514
8.969
11.444
13.85
16.095
18.081
19.732
21.008
21.866
22.269
22.174
21.537
20.334
18.569
16.249
13.385
10.005
6.149
1.889
-2.659
-7.386
-12.193
-16.999
-21.747
-26.369
-30.787
-34.913
-38.665
-41.976
-44.806
-47.116
-48.869
-50.062
-50.739
-50.991
-50.962
-50.775
-50.509
-50.252
-50.099
-50.158
-50.563
-51.456
-52.916
-55.055
-58.054
-61.945
-66.646
-71.911
-77.192
-81.949
-85.814
-88.3
-88.86
-87.434
-84.244
-79.915
-75.848
-73.126
-72.29
-74.174
-79.4
-87.521
-97.518
-107.398
-113.749
-113.826
-105.441
-85.639
-51.951
-3.125
59.807
132.627
209.845
285.884
359.533
433.29
504.929
571.474
623.409
640.982
614.547
538.619
413.535
261.177
102.372
-41.575
-145.175
-203.655
-221.478
-209.515
-189.786
-173.577
-163.802
-159.655
-154.008
-145.143
-135.776
-128.37
-126.328
-130.085
-137.477
-146.692
-155.631
-162.579
-167.017
-168.768
-168.008
-165.4
-161.645
-157.376
-153.294
-150.037
-147.904
-146.996
-147.253
-148.458
-150.428
-153.014
-156.038
-159.324
-162.737
-166.173
-169.536
-172.757
-175.745
-178.396
-180.643
-182.446
-183.79
-184.682
-185.147
-185.208
-184.904
-184.283
-183.388
-182.264
-180.953
-179.496
-177.94
-176.338
-174.738
-173.188
-171.723
-170.366
-169.131
-168.025
-167.045
-166.188
-165.443
-164.798
-164.241
-163.766
-163.364
-163.027
-162.744
-162.503
-162.293
-162.103
-161.924
-161.747
-161.566
-161.375
-161.171
-160.95
-160.71
-160.445
-160.149
-159.818
-159.442
-159.017
-158.539
-158.004
-157.406
-156.739
-155.992
-155.153
-154.202
-153.117
-151.87
-150.432
-148.777
-146.879
-144.719
-142.281
-139.56
-136.553
-133.258
-129.672
-125.793
-121.629
-117.202
-112.549
-107.712
-102.747
-97.724
-92.718
-87.814
-83.093
-78.619
-74.435
-70.555
-66.973
-63.668
-60.63
-57.847
-55.282
-52.885
