Name
Date of Birth,"Mar 27, 1959"
Recorded Date,2019-10-13 00:47:24 -0500
Classification,Sinus Rhythm
Symptoms,
Software Version,1.30
Device,"Watch4,2"
Sample Rate,514.062 hertz


Lead,Lead I
Unit,µV

9.822
-11.405
-33.235
-54.799
-72.497
-86.025
-103.781
-118.273
-114.513
-120.582
-166.128
-215.549
-233.422
-235.935
-238.336
-238.096
-236.176
-235.742
-237.02
-237.595
-236.182
-232.057
-224.359
-214.86
-204.609
-195.017
-187.983
-182.059
-176.832
-170.843
-161.023
-147.345
-128.271
-103.865
-77.682
-52.368
-32.678
-21.914
-18.918
-21.43
-24.104
-21.231
-10.758
7.957
32.072
56.247
77.435
93.923
106.289
117.418
128.929
140.29
152.271
164.022
168.767
178.662
212.327
234.799
206.217
159.534
134.5
120.567
109.585
114.361
133.811
155.428
169.081
165.016
141.815
105.159
62.309
21.154
-16.863
-52.771
-86.196
-115.158
-133.526
-137.197
-127.738
-110.714
-93.258
-80.051
-71.076
-63.291
-54.848
-45.636
-36.591
-29.5
-24.69
-21.129
-18.223
-15.595
-13.037
-10.748
-8.812
-7.28
-6.398
-7.005
-10.321
-16.047
-23.039
-29.259
-30.968
-28.157
-24.061
-21.772
-26.651
-38.972
-52.648
-64.456
-70.555
-73.015
-80.41
-89.647
-109.466
-152.52
-176.686
-141.878
-82.291
-40.954
-18.171
-7.139
-27.503
-91.923
-153.801
-164.173
-145.868
-133.164
-118.088
-97.156
-83.289
-76.242
-70.749
-65.599
-60.955
-61.214
-67.535
-76.066
-83.436
-85.22
-80.369
-72.51
-64.106
-57.018
-51.895
-47.232
-42.442
-37.721
-32.988
-28.485
-24.281
-19.948
-15.922
-12.72
-9.533
-5.995
-0.444
8.844
19.816
31.197
40.783
46.018
50.193
55.058
60.902
68.58
72.808
70.498
64.135
57.034
58.088
74.716
105.724
145.2
180.968
199.783
195.807
171.832
138.522
110.089
98.03
104.804
124.795
148.473
165.139
170.141
164.937
153.635
142.145
133.588
127.627
123.065
118.985
115.971
116.021
118.754
121.516
124.548
113.897
70.044
24.361
19.062
31.675
38.462
58.294
97.294
141.303
176.98
194.744
191.526
165.474
120.687
67.283
12.744
-30.981
-53.054
-50.995
-23.893
19.936
65.948
105.148
128.03
130.045
115.8
89.696
59.845
36.013
20.834
13.351
9.557
3.374
-6.883
-18.678
-28.065
-30.868
-23.909
-5.585
25.129
68.88
123.057
185.911
260.879
338.424
399.518
465.409
582.73
734.992
846.197
888.545
910.847
942.48
952.654
914.05
829.188
705.53
540.232
337.173
148.223
29.547
-36.886
-84.441
-101.892
-87.189
-59.93
-29.811
-4.176
8.007
1.761
-23.658
-59.631
-91.35
-106.24
-98.683
-72.56
-37.979
-4.94
21.531
40.261
50.318
50.826
38.863
12.809
-22.552
-59.621
-88.71
-102.041
-99.477
-86.073
-70.259
-59.658
-57.201
-61.698
-69.114
-76.212
-81.868
-86.305
-90.755
-95.55
-100.053
-103.789
-106.373
-107.749
-108.191
-107.809
-106.591
-104.628
-102.039
-98.898
-95.257
-91.141
-86.556
-81.592
-76.405
-71.119
-65.833
-60.633
-55.58
-50.756
-46.275
-42.231
-38.713
-35.8
-33.53
-31.925
-30.994
-30.698
-30.974
-31.727
-32.821
-34.136
-35.561
-36.988
-38.329
-39.49
-40.357
-40.824
-40.78
-40.104
-38.706
-36.52
-33.503
-29.658
-25.015
-19.635
-13.615
-7.063
-0.091
7.204
14.744
22.462
30.297
38.187
46.062
53.842
61.446
68.811
75.901
82.707
89.208
95.418
101.385
107.176
112.911
118.704
124.598
130.604
136.831
143.393
150.246
157.409
164.908
172.528
180.815
190.289
200.116
209.984
218.365
223.401
226.814
229.735
233.955
241.965
251.377
260.137
266.763
268.957
268.286
266.222
262.855
259.087
254.392
248.043
240.472
231.243
219.304
205.294
190.393
176.64
167.771
163.552
160.63
155.615
143.633
124.778
103.942
84.901
71.751
65.073
61.375
58.549
55.094
50.642
46.595
43.494
41.212
39.649
38.46
37.501
36.687
35.667
34.223
32.31
29.827
26.926
23.188
17.574
10.651
3.606
-1.622
-1.62
3.614
11.648
19.27
20.874
13.897
-0.811
-21.041
-41.366
-56.598
-62.943
-58.119
-43.607
-22.786
-1.223
15.488
25.517
28.257
25.956
21.861
16.003
8.942
1.588
-3.707
-2.85
6.592
23.656
41.68
54.156
56.845
48.504
35.179
21.969
11.558
6.06
2.711
-0.66
-4.252
-8.872
-13.672
-17.841
-21.624
-24.881
-27.573
-29.806
-31.422
-32.342
-32.673
-32.4
-31.396
-29.753
-27.666
-25.218
-22.712
-19.809
-15.394
-9.856
-4.313
-0.669
-2.317
-8.882
-17.085
-23.569
-23.57
-17.046
-8.396
-0.971
1.516
-1.318
-6.105
-10.851
-14.109
-15.528
-16.467
-17.485
-18.548
-19.693
-20.705
-21.545
-22.394
-23.308
-24.272
-25.313
-26.458
-27.71
-29.073
-30.535
-32.073
-33.683
-35.373
-37.128
-38.925
-40.743
-42.566
-44.387
-46.196
-47.988
-49.76
-51.513
-53.254
-54.987
-56.71
-58.407
-60.052
-61.626
-63.126
-64.607
-66.195
-67.997
-70.059
-72.367
-74.849
-77.432
-80.114
-82.723
-84.829
-86.184
-86.765
-86.836
-87.086
-87.495
-87.312
-86.313
-84.959
-85.346
-90.243
-100.722
-115.448
-129.423
-137.061
-133.306
-113.907
-81.523
-41.209
-1.31
23.954
27.959
8.673
-30.868
-76.399
-116.544
-143.217
-151.114
-144.081
-128.501
-111.287
-98.592
-92.312
-91.013
-90.89
-89.068
-85.197
-80.074
-75.6
-72.853
-70.92
-69.054
-66.999
-64.599
-62.129
-59.708
-57.011
-53.747
-49.941
-45.78
-41.486
-37.082
-32.689
-28.113
-22.165
-14.96
-7.799
-2.252
-2.451
-10.076
-21.077
-30.573
-31.198
-17.862
3.999
26.108
40.022
38.387
24.662
7.097
-8.279
-15.864
-16.369
-14.89
-13.95
-15.388
-19.359
-23.842
-28.09
-32.106
-35.753
-39.286
-42.785
-46.012
-48.885
-51.455
-53.748
-55.82
-57.807
-59.797
-61.829
-64.051
-66.678
-69.835
-73.627
-77.944
-82.318
-86.386
-90.008
-92.736
-93.961
-93.395
-90.683
-86.574
-83.39
-81.971
-82.267
-83.184
-81.152
-75.635
-68.771
-63.724
-66.501
-78.624
-95.819
-109.643
-106.341
-74.988
-10.827
83.773
199.054
323.711
446.013
557.205
651.471
722.628
767.493
783.261
766.36
716.638
635.159
523.917
390.519
244.891
97.987
-35.442
-144.353
-221.334
-261.982
-269.296
-247.218
-202.133
-144.164
-82.378
-28.529
7.691
24.321
23.196
11.481
-2.099
-14.402
-24.85
-35.215
-48.499
-64.323
-80.773
-95.51
-106.02
-111.476
-112.809
-111.835
-109.601
-106.464
-101.516
-92.4
-79.454
-64.829
-51.293
-44.117
-46.193
-57.785
-78.354
-102.163
-121.518
-129.404
-119.157
-92.029
-56.014
-21.131
-0.011
1.701
-13.52
-40.661
-68.425
-87.54
-95.138
-89.649
-76.452
-63.525
-54.736
-53.425
-58.682
-66.048
-73.348
-78.967
-82.413
-85.029
-87.18
-88.657
-89.466
-89.362
-88.335
-86.742
-84.792
-82.434
-79.706
-76.729
-73.332
-69.866
-66.702
-63.109
-58.982
-53.228
-43.82
-31.415
-16.763
-2.624
4.833
2.705
-10.102
-31.16
-50.926
-61.151
-55.996
-33.818
-2.678
27.146
46.129
48.025
35.755
16.632
-0.661
-9.247
-8.279
-0.535
9.513
18.345
25.138
30.503
35.729
41.51
47.733
54.183
60.642
67.11
73.742
80.568
87.537
94.573
101.552
108.318
114.701
120.527
125.638
129.933
133.344
135.822
137.345
137.919
137.583
136.388
134.382
131.606
128.112
123.966
119.253
114.085
108.567
102.797
96.881
90.904
84.946
79.074
73.33
67.736
62.297
57.012
51.878
46.895
42.053
37.335
32.715
28.156
23.635
19.135
14.636
10.13
5.607
1.066
-3.485
-8.027
-12.545
-17.021
-21.436
-25.774
-30.012
-34.119
-38.071
-41.839
-45.405
-48.759
-51.891
-54.803
-57.503
-60.008
-62.341
-64.519
-66.55
-68.437
-70.18
-71.778
-73.232
-74.548
-75.723
-76.757
-77.652
-78.408
-79.022
-79.483
-79.758
-79.797
-79.556
-78.997
-78.1
-76.865
-75.296
-73.413
-71.252
-68.86
-66.301
-63.629
-60.895
-58.143
-55.428
-52.814
-50.386
-48.252
-46.511
-45.264
-44.594
-44.562
-45.218
-46.571
-48.589
-51.209
-54.341
-57.893
-61.777
-65.901
-70.153
-74.419
-78.575
-82.491
-86.041
-89.088
-91.494
-93.136
-93.91
-93.764
-92.693
-90.742
-87.982
-84.501
-80.401
-75.804
-70.858
-65.708
-60.485
-55.307
-50.283
-45.54
-41.217
-37.452
-34.36
-32.013
-30.447
-29.659
-29.629
-30.314
-31.641
-33.507
-35.788
-38.366
-41.161
-44.115
-47.167
-50.239
-53.236
-56.069
-58.661
-60.921
-62.758
-64.118
-64.973
-65.346
-65.317
-64.951
-64.379
-63.888
-63.677
-63.759
-64.111
-64.595
-65.573
-68.029
-72.347
-77.872
-81.813
-80.28
-71.354
-56.041
-40.372
-32.104
-35.624
-51.585
-73.333
-91.376
-100.071
-96.476
-84.406
-71.365
-61.64
-58.238
-60.42
-64.307
-68.022
-70.374
-71.061
-71.304
-71.504
-71.55
-71.521
-71.243
-70.652
-69.905
-69.152
-68.492
-67.924
-67.481
-67.172
-66.778
-66.813
-67.761
-68.847
-69.845
-69.236
-65.204
-59.675
-53.935
-49.83
-50.084
-51.925
-53.065
-53.085
-50.046
-47.053
-47.316
-49.544
-54.477
-59.277
-59.436
-55.791
-47.082
-35.064
-25.442
-19.666
-20.539
-27.832
-36.151
-42.727
-44.679
-41.331
-36.029
-30.709
-26.621
-24.234
-22.32
-20.312
-18.267
-16.205
-14.404
-12.953
-11.764
-10.929
-10.567
-10.763
-11.665
-13.37
-15.802
-18.992
-22.925
-27.187
-32.108
-38.1
-44.348
-50.708
-55.32
-55.342
-52.034
-47.129
-44.91
-51.569
-66.424
-85.668
-102.559
-108.748
-103.164
-89.647
-74.762
-65.455
-63.705
-67.582
-73.442
-78.15
-80.612
-81.497
-82.352
-83.88
-86.216
-88.807
-90.115
-90.09
-89.706
-90.133
-93.593
-100.143
-107.666
-113.715
-114.873
-108.969
-95.689
-76.907
-56.411
-39.019
-30.326
-32.8
-46.292
-67.547
-88.339
-98.919
-88.216
-46.468
30.373
139.779
272.68
414.87
551.883
672.484
767.617
832.802
864.868
857.662
806.529
708.458
564.311
386.466
196.709
19.231
-121.043
-208.048
-241.382
-228.367
-184.096
-127.259
-70.541
-24.654
3.097
11.284
0.329
-25.187
-57.159
-87.055
-106.507
-111.024
-101.371
-82.71
-63.201
-49.013
-42.204
-41.134
-41.532
-40.527
-37.7
-34.023
-31.269
-30.23
-30.666
-32.243
-34.627
-37.697
-41.477
-45.824
-50.508
-55.335
-60.139
-64.752
-69.007
-72.752
-75.868
-78.29
-80.004
-80.991
-81.246
-80.795
-79.675
-77.95
-75.699
-73.006
-69.97
-66.696
-63.278
-59.798
-56.323
-52.892
-49.533
-46.268
-43.103
-40.046
-37.104
-34.282
-31.589
-29.032
-26.598
-24.26
-21.997
-19.797
-17.64
-15.489
-13.285
-10.995
-8.641
-6.283
-3.981
-1.765
0.288
1.946
3.005
3.411
3.23
2.705
1.582
-0.928
-4.95
-9.672
-12.431
-9.61
0.096
15.401
32.028
44.291
49.56
47.147
37.851
24.268
7.73
-8.145
-16.438
-11.124
12.308
51.76
97.001
135.309
155.778
153.921
134.045
106.901
83.995
74.476
81.951
102.351
128.438
151.847
166.429
171.621
169.94
165.587
161.942
159.82
158.733
157.579
155.782
153.506
151.009
148.473
145.84
142.928
139.673
136.11
132.298
128.3
124.16
119.916
115.615
111.297
106.979
102.649
98.284
93.859
89.342
84.723
80.002
75.179
70.261
65.25
60.139
54.935
49.657
44.32
38.944
33.546
28.14
22.752
17.413
12.158
7.021
2.03
-2.8
-7.449
-11.904
-16.149
-20.174
-23.97
-27.536
-30.868
-33.963
-36.817
-39.427
-41.794
-43.922
-45.817
-47.485
-48.932
-50.164
-51.188
-52.012
-52.644
-53.09
-53.357
-53.454
-53.389
-53.17
-52.808
-52.314
-51.699
-50.974
-50.15
-49.236
-48.243
-47.181
-46.06
-44.891
-43.682
-42.437
-41.173
-39.902
-38.636
-37.39
-36.166
-34.96
-33.787
-32.663
-31.57
-30.499
-29.438
-28.373
-27.322
-26.322
-25.357
-24.394
-23.524
-22.853
-22.318
-21.924
-21.691
-21.39
-21.633
-23.014
-24.679
-26.366
-26.506
-23.221
-18.583
-13.972
-11.444
-13.822
-18.602
-23.657
-27.53
-27.812
-26.218
-24.481
-22.984
-22.783
-23.257
-23.609
-23.985
-24.28
-24.543
-24.931
-25.334
-25.666
-25.954
-26.2
-26.389
-26.522
-26.599
-26.623
-26.612
-26.584
-26.524
-26.428
-26.312
-26.183
-26.057
-25.939
-25.803
-25.643
-25.479
-25.295
-25.054
-24.739
-24.306
-23.746
-23.141
-22.526
-21.856
-21.217
-20.813
-20.662
-20.72
-21.05
-21.341
-21.931
-24.228
-27.933
-31.796
-33.985
-30.109
-19.868
-7.883
1.78
2.255
-8.494
-23.436
-37.338
-44.03
-40.202
-31.967
-23.607
-18.047
-17.946
-20.172
-22.428
-24.411
-25.098
-25.277
-25.72
-26.071
-26.355
-26.555
-26.514
-26.314
-26.033
-25.651
-25.176
-24.651
-24.08
-23.437
-22.711
-21.887
-20.948
-19.905
-18.763
-17.516
-16.159
-14.698
-13.137
-11.489
-9.766
-7.98
-6.146
-4.282
-2.419
-0.581
1.205
2.916
4.539
6.062
7.47
8.748
9.882
10.865
11.701
12.399
12.96
13.393
13.708
13.924
14.081
14.209
14.332
14.463
14.6
14.738
14.871
14.99
15.074
15.094
15.012
14.788
14.407
13.853
13.108
12.148
10.93
9.425
7.625
5.54
3.19
0.608
-2.173
-5.109
-8.133
-11.178
-14.178
-17.096
-19.942
-22.739
-25.517
-28.288
-31.037
-33.782
-36.579
-39.491
-42.587
-45.926
-49.524
-53.479
-57.993
-63.115
-68.765
-74.701
-80.363
-85.239
-88.985
-91.047
-90.762
-87.927
-82.571
-75.094
-66.871
-59.172
-52.793
-49.133
-48.728
-49.995
-51.36
-50.835
-46.884
-41.84
-37.355
-30.807
-16.298
16.835
78.661
171.019
289.42
423.895
560.25
688.107
798.358
881.025
930.155
938.149
898.875
813.756
686.351
526.921
353.246
182.401
33.236
-78.685
-148.767
-178.399
-178.267
-164.409
-148.114
-138.17
-135.744
-135.421
-132.694
-122.742
-104.495
-81.254
-57.224
-37.28
-23.996
-17.631
-17.069
-19.753
-24.233
-29.798
-35.306
-40.369
-44.5
-46.592
-46.419
-44.432
-40.962
-36.839
-33.162
-30.355
-28.759
-28.874
-30.707
-34.108
-38.921
-44.601
-50.497
-56.257
-61.602
-66.311
-70.346
-73.623
-76.058
-77.712
-78.663
-78.971
-78.693
-77.846
-76.436
-74.516
-72.168
-69.476
-66.543
-63.452
-60.279
-57.104
-53.995
-51.002
-48.152
-45.45
-42.891
-40.466
-38.172
-35.992
-33.891
-31.864
-29.932
-28.109
-26.404
-24.8
-23.227
-21.658
-20.137
-18.601
-16.856
-14.87
-12.707
-10.361
-8.081
-5.487
-1.438
3.749
9.053
12.677
11.333
5.416
-1.779
-6.898
-5.203
3.387
14.491
24.747
30.456
31.204
30.349
29.9
31.297
34.901
39.356
44.097
49.152
54.472
60.244
66.483
72.978
79.658
86.526
93.541
100.651
107.801
114.927
121.985
128.939
135.737
142.308
148.591
154.527
160.056
165.108
169.611
173.497
176.702
179.176
180.877
181.776
181.862
181.139
179.617
177.317
174.268
170.491
166.015
160.879
155.131
148.851
142.127
135.043
127.692
120.162
112.542
104.914
97.337
89.858
82.512
75.327
68.332
61.563
55.054
48.834
42.929
37.335
32.044
27.038
22.29
17.762
13.407
9.185
5.073
1.062
-2.847
-6.653
-10.357
-13.965
-17.484
-20.924
-24.3
-27.617
-30.879
-34.078
-37.194
-40.2
-43.056
-45.731
-48.203
-50.46
-52.499
-54.32
-55.924
-57.315
-58.5
-59.481
-60.254
-60.816
-61.167
-61.317
-61.275
-61.057
-60.685
-60.178
-59.563
-58.871
-58.108
-57.279
-56.417
-55.546
-54.684
-53.858
-53.064
-52.281
-51.537
-50.876
-50.218
-49.47
-48.695
-47.891
-47.042
-46.365
-45.28
-43.222
-41.005
-38.876
-38.329
-41.147
-45.361
-49.654
-52.071
-49.92
-45.578
-41.059
-37.741
-37.903
-39.911
-42.106
-44.116
-44.93
-45.128
-45.46
-45.779
-46.175
-46.596
-46.885
-47.137
-47.429
-47.732
-48.036
-48.348
-48.663
-48.974
-49.275
-49.55
-49.78
-49.971
-50.13
-50.252
-50.338
-50.39
-50.404
-50.386
-50.339
-50.263
-50.161
-50.035
-49.888
-49.725
-49.55
-49.367
-49.18
-48.994
-48.812
-48.641
-48.483
-48.343
-48.226
-48.135
-48.073
-48.045
-48.053
-48.101
-48.19
-48.325
-48.505
-48.734
-49.012
-49.339
-49.715
-50.139
-50.611
-51.128
-51.689
-52.29
-52.927
-53.599
-54.299
-55.024
-55.767
-56.523
-57.284
-58.044
-58.796
-59.532
-60.244
-60.924
-61.565
-62.16
-62.702
-63.182
-63.594
-63.932
-64.189
-64.357
-64.43
-64.403
-64.27
-64.025
-63.665
-63.186
-62.587
-61.866
-61.024
-60.06
-58.978
-57.78
-56.468
-55.047
-53.518
-51.889
-50.164
-48.351
-46.457
-44.491
-42.464
-40.39
-38.282
-36.155
-34.022
-31.892
-29.78
-27.701
-25.672
-23.713
-21.841
-20.075
-18.44
-16.965
-15.679
-14.61
-13.777
-13.187
-12.845
-12.758
-12.93
-13.367
-14.065
-15.006
-16.18
-17.575
-19.181
-20.981
-22.943
-25.01
-27.12
-29.213
-31.242
-33.176
-34.988
-36.644
-38.121
-39.401
-40.481
-41.378
-42.097
-42.624
-42.954
-43.087
-43.05
-42.923
-42.813
-42.821
-43.053
-43.591
-44.494
-45.841
-47.713
-50.17
-53.257
-56.983
-61.346
-66.402
-72.27
-78.983
-86.399
-94.197
-101.864
-108.883
-114.867
-119.384
-121.814
-121.718
-119.171
-114.665
-109.141
-103.74
-99.157
-95.934
-95.174
-97.084
-100.077
-102.111
-100.392
-93.103
-81.424
-66.282
-46.339
-17.788
24.967
87.198
171.171
274.319
391.97
516.562
637.401
744.526
826.957
874.222
878.387
833.478
739.361
602.37
436.616
263.179
102.967
-25.198
-109.829
-150.744
-153.886
-132.136
-100.766
-71.099
-52.885
-48.836
-55.928
-69.772
-82.402
-89.773
-92.427
-92.195
-93.583
-98.397
-105.128
-111.806
-116.077
-117.114
-115.563
-112.153
-107.585
-102.387
-97.014
-92.032
-87.796
-84.374
-81.675
-79.499
-77.709
-76.233
-74.954
-73.728
-72.45
-71.063
-69.581
-68.081
-66.609
-65.175
-63.776
-62.39
-61.026
-59.727
-58.537
-57.497
-56.648
-56.011
-55.605
-55.454
-55.563
-55.906
-56.431
-57.046
-57.66
-58.207
-58.64
-58.93
-59.047
-58.946
-58.586
-57.936
-56.969
-55.673
-54.039
-52.06
-49.746
-47.13
-44.262
-41.216
-38.063
-34.857
-31.641
-28.44
-25.274
-22.166
-19.138
-16.212
-13.416
-10.762
-8.252
-5.887
-3.649
-1.514
0.548
2.59
4.663
6.811
9.077
11.487
14.063
16.836
19.838
23.117
26.732
30.717
35.091
39.868
45.042
50.613
56.576
62.895
69.523
76.411
83.499
90.742
98.094
105.486
112.839
120.053
127.018
133.65
139.885
145.658
150.914
155.591
159.625
162.989
165.673
167.676
169.003
169.655
169.64
168.992
167.763
166.024
163.845
161.276
158.354
155.12
151.617
147.895
144.01
139.992
135.858
131.627
127.313
122.936
118.51
114.029
109.474
104.819
100.048
95.16
90.161
85.057
79.854
74.552
69.158
63.685
58.154
52.583
46.989
41.388
35.798
30.25
24.777
19.415
14.195
9.136
4.257
-0.426
-4.898
-9.146
-13.159
-16.935
-20.469
-23.756
-26.79
-29.568
-32.088
-34.353
-36.368
-38.14
-39.675
-40.979
-42.06
-42.925
-43.583
-44.042
-44.312
-44.399
-44.315
-44.069
-43.675
-43.144
-42.491
-41.727
-40.865
-39.919
-38.902
-37.825
-36.7
-35.538
-34.351
-33.149
-31.942
-30.739
-29.551
-28.386
-27.252
-26.156
-25.105
-24.106
-23.163
-22.28
-21.463
-20.713
-20.034
-19.427
-18.892
-18.431
-18.043
-17.727
-17.481
-17.302
-17.189
-17.138
-17.145
-17.205
-17.315
-17.471
-17.667
-17.9
-18.164
-18.455
-18.769
-19.101
-19.447
-19.802
-20.163
-20.524
-20.883
-21.234
-21.575
-21.901
-22.21
-22.499
-22.764
-23.003
-23.215
-23.397
-23.548
-23.668
-23.756
-23.813
-23.838
-23.834
-23.801
-23.741
-23.656
-23.548
-23.42
-23.275
-23.114
-22.941
-22.758
-22.569
-22.376
-22.183
-21.993
-21.81
-21.636
-21.475
-21.331
-21.208
-21.109
-21.039
-21
-20.997
-21.033
-21.112
-21.235
-21.406
-21.627
-21.898
-22.22
-22.592
-23.015
-23.485
-24.002
-24.564
-25.168
-25.811
-26.491
-27.205
-27.951
-28.725
-29.522
-30.337
-31.164
-31.998
-32.833
-33.662
-34.478
-35.273
-36.039
-36.77
-37.458
-38.091
-38.658
-39.142
-39.532
-39.821
-40.005
-40.079
-40.041
-39.901
-39.67
-39.363
-38.998
-38.581
-38.108
-37.579
-36.994
-36.326
-35.567
-34.727
-33.8
-32.793
-31.734
-30.63
-29.489
-28.428
-27.534
-26.672
-25.778
-24.873
-23.705
-22.704
-22.294
-21.607
-20.437
-17.477
-10.601
-0.837
10.939
22.114
27.208
24.737
14.862
0.547
-10.276
-12.867
-5.999
8.062
21.849
29.769
29.979
23.396
14.276
5.888
-0.858
-6.119
-11.117
-16.521
-22.104
-27.614
-32.803
-37.605
-42.103
-46.267
-49.998
-53.217
-55.864
-57.912
-59.345
-60.152
-60.368
-60.062
-59.326
-58.289
-57.097
-55.896
-54.834
-54.048
-53.653
-53.801
-54.685
-56.377
-58.82
-61.787
-64.857
-67.629
-69.822
-71.107
-71.032
-69.362
-66.217
-62.127
-58.154
-55.298
-53.953
-54.27
-56.588
-60.903
-66.556
-72.313
-75.227
-71.464
-58.606
-34.744
-0.297
41.273
87.624
136.632
189.417
251.754
327.256
417.812
520.279
623.505
715.311
782.532
811.302
793.449
726.309
612.61
465.362
303.427
146.31
13.703
-82.677
-140.623
-164.977
-166.684
-154.613
-134.538
-109.663
-81.493
-55.937
-39.561
-35.812
-44.873
-60.839
-76.012
-86.221
-90.201
-89.654
-87.654
-85.346
-82.705
-79.351
-74.565
-68.58
-62.182
-56.065
-50.934
-47.072
-44.403
-42.793
-42.067
-42.095
-42.799
-44.097
-45.879
-48.045
-50.506
-53.172
-55.967
-58.805
-61.592
-64.263
-66.772
-69.091
-71.213
-73.131
-74.822
-76.249
-77.377
-78.161
-78.582
-78.643
-78.353
-77.738
-76.832
-75.669
-74.284
-72.708
-70.96
-69.051
-66.987
-64.771
-62.424
-59.976
-57.462
-54.927
-52.405
-49.913
-47.467
-45.071
-42.724
-40.42
-38.151
-35.905
-33.673
-31.449
-29.228
-27.006
-24.772
-22.51
-20.198
-17.811
-15.327
-12.731
-10.011
-7.16
-4.175
-1.051
2.212
5.615
9.155
12.826
16.625
20.547
24.583
28.717
32.926
37.18
41.454
45.729
49.991
54.233
58.448
62.624
66.756
70.839
74.868
78.84
82.747
86.578
90.329
94.004
97.62
101.209
104.786
108.348
111.886
115.376
118.792
122.105
125.272
128.238
130.959
133.39
135.5
137.273
138.675
139.668
140.201
140.209
139.646
138.494
136.742
134.394
131.467
127.99
124.012
119.612
114.852
109.787
104.461
98.903
93.157
87.275
81.316
75.348
69.425
63.588
57.874
52.318
46.936
41.74
36.719
31.838
27.075
22.423
17.878
13.452
9.148
4.955
0.874
-3.085
-6.916
-10.608
-14.162
-17.596
-20.909
-24.075
-27.091
-29.967
-32.715
-35.357
-37.892
-40.271
-42.484
-44.582
-46.516
-48.117
-49.358
-50.299
-50.924
-51.436
-51.469
-49.911
-47.044
-43.899
-42.21
-45.185
-52.564
-61.164
-67.787
-67.892
-61.298
-52.29
-44.176
-40.556
-41.984
-45.258
-48.44
-50.179
-50.105
-49.531
-49.038
-48.588
-48.226
-47.754
-47.128
-46.527
-46.001
-45.52
-45.089
-44.714
-44.388
-44.101
-43.837
-43.562
-43.268
-42.966
-42.659
-42.345
-42.024
-41.694
-41.355
-41.012
-40.665
-40.314
-39.957
-39.595
-39.229
-38.859
-38.487
-38.114
-37.739
-37.366
-36.994
-36.625
-36.262
-35.905
-35.558
-35.222
-34.898
-34.59
-34.299
-34.03
-33.785
-33.568
-33.382
-33.226
-33.106
-33.026
-32.98
-32.965
-32.98
-33.02
-33.09
-33.195
-33.335
-33.505
-33.728
-34.025
-34.403
-34.868
-35.413
-36.013
-36.665
-37.382
-38.07
-38.609
-39.074
-39.487
-39.81
-40.22
-40.234
-39.402
-38.444
-37.599
-38.314
-42.091
-47.595
-54.112
-58.967
-59.332
-56.044
-49.31
-42.373
-38.705
-38.636
-43.187
-49.69
-55.211
-58.97
-59.467
-58.15
-56.716
-55.472
-55.249
-55.573
-55.785
-55.996
-56.106
-56.17
-56.33
-56.481
-56.54
-56.515
-56.393
-56.167
-55.846
-55.43
-54.92
-54.329
-53.672
-52.943
-52.137
-51.255
-50.295
-49.259
-48.148
-46.963
-45.704
-44.375
-42.98
-41.526
-40.019
-38.464
-36.869
-35.242
-33.593
-31.929
-30.263
-28.605
-26.963
-25.351
-23.779
-22.259
-20.803
-19.423
-18.128
-16.932
-15.845
-14.881
-14.052
-13.369
-12.838
-12.466
-12.261
-12.23
-12.382
-12.724
-13.259
-13.992
-14.924
-16.059
-17.395
-18.923
-20.619
-22.45
-24.382
-26.382
-28.419
-30.462
-32.476
-34.421
-36.259
-37.953
-39.473
-40.792
-41.878
-42.701
-43.249
-43.532
-43.606
-43.565
-43.507
-43.528
-43.714
-44.128
-44.848
-45.967
-47.559
-49.692
-52.42
-55.758
-59.787
-64.646
-70.331
-76.721
-83.484
-90.011
-95.742
-100.225
-102.868
-103.121
-100.758
-95.666
-88.42
-80.4
-72.72
-66.549
-62.559
-59.883
-57.369
-53.991
-49.393
-45.499
-43.774
-42.308
-35.391
-12.424
36.394
113.603
215.431
331.356
448.296
558.965
657.242
736.168
790.936
811.192
787.779
720.422
610.741
468.823
312.283
156.91
20.206
-83.089
-147.365
-173.301
-166.313
-136.512
-95.639
-53.545
-21.105
-6.696
-10.499
-28.714
-52.653
-72.232
-83.742
-87.312
-85.871
-83.581
-81.667
-79.7
-76.846
-72.074
-65.619
-58.416
-51.347
-45.351
-40.808
-37.674
-35.876
-35.211
-35.539
-36.807
-38.893
-41.658
-44.968
-48.672
-52.622
-56.671
-60.652
-64.401
-67.769
-70.646
-72.975
-74.733
-75.917
-76.533
-76.582
-76.067
-75.009
-73.437
-71.397
-68.957
-66.193
-63.2
-60.076
-56.905
-53.765
-50.71
-47.773
-44.969
-42.307
-39.782
-37.398
-35.159
-33.065
-31.114
-29.299
-27.608
-26.019
-24.507
-23.043
-21.599
-20.153
-18.686
-17.186
-15.644
-14.054
-12.412
-10.713
-8.947
-7.105
-5.174
-3.143
-1.002
1.256
3.638
6.148
8.788
11.561
14.469
17.517
20.711
24.054
27.545
31.182
34.957
38.856
42.86
46.949
51.099
55.29
59.504
63.728
67.959
72.188
76.412
80.62
84.793
88.915
92.97
96.947
100.835
104.633
108.346
111.983
115.56
119.082
122.541
125.917
129.175
132.271
135.155
137.787
140.135
142.176
143.885
145.241
146.223
146.802
146.947
146.619
145.771
144.371
142.403
139.869
136.799
133.234
129.233
124.849
120.125
115.105
109.825
104.32
98.626
92.779
86.82
80.8
74.781
68.817
62.952
57.213
51.613
46.152
40.823
35.622
30.543
25.583
20.741
16.02
11.429
6.975
2.664
-1.51
-5.554
-9.47
-13.249
-16.876
-20.335
-23.614
-26.703
-29.594
-32.271
-34.716
-36.912
-38.853
-40.535
-41.957
-43.108
-43.97
-44.541
-44.837
-44.894
-44.752
-44.436
-43.963
-43.345
-42.597
-41.743
-40.813
-39.833
-38.819
-37.791
-36.776
-35.816
-34.957
-34.224
-33.613
-33.096
-32.645
-32.248
-31.903
-31.612
-31.367
-31.156
-30.971
-30.81
-30.676
-30.567
-30.466
-30.343
-30.165
-29.917
-29.607
-29.26
-28.898
-28.532
-28.166
-27.807
-27.466
-27.154
-26.872
-26.614
-26.371
-26.14
-25.925
-25.741
-25.601
-25.508
-25.457
-25.436
-25.435
-25.45
-25.474
-25.502
-25.525
-25.536
-25.536
-25.53
-25.523
-25.519
-25.516
-25.513
-25.51
-25.506
-25.503
-25.505
-25.513
-25.528
-25.552
-25.589
-25.641
-25.712
-25.803
-25.912
-26.04
-26.187
-26.354
-26.542
-26.751
-26.981
-27.234
-27.511
-27.813
-28.141
-28.497
-28.88
-29.289
-29.727
-30.191
-30.681
-31.196
-31.736
-32.298
-32.881
-33.483
-34.104
-34.741
-35.392
-36.056
-36.731
-37.414
-38.103
-38.796
-39.49
-40.184
-40.873
-41.557
-42.232
-42.895
-43.544
-44.176
-44.787
-45.376
-45.938
-46.47
-46.968
-47.429
-47.85
-48.225
-48.553
-48.831
-49.054
-49.221
-49.328
-49.374
-49.354
-49.266
-49.109
-48.88
-48.576
-48.195
-47.736
-47.198
-46.58
-45.881
-45.1
-44.238
-43.295
-42.273
-41.172
-39.994
-38.741
-37.417
-36.024
-34.568
-33.052
-31.482
-29.866
-28.21
-26.522
-24.811
-23.087
-21.359
-19.639
-17.939
-16.269
-14.641
-13.067
-11.557
-10.124
-8.777
-7.528
-6.388
-5.366
-4.475
-3.726
-3.13
-2.694
-2.423
-2.323
-2.397
-2.649
-3.082
-3.703
-4.512
-5.512
-6.707
-8.097
-9.68
-11.444
-13.363
-15.405
-17.54
-19.734
-21.957
-24.179
-26.365
-28.479
-30.482
-32.333
-33.999
-35.445
-36.632
-37.53
-38.12
-38.415
-38.492
-38.444
-38.362
-38.33
-38.394
-38.611
-39.075
-39.857
-40.987
-42.484
-44.344
-46.643
-49.577
-53.235
-57.55
-62.346
-67.312
-72.089
-76.279
-79.263
-80.278
-79.421
-77.546
-75.514
-73.968
-71.353
-65.121
-54.434
-40.166
-26.824
-19.897
-22.214
-34.62
-52.619
-67.879
-71.405
-52.225
-3.588
73.919
175.787
291.976
410.083
522.453
621.372
698.141
748.544
765.922
744.999
688.209
597.605
479.588
346.495
209.957
84.382
-16.191
-83.895
-116.573
-119.213
-102.313
-77.889
-56.778
-45.16
-44.167
-50.686
-58.592
-63.416
-64.069
-62.275
-61.673
-64.344
-69.634
-75.392
-79.29
-80.352
-78.854
-75.514
-71.094
-66.068
-60.936
-56.35
-52.694
-50.107
-48.538
-47.786
-47.726
-48.286
-49.348
-50.745
-52.319
-53.956
-55.576
-57.121
-58.53
-59.726
-60.652
-61.301
-61.685
-61.824
-61.752
-61.487
-61.043
-60.435
-59.661
-58.727
-57.653
-56.457
-55.169
-53.828
-52.458
-51.081
-49.709
-48.331
-46.932
-45.498
-44.009
-42.455
-40.838
-39.165
-37.46
-35.745
-34.03
-32.323
-30.62
-28.913
-27.198
-25.467
-23.712
-21.935
-20.133
-18.307
-16.456
-14.578
-12.659
-10.685
-8.634
-6.482
-4.214
-1.815
0.722
3.403
6.231
9.207
12.328
15.591
18.992
22.53
26.2
29.997
33.913
37.936
42.055
46.252
50.514
54.826
59.172
63.535
67.899
72.248
76.567
80.84
85.05
89.178
93.207
97.119
100.895
104.519
107.973
111.241
114.307
117.155
119.773
122.147
124.266
126.118
127.693
128.984
129.982
130.681
131.078
131.168
130.949
130.421
129.584
128.441
126.995
125.252
123.217
120.899
118.306
115.45
112.34
108.99
105.413
101.624
97.636
93.467
89.131
84.647
80.03
75.299
70.471
65.563
60.595
55.583
50.545
45.5
40.463
35.453
30.485
25.576
20.74
15.993
11.35
6.825
2.43
-1.822
-5.925
-9.866
-13.633
-17.226
-20.643
-23.884
-26.951
-29.835
-32.524
-35.027
-37.352
-39.479
-41.393
-43.082
-44.531
-45.76
-46.807
-47.66
-48.287
-48.786
-49.272
-49.69
-50.055
-50.395
-50.488
-50.958
-52.419
-54.023
-55.507
-55.304
-51.534
-46.283
-40.964
-37.649
-39.167
-43.027
-47.143
-50.091
-49.5
-47.099
-44.59
-42.352
-41.499
-41.368
-40.99
-40.479
-39.79
-38.952
-38.317
-37.432
-35.115
-31.624
-27.974
-25.808
-28.248
-35.128
-43.313
-49.696
-49.862
-43.493
-34.777
-26.959
-23.534
-25.133
-28.621
-32.061
-34.14
-34.451
-34.272
-34.188
-34.155
-34.216
-34.181
-33.999
-33.844
-33.768
-33.741
-33.768
-33.856
-33.999
-34.188
-34.407
-34.627
-34.836
-35.049
-35.269
-35.493
-35.722
-35.954
-36.188
-36.427
-36.673
-36.923
-37.175
-37.428
-37.682
-37.938
-38.193
-38.448
-38.703
-38.955
-39.205
-39.452
-39.694
-39.931
-40.163
-40.388
-40.606
-40.817
-41.02
-41.216
-41.403
-41.584
-41.757
-41.924
-42.085
-42.241
-42.392
-42.541
-42.687
-42.832
-42.978
-43.125
-43.275
-43.428
-43.586
-43.75
-43.919
-44.094
-44.275
-44.463
-44.657
-44.855
-45.058
-45.263
-45.469
-45.675
-45.878
-46.077
-46.269
-46.452
-46.624
-46.785
-46.931
-47.062
-47.172
-47.26
-47.321
-47.35
-47.342
-47.292
-47.194
-47.04
-46.825
-46.545
-46.195
-45.77
-45.263
-44.667
-43.976
-43.19
-42.309
-41.337
-40.278
-39.141
-37.937
-36.683
-35.397
-34.092
-32.781
-31.474
-30.178
-28.902
-27.653
-26.445
-25.28
-24.155
-23.061
-21.986
-20.916
-19.834
-18.716
-17.53
-16.249
-14.856
-13.341
-11.707
-9.963
-8.123
-6.204
-4.227
-2.223
-0.24
1.67
3.439
5.001
6.295
7.25
7.786
7.838
7.356
6.317
4.721
2.584
-0.068
-3.194
-6.751
-10.669
-14.866
-19.245
-23.688
-28.082
-32.326
-36.305
-39.908
-43.043
-45.646
-47.706
-49.261
-50.362
-51.067
-51.429
-51.518
-51.448
-51.343
-51.334
-51.568
-52.136
-53.174
-54.912
-57.436
-60.716
-64.592
-68.618
-72.339
-75.47
-77.544
-77.97
-76.582
-73.405
-68.756
-63.8
-59.604
-56.79
-56.419
-58.857
-62.757
-66.647
-68.635
-67.33
-64.138
-60.254
-54.425
-41.939
-14.811
34.614
110.175
209.299
325.071
447.789
566.865
673.334
757.645
811.092
825.563
793.925
715.128
594.054
443.264
282.967
133.84
13.962
-65.957
-106.134
-113.26
-99.743
-78.302
-58.129
-47.01
-45.744
-51.658
-61.043
-66.667
-66.237
-61.15
-53.393
-48.005
-47.397
-50.585
-56.499
-62.893
-67.82
-71.231
-73.498
-74.803
-75.415
-75.351
-74.258
-72.349
-70.4
-68.746
-67.521
-66.84
-66.517
-66.537
-67.158
-68.266
-69.461
-70.479
-71.072
-71.098
-70.618
-69.614
-68.012
-65.875
-63.349
-60.572
-57.7
-54.83
-51.99
-49.237
-46.635
-44.247
-42.145
-40.373
-38.956
-37.92
-37.286
-37.05
-37.179
-37.599
-38.195
-38.874
-39.56
-40.19
-40.718
-41.097
-41.282
-41.244
-40.964
-40.431
-39.634
-38.565
-37.21
-35.574
-33.68
-31.565
-29.287
-26.889
-24.396
-21.829
-19.199
-16.514
-13.781
-10.994
-8.139
-5.204
-2.18
0.939
4.151
7.462
10.882
14.423
18.104
21.933
25.912
30.04
34.312
38.721
43.258
47.907
52.644
57.449
62.301
67.181
72.069
76.946
81.787
86.569
91.269
95.867
100.345
104.682
108.857
112.849
116.634
120.192
123.511
126.575
129.369
131.885
134.117
136.063
137.735
139.135
140.262
141.109
141.666
141.924
141.877
141.518
140.842
139.843
138.513
136.849
134.856
132.528
129.854
126.812
123.366
119.497
115.205
110.5
105.406
99.954
94.178
88.125
81.858
75.431
68.898
62.301
55.674
49.062
42.523
36.125
29.953
24.071
18.52
13.333
8.529
4.11
0.073
-3.61
-6.991
-10.109
-12.992
-15.661
-18.122
-20.392
-22.501
-24.484
-26.385
-28.238
-30.06
-31.87
-33.68
-35.487
-37.282
-39.038
-40.706
-42.254
-43.662
-44.917
-46.019
-46.963
-47.741
-48.346
-48.775
-49.023
-49.093
-48.987
-48.703
-48.252
-47.648
-46.913
-46.083
-45.181
-44.227
-43.237
-42.223
-41.194
-40.163
-39.137
-38.12
-37.117
-36.134
-35.179
-34.26
-33.385
-32.556
-31.776
-31.045
-30.364
-29.735
-29.159
-28.639
-28.175
-27.769
-27.424
-27.143
-26.927
-26.776
-26.691
-26.668
-26.705
-26.8
-26.95
-27.15
-27.395
-27.683
-28.009
-28.368
-28.758
-29.173
-29.61
-30.064
-30.532
-31.009
-31.492
-31.976
-32.458
-32.934
-33.4
-33.852
-34.288
-34.703
-35.094
-35.46
-35.797
-36.102
-36.375
-36.613
-36.815
-36.98
-37.107
-37.198
-37.253
-37.273
-37.259
-37.215
-37.143
-37.046
-36.925
-36.785
-36.628
-36.458
-36.276
-36.087
-35.892
-35.696
-35.5
-35.307
-35.122
-34.946
-34.783
-34.635
-34.506
-34.398
-34.314
-34.255
-34.226
-34.227
-34.26
-34.327
-34.43
-34.568
-34.743
-34.955
-35.202
-35.483
-35.798
-36.143
-36.517
-36.918
-37.342
-37.787
-38.25
-38.729
-39.221
-39.723
-40.233
-40.746
-41.261
-41.773
-42.28
-42.777
-43.261
-43.726
-44.169
-44.586
-44.971
-45.321
-45.631
-45.898
-46.117
-46.286
-46.402
-46.462
-46.462
-46.399
-46.27
-46.074
-45.809
-45.473
-45.064
-44.579
-44.02
-43.385
-42.676
-41.889
-41.021
-40.069
-39.032
-37.912
-36.716
-35.45
-34.122
-32.746
-31.337
-29.918
-28.507
-27.119
-25.768
-24.461
-23.209
-22.031
-20.941
-19.954
-19.077
-18.311
-17.653
-17.1
-16.637
-16.244
-15.892
-15.541
-15.162
-14.742
-14.271
-13.75
-13.184
-12.566
-11.9
-11.199
-10.48
-9.77
-9.099
-8.489
-7.973
-7.595
-7.401
-7.445
-7.766
-8.374
-9.275
-10.456
-11.896
-13.58
-15.481
-17.553
-19.755
-22.045
-24.377
-26.731
-29.098
-31.475
-33.871
-36.298
-38.765
-41.282
-43.885
-46.635
-49.601
-52.844
-56.434
-60.393
-64.781
-69.75
-75.292
-81.243
-87.317
-92.973
-97.697
-101.2
-103.006
-102.475
-99.494
-94.25
-87.238
-79.687
-72.596
-66.491
-62.356
-61.315
-62.608
-64.044
-63.28
-56.746
-43.494
-26.635
-6.597
17.974
49.623
96.867
166.048
257.727
370.919
496.876
621.395
730.605
809.671
846.621
835.539
776.629
675.226
542.47
394.02
245.159
111.135
4.378
-69.471
-109.44
-120.006
-111.209
-93.185
-74.79
-63.545
-60.842
-64.902
-72.906
-79.018
-80.86
-79.332
-76.019
-74.557
-76.301
-79.827
-83.293
-84.753
-83.567
-80.279
-75.598
-70.15
-64.381
-58.75
-53.823
-49.945
-47.199
-45.511
-44.685
-44.587
-45.148
-46.221
-47.635
-49.245
-50.939
-52.666
-54.4
-56.082
-57.638
-59.014
-60.17
-61.1
-61.824
-62.347
-62.672
-62.8
-62.719
-62.441
-61.981
-61.35
-60.561
-59.609
-58.498
-57.245
-55.873
-54.4
-52.84
-51.194
-49.458
-47.645
-45.768
-43.849
-41.919
-39.992
-38.079
-36.193
-34.341
-32.536
-30.784
-29.08
-27.412
-25.767
-24.134
-22.503
-20.867
-19.205
-17.496
-15.716
-13.839
-11.844
-9.715
-7.436
-4.994
-2.378
0.42
3.404
6.571
9.92
13.449
17.155
21.035
25.082
29.287
33.638
38.123
42.73
47.445
52.253
57.139
62.085
67.075
72.092
77.117
82.131
87.113
92.041
96.893
101.648
106.281
110.771
115.096
119.234
123.165
126.867
130.324
133.516
136.428
139.044
141.35
143.334
144.985
146.293
147.251
147.851
148.09
147.965
147.474
146.617
145.397
143.818
141.885
139.605
136.987
134.042
130.782
127.221
123.374
119.257
114.888
110.286
105.469
100.459
95.277
89.945
84.484
78.914
73.26
67.545
61.793
56.025
50.265
44.529
38.839
33.222
27.692
22.259
16.933
11.719
6.633
1.705
-3.05
-7.637
-12.034
-16.197
-20.092
-23.681
-26.956
-29.96
-32.704
-35.139
-37.315
-39.409
-41.461
-43.425
-45.328
-46.991
-48.764
-51.744
-55.714
-59.682
-62.02
-59.645
-52.732
-44.404
-37.765
-37.218
-43.087
-51.224
-58.42
-61.221
-59.006
-54.893
-50.809
-48.061
-47.064
-46.559
-45.971
-45.351
-44.662
-44.098
-43.714
-43.343
-42.936
-42.525
-42.108
-41.678
-41.243
-40.81
-40.394
-40.024
-39.707
-39.429
-39.182
-38.966
-38.779
-38.618
-38.48
-38.358
-38.248
-38.149
-38.059
-37.975
-37.896
-37.818
-37.739
-37.659
-37.574
-37.485
-37.389
-37.286
-37.174
-37.053
-36.922
-36.781
-36.631
-36.47
-36.301
-36.123
-35.937
-35.746
-35.55
-35.351
-35.151
-34.952
-34.757
-34.567
-34.386
-34.214
-34.056
-33.912
-33.785
-33.677
-33.588
-33.522
-33.477
-33.456
-33.458
-33.483
-33.533
-33.605
-33.701
-33.82
-33.962
-34.127
-34.314
-34.522
-34.753
-35.004
-35.276
-35.568
-35.878
-36.207
-36.553
-36.915
-37.293
-37.684
-38.088
-38.503
-38.928
-39.36
-39.799
-40.243
-40.692
-41.144
-41.598
-42.055
-42.514
-42.975
-43.439
-43.907
-44.378
-44.853
-45.332
-45.814
-46.3
-46.787
-47.274
-47.761
-48.245
-48.724
-49.197
-49.661
-50.114
-50.556
-50.983
-51.394
-51.786
-52.155
-52.498
-52.812
-53.093
-53.336
-53.539
-53.696
-53.803
-53.855
-53.849
-53.778
-53.634
-53.403
-53.079
-52.655
-52.13
-51.501
-50.772
-49.945
-49.029
-48.042
-46.998
-45.91
-44.788
-43.632
-42.451
-41.253
-40.05
-38.86
-37.692
-36.541
-35.403
-34.273
-33.133
-31.964
-30.73
-29.374
-27.853
-26.138
-24.209
-22.069
-19.718
-17.154
-14.381
-11.408
-8.262
-4.992
-1.646
1.726
5.057
8.269
11.258
13.888
16.047
17.647
18.623
18.934
18.542
17.411
15.528
12.904
9.58
5.622
1.098
-3.923
-9.35
-15.076
-20.961
-26.834
-32.544
-37.965
-42.987
-47.528
-51.503
-54.837
-57.482
-59.447
-60.805
-61.656
-62.106
-62.237
-62.112
-61.82
-61.505
-61.308
-61.32
-61.61
-62.203
-63.194
-64.823
-67.192
-70.22
-73.74
-77.429
-80.913
-83.839
-85.583
-85.271
-83.113
-80.204
-77.399
-75.37
-72.294
-64.867
-52.291
-36.402
-22.386
-16.31
-21.097
-35.431
-53.245
-67.199
-68.674
-49.158
-4.554
67.465
165.001
281.272
408.381
536.947
656.724
756.427
826.879
859.364
846.072
786.715
683.608
545.039
387.863
228.934
85.864
-27.399
-105.433
-149.113
-164.618
-160.382
-145.183
-125.58
-107.02
-93.839
-86.357
-83.108
-80.012
-72.601
-60.143
-44.885
-31.059
-22.087
-19.138
-21.248
-26.305
-33.227
-41.397
-49.904
-58.353
-66.056
-71.876
-75.504
-76.973
-76.271
-74.035
-71.204
-68.284
-65.759
-64.159
-63.555
-63.914
-65.182
-66.941
-68.672
-70.091
-71.014
-71.357
-71.211
-70.651
-69.72
-68.547
-67.249
-65.89
-64.498
-63.044
-61.48
-59.803
-58.037
-56.223
-54.409
-52.631
-50.899
-49.215
-47.562
-45.906
-44.217
-42.466
-40.635
-38.725
-36.75
-34.747
-32.743
-30.759
-28.806
-26.878
-24.965
-23.057
-21.144
-19.215
-17.27
-15.312
-13.342
-11.365
-9.378
-7.37
-5.32
-3.199
-0.975
1.377
3.874
6.526
9.339
12.312
15.442
18.714
22.11
25.617
29.224
32.929
36.73
40.619
44.581
48.596
52.641
56.705
60.784
64.873
68.972
73.091
77.246
81.477
85.83
90.335
95.005
99.836
104.815
109.934
115.189
120.568
126.051
131.604
137.189
142.77
148.306
153.731
158.952
163.843
168.272
172.136
175.354
177.866
179.618
180.556
180.638
179.842
178.164
175.61
172.183
167.872
162.686
156.678
149.94
142.606
134.811
126.671
118.293
109.777
101.234
92.767
84.458
76.361
68.519
60.978
53.804
47.079
40.862
35.171
29.994
25.284
21.002
17.113
13.57
10.317
7.28
4.401
1.644
-1
-3.538
-5.992
-8.397
-10.805
-13.245
-15.729
-18.252
-20.802
-23.373
-25.951
-28.511
-31.011
-33.401
-35.644
-37.727
-39.647
-41.407
-42.999
-44.413
-45.637
-46.669
-47.515
-48.181
-48.673
-48.993
-49.151
-49.166
-49.067
-48.885
-48.641
-48.351
-48.023
-47.668
-47.295
-46.912
-46.525
-46.135
-45.743
-45.354
-44.972
-44.602
-44.247
-43.906
-43.575
-43.252
-42.934
-42.619
-42.307
-41.994
-41.679
-41.363
-41.044
-40.725
-40.406
-40.085
-39.762
-39.437
-39.107
-38.773
-38.434
-38.089
-37.737
-37.379
-37.015
-36.647
-36.275
-35.9
-35.523
-35.146
-34.77
-34.396
-34.025
-33.66
-33.302
-32.952
-32.612
-32.286
-31.973
-31.678
-31.401
-31.146
-30.913
-30.705
-30.522
-30.368
-30.241
-30.144
-30.078
-30.042
-30.036
-30.061
-30.116
-30.2
-30.313
-30.453
-30.619
-30.808
-31.019
-31.25
-31.498
-31.763
-32.042
-32.332
-32.633
-32.942
-33.258
-33.579
-33.904
-34.231
-34.558
-34.885
-35.21
-35.532
-35.85
-36.164
-36.473
-36.777
-37.075
-37.367
-37.654
-37.936
-38.214
-38.488
-38.76
-39.032
-39.304
-39.577
-39.854
-40.136
-40.424
-40.719
-41.023
-41.336
-41.659
-41.991
-42.333
-42.684
-43.044
-43.411
-43.784
-44.16
-44.537
-44.913
-45.284
-45.647
-45.999
-46.334
-46.65
-46.941
-47.203
-47.432
-47.621
-47.767
-47.864
-47.906
-47.888
-47.804
-47.648
-47.416
-47.103
-46.703
-46.212
-45.625
-44.94
-44.153
-43.262
-42.265
-41.162
-39.952
-38.636
-37.217
-35.697
-34.081
-32.374
-30.583
-28.716
-26.782
-24.792
-22.757
-20.69
-18.604
-16.512
-14.428
-12.366
-10.341
-8.367
-6.458
-4.629
-2.895
-1.273
0.222
1.574
2.767
3.788
4.628
5.277
5.726
5.966
5.988
5.785
5.349
4.675
3.754
2.585
1.169
-0.484
-2.348
-4.396
-6.598
-8.923
-11.345
-13.831
-16.346
-18.857
-21.325
-23.713
-25.985
-28.102
-30.021
-31.709
-33.146
-34.337
-35.339
-36.215
-37.037
-37.878
-38.786
-39.825
-41.087
-42.672
-44.673
-47.169
-50.198
-53.823
-58.203
-63.412
-69.367
-75.791
-82.151
-87.92
-92.75
-96.267
-97.928
-97.363
-94.583
-90.119
-85.166
-80.843
-77.832
-76.753
-78.301
-83.017
-89.871
-95.776
-97.028
-89.964
-73.983
-52.649
-27.501
2.227
39.85
94.955
173.859
276.638
400.844
535.285
665.462
779.049
861.805
902.526
894.488
833.54
722.461
570.463
392.767
210.505
44.645
-85.72
-168.13
-201.99
-192.721
-152.87
-99.461
-45.155
-3.323
16.659
13.785
-11.346
-50.065
-90.119
-123.057
-139.976
-139.602
-127.184
-108.505
-92.488
-83.88
-81.938
-84.304
-86.277
-85.197
-81.497
-76.394
-71.634
-67.995
-65.191
-62.931
-61.024
-59.486
-58.43
-57.814
-57.542
-57.548
-57.795
-58.257
-58.845
-59.448
-59.965
-60.324
-60.52
-60.567
-60.484
-60.298
-60.03
-59.703
-59.35
-58.997
-58.651
-58.299
-57.903
-57.417
-56.826
-56.129
-55.335
-54.454
-53.478
-52.391
-51.187
-49.861
-48.405
-46.81
-45.065
-43.17
-41.152
-39.052
-36.913
-34.77
-32.648
-30.569
-28.528
-26.477
-24.346
-22.079
-19.658
-17.101
-14.421
-11.602
-8.721
-6.015
-3.664
-1.667
0.091
1.863
3.203
2.97
0.959
-1.95
-2.73
3.109
17.064
37.22
58.253
72.168
74.76
66.966
52.486
38.755
31.568
31.461
39.01
52.06
66.602
82.727
97.903
108.939
116.48
119.273
118.171
116.772
115.29
113.265
111.49
110.166
110.969
117.386
129.083
142.7
155.29
163.003
165.211
165.056
164.489
165.045
167.148
169.323
170.889
171.851
172.116
171.858
171.085
169.56
167.212
164.082
160.164
155.456
149.969
143.737
136.851
129.414
121.514
113.224
104.599
95.709
86.63
77.431
68.184
58.962
49.829
40.869
32.182
23.859
15.991
8.641
1.828
-4.426
-10.106
-15.21
-19.725
-23.656
-27.028
-29.862
-32.18
-34.021
-35.426
-36.461
-37.219
-37.784
-38.236
-38.639
-39.027
-39.436
-39.9
-40.442
-41.081
-41.825
-42.669
-43.611
-44.655
-45.789
-46.995
-48.24
-49.471
-50.649
-51.739
-52.716
-53.566
-54.274
-54.834
-55.246
-55.512
-55.633
-55.619
-55.472
-55.2
-54.825
-54.352
-53.791
-53.188
-52.579
-51.99
-51.451
-50.955
-50.474
-50.032
-49.66
-49.267
-48.75
-48.166
-47.508
-46.76
-46.137
-45.052
-42.928
-40.584
-38.266
-37.478
-40.021
-43.905
-47.804
-49.745
-47.018
-42.028
-36.817
-32.783
-32.232
-33.522
-34.985
-36.253
-36.309
-35.748
-35.331
-34.917
-34.603
-34.342
-33.981
-33.624
-33.353
-33.143
-32.99
-32.904
-32.883
-32.922
-33.018
-33.155
-33.316
-33.506
-33.732
-33.989
-34.276
-34.592
-34.931
-35.295
-35.682
-36.089
-36.51
-36.943
-37.383
-37.827
-38.272
-38.715
-39.154
-39.585
-40.006
-40.415
-40.811
-41.19
-41.551
-41.892
-42.212
-42.508
-42.78
-43.027
-43.25
-43.449
-43.624
-43.778
-43.911
-44.024
-44.118
-44.193
-44.251
-44.29
-44.311
-44.314
-44.301
-44.272
-44.23
-44.179
-44.123
-44.064
-44.007
-43.956
-43.914
-43.886
-43.872
-43.873
-43.89
-43.927
-43.989
-44.079
-44.198
-44.342
-44.51
-44.696
-44.894
-45.095
-45.28
-45.433
-45.537
-45.58
-45.558
-45.47
-45.314
-45.088
-44.787
-44.417
-43.993
-43.532
-43.044
-42.541
-42.035
-41.548
-41.121
-40.794
-40.598
-40.565
-40.706
-41.033
-41.556
-42.278
-43.186
-44.251
-45.423
-46.643
-47.871
-49.073
-50.208
-51.23
-52.06
-52.623
-52.854
-52.691
-52.081
-50.965
-49.287
-47.008
-44.126
-40.669
-36.698
-32.29
-27.507
-22.404
-17.047
-11.515
-5.914
-0.354
5.063
10.234
15.042
19.352
23.025
25.932
27.991
29.165
29.44
28.83
27.343
24.993
21.817
17.879
13.258
8.044
2.328
-3.799
-10.214
-16.76
-23.272
-29.577
-35.539
-41.059
-46.053
-50.455
-54.208
-57.275
-59.663
-61.443
-62.692
-63.497
-63.935
-64.05
-63.942
-63.751
-63.612
-63.677
-64.069
-64.834
-66.108
-68.101
-70.845
-74.28
-78.165
-81.93
-85.101
-87.374
-88.191
-86.955
-83.55
-77.983
-70.73
-63.188
-56.468
-51.277
-48.964
-49.856
-52.153
-54.332
-54.098
-49.875
-44.665
-40.317
-34.887
-23.076
6.493
63.801
151.006
264.146
391.391
519.294
637.679
735.56
805.441
838.855
825.477
762.578
650.885
499.973
330.243
163.038
20.412
-82.772
-143.498
-167.494
-166.658
-150.471
-125.332
-94.853
-61.538
-33.146
-17.135
-16.703
-30.659
-50.893
-68.477
-79.16
-82.455
-81.312
-79.376
-77.768
-76.186
-73.881
-70.072
-65.117
-59.883
-55.109
-51.49
-49.245
-48.273
-48.421
-49.457
-51.186
-53.46
-56.128
-59.039
-62.063
-65.087
-68.004
-70.719
-73.126
-75.118
-76.624
-77.598
-78.032
-77.942
-77.355
-76.309
-74.85
-73.033
-70.911
-68.538
-65.966
-63.248
-60.44
-57.601
-54.788
-52.051
-49.425
-46.935
-44.592
-42.396
-40.344
-38.425
-36.627
-34.932
-33.327
-31.799
-30.335
-28.924
-27.552
-26.202
-24.858
-23.503
-22.124
-20.706
-19.236
-17.704
-16.099
-14.411
-12.632
-10.754
-8.768
-6.664
-4.433
-2.066
0.443
3.104
5.92
8.895
12.032
15.33
18.789
22.409
26.184
30.107
34.175
38.387
42.735
47.216
51.812
56.5
61.272
66.122
71.014
75.914
80.792
85.61
90.364
95.063
99.669
104.132
108.51
112.875
117.151
121.321
125.385
129.119
133.05
137.688
142.259
146.52
149.067
148.224
145.819
143.068
141.787
144.477
148.915
153.214
156.083
155.393
152.665
149.446
146.081
143.517
141.215
138.481
135.459
132.071
128.376
124.53
120.456
116.095
111.49
106.662
101.624
96.396
91.005
85.474
79.838
74.135
68.379
62.586
56.779
50.978
45.204
39.477
33.815
28.235
22.753
17.389
12.158
7.075
2.152
-2.597
-7.161
-11.531
-15.699
-19.658
-23.402
-26.924
-30.22
-33.287
-36.123
-38.732
-41.114
-43.266
-45.194
-46.915
-48.443
-49.794
-50.977
-51.981
-52.813
-53.502
-54.041
-54.401
-54.563
-54.503
-54.231
-53.806
-53.249
-52.517
-51.682
-50.945
-50.344
-49.836
-49.456
-48.991
-48.885
-50.327
-52.966
-55.767
-56.855
-52.851
-44.241
-34.358
-26.616
-25.849
-31.988
-40.542
-48.069
-50.73
-48.157
-43.728
-39.421
-36.697
-35.867
-35.539
-35.155
-34.74
-34.258
-33.921
-33.761
-33.593
-33.367
-33.112
-32.821
-32.485
-32.111
-31.705
-31.286
-30.885
-30.511
-30.147
-29.79
-29.443
-29.105
-28.778
-28.463
-28.155
-27.858
-27.573
-27.305
-27.055
-26.826
-26.621
-26.44
-26.286
-26.16
-26.065
-26.001
-25.969
-25.97
-26.004
-26.073
-26.175
-26.311
-26.481
-26.683
-26.916
-27.179
-27.47
-27.788
-28.131
-28.496
-28.883
-29.288
-29.711
-30.149
-30.6
-31.062
-31.531
-32.006
-32.483
-32.958
-33.427
-33.887
-34.337
-34.776
-35.202
-35.613
-36.005
-36.378
-36.737
-37.077
-37.389
-37.664
-37.894
-38.078
-38.233
-38.365
-38.457
-38.523
-38.604
-38.727
-38.927
-39.211
-39.533
-39.881
-40.304
-40.754
-41.052
-41.158
-41.127
-40.937
-40.775
-40.306
-38.411
-35.299
-32.012
-30.21
-33.067
-40.479
-49.235
-56.165
-56.762
-50.611
-41.991
-34.215
-30.824
-32.533
-36.14
-39.645
-41.715
-41.896
-41.48
-41.081
-40.647
-40.224
-39.623
-38.796
-37.924
-37.07
-36.198
-35.299
-34.38
-33.443
-32.486
-31.495
-30.459
-29.411
-28.43
-27.595
-26.921
-26.372
-25.911
-25.515
-25.085
-24.391
-23.201
-21.341
-18.794
-15.831
-12.122
-6.676
0.823
10.224
19.155
22.811
18.735
6.535
-10.406
-23.645
-27.576
-19.275
0.495
23.926
43.86
54.225
51.118
37.526
18.616
0.589
-11.206
-16.109
-16.132
-14.724
-14.783
-17.008
-20.835
-25.094
-29.087
-32.778
-36.222
-39.466
-42.371
-44.691
-46.326
-47.281
-47.616
-47.452
-46.931
-46.196
-45.386
-44.623
-44.03
-43.713
-43.769
-44.308
-45.381
-47.076
-49.572
-52.895
-56.948
-61.529
-66.145
-70.307
-73.707
-75.811
-75.957
-74.041
-70.155
-64.661
-58.78
-53.433
-49.075
-46.884
-47.464
-49.468
-51.302
-50.846
-46.197
-38.743
-30.496
-20.662
-5.138
22.911
71.39
144.768
240.751
353.823
474.86
591.997
695.107
773.706
818.423
822.21
779.852
691.694
562.82
405.449
239.458
84.293
-40.967
-122.736
-160.207
-157.952
-126.942
-83.659
-40.41
-8.83
3.216
-2.901
-22.482
-46.403
-65.053
-75.694
-79.041
-78.889
-79.851
-82.352
-85.22
-87.052
-86.221
-82.839
-77.859
-71.899
-65.748
-60.068
-55.029
-50.729
-47.184
-44.223
-41.757
-39.779
-38.239
-37.075
-36.276
-35.829
-35.716
-35.951
-36.494
-37.277
-38.238
-39.309
-40.453
-41.653
-42.891
-44.153
-45.426
-46.695
-47.929
-49.087
-50.098
-50.894
-51.434
-51.693
-51.659
-51.331
-50.711
-49.805
-48.634
-47.22
-45.573
-43.707
-41.658
-39.465
-37.169
-34.821
-32.459
-30.111
-27.811
-25.571
-23.294
-20.877
-18.384
-15.833
-13.223
-10.734
-7.869
-4.285
-0.801
2.467
4.093
2.52
-0.602
-4.913
-8.271
-7.073
-1.91
8.269
22.461
36.434
48.273
53.933
51.466
42.707
30.733
21.818
20.295
27.741
42.373
58.381
71.638
79.482
81.96
82.466
83.118
85.17
88.958
93.234
97.428
101.551
105.535
109.576
113.699
117.686
121.448
124.969
128.214
131.169
133.832
136.196
138.265
140.057
141.572
142.789
143.694
144.282
144.544
144.479
144.082
143.348
142.278
140.876
139.146
137.093
134.727
132.054
129.084
125.831
122.305
118.522
114.498
110.247
105.789
101.141
96.322
91.351
86.249
81.036
75.732
70.357
64.931
59.473
54.003
48.541
43.104
37.712
32.38
27.127
21.968
16.918
11.991
7.2
2.557
-1.927
-6.244
-10.385
-14.343
-18.112
-21.688
-25.067
-28.248
-31.228
-34.01
-36.592
-38.979
-41.173
-43.179
-45
-46.642
-48.112
-49.415
-50.557
-51.547
-52.39
-53.095
-53.669
-54.119
-54.454
-54.681
-54.808
-54.844
-54.795
-54.669
-54.474
-54.216
-53.902
-53.539
-53.132
-52.687
-52.211
-51.707
-51.181
-50.636
-50.077
-49.506
-48.927
-48.341
-47.751
-47.16
-46.567
-45.976
-45.388
-44.803
-44.224
-43.652
-43.088
-42.533
-41.989
-41.456
-40.937
-40.432
-39.942
-39.469
-39.014
-38.577
-38.161
-37.765
-37.392
-37.041
-36.714
-36.411
-36.133
-35.881
-35.655
-35.456
-35.285
-35.143
-35.03
-34.947
-34.895
-34.873
-34.884
-34.926
-34.999
-35.105
-35.241
-35.408
-35.605
-35.83
-36.083
-36.361
-36.664
-36.989
-37.334
-37.697
-38.077
-38.47
-38.875
-39.289
-39.709
-40.134
-40.561
-40.989
-41.414
-41.835
-42.251
-42.658
-43.056
-43.443
-43.816
-44.176
-44.519
-44.846
-45.155
-45.446
-45.717
-45.97
-46.202
-46.415
-46.609
-46.785
-46.942
-47.083
-47.207
-47.317
-47.413
-47.498
-47.573
-47.64
-47.7
-47.756
-47.81
-47.864
-47.92
-47.981
-48.047
-48.123
-48.208
-48.306
-48.416
-48.541
-48.68
-48.835
-49.005
-49.189
-49.388
-49.598
-49.82
-50.052
-50.291
-50.536
-50.786
-51.039
-51.293
-51.547
-51.797
-52.041
-52.274
-52.494
-52.696
-52.874
-53.025
-53.141
-53.217
-53.248
-53.23
-53.156
-53.018
-52.804
-52.506
-52.123
-51.651
-51.092
-50.449
-49.728
-48.94
-48.105
-47.24
-46.359
-45.475
-44.591
-43.717
-42.864
-42.046
-41.276
-40.56
-39.892
-39.267
-38.674
-38.097
-37.507
-36.861
-36.105
-35.195
-34.1
-32.803
-31.296
-29.576
-27.645
-25.501
-23.156
-20.637
-17.983
-15.242
-12.476
-9.745
-7.125
-4.754
-2.773
-1.295
-0.423
-0.2
-0.638
-1.787
-3.691
-6.253
-9.341
-12.957
-17.029
-21.48
-26.438
-31.243
-35.225
-39.006
-42.657
-47.481
-55.07
-63.419
-71.182
-76.413
-76.513
-73.82
-70.337
-67.464
-67.452
-68.777
-69.942
-70.709
-70.245
-69.296
-68.717
-68.528
-69.076
-70.394
-72.251
-74.518
-76.73
-78.326
-79.015
-78.354
-75.789
-71.318
-65.234
-58.282
-52.028
-47.618
-45.571
-46.654
-51.396
-59.263
-69.145
-78.841
-84.771
-84.068
-74.488
-53.385
-18.549
30.632
92.915
165.1
242.148
320.701
400.173
480.511
560.65
635.678
695.926
728.068
720.104
666.362
567.913
436.042
289.056
145.685
24.054
-64.971
-119.296
-143.2
-145.352
-132.556
-110.65
-83.644
-55.724
-35.012
-25.967
-29.413
-42.009
-55.083
-63.767
-67
-66.19
-65.364
-65.713
-66.46
-66.791
-65.406
-62.29
-58.328
-54.103
-50.283
-47.434
-45.686
-45.064
-45.491
-46.717
-48.554
-50.884
-53.572
-56.469
-59.443
-62.369
-65.14
-67.69
-69.943
-71.812
-73.236
-74.18
-74.638
-74.631
-74.193
-73.361
-72.178
-70.698
-68.967
-67.035
-64.95
-62.758
-60.508
-58.249
-56.027
-53.886
-51.855
-49.954
-48.193
-46.57
-45.08
-43.712
-42.453
-41.284
-40.192
-39.162
-38.179
-37.231
-36.302
-35.376
-34.436
-33.466
-32.448
-31.371
-30.219
-28.982
-27.648
-26.208
-24.652
-22.973
-21.161
-19.209
-17.107
-14.848
-12.425
-9.832
-7.065
-4.119
-0.993
2.314
5.799
9.461
13.292
17.289
21.441
25.739
30.171
34.724
39.384
44.133
48.956
53.832
58.742
63.666
68.583
73.469
78.305
83.066
87.731
92.278
96.684
100.928
104.989
108.847
112.481
115.873
119.004
121.857
124.415
126.664
128.589
130.18
131.426
132.318
132.85
133.018
132.817
132.248
131.311
130.01
128.349
126.337
123.98
121.291
118.281
114.964
111.355
107.47
103.328
98.946
94.345
89.543
84.563
79.424
74.15
68.762
63.281
57.731
52.135
46.513
40.889
35.284
29.719
24.215
18.791
13.467
8.26
3.188
-1.734
-6.492
-11.071
-15.461
-19.65
-23.631
-27.397
-30.94
-34.258
-37.346
-40.204
-42.83
-45.225
-47.39
-49.329
-51.044
-52.54
-53.823
-54.898
-55.774
-56.457
-56.956
-57.279
-57.438
-57.441
-57.299
-57.023
-56.624
-56.116
-55.509
-54.816
-54.049
-53.223
-52.349
-51.442
-50.514
-49.578
-48.647
-47.732
-46.845
-45.995
-45.192
-44.443
-43.757
-43.142
-42.604
-42.151
-41.79
-41.528
-41.369
-41.318
-41.377
-41.545
-41.819
-42.198
-42.679
-43.267
-43.963
-44.766
-45.679
-46.699
-47.823
-49.043
-50.338
-51.68
-53.041
-54.39
-55.703
-56.961
-58.142
-59.221
-60.176
-60.968
-61.565
-61.939
-62.059
-61.891
-61.419
-60.644
-59.607
-58.382
-57.042
-55.648
-54.243
-52.878
-51.623
-50.548
-49.716
-49.202
-49.038
-49.313
-50.204
-51.742
-53.851
-56.351
-58.807
-60.813
-62.144
-62.356
-60.895
-57.722
-52.966
-46.997
-40.995
-35.844
-31.945
-30.422
-31.655
-34.065
-36.267
-36.571
-33.946
-30.977
-29.16
-25.963
-15.218
12.632
64.132
138.734
229.03
324.194
416.583
502.101
578.951
644.599
690.315
704.294
676.606
603.087
489.798
351.259
205.939
72.305
-36.215
-112.542
-154.926
-168.151
-157.995
-128.685
-86.943
-38.069
11.207
49.559
69.64
69.275
49.363
17.037
-17.885
-49.768
-72.621
-81.536
-78.589
-65.391
-46.583
-30.128
-18.16
-12.921
-14.276
-18.815
-26.322
-34.62
-41.96
-48.172
-51.707
-53.359
-54.573
-56.652
-60.408
-64.371
-66.309
-62.824
-52.918
-40.029
-28.593
-24.795
-32.104
-46.795
-63.317
-74.528
-74.044
-62.686
-43.836
-22.873
-7.362
-0.305
-2.365
-11.596
-22.27
-30.564
-34.172
-33.087
-30.202
-28.049
-28.273
-30.301
-32.673
-33.433
-30.883
-26.81
-22.63
-20.156
-21.681
-24.929
-28.022
-29.677
-27.801
-23.95
-19.714
-15.495
-12.292
-9.608
-6.755
-3.88
-0.907
2.114
5.044
7.977
10.996
14.085
17.238
20.469
23.787
27.197
30.72
34.355
38.089
41.925
45.862
49.877
53.956
58.077
62.205
66.315
70.387
74.402
78.352
82.233
86.032
89.729
93.301
96.721
99.98
103.069
105.982
108.72
111.281
113.666
115.901
118.001
119.964
121.786
123.434
124.87
126.075
127.035
127.739
128.176
128.317
128.131
127.601
126.705
125.43
123.757
121.637
119.032
115.933
112.336
108.269
103.776
98.869
93.566
87.906
81.924
75.689
69.277
62.737
56.118
49.466
42.831
36.291
29.918
23.754
17.841
12.199
6.84
1.806
-2.869
-7.185
-11.148
-14.79
-18.161
-21.28
-24.161
-26.824
-29.286
-31.577
-33.73
-35.753
-37.653
-39.441
-41.126
-42.739
-44.309
-45.837
-47.318
-48.73
-50.041
-51.239
-52.317
-53.263
-54.072
-54.738
-55.256
-55.636
-55.889
-56.019
-56.028
-55.908
-55.65
-55.26
-54.748
-54.129
-53.423
-52.646
-51.809
-50.928
-50.017
-49.085
-48.141
-47.188
-46.226
-45.261
-44.302
-43.356
-42.432
-41.537
-40.674
-39.845
-39.051
-38.293
-37.569
-36.878
-36.218
-35.59
-34.993
-34.431
-33.906
-33.421
-32.978
-32.577
-32.217
-31.899
-31.622
-31.383
-31.181
-31.015
-30.886
-30.794
-30.738
-30.722
-30.743
-30.8
-30.885
-30.991
-31.107
-31.23
-31.355
-31.481
-31.614
-31.76
-31.934
-32.153
-32.427
-32.761
-33.156
-33.602
-34.087
-34.601
-35.13
-35.67
-36.223
-36.783
-37.339
-37.876
-38.369
-38.781
-39.068
-39.18
-39.057
-38.657
-37.987
-37.075
-35.961
-34.7
-33.326
-31.852
-30.33
-28.831
-27.306
-25.687
-24.064
-22.493
-21.036
-20.002
-18.944
-17.386
-16.12
-15.385
-16.567
-21.277
-27.554
-34.059
-38.839
-39.296
-37.655
-35.76
-34.846
-37.096
-40.989
-44.806
-48.1
-49.86
-50.382
-50.924
-51.907
-52.683
-53.036
-51.478
-46.482
-40.107
-33.656
-29.052
-28.931
-31.032
-33.45
-34.908
-33.257
-30.109
-27.107
-24.638
-23.683
-23.665
-23.826
-24.249
-24.776
-25.405
-26.25
-27.189
-28.135
-29.099
-30.072
-31.028
-31.953
-32.834
-33.657
-34.423
-35.134
-35.779
-36.357
-36.886
-37.388
-37.88
-38.371
-38.865
-39.357
-39.847
-40.333
-40.808
-41.264
-41.695
-42.097
-42.469
-42.811
-43.121
-43.396
-43.631
-43.82
-43.959
-44.044
-44.073
-44.045
-43.96
-43.819
-43.626
-43.383
-43.098
-42.772
-42.409
-42.014
-41.589
-41.139
-40.668
-40.179
-39.677
-39.166
-38.651
-38.136
-37.626
-37.125
-36.639
-36.171
-35.727
-35.309
-34.921
-34.567
-34.251
-33.976
-33.743
-33.554
-33.41
-33.311
-33.259
-33.257
-33.3
-33.385
-33.517
-33.698
-33.928
-34.211
-34.538
-34.892
-35.279
-35.701
-36.134
-36.555
-36.944
-37.273
-37.551
-37.804
-38.008
-38.124
-38.224
-38.4
-38.599
-38.826
-39.103
-39.21
-39.7
-41.122
-42.691
-44.148
-43.989
-40.429
-35.375
-30.115
-26.617
-27.541
-30.497
-33.55
-35.52
-34.2
-31.148
-28.019
-24.993
-23.413
-23.806
-25.218
-26.79
-26.793
-22.176
-13.257
-3.087
5.287
7.405
2.923
-3.973
-10.054
-11.853
-8.74
-3.87
0.791
3.934
5.142
5.677
6.119
6.418
6.614
6.516
6.073
5.451
4.696
3.774
2.68
1.42
-0.015
-1.626
-3.412
-5.376
-7.496
-9.725
-12.024
-14.363
-16.706
-19.021
-21.273
-23.415
-25.401
-27.186
-28.722
-29.962
-30.873
-31.439
-31.687
-31.673
-31.467
-31.141
-30.753
-30.373
-30.098
-30.039
-30.312
-31.032
-32.267
-34.117
-36.775
-40.322
-44.697
-49.66
-54.665
-59.16
-62.801
-65.175
-65.737
-64.253
-60.801
-55.94
-51.062
-47.437
-45.675
-46.397
-50.223
-57.134
-66.446
-75.944
-81.433
-78.993
-66.234
-42.933
-10.005
32.146
84.128
149.285
229.703
324.495
431.001
541.321
646.555
738.613
807.835
846.508
846.723
801.013
708.119
572.264
406.257
232.609
74.235
-49.152
-125.477
-157.969
-157.802
-137.066
-108.257
-77.396
-46.376
-20.031
-3.237
0.506
-10.556
-33.204
-59.247
-80.955
-93.545
-94.267
-86.196
-75.203
-64.786
-58.184
-55.303
-52.982
-49.978
-45.705
-40.505
-36.103
-33.121
-31.387
-30.771
-30.921
-31.673
-33.121
-35.207
-37.784
-40.758
-44.034
-47.51
-51.073
-54.582
-57.875
-60.828
-63.368
-65.448
-67.057
-68.19
-68.849
-69.037
-68.754
-68.012
-66.843
-65.284
-63.383
-61.193
-58.761
-56.151
-53.435
-50.68
-47.951
-45.286
-42.699
-40.204
-37.809
-35.526
-33.372
-31.353
-29.459
-27.688
-26.028
-24.469
-22.997
-21.582
-20.183
-18.767
-17.301
-15.766
-14.158
-12.471
-10.702
-8.852
-6.916
-4.893
-2.791
-0.608
1.659
4.001
6.409
8.847
11.275
13.663
15.991
18.247
20.436
22.557
24.622
26.657
28.682
30.714
32.775
34.87
37.006
39.203
41.487
43.912
46.543
49.427
52.601
56.095
59.918
64.081
68.576
73.361
78.395
83.638
89.048
94.591
100.229
105.911
111.567
117.112
122.438
127.443
132.036
136.132
139.66
142.55
144.757
146.267
147.078
147.194
146.622
145.372
143.458
140.911
137.779
134.122
130.023
125.571
120.849
115.936
110.909
105.839
100.786
95.791
90.88
86.074
81.391
76.848
72.456
68.221
64.138
60.194
56.37
52.632
48.956
45.321
41.709
38.103
34.492
30.872
27.248
23.629
20.028
16.451
12.91
9.413
5.976
2.613
-0.658
-3.818
-6.85
-9.743
-12.486
-15.072
-17.495
-19.752
-21.844
-23.776
-25.553
-27.178
-28.655
-29.987
-31.179
-32.237
-33.168
-33.978
-34.673
-35.26
-35.742
-36.127
-36.419
-36.624
-36.747
-36.79
-36.76
-36.662
-36.5
-36.281
-36.009
-35.69
-35.328
-34.928
-34.496
-34.035
-33.551
-33.048
-32.53
-32
-31.46
-30.916
-30.368
-29.823
-29.282
-28.746
-28.223
-27.722
-27.248
-26.809
-26.403
-26.025
-25.679
-25.372
-25.08
-24.781
-24.47
-24.137
-23.792
-23.455
-23.129
-22.799
-22.559
-22.525
-22.621
-22.822
-23.162
-23.461
-24.203
-25.841
-27.644
-29.365
-29.535
-26.629
-21.997
-16.365
-12.428
-13.041
-17.339
-25.095
-33.039
-37.663
-38.648
-34.979
-29.335
-24.661
-21.735
-22.05
-24.153
-26.337
-28.292
-29.183
-29.484
-29.85
-30.169
-30.538
-30.899
-31.106
-31.262
-31.448
-31.652
-31.885
-32.15
-32.438
-32.745
-33.068
-33.392
-33.701
-33.999
-34.292
-34.576
-34.853
-35.121
-35.38
-35.63
-35.873
-36.106
-36.329
-36.54
-36.738
-36.922
-37.092
-37.247
-37.386
-37.509
-37.617
-37.709
-37.787
-37.85
-37.9
-37.937
-37.962
-37.978
-37.985
-37.985
-37.981
-37.975
-37.97
-37.969
-37.974
-37.989
-38.016
-38.059
-38.12
-38.201
-38.304
-38.433
-38.591
-38.779
-39.002
-39.26
-39.551
-39.881
-40.252
-40.659
-41.096
-41.557
-42.037
-42.537
-43.066
-43.612
-44.164
-44.738
-45.346
-45.996
-46.702
-47.443
-48.179
-48.922
-49.699
-50.415
-50.962
-51.395
-51.699
-51.847
-52.051
-51.716
-50.264
-48.504
-46.677
-46.277
-49.092
-53.133
-57.072
-58.934
-56.009
-50.693
-45.014
-40.367
-39.053
-39.43
-39.837
-39.91
-38.639
-36.62
-34.622
-32.509
-30.388
-28.223
-25.873
-23.453
-21.06
-18.685
-16.337
-14.046
-11.825
-9.685
-7.641
-5.694
-3.844
-2.115
-0.529
0.9
2.156
3.225
4.095
4.756
5.2
5.423
5.424
5.2
4.748
4.064
3.145
1.986
0.588
-1.046
-2.911
-4.983
-7.237
-9.646
-12.168
-14.768
-17.416
-20.072
-22.71
-25.304
-27.801
-30.149
-32.325
-34.297
-36.037
-37.527
-38.736
-39.656
-40.36
-40.942
-41.393
-41.665
-41.865
-42.068
-42.349
-43.014
-43.619
-43.69
-44.071
-45.131
-48.348
-55.356
-64.087
-72.857
-79.333
-80.609
-78.498
-74.414
-69.32
-65.332
-61.466
-57.199
-53.257
-49.617
-47.589
-48.675
-53.445
-61.354
-69.729
-75.238
-74.479
-65.576
-50.263
-29.41
-1.849
34.547
86.454
160.158
256.102
372.605
503.075
635.738
760.017
862.783
927.936
941.366
891.878
777.238
607.909
405.603
199.472
16.783
-121.322
-203.876
-233.841
-220.074
-176.302
-120.195
-64.647
-22.238
-2.389
-4.408
-23.832
-50.477
-72.307
-85.206
-89.145
-87.914
-87.294
-88.334
-90.016
-90.996
-89.279
-84.882
-78.96
-72.271
-65.764
-60.104
-55.35
-51.517
-48.544
-46.211
-44.397
-43.05
-42.085
-41.431
-41.063
-40.965
-41.137
-41.579
-42.249
-43.07
-43.962
-44.877
-45.8
-46.732
-47.682
-48.651
-49.637
-50.638
-51.651
-52.645
-53.566
-54.35
-54.931
-55.269
-55.355
-55.187
-54.774
-54.123
-53.228
-52.091
-50.714
-49.097
-47.243
-45.154
-42.835
-40.31
-37.626
-34.831
-31.987
-29.134
-26.297
-23.493
-20.734
-18.021
-15.354
-12.726
-10.121
-7.53
-4.944
-2.356
0.242
2.865
5.532
8.265
11.092
14.033
17.103
20.318
23.684
27.2
30.863
34.663
38.584
42.608
46.719
50.891
55.103
59.336
63.574
67.803
72.004
76.156
80.237
84.225
88.114
91.896
95.561
99.109
102.542
105.875
109.151
112.414
115.676
118.973
122.353
125.83
129.442
133.217
137.095
141.024
145.015
148.945
152.573
155.854
158.778
161.179
163.234
164.616
164.11
161.906
159.018
157.022
159.566
167.332
176.705
183.301
180.689
165.68
143.004
119.253
101.382
94.405
95.309
98.059
98.145
91.831
80.024
66.507
53.228
41.633
32.008
23.16
14.806
7.117
0.06
-6.151
-11.46
-16.065
-20.049
-23.432
-26.292
-28.685
-30.617
-32.105
-33.158
-33.775
-34.017
-33.983
-33.745
-33.37
-32.913
-32.412
-31.918
-31.478
-31.122
-30.866
-30.718
-30.677
-30.765
-31.008
-31.435
-32.08
-32.94
-33.99
-35.215
-36.594
-38.099
-39.705
-41.363
-43.011
-44.611
-46.14
-47.58
-48.931
-50.169
-51.269
-52.204
-52.943
-53.471
-53.787
-53.886
-53.767
-53.443
-52.933
-52.275
-51.522
-50.71
-49.862
-48.996
-48.118
-47.243
-46.388
-45.567
-44.792
-44.074
-43.418
-42.836
-42.335
-41.916
-41.574
-41.295
-41.056
-40.843
-40.648
-40.463
-40.288
-40.118
-39.952
-39.79
-39.635
-39.488
-39.349
-39.214
-39.082
-38.949
-38.815
-38.683
-38.555
-38.432
-38.315
-38.205
-38.101
-38.002
-37.909
-37.819
-37.729
-37.638
-37.545
-37.451
-37.356
-37.261
-37.168
-37.078
-36.994
-36.916
-36.846
-36.784
-36.732
-36.69
-36.658
-36.636
-36.626
-36.627
-36.641
-36.668
-36.71
-36.767
-36.842
-36.936
-37.049
-37.183
-37.339
-37.518
-37.72
-37.947
-38.197
-38.471
-38.769
-39.089
-39.431
-39.792
-40.171
-40.565
-40.972
-41.389
-41.813
-42.243
-42.676
-43.111
-43.547
-43.982
-44.418
-44.853
-45.287
-45.72
-46.151
-46.58
-47.006
-47.427
-47.844
-48.255
-48.659
-49.055
-49.441
-49.819
-50.189
-50.548
-50.896
-51.233
-51.558
-51.873
-52.18
-52.478
-52.764
-53.048
-53.338
-53.641
-53.966
-54.305
-54.647
-55.004
-55.383
-55.753
-56.081
-56.335
-56.489
-56.566
-56.604
-56.575
-56.447
-56.332
-56.379
-56.574
-56.939
-57.459
-57.885
-58.811
-60.761
-62.767
-64.445
-64.291
-60.58
-55.43
-49.764
-44.486
-41.818
-40.01
-39.643
-43.033
-49.466
-58.843
-67.463
-69.563
-63.557
-50.844
-36.676
-27.068
-24.229
-26.853
-31.115
-33.826
-34.034
-32.365
-29.76
-25.865
-20.211
-13.312
-7.593
-6.816
-12.608
-23.136
-33.014
-36.063
-29.755
-16.242
-1.482
8.752
12.186
10.11
6.284
3.646
3.032
3.977
5.215
6.087
6.65
6.938
6.976
6.706
6.009
4.776
2.829
0.105
-3.297
-7.281
-11.525
-16.317
-22.709
-30.202
-37.558
-42.937
-42.764
-37.302
-29.625
-22.054
-19.827
-24.47
-33.154
-45.619
-57.772
-65.637
-69.483
-66.887
-59.231
-51.536
-45.961
-45.796
-51.75
-60.364
-69.526
-77.302
-82.581
-86.336
-88.826
-89.486
-88.06
-84.465
-79.324
-74.175
-70.31
-68.181
-68.144
-70.825
-76.373
-84.102
-91.678
-94.981
-90.423
-76.15
-52.432
-20.351
20.782
72.64
137.926
218.736
312.657
415.183
520.316
620.543
710.132
782.846
831.038
846.334
820.801
751.334
640.402
497.859
339.64
182.941
45.071
-61.478
-131.6
-167.704
-177.704
-169.268
-150.063
-124.954
-98.092
-77.223
-66.375
-66.716
-75.949
-86.296
-93.332
-95.784
-94.273
-92.11
-90.101
-87.444
-83.584
-77.446
-69.162
-59.751
-49.927
-40.553
-32.413
-25.805
-20.88
-17.647
-15.911
-15.511
-16.331
-18.21
-20.956
-24.391
-28.339
-32.634
-37.151
-41.748
-46.278
-50.618
-54.665
-58.323
-61.51
-64.152
-66.18
-67.564
-68.307
-68.421
-67.938
-66.903
-65.368
-63.403
-61.082
-58.474
-55.643
-52.64
-49.508
-46.294
-43.051
-39.831
-36.689
-33.659
-30.758
-27.999
-25.385
-22.914
-20.578
-18.358
-16.232
-14.18
-12.187
-10.24
-8.329
-6.438
-4.548
-2.634
-0.67
1.364
3.485
5.708
8.045
10.507
13.1
15.826
18.687
21.685
24.828
28.119
31.561
35.15
38.882
42.745
46.728
50.815
54.984
59.215
63.488
67.787
72.099
76.411
80.714
84.994
89.231
93.417
97.548
101.622
105.645
109.621
113.553
117.455
121.35
125.254
129.175
133.114
137.055
140.984
144.881
148.726
152.497
156.157
159.66
162.955
165.991
168.717
171.085
173.035
174.489
175.384
175.669
175.308
174.285
172.581
170.177
167.069
163.267
158.795
153.694
148.005
141.764
135.015
127.801
120.186
112.26
104.1
95.775
87.353
78.893
70.468
62.164
54.048
46.168
38.564
31.259
24.29
17.704
11.536
5.813
0.544
-4.283
-8.675
-12.636
-16.181
-19.334
-22.14
-24.664
-26.952
-29.031
-30.928
-32.663
-34.266
-35.785
-37.253
-38.689
-40.11
-41.522
-42.933
-44.358
-45.795
-47.231
-48.639
-49.981
-51.23
-52.38
-53.419
-54.342
-55.141
-55.797
-56.307
-56.677
-56.909
-57.01
-56.983
-56.829
-56.556
-56.183
-55.731
-55.225
-54.683
-54.116
-53.534
-52.946
-52.36
-51.784
-51.22
-50.665
-50.12
-49.583
-49.058
-48.545
-48.045
-47.554
-47.068
-46.585
-46.103
-45.62
-45.135
-44.648
-44.158
-43.667
-43.176
-42.689
-42.206
-41.73
-41.261
-40.8
-40.348
-39.907
-39.477
-39.058
-38.653
-38.262
-37.886
-37.528
-37.189
-36.87
-36.572
-36.297
-36.046
-35.821
-35.623
-35.453
-35.313
-35.204
-35.126
-35.08
-35.067
-35.086
-35.138
-35.221
-35.335
-35.478
-35.648
-35.845
-36.066
-36.309
-36.572
-36.853
-37.149
-37.458
-37.778
-38.106
-38.439
-38.775
-39.113
-39.448
-39.781
-40.108
-40.427
-40.737
-41.035
-41.321
-41.592
-41.848
-42.086
-42.305
-42.506
-42.686
-42.847
-42.988
-43.11
-43.214
-43.3
-43.371
-43.428
-43.473
-43.508
-43.534
-43.556
-43.574
-43.591
-43.61
-43.634
-43.664
-43.704
-43.755
-43.818
-43.896
-43.99
-44.101
-44.231
-44.381
-44.552
-44.747
-44.965
-45.207
-45.476
-45.771
-46.092
-46.439
-46.811
-47.207
-47.625
-48.062
-48.516
-48.982
-49.458
-49.939
-50.423
-50.904
-51.378
-51.843
-52.293
-52.726
-53.135
-53.517
-53.866
-54.177
-54.447
-54.669
-54.838
-54.948
-54.994
-54.972
-54.877
-54.702
-54.437
-54.073
-53.6
-53.017
-52.321
-51.513
-50.597
-49.578
-48.469
-47.287
-46.052
-44.776
-43.47
-42.138
-40.79
-39.439
-38.101
-36.791
-35.517
-34.275
-33.063
-31.872
-30.688
-29.485
-28.22
-26.84
-25.304
-23.586
-21.673
-19.567
-17.263
-14.763
-12.073
-9.21
-6.207
-3.109
0.041
3.19
6.269
9.188
11.827
14.06
15.789
16.936
17.442
17.268
16.38
14.764
12.433
9.422
5.782
1.574
-3.143
-8.294
-13.777
-19.465
-25.2
-30.825
-36.209
-41.238
-45.806
-49.834
-53.256
-56.047
-58.249
-59.919
-61.13
-61.951
-62.422
-62.615
-62.657
-62.689
-62.865
-63.33
-64.154
-65.447
-67.431
-70.187
-73.618
-77.472
-81.202
-84.304
-86.529
-87.524
-86.727
-83.902
-79.198
-73.14
-66.934
-61.719
-58.053
-56.51
-57.997
-62.273
-67.357
-70.821
-69.372
-61.227
-48.739
-33.771
-14.856
11.713
53.693
118.726
206.731
313.437
431.239
548.936
658.382
750.946
816.428
845.27
827.703
759.998
644.81
492.53
322.347
154.606
9.823
-96.234
-159.013
-182.014
-174.922
-150.473
-118.792
-86.923
-61.193
-45.72
-41.538
-47.447
-57.921
-66.804
-71.792
-72.596
-71.573
-71.622
-72.563
-73.482
-73.487
-71.504
-67.859
-63.449
-58.792
-54.616
-51.56
-49.759
-49.224
-49.826
-51.222
-53.163
-55.505
-58.059
-60.639
-63.104
-65.31
-67.158
-68.609
-69.598
-70.075
-70.018
-69.408
-68.277
-66.694
-64.746
-62.552
-60.219
-57.828
-55.452
-53.151
-50.97
-48.954
-47.124
-45.477
-44.018
-42.747
-41.661
-40.766
-40.042
-39.45
-38.943
-38.457
-37.937
-37.348
-36.658
-35.839
-34.878
-33.769
-32.522
-31.168
-29.725
-28.2
-26.595
-24.9
-23.11
-21.23
-19.26
-17.202
-15.056
-12.818
-10.484
-8.053
-5.516
-2.86
-0.065
2.899
6.052
9.405
12.966
16.735
20.71
24.892
29.271
33.837
38.576
43.477
48.526
53.711
59.016
64.423
69.908
75.446
81.013
86.585
92.135
97.64
103.072
108.408
113.622
118.693
123.598
128.311
132.811
137.072
141.072
144.791
148.208
151.304
154.061
156.464
158.499
160.156
161.424
162.298
162.77
162.838
162.5
161.757
160.612
159.069
157.135
154.819
152.13
149.081
145.687
141.962
137.924
133.591
128.982
124.12
119.025
113.72
108.229
102.576
96.785
90.881
84.889
78.834
72.741
66.634
60.537
54.473
48.465
42.534
36.7
30.982
25.397
19.962
14.693
9.602
4.701
0.001
-4.488
-8.76
-12.809
-16.63
-20.22
-23.577
-26.701
-29.594
-32.257
-34.694
-36.911
-38.914
-40.708
-42.303
-43.706
-44.928
-45.978
-46.867
-47.605
-48.204
-48.675
-49.029
-49.277
-49.43
-49.5
-49.495
-49.427
-49.304
-49.135
-48.928
-48.691
-48.429
-48.15
-47.858
-47.559
-47.256
-46.954
-46.656
-46.363
-46.078
-45.803
-45.537
-45.281
-45.035
-44.798
-44.569
-44.347
-44.13
-43.916
-43.704
-43.49
-43.273
-43.05
-42.819
-42.578
-42.326
-42.059
-41.778
-41.481
-41.168
-40.838
-40.491
-40.129
-39.75
-39.358
-38.953
-38.536
-38.108
-37.673
-37.231
-36.784
-36.334
-35.885
-35.436
-34.992
-34.553
-34.123
-33.704
-33.297
-32.906
-32.532
-32.177
-31.843
-31.533
-31.248
-30.988
-30.756
-30.553
-30.378
-30.233
-30.117
-30.03
-29.97
-29.938
-29.931
-29.949
-29.99
-30.052
-30.134
-30.234
-30.35
-30.482
-30.628
-30.786
-30.955
-31.134
-31.322
-31.517
-31.719
-31.927
-32.139
-32.355
-32.573
-32.793
-33.013
-33.234
-33.454
-33.674
-33.893
-34.11
-34.327
-34.543
-34.759
-34.975
-35.193
-35.413
-35.635
-35.862
-36.092
-36.328
-36.57
-36.817
-37.071
-37.332
-37.599
-37.872
-38.151
-38.435
-38.724
-39.017
-39.313
-39.612
-39.914
-40.217
-40.52
-40.823
-41.125
-41.425
-41.721
-42.011
-42.293
-42.564
-42.822
-43.066
-43.292
-43.498
-43.682
-43.843
-43.979
-44.088
-44.168
-44.216
-44.229
-44.204
-44.137
-44.027
-43.868
-43.657
-43.391
-43.069
-42.688
-42.246
-41.738
-41.158
-40.503
-39.773
-38.969
-38.094
-37.154
-36.156
-35.11
-34.035
-32.945
-31.854
-30.773
-29.708
-28.665
-27.652
-26.674
-25.741
-24.855
-24.011
-23.197
-22.4
-21.602
-20.784
-19.921
-18.976
-17.92
-16.733
-15.401
-13.926
-12.317
-10.588
-8.756
-6.844
-4.883
-2.919
-1.007
0.788
2.401
3.769
4.824
5.486
5.686
5.373
4.511
3.094
1.139
-1.324
-4.254
-7.602
-11.301
-15.277
-19.432
-23.661
-27.862
-31.935
-35.779
-39.295
-42.382
-44.964
-46.994
-48.469
-49.446
-49.996
-50.206
-50.159
-49.929
-49.613
-49.345
-49.256
-49.465
-50.086
-51.184
-52.878
-55.38
-58.718
-62.777
-67.303
-71.746
-75.609
-78.606
-80.21
-79.78
-77.228
-72.657
-66.508
-60.096
-54.376
-49.767
-47.358
-47.537
-48.767
-49.564
-47.936
-42.332
-34.814
-26.742
-16.011
2.802
38.591
97.725
179.875
278.123
381.783
482.017
573.916
655.029
722.5
770.353
788.733
768.284
705.179
601.126
465.566
314.17
162.824
27.795
-77.06
-145.14
-176.222
-175.142
-151.387
-115.804
-77.267
-45.09
-26.706
-23.496
-33.436
-49.591
-63.23
-70.742
-72.414
-71.506
-71.442
-72.711
-73.135
-70.111
-64.174
-56.689
-50.422
-48.471
-49.234
-51.302
-53.393
-53.264
-52.328
-51.863
-51.99
-53.544
-55.817
-57.929
-59.898
-61.51
-62.715
-63.621
-64.095
-64.025
-63.44
-62.365
-60.843
-58.976
-56.87
-54.617
-52.323
-50.072
-47.909
-45.88
-44.031
-42.393
-40.989
-39.823
-38.878
-38.143
-37.597
-37.215
-36.956
-36.757
-36.554
-36.297
-35.943
-35.463
-34.84
-34.051
-33.084
-31.941
-30.633
-29.178
-27.61
-25.941
-24.182
-22.343
-20.432
-18.464
-16.452
-14.398
-12.294
-10.134
-7.909
-5.616
-3.248
-0.788
1.785
4.496
7.371
10.422
13.656
17.077
20.682
24.464
28.408
32.489
36.678
40.954
45.297
49.701
54.167
58.689
63.262
67.87
72.488
77.111
81.745
86.366
90.924
95.388
99.734
103.983
108.198
112.395
116.511
120.569
124.723
128.983
133.254
137.512
141.506
145.523
150.642
156.618
162.392
166.265
165.015
158.714
150.526
143.598
142.426
147.378
154.164
159.468
159.764
154.41
146.671
138.598
131.561
126.019
120.687
114.972
108.945
102.607
96.195
89.801
83.299
76.68
70.031
63.407
56.831
50.321
43.883
37.53
31.304
25.249
19.39
13.769
8.44
3.434
-1.222
-5.507
-9.432
-13.01
-16.271
-19.262
-22.015
-24.541
-26.849
-28.938
-30.814
-32.498
-34.016
-35.397
-36.688
-37.921
-39.125
-40.328
-41.535
-42.741
-43.93
-45.067
-46.125
-47.09
-47.954
-48.718
-49.386
-49.955
-50.425
-50.798
-51.065
-51.22
-51.261
-51.181
-50.984
-50.681
-50.288
-49.828
-49.326
-48.796
-48.253
-47.706
-47.158
-46.616
-46.08
-45.551
-45.027
-44.512
-44.008
-43.518
-43.045
-42.588
-42.148
-41.721
-41.304
-40.896
-40.495
-40.1
-39.713
-39.333
-38.962
-38.604
-38.261
-37.934
-37.626
-37.335
-37.063
-36.809
-36.571
-36.351
-36.145
-35.954
-35.777
-35.614
-35.463
-35.326
-35.201
-35.089
-34.988
-34.897
-34.819
-34.754
-34.701
-34.663
-34.637
-34.623
-34.624
-34.641
-34.669
-34.703
-34.739
-34.771
-34.802
-34.842
-34.881
-34.909
-34.947
-35.007
-35.102
-35.248
-35.431
-35.62
-35.832
-36.098
-36.338
-36.459
-36.516
-36.507
-36.412
-36.437
-36.032
-34.665
-33.098
-31.564
-31.465
-34.479
-38.749
-43.038
-45.503
-43.611
-39.603
-35.38
-32.244
-32.346
-34.15
-36.099
-37.851
-38.455
-38.467
-38.596
-38.709
-38.9
-39.122
-39.233
-39.328
-39.485
-39.678
-39.905
-40.173
-40.481
-40.825
-41.2
-41.593
-41.987
-42.389
-42.804
-43.228
-43.661
-44.102
-44.548
-44.999
-45.455
-45.913
-46.371
-46.825
-47.272
-47.71
-48.134
-48.541
-48.926
-49.285
-49.614
-49.907
-50.16
-50.369
-50.527
-50.632
-50.678
-50.661
-50.576
-50.421
-50.191
-49.883
-49.496
-49.025
-48.47
-47.829
-47.102
-46.288
-45.388
-44.402
-43.332
-42.179
-40.946
-39.637
-38.255
-36.804
-35.291
-33.722
-32.107
-30.453
-28.773
-27.076
-25.376
-23.685
-22.017
-20.383
-18.795
-17.266
-15.807
-14.43
-13.148
-11.974
-10.92
-9.996
-9.213
-8.581
-8.105
-7.79
-7.639
-7.652
-7.83
-8.181
-8.711
-9.429
-10.339
-11.446
-12.75
-14.244
-15.918
-17.75
-19.715
-21.781
-23.918
-26.097
-28.286
-30.453
-32.56
-34.558
-36.396
-38.023
-39.394
-40.462
-41.202
-41.61
-41.704
-41.532
-41.151
-40.611
-39.981
-39.355
-38.833
-38.528
-38.549
-38.968
-39.908
-41.552
-43.997
-47.234
-51.102
-55.249
-59.325
-63.077
-66.151
-68.059
-68.477
-67.359
-65.076
-62.422
-60.219
-59.077
-59.536
-62.349
-67.532
-73.768
-79.054
-80.83
-77.877
-71.375
-62.28
-49.826
-30.049
3.804
57.545
133.742
230.026
340.427
456.873
570.749
673.804
756.154
809.193
824.758
796.945
727.101
619.676
484.666
336.871
191.04
63.222
-34.76
-97.81
-127.956
-133.762
-123.103
-102.688
-76.883
-47.742
-21.02
-3.719
-0.106
-11.759
-35.32
-62.137
-84.396
-97.464
-98.608
-91.1
-80.874
-71.451
-66.136
-64.742
-64.045
-62.745
-60.127
-56.445
-53.32
-51.25
-49.994
-49.372
-48.994
-48.701
-48.598
-48.618
-48.613
-48.619
-48.728
-48.887
-49.103
-49.358
-49.387
-49.705
-50.869
-52.163
-53.408
-53.263
-50.097
-45.771
-41.539
-39.242
-41.394
-45.762
-50.428
-54.042
-54.419
-53.039
-51.423
-49.893
-49.359
-49.242
-48.809
-48.175
-47.244
-46.058
-44.753
-43.231
-41.424
-39.381
-37.15
-34.776
-32.308
-29.782
-27.22
-24.652
-22.105
-19.581
-17.074
-14.576
-12.072
-9.55
-7.004
-4.424
-1.796
0.897
3.675
6.562
9.576
12.727
16.028
19.485
23.102
26.875
30.793
34.843
39.006
43.264
47.593
51.962
56.348
60.729
65.09
69.42
73.709
77.946
82.12
86.222
90.244
94.182
98.03
101.774
105.412
108.948
112.397
115.79
119.142
122.448
125.7
128.873
131.943
134.882
137.651
140.201
142.488
144.473
146.126
147.433
148.366
148.887
148.95
148.49
147.468
145.868
143.68
140.909
137.576
133.705
129.349
124.58
119.463
114.05
108.386
102.501
96.437
90.249
83.994
77.74
71.541
65.436
59.463
53.653
48.025
42.589
37.335
32.232
27.261
22.417
17.697
13.11
8.661
4.345
0.161
-3.892
-7.815
-11.604
-15.261
-18.786
-22.174
-25.418
-28.499
-31.394
-34.085
-36.565
-38.828
-40.875
-42.708
-44.327
-45.74
-46.956
-47.985
-48.836
-49.517
-50.034
-50.397
-50.617
-50.706
-50.68
-50.552
-50.333
-50.036
-49.67
-49.247
-48.775
-48.263
-47.716
-47.141
-46.545
-45.936
-45.322
-44.708
-44.103
-43.511
-42.938
-42.391
-41.873
-41.388
-40.938
-40.527
-40.154
-39.823
-39.532
-39.283
-39.075
-38.907
-38.778
-38.686
-38.63
-38.607
-38.614
-38.65
-38.71
-38.793
-38.896
-39.015
-39.148
-39.293
-39.446
-39.606
-39.771
-39.936
-40.102
-40.264
-40.421
-40.571
-40.711
-40.841
-40.957
-41.059
-41.146
-41.216
-41.268
-41.303
-41.318
-41.315
-41.292
-41.25
-41.189
-41.11
-41.012
-40.898
-40.767
-40.621
-40.461
-40.288
-40.104
-39.91
-39.708
-39.499
-39.284
-39.065
-38.844
-38.62
-38.397
-38.174
-37.953
-37.736
-37.522
-37.313
-37.111
-36.915
-36.728
-36.549
-36.38
-36.223
-36.077
-35.945
-35.827
-35.724
-35.638
-35.57
-35.52
-35.49
-35.48
-35.491
-35.524
-35.578
-35.656
-35.756
-35.879
-36.026
-36.195
-36.389
-36.606
-36.847
-37.112
-37.402
-37.716
-38.055
-38.419
-38.808
-39.222
-39.661
-40.124
-40.611
-41.12
-41.651
-42.2
-42.768
-43.35
-43.944
-44.548
-45.158
-45.771
-46.383
-46.991
-47.59
-48.177
-48.749
-49.3
-49.827
-50.325
-50.79
-51.218
-51.603
-51.942
-52.23
-52.462
-52.632
-52.736
-52.768
-52.724
-52.598
-52.386
-52.084
-51.687
-51.193
-50.599
-49.903
-49.104
-48.201
-47.195
-46.089
-44.882
-43.579
-42.183
-40.699
-39.131
-37.485
-35.767
-33.986
-32.149
-30.266
-28.346
-26.403
-24.446
-22.49
-20.547
-18.631
-16.756
-14.936
-13.183
-11.511
-9.934
-8.465
-7.118
-5.908
-4.849
-3.952
-3.229
-2.691
-2.342
-2.188
-2.232
-2.478
-2.93
-3.595
-4.477
-5.583
-6.916
-8.474
-10.251
-12.232
-14.39
-16.695
-19.112
-21.602
-24.132
-26.662
-29.152
-31.563
-33.845
-35.947
-37.823
-39.423
-40.703
-41.629
-42.191
-42.415
-42.359
-42.098
-41.716
-41.282
-40.885
-40.644
-40.677
-41.1
-42.019
-43.498
-45.629
-48.586
-52.437
-57.111
-62.407
-67.91
-73.195
-77.986
-81.9
-84.372
-85.07
-83.976
-81.373
-78.056
-74.827
-72.105
-70.353
-70.337
-71.837
-73.239
-72.647
-67.413
-56.428
-41.567
-23.995
-3.004
24.83
65.669
125.037
204.697
301.635
410.231
522.654
630.02
724.524
796.825
836.698
835.387
786.172
688.365
549.095
383.538
213.366
60.266
-57.248
-129.174
-157.583
-149.955
-118.541
-77.947
-37.798
-7.899
3.665
-2.722
-24.67
-54.708
-80.418
-96.946
-102.388
-97.649
-90.441
-83.995
-79.312
-77.979
-76.657
-73.628
-69.323
-63.631
-58.953
-57.085
-57.287
-56.942
-52.096
-40.211
-22.15
-3.587
8.013
6.851
-8.883
-33.984
-59.87
-77.819
-82.186
-74.303
-59.712
-45.986
-39.041
-39.934
-46.509
-54.594
-60.9
-64.51
-65.82
-66.058
-65.94
-65.433
-64.437
-62.86
-60.814
-58.567
-56.266
-53.956
-51.661
-49.383
-47.124
-44.891
-42.691
-40.531
-38.419
-36.376
-34.409
-32.516
-30.697
-28.942
-27.23
-25.539
-23.848
-22.139
-20.405
-18.636
-16.818
-14.932
-12.954
-10.863
-8.646
-6.29
-3.781
-1.109
1.734
4.753
7.942
11.299
14.819
18.498
22.333
26.321
30.456
34.734
39.146
43.681
48.328
53.068
57.879
62.736
67.61
72.474
77.303
82.077
86.78
91.401
95.931
100.362
104.68
108.865
112.898
116.762
120.443
123.934
127.232
130.346
133.288
136.075
138.716
141.213
143.549
145.697
147.62
149.275
150.63
151.662
152.353
152.689
152.654
152.236
151.413
150.161
148.447
146.231
143.488
140.205
136.393
132.085
127.329
122.187
116.719
110.972
104.994
98.822
92.495
86.048
79.521
72.955
66.403
59.923
53.571
47.389
41.406
35.632
30.064
24.686
19.485
14.451
9.579
4.87
0.327
-4.043
-8.235
-12.241
-16.061
-19.706
-23.182
-26.498
-29.656
-32.651
-35.474
-38.112
-40.554
-42.79
-44.816
-46.63
-48.237
-49.643
-50.857
-51.893
-52.761
-53.47
-54.028
-54.443
-54.721
-54.875
-54.914
-54.85
-54.694
-54.459
-54.154
-53.79
-53.375
-52.916
-52.419
-51.889
-51.331
-50.749
-50.148
-49.535
-48.912
-48.286
-47.66
-47.039
-46.425
-45.823
-45.234
-44.66
-44.1
-43.558
-43.032
-42.522
-42.029
-41.552
-41.092
-40.646
-40.215
-39.799
-39.396
-39.007
-38.631
-38.268
-37.919
-37.583
-37.261
-36.953
-36.661
-36.383
-36.122
-35.877
-35.649
-35.437
-35.241
-35.062
-34.899
-34.751
-34.619
-34.501
-34.398
-34.309
-34.233
-34.172
-34.123
-34.088
-34.065
-34.055
-34.057
-34.071
-34.097
-34.135
-34.183
-34.241
-34.308
-34.383
-34.465
-34.552
-34.643
-34.736
-34.83
-34.924
-35.018
-35.11
-35.2
-35.288
-35.374
-35.457
-35.537
-35.614
-35.689
-35.761
-35.83
-35.897
-35.962
-36.026
-36.089
-36.153
-36.216
-36.28
-36.344
-36.41
-36.476
-36.544
-36.614
-36.686
-36.762
-36.842
-36.928
-37.022
-37.124
-37.237
-37.36
-37.494
-37.638
-37.791
-37.953
-38.119
-38.29
-38.463
-38.639
-38.818
-39.001
-39.188
-39.381
-39.581
-39.789
-40.006
-40.232
-40.462
-40.696
-40.933
-41.174
-41.422
-41.679
-41.942
-42.206
-42.471
-42.728
-42.97
-43.183
-43.346
-43.444
-43.469
-43.418
-43.296
-43.107
-42.853
-42.541
-42.175
-41.763
-41.313
-40.835
-40.327
-39.802
-39.271
-38.76
-38.31
-37.95
-37.694
-37.549
-37.509
-37.566
-37.713
-37.938
-38.211
-38.509
-38.806
-39.078
-39.321
-39.516
-39.636
-39.65
-39.498
-39.131
-38.523
-37.647
-36.479
-35.016
-33.243
-31.146
-28.755
-26.084
-23.145
-19.978
-16.603
-13.018
-9.246
-5.317
-1.28
2.769
6.739
10.582
14.254
17.601
20.44
22.725
24.397
25.391
25.872
25.271
23.021
19.856
16.003
12.876
12.191
12.162
11.62
8.794
1.252
-8.662
-18.921
-28.063
-33.818
-37.611
-40.898
-43.944
-47.602
-51.232
-54.078
-56.27
-57.764
-58.686
-59.248
-59.421
-59.203
-58.694
-57.997
-57.206
-56.386
-55.642
-55.086
-54.863
-55.221
-56.341
-58.366
-61.264
-64.657
-68.016
-70.703
-72.621
-74.212
-75.517
-76.507
-75.299
-68.417
-55.123
-36.272
-16.491
-5.085
-6.291
-20.514
-44.885
-69.084
-86.09
-92.065
-80.988
-51.333
-1.477
71.475
163.744
270.185
385.434
500.479
609.557
706.635
782.326
830.57
842.953
812.358
739.307
625.106
478.776
317.146
156.725
16.536
-88.265
-152.08
-175.877
-165.661
-131.589
-85.484
-37.471
0.835
19.912
18.863
0.728
-25.846
-49.395
-65.12
-72.19
-72.86
-72.078
-71.748
-71.603
-70.998
-68.632
-64.425
-59.232
-53.964
-49.627
-46.563
-44.829
-43.934
-42.545
-40.682
-39.279
-39.819
-45.3
-55.559
-67.276
-77.216
-80.82
-77.478
-71.342
-65.613
-63.722
-66.419
-70.519
-74.033
-75.684
-75.034
-73.418
-71.516
-69.327
-66.96
-64.279
-61.279
-58.194
-55.143
-52.155
-49.288
-46.594
-44.086
-41.768
-39.625
-37.621
-35.739
-33.981
-32.335
-30.786
-29.321
-27.927
-26.595
-25.317
-24.08
-22.865
-21.656
-20.435
-19.192
-17.914
-16.591
-15.211
-13.761
-12.227
-10.602
-8.88
-7.042
-5.069
-2.943
-0.642
1.842
4.5
7.344
10.386
13.598
16.957
20.439
23.999
27.633
31.369
35.176
39.014
42.967
47.117
51.373
55.731
60.208
64.547
69.363
75.26
81.346
87.388
91.824
92.734
92.253
91.894
93.881
101.068
110.87
121.108
130.059
135.769
140.52
145.294
150.208
154.889
156.925
157.283
157.274
158.55
163.644
170.389
176.7
181.124
181.465
179.24
175.989
172.058
168.415
164.51
159.654
154.031
147.604
140.508
132.992
125.066
116.751
108.152
99.354
90.432
81.48
72.594
63.866
55.378
47.213
39.437
32.111
25.288
18.989
13.204
7.919
3.119
-1.221
-5.125
-8.619
-11.749
-14.56
-17.08
-19.355
-21.437
-23.329
-25.031
-26.573
-27.965
-29.22
-30.413
-31.595
-32.778
-34.116
-35.852
-37.99
-40.431
-43.2
-45.994
-48.971
-53.147
-58.055
-62.487
-64.889
-61.405
-51.03
-36.853
-22.551
-15.614
-21.564
-38.378
-62.117
-84.467
-96.289
-95.647
-83.359
-63.883
-44.182
-28.408
-19.798
-19.218
-25.632
-36.656
-47.764
-55.917
-58.965
-56.87
-52.685
-48.416
-45.404
-44.183
-43.6
-43.099
-42.719
-42.39
-42.306
-42.499
-42.737
-42.926
-43.078
-43.182
-43.243
-43.275
-43.281
-43.277
-43.297
-43.352
-43.428
-43.517
-43.618
-43.727
-43.843
-43.965
-44.086
-44.204
-44.318
-44.429
-44.536
-44.637
-44.734
-44.824
-44.909
-44.988
-45.063
-45.134
-45.201
-45.265
-45.325
-45.382
-45.435
-45.484
-45.53
-45.57
-45.605
-45.635
-45.658
-45.674
-45.682
-45.683
-45.675
-45.66
-45.637
-45.606
-45.569
-45.524
-45.474
-45.418
-45.358
-45.293
-45.225
-45.155
-45.081
-45.006
-44.929
-44.851
-44.771
-44.69
-44.608
-44.525
-44.441
-44.358
-44.276
-44.196
-44.119
-44.046
-43.978
-43.918
-43.866
-43.823
-43.792
-43.773
-43.768
-43.779
-43.805
-43.847
-43.907
-43.984
-44.078
-44.19
-44.318
-44.463
-44.624
-44.801
-44.993
-45.2
-45.421
-45.657
-45.906
-46.17
-46.446
-46.736
-47.037
-47.35
-47.673
-48.006
-48.345
-48.689
-49.036
-49.382
-49.726
-50.063
-50.393
-50.71
-51.013
-51.3
-51.568
-51.816
-52.039
-52.234
-52.398
-52.529
-52.623
-52.675
-52.682
-52.639
-52.541
-52.388
-52.175
-51.895
-51.543
-51.108
-50.586
-49.975
-49.273
-48.483
-47.608
-46.654
-45.63
-44.556
-43.445
-42.306
-41.148
-39.974
-38.791
-37.615
-36.454
-35.323
-34.226
-33.16
-32.119
-31.097
-30.074
-29.023
-27.912
-26.694
-25.339
-23.835
-22.173
-20.359
-18.399
-16.293
-14.052
-11.695
-9.248
-6.749
-4.244
-1.785
0.557
2.691
4.526
5.958
6.911
7.337
7.207
6.521
5.29
3.524
1.253
-1.479
-4.622
-8.115
-11.881
-15.84
-19.885
-23.891
-27.737
-31.296
-34.474
-37.214
-39.495
-41.363
-42.878
-44.115
-45.153
-46.054
-46.898
-47.798
-48.869
-50.223
-51.978
-54.204
-57.002
-60.58
-64.996
-70.132
-75.721
-81.2
-86.027
-89.875
-92.287
-92.637
-90.665
-86.464
-80.475
-73.82
-67.591
-62.426
-59.105
-58.656
-60.634
-62.893
-63.139
-58.1
-46.607
-31.86
-15.265
4.328
30.641
73.656
141.462
235.533
353.293
483.284
610.944
723.654
807.912
856.204
863.533
826.363
748.053
632.202
487.227
328.194
170.201
31.181
-73.781
-138.981
-165.844
-162.017
-138.592
-105.605
-70.955
-42.629
-26.643
-24.536
-34.396
-49.323
-61.622
-68.28
-69.277
-67.596
-66.747
-66.938
-67.283
-66.767
-64.289
-60.187
-55.375
-50.434
-46.093
-42.927
-41.061
-40.5
-41.127
-42.657
-44.883
-47.67
-50.856
-54.273
-57.775
-61.224
-64.491
-67.476
-70.083
-72.225
-73.827
-74.817
-75.161
-74.855
-73.937
-72.496
-70.603
-68.269
-65.601
-62.835
-60.069
-57.306
-54.63
-51.909
-49.546
-48.698
-49.167
-49.955
-49.407
-44.374
-35.021
-24.501
-15.948
-13.813
-18.398
-25.457
-31.702
-33.593
-30.473
-25.488
-20.572
-17.028
-15.254
-13.946
-12.502
-10.957
-9.254
-7.578
-5.97
-4.243
-2.334
-0.261
1.991
4.443
7.098
9.957
13.011
16.232
19.611
23.162
26.892
30.801
34.885
39.138
43.549
48.112
52.815
57.64
62.563
67.55
72.57
77.596
82.607
87.59
92.528
97.401
102.191
106.878
111.453
115.911
120.243
124.436
128.477
132.357
136.087
139.695
143.203
146.617
149.933
153.133
156.206
159.144
161.93
164.536
166.912
169.006
170.778
172.2
173.246
173.882
174.048
173.661
172.653
170.981
168.616
165.546
161.753
157.214
151.933
145.947
139.32
132.126
124.429
116.283
107.745
98.893
89.83
80.684
71.576
62.6
53.84
45.374
37.285
29.668
22.585
16.063
10.104
4.698
-0.161
-4.473
-8.246
-11.514
-14.329
-16.763
-18.888
-20.756
-22.416
-23.916
-25.311
-26.664
-28.024
-29.41
-30.831
-32.288
-33.785
-35.33
-36.926
-38.554
-40.191
-41.806
-43.361
-44.837
-46.219
-47.488
-48.628
-49.621
-50.452
-51.122
-51.638
-52.006
-52.234
-52.326
-52.289
-52.139
-51.896
-51.58
-51.212
-50.808
-50.379
-49.937
-49.491
-49.047
-48.613
-48.189
-47.773
-47.365
-46.964
-46.571
-46.186
-45.806
-45.427
-45.045
-44.656
-44.257
-43.846
-43.421
-42.98
-42.524
-42.052
-41.567
-41.071
-40.564
-40.049
-39.527
-38.997
-38.463
-37.924
-37.383
-36.841
-36.3
-35.761
-35.227
-34.701
-34.185
-33.682
-33.193
-32.722
-32.271
-31.842
-31.439
-31.063
-30.719
-30.407
-30.132
-29.895
-29.699
-29.545
-29.435
-29.371
-29.352
-29.38
-29.455
-29.574
-29.739
-29.947
-30.197
-30.487
-30.815
-31.177
-31.572
-31.997
-32.448
-32.922
-33.415
-33.925
-34.447
-34.979
-35.516
-36.055
-36.593
-37.126
-37.651
-38.166
-38.668
-39.153
-39.62
-40.066
-40.49
-40.89
-41.263
-41.61
-41.929
-42.221
-42.485
-42.722
-42.933
-43.119
-43.284
-43.428
-43.554
-43.667
-43.767
-43.859
-43.946
-44.032
-44.12
-44.215
-44.319
-44.437
-44.572
-44.727
-44.905
-45.109
-45.341
-45.603
-45.896
-46.221
-46.579
-46.967
-47.387
-47.836
-48.313
-48.817
-49.344
-49.893
-50.46
-51.044
-51.64
-52.243
-52.85
-53.452
-54.044
-54.62
-55.171
-55.691
-56.171
-56.601
-56.974
-57.283
-57.519
-57.673
-57.733
-57.686
-57.524
-57.241
-56.835
-56.304
-55.648
-54.87
-53.98
-52.992
-51.918
-50.764
-49.536
-48.238
-46.874
-45.457
-43.999
-42.508
-40.989
-39.44
-37.855
-36.232
-34.556
-32.805
-30.954
-28.965
-26.817
-24.506
-22.029
-19.396
-16.611
-13.678
-10.61
-7.432
-4.176
-0.885
2.392
5.607
8.689
11.55
14.105
16.26
17.946
19.12
19.739
19.77
19.185
17.959
16.084
13.577
10.462
6.78
2.588
-2.046
-7.026
-12.23
-17.539
-22.837
-28.022
-33.014
-37.721
-42.055
-45.934
-49.277
-52.023
-54.143
-55.634
-56.514
-56.835
-56.665
-56.068
-55.155
-54.052
-52.886
-51.79
-50.887
-50.257
-50.041
-50.479
-51.714
-53.761
-56.469
-59.402
-62.105
-64.265
-65.458
-65.116
-62.932
-58.908
-53.546
-48.069
-43.819
-41.871
-43.224
-48.959
-58.996
-71.598
-84.338
-93.62
-97.071
-95.848
-90.453
-79.32
-58.733
-19.479
46.878
142.594
265.935
406.619
549.574
681.845
789.656
863.066
896.886
886.047
829.341
729.698
592.914
431.246
263.094
107.459
-18.694
-103.713
-148.065
-159.054
-145.545
-119.786
-88.963
-58.531
-37.118
-27.403
-30.313
-43.26
-56.893
-66.391
-70.445
-70.009
-70.005
-72.124
-75.077
-77.658
-78.034
-75.808
-72.045
-67.526
-62.907
-58.761
-55.439
-53.137
-51.899
-51.6
-51.981
-52.832
-54.023
-55.39
-56.763
-58.015
-59.023
-59.706
-60.042
-60
-59.569
-58.787
-57.693
-56.339
-54.792
-53.111
-51.363
-49.626
-47.971
-46.452
-45.111
-43.979
-43.082
-42.444
-42.065
-41.918
-41.944
-42.073
-42.243
-42.402
-42.505
-42.506
-42.36
-42.024
-41.472
-40.689
-39.671
-38.412
-36.907
-35.159
-33.185
-31.017
-28.704
-26.291
-23.805
-21.268
-18.694
-16.092
-13.47
-10.828
-8.156
-5.441
-2.67
0.172
3.093
6.111
9.245
12.515
15.943
19.544
23.321
27.273
31.391
35.658
40.056
44.567
49.173
53.86
58.612
63.411
68.236
73.062
77.875
82.663
87.418
92.135
96.815
101.467
106.115
110.794
115.525
120.315
125.158
130.036
134.931
139.83
144.722
149.588
154.397
159.11
163.692
168.105
172.303
176.221
179.766
182.839
185.36
187.272
188.538
189.134
189.037
188.224
186.673
184.377
181.339
177.562
173.051
167.813
161.866
155.256
148.069
140.399
132.328
123.927
115.258
106.383
97.366
88.281
79.196
70.181
61.308
52.651
44.286
36.288
28.727
21.645
15.056
8.964
3.37
-1.725
-6.325
-10.44
-14.091
-17.309
-20.125
-22.586
-24.746
-26.664
-28.394
-29.991
-31.513
-33
-34.481
-35.975
-37.496
-39.05
-40.643
-42.275
-43.939
-45.621
-47.305
-48.965
-50.567
-52.082
-53.488
-54.763
-55.888
-56.851
-57.642
-58.262
-58.716
-59.013
-59.161
-59.169
-59.047
-58.813
-58.481
-58.074
-57.613
-57.116
-56.601
-56.078
-55.556
-55.041
-54.539
-54.051
-53.579
-53.12
-52.67
-52.231
-51.815
-51.428
-51.077
-50.761
-50.461
-50.173
-49.911
-49.661
-49.387
-49.06
-48.646
-48.142
-47.598
-47.026
-46.376
-45.701
-45.179
-44.851
-44.662
-44.635
-44.577
-44.849
-46.58
-49.528
-52.66
-54.27
-51.15
-43.5
-34.545
-27.498
-26.922
-33.103
-41.729
-49.47
-52.726
-50.874
-47.138
-43.497
-41.304
-40.967
-41.172
-41.323
-41.467
-41.557
-41.793
-42.223
-42.669
-43.079
-43.48
-43.869
-44.235
-44.583
-44.919
-45.258
-45.626
-46.031
-46.454
-46.888
-47.329
-47.775
-48.223
-48.669
-49.107
-49.532
-49.946
-50.349
-50.739
-51.117
-51.48
-51.827
-52.157
-52.468
-52.76
-53.028
-53.271
-53.487
-53.677
-53.841
-53.981
-54.099
-54.195
-54.275
-54.341
-54.397
-54.447
-54.492
-54.534
-54.577
-54.628
-54.697
-54.788
-54.904
-55.044
-55.208
-55.394
-55.598
-55.808
-56.005
-56.174
-56.304
-56.395
-56.453
-56.482
-56.485
-56.463
-56.418
-56.362
-56.308
-56.266
-56.239
-56.235
-56.269
-56.37
-56.582
-56.937
-57.45
-58.113
-58.911
-59.829
-60.849
-61.945
-63.083
-64.213
-65.293
-66.301
-67.218
-68.025
-68.689
-69.152
-69.346
-69.22
-68.74
-67.898
-66.69
-65.106
-63.149
-60.838
-58.2
-55.286
-52.123
-48.714
-45.066
-41.192
-37.122
-32.911
-28.623
-24.308
-20.017
-15.794
-11.685
-7.752
-4.049
-0.619
2.488
5.243
7.6
9.489
10.857
11.662
11.872
11.477
10.473
8.852
6.63
3.826
0.471
-3.381
-7.663
-12.294
-17.169
-22.195
-27.276
-32.305
-37.192
-41.852
-46.203
-50.175
-53.706
-56.739
-59.237
-61.173
-62.527
-63.313
-63.584
-63.451
-63.055
-62.531
-62.001
-61.557
-61.303
-61.369
-61.872
-62.912
-64.584
-66.907
-69.941
-73.846
-78.61
-84.066
-89.919
-95.578
-100.49
-104.342
-106.641
-106.735
-104.47
-99.978
-93.679
-86.704
-79.952
-73.828
-69.169
-67.016
-66.686
-66.133
-63.247
-54.815
-40.043
-21.999
-1.177
24.11
56.754
104.715
173.627
262.542
368.891
484.859
599.407
704.106
788.902
842.525
854.585
815.43
722.175
582.12
412.437
238.117
82.54
-38.094
-116.05
-155.762
-166.361
-156.185
-135.617
-110.365
-85.069
-67.409
-59.571
-61.993
-72.1
-81.99
-88.054
-89.881
-88.852
-89.047
-91.487
-94.572
-96.882
-96.871
-94.303
-90.145
-85.122
-79.816
-74.787
-70.473
-67.149
-64.888
-63.588
-63.02
-63.004
-63.458
-64.272
-65.295
-66.403
-67.486
-68.467
-69.328
-70.053
-70.597
-70.942
-71.078
-71.001
-70.74
-70.334
-69.8
-69.161
-68.426
-67.581
-66.633
-65.605
-64.511
-63.376
-62.209
-60.997
-59.739
-58.437
-57.088
-55.692
-54.238
-52.706
-51.096
-49.419
-47.692
-45.951
-44.217
-42.494
-40.788
-39.099
-37.431
-35.792
-34.18
-32.582
-30.987
-29.381
-27.755
-26.102
-24.408
-22.643
-20.781
-18.783
-16.621
-14.28
-11.745
-9.005
-6.056
-2.896
0.469
4.017
7.732
11.599
15.602
19.736
23.988
28.345
32.794
37.316
41.903
46.554
51.272
56.064
60.937
65.9
70.967
76.163
81.507
87.004
92.651
98.432
104.324
110.299
116.325
122.366
128.367
134.261
139.972
145.416
150.518
155.206
159.4
163.016
165.987
168.262
169.818
170.639
170.718
170.054
168.648
166.515
163.693
160.229
156.184
151.631
146.632
141.25
135.559
129.629
123.513
117.244
110.826
104.266
97.583
90.801
83.949
77.055
70.133
63.208
56.307
49.442
42.631
35.891
29.221
22.639
16.178
9.886
3.835
-1.912
-7.32
-12.36
-17.013
-21.274
-25.142
-28.634
-31.79
-34.638
-37.197
-39.483
-41.499
-43.262
-44.803
-46.159
-47.383
-48.518
-49.591
-50.626
-51.643
-52.649
-53.645
-54.614
-55.519
-56.338
-57.06
-57.681
-58.212
-58.654
-59.004
-59.261
-59.424
-59.492
-59.471
-59.364
-59.176
-58.921
-58.615
-58.284
-57.962
-57.675
-57.437
-57.259
-57.147
-57.105
-57.144
-57.27
-57.486
-57.798
-58.211
-58.728
-59.35
-60.063
-60.845
-61.669
-62.505
-63.325
-64.106
-64.823
-65.449
-65.959
-66.316
-66.486
-66.44
-66.14
-65.553
-64.657
-63.445
-61.955
-60.252
-58.409
-56.498
-54.568
-52.678
-50.932
-49.434
-48.286
-47.589
-47.385
-47.757
-48.912
-50.923
-53.7
-57.02
-60.377
-63.285
-65.505
-66.68
-66.236
-63.953
-59.977
-54.815
-49.65
-45.605
-43.241
-43.169
-46.325
-52.355
-59.114
-64.169
-64.259
-57.984
-48.163
-36.437
-20.939
2.981
44.227
110.25
200.221
308.515
425.85
541.117
647.271
737.081
801.811
831.781
816.058
750.055
636.008
484.317
314.217
145.471
-2.738
-114.828
-184.413
-212.341
-204.729
-172.411
-127.501
-80.474
-42.254
-20.779
-17.036
-27.833
-44.512
-57.652
-63.97
-63.765
-60.65
-58.958
-59.058
-59.835
-59.985
-58.073
-54.317
-49.674
-44.742
-40.269
-36.849
-34.611
-33.581
-33.66
-34.567
-36.096
-38.137
-40.555
-43.201
-45.957
-48.695
-51.311
-53.764
-56.006
-57.984
-59.653
-60.962
-61.863
-62.352
-62.447
-62.174
-61.575
-60.685
-59.528
-58.137
-56.556
-54.827
-52.989
-51.069
-49.071
-47.009
-44.901
-42.777
-40.675
-38.612
-36.588
-34.603
-32.65
-30.724
-28.823
-26.938
-25.047
-23.136
-21.194
-19.22
-17.221
-15.195
-13.133
-11.021
-8.836
-6.562
-4.189
-1.706
0.902
3.645
6.531
9.565
12.741
16.055
19.508
23.103
26.845
30.737
34.77
38.936
43.223
47.617
52.103
56.66
61.258
65.868
70.462
75.016
79.513
83.938
88.273
92.496
96.587
100.533
104.333
107.987
111.488
114.832
118.018
121.052
123.962
126.774
129.504
132.166
134.762
137.292
139.759
142.159
144.474
146.671
148.699
150.502
152.041
153.284
154.188
154.697
154.73
154.213
153.078
151.264
148.719
145.384
141.213
136.176
130.282
123.568
116.091
107.922
99.114
89.713
79.784
69.415
58.719
47.818
36.84
25.916
15.193
4.843
-4.977
-14.132
-22.526
-30.103
-36.827
-42.672
-47.603
-51.575
-54.561
-56.56
-57.593
-57.699
-56.943
-55.406
-53.214
-50.539
-47.553
-44.423
-41.295
-38.266
-35.418
-32.824
-30.559
-28.714
-27.371
-26.597
-26.449
-26.972
-28.19
-30.103
-32.666
-35.772
-39.289
-43.063
-46.948
-50.835
-54.643
-58.304
-61.754
-64.924
-67.741
-70.14
-72.061
-73.435
-74.194
-74.286
-73.69
-72.441
-70.626
-68.368
-65.798
-63.028
-60.143
-57.206
-54.271
-51.385
-48.596
-45.945
-43.47
-41.226
-39.286
-37.72
-36.589
-35.918
-35.673
-35.792
-36.192
-36.786
-37.509
-38.314
-39.159
-40.017
-40.869
-41.7
-42.505
-43.262
-43.934
-44.477
-44.839
-44.986
-44.919
-44.656
-44.235
-43.702
-43.096
-42.447
-41.783
-41.123
-40.475
-39.843
-39.222
-38.61
-38.016
-37.455
-36.948
-36.517
-36.168
-35.901
-35.71
-35.581
-35.5
-35.459
-35.444
-35.447
-35.465
-35.499
-35.551
-35.63
-35.738
-35.874
-36.036
-36.22
-36.423
-36.642
-36.878
-37.128
-37.394
-37.674
-37.969
-38.279
-38.604
-38.941
-39.286
-39.634
-39.982
-40.326
-40.661
-40.985
-41.296
-41.59
-41.866
-42.123
-42.361
-42.579
-42.777
-42.953
-43.109
-43.243
-43.357
-43.449
-43.522
-43.575
-43.609
-43.626
-43.626
-43.613
-43.586
-43.548
-43.499
-43.442
-43.379
-43.309
-43.236
-43.161
-43.085
-43.01
-42.939
-42.873
-42.814
-42.764
-42.723
-42.694
-42.676
-42.67
-42.677
-42.695
-42.725
-42.767
-42.82
-42.882
-42.954
-43.034
-43.121
-43.213
-43.31
-43.409
-43.508
-43.607
-43.704
-43.797
-43.887
-43.973
-44.053
-44.126
-44.193
-44.252
-44.303
-44.344
-44.374
-44.391
-44.396
-44.387
-44.365
-44.327
-44.275
-44.209
-44.128
-44.033
-43.925
-43.803
-43.669
-43.522
-43.365
-43.197
-43.022
-42.84
-42.654
-42.466
-42.278
-42.093
-41.911
-41.734
-41.562
-41.397
-41.236
-41.081
-40.93
-40.782
-40.64
-40.503
-40.376
-40.259
-40.156
-40.07
-40.002
-39.953
-39.926
-39.918
-39.927
-39.952
-39.99
-40.044
-40.117
-40.209
-40.321
-40.449
-40.586
-40.729
-40.871
-40.997
-41.09
-41.134
-41.109
-41.021
-40.883
-40.678
-40.397
-40.038
-39.581
-39.043
-38.454
-37.79
-37.02
-36.236
-35.552
-34.949
-34.477
-34.183
-33.888
-34.158
-35.517
-37.204
-38.97
-39.384
-36.759
-32.915
-29.06
-27.018
-29.284
-33.603
-38.056
-41.297
-41.119
-38.98
-36.358
-33.518
-31.368
-29.35
-26.776
-23.839
-20.492
-16.813
-12.975
-8.91
-4.579
-0.08
4.51
9.12
13.633
17.931
21.884
25.326
28.138
30.256
31.641
32.286
32.185
31.318
29.68
27.278
24.135
20.301
15.832
10.796
5.298
-0.538
-6.566
-12.614
-18.543
-24.24
-29.599
-34.53
-38.945
-42.756
-45.897
-48.327
-50.036
-51.03
-51.344
-51.024
-50.13
-48.762
-47.061
-45.195
-43.337
-41.646
-40.258
-39.36
-39.213
-39.954
-41.56
-43.809
-46.225
-48.361
-49.94
-50.602
-49.846
-47.451
-43.633
-39.13
-35.364
-33.634
-34.549
-38.527
-46.033
-56.933
-70.189
-83.722
-94.121
-97.885
-92.66
-76.337
-46.674
-2.183
57.713
131.376
214.118
300.69
386.384
468.358
546.925
621.83
691.297
750.152
786.872
789.34
747.9
658.975
530.456
378.331
223.871
88.149
-14.634
-78.321
-107.403
-111.405
-98.642
-77.81
-53.109
-28.212
-11
-5.053
-11.621
-28.261
-46.189
-60.281
-68.762
-72.137
-74.417
-76.994
-79.277
-80.649
-79.658
-76.143
-71.021
-64.944
-58.729
-53.074
-48.164
-44.077
-40.801
-38.155
-36.024
-34.344
-33.052
-32.08
-31.397
-31.015
-30.929
-31.147
-31.643
-32.342
-33.174
-34.077
-35.013
-35.97
-36.943
-37.925
-38.913
-39.913
-40.913
-41.894
-42.81
-43.585
-44.162
-44.513
-44.624
-44.502
-44.159
-43.601
-42.838
-41.882
-40.741
-39.422
-37.93
-36.261
-34.425
-32.444
-30.355
-28.217
-26.075
-23.954
-21.873
-19.838
-17.851
-15.916
-14.022
-12.153
-10.291
-8.425
-6.543
-4.642
-2.71
-0.733
1.314
3.456
5.715
8.103
10.634
13.313
16.145
19.134
22.273
25.554
28.965
32.5
36.15
39.909
43.769
47.718
51.743
55.832
59.972
64.149
68.35
72.559
76.763
80.945
85.093
89.193
93.23
97.189
101.054
104.812
108.448
111.948
115.296
118.479
121.482
124.293
126.901
129.294
131.459
133.386
135.062
136.48
137.635
138.514
139.107
139.409
139.414
139.118
138.538
137.673
136.516
135.1
133.45
131.572
129.5
127.248
124.78
122.094
119.217
116.04
112.467
108.617
104.492
100.024
95.511
90.54
84.566
78.419
72.392
67.873
67.178
69.391
72.81
74.262
69.011
56.203
38.343
20.32
8.043
4.646
8.519
14.75
18.776
17.411
10.96
2.695
-5.216
-11.356
-15.486
-18.857
-21.925
-24.651
-27.081
-29.009
-30.446
-31.619
-32.604
-33.404
-34.058
-34.587
-35.002
-35.315
-35.515
-35.587
-35.544
-35.435
-35.317
-35.22
-35.158
-35.124
-35.093
-35.052
-34.998
-34.921
-34.813
-34.668
-34.478
-34.247
-33.992
-33.717
-33.422
-33.101
-32.735
-32.318
-31.853
-31.348
-30.819
-30.281
-29.738
-29.202
-28.685
-28.194
-27.735
-27.307
-26.904
-26.521
-26.159
-25.819
-25.504
-25.216
-24.954
-24.717
-24.503
-24.313
-24.145
-23.999
-23.871
-23.762
-23.672
-23.602
-23.557
-23.538
-23.548
-23.587
-23.657
-23.759
-23.893
-24.059
-24.254
-24.478
-24.728
-25.004
-25.303
-25.624
-25.966
-26.326
-26.705
-27.1
-27.51
-27.936
-28.375
-28.826
-29.289
-29.762
-30.244
-30.732
-31.226
-31.723
-32.22
-32.715
-33.205
-33.687
-34.156
-34.611
-35.047
-35.462
-35.853
-36.217
-36.553
-36.86
-37.138
-37.388
-37.609
-37.803
-37.971
-38.116
-38.237
-38.338
-38.419
-38.481
-38.527
-38.558
-38.574
-38.576
-38.567
-38.547
-38.518
-38.48
-38.435
-38.385
-38.333
-38.28
-38.231
-38.187
-38.153
-38.133
-38.129
-38.146
-38.187
-38.254
-38.351
-38.478
-38.638
-38.831
-39.057
-39.316
-39.607
-39.931
-40.285
-40.669
-41.082
-41.522
-41.989
-42.48
-42.996
-43.534
-44.094
-44.673
-45.272
-45.889
-46.521
-47.167
-47.823
-48.487
-49.154
-49.82
-50.48
-51.128
-51.759
-52.366
-52.943
-53.485
-53.985
-54.439
-54.84
-55.185
-55.468
-55.685
-55.832
-55.906
-55.901
-55.815
-55.644
-55.386
-55.038
-54.597
-54.06
-53.426
-52.693
-51.86
-50.924
-49.885
-48.744
-47.502
-46.161
-44.723
-43.193
-41.578
-39.886
-38.123
-36.301
-34.429
-32.519
-30.581
-28.63
-26.677
-24.735
-22.818
-20.937
-19.108
-17.343
-15.656
-14.061
-12.569
-11.194
-9.948
-8.847
-7.903
-7.126
-6.526
-6.113
-5.894
-5.882
-6.086
-6.509
-7.153
-8.021
-9.108
-10.416
-11.933
-13.638
-15.507
-17.506
-19.602
-21.768
-23.97
-26.173
-28.336
-30.418
-32.383
-34.188
-35.788
-37.146
-38.237
-39.048
-39.601
-39.929
-40.104
-40.271
-40.583
-41.164
-42.114
-43.464
-45.221
-47.443
-50.091
-52.971
-55.952
-59.022
-62.296
-66.053
-70.02
-73.257
-75.095
-75.71
-77.161
-82.388
-93.128
-108.44
-122.855
-130
-124.684
-104.255
-73.689
-39.873
-10.283
6.253
9.04
-0.156
-18.426
-36.833
-49.983
-51.998
-34.197
6.948
73.563
164.307
271.418
385.259
496.052
595.157
675.489
732.731
763.339
762.068
725.607
653.147
547.156
417.369
279.273
148.991
40.977
-35.695
-81.662
-103.326
-108.236
-103.484
-92.166
-75.738
-58.331
-44.943
-39.99
-44.226
-52.85
-60.566
-64.109
-63.433
-61.981
-61.763
-62.493
-63.226
-62.303
-59.248
-54.898
-49.96
-45.071
-40.807
-37.546
-35.548
-34.956
-35.678
-37.472
-40.124
-43.448
-47.256
-51.348
-55.54
-59.648
-63.528
-67.071
-70.167
-72.726
-74.697
-76.053
-76.787
-76.909
-76.439
-75.4
-73.852
-71.876
-69.545
-66.929
-64.1
-61.121
-58.064
-55.004
-51.995
-49.072
-46.252
-43.54
-40.932
-38.426
-36.009
-33.678
-31.418
-29.209
-27.042
-24.897
-22.752
-20.611
-18.481
-16.34
-14.184
-12.019
-9.848
-7.714
-5.685
-3.763
-1.939
-0.317
0.991
2.038
2.822
3.341
3.828
3.72
2.493
1.024
-0.361
-0.073
3.762
9.223
15.056
19.339
19.406
17.712
16.326
16.667
21.053
27.826
35.307
43.106
50.152
56.954
64.166
71.514
78.99
86.446
93.629
100.563
107.25
113.584
119.503
124.968
129.934
134.361
138.207
141.414
143.956
145.868
147.216
148.076
148.49
148.483
148.081
147.313
146.218
144.835
143.171
141.253
139.154
136.956
134.733
132.537
130.352
128.132
125.852
123.367
120.385
116.723
112.363
107.372
101.965
95.783
87.938
78.356
67.916
59.434
56.576
60.913
71.552
83.394
89.886
86.313
70.034
44.547
16.024
-9.269
-24.485
-28.544
-23.437
-11.942
0.47
10.982
17.925
18.405
11.985
-0.793
-17.863
-33.912
-44.904
-49.382
-48.148
-44.838
-42.405
-41.809
-42.939
-44.61
-46.108
-47.57
-49.044
-50.431
-51.618
-52.477
-52.92
-53.176
-52.895
-50.885
-47.395
-43.572
-41.259
-43.917
-51.424
-60.319
-67.185
-67.172
-59.882
-49.935
-40.91
-36.638
-37.873
-41.18
-44.425
-46.183
-45.988
-45.246
-44.615
-44.045
-43.589
-43.04
-42.34
-41.679
-41.118
-40.622
-40.198
-39.851
-39.575
-39.36
-39.186
-39.021
-38.852
-38.692
-38.546
-38.41
-38.283
-38.162
-38.047
-37.941
-37.844
-37.752
-37.663
-37.575
-37.487
-37.398
-37.306
-37.21
-37.11
-37.004
-36.893
-36.775
-36.652
-36.524
-36.392
-36.255
-36.116
-35.976
-35.835
-35.696
-35.56
-35.427
-35.3
-35.18
-35.067
-34.964
-34.87
-34.787
-34.715
-34.654
-34.605
-34.568
-34.544
-34.532
-34.533
-34.547
-34.575
-34.615
-34.669
-34.736
-34.817
-34.91
-35.016
-35.133
-35.262
-35.401
-35.55
-35.708
-35.872
-36.043
-36.219
-36.397
-36.578
-36.76
-36.941
-37.12
-37.298
-37.472
-37.643
-37.811
-37.974
-38.134
-38.289
-38.441
-38.588
-38.732
-38.873
-39.011
-39.147
-39.282
-39.415
-39.549
-39.684
-39.821
-39.962
-40.106
-40.256
-40.412
-40.577
-40.75
-40.935
-41.131
-41.341
-41.565
-41.804
-42.058
-42.328
-42.614
-42.914
-43.228
-43.553
-43.889
-44.234
-44.587
-44.945
-45.307
-45.67
-46.035
-46.399
-46.758
-47.11
-47.452
-47.778
-48.084
-48.366
-48.618
-48.833
-49.006
-49.129
-49.199
-49.209
-49.152
-49.021
-48.805
-48.499
-48.1
-47.605
-47.014
-46.332
-45.561
-44.71
-43.793
-42.82
-41.801
-40.743
-39.652
-38.532
-37.386
-36.218
-35.036
-33.843
-32.633
-31.398
-30.125
-28.803
-27.416
-25.947
-24.368
-22.659
-20.805
-18.8
-16.648
-14.36
-11.953
-9.449
-6.872
-4.257
-1.653
0.886
3.295
5.516
7.497
9.175
10.481
11.349
11.723
11.56
10.836
9.536
7.663
5.233
2.275
-1.152
-4.972
-9.099
-13.433
-17.886
-22.376
-26.812
-31.095
-35.119
-38.783
-42.004
-44.719
-46.87
-48.43
-49.408
-49.842
-49.819
-49.44
-48.791
-47.987
-47.148
-46.396
-45.87
-45.697
-45.981
-46.861
-48.528
-51.081
-54.469
-58.448
-62.564
-66.361
-69.509
-71.636
-72.214
-70.899
-67.824
-63.641
-59.478
-56.373
-54.852
-55.305
-58.382
-64.516
-72.577
-79.699
-82.548
-77.734
-64.294
-44.518
-18.867
13.676
54.841
110.575
184.999
277.492
386.699
505.602
622.794
728.261
810.004
856.512
859.866
814.235
719.855
584.948
424.64
259.404
109.347
-10.894
-92.978
-136.753
-147.706
-130.343
-92.708
-44.517
6.159
45.008
61.084
51.436
15.4
-36.378
-88.568
-130.215
-150.929
-149.786
-134.395
-112.98
-95.398
-86.2
-83.806
-85.209
-85.977
-84.175
-80.416
-75.567
-70.954
-66.969
-63.284
-59.817
-56.454
-53.209
-50.26
-47.654
-45.405
-43.575
-42.153
-41.091
-40.34
-39.821
-39.484
-39.313
-39.286
-39.395
-39.639
-40.017
-40.539
-41.216
-42.037
-42.991
-44.05
-45.157
-46.254
-47.281
-48.164
-48.86
-49.337
-49.565
-49.536
-49.242
-48.675
-47.831
-46.706
-45.298
-43.614
-41.665
-39.464
-37.039
-34.42
-31.647
-28.776
-25.85
-22.901
-19.957
-17.028
-14.119
-11.238
-8.388
-5.567
-2.776
-0.003
2.751
5.48
8.172
10.798
13.347
15.831
18.256
20.636
22.981
25.292
27.582
29.881
32.21
34.589
37.026
39.515
42.068
44.709
47.479
50.441
53.643
57.105
60.857
64.921
69.313
74.054
79.128
84.479
90.063
95.837
101.765
107.829
113.989
120.179
126.326
132.336
138.12
143.603
148.689
153.273
157.261
160.56
163.119
164.933
165.99
166.281
165.798
164.526
162.475
159.682
156.184
152.027
147.269
141.97
136.217
130.127
123.799
117.334
110.804
104.251
97.72
91.259
84.904
78.69
72.638
66.754
61.052
55.546
50.24
45.13
40.194
35.389
30.685
26.056
21.489
16.98
12.527
8.13
3.794
-0.468
-4.639
-8.704
-12.65
-16.471
-20.158
-23.696
-27.066
-30.245
-33.215
-35.966
-38.49
-40.783
-42.843
-44.673
-46.278
-47.672
-48.865
-49.87
-50.696
-51.353
-51.85
-52.201
-52.418
-52.514
-52.502
-52.391
-52.194
-51.921
-51.583
-51.189
-50.747
-50.264
-49.747
-49.204
-48.641
-48.067
-47.487
-46.907
-46.333
-45.771
-45.226
-44.7
-44.197
-43.719
-43.268
-42.844
-42.449
-42.081
-41.74
-41.425
-41.134
-40.864
-40.615
-40.382
-40.163
-39.955
-39.755
-39.56
-39.368
-39.176
-38.98
-38.78
-38.573
-38.357
-38.132
-37.896
-37.648
-37.388
-37.115
-36.83
-36.533
-36.223
-35.903
-35.572
-35.233
-34.887
-34.535
-34.18
-33.825
-33.471
-33.122
-32.78
-32.449
-32.13
-31.829
-31.547
-31.288
-31.055
-30.851
-30.678
-30.538
-30.434
-30.366
-30.337
-30.346
-30.394
-30.48
-30.603
-30.763
-30.958
-31.186
-31.446
-31.734
-32.048
-32.387
-32.746
-33.123
-33.515
-33.919
-34.331
-34.748
-35.167
-35.584
-35.996
-36.399
-36.791
-37.167
-37.524
-37.859
-38.17
-38.454
-38.709
-38.932
-39.123
-39.282
-39.406
-39.498
-39.556
-39.583
-39.58
-39.549
-39.493
-39.413
-39.313
-39.196
-39.065
-38.923
-38.773
-38.618
-38.462
-38.307
-38.158
-38.017
-37.888
-37.774
-37.679
-37.605
-37.555
-37.533
-37.541
-37.581
-37.654
-37.763
-37.906
-38.085
-38.299
-38.546
-38.826
-39.135
-39.472
-39.834
-40.218
-40.621
-41.038
-41.465
-41.896
-42.325
-42.748
-43.157
-43.547
-43.912
-44.243
-44.535
-44.782
-44.977
-45.112
-45.177
-45.158
-45.045
-44.832
-44.516
-44.099
-43.583
-42.972
-42.272
-41.502
-40.679
-39.816
-38.913
-37.958
-36.945
-35.882
-34.797
-33.713
-32.635
-31.577
-30.575
-29.689
-28.955
-28.354
-27.816
-27.264
-26.661
-25.905
-24.775
-23.086
-20.793
-17.973
-14.834
-10.965
-5.399
2.07
10.74
17.963
19.801
14.748
4.109
-7.866
-14.559
-12.173
-0.993
16.127
32.754
42.919
44.379
36.247
21.572
6.031
-7.153
-15.369
-18.668
-20.324
-22.18
-25.394
-30.252
-35.382
-40.091
-44.305
-47.899
-51.024
-53.709
-55.788
-57.226
-58.093
-58.43
-58.289
-57.777
-57.018
-56.16
-55.389
-54.827
-54.585
-54.878
-55.826
-57.429
-59.557
-61.802
-63.665
-64.785
-64.715
-62.86
-58.94
-52.976
-45.315
-37.144
-29.85
-24.396
-21.946
-23.172
-27.334
-33.209
-38.926
-43.052
-45.874
-47.393
-46.384
-37.247
-11.438
37.212
112.754
211.584
324.83
445.424
564.561
675.37
771.681
843.052
878.928
869.284
807.382
694.011
538.061
357.3
175.692
17.338
-99.396
-167.32
-191.804
-184.838
-159.371
-125.856
-89.959
-56.7
-31.335
-16.325
-12.364
-15.91
-21.488
-27.506
-33.554
-40.879
-51.528
-64.045
-76.499
-87.529
-94.995
-97.893
-96.47
-91.155
-83.313
-74.879
-66.84
-59.608
-53.555
-48.875
-45.733
-44.254
-44.167
-44.838
-45.878
-47.143
-48.554
-50.134
-51.827
-53.475
-55.001
-56.429
-57.776
-59.029
-60.148
-61.044
-61.648
-61.956
-61.984
-61.744
-61.242
-60.47
-59.432
-58.125
-56.567
-54.789
-52.819
-50.699
-48.476
-46.157
-43.741
-41.344
-39.105
-36.982
-34.981
-33.122
-31.201
-29.793
-29.457
-29.406
-29.387
-27.945
-23.344
-17.476
-11.601
-7.589
-8.011
-10.543
-13.206
-14.645
-12.639
-8.748
-4.554
-0.393
2.775
5.52
8.568
11.78
15.245
18.91
22.616
26.44
30.442
34.577
38.823
43.175
47.62
52.137
56.71
61.307
65.902
70.5
75.107
79.727
84.365
89.026
93.723
98.475
103.298
108.195
113.163
118.188
123.251
128.326
133.384
138.393
143.312
148.091
152.667
156.968
160.929
164.485
167.569
170.111
172.04
173.304
173.862
173.689
172.781
171.14
168.778
165.719
161.995
157.65
152.752
147.38
141.603
135.49
129.105
122.518
115.812
109.06
102.322
95.646
89.06
82.592
76.264
70.095
64.094
58.264
52.589
47.044
41.622
36.321
31.142
26.089
21.141
16.278
11.499
6.802
2.199
-2.297
-6.685
-10.959
-15.105
-19.112
-22.958
-26.619
-30.089
-33.368
-36.456
-39.363
-42.075
-44.581
-46.881
-48.977
-50.876
-52.586
-54.106
-55.438
-56.591
-57.576
-58.405
-59.092
-59.64
-60.054
-60.337
-60.491
-60.53
-60.466
-60.304
-60.055
-59.725
-59.321
-58.855
-58.339
-57.778
-57.176
-56.54
-55.874
-55.187
-54.487
-53.777
-53.064
-52.351
-51.641
-50.939
-50.247
-49.568
-48.904
-48.256
-47.627
-47.018
-46.433
-45.873
-45.339
-44.834
-44.359
-43.915
-43.505
-43.129
-42.788
-42.483
-42.215
-41.983
-41.788
-41.63
-41.508
-41.421
-41.369
-41.35
-41.362
-41.405
-41.476
-41.574
-41.698
-41.845
-42.014
-42.204
-42.412
-42.636
-42.875
-43.127
-43.39
-43.662
-43.941
-44.225
-44.512
-44.8
-45.088
-45.372
-45.651
-45.923
-46.185
-46.435
-46.672
-46.893
-47.096
-47.28
-47.445
-47.588
-47.709
-47.808
-47.884
-47.938
-47.97
-47.979
-47.968
-47.936
-47.884
-47.814
-47.728
-47.626
-47.511
-47.385
-47.249
-47.105
-46.956
-46.804
-46.651
-46.498
-46.349
-46.206
-46.071
-45.946
-45.836
-45.741
-45.666
-45.613
-45.584
-45.583
-45.612
-45.673
-45.768
-45.898
-46.064
-46.267
-46.509
-46.788
-47.105
-47.46
-47.851
-48.278
-48.739
-49.233
-49.757
-50.309
-50.887
-51.487
-52.106
-52.741
-53.39
-54.047
-54.71
-55.374
-56.036
-56.69
-57.331
-57.954
-58.553
-59.122
-59.654
-60.142
-60.58
-60.961
-61.28
-61.531
-61.709
-61.809
-61.826
-61.76
-61.605
-61.361
-61.023
-60.589
-60.055
-59.418
-58.678
-57.83
-56.874
-55.806
-54.627
-53.34
-51.945
-50.447
-48.845
-47.14
-45.334
-43.435
-41.452
-39.398
-37.285
-35.131
-32.955
-30.789
-28.659
-26.594
-24.615
-22.729
-20.948
-19.285
-17.749
-16.353
-15.1
-13.981
-12.991
-12.131
-11.397
-10.783
-10.27
-9.816
-9.388
-8.96
-8.518
-8.071
-7.629
-7.2
-6.805
-6.47
-6.236
-6.159
-6.279
-6.609
-7.159
-7.936
-8.965
-10.295
-11.96
-13.977
-16.342
-19.028
-21.995
-25.205
-28.594
-32.077
-35.553
-38.916
-42.091
-45.059
-47.822
-50.39
-52.757
-54.884
-56.76
-58.416
-59.913
-61.344
-62.799
-64.33
-66.055
-68.174
-70.811
-73.984
-77.504
-80.906
-83.75
-85.752
-86.584
-85.864
-83.4
-79.219
-73.896
-68.653
-64.555
-62.233
-62.234
-64.976
-70.561
-78.798
-87.665
-93.38
-92.856
-83.368
-64.543
-38.602
-5.091
37.264
91.059
161.726
249.15
349.639
457.727
563.094
658.904
740.337
800.653
834.422
832.93
787.075
694.672
559.191
393.521
219.425
57.778
-71.996
-157.007
-197.554
-199.288
-173.107
-134.052
-92.636
-58.907
-40.631
-37.873
-47.818
-63.237
-75.429
-81.539
-81.744
-79.04
-77.525
-77.473
-77.802
-77.361
-74.684
-69.961
-64.176
-57.964
-52.173
-47.543
-44.269
-42.431
-41.988
-42.683
-44.361
-46.934
-50.224
-54.016
-58.104
-62.271
-66.349
-70.228
-73.781
-76.879
-79.43
-81.368
-82.675
-83.366
-83.461
-82.978
-81.929
-80.342
-78.266
-75.763
-72.915
-69.82
-66.566
-63.238
-59.914
-56.657
-53.513
-50.511
-47.657
-44.94
-42.343
-39.853
-37.464
-35.168
-32.961
-30.833
-28.766
-26.738
-24.724
-22.71
-20.687
-18.656
-16.615
-14.57
-12.536
-10.536
-8.61
-6.788
-5.083
-3.503
-2.037
-0.671
0.605
1.806
2.953
4.077
5.226
6.448
7.777
9.252
10.911
12.809
15.019
17.6
20.592
24.019
27.889
32.213
37.002
42.25
47.936
54.022
60.456
67.19
74.185
81.397
88.778
96.256
103.742
111.154
118.43
125.506
132.321
138.804
144.87
150.456
155.522
160.037
163.977
167.309
169.995
172.012
173.347
174.005
174.006
173.366
172.093
170.213
167.76
164.79
161.375
157.569
153.411
148.941
144.196
139.226
134.083
128.805
123.419
117.949
112.412
106.833
101.238
95.638
90.035
84.42
78.773
73.086
67.365
61.61
55.828
50.018
44.182
38.333
32.492
26.679
20.911
15.203
9.569
4.03
-1.388
-6.658
-11.751
-16.643
-21.318
-25.758
-29.948
-33.875
-37.53
-40.908
-44.012
-46.841
-49.395
-51.677
-53.688
-55.435
-56.926
-58.171
-59.179
-59.962
-60.531
-60.897
-61.072
-61.064
-60.886
-60.549
-60.066
-59.45
-58.716
-57.88
-56.957
-55.966
-54.925
-53.848
-52.749
-51.634
-50.516
-49.411
-48.338
-47.316
-46.366
-45.505
-44.753
-44.131
-43.653
-43.326
-43.146
-43.096
-43.171
-43.368
-43.695
-44.163
-44.774
-45.523
-46.398
-47.382
-48.447
-49.557
-50.66
-51.691
-52.604
-53.375
-53.997
-54.485
-54.835
-55.032
-55.049
-54.851
-54.418
-53.731
-52.777
-51.556
-50.1
-48.491
-46.843
-45.29
-43.931
-42.814
-41.974
-41.454
-41.306
-41.597
-42.408
-43.764
-45.733
-48.501
-52.087
-56.35
-61.018
-65.5
-69.223
-71.874
-72.974
-71.896
-68.598
-63.383
-56.899
-50.56
-45.448
-42.025
-41.088
-43.544
-48.673
-54.448
-58.496
-57.292
-49.407
-36.575
-18.54
6.998
42.867
94.37
164.559
250.083
347.127
451.249
555.461
655.153
743.052
805.969
831.032
806.373
726.327
597.702
436.788
266.782
111.189
-13.635
-98.982
-145.496
-159.983
-148.786
-119.908
-81.956
-42.085
-10.493
5.117
4.274
-9.985
-29.555
-45.784
-55.731
-59.5
-59.613
-59.355
-59.441
-59.338
-58.249
-55.301
-50.734
-45.397
-40.138
-35.832
-32.814
-31.016
-30.307
-30.457
-31.323
-32.832
-34.852
-37.224
-39.804
-42.467
-45.122
-47.704
-50.126
-52.278
-54.063
-55.42
-56.348
-56.887
-57.073
-56.924
-56.437
-55.619
-54.502
-53.124
-51.535
-49.77
-47.859
-45.839
-43.76
-41.675
-39.632
-37.65
-35.715
-33.798
-31.884
-29.97
-28.064
-26.164
-24.243
-22.279
-20.263
-18.195
-16.083
-13.926
-11.707
-9.413
-7.042
-4.597
-2.098
0.445
3.036
5.672
8.345
11.028
13.673
16.246
18.733
21.124
23.416
25.612
27.713
29.743
31.746
33.752
35.791
37.882
40.02
42.214
44.5
46.922
49.553
52.474
55.731
59.367
63.448
68.037
73.166
78.824
84.941
91.414
98.185
105.266
112.578
119.874
127.032
134.027
140.737
147.246
153.089
156.974
158.967
160.012
161.726
167.311
176.637
186.415
193.393
192.977
184.772
173.153
161.516
153.478
149.779
147.228
143.9
138.596
131.024
122.62
114.105
105.51
96.963
88.366
79.751
71.351
63.272
55.522
48.159
41.276
34.924
29.12
23.837
18.992
14.526
10.428
6.662
3.186
-0.054
-3.135
-6.101
-8.966
-11.744
-14.452
-17.122
-19.811
-22.553
-25.358
-28.224
-31.13
-34.062
-37.016
-39.971
-42.89
-45.732
-48.442
-50.989
-53.363
-55.555
-57.554
-59.345
-60.905
-62.226
-63.311
-64.163
-64.79
-65.195
-65.38
-65.36
-65.158
-64.799
-64.311
-63.714
-63.023
-62.254
-61.422
-60.534
-59.606
-58.659
-57.704
-56.757
-55.83
-54.916
-54.021
-53.172
-52.359
-51.55
-50.72
-49.843
-48.917
-47.993
-47.088
-46.156
-45.249
-44.551
-44.108
-43.868
-43.857
-43.887
-44.298
-46.208
-49.405
-52.851
-54.882
-52.322
-45.279
-36.954
-30.509
-30.44
-37.143
-46.337
-54.701
-58.686
-57.577
-54.558
-51.612
-50.058
-50.331
-51.127
-51.83
-52.485
-53.038
-53.678
-54.455
-55.192
-55.832
-56.407
-56.909
-57.327
-57.667
-57.94
-58.162
-58.356
-58.517
-58.617
-58.648
-58.625
-58.559
-58.447
-58.293
-58.126
-58.003
-57.98
-58.082
-58.283
-58.55
-58.909
-59.336
-59.671
-59.772
-59.605
-59.21
-58.78
-57.972
-55.772
-51.712
-46.39
-42.429
-43.602
-51.598
-64.679
-77.288
-83.083
-79.226
-67.677
-54.667
-46.201
-44.779
-49.246
-55.586
-60.626
-63.383
-64.228
-64.515
-64.962
-65.483
-65.966
-66.277
-66.45
-66.654
-66.935
-67.27
-67.66
-68.098
-68.574
-69.073
-69.565
-70.028
-70.461
-70.86
-71.226
-71.573
-71.89
-72.141
-72.302
-72.347
-72.273
-72.124
-71.918
-71.607
-71.239
-70.995
-70.921
-70.965
-71.15
-71.297
-71.731
-73.566
-76.619
-79.851
-81.634
-78.821
-71.46
-62.751
-55.833
-55.166
-61.24
-69.796
-77.532
-80.941
-79.252
-75.638
-72.099
-69.939
-69.624
-69.867
-70.044
-70.207
-70.306
-70.528
-70.933
-71.342
-71.696
-72.027
-72.326
-72.585
-72.809
-73.005
-73.187
-73.383
-73.605
-73.837
-74.074
-74.318
-74.567
-74.823
-75.084
-75.346
-75.608
-75.871
-76.137
-76.406
-76.677
-76.952
-77.23
-77.513
-77.8
-78.094
-78.395
-78.703
-79.021
-79.349
-79.689
-80.04
-80.405
-80.783
-81.175
-81.582
-82.002
-82.436
-82.882
-83.339
-83.806
-84.28
-84.759
-85.241
-85.722
-86.2
-86.67
-87.13
-87.576
-88.002
-88.406
-88.782
-89.126
-89.434
-89.7
-89.919
-90.086
-90.196
-90.244
-90.226
-90.136
-89.97
-89.723
-89.392
-88.974
-88.464
-87.862
-87.164
-86.37
-85.478
-84.491
-83.408
-82.233
-80.969
-79.62
-78.192
-76.693
-75.13
-73.512
-71.85
-70.155
-68.438
-66.712
-64.99
-63.283
-61.604
-59.967
-58.385
-56.871
-55.437
-54.099
-52.871
-51.768
-50.803
-49.988
-49.331
-48.839
-48.521
-48.382
-48.432
-48.677
-49.122
-49.775
-50.642
-51.725
-53.023
-54.524
-56.202
-58.025
-59.961
-61.978
-64.048
-66.138
-68.214
-70.24
-72.178
-73.991
-75.645
-77.101
-78.316
-79.259
-79.914
-80.298
-80.478
-80.536
-80.557
-80.621
-80.786
-81.127
-81.745
-82.735
-84.191
-86.197
-88.788
-92.058
-96.195
-101.24
-107.091
-113.467
-119.777
-125.45
-130.104
-133.207
-134.115
-132.573
-128.618
-122.693
-116.153
-110.291
-105.851
-103.913
-104.956
-107.92
-111.559
-113.986
-113.337
-110.198
-104.623
-94.159
-73.56
-34.324
29.527
117.75
223.924
336.712
446.572
549.26
643.225
727.452
796.926
839.02
838.76
784.547
672.243
510.567
320.05
127.015
-42.692
-169.114
-243.926
-271.034
-259.921
-224.432
-179.343
-134.861
-101.52
-87.15
-91.24
-110.368
-135.718
-155.384
-165.297
-164.708
-155.746
-145.464
-136.197
-128.343
-122.784
-116.515
-108.442
-99.159
-88.731
-79.659
-73.121
-68.186
-63.322
-55.446
-44.079
-31.969
-23.216
-22.598
-31.421
-46.795
-63.3
-75.792
-81.797
-81.907
-80.11
-79.546
-81.713
-87.24
-93.888
-100.011
-105.128
-108.458
-110.572
-111.998
-112.567
-112.433
-111.604
-110.012
-107.847
-105.282
-102.384
-99.246
-95.955
-92.569
-89.161
-85.814
-82.57
-79.449
-76.477
-73.667
-71.022
-68.544
-66.217
-64.01
-61.899
-59.862
-57.877
-55.931
-54.001
-52.062
-50.083
-48.033
-45.89
-43.637
-41.263
-38.755
-36.106
-33.31
-30.366
-27.279
-24.052
-20.684
-17.174
-13.519
-9.721
-5.784
-1.711
2.49
6.815
11.255
15.804
20.451
25.187
30.002
34.885
39.826
44.812
49.829
54.863
59.896
64.913
69.897
74.828
79.69
84.464
89.132
93.677
98.08
102.326
106.396
110.275
113.946
117.393
120.604
123.562
126.256
128.675
130.808
132.646
134.182
135.41
136.326
136.927
137.211
137.179
136.833
136.175
135.21
133.943
132.382
130.536
128.413
126.024
123.383
120.501
117.393
114.074
110.559
106.866
103.01
99.01
94.884
90.65
86.327
81.933
77.487
73.009
68.517
64.029
59.562
55.135
50.762
46.46
42.244
38.127
34.122
30.243
26.5
22.903
19.463
16.189
13.087
10.164
7.427
4.879
2.524
0.366
-1.595
-3.358
-4.924
-6.292
-7.467
-8.449
-9.244
-9.856
-10.291
-10.555
-10.654
-10.595
-10.387
-10.037
-9.553
-8.944
-8.216
-7.378
-6.439
-5.405
-4.286
-3.09
-1.823
-0.496
0.886
2.313
3.779
5.276
6.797
8.337
9.889
11.447
13.006
14.56
16.104
17.635
19.147
20.637
22.103
23.542
24.952
26.332
27.682
29
30.287
31.542
32.764
33.955
35.114
36.239
37.33
38.389
39.417
40.414
41.382
42.323
43.24
44.135
45.013
45.875
46.722
47.555
48.375
49.183
49.98
50.767
51.545
52.315
53.081
53.85
54.623
55.403
56.191
56.983
57.78
58.585
59.4
60.229
61.078
61.956
62.88
63.873
64.951
66.12
67.387
68.747
70.198
71.735
73.354
75.05
76.817
78.65
80.547
82.506
84.511
86.542
88.559
90.507
92.337
94.015
95.51
96.808
97.902
98.791
99.487
100.009
100.37
100.575
100.627
100.523
100.277
99.913
99.481
99.053
98.705
98.512
98.542
98.841
99.443
100.369
101.62
103.175
105.018
107.132
109.504
112.13
114.987
118.026
121.177
124.334
127.371
130.155
132.547
134.394
135.572
135.997
135.572
134.214
131.845
128.335
123.577
117.524
110.032
100.843
89.81
76.979
62.436
